138393,156410,12606,0.011,-0.922,-0.278,-0.366,0.427,-0.122,491.097
138393,156172,12581,0.012,-0.923,-0.28,-0.061,0.427,-0.061,491.103
138371,156410,12606,0.012,-0.923,-0.28,-0.061,0.427,-0.061,491.107
138371,156169,12587,0.013,-0.922,-0.277,-0.061,0.427,-0.061,491.113
138368,156154,12606,0.012,-0.921,-0.275,0.427,0.549,0.183,491.117
138368,156150,12586,0.011,-0.922,-0.276,0.427,0.549,0.183,491.123
138354,156154,12606,0.008,-0.92,-0.277,0.854,0.732,0.305,491.127
138354,156144,12581,0.012,-0.919,-0.273,0.854,0.732,0.305,491.133
138355,156154,12606,0.014,-0.92,-0.269,1.159,0.671,0.366,491.136
138355,156122,12588,0.012,-0.917,-0.265,1.159,0.671,0.366,491.143
138341,156154,12606,0.011,-0.913,-0.266,0.976,0.61,0.549,491.146
138341,156144,12573,0.01,-0.915,-0.266,0.976,0.61,0.549,491.152
138344,156154,12606,0.011,-0.917,-0.265,0.915,0.488,0.61,491.156
138344,156159,12581,0.011,-0.92,-0.27,0.915,0.488,0.61,491.162
138360,156154,12606,0.011,-0.92,-0.27,0.488,0.366,0.732,491.166
138360,156143,12577,0.009,-0.92,-0.271,0.488,0.366,0.732,491.172
138338,156154,12606,0.008,-0.922,-0.273,0,0.305,0.732,491.176
138338,156141,12584,0.006,-0.923,-0.27,0,0.305,0.732,491.182
138355,156410,12606,0.012,-0.923,-0.272,0.061,0.122,0.671,491.186
138355,156166,12584,0.011,-0.919,-0.274,0.061,0.122,0.671,491.192
138352,156410,12606,0.008,-0.923,-0.272,0.122,0.244,0.793,491.196
138352,156168,12591,0.01,-0.923,-0.272,0.122,0.244,0.793,491.202
138334,156154,12606,0.009,-0.919,-0.276,0,0.427,0.671,491.206
138334,156136,12578,0.009,-0.92,-0.279,0,0.427,0.671,491.212
138307,156154,12606,0.005,-0.922,-0.276,0.061,0.549,0.549,491.216
138307,156125,12572,0.01,-0.921,-0.276,0.061,0.549,0.549,491.222
138339,156154,12606,0.01,-0.923,-0.275,0.305,0.488,0.488,491.226
138339,156107,12586,0.006,-0.922,-0.275,0.305,0.488,0.488,491.232
138326,156154,12606,0.008,-0.922,-0.269,0.488,0.61,0.427,491.235
138326,156127,12576,0.006,-0.919,-0.262,0.488,0.61,0.427,491.242
138335,156154,12606,0.006,-0.916,-0.262,0.061,0.427,0.366,491.245
138335,156149,12581,0.009,-0.917,-0.27,0.061,0.427,0.366,491.251
138339,156410,12606,0.011,-0.922,-0.273,-0.61,0.183,0.305,491.255
138339,156161,12588,0.011,-0.927,-0.271,-0.61,0.183,0.305,491.261
138362,156410,12606,0.009,-0.922,-0.27,-0.732,0.183,0.183,491.265
138362,156163,12585,0.01,-0.915,-0.271,-0.732,0.183,0.183,491.271
138365,156154,12606,0.009,-0.914,-0.273,-0.976,0.061,0.244,491.275
138365,156156,12583,0.011,-0.924,-0.274,-0.976,0.061,0.244,491.281
138360,156410,12606,0.011,-0.924,-0.275,-0.793,0.244,0.305,491.285
138360,156168,12580,0.013,-0.92,-0.275,-0.793,0.244,0.305,491.291
138361,156154,12606,0.014,-0.919,-0.272,-0.488,0.305,0.305,491.295
138361,156152,12581,0.011,-0.918,-0.273,-0.488,0.305,0.305,491.301
138360,156154,12606,0.012,-0.916,-0.272,-0.183,0.427,0.549,491.305
138360,156152,12571,0.012,-0.923,-0.278,-0.183,0.427,0.549,491.311
138324,156154,12606,0.01,-0.923,-0.276,0.122,0.488,0.732,491.315
138324,156128,12588,0.01,-0.924,-0.277,0.122,0.488,0.732,491.321
138340,156154,12606,0.01,-0.92,-0.272,0.427,0.61,0.854,491.325
138340,156143,12580,0.009,-0.92,-0.27,0.427,0.61,0.854,491.331
138312,156154,12606,0.01,-0.923,-0.27,0.244,0.549,0.793,491.334
138312,156137,12592,0.012,-0.922,-0.268,0.244,0.549,0.793,491.341
138310,156154,12606,0.01,-0.922,-0.27,-0.427,0.488,0.793,491.344
138310,156105,12585,0.007,-0.925,-0.273,-0.427,0.488,0.793,491.35
138333,156154,12606,0.009,-0.924,-0.278,-0.854,0.366,0.671,491.354
138333,156140,12588,0.01,-0.922,-0.278,-0.854,0.366,0.671,491.36
138306,156154,12606,0.008,-0.917,-0.272,-0.61,0.305,0.61,491.364
138306,156150,12571,0.007,-0.915,-0.273,-0.61,0.305,0.61,491.37
138310,156154,12606,0.005,-0.918,-0.272,-0.183,0.427,0.732,491.374
138310,156150,12584,0.006,-0.922,-0.274,-0.183,0.427,0.732,491.38
138347,156154,12606,0.008,-0.925,-0.273,0.183,0.366,0.61,491.384
138347,156139,12578,0.006,-0.926,-0.275,0.183,0.366,0.61,491.39
138352,156154,12606,0.006,-0.92,-0.273,0.183,0.366,0.488,491.394
138352,156156,12584,0.008,-0.92,-0.267,0.183,0.366,0.488,491.4
138384,156154,12606,0.009,-0.919,-0.27,0.122,0.366,0.488,491.404
138384,156155,12585,0.01,-0.919,-0.27,0.122,0.366,0.488,491.41
138385,156410,12606,0.01,-0.922,-0.268,-0.061,0.427,0.366,491.414
138385,156173,12582,0.007,-0.919,-0.271,-0.061,0.427,0.366,491.42
138391,156410,12606,0.01,-0.924,-0.273,-0.366,0.366,0.366,491.424
138391,156190,12598,0.01,-0.924,-0.274,-0.366,0.366,0.366,491.43
138344,156410,12606,0.01,-0.922,-0.275,-0.244,0.366,0.427,491.433
138344,156194,12577,0.01,-0.918,-0.272,-0.244,0.366,0.427,491.44
138376,156154,12606,0.013,-0.916,-0.276,-0.061,0.366,0.427,491.443
138376,156154,12579,0.007,-0.919,-0.274,-0.061,0.366,0.427,491.449
138327,156154,12606,0.009,-0.924,-0.273,-0.061,0.488,0.427,491.453
138327,156150,12575,0.011,-0.924,-0.278,-0.061,0.488,0.427,491.459
138321,156154,12606,0.011,-0.921,-0.278,0.366,0.488,0.488,491.463
138321,156125,12569,0.01,-0.917,-0.274,0.366,0.488,0.488,491.469
138310,156154,12606,0.007,-0.918,-0.27,0.793,0.549,0.427,491.473
138310,156105,12584,0.01,-0.917,-0.269,0.793,0.549,0.427,491.479
138314,156154,12606,0.012,-0.916,-0.271,0.854,0.671,0.427,491.483
138314,156096,12566,0.007,-0.921,-0.27,0.854,0.671,0.427,491.489
138301,156154,12606,0.006,-0.922,-0.265,0.549,0.671,0.366,491.493
138301,156105,12575,0.01,-0.919,-0.265,0.549,0.671,0.366,491.499
138307,156154,12606,0.009,-0.916,-0.262,0.061,0.488,0.427,491.503
138307,156118,12574,0.009,-0.919,-0.268,0.061,0.488,0.427,491.509
138337,156154,12606,0.009,-0.921,-0.271,-0.244,0.488,0.366,491.513
138337,156133,12574,0.007,-0.923,-0.267,-0.244,0.488,0.366,491.519
138324,156154,12606,0.008,-0.921,-0.265,-0.61,0.488,0.244,491.523
138324,156117,12572,0.01,-0.92,-0.271,-0.61,0.488,0.244,491.529
138362,156154,12606,0.008,-0.923,-0.279,-0.793,0.366,0.244,491.532
138362,156143,12578,0.008,-0.927,-0.28,-0.793,0.366,0.244,491.539
138327,156154,12606,0.014,-0.926,-0.28,-0.305,0.549,0.244,491.542
138327,156127,12581,0.01,-0.921,-0.276,-0.305,0.549,0.244,491.548
138344,156154,12606,0.01,-0.921,-0.276,-0.305,0.549,0.244,491.552
138344,156132,12581,0.009,-0.917,-0.274,0.549,0.488,0.244,491.558
138332,156154,12606,0.009,-0.917,-0.274,0.549,0.488,0.244,491.562
138332,156131,12582,0.008,-0.918,-0.274,0.793,0.671,0.366,491.568
138320,156154,12606,0.008,-0.918,-0.274,0.793,0.671,0.366,491.572
138320,156110,12576,0.006,-0.924,-0.274,0.793,0.671,0.305,491.578
138310,156154,12606,0.006,-0.924,-0.274,0.793,0.671,0.305,491.582
138310,156127,12557,0.011,-0.919,-0.261,0.488,0.488,0.061,491.588
138291,156154,12606,0.011,-0.919,-0.261,0.488,0.488,0.061,491.592
138291,156120,12578,0.012,-0.919,-0.266,0.061,0.183,0.122,491.598
138298,156154,12606,0.012,-0.919,-0.266,0.061,0.183,0.122,491.602
138298,156137,12575,0.01,-0.93,-0.272,-0.061,0.366,0.244,491.608
138283,156154,12606,0.01,-0.93,-0.272,-0.061,0.366,0.244,491.612
138283,156100,12567,0.01,-0.923,-0.264,0.061,0.427,0.305,491.618
138276,156154,12606,0.01,-0.923,-0.264,0.061,0.427,0.305,491.621
138276,156106,12559,0.01,-0.917,-0.265,0.122,0.366,0.427,491.628
138244,156154,12606,0.01,-0.917,-0.265,0.122,0.366,0.427,491.631
138244,156087,12569,0.009,-0.923,-0.266,-0.122,0.305,0.61,491.638
138276,156154,12606,0.009,-0.923,-0.266,-0.122,0.305,0.61,491.641
138276,156053,12563,0.006,-0.917,-0.268,-0.183,0.183,0.549,491.647
138252,156154,12606,0.006,-0.917,-0.268,-0.183,0.183,0.549,491.651
138252,156072,12581,0.009,-0.918,-0.268,-0.854,0.122,0.488,491.657
138273,156154,12606,0.009,-0.918,-0.268,-0.854,0.122,0.488,491.661
138273,156072,12576,0.008,-0.921,-0.272,-1.159,-0.061,0.488,491.667
138264,156154,12606,0.008,-0.921,-0.272,-1.159,-0.061,0.488,491.671
138264,156107,12572,0.009,-0.917,-0.272,-1.159,0.061,0.305,491.677
138284,156154,12606,0.009,-0.917,-0.272,-1.159,0.061,0.305,491.681
138284,156083,12564,0.008,-0.925,-0.275,-1.28,0.183,0.305,491.687
138287,156154,12606,0.008,-0.925,-0.275,-1.28,0.183,0.305,491.691
138287,156093,12561,0.012,-0.925,-0.276,-1.098,0.305,0.305,491.697
138311,156154,12606,0.012,-0.919,-0.276,-1.098,0.305,0.305,491.701
138311,156114,12577,0.011,-0.919,-0.276,-0.61,0.305,0.244,491.707
138297,156154,12606,0.011,-0.92,-0.276,-0.61,0.305,0.244,491.711
138297,156095,12557,0.01,-0.923,-0.272,-0.183,0.427,0.427,491.717
138279,156154,12606,0.011,-0.923,-0.269,-0.183,0.427,0.427,491.721
138279,156095,12573,0.01,-0.92,-0.27,-0.122,0.549,0.427,491.727
138306,156154,12606,0.01,-0.917,-0.266,-0.122,0.549,0.427,491.73
138306,156144,12571,0.005,-0.92,-0.263,-0.305,0.366,0.549,491.737
138326,156154,12606,0.005,-0.922,-0.272,-0.305,0.366,0.549,491.74
138326,156131,12568,0.007,-0.923,-0.268,-1.037,0.122,0.488,491.746
138349,156410,12606,0.011,-0.922,-0.27,-1.037,0.122,0.488,491.75
138349,156165,12569,0.011,-0.919,-0.27,-1.524,0,0.427,491.756
138332,156154,12606,0.007,-0.921,-0.272,-1.524,0,0.427,491.76
138332,156159,12580,0.007,-0.922,-0.275,-1.707,-0.061,0.366,491.766
138355,156410,12606,0.007,-0.92,-0.277,-1.707,-0.061,0.366,491.77
138355,156162,12582,0.01,-0.919,-0.281,-1.463,0,0.305,491.776
138333,156154,12606,0.011,-0.92,-0.282,-1.463,0,0.305,491.78
138333,156147,12573,0.01,-0.92,-0.28,-0.976,0.122,0.305,491.786
138348,156154,12606,0.009,-0.922,-0.282,-0.976,0.122,0.305,491.79
138348,156121,12574,0.01,-0.924,-0.277,-0.427,0.366,0.366,491.796
138326,156154,12606,0.011,-0.919,-0.278,-0.427,0.366,0.366,491.8
138326,156120,12570,0.011,-0.915,-0.271,0.061,0.305,0.427,491.806
138312,156154,12606,0.008,-0.916,-0.277,0.061,0.305,0.427,491.81
138312,156125,12578,0.006,-0.922,-0.276,0.061,0.488,0.427,491.816
138317,156154,12606,0.014,-0.924,-0.277,0.061,0.488,0.427,491.82
138317,156139,12565,0.01,-0.924,-0.277,-0.061,0.488,0.488,491.826
138336,156410,12606,0.01,-0.919,-0.271,-0.061,0.488,0.488,491.829
138336,156175,12579,0.012,-0.912,-0.266,-0.183,0.305,0.549,491.836
138354,156410,12606,0.006,-0.913,-0.268,-0.183,0.305,0.549,491.839
138354,156176,12574,0.005,-0.921,-0.268,-0.488,0.366,0.61,491.845
138358,156410,12606,0.01,-0.922,-0.272,-0.488,0.366,0.61,491.849
138358,156177,12571,0.008,-0.921,-0.274,-0.732,0.122,0.488,491.855
138375,156410,12606,0.01,-0.922,-0.277,-0.732,0.122,0.488,491.859
138375,156167,12596,0.01,-0.923,-0.276,-0.671,0.305,0.488,491.865
138384,156410,12606,0.012,-0.921,-0.273,-0.671,0.305,0.488,491.869
138384,156169,12590,0.009,-0.923,-0.274,-0.427,0.366,0.549,491.875
138396,156410,12606,0.007,-0.922,-0.275,-0.427,0.366,0.549,491.879
138396,156188,12594,0.009,-0.919,-0.273,-0.366,0.366,0.671,491.885
138382,156410,12606,0.007,-0.919,-0.277,-0.366,0.366,0.671,491.889
138382,156199,12580,0.007,-0.922,-0.279,-0.305,0.427,0.732,491.895
138370,156410,12606,0.01,-0.922,-0.278,-0.305,0.427,0.732,491.899
138370,156173,12570,0.012,-0.921,-0.276,0.183,0.549,0.61,491.905
138367,156410,12606,0.012,-0.918,-0.278,0.183,0.549,0.61,491.909
138367,156161,12563,0.007,-0.916,-0.271,0.61,0.61,0.732,491.915
138362,156410,12606,0.008,-0.92,-0.267,0.61,0.61,0.732,491.918
138362,156168,12562,0.009,-0.918,-0.261,0.549,0.488,0.854,491.925
138318,156154,12606,0.008,-0.913,-0.261,0.549,0.488,0.854,491.928
138318,156117,12569,0.003,-0.918,-0.272,-0.244,0.366,0.732,491.935
138310,156154,12606,0.003,-0.925,-0.269,-0.244,0.366,0.732,491.938
138310,156149,12561,0.007,-0.922,-0.27,-0.854,0.183,0.366,491.944
138310,156154,12606,0.007,-0.917,-0.264,-0.854,0.183,0.366,491.948
138310,156106,12572,0.003,-0.917,-0.267,-1.341,-0.061,0.305,491.954
138297,156154,12606,0.002,-0.92,-0.27,-1.341,-0.061,0.305,491.958
138297,156127,12566,0.004,-0.924,-0.277,-1.524,0.122,0.061,491.964
138306,156154,12606,0.01,-0.923,-0.283,-1.524,0.122,0.061,491.968
138306,156154,12575,0.01,-0.921,-0.28,-0.976,0.183,-0.244,491.974
138332,156154,12606,0.012,-0.919,-0.275,-0.976,0.183,-0.244,491.978
138332,156105,12576,0.01,-0.917,-0.276,-0.488,0.305,-0.183,491.984
138321,156410,12606,0.008,-0.919,-0.279,-0.488,0.305,-0.183,491.988
138321,156169,12561,0.011,-0.921,-0.277,-0.305,0.427,-0.061,491.994
138344,156154,12606,0.011,-0.921,-0.275,-0.305,0.427,-0.061,491.998
138344,156159,12571,0.012,-0.92,-0.274,-0.305,0.488,-0.122,492.004
138353,156154,12606,0.012,-0.918,-0.273,-0.305,0.488,-0.122,492.008
138353,156132,12580,0.01,-0.917,-0.277,-0.244,0.61,-0.061,492.014
138315,156410,12606,0.012,-0.919,-0.276,-0.244,0.61,-0.061,492.018
138315,156166,12571,0.009,-0.923,-0.276,-0.061,0.549,0.122,492.024
138328,156154,12606,0.012,-0.921,-0.274,-0.061,0.549,0.122,492.027
138328,156143,12561,0.01,-0.918,-0.273,0.305,0.427,0.244,492.034
138323,156154,12606,0.01,-0.918,-0.277,0.305,0.427,0.244,492.037
138323,156126,12577,0.01,-0.922,-0.276,0.488,0.549,0.488,492.043
138311,156410,12606,0.008,-0.925,-0.273,0.488,0.549,0.488,492.047
138311,156168,12570,0.011,-0.919,-0.272,0.61,0.366,0.671,492.053
138305,156154,12606,0.007,-0.915,-0.272,0.61,0.366,0.671,492.057
138305,156136,12574,0.007,-0.918,-0.27,0.427,0.366,0.732,492.063
138330,156154,12606,0.007,-0.918,-0.268,0.427,0.366,0.732,492.067
138330,156128,12567,0.009,-0.916,-0.266,0.183,0.244,0.854,492.073
138315,156154,12606,0.006,-0.912,-0.277,0.183,0.244,0.854,492.077
138315,156149,12578,0.01,-0.918,-0.277,0.061,0.366,0.549,492.083
138343,156154,12606,0.01,-0.925,-0.276,0.061,0.366,0.549,492.087
138343,156138,12564,0.006,-0.926,-0.277,0.427,0.427,0.549,492.093
138332,156154,12606,0.008,-0.924,-0.275,0.427,0.427,0.549,492.097
138332,156148,12583,0.01,-0.918,-0.272,0.732,0.427,0.61,492.103
138318,156154,12606,0.007,-0.918,-0.272,0.732,0.427,0.61,492.107
138318,156132,12583,0.004,-0.923,-0.274,0.61,0.427,0.488,492.113
138322,156154,12606,0.01,-0.925,-0.27,0.61,0.427,0.488,492.116
138322,156132,12563,0.009,-0.923,-0.271,0.366,0.305,0.488,492.123
138303,156154,12606,0.006,-0.916,-0.272,0.366,0.305,0.488,492.126
138303,156103,12571,0.008,-0.914,-0.267,0.366,0.305,0.427,492.133
138298,156154,12606,0.008,-0.917,-0.271,0.366,0.305,0.427,492.136
138298,156107,12568,0.006,-0.918,-0.272,0.244,0.183,0.427,492.142
138307,156154,12606,0.006,-0.918,-0.272,0.244,0.183,0.427,492.146
138307,156089,12566,0.011,-0.925,-0.28,0.366,0.366,0.305,492.152
138302,156154,12606,0.011,-0.925,-0.28,0.366,0.366,0.305,492.156
138302,156141,12563,0.009,-0.924,-0.274,0.549,0.366,0.427,492.162
138311,156154,12606,0.009,-0.924,-0.274,0.549,0.366,0.427,492.166
138311,156099,12573,0.007,-0.914,-0.262,0.061,0.366,0.549,492.172
138332,156410,12606,0.007,-0.914,-0.262,0.061,0.366,0.549,492.176
138332,156163,12570,0.006,-0.923,-0.269,-0.61,0.427,0.305,492.182
138329,156154,12606,0.006,-0.923,-0.269,-0.61,0.427,0.305,492.186
138329,156150,12576,0.009,-0.922,-0.268,-0.671,0.488,0.061,492.192
138339,156410,12606,0.009,-0.922,-0.268,-0.671,0.488,0.061,492.196
138339,156169,12580,0.009,-0.907,-0.268,-0.732,0.183,0.122,492.202
138336,156410,12606,0.009,-0.907,-0.268,-0.732,0.183,0.122,492.206
138336,156180,12572,0.005,-0.921,-0.277,-0.854,0.183,0.183,492.212
138361,156410,12606,0.005,-0.921,-0.277,-0.854,0.183,0.183,492.216
138361,156180,12581,0.012,-0.928,-0.278,-0.366,0.122,-0.061,492.222
138315,156154,12606,0.012,-0.928,-0.278,-0.366,0.122,-0.061,492.225
138315,156134,12561,0.012,-0.924,-0.275,0.244,0.305,0,492.232
138280,156154,12606,0.012,-0.924,-0.275,0.244,0.305,0,492.235
138280,156110,12559,0.008,-0.921,-0.273,0.244,0.305,0.305,492.241
138268,156154,12606,0.008,-0.921,-0.273,0.244,0.305,0.305,492.245
138268,156103,12563,0.012,-0.921,-0.272,-0.183,0.244,0.122,492.251
138259,156154,12606,0.012,-0.921,-0.272,-0.183,0.244,0.122,492.255
138259,156103,12566,0.009,-0.921,-0.268,-0.61,0.183,0.122,492.261
138266,156154,12606,0.009,-0.921,-0.268,-0.61,0.183,0.122,492.265
138266,156058,12558,0.01,-0.915,-0.272,-0.793,0.244,0.305,492.271
138243,156154,12606,0.01,-0.915,-0.272,-0.793,0.244,0.305,492.275
138243,156106,12578,0.012,-0.918,-0.269,-0.549,0.183,0.366,492.281
138271,156154,12606,0.012,-0.918,-0.269,-0.549,0.183,0.366,492.285
138271,156100,12572,0.009,-0.919,-0.272,-0.549,0.183,0.366,492.291
138294,156154,12606,0.01,-0.921,-0.272,-0.671,0.183,0.488,492.295
138294,156103,12553,0.01,-0.92,-0.275,-0.671,0.183,0.488,492.301
138290,156154,12606,0.011,-0.925,-0.278,-0.488,0.183,0.488,492.305
138290,156105,12564,0.01,-0.925,-0.276,-0.488,0.183,0.488,492.311
138298,156154,12606,0.011,-0.921,-0.279,-0.183,0.183,0.549,492.314
138298,156132,12560,0.01,-0.919,-0.276,-0.183,0.183,0.549,492.321
138288,156154,12606,0.007,-0.92,-0.275,0.122,0.366,0.671,492.324
138288,156112,12571,0.007,-0.925,-0.273,0.122,0.366,0.671,492.331
138287,156154,12606,0.009,-0.924,-0.274,0.427,0.488,0.549,492.334
138287,156113,12563,0.012,-0.919,-0.274,0.427,0.488,0.549,492.34
138283,156154,12606,0.009,-0.915,-0.267,0.183,0.488,0.549,492.344
138283,156102,12555,0.006,-0.92,-0.271,0.183,0.488,0.549,492.35
138286,156154,12606,0.005,-0.915,-0.265,-0.061,0.488,0.488,492.354
138286,156095,12568,0.008,-0.912,-0.264,-0.061,0.488,0.488,492.36
138272,156154,12606,0.007,-0.916,-0.271,-0.488,0.366,0.305,492.364
138272,156118,12556,0.007,-0.925,-0.273,-0.488,0.366,0.305,492.37
138268,156154,12606,0.008,-0.923,-0.27,-0.732,0.366,0.305,492.374
138268,156102,12573,0.011,-0.925,-0.274,-0.732,0.366,0.305,492.38
138247,156154,12606,0.01,-0.925,-0.275,-0.915,0.366,0.244,492.384
138247,156101,12563,0.009,-0.927,-0.277,-0.915,0.366,0.244,492.39
138240,156154,12606,0.01,-0.918,-0.269,-0.549,0.305,0.366,492.394
138240,156069,12559,0.008,-0.919,-0.27,-0.549,0.305,0.366,492.4
138235,156154,12606,0.009,-0.921,-0.277,-0.366,0.305,0.488,492.404
138235,156082,12574,0.01,-0.923,-0.277,-0.366,0.305,0.488,492.41
138203,156154,12606,0.01,-0.922,-0.278,-0.366,0.305,0.305,492.414
138203,156048,12559,0.008,-0.923,-0.271,-0.366,0.305,0.305,492.42
138188,156154,12606,0.008,-0.922,-0.268,-0.244,0.366,0.244,492.423
138188,156035,12559,0.008,-0.915,-0.275,-0.244,0.366,0.244,492.43
138204,156154,12606,0.008,-0.916,-0.276,-0.549,0.427,0.244,492.433
138204,156036,12553,0.012,-0.925,-0.276,-0.549,0.427,0.244,492.439
138209,156154,12606,0.01,-0.922,-0.275,-0.122,0.488,0.305,492.443
138209,156061,12554,0.01,-0.92,-0.276,-0.122,0.488,0.305,492.449
138235,156154,12606,0.01,-0.922,-0.268,0.122,0.61,0.366,492.453
138235,156035,12554,0.008,-0.916,-0.27,0.122,0.61,0.366,492.459
138251,156154,12606,0.01,-0.919,-0.278,-0.122,0.427,0.366,492.463
138251,156086,12559,0.007,-0.923,-0.281,-0.122,0.427,0.366,492.469
138263,156154,12606,0.011,-0.926,-0.277,-0.061,0.549,0.305,492.473
138263,156068,12556,0.01,-0.921,-0.272,-0.061,0.549,0.305,492.479
138241,156154,12606,0.008,-0.914,-0.267,0.244,0.549,0.366,492.483
138241,156083,12561,0.005,-0.914,-0.268,0.244,0.549,0.366,492.489
138236,156154,12606,0.004,-0.915,-0.267,0.122,0.427,0.488,492.493
138236,156064,12549,0.01,-0.919,-0.267,0.122,0.427,0.488,492.499
138226,156154,12606,0.013,-0.921,-0.273,-0.061,0.366,0.244,492.503
138226,156072,12560,0.01,-0.923,-0.274,-0.061,0.366,0.244,492.509
138232,156154,12606,0.009,-0.922,-0.273,-0.061,0.427,0.244,492.513
138232,156069,12552,0.011,-0.919,-0.272,-0.061,0.427,0.244,492.519
138191,156154,12606,0.01,-0.919,-0.273,0.244,0.427,0.427,492.522
138191,156041,12550,0.011,-0.921,-0.274,0.244,0.427,0.427,492.529
138214,156154,12606,0.009,-0.921,-0.274,0.305,0.366,0.61,492.532
138214,156038,12537,0.009,-0.919,-0.27,0.305,0.366,0.61,492.538
138189,156154,12606,0.01,-0.919,-0.268,0.183,0.366,0.732,492.542
138189,156022,12560,0.01,-0.917,-0.266,0.183,0.366,0.732,492.548
138196,156154,12606,0.01,-0.918,-0.268,-0.549,0.366,0.61,492.552
138196,156044,12530,0.01,-0.922,-0.27,-0.549,0.366,0.61,492.558
138177,156154,12606,0.011,-0.918,-0.276,-1.098,0.305,0.549,492.562
138177,156039,12548,0.009,-0.92,-0.28,-1.098,0.305,0.549,492.568
138183,156154,12606,0.006,-0.921,-0.276,-0.732,0.305,0.488,492.572
138183,156036,12540,0.008,-0.922,-0.274,-0.732,0.305,0.488,492.578
138202,156154,12606,0.007,-0.918,-0.276,-0.305,0.244,0.671,492.582
138202,156074,12541,0.011,-0.917,-0.274,-0.305,0.244,0.671,492.588
138167,156154,12606,0.007,-0.921,-0.272,-0.244,0.183,0.488,492.592
138167,156030,12541,0.006,-0.923,-0.278,-0.244,0.183,0.488,492.598
138152,156154,12606,0.005,-0.927,-0.275,-0.122,0.366,0.366,492.602
138152,156024,12539,0.009,-0.924,-0.275,-0.122,0.366,0.366,492.608
138156,156154,12606,0.012,-0.917,-0.278,0.183,0.244,0.305,492.611
138156,156014,12548,0.009,-0.916,-0.277,0.183,0.244,0.305,492.618
138146,156154,12606,0.005,-0.92,-0.275,0.183,0.366,0.427,492.621
138146,156016,12548,0.008,-0.922,-0.275,0.183,0.366,0.427,492.628
138141,156154,12606,0.009,-0.923,-0.273,0.671,0.366,0.427,492.631
138141,155988,12541,0.008,-0.923,-0.271,0.671,0.366,0.427,492.637
138127,156154,12606,0.009,-0.921,-0.272,0.671,0.366,0.366,492.641
138127,155961,12533,0.008,-0.919,-0.279,0.671,0.366,0.366,492.647
138135,156154,12606,0.005,-0.925,-0.277,0.427,0.61,0.488,492.651
138135,156017,12535,0.007,-0.928,-0.267,0.427,0.61,0.488,492.657
138157,156154,12606,0.011,-0.919,-0.262,0.549,0.427,0.244,492.661
138157,156016,12543,0.008,-0.911,-0.263,0.549,0.427,0.244,492.667
138163,156154,12606,0.002,-0.91,-0.266,-0.244,0.366,0.244,492.671
138163,156020,12541,0.005,-0.92,-0.269,-0.244,0.366,0.244,492.677
138164,156154,12606,0.008,-0.923,-0.272,-0.671,0.427,0.122,492.681
138164,156020,12536,0.009,-0.922,-0.271,-0.671,0.427,0.122,492.687
138183,156154,12606,0.01,-0.917,-0.268,-0.793,0.427,0.061,492.691
138183,156018,12535,0.012,-0.918,-0.268,-0.793,0.427,0.061,492.697
138159,156154,12606,0.011,-0.922,-0.272,-0.915,0.366,0.183,492.701
138159,156013,12551,0.01,-0.924,-0.276,-0.915,0.366,0.183,492.707
138163,156154,12606,0.011,-0.924,-0.275,-0.793,0.488,0.122,492.711
138163,156013,12535,0.013,-0.923,-0.273,-0.793,0.488,0.122,492.717
138138,156154,12606,0.014,-0.92,-0.273,-0.549,0.488,0.244,492.72
138138,155989,12551,0.011,-0.918,-0.279,-0.549,0.488,0.244,492.727
138180,156154,12606,0.011,-0.918,-0.279,-0.549,0.488,0.244,492.73
138180,156007,12549,0.011,-0.924,-0.279,-0.366,0.549,0.549,492.736
138163,156154,12606,0.011,-0.924,-0.279,-0.366,0.549,0.549,492.74
138163,156014,12548,0.011,-0.918,-0.272,0.061,0.61,0.732,492.746
138161,156154,12606,0.011,-0.918,-0.272,0.061,0.61,0.732,492.75
138161,155998,12539,0.008,-0.919,-0.267,0.488,0.549,0.854,492.756
138159,156154,12606,0.008,-0.919,-0.267,0.488,0.549,0.854,492.76
138159,156029,12542,0.006,-0.913,-0.26,0.427,0.488,0.976,492.766
138175,156154,12606,0.006,-0.913,-0.26,0.427,0.488,0.976,492.77
138175,156042,12545,0.007,-0.92,-0.267,-0.549,0.183,0.976,492.776
138175,156154,12606,0.007,-0.92,-0.267,-0.549,0.183,0.976,492.78
138175,156007,12543,0.005,-0.922,-0.271,-1.585,0.244,0.793,492.786
138179,156154,12606,0.005,-0.922,-0.271,-1.585,0.244,0.793,492.79
138179,156021,12542,0.007,-0.918,-0.269,-1.829,0.122,0.549,492.796
138156,156154,12606,0.007,-0.918,-0.269,-1.829,0.122,0.549,492.8
138156,156028,12534,0.004,-0.92,-0.277,-1.768,0.122,0.366,492.806
138174,156154,12606,0.004,-0.92,-0.277,-1.768,0.122,0.366,492.809
138174,156038,12544,0.002,-0.924,-0.279,-1.28,0.244,0.061,492.816
138190,156154,12606,0.002,-0.924,-0.279,-1.28,0.244,0.061,492.819
138190,156049,12559,0.007,-0.918,-0.277,-0.61,0.366,-0.183,492.826
138189,156154,12606,0.007,-0.918,-0.277,-0.61,0.366,-0.183,492.829
138189,156042,12552,0.007,-0.921,-0.28,-0.122,0.366,-0.244,492.835
138195,156154,12606,0.007,-0.921,-0.28,-0.122,0.366,-0.244,492.839
138195,156059,12550,0.011,-0.92,-0.277,0.061,0.488,-0.244,492.845
138202,156154,12606,0.011,-0.92,-0.277,0.061,0.488,-0.244,492.849
138202,156026,12536,0.011,-0.922,-0.273,0.061,0.427,-0.122,492.855
138196,156154,12606,0.011,-0.922,-0.273,0.061,0.427,-0.122,492.859
138196,156018,12539,0.012,-0.922,-0.266,0,0.366,-0.122,492.865
138168,156154,12606,0.012,-0.922,-0.266,0,0.366,-0.122,492.869
138168,156045,12547,0.011,-0.917,-0.267,-0.427,0.366,-0.061,492.875
138191,156154,12606,0.006,-0.913,-0.267,-0.427,0.366,-0.061,492.879
138191,156044,12535,0.008,-0.922,-0.272,-1.098,0.366,0,492.885
138169,156154,12606,0.012,-0.925,-0.271,-1.098,0.366,0,492.889
138169,156036,12537,0.009,-0.919,-0.272,-0.976,0.305,-0.061,492.895
138179,156154,12606,0.007,-0.917,-0.276,-0.976,0.305,-0.061,492.899
138179,156038,12545,0.011,-0.918,-0.275,-0.915,0.183,-0.061,492.905
138194,156154,12606,0.009,-0.92,-0.273,-0.915,0.183,-0.061,492.909
138194,156030,12546,0.007,-0.919,-0.278,-0.793,0.244,0.061,492.915
138162,156154,12606,0.01,-0.92,-0.281,-0.793,0.244,0.061,492.918
138162,156046,12540,0.012,-0.923,-0.284,-0.427,0.305,0,492.925
138178,156154,12606,0.011,-0.922,-0.281,-0.427,0.305,0,492.928
138178,156052,12550,0.012,-0.92,-0.278,0.122,0.305,0.244,492.934
138219,156154,12606,0.012,-0.919,-0.273,0.122,0.305,0.244,492.938
138219,156033,12557,0.01,-0.92,-0.275,0.549,0.305,0.305,492.944
138204,156154,12606,0.012,-0.922,-0.281,0.549,0.305,0.305,492.948
138204,156027,12552,0.013,-0.926,-0.281,0.976,0.366,0.366,492.954
138198,156154,12606,0.011,-0.924,-0.284,0.976,0.366,0.366,492.958
138198,156060,12540,0.011,-0.923,-0.283,1.524,0.488,0.61,492.964
138188,156154,12606,0.012,-0.924,-0.276,1.524,0.488,0.61,492.968
138188,156035,12554,0.01,-0.921,-0.271,1.89,0.732,0.854,492.974
138196,156154,12606,0.008,-0.918,-0.271,1.89,0.732,0.854,492.978
138196,156031,12550,0.01,-0.922,-0.269,2.134,0.854,0.976,492.984
138202,156154,12606,0.01,-0.921,-0.274,2.134,0.854,0.976,492.988
138202,156045,12560,0.008,-0.918,-0.27,2.134,0.915,0.976,492.994
138192,156154,12606,0.009,-0.915,-0.264,2.134,0.915,0.976,492.998
138192,156044,12551,0.009,-0.915,-0.267,1.768,0.793,0.976,493.004
138210,156154,12606,0.005,-0.917,-0.269,1.768,0.793,0.976,493.007
138210,156058,12546,0.007,-0.92,-0.272,1.463,0.61,0.976,493.014
138223,156154,12606,0.009,-0.922,-0.276,1.463,0.61,0.976,493.017
138223,156068,12555,0.006,-0.922,-0.271,1.28,0.549,0.793,493.024
138227,156154,12606,0.007,-0.921,-0.265,1.28,0.549,0.793,493.027
138227,156097,12556,0.004,-0.919,-0.266,1.098,0.366,0.671,493.033
138236,156154,12606,0.007,-0.918,-0.267,1.098,0.366,0.671,493.037
138236,156087,12546,0.006,-0.919,-0.267,0.488,0.61,0.61,493.043
138199,156154,12606,0.007,-0.922,-0.269,0.488,0.61,0.61,493.047
138199,156092,12568,0.009,-0.922,-0.27,0.366,0.671,0.427,493.053
138244,156154,12606,0.011,-0.92,-0.267,0.366,0.671,0.427,493.057
138244,156076,12555,0.008,-0.917,-0.265,0.366,0.549,0.366,493.063
138204,156154,12606,0.006,-0.915,-0.266,0.366,0.549,0.366,493.067
138204,156047,12559,0.005,-0.92,-0.267,0.183,0.488,0.366,493.073
138200,156154,12606,0.008,-0.919,-0.271,0.183,0.488,0.366,493.077
138200,156077,12562,0.007,-0.922,-0.266,0.061,0.427,0.183,493.083
138186,156154,12606,0.007,-0.922,-0.27,0.061,0.427,0.183,493.087
138186,156050,12558,0.008,-0.919,-0.267,-0.183,0.244,0.244,493.093
138215,156154,12606,0.006,-0.919,-0.271,-0.183,0.244,0.244,493.097
138215,156026,12536,0.009,-0.923,-0.267,-0.366,0.244,0.122,493.103
138193,156154,12606,0.011,-0.919,-0.267,-0.366,0.244,0.122,493.107
138193,156055,12559,0.009,-0.92,-0.267,-0.488,0.122,0,493.113
138215,156154,12606,0.009,-0.923,-0.268,-0.488,0.122,0,493.116
138215,156041,12549,0.008,-0.921,-0.268,-0.793,0.061,0,493.123
138215,156154,12606,0.007,-0.92,-0.273,-0.793,0.061,0,493.126
138215,156077,12569,0.007,-0.924,-0.268,-1.159,0.061,0,493.132
138235,156154,12606,0.011,-0.921,-0.269,-1.159,0.061,0,493.136
138235,156087,12537,0.01,-0.918,-0.27,-1.28,0.244,0,493.142
138231,156154,12606,0.011,-0.923,-0.268,-1.28,0.244,0,493.146
138231,156085,12547,0.013,-0.922,-0.272,-1.28,0.244,0,493.152
138233,156154,12606,0.009,-0.918,-0.271,-1.28,0.244,0,493.156
138233,156064,12559,0.01,-0.919,-0.269,-1.402,0.244,0,493.162
138223,156154,12606,0.01,-0.924,-0.269,-1.402,0.244,0,493.166
138223,156078,12560,0.01,-0.923,-0.275,-1.463,0.488,0.122,493.172
138187,156154,12606,0.011,-0.921,-0.277,-1.463,0.488,0.122,493.176
138187,156042,12553,0.012,-0.921,-0.272,-1.524,0.427,0.122,493.182
138196,156154,12606,0.012,-0.921,-0.272,-1.524,0.427,0.122,493.186
138196,156018,12533,0.01,-0.919,-0.273,-1.402,0.305,0.183,493.192
138155,156154,12606,0.005,-0.919,-0.271,-1.402,0.305,0.183,493.196
138155,156027,12545,0.011,-0.919,-0.272,-1.402,0.244,0.244,493.202
138172,156154,12606,0.008,-0.917,-0.281,-1.402,0.244,0.244,493.205
138172,156025,12544,0.01,-0.922,-0.285,-1.524,0.061,0.244,493.212
138172,156154,12606,0.012,-0.929,-0.288,-1.524,0.061,0.244,493.215
138172,156063,12536,0.011,-0.928,-0.285,-0.793,0.244,0.244,493.222
138187,156154,12606,0.01,-0.924,-0.283,-0.793,0.244,0.244,493.225
138187,156032,12560,0.014,-0.921,-0.28,0.305,0.366,0.366,493.231
138204,156154,12606,0.013,-0.918,-0.281,0.305,0.366,0.366,493.235
138204,156041,12548,0.01,-0.919,-0.279,1.159,0.61,0.671,493.241
138213,156154,12606,0.011,-0.922,-0.276,1.159,0.61,0.671,493.245
138213,156073,12553,0.013,-0.923,-0.277,1.646,0.732,0.793,493.251
138254,156154,12606,0.012,-0.919,-0.269,1.646,0.732,0.793,493.255
138254,156073,12551,0.007,-0.916,-0.266,1.463,0.854,0.854,493.261
138214,156154,12606,0.012,-0.915,-0.261,1.463,0.854,0.854,493.265
138214,156068,12562,0.014,-0.915,-0.261,0.915,0.488,0.793,493.271
138233,156154,12606,0.008,-0.914,-0.269,0.915,0.488,0.793,493.275
138233,156104,12558,0.006,-0.92,-0.27,0.244,0.671,0.732,493.281
138238,156154,12606,0.008,-0.922,-0.267,0.244,0.671,0.732,493.285
138238,156111,12554,0.009,-0.922,-0.27,0,0.61,0.61,493.291
138243,156154,12606,0.008,-0.924,-0.274,0,0.61,0.61,493.295
138243,156108,12555,0.007,-0.923,-0.273,0.061,0.671,0.549,493.301
138258,156154,12606,0.009,-0.92,-0.27,0.061,0.671,0.549,493.305
138258,156113,12553,0.01,-0.92,-0.269,-0.183,0.488,0.427,493.311
138246,156154,12606,0.01,-0.92,-0.269,-0.183,0.488,0.427,493.314
138246,156071,12549,0.007,-0.917,-0.269,-0.244,0.488,0.305,493.321
138253,156154,12606,0.007,-0.917,-0.269,-0.244,0.488,0.305,493.324
138253,156123,12564,0.007,-0.918,-0.27,-0.305,0.549,0.122,493.33
138268,156154,12606,0.007,-0.918,-0.27,-0.305,0.549,0.122,493.334
138268,156114,12558,0.009,-0.915,-0.275,-0.671,0.305,0.244,493.34
138272,156154,12606,0.009,-0.915,-0.275,-0.671,0.305,0.244,493.344
138272,156117,12560,0.009,-0.929,-0.277,-0.61,0.183,0.183,493.35
138308,156154,12606,0.009,-0.929,-0.277,-0.61,0.183,0.183,493.354
138308,156137,12561,0.009,-0.92,-0.274,-0.61,0.183,0.122,493.36
138303,156154,12606,0.009,-0.92,-0.274,-0.61,0.183,0.122,493.364
138303,156143,12563,0.006,-0.925,-0.282,-0.61,0.427,0.122,493.37
138323,156410,12606,0.006,-0.925,-0.282,-0.61,0.427,0.122,493.374
138323,156163,12559,0.012,-0.923,-0.27,0.183,0.366,0.122,493.38
138338,156410,12606,0.012,-0.923,-0.27,0.183,0.366,0.122,493.384
138338,156183,12548,0.009,-0.912,-0.268,-0.122,0.305,0.244,493.39
138331,156154,12606,0.009,-0.912,-0.268,-0.122,0.305,0.244,493.394
138331,156146,12574,0.009,-0.917,-0.27,-0.549,0.427,0.183,493.4
138323,156154,12606,0.009,-0.917,-0.27,-0.549,0.427,0.183,493.404
138323,156159,12566,0.013,-0.916,-0.266,-0.61,0.366,0.122,493.41
138334,156410,12606,0.013,-0.916,-0.266,-0.61,0.366,0.122,493.413
138334,156184,12580,0.009,-0.915,-0.272,-0.915,0.305,0.244,493.42
138319,156410,12606,0.009,-0.915,-0.272,-0.915,0.305,0.244,493.423
138319,156173,12564,0.011,-0.922,-0.274,-1.037,0.305,0.244,493.429
138354,156410,12606,0.011,-0.922,-0.274,-1.037,0.305,0.244,493.433
138354,156170,12567,0.009,-0.93,-0.269,-0.61,0.244,0.305,493.439
138337,156154,12606,0.009,-0.93,-0.269,-0.61,0.244,0.305,493.443
138337,156138,12561,0.007,-0.916,-0.271,-0.671,0.305,0.427,493.449
138341,156410,12606,0.007,-0.916,-0.271,-0.671,0.305,0.427,493.453
138341,156177,12578,0.011,-0.92,-0.272,-0.671,0.305,0.427,493.459
138332,156410,12606,0.011,-0.923,-0.27,-0.671,0.366,0.427,493.463
138332,156164,12569,0.011,-0.921,-0.27,-0.671,0.366,0.427,493.469
138337,156154,12606,0.01,-0.918,-0.275,-0.915,0.183,0.427,493.473
138337,156154,12560,0.008,-0.918,-0.275,-0.915,0.183,0.427,493.479
138322,156154,12606,0.007,-0.92,-0.279,-0.793,0.183,0.549,493.483
138322,156159,12571,0.012,-0.923,-0.274,-0.793,0.183,0.549,493.489
138335,156154,12606,0.011,-0.922,-0.27,-0.427,0.244,0.427,493.493
138335,156159,12555,0.009,-0.918,-0.27,-0.427,0.244,0.427,493.499
138336,156410,12606,0.008,-0.917,-0.272,-0.671,0.183,0.427,493.503
138336,156164,12563,0.007,-0.92,-0.276,-0.671,0.183,0.427,493.509
138338,156410,12606,0.008,-0.923,-0.278,-0.488,0.305,0.366,493.512
138338,156165,12584,0.008,-0.926,-0.277,-0.488,0.305,0.366,493.519
138366,156410,12606,0.01,-0.923,-0.276,-0.122,0.427,0.244,493.522
138366,156176,12575,0.007,-0.918,-0.274,-0.122,0.427,0.244,493.528
138351,156410,12606,0.005,-0.917,-0.272,0.061,0.305,0.366,493.532
138351,156191,12568,0.01,-0.918,-0.267,0.061,0.305,0.366,493.538
138352,156410,12606,0.012,-0.919,-0.267,0,0.244,0.305,493.542
138352,156190,12561,0.009,-0.916,-0.272,0,0.244,0.305,493.548
138346,156410,12606,0.008,-0.919,-0.275,-0.366,0.305,0.183,493.552
138346,156160,12569,0.008,-0.924,-0.278,-0.366,0.305,0.183,493.558
138344,156410,12606,0.01,-0.921,-0.276,-0.366,0.244,0.122,493.562
138344,156186,12576,0.011,-0.918,-0.272,-0.366,0.244,0.122,493.568
138359,156410,12606,0.013,-0.917,-0.271,-0.061,0.305,0.183,493.572
138359,156165,12568,0.013,-0.917,-0.275,-0.061,0.305,0.183,493.578
138367,156410,12606,0.012,-0.92,-0.277,0.183,0.366,0.244,493.582
138367,156199,12578,0.011,-0.926,-0.272,0.183,0.366,0.244,493.588
138341,156410,12606,0.014,-0.921,-0.273,0.366,0.427,0.366,493.592
138341,156194,12562,0.012,-0.918,-0.269,0.366,0.427,0.366,493.598
138372,156410,12606,0.01,-0.914,-0.271,0.061,0.366,0.488,493.602
138372,156188,12569,0.007,-0.919,-0.276,0.061,0.366,0.488,493.608
138352,156410,12606,0.011,-0.922,-0.272,0.122,0.427,0.549,493.611
138352,156161,12580,0.014,-0.918,-0.264,0.122,0.427,0.549,493.618
138359,156410,12606,0.011,-0.916,-0.26,0,0.366,0.549,493.621
138359,156171,12567,0.01,-0.917,-0.266,0,0.366,0.549,493.627
138352,156410,12606,0.01,-0.917,-0.275,-0.915,0.061,0.61,493.631
138352,156163,12566,0.01,-0.922,-0.281,-0.915,0.061,0.61,493.637
138353,156410,12606,0.008,-0.928,-0.277,-1.037,0.244,0.549,493.641
138353,156174,12572,0.009,-0.922,-0.273,-1.037,0.244,0.549,493.647
138381,156410,12606,0.01,-0.917,-0.275,-0.488,0.244,0.61,493.651
138381,156208,12565,0.008,-0.92,-0.276,-0.488,0.244,0.61,493.657
138378,156410,12606,0.008,-0.921,-0.274,-0.305,0.366,0.671,493.661
138378,156225,12573,0.005,-0.918,-0.273,-0.305,0.366,0.671,493.667
138396,156410,12606,0.006,-0.918,-0.27,-0.305,0.488,0.549,493.671
138396,156213,12589,0.01,-0.922,-0.269,-0.305,0.488,0.549,493.677
138394,156410,12606,0.008,-0.92,-0.272,-0.366,0.427,0.427,493.681
138394,156220,12586,0.007,-0.917,-0.272,-0.366,0.427,0.427,493.687
138402,156410,12606,0.008,-0.912,-0.27,-0.976,0.366,0.244,493.691
138402,156221,12577,0.012,-0.911,-0.265,-0.976,0.366,0.244,493.697
138385,156410,12606,0.012,-0.917,-0.274,-1.402,0.183,0.122,493.7
138385,156207,12579,0.007,-0.922,-0.276,-1.402,0.183,0.122,493.707
138403,156410,12606,0.006,-0.923,-0.276,-1.341,0.366,0.061,493.71
138403,156198,12566,0.012,-0.924,-0.276,-1.341,0.366,0.061,493.717
138392,156410,12606,0.009,-0.923,-0.277,-1.159,0.244,0,493.72
138392,156196,12571,0.006,-0.924,-0.277,-1.159,0.244,0,493.726
138384,156410,12606,0.008,-0.924,-0.28,-1.159,0.305,0,493.73
138384,156222,12577,0.007,-0.926,-0.277,-1.159,0.305,0,493.736
138382,156410,12606,0.01,-0.923,-0.269,-1.037,0.427,-0.061,493.74
138382,156193,12596,0.01,-0.919,-0.27,-1.037,0.427,-0.061,493.746
138388,156410,12606,0.011,-0.916,-0.271,-1.22,0.366,-0.122,493.75
138388,156196,12557,0.011,-0.92,-0.276,-1.22,0.366,-0.122,493.756
138407,156410,12606,0.009,-0.922,-0.277,-1.28,0.366,0,493.76
138407,156206,12583,0.009,-0.917,-0.274,-1.28,0.366,0,493.766
138394,156410,12606,0.011,-0.917,-0.273,-0.915,0.305,0,493.77
138394,156223,12572,0.013,-0.918,-0.277,-0.915,0.305,0,493.776
138401,156410,12606,0.011,-0.919,-0.282,-0.549,0.305,0.061,493.78
138401,156205,12569,0.012,-0.924,-0.282,-0.549,0.305,0.061,493.786
138379,156410,12606,0.01,-0.924,-0.281,0.183,0.488,0.122,493.79
138379,156222,12583,0.008,-0.92,-0.274,0.183,0.488,0.122,493.796
138388,156410,12606,0.011,-0.918,-0.275,0.61,0.549,0.305,493.799
138388,156203,12580,0.009,-0.921,-0.272,0.61,0.549,0.305,493.806
138380,156410,12606,0.008,-0.922,-0.272,0.61,0.488,0.366,493.809
138380,156221,12590,0.011,-0.924,-0.272,0.61,0.488,0.366,493.816
138391,156410,12606,0.01,-0.919,-0.272,0.244,0.427,0.366,493.819
138391,156197,12568,0.008,-0.92,-0.27,0.244,0.427,0.366,493.825
138388,156410,12606,0.012,-0.922,-0.274,0.061,0.366,0.427,493.829
138388,156192,12577,0.012,-0.918,-0.271,0.061,0.366,0.427,493.835
138379,156410,12606,0.01,-0.917,-0.269,0.061,0.366,0.488,493.839
138379,156191,12583,0.011,-0.914,-0.271,0.061,0.366,0.488,493.845
138366,156410,12606,0.011,-0.917,-0.275,-0.061,0.244,0.488,493.849
138366,156194,12585,0.008,-0.92,-0.278,-0.061,0.244,0.488,493.855
138377,156410,12606,0.013,-0.921,-0.279,0.061,0.244,0.488,493.859
138377,156188,12589,0.009,-0.923,-0.282,0.061,0.244,0.488,493.865
138385,156410,12606,0.01,-0.919,-0.279,0.549,0.488,0.671,493.869
138385,156202,12582,0.011,-0.92,-0.281,0.549,0.488,0.671,493.875
138359,156410,12606,0.012,-0.919,-0.282,0.976,0.732,0.671,493.879
138359,156210,12583,0.012,-0.925,-0.283,0.976,0.732,0.671,493.885
138379,156410,12606,0.01,-0.925,-0.276,1.463,0.671,0.732,493.889
138379,156222,12579,0.008,-0.917,-0.274,1.463,0.671,0.732,493.895
138360,156410,12606,0.008,-0.915,-0.272,1.768,0.793,0.793,493.898
138360,156204,12579,0.012,-0.918,-0.272,1.768,0.793,0.793,493.905
138375,156410,12606,0.012,-0.918,-0.272,1.768,0.793,0.793,493.908
138375,156216,12556,0.006,-0.92,-0.271,1.646,0.793,0.671,493.915
138358,156410,12606,0.006,-0.92,-0.271,1.646,0.793,0.671,493.918
138358,156192,12569,0.012,-0.921,-0.263,1.22,0.671,0.61,493.924
138356,156410,12606,0.012,-0.921,-0.263,1.22,0.671,0.61,493.928
138356,156183,12573,0.008,-0.919,-0.265,0.549,0.366,0.549,493.934
138344,156410,12606,0.008,-0.919,-0.265,0.549,0.366,0.549,493.938
138344,156209,12574,0.01,-0.92,-0.271,0,0.305,0.488,493.944
138330,156410,12606,0.01,-0.92,-0.271,0,0.305,0.488,493.948
138330,156176,12557,0.012,-0.924,-0.275,-0.061,0.305,0.366,493.954
138325,156410,12606,0.012,-0.924,-0.275,-0.061,0.305,0.366,493.958
138325,156181,12569,0.009,-0.917,-0.27,-0.061,0.366,0.549,493.964
138315,156154,12606,0.009,-0.917,-0.27,-0.061,0.366,0.549,493.968
138315,156140,12567,0.006,-0.922,-0.276,0,0.305,0.61,493.974
138322,156154,12606,0.006,-0.922,-0.276,0,0.305,0.61,493.978
138322,156156,12563,0.005,-0.921,-0.275,0,0.305,0.61,493.984
138315,156410,12606,0.005,-0.921,-0.275,0,0.305,0.61,493.988
138315,156175,12570,0.003,-0.919,-0.269,0.122,0.244,0.427,493.994
138300,156410,12606,0.003,-0.919,-0.269,0.122,0.244,0.427,493.997
138300,156171,12577,0.008,-0.917,-0.267,-0.183,0.183,0.305,494.004
138305,156410,12606,0.008,-0.917,-0.267,-0.183,0.183,0.305,494.007
138305,156169,12553,0.008,-0.919,-0.273,-0.915,0.061,0.122,494.014
138296,156410,12606,0.008,-0.919,-0.273,-0.915,0.061,0.122,494.017
138296,156179,12559,0.01,-0.924,-0.274,-1.524,0.122,0,494.023
138302,156410,12606,0.01,-0.924,-0.274,-1.524,0.122,0,494.027
138302,156172,12584,0.009,-0.917,-0.269,-1.22,0.061,-0.061,494.033
138310,156154,12606,0.009,-0.917,-0.269,-1.22,0.061,-0.061,494.037
138310,156150,12574,0.007,-0.921,-0.275,-0.915,0.244,-0.183,494.043
138297,156410,12606,0.007,-0.921,-0.275,-0.915,0.244,-0.183,494.047
138297,156169,12584,0.011,-0.922,-0.276,-0.793,0.488,-0.244,494.053
138302,156154,12606,0.011,-0.92,-0.279,-0.793,0.488,-0.244,494.057
138302,156141,12583,0.011,-0.924,-0.278,-0.488,0.61,-0.244,494.063
138310,156154,12606,0.013,-0.921,-0.274,-0.488,0.61,-0.244,494.067
138310,156144,12568,0.01,-0.92,-0.27,-0.061,0.549,0.061,494.073
138306,156154,12606,0.013,-0.915,-0.269,-0.061,0.549,0.061,494.077
138306,156156,12570,0.012,-0.915,-0.269,-0.244,0.427,0.183,494.083
138321,156410,12606,0.014,-0.92,-0.275,-0.244,0.427,0.183,494.087
138321,156173,12559,0.013,-0.925,-0.276,-0.61,0.305,0.244,494.093
138324,156410,12606,0.01,-0.926,-0.279,-0.61,0.305,0.244,494.096
138324,156161,12577,0.01,-0.926,-0.274,-0.732,0.366,0.366,494.103
138333,156410,12606,0.013,-0.92,-0.276,-0.732,0.366,0.366,494.106
138333,156177,12559,0.014,-0.916,-0.277,-0.793,0.183,0.732,494.113
138288,156154,12606,0.014,-0.921,-0.277,-0.793,0.183,0.732,494.116
138288,156140,12567,0.009,-0.924,-0.282,-0.122,0.305,0.793,494.122
138286,156154,12606,0.011,-0.922,-0.279,-0.122,0.305,0.793,494.126
138286,156111,12564,0.015,-0.919,-0.275,0.61,0.427,0.854,494.132
138253,156154,12606,0.011,-0.919,-0.276,0.61,0.427,0.854,494.136
138253,156105,12562,0.007,-0.92,-0.277,1.037,0.549,0.915,494.142
138265,156154,12606,0.008,-0.92,-0.274,1.037,0.549,0.915,494.146
138265,156106,12556,0.01,-0.923,-0.268,0.854,0.61,0.915,494.152
138247,156154,12606,0.009,-0.918,-0.267,0.854,0.61,0.915,494.156
138247,156097,12561,0.01,-0.913,-0.268,0.488,0.671,0.915,494.162
138300,156154,12606,0.01,-0.919,-0.265,0.488,0.671,0.915,494.166
138300,156124,12563,0.005,-0.924,-0.265,0.122,0.61,0.915,494.172
138304,156154,12606,0.003,-0.92,-0.263,0.122,0.61,0.915,494.176
138304,156129,12579,0.008,-0.912,-0.268,-0.122,0.244,0.915,494.182
138315,156410,12606,0.008,-0.916,-0.274,-0.122,0.244,0.915,494.186
138315,156163,12586,0.007,-0.922,-0.276,-0.061,0.305,0.61,494.192
138358,156410,12606,0.008,-0.932,-0.278,-0.061,0.305,0.61,494.195
138358,156172,12567,0.008,-0.929,-0.276,0.366,0.183,0.61,494.202
138357,156410,12606,0.011,-0.922,-0.273,0.366,0.183,0.61,494.205
138357,156209,12567,0.008,-0.919,-0.273,0.61,0.244,0.732,494.212
138339,156410,12606,0.008,-0.923,-0.276,0.61,0.244,0.732,494.215
138339,156181,12559,0.006,-0.924,-0.28,0.793,0.305,0.671,494.221
138332,156154,12606,0.006,-0.924,-0.278,0.793,0.305,0.671,494.225
138332,156147,12574,0.007,-0.922,-0.272,1.22,0.488,0.427,494.231
138322,156410,12606,0.01,-0.919,-0.266,1.22,0.488,0.427,494.235
138322,156179,12581,0.01,-0.915,-0.259,1.22,0.488,0.244,494.241
138301,156154,12606,0.006,-0.908,-0.258,1.22,0.488,0.244,494.245
138301,156133,12562,0.006,-0.914,-0.263,0.366,0.61,0.244,494.251
138278,156154,12606,0.006,-0.924,-0.269,0.366,0.61,0.244,494.255
138278,156139,12569,0.007,-0.921,-0.266,-0.122,0.549,0,494.261
138308,156154,12606,0.012,-0.914,-0.265,-0.122,0.549,0,494.265
138308,156157,12574,0.011,-0.912,-0.263,-0.732,0.244,0.061,494.271
138302,156154,12606,0.007,-0.914,-0.268,-0.732,0.244,0.061,494.275
138302,156148,12571,0.008,-0.921,-0.272,-0.976,0.061,0.305,494.281
138298,156410,12606,0.013,-0.922,-0.271,-0.976,0.061,0.305,494.285
138298,156160,12576,0.013,-0.925,-0.276,-1.037,0,0.183,494.291
138304,156154,12606,0.01,-0.926,-0.276,-1.037,0,0.183,494.294
138304,156111,12590,0.01,-0.927,-0.276,-0.732,0,0.244,494.301
138318,156154,12606,0.011,-0.925,-0.276,-0.732,0,0.244,494.304
138318,156134,12575,0.01,-0.924,-0.273,-0.244,0.183,0.427,494.311
138293,156410,12606,0.008,-0.923,-0.274,-0.244,0.183,0.427,494.314
138293,156168,12566,0.007,-0.923,-0.274,0.183,0.305,0.549,494.32
138303,156154,12606,0.005,-0.92,-0.272,0.183,0.305,0.549,494.324
138303,156145,12570,0.007,-0.916,-0.265,0.061,0.427,0.488,494.33
138299,156154,12606,0.01,-0.915,-0.268,0.061,0.427,0.488,494.334
138299,156139,12580,0.006,-0.916,-0.271,-0.122,0.488,0.305,494.34
138294,156154,12606,0.007,-0.915,-0.272,-0.122,0.488,0.305,494.344
138294,156131,12557,0.01,-0.916,-0.268,-0.244,0.488,0.244,494.35
138279,156154,12606,0.008,-0.917,-0.27,-0.244,0.488,0.244,494.354
138279,156115,12552,0.009,-0.917,-0.271,-0.122,0.427,0.244,494.36
138286,156410,12606,0.012,-0.92,-0.275,-0.122,0.427,0.244,494.364
138286,156168,12567,0.013,-0.924,-0.277,0.061,0.488,0.305,494.37
138288,156154,12606,0.014,-0.926,-0.271,0.061,0.488,0.305,494.374
138288,156142,12578,0.013,-0.919,-0.268,0.122,0.427,0.366,494.38
138301,156154,12606,0.008,-0.921,-0.272,0.122,0.427,0.366,494.384
138301,156149,12570,0.01,-0.923,-0.277,-0.183,0.61,0.61,494.39
138294,156154,12606,0.011,-0.925,-0.277,-0.183,0.61,0.61,494.393
138294,156141,12589,0.009,-0.925,-0.269,0.183,0.488,0.671,494.4
138287,156154,12606,0.009,-0.922,-0.269,0.183,0.488,0.671,494.403
138287,156096,12571,0.01,-0.916,-0.268,0.244,0.488,0.732,494.41
138292,156154,12606,0.005,-0.911,-0.267,0.244,0.488,0.732,494.413
138292,156122,12570,0.006,-0.918,-0.266,-0.122,0.427,0.671,494.419
138295,156154,12606,0.008,-0.922,-0.271,-0.122,0.427,0.671,494.423
138295,156137,12564,0.007,-0.92,-0.27,-0.366,0.427,0.427,494.429
138313,156154,12606,0.009,-0.916,-0.265,-0.366,0.427,0.427,494.433
138313,156128,12554,0.008,-0.916,-0.265,-0.793,0.244,0.366,494.439
138310,156154,12606,0.006,-0.913,-0.266,-0.793,0.244,0.366,494.443
138310,156148,12579,0.004,-0.92,-0.274,-1.22,0,0.427,494.449
138318,156154,12606,0.008,-0.923,-0.279,-1.22,0,0.427,494.453
138318,156148,12563,0.009,-0.926,-0.274,-1.098,0.061,0.305,494.459
138297,156154,12606,0.009,-0.923,-0.274,-1.098,0.061,0.305,494.463
138297,156144,12568,0.009,-0.922,-0.273,-0.732,0.122,0.244,494.469
138295,156154,12606,0.008,-0.917,-0.268,-0.732,0.122,0.244,494.473
138295,156127,12572,0.007,-0.916,-0.267,-0.793,0.366,0.244,494.479
138296,156154,12606,0.009,-0.92,-0.275,-0.793,0.366,0.244,494.483
138296,156134,12569,0.011,-0.924,-0.279,-0.549,0.61,0.183,494.489
138291,156154,12606,0.011,-0.924,-0.279,-0.549,0.61,0.183,494.492
138291,156142,12571,0.008,-0.917,-0.274,-0.122,0.549,0.183,494.499
138289,156154,12606,0.008,-0.917,-0.274,-0.122,0.549,0.183,494.502
138289,156157,12569,0.009,-0.921,-0.276,0.244,0.61,0.305,494.509
138310,156154,12606,0.009,-0.921,-0.276,0.244,0.61,0.305,494.512
138310,156157,12566,0.01,-0.923,-0.275,0.61,0.488,0.244,494.518
138324,156410,12606,0.01,-0.923,-0.275,0.61,0.488,0.244,494.522
138324,156169,12570,0.011,-0.922,-0.271,0.427,0.488,0.488,494.528
138343,156410,12606,0.011,-0.922,-0.271,0.427,0.488,0.488,494.532
138343,156206,12571,0.006,-0.918,-0.269,0.122,0.366,0.549,494.538
138359,156410,12606,0.006,-0.918,-0.269,0.122,0.366,0.549,494.542
138359,156185,12589,0.01,-0.923,-0.273,-0.549,0.305,0.488,494.548
138359,156410,12606,0.01,-0.923,-0.273,-0.549,0.305,0.488,494.552
138359,156194,12592,0.008,-0.918,-0.272,-0.549,0.305,0.427,494.558
138384,156410,12606,0.008,-0.918,-0.272,-0.549,0.305,0.427,494.562
138384,156240,12580,0.013,-0.917,-0.27,-0.366,0.183,0.427,494.568
138375,156410,12606,0.013,-0.917,-0.27,-0.366,0.183,0.427,494.572
138375,156226,12588,0.009,-0.922,-0.277,-0.427,0.305,0.427,494.578
138397,156410,12606,0.009,-0.922,-0.277,-0.427,0.305,0.427,494.582
138397,156232,12583,0.01,-0.922,-0.27,-0.305,0.427,0.488,494.588
138393,156410,12606,0.01,-0.922,-0.27,-0.305,0.427,0.488,494.592
138393,156224,12570,0.008,-0.917,-0.271,-0.305,0.549,0.549,494.598
138386,156410,12606,0.008,-0.917,-0.271,-0.305,0.549,0.549,494.601
138386,156201,12580,0.009,-0.919,-0.27,-0.61,0.549,0.549,494.608
138395,156410,12606,0.009,-0.919,-0.27,-0.61,0.549,0.549,494.611
138395,156226,12581,0.009,-0.928,-0.276,-0.854,0.427,0.488,494.617
138375,156410,12606,0.009,-0.928,-0.276,-0.854,0.427,0.488,494.621
138375,156208,12581,0.011,-0.914,-0.259,-1.098,0.183,0.61,494.627
138400,156410,12606,0.011,-0.914,-0.259,-1.098,0.183,0.61,494.631
138400,156253,12581,0.005,-0.908,-0.263,-1.098,0.183,0.61,494.637
138415,156410,12606,0.004,-0.915,-0.273,-1.768,0.122,0.61,494.641
138415,156264,12584,0.006,-0.924,-0.279,-1.768,0.122,0.61,494.647
138455,156410,12606,0.007,-0.929,-0.278,-1.341,0.305,0.183,494.651
138455,156270,12581,0.008,-0.923,-0.273,-1.341,0.305,0.183,494.657
138472,156410,12606,0.005,-0.915,-0.269,-0.915,0.244,0,494.661
138472,156282,12586,0.007,-0.914,-0.273,-0.915,0.244,0,494.667
138452,156410,12606,0.005,-0.923,-0.276,-0.976,0.183,0,494.671
138452,156292,12591,0.006,-0.924,-0.281,-0.976,0.183,0,494.677
138479,156410,12606,0.007,-0.928,-0.286,-0.854,0.061,-0.183,494.681
138479,156309,12591,0.008,-0.931,-0.279,-0.854,0.061,-0.183,494.687
138470,156410,12606,0.01,-0.924,-0.275,-0.244,0.366,-0.305,494.69
138470,156298,12583,0.009,-0.917,-0.276,-0.244,0.366,-0.305,494.697
138494,156410,12606,0.007,-0.921,-0.278,0.061,0.61,-0.183,494.7
138494,156288,12591,0.012,-0.923,-0.277,0.061,0.61,-0.183,494.707
138489,156410,12606,0.011,-0.924,-0.267,0.61,0.793,-0.183,494.71
138489,156299,12592,0.012,-0.914,-0.259,0.61,0.793,-0.183,494.716
138454,156410,12606,0.013,-0.903,-0.256,0.061,0.549,-0.122,494.72
138454,156277,12596,0.012,-0.91,-0.265,0.061,0.549,-0.122,494.726
138453,156410,12606,0.011,-0.92,-0.277,-0.976,0.488,0.061,494.73
138453,156259,12597,0.015,-0.925,-0.28,-0.976,0.488,0.061,494.736
138421,156410,12606,0.017,-0.927,-0.279,-0.793,0.366,0.122,494.74
138421,156243,12575,0.013,-0.921,-0.274,-0.793,0.366,0.122,494.746
138409,156410,12606,0.008,-0.917,-0.271,-0.366,0.488,0.427,494.75
138409,156244,12579,0.009,-0.918,-0.273,-0.366,0.488,0.427,494.756
138434,156410,12606,0.008,-0.918,-0.277,-0.244,0.427,0.671,494.76
138434,156277,12583,0.006,-0.925,-0.275,-0.244,0.427,0.671,494.766
138447,156410,12606,0.008,-0.924,-0.277,-0.061,0.427,0.549,494.77
138447,156289,12605,0.01,-0.918,-0.278,-0.061,0.427,0.549,494.776
138448,156410,12606,0.008,-0.919,-0.275,0.061,0.488,0.549,494.78
138448,156268,12606,0.008,-0.915,-0.272,0.061,0.488,0.549,494.786
138475,156410,12606,0.01,-0.914,-0.276,0.122,0.427,0.549,494.79
138475,156285,12590,0.013,-0.916,-0.27,0.122,0.427,0.549,494.796
138469,156410,12606,0.009,-0.919,-0.275,0.183,0.488,0.427,494.799
138469,156271,12597,0.009,-0.923,-0.278,0.183,0.488,0.427,494.806
138486,156410,12606,0.012,-0.924,-0.277,0.488,0.732,0.366,494.809
138486,156305,12605,0.015,-0.919,-0.275,0.488,0.732,0.366,494.815
138483,156410,12606,0.009,-0.919,-0.276,0.732,0.671,0.427,494.819
138483,156299,12600,0.008,-0.924,-0.274,0.732,0.671,0.427,494.825
138477,156410,12606,0.009,-0.925,-0.275,1.098,0.732,0.61,494.829
138477,156314,12591,0.011,-0.924,-0.276,1.098,0.732,0.61,494.835
138492,156410,12606,0.011,-0.92,-0.269,1.159,0.671,0.671,494.839
138492,156279,12592,0.008,-0.916,-0.269,1.159,0.671,0.671,494.845
138499,156410,12606,0.01,-0.915,-0.268,0.793,0.488,0.793,494.849
138499,156283,12593,0.009,-0.916,-0.266,0.793,0.488,0.793,494.855
138482,156410,12606,0.009,-0.919,-0.269,0.305,0.488,0.671,494.859
138482,156311,12612,0.008,-0.918,-0.269,0.305,0.488,0.671,494.865
138506,156410,12606,0.01,-0.918,-0.272,0.305,0.366,0.488,494.869
138506,156323,12596,0.007,-0.922,-0.268,0.305,0.366,0.488,494.875
138509,156410,12606,0.004,-0.921,-0.269,0.183,0.366,0.549,494.879
138509,156334,12611,0.007,-0.922,-0.271,0.183,0.366,0.549,494.885
138524,156410,12606,0.01,-0.922,-0.269,-0.122,0.244,0.305,494.889
138524,156330,12584,0.012,-0.922,-0.267,-0.122,0.244,0.305,494.895
138507,156410,12606,0.011,-0.92,-0.271,-0.549,0.244,0,494.898
138507,156325,12605,0.009,-0.92,-0.274,-0.549,0.244,0,494.905
138513,156410,12606,0.012,-0.919,-0.271,-0.915,0.488,0.122,494.908
138513,156319,12609,0.01,-0.919,-0.269,-0.915,0.488,0.122,494.915
138499,156410,12606,0.01,-0.921,-0.272,-0.793,0.244,0.122,494.918
138499,156322,12602,0.009,-0.924,-0.276,-0.793,0.244,0.122,494.924
138462,156410,12606,0.01,-0.923,-0.273,-0.61,0.305,0.183,494.928
138462,156291,12599,0.01,-0.919,-0.276,-0.61,0.305,0.183,494.934
138444,156410,12606,0.009,-0.918,-0.274,-0.61,0.305,0.244,494.938
138444,156243,12598,0.011,-0.919,-0.275,-0.61,0.305,0.244,494.944
138396,156410,12606,0.009,-0.923,-0.278,-0.488,0.305,0.244,494.948
138396,156227,12579,0.01,-0.924,-0.281,-0.488,0.305,0.244,494.954
138384,156410,12606,0.009,-0.923,-0.277,-0.183,0.366,0.305,494.958
138384,156193,12591,0.009,-0.921,-0.271,-0.183,0.366,0.305,494.964
138383,156410,12606,0.007,-0.916,-0.27,0.061,0.244,0.244,494.968
138383,156231,12584,0.007,-0.916,-0.267,0.061,0.244,0.244,494.974
138368,156410,12606,0.008,-0.919,-0.269,-0.305,0.305,0.244,494.978
138368,156224,12596,0.012,-0.924,-0.271,-0.305,0.305,0.244,494.984
138386,156410,12606,0.01,-0.92,-0.27,-0.61,0.244,0,494.988
138386,156231,12593,0.01,-0.917,-0.268,-0.61,0.244,0,494.994
138388,156410,12606,0.008,-0.915,-0.269,-1.037,0.122,0.122,494.997
138388,156220,12589,0.008,-0.917,-0.271,-1.037,0.122,0.122,495.004
138391,156410,12606,0.009,-0.921,-0.271,-1.463,0.122,0.183,495.007
138391,156193,12584,0.013,-0.928,-0.279,-1.463,0.122,0.183,495.013
138387,156410,12606,0.012,-0.928,-0.275,-1.22,0.122,-0.061,495.017
138387,156227,12587,0.016,-0.922,-0.271,-1.22,0.122,-0.061,495.023
138385,156410,12606,0.013,-0.915,-0.275,-0.976,0.122,0.244,495.027
138385,156214,12597,0.009,-0.914,-0.275,-0.976,0.122,0.244,495.033
138390,156410,12606,0.011,-0.919,-0.278,-0.671,0.427,0.488,495.037
138390,156216,12585,0.009,-0.923,-0.282,-0.671,0.427,0.488,495.043
138408,156410,12606,0.01,-0.924,-0.271,-0.061,0.488,0.427,495.047
138408,156200,12594,0.009,-0.92,-0.263,-0.061,0.488,0.427,495.053
138376,156410,12606,0.008,-0.914,-0.269,-0.244,0.366,0.488,495.057
138376,156220,12584,0.008,-0.917,-0.276,-0.244,0.366,0.488,495.063
138399,156410,12606,0.008,-0.922,-0.279,-0.915,0.549,0.305,495.067
138399,156227,12584,0.012,-0.925,-0.279,-0.915,0.549,0.305,495.073
138405,156410,12606,0.011,-0.921,-0.272,-0.549,0.61,0.183,495.077
138405,156229,12591,0.01,-0.92,-0.268,-0.549,0.61,0.183,495.083
138410,156410,12606,0.01,-0.92,-0.268,-0.549,0.61,0.183,495.086
138410,156255,12571,0.008,-0.918,-0.266,-0.244,0.488,0.427,495.093
138405,156410,12606,0.008,-0.918,-0.266,-0.244,0.488,0.427,495.096
138405,156244,12592,0.008,-0.922,-0.275,-0.427,0.427,0.549,495.103
138439,156410,12606,0.008,-0.922,-0.275,-0.427,0.427,0.549,495.106
138439,156249,12586,0.011,-0.925,-0.272,-0.366,0.427,0.427,495.112
138433,156410,12606,0.011,-0.925,-0.272,-0.366,0.427,0.427,495.116
138433,156242,12586,0.011,-0.915,-0.274,-0.183,0.427,0.488,495.122
138409,156410,12606,0.011,-0.915,-0.274,-0.183,0.427,0.488,495.126
138409,156239,12585,0.008,-0.922,-0.275,-0.244,0.366,0.671,495.132
138387,156410,12606,0.008,-0.922,-0.275,-0.244,0.366,0.671,495.136
138387,156248,12586,0.01,-0.921,-0.274,0.122,0.61,0.549,495.142
138405,156410,12606,0.01,-0.921,-0.274,0.122,0.61,0.549,495.146
138405,156239,12592,0.012,-0.918,-0.276,0.366,0.732,0.549,495.152
138357,156410,12606,0.012,-0.918,-0.276,0.366,0.732,0.549,495.156
138357,156210,12600,0.008,-0.922,-0.276,0.366,0.549,0.488,495.162
138404,156410,12606,0.008,-0.922,-0.276,0.366,0.549,0.488,495.166
138404,156244,12578,0.007,-0.918,-0.271,0.305,0.549,0.488,495.172
138380,156410,12606,0.007,-0.918,-0.271,0.305,0.549,0.488,495.176
138380,156245,12603,0.011,-0.922,-0.271,0.366,0.671,0.366,495.182
138441,156410,12606,0.011,-0.922,-0.271,0.366,0.671,0.366,495.186
138441,156267,12583,0.01,-0.918,-0.271,0.732,0.61,0.244,495.192
138427,156410,12606,0.01,-0.918,-0.271,0.732,0.61,0.244,495.195
138427,156258,12605,0.008,-0.917,-0.267,0.671,0.488,0.488,495.202
138453,156410,12606,0.008,-0.917,-0.267,0.671,0.488,0.488,495.205
138453,156281,12578,0.007,-0.921,-0.269,0.549,0.549,0.488,495.211
138441,156410,12606,0.007,-0.921,-0.269,0.549,0.549,0.488,495.215
138441,156246,12589,0.009,-0.915,-0.257,-0.061,0.488,0.305,495.221
138456,156410,12606,0.009,-0.915,-0.257,-0.061,0.488,0.305,495.225
138456,156272,12594,0.009,-0.911,-0.261,-1.098,0,0.244,495.231
138446,156410,12606,0.011,-0.915,-0.264,-1.098,0,0.244,495.235
138446,156261,12603,0.006,-0.92,-0.271,-2.012,0,0.122,495.241
138444,156410,12606,0.009,-0.922,-0.272,-2.012,0,0.122,495.245
138444,156269,12601,0.012,-0.922,-0.269,-2.012,-0.122,-0.061,495.251
138425,156410,12606,0.01,-0.92,-0.274,-2.012,-0.122,-0.061,495.255
138425,156253,12585,0.009,-0.92,-0.277,-2.012,-0.122,0.061,495.261
138434,156410,12606,0.007,-0.917,-0.282,-2.012,-0.122,0.061,495.265
138434,156241,12587,0.01,-0.923,-0.276,-2.012,-0.061,0,495.271
138386,156410,12606,0.012,-0.925,-0.284,-2.012,-0.061,0,495.275
138386,156265,12588,0.01,-0.924,-0.284,-1.524,0.122,-0.122,495.281
138379,156410,12606,0.013,-0.922,-0.278,-1.524,0.122,-0.122,495.285
138379,156247,12580,0.014,-0.921,-0.28,-1.28,0.305,0.122,495.291
138358,156410,12606,0.01,-0.919,-0.282,-1.28,0.305,0.122,495.294
138358,156208,12587,0.011,-0.918,-0.285,-0.427,0.549,0.305,495.301
138340,156410,12606,0.01,-0.924,-0.286,-0.427,0.549,0.305,495.304
138340,156190,12585,0.011,-0.924,-0.278,0.61,0.549,0.427,495.311
138333,156410,12606,0.012,-0.913,-0.274,0.61,0.549,0.427,495.314
138333,156183,12577,0.01,-0.911,-0.27,0.854,0.427,0.549,495.32
138359,156410,12606,0.009,-0.912,-0.264,0.854,0.427,0.549,495.324
138359,156186,12578,0.01,-0.919,-0.265,0.549,0.366,0.549,495.33
138353,156410,12606,0.009,-0.917,-0.268,0.549,0.366,0.549,495.334
138353,156194,12561,0.01,-0.923,-0.272,-0.244,0.244,0.488,495.34
138343,156410,12606,0.01,-0.924,-0.271,-0.244,0.244,0.488,495.344
138343,156183,12588,0.011,-0.92,-0.274,-0.732,0.305,0.427,495.35
138328,156410,12606,0.009,-0.92,-0.275,-0.732,0.305,0.427,495.354
138328,156187,12577,0.01,-0.922,-0.276,-0.671,0.305,0.427,495.36
138323,156410,12606,0.013,-0.922,-0.278,-0.671,0.305,0.427,495.364
138323,156206,12576,0.009,-0.921,-0.277,-0.305,0.366,0.366,495.37
138337,156410,12606,0.01,-0.919,-0.276,-0.305,0.366,0.366,495.374
138337,156178,12575,0.009,-0.914,-0.275,0.183,0.549,0.549,495.38
138331,156410,12606,0.007,-0.916,-0.276,0.183,0.549,0.549,495.384
138331,156200,12582,0.007,-0.916,-0.275,0.366,0.61,0.549,495.39
138354,156410,12606,0.01,-0.92,-0.275,0.366,0.61,0.549,495.393
138354,156214,12556,0.009,-0.921,-0.269,0.183,0.488,0.427,495.4
138334,156410,12606,0.009,-0.915,-0.268,0.183,0.488,0.427,495.403
138334,156171,12574,0.008,-0.916,-0.271,-0.61,0.122,0.427,495.409
138317,156154,12606,0.008,-0.92,-0.282,-0.61,0.122,0.427,495.413
138317,156141,12573,0.007,-0.925,-0.281,-1.159,0.122,0.305,495.419
138316,156154,12606,0.011,-0.927,-0.278,-1.159,0.122,0.305,495.423
138316,156145,12578,0.011,-0.922,-0.272,-0.549,0.061,0.244,495.429
138330,156410,12606,0.012,-0.915,-0.27,-0.549,0.061,0.244,495.433
138330,156189,12564,0.011,-0.915,-0.279,-0.671,0.122,0.366,495.439
138359,156410,12606,0.009,-0.921,-0.278,-0.671,0.122,0.366,495.443
138359,156204,12570,0.008,-0.923,-0.274,-0.488,0.427,0.427,495.449
138324,156410,12606,0.011,-0.917,-0.274,-0.488,0.427,0.427,495.453
138324,156199,12563,0.009,-0.919,-0.274,-0.244,0.305,0.427,495.459
138334,156410,12606,0.008,-0.921,-0.274,-0.244,0.305,0.427,495.463
138334,156195,12590,0.006,-0.923,-0.272,0.122,0.427,0.427,495.469
138342,156410,12606,0.008,-0.917,-0.272,0.122,0.427,0.427,495.473
138342,156183,12582,0.01,-0.915,-0.275,-0.122,0.305,0.183,495.479
138362,156410,12606,0.007,-0.919,-0.274,-0.122,0.305,0.183,495.483
138362,156202,12580,0.008,-0.919,-0.266,-0.244,0.305,0.183,495.489
138346,156410,12606,0.01,-0.911,-0.268,-0.244,0.305,0.183,495.492
138346,156206,12580,0.012,-0.913,-0.273,-1.037,0.244,0.244,495.499
138344,156410,12606,0.009,-0.921,-0.277,-1.037,0.244,0.244,495.502
138344,156200,12583,0.012,-0.922,-0.275,-1.341,0.122,0.183,495.509
138333,156410,12606,0.012,-0.916,-0.273,-1.341,0.122,0.183,495.512
138333,156185,12577,0.01,-0.916,-0.276,-1.524,-0.061,0.305,495.518
138346,156410,12606,0.009,-0.919,-0.282,-1.524,-0.061,0.305,495.522
138346,156171,12567,0.012,-0.924,-0.28,-1.22,0.061,0.366,495.528
138337,156410,12606,0.012,-0.927,-0.279,-1.22,0.061,0.366,495.532
138337,156168,12571,0.012,-0.927,-0.282,-0.793,0.244,0.427,495.538
138310,156410,12606,0.01,-0.922,-0.277,-0.793,0.244,0.427,495.542
138310,156163,12585,0.007,-0.919,-0.278,-0.793,0.488,0.61,495.548
138318,156410,12606,0.006,-0.92,-0.278,-0.793,0.488,0.61,495.552
138318,156178,12573,0.012,-0.92,-0.28,-0.183,0.61,0.549,495.558
138316,156154,12606,0.015,-0.916,-0.274,-0.183,0.61,0.549,495.562
138316,156153,12576,0.009,-0.914,-0.271,0.366,0.671,0.549,495.568
138313,156410,12606,0.005,-0.911,-0.265,0.366,0.671,0.549,495.572
138313,156179,12562,0.006,-0.91,-0.266,0.122,0.549,0.488,495.578
138334,156410,12606,0.005,-0.911,-0.266,0.122,0.549,0.488,495.582
138334,156208,12581,0.007,-0.917,-0.268,-0.61,0.305,0.183,495.588
138342,156410,12606,0.007,-0.922,-0.269,-0.61,0.305,0.183,495.591
138342,156188,12582,0.009,-0.92,-0.27,-1.159,0.183,-0.061,495.598
138370,156410,12606,0.008,-0.915,-0.269,-1.159,0.183,-0.061,495.601
138370,156225,12572,0.008,-0.921,-0.275,-1.89,0,-0.122,495.608
138379,156410,12606,0.009,-0.928,-0.278,-1.89,0,-0.122,495.611
138379,156240,12593,0.009,-0.924,-0.282,-2.012,0,-0.244,495.617
138404,156410,12606,0.007,-0.927,-0.283,-2.012,0,-0.244,495.621
138404,156250,12589,0.012,-0.927,-0.282,-1.707,0.061,-0.244,495.627
138414,156410,12606,0.011,-0.922,-0.287,-1.707,0.061,-0.244,495.631
138414,156244,12590,0.011,-0.922,-0.292,-0.976,0.427,-0.061,495.637
138405,156410,12606,0.009,-0.916,-0.282,-0.976,0.427,-0.061,495.641
138405,156264,12594,0.011,-0.914,-0.279,-0.122,0.854,0.061,495.647
138384,156410,12606,0.01,-0.912,-0.281,-0.122,0.854,0.061,495.651
138384,156239,12595,0.01,-0.916,-0.283,0.427,0.854,0,495.657
138377,156410,12606,0.007,-0.915,-0.282,0.427,0.854,0,495.661
138377,156211,12583,0.01,-0.919,-0.279,0.732,0.793,0,495.667
138347,156410,12606,0.012,-0.918,-0.277,0.732,0.793,0,495.671
138347,156184,12586,0.013,-0.916,-0.28,0.915,0.61,0.061,495.677
138359,156410,12606,0.013,-0.916,-0.28,0.915,0.61,0.061,495.681
138359,156216,12572,0.011,-0.922,-0.276,1.037,0.549,0.122,495.687
138339,156410,12606,0.011,-0.922,-0.276,1.037,0.549,0.122,495.69
138339,156214,12580,0.014,-0.92,-0.276,0.915,0.549,0.122,495.697
138321,156410,12606,0.014,-0.92,-0.276,0.915,0.549,0.122,495.7
138321,156199,12586,0.011,-0.918,-0.275,0.671,0.488,0.366,495.707
138322,156410,12606,0.011,-0.918,-0.275,0.671,0.488,0.366,495.71
138322,156208,12566,0.012,-0.922,-0.276,0.549,0.305,0.488,495.716
138309,156410,12606,0.012,-0.922,-0.276,0.549,0.305,0.488,495.72
138309,156167,12576,0.009,-0.917,-0.269,0.488,0.305,0.488,495.726
138324,156410,12606,0.009,-0.917,-0.269,0.488,0.305,0.488,495.73
138324,156182,12577,0.011,-0.917,-0.274,0.061,0.366,0.549,495.736
138313,156410,12606,0.011,-0.917,-0.274,0.061,0.366,0.549,495.74
138313,156204,12586,0.012,-0.92,-0.275,0.366,0.488,0.488,495.746
138321,156410,12606,0.012,-0.92,-0.275,0.366,0.488,0.488,495.75
138321,156203,12572,0.014,-0.918,-0.274,0.366,0.366,0.671,495.756
138314,156410,12606,0.014,-0.918,-0.274,0.366,0.366,0.671,495.76
138314,156201,12580,0.009,-0.922,-0.278,0.305,0.427,0.793,495.766
138312,156410,12606,0.009,-0.922,-0.278,0.305,0.427,0.793,495.77
138312,156187,12571,0.011,-0.919,-0.278,0.305,0.366,0.549,495.776
138311,156410,12606,0.011,-0.919,-0.278,0.305,0.366,0.549,495.78
138311,156172,12590,0.011,-0.92,-0.283,0.183,0.366,0.488,495.786
138295,156154,12606,0.011,-0.92,-0.283,0.183,0.366,0.488,495.789
138295,156149,12569,0.008,-0.924,-0.281,0.366,0.427,0.427,495.796
138256,156154,12606,0.008,-0.924,-0.281,0.366,0.427,0.427,495.799
138256,156127,12574,0.008,-0.923,-0.279,0.549,0.427,0.427,495.806
138247,156154,12606,0.008,-0.923,-0.279,0.549,0.427,0.427,495.809
138247,156117,12561,0.011,-0.915,-0.276,0.854,0.549,0.488,495.815
138218,156154,12606,0.011,-0.915,-0.276,0.854,0.549,0.488,495.819
138218,156102,12572,0.008,-0.92,-0.271,0.854,0.549,0.488,495.825
138226,156154,12606,0.011,-0.922,-0.271,1.159,0.854,0.488,495.829
138226,156142,12581,0.01,-0.917,-0.269,1.159,0.854,0.488,495.835
138230,156154,12606,0.009,-0.918,-0.267,1.22,0.793,0.366,495.839
138230,156134,12579,0.012,-0.915,-0.264,1.22,0.793,0.366,495.845
138253,156154,12606,0.012,-0.916,-0.262,0.793,0.61,0.427,495.849
138253,156130,12556,0.009,-0.916,-0.267,0.793,0.61,0.427,495.855
138222,156154,12606,0.011,-0.915,-0.264,-0.061,0.488,0.427,495.859
138222,156126,12582,0.011,-0.914,-0.264,-0.061,0.488,0.427,495.865
138228,156154,12606,0.009,-0.914,-0.269,-0.793,0.183,0.427,495.869
138228,156139,12550,0.007,-0.917,-0.269,-0.793,0.183,0.427,495.875
138228,156154,12606,0.01,-0.92,-0.271,-1.22,0.122,0.305,495.879
138228,156118,12553,0.01,-0.922,-0.269,-1.22,0.122,0.305,495.885
138205,156154,12606,0.01,-0.92,-0.274,-1.463,-0.122,0.183,495.888
138205,156106,12566,0.008,-0.922,-0.274,-1.463,-0.122,0.183,495.895
138233,156154,12606,0.007,-0.924,-0.278,-1.585,-0.183,0.244,495.898
138233,156087,12564,0.007,-0.919,-0.282,-1.585,-0.183,0.244,495.905
138213,156154,12606,0.01,-0.918,-0.278,-1.463,-0.122,0.183,495.908
138213,156109,12563,0.011,-0.92,-0.281,-1.463,-0.122,0.183,495.914
138224,156154,12606,0.011,-0.922,-0.28,-0.793,0.061,0.183,495.918
138224,156139,12574,0.01,-0.922,-0.277,-0.793,0.061,0.183,495.924
138265,156154,12606,0.011,-0.918,-0.274,-0.244,0.122,0.244,495.928
138265,156142,12576,0.011,-0.918,-0.276,-0.244,0.122,0.244,495.934
138266,156410,12606,0.01,-0.919,-0.274,-0.122,0.427,0.244,495.938
138266,156168,12580,0.006,-0.922,-0.279,-0.122,0.427,0.244,495.944
138299,156410,12606,0.009,-0.922,-0.273,-0.122,0.61,0.061,495.948
138299,156164,12588,0.01,-0.919,-0.272,-0.122,0.61,0.061,495.954
138316,156410,12606,0.008,-0.915,-0.277,-0.488,0.427,0.183,495.958
138316,156170,12571,0.01,-0.92,-0.275,-0.488,0.427,0.183,495.964
138311,156410,12606,0.012,-0.922,-0.279,-0.366,0.366,0.183,495.968
138311,156194,12575,0.012,-0.923,-0.277,-0.366,0.366,0.183,495.974
138285,156410,12606,0.012,-0.915,-0.273,-0.305,0.305,0.061,495.978
138285,156181,12590,0.008,-0.912,-0.279,-0.305,0.305,0.061,495.984
138291,156410,12606,0.009,-0.92,-0.277,-0.305,0.244,0.305,495.987
138291,156170,12571,0.013,-0.918,-0.264,-0.305,0.244,0.305,495.994
138295,156154,12606,0.012,-0.912,-0.271,-0.305,0.183,0.366,495.997
138295,156145,12583,0.011,-0.919,-0.277,-0.305,0.183,0.366,496.004
138245,156154,12606,0.009,-0.923,-0.281,-0.61,0.244,0.488,496.007
138245,156133,12577,0.01,-0.922,-0.279,-0.61,0.244,0.488,496.013
138267,156154,12606,0.01,-0.923,-0.278,-0.366,0.122,0.366,496.017
138267,156151,12566,0.012,-0.922,-0.273,-0.366,0.122,0.366,496.023
138257,156154,12606,0.011,-0.92,-0.284,-0.183,0.183,0.488,496.027
138257,156134,12577,0.009,-0.927,-0.282,-0.183,0.183,0.488,496.033
138255,156154,12606,0.012,-0.923,-0.276,0.183,0.488,0.427,496.037
138255,156129,12560,0.011,-0.918,-0.278,0.183,0.488,0.427,496.043
