140429,155387,12927,0.013,-0.969,0.014,-1.89,0,0.366,395.841
140371,155386,12606,0.013,-0.969,0.014,-1.89,0,0.366,395.845
140371,155382,12934,0.013,-0.966,-0.001,-2.439,0,0.183,395.851
140403,155386,12606,0.013,-0.966,-0.001,-2.439,0,0.183,395.855
140403,155367,12918,0.013,-0.97,-0.001,-1.768,0.061,0.122,395.861
140376,155386,12606,0.013,-0.97,-0.001,-1.768,0.061,0.122,395.865
140376,155381,12932,0.013,-0.963,0.007,-0.671,0.183,0.366,395.871
140365,155386,12606,0.013,-0.963,0.007,-0.671,0.183,0.366,395.874
140365,155380,12937,0.012,-0.967,0.012,0.915,0.854,0.244,395.881
140369,155386,12606,0.012,-0.967,0.012,0.915,0.854,0.244,395.884
140369,155378,12916,0.012,-0.957,0.018,1.951,1.037,0.305,395.891
140393,155386,12606,0.011,-0.957,0.026,1.951,1.037,0.305,395.894
140393,155371,12939,0.012,-0.956,0.034,1.829,1.098,0.366,395.9
140389,155642,12606,0.008,-0.951,0.042,1.829,1.098,0.366,395.904
140389,155408,12937,0.014,-0.953,0.037,0.183,0.61,0.244,395.91
140433,155642,12606,0.015,-0.961,0.031,0.183,0.61,0.244,395.914
140433,155462,12939,0.012,-0.96,0.033,-2.012,-0.122,0.122,395.92
140446,155642,12606,0.012,-0.951,0.033,-2.012,-0.122,0.122,395.924
140446,155451,12944,0.012,-0.949,0.02,-3.72,-0.488,0.244,395.93
140470,155642,12606,0.013,-0.956,0.008,-3.72,-0.488,0.244,395.934
140470,155447,12949,0.011,-0.971,0.004,-4.451,-0.854,0.122,395.94
140435,155642,12606,0.012,-0.976,-0.006,-4.451,-0.854,0.122,395.944
140435,155445,12926,0.011,-0.975,-0.012,-3.537,-0.549,0.122,395.95
140427,155642,12606,0.014,-0.977,-0.015,-3.537,-0.549,0.122,395.954
140427,155407,12920,0.013,-0.983,-0.011,-1.28,-0.183,0.427,395.96
140402,155386,12606,0.014,-0.977,-0.004,-1.28,-0.183,0.427,395.964
140402,155387,12926,0.015,-0.971,0.001,1.707,0.671,0.488,395.97
140413,155642,12606,0.014,-0.959,0.008,1.707,0.671,0.488,395.973
140413,155414,12921,0.01,-0.961,0.016,3.171,1.037,0.671,395.98
140445,155642,12606,0.011,-0.962,0.023,3.171,1.037,0.671,395.983
140445,155395,12948,0.012,-0.957,0.035,2.988,0.915,0.61,395.99
140433,155642,12606,0.013,-0.952,0.034,2.988,0.915,0.61,395.993
140433,155455,12939,0.013,-0.953,0.036,1.341,0.366,0.732,395.999
140452,155642,12606,0.011,-0.956,0.028,1.341,0.366,0.732,396.003
140452,155441,12930,0.011,-0.961,0.023,-0.671,0.122,0.549,396.009
140467,155642,12606,0.015,-0.963,0.022,-0.671,0.122,0.549,396.013
140467,155438,12931,0.016,-0.964,0.017,-1.463,-0.244,0.305,396.019
140438,155642,12606,0.017,-0.962,0.009,-1.463,-0.244,0.305,396.023
140438,155452,12913,0.011,-0.963,0.005,-1.585,0,0.427,396.029
140414,155642,12606,0.013,-0.967,0.004,-1.585,0,0.427,396.033
140414,155416,12936,0.018,-0.972,0.001,-1.098,0.305,0.366,396.039
140415,155642,12606,0.013,-0.969,0,-1.098,0.305,0.366,396.043
140415,155411,12916,0.012,-0.967,-0.001,0.244,0.61,0.488,396.049
140417,155642,12606,0.011,-0.97,-0.002,0.244,0.61,0.488,396.053
140417,155415,12913,0.01,-0.972,0,1.89,1.159,0.488,396.059
140471,155642,12606,0.011,-0.969,0.018,1.89,1.159,0.488,396.063
140471,155448,12935,0.015,-0.962,0.026,3.049,1.159,0.488,396.069
140498,155642,12606,0.01,-0.961,0.028,3.049,1.159,0.488,396.072
140498,155459,12940,0.012,-0.955,0.03,2.317,0.854,0.671,396.079
140524,155642,12606,0.011,-0.948,0.036,2.317,0.854,0.671,396.082
140524,155502,12947,0.01,-0.945,0.037,0.854,0.671,0.427,396.089
140496,155642,12606,0.012,-0.946,0.037,0.854,0.671,0.427,396.092
140496,155477,12950,0.012,-0.956,0.03,-1.28,0,0.183,396.098
140503,155642,12606,0.01,-0.964,0.025,-1.28,0,0.183,396.102
140503,155490,12939,0.013,-0.968,0.024,-3.171,-0.427,0.244,396.108
140449,155642,12606,0.016,-0.972,0.015,-3.171,-0.427,0.244,396.112
140449,155473,12934,0.013,-0.971,0.003,-3.841,-0.549,0.061,396.118
140450,155642,12606,0.015,-0.97,0.004,-3.841,-0.549,0.061,396.122
140450,155423,12930,0.014,-0.967,0.01,-3.415,-0.549,0.244,396.128
140441,155642,12606,0.015,-0.963,0.002,-3.415,-0.549,0.244,396.132
140441,155432,12910,0.013,-0.967,-0.002,-2.5,-0.122,0.305,396.138
140429,155642,12606,0.016,-0.974,0.001,-2.5,-0.122,0.305,396.142
140429,155447,12932,0.013,-0.974,0.001,-1.098,0.671,0.244,396.148
140445,155642,12606,0.015,-0.966,-0.001,-1.098,0.671,0.244,396.152
140445,155437,12948,0.016,-0.962,0.004,-0.061,1.037,0.488,396.158
140456,155642,12606,0.013,-0.962,0.012,-0.061,1.037,0.488,396.162
140456,155451,12931,0.011,-0.962,0.012,0.793,1.402,0.427,396.168
140438,155642,12606,0.01,-0.958,0.011,0.793,1.402,0.427,396.171
140438,155434,12927,0.01,-0.963,0.012,0.915,1.22,0.488,396.178
140463,155642,12606,0.011,-0.97,0.014,0.915,1.22,0.488,396.181
140463,155459,12919,0.013,-0.972,0.016,1.402,1.037,0.366,396.188
140456,155642,12606,0.017,-0.966,0.019,1.402,1.037,0.366,396.191
140456,155410,12935,0.014,-0.956,0.025,1.707,0.854,0.488,396.197
140405,155642,12606,0.011,-0.956,0.023,1.707,0.854,0.488,396.201
140405,155406,12921,0.011,-0.957,0.017,1.22,0.61,0.61,396.207
140387,155386,12606,0.014,-0.96,0.014,1.22,0.61,0.61,396.211
140387,155342,12918,0.009,-0.961,0.016,0.793,0.244,0.488,396.217
140318,155386,12606,0.013,-0.962,0.024,0.793,0.244,0.488,396.221
140318,155350,12902,0.011,-0.961,0.017,0.854,-0.061,0.549,396.227
140345,155386,12606,0.013,-0.967,0.005,0.854,-0.061,0.549,396.231
140345,155334,12911,0.013,-0.965,0.003,0.61,0.305,0.366,396.237
140360,155386,12606,0.016,-0.965,0.007,0.61,0.305,0.366,396.241
140360,155315,12908,0.012,-0.968,0.018,1.28,0.61,0.366,396.247
140335,155386,12606,0.012,-0.969,0.02,1.28,0.61,0.366,396.251
140335,155346,12915,0.01,-0.97,0.018,1.829,0.915,0.427,396.257
140349,155386,12606,0.01,-0.962,0.013,1.829,0.915,0.427,396.261
140349,155352,12915,0.015,-0.957,0.019,1.524,1.037,0.305,396.267
140362,155386,12606,0.016,-0.956,0.023,1.524,1.037,0.305,396.27
140362,155367,12902,0.013,-0.954,0.018,1.22,0.915,0.305,396.277
140350,155386,12606,0.014,-0.958,0.014,1.22,0.915,0.305,396.28
140350,155346,12918,0.018,-0.966,0.022,0.915,1.098,0.122,396.286
140342,155386,12606,0.014,-0.964,0.021,0.915,1.098,0.122,396.29
140342,155345,12909,0.012,-0.962,0.021,0.671,0.915,0.244,396.296
140316,155386,12606,0.012,-0.966,0.025,0.671,0.915,0.244,396.3
140316,155317,12926,0.013,-0.97,0.025,0,0.549,0.549,396.306
140329,155386,12606,0.014,-0.969,0.011,0,0.549,0.549,396.31
140329,155334,12901,0.015,-0.967,0.014,-0.183,0.61,0.549,396.316
140331,155386,12606,0.014,-0.965,0.019,-0.183,0.61,0.549,396.32
140331,155348,12907,0.011,-0.961,0.024,-0.122,0.427,0.732,396.326
140358,155386,12606,0.01,-0.956,0.02,-0.122,0.427,0.732,396.33
140358,155342,12908,0.013,-0.952,0.021,-0.61,0.305,0.732,396.336
140373,155386,12606,0.013,-0.952,0.021,-0.61,0.305,0.732,396.34
140373,155361,12918,0.011,-0.956,0.021,-1.098,0.366,0.427,396.346
140399,155386,12606,0.011,-0.956,0.021,-1.098,0.366,0.427,396.35
140399,155391,12910,0.011,-0.961,0.018,-1.22,0.366,0.244,396.356
140388,155386,12606,0.011,-0.961,0.018,-1.22,0.366,0.244,396.36
140388,155376,12924,0.01,-0.96,0.017,-1.28,0.305,0.122,396.366
140407,155386,12606,0.01,-0.96,0.017,-1.28,0.305,0.122,396.369
140407,155388,12914,0.007,-0.966,0.017,-1.341,0.122,0.183,396.376
140361,155386,12606,0.007,-0.966,0.017,-1.341,0.122,0.183,396.379
140361,155359,12924,0.015,-0.965,0.007,-1.341,0.061,0.244,396.385
140388,155386,12606,0.015,-0.965,0.007,-1.341,0.061,0.244,396.389
140388,155362,12911,0.012,-0.968,0.015,-0.488,0.366,0.122,396.395
140333,155386,12606,0.012,-0.968,0.015,-0.488,0.366,0.122,396.399
140333,155333,12921,0.013,-0.961,0.013,0.244,0.61,0.183,396.405
140321,155386,12606,0.013,-0.961,0.013,0.244,0.61,0.183,396.409
140321,155313,12897,0.011,-0.966,0.007,0.305,0.854,0.183,396.415
140334,155386,12606,0.011,-0.966,0.007,0.305,0.854,0.183,396.419
140334,155303,12917,0.009,-0.963,0.015,0.671,0.854,0.183,396.425
140310,155386,12606,0.009,-0.963,0.015,0.671,0.854,0.183,396.429
140310,155326,12905,0.013,-0.967,0.015,0.61,0.549,0.122,396.435
140319,155386,12606,0.013,-0.967,0.015,0.61,0.549,0.122,396.439
140319,155298,12912,0.01,-0.964,0.01,0.366,0.671,0.244,396.445
140333,155386,12606,0.01,-0.964,0.01,0.366,0.671,0.244,396.449
140333,155349,12909,0.015,-0.966,0.015,0.915,0.549,0.366,396.455
140354,155386,12606,0.015,-0.966,0.015,0.915,0.549,0.366,396.459
140354,155360,12911,0.013,-0.961,0.011,1.28,0.732,0.366,396.465
140370,155386,12606,0.013,-0.961,0.011,1.28,0.732,0.366,396.468
140370,155377,12924,0.013,-0.959,0.018,1.707,0.854,0.61,396.475
140363,155386,12606,0.013,-0.959,0.018,1.707,0.854,0.61,396.478
140363,155351,12922,0.012,-0.955,0.025,1.707,0.854,0.61,396.485
140339,155386,12606,0.013,-0.953,0.029,1.585,0.732,0.732,396.488
140339,155359,12907,0.011,-0.955,0.032,1.585,0.732,0.732,396.494
140333,155386,12606,0.009,-0.961,0.028,0.732,0.793,0.427,396.498
140333,155330,12906,0.015,-0.964,0.02,0.732,0.793,0.427,396.504
140337,155386,12606,0.014,-0.96,0.023,-0.366,0.61,0.244,396.508
140337,155367,12898,0.014,-0.962,0.025,-0.366,0.61,0.244,396.514
140360,155386,12606,0.013,-0.967,0.021,-1.341,0.549,0.305,396.518
140360,155349,12912,0.014,-0.969,0.016,-1.341,0.549,0.305,396.524
140373,155386,12606,0.011,-0.973,0.012,-1.341,0.549,0.305,396.528
140373,155362,12914,0.012,-0.97,0.008,-1.341,0.549,0.305,396.534
140401,155386,12606,0.015,-0.962,0.001,-0.915,0.488,0.488,396.538
140401,155371,12911,0.011,-0.966,0.004,-0.915,0.488,0.488,396.544
140384,155642,12606,0.011,-0.971,0.003,0.488,0.915,0.488,396.548
140384,155403,12919,0.012,-0.975,0.001,0.488,0.915,0.488,396.554
140402,155642,12606,0.011,-0.97,0.005,2.012,1.341,0.427,396.558
140402,155394,12909,0.014,-0.963,0.005,2.012,1.341,0.427,396.564
140363,155386,12606,0.012,-0.964,0.008,3.171,1.524,0.61,396.567
140363,155369,12916,0.013,-0.969,0.02,3.171,1.524,0.61,396.574
140374,155386,12606,0.011,-0.967,0.027,4.634,1.829,0.549,396.577
140374,155355,12905,0.014,-0.963,0.028,4.634,1.829,0.549,396.583
140388,155386,12606,0.015,-0.959,0.027,4.573,2.134,0.732,396.587
140388,155386,12912,0.012,-0.958,0.032,4.573,2.134,0.732,396.593
140390,155386,12606,0.011,-0.959,0.039,3.902,2.195,0.915,396.597
140390,155369,12932,0.009,-0.952,0.042,3.902,2.195,0.915,396.603
140405,155386,12606,0.005,-0.946,0.044,2.5,1.585,0.854,396.607
140405,155387,12909,0.006,-0.941,0.05,2.5,1.585,0.854,396.613
140403,155642,12606,0.006,-0.942,0.053,-0.122,0.549,0.61,396.617
140403,155405,12928,0.009,-0.944,0.042,-0.122,0.549,0.61,396.623
140400,155642,12606,0.009,-0.951,0.026,-3.537,-0.427,0.061,396.627
140400,155399,12922,0.011,-0.966,0.016,-3.537,-0.427,0.061,396.633
140388,155386,12606,0.013,-0.974,0.003,-4.939,-0.671,-0.244,396.637
140388,155380,12909,0.015,-0.984,-0.004,-4.939,-0.671,-0.244,396.643
140416,155642,12606,0.016,-0.991,-0.01,-3.902,-0.488,-0.061,396.647
140416,155399,12912,0.015,-0.993,-0.007,-3.902,-0.488,-0.061,396.653
140385,155386,12606,0.015,-0.987,-0.003,-0.915,0.427,0.305,396.657
140385,155365,12912,0.018,-0.977,-0.001,-0.915,0.427,0.305,396.663
140374,155386,12606,0.015,-0.966,0.004,2.134,1.341,0.61,396.666
140374,155384,12923,0.013,-0.964,0.011,2.134,1.341,0.61,396.673
140357,155386,12606,0.014,-0.953,0.025,3.598,1.646,0.671,396.676
140357,155368,12904,0.009,-0.945,0.034,3.598,1.646,0.671,396.683
140355,155386,12606,0.01,-0.942,0.041,3.293,1.098,0.854,396.686
140355,155357,12916,0.008,-0.948,0.04,3.293,1.098,0.854,396.692
140363,155386,12606,0.009,-0.959,0.033,1.402,0.854,0.427,396.696
140363,155359,12920,0.013,-0.963,0.03,1.402,0.854,0.427,396.702
140338,155386,12606,0.016,-0.959,0.031,-0.61,0.488,0.305,396.706
140338,155360,12903,0.013,-0.96,0.032,-0.61,0.488,0.305,396.712
140344,155386,12606,0.01,-0.957,0.035,-1.707,-0.061,0.366,396.716
140344,155356,12900,0.012,-0.957,0.022,-1.707,-0.061,0.366,396.722
140360,155386,12606,0.015,-0.963,0.014,-2.744,-0.122,0.244,396.726
140360,155370,12902,0.013,-0.975,0.008,-2.744,-0.122,0.244,396.732
140355,155386,12606,0.012,-0.982,0.007,-2.683,0,0.244,396.736
140355,155366,12921,0.01,-0.976,0.001,-2.683,0,0.244,396.742
140377,155386,12606,0.011,-0.973,0.006,-1.524,0.061,0.671,396.746
140377,155385,12900,0.011,-0.966,0.01,-1.524,0.061,0.671,396.752
140394,155386,12606,0.009,-0.963,0.006,-0.305,0.427,0.854,396.756
140394,155368,12910,0.01,-0.966,0.012,-0.305,0.427,0.854,396.762
140375,155386,12606,0.007,-0.967,0.025,0.854,0.915,0.427,396.765
140375,155369,12904,0.006,-0.957,0.028,0.854,0.915,0.427,396.772
140355,155386,12606,0.006,-0.95,0.027,0.915,0.732,0.427,396.775
140355,155353,12907,0.007,-0.952,0.033,0.915,0.732,0.427,396.781
140322,155386,12606,0.01,-0.96,0.026,-0.183,0.427,0.244,396.785
140322,155337,12910,0.013,-0.964,0.028,-0.183,0.427,0.244,396.791
140321,155386,12606,0.01,-0.958,0.028,-1.037,0.061,0.061,396.795
140321,155323,12897,0.014,-0.958,0.027,-1.037,0.061,0.061,396.801
140324,155386,12606,0.017,-0.966,0.018,-1.829,0,0.122,396.805
140324,155318,12893,0.018,-0.971,0.01,-1.829,0,0.122,396.811
140311,155386,12606,0.017,-0.967,0.009,-2.073,0.061,0.305,396.815
140311,155342,12902,0.014,-0.969,0.01,-2.073,0.061,0.305,396.821
140363,155386,12606,0.013,-0.97,0.005,-0.854,0.183,0.488,396.825
140363,155344,12900,0.014,-0.973,-0,-0.854,0.183,0.488,396.831
140379,155642,12606,0.013,-0.971,0.009,0.305,0.427,0.732,396.835
140379,155402,12907,0.011,-0.967,0.015,0.305,0.427,0.732,396.841
140447,155642,12606,0.011,-0.963,0.024,1.159,0.549,0.732,396.845
140447,155428,12924,0.007,-0.957,0.026,1.159,0.549,0.732,396.851
140462,155642,12606,0.005,-0.957,0.028,1.037,0.488,0.793,396.855
140462,155478,12930,0.007,-0.958,0.031,1.037,0.488,0.793,396.861
140543,155642,12606,0.009,-0.961,0.02,0.061,0.183,0.488,396.864
140543,155525,12928,0.009,-0.967,0.012,0.061,0.183,0.488,396.871
140585,155642,12606,0.011,-0.967,0.015,-0.122,0.122,0.305,396.874
140585,155588,12957,0.012,-0.969,0.012,-0.122,0.122,0.305,396.88
140612,155642,12606,0.017,-0.967,0.004,0.793,0.305,0.305,396.884
140612,155608,12933,0.015,-0.976,-0.001,0.793,0.305,0.305,396.89
140594,155642,12606,0.013,-0.98,0.012,2.073,0.671,0.549,396.894
140594,155581,12945,0.016,-0.969,0.015,2.073,0.671,0.549,396.9
140590,155642,12606,0.019,-0.962,0.014,3.171,0.732,0.854,396.904
140590,155523,12947,0.015,-0.961,0.027,3.171,0.732,0.854,396.91
140547,155642,12606,0.011,-0.952,0.044,3.049,0.915,0.976,396.914
140547,155515,12930,0.011,-0.944,0.043,3.049,0.915,0.976,396.92
140518,155642,12606,0.011,-0.944,0.043,3.049,0.915,0.976,396.924
140518,155506,12932,0.007,-0.954,0.042,1.22,0.427,0.976,396.93
140502,155642,12606,0.007,-0.954,0.042,1.22,0.427,0.976,396.934
140502,155508,12925,0.009,-0.965,0.025,-1.037,-0.183,0.793,396.94
140507,155642,12606,0.009,-0.965,0.025,-1.037,-0.183,0.793,396.944
140507,155486,12921,0.007,-0.959,0.03,-2.5,-0.549,0.671,396.95
140497,155642,12606,0.007,-0.959,0.03,-2.5,-0.549,0.671,396.953
140497,155470,12931,0.008,-0.961,0.014,-3.049,-0.793,0.61,396.96
140528,155642,12606,0.008,-0.961,0.014,-3.049,-0.793,0.61,396.963
140528,155501,12918,0.006,-0.97,0.005,-3.11,-0.61,0.183,396.97
140530,155642,12606,0.006,-0.97,0.005,-3.11,-0.61,0.183,396.973
140530,155498,12928,0.007,-0.967,0.014,-2.195,-0.305,-0.244,396.979
140497,155642,12606,0.007,-0.967,0.014,-2.195,-0.305,-0.244,396.983
140497,155461,12924,0.007,-0.969,0.014,-1.341,-0.183,-0.244,396.989
140454,155642,12606,0.007,-0.969,0.014,-1.341,-0.183,-0.244,396.993
140454,155455,12922,0.014,-0.96,0.019,-0.732,0.244,-0.488,396.999
140459,155642,12606,0.014,-0.96,0.019,-0.732,0.244,-0.488,397.003
140459,155404,12906,0.016,-0.958,0.021,-0.244,0.183,-0.366,397.009
140407,155386,12606,0.016,-0.958,0.021,-0.244,0.183,-0.366,397.013
140407,155386,12915,0.018,-0.958,0.024,-0.671,0.122,0,397.019
140418,155642,12606,0.018,-0.958,0.024,-0.671,0.122,0,397.023
140418,155423,12905,0.018,-0.961,0.021,-1.341,0.122,0.122,397.029
140404,155642,12606,0.018,-0.961,0.021,-1.341,0.122,0.122,397.033
140404,155393,12907,0.014,-0.963,0.011,-1.951,-0.122,0.366,397.039
140398,155642,12606,0.014,-0.963,0.011,-1.951,-0.122,0.366,397.043
140398,155406,12906,0.012,-0.966,0.002,-1.768,-0.183,0.549,397.049
140422,155642,12606,0.012,-0.966,0.002,-1.768,-0.183,0.549,397.053
140422,155408,12917,0.006,-0.973,0.004,-0.732,-0.183,0.793,397.059
140449,155642,12606,0.006,-0.973,0.004,-0.732,-0.183,0.793,397.062
140449,155450,12898,0.005,-0.968,0.004,0.976,0.549,0.732,397.069
140426,155642,12606,0.008,-0.965,0.007,0.976,0.549,0.732,397.072
140426,155405,12914,0.012,-0.965,0.012,2.012,0.427,0.793,397.078
140422,155642,12606,0.007,-0.966,0.012,2.012,0.427,0.793,397.082
140422,155392,12918,0.007,-0.969,0.021,3.049,0.915,0.427,397.088
140401,155386,12606,0.009,-0.968,0.029,3.049,0.915,0.427,397.092
140401,155385,12899,0.012,-0.958,0.036,3.11,1.098,0.183,397.098
140367,155642,12606,0.011,-0.954,0.036,3.11,1.098,0.183,397.102
140367,155401,12901,0.011,-0.955,0.037,1.829,0.732,0.366,397.108
140365,155642,12606,0.014,-0.95,0.04,1.829,0.732,0.366,397.112
140365,155396,12910,0.015,-0.953,0.035,0.427,0.793,0.122,397.118
140394,155642,12606,0.014,-0.958,0.031,0.427,0.793,0.122,397.122
140394,155392,12906,0.015,-0.963,0.026,-1.098,0.976,0.061,397.128
140401,155386,12606,0.016,-0.966,0.025,-1.098,0.976,0.061,397.132
140401,155389,12915,0.016,-0.963,0.015,-2.134,0.549,0.305,397.138
140423,155642,12606,0.016,-0.961,0.006,-2.134,0.549,0.305,397.142
140423,155419,12913,0.013,-0.97,-0,-2.195,0.549,0.61,397.148
140462,155642,12606,0.012,-0.982,-0.004,-2.195,0.549,0.61,397.151
140462,155456,12926,0.015,-0.982,-0.004,-0.61,0.854,0.732,397.158
140485,155642,12606,0.015,-0.977,0.005,-0.61,0.854,0.732,397.161
140485,155475,12921,0.012,-0.966,0.015,1.707,1.28,0.976,397.168
140515,155642,12606,0.009,-0.959,0.022,1.707,1.28,0.976,397.171
140515,155489,12928,0.008,-0.958,0.028,2.439,1.524,1.037,397.177
140529,155642,12606,0.007,-0.959,0.029,2.439,1.524,1.037,397.181
140529,155498,12912,0.008,-0.956,0.026,1.829,1.402,0.61,397.187
140523,155642,12606,0.008,-0.949,0.035,1.829,1.402,0.61,397.191
140523,155500,12913,0.006,-0.949,0.042,0.671,0.793,0.366,397.197
140515,155642,12606,0.008,-0.949,0.036,0.671,0.793,0.366,397.201
140515,155484,12911,0.01,-0.95,0.031,-1.098,0.244,0.244,397.207
140492,155642,12606,0.01,-0.96,0.029,-1.098,0.244,0.244,397.211
140492,155475,12931,0.011,-0.963,0.022,-2.317,-0.244,0.061,397.217
140474,155642,12606,0.013,-0.964,0.015,-2.317,-0.244,0.061,397.221
140474,155433,12921,0.01,-0.967,0.013,-2.561,-0.671,0.244,397.227
140436,155642,12606,0.014,-0.969,0.01,-2.561,-0.671,0.244,397.231
140436,155434,12894,0.015,-0.972,0.006,-1.951,-0.793,0.732,397.237
140410,155642,12606,0.012,-0.977,0.01,-1.951,-0.793,0.732,397.241
140410,155407,12915,0.013,-0.974,0.004,-0.549,-0.244,0.732,397.247
140420,155642,12606,0.01,-0.97,0.005,-0.549,-0.244,0.732,397.251
140420,155440,12896,0.012,-0.966,0.011,0.793,0.427,0.61,397.257
140411,155642,12606,0.007,-0.965,0.019,0.793,0.427,0.61,397.26
140411,155442,12915,0.003,-0.961,0.03,1.89,0.915,0.427,397.267
140465,155642,12606,0.003,-0.953,0.036,1.89,0.915,0.427,397.27
140465,155433,12920,0.008,-0.949,0.039,1.098,0.488,0.244,397.276
140456,155642,12606,0.007,-0.947,0.043,1.098,0.488,0.244,397.28
140456,155486,12919,0.008,-0.951,0.035,-1.28,-0.122,-0.183,397.286
140486,155642,12606,0.008,-0.962,0.017,-1.28,-0.122,-0.183,397.29
140486,155485,12911,0.011,-0.967,0.015,-3.232,-0.549,-0.488,397.296
140477,155642,12606,0.013,-0.969,0.015,-3.232,-0.549,-0.488,397.3
140477,155477,12923,0.016,-0.964,0.009,-2.988,-0.854,-0.305,397.306
140430,155642,12606,0.013,-0.967,0.004,-2.988,-0.854,-0.305,397.31
140430,155449,12910,0.015,-0.974,0.006,-1.89,-0.305,-0.122,397.316
140428,155642,12606,0.017,-0.974,0.008,-1.89,-0.305,-0.122,397.32
140428,155407,12910,0.014,-0.97,0.01,-0.793,-0.183,0.122,397.326
140387,155642,12606,0.017,-0.968,0.012,-0.793,-0.183,0.122,397.33
140387,155393,12901,0.015,-0.964,0.012,-0.183,0.244,0.427,397.336
140379,155386,12606,0.016,-0.964,0.01,-0.183,0.244,0.427,397.34
140379,155385,12916,0.016,-0.966,0.013,0.427,0.488,0.61,397.346
140383,155386,12606,0.013,-0.964,0.012,0.427,0.488,0.61,397.349
140383,155379,12908,0.013,-0.964,0.007,1.037,0.61,0.671,397.356
140385,155642,12606,0.014,-0.97,0.014,1.037,0.61,0.671,397.359
140385,155392,12910,0.015,-0.975,0.018,1.951,0.976,0.61,397.366
140409,155642,12606,0.012,-0.968,0.032,1.951,0.976,0.61,397.369
140409,155408,12902,0.008,-0.959,0.035,2.195,1.037,0.793,397.375
140412,155642,12606,0.007,-0.954,0.027,2.195,1.037,0.793,397.379
140412,155444,12912,0.01,-0.957,0.024,1.28,0.976,0.61,397.385
140457,155642,12606,0.01,-0.956,0.032,1.28,0.976,0.61,397.389
140457,155434,12917,0.012,-0.948,0.032,0.305,0.488,0.305,397.395
140431,155642,12606,0.012,-0.946,0.028,0.305,0.488,0.305,397.399
140431,155470,12908,0.01,-0.954,0.021,-0.915,0.244,0.305,397.405
140417,155642,12606,0.01,-0.96,0.012,-0.915,0.244,0.305,397.409
140417,155442,12905,0.009,-0.972,0.012,-1.646,0.366,-0.061,397.415
140414,155642,12606,0.016,-0.978,0.011,-1.646,0.366,-0.061,397.419
140414,155430,12895,0.017,-0.971,0.007,-1.037,0.366,-0.061,397.425
140387,155642,12606,0.018,-0.968,0.009,-1.037,0.366,-0.061,397.429
140387,155442,12907,0.015,-0.971,0.013,0.061,0.671,0.366,397.435
140401,155642,12606,0.016,-0.967,0.016,0.061,0.671,0.366,397.439
140401,155441,12914,0.013,-0.961,0.019,1.037,0.915,0.61,397.445
140385,155642,12606,0.012,-0.958,0.023,1.037,0.915,0.61,397.449
140385,155452,12904,0.011,-0.959,0.026,1.159,0.671,0.854,397.455
140409,155642,12606,0.006,-0.963,0.029,1.159,0.671,0.854,397.458
140409,155455,12919,0.006,-0.966,0.028,0.244,0.244,0.976,397.465
140408,155642,12606,0.008,-0.962,0.029,0.244,0.244,0.976,397.468
140408,155450,12919,0.009,-0.959,0.026,-1.037,-0.183,0.915,397.474
140422,155642,12606,0.011,-0.961,0.019,-1.037,-0.183,0.915,397.478
140422,155427,12914,0.009,-0.964,0.013,-1.829,-0.244,0.671,397.484
140417,155642,12606,0.011,-0.968,0.01,-1.829,-0.244,0.671,397.488
140417,155411,12910,0.011,-0.97,0.016,-1.402,0.122,0.427,397.494
140380,155642,12606,0.002,-0.965,0.024,-1.402,0.122,0.427,397.498
140380,155413,12908,0.007,-0.961,0.016,-0.427,0.427,0.061,397.504
140355,155386,12606,0.007,-0.961,0.016,-0.427,0.427,0.061,397.508
140355,155390,12898,0.01,-0.965,0.02,-0.061,0.671,-0.122,397.514
140374,155642,12606,0.01,-0.965,0.02,-0.061,0.671,-0.122,397.518
140374,155407,12919,0.012,-0.952,0.021,0.061,0.427,0,397.524
140374,155386,12606,0.012,-0.952,0.021,0.061,0.427,0,397.528
140374,155387,12910,0.01,-0.971,0.012,-0.122,0.549,0.061,397.534
140384,155642,12606,0.01,-0.971,0.012,-0.122,0.549,0.061,397.538
140384,155421,12907,0.019,-0.958,0.029,0.183,0.427,0.061,397.544
140383,155642,12606,0.019,-0.958,0.029,0.183,0.427,0.061,397.548
140383,155418,12920,0.014,-0.961,0.018,-0.244,0.183,0.366,397.554
140404,155642,12606,0.014,-0.961,0.018,-0.244,0.183,0.366,397.557
140404,155420,12915,0.018,-0.957,0.027,-0.244,0.305,0.244,397.564
140407,155642,12606,0.018,-0.957,0.027,-0.244,0.305,0.244,397.567
140407,155420,12904,0.017,-0.965,0.01,-0.671,0.244,0.549,397.574
140379,155642,12606,0.017,-0.965,0.01,-0.671,0.244,0.549,397.577
140379,155401,12915,0.014,-0.97,0.002,-0.366,0.427,1.037,397.583
140371,155642,12606,0.014,-0.97,0.002,-0.366,0.427,1.037,397.587
140371,155397,12901,0.011,-0.975,0.008,1.524,0.854,1.159,397.593
140369,155642,12606,0.011,-0.975,0.008,1.524,0.854,1.159,397.597
140369,155394,12909,0.006,-0.968,0.02,3.354,1.28,1.098,397.603
140343,155642,12606,0.006,-0.968,0.02,3.354,1.28,1.098,397.607
140343,155397,12903,0.003,-0.955,0.036,3.415,0.976,1.159,397.613
140352,155386,12606,0.003,-0.955,0.036,3.415,0.976,1.159,397.617
140352,155371,12903,0.001,-0.95,0.036,2.134,0.793,0.61,397.623
140369,155642,12606,0.001,-0.95,0.036,2.134,0.793,0.61,397.627
140369,155404,12905,0.006,-0.957,0.034,0.061,0.488,-0.183,397.633
140378,155642,12606,0.006,-0.957,0.034,0.061,0.488,-0.183,397.637
140378,155398,12918,0.007,-0.953,0.024,-1.463,-0.244,-0.427,397.643
140409,155642,12606,0.007,-0.953,0.024,-1.463,-0.244,-0.427,397.647
140409,155446,12913,0.011,-0.964,0.024,-1.463,-0.244,-0.427,397.653
140449,155642,12606,0.01,-0.971,0.024,-1.646,-0.122,-0.732,397.656
140449,155471,12916,0.015,-0.969,0.023,-1.646,-0.122,-0.732,397.663
140469,155642,12606,0.02,-0.961,0.023,-1.585,0,-0.671,397.666
140469,155500,12923,0.017,-0.96,0.02,-1.585,0,-0.671,397.672
140464,155642,12606,0.016,-0.958,0.018,-1.707,0.488,-0.305,397.676
140464,155500,12923,0.018,-0.959,0.016,-1.707,0.488,-0.305,397.682
140470,155642,12606,0.021,-0.96,0.018,-1.707,0.488,-0.183,397.686
140470,155471,12911,0.02,-0.965,0.017,-1.707,0.488,-0.183,397.692
140436,155642,12606,0.014,-0.965,0.015,-1.037,0.671,0.183,397.696
140436,155483,12925,0.015,-0.965,0.016,-1.037,0.671,0.183,397.702
140437,155642,12606,0.017,-0.967,0.018,-0.732,0.61,0.549,397.706
140437,155479,12919,0.017,-0.966,0.017,-0.732,0.61,0.549,397.712
140427,155642,12606,0.016,-0.967,0.029,-0.793,0.366,0.915,397.716
140427,155472,12934,0.009,-0.965,0.025,-0.793,0.366,0.915,397.722
140415,155642,12606,0.011,-0.964,0.023,-0.976,0.061,1.159,397.726
140415,155464,12909,0.014,-0.965,0.023,-0.976,0.061,1.159,397.732
140417,155642,12606,0.007,-0.961,0.017,-1.402,0,1.098,397.736
140417,155471,12917,0.004,-0.957,0.014,-1.402,0,1.098,397.742
140444,155642,12606,0.01,-0.958,0.017,-1.159,-0.244,0.976,397.746
140444,155458,12919,0.009,-0.965,0.014,-1.159,-0.244,0.976,397.752
140435,155642,12606,0.005,-0.966,0.011,-1.037,-0.488,0.793,397.755
140435,155483,12929,0.006,-0.969,0.009,-1.037,-0.488,0.793,397.762
140465,155642,12606,0.011,-0.972,0.003,-0.244,-0.122,0.488,397.765
140465,155464,12930,0.011,-0.978,-0.001,-0.244,-0.122,0.488,397.772
140493,155642,12606,0.009,-0.974,0.011,1.524,0.305,0.427,397.775
140493,155486,12938,0.005,-0.966,0.019,1.524,0.305,0.427,397.781
140488,155642,12606,0.011,-0.957,0.021,3.049,0.915,0.366,397.785
140488,155516,12924,0.009,-0.956,0.033,3.049,0.915,0.366,397.791
140507,155642,12606,0.008,-0.956,0.044,2.805,0.915,0.183,397.795
140507,155506,12926,0.01,-0.953,0.043,2.805,0.915,0.183,397.801
140517,155642,12606,0.01,-0.956,0.036,0.671,0.244,0.244,397.805
140517,155516,12946,0.012,-0.958,0.034,0.671,0.244,0.244,397.811
140533,155642,12606,0.012,-0.964,0.031,-1.341,-0.305,0.183,397.815
140533,155522,12943,0.014,-0.957,0.032,-1.341,-0.305,0.183,397.821
140523,155642,12606,0.01,-0.951,0.034,-2.5,-0.671,0.244,397.825
140523,155531,12949,0.009,-0.953,0.025,-2.5,-0.671,0.244,397.831
140542,155642,12606,0.009,-0.962,0.02,-3.598,-0.549,0.061,397.835
140542,155547,12935,0.009,-0.971,0.011,-3.598,-0.549,0.061,397.841
140523,155642,12606,0.016,-0.973,0,-3.902,-0.61,-0.183,397.845
140523,155533,12943,0.015,-0.973,-0.006,-3.902,-0.61,-0.183,397.851
140525,155642,12606,0.012,-0.968,-0.007,-2.683,-0.549,0.183,397.854
140525,155546,12925,0.014,-0.974,-0.003,-2.683,-0.549,0.183,397.861
140491,155642,12606,0.015,-0.982,-0.003,-0.366,0.122,0.305,397.864
140491,155505,12936,0.014,-0.976,0.002,-0.366,0.122,0.305,397.871
140487,155642,12606,0.01,-0.965,0.011,1.951,0.915,0.305,397.874
140487,155499,12929,0.013,-0.957,0.019,1.951,0.915,0.305,397.88
140509,155642,12606,0.01,-0.953,0.029,2.683,1.22,0.488,397.884
140509,155540,12923,0.013,-0.952,0.034,2.683,1.22,0.488,397.89
140511,155642,12606,0.017,-0.953,0.035,1.646,0.915,0.305,397.894
140511,155541,12929,0.015,-0.956,0.032,1.646,0.915,0.305,397.9
140527,155642,12606,0.013,-0.956,0.032,0.122,0.854,0.122,397.904
140527,155518,12938,0.017,-0.955,0.032,0.122,0.854,0.122,397.91
140561,155642,12606,0.016,-0.956,0.024,-1.524,0.244,0.305,397.914
140561,155562,12932,0.014,-0.958,0.014,-1.524,0.244,0.305,397.92
140578,155642,12606,0.012,-0.966,0.012,-2.378,0.061,0.488,397.924
140578,155600,12944,0.013,-0.974,0.013,-2.378,0.061,0.488,397.93
140601,155642,12606,0.012,-0.971,0.01,-1.707,0.122,0.671,397.934
140601,155607,12959,0.013,-0.965,0.008,-1.707,0.122,0.671,397.94
140600,155642,12606,0.012,-0.961,0.011,-0.793,0.305,0.854,397.944
140600,155601,12948,0.008,-0.965,0.008,-0.793,0.305,0.854,397.95
140582,155642,12606,0.006,-0.965,0.003,0.122,0.976,0.793,397.953
140582,155572,12941,0.011,-0.966,0.004,0.122,0.976,0.793,397.96
140555,155642,12606,0.011,-0.968,0.009,0.671,0.976,0.488,397.963
140555,155584,12940,0.011,-0.969,0.013,0.671,0.976,0.488,397.97
140504,155642,12606,0.01,-0.962,0.013,1.646,1.098,0.427,397.973
140504,155543,12945,0.006,-0.961,0.026,1.646,1.098,0.427,397.979
140473,155642,12606,0.006,-0.958,0.031,1.89,0.854,0.488,397.983
140473,155515,12926,0.012,-0.951,0.028,1.89,0.854,0.488,397.989
140452,155642,12606,0.009,-0.959,0.027,0.61,0.305,0.427,397.993
140452,155463,12944,0.005,-0.963,0.034,0.61,0.305,0.427,397.999
140448,155642,12606,0.01,-0.955,0.033,-0.244,0.061,0.122,398.003
140448,155452,12921,0.013,-0.953,0.033,-0.244,0.061,0.122,398.009
140397,155642,12606,0.015,-0.953,0.031,-1.646,-0.305,0,398.013
140397,155432,12929,0.013,-0.949,0.028,-1.646,-0.305,0,398.019
140406,155642,12606,0.016,-0.947,0.021,-3.354,-0.549,0.122,398.023
140406,155420,12924,0.015,-0.96,0.021,-3.354,-0.549,0.122,398.029
140377,155642,12606,0.013,-0.969,0.02,-3.841,-0.549,0,398.033
140377,155413,12937,0.014,-0.968,0.019,-3.841,-0.549,0,398.039
140373,155642,12606,0.014,-0.963,0.013,-4.146,-0.549,0.061,398.043
140373,155431,12927,0.015,-0.963,0.001,-4.146,-0.549,0.061,398.049
140399,155642,12606,0.016,-0.972,-0.002,-4.024,-0.427,0.366,398.052
140399,155443,12922,0.012,-0.976,-0.004,-4.024,-0.427,0.366,398.059
140404,155642,12606,0.011,-0.978,-0.003,-2.439,-0.122,0.61,398.062
140404,155451,12933,0.009,-0.985,0.001,-2.439,-0.122,0.61,398.069
140432,155642,12606,0.006,-0.986,0.009,-0.488,0.305,0.793,398.072
140432,155453,12935,0.007,-0.973,0.015,-0.488,0.305,0.793,398.078
140455,155642,12606,0.005,-0.96,0.023,0.732,0.366,0.854,398.082
140455,155472,12947,0.005,-0.953,0.025,0.732,0.366,0.854,398.088
140471,155642,12606,0.002,-0.955,0.023,0.122,0.61,0.366,398.092
140471,155493,12929,0.005,-0.956,0.033,0.122,0.61,0.366,398.098
140466,155642,12606,0.005,-0.956,0.033,0.122,0.61,0.366,398.102
140466,155474,12928,0.008,-0.956,0.024,-1.22,0.305,-0.061,398.108
140427,155642,12606,0.008,-0.956,0.024,-1.22,0.305,-0.061,398.112
140427,155478,12931,0.015,-0.965,0.013,-2.805,-0.061,-0.244,398.118
140423,155642,12606,0.015,-0.965,0.013,-2.805,-0.061,-0.244,398.122
140423,155435,12927,0.018,-0.971,0.009,-2.927,-0.061,-0.244,398.128
140421,155642,12606,0.018,-0.971,0.009,-2.927,-0.061,-0.244,398.132
140421,155441,12926,0.018,-0.967,0.001,-1.707,0.061,0,398.138
140434,155642,12606,0.018,-0.967,0.001,-1.707,0.061,0,398.142
140434,155482,12957,0.015,-0.977,-0.006,-0.732,0.366,0.305,398.148
140463,155642,12606,0.015,-0.977,-0.006,-0.732,0.366,0.305,398.151
140463,155486,12925,0.013,-0.964,0.01,0.793,0.61,0.61,398.158
140479,155642,12606,0.013,-0.964,0.01,0.793,0.61,0.61,398.161
140479,155502,12945,0.011,-0.958,0.036,2.256,0.915,0.793,398.168
140479,155642,12606,0.011,-0.958,0.036,2.256,0.915,0.793,398.171
140479,155509,12955,0.009,-0.951,0.019,1.646,1.037,0.549,398.177
140481,155642,12606,0.009,-0.951,0.019,1.646,1.037,0.549,398.181
140481,155508,12937,0.012,-0.952,0.023,-0.122,0.732,0.488,398.187
140469,155642,12606,0.012,-0.952,0.023,-0.122,0.732,0.488,398.191
140469,155503,12921,0.012,-0.956,0.021,-0.732,0.183,0.244,398.197
140421,155642,12606,0.012,-0.956,0.021,-0.732,0.183,0.244,398.201
140421,155473,12951,0.013,-0.974,0.004,-1.341,0.244,0.244,398.207
140410,155642,12606,0.013,-0.974,0.004,-1.341,0.244,0.244,398.211
140410,155449,12924,0.014,-0.972,0.003,-0.915,0.305,0.305,398.217
140398,155642,12606,0.014,-0.972,0.003,-0.915,0.305,0.305,398.221
140398,155420,12923,0.011,-0.961,0.006,0.732,0.549,0.732,398.227
140387,155642,12606,0.011,-0.961,0.006,0.732,0.549,0.732,398.231
140387,155408,12927,0.012,-0.972,0.01,2.073,1.037,0.854,398.237
140386,155642,12606,0.012,-0.972,0.01,2.073,1.037,0.854,398.241
140386,155400,12926,0.013,-0.974,0.02,3.049,1.402,0.61,398.247
140389,155642,12606,0.005,-0.966,0.025,3.049,1.402,0.61,398.25
140389,155421,12921,0.009,-0.958,0.029,2.988,1.463,0.549,398.257
140396,155642,12606,0.006,-0.953,0.031,2.988,1.463,0.549,398.26
140396,155426,12928,0.006,-0.956,0.032,1.463,1.037,0.549,398.267
140434,155642,12606,0.006,-0.956,0.025,1.463,1.037,0.549,398.27
140434,155484,12943,0.012,-0.962,0.03,-0.122,0.61,0.122,398.276
140410,155642,12606,0.013,-0.961,0.027,-0.122,0.61,0.122,398.28
140410,155493,12941,0.01,-0.959,0.025,-1.098,0.427,0,398.286
140421,155642,12606,0.009,-0.958,0.025,-1.098,0.427,0,398.29
140421,155472,12947,0.014,-0.957,0.02,-2.073,0.183,0.122,398.296
140423,155642,12606,0.014,-0.963,0.021,-2.073,0.183,0.122,398.3
140423,155454,12927,0.012,-0.966,0.018,-2.561,-0.122,0.061,398.306
140387,155642,12606,0.014,-0.968,0.011,-2.561,-0.122,0.061,398.31
140387,155426,12918,0.012,-0.968,0.006,-2.5,-0.122,0.061,398.316
140334,155642,12606,0.014,-0.969,0.008,-2.5,-0.122,0.061,398.32
140334,155409,12925,0.01,-0.969,0.002,-1.585,0.122,0.183,398.326
140306,155386,12606,0.014,-0.969,-0.005,-1.585,0.122,0.183,398.33
140306,155374,12909,0.014,-0.973,-0.004,-0.183,0.61,0.061,398.336
140260,155386,12606,0.011,-0.973,0.001,-0.183,0.61,0.061,398.34
140260,155343,12922,0.011,-0.969,0.007,1.646,1.159,0.305,398.346
140268,155386,12606,0.012,-0.964,0.007,1.646,1.159,0.305,398.349
140268,155354,12913,0.01,-0.968,0.009,2.744,1.463,0.61,398.356
140278,155386,12606,0.01,-0.965,0.013,2.744,1.463,0.61,398.359
140278,155363,12928,0.01,-0.962,0.018,3.171,1.402,0.427,398.366
140290,155386,12606,0.013,-0.96,0.019,3.171,1.402,0.427,398.369
140290,155373,12899,0.011,-0.959,0.028,3.11,1.159,0.671,398.375
140309,155386,12606,0.009,-0.956,0.037,3.11,1.159,0.671,398.379
140309,155359,12912,0.009,-0.95,0.037,2.378,1.037,0.671,398.385
140311,155386,12606,0.009,-0.953,0.039,2.378,1.037,0.671,398.389
140311,155372,12910,0.01,-0.959,0.036,0.427,0.427,0.488,398.395
140295,155386,12606,0.011,-0.957,0.034,0.427,0.427,0.488,398.399
140295,155361,12908,0.011,-0.95,0.03,-1.524,0,0.366,398.405
140285,155386,12606,0.011,-0.955,0.023,-1.524,0,0.366,398.409
140285,155334,12924,0.012,-0.97,0.022,-2.561,-0.305,0.366,398.415
140314,155386,12606,0.013,-0.977,0.016,-2.561,-0.305,0.366,398.419
140314,155378,12911,0.014,-0.977,0.003,-2.439,-0.244,0.366,398.425
140314,155386,12606,0.012,-0.974,0.003,-2.439,-0.244,0.366,398.429
140314,155370,12918,0.011,-0.972,0.001,-1.707,-0.183,0.671,398.435
140349,155642,12606,0.007,-0.969,0.003,-1.707,-0.183,0.671,398.439
140349,155399,12924,0.013,-0.963,0.005,-0.061,0.427,0.793,398.445
140348,155386,12606,0.012,-0.964,0.004,-0.061,0.427,0.793,398.448
140348,155383,12918,0.011,-0.968,0.016,1.585,0.915,0.61,398.455
140329,155386,12606,0.01,-0.962,0.022,1.585,0.915,0.61,398.458
140329,155391,12931,0.008,-0.956,0.021,1.829,0.732,0.671,398.465
140351,155386,12606,0.009,-0.957,0.017,1.829,0.732,0.671,398.468
140351,155387,12903,0.009,-0.96,0.021,1.037,0.671,0.488,398.474
140300,155386,12606,0.009,-0.959,0.027,1.037,0.671,0.488,398.478
140300,155373,12926,0.011,-0.955,0.031,0.61,0.488,0.305,398.484
140285,155386,12606,0.011,-0.955,0.029,0.61,0.488,0.305,398.488
140285,155363,12916,0.014,-0.964,0.027,-0.427,0.244,0.244,398.494
140261,155386,12606,0.011,-0.971,0.024,-0.427,0.244,0.244,398.498
140261,155328,12910,0.01,-0.968,0.015,-1.585,0.122,0.305,398.504
140281,155386,12606,0.01,-0.961,0.012,-1.585,0.122,0.305,398.508
140281,155337,12920,0.015,-0.962,0.018,-1.463,0.244,0.122,398.514
140303,155386,12606,0.013,-0.965,0.021,-1.463,0.244,0.122,398.518
140303,155366,12916,0.012,-0.964,0.011,-1.159,0.366,0.183,398.524
140319,155642,12606,0.01,-0.967,0.004,-1.159,0.366,0.183,398.528
140319,155397,12932,0.007,-0.971,0.006,-1.037,0.244,0.305,398.534
140361,155642,12606,0.007,-0.969,0.009,-1.037,0.244,0.305,398.538
140361,155402,12923,0.012,-0.967,0.01,0.122,0.488,0.427,398.544
140365,155642,12606,0.015,-0.964,0.011,0.122,0.488,0.427,398.547
140365,155401,12956,0.013,-0.967,0.014,1.159,0.793,0.122,398.554
140384,155642,12606,0.013,-0.968,0.021,1.159,0.793,0.122,398.557
140384,155428,12918,0.012,-0.963,0.028,1.524,1.037,0.061,398.564
140374,155642,12606,0.007,-0.952,0.027,1.524,1.037,0.061,398.567
140374,155420,12938,0.011,-0.948,0.023,1.037,0.915,0.183,398.573
140361,155642,12606,0.009,-0.954,0.028,1.037,0.915,0.183,398.577
140361,155415,12911,0.012,-0.958,0.035,0.305,0.671,-0.061,398.583
140319,155386,12606,0.013,-0.956,0.033,0.305,0.671,-0.061,398.587
140319,155391,12924,0.01,-0.951,0.021,-1.22,0.244,-0.183,398.593
140313,155386,12606,0.01,-0.965,0.011,-1.22,0.244,-0.183,398.597
140313,155363,12919,0.012,-0.977,0.008,-2.256,-0.122,-0.244,398.603
140329,155386,12606,0.012,-0.978,0.005,-2.256,-0.122,-0.244,398.607
140329,155378,12923,0.011,-0.97,0.003,-1.098,-0.061,-0.061,398.613
140314,155386,12606,0.011,-0.964,0.012,-1.098,-0.061,-0.061,398.617
140314,155383,12920,0.012,-0.971,0.011,-0.305,0.366,0.061,398.623
140341,155642,12606,0.012,-0.975,0.006,-0.305,0.366,0.061,398.627
140341,155416,12928,0.011,-0.976,0.01,0.488,0.793,0.061,398.633
140384,155642,12606,0.016,-0.965,0.023,0.488,0.793,0.061,398.637
140384,155418,12915,0.019,-0.953,0.031,1.341,0.671,0.122,398.643
140402,155642,12606,0.013,-0.949,0.032,1.341,0.671,0.122,398.646
140402,155459,12930,0.008,-0.952,0.025,0.427,0.61,0.244,398.653
140429,155642,12606,0.01,-0.959,0.016,0.427,0.61,0.244,398.656
140429,155444,12952,0.013,-0.964,0.01,-0.793,0.732,0.061,398.663
140431,155642,12606,0.016,-0.968,0.011,-0.793,0.732,0.061,398.666
140431,155465,12931,0.018,-0.973,0.008,-0.854,0.61,0.244,398.672
140426,155642,12606,0.013,-0.971,-0.004,-0.854,0.61,0.244,398.676
140426,155491,12944,0.011,-0.974,-0.001,0.183,0.854,0.61,398.682
140423,155642,12606,0.012,-0.971,0.016,0.183,0.854,0.61,398.686
140423,155455,12951,0.011,-0.958,0.021,2.012,0.854,0.854,398.692
140396,155642,12606,0.011,-0.958,0.021,2.012,0.854,0.854,398.696
140396,155449,12926,0.012,-0.949,0.024,1.951,0.793,0.793,398.702
140417,155642,12606,0.012,-0.949,0.024,1.951,0.793,0.793,398.706
140417,155449,12931,0.014,-0.96,0.021,1.524,0.793,0.305,398.712
140393,155642,12606,0.014,-0.96,0.021,1.524,0.793,0.305,398.716
140393,155453,12938,0.015,-0.955,0.036,1.22,0.305,0.549,398.722
140412,155642,12606,0.015,-0.955,0.036,1.22,0.305,0.549,398.726
140412,155437,12933,0.012,-0.954,0.028,-0.122,0.244,0.854,398.732
140396,155642,12606,0.012,-0.954,0.028,-0.122,0.244,0.854,398.736
140396,155460,12949,0.014,-0.971,0.021,-1.402,0,0.61,398.742
140400,155642,12606,0.014,-0.971,0.021,-1.402,0,0.61,398.745
140400,155453,12926,0.007,-0.964,0.014,-1.22,0.305,0.854,398.752
140402,155642,12606,0.007,-0.964,0.014,-1.22,0.305,0.854,398.755
140402,155469,12931,0.005,-0.963,0.016,-0.244,0.366,0.976,398.762
140395,155642,12606,0.005,-0.963,0.016,-0.244,0.366,0.976,398.765
140395,155455,12929,0.006,-0.974,0.004,0.488,0.366,0.61,398.771
140381,155642,12606,0.006,-0.974,0.004,0.488,0.366,0.61,398.775
140381,155441,12922,0.006,-0.973,0.009,1.524,0.549,0.366,398.781
140367,155642,12606,0.006,-0.973,0.009,1.524,0.549,0.366,398.785
140367,155398,12921,0.007,-0.967,0.008,2.317,0.427,0.061,398.791
140351,155642,12606,0.007,-0.967,0.008,2.317,0.427,0.061,398.795
140351,155426,12922,0.01,-0.964,0.019,2.866,0.61,-0.244,398.801
140376,155642,12606,0.01,-0.964,0.019,2.866,0.61,-0.244,398.805
140376,155428,12938,0.015,-0.96,0.03,2.805,0.61,-0.244,398.811
140382,155642,12606,0.015,-0.96,0.03,2.805,0.61,-0.244,398.815
140382,155457,12928,0.021,-0.966,0.023,2.744,0.793,-0.183,398.821
140404,155642,12606,0.021,-0.966,0.023,2.744,0.793,-0.183,398.825
140404,155430,12927,0.021,-0.961,0.041,2.561,0.671,0,398.831
140376,155642,12606,0.021,-0.961,0.041,2.561,0.671,0,398.835
140376,155449,12929,0.026,-0.95,0.035,2.561,0.671,0,398.841
140389,155642,12606,0.021,-0.951,0.029,1.463,0.671,0.427,398.844
140389,155438,12930,0.017,-0.964,0.035,1.463,0.671,0.427,398.851
140376,155642,12606,0.014,-0.964,0.034,0.427,0.915,0.793,398.854
140376,155452,12925,0.013,-0.955,0.024,0.427,0.915,0.793,398.861
140393,155642,12606,0.012,-0.95,0.02,-1.341,0.183,1.098,398.864
140393,155461,12936,0.006,-0.957,0.02,-1.341,0.183,1.098,398.87
140407,155642,12606,0.006,-0.965,0.009,-1.829,0.122,0.854,398.874
140407,155437,12920,0.01,-0.966,0.003,-1.829,0.122,0.854,398.88
140389,155642,12606,0.009,-0.965,0.009,-1.463,0.061,0.793,398.884
140389,155453,12926,0.008,-0.97,0.01,-1.463,0.061,0.793,398.89
140379,155642,12606,0.009,-0.976,0.014,0,0.427,0.732,398.894
140379,155441,12942,0.007,-0.973,0.021,0,0.427,0.732,398.9
140410,155642,12606,0.011,-0.963,0.026,0.793,0.671,0.549,398.904
140410,155474,12934,0.01,-0.956,0.031,0.793,0.671,0.549,398.91
140440,155642,12606,0.004,-0.957,0.031,0.793,0.854,0.549,398.914
140440,155491,12934,0.008,-0.954,0.042,0.793,0.854,0.549,398.92
140450,155642,12606,0.009,-0.944,0.041,0.366,0.549,0.305,398.924
140450,155489,12927,0.006,-0.945,0.035,0.366,0.549,0.305,398.93
140459,155642,12606,0.007,-0.957,0.037,-1.22,0,0,398.934
140459,155497,12943,0.007,-0.96,0.041,-1.22,0,0,398.94
140454,155642,12606,0.004,-0.956,0.027,-2.927,-0.488,-0.122,398.943
140454,155505,12927,0.005,-0.964,0.029,-2.927,-0.488,-0.122,398.95
140497,155642,12606,0.01,-0.967,0.03,-4.085,-0.976,-0.366,398.953
140497,155519,12956,0.01,-0.962,0.023,-4.085,-0.976,-0.366,398.96
140492,155642,12606,0.009,-0.964,0.017,-4.756,-1.341,-0.488,398.963
140492,155560,12949,0.013,-0.968,0.016,-4.756,-1.341,-0.488,398.969
140512,155642,12606,0.011,-0.965,0.006,-4.512,-1.28,-0.488,398.973
140512,155567,12943,0.014,-0.967,-0.009,-4.512,-1.28,-0.488,398.979
140500,155642,12606,0.018,-0.972,-0.009,-3.476,-0.854,-0.366,398.983
140500,155543,12952,0.019,-0.975,-0.001,-3.476,-0.854,-0.366,398.989
140506,155642,12606,0.02,-0.978,0.001,-1.159,-0.183,-0.244,398.993
140506,155537,12939,0.018,-0.967,-0,-1.159,-0.183,-0.244,398.999
140509,155642,12606,0.018,-0.965,0.005,0.793,0.793,0.061,399.003
140509,155563,12944,0.019,-0.967,0.009,0.793,0.793,0.061,399.009
140499,155642,12606,0.018,-0.964,0.015,2.073,1.037,0.488,399.013
140499,155543,12941,0.018,-0.959,0.024,2.073,1.037,0.488,399.019
140475,155642,12606,0.015,-0.96,0.031,2.5,0.854,0.793,399.023
140475,155537,12944,0.014,-0.957,0.032,2.5,0.854,0.793,399.029
140469,155642,12606,0.011,-0.958,0.03,1.646,0.793,0.976,399.033
140469,155501,12931,0.012,-0.955,0.026,1.646,0.793,0.976,399.039
140457,155642,12606,0.012,-0.955,0.03,0.244,0.61,0.915,399.042
140457,155520,12945,0.01,-0.955,0.031,0.244,0.61,0.915,399.049
140442,155642,12606,0.005,-0.952,0.029,-0.671,0.427,0.671,399.052
140442,155507,12960,0.004,-0.953,0.024,-0.671,0.427,0.671,399.059
140446,155642,12606,0.005,-0.959,0.017,-1.768,0.244,0.305,399.062
140446,155505,12940,0.009,-0.962,0.01,-1.768,0.244,0.305,399.068
140466,155642,12606,0.009,-0.966,0.01,-2.195,0.061,0.122,399.072
140466,155520,12962,0.014,-0.974,0.009,-2.195,0.061,0.122,399.078
140478,155642,12606,0.014,-0.972,0.006,-1.22,-0.122,0.183,399.082
140478,155559,12962,0.013,-0.971,0.007,-1.22,-0.122,0.183,399.088
140517,155642,12606,0.014,-0.972,0.008,0,0.183,0.305,399.092
140517,155568,12958,0.014,-0.975,0.007,0,0.183,0.305,399.098
140533,155642,12606,0.016,-0.973,0.011,1.707,0.549,0.305,399.102
140533,155584,12959,0.015,-0.967,0.023,1.707,0.549,0.305,399.108
140517,155642,12606,0.013,-0.958,0.035,2.317,0.61,0.61,399.112
140517,155572,12953,0.012,-0.951,0.032,2.317,0.61,0.61,399.118
140502,155642,12606,0.012,-0.955,0.035,1.037,0.427,0.671,399.122
140502,155583,12946,0.014,-0.952,0.043,1.037,0.427,0.671,399.128
140500,155642,12606,0.015,-0.944,0.042,-0.549,0.122,0.488,399.132
140500,155554,12938,0.013,-0.946,0.03,-0.549,0.122,0.488,399.138
140487,155642,12606,0.008,-0.959,0.025,-2.805,-0.244,0.427,399.141
140487,155546,12940,0.01,-0.963,0.021,-2.805,-0.244,0.427,399.148
140470,155642,12606,0.009,-0.962,0.017,-3.72,-0.61,0.244,399.151
140470,155540,12946,0.011,-0.962,0.016,-3.72,-0.61,0.244,399.158
140486,155642,12606,0.008,-0.97,0.013,-3.537,-0.549,0.244,399.161
140486,155547,12956,0.005,-0.972,0.006,-3.537,-0.549,0.244,399.167
140507,155642,12606,0.008,-0.971,0.001,-3.171,-0.305,0.061,399.171
140507,155531,12949,0.012,-0.973,0.002,-3.171,-0.305,0.061,399.177
140481,155642,12606,0.01,-0.969,0.005,-1.707,0,0.061,399.181
140481,155536,12947,0.01,-0.968,-0.005,-1.707,0,0.061,399.187
140516,155642,12606,0.009,-0.968,-0.004,-0.244,0.549,0.061,399.191
140516,155557,12937,0.014,-0.971,0.001,-0.244,0.549,0.061,399.197
140500,155642,12606,0.017,-0.973,0.005,1.341,0.549,0.244,399.201
140500,155579,12956,0.014,-0.972,0.01,1.341,0.549,0.244,399.207
140493,155642,12606,0.013,-0.967,0.02,2.744,1.28,0.366,399.211
140493,155550,12965,0.016,-0.959,0.024,2.744,1.28,0.366,399.217
140494,155642,12606,0.018,-0.959,0.037,2.988,1.22,0.732,399.221
140494,155554,12944,0.013,-0.958,0.043,2.988,1.22,0.732,399.227
140465,155642,12606,0.01,-0.956,0.04,1.646,1.037,0.671,399.231
140465,155514,12951,0.011,-0.95,0.037,1.646,1.037,0.671,399.237
140480,155642,12606,0.007,-0.953,0.04,-0.61,0.61,0.366,399.24
140480,155525,12943,0.008,-0.949,0.035,-0.61,0.61,0.366,399.247
140484,155642,12606,0.006,-0.952,0.024,-2.744,-0.122,0.122,399.25
140484,155532,12948,0.005,-0.96,0.019,-2.744,-0.122,0.122,399.257
140522,155642,12606,0.007,-0.966,0.009,-4.085,-0.427,-0.122,399.26
140522,155574,12946,0.008,-0.966,0.008,-4.085,-0.427,-0.122,399.266
140553,155642,12606,0.011,-0.97,0.008,-3.476,-0.488,-0.183,399.27
140553,155611,12959,0.016,-0.974,-0.005,-3.476,-0.488,-0.183,399.276
140587,155642,12606,0.016,-0.974,-0.005,-3.476,-0.488,-0.183,399.28
140587,155639,12973,0.019,-0.98,-0,-2.073,-0.061,-0.244,399.286
140620,155898,12606,0.019,-0.98,-0,-2.073,-0.061,-0.244,399.29
140620,155655,12974,0.016,-0.971,0.007,0.366,0.671,-0.061,399.296
140649,155898,12606,0.016,-0.971,0.007,0.366,0.671,-0.061,399.3
140649,155700,12970,0.017,-0.964,0.016,1.951,1.28,0.427,399.306
140655,155898,12606,0.017,-0.964,0.016,1.951,1.28,0.427,399.31
140655,155677,12979,0.012,-0.954,0.03,2.439,1.402,0.671,399.316
140605,155898,12606,0.012,-0.954,0.03,2.439,1.402,0.671,399.32
140605,155648,12965,0.009,-0.96,0.03,1.768,0.915,0.732,399.326
140610,155642,12606,0.009,-0.96,0.03,1.768,0.915,0.732,399.33
140610,155627,12964,0.006,-0.944,0.037,0.915,0.61,0.61,399.336
140577,155642,12606,0.006,-0.944,0.037,0.915,0.61,0.61,399.339
140577,155627,12976,0.01,-0.959,0.018,-0.854,0,0.61,399.346
140544,155642,12606,0.01,-0.959,0.018,-0.854,0,0.61,399.349
140544,155608,12978,0.012,-0.969,0.017,-1.829,-0.183,0.183,399.356
140538,155642,12606,0.012,-0.969,0.017,-1.829,-0.183,0.183,399.359
140538,155590,12960,0.017,-0.967,0.01,-1.646,-0.122,-0.061,399.365
140580,155642,12606,0.017,-0.967,0.01,-1.646,-0.122,-0.061,399.369
140580,155608,12963,0.014,-0.973,0.009,-1.159,0.183,0,399.375
140589,155642,12606,0.014,-0.973,0.009,-1.159,0.183,0,399.379
140589,155646,12956,0.016,-0.963,0.009,-0.366,0.61,0.122,399.385
140601,155642,12606,0.016,-0.963,0.009,-0.366,0.61,0.122,399.389
140601,155636,12965,0.018,-0.955,0.024,0.183,0.915,0.183,399.395
140600,155642,12606,0.018,-0.955,0.024,0.183,0.915,0.183,399.399
140600,155615,12955,0.012,-0.953,0.021,0.244,0.915,0.488,399.405
140565,155642,12606,0.012,-0.953,0.021,0.244,0.915,0.488,399.409
140565,155597,12955,0.011,-0.97,0.029,-0.854,0.732,0.488,399.415
140513,155642,12606,0.011,-0.97,0.029,-0.854,0.732,0.488,399.419
140513,155582,12948,0.014,-0.964,0.032,-1.707,0.183,0.488,399.425
140468,155642,12606,0.01,-0.963,0.019,-1.707,0.183,0.488,399.429
140468,155513,12934,0.011,-0.966,0.014,-2.561,0.244,0.427,399.435
140402,155642,12606,0.013,-0.971,0.007,-2.561,0.244,0.427,399.439
140402,155488,12956,0.016,-0.973,0.005,-1.951,0.427,0.305,399.445
140397,155642,12606,0.011,-0.968,0.009,-1.951,0.427,0.305,399.448
140397,155453,12935,0.009,-0.968,0.005,-0.793,0.671,0.549,399.455
140355,155642,12606,0.004,-0.972,0.011,-0.793,0.671,0.549,399.458
140355,155469,12946,0.01,-0.97,0.012,-0.122,0.61,0.549,399.464
140387,155642,12606,0.01,-0.97,0.002,-0.122,0.61,0.549,399.468
140387,155502,12944,0.009,-0.963,0.006,0.488,0.671,0.244,399.474
140447,155642,12606,0.012,-0.957,0.011,0.488,0.671,0.244,399.478
140447,155520,12938,0.012,-0.958,0.014,1.22,0.732,0.061,399.484
140500,155642,12606,0.013,-0.958,0.019,1.22,0.732,0.061,399.488
140500,155572,12953,0.01,-0.964,0.015,1.098,0.427,0.244,399.494
140516,155642,12606,0.011,-0.969,0.02,1.098,0.427,0.244,399.498
140516,155576,12946,0.013,-0.968,0.025,1.037,0.488,0.122,399.504
140515,155642,12606,0.014,-0.961,0.024,1.037,0.488,0.122,399.508
140515,155596,12944,0.015,-0.96,0.025,0.732,0.549,0,399.514
140504,155642,12606,0.018,-0.949,0.026,0.732,0.549,0,399.518
140504,155569,12948,0.018,-0.948,0.02,-0.488,0.305,0.183,399.524
140480,155642,12606,0.019,-0.957,0.017,-0.488,0.305,0.183,399.528
140480,155533,12940,0.016,-0.964,0.022,-1.037,0.244,0.305,399.534
140454,155642,12606,0.015,-0.965,0.018,-1.037,0.244,0.305,399.538
140454,155525,12939,0.016,-0.968,0.011,-1.037,0.183,0.488,399.544
140403,155642,12606,0.015,-0.968,0.005,-1.037,0.183,0.488,399.547
140403,155512,12925,0.016,-0.978,0.009,-1.098,0.244,0.61,399.554
140407,155642,12606,0.011,-0.976,0.011,-1.098,0.244,0.61,399.557
140407,155517,12946,0.011,-0.967,0.013,-0.305,0.244,0.976,399.563
140398,155642,12606,0.01,-0.96,0.021,-0.305,0.244,0.976,399.567
140398,155494,12927,0.006,-0.962,0.027,0.305,0.305,0.915,399.573
140401,155642,12606,0.005,-0.959,0.027,0.305,0.305,0.915,399.577
140401,155483,12934,0.007,-0.956,0.021,-0.183,0.366,0.427,399.583
140414,155642,12606,0.009,-0.956,0.019,-0.183,0.366,0.427,399.587
140414,155495,12934,0.009,-0.955,0.027,-1.22,0.061,-0.061,399.593
140427,155642,12606,0.01,-0.958,0.028,-1.22,0.061,-0.061,399.597
140427,155517,12934,0.012,-0.962,0.018,-1.646,-0.122,-0.305,399.603
140447,155642,12606,0.012,-0.963,0.014,-1.646,-0.122,-0.305,399.607
140447,155514,12935,0.015,-0.961,0.012,-1.768,-0.244,-0.244,399.613
140439,155642,12606,0.017,-0.965,0.005,-1.768,-0.244,-0.244,399.617
140439,155509,12941,0.016,-0.969,0.003,-1.341,-0.183,-0.183,399.623
140439,155642,12606,0.016,-0.969,-0.001,-1.341,-0.183,-0.183,399.627
140439,155514,12943,0.017,-0.971,0.004,-0.061,0.183,0.122,399.633
140416,155642,12606,0.02,-0.971,0.004,-0.061,0.183,0.122,399.637
140416,155507,12923,0.019,-0.971,-0.004,0.854,0.671,0.244,399.643
140407,155642,12606,0.013,-0.978,0.003,0.854,0.671,0.244,399.646
140407,155507,12933,0.012,-0.977,0.016,2.134,1.098,0.61,399.653
140426,155642,12606,0.012,-0.962,0.031,2.134,1.098,0.61,399.656
140426,155505,12917,0.009,-0.95,0.031,2.439,1.037,0.793,399.662
140403,155642,12606,0.01,-0.955,0.02,2.439,1.037,0.793,399.666
140403,155485,12938,0.01,-0.962,0.019,1.098,0.793,0.61,399.672
140418,155642,12606,0.007,-0.962,0.022,1.098,0.793,0.61,399.676
140418,155491,12927,0.008,-0.959,0.029,0.549,0.549,0.366,399.682
140400,155642,12606,0.012,-0.957,0.026,0.549,0.549,0.366,399.686
140400,155482,12942,0.008,-0.958,0.024,-0.183,0.366,0.244,399.692
140386,155642,12606,0.009,-0.967,0.026,-0.183,0.366,0.244,399.696
140386,155477,12940,0.014,-0.965,0.02,-1.037,0.122,0.061,399.702
140394,155642,12606,0.016,-0.965,0.013,-1.037,0.122,0.061,399.706
140394,155452,12931,0.013,-0.969,0.008,-1.463,0,0,399.712
140363,155642,12606,0.011,-0.972,0.009,-1.463,0,0,399.716
140363,155449,12925,0.013,-0.978,0.003,-1.22,-0.061,0.183,399.722
140347,155642,12606,0.016,-0.968,-0.002,-1.22,-0.061,0.183,399.726
140347,155421,12925,0.014,-0.962,-0.006,-0.427,-0.061,0.488,399.732
140336,155642,12606,0.014,-0.971,-0.002,-0.427,-0.061,0.488,399.736
140336,155437,12924,0.011,-0.983,0.006,1.646,0.793,0.366,399.742
140338,155642,12606,0.011,-0.977,0.013,1.646,0.793,0.366,399.745
140338,155417,12917,0.012,-0.96,0.022,3.476,1.159,0.549,399.752
140308,155642,12606,0.013,-0.951,0.028,3.476,1.159,0.549,399.755
140308,155410,12919,0.012,-0.954,0.033,3.354,1.098,0.732,399.762
140353,155642,12606,0.01,-0.957,0.042,3.354,1.098,0.732,399.765
140353,155461,12920,0.01,-0.95,0.049,2.073,0.976,0.305,399.771
140336,155642,12606,0.007,-0.944,0.042,2.073,0.976,0.305,399.775
140336,155434,12935,0.006,-0.945,0.038,-1.159,0.244,0.183,399.781
140385,155642,12606,0.009,-0.95,0.031,-1.159,0.244,0.183,399.785
140385,155435,12934,0.01,-0.961,0.028,-3.415,-0.549,0.061,399.791
140348,155642,12606,0.013,-0.968,0.022,-3.415,-0.549,0.061,399.795
140348,155478,12935,0.013,-0.975,0.004,-4.329,-0.793,-0.244,399.801
140360,155642,12606,0.017,-0.982,-0.007,-4.329,-0.793,-0.244,399.805
140360,155475,12929,0.017,-0.982,-0.004,-3.902,-0.671,0,399.811
140390,155642,12606,0.019,-0.973,-0.004,-3.902,-0.671,0,399.815
140390,155442,12924,0.016,-0.962,-0.001,-1.159,-0.183,0.427,399.821
140377,155642,12606,0.017,-0.966,-0.001,-1.159,-0.183,0.427,399.825
140377,155485,12937,0.014,-0.966,0.005,1.037,0.671,0.488,399.831
140371,155642,12606,0.016,-0.959,0.01,1.037,0.671,0.488,399.835
140371,155489,12936,0.019,-0.954,0.015,2.073,0.854,0.671,399.841
140366,155642,12606,0.011,-0.953,0.02,2.073,0.854,0.671,399.844
140366,155476,12933,0.007,-0.955,0.025,2.195,1.159,0.61,399.851
140369,155642,12606,0.008,-0.954,0.028,2.195,1.159,0.61,399.854
140369,155455,12932,0.015,-0.956,0.03,1.159,0.61,0.427,399.86
140364,155642,12606,0.015,-0.957,0.027,1.159,0.61,0.427,399.864
140364,155459,12935,0.011,-0.96,0.023,-0.122,0.244,0.305,399.87
140340,155642,12606,0.011,-0.96,0.023,-0.122,0.244,0.305,399.874
140340,155455,12927,0.01,-0.969,0.024,-0.915,0.061,0.366,399.88
140314,155642,12606,0.01,-0.969,0.024,-0.915,0.061,0.366,399.884
140314,155442,12940,0.01,-0.96,0.022,-1.341,0.061,0.366,399.89
140335,155642,12606,0.01,-0.96,0.022,-1.341,0.061,0.366,399.894
140335,155423,12912,0.01,-0.964,0.009,-1.585,0.366,0.244,399.9
140320,155642,12606,0.01,-0.964,0.009,-1.585,0.366,0.244,399.904
140320,155439,12923,0.01,-0.963,0.009,-0.915,0.549,0.122,399.91
140323,155642,12606,0.01,-0.963,0.009,-0.915,0.549,0.122,399.914
140323,155411,12927,0.014,-0.968,0.01,-0.244,0.549,0.183,399.92
140353,155642,12606,0.014,-0.968,0.01,-0.244,0.549,0.183,399.924
140353,155421,12910,0.009,-0.959,0.014,0.122,0.671,0.183,399.93
140339,155642,12606,0.009,-0.959,0.014,0.122,0.671,0.183,399.934
140339,155435,12927,0.014,-0.968,0.02,0.61,0.549,0.244,399.94
140345,155642,12606,0.014,-0.968,0.02,0.61,0.549,0.244,399.943
140345,155435,12927,0.013,-0.958,0.023,0.122,0.488,0.366,399.95
140344,155642,12606,0.013,-0.958,0.023,0.122,0.488,0.366,399.953
140344,155434,12925,0.016,-0.954,0.024,-0.488,0.122,0.549,399.96
140323,155642,12606,0.016,-0.954,0.024,-0.488,0.122,0.549,399.963
140323,155440,12928,0.015,-0.97,0.027,-0.854,0.122,0.427,399.969
140323,155642,12606,0.015,-0.97,0.027,-0.854,0.122,0.427,399.973
140323,155416,12930,0.013,-0.959,0.022,-1.646,-0.061,0.427,399.979
140295,155642,12606,0.013,-0.959,0.022,-1.646,-0.061,0.427,399.983
140295,155406,12927,0.006,-0.969,0.009,-2.622,0.061,0.183,399.989
140308,155642,12606,0.006,-0.969,0.009,-2.622,0.061,0.183,399.993
140308,155409,12928,0.01,-0.96,0.012,-2.256,0.122,0.122,399.999
140306,155642,12606,0.01,-0.96,0.012,-2.256,0.122,0.122,400.003
140306,155432,12938,0.009,-0.963,0.015,-1.402,0.183,0.061,400.009
140355,155642,12606,0.009,-0.963,0.015,-1.402,0.183,0.061,400.013
140355,155441,12930,0.01,-0.967,0.007,-1.402,0.183,0.061,400.019
140395,155642,12606,0.011,-0.971,0.006,-1.037,0.244,-0.183,400.023
140395,155492,12950,0.013,-0.968,0.006,-1.037,0.244,-0.183,400.029
140436,155642,12606,0.02,-0.968,0.01,-0.488,0.244,-0.244,400.033
140436,155495,12931,0.016,-0.968,0.011,-0.488,0.244,-0.244,400.039
140432,155642,12606,0.015,-0.966,0.013,0.122,0.427,-0.183,400.042
140432,155538,12938,0.017,-0.964,0.017,0.122,0.427,-0.183,400.049
140414,155642,12606,0.018,-0.962,0.022,0.244,0.488,0.061,400.052
140414,155526,12953,0.018,-0.96,0.016,0.244,0.488,0.061,400.059
140413,155642,12606,0.014,-0.964,0.019,-0.305,0.366,0.305,400.062
140413,155530,12935,0.015,-0.965,0.015,-0.305,0.366,0.305,400.068
140407,155642,12606,0.019,-0.96,0.003,-1.037,0,0.61,400.072
140407,155501,12939,0.018,-0.961,-0,-1.037,0,0.61,400.078
140398,155642,12606,0.015,-0.965,0,-0.793,-0.122,0.793,400.082
140398,155471,12937,0.013,-0.973,-0.001,-0.793,-0.122,0.793,400.088
140403,155642,12606,0.011,-0.975,0.001,0.793,0.183,0.915,400.092
140403,155511,12940,0.013,-0.969,0.005,0.793,0.183,0.915,400.098
140409,155642,12606,0.011,-0.968,0.004,2.073,0.732,0.915,400.102
140409,155511,12942,0.01,-0.973,0.008,2.073,0.732,0.915,400.108
140434,155642,12606,0.011,-0.971,0.018,3.11,1.098,0.671,400.112
140434,155511,12949,0.009,-0.967,0.023,3.11,1.098,0.671,400.118
140435,155642,12606,0.011,-0.965,0.031,3.598,1.037,0.61,400.122
140435,155544,12936,0.009,-0.956,0.031,3.598,1.037,0.61,400.128
140413,155642,12606,0.005,-0.955,0.033,2.683,0.976,0.549,400.132
140413,155497,12949,0.012,-0.949,0.033,2.683,0.976,0.549,400.138
140411,155642,12606,0.01,-0.947,0.026,1.159,0.671,0.305,400.141
140411,155490,12948,0.008,-0.959,0.025,1.159,0.671,0.305,400.148
140400,155642,12606,0.012,-0.962,0.03,-0.061,0.244,0,400.151
140400,155505,12943,0.018,-0.957,0.025,-0.061,0.244,0,400.158
140376,155642,12606,0.017,-0.958,0.018,-1.28,-0.122,0.061,400.161
140376,155475,12938,0.015,-0.968,0.017,-1.28,-0.122,0.061,400.167
140356,155642,12606,0.013,-0.967,0.019,-2.134,-0.061,0,400.171
140356,155480,12929,0.016,-0.962,0.014,-2.134,-0.061,0,400.177
140361,155642,12606,0.016,-0.968,0.008,-2.195,-0.183,0.122,400.181
140361,155443,12935,0.011,-0.971,0.002,-2.195,-0.183,0.122,400.187
140354,155642,12606,0.014,-0.968,0,-1.341,0,0.244,400.191
140354,155458,12956,0.015,-0.969,0.006,-1.341,0,0.244,400.197
140373,155642,12606,0.011,-0.97,0.011,0.305,0.366,0.366,400.201
140373,155480,12929,0.012,-0.966,0.021,0.305,0.366,0.366,400.207
140367,155642,12606,0.011,-0.959,0.02,0.854,0.61,0.488,400.211
140367,155465,12933,0.013,-0.959,0.018,0.854,0.61,0.488,400.217
140372,155642,12606,0.014,-0.961,0.016,0.61,0.793,0.427,400.221
140372,155475,12933,0.011,-0.962,0.015,0.61,0.793,0.427,400.227
140386,155642,12606,0.013,-0.964,0.018,0.366,0.549,0.427,400.231
140386,155491,12937,0.013,-0.959,0.018,0.366,0.549,0.427,400.237
140388,155642,12606,0.013,-0.958,0.022,0.061,0.427,0.305,400.24
140388,155506,12930,0.012,-0.96,0.03,0.061,0.427,0.305,400.247
140370,155642,12606,0.012,-0.959,0.029,-0.488,0.244,0.122,400.25
140370,155460,12933,0.011,-0.952,0.029,-0.488,0.244,0.122,400.257
140317,155642,12606,0.012,-0.958,0.025,-1.768,0.061,0,400.26
140317,155418,12924,0.011,-0.958,0.018,-1.768,0.061,0,400.266
140318,155386,12606,0.011,-0.957,0.033,-2.683,0.061,-0.427,400.27
140318,155371,12924,0.012,-0.951,0.037,-2.683,0.061,-0.427,400.276
140238,155386,12606,0.015,-0.955,0.027,-4.024,-0.488,-0.427,400.28
140238,155386,12924,0.011,-0.965,0.022,-4.024,-0.488,-0.427,400.286
140218,155386,12606,0.015,-0.973,0.007,-5.244,-0.61,-0.671,400.29
140218,155361,12911,0.019,-0.973,-0.002,-5.244,-0.61,-0.671,400.296
140233,155386,12606,0.018,-0.967,-0.008,-4.878,-0.854,-0.61,400.3
140233,155362,12915,0.014,-0.973,-0.013,-4.878,-0.854,-0.61,400.306
140235,155386,12606,0.015,-0.987,-0.02,-3.049,-0.427,0.061,400.31
140235,155365,12904,0.021,-0.979,-0.014,-3.049,-0.427,0.061,400.316
140237,155386,12606,0.021,-0.971,-0.004,0.061,0.061,0.305,400.32
140237,155373,12926,0.018,-0.974,-0.003,0.061,0.061,0.305,400.326
140234,155386,12606,0.011,-0.971,0.001,2.439,0.854,0.732,400.33
140234,155356,12914,0.013,-0.959,0.015,2.439,0.854,0.732,400.336
140248,155386,12606,0.016,-0.958,0.021,3.232,1.402,0.732,400.339
140248,155368,12907,0.011,-0.959,0.025,3.232,1.402,0.732,400.346
140219,155386,12606,0.009,-0.957,0.031,2.683,1.22,0.732,400.349
140219,155374,12911,0.011,-0.956,0.038,2.683,1.22,0.732,400.355
140231,155386,12606,0.013,-0.951,0.031,1.22,0.793,0.61,400.359
140231,155368,12923,0.01,-0.953,0.029,1.22,0.793,0.61,400.365
140214,155386,12606,0.01,-0.953,0.036,-0.427,0.366,0.305,400.369
140214,155350,12903,0.01,-0.953,0.03,-0.427,0.366,0.305,400.375
140217,155386,12606,0.011,-0.961,0.016,-2.073,-0.122,0.061,400.379
140217,155353,12909,0.008,-0.97,0.011,-2.073,-0.122,0.061,400.385
140251,155386,12606,0.011,-0.976,0.005,-2.744,-0.366,-0.122,400.389
140251,155352,12919,0.014,-0.975,-0.001,-2.744,-0.366,-0.122,400.395
140264,155642,12606,0.018,-0.976,-0.005,-1.707,-0.305,0.061,400.399
140264,155392,12921,0.016,-0.978,-0.005,-1.707,-0.305,0.061,400.405
140271,155642,12606,0.016,-0.974,-0.009,-0.061,0.549,0.305,400.409
140271,155394,12924,0.016,-0.977,-0.001,-0.061,0.549,0.305,400.415
140282,155642,12606,0.018,-0.966,0.001,2.317,1.159,0.427,400.419
140282,155412,12913,0.016,-0.959,0.005,2.317,1.159,0.427,400.425
140283,155642,12606,0.015,-0.955,0.014,3.354,1.524,0.549,400.429
140283,155429,12931,0.012,-0.961,0.021,3.354,1.524,0.549,400.435
140304,155642,12606,0.01,-0.963,0.019,3.232,1.463,0.427,400.438
140304,155423,12921,0.008,-0.967,0.017,3.232,1.463,0.427,400.445
140292,155642,12606,0.016,-0.965,0.024,2.805,0.976,0.183,400.448
140292,155415,12919,0.023,-0.964,0.036,2.805,0.976,0.183,400.455
140282,155642,12606,0.024,-0.954,0.026,1.951,0.305,-0.061,400.458
140282,155418,12926,0.017,-0.957,0.027,1.951,0.305,-0.061,400.464
140294,155642,12606,0.017,-0.957,0.027,1.951,0.305,-0.061,400.468
140294,155398,12916,0.012,-0.956,0.022,0.427,0.183,0.488,400.474
140265,155642,12606,0.012,-0.956,0.022,0.427,0.183,0.488,400.478
140265,155396,12934,0.009,-0.96,0.019,-0.427,0,0.427,400.484
140269,155386,12606,0.009,-0.96,0.019,-0.427,0,0.427,400.488
140269,155362,12924,0.009,-0.959,0.017,-0.915,0.061,0.122,400.494
140265,155386,12606,0.009,-0.959,0.017,-0.915,0.061,0.122,400.498
140265,155371,12919,0.013,-0.96,0.018,-1.402,-0.244,0.183,400.504
140260,155386,12606,0.013,-0.96,0.018,-1.402,-0.244,0.183,400.508
140260,155390,12917,0.016,-0.972,0.003,-1.463,-0.183,0.183,400.514
140263,155386,12606,0.016,-0.972,0.003,-1.463,-0.183,0.183,400.518
140263,155390,12920,0.02,-0.972,0.014,-0.732,-0.061,0,400.524
140242,155642,12606,0.02,-0.972,0.014,-0.732,-0.061,0,400.528
140242,155416,12928,0.016,-0.961,0.013,0.305,-0.061,0.427,400.534
140252,155386,12606,0.016,-0.961,0.013,0.305,-0.061,0.427,400.537
140252,155385,12913,0.014,-0.965,0.017,0.732,0.671,0.61,400.544
140218,155642,12606,0.014,-0.965,0.017,0.732,0.671,0.61,400.547
140218,155393,12930,0.013,-0.958,0.04,0.671,0.61,0.488,400.553
140214,155386,12606,0.013,-0.958,0.04,0.671,0.61,0.488,400.557
140214,155358,12928,0.011,-0.956,0.027,-0.427,0.183,0.671,400.563
140193,155386,12606,0.011,-0.956,0.027,-0.427,0.183,0.671,400.567
140193,155340,12915,0.007,-0.957,0.017,-2.073,-0.305,0.549,400.573
140183,155386,12606,0.007,-0.957,0.017,-2.073,-0.305,0.549,400.577
140183,155332,12905,0.004,-0.964,-0.004,-2.927,-0.61,0.244,400.583
140206,155386,12606,0.004,-0.964,-0.004,-2.927,-0.61,0.244,400.587
140206,155326,12916,0.008,-0.98,0,-2.5,-0.671,0,400.593
140203,155386,12606,0.008,-0.98,0,-2.5,-0.671,0,400.597
140203,155346,12911,0.013,-0.973,-0.001,-0.793,-0.305,-0.183,400.603
140234,155386,12606,0.013,-0.973,-0.001,-0.793,-0.305,-0.183,400.607
140234,155372,12923,0.012,-0.977,-0.001,0.915,0.427,-0.122,400.613
140261,155642,12606,0.015,-0.977,0.006,0.915,0.427,-0.122,400.617
140261,155408,12932,0.012,-0.969,0.012,2.622,1.22,-0.366,400.623
140255,155386,12606,-0.003,-0.964,0.023,2.622,1.22,-0.366,400.627
140255,155383,12922,0.006,-0.957,0.036,3.11,1.098,-0.671,400.633
140272,155642,12606,0.025,-0.947,0.043,3.11,1.098,-0.671,400.636
140272,155398,12924,0.024,-0.947,0.045,1.22,0.183,-1.402,400.643
140232,155386,12606,0.021,-0.953,0.042,1.22,0.183,-1.402,400.646
140232,155368,12929,0.021,-0.954,0.036,-1.89,0.305,-1.037,400.653
140222,155642,12606,0.024,-0.961,0.028,-1.89,0.305,-1.037,400.656
140222,155400,12936,0.025,-0.965,0.022,-3.72,0.122,-0.427,400.662
140256,155386,12606,0.023,-0.958,0.012,-3.72,0.122,-0.427,400.666
140256,155384,12931,0.026,-0.958,0.002,-3.963,-0.183,0.244,400.672
140285,155642,12606,0.024,-0.964,-0.003,-3.963,-0.183,0.244,400.676
140285,155407,12932,0.02,-0.967,-0.009,-3.049,-0.183,0.915,400.682
140311,155642,12606,0.018,-0.973,-0.017,-3.049,-0.183,0.915,400.686
140311,155454,12924,0.019,-0.981,-0.018,-0.854,0.366,1.28,400.692
140343,155642,12606,0.017,-0.981,-0.015,-0.854,0.366,1.28,400.696
140343,155485,12944,0.014,-0.981,-0.012,2.378,1.28,1.22,400.702
140386,155642,12606,0.012,-0.976,-0.001,2.378,1.28,1.22,400.706
140386,155507,12943,0.01,-0.964,0.012,5,1.768,1.28,400.712
140396,155642,12606,0.01,-0.959,0.025,5,1.768,1.28,400.716
140396,155517,12954,0.007,-0.959,0.037,5.61,2.012,1.098,400.722
140432,155642,12606,0.006,-0.954,0.042,5.61,2.012,1.098,400.726
140432,155531,12950,0.011,-0.948,0.049,4.512,1.768,0.549,400.732
140435,155642,12606,0.012,-0.943,0.048,4.512,1.768,0.549,400.735
140435,155567,12952,0.01,-0.942,0.043,1.585,1.159,0.244,400.742
140451,155642,12606,0.009,-0.949,0.045,1.585,1.159,0.244,400.745
140451,155541,12957,0.012,-0.954,0.041,-1.341,0.488,-0.122,400.751
140441,155642,12606,0.014,-0.953,0.033,-1.341,0.488,-0.122,400.755
140441,155556,12944,0.012,-0.959,0.021,-3.659,-0.305,-0.305,400.761
140425,155642,12606,0.015,-0.965,0.009,-3.659,-0.305,-0.305,400.765
140425,155525,12945,0.017,-0.97,0.007,-4.573,-0.549,-0.244,400.771
140410,155642,12606,0.021,-0.969,-0,-4.573,-0.549,-0.244,400.775
140410,155540,12955,0.021,-0.973,-0.01,-4.024,-0.61,0.061,400.781
140404,155642,12606,0.017,-0.981,-0.009,-4.024,-0.61,0.061,400.785
