142613,157178,12606,0.037,-0.967,0.079,1.585,0.366,0,380.094
142613,156990,13287,0.041,-0.964,0.077,1.585,0.366,0,380.1
142627,157178,12606,0.041,-0.959,0.079,1.159,0.366,0,380.104
142627,156979,13271,0.043,-0.961,0.078,1.159,0.366,0,380.11
142593,157178,12606,0.043,-0.961,0.08,1.037,0.671,-0.183,380.114
142593,156939,13280,0.044,-0.959,0.082,1.037,0.671,-0.183,380.12
142600,157178,12606,0.043,-0.959,0.082,0.427,0.549,0.061,380.124
142600,156962,13283,0.047,-0.958,0.08,0.427,0.549,0.061,380.13
142587,157178,12606,0.046,-0.956,0.078,-0.427,0.61,0.366,380.134
142587,156933,13273,0.05,-0.955,0.074,-0.427,0.61,0.366,380.14
142591,157178,12606,0.045,-0.954,0.077,-0.549,0.976,0.671,380.144
142591,156947,13278,0.038,-0.956,0.079,-0.549,0.976,0.671,380.15
142588,157178,12606,0.034,-0.946,0.072,-0.366,1.28,1.159,380.154
142588,156936,13285,0.038,-0.946,0.076,-0.366,1.28,1.159,380.16
142571,157178,12606,0.038,-0.95,0.077,-0.61,0.732,1.28,380.163
142571,156960,13281,0.038,-0.95,0.076,-0.61,0.732,1.28,380.17
142589,157178,12606,0.036,-0.952,0.071,-0.488,0.671,1.22,380.173
142589,156946,13265,0.031,-0.956,0.068,-0.488,0.671,1.22,380.179
142588,157178,12606,0.031,-0.959,0.072,-0.061,0.854,0.915,380.183
142588,156944,13274,0.036,-0.963,0.079,-0.061,0.854,0.915,380.189
142576,157178,12606,0.037,-0.964,0.08,0.793,0.488,0.671,380.193
142576,156988,13284,0.036,-0.961,0.078,0.793,0.488,0.671,380.199
142619,157178,12606,0.036,-0.96,0.073,1.098,0.671,0.305,380.203
142619,156966,13268,0.035,-0.968,0.08,1.098,0.671,0.305,380.209
142576,157178,12606,0.033,-0.973,0.087,1.341,0.732,0.061,380.213
142576,156937,13284,0.037,-0.973,0.087,1.341,0.732,0.061,380.219
142565,156922,12606,0.041,-0.974,0.087,0.793,0.488,-0.183,380.223
142565,156922,13269,0.039,-0.968,0.088,0.793,0.488,-0.183,380.229
142559,157178,12606,0.039,-0.966,0.087,-0.61,0.244,-0.305,380.233
142559,156932,13272,0.039,-0.963,0.083,-0.61,0.244,-0.305,380.239
142543,156922,12606,0.041,-0.956,0.082,-2.073,0.122,-0.427,380.243
142543,156912,13263,0.045,-0.955,0.076,-2.073,0.122,-0.427,380.249
142528,156922,12606,0.044,-0.956,0.077,-2.805,0.183,-0.244,380.252
142528,156924,13259,0.044,-0.956,0.077,-2.805,0.183,-0.244,380.259
142525,156922,12606,0.044,-0.952,0.073,-2.805,0.244,0.061,380.262
142525,156892,13264,0.041,-0.95,0.074,-2.805,0.244,0.061,380.269
142488,156922,12606,0.039,-0.953,0.075,-2.683,0.244,0.488,380.272
142488,156886,13276,0.038,-0.956,0.071,-2.683,0.244,0.488,380.278
142500,156922,12606,0.041,-0.959,0.066,-2.195,0.183,0.549,380.282
142500,156887,13255,0.04,-0.961,0.069,-2.195,0.183,0.549,380.288
142498,156922,12606,0.039,-0.959,0.071,-1.463,-0.122,0.671,380.292
142498,156886,13256,0.038,-0.96,0.071,-1.463,-0.122,0.671,380.298
142485,156922,12606,0.036,-0.959,0.068,-0.61,0,0.61,380.302
142485,156907,13276,0.037,-0.965,0.07,-0.61,0,0.61,380.308
142493,156922,12606,0.041,-0.971,0.07,0.244,0.183,0.427,380.312
142493,156864,13273,0.04,-0.973,0.072,0.244,0.183,0.427,380.318
142487,156922,12606,0.04,-0.974,0.073,0.915,0.366,0.366,380.322
142487,156888,13250,0.04,-0.977,0.073,0.915,0.366,0.366,380.328
142499,156922,12606,0.039,-0.976,0.078,1.463,0.732,0.305,380.332
142499,156887,13265,0.037,-0.969,0.084,1.463,0.732,0.305,380.338
142521,156922,12606,0.038,-0.963,0.086,1.646,0.732,0.244,380.342
142521,156883,13268,0.042,-0.961,0.083,1.646,0.732,0.244,380.348
142539,156922,12606,0.037,-0.958,0.083,0.671,0.549,0,380.352
142539,156890,13270,0.036,-0.953,0.082,0.671,0.549,0,380.358
142528,156922,12606,0.042,-0.951,0.08,-0.488,0.488,-0.244,380.361
142528,156920,13285,0.041,-0.949,0.08,-0.488,0.488,-0.244,380.368
142587,157178,12606,0.04,-0.947,0.078,-0.915,0.366,-0.183,380.371
142587,156928,13268,0.043,-0.951,0.078,-0.915,0.366,-0.183,380.377
142585,157178,12606,0.044,-0.955,0.08,-0.976,0.122,-0.061,380.381
142585,156965,13271,0.048,-0.955,0.079,-0.976,0.122,-0.061,380.387
142579,157178,12606,0.045,-0.951,0.077,-0.793,0.061,0.061,380.391
142579,156943,13278,0.042,-0.948,0.078,-0.793,0.061,0.061,380.397
142583,157178,12606,0.04,-0.951,0.079,-0.915,0.122,0.366,380.401
142583,156959,13261,0.044,-0.958,0.077,-0.915,0.122,0.366,380.407
142572,156922,12606,0.044,-0.962,0.068,-1.524,0.122,0.549,380.411
142572,156926,13252,0.042,-0.965,0.062,-1.524,0.122,0.549,380.417
142526,157178,12606,0.04,-0.967,0.062,-1.768,0.366,0.793,380.421
142526,156928,13263,0.036,-0.97,0.055,-1.768,0.366,0.793,380.427
142490,156922,12606,0.033,-0.973,0.057,-0.366,0.549,0.976,380.431
142490,156892,13282,0.033,-0.976,0.059,-0.366,0.549,0.976,380.437
142495,156922,12606,0.034,-0.978,0.066,1.524,0.61,0.854,380.441
142495,156849,13251,0.039,-0.973,0.075,1.524,0.61,0.854,380.447
142428,156922,12606,0.037,-0.97,0.081,2.866,0.427,0.793,380.451
142428,156832,13241,0.036,-0.962,0.083,2.866,0.427,0.793,380.457
142405,156922,12606,0.039,-0.958,0.084,2.805,0.671,0.488,380.46
142405,156812,13243,0.039,-0.961,0.09,2.805,0.671,0.488,380.467
142400,156922,12606,0.041,-0.961,0.09,1.829,0.976,0.183,380.47
142400,156794,13260,0.042,-0.957,0.088,1.829,0.976,0.183,380.477
142418,156922,12606,0.042,-0.957,0.088,1.829,0.976,0.183,380.48
142418,156795,13231,0.039,-0.952,0.09,0.549,0.854,-0.061,380.486
142409,156922,12606,0.039,-0.952,0.09,0.549,0.854,-0.061,380.49
142409,156834,13247,0.043,-0.95,0.083,-0.305,0.488,-0.061,380.496
142431,156922,12606,0.043,-0.95,0.083,-0.305,0.488,-0.061,380.5
142431,156836,13257,0.041,-0.958,0.08,-1.341,0.244,0.061,380.506
142440,156922,12606,0.041,-0.958,0.08,-1.341,0.244,0.061,380.51
142440,156828,13231,0.043,-0.963,0.071,-1.951,0.183,-0.122,380.516
142459,156922,12606,0.043,-0.963,0.071,-1.951,0.183,-0.122,380.52
142459,156849,13233,0.043,-0.963,0.069,-1.768,0.305,-0.061,380.526
142462,156922,12606,0.043,-0.963,0.069,-1.768,0.305,-0.061,380.53
142462,156854,13241,0.043,-0.966,0.069,-0.732,0.488,0.183,380.536
142427,156922,12606,0.043,-0.966,0.069,-0.732,0.488,0.183,380.54
142427,156866,13258,0.04,-0.965,0.072,0.244,0.732,0.61,380.546
142433,156922,12606,0.04,-0.965,0.072,0.244,0.732,0.61,380.549
142433,156824,13251,0.041,-0.963,0.077,1.159,0.915,0.854,380.556
142412,156922,12606,0.041,-0.963,0.077,1.159,0.915,0.854,380.559
142412,156808,13246,0.038,-0.957,0.082,1.402,0.854,0.854,380.566
142403,156922,12606,0.038,-0.957,0.082,1.402,0.854,0.854,380.569
142403,156804,13248,0.035,-0.956,0.085,0.915,1.037,0.854,380.575
142373,156922,12606,0.035,-0.956,0.085,0.915,1.037,0.854,380.579
142373,156765,13248,0.033,-0.957,0.082,0.061,0.915,0.732,380.585
142394,156922,12606,0.033,-0.957,0.082,0.061,0.915,0.732,380.589
142394,156781,13246,0.036,-0.959,0.081,-0.671,0.488,0.61,380.595
142382,156922,12606,0.036,-0.959,0.081,-0.671,0.488,0.61,380.599
142382,156770,13255,0.034,-0.951,0.086,-0.915,-0.061,0.427,380.605
142401,156922,12606,0.034,-0.951,0.086,-0.915,-0.061,0.427,380.609
142401,156803,13248,0.035,-0.964,0.08,-1.707,-0.305,0.305,380.615
142424,156922,12606,0.035,-0.964,0.08,-1.707,-0.305,0.305,380.619
142424,156807,13237,0.04,-0.963,0.075,-2.439,-0.732,0,380.625
142412,156922,12606,0.04,-0.963,0.075,-2.439,-0.732,0,380.629
142412,156841,13236,0.037,-0.964,0.073,-2.317,-0.976,-0.183,380.635
142414,156922,12606,0.038,-0.964,0.073,-2.317,-0.976,-0.183,380.639
142414,156850,13248,0.039,-0.964,0.068,-1.768,-0.671,-0.244,380.645
142430,156922,12606,0.043,-0.963,0.068,-1.768,-0.671,-0.244,380.649
142430,156854,13248,0.043,-0.962,0.068,-1.159,-0.488,-0.122,380.655
142414,156922,12606,0.045,-0.966,0.065,-1.159,-0.488,-0.122,380.658
142414,156821,13236,0.046,-0.966,0.064,-0.244,-0.122,0,380.665
142418,156922,12606,0.041,-0.966,0.065,-0.244,-0.122,0,380.668
142418,156815,13230,0.037,-0.966,0.068,0.61,0.427,0,380.674
142404,156922,12606,0.039,-0.966,0.079,0.61,0.427,0,380.678
142404,156811,13242,0.038,-0.962,0.081,1.098,0.488,0.061,380.684
142386,156922,12606,0.039,-0.955,0.082,1.098,0.488,0.061,380.688
142386,156784,13246,0.04,-0.955,0.085,0.671,0.305,-0.061,380.694
142381,156922,12606,0.039,-0.952,0.092,0.671,0.305,-0.061,380.698
142381,156801,13224,0.04,-0.947,0.089,-0.427,0.122,-0.061,380.704
142366,156922,12606,0.04,-0.952,0.086,-0.427,0.122,-0.061,380.708
142366,156780,13227,0.042,-0.958,0.082,-2.134,0.183,-0.305,380.714
142383,156922,12606,0.042,-0.958,0.078,-2.134,0.183,-0.305,380.718
142383,156767,13233,0.044,-0.963,0.076,-3.11,0.122,-0.244,380.724
142383,156922,12606,0.044,-0.966,0.071,-3.11,0.122,-0.244,380.728
142383,156785,13237,0.041,-0.967,0.074,-2.866,0.183,-0.122,380.734
142411,156922,12606,0.042,-0.963,0.07,-2.866,0.183,-0.122,380.738
142411,156772,13237,0.044,-0.958,0.07,-2.317,0.122,0.183,380.744
142388,156922,12606,0.043,-0.957,0.07,-2.317,0.122,0.183,380.748
142388,156792,13252,0.041,-0.954,0.063,-2.012,0.244,0.305,380.754
142401,156922,12606,0.039,-0.955,0.069,-2.012,0.244,0.305,380.757
142401,156817,13243,0.039,-0.958,0.073,-1.341,0.427,0.427,380.764
142411,156922,12606,0.042,-0.958,0.074,-1.341,0.427,0.427,380.767
142411,156809,13234,0.041,-0.954,0.071,-1.098,0.244,0.488,380.774
142403,156922,12606,0.04,-0.957,0.072,-1.098,0.244,0.488,380.777
142403,156798,13245,0.042,-0.963,0.07,-0.915,0.366,0.305,380.783
142392,156922,12606,0.04,-0.967,0.066,-0.915,0.366,0.305,380.787
142392,156818,13236,0.045,-0.967,0.064,-0.122,0.732,0.244,380.793
142376,156922,12606,0.044,-0.967,0.064,-0.122,0.732,0.244,380.797
142376,156787,13243,0.044,-0.969,0.067,0.549,1.159,0.366,380.803
142380,156922,12606,0.045,-0.97,0.067,0.549,1.159,0.366,380.807
142380,156819,13220,0.043,-0.967,0.068,1.28,1.28,0.488,380.813
142385,156922,12606,0.04,-0.966,0.07,1.28,1.28,0.488,380.817
142385,156788,13225,0.04,-0.967,0.073,1.829,1.28,0.549,380.823
142402,156922,12606,0.041,-0.965,0.068,1.829,1.28,0.549,380.827
142402,156805,13215,0.039,-0.961,0.076,2.195,1.585,0.549,380.833
142404,156922,12606,0.04,-0.957,0.08,2.195,1.585,0.549,380.837
142404,156804,13219,0.036,-0.948,0.075,2.317,1.402,0.549,380.843
142400,156922,12606,0.037,-0.95,0.075,2.317,1.402,0.549,380.847
142400,156829,13235,0.036,-0.951,0.075,1.89,0.976,0.61,380.853
142395,156922,12606,0.036,-0.954,0.077,1.89,0.976,0.61,380.856
142395,156797,13248,0.036,-0.956,0.078,1.585,0.671,0.488,380.863
142392,156922,12606,0.036,-0.955,0.079,1.585,0.671,0.488,380.866
142392,156828,13223,0.039,-0.958,0.082,1.463,0.549,0.183,380.872
142372,156922,12606,0.039,-0.957,0.085,1.463,0.549,0.183,380.876
142372,156817,13235,0.041,-0.959,0.082,0.793,0.366,0.122,380.882
142359,156922,12606,0.039,-0.961,0.08,0.793,0.366,0.122,380.886
142359,156791,13252,0.04,-0.962,0.079,0.427,0.244,0.061,380.892
142352,156922,12606,0.04,-0.964,0.077,0.427,0.244,0.061,380.896
142352,156780,13216,0.042,-0.96,0.08,0.183,0.305,0.061,380.902
142315,156922,12606,0.04,-0.961,0.075,0.183,0.305,0.061,380.906
142315,156761,13230,0.039,-0.966,0.083,-0.427,0.122,0.122,380.912
142298,156922,12606,0.041,-0.971,0.085,-0.427,0.122,0.122,380.916
142298,156699,13207,0.041,-0.966,0.08,-1.037,-0.061,0.061,380.922
142274,156922,12606,0.042,-0.963,0.073,-1.037,-0.061,0.061,380.926
142274,156700,13221,0.039,-0.962,0.074,-1.646,-0.061,0,380.932
142267,156922,12606,0.039,-0.959,0.078,-1.646,-0.061,0,380.936
142267,156707,13224,0.043,-0.955,0.076,-1.768,-0.305,-0.183,380.942
142259,156922,12606,0.044,-0.958,0.07,-1.768,-0.305,-0.183,380.946
142259,156678,13203,0.042,-0.958,0.072,-1.463,-0.305,-0.183,380.952
142248,156922,12606,0.043,-0.961,0.07,-1.463,-0.305,-0.183,380.955
142248,156698,13224,0.04,-0.961,0.069,-0.854,0.183,-0.061,380.962
142260,156922,12606,0.036,-0.957,0.068,-0.854,0.183,-0.061,380.965
142260,156676,13235,0.041,-0.956,0.07,-0.366,0.244,0.061,380.972
142246,156922,12606,0.046,-0.956,0.073,-0.366,0.244,0.061,380.975
142246,156691,13216,0.046,-0.957,0.068,0.183,0.244,0.122,380.981
142254,156922,12606,0.044,-0.96,0.071,0.183,0.244,0.122,380.985
142254,156695,13212,0.044,-0.962,0.073,0.671,0.732,0.305,380.991
142245,156922,12606,0.041,-0.964,0.073,0.671,0.732,0.305,380.995
142245,156684,13216,0.041,-0.964,0.074,0.732,0.915,0.61,381.001
142246,156922,12606,0.042,-0.964,0.077,0.732,0.915,0.61,381.005
142246,156694,13218,0.042,-0.965,0.077,0.854,0.976,0.793,381.011
142238,156666,12606,0.039,-0.968,0.072,0.854,0.976,0.793,381.015
142238,156662,13215,0.041,-0.967,0.072,1.037,1.159,0.793,381.021
142253,156666,12606,0.04,-0.965,0.073,1.037,1.159,0.793,381.025
142253,156650,13204,0.037,-0.967,0.073,1.585,1.341,0.732,381.031
142230,156922,12606,0.038,-0.961,0.075,1.585,1.341,0.732,381.035
142230,156677,13204,0.037,-0.957,0.077,2.256,1.341,0.732,381.041
142224,156666,12606,0.037,-0.957,0.076,2.256,1.341,0.732,381.045
142224,156660,13218,0.037,-0.955,0.077,2.622,1.463,0.549,381.051
142212,156666,12606,0.038,-0.959,0.083,2.622,1.463,0.549,381.054
142212,156654,13200,0.037,-0.957,0.082,2.5,1.28,0.366,381.061
142204,156666,12606,0.036,-0.95,0.082,2.5,1.28,0.366,381.064
142204,156655,13195,0.038,-0.953,0.083,2.012,0.915,0.305,381.071
142190,156666,12606,0.038,-0.953,0.083,2.012,0.915,0.305,381.074
142190,156668,13215,0.043,-0.953,0.087,1.463,0.61,0.183,381.08
142239,156666,12606,0.043,-0.953,0.087,1.463,0.61,0.183,381.084
142239,156651,13211,0.036,-0.957,0.083,0.427,0.427,0.122,381.09
142262,156922,12606,0.036,-0.957,0.083,0.427,0.427,0.122,381.094
142262,156687,13192,0.042,-0.965,0.078,-0.793,-0.061,0.244,381.1
142288,156922,12606,0.042,-0.965,0.078,-0.793,-0.061,0.244,381.104
142288,156732,13196,0.043,-0.956,0.083,-1.585,-0.305,0.305,381.11
142322,156922,12606,0.043,-0.956,0.083,-1.585,-0.305,0.305,381.114
142322,156730,13226,0.04,-0.955,0.079,-2.073,-0.305,0.366,381.12
142349,156922,12606,0.04,-0.955,0.079,-2.073,-0.305,0.366,381.124
142349,156780,13229,0.039,-0.962,0.073,-2.378,-0.183,0.366,381.13
142360,156922,12606,0.039,-0.962,0.073,-2.378,-0.183,0.366,381.134
142360,156788,13223,0.039,-0.962,0.076,-2.195,-0.244,0.305,381.14
142375,156922,12606,0.039,-0.962,0.076,-2.195,-0.244,0.305,381.144
142375,156793,13211,0.037,-0.961,0.07,-1.768,-0.183,0.305,381.15
142362,156922,12606,0.037,-0.961,0.07,-1.768,-0.183,0.305,381.153
142362,156769,13228,0.04,-0.965,0.07,-1.341,-0.122,0.122,381.16
142362,156922,12606,0.04,-0.965,0.07,-1.341,-0.122,0.122,381.163
142362,156781,13208,0.039,-0.963,0.068,-0.549,-0.061,0,381.17
142355,156922,12606,0.039,-0.963,0.068,-0.549,-0.061,0,381.173
142355,156790,13219,0.038,-0.961,0.076,0.244,0.061,0.061,381.179
142348,156922,12606,0.038,-0.961,0.076,0.244,0.061,0.061,381.183
142348,156787,13210,0.042,-0.963,0.074,0.61,0.183,-0.183,381.189
142346,156922,12606,0.042,-0.963,0.074,0.61,0.183,-0.183,381.193
142346,156760,13217,0.044,-0.964,0.083,0.244,0.183,-0.183,381.199
142342,156922,12606,0.044,-0.964,0.083,0.244,0.183,-0.183,381.203
142342,156758,13208,0.043,-0.958,0.086,-0.61,0.244,-0.061,381.209
142325,156922,12606,0.043,-0.958,0.086,-0.61,0.244,-0.061,381.213
142325,156738,13216,0.044,-0.957,0.08,-1.585,0.366,-0.183,381.219
142332,156922,12606,0.044,-0.957,0.08,-1.585,0.366,-0.183,381.223
142332,156738,13198,0.045,-0.958,0.079,-1.585,0.366,-0.183,381.229
142311,156922,12606,0.045,-0.96,0.08,-2.378,0.305,0,381.233
142311,156753,13199,0.042,-0.96,0.073,-2.378,0.305,0,381.239
142294,156922,12606,0.042,-0.961,0.077,-2.256,0.366,0.366,381.243
142294,156726,13218,0.04,-0.962,0.072,-2.256,0.366,0.366,381.249
142288,156922,12606,0.042,-0.958,0.07,-1.646,0.366,0.488,381.252
142288,156753,13213,0.044,-0.958,0.067,-1.646,0.366,0.488,381.259
142309,156922,12606,0.043,-0.959,0.069,-0.793,0.366,0.549,381.262
142309,156718,13202,0.042,-0.96,0.073,-0.793,0.366,0.549,381.269
142328,156922,12606,0.04,-0.961,0.071,0.122,0.427,0.732,381.272
142328,156754,13198,0.042,-0.963,0.069,0.122,0.427,0.732,381.278
142296,156922,12606,0.041,-0.965,0.072,0.793,0.427,0.732,381.282
142296,156757,13219,0.04,-0.966,0.071,0.793,0.427,0.732,381.288
142320,156922,12606,0.041,-0.962,0.072,0.915,0.366,0.793,381.292
142320,156747,13216,0.039,-0.962,0.075,0.915,0.366,0.793,381.298
142321,156922,12606,0.039,-0.96,0.081,0.976,0.427,0.732,381.302
142321,156761,13226,0.038,-0.957,0.081,0.976,0.427,0.732,381.308
142347,156922,12606,0.038,-0.955,0.079,0.488,0.122,0.671,381.312
142347,156790,13200,0.04,-0.955,0.077,0.488,0.122,0.671,381.318
142363,156922,12606,0.041,-0.961,0.074,-0.488,0,0.488,381.322
142363,156801,13200,0.041,-0.958,0.078,-0.488,0,0.488,381.328
142368,156922,12606,0.037,-0.958,0.081,-0.549,0.122,0.366,381.332
142368,156796,13216,0.036,-0.953,0.084,-0.549,0.122,0.366,381.338
142374,156922,12606,0.039,-0.95,0.083,-0.671,-0.061,0.488,381.342
142374,156822,13216,0.036,-0.947,0.074,-0.671,-0.061,0.488,381.348
142375,156922,12606,0.035,-0.951,0.076,-1.159,-0.183,0.549,381.352
142375,156816,13217,0.037,-0.957,0.075,-1.159,-0.183,0.549,381.358
142381,156922,12606,0.038,-0.964,0.072,-1.28,-0.122,0.244,381.361
142381,156819,13215,0.038,-0.963,0.07,-1.28,-0.122,0.244,381.368
142383,156922,12606,0.042,-0.967,0.069,-1.037,-0.061,0.122,381.371
142383,156785,13219,0.042,-0.967,0.071,-1.037,-0.061,0.122,381.377
142367,156922,12606,0.042,-0.966,0.075,-0.549,-0.183,0.183,381.381
142367,156811,13212,0.042,-0.967,0.074,-0.549,-0.183,0.183,381.387
142338,156922,12606,0.042,-0.97,0.072,-0.122,-0.061,0.244,381.391
142338,156795,13210,0.042,-0.969,0.074,-0.122,-0.061,0.244,381.397
142282,156922,12606,0.041,-0.969,0.073,0.061,0.183,0.183,381.401
142282,156749,13207,0.041,-0.969,0.071,0.061,0.183,0.183,381.407
142280,156922,12606,0.042,-0.967,0.071,-0.061,0.427,0.122,381.411
142280,156733,13194,0.041,-0.964,0.072,-0.061,0.427,0.122,381.417
142279,156922,12606,0.042,-0.966,0.073,0.061,0.488,0.183,381.421
142279,156707,13195,0.044,-0.962,0.077,0.061,0.488,0.183,381.427
142247,156922,12606,0.044,-0.956,0.073,0.244,0.488,0.366,381.431
142247,156713,13181,0.043,-0.951,0.074,0.244,0.488,0.366,381.437
142226,156922,12606,0.044,-0.955,0.074,0.549,0.671,0.61,381.441
142226,156695,13192,0.041,-0.957,0.074,0.549,0.671,0.61,381.447
142224,156922,12606,0.043,-0.958,0.079,0.61,0.793,0.488,381.45
142224,156689,13198,0.043,-0.956,0.079,0.61,0.793,0.488,381.457
142218,156922,12606,0.043,-0.955,0.077,0.488,0.549,0.671,381.46
142218,156703,13202,0.042,-0.958,0.076,0.488,0.549,0.671,381.467
142257,156922,12606,0.041,-0.959,0.074,0.244,0.671,0.671,381.47
142257,156725,13196,0.043,-0.965,0.077,0.244,0.671,0.671,381.476
142248,156922,12606,0.044,-0.971,0.073,0.488,0.976,0.488,381.48
142248,156736,13204,0.042,-0.971,0.069,0.488,0.976,0.488,381.486
142256,156922,12606,0.042,-0.968,0.072,0.854,1.098,0.61,381.49
142256,156723,13202,0.043,-0.965,0.072,0.854,1.098,0.61,381.496
142242,156922,12606,0.04,-0.962,0.074,1.159,1.28,0.854,381.5
142242,156717,13196,0.042,-0.964,0.077,1.159,1.28,0.854,381.506
142251,156922,12606,0.041,-0.965,0.077,1.524,1.524,0.976,381.51
142251,156696,13185,0.04,-0.965,0.076,1.524,1.524,0.976,381.516
142239,156922,12606,0.04,-0.965,0.071,1.768,1.951,0.854,381.52
142239,156709,13196,0.036,-0.96,0.07,1.768,1.951,0.854,381.526
142215,156922,12606,0.035,-0.958,0.073,2.073,2.012,0.915,381.53
142215,156689,13196,0.034,-0.956,0.086,2.073,2.012,0.915,381.536
142243,156922,12606,0.036,-0.955,0.088,2.561,1.707,0.915,381.54
142243,156687,13195,0.043,-0.952,0.084,2.561,1.707,0.915,381.546
142198,156922,12606,0.045,-0.954,0.088,1.646,1.098,0.854,381.549
142198,156691,13204,0.041,-0.955,0.091,1.646,1.098,0.854,381.556
142208,156666,12606,0.042,-0.956,0.087,0.61,1.159,0.793,381.559
142208,156661,13196,0.041,-0.953,0.082,0.61,1.159,0.793,381.566
142211,156922,12606,0.042,-0.953,0.083,-0.183,1.22,0.915,381.569
142211,156679,13189,0.042,-0.955,0.085,-0.183,1.22,0.915,381.575
142180,156666,12606,0.043,-0.956,0.085,-0.488,1.159,0.793,381.579
142180,156656,13202,0.045,-0.958,0.081,-0.488,1.159,0.793,381.585
142187,156922,12606,0.046,-0.959,0.079,-0.61,1.037,1.098,381.589
142187,156675,13193,0.039,-0.96,0.082,-0.61,1.037,1.098,381.595
142212,156922,12606,0.035,-0.962,0.084,-0.488,1.159,1.341,381.599
142212,156708,13181,0.035,-0.96,0.081,-0.488,1.159,1.341,381.605
142185,156922,12606,0.039,-0.961,0.078,-1.037,0.793,1.341,381.609
142185,156672,13197,0.038,-0.967,0.075,-1.037,0.793,1.341,381.615
142205,156666,12606,0.037,-0.968,0.073,-1.22,0.61,1.28,381.619
142205,156649,13178,0.036,-0.962,0.07,-1.22,0.61,1.28,381.625
142178,156666,12606,0.034,-0.958,0.074,-0.915,0.549,1.28,381.629
142178,156654,13199,0.033,-0.959,0.078,-0.915,0.549,1.28,381.635
142154,156666,12606,0.033,-0.96,0.079,-0.732,0.305,1.22,381.639
142154,156636,13178,0.035,-0.959,0.074,-0.732,0.305,1.22,381.645
142158,156666,12606,0.036,-0.963,0.073,-1.037,0.244,0.976,381.649
142158,156615,13189,0.035,-0.967,0.074,-1.037,0.244,0.976,381.655
142137,156666,12606,0.034,-0.97,0.073,-0.915,0.488,0.732,381.658
142137,156603,13180,0.034,-0.969,0.073,-0.915,0.488,0.732,381.665
142112,156666,12606,0.036,-0.967,0.074,-0.427,0.427,0.427,381.668
142112,156597,13181,0.037,-0.961,0.075,-0.427,0.427,0.427,381.674
142124,156666,12606,0.037,-0.961,0.075,-0.427,0.427,0.427,381.678
142124,156586,13181,0.037,-0.954,0.082,0.061,0.244,0.122,381.684
142122,156666,12606,0.037,-0.954,0.082,0.061,0.244,0.122,381.688
142122,156577,13166,0.038,-0.957,0.079,0.305,0.305,-0.061,381.694
142126,156666,12606,0.038,-0.957,0.079,0.305,0.305,-0.061,381.698
142126,156596,13169,0.037,-0.96,0.08,0.61,0.305,-0.061,381.704
142129,156666,12606,0.037,-0.96,0.08,0.61,0.305,-0.061,381.708
142129,156641,13188,0.041,-0.957,0.085,0.488,0.122,-0.061,381.714
142134,156666,12606,0.041,-0.957,0.085,0.488,0.122,-0.061,381.718
142134,156617,13183,0.042,-0.954,0.077,-0.366,-0.061,0,381.724
142128,156666,12606,0.042,-0.954,0.077,-0.366,-0.061,0,381.728
142128,156631,13190,0.043,-0.961,0.072,-0.915,-0.061,0.061,381.734
142133,156666,12606,0.043,-0.961,0.072,-0.915,-0.061,0.061,381.738
142133,156626,13175,0.042,-0.964,0.074,-0.854,0.122,0.122,381.744
142143,156666,12606,0.042,-0.964,0.074,-0.854,0.122,0.122,381.748
142143,156634,13172,0.042,-0.963,0.075,-0.61,0.244,0.366,381.754
142161,156666,12606,0.042,-0.963,0.075,-0.61,0.244,0.366,381.757
142161,156643,13180,0.039,-0.964,0.076,-0.183,0.183,0.671,381.764
142160,156666,12606,0.039,-0.964,0.076,-0.183,0.183,0.671,381.767
142160,156670,13176,0.036,-0.966,0.081,-0.061,0.244,0.854,381.774
142165,156666,12606,0.036,-0.966,0.081,-0.061,0.244,0.854,381.777
142165,156644,13169,0.035,-0.96,0.08,-0.183,0.183,0.854,381.783
142211,156666,12606,0.035,-0.96,0.08,-0.183,0.183,0.854,381.787
142211,156661,13179,0.036,-0.958,0.076,-0.244,0.183,0.671,381.793
142208,156922,12606,0.036,-0.958,0.076,-0.244,0.183,0.671,381.797
142208,156708,13196,0.038,-0.954,0.074,-0.427,0.305,0.549,381.803
142261,156922,12606,0.038,-0.954,0.074,-0.427,0.305,0.549,381.807
142261,156733,13179,0.041,-0.963,0.072,-0.305,0.488,0.488,381.813
142283,156922,12606,0.041,-0.963,0.072,-0.305,0.488,0.488,381.817
142283,156754,13205,0.042,-0.958,0.075,0.549,0.732,0.427,381.823
142308,156922,12606,0.041,-0.955,0.074,0.549,0.732,0.427,381.827
142308,156793,13208,0.039,-0.954,0.076,1.098,0.61,0.732,381.833
142319,156922,12606,0.038,-0.954,0.08,1.098,0.61,0.732,381.837
142319,156787,13207,0.042,-0.955,0.084,1.159,0.366,0.915,381.843
142345,156922,12606,0.041,-0.953,0.082,1.159,0.366,0.915,381.847
142345,156812,13209,0.039,-0.959,0.074,0.793,0.549,0.732,381.853
142342,156922,12606,0.037,-0.963,0.077,0.793,0.549,0.732,381.856
142342,156800,13204,0.038,-0.965,0.079,0.732,0.671,0.732,381.863
142306,156922,12606,0.039,-0.967,0.079,0.732,0.671,0.732,381.866
142306,156801,13204,0.043,-0.966,0.073,0.915,0.671,0.854,381.873
142303,156922,12606,0.039,-0.967,0.072,0.915,0.671,0.854,381.876
142303,156769,13201,0.037,-0.967,0.076,1.159,0.976,0.915,381.882
142314,156922,12606,0.034,-0.966,0.073,1.159,0.976,0.915,381.886
142314,156739,13177,0.036,-0.962,0.07,1.707,1.159,1.037,381.892
142261,156922,12606,0.04,-0.961,0.074,1.707,1.159,1.037,381.896
142261,156744,13181,0.039,-0.961,0.075,2.5,1.098,0.915,381.902
142255,156922,12606,0.037,-0.956,0.079,2.5,1.098,0.915,381.906
142255,156718,13182,0.038,-0.952,0.081,2.927,0.976,0.793,381.912
142220,156922,12606,0.038,-0.951,0.084,2.927,0.976,0.793,381.916
142220,156699,13182,0.041,-0.954,0.086,2.378,0.793,0.915,381.922
142199,156922,12606,0.037,-0.956,0.085,2.378,0.793,0.915,381.926
142199,156690,13188,0.036,-0.962,0.085,1.524,0.671,0.854,381.932
142193,156922,12606,0.039,-0.963,0.086,1.524,0.671,0.854,381.936
142193,156694,13196,0.037,-0.962,0.087,1.159,0.671,0.854,381.942
142231,156922,12606,0.037,-0.964,0.09,1.159,0.671,0.854,381.946
142231,156688,13183,0.034,-0.961,0.088,0.488,0.549,0.915,381.952
142225,156922,12606,0.036,-0.959,0.089,0.488,0.549,0.915,381.955
142225,156698,13180,0.037,-0.959,0.09,-0.122,0.305,0.854,381.962
142238,156922,12606,0.037,-0.96,0.084,-0.122,0.305,0.854,381.965
142238,156713,13183,0.036,-0.958,0.082,-0.488,0.305,0.793,381.972
142249,156922,12606,0.035,-0.955,0.082,-0.488,0.305,0.793,381.975
142249,156721,13179,0.032,-0.956,0.081,-0.793,0.183,0.671,381.981
142275,156922,12606,0.036,-0.959,0.08,-0.793,0.183,0.671,381.985
142275,156723,13187,0.035,-0.963,0.085,-1.037,0.122,0.488,381.991
142247,156922,12606,0.038,-0.963,0.082,-1.037,0.122,0.488,381.995
142247,156731,13181,0.04,-0.968,0.079,-1.159,0.122,0.244,382.001
142241,156922,12606,0.039,-0.966,0.078,-1.159,0.122,0.244,382.005
142241,156737,13192,0.038,-0.97,0.074,-1.037,0.122,0.244,382.011
142258,156922,12606,0.04,-0.97,0.071,-1.037,0.122,0.244,382.015
142258,156707,13183,0.041,-0.964,0.071,-0.549,0.244,0.244,382.021
142256,156922,12606,0.039,-0.964,0.072,-0.549,0.244,0.244,382.025
142256,156756,13190,0.038,-0.962,0.078,0.366,0.366,0.427,382.031
142265,156922,12606,0.04,-0.957,0.082,0.366,0.366,0.427,382.035
142265,156746,13174,0.039,-0.95,0.086,0.915,0.366,0.732,382.041
142266,156922,12606,0.037,-0.947,0.088,0.915,0.366,0.732,382.045
142266,156767,13185,0.038,-0.95,0.089,0.183,0.244,0.793,382.051
142260,156922,12606,0.035,-0.954,0.087,0.183,0.244,0.793,382.054
142260,156782,13196,0.039,-0.957,0.086,-0.732,0.061,0.671,382.061
142311,156922,12606,0.037,-0.955,0.084,-0.732,0.061,0.671,382.064
142311,156772,13197,0.037,-0.96,0.082,-1.28,0.183,0.671,382.071
142304,156922,12606,0.039,-0.957,0.078,-1.28,0.183,0.671,382.074
142304,156807,13202,0.036,-0.959,0.085,-1.402,0.183,0.671,382.08
142317,156922,12606,0.037,-0.961,0.083,-1.402,0.183,0.671,382.084
142317,156811,13197,0.039,-0.959,0.076,-1.402,0.183,0.793,382.09
142332,156922,12606,0.043,-0.962,0.073,-1.402,0.183,0.793,382.094
142332,156815,13170,0.034,-0.964,0.073,-1.341,0.427,0.915,382.1
142321,156922,12606,0.032,-0.971,0.074,-1.341,0.427,0.915,382.104
142321,156823,13211,0.03,-0.971,0.073,-0.732,0.549,0.854,382.11
142330,156922,12606,0.033,-0.967,0.076,-0.732,0.549,0.854,382.114
142330,156825,13213,0.038,-0.965,0.08,-0.183,0.305,0.366,382.12
142315,156922,12606,0.038,-0.96,0.078,-0.183,0.305,0.366,382.124
142315,156800,13197,0.036,-0.961,0.079,0.061,0.366,0.305,382.13
142331,156922,12606,0.033,-0.966,0.077,0.061,0.366,0.305,382.134
142331,156816,13183,0.031,-0.961,0.083,0.305,0.427,0.305,382.14
142340,156922,12606,0.037,-0.958,0.077,0.305,0.427,0.305,382.144
142340,156820,13200,0.039,-0.958,0.08,-0.122,0.244,0.183,382.15
142353,156922,12606,0.036,-0.962,0.079,-0.122,0.244,0.183,382.154
142353,156850,13200,0.034,-0.961,0.08,0.122,0.427,0.122,382.16
142362,156922,12606,0.033,-0.961,0.083,0.122,0.427,0.122,382.163
142362,156875,13199,0.036,-0.96,0.077,0.122,0.366,0.244,382.17
142419,156922,12606,0.037,-0.962,0.077,0.122,0.366,0.244,382.173
142419,156876,13211,0.039,-0.959,0.079,0.061,0.122,0.183,382.179
142407,156922,12606,0.038,-0.956,0.083,0.061,0.122,0.183,382.183
142407,156914,13226,0.036,-0.953,0.078,0.244,0.305,0.305,382.189
142446,156922,12606,0.039,-0.952,0.08,0.244,0.305,0.305,382.193
142446,156926,13216,0.04,-0.956,0.083,0.183,0.244,0.427,382.199
142469,157178,12606,0.036,-0.961,0.083,0.183,0.244,0.427,382.203
142469,156941,13237,0.039,-0.965,0.084,0.122,0.427,0.366,382.209
142506,157178,12606,0.038,-0.966,0.083,0.122,0.427,0.366,382.213
142506,156974,13220,0.04,-0.967,0.085,-0.061,0.244,0.366,382.219
142528,157178,12606,0.043,-0.96,0.087,-0.061,0.244,0.366,382.223
142528,156968,13240,0.036,-0.96,0.087,-0.915,0.366,0.488,382.229
142496,157178,12606,0.037,-0.962,0.078,-0.915,0.366,0.488,382.233
142496,156985,13240,0.037,-0.961,0.078,-1.28,0.61,0.366,382.239
142491,157178,12606,0.036,-0.958,0.081,-1.28,0.61,0.366,382.243
142491,156982,13228,0.036,-0.954,0.081,-1.22,0.488,0.305,382.249
142501,157178,12606,0.034,-0.95,0.078,-1.22,0.488,0.305,382.252
142501,156963,13222,0.035,-0.952,0.077,-1.22,0.244,0.305,382.259
142485,157178,12606,0.036,-0.954,0.078,-1.22,0.244,0.305,382.262
142485,156968,13220,0.037,-0.958,0.079,-1.28,0.244,0.183,382.269
142458,157178,12606,0.037,-0.958,0.079,-1.28,0.244,0.183,382.272
142458,156958,13239,0.037,-0.961,0.076,-1.341,0.061,0.183,382.278
142456,157178,12606,0.037,-0.961,0.076,-1.341,0.061,0.183,382.282
142456,156956,13233,0.036,-0.964,0.072,-1.159,0,0.244,382.288
142495,157178,12606,0.036,-0.964,0.072,-1.159,0,0.244,382.292
142495,156972,13233,0.04,-0.96,0.079,-0.549,0,0.244,382.298
142528,157178,12606,0.04,-0.96,0.079,-0.549,0,0.244,382.302
142528,156979,13222,0.042,-0.963,0.069,-0.061,0.244,0.488,382.308
142518,157178,12606,0.042,-0.963,0.069,-0.061,0.244,0.488,382.312
142518,156990,13227,0.039,-0.97,0.07,0.854,0.61,0.61,382.318
142533,157178,12606,0.039,-0.97,0.07,0.854,0.61,0.61,382.322
142533,157004,13223,0.037,-0.97,0.078,1.951,0.671,0.793,382.328
142538,157178,12606,0.037,-0.97,0.078,1.951,0.671,0.793,382.332
142538,157016,13239,0.038,-0.96,0.079,2.195,0.732,0.915,382.338
142533,157178,12606,0.038,-0.96,0.079,2.195,0.732,0.915,382.342
142533,156983,13236,0.036,-0.953,0.082,2.073,0.854,0.915,382.348
142529,157178,12606,0.036,-0.953,0.082,2.073,0.854,0.915,382.352
142529,156983,13238,0.034,-0.954,0.084,1.707,0.671,0.793,382.358
142525,157178,12606,0.034,-0.954,0.084,1.707,0.671,0.793,382.361
142525,156998,13235,0.036,-0.956,0.085,1.402,0.427,0.61,382.368
142509,157178,12606,0.036,-0.956,0.085,1.402,0.427,0.61,382.371
142509,157015,13255,0.034,-0.953,0.086,0.793,0.366,0.61,382.377
142523,157178,12606,0.034,-0.953,0.086,0.793,0.366,0.61,382.381
142523,156987,13233,0.036,-0.96,0.087,0.183,0.366,0.427,382.387
142527,157178,12606,0.036,-0.96,0.087,0.183,0.366,0.427,382.391
142527,157016,13234,0.038,-0.964,0.077,-0.061,0.366,0.305,382.397
142552,157178,12606,0.038,-0.964,0.077,-0.061,0.366,0.305,382.401
142552,157029,13246,0.037,-0.963,0.077,-0.061,0.366,0.305,382.407
142556,157178,12606,0.037,-0.963,0.077,-0.061,0.366,0.305,382.411
142556,156999,13243,0.038,-0.959,0.082,-0.061,0.366,0.305,382.417
142563,157178,12606,0.038,-0.958,0.084,0.122,0.305,0.488,382.421
142563,157041,13245,0.04,-0.961,0.084,0.122,0.305,0.488,382.427
142550,157178,12606,0.037,-0.963,0.085,-0.061,0.183,0.427,382.431
142550,157044,13245,0.037,-0.964,0.079,-0.061,0.183,0.427,382.437
142563,157178,12606,0.039,-0.964,0.077,-0.549,0.427,0.488,382.441
142563,157030,13252,0.037,-0.967,0.079,-0.549,0.427,0.488,382.447
142600,157178,12606,0.035,-0.971,0.072,-0.488,0.488,0.488,382.451
142600,157066,13254,0.036,-0.968,0.078,-0.488,0.488,0.488,382.457
142599,157178,12606,0.036,-0.963,0.081,0.061,0.427,0.61,382.46
142599,157075,13262,0.038,-0.958,0.08,0.061,0.427,0.61,382.467
142613,157178,12606,0.037,-0.954,0.081,0.183,0.366,0.671,382.47
142613,157067,13242,0.037,-0.956,0.079,0.183,0.366,0.671,382.477
142604,157178,12606,0.037,-0.96,0.086,0.244,0.549,0.61,382.48
142604,157085,13267,0.035,-0.959,0.083,0.244,0.549,0.61,382.486
142601,157178,12606,0.038,-0.959,0.078,-0.061,0.549,0.488,382.49
142601,157075,13266,0.035,-0.962,0.08,-0.061,0.549,0.488,382.496
142607,157178,12606,0.034,-0.962,0.083,-0.305,0.427,0.427,382.5
142607,157063,13259,0.035,-0.959,0.087,-0.305,0.427,0.427,382.506
142614,157178,12606,0.034,-0.958,0.088,-0.732,0.122,0.366,382.51
142614,157068,13260,0.037,-0.962,0.084,-0.732,0.122,0.366,382.516
142605,157178,12606,0.037,-0.964,0.079,-1.402,-0.122,0.183,382.52
142605,157061,13270,0.038,-0.965,0.08,-1.402,-0.122,0.183,382.526
142613,157178,12606,0.036,-0.962,0.084,-1.524,0.061,0.061,382.53
142613,157057,13259,0.037,-0.958,0.084,-1.524,0.061,0.061,382.536
142623,157178,12606,0.039,-0.958,0.083,-1.585,-0.122,0.244,382.54
142623,157079,13260,0.04,-0.96,0.078,-1.585,-0.122,0.244,382.546
142617,157178,12606,0.039,-0.963,0.078,-1.768,0,0.183,382.549
142617,157072,13254,0.036,-0.965,0.076,-1.768,0,0.183,382.556
142589,157178,12606,0.039,-0.963,0.076,-1.341,0.061,0.244,382.559
142589,157105,13258,0.039,-0.96,0.076,-1.341,0.061,0.244,382.566
142597,157178,12606,0.039,-0.958,0.08,-0.854,0.122,0.427,382.569
142597,157084,13259,0.037,-0.958,0.081,-0.854,0.122,0.427,382.575
142614,157178,12606,0.038,-0.96,0.081,-0.549,0.305,0.427,382.579
142614,157071,13276,0.038,-0.962,0.078,-0.549,0.305,0.427,382.585
142623,157178,12606,0.037,-0.962,0.075,-0.244,0.549,0.305,382.589
142623,157096,13256,0.036,-0.961,0.075,-0.244,0.549,0.305,382.595
142629,157178,12606,0.036,-0.963,0.075,0.305,0.61,0.488,382.599
142629,157082,13257,0.037,-0.966,0.077,0.305,0.61,0.488,382.605
142621,157178,12606,0.037,-0.967,0.075,0.915,0.488,0.488,382.609
142621,157111,13269,0.036,-0.969,0.076,0.915,0.488,0.488,382.615
142665,157178,12606,0.042,-0.965,0.078,1.159,0.549,0.427,382.619
142665,157115,13273,0.038,-0.961,0.077,1.159,0.549,0.427,382.625
142714,157178,12606,0.038,-0.961,0.08,1.28,0.793,0.61,382.629
142714,157159,13278,0.037,-0.96,0.08,1.28,0.793,0.61,382.635
142693,157178,12606,0.034,-0.96,0.081,1.402,0.854,0.549,382.639
142693,157169,13277,0.036,-0.958,0.08,1.402,0.854,0.549,382.645
142676,157178,12606,0.039,-0.954,0.078,1.463,0.793,0.549,382.649
142676,157145,13289,0.037,-0.958,0.087,1.463,0.793,0.549,382.655
142692,157178,12606,0.037,-0.959,0.088,1.402,0.732,0.549,382.658
142692,157140,13290,0.036,-0.956,0.089,1.402,0.732,0.549,382.665
142698,157178,12606,0.038,-0.957,0.094,1.037,0.915,0.61,382.668
142698,157165,13282,0.038,-0.951,0.089,1.037,0.915,0.61,382.674
142709,157178,12606,0.034,-0.951,0.083,0.549,0.732,0.61,382.678
142709,157173,13280,0.033,-0.957,0.081,0.549,0.732,0.61,382.684
142709,157178,12606,0.035,-0.958,0.081,-0.183,0.549,0.488,382.688
142709,157178,13278,0.037,-0.961,0.08,-0.183,0.549,0.488,382.694
142702,157178,12606,0.038,-0.965,0.079,-0.427,0.244,0.427,382.698
142702,157182,13289,0.036,-0.965,0.084,-0.427,0.244,0.427,382.704
142731,157434,12606,0.037,-0.965,0.086,-0.305,0.183,0.427,382.708
142731,157193,13291,0.039,-0.962,0.084,-0.305,0.183,0.427,382.714
142730,157178,12606,0.037,-0.963,0.079,-0.549,0.549,0.427,382.718
142730,157180,13284,0.036,-0.964,0.083,-0.549,0.549,0.427,382.724
142739,157434,12606,0.034,-0.96,0.086,-0.854,0.61,0.427,382.728
142739,157204,13283,0.034,-0.958,0.083,-0.854,0.61,0.427,382.734
142753,157434,12606,0.033,-0.956,0.081,-1.159,0.427,0.488,382.738
142753,157214,13287,0.035,-0.956,0.078,-1.159,0.427,0.488,382.744
142749,157434,12606,0.035,-0.959,0.077,-1.159,0.305,0.366,382.747
142749,157220,13314,0.036,-0.962,0.075,-1.159,0.305,0.366,382.754
142748,157434,12606,0.036,-0.959,0.076,-0.671,0.244,0.305,382.757
142748,157225,13303,0.036,-0.955,0.076,-0.671,0.244,0.305,382.764
142790,157434,12606,0.036,-0.955,0.081,-0.244,0.244,0.305,382.767
142790,157240,13306,0.037,-0.958,0.079,-0.244,0.244,0.305,382.773
142809,157434,12606,0.039,-0.957,0.077,-0.122,0.244,0.366,382.777
142809,157243,13280,0.036,-0.957,0.081,-0.122,0.244,0.366,382.783
142795,157434,12606,0.036,-0.957,0.08,0,0.305,0.366,382.787
142795,157241,13302,0.041,-0.958,0.082,0,0.305,0.366,382.793
142799,157434,12606,0.042,-0.956,0.082,-0.061,0.244,0.427,382.797
142799,157270,13304,0.038,-0.956,0.084,-0.061,0.244,0.427,382.803
142812,157434,12606,0.037,-0.957,0.082,-0.488,0.122,0.427,382.807
142812,157274,13295,0.039,-0.959,0.081,-0.488,0.122,0.427,382.813
142787,157434,12606,0.039,-0.964,0.079,-0.793,0.244,0.61,382.817
142787,157267,13300,0.036,-0.966,0.08,-0.793,0.244,0.61,382.823
142779,157434,12606,0.035,-0.963,0.084,-0.732,0.183,0.793,382.827
142779,157244,13305,0.04,-0.959,0.083,-0.732,0.183,0.793,382.833
142768,157434,12606,0.042,-0.962,0.081,-0.793,0.366,0.976,382.837
142768,157223,13301,0.034,-0.967,0.077,-0.793,0.366,0.976,382.843
142759,157434,12606,0.03,-0.968,0.075,-0.732,0.854,1.098,382.847
142759,157227,13303,0.027,-0.967,0.073,-0.732,0.854,1.098,382.853
142768,157434,12606,0.034,-0.964,0.073,-0.122,0.793,0.671,382.856
142768,157206,13304,0.036,-0.962,0.077,-0.122,0.793,0.671,382.863
142753,157434,12606,0.036,-0.962,0.077,-0.122,0.793,0.671,382.866
142753,157226,13311,0.032,-0.962,0.079,0.915,0.427,0.305,382.872
142760,157434,12606,0.032,-0.962,0.079,0.915,0.427,0.305,382.876
142760,157226,13293,0.034,-0.965,0.083,1.402,0.549,0.183,382.882
142763,157434,12606,0.034,-0.965,0.083,1.402,0.549,0.183,382.886
142763,157237,13314,0.038,-0.964,0.083,1.402,0.488,0.183,382.892
142797,157434,12606,0.038,-0.964,0.083,1.402,0.488,0.183,382.896
142797,157277,13299,0.039,-0.959,0.084,1.037,0.488,0.061,382.902
142810,157434,12606,0.039,-0.959,0.084,1.037,0.488,0.061,382.906
142810,157260,13306,0.038,-0.957,0.087,0.61,0.549,0.061,382.912
142827,157434,12606,0.038,-0.957,0.087,0.61,0.549,0.061,382.916
142827,157313,13317,0.04,-0.95,0.09,0.366,0.488,0.244,382.922
142849,157434,12606,0.04,-0.95,0.09,0.366,0.488,0.244,382.926
142849,157345,13337,0.038,-0.954,0.082,-0.244,0.305,0.305,382.932
142894,157434,12606,0.038,-0.954,0.082,-0.244,0.305,0.305,382.936
142894,157311,13317,0.036,-0.96,0.075,-0.793,0.305,0.427,382.942
142898,157434,12606,0.036,-0.96,0.075,-0.793,0.305,0.427,382.946
142898,157333,13318,0.037,-0.963,0.07,-0.549,0.366,0.366,382.952
142891,157434,12606,0.037,-0.963,0.07,-0.549,0.366,0.366,382.955
142891,157333,13331,0.035,-0.968,0.081,0.122,0.244,0.427,382.962
142887,157434,12606,0.035,-0.968,0.081,0.122,0.244,0.427,382.965
142887,157336,13323,0.037,-0.962,0.08,1.28,0.305,0.488,382.972
142897,157434,12606,0.037,-0.962,0.08,1.28,0.305,0.488,382.975
142897,157348,13324,0.041,-0.965,0.084,1.463,0.305,0.488,382.981
142861,157434,12606,0.041,-0.965,0.084,1.463,0.305,0.488,382.985
142861,157349,13318,0.039,-0.963,0.085,1.28,0.61,0.366,382.991
142877,157434,12606,0.039,-0.963,0.085,1.28,0.61,0.366,382.995
142877,157357,13332,0.034,-0.959,0.081,1.037,0.854,0.427,383.001
142894,157434,12606,0.034,-0.959,0.081,1.037,0.854,0.427,383.005
142894,157336,13328,0.034,-0.957,0.083,1.159,0.793,0.488,383.011
142892,157434,12606,0.038,-0.955,0.088,1.159,0.793,0.488,383.015
142892,157339,13315,0.037,-0.955,0.086,0.915,0.732,0.549,383.021
142880,157434,12606,0.035,-0.956,0.086,0.915,0.732,0.549,383.025
142880,157352,13335,0.036,-0.952,0.084,0.427,0.793,0.671,383.031
142878,157434,12606,0.037,-0.951,0.078,0.427,0.793,0.671,383.035
142878,157365,13327,0.034,-0.953,0.079,0.244,0.732,0.793,383.041
142904,157434,12606,0.036,-0.956,0.078,0.244,0.732,0.793,383.045
142904,157341,13318,0.035,-0.961,0.08,0.244,0.61,0.732,383.051
142892,157434,12606,0.036,-0.966,0.08,0.244,0.61,0.732,383.054
142892,157341,13310,0.036,-0.963,0.079,0.854,0.549,0.671,383.061
142886,157434,12606,0.036,-0.964,0.082,0.854,0.549,0.671,383.064
142886,157316,13326,0.037,-0.963,0.087,1.22,0.488,0.61,383.07
142875,157434,12606,0.035,-0.96,0.086,1.22,0.488,0.61,383.074
142875,157332,13320,0.033,-0.96,0.087,1.28,0.671,0.549,383.08
142868,157434,12606,0.034,-0.958,0.083,1.28,0.671,0.549,383.084
142868,157318,13334,0.036,-0.959,0.083,1.159,0.793,0.427,383.09
142871,157434,12606,0.036,-0.957,0.088,1.159,0.793,0.427,383.094
142871,157286,13324,0.035,-0.959,0.088,1.159,0.732,0.427,383.1
142837,157434,12606,0.036,-0.959,0.088,1.159,0.732,0.427,383.104
142837,157304,13333,0.036,-0.955,0.09,1.22,0.549,0.427,383.11
142813,157434,12606,0.036,-0.956,0.086,1.22,0.549,0.427,383.114
142813,157298,13324,0.035,-0.959,0.085,0.671,0.488,0.366,383.12
142850,157434,12606,0.037,-0.962,0.084,0.671,0.488,0.366,383.124
142850,157287,13323,0.035,-0.962,0.087,0.305,0.488,0.366,383.13
142847,157434,12606,0.037,-0.961,0.087,0.305,0.488,0.366,383.134
142847,157307,13323,0.037,-0.959,0.086,0.305,0.244,0.427,383.14
142861,157434,12606,0.035,-0.961,0.088,0.305,0.244,0.427,383.144
142861,157300,13324,0.035,-0.962,0.084,0.183,0.427,0.427,383.15
142875,157434,12606,0.035,-0.959,0.089,0.183,0.427,0.427,383.153
142875,157327,13329,0.034,-0.96,0.087,0.122,0.427,0.488,383.16
142890,157434,12606,0.036,-0.96,0.088,0.122,0.427,0.488,383.163
142890,157335,13338,0.036,-0.963,0.087,-0.183,0.305,0.488,383.17
142884,157434,12606,0.033,-0.964,0.085,-0.183,0.305,0.488,383.173
142884,157356,13346,0.034,-0.966,0.086,-0.244,0.549,0.488,383.179
142918,157434,12606,0.036,-0.964,0.09,-0.244,0.549,0.488,383.183
142918,157357,13326,0.035,-0.961,0.085,-0.427,0.61,0.549,383.189
142922,157434,12606,0.033,-0.961,0.081,-0.427,0.61,0.549,383.193
142922,157347,13332,0.036,-0.964,0.084,-0.488,0.61,0.366,383.199
142911,157434,12606,0.036,-0.965,0.082,-0.488,0.61,0.366,383.203
142911,157338,13329,0.036,-0.958,0.083,-0.366,0.427,0.183,383.209
142920,157434,12606,0.034,-0.955,0.083,-0.366,0.427,0.183,383.213
142920,157340,13328,0.033,-0.956,0.087,-0.183,0.488,0.183,383.219
142896,157434,12606,0.032,-0.958,0.086,-0.183,0.488,0.183,383.223
142896,157359,13335,0.034,-0.955,0.085,0.183,0.488,0,383.229
142891,157434,12606,0.038,-0.955,0.084,0.183,0.488,0,383.233
142891,157366,13354,0.037,-0.956,0.089,0,0.366,0,383.239
142906,157434,12606,0.035,-0.955,0.093,0,0.366,0,383.243
142906,157368,13324,0.032,-0.954,0.093,-0.671,0.305,0.061,383.249
142933,157434,12606,0.036,-0.951,0.093,-0.671,0.305,0.061,383.252
142933,157395,13337,0.037,-0.952,0.089,-1.829,0,0.061,383.259
142940,157434,12606,0.035,-0.958,0.087,-1.829,0,0.061,383.262
142940,157374,13336,0.036,-0.958,0.086,-2.5,-0.061,-0.122,383.269
142951,157434,12606,0.039,-0.959,0.085,-2.5,-0.061,-0.122,383.272
142951,157405,13334,0.036,-0.958,0.083,-2.988,-0.183,0,383.278
142952,157434,12606,0.038,-0.96,0.079,-2.988,-0.183,0,383.282
142952,157406,13339,0.04,-0.962,0.08,-2.927,-0.183,0,383.288
142956,157434,12606,0.038,-0.964,0.077,-2.927,-0.183,0,383.292
142956,157413,13351,0.037,-0.965,0.078,-2.073,0.183,0.122,383.298
142965,157434,12606,0.035,-0.965,0.075,-2.073,0.183,0.122,383.302
142965,157424,13360,0.038,-0.97,0.074,-1.463,0.183,0.122,383.308
142968,157434,12606,0.041,-0.971,0.074,-1.463,0.183,0.122,383.312
142968,157413,13344,0.04,-0.97,0.073,-0.732,0.488,0.122,383.318
142976,157434,12606,0.037,-0.973,0.07,-0.732,0.488,0.122,383.322
142976,157429,13346,0.034,-0.969,0.076,0.732,0.732,0.366,383.328
143003,157434,12606,0.036,-0.966,0.078,0.732,0.732,0.366,383.332
143003,157430,13342,0.036,-0.963,0.081,1.524,0.549,0.549,383.338
142984,157690,12606,0.035,-0.961,0.086,1.524,0.549,0.549,383.342
142984,157461,13350,0.029,-0.959,0.088,1.89,0.61,0.366,383.348
142995,157690,12606,0.028,-0.956,0.088,1.89,0.61,0.366,383.351
142995,157476,13358,0.028,-0.954,0.09,1.524,0.305,0.061,383.358
143015,157690,12606,0.032,-0.948,0.09,1.524,0.305,0.061,383.361
143015,157459,13349,0.034,-0.948,0.094,0.793,0,-0.183,383.368
143027,157690,12606,0.035,-0.948,0.098,0.793,0,-0.183,383.371
143027,157497,13354,0.036,-0.948,0.092,0,-0.244,-0.488,383.377
143032,157690,12606,0.037,-0.951,0.086,0,-0.244,-0.488,383.381
143032,157497,13350,0.038,-0.958,0.087,-1.28,-0.488,-0.488,383.387
143053,157690,12606,0.039,-0.961,0.087,-1.28,-0.488,-0.488,383.391
143053,157502,13354,0.044,-0.961,0.083,-2.134,-0.366,-0.305,383.397
143061,157690,12606,0.045,-0.96,0.083,-2.134,-0.366,-0.305,383.401
143061,157515,13364,0.045,-0.962,0.082,-2.195,-0.244,0.122,383.407
143080,157690,12606,0.045,-0.964,0.078,-2.195,-0.244,0.122,383.411
143080,157517,13363,0.042,-0.964,0.078,-1.829,-0.244,0.427,383.417
143084,157690,12606,0.042,-0.967,0.077,-1.829,-0.244,0.427,383.421
143084,157523,13380,0.042,-0.965,0.079,-1.28,0.061,0.671,383.427
143111,157690,12606,0.042,-0.962,0.08,-1.28,0.061,0.671,383.431
143111,157539,13359,0.039,-0.96,0.078,-0.976,0.549,0.915,383.437
143109,157690,12606,0.036,-0.962,0.073,-0.976,0.549,0.915,383.441
143109,157548,13363,0.036,-0.967,0.074,-0.61,0.61,1.098,383.447
143089,157690,12606,0.036,-0.968,0.074,-0.61,0.61,1.098,383.45
143089,157545,13393,0.037,-0.967,0.077,0.244,0.854,0.976,383.457
143115,157690,12606,0.037,-0.967,0.077,0.244,0.854,0.976,383.46
143115,157534,13371,0.033,-0.959,0.085,0.976,0.915,0.976,383.467
143104,157690,12606,0.033,-0.959,0.085,0.976,0.915,0.976,383.47
143104,157532,13371,0.032,-0.96,0.079,1.341,0.915,0.793,383.476
143106,157690,12606,0.032,-0.96,0.079,1.341,0.915,0.793,383.48
143106,157563,13378,0.036,-0.958,0.084,1.585,0.854,0.549,383.486
143112,157690,12606,0.036,-0.958,0.084,1.585,0.854,0.549,383.49
143112,157573,13376,0.034,-0.955,0.081,1.707,0.61,0.305,383.496
143138,157690,12606,0.034,-0.955,0.081,1.707,0.61,0.305,383.5
143138,157565,13369,0.041,-0.96,0.08,1.89,0.488,0.183,383.506
143131,157690,12606,0.041,-0.96,0.08,1.89,0.488,0.183,383.51
143131,157572,13391,0.039,-0.957,0.083,1.951,0.671,0.305,383.516
143129,157690,12606,0.039,-0.957,0.083,1.951,0.671,0.305,383.52
143129,157562,13379,0.038,-0.962,0.088,2.134,0.793,0.549,383.526
143123,157690,12606,0.038,-0.962,0.088,2.134,0.793,0.549,383.53
143123,157595,13383,0.039,-0.959,0.087,2.134,0.732,0.671,383.536
143103,157690,12606,0.039,-0.959,0.087,2.134,0.732,0.671,383.54
143103,157563,13375,0.036,-0.96,0.087,1.463,0.671,0.793,383.546
143079,157690,12606,0.036,-0.96,0.087,1.463,0.671,0.793,383.549
143079,157539,13374,0.037,-0.96,0.091,0.854,0.549,0.915,383.556
143048,157690,12606,0.037,-0.96,0.091,0.854,0.549,0.915,383.559
143048,157538,13379,0.03,-0.96,0.084,0.305,0.549,0.915,383.566
143049,157690,12606,0.03,-0.96,0.084,0.305,0.549,0.915,383.569
143049,157525,13356,0.035,-0.957,0.089,-0.122,0.61,0.671,383.575
143022,157690,12606,0.035,-0.957,0.089,-0.122,0.61,0.671,383.579
143022,157508,13369,0.029,-0.963,0.084,-0.244,0.61,0.488,383.585
143003,157690,12606,0.029,-0.963,0.084,-0.244,0.61,0.488,383.589
143003,157505,13365,0.033,-0.964,0.082,-0.183,0.488,0.183,383.595
143018,157690,12606,0.033,-0.964,0.082,-0.183,0.488,0.183,383.599
143018,157495,13346,0.036,-0.965,0.082,-0.183,0.488,0.183,383.605
143018,157690,12606,0.04,-0.964,0.087,-0.183,0.366,0,383.609
143018,157482,13364,0.034,-0.964,0.083,-0.183,0.366,0,383.615
143010,157690,12606,0.034,-0.961,0.082,-0.122,0.427,0.061,383.619
143010,157476,13376,0.036,-0.962,0.083,-0.122,0.427,0.061,383.625
143044,157690,12606,0.038,-0.965,0.086,0.183,0.305,0.061,383.629
143044,157491,13374,0.037,-0.964,0.081,0.183,0.305,0.061,383.635
143033,157690,12606,0.037,-0.963,0.084,0.366,0.61,0.061,383.639
143033,157483,13379,0.038,-0.961,0.088,0.366,0.61,0.061,383.645
143021,157690,12606,0.039,-0.959,0.087,0.61,0.549,0.061,383.649
143021,157477,13373,0.04,-0.958,0.088,0.61,0.549,0.061,383.655
143010,157690,12606,0.039,-0.953,0.09,0.305,0.244,0.305,383.658
143010,157492,13372,0.037,-0.956,0.088,0.305,0.244,0.305,383.665
143034,157690,12606,0.038,-0.953,0.087,0.122,0.488,0.366,383.668
143034,157471,13381,0.037,-0.955,0.087,0.122,0.488,0.366,383.674
143027,157690,12606,0.036,-0.952,0.087,0.305,0.61,0.488,383.678
143027,157483,13380,0.034,-0.958,0.09,0.305,0.61,0.488,383.684
143001,157690,12606,0.033,-0.96,0.089,0.122,0.427,0.488,383.688
143001,157451,13354,0.038,-0.96,0.088,0.122,0.427,0.488,383.694
142986,157690,12606,0.039,-0.957,0.089,-0.305,0.366,0.488,383.698
142986,157458,13362,0.036,-0.959,0.088,-0.305,0.366,0.488,383.704
142957,157690,12606,0.037,-0.962,0.085,-0.366,0.305,0.366,383.708
142957,157442,13364,0.036,-0.963,0.085,-0.366,0.305,0.366,383.714
142958,157434,12606,0.036,-0.964,0.086,-0.427,0.427,0.244,383.718
142958,157419,13350,0.037,-0.962,0.083,-0.427,0.427,0.244,383.724
142949,157434,12606,0.036,-0.966,0.079,-0.427,0.61,0.305,383.728
142949,157402,13344,0.039,-0.964,0.083,-0.427,0.61,0.305,383.734
142956,157690,12606,0.04,-0.962,0.083,0,0.61,0.305,383.738
142956,157442,13365,0.037,-0.96,0.083,0,0.61,0.305,383.744
142965,157434,12606,0.035,-0.954,0.084,0.122,0.61,0.366,383.747
142965,157429,13373,0.037,-0.954,0.08,0.122,0.61,0.366,383.754
142979,157434,12606,0.037,-0.96,0.077,0.366,0.549,0.488,383.757
142979,157427,13355,0.038,-0.963,0.08,0.366,0.549,0.488,383.764
142988,157690,12606,0.037,-0.962,0.085,1.22,0.854,0.427,383.767
142988,157485,13366,0.037,-0.96,0.085,1.22,0.854,0.427,383.773
142998,157690,12606,0.036,-0.957,0.086,1.646,0.976,0.671,383.777
142998,157489,13373,0.034,-0.955,0.087,1.646,0.976,0.671,383.783
143025,157690,12606,0.034,-0.954,0.087,1.768,0.793,0.854,383.787
143025,157484,13380,0.034,-0.955,0.091,1.768,0.793,0.854,383.793
143041,157690,12606,0.036,-0.957,0.091,1.646,0.793,0.671,383.797
143041,157502,13375,0.036,-0.956,0.092,1.646,0.793,0.671,383.803
143042,157690,12606,0.036,-0.958,0.096,1.463,0.976,0.488,383.807
143042,157509,13391,0.035,-0.96,0.096,1.463,0.976,0.488,383.813
143080,157690,12606,0.037,-0.96,0.091,0.915,0.793,0.427,383.817
143080,157514,13384,0.034,-0.962,0.086,0.915,0.793,0.427,383.823
143066,157690,12606,0.034,-0.96,0.084,0.122,0.793,0.427,383.827
143066,157528,13373,0.034,-0.959,0.086,0.122,0.793,0.427,383.833
143047,157690,12606,0.035,-0.959,0.091,0.244,0.61,0.366,383.837
143047,157520,13379,0.034,-0.962,0.089,0.244,0.61,0.366,383.843
143075,157690,12606,0.031,-0.963,0.082,0.305,0.549,0.305,383.847
143075,157538,13378,0.034,-0.963,0.084,0.305,0.549,0.305,383.853
143087,157690,12606,0.035,-0.965,0.088,0.122,0.549,0.122,383.856
143087,157515,13391,0.038,-0.962,0.09,0.122,0.549,0.122,383.863
143081,157690,12606,0.035,-0.961,0.089,0.122,0.366,0.183,383.866
143081,157525,13391,0.036,-0.96,0.088,0.122,0.366,0.183,383.872
143100,157690,12606,0.038,-0.956,0.087,0.061,0.427,0.366,383.876
143100,157543,13378,0.037,-0.962,0.088,0.061,0.427,0.366,383.882
143091,157690,12606,0.041,-0.959,0.088,0.061,0.61,0.305,383.886
143091,157552,13392,0.041,-0.957,0.083,0.061,0.61,0.305,383.892
143094,157690,12606,0.037,-0.957,0.085,0.244,0.549,0.427,383.896
143094,157567,13377,0.036,-0.958,0.089,0.244,0.549,0.427,383.902
143099,157690,12606,0.035,-0.958,0.089,0.488,0.488,0.61,383.906
143099,157591,13378,0.036,-0.959,0.09,0.488,0.488,0.61,383.912
143098,157690,12606,0.036,-0.959,0.092,0.671,0.427,0.61,383.916
143098,157571,13394,0.036,-0.961,0.092,0.671,0.427,0.61,383.922
143107,157690,12606,0.038,-0.96,0.09,0.549,0.427,0.671,383.926
143107,157570,13391,0.036,-0.961,0.092,0.549,0.427,0.671,383.932
143131,157690,12606,0.035,-0.962,0.09,0.061,0.305,0.61,383.936
143131,157591,13405,0.036,-0.959,0.089,0.061,0.305,0.61,383.942
143093,157690,12606,0.038,-0.965,0.086,-0.427,0.549,0.427,383.946
143093,157585,13402,0.037,-0.967,0.09,-0.427,0.549,0.427,383.952
143106,157690,12606,0.035,-0.965,0.089,-0.366,0.549,0.366,383.955
143106,157582,13399,0.035,-0.964,0.092,-0.366,0.549,0.366,383.962
143120,157690,12606,0.033,-0.964,0.09,-0.366,0.61,0.549,383.965
143120,157567,13395,0.032,-0.969,0.085,-0.366,0.61,0.549,383.972
143115,157690,12606,0.033,-0.97,0.088,-0.183,0.915,0.244,383.975
143115,157571,13390,0.031,-0.961,0.091,-0.183,0.915,0.244,383.981
143105,157690,12606,0.031,-0.952,0.094,-0.122,0.671,0.061,383.985
143105,157578,13391,0.029,-0.943,0.091,-0.122,0.671,0.061,383.991
143097,157690,12606,0.03,-0.945,0.09,-0.793,0.122,0,383.995
143097,157572,13397,0.034,-0.945,0.09,-0.793,0.122,0,384.001
143106,157690,12606,0.037,-0.945,0.091,-1.341,-0.183,-0.244,384.005
143106,157595,13395,0.039,-0.948,0.09,-1.341,-0.183,-0.244,384.011
143120,157690,12606,0.04,-0.95,0.085,-1.585,-0.366,-0.366,384.015
143120,157581,13416,0.044,-0.953,0.085,-1.585,-0.366,-0.366,384.021
143142,157690,12606,0.042,-0.96,0.088,-1.402,-0.244,-0.122,384.025
143142,157588,13403,0.044,-0.965,0.088,-1.402,-0.244,-0.122,384.031
143154,157690,12606,0.047,-0.969,0.086,-0.915,-0.244,0.427,384.035
143154,157597,13396,0.044,-0.971,0.086,-0.915,-0.244,0.427,384.041
143135,157690,12606,0.042,-0.969,0.086,-0.732,0.061,0.976,384.045
143135,157606,13403,0.041,-0.964,0.086,-0.732,0.061,0.976,384.051
143126,157690,12606,0.041,-0.964,0.086,-0.732,0.061,0.976,384.054
143126,157611,13405,0.036,-0.964,0.082,-0.671,0.488,1.402,384.061
143146,157690,12606,0.036,-0.964,0.082,-0.671,0.488,1.402,384.064
143146,157592,13407,0.029,-0.975,0.075,-0.732,0.732,1.402,384.071
143160,157690,12606,0.029,-0.975,0.075,-0.732,0.732,1.402,384.074
143160,157604,13401,0.032,-0.963,0.084,0.183,0.976,1.098,384.08
143171,157690,12606,0.032,-0.963,0.084,0.183,0.976,1.098,384.084
143171,157601,13407,0.031,-0.957,0.086,1.22,1.098,0.915,384.09
143160,157690,12606,0.031,-0.957,0.086,1.22,1.098,0.915,384.094
143160,157621,13403,0.031,-0.96,0.086,1.829,1.159,0.549,384.1
143156,157690,12606,0.031,-0.96,0.086,1.829,1.159,0.549,384.104
143156,157604,13417,0.034,-0.958,0.092,2.012,1.098,0.183,384.11
143175,157690,12606,0.034,-0.958,0.092,2.012,1.098,0.183,384.114
143175,157612,13410,0.036,-0.952,0.098,1.829,0.976,-0.122,384.12
143151,157690,12606,0.036,-0.952,0.098,1.829,0.976,-0.122,384.124
143151,157622,13403,0.038,-0.957,0.1,1.22,0.671,-0.183,384.13
143140,157690,12606,0.038,-0.957,0.1,1.22,0.671,-0.183,384.134
143140,157610,13417,0.037,-0.959,0.098,0.122,0.427,-0.061,384.14
143161,157690,12606,0.037,-0.959,0.098,0.122,0.427,-0.061,384.144
143161,157625,13400,0.038,-0.954,0.097,-1.098,0.244,0.183,384.15
143182,157690,12606,0.038,-0.954,0.097,-1.098,0.244,0.183,384.153
143182,157641,13403,0.036,-0.955,0.089,-2.378,0.122,0.427,384.16
143174,157690,12606,0.036,-0.955,0.089,-2.378,0.122,0.427,384.163
143174,157660,13415,0.035,-0.964,0.088,-2.805,-0.061,0.488,384.17
143190,157690,12606,0.035,-0.964,0.088,-2.805,-0.061,0.488,384.173
143190,157650,13406,0.031,-0.96,0.083,-2.683,-0.061,0.488,384.179
143174,157690,12606,0.031,-0.96,0.083,-2.683,-0.061,0.488,384.183
143174,157651,13412,0.035,-0.966,0.084,-2.744,-0.061,0.305,384.189
143189,157690,12606,0.035,-0.966,0.084,-2.744,-0.061,0.305,384.193
143189,157652,13411,0.033,-0.963,0.085,-2.073,-0.183,0.244,384.199
143187,157690,12606,0.034,-0.959,0.083,-2.073,-0.183,0.244,384.203
143187,157627,13406,0.037,-0.957,0.086,-1.89,-0.305,0.122,384.209
143180,157690,12606,0.036,-0.959,0.088,-1.89,-0.305,0.122,384.213
143180,157633,13405,0.036,-0.961,0.086,-1.463,-0.122,0,384.219
143186,157690,12606,0.033,-0.96,0.086,-1.463,-0.122,0,384.223
143186,157623,13422,0.035,-0.961,0.086,-1.524,-0.183,-0.061,384.229
143175,157690,12606,0.038,-0.964,0.086,-1.524,-0.183,-0.061,384.233
143175,157629,13421,0.039,-0.963,0.084,-1.646,-0.183,-0.183,384.239
143186,157690,12606,0.036,-0.961,0.085,-1.646,-0.183,-0.183,384.243
143186,157633,13419,0.035,-0.96,0.086,-1.402,-0.061,-0.183,384.249
143197,157690,12606,0.034,-0.955,0.087,-1.402,-0.061,-0.183,384.252
143197,157635,13414,0.041,-0.953,0.087,-1.28,-0.305,-0.061,384.259
143186,157690,12606,0.041,-0.954,0.091,-1.28,-0.305,-0.061,384.262
143186,157673,13418,0.039,-0.958,0.088,-1.463,-0.305,0,384.269
143226,157690,12606,0.039,-0.963,0.085,-1.463,-0.305,0,384.272
143226,157673,13418,0.039,-0.961,0.084,-1.646,0.061,-0.122,384.278
143226,157690,12606,0.037,-0.965,0.089,-1.646,0.061,-0.122,384.282
143226,157680,13414,0.038,-0.967,0.081,-1.768,0.122,0,384.288
143267,157946,12606,0.038,-0.964,0.079,-1.768,0.122,0,384.292
143267,157706,13440,0.039,-0.961,0.08,-1.646,0.061,0.244,384.298
143235,157690,12606,0.04,-0.962,0.075,-1.646,0.061,0.244,384.302
143235,157690,13425,0.036,-0.96,0.08,-1.22,0.427,0.366,384.308
143221,157946,12606,0.038,-0.958,0.08,-1.22,0.427,0.366,384.312
143221,157707,13413,0.037,-0.96,0.081,-0.671,0.671,0.427,384.318
143220,157690,12606,0.035,-0.964,0.086,-0.671,0.671,0.427,384.322
143220,157680,13429,0.037,-0.963,0.085,-0.244,0.427,0.427,384.328
143209,157690,12606,0.036,-0.957,0.082,-0.244,0.427,0.427,384.332
143209,157640,13413,0.034,-0.952,0.077,-0.366,0.61,0.488,384.338
143199,157690,12606,0.031,-0.956,0.078,-0.366,0.61,0.488,384.342
143199,157620,13411,0.034,-0.959,0.082,0.244,0.732,0.305,384.348
143177,157690,12606,0.034,-0.962,0.083,0.244,0.732,0.305,384.351
143177,157626,13424,0.035,-0.963,0.084,0.61,0.244,0.183,384.358
143189,157690,12606,0.036,-0.963,0.085,0.61,0.244,0.183,384.361
143189,157650,13430,0.036,-0.96,0.089,0.61,-0.122,0.122,384.368
143195,157690,12606,0.039,-0.964,0.088,0.61,-0.122,0.122,384.371
143195,157676,13421,0.038,-0.966,0.083,0.488,0.122,0.122,384.377
143214,157690,12606,0.036,-0.968,0.083,0.488,0.122,0.122,384.381
143214,157663,13432,0.037,-0.969,0.086,0.366,0.366,0.061,384.387
143250,157946,12606,0.041,-0.966,0.085,0.366,0.366,0.061,384.391
143250,157714,13425,0.042,-0.962,0.081,0.244,0.305,0.183,384.397
143254,157946,12606,0.039,-0.961,0.085,0.244,0.305,0.183,384.401
143254,157739,13430,0.04,-0.958,0.083,0.488,0.549,0.305,384.407
143263,157946,12606,0.038,-0.959,0.083,0.488,0.549,0.305,384.411
143263,157738,13438,0.039,-0.959,0.083,0.793,0.793,0.427,384.417
143250,157946,12606,0.037,-0.959,0.085,0.793,0.793,0.427,384.421
143250,157713,13423,0.036,-0.958,0.089,0.915,0.793,0.61,384.427
143220,157690,12606,0.036,-0.955,0.089,0.915,0.793,0.61,384.431
143220,157687,13420,0.037,-0.956,0.089,0.854,0.793,0.732,384.437
143205,157690,12606,0.037,-0.956,0.083,0.854,0.793,0.732,384.441
143205,157662,13418,0.035,-0.955,0.079,0.61,0.854,0.793,384.447
143165,157690,12606,0.032,-0.958,0.083,0.61,0.854,0.793,384.45
143165,157635,13440,0.034,-0.966,0.082,0.915,0.671,0.61,384.457
143175,157690,12606,0.034,-0.963,0.086,0.915,0.671,0.61,384.46
143175,157621,13419,0.035,-0.963,0.081,1.28,0.488,0.366,384.467
143137,157690,12606,0.035,-0.966,0.08,1.28,0.488,0.366,384.47
143137,157604,13416,0.034,-0.967,0.087,1.463,0.732,0.427,384.476
143111,157690,12606,0.037,-0.966,0.086,1.463,0.732,0.427,384.48
143111,157575,13418,0.037,-0.961,0.087,1.585,0.854,0.427,384.486
143133,157690,12606,0.039,-0.96,0.092,1.585,0.854,0.427,384.49
143133,157587,13419,0.039,-0.958,0.095,1.402,0.976,0.427,384.496
143135,157690,12606,0.034,-0.956,0.094,1.402,0.976,0.427,384.5
143135,157611,13411,0.036,-0.952,0.089,0.732,1.098,0.366,384.506
143114,157690,12606,0.037,-0.957,0.087,0.732,1.098,0.366,384.51
143114,157614,13424,0.037,-0.963,0.09,0.305,0.854,0.244,384.516
143120,157690,12606,0.039,-0.96,0.092,0.305,0.854,0.244,384.52
143120,157609,13401,0.039,-0.956,0.088,0.366,0.549,0.549,384.526
143108,157690,12606,0.036,-0.955,0.086,0.366,0.549,0.549,384.53
143108,157596,13423,0.035,-0.962,0.086,0.488,0.671,0.61,384.536
143114,157690,12606,0.033,-0.962,0.089,0.488,0.671,0.61,384.54
143114,157603,13413,0.032,-0.964,0.088,0.366,0.488,0.671,384.546
143087,157690,12606,0.037,-0.958,0.087,0.366,0.488,0.671,384.549
143087,157595,13420,0.035,-0.954,0.086,0,0.366,0.61,384.556
143080,157690,12606,0.034,-0.955,0.09,0,0.366,0.61,384.559
143080,157574,13411,0.036,-0.958,0.089,0,0.488,0.427,384.566
143074,157690,12606,0.035,-0.963,0.089,0,0.488,0.427,384.569
143074,157572,13398,0.036,-0.964,0.089,0.122,0.366,0.366,384.575
143054,157690,12606,0.039,-0.962,0.088,0.122,0.366,0.366,384.579
143054,157534,13422,0.04,-0.96,0.086,0.305,0.488,0.183,384.585
143064,157690,12606,0.04,-0.96,0.091,0.305,0.488,0.183,384.589
143064,157526,13406,0.036,-0.962,0.09,0.305,0.61,0.244,384.595
143059,157690,12606,0.033,-0.963,0.092,0.305,0.61,0.244,384.599
143059,157517,13419,0.033,-0.961,0.092,-0.183,0.671,0.427,384.605
143050,157690,12606,0.034,-0.955,0.092,-0.183,0.671,0.427,384.609
143050,157526,13414,0.036,-0.961,0.093,-0.915,0.366,0.305,384.615
143066,157690,12606,0.036,-0.958,0.09,-0.915,0.366,0.305,384.619
143066,157506,13408,0.035,-0.959,0.087,-1.22,0.183,0.244,384.625
143062,157690,12606,0.033,-0.959,0.089,-1.22,0.183,0.244,384.629
143062,157513,13425,0.034,-0.958,0.087,-1.768,0.244,0.244,384.635
143026,157690,12606,0.036,-0.957,0.091,-1.768,0.244,0.244,384.639
143026,157516,13409,0.039,-0.959,0.091,-2.073,0.122,0.183,384.645
143015,157690,12606,0.039,-0.959,0.091,-2.073,0.122,0.183,384.648
143015,157520,13397,0.035,-0.957,0.09,-1.951,-0.061,0.122,384.655
143010,157690,12606,0.035,-0.957,0.09,-1.951,-0.061,0.122,384.658
143010,157514,13408,0.039,-0.959,0.087,-2.073,-0.061,0.183,384.665
143069,157690,12606,0.039,-0.959,0.087,-2.073,-0.061,0.183,384.668
143069,157534,13413,0.036,-0.958,0.085,-2.195,-0.061,0.305,384.674
143066,157690,12606,0.036,-0.958,0.085,-2.195,-0.061,0.305,384.678
143066,157547,13422,0.034,-0.961,0.079,-2.317,0,0.427,384.684
143085,157690,12606,0.034,-0.961,0.079,-2.317,0,0.427,384.688
143085,157516,13391,0.036,-0.97,0.077,-2.012,0.061,0.366,384.694
143073,157690,12606,0.036,-0.97,0.077,-2.012,0.061,0.366,384.698
143073,157569,13417,0.036,-0.968,0.081,-1.037,0,0.427,384.704
143076,157690,12606,0.036,-0.968,0.081,-1.037,0,0.427,384.708
143076,157562,13410,0.036,-0.961,0.073,-0.244,0.488,0.488,384.714
143065,157690,12606,0.036,-0.961,0.073,-0.244,0.488,0.488,384.718
143065,157554,13433,0.034,-0.97,0.084,0.854,0.915,0.366,384.724
143063,157690,12606,0.034,-0.97,0.084,0.854,0.915,0.366,384.728
143063,157539,13427,0.033,-0.962,0.091,1.707,0.793,0.305,384.734
143071,157690,12606,0.033,-0.962,0.091,1.707,0.793,0.305,384.738
143071,157557,13396,0.033,-0.952,0.098,1.159,0.549,0,384.744
143057,157690,12606,0.033,-0.952,0.098,1.159,0.549,0,384.747
143057,157543,13421,0.033,-0.956,0.09,-0.122,0.549,-0.244,384.754
143057,157690,12606,0.033,-0.956,0.09,-0.122,0.549,-0.244,384.757
143057,157542,13401,0.034,-0.954,0.087,-0.732,0.122,-0.427,384.764
143055,157690,12606,0.034,-0.954,0.087,-0.732,0.122,-0.427,384.767
143055,157559,13409,0.04,-0.953,0.089,-1.159,-0.244,-0.488,384.773
143051,157690,12606,0.04,-0.953,0.089,-1.159,-0.244,-0.488,384.777
143051,157536,13424,0.043,-0.957,0.089,-1.341,-0.305,-0.427,384.783
143086,157690,12606,0.043,-0.957,0.089,-1.341,-0.305,-0.427,384.787
143086,157577,13411,0.045,-0.958,0.087,-1.341,-0.305,-0.427,384.793
143093,157690,12606,0.045,-0.961,0.08,-1.646,-0.061,-0.122,384.797
143093,157608,13430,0.044,-0.961,0.079,-1.646,-0.061,-0.122,384.803
143111,157690,12606,0.044,-0.961,0.078,-1.28,0.244,0.244,384.807
143111,157586,13414,0.04,-0.958,0.076,-1.28,0.244,0.244,384.813
143088,157690,12606,0.041,-0.958,0.078,-0.366,0.671,0.854,384.817
143088,157566,13428,0.042,-0.961,0.079,-0.366,0.671,0.854,384.823
143090,157690,12606,0.039,-0.963,0.077,0.671,1.037,1.28,384.827
143090,157540,13412,0.037,-0.967,0.078,0.671,1.037,1.28,384.833
143077,157690,12606,0.036,-0.974,0.084,1.707,1.22,1.341,384.837
143077,157550,13421,0.035,-0.974,0.087,1.707,1.22,1.341,384.843
143112,157690,12606,0.033,-0.967,0.091,2.5,1.341,1.22,384.847
143112,157552,13415,0.033,-0.96,0.088,2.5,1.341,1.22,384.853
143090,157690,12606,0.03,-0.957,0.091,1.89,1.22,1.22,384.856
143090,157539,13420,0.028,-0.96,0.091,1.89,1.22,1.22,384.863
143111,157690,12606,0.03,-0.963,0.092,1.28,1.098,0.793,384.866
143111,157574,13418,0.034,-0.958,0.093,1.28,1.098,0.793,384.872
143115,157690,12606,0.035,-0.953,0.09,0.671,0.915,0.427,384.876
143115,157581,13408,0.033,-0.955,0.092,0.671,0.915,0.427,384.882
143093,157690,12606,0.033,-0.959,0.091,0.244,0.976,0.305,384.886
143093,157593,13423,0.033,-0.957,0.088,0.244,0.976,0.305,384.892
143092,157690,12606,0.034,-0.95,0.089,-0.244,0.671,0.183,384.896
143092,157579,13422,0.036,-0.948,0.088,-0.244,0.671,0.183,384.902
143086,157690,12606,0.035,-0.95,0.086,-0.61,0.305,0.061,384.906
143086,157555,13412,0.033,-0.951,0.09,-0.61,0.305,0.061,384.912
143098,157690,12606,0.035,-0.957,0.092,-0.732,0.183,-0.122,384.916
143098,157557,13408,0.039,-0.961,0.085,-0.732,0.183,-0.122,384.922
143051,157690,12606,0.039,-0.962,0.083,-1.037,-0.122,-0.122,384.926
143051,157569,13418,0.038,-0.96,0.085,-1.037,-0.122,-0.122,384.932
143045,157690,12606,0.04,-0.961,0.088,-1.402,-0.061,0,384.936
143045,157543,13415,0.035,-0.962,0.09,-1.402,-0.061,0,384.942
143040,157690,12606,0.035,-0.963,0.088,-1.707,-0.061,0.183,384.946
143040,157531,13413,0.039,-0.964,0.085,-1.707,-0.061,0.183,384.952
143012,157690,12606,0.037,-0.96,0.086,-1.829,-0.244,0.244,384.955
143012,157511,13414,0.038,-0.957,0.086,-1.829,-0.244,0.244,384.962
143011,157690,12606,0.04,-0.957,0.083,-2.134,-0.183,0.244,384.965
143011,157494,13406,0.038,-0.959,0.082,-2.134,-0.183,0.244,384.972
142991,157690,12606,0.037,-0.958,0.083,-2.012,0,0.244,384.975
142991,157481,13410,0.037,-0.958,0.08,-2.012,0,0.244,384.981
143005,157690,12606,0.035,-0.958,0.08,-1.22,0.122,0.366,384.985
143005,157482,13410,0.036,-0.957,0.08,-1.22,0.122,0.366,384.991
142992,157690,12606,0.036,-0.956,0.088,-0.793,0.183,0.427,384.995
142992,157504,13401,0.036,-0.959,0.085,-0.793,0.183,0.427,385.001
142992,157690,12606,0.035,-0.96,0.086,-0.732,-0.061,0.366,385.005
142992,157467,13395,0.036,-0.961,0.091,-0.732,-0.061,0.366,385.011
143018,157690,12606,0.042,-0.964,0.084,-0.854,0.061,0.305,385.015
143018,157506,13398,0.038,-0.964,0.081,-0.854,0.061,0.305,385.021
143018,157690,12606,0.036,-0.962,0.078,-1.159,0.427,0.305,385.025
143018,157521,13411,0.04,-0.963,0.076,-1.159,0.427,0.305,385.031
143009,157690,12606,0.039,-0.965,0.082,-1.037,0.305,0.244,385.035
143009,157513,13428,0.038,-0.964,0.082,-1.037,0.305,0.244,385.041
