142298,156666,12606,0.005,-0.957,-0.066,1.037,0.854,0.122,288.597
142298,156638,13094,-0,-0.946,-0.073,0.244,0.366,0.488,288.603
142288,156666,12606,-0,-0.946,-0.073,0.244,0.366,0.488,288.607
142288,156669,13102,0.002,-0.96,-0.08,-1.098,0.244,0.549,288.613
142272,156666,12606,0.002,-0.96,-0.08,-1.098,0.244,0.549,288.617
142272,156661,13085,-0.002,-0.963,-0.084,-2.378,-0.061,0.366,288.623
142280,156666,12606,-0.002,-0.963,-0.084,-2.378,-0.061,0.366,288.627
142280,156657,13085,-0.004,-0.952,-0.084,-2.439,-0.183,0.488,288.633
142272,156666,12606,-0.004,-0.952,-0.084,-2.439,-0.183,0.488,288.636
142272,156661,13068,-0.004,-0.957,-0.096,-2.256,-0.122,0.61,288.643
142262,156666,12606,-0.004,-0.957,-0.096,-2.256,-0.122,0.61,288.646
142262,156648,13093,-0.003,-0.969,-0.098,-1.524,-0.183,0.427,288.653
142288,156666,12606,-0.003,-0.969,-0.098,-1.524,-0.183,0.427,288.656
142288,156662,13074,-0.001,-0.969,-0.085,0.183,0.244,0.244,288.662
142284,156666,12606,-0.001,-0.969,-0.085,0.183,0.244,0.244,288.666
142284,156668,13085,0,-0.955,-0.082,1.829,0.488,0.244,288.672
142309,156666,12606,-0,-0.949,-0.083,1.829,0.488,0.244,288.676
142309,156666,13074,0,-0.955,-0.076,1.951,0.549,0.305,288.682
142297,156666,12606,-0.001,-0.961,-0.07,1.951,0.549,0.305,288.686
142297,156660,13082,0.001,-0.957,-0.075,1.646,0.61,0.183,288.692
142269,156666,12606,0.002,-0.959,-0.079,1.646,0.61,0.183,288.696
142269,156627,13077,0.003,-0.962,-0.069,0.732,0.549,0.305,288.702
142264,156666,12606,0.003,-0.954,-0.068,0.732,0.549,0.305,288.706
142264,156658,13082,0.002,-0.95,-0.075,-0.183,0.427,0.488,288.712
142235,156666,12606,0.004,-0.957,-0.081,-0.183,0.427,0.488,288.716
142235,156587,13094,0.003,-0.96,-0.078,-1.159,0.183,0.549,288.722
142195,156666,12606,0.001,-0.955,-0.078,-1.159,0.183,0.549,288.726
142195,156568,13076,0.002,-0.959,-0.088,-1.585,0.244,0.549,288.732
142185,156666,12606,0.003,-0.959,-0.1,-1.585,0.244,0.549,288.735
142185,156597,13070,-0.002,-0.963,-0.1,-1.037,0.61,0.549,288.742
142191,156666,12606,-0,-0.971,-0.098,-1.037,0.61,0.549,288.745
142191,156592,13064,-0.001,-0.973,-0.092,0.854,0.915,0.549,288.752
142203,156666,12606,0.002,-0.961,-0.082,0.854,0.915,0.549,288.755
142203,156600,13058,-0.003,-0.951,-0.081,2.378,1.159,0.671,288.761
142228,156666,12606,-0.005,-0.953,-0.082,2.378,1.159,0.671,288.765
142228,156604,13054,-0.004,-0.956,-0.078,2.439,1.159,0.732,288.771
142231,156666,12606,-0.004,-0.953,-0.069,2.439,1.159,0.732,288.775
142231,156634,13067,-0.005,-0.954,-0.054,1.951,1.037,0.427,288.781
142242,156666,12606,-0.005,-0.954,-0.056,1.951,1.037,0.427,288.785
142242,156608,13075,-0.003,-0.952,-0.067,-0.244,0.549,0.366,288.791
142210,156666,12606,-0.006,-0.952,-0.072,-0.244,0.549,0.366,288.795
142210,156637,13073,-0.004,-0.96,-0.068,-2.683,0.122,0.183,288.801
142196,156666,12606,-0.001,-0.954,-0.071,-2.683,0.122,0.183,288.805
142196,156582,13076,-0.008,-0.956,-0.08,-3.598,-0.122,0.183,288.811
142206,156666,12606,-0.004,-0.961,-0.086,-3.598,-0.122,0.183,288.815
142206,156556,13070,-0.003,-0.963,-0.089,-3.659,-0.183,0.061,288.821
142203,156666,12606,-0.003,-0.964,-0.096,-3.659,-0.183,0.061,288.825
142203,156577,13060,-0.006,-0.969,-0.104,-2.927,-0.061,0.183,288.831
142184,156666,12606,-0.004,-0.971,-0.108,-2.927,-0.061,0.183,288.835
142184,156595,13074,0.001,-0.97,-0.102,-1.037,0,0.305,288.841
142185,156666,12606,0,-0.963,-0.093,-1.037,0,0.305,288.844
142185,156589,13066,-0.002,-0.957,-0.092,1.159,0.488,0.366,288.851
142212,156666,12606,-0.003,-0.954,-0.088,1.159,0.488,0.366,288.854
142212,156581,13076,-0.001,-0.955,-0.089,2.134,0.732,0.427,288.86
142247,156666,12606,0.001,-0.962,-0.083,2.134,0.732,0.427,288.864
142247,156628,13077,0.001,-0.963,-0.08,2.622,0.915,0.366,288.87
142236,156666,12606,0.002,-0.962,-0.077,2.622,0.915,0.366,288.874
142236,156622,13082,0.003,-0.953,-0.065,2.561,1.037,0.488,288.88
142242,156666,12606,0.001,-0.949,-0.065,2.561,1.037,0.488,288.884
142242,156616,13067,0.001,-0.951,-0.063,1.463,0.61,0.732,288.89
142191,156666,12606,-0.001,-0.948,-0.058,1.463,0.61,0.732,288.894
142191,156578,13075,-0.005,-0.948,-0.064,-0.488,0.244,0.671,288.9
142184,156666,12606,-0.002,-0.955,-0.077,-0.488,0.244,0.671,288.904
142184,156556,13064,-0.002,-0.963,-0.083,-2.256,-0.061,0.427,288.91
142158,156666,12606,-0.005,-0.964,-0.085,-2.256,-0.061,0.427,288.914
142158,156544,13060,-0.005,-0.96,-0.095,-2.744,-0.061,0.244,288.92
142134,156666,12606,-0.003,-0.962,-0.097,-2.744,-0.061,0.244,288.924
142134,156543,13051,-0.003,-0.966,-0.094,-1.707,-0.122,0.305,288.93
142148,156666,12606,-0.001,-0.965,-0.089,-1.707,-0.122,0.305,288.933
142148,156547,13063,-0.002,-0.96,-0.09,-0.244,0.183,0.366,288.94
142160,156666,12606,-0.003,-0.951,-0.083,-0.244,0.183,0.366,288.943
142160,156568,13058,-0.007,-0.953,-0.077,0.61,0.305,0.366,288.95
142172,156666,12606,-0.006,-0.953,-0.078,0.61,0.305,0.366,288.953
142172,156615,13062,-0.006,-0.957,-0.071,0.549,0.305,0.183,288.959
142198,156666,12606,-0.003,-0.951,-0.074,0.549,0.305,0.183,288.963
142198,156586,13076,-0.004,-0.951,-0.082,-0.549,0.183,0.244,288.969
142227,156666,12606,-0.004,-0.96,-0.082,-0.549,0.183,0.244,288.973
142227,156655,13081,0.002,-0.966,-0.077,-1.037,0.244,0.183,288.979
142232,156666,12606,0.002,-0.959,-0.085,-1.037,0.244,0.183,288.983
142232,156650,13075,-0,-0.961,-0.083,-0.793,0.305,0.427,288.989
142226,156666,12606,-0.002,-0.97,-0.085,-0.793,0.305,0.427,288.993
142226,156617,13077,-0.002,-0.973,-0.087,-0.671,0.366,0.61,288.999
142195,156666,12606,-0,-0.967,-0.088,-0.671,0.366,0.61,289.003
142195,156598,13067,-0.003,-0.959,-0.084,-0.427,0.488,0.61,289.009
142189,156666,12606,-0.008,-0.958,-0.091,-0.427,0.488,0.61,289.013
142189,156591,13054,-0.008,-0.959,-0.093,-0.061,0.61,0.549,289.019
142179,156666,12606,-0.003,-0.963,-0.091,-0.061,0.61,0.549,289.023
142179,156586,13069,-0.002,-0.956,-0.087,0.61,0.732,0.366,289.029
142190,156666,12606,-0.006,-0.951,-0.084,0.61,0.732,0.366,289.033
142190,156596,13078,-0.006,-0.954,-0.076,0.976,0.976,0.122,289.039
142189,156666,12606,-0.005,-0.958,-0.079,0.976,0.976,0.122,289.042
142189,156619,13064,-0.002,-0.955,-0.074,0.915,0.732,-0.183,289.049
142217,156666,12606,-0.003,-0.951,-0.073,0.915,0.732,-0.183,289.052
142217,156605,13070,-0.003,-0.95,-0.078,0.366,0.549,-0.183,289.058
142198,156666,12606,0.001,-0.955,-0.078,0.366,0.549,-0.183,289.062
142198,156611,13058,0.007,-0.966,-0.07,-0.366,0.305,-0.305,289.068
142198,156666,12606,0.006,-0.956,-0.069,-0.366,0.305,-0.305,289.072
142198,156610,13059,0.001,-0.948,-0.082,-0.976,0,-0.061,289.078
142189,156666,12606,0.001,-0.95,-0.091,-0.976,0,-0.061,289.082
142189,156599,13075,0.003,-0.966,-0.093,-1.463,0.183,0.061,289.088
142183,156666,12606,0.007,-0.972,-0.081,-1.463,0.183,0.061,289.092
142183,156590,13046,0.006,-0.962,-0.077,-0.793,0.366,0.122,289.098
142174,156666,12606,0.002,-0.955,-0.086,-0.793,0.366,0.122,289.102
142174,156573,13061,0,-0.963,-0.089,-1.524,0.122,0.793,289.108
142165,156666,12606,-0,-0.965,-0.083,-1.524,0.122,0.793,289.112
142165,156576,13075,0.001,-0.954,-0.083,-1.463,0.244,0.854,289.118
142204,156666,12606,0.001,-0.954,-0.083,-1.463,0.244,0.854,289.122
142204,156610,13048,-0.003,-0.955,-0.085,-1.037,0.427,0.793,289.128
142195,156666,12606,-0.003,-0.955,-0.085,-1.037,0.427,0.793,289.132
142195,156626,13070,-0.001,-0.964,-0.091,-0.915,0.488,0.61,289.138
142217,156666,12606,-0.001,-0.964,-0.091,-0.915,0.488,0.61,289.141
142217,156649,13088,-0.001,-0.958,-0.087,-0.366,0.427,0.671,289.148
142241,156666,12606,-0.001,-0.958,-0.087,-0.366,0.427,0.671,289.151
142241,156670,13072,-0.005,-0.954,-0.08,-0.122,0.366,0.671,289.158
142262,156666,12606,-0.005,-0.954,-0.08,-0.122,0.366,0.671,289.161
142262,156669,13082,-0,-0.956,-0.084,-0.305,0.366,0.488,289.167
142295,156922,12606,-0,-0.956,-0.084,-0.305,0.366,0.488,289.171
142295,156681,13073,-0.004,-0.963,-0.089,-0.488,0.549,0.366,289.177
142241,156922,12606,-0.004,-0.963,-0.089,-0.488,0.549,0.366,289.181
142241,156701,13076,-0.006,-0.962,-0.082,-0.305,0.61,0.122,289.187
142236,156922,12606,-0.006,-0.962,-0.082,-0.305,0.61,0.122,289.191
142236,156681,13064,-0.004,-0.956,-0.078,-0.183,0.671,0.061,289.197
142236,156666,12606,-0.004,-0.956,-0.078,-0.183,0.671,0.061,289.201
142236,156648,13070,-0.003,-0.96,-0.088,-1.098,0.732,-0.061,289.207
142249,156666,12606,-0.003,-0.96,-0.088,-1.098,0.732,-0.061,289.211
142249,156660,13068,0.001,-0.961,-0.083,-1.037,0.549,-0.183,289.217
142251,156666,12606,0.001,-0.961,-0.083,-1.037,0.549,-0.183,289.221
142251,156655,13082,-0,-0.957,-0.088,-0.854,0.183,0.183,289.227
142225,156666,12606,-0,-0.957,-0.088,-0.854,0.183,0.183,289.23
142225,156644,13056,0.003,-0.967,-0.083,-0.793,-0.122,0.244,289.237
142246,156666,12606,0.003,-0.967,-0.083,-0.793,-0.122,0.244,289.24
142246,156646,13060,-0,-0.948,-0.08,-0.915,-0.305,0.549,289.247
142235,156666,12606,-0,-0.948,-0.08,-0.915,-0.305,0.549,289.25
142235,156651,13071,-0.001,-0.96,-0.094,-1.098,-0.183,0.488,289.256
142264,156666,12606,-0.001,-0.96,-0.094,-1.098,-0.183,0.488,289.26
142264,156668,13053,0.002,-0.968,-0.093,-1.098,-0.183,0.488,289.266
142233,156666,12606,0.004,-0.969,-0.094,-0.488,0.183,0.183,289.27
142233,156641,13071,0.001,-0.966,-0.089,-0.488,0.183,0.183,289.276
142212,156666,12606,-0.002,-0.961,-0.09,0.244,0.366,0.671,289.28
142212,156614,13070,-0.005,-0.957,-0.084,0.244,0.366,0.671,289.286
142189,156666,12606,0.002,-0.955,-0.082,0.549,0.427,0.732,289.29
142189,156599,13053,0.001,-0.954,-0.088,0.549,0.427,0.732,289.296
142159,156666,12606,-0,-0.959,-0.082,0.671,0.61,0.549,289.3
142159,156580,13059,-0.003,-0.956,-0.078,0.671,0.61,0.549,289.306
142166,156666,12606,-0.002,-0.951,-0.081,0.854,0.671,0.549,289.31
142166,156608,13052,-0.001,-0.957,-0.083,0.854,0.671,0.549,289.316
142175,156666,12606,0.001,-0.965,-0.082,0.549,0.488,0.366,289.32
142175,156603,13075,-0.001,-0.96,-0.081,0.549,0.488,0.366,289.326
142224,156666,12606,-0.006,-0.961,-0.078,0.061,0.427,0.488,289.33
142224,156635,13045,-0.006,-0.96,-0.083,0.061,0.427,0.488,289.336
142251,156666,12606,-0.004,-0.956,-0.087,-0.305,0.427,0.427,289.339
142251,156660,13063,-0.001,-0.953,-0.082,-0.305,0.427,0.427,289.346
142240,156666,12606,-0.003,-0.957,-0.09,-0.183,0.244,0.244,289.349
142240,156653,13070,-0.001,-0.966,-0.092,-0.183,0.244,0.244,289.355
142242,156666,12606,0,-0.97,-0.087,0.549,0.427,0.183,289.359
142242,156654,13070,0.001,-0.957,-0.081,0.549,0.427,0.183,289.365
142267,156666,12606,0.002,-0.948,-0.077,1.037,0.61,0.366,289.369
142267,156665,13072,0,-0.949,-0.074,1.037,0.61,0.366,289.375
142239,156666,12606,-0.001,-0.955,-0.083,0.366,0.549,0.549,289.379
142239,156656,13071,-0,-0.958,-0.08,0.366,0.549,0.549,289.385
142207,156666,12606,-0.002,-0.955,-0.076,-0.427,0.549,0.366,289.389
142207,156621,13065,0.001,-0.958,-0.077,-0.427,0.549,0.366,289.395
142171,156666,12606,-0.001,-0.957,-0.079,-0.671,0.366,0.305,289.399
142171,156595,13053,-0.001,-0.956,-0.082,-0.671,0.366,0.305,289.405
142165,156666,12606,0,-0.957,-0.078,-0.976,0.183,0.427,289.409
142165,156565,13048,-0.002,-0.954,-0.079,-0.976,0.183,0.427,289.415
142153,156666,12606,-0.004,-0.954,-0.079,-1.341,-0.061,0.549,289.419
142153,156565,13037,-0.003,-0.954,-0.08,-1.341,-0.061,0.549,289.425
142138,156666,12606,-0,-0.956,-0.081,-1.707,-0.183,0.427,289.429
142138,156545,13047,0,-0.96,-0.089,-1.707,-0.183,0.427,289.435
142135,156666,12606,0.001,-0.968,-0.098,-1.951,-0.183,0.183,289.438
142135,156565,13047,-0.001,-0.975,-0.098,-1.951,-0.183,0.183,289.445
142131,156666,12606,-0.001,-0.97,-0.097,-0.976,0.061,0.183,289.448
142131,156550,13057,-0.001,-0.962,-0.087,-0.976,0.061,0.183,289.455
142119,156666,12606,-0.003,-0.953,-0.083,0.305,0.427,0.488,289.458
142119,156552,13055,-0.001,-0.955,-0.082,0.305,0.427,0.488,289.464
142112,156666,12606,0,-0.958,-0.082,0.244,0.549,0.488,289.468
142112,156550,13025,-0.002,-0.958,-0.081,0.244,0.549,0.488,289.474
142108,156666,12606,0.001,-0.958,-0.075,0.244,0.427,0.427,289.478
142108,156552,13032,0.001,-0.955,-0.073,0.244,0.427,0.427,289.484
142102,156666,12606,-0.004,-0.947,-0.076,-0.305,0.305,0.427,289.488
142102,156531,13037,-0.004,-0.955,-0.078,-0.305,0.305,0.427,289.494
142097,156666,12606,-0.003,-0.958,-0.081,-1.22,0.061,0.366,289.498
142097,156529,13048,-0.004,-0.959,-0.081,-1.22,0.061,0.366,289.504
142113,156666,12606,-0.002,-0.957,-0.088,-1.89,-0.183,0.183,289.508
142113,156539,13045,-0.003,-0.964,-0.101,-1.89,-0.183,0.183,289.514
142104,156666,12606,0,-0.972,-0.101,-1.829,-0.183,0.122,289.518
142104,156555,13041,0.002,-0.971,-0.096,-1.829,-0.183,0.122,289.524
142097,156666,12606,0.002,-0.962,-0.094,-0.488,0.305,0.183,289.528
142097,156544,13019,-0.001,-0.958,-0.092,-0.488,0.305,0.183,289.534
142110,156666,12606,0,-0.959,-0.094,0.61,0.732,0.244,289.537
142110,156528,13038,0.001,-0.966,-0.093,0.61,0.732,0.244,289.544
142102,156666,12606,0.003,-0.965,-0.089,1.646,0.915,0.244,289.547
142102,156550,13028,0.005,-0.96,-0.083,1.646,0.915,0.244,289.554
142112,156666,12606,0.003,-0.957,-0.08,2.317,0.976,0.366,289.557
142112,156529,13031,-0,-0.957,-0.076,2.317,0.976,0.366,289.563
142133,156666,12606,0,-0.954,-0.072,2.073,1.098,0.671,289.567
142133,156559,13035,-0.004,-0.95,-0.068,2.073,1.098,0.671,289.573
142140,156666,12606,-0,-0.952,-0.066,0.976,0.854,0.549,289.577
142140,156554,13046,-0.001,-0.953,-0.073,0.976,0.854,0.549,289.583
142091,156666,12606,-0.004,-0.956,-0.083,-0.793,0.366,0.488,289.587
142091,156548,13043,-0.003,-0.961,-0.09,-0.793,0.366,0.488,289.593
142099,156666,12606,-0.002,-0.959,-0.09,-1.463,0.488,0.427,289.597
142099,156534,13043,-0.005,-0.958,-0.085,-1.463,0.488,0.427,289.603
142080,156666,12606,-0.006,-0.959,-0.084,-1.22,0.305,0.427,289.607
142080,156530,13039,-0.006,-0.959,-0.09,-1.22,0.305,0.427,289.613
142076,156666,12606,-0.008,-0.957,-0.091,-1.037,0.061,0.488,289.617
142076,156499,13024,-0.005,-0.958,-0.09,-1.037,0.061,0.488,289.623
142069,156666,12606,-0.003,-0.962,-0.089,-0.305,-0.061,0.183,289.627
142069,156495,13029,-0.002,-0.962,-0.089,-0.305,-0.061,0.183,289.633
142098,156666,12606,0.001,-0.959,-0.091,0.488,0.183,-0.061,289.636
142098,156515,13046,0.002,-0.966,-0.093,0.488,0.183,-0.061,289.643
142103,156666,12606,0.005,-0.97,-0.071,1.22,0.61,-0.122,289.646
142103,156514,13042,0.005,-0.954,-0.072,1.22,0.61,-0.122,289.653
142091,156666,12606,-0.001,-0.944,-0.073,1.037,0.427,0.183,289.656
142091,156502,13034,-0.002,-0.952,-0.078,1.037,0.427,0.183,289.662
142083,156666,12606,-0.001,-0.96,-0.079,0.061,0.549,0.061,289.666
142083,156501,13032,0.003,-0.967,-0.085,0.061,0.549,0.061,289.672
142077,156666,12606,0.004,-0.965,-0.086,-0.549,0.427,-0.122,289.676
142077,156483,13037,0.001,-0.967,-0.092,-0.549,0.427,-0.122,289.682
142051,156666,12606,-0.003,-0.971,-0.096,-0.488,0.488,0.305,289.686
142051,156493,13039,0.001,-0.971,-0.09,-0.488,0.488,0.305,289.692
142038,156666,12606,-0,-0.961,-0.087,0.427,0.61,0.549,289.696
142038,156489,13012,-0.004,-0.948,-0.087,0.427,0.61,0.549,289.702
142030,156666,12606,-0.005,-0.953,-0.085,0.915,0.488,0.854,289.706
142030,156447,13008,-0.005,-0.957,-0.084,0.915,0.488,0.854,289.712
142013,156666,12606,-0.005,-0.957,-0.084,0.915,0.488,0.854,289.716
142013,156446,13020,-0.002,-0.955,-0.087,0.976,0.671,0.671,289.722
142013,156666,12606,-0.002,-0.955,-0.087,0.976,0.671,0.671,289.726
142013,156453,13002,-0.003,-0.962,-0.087,0.793,0.793,0.427,289.732
141993,156666,12606,-0.003,-0.962,-0.087,0.793,0.793,0.427,289.735
141993,156462,13012,-0.001,-0.959,-0.082,0.793,0.671,0.244,289.742
142017,156666,12606,-0.001,-0.959,-0.082,0.793,0.671,0.244,289.745
142017,156468,13018,-0.002,-0.953,-0.071,1.098,0.366,0.305,289.752
142003,156666,12606,-0.002,-0.953,-0.071,1.098,0.366,0.305,289.755
142003,156456,13026,-0.002,-0.952,-0.089,0.793,0.183,0.305,289.761
142008,156666,12606,-0.002,-0.952,-0.089,0.793,0.183,0.305,289.765
142008,156440,13026,0,-0.961,-0.08,0.244,0.305,0.183,289.771
142034,156666,12606,0,-0.961,-0.08,0.244,0.305,0.183,289.775
142034,156459,13024,-0.001,-0.953,-0.073,0.671,0.183,0.122,289.781
142020,156666,12606,-0.001,-0.953,-0.073,0.671,0.183,0.122,289.785
142020,156470,13022,0.002,-0.96,-0.087,-0.122,0.244,0.305,289.791
142021,156666,12606,0.002,-0.96,-0.087,-0.122,0.244,0.305,289.795
142021,156497,13017,0.004,-0.961,-0.086,-0.915,0.549,0.305,289.801
142036,156666,12606,0.004,-0.961,-0.086,-0.915,0.549,0.305,289.805
142036,156485,13024,0,-0.955,-0.077,-0.061,0.61,0.427,289.811
142077,156666,12606,0,-0.955,-0.077,-0.061,0.61,0.427,289.815
142077,156517,13015,-0.001,-0.955,-0.086,-0.183,0.61,0.488,289.821
142073,156666,12606,-0.001,-0.955,-0.086,-0.183,0.61,0.488,289.825
142073,156548,13022,-0.003,-0.963,-0.09,-0.854,0.427,0.305,289.831
142119,156666,12606,-0.003,-0.963,-0.09,-0.854,0.427,0.305,289.835
142119,156548,13021,0,-0.962,-0.09,-0.976,0.305,0.244,289.841
142062,156666,12606,0,-0.962,-0.09,-0.976,0.305,0.244,289.844
142062,156525,13029,-0.004,-0.959,-0.08,-0.305,0.366,0.183,289.851
142084,156666,12606,-0.004,-0.959,-0.08,-0.305,0.366,0.183,289.854
142084,156505,13030,-0,-0.961,-0.07,0,0.244,0.244,289.86
142060,156666,12606,-0,-0.961,-0.07,0,0.244,0.244,289.864
142060,156509,13015,-0.003,-0.95,-0.067,-0.549,-0.183,0.244,289.87
142052,156666,12606,-0.002,-0.942,-0.071,-0.549,-0.183,0.244,289.874
142052,156474,13011,-0.001,-0.954,-0.088,-2.012,-0.427,0.305,289.88
142021,156666,12606,0,-0.969,-0.099,-2.012,-0.427,0.305,289.884
142021,156454,13010,0.003,-0.979,-0.091,-2.256,-0.244,-0.061,289.89
142004,156666,12606,0.004,-0.964,-0.085,-2.256,-0.244,-0.061,289.894
142004,156458,13022,-0.003,-0.95,-0.089,-1.402,-0.122,0.122,289.9
141999,156666,12606,-0.006,-0.954,-0.096,-1.402,-0.122,0.122,289.904
141999,156484,13011,-0.001,-0.966,-0.09,-0.793,0.244,0.122,289.91
142036,156666,12606,0.001,-0.958,-0.09,-0.793,0.244,0.122,289.914
142036,156449,13013,-0,-0.952,-0.091,0,0.305,0.183,289.92
142017,156666,12606,-0.001,-0.959,-0.09,0,0.305,0.183,289.924
142017,156482,13013,-0.001,-0.966,-0.089,0.61,0.549,0.183,289.93
142030,156666,12606,0.003,-0.964,-0.088,0.61,0.549,0.183,289.933
142030,156482,13021,0.005,-0.96,-0.084,1.22,0.671,0.183,289.94
142023,156666,12606,0.001,-0.953,-0.077,1.22,0.671,0.183,289.943
142023,156522,13032,-0.002,-0.956,-0.068,1.28,0.732,0.549,289.95
142051,156666,12606,0.003,-0.955,-0.072,1.28,0.732,0.549,289.953
142051,156507,13023,0.004,-0.956,-0.08,-0.122,0.427,0.61,289.959
142052,156666,12606,0.001,-0.958,-0.083,-0.122,0.427,0.61,289.963
142052,156509,13005,0.004,-0.957,-0.081,-1.28,0.244,0.61,289.969
142057,156666,12606,0.005,-0.959,-0.085,-1.28,0.244,0.61,289.973
142057,156491,13032,0.003,-0.962,-0.091,-1.463,0.061,0.732,289.979
142034,156666,12606,0.002,-0.965,-0.098,-1.463,0.061,0.732,289.983
142034,156495,13031,-0,-0.965,-0.097,-0.976,0.244,0.854,289.989
142048,156666,12606,0.002,-0.962,-0.096,-0.976,0.244,0.854,289.993
142048,156528,13033,0.002,-0.959,-0.091,0.61,0.854,0.549,289.999
142055,156666,12606,0.002,-0.959,-0.086,0.61,0.854,0.549,290.003
142055,156522,13015,-0,-0.964,-0.088,1.402,1.22,0.488,290.009
142085,156666,12606,0,-0.96,-0.088,1.402,1.22,0.488,290.013
142085,156562,13044,-0,-0.955,-0.084,1.829,1.22,0.671,290.019
142065,156666,12606,-0.002,-0.961,-0.078,1.829,1.22,0.671,290.023
142065,156567,13026,-0.001,-0.959,-0.069,2.073,1.098,0.732,290.029
142091,156666,12606,-0,-0.95,-0.072,2.073,1.098,0.732,290.033
142091,156531,13037,-0.003,-0.953,-0.066,0.976,0.976,0.793,290.039
142091,156666,12606,-0.005,-0.955,-0.062,0.976,0.976,0.793,290.042
142091,156537,13019,-0.003,-0.949,-0.069,-0.61,0.488,0.671,290.049
142090,156666,12606,-0.001,-0.954,-0.07,-0.61,0.488,0.671,290.052
142090,156548,13026,-0.006,-0.955,-0.072,-2.439,-0.183,0.671,290.058
142073,156666,12606,-0.008,-0.954,-0.086,-2.439,-0.183,0.671,290.062
142073,156512,13036,-0.005,-0.955,-0.088,-3.415,-0.305,0.427,290.068
142060,156666,12606,-0.003,-0.96,-0.092,-3.415,-0.305,0.427,290.072
142060,156525,13031,-0.002,-0.964,-0.096,-2.866,-0.122,0.183,290.078
142032,156666,12606,-0.004,-0.972,-0.098,-2.866,-0.122,0.183,290.082
142032,156524,13021,-0.005,-0.972,-0.096,-1.646,0.061,0,290.088
142019,156666,12606,-0.002,-0.971,-0.093,-1.646,0.061,0,290.092
142019,156484,13010,-0.004,-0.961,-0.088,-0.427,0.427,0.305,290.098
141992,156666,12606,-0.007,-0.952,-0.093,-0.427,0.427,0.305,290.102
141992,156482,13020,-0.003,-0.954,-0.087,0.732,0.549,0.305,290.108
142011,156666,12606,0,-0.956,-0.081,0.732,0.549,0.305,290.112
142011,156451,13013,-0.002,-0.958,-0.089,1.098,0.549,0.122,290.118
142009,156666,12606,0.001,-0.961,-0.088,1.098,0.549,0.122,290.122
142009,156468,13007,0.002,-0.962,-0.084,0.915,0.427,0.061,290.128
141997,156666,12606,0.001,-0.959,-0.086,0.915,0.427,0.061,290.132
141997,156469,13020,-0.002,-0.962,-0.089,0.854,0.244,0.305,290.138
141978,156666,12606,-0.002,-0.968,-0.093,0.854,0.244,0.305,290.141
141978,156465,13016,-0.001,-0.959,-0.084,1.159,0.488,0.244,290.148
141984,156666,12606,-0.001,-0.952,-0.082,1.159,0.488,0.244,290.151
141984,156429,13007,-0.002,-0.96,-0.079,1.341,0.488,0.305,290.158
141970,156666,12606,-0.003,-0.965,-0.078,1.341,0.488,0.305,290.161
141970,156437,13029,0,-0.958,-0.08,0.915,0.61,0.305,290.167
141949,156666,12606,0,-0.955,-0.084,0.915,0.61,0.305,290.171
141949,156434,13004,0,-0.959,-0.078,0.976,0.488,0.244,290.177
141957,156666,12606,0.003,-0.962,-0.074,0.976,0.488,0.244,290.181
141957,156463,13012,-0.001,-0.957,-0.078,0.976,0.427,0.366,290.187
141941,156666,12606,0.002,-0.957,-0.085,0.976,0.427,0.366,290.191
141941,156455,12998,0.001,-0.954,-0.087,0.61,0.488,0.366,290.197
141952,156666,12606,-0.002,-0.954,-0.084,0.61,0.488,0.366,290.201
141952,156425,13005,-0.001,-0.956,-0.081,0.976,0.549,0.427,290.207
141975,156666,12606,-0.003,-0.954,-0.078,0.976,0.549,0.427,290.211
141975,156432,13004,-0.001,-0.952,-0.076,0.915,0.549,0.305,290.217
141987,156666,12606,-0.003,-0.956,-0.077,0.915,0.549,0.305,290.221
141987,156443,12997,-0,-0.956,-0.078,0.244,0.366,0.244,290.227
141946,156666,12606,0.001,-0.95,-0.072,0.244,0.366,0.244,290.23
141946,156427,13005,-0.001,-0.955,-0.084,-0.549,0.122,0.122,290.237
141925,156410,12606,-0.004,-0.966,-0.087,-0.549,0.122,0.122,290.24
141925,156409,13003,0,-0.969,-0.076,-0.854,0.244,-0.061,290.247
141920,156410,12606,0.002,-0.959,-0.078,-0.854,0.244,-0.061,290.25
141920,156379,13015,0.001,-0.95,-0.071,-0.976,-0.061,0.183,290.256
141918,156410,12606,-0.001,-0.95,-0.063,-0.976,-0.061,0.183,290.26
141918,156367,13011,-0.002,-0.95,-0.078,-2.134,-0.427,0.366,290.266
141943,156410,12606,-0.003,-0.956,-0.086,-2.134,-0.427,0.366,290.27
141943,156382,13015,-0.007,-0.964,-0.084,-2.988,-0.61,0.183,290.276
141934,156410,12606,-0.005,-0.964,-0.087,-2.988,-0.61,0.183,290.28
141934,156375,12982,-0.004,-0.964,-0.084,-2.561,-0.976,0.183,290.286
141945,156410,12606,-0.003,-0.959,-0.081,-2.561,-0.976,0.183,290.29
141945,156386,12997,-0.004,-0.956,-0.087,-2.317,-0.793,0.061,290.296
141943,156410,12606,-0.003,-0.958,-0.087,-2.317,-0.793,0.061,290.3
141943,156413,12993,-0.002,-0.959,-0.088,-2.317,-0.549,-0.305,290.306
141947,156666,12606,-0.002,-0.959,-0.088,-2.317,-0.549,-0.305,290.31
141947,156420,12994,0.001,-0.959,-0.089,-2.256,-0.305,-0.183,290.316
141934,156410,12606,0.001,-0.959,-0.089,-2.256,-0.305,-0.183,290.32
141934,156415,12984,-0.002,-0.961,-0.091,-2.134,-0.183,0,290.326
141907,156410,12606,-0.002,-0.961,-0.091,-2.134,-0.183,0,290.33
141907,156366,12995,0.001,-0.958,-0.1,-1.768,-0.244,0,290.336
141883,156410,12606,0.001,-0.958,-0.1,-1.768,-0.244,0,290.339
141883,156357,12973,0,-0.971,-0.096,-0.732,0.122,-0.183,290.346
141841,156410,12606,0,-0.971,-0.096,-0.732,0.122,-0.183,290.349
141841,156318,12999,0.001,-0.963,-0.095,-0.122,0.183,0,290.355
141855,156410,12606,0.001,-0.963,-0.095,-0.122,0.183,0,290.359
141855,156342,12977,0.001,-0.967,-0.086,1.037,0.488,0.305,290.365
141886,156410,12606,0.001,-0.967,-0.086,1.037,0.488,0.305,290.369
141886,156354,12976,0.005,-0.952,-0.082,1.524,0.732,0.366,290.375
141875,156410,12606,0.005,-0.952,-0.082,1.524,0.732,0.366,290.379
141875,156372,12997,-0.001,-0.958,-0.081,1.524,0.671,0.427,290.385
141893,156410,12606,-0.001,-0.958,-0.081,1.524,0.671,0.427,290.389
141893,156358,12986,0.009,-0.958,-0.083,1.098,0.549,0.244,290.395
141890,156410,12606,0.009,-0.958,-0.083,1.098,0.549,0.244,290.399
141890,156388,12983,0.004,-0.962,-0.087,0.976,0.488,0.244,290.405
141899,156410,12606,0.004,-0.962,-0.087,0.976,0.488,0.244,290.409
141899,156364,12976,0.004,-0.957,-0.085,1.037,0.488,0.61,290.415
141917,156410,12606,0.004,-0.957,-0.085,1.037,0.488,0.61,290.419
141917,156391,12992,0,-0.955,-0.076,0.793,0.549,0.915,290.425
141923,156410,12606,0,-0.955,-0.076,0.793,0.549,0.915,290.429
141923,156382,12973,-0.005,-0.957,-0.086,0,0.671,0.915,290.435
141926,156410,12606,-0.005,-0.957,-0.086,0,0.671,0.915,290.438
141926,156398,12989,-0.005,-0.96,-0.085,-0.061,0.915,0.793,290.445
141929,156666,12606,-0.005,-0.96,-0.085,-0.061,0.915,0.793,290.448
141929,156427,13000,-0.004,-0.962,-0.081,-0.061,0.915,0.793,290.455
141943,156666,12606,-0.004,-0.959,-0.078,0.122,0.976,0.61,290.458
141943,156430,13010,-0.004,-0.956,-0.08,0.122,0.976,0.61,290.464
141949,156666,12606,-0.006,-0.954,-0.084,0,0.976,0.61,290.468
141949,156429,12989,-0.004,-0.953,-0.084,0,0.976,0.61,290.474
141948,156666,12606,-0.002,-0.954,-0.087,-0.122,1.037,0.549,290.478
141948,156470,13012,-0.009,-0.955,-0.083,-0.122,1.037,0.549,290.484
141969,156666,12606,-0.009,-0.957,-0.083,0.061,0.976,0.549,290.488
141969,156471,12999,-0.007,-0.961,-0.083,0.061,0.976,0.549,290.494
141976,156666,12606,-0.006,-0.961,-0.079,-0.122,0.671,0.305,290.498
141976,156479,12991,-0.004,-0.953,-0.07,-0.122,0.671,0.305,290.504
141970,156666,12606,-0.005,-0.945,-0.073,-0.732,0.427,0.122,290.508
141970,156455,12996,-0.005,-0.952,-0.083,-0.732,0.427,0.122,290.514
141967,156666,12606,0.002,-0.966,-0.082,-2.073,-0.061,-0.061,290.518
141967,156481,13001,0.006,-0.965,-0.082,-2.073,-0.061,-0.061,290.524
141973,156666,12606,0.005,-0.956,-0.087,-2.317,-0.305,-0.244,290.528
141973,156446,13001,0.005,-0.957,-0.091,-2.317,-0.305,-0.244,290.534
141937,156666,12606,0.006,-0.96,-0.093,-2.195,-0.183,0,290.537
141937,156457,12981,0.006,-0.966,-0.094,-2.195,-0.183,0,290.544
141942,156666,12606,0.004,-0.97,-0.096,-1.463,0.061,0.183,290.547
141942,156419,12983,0.004,-0.97,-0.094,-1.463,0.061,0.183,290.553
141923,156666,12606,0.004,-0.961,-0.095,-0.488,0.549,0.61,290.557
141923,156425,12992,0.002,-0.956,-0.102,-0.488,0.549,0.61,290.563
141937,156410,12606,-0.001,-0.958,-0.098,0.366,0.671,0.976,290.567
141937,156409,12986,0,-0.961,-0.088,0.366,0.671,0.976,290.573
141895,156410,12606,0.003,-0.957,-0.085,1.707,1.037,0.854,290.577
141895,156403,12989,-0.001,-0.954,-0.084,1.707,1.037,0.854,290.583
141909,156666,12606,-0.001,-0.953,-0.076,1.585,1.037,0.915,290.587
141909,156416,12982,-0.004,-0.951,-0.073,1.585,1.037,0.915,290.593
141907,156410,12606,-0.004,-0.956,-0.072,0.61,0.915,0.915,290.597
141907,156405,12986,-0.003,-0.956,-0.065,0.61,0.915,0.915,290.603
141898,156410,12606,-0.004,-0.953,-0.067,-0.305,0.366,0.793,290.607
141898,156391,12986,-0.008,-0.952,-0.072,-0.305,0.366,0.793,290.613
141890,156410,12606,-0.008,-0.954,-0.076,-1.646,0.061,0.549,290.617
141890,156405,12990,-0.005,-0.958,-0.082,-1.646,0.061,0.549,290.623
141903,156666,12606,-0.007,-0.967,-0.087,-2.561,-0.061,0.061,290.627
141903,156421,12993,-0.004,-0.97,-0.087,-2.561,-0.061,0.061,290.633
141925,156666,12606,-0.004,-0.961,-0.092,-2.5,-0.488,-0.183,290.636
141925,156451,12995,-0.01,-0.96,-0.095,-2.5,-0.488,-0.183,290.643
141927,156666,12606,-0.005,-0.965,-0.098,-1.89,-0.366,-0.305,290.646
141927,156463,12999,-0.001,-0.964,-0.1,-1.89,-0.366,-0.305,290.653
141943,156666,12606,-0,-0.956,-0.095,-0.976,-0.061,-0.549,290.656
141943,156416,12993,0,-0.954,-0.097,-0.976,-0.061,-0.549,290.662
141955,156666,12606,-0.002,-0.962,-0.097,-0.305,0.122,-0.488,290.666
141955,156471,12990,-0.001,-0.964,-0.098,-0.305,0.122,-0.488,290.672
141954,156666,12606,0.002,-0.959,-0.099,0.061,0.366,-0.366,290.676
141954,156468,12998,0.007,-0.958,-0.09,0.061,0.366,-0.366,290.682
141950,156666,12606,0.006,-0.961,-0.078,0.976,0.61,-0.122,290.686
141950,156480,12995,0.004,-0.954,-0.075,0.976,0.61,-0.122,290.692
141948,156666,12606,0.006,-0.952,-0.075,0.976,0.488,0.305,290.696
141948,156465,12997,0.006,-0.952,-0.071,0.976,0.488,0.305,290.702
141967,156666,12606,0.005,-0.954,-0.073,-0.366,0.244,0.671,290.706
141967,156491,13000,-0.001,-0.955,-0.081,-0.366,0.244,0.671,290.712
141955,156666,12606,-0.002,-0.956,-0.083,-1.707,0.183,0.915,290.716
141955,156462,12985,0.003,-0.953,-0.089,-1.707,0.183,0.915,290.722
141930,156666,12606,0.001,-0.954,-0.092,-1.768,0.122,0.732,290.726
141930,156450,12992,-0,-0.964,-0.097,-1.768,0.122,0.732,290.732
141924,156666,12606,0.001,-0.968,-0.093,-1.098,0.061,0.549,290.735
141924,156425,12989,-0.003,-0.969,-0.097,-1.098,0.061,0.549,290.742
141922,156666,12606,-0.003,-0.964,-0.098,-0.244,0.183,0.671,290.745
141922,156442,12993,-0.002,-0.963,-0.092,-0.244,0.183,0.671,290.752
141927,156410,12606,-0.001,-0.957,-0.088,0.976,0.488,0.61,290.755
141927,156409,12974,-0.005,-0.948,-0.086,0.976,0.488,0.61,290.761
141892,156666,12606,-0.006,-0.948,-0.081,0.854,0.671,0.671,290.765
141892,156425,12985,-0.002,-0.965,-0.076,0.854,0.671,0.671,290.771
141894,156410,12606,0.005,-0.969,-0.084,0.427,0.305,0.488,290.775
141894,156413,12973,0.01,-0.969,-0.089,0.427,0.305,0.488,290.781
141901,156666,12606,0.006,-0.958,-0.09,0.732,0.549,0.427,290.785
141901,156425,12980,0,-0.952,-0.085,0.732,0.549,0.427,290.791
141918,156666,12606,-0.003,-0.958,-0.079,0.915,0.244,1.098,290.795
141918,156468,12993,-0.001,-0.963,-0.076,0.915,0.244,1.098,290.801
141927,156666,12606,0.004,-0.962,-0.083,0.732,0.305,0.915,290.805
141927,156430,12997,0.002,-0.957,-0.089,0.732,0.305,0.915,290.811
141911,156666,12606,-0.003,-0.957,-0.087,0.122,0.549,1.037,290.815
141911,156437,12990,-0.006,-0.96,-0.089,0.122,0.549,1.037,290.821
141914,156666,12606,-0.004,-0.96,-0.088,0.305,0.549,1.159,290.825
141914,156426,12978,-0.003,-0.955,-0.082,0.305,0.549,1.159,290.831
141910,156666,12606,-0.007,-0.953,-0.086,0.61,0.549,0.976,290.834
141910,156417,12986,-0.007,-0.957,-0.082,0.61,0.549,0.976,290.841
141924,156666,12606,-0.005,-0.955,-0.083,0.549,0.488,0.732,290.844
141924,156423,12978,-0.005,-0.96,-0.082,0.549,0.488,0.732,290.851
141912,156410,12606,-0.003,-0.962,-0.082,0.427,0.305,0.488,290.854
141912,156395,12977,-0.003,-0.958,-0.079,0.427,0.305,0.488,290.86
141884,156666,12606,-0.002,-0.954,-0.079,0.061,0.488,0.366,290.864
141884,156430,12997,-0.003,-0.955,-0.076,0.061,0.488,0.366,290.87
141899,156410,12606,-0.002,-0.956,-0.076,-0.61,0.305,0.305,290.874
141899,156404,12985,0.001,-0.959,-0.081,-0.61,0.305,0.305,290.88
141921,156410,12606,0.002,-0.959,-0.082,-1.28,0.061,0.366,290.884
141921,156396,12977,-0,-0.962,-0.089,-1.28,0.061,0.366,290.89
141891,156410,12606,-0.001,-0.964,-0.089,-1.646,-0.122,0.488,290.894
141891,156397,12976,0,-0.964,-0.093,-1.646,-0.122,0.488,290.9
141905,156410,12606,0,-0.964,-0.093,-1.646,-0.122,0.488,290.904
141905,156407,12976,0.001,-0.96,-0.098,-1.585,-0.122,0.549,290.91
141908,156666,12606,0.001,-0.96,-0.098,-1.585,-0.122,0.549,290.914
141908,156429,12981,0.003,-0.962,-0.093,-0.366,0,0.671,290.92
141924,156666,12606,0.003,-0.962,-0.093,-0.366,0,0.671,290.924
141924,156461,12989,-0.004,-0.952,-0.086,1.28,0.549,0.732,290.93
141919,156666,12606,-0.004,-0.952,-0.086,1.28,0.549,0.732,290.933
141919,156457,13003,-0.005,-0.958,-0.089,1.707,0.793,0.793,290.94
141955,156666,12606,-0.005,-0.958,-0.089,1.707,0.793,0.793,290.943
141955,156442,13002,-0.002,-0.954,-0.069,1.524,0.854,0.549,290.95
141996,156666,12606,-0.002,-0.954,-0.069,1.524,0.854,0.549,290.953
141996,156507,12989,-0.005,-0.959,-0.078,1.159,0.793,0.61,290.959
142004,156666,12606,-0.005,-0.959,-0.078,1.159,0.793,0.61,290.963
142004,156485,13005,0,-0.956,-0.079,-0.183,0.61,0.488,290.969
142015,156666,12606,0,-0.956,-0.079,-0.183,0.61,0.488,290.973
142015,156515,13015,0.001,-0.954,-0.083,-0.915,0.366,0.427,290.979
141994,156666,12606,0.001,-0.954,-0.083,-0.915,0.366,0.427,290.983
141994,156528,13007,-0.003,-0.962,-0.089,-1.28,0.366,0.488,290.989
142014,156666,12606,-0.003,-0.962,-0.089,-1.28,0.366,0.488,290.993
142014,156529,12999,0.001,-0.96,-0.088,-1.037,0.488,0.244,290.999
142014,156666,12606,0.001,-0.96,-0.088,-1.037,0.488,0.244,291.003
142014,156495,12998,-0.004,-0.957,-0.088,-0.427,0.488,0.366,291.009
142004,156666,12606,-0.004,-0.957,-0.088,-0.427,0.488,0.366,291.013
142004,156503,12991,-0.001,-0.962,-0.089,-0.427,0.366,0.549,291.019
142010,156666,12606,-0.001,-0.962,-0.089,-0.427,0.366,0.549,291.023
142010,156505,13006,-0.006,-0.957,-0.09,0.122,0.61,0.427,291.029
142017,156666,12606,-0.006,-0.957,-0.09,0.122,0.61,0.427,291.032
142017,156502,13004,-0.005,-0.961,-0.089,0.061,0.732,0.488,291.039
142007,156666,12606,-0.005,-0.961,-0.089,0.061,0.732,0.488,291.042
142007,156499,13004,-0.005,-0.962,-0.085,0.244,0.732,0.305,291.049
142017,156666,12606,-0.003,-0.961,-0.084,0.244,0.732,0.305,291.052
142017,156539,13003,-0.005,-0.956,-0.077,0.732,0.976,0.122,291.058
142031,156666,12606,-0.006,-0.956,-0.079,0.732,0.976,0.122,291.062
142031,156553,13002,-0.008,-0.957,-0.081,0,0.549,0.183,291.068
142029,156666,12606,-0.005,-0.957,-0.079,0,0.549,0.183,291.072
142029,156566,13011,-0.004,-0.957,-0.078,-0.671,0.427,0,291.078
142057,156666,12606,-0.004,-0.953,-0.082,-0.671,0.427,0,291.082
142057,156563,13008,-0.004,-0.959,-0.085,-1.341,0.183,-0.183,291.088
142045,156666,12606,-0.004,-0.962,-0.091,-1.341,0.183,-0.183,291.092
142045,156557,13000,0.001,-0.961,-0.093,-1.159,0,-0.244,291.098
142039,156666,12606,0.003,-0.958,-0.083,-1.159,0,-0.244,291.102
142039,156554,12992,-0,-0.953,-0.085,-0.61,0.061,-0.061,291.108
142045,156666,12606,-0.002,-0.949,-0.088,-0.61,0.061,-0.061,291.112
142045,156534,13018,0,-0.956,-0.089,-0.549,-0.122,0.183,291.118
142054,156666,12606,0.002,-0.965,-0.095,-0.549,-0.122,0.183,291.122
142054,156573,13010,0.004,-0.97,-0.097,-0.549,-0.305,0.244,291.128
142061,156666,12606,0.002,-0.972,-0.09,-0.549,-0.305,0.244,291.131
142061,156583,13016,0.003,-0.963,-0.082,0.427,-0.061,0.366,291.138
142074,156666,12606,0.002,-0.951,-0.084,0.427,-0.061,0.366,291.141
142074,156581,13006,-0.002,-0.951,-0.089,-0.122,0.061,0.671,291.148
142064,156666,12606,-0.001,-0.956,-0.095,-0.122,0.061,0.671,291.151
142064,156603,13005,0.002,-0.961,-0.095,-0.061,0.549,0.305,291.157
142057,156666,12606,0.005,-0.963,-0.086,-0.061,0.549,0.305,291.161
142057,156596,12996,0.002,-0.962,-0.08,1.037,1.037,0.183,291.167
142048,156666,12606,-0.001,-0.963,-0.084,1.037,1.037,0.183,291.171
142048,156561,12999,0.001,-0.959,-0.086,0.915,1.159,0.305,291.177
142021,156666,12606,0.001,-0.957,-0.082,0.915,1.159,0.305,291.181
142021,156558,12997,0,-0.955,-0.084,0.549,1.037,0.305,291.187
142037,156666,12606,-0.003,-0.963,-0.085,0.549,1.037,0.305,291.191
142037,156590,12998,-0.002,-0.96,-0.086,0.549,1.22,0.244,291.197
142042,156666,12606,0.001,-0.952,-0.084,0.549,1.22,0.244,291.201
142042,156557,13002,-0.002,-0.953,-0.078,0.549,0.915,0.305,291.207
142055,156666,12606,-0.002,-0.959,-0.073,0.549,0.915,0.305,291.211
142055,156574,13011,-0.005,-0.952,-0.077,0.305,0.488,0.549,291.217
142064,156666,12606,-0.002,-0.946,-0.085,0.305,0.488,0.549,291.221
142064,156601,13028,-0.002,-0.953,-0.091,-0.305,0.427,0.488,291.227
142097,156666,12606,-0.001,-0.972,-0.092,-0.305,0.427,0.488,291.23
142097,156629,13020,0.002,-0.977,-0.099,0.122,0.793,0.305,291.237
142060,156666,12606,0.003,-0.969,-0.085,0.122,0.793,0.305,291.24
142060,156602,13005,0,-0.953,-0.074,0.61,0.549,0.671,291.247
142061,156666,12606,-0.006,-0.942,-0.063,0.61,0.549,0.671,291.25
142061,156600,13007,-0.008,-0.943,-0.07,-0.244,0.183,1.037,291.256
142064,156666,12606,-0.008,-0.948,-0.073,-0.244,0.183,1.037,291.26
142064,156601,13011,-0.001,-0.951,-0.08,-1.707,-0.122,0.488,291.266
142068,156666,12606,-0.001,-0.954,-0.087,-1.707,-0.122,0.488,291.27
142068,156572,13011,-0.005,-0.965,-0.092,-2.195,-0.122,0.244,291.276
142063,156666,12606,-0.002,-0.972,-0.096,-2.195,-0.122,0.244,291.28
142063,156605,13000,0.005,-0.972,-0.094,-1.585,0.061,0.183,291.286
142038,156666,12606,0.002,-0.964,-0.089,-1.585,0.061,0.183,291.29
142038,156588,12994,-0.004,-0.956,-0.083,-0.549,0.122,0.488,291.296
142059,156666,12606,-0.003,-0.955,-0.094,-0.549,0.122,0.488,291.3
142059,156583,13010,-0.003,-0.958,-0.099,-0.366,0.61,0.671,291.306
142033,156666,12606,0.002,-0.961,-0.097,-0.366,0.61,0.671,291.31
142033,156567,13009,0.001,-0.961,-0.086,0.549,0.671,0.549,291.316
142019,156666,12606,-0.001,-0.958,-0.08,0.549,0.671,0.549,291.32
142019,156553,13004,-0.001,-0.96,-0.081,1.22,0.549,0.61,291.326
142038,156666,12606,-0.007,-0.958,-0.081,1.22,0.549,0.61,291.329
142038,156557,13008,-0.004,-0.957,-0.086,0.671,0.793,0.61,291.336
142036,156666,12606,-0.002,-0.955,-0.084,0.671,0.793,0.61,291.339
142036,156557,13009,-0.001,-0.959,-0.079,0.488,0.793,0.549,291.346
142055,156666,12606,-0.003,-0.955,-0.082,0.488,0.793,0.549,291.349
142055,156564,13009,-0.005,-0.956,-0.082,0.244,0.366,0.61,291.355
142064,156666,12606,-0.004,-0.96,-0.084,0.244,0.366,0.61,291.359
142064,156616,13013,-0.002,-0.954,-0.085,-0.305,0.366,0.366,291.365
142038,156666,12606,-0.004,-0.958,-0.087,-0.305,0.366,0.366,291.369
142038,156596,13011,-0.003,-0.96,-0.084,-0.061,0.366,0.122,291.375
142043,156666,12606,-0.005,-0.961,-0.082,-0.061,0.366,0.122,291.379
142043,156591,13017,-0.003,-0.958,-0.082,-0.122,0.244,0.305,291.385
142031,156666,12606,-0.004,-0.956,-0.081,-0.122,0.244,0.305,291.389
142031,156567,13013,-0.004,-0.952,-0.08,-0.488,0.183,0.244,291.395
142059,156666,12606,-0.006,-0.954,-0.078,-0.488,0.183,0.244,291.399
142059,156605,13009,-0.002,-0.953,-0.074,-1.037,0.244,0.061,291.405
142079,156666,12606,-0.001,-0.959,-0.077,-1.037,0.244,0.061,291.409
142079,156578,13000,-0.001,-0.962,-0.076,-2.195,0.183,-0.244,291.415
142069,156666,12606,0.002,-0.962,-0.07,-2.195,0.183,-0.244,291.419
142069,156598,13025,-0.004,-0.957,-0.074,-3.232,-0.122,-0.183,291.425
142104,156666,12606,-0.002,-0.953,-0.079,-3.232,-0.122,-0.183,291.428
142104,156615,13032,-0.004,-0.95,-0.098,-4.573,-0.732,-0.122,291.435
142125,156666,12606,-0.003,-0.96,-0.105,-4.573,-0.732,-0.122,291.438
142125,156625,13008,0.001,-0.971,-0.109,-4.207,-0.732,-0.305,291.445
142128,156666,12606,0.004,-0.974,-0.113,-4.207,-0.732,-0.305,291.448
142128,156648,13025,0.005,-0.974,-0.111,-2.012,-0.427,-0.122,291.454
142125,156666,12606,0.006,-0.97,-0.109,-2.012,-0.427,-0.122,291.458
142125,156636,13005,0.003,-0.965,-0.104,0.732,0.061,0.427,291.464
142092,156666,12606,-0,-0.96,-0.097,0.732,0.061,0.427,291.468
142092,156653,13027,0.001,-0.957,-0.09,2.988,0.854,0.732,291.474
142092,156666,12606,0.007,-0.956,-0.085,2.988,0.854,0.732,291.478
142092,156632,13022,0.002,-0.957,-0.082,3.537,1.159,0.793,291.484
142095,156666,12606,0.002,-0.963,-0.081,3.537,1.159,0.793,291.488
142095,156592,13033,0.002,-0.961,-0.075,3.354,1.463,0.671,291.494
142109,156666,12606,0.002,-0.961,-0.075,3.354,1.463,0.671,291.498
142109,156620,13019,-0.002,-0.951,-0.085,2.683,1.22,0.854,291.504
142108,156666,12606,-0.002,-0.951,-0.085,2.683,1.22,0.854,291.508
142108,156607,13032,-0.001,-0.957,-0.081,1.768,1.037,0.915,291.514
142104,156666,12606,-0.001,-0.957,-0.081,1.768,1.037,0.915,291.518
142104,156622,13018,-0.007,-0.953,-0.077,1.585,1.037,0.854,291.524
142080,156666,12606,-0.007,-0.953,-0.077,1.585,1.037,0.854,291.528
142080,156635,13032,-0.01,-0.952,-0.079,0.732,0.61,0.793,291.534
142082,156666,12606,-0.01,-0.952,-0.079,0.732,0.61,0.793,291.537
142082,156600,13020,-0.005,-0.954,-0.081,-0.122,0.488,0.366,291.544
142047,156666,12606,-0.005,-0.954,-0.081,-0.122,0.488,0.366,291.547
142047,156587,13036,-0.009,-0.951,-0.07,-0.61,0.305,0.122,291.553
142043,156666,12606,-0.009,-0.951,-0.07,-0.61,0.305,0.122,291.557
142043,156601,13027,-0.002,-0.958,-0.078,-1.646,0.061,-0.061,291.563
142046,156666,12606,-0.002,-0.958,-0.078,-1.646,0.061,-0.061,291.567
142046,156570,13018,0.002,-0.961,-0.077,-2.5,-0.183,-0.244,291.573
142034,156666,12606,0.002,-0.961,-0.077,-2.5,-0.183,-0.244,291.577
142034,156591,13010,0.001,-0.954,-0.09,-3.049,-0.366,0.244,291.583
142054,156666,12606,0.001,-0.954,-0.09,-3.049,-0.366,0.244,291.587
142054,156568,13004,-0,-0.972,-0.101,-2.805,-0.183,0.305,291.593
142044,156666,12606,-0,-0.972,-0.101,-2.805,-0.183,0.305,291.597
142044,156597,13012,0,-0.964,-0.098,-1.037,0.122,0.61,291.603
142049,156666,12606,0,-0.964,-0.098,-1.037,0.122,0.61,291.607
142049,156574,13013,-0.004,-0.952,-0.08,0.122,0.305,0.915,291.613
142035,156666,12606,-0.004,-0.952,-0.08,0.122,0.305,0.915,291.617
142035,156585,13003,-0.002,-0.961,-0.086,-0.366,0.488,0.488,291.623
142042,156666,12606,-0.002,-0.961,-0.086,-0.366,0.488,0.488,291.626
142042,156593,13010,-0.004,-0.951,-0.087,-0.61,0.61,0.183,291.633
142018,156666,12606,-0.004,-0.951,-0.087,-0.61,0.61,0.183,291.636
142018,156589,13014,-0.007,-0.954,-0.089,-0.61,0.61,0.183,291.643
142049,156666,12606,-0.001,-0.965,-0.083,-0.122,0.61,0.122,291.646
142049,156547,13016,-0,-0.964,-0.078,-0.122,0.61,0.122,291.652
142053,156666,12606,0.002,-0.961,-0.081,0.183,0.366,0,291.656
142053,156571,13021,-0,-0.966,-0.087,0.183,0.366,0,291.662
142057,156666,12606,-0.002,-0.962,-0.093,-0.305,0.366,0.183,291.666
142057,156576,13023,0.001,-0.961,-0.095,-0.305,0.366,0.183,291.672
142048,156666,12606,-0,-0.959,-0.093,0,0.366,0.305,291.676
142048,156554,13026,-0.002,-0.958,-0.09,0,0.366,0.305,291.682
142027,156666,12606,-0.003,-0.958,-0.087,0.671,0.549,0.427,291.686
142027,156568,13011,-0.005,-0.952,-0.083,0.671,0.549,0.427,291.692
142028,156666,12606,-0.005,-0.95,-0.084,0.488,0.671,0.488,291.696
142028,156571,13009,-0.004,-0.958,-0.086,0.488,0.671,0.488,291.702
141989,156666,12606,-0.001,-0.961,-0.083,0.122,0.793,0.244,291.706
141989,156529,13015,-0.001,-0.965,-0.087,0.122,0.793,0.244,291.712
141969,156666,12606,-0.003,-0.966,-0.087,0.183,0.854,0.183,291.716
141969,156492,13024,-0,-0.959,-0.089,0.183,0.854,0.183,291.722
141937,156666,12606,-0.002,-0.955,-0.085,0.183,0.61,0.427,291.726
141937,156495,13008,-0.003,-0.956,-0.085,0.183,0.61,0.427,291.732
141943,156666,12606,-0.002,-0.957,-0.083,0.183,0.427,0.488,291.735
141943,156464,13000,-0.001,-0.955,-0.082,0.183,0.427,0.488,291.742
141972,156666,12606,-0.002,-0.951,-0.088,0,0.427,0.366,291.745
141972,156494,12987,-0.002,-0.957,-0.088,0,0.427,0.366,291.751
141983,156666,12606,-0.003,-0.96,-0.08,0.305,0.549,0.305,291.755
141983,156512,13001,-0.003,-0.958,-0.08,0.305,0.549,0.305,291.761
141986,156666,12606,-0.002,-0.952,-0.085,0.488,0.61,0.122,291.765
141986,156497,13007,-0.005,-0.95,-0.085,0.488,0.61,0.122,291.771
141975,156666,12606,0.003,-0.955,-0.089,0.122,0.671,0.122,291.775
141975,156503,13014,0.004,-0.967,-0.083,0.122,0.671,0.122,291.781
142003,156666,12606,0.004,-0.964,-0.083,0.244,0.671,-0.122,291.785
142003,156521,12991,0.004,-0.961,-0.092,0.244,0.671,-0.122,291.791
141986,156666,12606,0.002,-0.964,-0.094,0.183,0.549,0.122,291.795
141986,156541,13002,0.003,-0.963,-0.083,0.183,0.549,0.122,291.801
141980,156666,12606,0.008,-0.956,-0.083,0.488,0.305,0.488,291.805
141980,156525,13010,0.005,-0.952,-0.08,0.488,0.305,0.488,291.811
141998,156666,12606,-0,-0.953,-0.08,0.061,0.427,0.976,291.815
141998,156524,12997,-0.002,-0.953,-0.082,0.061,0.427,0.976,291.821
141984,156666,12606,0,-0.956,-0.082,-0.427,0.671,0.976,291.825
141984,156519,13008,-0.001,-0.958,-0.081,-0.427,0.671,0.976,291.831
142007,156666,12606,-0.005,-0.955,-0.083,-0.549,0.427,0.976,291.834
142007,156520,13008,-0.005,-0.955,-0.082,-0.549,0.427,0.976,291.841
142001,156666,12606,-0.004,-0.955,-0.084,-1.098,0.61,0.793,291.844
142001,156517,12990,-0.006,-0.958,-0.083,-1.098,0.61,0.793,291.851
141992,156666,12606,-0.005,-0.959,-0.086,-1.463,0.671,0.488,291.854
141992,156521,13006,-0.006,-0.964,-0.084,-1.463,0.671,0.488,291.86
141974,156666,12606,-0.007,-0.962,-0.083,-1.524,0.488,0.305,291.864
141974,156491,12993,-0.007,-0.962,-0.086,-1.524,0.488,0.305,291.87
141983,156666,12606,-0.008,-0.962,-0.092,-1.402,0.244,0.183,291.874
141983,156506,12996,-0.005,-0.964,-0.098,-1.402,0.244,0.183,291.88
141992,156666,12606,-0.006,-0.964,-0.095,-0.915,0.061,-0.183,291.884
141992,156522,12993,-0.003,-0.963,-0.09,-0.915,0.061,-0.183,291.89
141991,156666,12606,0,-0.959,-0.087,0,0.061,-0.244,291.894
141991,156498,12996,-0.002,-0.955,-0.086,0,0.061,-0.244,291.9
141993,156666,12606,0.003,-0.956,-0.08,0.244,0.244,-0.244,291.904
141993,156532,13008,0.005,-0.957,-0.083,0.244,0.244,-0.244,291.91
141953,156666,12606,0.005,-0.958,-0.087,-0.549,0.244,-0.061,291.914
141953,156501,12998,0.006,-0.96,-0.086,-0.549,0.244,-0.061,291.92
141943,156666,12606,0.006,-0.957,-0.087,-0.732,0.244,0.183,291.924
141943,156496,12999,0.005,-0.957,-0.091,-0.732,0.244,0.183,291.93
141936,156666,12606,0.001,-0.959,-0.095,-0.732,0.244,0.671,291.933
141936,156482,12987,-0,-0.957,-0.094,-0.732,0.244,0.671,291.94
141942,156666,12606,-0.003,-0.959,-0.092,-0.366,0.427,0.854,291.943
141942,156508,12995,-0.003,-0.958,-0.092,-0.366,0.427,0.854,291.949
141963,156666,12606,-0.002,-0.96,-0.095,0.366,0.305,0.915,291.953
141963,156499,13015,-0.009,-0.968,-0.095,0.366,0.305,0.915,291.959
141995,156666,12606,-0.008,-0.965,-0.088,1.28,0.61,0.732,291.963
141995,156509,13002,-0.004,-0.958,-0.085,1.28,0.61,0.732,291.969
142007,156666,12606,-0.009,-0.957,-0.083,1.951,0.793,0.488,291.973
142007,156518,12999,-0.008,-0.955,-0.08,1.951,0.793,0.488,291.979
142011,156666,12606,-0.005,-0.954,-0.079,1.829,0.915,0.183,291.983
142011,156534,12993,-0,-0.957,-0.078,1.829,0.915,0.183,291.989
141977,156666,12606,0.001,-0.956,-0.076,1.28,0.854,-0.244,291.993
141977,156530,13000,0,-0.959,-0.083,1.28,0.854,-0.244,291.999
141975,156666,12606,0.003,-0.958,-0.083,0.793,0.793,-0.366,292.003
141975,156541,13002,0.001,-0.959,-0.079,0.793,0.793,-0.366,292.009
141988,156666,12606,0.005,-0.956,-0.074,0.61,0.915,-0.061,292.013
141988,156553,13000,0.001,-0.952,-0.075,0.61,0.915,-0.061,292.019
142003,156666,12606,-0,-0.951,-0.076,-0.061,0.793,0.183,292.023
142003,156557,13018,0.001,-0.954,-0.076,-0.061,0.793,0.183,292.029
142032,156666,12606,-0,-0.955,-0.085,-1.037,0.366,0.488,292.032
142032,156563,13016,-0.002,-0.959,-0.092,-1.037,0.366,0.488,292.039
142021,156666,12606,-0,-0.958,-0.091,-1.341,0.244,0.61,292.042
142021,156556,13020,-0,-0.965,-0.1,-1.341,0.244,0.61,292.049
142018,156666,12606,-0.002,-0.972,-0.1,-0.61,0.122,0.61,292.052
142018,156566,13011,-0.002,-0.968,-0.09,-0.61,0.122,0.61,292.058
142010,156666,12606,-0.005,-0.959,-0.083,0.61,-0.061,0.732,292.062
142010,156557,13008,-0.003,-0.954,-0.078,0.61,-0.061,0.732,292.068
142026,156666,12606,-0.004,-0.947,-0.077,0.793,-0.061,0.671,292.072
142026,156562,13015,-0.004,-0.948,-0.077,0.793,-0.061,0.671,292.078
142023,156666,12606,-0.004,-0.952,-0.074,-0.305,-0.061,0.244,292.082
142023,156575,12999,-0.001,-0.955,-0.074,-0.305,-0.061,0.244,292.088
142032,156666,12606,-0.001,-0.955,-0.074,-0.305,-0.061,0.244,292.092
142032,156581,13018,-0.001,-0.957,-0.079,-1.098,-0.183,0.061,292.098
142021,156666,12606,-0.001,-0.957,-0.079,-1.098,-0.183,0.061,292.102
142021,156542,13016,0.001,-0.958,-0.085,-1.951,0.122,0.061,292.108
142007,156666,12606,0.001,-0.958,-0.085,-1.951,0.122,0.061,292.112
142007,156549,13021,0.002,-0.962,-0.091,-2.195,0.427,0,292.118
141985,156666,12606,0.002,-0.962,-0.091,-2.195,0.427,0,292.122
141985,156514,13000,0.001,-0.957,-0.085,-1.585,0.549,0.244,292.128
141960,156666,12606,0.001,-0.957,-0.085,-1.585,0.549,0.244,292.131
141960,156487,12985,-0.004,-0.955,-0.093,-0.793,0.549,0.61,292.138
141934,156666,12606,-0.004,-0.955,-0.093,-0.793,0.549,0.61,292.141
141934,156492,13014,-0.004,-0.962,-0.094,-0.488,0.793,0.61,292.148
141947,156666,12606,-0.004,-0.962,-0.094,-0.488,0.793,0.61,292.151
141947,156512,13012,-0.007,-0.962,-0.087,-0.061,0.793,0.61,292.157
141974,156666,12606,-0.007,-0.962,-0.087,-0.061,0.793,0.61,292.161
141974,156539,13017,-0.005,-0.959,-0.086,0.488,0.915,0.488,292.167
142005,156666,12606,-0.005,-0.959,-0.086,0.488,0.915,0.488,292.171
142005,156543,12995,-0.009,-0.956,-0.08,0.427,0.549,0.427,292.177
142026,156666,12606,-0.009,-0.956,-0.08,0.427,0.549,0.427,292.181
142026,156583,13013,-0.002,-0.962,-0.083,-0.183,0.244,0.305,292.187
142056,156666,12606,-0.002,-0.962,-0.083,-0.183,0.244,0.305,292.191
142056,156566,13018,-0.001,-0.946,-0.082,-0.305,0.183,0.061,292.197
142043,156666,12606,-0.001,-0.946,-0.082,-0.305,0.183,0.061,292.201
142043,156587,13006,-0.001,-0.961,-0.088,-1.159,0.061,0.061,292.207
142047,156666,12606,-0.001,-0.961,-0.088,-1.159,0.061,0.061,292.211
142047,156551,13008,0.004,-0.957,-0.092,-1.341,0.183,-0.244,292.217
142049,156666,12606,0.004,-0.957,-0.092,-1.341,0.183,-0.244,292.221
142049,156560,13021,0.002,-0.962,-0.092,-0.793,0.366,-0.183,292.227
142017,156666,12606,0.002,-0.962,-0.092,-0.793,0.366,-0.183,292.23
142017,156560,13030,0.003,-0.965,-0.085,0.183,0.427,0.061,292.237
142013,156666,12606,0.004,-0.96,-0.08,0.183,0.427,0.061,292.24
142013,156574,13012,0.003,-0.952,-0.088,0.793,0.488,0.366,292.247
142018,156666,12606,-0,-0.952,-0.086,0.793,0.488,0.366,292.25
142018,156547,12997,0.002,-0.959,-0.083,0.61,0.732,0.488,292.256
142024,156666,12606,0.004,-0.962,-0.08,0.61,0.732,0.488,292.26
142024,156549,13017,0.002,-0.963,-0.084,0.183,0.488,0.427,292.266
142031,156666,12606,-0.001,-0.963,-0.092,0.183,0.488,0.427,292.27
142031,156579,12997,-0.001,-0.965,-0.094,-0.488,0.305,0.671,292.276
142082,156666,12606,0.002,-0.962,-0.091,-0.488,0.305,0.671,292.28
142082,156623,13018,0.002,-0.962,-0.09,0.122,0.61,0.549,292.286
142074,156666,12606,0.002,-0.958,-0.081,0.122,0.61,0.549,292.29
142074,156632,13013,0,-0.954,-0.085,0.732,0.671,0.549,292.296
142056,156666,12606,-0,-0.955,-0.089,0.732,0.671,0.549,292.3
142056,156615,13008,-0.002,-0.958,-0.085,0.671,0.671,0.61,292.306
142064,156666,12606,-0.001,-0.957,-0.082,0.671,0.671,0.61,292.31
142064,156598,13008,-0.001,-0.957,-0.077,0.732,0.549,0.732,292.316
142056,156666,12606,-0.007,-0.957,-0.071,0.732,0.549,0.732,292.32
142056,156596,13010,-0.007,-0.957,-0.077,-0.183,0.549,0.793,292.326
142048,156666,12606,-0.009,-0.952,-0.086,-0.183,0.549,0.793,292.329
142048,156616,13029,-0.009,-0.957,-0.092,-1.22,0.366,0.549,292.336
142075,156666,12606,-0.008,-0.967,-0.089,-1.22,0.366,0.549,292.339
142075,156607,13009,-0.007,-0.96,-0.091,-0.915,0.183,0.305,292.346
142073,156666,12606,-0.007,-0.953,-0.094,-0.915,0.183,0.305,292.349
142073,156619,13024,-0.005,-0.959,-0.091,-0.549,0.061,0.366,292.355
142088,156666,12606,-0.005,-0.964,-0.096,-0.549,0.061,0.366,292.359
142088,156602,13019,-0.004,-0.969,-0.097,-0.244,0.183,0.183,292.365
142079,156666,12606,-0.001,-0.96,-0.09,-0.244,0.183,0.183,292.369
142079,156621,13016,-0.001,-0.949,-0.09,0.549,0.366,0.183,292.375
142060,156666,12606,-0.002,-0.959,-0.087,0.549,0.366,0.183,292.379
142060,156592,13019,0.003,-0.96,-0.082,1.037,0.549,0.244,292.385
142047,156666,12606,0.005,-0.957,-0.076,1.037,0.549,0.244,292.389
142047,156596,13018,0.004,-0.955,-0.075,0.732,0.366,0.366,292.395
142046,156666,12606,0,-0.956,-0.087,0.732,0.366,0.366,292.399
142046,156613,13025,0,-0.962,-0.089,-0.244,0.183,0.305,292.405
142060,156666,12606,0.005,-0.968,-0.089,-0.244,0.183,0.305,292.409
142060,156594,13020,0.004,-0.964,-0.091,-0.427,0.244,0.427,292.415
142088,156666,12606,-0.001,-0.964,-0.094,-0.427,0.244,0.427,292.419
142088,156571,13034,0.001,-0.964,-0.093,0.183,0.427,0.61,292.425
142061,156666,12606,0.002,-0.96,-0.094,0.183,0.427,0.61,292.428
142061,156589,13016,-0.005,-0.954,-0.087,0.915,0.61,0.549,292.435
142061,156666,12606,-0.005,-0.961,-0.087,0.915,0.61,0.549,292.438
142061,156605,13020,0.002,-0.96,-0.085,1.159,0.671,0.549,292.445
142036,156666,12606,0.002,-0.955,-0.082,1.159,0.671,0.549,292.448
142036,156567,13021,-0.001,-0.952,-0.082,1.098,0.732,0.427,292.454
142024,156666,12606,-0.001,-0.955,-0.079,1.098,0.732,0.427,292.458
142024,156548,13020,0.002,-0.956,-0.081,0.488,0.61,0.427,292.464
142014,156666,12606,0.005,-0.963,-0.08,0.488,0.61,0.427,292.468
142014,156567,13010,0.003,-0.957,-0.079,-0.183,0.427,0.427,292.474
142002,156666,12606,0.004,-0.955,-0.08,-0.183,0.427,0.427,292.478
142002,156530,13008,0.002,-0.956,-0.081,-0.488,0.366,0.732,292.484
142042,156666,12606,-0.001,-0.957,-0.076,-0.488,0.366,0.732,292.488
142042,156573,12997,-0.001,-0.957,-0.077,-0.854,0.427,0.915,292.494
142018,156666,12606,-0.005,-0.955,-0.075,-0.854,0.427,0.915,292.498
142018,156583,13030,-0.006,-0.957,-0.087,-1.402,0.244,0.793,292.504
142046,156666,12606,-0.008,-0.962,-0.09,-1.402,0.244,0.793,292.508
142046,156591,13016,-0.006,-0.961,-0.089,-1.768,0.122,0.61,292.514
142071,156666,12606,-0.007,-0.957,-0.093,-1.768,0.122,0.61,292.518
142071,156588,13015,-0.005,-0.958,-0.095,-1.768,-0.244,0.61,292.524
142052,156666,12606,-0.007,-0.965,-0.094,-1.768,-0.244,0.61,292.527
142052,156581,13014,-0.005,-0.967,-0.093,-0.732,0.122,0.305,292.534
142031,156666,12606,-0.006,-0.965,-0.092,-0.732,0.122,0.305,292.537
142031,156587,13009,-0.002,-0.964,-0.083,0.244,0.427,0.122,292.544
142038,156666,12606,-0,-0.957,-0.078,0.244,0.427,0.122,292.547
142038,156580,13019,-0.006,-0.953,-0.077,0,0.366,0.061,292.553
142036,156666,12606,-0.005,-0.953,-0.081,0,0.366,0.061,292.557
142036,156574,13018,-0.002,-0.958,-0.087,-0.915,0.366,-0.061,292.563
142039,156666,12606,-0.003,-0.959,-0.083,-0.915,0.366,-0.061,292.567
142039,156575,13018,-0.002,-0.959,-0.099,-0.671,0.366,-0.244,292.573
142029,156666,12606,0.004,-0.965,-0.091,-0.671,0.366,-0.244,292.577
142029,156585,12998,0.001,-0.966,-0.091,-0.122,0.366,-0.061,292.583
142027,156666,12606,0.001,-0.964,-0.092,-0.122,0.366,-0.061,292.587
142027,156576,13017,-0.001,-0.961,-0.085,0.488,0.122,0.244,292.593
141993,156666,12606,-0.002,-0.957,-0.083,0.488,0.122,0.244,292.597
141993,156537,13003,-0.003,-0.953,-0.087,0.732,0.122,0.488,292.603
141987,156666,12606,-0.003,-0.953,-0.089,0.732,0.122,0.488,292.607
141987,156544,12996,-0.002,-0.96,-0.086,0.61,0.61,0.061,292.613
141962,156666,12606,0,-0.959,-0.086,0.61,0.61,0.061,292.617
141962,156498,13003,-0,-0.954,-0.087,0.549,0.671,0,292.623
141976,156666,12606,0.003,-0.962,-0.092,0.549,0.671,0,292.626
141976,156505,12994,0.003,-0.964,-0.088,0.61,0.732,0.122,292.633
141985,156666,12606,0.002,-0.957,-0.085,0.61,0.732,0.122,292.636
141985,156534,13003,0.002,-0.956,-0.084,1.098,0.915,0.366,292.643
141999,156666,12606,0.002,-0.956,-0.083,1.098,0.915,0.366,292.646
141999,156558,13008,0.004,-0.958,-0.081,1.098,0.915,0.488,292.652
142037,156666,12606,0.004,-0.956,-0.077,1.098,0.915,0.488,292.656
142037,156564,13012,0.002,-0.948,-0.077,0.915,0.732,0.61,292.662
142053,156666,12606,-0,-0.953,-0.084,0.915,0.732,0.61,292.666
142053,156583,13021,0.003,-0.96,-0.086,0.305,0.427,0.671,292.672
142041,156666,12606,0.002,-0.963,-0.08,0.305,0.427,0.671,292.676
142041,156639,13024,0.001,-0.961,-0.079,-0.122,0.366,0.732,292.682
142079,156666,12606,0.001,-0.961,-0.079,-0.122,0.366,0.732,292.686
142079,156626,13020,-0.001,-0.954,-0.085,-0.61,0.244,0.793,292.692
142108,156666,12606,-0.001,-0.954,-0.085,-0.61,0.244,0.793,292.696
142108,156605,13023,-0.007,-0.965,-0.085,-0.915,0.244,0.732,292.702
142091,156666,12606,-0.007,-0.965,-0.085,-0.915,0.244,0.732,292.706
142091,156633,13024,-0.005,-0.955,-0.088,-1.159,0.183,0.671,292.712
142107,156666,12606,-0.005,-0.955,-0.088,-1.159,0.183,0.671,292.716
142107,156657,13035,-0.007,-0.963,-0.087,-1.098,0.366,0.366,292.722
142121,156922,12606,-0.007,-0.963,-0.087,-1.098,0.366,0.366,292.725
142121,156683,13027,-0.005,-0.958,-0.094,-0.549,0.366,0.122,292.732
142121,156666,12606,-0.005,-0.958,-0.094,-0.549,0.366,0.122,292.735
142121,156650,13025,0.001,-0.966,-0.092,0,0.305,0.061,292.742
142135,156666,12606,0.001,-0.966,-0.092,0,0.305,0.061,292.745
142135,156664,13025,-0.001,-0.958,-0.082,0.732,0.427,0.244,292.751
142128,156666,12606,-0.001,-0.958,-0.082,0.732,0.427,0.244,292.755
142128,156654,13032,0,-0.947,-0.07,0.854,0.488,0.427,292.761
142137,156666,12606,0,-0.947,-0.07,0.854,0.488,0.427,292.765
142137,156654,13020,-0.004,-0.952,-0.082,-0.305,0.427,0.366,292.771
142076,156666,12606,-0.004,-0.952,-0.082,-0.305,0.427,0.366,292.775
142076,156597,13018,-0.004,-0.956,-0.086,-1.28,0.305,0.366,292.781
142040,156666,12606,-0.004,-0.956,-0.086,-1.28,0.305,0.366,292.785
142040,156571,13007,-0.005,-0.964,-0.084,-1.341,0.366,0.305,292.791
142029,156666,12606,-0.005,-0.964,-0.084,-1.341,0.366,0.305,292.795
142029,156537,12997,-0,-0.956,-0.078,-1.646,0.061,0.244,292.801
142031,156666,12606,-0,-0.956,-0.078,-1.646,0.061,0.244,292.805
142031,156546,13006,-0.005,-0.954,-0.095,-2.073,-0.061,0.305,292.811
142020,156666,12606,-0.005,-0.954,-0.095,-2.073,-0.061,0.305,292.815
142020,156581,13006,-0.002,-0.969,-0.102,-1.524,-0.122,0.183,292.821
142032,156666,12606,-0.002,-0.969,-0.102,-1.524,-0.122,0.183,292.824
142032,156573,13013,0.001,-0.978,-0.094,-1.524,-0.122,0.183,292.831
142077,156666,12606,0.004,-0.968,-0.091,0.061,0.366,0,292.834
142077,156594,13004,0.004,-0.949,-0.087,0.061,0.366,0,292.841
142107,156666,12606,0,-0.955,-0.077,0.732,0.427,0.366,292.844
142107,156618,13021,-0.001,-0.963,-0.09,0.732,0.427,0.366,292.85
142127,156922,12606,0.001,-0.964,-0.094,0.549,0.549,0.549,292.854
142127,156679,13014,0.002,-0.957,-0.086,0.549,0.549,0.549,292.86
142175,156922,12606,-0.003,-0.951,-0.087,0.61,0.549,0.671,292.864
142175,156674,13027,-0.005,-0.959,-0.09,0.61,0.549,0.671,292.87
142158,156922,12606,-0.003,-0.97,-0.089,0.732,0.61,0.671,292.874
142158,156676,13021,0.003,-0.964,-0.084,0.732,0.61,0.671,292.88
142145,156922,12606,0.002,-0.955,-0.085,0.793,0.61,0.732,292.884
142145,156677,13030,-0.004,-0.952,-0.085,0.793,0.61,0.732,292.89
142129,156666,12606,-0.007,-0.955,-0.089,0.976,0.488,0.976,292.894
142129,156667,13035,-0.005,-0.954,-0.085,0.976,0.488,0.976,292.9
142130,156922,12606,-0.004,-0.953,-0.077,1.037,0.427,0.549,292.904
142130,156676,13022,-0.005,-0.955,-0.076,1.037,0.427,0.549,292.91
142151,156922,12606,-0.004,-0.96,-0.081,0.732,0.549,0.488,292.914
142151,156682,13016,-0.004,-0.962,-0.081,0.732,0.549,0.488,292.92
142152,156922,12606,0.001,-0.96,-0.08,0.061,0.305,0.366,292.923
142152,156700,13026,0.002,-0.95,-0.081,0.061,0.305,0.366,292.93
142164,156922,12606,-0.003,-0.949,-0.08,-0.183,0,0.366,292.933
142164,156699,13016,-0.007,-0.955,-0.083,-0.183,0,0.366,292.94
142161,156922,12606,0,-0.962,-0.081,-0.305,0.061,0.366,292.943
142161,156693,13027,0,-0.959,-0.083,-0.305,0.061,0.366,292.949
142173,156922,12606,-0.005,-0.958,-0.078,-0.305,0.122,0.244,292.953
142173,156701,13033,-0.002,-0.956,-0.083,-0.305,0.122,0.244,292.959
142144,156922,12606,-0.003,-0.961,-0.087,-0.488,0.122,0.244,292.963
142144,156678,13029,0.002,-0.964,-0.085,-0.488,0.122,0.244,292.969
142136,156922,12606,-0.003,-0.96,-0.086,-0.732,0.427,0.122,292.973
142136,156695,13029,-0.002,-0.955,-0.091,-0.732,0.427,0.122,292.979
142150,156922,12606,-0,-0.959,-0.091,-0.488,0.61,0.061,292.983
142150,156694,13018,0.001,-0.962,-0.08,-0.488,0.61,0.061,292.989
142135,156922,12606,0.001,-0.957,-0.074,-0.244,0.61,0.061,292.993
142135,156678,13027,-0,-0.96,-0.081,-0.244,0.61,0.061,292.999
142133,156666,12606,-0.001,-0.962,-0.086,-0.976,0.793,0.061,293.003
142133,156655,13021,-0.002,-0.96,-0.088,-0.976,0.793,0.061,293.009
142115,156666,12606,0.001,-0.963,-0.086,-1.098,0.915,0.061,293.013
142115,156624,13018,-0.001,-0.963,-0.092,-1.098,0.915,0.061,293.019
142120,156666,12606,0.001,-0.957,-0.094,-0.793,0.915,0.183,293.022
142120,156660,13007,-0,-0.95,-0.1,-0.793,0.915,0.183,293.029
142109,156922,12606,-0.002,-0.957,-0.105,-0.488,0.854,0.305,293.032
142109,156673,13024,-0.001,-0.97,-0.107,-0.488,0.854,0.305,293.039
142137,156666,12606,0.003,-0.975,-0.104,1.402,0.976,0.427,293.042
142137,156668,13016,0,-0.97,-0.09,1.402,0.976,0.427,293.048
142122,156666,12606,-0.001,-0.958,-0.081,3.415,1.28,0.61,293.052
142122,156655,13017,0.001,-0.947,-0.081,3.415,1.28,0.61,293.058
142149,156666,12606,-0,-0.945,-0.072,3.354,1.098,0.976,293.062
142149,156650,13018,-0.004,-0.947,-0.07,3.354,1.098,0.976,293.068
142109,156666,12606,-0,-0.944,-0.066,2.134,0.915,0.793,293.072
142109,156656,13010,-0.003,-0.941,-0.067,2.134,0.915,0.793,293.078
142103,156666,12606,-0.005,-0.951,-0.071,0.488,0.61,0.549,293.082
142103,156624,13026,-0.004,-0.963,-0.075,0.488,0.61,0.549,293.088
142086,156666,12606,-0.003,-0.964,-0.087,-1.159,0.183,0.488,293.092
142086,156622,12999,-0,-0.961,-0.079,-1.159,0.183,0.488,293.098
142088,156666,12606,-0.001,-0.959,-0.071,-1.341,0,0.427,293.102
142088,156616,13018,-0.004,-0.956,-0.077,-1.341,0,0.427,293.108
142083,156666,12606,-0.005,-0.954,-0.085,-1.646,-0.122,0.366,293.112
142083,156634,13018,-0,-0.957,-0.085,-1.646,-0.122,0.366,293.118
142096,156666,12606,-0.003,-0.963,-0.088,-1.707,0.122,0,293.121
142096,156594,13010,-0.005,-0.966,-0.089,-1.707,0.122,0,293.128
142095,156666,12606,-0.001,-0.969,-0.089,-1.037,0.305,-0.061,293.131
142095,156612,13012,0.003,-0.961,-0.094,-1.037,0.305,-0.061,293.138
142069,156666,12606,0.004,-0.954,-0.1,-0.732,0.122,0,293.141
142069,156574,13032,0.002,-0.964,-0.099,-0.732,0.122,0,293.147
142075,156666,12606,0.003,-0.967,-0.092,0,0.366,0.122,293.151
142075,156616,13005,0.001,-0.962,-0.091,0,0.366,0.122,293.157
142086,156666,12606,0.005,-0.958,-0.082,1.098,0.61,0.244,293.161
142086,156597,13023,0.002,-0.957,-0.081,1.098,0.61,0.244,293.167
142090,156666,12606,0,-0.953,-0.084,0.915,0.366,0.61,293.171
142090,156616,13016,-0.001,-0.951,-0.081,0.915,0.366,0.61,293.177
142123,156666,12606,-0.002,-0.956,-0.079,0.244,0.122,0.732,293.181
142123,156639,13024,-0,-0.955,-0.077,0.244,0.122,0.732,293.187
142108,156666,12606,0.002,-0.957,-0.077,-0.366,-0.122,0.793,293.191
142108,156627,13025,-0.006,-0.957,-0.076,-0.366,-0.122,0.793,293.197
142113,156666,12606,-0.006,-0.955,-0.084,-1.22,-0.122,0.793,293.201
142113,156650,13010,-0.002,-0.96,-0.088,-1.22,-0.122,0.793,293.207
142112,156666,12606,-0,-0.96,-0.09,-1.646,-0.122,0.488,293.211
142112,156636,13016,-0.001,-0.958,-0.094,-1.646,-0.122,0.488,293.217
142127,156666,12606,-0.001,-0.958,-0.088,-0.854,0.244,0.488,293.22
142127,156654,13013,-0.001,-0.962,-0.088,-0.854,0.244,0.488,293.227
142098,156666,12606,0.002,-0.964,-0.089,0.122,0.427,0.488,293.23
142098,156653,13015,0.003,-0.964,-0.089,0.122,0.427,0.488,293.237
142090,156666,12606,0.001,-0.96,-0.085,0.549,0.549,0.427,293.24
142090,156643,13021,-0.002,-0.954,-0.079,0.549,0.549,0.427,293.246
142114,156666,12606,0,-0.949,-0.083,0.366,0.549,0.61,293.25
142114,156634,13023,-0.002,-0.956,-0.086,0.366,0.549,0.61,293.256
142113,156666,12606,0.002,-0.96,-0.085,-0.183,0.549,0.549,293.26
142113,156626,13017,0.001,-0.961,-0.084,-0.183,0.549,0.549,293.266
142095,156666,12606,0.001,-0.961,-0.084,-0.183,0.549,0.549,293.27
142095,156600,13028,-0.003,-0.959,-0.078,-0.244,0.488,0.366,293.276
142061,156666,12606,-0.003,-0.959,-0.078,-0.244,0.488,0.366,293.28
142061,156592,13000,-0.008,-0.953,-0.077,-0.244,0.427,0.488,293.286
142010,156666,12606,-0.008,-0.953,-0.077,-0.244,0.427,0.488,293.29
142010,156520,12998,-0.004,-0.954,-0.081,-0.854,0.244,0.549,293.296
141957,156666,12606,-0.004,-0.954,-0.081,-0.854,0.244,0.549,293.3
141957,156481,12996,-0.004,-0.954,-0.082,-1.402,0.244,0.366,293.306
141958,156666,12606,-0.004,-0.954,-0.082,-1.402,0.244,0.366,293.31
141958,156468,12994,-0,-0.959,-0.088,-1.646,0.183,0.122,293.316
142009,156666,12606,-0,-0.959,-0.088,-1.646,0.183,0.122,293.319
142009,156526,12993,-0.001,-0.967,-0.093,-1.585,0.305,0.061,293.326
142012,156666,12606,-0.001,-0.967,-0.093,-1.585,0.305,0.061,293.329
142012,156549,13009,0.001,-0.96,-0.084,-0.671,0.427,0.122,293.336
142058,156666,12606,0.001,-0.96,-0.084,-0.671,0.427,0.122,293.339
142058,156583,13013,-0.009,-0.944,-0.078,0.183,0.305,0.244,293.345
142063,156666,12606,-0.009,-0.944,-0.078,0.183,0.305,0.244,293.349
142063,156591,13013,0,-0.964,-0.081,-0.061,0.366,0.244,293.355
142072,156666,12606,0,-0.964,-0.081,-0.061,0.366,0.244,293.359
142072,156598,13005,-0,-0.959,-0.093,-0.793,0.244,0,293.365
142106,156666,12606,-0,-0.959,-0.093,-0.793,0.244,0,293.369
142106,156621,13006,0,-0.959,-0.088,-0.976,0,0.366,293.375
142090,156666,12606,0,-0.959,-0.088,-0.976,0,0.366,293.379
142090,156603,13010,0.003,-0.958,-0.078,-0.61,0,0.427,293.385
142094,156666,12606,0.003,-0.958,-0.078,-0.61,0,0.427,293.389
142094,156635,13019,-0.005,-0.961,-0.095,-1.341,0,0.488,293.395
142106,156666,12606,-0.005,-0.961,-0.095,-1.341,0,0.488,293.399
142106,156622,13007,0.003,-0.962,-0.099,-1.89,0.244,0.366,293.405
142110,156666,12606,0.003,-0.962,-0.099,-1.89,0.244,0.366,293.409
142110,156665,13012,0.001,-0.966,-0.1,-0.549,0.305,0.427,293.415
142136,156666,12606,-0.002,-0.972,-0.093,-0.549,0.305,0.427,293.418
142136,156659,13026,-0.001,-0.966,-0.091,1.28,0.793,0.549,293.425
142147,156666,12606,-0.001,-0.956,-0.088,1.28,0.793,0.549,293.428
142147,156661,13021,-0.005,-0.955,-0.081,1.768,0.976,0.61,293.435
142158,156666,12606,-0.006,-0.958,-0.079,1.768,0.976,0.61,293.438
142158,156666,13023,-0.002,-0.956,-0.079,1.463,0.915,0.366,293.444
142159,156666,12606,0.001,-0.95,-0.07,1.463,0.915,0.366,293.448
142159,156661,13026,-0.004,-0.946,-0.064,0.671,0.61,0.244,293.454
142175,156666,12606,-0.004,-0.951,-0.068,0.671,0.61,0.244,293.458
142175,156664,13022,-0.005,-0.955,-0.077,-0.793,0.122,0.244,293.464
142138,156666,12606,-0.003,-0.96,-0.082,-0.793,0.122,0.244,293.468
142138,156662,13024,0.004,-0.963,-0.083,-1.829,-0.366,0.183,293.474
142128,156666,12606,0.003,-0.964,-0.085,-1.829,-0.366,0.183,293.478
142128,156645,13025,-0.003,-0.963,-0.092,-2.134,-0.366,0.366,293.484
142119,156666,12606,-0,-0.96,-0.097,-2.134,-0.366,0.366,293.488
142119,156640,13007,0,-0.962,-0.101,-1.829,-0.244,0.61,293.494
142123,156666,12606,-0.002,-0.966,-0.1,-1.829,-0.244,0.61,293.498
142123,156636,13009,0,-0.967,-0.095,-0.244,0.427,0.549,293.504
142110,156666,12606,-0,-0.96,-0.091,-0.244,0.427,0.549,293.508
142110,156652,13015,-0.001,-0.954,-0.084,0.915,0.732,0.671,293.514
142137,156666,12606,-0.004,-0.954,-0.079,0.915,0.732,0.671,293.517
142137,156617,13014,-0.008,-0.956,-0.085,0.976,0.671,0.671,293.524
142130,156666,12606,-0.005,-0.96,-0.08,0.976,0.671,0.671,293.527
142130,156647,13026,-0.002,-0.956,-0.075,0.732,0.549,0.305,293.534
142122,156666,12606,-0.005,-0.957,-0.069,0.732,0.549,0.305,293.537
142122,156642,13022,-0.004,-0.955,-0.071,-0.183,0.549,0.183,293.543
