143001,157985,13242,0.04,-0.95,0.117,-0.244,0.671,0.427,442.795
143001,158202,12606,0.039,-0.948,0.116,-0.244,0.671,0.427,442.798
143001,158000,13249,0.033,-0.949,0.113,-0.427,0.671,0.732,442.805
142986,158202,12606,0.035,-0.952,0.109,-0.427,0.671,0.732,442.808
142986,157985,13277,0.036,-0.954,0.11,-0.61,0.732,0.976,442.815
143018,158202,12606,0.033,-0.957,0.113,-0.61,0.732,0.976,442.818
143018,157964,13265,0.031,-0.957,0.109,-0.305,0.427,0.976,442.824
143009,158202,12606,0.03,-0.956,0.11,-0.305,0.427,0.976,442.828
143009,157981,13257,0.028,-0.958,0.111,-0.305,0.122,0.915,442.834
142994,158202,12606,0.031,-0.963,0.112,-0.305,0.122,0.915,442.838
142994,157999,13267,0.03,-0.966,0.112,-0.244,0.183,0.61,442.844
143013,158202,12606,0.031,-0.964,0.11,-0.244,0.183,0.61,442.848
143013,158008,13265,0.035,-0.962,0.109,-0.061,0.183,0.244,442.854
143015,158202,12606,0.034,-0.965,0.11,-0.061,0.183,0.244,442.858
143015,157996,13251,0.033,-0.969,0.116,0.183,0.122,-0.061,442.864
143017,158202,12606,0.038,-0.967,0.116,0.183,0.122,-0.061,442.868
143017,157999,13263,0.036,-0.959,0.113,-0.183,0.122,-0.244,442.874
143023,158202,12606,0.038,-0.96,0.117,-0.183,0.122,-0.244,442.878
143023,157992,13260,0.033,-0.959,0.116,-1.098,0.366,-0.183,442.884
143012,158202,12606,0.033,-0.955,0.11,-1.098,0.366,-0.183,442.888
143012,158000,13268,0.035,-0.953,0.107,-1.646,0.244,-0.061,442.894
143027,158202,12606,0.037,-0.954,0.106,-1.646,0.244,-0.061,442.898
143027,158011,13265,0.037,-0.95,0.109,-1.524,0.122,-0.061,442.904
143028,158202,12606,0.039,-0.947,0.111,-1.524,0.122,-0.061,442.907
143028,158003,13273,0.033,-0.946,0.111,-1.402,0,0,442.914
143006,158202,12606,0.037,-0.947,0.108,-1.402,0,0,442.917
143006,158008,13274,0.035,-0.949,0.112,-1.585,-0.122,0.244,442.923
143010,158202,12606,0.032,-0.952,0.107,-1.585,-0.122,0.244,442.927
143010,157999,13258,0.038,-0.955,0.102,-1.585,-0.305,0.305,442.933
143019,158202,12606,0.037,-0.961,0.108,-1.585,-0.305,0.305,442.937
143019,157974,13261,0.035,-0.968,0.108,-1.22,-0.061,0.183,442.943
143020,158202,12606,0.035,-0.969,0.104,-1.22,-0.061,0.183,442.947
143020,157999,13255,0.037,-0.97,0.106,-0.915,-0.061,0.183,442.953
143019,158202,12606,0.034,-0.969,0.107,-0.915,-0.061,0.183,442.957
143019,157960,13276,0.039,-0.967,0.105,-0.854,-0.061,0.305,442.963
143025,158202,12606,0.042,-0.967,0.109,-0.854,-0.061,0.305,442.967
143025,157965,13252,0.037,-0.964,0.106,-0.732,0.305,0.427,442.973
142997,157946,12606,0.035,-0.964,0.104,-0.732,0.305,0.427,442.977
142997,157951,13259,0.035,-0.966,0.104,-0.549,0.793,0.488,442.983
142998,157946,12606,0.036,-0.963,0.105,-0.549,0.793,0.488,442.987
142998,157945,13263,0.037,-0.955,0.104,-0.183,0.854,0.427,442.993
142982,157946,12606,0.037,-0.949,0.105,-0.183,0.854,0.427,442.997
142982,157948,13270,0.034,-0.95,0.108,0.61,1.098,0.61,443.003
142966,157946,12606,0.034,-0.95,0.11,0.61,1.098,0.61,443.006
142966,157930,13270,0.036,-0.952,0.109,1.341,1.159,0.671,443.013
142982,158202,12606,0.035,-0.948,0.111,1.341,1.159,0.671,443.016
142982,157967,13240,0.033,-0.949,0.11,1.585,0.915,0.732,443.023
142994,158202,12606,0.034,-0.951,0.112,1.585,0.915,0.732,443.026
142994,157963,13244,0.033,-0.955,0.113,1.341,0.732,0.854,443.032
143012,158202,12606,0.031,-0.96,0.109,1.341,0.732,0.854,443.036
143012,157986,13249,0.031,-0.966,0.108,1.402,0.854,0.61,443.042
143023,158202,12606,0.034,-0.969,0.113,1.402,0.854,0.61,443.046
143023,158013,13270,0.037,-0.965,0.115,1.22,0.671,0.366,443.052
143035,158202,12606,0.035,-0.962,0.116,1.22,0.671,0.366,443.056
143035,158002,13258,0.038,-0.962,0.114,0.854,0.305,0.488,443.062
143049,158202,12606,0.037,-0.963,0.114,0.854,0.305,0.488,443.066
143049,158012,13261,0.033,-0.961,0.107,0.61,0.793,0.549,443.072
143064,158202,12606,0.036,-0.958,0.105,0.61,0.793,0.549,443.076
143064,158019,13266,0.036,-0.958,0.11,0.671,0.915,0.488,443.082
143045,158202,12606,0.036,-0.952,0.11,0.671,0.915,0.488,443.086
143045,158011,13249,0.035,-0.949,0.114,0.793,0.549,0.671,443.092
143032,158202,12606,0.035,-0.947,0.115,0.793,0.549,0.671,443.096
143032,158007,13261,0.034,-0.948,0.117,0.732,0.427,0.793,443.102
142994,158202,12606,0.032,-0.948,0.115,0.732,0.427,0.793,443.105
142994,157993,13247,0.032,-0.951,0.116,0.122,0.366,0.732,443.112
143032,158202,12606,0.033,-0.953,0.119,0.122,0.366,0.732,443.115
143032,157974,13245,0.032,-0.955,0.118,-0.732,0.122,0.488,443.122
143030,158202,12606,0.032,-0.958,0.116,-0.732,0.122,0.488,443.125
143030,157991,13255,0.032,-0.961,0.118,-1.463,0,0.366,443.131
143030,158202,12606,0.031,-0.966,0.116,-1.463,0,0.366,443.135
143030,157991,13253,0.034,-0.967,0.11,-1.951,-0.244,0.244,443.141
143031,158202,12606,0.034,-0.968,0.108,-1.951,-0.244,0.244,443.145
143031,157996,13257,0.034,-0.97,0.11,-1.829,-0.366,0,443.151
143033,158202,12606,0.036,-0.967,0.109,-1.829,-0.366,0,443.155
143033,157985,13243,0.033,-0.963,0.107,-1.524,-0.244,0,443.161
143025,158202,12606,0.038,-0.961,0.107,-1.524,-0.244,0,443.165
143025,157979,13265,0.037,-0.959,0.107,-1.463,0,0,443.171
143013,158202,12606,0.037,-0.958,0.109,-1.463,0,0,443.175
143013,157965,13235,0.039,-0.96,0.105,-1.159,0.244,0,443.181
142990,157946,12606,0.039,-0.96,0.105,-1.159,0.244,0,443.185
142990,157936,13244,0.036,-0.955,0.105,-0.549,0.305,0.061,443.191
142963,157946,12606,0.036,-0.955,0.105,-0.549,0.305,0.061,443.195
142963,157927,13258,0.037,-0.955,0.106,-0.122,0.305,0.122,443.201
142946,157946,12606,0.037,-0.955,0.106,-0.122,0.305,0.122,443.204
142946,157921,13234,0.036,-0.953,0.108,0,0.305,0.244,443.211
142956,157946,12606,0.036,-0.953,0.108,0,0.305,0.244,443.214
142956,157897,13240,0.034,-0.958,0.109,0.183,0.427,0.427,443.221
142902,157946,12606,0.034,-0.958,0.109,0.183,0.427,0.427,443.224
142902,157896,13240,0.039,-0.962,0.107,0.366,0.549,0.427,443.23
142940,157946,12606,0.039,-0.962,0.107,0.366,0.549,0.427,443.234
142940,157903,13241,0.032,-0.966,0.107,0.671,0.366,0.549,443.24
142914,157946,12606,0.032,-0.966,0.107,0.671,0.366,0.549,443.244
142914,157904,13245,0.037,-0.964,0.111,0.732,0.427,0.671,443.25
142927,157946,12606,0.037,-0.964,0.111,0.732,0.427,0.671,443.254
142927,157914,13229,0.032,-0.959,0.115,0.427,0.427,0.61,443.26
142954,157946,12606,0.032,-0.959,0.115,0.427,0.427,0.61,443.264
142954,157900,13225,0.033,-0.959,0.112,0.244,0.549,0.488,443.27
142963,157946,12606,0.033,-0.959,0.112,0.244,0.549,0.488,443.274
142963,157922,13233,0.036,-0.954,0.118,-0.122,0.305,0.366,443.28
142958,157946,12606,0.036,-0.954,0.118,-0.122,0.305,0.366,443.284
142958,157935,13239,0.035,-0.956,0.113,-0.732,0.366,0.183,443.29
142982,157946,12606,0.035,-0.956,0.113,-0.732,0.366,0.183,443.294
142982,157940,13243,0.035,-0.951,0.113,-1.22,0.305,0.122,443.3
142962,157946,12606,0.035,-0.951,0.113,-1.22,0.305,0.122,443.303
142962,157929,13249,0.037,-0.951,0.103,-1.402,0.122,0.305,443.31
142971,157946,12606,0.037,-0.951,0.103,-1.402,0.122,0.305,443.313
142971,157940,13254,0.036,-0.958,0.106,-1.28,0.305,0.305,443.32
143013,158202,12606,0.036,-0.958,0.106,-1.28,0.305,0.305,443.323
143013,157952,13242,0.037,-0.959,0.102,-1.28,0.305,0.305,443.329
143014,158202,12606,0.037,-0.961,0.098,-0.854,0.366,0.427,443.333
143014,157982,13240,0.033,-0.963,0.102,-0.854,0.366,0.427,443.339
143041,158202,12606,0.037,-0.963,0.108,0.366,0.427,0.366,443.343
143041,157991,13256,0.037,-0.963,0.11,0.366,0.427,0.366,443.349
143036,158202,12606,0.037,-0.963,0.111,0.732,0.366,0.549,443.353
143036,157999,13257,0.034,-0.959,0.108,0.732,0.366,0.549,443.359
143070,158202,12606,0.031,-0.957,0.112,0.671,0.61,0.549,443.363
143070,158027,13258,0.031,-0.959,0.11,0.671,0.61,0.549,443.369
143061,158202,12606,0.038,-0.961,0.111,0.488,0.427,0.427,443.373
143061,158025,13268,0.036,-0.957,0.11,0.488,0.427,0.427,443.379
143051,158202,12606,0.036,-0.957,0.111,0,0.366,0.488,443.383
143051,158013,13261,0.035,-0.957,0.11,0,0.366,0.488,443.389
143061,158202,12606,0.033,-0.96,0.11,-0.122,0.366,0.427,443.393
143061,158046,13256,0.032,-0.962,0.109,-0.122,0.366,0.427,443.399
143042,158202,12606,0.034,-0.962,0.11,-0.122,0.244,0.305,443.402
143042,158037,13256,0.035,-0.963,0.107,-0.122,0.244,0.305,443.409
143041,158202,12606,0.038,-0.963,0.103,0,0.183,0.305,443.412
143041,157992,13257,0.037,-0.963,0.107,0,0.183,0.305,443.419
143015,158202,12606,0.034,-0.957,0.108,0.244,0.366,0.244,443.422
143015,157977,13250,0.034,-0.956,0.107,0.244,0.366,0.244,443.428
142994,158202,12606,0.036,-0.959,0.109,0.549,0.549,0.305,443.432
142994,157976,13239,0.036,-0.961,0.11,0.549,0.549,0.305,443.438
142988,158202,12606,0.035,-0.962,0.111,0.793,0.488,0.244,443.442
142988,157957,13250,0.034,-0.959,0.116,0.793,0.488,0.244,443.448
142984,158202,12606,0.033,-0.956,0.116,0.732,0.488,0.305,443.452
142984,157963,13260,0.037,-0.955,0.116,0.732,0.488,0.305,443.458
142995,157946,12606,0.037,-0.951,0.118,0.122,0.427,0.427,443.462
142995,157935,13231,0.034,-0.95,0.114,0.122,0.427,0.427,443.468
142986,157946,12606,0.033,-0.952,0.113,-0.61,0.305,0.305,443.472
142986,157950,13253,0.037,-0.957,0.112,-0.61,0.305,0.305,443.478
142994,158202,12606,0.035,-0.961,0.109,-1.037,0.244,0.305,443.482
142994,157965,13228,0.035,-0.962,0.104,-1.037,0.244,0.305,443.488
142981,158202,12606,0.035,-0.966,0.104,-0.915,0.366,0.244,443.492
142981,157966,13248,0.034,-0.964,0.106,-0.915,0.366,0.244,443.498
143005,158202,12606,0.034,-0.96,0.11,-0.671,0.366,0.305,443.502
143005,157969,13256,0.036,-0.96,0.107,-0.671,0.366,0.305,443.508
143003,157946,12606,0.031,-0.959,0.109,-0.366,0.366,0.427,443.511
143003,157943,13251,0.031,-0.959,0.108,-0.366,0.366,0.427,443.518
143021,158202,12606,0.031,-0.961,0.104,0.061,0.61,0.244,443.521
143021,157994,13237,0.034,-0.961,0.108,0.061,0.61,0.244,443.527
143023,158202,12606,0.037,-0.959,0.111,0.366,0.61,0.305,443.531
143023,157979,13265,0.037,-0.956,0.112,0.366,0.61,0.305,443.537
143024,158202,12606,0.035,-0.956,0.111,0.549,0.671,0.305,443.541
143024,158008,13248,0.036,-0.956,0.112,0.549,0.671,0.305,443.547
143041,158202,12606,0.036,-0.956,0.109,0.549,0.671,0.427,443.551
143041,158011,13246,0.036,-0.953,0.11,0.549,0.671,0.427,443.557
143061,158202,12606,0.035,-0.951,0.108,0.427,0.61,0.488,443.561
143061,158020,13245,0.035,-0.957,0.11,0.427,0.61,0.488,443.567
143036,158202,12606,0.035,-0.956,0.111,0.366,0.488,0.366,443.571
143036,157992,13256,0.036,-0.957,0.111,0.366,0.488,0.366,443.577
143030,158202,12606,0.04,-0.959,0.112,0.244,0.488,0.366,443.581
143030,157980,13245,0.039,-0.964,0.11,0.244,0.488,0.366,443.587
143013,158202,12606,0.035,-0.961,0.109,0.244,0.671,0.427,443.591
143013,157983,13244,0.034,-0.954,0.115,0.244,0.671,0.427,443.597
143006,158202,12606,0.032,-0.955,0.117,0.305,0.793,0.61,443.6
143006,157989,13251,0.035,-0.956,0.113,0.305,0.793,0.61,443.607
142993,158202,12606,0.037,-0.956,0.117,0.183,0.488,0.732,443.61
142993,157969,13242,0.034,-0.954,0.116,0.183,0.488,0.732,443.617
143009,158202,12606,0.035,-0.955,0.11,-0.061,0.488,0.427,443.62
143009,157992,13234,0.033,-0.959,0.108,-0.061,0.488,0.427,443.626
143003,158202,12606,0.029,-0.961,0.112,0,0.671,0.488,443.63
143003,157963,13247,0.031,-0.961,0.104,0,0.671,0.488,443.636
143021,158202,12606,0.035,-0.965,0.107,0,0.488,0.427,443.64
143021,157995,13255,0.037,-0.967,0.111,0,0.488,0.427,443.646
143024,158202,12606,0.035,-0.966,0.106,0.305,0.366,0.366,443.65
143024,157980,13252,0.033,-0.968,0.104,0.305,0.366,0.366,443.656
143009,158202,12606,0.035,-0.965,0.11,0.671,0.427,0.305,443.66
143009,157979,13251,0.035,-0.958,0.114,0.671,0.427,0.305,443.666
143009,158202,12606,0.034,-0.953,0.118,0.61,0.61,0.305,443.67
143009,157982,13243,0.032,-0.951,0.112,0.61,0.61,0.305,443.676
142975,158202,12606,0.032,-0.955,0.113,0.183,0.427,0.244,443.68
142975,157974,13256,0.036,-0.95,0.113,0.183,0.427,0.244,443.686
142982,157946,12606,0.034,-0.948,0.119,-0.244,0.122,0.366,443.69
142982,157949,13261,0.032,-0.945,0.121,-0.244,0.122,0.366,443.696
143010,157946,12606,0.031,-0.951,0.117,-0.61,0,0.305,443.7
143010,157946,13234,0.033,-0.959,0.119,-0.61,0,0.305,443.706
143002,158202,12606,0.037,-0.963,0.119,-1.524,-0.244,0.183,443.709
143002,157963,13240,0.036,-0.96,0.118,-1.524,-0.244,0.183,443.716
142999,158202,12606,0.033,-0.959,0.114,-2.439,-0.305,0.122,443.719
142999,157974,13249,0.035,-0.961,0.111,-2.439,-0.305,0.122,443.725
143027,158202,12606,0.034,-0.963,0.105,-2.622,-0.183,0.061,443.729
143027,157973,13244,0.036,-0.96,0.11,-2.622,-0.183,0.061,443.735
143012,158202,12606,0.037,-0.958,0.104,-2.317,-0.305,0.183,443.739
143012,157968,13238,0.039,-0.954,0.1,-2.317,-0.305,0.183,443.745
142994,158202,12606,0.035,-0.962,0.098,-1.768,0,0.183,443.749
142994,157985,13238,0.035,-0.967,0.094,-1.768,0,0.183,443.755
142957,158202,12606,0.035,-0.969,0.098,-0.427,0.305,0.122,443.759
142957,157973,13244,0.039,-0.969,0.101,-0.427,0.305,0.122,443.765
142980,157946,12606,0.041,-0.966,0.108,0.61,0.305,0.183,443.769
142980,157946,13249,0.04,-0.961,0.106,0.61,0.305,0.183,443.775
142972,157946,12606,0.04,-0.961,0.106,0.61,0.305,0.183,443.779
142972,157932,13241,0.037,-0.954,0.109,1.098,0.61,0.488,443.785
142987,157946,12606,0.037,-0.954,0.109,1.098,0.61,0.488,443.789
142987,157948,13239,0.036,-0.955,0.111,1.463,0.854,0.671,443.795
142964,158202,12606,0.036,-0.955,0.111,1.463,0.854,0.671,443.799
142964,157964,13240,0.034,-0.954,0.111,1.341,0.854,0.61,443.805
142978,157946,12606,0.034,-0.954,0.111,1.341,0.854,0.61,443.808
142978,157951,13235,0.035,-0.961,0.11,1.037,0.671,0.549,443.815
143004,158202,12606,0.035,-0.961,0.11,1.037,0.671,0.549,443.818
143004,157966,13234,0.037,-0.959,0.115,1.098,0.732,0.488,443.824
143003,158202,12606,0.037,-0.959,0.115,1.098,0.732,0.488,443.828
143003,157983,13236,0.033,-0.957,0.107,1.098,0.671,0.61,443.834
143018,158202,12606,0.033,-0.957,0.107,1.098,0.671,0.61,443.838
143018,157973,13225,0.033,-0.959,0.109,1.098,0.671,0.549,443.844
143036,158202,12606,0.033,-0.959,0.109,1.098,0.671,0.549,443.848
143036,157986,13237,0.035,-0.958,0.115,1.098,0.793,0.549,443.854
143006,158202,12606,0.035,-0.958,0.115,1.098,0.793,0.549,443.858
143006,157974,13237,0.033,-0.958,0.112,0.976,0.61,0.61,443.864
143004,158202,12606,0.033,-0.958,0.112,0.976,0.61,0.61,443.868
143004,157973,13236,0.036,-0.964,0.109,0.305,0.549,0.549,443.874
143005,158202,12606,0.036,-0.964,0.109,0.305,0.549,0.549,443.878
143005,157978,13249,0.036,-0.962,0.114,0.061,0.61,0.427,443.884
143011,158202,12606,0.036,-0.962,0.114,0.061,0.61,0.427,443.888
143011,157967,13252,0.036,-0.959,0.111,0.061,0.488,0.305,443.894
143014,158202,12606,0.036,-0.959,0.111,0.061,0.488,0.305,443.898
143014,157972,13255,0.035,-0.954,0.116,0.183,0.427,0.427,443.904
143006,158202,12606,0.035,-0.954,0.116,0.183,0.427,0.427,443.907
143006,157954,13239,0.033,-0.95,0.112,0.427,0.488,0.366,443.914
142999,158202,12606,0.033,-0.95,0.112,0.427,0.488,0.366,443.917
142999,157965,13221,0.034,-0.956,0.115,0,0.244,0.488,443.923
142985,158202,12606,0.034,-0.954,0.114,0,0.244,0.488,443.927
142985,157955,13228,0.031,-0.959,0.11,-0.244,0.305,0.366,443.933
142983,158202,12606,0.036,-0.959,0.112,-0.244,0.305,0.366,443.937
142983,157966,13222,0.034,-0.958,0.115,-0.305,0.183,0.305,443.943
142991,158202,12606,0.036,-0.956,0.114,-0.305,0.183,0.305,443.947
142991,157982,13224,0.036,-0.956,0.114,-0.488,-0.122,0.549,443.953
143026,158202,12606,0.036,-0.958,0.117,-0.488,-0.122,0.549,443.957
143026,157978,13212,0.037,-0.958,0.115,-0.976,0,0.427,443.963
142988,158202,12606,0.035,-0.962,0.112,-0.976,0,0.427,443.967
142988,157958,13235,0.035,-0.962,0.11,-1.22,0.061,0.305,443.973
142994,157946,12606,0.034,-0.965,0.111,-1.22,0.061,0.305,443.977
142994,157945,13239,0.035,-0.969,0.114,-1.22,0,0.183,443.983
142987,157946,12606,0.037,-0.963,0.113,-1.22,0,0.183,443.987
142987,157946,13226,0.038,-0.956,0.109,-1.646,-0.061,0.122,443.993
142949,157946,12606,0.036,-0.956,0.11,-1.646,-0.061,0.122,443.997
142949,157932,13213,0.035,-0.959,0.114,-1.89,0.122,0.183,444.003
142934,157946,12606,0.034,-0.958,0.11,-1.89,0.122,0.183,444.006
142934,157898,13226,0.036,-0.956,0.109,-1.707,0.183,0.244,444.013
142914,157946,12606,0.033,-0.955,0.114,-1.707,0.183,0.244,444.016
142914,157877,13210,0.039,-0.952,0.114,-1.341,0.061,0.183,444.023
142893,157946,12606,0.033,-0.95,0.111,-1.341,0.061,0.183,444.026
142893,157861,13225,0.035,-0.956,0.108,-1.28,0.366,0.244,444.032
142894,157946,12606,0.036,-0.961,0.104,-1.28,0.366,0.244,444.036
142894,157843,13213,0.036,-0.96,0.106,-0.671,0.305,0.305,444.042
142895,157946,12606,0.039,-0.964,0.106,-0.671,0.305,0.305,444.046
142895,157875,13214,0.038,-0.963,0.107,-0.061,0.244,0.427,444.052
142901,157946,12606,0.033,-0.961,0.11,-0.061,0.244,0.427,444.056
142901,157883,13217,0.031,-0.962,0.111,0.122,0.427,0.671,444.062
142921,157946,12606,0.032,-0.962,0.11,0.122,0.427,0.671,444.066
142921,157873,13215,0.035,-0.963,0.107,0.244,0.488,0.488,444.072
142926,157946,12606,0.035,-0.962,0.11,0.244,0.488,0.488,444.076
142926,157908,13227,0.037,-0.963,0.108,0.122,0.488,0.366,444.082
142954,157946,12606,0.036,-0.96,0.108,0.122,0.488,0.366,444.086
142954,157911,13231,0.036,-0.957,0.102,0.183,0.488,0.488,444.092
142955,157946,12606,0.035,-0.957,0.11,0.183,0.488,0.488,444.096
142955,157907,13211,0.034,-0.958,0.113,0.671,0.549,0.427,444.102
142948,157946,12606,0.034,-0.96,0.113,0.671,0.549,0.427,444.105
142948,157926,13226,0.034,-0.953,0.115,0.488,0.488,0.366,444.112
142963,157946,12606,0.036,-0.954,0.115,0.488,0.488,0.366,444.115
142963,157931,13210,0.037,-0.957,0.117,0,0.61,0.427,444.122
142956,157946,12606,0.035,-0.957,0.114,0,0.61,0.427,444.125
142956,157917,13233,0.037,-0.959,0.112,0.061,0.732,0.366,444.131
142978,157946,12606,0.037,-0.962,0.111,0.061,0.732,0.366,444.135
142978,157937,13233,0.036,-0.958,0.112,0.061,0.671,0.366,444.141
142977,157946,12606,0.035,-0.956,0.112,0.061,0.671,0.366,444.145
142977,157931,13221,0.031,-0.955,0.111,-0.061,0.427,0.671,444.151
142975,158202,12606,0.03,-0.955,0.112,-0.061,0.427,0.671,444.155
142975,157967,13226,0.034,-0.957,0.11,-0.183,0.427,0.671,444.161
142974,157946,12606,0.033,-0.957,0.109,-0.183,0.427,0.671,444.165
142974,157948,13234,0.035,-0.959,0.106,0,0.488,0.488,444.171
142986,158202,12606,0.035,-0.959,0.106,0,0.488,0.488,444.175
142986,157954,13241,0.033,-0.959,0.109,0.061,0.305,0.366,444.181
142991,157946,12606,0.035,-0.958,0.11,0.061,0.305,0.366,444.185
142991,157942,13227,0.032,-0.964,0.109,0.488,0.305,0.366,444.191
142990,157946,12606,0.029,-0.959,0.118,0.488,0.305,0.366,444.195
142990,157944,13226,0.031,-0.959,0.114,0.549,0.061,0.305,444.201
142976,157946,12606,0.034,-0.964,0.109,0.549,0.061,0.305,444.204
142976,157948,13222,0.03,-0.968,0.109,0,0.305,0.183,444.211
142965,158202,12606,0.031,-0.972,0.109,0,0.305,0.183,444.214
142965,157952,13209,0.036,-0.969,0.109,0.061,0.549,-0.061,444.221
142951,157946,12606,0.037,-0.962,0.11,0.061,0.549,-0.061,444.224
142951,157921,13226,0.039,-0.956,0.112,0.244,0.305,0.122,444.23
142950,157946,12606,0.037,-0.953,0.117,0.244,0.305,0.122,444.234
142950,157917,13221,0.038,-0.956,0.117,0.183,0.244,0.244,444.24
142939,157946,12606,0.036,-0.959,0.113,0.183,0.244,0.244,444.244
142939,157896,13224,0.035,-0.958,0.112,-0.061,0.61,0.183,444.25
142935,157946,12606,0.036,-0.949,0.111,-0.061,0.61,0.183,444.254
142935,157910,13206,0.034,-0.949,0.113,-0.366,0.427,0.366,444.26
142908,157946,12606,0.036,-0.949,0.114,-0.366,0.427,0.366,444.264
142908,157900,13199,0.037,-0.952,0.104,-0.366,0.183,0.305,444.27
142889,157946,12606,0.033,-0.956,0.104,-0.366,0.183,0.305,444.274
142889,157878,13219,0.037,-0.959,0.107,0,0.488,0.122,444.28
142889,157946,12606,0.036,-0.96,0.111,0,0.488,0.122,444.284
142889,157865,13196,0.034,-0.96,0.111,0.61,0.305,0.183,444.29
142888,157946,12606,0.036,-0.963,0.11,0.61,0.305,0.183,444.294
142888,157875,13209,0.036,-0.96,0.109,0.549,0.305,0.183,444.3
142860,157946,12606,0.036,-0.96,0.111,0.549,0.305,0.183,444.303
142860,157885,13204,0.036,-0.96,0.113,0.61,0.549,0.366,444.31
142861,157946,12606,0.035,-0.963,0.112,0.61,0.549,0.366,444.313
142861,157825,13201,0.037,-0.96,0.112,0.244,0.549,0.488,444.32
142857,157946,12606,0.037,-0.96,0.11,0.244,0.549,0.488,444.323
142857,157812,13200,0.036,-0.959,0.109,-0.061,0.549,0.549,444.329
142854,157946,12606,0.035,-0.957,0.112,-0.061,0.549,0.549,444.333
142854,157848,13216,0.034,-0.952,0.112,0.366,0.549,0.549,444.339
142856,157946,12606,0.035,-0.953,0.109,0.366,0.549,0.549,444.343
142856,157850,13208,0.035,-0.954,0.111,0.549,0.549,0.61,444.349
142860,157946,12606,0.034,-0.958,0.111,0.549,0.549,0.61,444.353
142860,157849,13211,0.034,-0.957,0.112,0.61,0.61,0.61,444.359
142878,157946,12606,0.035,-0.958,0.114,0.61,0.61,0.61,444.363
142878,157854,13202,0.035,-0.962,0.116,0.793,0.61,0.61,444.369
142885,157946,12606,0.035,-0.962,0.116,0.793,0.61,0.61,444.373
142885,157894,13214,0.034,-0.961,0.114,0.732,0.549,0.488,444.379
142890,157946,12606,0.034,-0.961,0.114,0.732,0.549,0.488,444.383
142890,157866,13214,0.034,-0.956,0.117,0.427,0.488,0.549,444.389
142903,157946,12606,0.034,-0.956,0.117,0.427,0.488,0.549,444.393
142903,157883,13210,0.032,-0.957,0.122,0.183,0.549,0.366,444.399
142908,157946,12606,0.032,-0.957,0.122,0.183,0.549,0.366,444.402
142908,157870,13216,0.036,-0.958,0.116,-0.488,0.366,0.244,444.409
142937,157946,12606,0.036,-0.958,0.116,-0.488,0.366,0.244,444.412
142937,157883,13206,0.034,-0.958,0.117,-1.341,0.244,0.305,444.419
142896,157946,12606,0.034,-0.958,0.117,-1.341,0.244,0.305,444.422
142896,157895,13223,0.035,-0.955,0.112,-1.585,0.244,0.366,444.428
142940,157946,12606,0.035,-0.955,0.112,-1.585,0.244,0.366,444.432
142940,157886,13212,0.035,-0.957,0.106,-1.463,0.122,0.305,444.438
142925,157946,12606,0.035,-0.957,0.106,-1.463,0.122,0.305,444.442
142925,157871,13207,0.033,-0.957,0.104,-1.098,0.183,0.244,444.448
142925,157946,12606,0.033,-0.957,0.104,-1.098,0.183,0.244,444.452
142925,157886,13209,0.037,-0.956,0.107,-0.366,0.122,0.244,444.458
142907,157946,12606,0.037,-0.956,0.107,-0.366,0.122,0.244,444.462
142907,157877,13220,0.034,-0.957,0.107,0.244,0.244,0.305,444.468
142892,157946,12606,0.034,-0.957,0.107,0.244,0.244,0.305,444.472
142892,157873,13219,0.033,-0.959,0.109,0.549,0.183,0.305,444.478
142910,157946,12606,0.033,-0.959,0.109,0.549,0.183,0.305,444.482
142910,157883,13220,0.035,-0.965,0.116,0.61,0.244,0.244,444.488
142908,157946,12606,0.035,-0.965,0.116,0.61,0.244,0.244,444.492
142908,157906,13210,0.038,-0.963,0.118,0.244,0.244,0.183,444.498
142922,157946,12606,0.038,-0.963,0.118,0.244,0.244,0.183,444.502
142922,157923,13228,0.031,-0.951,0.119,-0.61,0.244,0.305,444.508
142939,157946,12606,0.031,-0.951,0.119,-0.61,0.244,0.305,444.511
142939,157912,13222,0.036,-0.961,0.117,-2.012,0.061,0.244,444.518
142930,157946,12606,0.036,-0.961,0.117,-2.012,0.061,0.244,444.521
142930,157897,13208,0.035,-0.961,0.111,-2.012,0.061,0.244,444.528
142930,157946,12606,0.035,-0.96,0.11,-2.805,0.061,0.122,444.531
142930,157898,13225,0.037,-0.956,0.107,-2.805,0.061,0.122,444.537
142925,157946,12606,0.036,-0.953,0.1,-2.683,0.183,0.183,444.541
142925,157868,13220,0.034,-0.961,0.098,-2.683,0.183,0.183,444.547
142939,157946,12606,0.038,-0.964,0.097,-1.829,0.244,0.183,444.551
142939,157883,13203,0.037,-0.959,0.103,-1.829,0.244,0.183,444.557
142931,157946,12606,0.035,-0.957,0.106,-0.61,0.183,0.366,444.561
142931,157901,13206,0.036,-0.955,0.109,-0.61,0.183,0.366,444.567
142917,157946,12606,0.037,-0.957,0.106,0.122,0.305,0.671,444.571
142917,157929,13226,0.036,-0.96,0.109,0.122,0.305,0.671,444.577
142956,157946,12606,0.033,-0.963,0.106,0.61,0.61,0.427,444.581
142956,157906,13230,0.033,-0.964,0.109,0.61,0.61,0.427,444.587
142943,157946,12606,0.037,-0.964,0.112,0.915,0.427,0.488,444.591
142943,157934,13226,0.038,-0.958,0.111,0.915,0.427,0.488,444.597
142945,157946,12606,0.036,-0.959,0.11,0.793,0.488,0.549,444.601
142945,157937,13223,0.036,-0.964,0.107,0.793,0.488,0.549,444.607
142941,157946,12606,0.036,-0.968,0.109,0.976,0.915,0.488,444.61
142941,157930,13229,0.036,-0.969,0.117,0.976,0.915,0.488,444.617
142957,157946,12606,0.038,-0.961,0.115,1.22,0.854,0.488,444.62
142957,157918,13221,0.036,-0.952,0.111,1.22,0.854,0.488,444.627
142978,157946,12606,0.036,-0.949,0.116,0.854,0.793,0.61,444.63
142978,157902,13233,0.034,-0.949,0.118,0.854,0.793,0.61,444.636
142960,157946,12606,0.031,-0.951,0.118,0.244,0.793,0.671,444.64
142960,157928,13214,0.03,-0.951,0.116,0.244,0.793,0.671,444.646
142970,157946,12606,0.033,-0.951,0.114,-0.366,0.671,0.427,444.65
142970,157937,13217,0.034,-0.952,0.114,-0.366,0.671,0.427,444.656
142978,157946,12606,0.033,-0.955,0.115,-0.671,0.488,0.305,444.66
142978,157945,13216,0.033,-0.957,0.115,-0.671,0.488,0.305,444.666
142979,157946,12606,0.034,-0.961,0.113,-0.549,0.244,0.366,444.67
142979,157937,13233,0.036,-0.963,0.11,-0.549,0.244,0.366,444.676
142980,157946,12606,0.035,-0.963,0.111,-0.366,0.305,0.244,444.68
142980,157941,13209,0.034,-0.965,0.109,-0.366,0.305,0.244,444.686
142975,158202,12606,0.038,-0.967,0.111,-0.305,0.305,0.244,444.69
142975,157974,13219,0.037,-0.967,0.109,-0.305,0.305,0.244,444.696
142961,157946,12606,0.039,-0.967,0.11,-0.061,0.427,0.305,444.7
142961,157915,13239,0.036,-0.958,0.111,-0.061,0.427,0.305,444.706
142962,157946,12606,0.034,-0.952,0.111,-0.061,0.305,0.366,444.709
142962,157889,13226,0.036,-0.952,0.111,-0.061,0.305,0.366,444.716
142940,157946,12606,0.036,-0.958,0.111,-0.122,0.427,0.427,444.719
142940,157893,13202,0.034,-0.961,0.112,-0.122,0.427,0.427,444.726
142926,157946,12606,0.035,-0.958,0.107,-0.061,0.488,0.244,444.729
142926,157907,13210,0.038,-0.952,0.109,-0.061,0.488,0.244,444.735
142926,157946,12606,0.037,-0.954,0.108,0,0.549,0.427,444.739
142926,157886,13223,0.035,-0.958,0.108,0,0.549,0.427,444.745
142949,157946,12606,0.034,-0.959,0.113,0.915,0.732,0.488,444.749
142949,157891,13216,0.039,-0.957,0.112,0.915,0.732,0.488,444.755
142955,157946,12606,0.041,-0.952,0.112,1.28,0.671,0.671,444.759
142955,157927,13209,0.037,-0.955,0.114,1.28,0.671,0.671,444.765
142946,157946,12606,0.035,-0.953,0.118,1.159,0.549,0.915,444.769
142946,157935,13199,0.035,-0.953,0.115,1.159,0.549,0.915,444.775
142988,157946,12606,0.037,-0.957,0.118,0.732,0.427,0.732,444.779
142988,157923,13212,0.038,-0.956,0.118,0.732,0.427,0.732,444.785
142990,157946,12606,0.036,-0.954,0.119,0.122,0.549,0.732,444.789
142990,157929,13210,0.034,-0.951,0.12,0.122,0.549,0.732,444.795
142939,157946,12606,0.033,-0.952,0.119,-0.732,0.427,0.854,444.799
142939,157914,13218,0.03,-0.962,0.114,-0.732,0.427,0.854,444.805
142931,157946,12606,0.03,-0.965,0.112,-1.28,0.244,0.61,444.808
142931,157899,13202,0.036,-0.966,0.109,-1.28,0.244,0.61,444.815
142940,157946,12606,0.035,-0.963,0.106,-1.524,0.244,0.427,444.818
142940,157902,13203,0.033,-0.962,0.103,-1.524,0.244,0.427,444.825
142906,157946,12606,0.033,-0.965,0.11,-1.098,0.122,0.427,444.828
142906,157851,13219,0.032,-0.965,0.108,-1.098,0.122,0.427,444.834
142899,157946,12606,0.03,-0.96,0.101,-0.488,0.305,0.427,444.838
142899,157842,13203,0.037,-0.963,0.106,-0.488,0.305,0.427,444.844
142878,157946,12606,0.036,-0.96,0.111,0.183,0.549,0.366,444.848
142878,157834,13198,0.034,-0.955,0.108,0.183,0.549,0.366,444.854
142877,157946,12606,0.038,-0.956,0.114,0.427,0.488,0.488,444.858
142877,157839,13210,0.035,-0.956,0.111,0.427,0.488,0.488,444.864
142900,157946,12606,0.035,-0.958,0.109,0.061,0.488,0.488,444.868
142900,157844,13208,0.034,-0.957,0.113,0.061,0.488,0.488,444.874
142885,157946,12606,0.037,-0.949,0.115,0.061,0.549,0.61,444.878
142885,157853,13201,0.036,-0.947,0.116,0.061,0.549,0.61,444.884
142892,157946,12606,0.034,-0.952,0.119,-0.122,0.244,0.732,444.888
142892,157865,13204,0.031,-0.954,0.12,-0.122,0.244,0.732,444.894
142909,157946,12606,0.03,-0.958,0.114,-0.854,0.122,0.61,444.898
142909,157864,13214,0.03,-0.963,0.112,-0.854,0.122,0.61,444.904
142904,157946,12606,0.032,-0.961,0.11,-1.341,0.122,0.488,444.908
142904,157871,13201,0.032,-0.96,0.109,-1.341,0.122,0.488,444.914
142911,157946,12606,0.032,-0.961,0.113,-1.037,0.122,0.427,444.917
142911,157908,13210,0.034,-0.962,0.11,-1.037,0.122,0.427,444.924
142908,157946,12606,0.035,-0.963,0.111,-0.671,0,0.305,444.927
142908,157868,13209,0.035,-0.961,0.107,-0.671,0,0.305,444.933
142893,157946,12606,0.035,-0.963,0.102,-0.549,0.122,0.305,444.937
142893,157866,13196,0.036,-0.961,0.102,-0.549,0.122,0.305,444.943
142872,157946,12606,0.037,-0.962,0.108,-0.061,0.305,0.244,444.947
142872,157854,13215,0.037,-0.961,0.108,-0.061,0.305,0.244,444.953
142871,157946,12606,0.035,-0.959,0.109,0.549,0.671,0.427,444.957
142871,157831,13199,0.034,-0.957,0.109,0.549,0.671,0.427,444.963
142857,157946,12606,0.032,-0.958,0.109,1.22,0.854,0.488,444.967
142857,157842,13191,0.035,-0.957,0.112,1.22,0.854,0.488,444.973
142855,157946,12606,0.035,-0.957,0.112,1.22,0.854,0.488,444.977
142855,157857,13191,0.036,-0.953,0.116,1.402,0.793,0.61,444.983
142857,157946,12606,0.036,-0.953,0.116,1.402,0.793,0.61,444.987
142857,157862,13194,0.033,-0.951,0.12,1.037,0.732,0.732,444.993
142862,157946,12606,0.033,-0.951,0.12,1.037,0.732,0.732,444.997
142862,157867,13213,0.033,-0.955,0.118,0.549,0.793,0.671,445.003
142848,157946,12606,0.033,-0.955,0.118,0.549,0.793,0.671,445.007
142848,157860,13197,0.033,-0.959,0.112,-0.061,0.61,0.61,445.013
142896,157946,12606,0.033,-0.959,0.112,-0.061,0.61,0.61,445.016
142896,157873,13204,0.032,-0.956,0.109,-0.366,0.488,0.549,445.023
142891,157946,12606,0.032,-0.956,0.109,-0.366,0.488,0.549,445.026
142891,157898,13209,0.03,-0.955,0.114,-0.366,0.366,0.488,445.033
142901,157946,12606,0.03,-0.955,0.114,-0.366,0.366,0.488,445.036
142901,157899,13210,0.032,-0.959,0.11,-0.427,0.183,0.305,445.042
142904,157946,12606,0.032,-0.959,0.11,-0.427,0.183,0.305,445.046
142904,157898,13209,0.034,-0.967,0.106,-0.793,0.122,0.122,445.052
142910,157946,12606,0.034,-0.967,0.106,-0.793,0.122,0.122,445.056
142910,157903,13203,0.033,-0.968,0.109,-0.488,0.244,0.061,445.062
142905,157946,12606,0.033,-0.968,0.109,-0.488,0.244,0.061,445.066
142905,157903,13202,0.034,-0.96,0.11,-0.366,0.366,0,445.072
142914,157946,12606,0.034,-0.96,0.11,-0.366,0.366,0,445.076
142914,157893,13197,0.037,-0.956,0.113,-0.122,0.427,0.061,445.082
142914,157946,12606,0.037,-0.956,0.113,-0.122,0.427,0.061,445.086
142914,157898,13214,0.036,-0.957,0.113,0.244,0.366,0.061,445.092
142912,157946,12606,0.036,-0.957,0.113,0.244,0.366,0.061,445.096
142912,157893,13201,0.036,-0.961,0.113,0.183,0.61,0.244,445.102
142909,157946,12606,0.036,-0.961,0.113,0.183,0.61,0.244,445.106
142909,157870,13209,0.036,-0.954,0.114,0.305,0.61,0.427,445.112
142897,157946,12606,0.036,-0.954,0.114,0.305,0.61,0.427,445.115
142897,157862,13211,0.03,-0.949,0.117,0.305,0.549,0.61,445.122
142907,157946,12606,0.03,-0.948,0.117,0.305,0.549,0.61,445.125
142907,157891,13198,0.029,-0.948,0.118,0.183,0.427,0.61,445.132
142910,157946,12606,0.031,-0.951,0.117,0.183,0.427,0.61,445.135
142910,157893,13216,0.03,-0.955,0.116,-0.305,0.183,0.427,445.141
142913,157946,12606,0.031,-0.958,0.118,-0.305,0.183,0.427,445.145
142913,157859,13194,0.031,-0.961,0.115,-0.854,0.122,0.305,445.151
142920,157946,12606,0.03,-0.959,0.113,-0.854,0.122,0.305,445.155
142920,157857,13208,0.035,-0.961,0.109,-1.159,0.061,0.244,445.161
142924,157946,12606,0.037,-0.965,0.109,-1.159,0.061,0.244,445.165
142924,157891,13216,0.036,-0.966,0.108,-0.915,0.122,0.122,445.171
142899,157946,12606,0.035,-0.964,0.108,-0.915,0.122,0.122,445.175
142899,157903,13205,0.035,-0.966,0.11,-0.305,0.366,0.061,445.181
142893,157946,12606,0.035,-0.963,0.11,-0.305,0.366,0.061,445.185
142893,157898,13195,0.036,-0.961,0.109,0.061,0.366,0.244,445.191
142909,157946,12606,0.036,-0.958,0.111,0.061,0.366,0.244,445.195
142909,157887,13199,0.037,-0.951,0.111,-0.061,0.549,0.366,445.201
142907,157946,12606,0.035,-0.952,0.115,-0.061,0.549,0.366,445.205
142907,157876,13211,0.037,-0.95,0.116,-0.244,0.61,0.549,445.211
142915,157946,12606,0.033,-0.948,0.112,-0.244,0.61,0.549,445.214
142915,157874,13205,0.033,-0.95,0.108,-0.549,0.488,0.671,445.221
142919,157946,12606,0.033,-0.958,0.106,-0.549,0.488,0.671,445.224
142919,157866,13205,0.033,-0.961,0.108,-0.488,0.366,0.549,445.231
142915,157946,12606,0.034,-0.959,0.109,-0.488,0.366,0.549,445.234
142915,157866,13204,0.035,-0.954,0.11,0.366,0.305,0.61,445.24
142925,157946,12606,0.035,-0.955,0.109,0.366,0.305,0.61,445.244
142925,157913,13208,0.031,-0.956,0.111,1.098,0.488,0.61,445.25
142934,157946,12606,0.03,-0.958,0.113,1.098,0.488,0.61,445.254
142934,157934,13207,0.032,-0.963,0.115,1.524,0.61,0.488,445.26
142959,157946,12606,0.034,-0.962,0.115,1.524,0.61,0.488,445.264
142959,157919,13221,0.035,-0.961,0.114,1.402,0.549,0.427,445.27
142945,157946,12606,0.034,-0.962,0.116,1.402,0.549,0.427,445.274
142945,157925,13210,0.037,-0.958,0.12,1.159,0.732,0.366,445.28
142962,157946,12606,0.033,-0.955,0.119,1.159,0.732,0.366,445.284
142962,157931,13212,0.031,-0.952,0.118,0.732,0.61,0.427,445.29
142967,157946,12606,0.031,-0.96,0.117,0.732,0.61,0.427,445.294
142967,157942,13218,0.032,-0.965,0.118,0.061,0.488,0.244,445.3
142974,157946,12606,0.037,-0.963,0.118,0.061,0.488,0.244,445.304
142974,157918,13202,0.035,-0.961,0.113,-0.61,0.488,0.061,445.31
142940,157946,12606,0.034,-0.957,0.112,-0.61,0.488,0.061,445.313
142940,157912,13212,0.034,-0.956,0.117,-0.976,0.366,0.305,445.32
142954,157946,12606,0.032,-0.951,0.117,-0.976,0.366,0.305,445.323
142954,157913,13214,0.036,-0.952,0.115,-1.22,0.183,0.427,445.33
142956,157946,12606,0.035,-0.95,0.115,-1.22,0.183,0.427,445.333
142956,157931,13212,0.032,-0.951,0.119,-1.28,0.183,0.183,445.339
142971,157946,12606,0.031,-0.951,0.114,-1.28,0.183,0.183,445.343
142971,157902,13213,0.033,-0.953,0.117,-1.524,-0.061,0.183,445.349
142975,157946,12606,0.033,-0.952,0.114,-1.524,-0.061,0.183,445.353
142975,157944,13220,0.035,-0.954,0.113,-2.073,0,0.244,445.359
142962,157946,12606,0.034,-0.958,0.113,-2.073,0,0.244,445.363
142962,157928,13223,0.034,-0.961,0.109,-2.256,0.061,0.183,445.369
143010,157946,12606,0.035,-0.964,0.106,-2.256,0.061,0.183,445.373
143010,157944,13218,0.036,-0.963,0.108,-1.829,-0.183,0.183,445.379
143002,158202,12606,0.034,-0.961,0.109,-1.829,-0.183,0.183,445.383
143002,157961,13224,0.038,-0.959,0.111,-1.524,-0.122,0.305,445.389
142994,157946,12606,0.033,-0.962,0.109,-1.524,-0.122,0.305,445.393
142994,157939,13225,0.033,-0.963,0.103,-1.341,0.183,0.122,445.399
142988,157946,12606,0.037,-0.96,0.103,-1.341,0.183,0.122,445.403
142988,157925,13219,0.035,-0.964,0.103,-0.854,0.305,0.061,445.409
142979,157946,12606,0.036,-0.966,0.108,-0.854,0.305,0.061,445.412
142979,157904,13204,0.037,-0.961,0.111,-0.244,0.305,0.122,445.419
142957,157946,12606,0.037,-0.958,0.112,-0.244,0.305,0.122,445.422
142957,157925,13216,0.037,-0.954,0.115,-0.305,0.366,0.244,445.429
142973,157946,12606,0.036,-0.952,0.113,-0.305,0.366,0.244,445.432
142973,157922,13209,0.033,-0.954,0.113,-0.488,0.427,0.427,445.438
142965,157946,12606,0.034,-0.956,0.116,-0.488,0.427,0.427,445.442
142965,157939,13227,0.036,-0.949,0.116,-0.61,0.366,0.488,445.448
142993,157946,12606,0.033,-0.95,0.112,-0.61,0.366,0.488,445.452
142993,157913,13225,0.032,-0.954,0.113,-1.098,0.305,0.488,445.458
142998,157946,12606,0.033,-0.959,0.108,-1.098,0.305,0.488,445.462
142998,157937,13222,0.033,-0.962,0.109,-0.976,0.305,0.366,445.468
143003,157946,12606,0.037,-0.964,0.107,-0.976,0.305,0.366,445.472
143003,157951,13216,0.037,-0.96,0.106,-0.61,0.305,0.488,445.478
142981,157946,12606,0.037,-0.961,0.108,-0.61,0.305,0.488,445.482
142981,157951,13211,0.033,-0.956,0.111,-0.183,0.549,0.61,445.488
142980,158202,12606,0.031,-0.953,0.113,-0.183,0.549,0.61,445.492
142980,157958,13232,0.035,-0.953,0.111,-0.122,0.427,0.61,445.498
142992,157946,12606,0.033,-0.956,0.11,-0.122,0.427,0.61,445.502
142992,157945,13221,0.034,-0.958,0.106,-0.427,0.366,0.488,445.508
142993,157946,12606,0.035,-0.961,0.109,-0.427,0.366,0.488,445.512
142993,157944,13217,0.033,-0.958,0.107,-0.305,0.61,0.366,445.518
143001,157946,12606,0.033,-0.963,0.111,-0.305,0.61,0.366,445.521
143001,157935,13211,0.036,-0.967,0.11,0.061,0.732,0.244,445.528
142988,158202,12606,0.034,-0.966,0.112,0.061,0.732,0.244,445.531
142988,157954,13212,0.038,-0.96,0.116,0.488,0.61,0.305,445.537
143004,158202,12606,0.036,-0.959,0.112,0.488,0.61,0.305,445.541
143004,157980,13219,0.032,-0.957,0.108,0.488,0.488,0.427,445.547
143025,158202,12606,0.031,-0.955,0.111,0.488,0.488,0.427,445.551
143025,157970,13239,0.031,-0.952,0.114,0.427,0.427,0.366,445.557
143064,158202,12606,0.037,-0.952,0.11,0.427,0.427,0.366,445.561
143064,157981,13228,0.037,-0.954,0.107,0,0.305,0.305,445.567
143044,158202,12606,0.037,-0.954,0.107,0,0.305,0.305,445.571
143044,158037,13232,0.034,-0.954,0.116,0,0.305,0.305,445.577
143070,158202,12606,0.034,-0.954,0.116,0,0.305,0.305,445.581
143070,158040,13231,0.037,-0.949,0.112,0,0.061,0.427,445.587
143066,158202,12606,0.037,-0.949,0.112,0,0.061,0.427,445.591
143066,158042,13249,0.035,-0.964,0.117,-0.427,0,0.305,445.597
143069,158202,12606,0.035,-0.964,0.117,-0.427,0,0.305,445.601
143069,158010,13223,0.036,-0.958,0.114,-1.22,0.183,0.305,445.607
143073,158202,12606,0.036,-0.958,0.114,-1.22,0.183,0.305,445.611
143073,157999,13226,0.031,-0.96,0.106,-1.646,0.305,0.305,445.617
143052,158202,12606,0.031,-0.96,0.106,-1.646,0.305,0.305,445.62
143052,157985,13223,0.036,-0.966,0.106,-1.28,0.183,0.244,445.627
143038,158202,12606,0.036,-0.966,0.106,-1.28,0.183,0.244,445.63
143038,157966,13214,0.034,-0.962,0.106,-0.549,0.183,0.183,445.636
143023,158202,12606,0.034,-0.962,0.106,-0.549,0.183,0.183,445.64
143023,157983,13227,0.036,-0.957,0.104,-0.122,0.305,0.305,445.646
143018,158202,12606,0.036,-0.957,0.104,-0.122,0.305,0.305,445.65
143018,157961,13222,0.033,-0.959,0.107,0.366,0.61,0.366,445.656
143010,157946,12606,0.033,-0.959,0.107,0.366,0.61,0.366,445.66
143010,157929,13224,0.034,-0.948,0.104,0.61,0.488,0.427,445.666
142991,157946,12606,0.034,-0.948,0.104,0.61,0.488,0.427,445.67
142991,157938,13219,0.033,-0.95,0.116,0.793,0.305,0.549,445.676
142987,157946,12606,0.033,-0.95,0.116,0.793,0.305,0.549,445.68
142987,157948,13218,0.034,-0.959,0.116,0.61,0.244,0.366,445.686
142996,158202,12606,0.034,-0.959,0.116,0.61,0.244,0.366,445.69
142996,157968,13226,0.036,-0.959,0.11,0,0.305,0.305,445.696
143028,158202,12606,0.036,-0.959,0.11,0,0.305,0.305,445.7
143028,157969,13223,0.036,-0.959,0.106,-0.305,0.366,0.427,445.706
143059,158202,12606,0.036,-0.959,0.106,-0.305,0.366,0.427,445.71
143059,157989,13220,0.036,-0.963,0.108,-0.122,0.366,0.488,445.716
143048,158202,12606,0.036,-0.963,0.108,-0.122,0.366,0.488,445.719
143048,158008,13231,0.037,-0.96,0.108,-0.122,0.366,0.488,445.726
143048,158202,12606,0.038,-0.96,0.112,-0.183,0.427,0.427,445.729
143048,157992,13230,0.036,-0.957,0.111,-0.183,0.427,0.427,445.736
143045,158202,12606,0.036,-0.958,0.11,-0.122,0.732,0.427,445.739
143045,158013,13247,0.036,-0.958,0.107,-0.122,0.732,0.427,445.745
143051,158202,12606,0.035,-0.958,0.11,0,0.732,0.427,445.749
143051,157973,13237,0.035,-0.96,0.109,0,0.732,0.427,445.755
143068,158202,12606,0.033,-0.958,0.112,0.244,0.61,0.488,445.759
143068,158000,13236,0.034,-0.954,0.113,0.244,0.61,0.488,445.765
143054,158202,12606,0.033,-0.953,0.111,0.122,0.488,0.549,445.769
143054,158026,13235,0.032,-0.956,0.119,0.122,0.488,0.549,445.775
143058,158202,12606,0.031,-0.96,0.114,-0.183,0.305,0.488,445.779
143058,157981,13246,0.031,-0.96,0.111,-0.183,0.305,0.488,445.785
143056,158202,12606,0.033,-0.96,0.116,-0.488,0.061,0.305,445.789
143056,157982,13221,0.034,-0.962,0.113,-0.488,0.061,0.305,445.795
143048,158202,12606,0.033,-0.963,0.107,-0.915,0,0.183,445.799
143048,157997,13234,0.034,-0.961,0.11,-0.915,0,0.183,445.805
143057,158202,12606,0.037,-0.961,0.11,-1.037,0.183,0.183,445.809
143057,157991,13245,0.039,-0.96,0.105,-1.037,0.183,0.183,445.815
143079,158202,12606,0.037,-0.961,0.107,-0.61,0.549,0.366,445.818
143079,157997,13234,0.034,-0.96,0.106,-0.61,0.549,0.366,445.825
143089,158202,12606,0.035,-0.958,0.108,0,0.671,0.488,445.828
143089,158011,13245,0.036,-0.957,0.11,0,0.671,0.488,445.835
143101,158202,12606,0.034,-0.955,0.107,0.366,0.671,0.488,445.838
143101,158013,13236,0.036,-0.955,0.104,0.366,0.671,0.488,445.844
143083,158202,12606,0.034,-0.954,0.111,0.427,0.732,0.61,445.848
143083,158040,13248,0.032,-0.956,0.117,0.427,0.732,0.61,445.854
143094,158202,12606,0.033,-0.954,0.112,0.427,0.488,0.671,445.858
143094,158017,13241,0.033,-0.955,0.109,0.427,0.488,0.671,445.864
143080,158202,12606,0.034,-0.954,0.114,0.183,0.427,0.488,445.868
143080,158015,13236,0.031,-0.953,0.112,0.183,0.427,0.488,445.874
143055,158202,12606,0.033,-0.953,0.112,-0.061,0.427,0.427,445.878
143055,157997,13222,0.03,-0.955,0.111,-0.061,0.427,0.427,445.884
143056,158202,12606,0.031,-0.96,0.111,-0.244,0.427,0.244,445.888
143056,157996,13217,0.028,-0.965,0.112,-0.244,0.427,0.244,445.894
143000,158202,12606,0.032,-0.963,0.113,-0.366,0.244,0.122,445.898
143000,157984,13235,0.035,-0.962,0.109,-0.366,0.244,0.122,445.904
142997,157946,12606,0.034,-0.962,0.106,-0.305,0.183,0,445.908
142997,157917,13217,0.032,-0.965,0.108,-0.305,0.183,0,445.914
142988,157946,12606,0.035,-0.965,0.112,0,0.183,0.061,445.917
142988,157930,13213,0.037,-0.962,0.117,0,0.183,0.061,445.924
142997,157946,12606,0.037,-0.959,0.11,-0.122,0.244,0.061,445.927
142997,157923,13234,0.038,-0.961,0.109,-0.122,0.244,0.061,445.934
142987,157946,12606,0.037,-0.956,0.115,-0.183,0.183,0.183,445.937
142987,157928,13220,0.036,-0.955,0.116,-0.183,0.183,0.183,445.943
142998,158202,12606,0.036,-0.955,0.115,-0.305,0.122,0.366,445.947
142998,157952,13235,0.036,-0.953,0.111,-0.305,0.122,0.366,445.953
143008,157946,12606,0.036,-0.952,0.114,-0.732,0.244,0.305,445.957
143008,157936,13213,0.036,-0.957,0.109,-0.732,0.244,0.305,445.963
143025,157946,12606,0.036,-0.956,0.111,-0.793,0.427,0.427,445.967
143025,157943,13212,0.036,-0.957,0.109,-0.793,0.427,0.427,445.973
143003,157946,12606,0.034,-0.957,0.106,-0.671,0.244,0.427,445.977
143003,157946,13230,0.035,-0.961,0.107,-0.671,0.244,0.427,445.983
143008,157946,12606,0.036,-0.958,0.108,-0.244,0.305,0.305,445.987
143008,157935,13228,0.033,-0.959,0.11,-0.244,0.305,0.305,445.993
143035,158202,12606,0.035,-0.963,0.113,0.183,0.488,0.366,445.997
143035,157955,13226,0.035,-0.96,0.109,0.183,0.488,0.366,446.003
143028,158202,12606,0.033,-0.96,0.109,0.366,0.488,0.305,446.007
143028,157964,13233,0.037,-0.963,0.108,0.366,0.488,0.305,446.013
143022,158202,12606,0.035,-0.964,0.106,0.61,0.488,0.305,446.017
143022,157956,13238,0.032,-0.958,0.108,0.61,0.488,0.305,446.023
143011,157946,12606,0.033,-0.958,0.109,0.61,0.671,0.549,446.026
143011,157937,13221,0.031,-0.955,0.112,0.61,0.671,0.549,446.033
143016,157946,12606,0.034,-0.953,0.111,0.427,0.427,0.549,446.036
143016,157935,13223,0.035,-0.96,0.109,0.427,0.427,0.549,446.042
142998,157946,12606,0.037,-0.963,0.113,0.122,0.366,0.366,446.046
142998,157909,13231,0.034,-0.961,0.107,0.122,0.366,0.366,446.052
143001,157946,12606,0.035,-0.962,0.106,0.061,0.549,0.305,446.056
143001,157945,13234,0.035,-0.959,0.108,0.061,0.549,0.305,446.062
143027,157946,12606,0.033,-0.956,0.105,0.305,0.549,0.549,446.066
143027,157936,13204,0.031,-0.957,0.105,0.305,0.549,0.549,446.072
143004,157946,12606,0.031,-0.958,0.114,0.793,0.549,0.61,446.076
143004,157942,13226,0.037,-0.957,0.117,0.793,0.549,0.61,446.082
143005,157946,12606,0.035,-0.958,0.116,1.037,0.549,0.366,446.086
143005,157948,13235,0.035,-0.956,0.114,1.037,0.549,0.366,446.092
143011,158202,12606,0.035,-0.956,0.11,0.549,0.671,0.366,446.096
143011,157959,13235,0.029,-0.958,0.114,0.549,0.671,0.366,446.102
143021,158202,12606,0.034,-0.958,0.115,0.244,0.732,0.366,446.106
143021,157953,13234,0.038,-0.957,0.112,0.244,0.732,0.366,446.112
143029,157946,12606,0.039,-0.954,0.114,0.305,0.61,0.244,446.116
143029,157944,13223,0.035,-0.952,0.114,0.305,0.61,0.244,446.122
143026,158202,12606,0.034,-0.955,0.115,0.244,0.61,0.427,446.125
143026,157974,13223,0.034,-0.959,0.114,0.244,0.61,0.427,446.132
143034,158202,12606,0.036,-0.961,0.112,0.305,0.549,0.549,446.135
143034,157958,13232,0.036,-0.962,0.112,0.305,0.549,0.549,446.142
143051,158202,12606,0.033,-0.956,0.112,0,0.427,0.549,446.145
143051,157982,13231,0.034,-0.953,0.111,0,0.427,0.549,446.151
143032,158202,12606,0.034,-0.953,0.111,-0.183,0.305,0.671,446.155
143032,157999,13235,0.03,-0.958,0.113,-0.183,0.305,0.671,446.161
143033,158202,12606,0.034,-0.962,0.109,-0.305,0.183,0.61,446.165
143033,157964,13235,0.034,-0.962,0.112,-0.305,0.183,0.61,446.171
143025,158202,12606,0.034,-0.962,0.112,-0.305,0.183,0.61,446.175
143025,157989,13213,0.032,-0.961,0.112,-0.427,0.061,0.427,446.181
143023,158202,12606,0.032,-0.961,0.112,-0.427,0.061,0.427,446.185
143023,157956,13241,0.034,-0.958,0.119,-0.488,-0.061,0.305,446.191
143017,158202,12606,0.034,-0.958,0.119,-0.488,-0.061,0.305,446.195
143017,157953,13243,0.036,-0.953,0.119,-1.037,-0.183,0.366,446.201
143046,158202,12606,0.036,-0.953,0.119,-1.037,-0.183,0.366,446.205
143046,157988,13240,0.033,-0.952,0.115,-1.829,-0.244,0.305,446.211
143049,158202,12606,0.033,-0.952,0.115,-1.829,-0.244,0.305,446.215
143049,157990,13230,0.036,-0.955,0.108,-2.439,-0.122,0.122,446.221
143042,158202,12606,0.036,-0.955,0.108,-2.439,-0.122,0.122,446.224
143042,157968,13241,0.036,-0.964,0.103,-2.622,-0.122,0.061,446.231
143013,158202,12606,0.036,-0.964,0.103,-2.622,-0.122,0.061,446.234
143013,157967,13243,0.039,-0.96,0.109,-1.951,-0.061,0,446.241
143040,157946,12606,0.039,-0.96,0.109,-1.951,-0.061,0,446.244
143040,157951,13227,0.036,-0.961,0.103,-1.28,0.061,0.244,446.25
143028,157946,12606,0.036,-0.961,0.103,-1.28,0.061,0.244,446.254
143028,157948,13229,0.036,-0.962,0.101,-0.915,0.244,0.305,446.26
143016,157946,12606,0.036,-0.962,0.101,-0.915,0.244,0.305,446.264
143016,157936,13225,0.036,-0.961,0.105,-0.244,0.488,0.305,446.27
143016,157946,12606,0.036,-0.961,0.105,-0.244,0.488,0.305,446.274
143016,157932,13218,0.035,-0.956,0.111,0.61,0.549,0.488,446.28
143047,157946,12606,0.035,-0.956,0.111,0.61,0.549,0.488,446.284
143047,157927,13233,0.036,-0.957,0.111,0.793,0.61,0.61,446.29
143031,158202,12606,0.036,-0.957,0.111,0.793,0.61,0.61,446.294
143031,157977,13225,0.033,-0.961,0.112,0.488,0.732,0.549,446.3
143038,157946,12606,0.033,-0.961,0.112,0.488,0.732,0.549,446.304
143038,157946,13226,0.033,-0.96,0.111,0.366,0.732,0.488,446.31
143041,158202,12606,0.033,-0.96,0.111,0.366,0.732,0.488,446.314
143041,158000,13236,0.034,-0.959,0.113,0.427,0.549,0.366,446.32
143045,158202,12606,0.034,-0.959,0.113,0.427,0.549,0.366,446.323
143045,157985,13232,0.031,-0.957,0.11,0.427,0.427,0.427,446.33
143042,158202,12606,0.034,-0.958,0.112,0.427,0.427,0.427,446.333
143042,157980,13231,0.038,-0.959,0.117,0.366,0.488,0.427,446.34
143005,158202,12606,0.034,-0.961,0.111,0.366,0.488,0.427,446.343
143005,158002,13227,0.036,-0.957,0.112,0.122,0.488,0.366,446.349
143046,158202,12606,0.036,-0.96,0.112,0.122,0.488,0.366,446.353
143046,158000,13233,0.035,-0.96,0.109,0.183,0.549,0.366,446.359
143035,158202,12606,0.034,-0.959,0.104,0.183,0.549,0.366,446.363
143035,158010,13238,0.035,-0.96,0.103,0.244,0.671,0.427,446.369
143055,158202,12606,0.035,-0.961,0.108,0.244,0.671,0.427,446.373
143055,157972,13229,0.036,-0.958,0.109,0.671,0.488,0.427,446.379
143065,158202,12606,0.034,-0.957,0.113,0.671,0.488,0.427,446.383
143065,158006,13225,0.033,-0.958,0.114,0.732,0.488,0.488,446.389
143087,158202,12606,0.034,-0.957,0.113,0.732,0.488,0.488,446.393
143087,158023,13225,0.032,-0.957,0.113,0.427,0.427,0.427,446.399
143068,158202,12606,0.035,-0.957,0.113,0.427,0.427,0.427,446.403
143068,158010,13229,0.034,-0.954,0.115,-0.061,0.183,0.488,446.409
143087,158202,12606,0.031,-0.953,0.119,-0.061,0.183,0.488,446.413
143087,157989,13261,0.032,-0.953,0.114,-0.671,0.183,0.427,446.419
143092,158202,12606,0.034,-0.955,0.111,-0.671,0.183,0.427,446.422
143092,158020,13229,0.036,-0.959,0.116,-1.159,0.122,0.183,446.429
143099,158202,12606,0.034,-0.957,0.114,-1.159,0.122,0.183,446.432
143099,158043,13241,0.037,-0.959,0.112,-1.463,0,0.122,446.439
143093,158202,12606,0.038,-0.957,0.11,-1.463,0,0.122,446.442
143093,157996,13239,0.037,-0.961,0.106,-1.585,0,0.183,446.448
143079,158202,12606,0.039,-0.962,0.109,-1.585,0,0.183,446.452
143079,157991,13251,0.036,-0.962,0.105,-1.341,0.122,0.305,446.458
143092,158202,12606,0.036,-0.958,0.108,-1.341,0.122,0.305,446.462
143092,158006,13231,0.032,-0.953,0.111,-1.098,0.244,0.427,446.468
143075,158202,12606,0.033,-0.953,0.107,-1.098,0.244,0.427,446.472
143075,157974,13234,0.034,-0.958,0.107,-0.671,0.305,0.549,446.478
143047,158202,12606,0.035,-0.962,0.111,-0.671,0.305,0.549,446.482
143047,158004,13245,0.036,-0.96,0.112,-0.366,0.366,0.427,446.488
143024,157946,12606,0.032,-0.958,0.112,-0.366,0.366,0.427,446.492
143024,157914,13224,0.033,-0.96,0.113,-0.549,0.366,0.427,446.498
143028,158202,12606,0.031,-0.962,0.109,-0.549,0.366,0.427,446.502
143028,157965,13224,0.032,-0.96,0.107,-0.488,0.366,0.244,446.508
142982,157946,12606,0.035,-0.964,0.11,-0.488,0.366,0.244,446.512
142982,157923,13227,0.034,-0.96,0.107,-0.305,0.244,0.183,446.518
142984,157946,12606,0.038,-0.96,0.11,-0.305,0.244,0.183,446.521
142984,157920,13227,0.037,-0.959,0.115,-0.427,0.244,0.244,446.528
142967,157946,12606,0.037,-0.954,0.109,-0.427,0.244,0.244,446.531
142967,157901,13216,0.036,-0.954,0.108,-0.61,0.183,0.427,446.538
142981,157946,12606,0.037,-0.956,0.107,-0.61,0.183,0.427,446.541
142981,157881,13221,0.035,-0.957,0.107,-0.549,0.549,0.366,446.547
142972,157946,12606,0.034,-0.951,0.104,-0.549,0.549,0.366,446.551
142972,157894,13213,0.031,-0.953,0.113,-0.366,0.427,0.488,446.557
142974,157946,12606,0.034,-0.951,0.113,-0.366,0.427,0.488,446.561
142974,157899,13198,0.031,-0.956,0.115,-0.549,0.183,0.671,446.567
142999,157946,12606,0.036,-0.958,0.11,-0.549,0.183,0.671,446.571
142999,157915,13217,0.034,-0.96,0.111,-0.61,0.305,0.732,446.577
143004,157946,12606,0.03,-0.964,0.107,-0.61,0.305,0.732,446.581
143004,157933,13206,0.029,-0.97,0.107,-0.732,0.366,0.793,446.587
143018,157946,12606,0.031,-0.966,0.106,-0.732,0.366,0.793,446.591
143018,157935,13228,0.031,-0.96,0.11,-0.549,0.061,0.549,446.597
143018,157946,12606,0.031,-0.954,0.115,-0.549,0.061,0.549,446.601
143018,157916,13229,0.029,-0.951,0.114,-0.549,0,0.366,446.607
143032,157946,12606,0.035,-0.953,0.114,-0.549,0,0.366,446.611
143032,157940,13213,0.035,-0.956,0.108,-0.854,0.122,0.061,446.617
143002,157946,12606,0.036,-0.965,0.104,-0.854,0.122,0.061,446.62
143002,157936,13225,0.035,-0.963,0.107,-0.915,0.305,-0.244,446.627
143001,157946,12606,0.038,-0.963,0.107,-0.915,0.305,-0.244,446.63
143001,157951,13224,0.043,-0.964,0.107,-0.61,0.305,0.122,446.637
143017,157946,12606,0.042,-0.965,0.106,-0.61,0.305,0.122,446.64
143017,157927,13211,0.04,-0.961,0.106,-0.061,0.61,0.244,446.646
143009,157946,12606,0.033,-0.959,0.109,-0.061,0.61,0.244,446.65
143009,157924,13218,0.029,-0.957,0.108,0.244,0.793,0.488,446.656
143030,157946,12606,0.03,-0.956,0.105,0.244,0.793,0.488,446.66
143030,157929,13230,0.032,-0.958,0.108,0.305,0.488,0.427,446.666
143033,157946,12606,0.035,-0.954,0.113,0.305,0.488,0.427,446.67
143033,157930,13219,0.034,-0.953,0.115,0.244,0.305,0.244,446.676
143032,158202,12606,0.031,-0.953,0.114,0.244,0.305,0.244,446.68
143032,157959,13214,0.033,-0.953,0.111,-0.122,0.244,0.061,446.686
143025,157946,12606,0.03,-0.95,0.111,-0.122,0.244,0.061,446.69
143025,157938,13227,0.031,-0.954,0.111,-0.549,0.061,0,446.696
143040,158202,12606,0.033,-0.955,0.111,-0.549,0.061,0,446.7
143040,157953,13201,0.034,-0.956,0.112,-0.732,-0.183,0,446.706
143032,158202,12606,0.033,-0.962,0.113,-0.732,-0.183,0,446.71
143032,157961,13208,0.037,-0.962,0.11,-0.854,-0.183,-0.122,446.716
143020,157946,12606,0.036,-0.964,0.105,-0.854,-0.183,-0.122,446.72
143020,157938,13221,0.034,-0.966,0.108,-1.159,-0.183,-0.183,446.726
143009,157946,12606,0.036,-0.963,0.112,-1.159,-0.183,-0.183,446.729
143009,157931,13205,0.039,-0.963,0.111,-1.341,-0.244,-0.122,446.736
142994,157946,12606,0.038,-0.961,0.103,-1.341,-0.244,-0.122,446.739
142994,157910,13210,0.038,-0.962,0.105,-1.646,-0.061,0,446.745
142985,157946,12606,0.039,-0.959,0.105,-1.646,-0.061,0,446.749
142985,157922,13229,0.038,-0.957,0.106,-1.402,-0.061,0,446.755
142957,157946,12606,0.037,-0.952,0.104,-1.402,-0.061,0,446.759
142957,157901,13206,0.039,-0.956,0.103,-1.22,0.061,0.122,446.765
142950,157946,12606,0.043,-0.959,0.102,-1.22,0.061,0.122,446.769
142950,157903,13217,0.045,-0.96,0.103,-0.305,0.488,0.122,446.775
142953,157946,12606,0.045,-0.96,0.103,-0.305,0.488,0.122,446.779
142953,157894,13228,0.042,-0.959,0.1,0.488,0.793,0.488,446.785
142966,157946,12606,0.042,-0.959,0.1,0.488,0.793,0.488,446.789
142966,157893,13213,0.039,-0.962,0.099,1.098,1.098,0.976,446.795
142959,157946,12606,0.039,-0.962,0.099,1.098,1.098,0.976,446.799
142959,157914,13205,0.034,-0.959,0.102,1.89,1.341,1.098,446.805
142947,157946,12606,0.034,-0.959,0.102,1.89,1.341,1.098,446.809
142947,157909,13213,0.035,-0.964,0.108,2.622,1.341,1.28,446.815
142952,157946,12606,0.035,-0.964,0.108,2.622,1.341,1.28,446.819
142952,157889,13214,0.031,-0.959,0.114,2.622,1.524,1.22,446.825
142971,157946,12606,0.031,-0.959,0.114,2.622,1.524,1.22,446.828
142971,157886,13209,0.026,-0.956,0.109,2.317,1.402,0.976,446.835
142958,157946,12606,0.026,-0.956,0.109,2.317,1.402,0.976,446.838
142958,157848,13203,0.026,-0.953,0.112,2.073,1.098,0.793,446.844
142943,157946,12606,0.026,-0.953,0.112,2.073,1.098,0.793,446.848
142943,157849,13213,0.028,-0.955,0.114,1.524,0.915,0.244,446.854
142909,157946,12606,0.028,-0.955,0.114,1.524,0.915,0.244,446.858
142909,157879,13207,0.032,-0.957,0.117,1.037,0.61,-0.122,446.864
142901,157946,12606,0.032,-0.957,0.117,1.037,0.61,-0.122,446.868
142901,157860,13200,0.032,-0.945,0.113,0.549,0.488,0.061,446.874
142896,157946,12606,0.032,-0.945,0.113,0.549,0.488,0.061,446.878
142896,157825,13205,0.03,-0.957,0.112,0.366,0.305,0,446.884
142909,157946,12606,0.03,-0.957,0.112,0.366,0.305,0,446.888
142909,157825,13190,0.035,-0.953,0.121,0,-0.244,-0.183,446.894
142918,157946,12606,0.035,-0.953,0.121,0,-0.244,-0.183,446.898
142918,157825,13200,0.035,-0.953,0.124,-1.22,-0.488,-0.183,446.904
142891,157946,12606,0.035,-0.953,0.124,-1.22,-0.488,-0.183,446.908
142891,157832,13195,0.036,-0.956,0.118,-2.5,-0.488,-0.183,446.914
142889,157946,12606,0.036,-0.956,0.118,-2.5,-0.488,-0.183,446.918
142889,157830,13197,0.036,-0.956,0.116,-2.5,-0.488,-0.183,446.924
142869,157946,12606,0.036,-0.955,0.11,-3.232,-0.488,-0.244,446.927
142869,157835,13200,0.039,-0.961,0.11,-3.232,-0.488,-0.244,446.934
142896,157946,12606,0.039,-0.962,0.11,-3.232,-0.488,-0.244,446.937
142896,157831,13195,0.039,-0.963,0.108,-3.232,-0.488,-0.244,446.943
142894,157946,12606,0.039,-0.968,0.109,-3.171,-0.366,0.122,446.947
142894,157840,13181,0.037,-0.966,0.104,-3.171,-0.366,0.122,446.953
142922,157946,12606,0.036,-0.964,0.104,-2.866,-0.061,0.122,446.957
142922,157827,13210,0.033,-0.965,0.105,-2.866,-0.061,0.122,446.963
142895,157946,12606,0.031,-0.962,0.103,-2.5,-0.061,0.183,446.967
142895,157834,13193,0.032,-0.963,0.102,-2.5,-0.061,0.183,446.973
142881,157946,12606,0.033,-0.964,0.101,-2.256,0,0.061,446.977
142881,157818,13219,0.035,-0.961,0.097,-2.256,0,0.061,446.983
142886,157946,12606,0.034,-0.96,0.098,-1.768,-0.183,0,446.987
142886,157826,13184,0.038,-0.961,0.102,-1.768,-0.183,0,446.993
142859,157946,12606,0.036,-0.964,0.102,-0.793,-0.183,-0.061,446.997
142859,157838,13205,0.032,-0.963,0.101,-0.793,-0.183,-0.061,447.003
142861,157946,12606,0.031,-0.965,0.103,0.366,0.244,-0.305,447.007
142861,157793,13190,0.033,-0.965,0.103,0.366,0.244,-0.305,447.013
142847,157946,12606,0.037,-0.96,0.107,0.793,0.183,-0.305,447.017
142847,157784,13191,0.035,-0.954,0.109,0.793,0.183,-0.305,447.023
142844,157946,12606,0.038,-0.95,0.113,0.671,0.244,-0.183,447.026
142844,157788,13186,0.038,-0.951,0.115,0.671,0.244,-0.183,447.033
142849,157946,12606,0.036,-0.952,0.111,0.122,0.244,-0.061,447.036
142849,157765,13193,0.036,-0.957,0.111,0.122,0.244,-0.061,447.043
142840,157946,12606,0.037,-0.951,0.108,-0.61,0.305,-0.244,447.046
142840,157799,13186,0.04,-0.953,0.108,-0.61,0.305,-0.244,447.052
142836,157946,12606,0.041,-0.958,0.103,-0.915,0.427,-0.183,447.056
142836,157785,13189,0.042,-0.958,0.1,-0.915,0.427,-0.183,447.062
142844,157946,12606,0.04,-0.963,0.103,-0.854,0.549,0,447.066
142844,157780,13189,0.038,-0.964,0.104,-0.854,0.549,0,447.072
142832,157946,12606,0.037,-0.96,0.104,-0.183,0.671,0.305,447.076
142832,157791,13187,0.039,-0.954,0.103,-0.183,0.671,0.305,447.082
142857,157946,12606,0.038,-0.952,0.107,0.244,0.61,0.671,447.086
142857,157789,13192,0.037,-0.958,0.103,0.244,0.61,0.671,447.092
142860,157946,12606,0.036,-0.965,0.105,0.732,0.793,0.549,447.096
142860,157817,13193,0.035,-0.962,0.104,0.732,0.793,0.549,447.102
142903,157946,12606,0.036,-0.959,0.1,1.341,0.732,0.732,447.106
142903,157811,13180,0.04,-0.954,0.104,1.341,0.732,0.732,447.112
142891,157946,12606,0.035,-0.948,0.104,1.829,0.915,0.915,447.116
142891,157848,13201,0.033,-0.952,0.103,1.829,0.915,0.915,447.122
142926,157946,12606,0.034,-0.956,0.107,2.073,1.037,0.854,447.125
142926,157851,13194,0.034,-0.958,0.108,2.073,1.037,0.854,447.132
142916,157946,12606,0.035,-0.964,0.109,2.195,0.915,0.549,447.135
142916,157855,13185,0.037,-0.967,0.113,2.195,0.915,0.549,447.142
142922,157946,12606,0.035,-0.96,0.111,2.317,0.854,0.427,447.145
142922,157864,13206,0.036,-0.955,0.113,2.317,0.854,0.427,447.151
142937,157946,12606,0.037,-0.955,0.116,2.439,0.976,0.61,447.155
142937,157858,13204,0.031,-0.957,0.117,2.439,0.976,0.61,447.161
142952,157946,12606,0.037,-0.958,0.112,2.134,0.976,0.549,447.165
142952,157884,13195,0.039,-0.959,0.112,2.134,0.976,0.549,447.171
142959,157946,12606,0.036,-0.955,0.115,1.707,1.098,0.366,447.175
142959,157871,13191,0.035,-0.956,0.114,1.707,1.098,0.366,447.181
142938,157946,12606,0.035,-0.955,0.113,1.22,0.854,0.549,447.185
142938,157881,13181,0.035,-0.956,0.111,1.22,0.854,0.549,447.191
142922,157946,12606,0.036,-0.958,0.115,0.671,0.671,0.549,447.195
142922,157863,13172,0.035,-0.96,0.113,0.671,0.671,0.549,447.201
142909,157946,12606,0.035,-0.957,0.113,0.366,0.61,0.427,447.205
142909,157842,13199,0.032,-0.956,0.114,0.366,0.61,0.427,447.211
142895,157946,12606,0.031,-0.954,0.114,-0.061,0.549,0.488,447.215
142895,157819,13189,0.03,-0.954,0.116,-0.061,0.549,0.488,447.221
142882,157946,12606,0.031,-0.957,0.116,-0.488,0.183,0.305,447.224
142882,157815,13199,0.033,-0.957,0.112,-0.488,0.183,0.305,447.231
142830,157946,12606,0.036,-0.957,0.114,-0.854,0,0.122,447.234
142830,157800,13193,0.035,-0.958,0.112,-0.854,0,0.122,447.241
142822,157946,12606,0.037,-0.962,0.111,-0.915,0.366,0,447.244
142822,157751,13175,0.039,-0.959,0.111,-0.915,0.366,0,447.25
142811,157946,12606,0.038,-0.961,0.109,-0.976,0.305,0.183,447.254
142811,157774,13188,0.041,-0.958,0.109,-0.976,0.305,0.183,447.26
142820,157946,12606,0.039,-0.958,0.113,-1.159,0.244,0.366,447.264
142820,157738,13167,0.037,-0.96,0.112,-1.159,0.244,0.366,447.27
142807,157946,12606,0.036,-0.959,0.109,-0.976,0.488,0.366,447.274
142807,157735,13165,0.035,-0.956,0.109,-0.976,0.488,0.366,447.28
142802,157946,12606,0.032,-0.949,0.109,-0.61,0.305,0.488,447.284
142802,157725,13177,0.033,-0.95,0.108,-0.61,0.305,0.488,447.29
142808,157946,12606,0.034,-0.954,0.106,-0.366,0.305,0.427,447.294
142808,157725,13183,0.034,-0.956,0.108,-0.366,0.305,0.427,447.3
142795,157946,12606,0.034,-0.953,0.109,0.183,0.427,0.366,447.304
142795,157723,13177,0.037,-0.959,0.112,0.183,0.427,0.366,447.31
142797,157946,12606,0.039,-0.964,0.106,0.793,0.427,0.549,447.314
142797,157736,13174,0.035,-0.963,0.106,0.793,0.427,0.549,447.32
142802,157946,12606,0.034,-0.962,0.11,1.402,0.427,0.488,447.323
142802,157754,13178,0.034,-0.956,0.113,1.402,0.427,0.488,447.33
142792,157946,12606,0.034,-0.956,0.117,1.28,0.305,0.549,447.333
142792,157743,13177,0.034,-0.959,0.121,1.28,0.305,0.549,447.34
142822,157946,12606,0.035,-0.956,0.126,0.61,0.183,0.488,447.343
142822,157749,13190,0.038,-0.952,0.129,0.61,0.183,0.488,447.349
142819,157946,12606,0.035,-0.95,0.124,-0.61,0.061,0.366,447.353
142819,157746,13194,0.031,-0.955,0.119,-0.61,0.061,0.366,447.359
142826,157946,12606,0.034,-0.96,0.119,-2.012,0.122,0.305,447.363
142826,157772,13180,0.034,-0.963,0.116,-2.012,0.122,0.305,447.369
142828,157946,12606,0.034,-0.963,0.116,-2.012,0.122,0.305,447.373
142828,157771,13160,0.037,-0.959,0.111,-2.927,-0.183,0.244,447.379
142847,157946,12606,0.037,-0.959,0.111,-2.927,-0.183,0.244,447.383
142847,157795,13182,0.034,-0.953,0.11,-3.415,-0.427,0.183,447.389
142871,157946,12606,0.034,-0.953,0.11,-3.415,-0.427,0.183,447.393
142871,157808,13170,0.035,-0.949,0.106,-3.537,-0.366,0.183,447.399
142868,157946,12606,0.035,-0.949,0.106,-3.537,-0.366,0.183,447.403
142868,157818,13181,0.036,-0.956,0.097,-3.354,-0.549,0.244,447.409
142884,157946,12606,0.036,-0.956,0.097,-3.354,-0.549,0.244,447.413
142884,157818,13170,0.039,-0.96,0.098,-2.439,-0.488,0.183,447.419
142915,157946,12606,0.039,-0.96,0.098,-2.439,-0.488,0.183,447.422
142915,157826,13189,0.038,-0.961,0.103,-1.402,-0.244,0.366,447.429
142924,157946,12606,0.038,-0.961,0.103,-1.402,-0.244,0.366,447.432
142924,157839,13203,0.039,-0.964,0.103,-0.793,-0.244,0.549,447.439
142972,157946,12606,0.039,-0.964,0.103,-0.793,-0.244,0.549,447.442
142972,157854,13199,0.04,-0.963,0.102,-0.305,0.122,0.61,447.448
142954,157946,12606,0.04,-0.963,0.102,-0.305,0.122,0.61,447.452
142954,157874,13199,0.038,-0.967,0.098,0.305,0.488,0.793,447.458
142962,157946,12606,0.038,-0.967,0.098,0.305,0.488,0.793,447.462
142962,157900,13188,0.04,-0.97,0.109,0.854,0.732,0.793,447.468
142979,157946,12606,0.04,-0.97,0.109,0.854,0.732,0.793,447.472
142979,157906,13206,0.035,-0.953,0.112,1.402,0.915,0.915,447.478
142950,157946,12606,0.035,-0.953,0.112,1.402,0.915,0.915,447.482
142950,157906,13188,0.034,-0.957,0.115,1.098,0.915,1.098,447.488
142972,157946,12606,0.034,-0.957,0.115,1.098,0.915,1.098,447.492
142972,157909,13195,0.034,-0.957,0.116,0.427,0.976,0.976,447.498
142961,157946,12606,0.034,-0.957,0.116,0.427,0.976,0.976,447.502
142961,157898,13212,0.035,-0.954,0.11,-0.244,0.854,0.854,447.508
142963,157946,12606,0.035,-0.954,0.11,-0.244,0.854,0.854,447.512
142963,157866,13200,0.033,-0.952,0.107,-0.671,0.854,0.854,447.518
142952,157946,12606,0.034,-0.949,0.102,-0.671,0.854,0.854,447.521
142952,157898,13200,0.032,-0.953,0.102,-0.427,0.915,0.793,447.528
142957,157946,12606,0.033,-0.959,0.102,-0.427,0.915,0.793,447.531
142957,157860,13202,0.032,-0.958,0.106,0.427,0.732,0.671,447.538
142952,157946,12606,0.033,-0.956,0.112,0.427,0.732,0.671,447.541
142952,157877,13195,0.033,-0.956,0.113,0.61,0.732,0.671,447.547
142951,157946,12606,0.034,-0.956,0.111,0.61,0.732,0.671,447.551
142951,157901,13207,0.033,-0.957,0.114,0.427,0.61,0.671,447.557
142961,157946,12606,0.036,-0.958,0.112,0.427,0.61,0.671,447.561
142961,157894,13195,0.037,-0.962,0.11,0.305,0.549,0.61,447.567
142974,157946,12606,0.035,-0.962,0.112,0.305,0.549,0.61,447.571
142974,157898,13201,0.035,-0.959,0.112,-0.122,0.549,0.671,447.577
142958,157946,12606,0.037,-0.96,0.112,-0.122,0.549,0.671,447.581
142958,157875,13194,0.036,-0.958,0.113,-0.488,0.488,0.61,447.587
142971,157946,12606,0.039,-0.954,0.112,-0.488,0.488,0.61,447.591
142971,157878,13215,0.039,-0.956,0.108,-0.671,0.488,0.671,447.597
142984,157946,12606,0.036,-0.96,0.114,-0.671,0.488,0.671,447.601
142984,157895,13201,0.034,-0.964,0.116,-0.793,0.488,0.793,447.607
142983,157946,12606,0.032,-0.957,0.112,-0.793,0.488,0.793,447.611
142983,157892,13205,0.038,-0.952,0.097,-1.463,0.366,0.671,447.617
143010,157946,12606,0.039,-0.961,0.098,-1.463,0.366,0.671,447.62
143010,157900,13196,0.038,-0.969,0.102,-1.159,0.427,0.549,447.627
142986,157946,12606,0.034,-0.964,0.102,-1.159,0.427,0.549,447.63
142986,157899,13183,0.034,-0.961,0.101,0.244,0.732,0.793,447.637
142958,157946,12606,0.033,-0.958,0.101,0.244,0.732,0.793,447.64
142958,157882,13213,0.037,-0.958,0.107,1.28,1.159,0.915,447.646
142950,157946,12606,0.031,-0.956,0.109,1.28,1.159,0.915,447.65
142950,157861,13189,0.032,-0.955,0.112,1.768,1.037,1.098,447.656
142909,157946,12606,0.033,-0.954,0.109,1.768,1.037,1.098,447.66
142909,157829,13194,0.034,-0.952,0.109,1.768,0.915,1.159,447.666
142866,157946,12606,0.029,-0.953,0.113,1.768,0.915,1.159,447.67
142866,157811,13195,0.032,-0.952,0.116,1.524,0.976,0.976,447.676
142869,157946,12606,0.034,-0.95,0.116,1.524,0.976,0.976,447.68
142869,157779,13184,0.031,-0.953,0.114,0.854,0.671,0.854,447.686
142858,157946,12606,0.033,-0.958,0.112,0.854,0.671,0.854,447.69
142858,157747,13166,0.031,-0.963,0.116,0.366,0.488,0.854,447.696
142824,157946,12606,0.03,-0.96,0.116,0.366,0.488,0.854,447.7
142824,157737,13173,0.029,-0.962,0.115,-0.122,0.61,0.793,447.706
142797,157946,12606,0.033,-0.963,0.115,-0.122,0.61,0.793,447.71
142797,157741,13185,0.034,-0.964,0.118,-0.732,0.427,0.61,447.716
142807,157946,12606,0.033,-0.962,0.116,-0.732,0.427,0.61,447.72
142807,157714,13164,0.035,-0.957,0.113,-1.463,0.305,0.61,447.726
142793,157946,12606,0.035,-0.956,0.109,-1.463,0.305,0.61,447.729
142793,157742,13165,0.033,-0.959,0.098,-1.585,0.549,0.549,447.736
142811,157946,12606,0.033,-0.959,0.1,-1.585,0.549,0.549,447.739
