142389,158772,12675,0.013,-0.947,-0.169,0.122,0.549,0.488,229.32
142357,158970,12606,0.015,-0.944,-0.166,-0.122,0.488,0.366,229.324
142357,158755,12671,0.015,-0.939,-0.167,-0.122,0.488,0.366,229.33
142354,158970,12606,0.014,-0.939,-0.17,-0.305,0.366,0.427,229.334
142354,158731,12667,0.015,-0.947,-0.17,-0.305,0.366,0.427,229.34
142312,158970,12606,0.019,-0.951,-0.17,-0.244,0.244,0.305,229.343
142312,158730,12670,0.02,-0.946,-0.171,-0.244,0.244,0.305,229.35
142284,158714,12606,0.019,-0.952,-0.164,0.061,0.061,0.549,229.353
142284,158701,12676,0.014,-0.951,-0.161,0.061,0.061,0.549,229.36
142297,158714,12606,0.016,-0.95,-0.161,0.366,0.244,0.671,229.363
142297,158695,12671,0.017,-0.95,-0.162,0.366,0.244,0.671,229.369
142284,158714,12606,0.015,-0.949,-0.16,0.244,0.244,0.61,229.373
142284,158711,12681,0.014,-0.948,-0.162,0.244,0.244,0.61,229.379
142325,158970,12606,0.013,-0.951,-0.164,-0.061,0.366,0.549,229.383
142325,158730,12677,0.012,-0.953,-0.161,-0.061,0.366,0.549,229.389
142350,158970,12606,0.012,-0.953,-0.168,0.305,0.671,0.427,229.393
142350,158762,12671,0.017,-0.949,-0.166,0.305,0.671,0.427,229.399
142355,158970,12606,0.014,-0.95,-0.166,0.61,0.793,0.366,229.403
142355,158821,12695,0.01,-0.946,-0.161,0.61,0.793,0.366,229.409
142417,158970,12606,0.009,-0.943,-0.157,0.366,0.793,0.488,229.413
142417,158821,12697,0.01,-0.939,-0.155,0.366,0.793,0.488,229.419
142428,158970,12606,0.01,-0.94,-0.158,-0.305,0.732,0.244,229.423
142428,158846,12690,0.009,-0.944,-0.161,-0.305,0.732,0.244,229.429
142423,158970,12606,0.015,-0.943,-0.163,-0.671,0.732,-0.305,229.433
142423,158847,12698,0.016,-0.944,-0.16,-0.671,0.732,-0.305,229.439
142403,158970,12606,0.02,-0.944,-0.167,-0.732,0.366,-0.427,229.442
142403,158813,12700,0.02,-0.942,-0.172,-0.732,0.366,-0.427,229.449
142381,158970,12606,0.021,-0.942,-0.174,-0.366,0.305,-0.122,229.452
142381,158776,12678,0.023,-0.942,-0.174,-0.366,0.305,-0.122,229.459
142350,158970,12606,0.022,-0.941,-0.172,0.244,0.061,0.366,229.462
142350,158728,12682,0.019,-0.944,-0.167,0.244,0.061,0.366,229.468
142324,158714,12606,0.019,-0.944,-0.167,0.244,0.061,0.366,229.472
142324,158703,12684,0.017,-0.95,-0.162,0.854,0,0.732,229.478
142293,158970,12606,0.017,-0.95,-0.162,0.854,0,0.732,229.482
142293,158742,12683,0.016,-0.954,-0.159,0.61,-0.122,0.854,229.488
142306,158970,12606,0.016,-0.954,-0.159,0.61,-0.122,0.854,229.492
142306,158721,12669,0.015,-0.943,-0.16,0.366,-0.305,0.793,229.498
142294,158970,12606,0.015,-0.943,-0.16,0.366,-0.305,0.793,229.502
142294,158722,12691,0.011,-0.945,-0.165,-0.122,-0.061,0.793,229.508
142308,158714,12606,0.011,-0.945,-0.165,-0.122,-0.061,0.793,229.512
142308,158709,12673,0.009,-0.951,-0.162,-0.488,0.244,0.366,229.518
142309,158970,12606,0.009,-0.951,-0.162,-0.488,0.244,0.366,229.522
142309,158727,12677,0.004,-0.948,-0.17,-0.244,0.183,0.122,229.528
142336,158970,12606,0.004,-0.948,-0.17,-0.244,0.183,0.122,229.532
142336,158742,12689,0.011,-0.945,-0.161,0.061,0.244,0.061,229.538
142342,158970,12606,0.011,-0.945,-0.161,0.061,0.244,0.061,229.541
142342,158743,12683,0.014,-0.947,-0.16,0.366,0.427,-0.244,229.548
142353,158970,12606,0.014,-0.947,-0.16,0.366,0.427,-0.244,229.551
142353,158766,12687,0.017,-0.945,-0.161,0.549,0.732,-0.366,229.558
142367,158970,12606,0.017,-0.945,-0.161,0.549,0.732,-0.366,229.561
142367,158771,12677,0.024,-0.945,-0.157,0.549,0.671,-0.305,229.567
142361,158970,12606,0.024,-0.945,-0.157,0.549,0.671,-0.305,229.571
142361,158778,12697,0.027,-0.943,-0.165,0.366,0.61,-0.061,229.577
142378,158970,12606,0.027,-0.943,-0.165,0.366,0.61,-0.061,229.581
142378,158759,12693,0.022,-0.948,-0.164,0.122,0.427,0.549,229.587
142390,158970,12606,0.022,-0.948,-0.164,0.122,0.427,0.549,229.591
142390,158771,12686,0.024,-0.949,-0.164,-0.183,0.122,0.976,229.597
142366,158970,12606,0.024,-0.949,-0.164,-0.183,0.122,0.976,229.601
142366,158791,12673,0.018,-0.949,-0.171,-0.366,0.122,1.037,229.607
142371,158970,12606,0.018,-0.949,-0.171,-0.366,0.122,1.037,229.611
142371,158809,12672,0.018,-0.949,-0.171,-0.244,0.549,0.915,229.617
142375,158970,12606,0.014,-0.951,-0.167,-0.244,0.549,0.915,229.621
142375,158795,12677,0.01,-0.949,-0.167,0.305,0.61,0.854,229.627
142358,158970,12606,0.007,-0.942,-0.167,0.305,0.61,0.854,229.631
142358,158789,12693,0.005,-0.947,-0.17,0.549,0.854,0.854,229.637
142393,158970,12606,0.006,-0.95,-0.167,0.549,0.854,0.854,229.64
142393,158792,12696,0.009,-0.95,-0.16,1.159,0.854,0.732,229.647
142369,158970,12606,0.006,-0.941,-0.157,1.159,0.854,0.732,229.65
142369,158771,12702,0.005,-0.94,-0.151,1.585,0.671,0.671,229.657
142350,158970,12606,0.006,-0.939,-0.147,1.585,0.671,0.671,229.66
142350,158762,12675,0.011,-0.938,-0.145,1.098,0.61,0.305,229.666
142342,158970,12606,0.014,-0.939,-0.149,1.098,0.61,0.305,229.67
142342,158725,12683,0.011,-0.943,-0.15,-0.183,0.427,-0.061,229.676
142350,158970,12606,0.017,-0.947,-0.152,-0.183,0.427,-0.061,229.68
142350,158738,12681,0.019,-0.95,-0.156,-0.854,0.183,-0.061,229.686
142340,158970,12606,0.02,-0.948,-0.158,-0.854,0.183,-0.061,229.69
142340,158738,12679,0.018,-0.947,-0.165,-1.22,0.183,0,229.696
142308,158970,12606,0.019,-0.952,-0.165,-1.22,0.183,0,229.7
142308,158724,12677,0.021,-0.954,-0.166,-1.22,0.244,0.244,229.706
142313,158970,12606,0.02,-0.956,-0.163,-1.22,0.244,0.244,229.71
142313,158743,12681,0.017,-0.955,-0.164,-0.732,0.244,0.427,229.716
142310,158970,12606,0.015,-0.954,-0.169,-0.732,0.244,0.427,229.72
142310,158740,12667,0.015,-0.953,-0.173,-0.427,0.427,0.488,229.726
142324,158970,12606,0.016,-0.955,-0.168,-0.427,0.427,0.488,229.73
142324,158724,12679,0.014,-0.949,-0.168,0.061,0.549,0.427,229.736
142360,158970,12606,0.011,-0.942,-0.168,0.061,0.549,0.427,229.739
142360,158775,12696,0.01,-0.939,-0.163,0.427,0.671,0.488,229.746
142399,158970,12606,0.008,-0.94,-0.163,0.427,0.671,0.488,229.749
142399,158794,12677,0.008,-0.941,-0.168,0.671,0.854,0.183,229.756
142420,158970,12606,0.013,-0.944,-0.165,0.671,0.854,0.183,229.759
142420,158821,12699,0.01,-0.944,-0.155,0.732,0.61,0.061,229.765
142432,158970,12606,0.013,-0.942,-0.153,0.732,0.61,0.061,229.769
142432,158816,12702,0.017,-0.939,-0.156,0.366,0.488,0,229.775
142446,158970,12606,0.015,-0.939,-0.158,0.366,0.488,0,229.779
142446,158839,12704,0.014,-0.943,-0.154,-0.061,0.61,-0.122,229.785
142427,158970,12606,0.017,-0.946,-0.154,-0.061,0.61,-0.122,229.789
142427,158861,12697,0.02,-0.95,-0.158,-0.244,0.305,0,229.795
142425,158970,12606,0.022,-0.946,-0.159,-0.244,0.305,0,229.799
142425,158855,12693,0.019,-0.947,-0.158,-0.366,0.244,0.305,229.805
142425,158970,12606,0.016,-0.944,-0.158,-0.366,0.244,0.305,229.809
142425,158841,12688,0.018,-0.952,-0.161,-0.61,0.244,0.427,229.815
142455,158970,12606,0.017,-0.951,-0.159,-0.61,0.244,0.427,229.819
142455,158841,12695,0.018,-0.947,-0.164,-0.732,0,0.488,229.825
142473,158970,12606,0.019,-0.95,-0.159,-0.732,0,0.488,229.829
142473,158854,12695,0.017,-0.949,-0.167,-0.671,0.366,0.427,229.835
142463,158970,12606,0.015,-0.948,-0.17,-0.671,0.366,0.427,229.838
142463,158848,12703,0.013,-0.949,-0.168,-0.915,0.488,0.366,229.845
142464,158970,12606,0.013,-0.945,-0.167,-0.915,0.488,0.366,229.848
142464,158864,12690,0.013,-0.942,-0.169,-0.671,0.488,0.549,229.855
142446,158970,12606,0.013,-0.943,-0.165,-0.671,0.488,0.549,229.858
142446,158877,12709,0.015,-0.941,-0.161,-0.427,0.305,0.549,229.864
142455,158970,12606,0.016,-0.939,-0.164,-0.427,0.305,0.549,229.868
142455,158916,12692,0.013,-0.943,-0.162,-0.549,0.366,0.427,229.874
142491,158970,12606,0.015,-0.949,-0.167,-0.549,0.366,0.427,229.878
142491,158914,12709,0.016,-0.947,-0.16,-0.61,0.427,0.366,229.884
142515,158970,12606,0.017,-0.945,-0.16,-0.61,0.427,0.366,229.888
142515,158883,12687,0.013,-0.947,-0.164,-0.732,0.122,0.427,229.894
142475,158970,12606,0.016,-0.948,-0.162,-0.732,0.122,0.427,229.898
142475,158891,12699,0.019,-0.948,-0.168,-0.61,0.122,0.427,229.904
142482,158970,12606,0.017,-0.947,-0.167,-0.61,0.122,0.427,229.908
142482,158870,12702,0.018,-0.944,-0.165,-0.427,0.183,0.244,229.914
142471,158970,12606,0.016,-0.946,-0.163,-0.427,0.183,0.244,229.918
142471,158852,12691,0.018,-0.946,-0.166,-0.305,0.183,0.244,229.924
142453,158970,12606,0.016,-0.946,-0.165,-0.305,0.183,0.244,229.928
142453,158856,12696,0.018,-0.945,-0.161,-0.427,0.183,0.305,229.934
142465,158970,12606,0.017,-0.945,-0.16,-0.427,0.183,0.305,229.937
142465,158848,12706,0.015,-0.946,-0.161,-0.549,0.427,0.366,229.944
142464,158970,12606,0.015,-0.95,-0.165,-0.549,0.427,0.366,229.947
142464,158836,12703,0.016,-0.951,-0.168,-0.671,0.427,0.305,229.954
142431,158970,12606,0.015,-0.951,-0.168,-0.671,0.427,0.305,229.957
142431,158848,12697,0.017,-0.946,-0.165,-0.366,0.427,0.366,229.963
142429,158970,12606,0.014,-0.945,-0.169,-0.366,0.427,0.366,229.967
142429,158868,12693,0.015,-0.945,-0.167,0.305,0.488,0.488,229.973
142452,158970,12606,0.016,-0.945,-0.163,0.305,0.488,0.488,229.977
142452,158843,12687,0.018,-0.947,-0.156,0.732,0.366,0.488,229.983
142433,158970,12606,0.018,-0.948,-0.16,0.732,0.366,0.488,229.987
142433,158855,12678,0.015,-0.945,-0.165,0.183,0.366,0.61,229.993
142393,158970,12606,0.016,-0.943,-0.161,0.183,0.366,0.61,229.997
142393,158799,12702,0.018,-0.947,-0.163,-0.122,0.488,0.61,230.003
142405,158970,12606,0.019,-0.95,-0.167,-0.122,0.488,0.61,230.007
142405,158775,12690,0.015,-0.952,-0.168,-0.244,0.305,0.671,230.013
142383,158970,12606,0.018,-0.952,-0.169,-0.244,0.305,0.671,230.017
142383,158782,12676,0.018,-0.955,-0.167,-0.183,0.244,0.854,230.023
142415,158970,12606,0.017,-0.948,-0.163,-0.183,0.244,0.854,230.027
142415,158809,12713,0.013,-0.942,-0.164,0.244,0.488,0.793,230.033
142438,158970,12606,0.013,-0.947,-0.166,0.244,0.488,0.793,230.036
142438,158833,12702,0.013,-0.947,-0.166,0.305,0.671,0.671,230.043
142464,158970,12606,0.011,-0.944,-0.161,0.305,0.671,0.671,230.046
142464,158892,12690,0.008,-0.938,-0.162,0.183,0.549,0.427,230.053
142486,158970,12606,0.008,-0.938,-0.162,0.183,0.549,0.427,230.056
142486,158910,12710,0.011,-0.944,-0.162,-0.305,0.305,0.244,230.062
142553,158970,12606,0.011,-0.944,-0.162,-0.305,0.305,0.244,230.066
142553,158931,12718,0.011,-0.936,-0.152,-0.732,0,-0.061,230.072
142577,158970,12606,0.011,-0.936,-0.152,-0.732,0,-0.061,230.076
142577,158964,12702,0.012,-0.95,-0.166,-1.646,-0.061,-0.183,230.082
142577,158970,12606,0.012,-0.95,-0.166,-1.646,-0.061,-0.183,230.086
142577,158963,12704,0.018,-0.955,-0.163,-1.768,-0.183,-0.427,230.092
142578,158970,12606,0.018,-0.955,-0.163,-1.768,-0.183,-0.427,230.096
142578,158941,12701,0.012,-0.948,-0.168,-1.341,0,-0.183,230.102
142549,158970,12606,0.012,-0.948,-0.168,-1.341,0,-0.183,230.106
142549,158919,12715,0.016,-0.953,-0.16,-0.854,0.244,-0.122,230.112
142517,158970,12606,0.016,-0.953,-0.16,-0.854,0.244,-0.122,230.116
142517,158908,12711,0.016,-0.943,-0.165,-0.671,0.427,-0.061,230.122
142504,158970,12606,0.016,-0.943,-0.165,-0.671,0.427,-0.061,230.126
142504,158932,12703,0.017,-0.948,-0.169,-0.549,0.671,-0.122,230.132
142533,158970,12606,0.017,-0.948,-0.169,-0.549,0.671,-0.122,230.135
142533,158918,12687,0.013,-0.952,-0.169,-0.122,0.732,-0.244,230.142
142529,158970,12606,0.013,-0.952,-0.169,-0.122,0.732,-0.244,230.145
142529,158919,12707,0.012,-0.945,-0.169,0.061,0.61,-0.122,230.152
142524,158970,12606,0.012,-0.945,-0.169,0.061,0.61,-0.122,230.155
142524,158935,12699,0.012,-0.954,-0.166,0.061,0.732,-0.305,230.161
142534,158970,12606,0.012,-0.954,-0.166,0.061,0.732,-0.305,230.165
142534,158944,12719,-0.003,-0.951,-0.172,0.183,0.366,-0.793,230.171
142546,158970,12606,-0.003,-0.951,-0.172,0.183,0.366,-0.793,230.175
142546,158945,12709,0.028,-0.94,-0.163,0.183,-0.427,-1.463,230.181
142565,158970,12606,0.028,-0.94,-0.163,0.183,-0.427,-1.463,230.185
142565,158935,12704,0.014,-0.95,-0.16,0.183,0.061,-1.098,230.191
142539,158970,12606,0.014,-0.95,-0.16,0.183,0.061,-1.098,230.195
142539,158928,12691,0.019,-0.943,-0.151,0.183,0.061,-1.098,230.201
142526,158970,12606,0.017,-0.939,-0.149,0.244,0.366,-0.671,230.205
142526,158932,12703,0.014,-0.939,-0.156,0.244,0.366,-0.671,230.211
142518,158970,12606,0.019,-0.941,-0.161,-0.305,0.671,-0.793,230.215
142518,158924,12704,0.019,-0.947,-0.162,-0.305,0.671,-0.793,230.221
142524,158970,12606,0.025,-0.946,-0.163,-0.671,0.305,-0.915,230.225
142524,158911,12685,0.027,-0.941,-0.165,-0.671,0.305,-0.915,230.231
142496,158970,12606,0.025,-0.94,-0.164,-0.61,0.061,-0.305,230.234
142496,158889,12699,0.021,-0.938,-0.166,-0.61,0.061,-0.305,230.241
142488,158970,12606,0.022,-0.938,-0.169,-0.366,0.305,0.183,230.244
142488,158869,12690,0.025,-0.944,-0.17,-0.366,0.305,0.183,230.251
142468,158970,12606,0.025,-0.947,-0.169,-0.183,-0.122,0.549,230.254
142468,158912,12699,0.022,-0.947,-0.17,-0.183,-0.122,0.549,230.26
142514,158970,12606,0.021,-0.945,-0.17,0.122,-0.366,0.854,230.264
142514,158922,12697,0.018,-0.947,-0.166,0.122,-0.366,0.854,230.27
142529,158970,12606,0.02,-0.952,-0.169,0.305,-0.183,0.854,230.274
142529,158935,12694,0.02,-0.953,-0.164,0.305,-0.183,0.854,230.28
142513,158970,12606,0.018,-0.949,-0.162,0.183,-0.183,0.793,230.284
142513,158924,12703,0.015,-0.946,-0.164,0.183,-0.183,0.793,230.29
142514,158970,12606,0.015,-0.942,-0.162,-0.366,0.183,0.793,230.294
142514,158916,12695,0.016,-0.948,-0.16,-0.366,0.183,0.793,230.3
142517,158970,12606,0.017,-0.949,-0.157,-0.671,0.244,0.732,230.304
142517,158929,12700,0.019,-0.945,-0.154,-0.671,0.244,0.732,230.31
142524,158970,12606,0.013,-0.94,-0.155,-1.098,0.427,0.61,230.314
142524,158906,12697,0.01,-0.943,-0.159,-1.098,0.427,0.61,230.32
142538,158970,12606,0.016,-0.946,-0.165,-1.463,0.427,0.732,230.324
142538,158893,12722,0.02,-0.95,-0.167,-1.463,0.427,0.732,230.33
142512,158970,12606,0.018,-0.947,-0.166,-1.037,0.183,0.854,230.333
142512,158905,12700,0.019,-0.943,-0.165,-1.037,0.183,0.854,230.34
142532,158970,12606,0.016,-0.946,-0.169,-0.549,0.366,0.976,230.343
142532,158891,12705,0.016,-0.947,-0.17,-0.549,0.366,0.976,230.35
142492,158970,12606,0.012,-0.946,-0.171,-0.122,0.183,1.037,230.353
142492,158896,12689,0.013,-0.945,-0.172,-0.122,0.183,1.037,230.359
142479,158970,12606,0.012,-0.948,-0.174,0,0.122,0.732,230.363
142479,158884,12685,0.011,-0.947,-0.171,0,0.122,0.732,230.369
142474,158970,12606,0.016,-0.949,-0.171,0.305,0,0.366,230.373
142474,158864,12688,0.013,-0.953,-0.173,0.305,0,0.366,230.379
142482,158970,12606,0.015,-0.953,-0.173,0.305,0.244,0.122,230.383
142482,158869,12702,0.016,-0.95,-0.173,0.305,0.244,0.122,230.389
142491,158970,12606,0.016,-0.948,-0.165,-0.061,0.427,0.183,230.393
142491,158874,12696,0.017,-0.94,-0.161,-0.061,0.427,0.183,230.399
142489,158970,12606,0.017,-0.935,-0.159,0,0.488,0.305,230.403
142489,158891,12692,0.016,-0.94,-0.162,0,0.488,0.305,230.409
142539,158970,12606,0.02,-0.944,-0.163,-0.183,0.366,0.366,230.413
142539,158914,12711,0.019,-0.947,-0.157,-0.183,0.366,0.366,230.419
142516,158970,12606,0.017,-0.948,-0.158,-0.183,0.61,0.183,230.423
142516,158930,12696,0.019,-0.948,-0.159,-0.183,0.61,0.183,230.429
142557,158970,12606,0.019,-0.948,-0.162,-0.549,0.366,0.427,230.432
142557,158954,12700,0.017,-0.944,-0.165,-0.549,0.366,0.427,230.439
142564,158970,12606,0.016,-0.942,-0.163,-0.549,0.305,0.488,230.442
142564,158929,12704,0.018,-0.941,-0.155,-0.549,0.305,0.488,230.449
142558,158970,12606,0.016,-0.943,-0.164,-0.244,0.244,0.488,230.452
142558,158964,12709,0.016,-0.948,-0.169,-0.244,0.244,0.488,230.458
142606,159226,12606,0.014,-0.946,-0.169,-0.427,0.183,0.61,230.462
142606,159024,12711,0.017,-0.945,-0.168,-0.427,0.183,0.61,230.468
142609,159226,12606,0.016,-0.946,-0.166,-0.244,0.244,0.854,230.472
142609,159004,12705,0.016,-0.943,-0.165,-0.244,0.244,0.854,230.478
142617,159226,12606,0.015,-0.944,-0.167,0.061,0.183,0.854,230.482
142617,159046,12726,0.015,-0.944,-0.166,0.061,0.183,0.854,230.488
142608,159226,12606,0.017,-0.946,-0.162,0.122,0.427,0.671,230.492
142608,159018,12719,0.021,-0.946,-0.169,0.122,0.427,0.671,230.498
142608,159226,12606,0.017,-0.952,-0.175,0.183,0.549,0.549,230.502
142608,159017,12717,0.016,-0.955,-0.172,0.183,0.549,0.549,230.508
142598,159226,12606,0.018,-0.947,-0.168,0.671,0.671,0.549,230.512
142598,159027,12703,0.02,-0.943,-0.165,0.671,0.671,0.549,230.518
142610,159226,12606,0.017,-0.945,-0.162,1.037,0.671,0.732,230.522
142610,159017,12724,0.016,-0.943,-0.159,1.037,0.671,0.732,230.528
142645,159226,12606,0.018,-0.944,-0.158,0.854,0.427,0.793,230.531
142645,159017,12722,0.018,-0.944,-0.161,0.854,0.427,0.793,230.538
142652,159226,12606,0.017,-0.948,-0.152,0.366,0.244,0.793,230.541
142652,159037,12720,0.018,-0.95,-0.156,0.366,0.244,0.793,230.548
142658,159226,12606,0.021,-0.946,-0.158,-0.305,0.183,0.854,230.551
142658,159061,12708,0.015,-0.941,-0.161,-0.305,0.183,0.854,230.557
142649,159226,12606,0.016,-0.941,-0.162,-1.22,0.366,0.854,230.561
142649,159041,12711,0.017,-0.947,-0.165,-1.22,0.366,0.854,230.567
142639,159226,12606,0.016,-0.952,-0.164,-1.402,0.305,0.793,230.571
142639,159009,12697,0.015,-0.951,-0.165,-1.402,0.305,0.793,230.577
142617,159226,12606,0.013,-0.946,-0.161,-1.159,0.366,0.732,230.581
142617,159002,12715,0.011,-0.941,-0.16,-1.159,0.366,0.732,230.587
142592,159226,12606,0.01,-0.942,-0.174,-1.524,0.427,0.793,230.591
142592,158982,12709,0.013,-0.95,-0.168,-1.524,0.427,0.793,230.597
142575,158970,12606,0.017,-0.947,-0.16,-1.341,0.183,0.61,230.601
142575,158972,12703,0.016,-0.94,-0.158,-1.341,0.183,0.61,230.607
142547,158970,12606,0.011,-0.942,-0.166,-1.463,0.244,0.61,230.611
142547,158942,12707,0.011,-0.946,-0.171,-1.463,0.244,0.61,230.617
142531,158970,12606,0.013,-0.95,-0.172,-1.524,0.366,0.61,230.621
142531,158934,12709,0.016,-0.954,-0.171,-1.524,0.366,0.61,230.627
142540,158970,12606,0.016,-0.949,-0.172,-0.732,0,0.61,230.63
142540,158896,12699,0.015,-0.946,-0.168,-0.732,0,0.61,230.637
142527,158970,12606,0.015,-0.944,-0.164,-0.122,0.244,0.61,230.64
142527,158933,12690,0.015,-0.943,-0.165,-0.122,0.244,0.61,230.647
142551,158970,12606,0.015,-0.943,-0.165,-0.122,0.244,0.61,230.65
142551,158926,12701,0.013,-0.948,-0.168,0.122,0.427,0.427,230.656
142546,158970,12606,0.013,-0.948,-0.168,0.122,0.427,0.427,230.66
142546,158922,12712,0.016,-0.944,-0.164,0.122,0.427,0.366,230.666
142557,158970,12606,0.016,-0.944,-0.164,0.122,0.427,0.366,230.67
142557,158965,12707,0.014,-0.945,-0.156,0.366,0.305,0.366,230.676
142556,158970,12606,0.014,-0.945,-0.156,0.366,0.305,0.366,230.68
142556,158944,12691,0.011,-0.945,-0.158,-0.061,0.61,0.244,230.686
142560,158970,12606,0.011,-0.945,-0.158,-0.061,0.61,0.244,230.69
142560,158923,12707,0.016,-0.951,-0.162,-0.549,0.427,0.305,230.696
142558,158970,12606,0.016,-0.951,-0.162,-0.549,0.427,0.305,230.7
142558,158952,12689,0.018,-0.949,-0.168,-0.976,0.427,0.183,230.706
142545,158970,12606,0.018,-0.949,-0.168,-0.976,0.427,0.183,230.71
142545,158950,12703,0.017,-0.95,-0.173,-1.22,0.366,0.244,230.716
142553,158970,12606,0.017,-0.95,-0.173,-1.22,0.366,0.244,230.72
142553,158934,12706,0.02,-0.946,-0.174,-0.61,0.549,0.427,230.726
142557,158970,12606,0.02,-0.946,-0.174,-0.61,0.549,0.427,230.729
142557,158929,12699,0.014,-0.949,-0.174,0.122,0.732,0.488,230.736
142576,158970,12606,0.014,-0.949,-0.174,0.122,0.732,0.488,230.739
142576,158975,12707,0.017,-0.946,-0.165,0.854,0.732,0.671,230.746
142614,159226,12606,0.017,-0.946,-0.165,0.854,0.732,0.671,230.749
142614,159013,12686,0.016,-0.935,-0.166,1.159,0.488,0.671,230.755
142591,159226,12606,0.016,-0.935,-0.166,1.159,0.488,0.671,230.759
142591,159040,12696,0.015,-0.947,-0.167,0.61,0.61,0.549,230.765
142592,159226,12606,0.015,-0.947,-0.167,0.61,0.61,0.549,230.769
142592,158995,12710,0.016,-0.946,-0.165,0.671,0.427,0.427,230.775
142606,159226,12606,0.016,-0.946,-0.165,0.671,0.427,0.427,230.779
142606,159031,12709,0.014,-0.937,-0.16,0.305,0.366,0.488,230.785
142575,159226,12606,0.014,-0.937,-0.16,0.305,0.366,0.488,230.789
142575,158993,12719,0.012,-0.938,-0.164,-0.183,0.488,0.366,230.795
142596,158970,12606,0.014,-0.943,-0.162,-0.183,0.488,0.366,230.799
142596,158970,12701,0.014,-0.948,-0.169,-0.732,0.427,0.122,230.805
142562,158970,12606,0.018,-0.948,-0.168,-0.732,0.427,0.122,230.809
142562,158967,12695,0.016,-0.945,-0.162,-0.61,0.244,0.305,230.815
142575,158970,12606,0.016,-0.94,-0.161,-0.61,0.244,0.305,230.819
142575,158957,12699,0.016,-0.941,-0.166,-0.61,0.244,0.366,230.825
142553,158970,12606,0.015,-0.949,-0.162,-0.61,0.244,0.366,230.828
142553,158942,12710,0.014,-0.955,-0.159,-0.427,0.183,0.549,230.835
142575,158970,12606,0.016,-0.954,-0.162,-0.427,0.183,0.549,230.838
142575,158943,12698,0.017,-0.953,-0.164,-0.244,0.427,0.671,230.845
142570,158970,12606,0.019,-0.954,-0.165,-0.244,0.427,0.671,230.848
142570,158944,12698,0.016,-0.951,-0.166,-0.183,0.61,0.915,230.854
142541,158970,12606,0.014,-0.953,-0.173,-0.183,0.61,0.915,230.858
142541,158922,12677,0.016,-0.954,-0.173,0.183,0.671,0.976,230.864
142527,158970,12606,0.016,-0.952,-0.168,0.183,0.671,0.976,230.868
142527,158950,12696,0.015,-0.948,-0.169,0.671,0.793,0.793,230.874
142475,158970,12606,0.012,-0.945,-0.167,0.671,0.793,0.793,230.878
142475,158888,12686,0.012,-0.94,-0.165,1.037,0.915,0.671,230.884
142455,158970,12606,0.011,-0.939,-0.168,1.037,0.915,0.671,230.888
142455,158855,12689,0.01,-0.941,-0.162,1.098,0.976,0.488,230.894
142452,158970,12606,0.011,-0.938,-0.163,1.098,0.976,0.488,230.898
142452,158844,12684,0.012,-0.939,-0.163,0.793,0.732,0.366,230.904
142435,158970,12606,0.011,-0.943,-0.16,0.793,0.732,0.366,230.908
142435,158808,12684,0.014,-0.945,-0.159,0.183,0.244,0.244,230.914
142423,158970,12606,0.015,-0.947,-0.161,0.183,0.244,0.244,230.918
142423,158790,12685,0.016,-0.947,-0.164,-0.488,0.061,0.061,230.924
142427,158970,12606,0.017,-0.949,-0.167,-0.488,0.061,0.061,230.927
142427,158808,12664,0.017,-0.952,-0.167,-0.793,0.183,0.122,230.934
142447,158970,12606,0.016,-0.951,-0.167,-0.793,0.183,0.122,230.937
142447,158842,12673,0.018,-0.948,-0.157,-0.732,0.183,0.061,230.944
142460,158970,12606,0.017,-0.94,-0.154,-0.732,0.183,0.061,230.947
142460,158880,12696,0.014,-0.933,-0.161,-0.915,0.488,0.244,230.953
142453,158970,12606,0.011,-0.941,-0.165,-0.915,0.488,0.244,230.957
142453,158853,12684,0.017,-0.949,-0.161,-1.159,0.427,0.122,230.963
142444,158970,12606,0.018,-0.948,-0.159,-1.159,0.427,0.122,230.967
142444,158865,12683,0.016,-0.944,-0.162,-1.402,0.244,0.122,230.973
142433,158970,12606,0.014,-0.942,-0.166,-1.402,0.244,0.122,230.977
142433,158817,12672,0.013,-0.943,-0.17,-1.707,0.366,0.244,230.983
142415,158970,12606,0.016,-0.945,-0.168,-1.707,0.366,0.244,230.987
142415,158790,12658,0.018,-0.947,-0.17,-1.768,0.061,0.122,230.993
142398,158970,12606,0.015,-0.944,-0.172,-1.768,0.061,0.122,230.997
142398,158772,12664,0.015,-0.949,-0.177,-1.463,0,0.183,231.003
142398,158970,12606,0.016,-0.958,-0.177,-1.463,0,0.183,231.007
142398,158749,12667,0.019,-0.954,-0.176,-0.671,0.122,0.122,231.013
142379,158970,12606,0.021,-0.948,-0.174,-0.671,0.122,0.122,231.017
142379,158767,12674,0.014,-0.945,-0.172,0,0.366,0.427,231.023
142395,158970,12606,0.013,-0.947,-0.169,0,0.366,0.427,231.027
142395,158781,12674,0.015,-0.946,-0.165,0.793,0.671,0.61,231.033
142390,158970,12606,0.012,-0.949,-0.165,0.793,0.671,0.61,231.036
142390,158759,12662,0.014,-0.946,-0.163,0.976,0.549,0.488,231.043
142381,158970,12606,0.018,-0.946,-0.163,0.976,0.549,0.488,231.046
142381,158771,12694,0.014,-0.943,-0.158,0.488,0.854,0.488,231.052
142405,158970,12606,0.016,-0.94,-0.155,0.488,0.854,0.488,231.056
142405,158776,12677,0.017,-0.939,-0.152,-0.122,0.61,0.488,231.062
142401,158970,12606,0.013,-0.94,-0.162,-0.122,0.61,0.488,231.066
142401,158820,12679,0.012,-0.943,-0.166,-1.159,0.427,0.305,231.072
142431,158970,12606,0.015,-0.951,-0.167,-1.159,0.427,0.305,231.076
142431,158807,12664,0.019,-0.956,-0.168,-1.402,0.122,0.061,231.082
142451,158970,12606,0.017,-0.952,-0.173,-1.402,0.122,0.061,231.086
142451,158840,12686,0.018,-0.948,-0.169,-1.341,0.122,0.305,231.092
142470,158970,12606,0.018,-0.946,-0.172,-1.341,0.122,0.305,231.096
142470,158866,12669,0.018,-0.949,-0.172,-0.854,0.122,0.61,231.102
142473,158970,12606,0.014,-0.952,-0.173,-0.854,0.122,0.61,231.106
142473,158873,12686,0.016,-0.953,-0.17,0,0.366,0.61,231.112
142484,158970,12606,0.017,-0.951,-0.166,0,0.366,0.61,231.116
142484,158907,12691,0.013,-0.948,-0.167,0.305,0.488,0.61,231.122
142502,158970,12606,0.014,-0.943,-0.163,0.305,0.488,0.61,231.126
142502,158896,12683,0.014,-0.94,-0.162,0.427,0.793,0.488,231.132
142509,158970,12606,0.014,-0.942,-0.167,0.427,0.793,0.488,231.135
142509,158915,12692,0.013,-0.945,-0.17,0.427,0.671,0.305,231.142
142508,158970,12606,0.014,-0.948,-0.169,0.427,0.671,0.305,231.145
142508,158873,12694,0.018,-0.947,-0.172,0.671,0.793,0.366,231.151
142492,158970,12606,0.017,-0.949,-0.171,0.671,0.793,0.366,231.155
142492,158882,12686,0.017,-0.949,-0.166,1.098,0.854,0.549,231.161
142489,158970,12606,0.014,-0.943,-0.162,1.098,0.854,0.549,231.165
142489,158871,12683,0.018,-0.944,-0.164,1.098,0.854,0.61,231.171
142505,158970,12606,0.02,-0.945,-0.164,1.098,0.854,0.61,231.175
142505,158883,12678,0.019,-0.946,-0.165,0.854,0.732,0.61,231.181
142531,158970,12606,0.019,-0.948,-0.162,0.854,0.732,0.61,231.185
142531,158872,12697,0.015,-0.947,-0.159,0.488,0.488,0.671,231.191
142546,158970,12606,0.014,-0.945,-0.165,0.488,0.488,0.671,231.195
142546,158899,12675,0.014,-0.951,-0.169,0.061,0.183,0.671,231.201
142534,158970,12606,0.013,-0.952,-0.166,0.061,0.183,0.671,231.205
142534,158888,12689,0.011,-0.949,-0.162,0,0.183,0.488,231.211
142538,158970,12606,0.009,-0.941,-0.159,0,0.183,0.488,231.215
142538,158912,12681,0.008,-0.938,-0.166,-0.305,0.305,0.305,231.221
142523,158970,12606,0.005,-0.948,-0.171,-0.305,0.305,0.305,231.225
142523,158896,12683,0.012,-0.952,-0.17,-0.244,0.488,0,231.231
142509,158970,12606,0.014,-0.947,-0.165,-0.244,0.488,0,231.234
142509,158897,12686,0.012,-0.941,-0.167,-0.061,0.427,-0.122,231.241
142521,158970,12606,0.012,-0.941,-0.167,-0.061,0.427,-0.122,231.244
142521,158874,12679,0.014,-0.944,-0.16,0.183,0.366,0,231.25
142472,158970,12606,0.014,-0.944,-0.16,0.183,0.366,0,231.254
142472,158833,12679,0.018,-0.94,-0.16,-0.061,0.183,0.183,231.26
142460,158970,12606,0.018,-0.94,-0.16,-0.061,0.183,0.183,231.264
142460,158831,12670,0.018,-0.949,-0.162,-0.488,0.427,0.427,231.27
142449,158970,12606,0.018,-0.949,-0.162,-0.488,0.427,0.427,231.274
142449,158819,12683,0.019,-0.949,-0.162,-0.671,0.305,0.549,231.28
142443,158970,12606,0.019,-0.949,-0.162,-0.671,0.305,0.549,231.284
142443,158818,12682,0.016,-0.944,-0.166,-0.854,0.366,0.61,231.29
142438,158970,12606,0.016,-0.944,-0.166,-0.854,0.366,0.61,231.294
142438,158799,12684,0.011,-0.947,-0.171,-0.915,0.366,0.366,231.3
142427,158970,12606,0.011,-0.947,-0.171,-0.915,0.366,0.366,231.304
142427,158837,12672,0.009,-0.947,-0.176,-0.854,0.122,0.122,231.31
142484,158970,12606,0.009,-0.947,-0.176,-0.854,0.122,0.122,231.314
142484,158834,12677,0.007,-0.951,-0.175,0.061,0.427,0,231.32
142498,158970,12606,0.007,-0.951,-0.175,0.061,0.427,0,231.324
142498,158855,12679,0.007,-0.948,-0.169,0.915,0.61,-0.183,231.33
142494,158970,12606,0.007,-0.948,-0.169,0.915,0.61,-0.183,231.333
142494,158860,12682,0.011,-0.942,-0.159,1.159,0.793,-0.366,231.34
142495,158970,12606,0.011,-0.942,-0.159,1.159,0.793,-0.366,231.343
142495,158887,12682,0.013,-0.94,-0.154,0.915,0.732,-0.671,231.349
142487,158970,12606,0.013,-0.94,-0.154,0.915,0.732,-0.671,231.353
142487,158867,12678,0.018,-0.943,-0.148,-0.244,0.488,-0.854,231.359
142486,158970,12606,0.018,-0.943,-0.148,-0.244,0.488,-0.854,231.363
142486,158858,12666,0.021,-0.941,-0.156,-1.524,-0.122,-0.793,231.369
142508,158970,12606,0.021,-0.941,-0.156,-1.524,-0.122,-0.793,231.373
142508,158854,12685,0.019,-0.953,-0.167,-2.561,-0.427,-0.793,231.379
142534,158970,12606,0.019,-0.953,-0.167,-2.561,-0.427,-0.793,231.383
142534,158896,12688,0.024,-0.955,-0.178,-2.561,-0.427,-0.793,231.389
142531,158970,12606,0.021,-0.951,-0.168,-2.744,-0.732,-0.549,231.393
142531,158930,12686,0.018,-0.95,-0.165,-2.744,-0.732,-0.549,231.399
142509,158970,12606,0.02,-0.942,-0.168,-2.073,-0.61,-0.061,231.403
142509,158891,12685,0.023,-0.94,-0.171,-2.073,-0.61,-0.061,231.409
142521,158970,12606,0.022,-0.946,-0.171,-2.195,-0.427,-0.122,231.413
142521,158901,12672,0.021,-0.956,-0.176,-2.195,-0.427,-0.122,231.419
142545,158970,12606,0.022,-0.962,-0.181,-1.951,0,0.061,231.423
142545,158895,12701,0.024,-0.952,-0.181,-1.951,0,0.061,231.429
142539,158970,12606,0.021,-0.947,-0.177,-1.159,0.305,0.427,231.432
142539,158932,12686,0.02,-0.944,-0.173,-1.159,0.305,0.427,231.439
142567,158970,12606,0.021,-0.948,-0.178,0.183,0.61,0.793,231.442
142567,158952,12682,0.019,-0.95,-0.179,0.183,0.61,0.793,231.449
142589,158970,12606,0.02,-0.946,-0.171,1.22,0.915,0.915,231.452
142589,158944,12712,0.018,-0.943,-0.168,1.22,0.915,0.915,231.458
142622,159226,12606,0.017,-0.942,-0.168,2.256,0.793,1.037,231.462
142622,158980,12703,0.018,-0.941,-0.172,2.256,0.793,1.037,231.468
142636,159226,12606,0.017,-0.943,-0.169,2.317,0.915,0.793,231.472
142636,158983,12687,0.019,-0.942,-0.171,2.317,0.915,0.793,231.478
142628,159226,12606,0.013,-0.942,-0.167,2.378,1.098,0.732,231.482
142628,158991,12690,0.014,-0.948,-0.159,2.378,1.098,0.732,231.488
142621,159226,12606,0.016,-0.947,-0.165,2.256,1.098,0.732,231.492
142621,158980,12709,0.018,-0.946,-0.168,2.256,1.098,0.732,231.498
142582,158970,12606,0.013,-0.941,-0.166,1.646,0.793,0.61,231.502
142582,158940,12691,0.01,-0.945,-0.165,1.646,0.793,0.61,231.508
142561,158970,12606,0.012,-0.949,-0.16,1.463,0.732,0.488,231.512
142561,158939,12704,0.017,-0.946,-0.159,1.463,0.732,0.488,231.518
142607,158970,12606,0.017,-0.943,-0.156,1.037,0.793,0.244,231.522
142607,158961,12705,0.019,-0.944,-0.157,1.037,0.793,0.244,231.528
142609,159226,12606,0.015,-0.944,-0.158,0.427,0.976,0.549,231.531
142609,158983,12687,0.019,-0.948,-0.15,0.427,0.976,0.549,231.538
142595,159226,12606,0.022,-0.947,-0.151,0.183,0.488,0.854,231.541
142595,158985,12686,0.017,-0.945,-0.156,0.183,0.488,0.854,231.548
142599,159226,12606,0.018,-0.945,-0.167,-0.305,0.244,1.037,231.551
142599,158985,12688,0.018,-0.95,-0.176,-0.305,0.244,1.037,231.557
142616,158970,12606,0.018,-0.951,-0.18,-0.122,0.366,0.915,231.561
142616,158975,12690,0.017,-0.955,-0.177,-0.122,0.366,0.915,231.567
142624,158970,12606,0.013,-0.95,-0.17,0.671,0.244,0.732,231.571
142624,158966,12710,0.011,-0.943,-0.166,0.671,0.244,0.732,231.577
142616,159226,12606,0.008,-0.936,-0.163,0.732,0.183,0.732,231.581
142616,158981,12697,0.005,-0.933,-0.163,0.732,0.183,0.732,231.587
142618,159226,12606,0.01,-0.936,-0.162,0.305,0.305,0.305,231.591
142618,158997,12699,0.012,-0.942,-0.153,0.305,0.305,0.305,231.597
142621,159226,12606,0.012,-0.952,-0.16,-0.061,0.244,-0.061,231.601
142621,158991,12701,0.013,-0.954,-0.161,-0.061,0.244,-0.061,231.607
142645,159226,12606,0.013,-0.951,-0.164,-0.244,0.488,0,231.611
142645,159058,12702,0.015,-0.948,-0.159,-0.244,0.488,0,231.617
142664,159226,12606,0.013,-0.946,-0.152,0,0.244,0.244,231.621
142664,159055,12692,0.014,-0.944,-0.156,0,0.244,0.244,231.627
142698,159226,12606,0.014,-0.947,-0.15,0,0.244,0.122,231.63
142698,159036,12696,0.013,-0.949,-0.146,0,0.244,0.122,231.637
142669,159226,12606,0.013,-0.945,-0.148,-0.61,0.183,-0.244,231.64
142669,159006,12712,0.014,-0.943,-0.153,-0.61,0.183,-0.244,231.646
142640,159226,12606,0.016,-0.94,-0.157,-2.195,-0.061,-0.427,231.65
142640,158985,12702,0.014,-0.942,-0.16,-2.195,-0.061,-0.427,231.656
142601,158970,12606,0.02,-0.943,-0.163,-2.988,-0.122,-0.671,231.66
142601,158969,12687,0.02,-0.943,-0.164,-2.988,-0.122,-0.671,231.666
142573,158970,12606,0.017,-0.945,-0.165,-3.354,-0.183,-0.61,231.67
142573,158928,12711,0.02,-0.949,-0.172,-3.354,-0.183,-0.61,231.676
142545,158970,12606,0.021,-0.952,-0.175,-3.537,0.122,-0.488,231.68
142545,158922,12691,0.022,-0.95,-0.173,-3.537,0.122,-0.488,231.686
142543,158970,12606,0.022,-0.948,-0.178,-2.927,0.366,-0.183,231.69
142543,158934,12691,0.024,-0.951,-0.178,-2.927,0.366,-0.183,231.696
142578,158970,12606,0.021,-0.946,-0.178,-1.89,0.366,0.244,231.7
142578,158952,12692,0.022,-0.945,-0.176,-1.89,0.366,0.244,231.706
142582,159226,12606,0.023,-0.947,-0.176,-0.793,0.427,0.793,231.71
142582,158984,12688,0.02,-0.947,-0.173,-0.793,0.427,0.793,231.716
142610,159226,12606,0.018,-0.942,-0.167,0.183,0.61,0.915,231.72
142610,158996,12698,0.019,-0.94,-0.165,0.183,0.61,0.915,231.726
142608,159226,12606,0.018,-0.943,-0.166,0.427,0.488,1.037,231.729
142608,158996,12694,0.018,-0.951,-0.164,0.427,0.488,1.037,231.736
142571,159226,12606,0.015,-0.948,-0.159,0.305,0.549,0.915,231.739
142571,158983,12701,0.016,-0.946,-0.163,0.305,0.549,0.915,231.746
142566,158970,12606,0.016,-0.947,-0.164,-0.305,0.671,0.793,231.749
142566,158942,12692,0.012,-0.944,-0.166,-0.305,0.671,0.793,231.755
142522,158970,12606,0.011,-0.944,-0.171,-0.976,0.671,0.732,231.759
142522,158923,12682,0.011,-0.948,-0.17,-0.976,0.671,0.732,231.765
142497,158970,12606,0.011,-0.948,-0.17,-0.549,0.61,0.427,231.769
142497,158898,12672,0.012,-0.943,-0.169,-0.549,0.61,0.427,231.775
142501,158970,12606,0.012,-0.94,-0.166,0.183,0.732,0.488,231.779
142501,158894,12671,0.012,-0.946,-0.166,0.183,0.732,0.488,231.785
142493,158970,12606,0.015,-0.949,-0.169,0.488,0.915,0.427,231.789
142493,158919,12673,0.018,-0.954,-0.171,0.488,0.915,0.427,231.795
142525,158970,12606,0.017,-0.955,-0.165,0.488,0.732,0.427,231.799
142525,158924,12677,0.019,-0.951,-0.163,0.488,0.732,0.427,231.805
142531,158970,12606,0.02,-0.94,-0.163,0.61,0.488,0.61,231.809
142531,158945,12695,0.019,-0.942,-0.166,0.61,0.488,0.61,231.815
142540,158970,12606,0.018,-0.949,-0.165,0.305,0.488,0.854,231.819
142540,158932,12690,0.018,-0.948,-0.16,0.305,0.488,0.854,231.825
142513,158970,12606,0.018,-0.948,-0.16,0.305,0.488,0.854,231.828
142513,158918,12681,0.015,-0.939,-0.167,0,0.488,0.793,231.835
142523,158970,12606,0.015,-0.939,-0.167,0,0.488,0.793,231.838
142523,158912,12682,0.014,-0.94,-0.165,-0.427,0.366,0.976,231.844
142525,158970,12606,0.014,-0.94,-0.165,-0.427,0.366,0.976,231.848
142525,158915,12674,0.01,-0.944,-0.158,-0.671,0.122,0.793,231.854
142512,158970,12606,0.01,-0.944,-0.158,-0.671,0.122,0.793,231.858
142512,158910,12676,0.009,-0.942,-0.169,-0.793,0.183,0.427,231.864
142492,158970,12606,0.009,-0.942,-0.169,-0.793,0.183,0.427,231.868
142492,158907,12667,0.014,-0.959,-0.181,-1.22,0.366,0.122,231.874
142542,158970,12606,0.014,-0.959,-0.181,-1.22,0.366,0.122,231.878
142542,158939,12672,0.02,-0.96,-0.179,-0.183,-0.122,-0.061,231.884
142515,158970,12606,0.02,-0.96,-0.179,-0.183,-0.122,-0.061,231.888
142515,158932,12666,0.018,-0.945,-0.176,0.671,-0.488,0.366,231.894
142549,158970,12606,0.018,-0.945,-0.176,0.671,-0.488,0.366,231.898
142549,158921,12670,0.022,-0.949,-0.177,1.098,-0.244,0.671,231.904
142553,158970,12606,0.022,-0.949,-0.177,1.098,-0.244,0.671,231.908
142553,158947,12683,0.021,-0.944,-0.161,1.707,-0.305,0.793,231.914
142553,158970,12606,0.021,-0.944,-0.161,1.707,-0.305,0.793,231.918
142553,158938,12692,0.018,-0.94,-0.172,2.012,-0.122,0.854,231.924
142541,158970,12606,0.018,-0.94,-0.172,2.012,-0.122,0.854,231.927
142541,158935,12688,0.019,-0.951,-0.167,1.28,0.122,0.854,231.934
142513,158970,12606,0.019,-0.951,-0.167,1.28,0.122,0.854,231.937
142513,158908,12684,0.016,-0.944,-0.165,1.707,0.549,0.793,231.944
142490,158970,12606,0.016,-0.944,-0.165,1.707,0.549,0.793,231.947
142490,158882,12680,0.011,-0.946,-0.163,1.463,0.854,0.793,231.953
142478,158970,12606,0.011,-0.946,-0.163,1.463,0.854,0.793,231.957
142478,158862,12673,0.015,-0.945,-0.154,1.402,0.854,0.732,231.963
142426,158970,12606,0.015,-0.945,-0.154,1.402,0.854,0.732,231.967
142426,158823,12656,0.011,-0.941,-0.156,0.671,0.61,0.732,231.973
142384,158970,12606,0.01,-0.947,-0.151,0.671,0.61,0.732,231.977
142384,158797,12641,0.013,-0.95,-0.147,-0.122,0.427,0.488,231.983
142363,158970,12606,0.013,-0.945,-0.152,-0.122,0.427,0.488,231.987
142363,158750,12659,0.014,-0.943,-0.154,-1.524,0.366,0.366,231.993
142350,158970,12606,0.012,-0.944,-0.154,-1.524,0.366,0.366,231.997
142350,158733,12652,0.012,-0.945,-0.158,-2.378,0.549,0.244,232.003
142348,158970,12606,0.011,-0.945,-0.166,-2.378,0.549,0.244,232.007
142348,158747,12659,0.015,-0.948,-0.167,-2.317,0.366,-0.183,232.013
142343,158970,12606,0.018,-0.949,-0.169,-2.317,0.366,-0.183,232.017
142343,158746,12653,0.014,-0.95,-0.172,-1.829,0.305,-0.183,232.023
142332,158970,12606,0.014,-0.946,-0.174,-1.829,0.305,-0.183,232.026
142332,158754,12645,0.015,-0.943,-0.17,-1.341,0.61,0,232.033
142318,158714,12606,0.013,-0.939,-0.165,-1.341,0.61,0,232.036
142318,158715,12651,0.014,-0.941,-0.172,-0.976,0.427,0.061,232.043
142315,158714,12606,0.015,-0.945,-0.172,-0.976,0.427,0.061,232.046
142315,158671,12634,0.016,-0.947,-0.172,-0.732,0.427,-0.061,232.052
142280,158714,12606,0.019,-0.948,-0.174,-0.732,0.427,-0.061,232.056
142280,158664,12647,0.018,-0.949,-0.174,-0.488,0.183,0.061,232.062
142261,158714,12606,0.019,-0.945,-0.168,-0.488,0.183,0.061,232.066
142261,158638,12633,0.021,-0.942,-0.164,0.061,-0.122,0.549,232.072
142230,158714,12606,0.021,-0.942,-0.167,0.061,-0.122,0.549,232.076
142230,158618,12636,0.02,-0.948,-0.167,0.183,0.244,0.671,232.082
142218,158714,12606,0.022,-0.955,-0.163,0.183,0.244,0.671,232.086
142218,158594,12616,0.021,-0.952,-0.165,-0.122,0.122,0.732,232.092
142220,158714,12606,0.018,-0.95,-0.163,-0.122,0.122,0.732,232.096
142220,158591,12618,0.016,-0.95,-0.161,-0.366,0.244,1.037,232.102
142199,158714,12606,0.014,-0.945,-0.161,-0.366,0.244,1.037,232.106
142199,158586,12634,0.013,-0.942,-0.169,-0.549,0.305,1.098,232.112
142209,158714,12606,0.016,-0.943,-0.166,-0.549,0.305,1.098,232.116
142209,158589,12607,0.015,-0.946,-0.165,-0.549,0.122,0.854,232.122
142215,158714,12606,0.011,-0.946,-0.17,-0.549,0.122,0.854,232.125
142215,158576,12627,0.01,-0.946,-0.17,-0.183,0.061,0.61,232.132
142193,158714,12606,0.012,-0.948,-0.168,-0.183,0.061,0.61,232.135
142193,158585,12621,0.012,-0.943,-0.162,0,-0.244,0.61,232.142
142140,158714,12606,0.012,-0.938,-0.156,0,-0.244,0.61,232.145
142140,158541,12616,0.009,-0.938,-0.162,-0.183,-0.122,0.427,232.151
142105,158714,12606,0.009,-0.941,-0.167,-0.183,-0.122,0.427,232.155
142105,158486,12592,0.016,-0.947,-0.163,-0.793,0.183,0.122,232.161
141997,158458,12606,0.016,-0.952,-0.166,-0.793,0.183,0.122,232.165
141997,158414,12608,0.017,-0.954,-0.173,-0.793,0.183,0,232.171
141966,158458,12606,0.017,-0.95,-0.177,-0.793,0.183,0,232.175
141966,158363,12570,0.017,-0.948,-0.172,-0.244,0.366,0.244,232.181
141921,158458,12606,0.019,-0.95,-0.173,-0.244,0.366,0.244,232.185
141921,158375,12591,0.018,-0.948,-0.171,0.793,0.488,0.488,232.191
141942,158458,12606,0.019,-0.947,-0.167,0.793,0.488,0.488,232.195
141942,158383,12577,0.02,-0.945,-0.168,1.159,0.793,0.671,232.201
141988,158458,12606,0.016,-0.948,-0.168,1.159,0.793,0.671,232.205
141988,158456,12592,0.018,-0.952,-0.162,1.037,0.976,0.732,232.211
142062,158714,12606,0.017,-0.949,-0.161,1.037,0.976,0.732,232.215
142062,158498,12593,0.016,-0.94,-0.152,0.732,0.61,0.854,232.221
142092,158714,12606,0.015,-0.937,-0.156,0.732,0.61,0.854,232.224
142092,158535,12615,0.011,-0.939,-0.164,-0.122,0.854,0.854,232.231
142138,158714,12606,0.016,-0.946,-0.158,-0.122,0.854,0.854,232.234
142138,158557,12612,0.017,-0.949,-0.161,-0.732,0.671,0.61,232.241
142197,158714,12606,0.013,-0.949,-0.168,-0.732,0.671,0.61,232.244
142197,158585,12601,0.009,-0.944,-0.165,-0.732,0.732,0.549,232.25
142159,158714,12606,0.01,-0.948,-0.166,-0.732,0.732,0.549,232.254
142159,158560,12619,0.01,-0.95,-0.162,-0.427,0.732,0.488,232.26
142165,158714,12606,0.013,-0.947,-0.171,-0.427,0.732,0.488,232.264
142165,158559,12609,0.009,-0.95,-0.176,-0.183,0.732,0.305,232.27
142139,158714,12606,0.01,-0.96,-0.177,-0.183,0.732,0.305,232.274
142139,158555,12600,0.017,-0.958,-0.173,0.732,0.854,0.183,232.28
142133,158714,12606,0.017,-0.946,-0.166,0.732,0.854,0.183,232.284
142133,158533,12608,0.015,-0.94,-0.165,1.524,0.793,0.366,232.29
142147,158714,12606,0.012,-0.944,-0.162,1.524,0.793,0.366,232.294
142147,158556,12607,0.014,-0.944,-0.158,1.402,0.793,0.549,232.3
142165,158714,12606,0.02,-0.944,-0.155,1.402,0.793,0.549,232.304
142165,158562,12614,0.018,-0.936,-0.151,0.488,0.305,0.488,232.31
142190,158714,12606,0.016,-0.931,-0.149,0.488,0.305,0.488,232.314
142190,158597,12631,0.017,-0.94,-0.16,-0.793,0.183,0.488,232.32
142268,158714,12606,0.02,-0.947,-0.163,-0.793,0.183,0.488,232.323
142268,158668,12626,0.022,-0.948,-0.166,-1.463,0.122,0.305,232.33
142323,158714,12606,0.018,-0.947,-0.171,-1.463,0.122,0.305,232.333
142323,158718,12656,0.016,-0.949,-0.166,-1.585,0.061,0.488,232.34
142371,158970,12606,0.015,-0.947,-0.161,-1.585,0.061,0.488,232.343
142371,158766,12648,0.015,-0.949,-0.167,-1.22,-0.061,0.671,232.349
142380,158970,12606,0.011,-0.957,-0.173,-1.22,-0.061,0.671,232.353
142380,158784,12660,0.007,-0.954,-0.175,-1.098,0.305,0.427,232.359
142410,158970,12606,0.011,-0.948,-0.173,-1.098,0.305,0.427,232.363
142410,158807,12647,0.01,-0.944,-0.171,-0.488,0.244,0.366,232.369
142448,158970,12606,0.008,-0.944,-0.167,-0.488,0.244,0.366,232.373
142448,158818,12661,0.008,-0.945,-0.166,0.671,0.732,0.244,232.379
142433,158970,12606,0.008,-0.942,-0.161,0.671,0.732,0.244,232.383
142433,158846,12653,0.012,-0.941,-0.162,0.854,0.488,0.061,232.389
142446,158970,12606,0.011,-0.941,-0.163,0.854,0.488,0.061,232.393
142446,158832,12663,0.017,-0.943,-0.158,0.244,0.366,0,232.399
142478,158970,12606,0.017,-0.945,-0.156,0.244,0.366,0,232.403
142478,158847,12664,0.018,-0.945,-0.16,-0.366,0.366,0,232.409
142500,158970,12606,0.016,-0.95,-0.163,-0.366,0.366,0,232.413
142500,158888,12662,0.019,-0.954,-0.161,-0.732,0.366,0.122,232.419
142505,158970,12606,0.019,-0.954,-0.161,-0.732,0.366,0.122,232.422
142505,158926,12665,0.018,-0.946,-0.165,-1.098,0.183,0.366,232.429
142543,158970,12606,0.018,-0.946,-0.165,-1.098,0.183,0.366,232.432
142543,158958,12676,0.017,-0.954,-0.175,-1.22,0.488,0.244,232.439
142593,159226,12606,0.017,-0.954,-0.175,-1.22,0.488,0.244,232.442
142593,158976,12692,0.014,-0.95,-0.169,-0.732,0.488,0.183,232.448
142582,158970,12606,0.014,-0.95,-0.169,-0.732,0.488,0.183,232.452
142582,158964,12673,0.011,-0.935,-0.168,-0.61,0.427,0.244,232.458
142583,158970,12606,0.011,-0.935,-0.168,-0.61,0.427,0.244,232.462
142583,158966,12679,0.01,-0.948,-0.168,-0.61,0.305,0,232.468
142553,158970,12606,0.01,-0.948,-0.168,-0.61,0.305,0,232.472
142553,158931,12674,0.013,-0.948,-0.175,-0.61,0.244,-0.183,232.478
142550,158970,12606,0.013,-0.948,-0.175,-0.61,0.244,-0.183,232.482
142550,158938,12666,0.012,-0.95,-0.175,-0.061,0.183,-0.122,232.488
142557,158970,12606,0.012,-0.95,-0.175,-0.061,0.183,-0.122,232.492
142557,158927,12669,0.015,-0.954,-0.169,0.915,0.427,-0.244,232.498
142510,158970,12606,0.015,-0.954,-0.169,0.915,0.427,-0.244,232.502
142510,158903,12676,0.017,-0.953,-0.164,1.22,0.488,-0.183,232.508
142494,158970,12606,0.017,-0.953,-0.164,1.22,0.488,-0.183,232.512
142494,158912,12660,0.018,-0.949,-0.159,1.402,0.671,0,232.518
142494,158970,12606,0.018,-0.949,-0.159,1.402,0.671,0,232.521
142494,158852,12665,0.02,-0.941,-0.162,1.037,0.915,-0.061,232.528
142436,158970,12606,0.02,-0.941,-0.162,1.037,0.915,-0.061,232.531
142436,158824,12668,0.02,-0.942,-0.151,0.61,0.854,0.183,232.537
142427,158970,12606,0.02,-0.942,-0.151,0.61,0.854,0.183,232.541
142427,158787,12660,0.018,-0.94,-0.16,-0.183,0.61,0.305,232.547
142416,158970,12606,0.018,-0.94,-0.16,-0.183,0.61,0.305,232.551
142416,158809,12653,0.017,-0.95,-0.169,-1.22,0.549,0.122,232.557
142394,158970,12606,0.017,-0.95,-0.169,-1.22,0.549,0.122,232.561
142394,158758,12641,0.015,-0.953,-0.172,-1.22,0.549,0.122,232.567
142390,158970,12606,0.02,-0.947,-0.175,-1.402,0.183,0.366,232.571
142390,158776,12643,0.02,-0.945,-0.179,-1.402,0.183,0.366,232.577
142389,158970,12606,0.017,-0.946,-0.179,-0.915,-0.305,0.732,232.581
142389,158771,12644,0.016,-0.946,-0.176,-0.915,-0.305,0.732,232.587
142389,158970,12606,0.011,-0.939,-0.169,0.244,-0.122,0.854,232.591
142389,158781,12650,0.015,-0.936,-0.169,0.244,-0.122,0.854,232.597
142395,158970,12606,0.019,-0.939,-0.165,0.793,-0.183,0.976,232.601
142395,158793,12643,0.019,-0.948,-0.168,0.793,-0.183,0.976,232.607
142373,158970,12606,0.016,-0.96,-0.168,0.915,0,0.915,232.611
142373,158744,12627,0.018,-0.958,-0.165,0.915,0,0.915,232.617
142343,158714,12606,0.017,-0.946,-0.158,0.854,0,0.976,232.62
142343,158701,12639,0.015,-0.942,-0.159,0.854,0,0.976,232.627
142311,158714,12606,0.011,-0.947,-0.156,0.732,0.427,0.976,232.63
142311,158702,12632,0.011,-0.95,-0.158,0.732,0.427,0.976,232.637
142273,158714,12606,0.011,-0.953,-0.164,0.671,0.793,0.366,232.64
142273,158630,12653,0.01,-0.953,-0.161,0.671,0.793,0.366,232.646
142259,158714,12606,0.009,-0.952,-0.16,0.305,1.159,0.183,232.65
142259,158629,12623,0.006,-0.943,-0.165,0.305,1.159,0.183,232.656
142248,158714,12606,0.006,-0.938,-0.162,-0.244,0.976,0.061,232.66
142248,158577,12633,0.009,-0.94,-0.156,-0.244,0.976,0.061,232.666
142226,158714,12606,0.011,-0.938,-0.162,-0.244,0.549,-0.244,232.67
142226,158580,12625,0.012,-0.937,-0.164,-0.244,0.549,-0.244,232.676
142262,158714,12606,0.014,-0.94,-0.163,-0.305,0.549,-0.427,232.68
142262,158607,12625,0.017,-0.947,-0.164,-0.305,0.549,-0.427,232.686
142254,158714,12606,0.02,-0.945,-0.163,-0.366,0.244,-0.305,232.69
142254,158621,12641,0.021,-0.94,-0.159,-0.366,0.244,-0.305,232.696
142271,158714,12606,0.021,-0.937,-0.161,-0.854,0.183,-0.061,232.7
142271,158656,12632,0.021,-0.941,-0.163,-0.854,0.183,-0.061,232.706
142290,158714,12606,0.023,-0.948,-0.166,-1.585,0,0.244,232.71
142290,158642,12635,0.025,-0.95,-0.167,-1.585,0,0.244,232.716
142299,158714,12606,0.023,-0.951,-0.165,-1.585,-0.122,0.549,232.719
142299,158664,12647,0.019,-0.95,-0.165,-1.585,-0.122,0.549,232.726
142308,158714,12606,0.015,-0.949,-0.168,-1.646,0.061,0.61,232.729
142308,158662,12647,0.015,-0.948,-0.166,-1.646,0.061,0.61,232.735
142297,158714,12606,0.016,-0.948,-0.161,-1.646,0.244,0.488,232.739
142297,158683,12637,0.012,-0.947,-0.165,-1.646,0.244,0.488,232.745
142339,158714,12606,0.011,-0.949,-0.168,-1.159,0.671,0.183,232.749
142339,158687,12631,0.011,-0.947,-0.168,-1.159,0.671,0.183,232.755
142329,158714,12606,0.015,-0.947,-0.164,-0.793,0.549,0.183,232.759
142329,158686,12636,0.013,-0.938,-0.161,-0.793,0.549,0.183,232.765
142327,158970,12606,0.013,-0.936,-0.168,-0.915,0.427,0.305,232.769
142327,158723,12649,0.015,-0.94,-0.169,-0.915,0.427,0.305,232.775
142358,158970,12606,0.018,-0.946,-0.174,-0.976,0.488,0.488,232.779
142358,158741,12646,0.019,-0.948,-0.174,-0.976,0.488,0.488,232.785
142415,158970,12606,0.024,-0.942,-0.162,-0.427,0.244,0.549,232.789
142415,158760,12665,0.022,-0.94,-0.167,-0.427,0.244,0.549,232.795
142434,158970,12606,0.018,-0.945,-0.163,-0.122,0.122,0.732,232.799
142434,158800,12658,0.02,-0.951,-0.166,-0.122,0.122,0.732,232.805
142437,158970,12606,0.019,-0.95,-0.167,-0.488,0.122,0.732,232.809
142437,158819,12653,0.018,-0.947,-0.159,-0.488,0.122,0.732,232.815
142448,158970,12606,0.011,-0.95,-0.157,-1.098,0.183,0.671,232.818
142448,158797,12655,0.011,-0.949,-0.165,-1.098,0.183,0.671,232.825
142424,158970,12606,0.013,-0.953,-0.168,-1.768,0.244,0.427,232.828
142424,158784,12648,0.013,-0.956,-0.171,-1.768,0.244,0.427,232.835
142418,158970,12606,0.014,-0.951,-0.169,-1.646,-0.122,0.183,232.838
142418,158793,12655,0.01,-0.945,-0.168,-1.646,-0.122,0.183,232.844
142430,158970,12606,0.007,-0.941,-0.17,-1.22,0.061,0.183,232.848
142430,158778,12658,0.01,-0.947,-0.174,-1.22,0.061,0.183,232.854
142453,158970,12606,0.016,-0.951,-0.175,-1.159,0.183,0.183,232.858
142453,158778,12659,0.017,-0.955,-0.174,-1.159,0.183,0.183,232.864
142470,158970,12606,0.013,-0.953,-0.172,-0.427,0.183,0.244,232.868
142470,158824,12669,0.014,-0.949,-0.172,-0.427,0.183,0.244,232.874
142480,158970,12606,0.018,-0.942,-0.173,0.427,0.549,0.427,232.878
142480,158831,12667,0.02,-0.945,-0.17,0.427,0.549,0.427,232.884
142490,158970,12606,0.018,-0.947,-0.168,1.159,0.854,0.366,232.888
142490,158848,12650,0.019,-0.949,-0.165,1.159,0.854,0.366,232.894
142482,158970,12606,0.019,-0.949,-0.17,1.524,0.854,0.366,232.898
142482,158829,12661,0.018,-0.947,-0.169,1.524,0.854,0.366,232.904
142488,158970,12606,0.019,-0.94,-0.168,1.037,0.793,0.427,232.908
142488,158862,12670,0.014,-0.937,-0.166,1.037,0.793,0.427,232.914
142527,158970,12606,0.014,-0.936,-0.167,0.61,0.854,0.488,232.917
142527,158873,12655,0.016,-0.935,-0.165,0.61,0.854,0.488,232.924
142513,158970,12606,0.018,-0.934,-0.168,0.183,0.366,0.366,232.927
142513,158859,12671,0.016,-0.941,-0.172,0.183,0.366,0.366,232.934
142537,158970,12606,0.016,-0.949,-0.174,0,0.061,0.183,232.937
142537,158894,12674,0.017,-0.949,-0.172,0,0.061,0.183,232.943
142571,158970,12606,0.02,-0.948,-0.172,0.122,0.122,0.366,232.947
142571,158927,12674,0.018,-0.951,-0.168,0.122,0.122,0.366,232.953
142591,158970,12606,0.016,-0.95,-0.169,0.305,0.122,0.732,232.957
142591,158934,12685,0.018,-0.954,-0.174,0.305,0.122,0.732,232.963
142620,158970,12606,0.018,-0.955,-0.171,0.549,0.366,0.793,232.967
142620,158955,12690,0.019,-0.953,-0.163,0.549,0.366,0.793,232.973
142634,158970,12606,0.017,-0.951,-0.166,1.159,0.549,1.037,232.977
142634,158957,12691,0.016,-0.949,-0.167,1.159,0.549,1.037,232.983
142630,159226,12606,0.018,-0.942,-0.158,1.524,0.549,1.098,232.987
142630,158987,12675,0.016,-0.942,-0.162,1.524,0.549,1.098,232.993
142631,158970,12606,0.012,-0.938,-0.164,1.524,0.732,1.098,232.997
142631,158971,12668,0.01,-0.936,-0.162,1.524,0.732,1.098,233.003
142582,158970,12606,0.01,-0.936,-0.162,1.524,0.732,1.098,233.007
142582,158933,12674,0.011,-0.932,-0.162,1.524,0.976,0.976,233.013
142564,158970,12606,0.011,-0.932,-0.162,1.524,0.976,0.976,233.016
142564,158932,12663,0.01,-0.935,-0.156,1.22,0.732,0.732,233.023
142583,158970,12606,0.01,-0.935,-0.156,1.22,0.732,0.732,233.026
142583,158883,12659,0.013,-0.942,-0.159,0.427,0.427,0.366,233.033
142553,158970,12606,0.013,-0.942,-0.159,0.427,0.427,0.366,233.036
142553,158883,12652,0.016,-0.95,-0.167,-0.305,0.61,0.122,233.042
142518,158970,12606,0.016,-0.95,-0.167,-0.305,0.61,0.122,233.046
142518,158845,12668,0.018,-0.947,-0.164,-0.671,0.366,0.183,233.052
142499,158970,12606,0.018,-0.947,-0.164,-0.671,0.366,0.183,233.056
142499,158834,12666,0.019,-0.957,-0.16,-0.305,0.366,0.366,233.062
142518,158970,12606,0.019,-0.957,-0.16,-0.305,0.366,0.366,233.066
142518,158836,12676,0.013,-0.953,-0.15,0.244,0.488,0.61,233.072
142526,158970,12606,0.013,-0.953,-0.15,0.244,0.488,0.61,233.076
142526,158863,12657,0.012,-0.943,-0.146,0.183,0.793,0.732,233.082
142546,158970,12606,0.012,-0.943,-0.146,0.183,0.793,0.732,233.086
142546,158895,12658,0.013,-0.951,-0.139,-0.549,0.976,0.61,233.092
142538,158970,12606,0.013,-0.951,-0.139,-0.549,0.976,0.61,233.096
142538,158870,12663,0.011,-0.933,-0.136,-1.585,0.732,0.61,233.102
142493,158970,12606,0.011,-0.933,-0.136,-1.585,0.732,0.61,233.106
142493,158846,12667,0.015,-0.938,-0.162,-3.963,0.671,0.366,233.112
142467,158970,12606,0.015,-0.938,-0.162,-3.963,0.671,0.366,233.115
142467,158806,12645,0.014,-0.95,-0.19,-6.037,0.427,0.183,233.122
142443,158970,12606,0.014,-0.95,-0.19,-6.037,0.427,0.183,233.125
142443,158774,12640,0.024,-0.952,-0.214,-5.854,-0.244,0.244,233.132
142445,158970,12606,0.024,-0.952,-0.214,-5.854,-0.244,0.244,233.135
142445,158781,12640,0.024,-0.958,-0.207,-3.72,-0.854,0.366,233.141
142451,158970,12606,0.024,-0.958,-0.207,-3.72,-0.854,0.366,233.145
142451,158769,12643,0.022,-0.953,-0.199,-0.427,-0.61,1.037,233.151
142454,158970,12606,0.024,-0.948,-0.194,-0.427,-0.61,1.037,233.155
142454,158813,12658,0.021,-0.951,-0.185,1.524,-0.244,1.463,233.161
142478,158970,12606,0.016,-0.953,-0.175,1.524,-0.244,1.463,233.165
142478,158844,12660,0.02,-0.949,-0.177,2.195,0.183,1.463,233.171
142518,158970,12606,0.022,-0.942,-0.172,2.195,0.183,1.463,233.175
142518,158868,12650,0.018,-0.939,-0.161,2.256,0.122,1.585,233.181
142564,158970,12606,0.013,-0.936,-0.151,2.256,0.122,1.585,233.185
142564,158880,12647,0.011,-0.935,-0.141,2.195,0.244,1.829,233.191
142544,158970,12606,0.018,-0.938,-0.153,2.195,0.244,1.829,233.195
142544,158871,12652,0.02,-0.947,-0.159,0.976,0.549,1.768,233.201
142550,158970,12606,0.009,-0.956,-0.154,0.976,0.549,1.768,233.205
142550,158874,12655,0.001,-0.958,-0.155,0.793,0.61,2.195,233.211
142550,158970,12606,-0,-0.955,-0.158,0.793,0.61,2.195,233.214
142550,158882,12666,-0,-0.95,-0.158,0.488,0.854,2.012,233.221
142550,158970,12606,0.001,-0.951,-0.158,0.488,0.854,2.012,233.224
142550,158883,12664,-0,-0.956,-0.164,0.122,0.549,1.28,233.231
142549,158970,12606,-0.004,-0.954,-0.16,0.122,0.549,1.28,233.234
142549,158884,12676,0.001,-0.945,-0.148,0.122,0.244,0.488,233.24
142561,158970,12606,0.004,-0.929,-0.148,0.122,0.244,0.488,233.244
142561,158903,12659,0,-0.927,-0.15,-0.976,0.305,-0.305,233.25
142570,158970,12606,0.002,-0.933,-0.158,-0.976,0.305,-0.305,233.254
142570,158915,12669,0.004,-0.94,-0.158,-2.256,0,-0.915,233.26
142598,158970,12606,0.01,-0.943,-0.158,-2.256,0,-0.915,233.264
142598,158923,12662,0.012,-0.934,-0.165,-3.171,-0.61,-1.341,233.27
142593,158970,12606,0.013,-0.94,-0.173,-3.171,-0.61,-1.341,233.274
142593,158953,12666,0.016,-0.948,-0.171,-3.659,-0.61,-1.28,233.28
142630,159226,12606,0.019,-0.957,-0.178,-3.659,-0.61,-1.28,233.284
142630,158982,12679,0.021,-0.963,-0.176,-3.232,-0.793,-1.098,233.29
142686,159226,12606,0.022,-0.958,-0.177,-3.232,-0.793,-1.098,233.294
142686,158979,12670,0.022,-0.956,-0.183,-2.561,-0.61,-0.732,233.3
142653,159226,12606,0.022,-0.955,-0.185,-2.561,-0.61,-0.732,233.304
142653,159022,12665,0.023,-0.957,-0.177,-1.707,-0.244,-0.305,233.31
142673,159226,12606,0.024,-0.953,-0.175,-1.707,-0.244,-0.305,233.313
142673,159014,12682,0.021,-0.948,-0.181,-0.671,0,0.122,233.32
142679,159226,12606,0.016,-0.941,-0.176,-0.671,0,0.122,233.323
142679,159042,12691,0.016,-0.942,-0.172,-0.122,0.488,0.366,233.329
142677,159226,12606,0.017,-0.944,-0.173,-0.122,0.488,0.366,233.333
142677,159040,12681,0.018,-0.947,-0.173,0.183,0.427,0.427,233.339
142708,159226,12606,0.016,-0.946,-0.171,0.183,0.427,0.427,233.343
142708,159027,12694,0.015,-0.945,-0.168,0.488,0.671,0.549,233.349
142720,159226,12606,0.017,-0.948,-0.171,0.488,0.671,0.549,233.353
142720,159054,12686,0.017,-0.952,-0.175,0.671,0.915,0.671,233.359
142711,159226,12606,0.015,-0.949,-0.178,0.671,0.915,0.671,233.363
142711,159043,12687,0.013,-0.948,-0.173,1.159,1.159,0.915,233.369
142708,159226,12606,0.012,-0.947,-0.164,1.159,1.159,0.915,233.373
142708,159033,12670,0.015,-0.946,-0.168,1.646,1.159,0.976,233.379
142644,158970,12606,0.016,-0.946,-0.175,1.646,1.159,0.976,233.383
142644,158948,12669,0.015,-0.951,-0.178,2.012,1.646,0.671,233.389
142585,158970,12606,0.017,-0.956,-0.173,2.012,1.646,0.671,233.393
142585,158899,12671,0.018,-0.953,-0.165,2.622,1.463,0.854,233.399
142563,158970,12606,0.017,-0.941,-0.16,2.622,1.463,0.854,233.403
142563,158868,12662,0.013,-0.935,-0.161,2.561,1.341,1.159,233.409
142568,158970,12606,0.011,-0.938,-0.158,2.561,1.341,1.159,233.412
142568,158876,12651,0.018,-0.944,-0.164,2.317,1.28,1.159,233.419
142576,158970,12606,0.019,-0.948,-0.165,2.317,1.28,1.159,233.422
142576,158903,12677,0.016,-0.951,-0.167,1.89,0.915,1.159,233.429
142616,158970,12606,0.014,-0.953,-0.166,1.89,0.915,1.159,233.432
142616,158918,12679,0.014,-0.95,-0.165,1.463,0.854,1.28,233.438
142632,158970,12606,0.014,-0.948,-0.161,1.463,0.854,1.28,233.442
142632,158938,12681,0.011,-0.939,-0.162,0.915,0.854,1.28,233.448
142640,159226,12606,0.009,-0.937,-0.161,0.915,0.854,1.28,233.452
142640,158982,12682,0.008,-0.945,-0.156,0.366,0.976,0.976,233.458
142678,159226,12606,0.01,-0.951,-0.156,0.366,0.976,0.976,233.462
142678,159003,12683,0.008,-0.947,-0.153,-0.122,0.732,0.671,233.468
142629,159226,12606,0.01,-0.941,-0.154,-0.122,0.732,0.671,233.472
142629,158977,12678,0.007,-0.94,-0.155,-1.341,0.61,0.549,233.478
142617,158970,12606,0.006,-0.941,-0.157,-1.341,0.61,0.549,233.482
142617,158947,12685,0.007,-0.946,-0.158,-2.378,0.427,0.244,233.488
142591,158970,12606,0.01,-0.948,-0.162,-2.378,0.427,0.244,233.492
142591,158916,12681,0.006,-0.945,-0.166,-2.927,0.183,-0.061,233.498
142593,158970,12606,0.007,-0.946,-0.169,-2.927,0.183,-0.061,233.502
142593,158909,12667,0.009,-0.948,-0.167,-2.927,0.122,-0.305,233.508
142571,158970,12606,0.007,-0.946,-0.169,-2.927,0.122,-0.305,233.511
142571,158911,12664,0.008,-0.944,-0.169,-2.256,0.244,-0.549,233.518
142578,158970,12606,0.006,-0.95,-0.162,-2.256,0.244,-0.549,233.521
142578,158887,12657,0.01,-0.953,-0.163,-1.707,0.488,-0.732,233.528
142575,158970,12606,0.014,-0.952,-0.171,-1.707,0.488,-0.732,233.531
142575,158882,12654,0.014,-0.951,-0.176,-1.402,0.549,-0.793,233.537
142551,158970,12606,0.012,-0.952,-0.167,-1.402,0.549,-0.793,233.541
142551,158860,12660,0.014,-0.948,-0.169,-0.854,0.549,-0.793,233.547
142523,158970,12606,0.016,-0.938,-0.168,-0.854,0.549,-0.793,233.551
142523,158870,12667,0.017,-0.938,-0.176,-0.976,0.61,-0.793,233.557
142503,158970,12606,0.018,-0.944,-0.181,-0.976,0.61,-0.793,233.561
142503,158821,12653,0.021,-0.952,-0.18,-1.098,0.61,-0.732,233.567
142491,158970,12606,0.022,-0.955,-0.184,-1.098,0.61,-0.732,233.571
142491,158840,12655,0.02,-0.95,-0.186,-0.488,0.427,-0.549,233.577
142503,158970,12606,0.018,-0.948,-0.181,-0.488,0.427,-0.549,233.581
142503,158848,12665,0.019,-0.946,-0.176,0.183,0.366,-0.122,233.587
142521,158970,12606,0.015,-0.941,-0.174,0.183,0.366,-0.122,233.591
142521,158839,12654,0.013,-0.949,-0.17,0.732,0.671,0,233.597
142518,158970,12606,0.013,-0.949,-0.17,0.732,0.671,0,233.601
142518,158828,12664,0.013,-0.949,-0.166,0.671,0.427,-0.061,233.607
142516,158970,12606,0.013,-0.949,-0.166,0.671,0.427,-0.061,233.61
142516,158832,12663,0.017,-0.945,-0.173,0.122,0.427,-0.122,233.617
142547,158970,12606,0.017,-0.945,-0.173,0.122,0.427,-0.122,233.62
142547,158876,12669,0.009,-0.955,-0.157,0.244,0.427,-0.183,233.627
142549,158970,12606,0.009,-0.955,-0.157,0.244,0.427,-0.183,233.63
142549,158880,12669,0.016,-0.935,-0.157,-0.488,0.366,-0.244,233.636
142577,158970,12606,0.016,-0.935,-0.157,-0.488,0.366,-0.244,233.64
142577,158887,12653,0.016,-0.943,-0.161,-1.585,0.183,-0.122,233.646
142552,158970,12606,0.016,-0.943,-0.161,-1.585,0.183,-0.122,233.65
142552,158914,12656,0.016,-0.945,-0.16,-2.012,0,-0.183,233.656
142574,158970,12606,0.016,-0.945,-0.16,-2.012,0,-0.183,233.66
142574,158930,12665,0.016,-0.937,-0.16,-2.134,-0.061,-0.061,233.666
142627,158970,12606,0.016,-0.937,-0.16,-2.134,-0.061,-0.061,233.67
142627,158949,12669,0.013,-0.942,-0.172,-2.561,-0.183,0,233.676
142673,159226,12606,0.013,-0.942,-0.172,-2.561,-0.183,0,233.68
142673,158996,12674,0.019,-0.947,-0.177,-2.317,-0.427,0.061,233.686
142688,159226,12606,0.019,-0.947,-0.177,-2.317,-0.427,0.061,233.69
142688,158986,12679,0.018,-0.944,-0.187,-1.829,-0.427,0.427,233.696
142699,159226,12606,0.018,-0.944,-0.187,-1.829,-0.427,0.427,233.7
142699,159014,12685,0.02,-0.948,-0.177,-1.22,-0.488,0.793,233.706
142697,159226,12606,0.02,-0.948,-0.177,-1.22,-0.488,0.793,233.709
142697,158995,12672,0.018,-0.954,-0.185,-0.427,-0.183,0.854,233.716
142702,159226,12606,0.018,-0.954,-0.185,-0.427,-0.183,0.854,233.719
142702,158991,12688,0.018,-0.95,-0.172,0.305,-0.122,0.793,233.726
142685,159226,12606,0.018,-0.95,-0.172,0.305,-0.122,0.793,233.729
142685,159005,12672,0.008,-0.934,-0.172,0.061,0.183,0.854,233.735
142675,159226,12606,0.008,-0.934,-0.172,0.061,0.183,0.854,233.739
142675,159005,12677,0.009,-0.94,-0.175,0.061,0.183,0.854,233.745
142696,159226,12606,0.013,-0.948,-0.169,-0.122,0.122,0.549,233.749
142696,158998,12662,0.016,-0.952,-0.167,-0.122,0.122,0.549,233.755
142685,159226,12606,0.012,-0.949,-0.166,0.244,-0.183,0.427,233.759
142685,158997,12652,0.012,-0.94,-0.162,0.244,-0.183,0.427,233.765
142665,158970,12606,0.012,-0.943,-0.162,0.244,0.183,0.549,233.769
142665,158935,12674,0.014,-0.949,-0.167,0.244,0.183,0.549,233.775
142665,158970,12606,0.016,-0.955,-0.169,0.122,0.488,0.366,233.779
142665,158943,12673,0.015,-0.952,-0.17,0.122,0.488,0.366,233.785
142643,158970,12606,0.014,-0.948,-0.171,0.305,0.671,0.427,233.789
142643,158959,12670,0.019,-0.947,-0.17,0.305,0.671,0.427,233.795
142649,158970,12606,0.02,-0.948,-0.168,0.732,0.671,0.671,233.799
142649,158942,12676,0.018,-0.945,-0.171,0.732,0.671,0.671,233.805
142604,158970,12606,0.016,-0.945,-0.172,1.037,0.732,0.793,233.808
142604,158896,12665,0.016,-0.946,-0.165,1.037,0.732,0.793,233.815
142595,158970,12606,0.016,-0.945,-0.169,1.159,0.671,0.793,233.818
142595,158883,12661,0.016,-0.939,-0.177,1.159,0.671,0.793,233.825
142580,158970,12606,0.015,-0.943,-0.18,0.793,0.732,0.732,233.828
142580,158868,12653,0.016,-0.946,-0.173,0.793,0.732,0.732,233.834
142542,158970,12606,0.015,-0.946,-0.167,1.159,0.671,0.732,233.838
142542,158860,12669,0.014,-0.943,-0.17,1.159,0.671,0.732,233.844
142562,158970,12606,0.013,-0.945,-0.177,1.341,0.671,0.61,233.848
142562,158865,12656,0.018,-0.952,-0.177,1.341,0.671,0.61,233.854
142560,158970,12606,0.017,-0.956,-0.179,1.646,0.915,0.488,233.858
142560,158869,12660,0.014,-0.957,-0.182,1.646,0.915,0.488,233.864
142566,158970,12606,0.015,-0.953,-0.17,2.5,0.793,0.671,233.868
142566,158873,12655,0.014,-0.938,-0.165,2.5,0.793,0.671,233.874
142585,158970,12606,0.011,-0.936,-0.161,2.5,0.549,0.915,233.878
142585,158886,12680,0.005,-0.943,-0.146,2.5,0.549,0.915,233.884
142635,158970,12606,0.006,-0.943,-0.148,1.829,0.366,0.671,233.888
142635,158924,12667,0.015,-0.939,-0.151,1.829,0.366,0.671,233.894
142668,158970,12606,0.012,-0.933,-0.148,0,0.427,0.244,233.898
142668,158956,12675,0.005,-0.934,-0.156,0,0.427,0.244,233.904
142686,159226,12606,0.007,-0.941,-0.161,-1.037,0.854,0.183,233.907
142686,158981,12680,0.01,-0.946,-0.157,-1.037,0.854,0.183,233.914
142692,159226,12606,0.013,-0.949,-0.15,-1.463,0.366,0.061,233.917
142692,158977,12693,0.014,-0.944,-0.151,-1.463,0.366,0.061,233.924
142671,158970,12606,0.011,-0.937,-0.159,-2.317,-0.122,0,233.927
142671,158972,12668,0.011,-0.941,-0.164,-2.317,-0.122,0,233.933
142652,158970,12606,0.012,-0.952,-0.173,-3.171,0.061,-0.244,233.937
142652,158932,12667,0.017,-0.961,-0.175,-3.171,0.061,-0.244,233.943
142606,158970,12606,0.019,-0.957,-0.179,-2.561,0.122,-0.427,233.947
142606,158918,12655,0.019,-0.955,-0.183,-2.561,0.122,-0.427,233.953
142567,158970,12606,0.015,-0.952,-0.183,-1.524,0.366,-0.122,233.957
142567,158851,12647,0.016,-0.95,-0.18,-1.524,0.366,-0.122,233.963
142545,158970,12606,0.017,-0.949,-0.179,-0.61,0.427,0.122,233.967
142545,158838,12652,0.017,-0.946,-0.185,-0.61,0.427,0.122,233.973
142513,158970,12606,0.013,-0.946,-0.185,0.244,0.854,0.122,233.977
142513,158834,12633,0.017,-0.945,-0.171,0.244,0.854,0.122,233.983
142516,158970,12606,0.02,-0.946,-0.167,1.098,0.976,0.305,233.987
142516,158824,12640,0.02,-0.949,-0.167,1.098,0.976,0.305,233.993
142557,158970,12606,0.016,-0.952,-0.172,1.037,1.098,0.488,233.997
142557,158841,12638,0.019,-0.952,-0.172,1.037,1.098,0.488,234.003
142559,158970,12606,0.021,-0.948,-0.17,0.854,1.037,0.793,234.006
142559,158849,12645,0.019,-0.941,-0.168,0.854,1.037,0.793,234.013
142562,158970,12606,0.012,-0.943,-0.161,1.22,0.61,1.22,234.016
142562,158856,12642,0.013,-0.943,-0.161,1.22,0.61,1.22,234.022
142564,158970,12606,0.012,-0.94,-0.162,1.22,0.427,1.22,234.026
142564,158843,12649,0.01,-0.952,-0.162,1.22,0.427,1.22,234.032
142531,158970,12606,0.01,-0.954,-0.163,0.854,0.488,0.61,234.036
142531,158845,12650,0.007,-0.948,-0.167,0.854,0.488,0.61,234.042
142521,158970,12606,0.007,-0.946,-0.173,0.244,0.427,0.305,234.046
142521,158851,12638,0.008,-0.944,-0.164,0.244,0.427,0.305,234.052
142515,158970,12606,0.007,-0.946,-0.162,0.61,0.488,0.122,234.056
142515,158845,12653,0.006,-0.947,-0.163,0.61,0.488,0.122,234.062
142522,158970,12606,0.01,-0.945,-0.166,0.427,0.61,-0.183,234.066
142522,158840,12643,0.011,-0.943,-0.162,0.427,0.61,-0.183,234.072
142530,158970,12606,0.016,-0.939,-0.166,-0.427,0.732,-0.366,234.076
142530,158850,12652,0.015,-0.944,-0.168,-0.427,0.732,-0.366,234.082
142564,158970,12606,0.021,-0.947,-0.169,-0.549,0.793,-0.549,234.086
142564,158868,12653,0.021,-0.946,-0.168,-0.549,0.793,-0.549,234.092
142577,158970,12606,0.022,-0.945,-0.164,-0.366,0.671,-0.366,234.096
142577,158883,12645,0.022,-0.945,-0.165,-0.366,0.671,-0.366,234.102
142631,158970,12606,0.023,-0.942,-0.165,-0.427,0.427,0.122,234.105
142631,158922,12659,0.024,-0.941,-0.167,-0.427,0.427,0.122,234.112
142639,158970,12606,0.022,-0.939,-0.168,-0.183,0.061,0.549,234.115
142639,158898,12669,0.021,-0.94,-0.167,-0.183,0.061,0.549,234.121
142620,158970,12606,0.019,-0.945,-0.167,0.244,-0.549,0.915,234.125
142620,158935,12654,0.017,-0.944,-0.158,0.244,-0.549,0.915,234.131
142618,158970,12606,0.018,-0.937,-0.157,0.61,-0.61,0.976,234.135
142618,158907,12646,0.01,-0.937,-0.161,0.61,-0.61,0.976,234.141
142600,158970,12606,0.012,-0.943,-0.173,-0.061,-0.244,0.793,234.145
142600,158894,12658,0.012,-0.953,-0.178,-0.061,-0.244,0.793,234.151
142600,158970,12606,0.017,-0.958,-0.176,-0.183,-0.244,0.488,234.155
142600,158883,12663,0.016,-0.953,-0.178,-0.183,-0.244,0.488,234.161
142572,158970,12606,0.009,-0.946,-0.176,0.427,-0.122,0.671,234.165
142572,158895,12632,0.004,-0.948,-0.167,0.427,-0.122,0.671,234.171
142511,158970,12606,0.006,-0.951,-0.166,1.159,0.244,0.854,234.175
142511,158860,12648,0.014,-0.95,-0.172,1.159,0.244,0.854,234.181
142487,158970,12606,0.014,-0.95,-0.172,1.159,0.244,0.854,234.185
142487,158791,12635,0.011,-0.952,-0.168,1.098,0.427,0.488,234.191
142447,158970,12606,0.011,-0.952,-0.168,1.098,0.427,0.488,234.195
142447,158752,12637,0.011,-0.952,-0.16,1.037,0.488,0.244,234.201
142400,158714,12606,0.011,-0.952,-0.16,1.037,0.488,0.244,234.204
142400,158690,12619,0.01,-0.944,-0.158,1.098,0.549,0.122,234.211
142312,158714,12606,0.01,-0.944,-0.158,1.098,0.549,0.122,234.214
142312,158634,12626,0.015,-0.944,-0.158,0.427,0.732,-0.183,234.22
142245,158714,12606,0.015,-0.944,-0.158,0.427,0.732,-0.183,234.224
142245,158565,12622,0.014,-0.94,-0.159,-0.549,0.244,-0.305,234.23
142231,158714,12606,0.014,-0.94,-0.159,-0.549,0.244,-0.305,234.234
142231,158529,12594,0.02,-0.943,-0.168,-1.341,0.061,-0.488,234.24
142242,158714,12606,0.02,-0.943,-0.168,-1.341,0.061,-0.488,234.244
142242,158552,12612,0.024,-0.945,-0.174,-1.89,0.183,-0.366,234.25
142285,158714,12606,0.024,-0.945,-0.174,-1.89,0.183,-0.366,234.254
142285,158598,12605,0.023,-0.95,-0.185,-1.646,0.244,-0.122,234.26
142358,158714,12606,0.023,-0.95,-0.185,-1.646,0.244,-0.122,234.264
