141817,157681,12736,0.013,-0.944,-0.16,-0.244,0.244,0.366,119.665
141823,157690,12606,0.013,-0.945,-0.164,-0.671,0.305,0.366,119.668
141823,157675,12732,0.017,-0.955,-0.163,-0.671,0.305,0.366,119.675
141829,157690,12606,0.015,-0.953,-0.16,-0.305,0.366,0.244,119.678
141829,157687,12731,0.011,-0.944,-0.167,-0.305,0.366,0.244,119.685
141832,157690,12606,0.013,-0.943,-0.163,0.122,0.427,0.366,119.688
141832,157686,12738,0.016,-0.952,-0.156,0.122,0.427,0.366,119.694
141832,157690,12606,0.016,-0.95,-0.155,0.671,0.366,0.366,119.698
141832,157684,12745,0.011,-0.948,-0.163,0.671,0.366,0.366,119.704
141832,157690,12606,0.011,-0.948,-0.163,0.671,0.366,0.366,119.708
141832,157669,12732,0.013,-0.947,-0.158,0.427,0.732,0.305,119.714
141824,157690,12606,0.013,-0.947,-0.158,0.427,0.732,0.305,119.718
141824,157677,12719,0.013,-0.948,-0.161,0.366,0.549,0.305,119.724
141830,157690,12606,0.013,-0.948,-0.161,0.366,0.549,0.305,119.728
141830,157673,12727,0.014,-0.946,-0.159,0.061,0.305,0.427,119.734
141842,157946,12606,0.014,-0.946,-0.159,0.061,0.305,0.427,119.738
141842,157700,12737,0.014,-0.949,-0.156,-0.122,0.305,0.427,119.744
141874,157946,12606,0.014,-0.949,-0.156,-0.122,0.305,0.427,119.748
141874,157725,12743,0.013,-0.949,-0.158,-0.122,0.244,0.488,119.754
141926,157946,12606,0.013,-0.949,-0.158,-0.122,0.244,0.488,119.758
141926,157758,12757,0.015,-0.941,-0.16,-0.61,0.244,0.305,119.764
141913,157946,12606,0.015,-0.941,-0.16,-0.61,0.244,0.305,119.768
141913,157769,12748,0.016,-0.948,-0.161,-0.488,0.183,0.366,119.774
141932,157946,12606,0.016,-0.948,-0.161,-0.488,0.183,0.366,119.777
141932,157836,12761,0.016,-0.947,-0.161,0.183,0.061,0.244,119.784
141985,157946,12606,0.016,-0.947,-0.161,0.183,0.061,0.244,119.787
141985,157874,12752,0.016,-0.948,-0.162,0.549,0.366,0.366,119.793
142001,157946,12606,0.016,-0.948,-0.162,0.549,0.366,0.366,119.797
142001,157871,12771,0.014,-0.95,-0.162,0.488,0.427,0.549,119.803
142021,157946,12606,0.014,-0.95,-0.162,0.488,0.427,0.549,119.807
142021,157903,12767,0.015,-0.951,-0.155,0.793,0.488,0.61,119.813
142015,157946,12606,0.015,-0.951,-0.155,0.793,0.488,0.61,119.817
142015,157880,12759,0.013,-0.944,-0.159,0.854,0.61,0.671,119.823
141997,157946,12606,0.013,-0.944,-0.159,0.854,0.61,0.671,119.827
141997,157861,12749,0.01,-0.947,-0.158,0.427,0.732,0.671,119.833
141963,157946,12606,0.01,-0.947,-0.158,0.427,0.732,0.671,119.837
141963,157844,12747,0.016,-0.942,-0.157,0.488,0.488,0.671,119.843
141986,157946,12606,0.016,-0.942,-0.157,0.488,0.488,0.671,119.847
141986,157821,12755,0.01,-0.939,-0.154,0.244,0.549,0.549,119.853
142001,157946,12606,0.009,-0.942,-0.159,0.244,0.549,0.549,119.857
142001,157855,12752,0.012,-0.952,-0.154,-0.244,0.366,0.305,119.863
142029,157946,12606,0.015,-0.948,-0.15,-0.244,0.366,0.305,119.867
142029,157891,12752,0.013,-0.945,-0.155,-0.671,0.183,0.183,119.873
142042,157946,12606,0.01,-0.946,-0.155,-0.671,0.183,0.183,119.876
142042,157924,12777,0.012,-0.944,-0.155,-1.037,0.244,0.244,119.883
142073,157946,12606,0.014,-0.948,-0.163,-1.037,0.244,0.244,119.886
142073,157935,12777,0.015,-0.956,-0.169,-1.159,0.305,0.183,119.893
142109,158202,12606,0.017,-0.954,-0.167,-1.159,0.305,0.183,119.896
142109,157956,12776,0.02,-0.948,-0.159,-0.244,0.366,0.366,119.902
142124,158202,12606,0.017,-0.95,-0.16,-0.244,0.366,0.366,119.906
142124,157972,12777,0.014,-0.95,-0.157,0.366,0.915,0.61,119.912
142092,158202,12606,0.02,-0.949,-0.154,0.366,0.915,0.61,119.916
142092,157961,12780,0.018,-0.945,-0.159,0.366,1.098,0.671,119.922
142132,158202,12606,0.012,-0.944,-0.165,0.366,1.098,0.671,119.926
142132,157961,12774,0.014,-0.946,-0.161,0.549,1.28,0.549,119.932
142084,157946,12606,0.012,-0.943,-0.157,0.549,1.28,0.549,119.936
142084,157937,12752,0.013,-0.939,-0.159,0.549,1.159,0.61,119.942
142048,157946,12606,0.012,-0.941,-0.152,0.549,1.159,0.61,119.946
142048,157890,12761,0.013,-0.944,-0.155,-0.061,0.793,0.488,119.952
142013,157946,12606,0.012,-0.953,-0.16,-0.061,0.793,0.488,119.956
142013,157858,12765,0.011,-0.95,-0.152,-0.61,0.671,0.183,119.962
141964,157946,12606,0.01,-0.933,-0.154,-0.61,0.671,0.183,119.966
141964,157851,12749,0.013,-0.938,-0.157,-1.159,0.366,0.244,119.972
141964,157946,12606,0.007,-0.952,-0.156,-1.159,0.366,0.244,119.975
141964,157833,12759,0.008,-0.958,-0.158,-1.037,0.305,0.244,119.982
141961,157946,12606,0.015,-0.954,-0.155,-1.037,0.305,0.244,119.985
141961,157819,12743,0.015,-0.952,-0.159,-1.463,0,0.061,119.992
141969,157946,12606,0.008,-0.948,-0.165,-1.463,0,0.061,119.995
141969,157846,12747,0.012,-0.95,-0.166,-1.28,0.061,0.122,120.001
141975,157946,12606,0.013,-0.958,-0.161,-1.28,0.061,0.122,120.005
141975,157864,12752,0.013,-0.953,-0.151,-0.549,-0.122,0.244,120.011
141996,157946,12606,0.013,-0.945,-0.151,-0.549,-0.122,0.244,120.015
141996,157879,12748,0.013,-0.942,-0.163,-1.098,-0.061,0.427,120.021
141981,157946,12606,0.015,-0.944,-0.161,-1.098,-0.061,0.427,120.025
141981,157874,12770,0.017,-0.948,-0.166,-1.463,0.183,0.366,120.031
142013,157946,12606,0.014,-0.953,-0.174,-1.463,0.183,0.366,120.035
142013,157879,12762,0.014,-0.95,-0.165,-0.488,0.427,0.244,120.041
142012,157946,12606,0.017,-0.942,-0.158,-0.488,0.427,0.244,120.045
142012,157879,12765,0.016,-0.942,-0.161,0.244,0.671,0.244,120.051
142019,157946,12606,0.009,-0.948,-0.175,0.244,0.671,0.244,120.055
142019,157881,12760,0.009,-0.955,-0.173,0.366,1.341,0.366,120.061
141970,157946,12606,0.014,-0.951,-0.166,0.366,1.341,0.366,120.065
141970,157812,12759,0.013,-0.946,-0.155,1.402,1.098,0.366,120.071
141949,157946,12606,0.008,-0.939,-0.152,1.402,1.098,0.366,120.074
141949,157793,12748,0.011,-0.94,-0.15,1.524,0.915,0.488,120.081
141914,157946,12606,0.013,-0.943,-0.154,1.524,0.915,0.488,120.084
141914,157775,12752,0.015,-0.946,-0.162,0.732,0.915,0.366,120.091
141925,157946,12606,0.013,-0.949,-0.162,0.732,0.915,0.366,120.094
141925,157766,12751,0.012,-0.949,-0.155,0.549,0.61,0.305,120.1
141927,157946,12606,0.014,-0.943,-0.151,0.549,0.61,0.305,120.104
141927,157798,12773,0.009,-0.944,-0.152,0.305,0.366,0.488,120.11
141943,157946,12606,0.014,-0.948,-0.151,0.305,0.366,0.488,120.114
141943,157804,12746,0.017,-0.951,-0.154,-0.488,0,0.488,120.12
141967,157946,12606,0.015,-0.946,-0.159,-0.488,0,0.488,120.124
141967,157817,12756,0.013,-0.95,-0.168,-0.793,-0.061,0.366,120.13
141996,157946,12606,0.014,-0.951,-0.164,-0.793,-0.061,0.366,120.134
141996,157866,12752,0.017,-0.947,-0.158,-0.366,0,0.488,120.14
141984,157946,12606,0.013,-0.943,-0.157,-0.366,0,0.488,120.144
141984,157853,12747,0.012,-0.943,-0.164,-0.122,0.183,0.549,120.15
141971,157946,12606,0.011,-0.946,-0.167,-0.122,0.183,0.549,120.154
141971,157863,12756,0.014,-0.955,-0.159,0.061,0.305,0.183,120.16
141969,157946,12606,0.014,-0.953,-0.158,0.061,0.305,0.183,120.164
141969,157841,12757,0.016,-0.948,-0.161,0,0.244,0.244,120.17
141970,157946,12606,0.01,-0.942,-0.165,0,0.244,0.244,120.173
141970,157826,12756,0.011,-0.944,-0.16,-0.122,0.427,0.549,120.18
141970,157946,12606,0.015,-0.947,-0.156,-0.122,0.427,0.549,120.183
141970,157856,12751,0.016,-0.948,-0.155,0.366,0.183,0.549,120.19
141982,157946,12606,0.014,-0.948,-0.159,0.366,0.183,0.549,120.193
141982,157852,12757,0.013,-0.947,-0.161,0,0.305,0.488,120.199
141987,157946,12606,0.017,-0.95,-0.159,0,0.305,0.488,120.203
141987,157875,12752,0.017,-0.949,-0.161,-0.244,0.366,0.488,120.209
141979,157946,12606,0.014,-0.947,-0.157,-0.244,0.366,0.488,120.213
141979,157877,12757,0.012,-0.948,-0.155,0.061,0.305,0.549,120.219
141975,157946,12606,0.015,-0.948,-0.157,0.061,0.305,0.549,120.223
141975,157850,12763,0.012,-0.947,-0.154,0,0.244,0.427,120.229
141990,157946,12606,0.014,-0.944,-0.153,0,0.244,0.427,120.233
141990,157831,12778,0.012,-0.942,-0.154,-0.305,0.244,0.366,120.239
141956,157946,12606,0.011,-0.943,-0.154,-0.305,0.244,0.366,120.243
141956,157814,12755,0.01,-0.943,-0.159,-0.61,0.244,0.305,120.249
141907,157946,12606,0.013,-0.947,-0.165,-0.61,0.244,0.305,120.253
141907,157769,12737,0.014,-0.951,-0.164,-0.61,0.244,0.183,120.259
141860,157946,12606,0.01,-0.95,-0.159,-0.61,0.244,0.183,120.263
141860,157718,12730,0.012,-0.948,-0.161,-0.305,0.183,0.183,120.269
141802,157690,12606,0.017,-0.954,-0.165,-0.305,0.183,0.183,120.272
141802,157681,12735,0.014,-0.954,-0.165,-0.183,0.244,0.244,120.279
141768,157690,12606,0.012,-0.948,-0.165,-0.183,0.244,0.244,120.282
141768,157661,12726,0.014,-0.946,-0.162,0.122,0.488,0.366,120.289
141745,157690,12606,0.012,-0.946,-0.154,0.122,0.488,0.366,120.292
141745,157632,12715,0.01,-0.947,-0.155,0.793,0.427,0.488,120.298
141748,157690,12606,0.01,-0.947,-0.155,0.793,0.427,0.488,120.302
141748,157680,12718,0.013,-0.943,-0.154,0.366,0.427,0.427,120.308
141772,157690,12606,0.013,-0.943,-0.154,0.366,0.427,0.427,120.312
141772,157646,12715,0.017,-0.947,-0.158,-0.244,0.305,0.427,120.318
141772,157690,12606,0.017,-0.947,-0.158,-0.244,0.305,0.427,120.322
141772,157632,12719,0.014,-0.949,-0.156,0,0.305,0.305,120.328
141773,157690,12606,0.014,-0.949,-0.156,0,0.305,0.305,120.332
141773,157619,12720,0.015,-0.946,-0.156,0,0.122,0.488,120.338
141767,157690,12606,0.015,-0.946,-0.156,0,0.122,0.488,120.342
141767,157637,12719,0.016,-0.95,-0.161,-0.061,0.366,0.61,120.348
141767,157690,12606,0.016,-0.95,-0.161,-0.061,0.366,0.61,120.352
141767,157635,12727,0.016,-0.948,-0.159,0.366,0.366,0.61,120.358
141752,157690,12606,0.016,-0.948,-0.159,0.366,0.366,0.61,120.362
141752,157622,12731,0.011,-0.945,-0.163,0.305,0.488,0.61,120.368
141775,157690,12606,0.011,-0.945,-0.163,0.305,0.488,0.61,120.372
141775,157659,12725,0.014,-0.951,-0.156,0.488,0.549,0.488,120.378
141783,157690,12606,0.014,-0.951,-0.156,0.488,0.549,0.488,120.381
141783,157659,12730,0.009,-0.946,-0.158,0.549,0.61,0.427,120.388
141780,157690,12606,0.009,-0.946,-0.158,0.549,0.61,0.427,120.391
141780,157688,12730,0.013,-0.946,-0.153,0.488,0.61,0.427,120.397
141793,157690,12606,0.013,-0.946,-0.153,0.488,0.61,0.427,120.401
141793,157693,12733,0.012,-0.947,-0.156,0.061,0.244,0.427,120.407
141847,157946,12606,0.012,-0.947,-0.156,0.061,0.244,0.427,120.411
141847,157708,12745,0.014,-0.949,-0.152,-0.427,0.183,0.427,120.417
141833,157946,12606,0.014,-0.949,-0.152,-0.427,0.183,0.427,120.421
141833,157700,12723,0.011,-0.945,-0.147,-0.854,0.122,0.488,120.427
141840,157946,12606,0.011,-0.945,-0.147,-0.854,0.122,0.488,120.431
141840,157705,12745,0.008,-0.954,-0.16,-1.585,-0.061,0.366,120.437
141825,157690,12606,0.008,-0.954,-0.16,-1.585,-0.061,0.366,120.441
141825,157687,12728,0.011,-0.953,-0.158,-2.012,-0.061,-0.122,120.447
141809,157690,12606,0.011,-0.953,-0.158,-2.012,-0.061,-0.122,120.451
141809,157695,12723,0.012,-0.947,-0.157,-2.012,-0.061,-0.122,120.457
141810,157690,12606,0.009,-0.946,-0.164,-2.256,0,-0.427,120.461
141810,157694,12720,0.007,-0.94,-0.165,-2.256,0,-0.427,120.467
141815,157946,12606,0.01,-0.937,-0.155,-1.646,0.122,-0.305,120.47
141815,157703,12730,0.012,-0.94,-0.155,-1.646,0.122,-0.305,120.477
141838,157946,12606,0.011,-0.948,-0.159,-1.159,0.122,-0.366,120.48
141838,157708,12726,0.011,-0.946,-0.159,-1.159,0.122,-0.366,120.487
141847,157946,12606,0.017,-0.95,-0.16,-1.463,0.183,-0.427,120.49
141847,157723,12729,0.014,-0.948,-0.159,-1.463,0.183,-0.427,120.496
141837,157946,12606,0.017,-0.949,-0.159,-1.707,0,-0.183,120.5
141837,157699,12747,0.021,-0.95,-0.164,-1.707,0,-0.183,120.506
141814,157690,12606,0.019,-0.95,-0.162,-1.585,0.122,0.122,120.51
141814,157678,12732,0.021,-0.943,-0.156,-1.585,0.122,0.122,120.516
141793,157690,12606,0.019,-0.941,-0.162,-1.585,0.061,0.305,120.52
141793,157675,12703,0.018,-0.949,-0.163,-1.585,0.061,0.305,120.526
141789,157690,12606,0.018,-0.957,-0.166,-1.463,0.061,0.427,120.53
141789,157671,12731,0.02,-0.954,-0.172,-1.463,0.061,0.427,120.536
141797,157690,12606,0.017,-0.946,-0.169,-0.976,0.244,0.366,120.54
141797,157689,12727,0.014,-0.941,-0.165,-0.976,0.244,0.366,120.546
141782,157690,12606,0.015,-0.938,-0.166,-0.427,0.488,0.488,120.55
141782,157687,12729,0.011,-0.944,-0.169,-0.427,0.488,0.488,120.556
141834,157946,12606,0.012,-0.949,-0.169,0,0.793,0.244,120.56
141834,157716,12725,0.015,-0.948,-0.168,0,0.793,0.244,120.566
141833,157946,12606,0.014,-0.947,-0.163,0.549,1.098,0.122,120.57
141833,157770,12736,0.011,-0.948,-0.162,0.549,1.098,0.122,120.576
141885,157946,12606,0.012,-0.947,-0.166,0.61,1.28,0.305,120.579
141885,157755,12748,0.014,-0.95,-0.161,0.61,1.28,0.305,120.586
141879,157946,12606,0.015,-0.949,-0.15,0.732,1.159,0.366,120.589
141879,157767,12737,0.011,-0.941,-0.151,0.732,1.159,0.366,120.595
141871,157946,12606,0.011,-0.942,-0.152,0.122,0.854,0.488,120.599
141871,157748,12754,0.016,-0.951,-0.152,0.122,0.854,0.488,120.605
141865,157946,12606,0.017,-0.954,-0.149,-0.671,0.671,0.305,120.609
141865,157756,12720,0.017,-0.944,-0.159,-0.671,0.671,0.305,120.615
141824,157946,12606,0.016,-0.944,-0.156,-1.402,0.366,0.366,120.619
141824,157727,12737,0.014,-0.951,-0.151,-1.402,0.366,0.366,120.625
141820,157946,12606,0.017,-0.951,-0.152,-1.159,0.244,0.671,120.629
141820,157730,12745,0.016,-0.946,-0.159,-1.159,0.244,0.671,120.635
141817,157946,12606,0.013,-0.945,-0.162,-1.463,0.305,0.488,120.639
141817,157737,12722,0.013,-0.946,-0.165,-1.463,0.305,0.488,120.645
141831,157946,12606,0.015,-0.943,-0.161,-1.524,0.122,0.488,120.649
141831,157746,12743,0.013,-0.945,-0.167,-1.524,0.122,0.488,120.655
141862,157946,12606,0.014,-0.95,-0.166,-0.732,0,0.488,120.659
141862,157771,12742,0.015,-0.947,-0.157,-0.732,0,0.488,120.665
141910,157946,12606,0.009,-0.941,-0.154,-0.732,-0.122,0.427,120.669
141910,157808,12740,0.005,-0.935,-0.164,-0.732,-0.122,0.427,120.675
141925,157946,12606,0.009,-0.947,-0.166,-1.524,-0.061,0.305,120.678
141925,157800,12751,0.012,-0.955,-0.164,-1.524,-0.061,0.305,120.685
141966,157946,12606,0.012,-0.949,-0.161,-1.402,0,0.122,120.688
141966,157846,12756,0.012,-0.944,-0.158,-1.402,0,0.122,120.695
141961,157946,12606,0.01,-0.943,-0.157,-1.524,0.122,0.244,120.698
141961,157853,12747,0.007,-0.947,-0.163,-1.524,0.122,0.244,120.704
141958,157946,12606,0.015,-0.947,-0.162,-1.585,0.122,0.366,120.708
141958,157843,12748,0.016,-0.946,-0.161,-1.585,0.122,0.366,120.714
141934,157946,12606,0.015,-0.946,-0.161,-1.585,0.122,0.305,120.718
141934,157848,12748,0.014,-0.944,-0.163,-1.585,0.122,0.305,120.724
141920,157946,12606,0.015,-0.95,-0.166,-1.463,0.061,0.427,120.728
141920,157808,12759,0.016,-0.953,-0.168,-1.463,0.061,0.427,120.734
141914,157946,12606,0.016,-0.952,-0.161,-1.22,0.061,0.366,120.738
141914,157789,12739,0.015,-0.946,-0.16,-1.22,0.061,0.366,120.744
141856,157946,12606,0.016,-0.94,-0.164,-1.037,0.122,0.427,120.748
141856,157791,12727,0.014,-0.941,-0.162,-1.037,0.122,0.427,120.754
141846,157946,12606,0.014,-0.945,-0.163,-1.159,0.061,0.549,120.758
141846,157761,12722,0.014,-0.951,-0.163,-1.159,0.061,0.549,120.764
141843,157946,12606,0.015,-0.951,-0.171,-1.159,0.061,0.549,120.768
141843,157758,12748,0.014,-0.949,-0.167,-1.159,0.061,0.549,120.774
141833,157946,12606,0.013,-0.945,-0.168,-0.854,0.244,0.549,120.777
141833,157775,12715,0.013,-0.947,-0.172,-0.854,0.244,0.549,120.784
141847,157946,12606,0.014,-0.956,-0.168,-0.061,0.427,0.549,120.787
141847,157762,12731,0.015,-0.953,-0.168,-0.061,0.427,0.549,120.793
141852,157946,12606,0.013,-0.948,-0.172,0.61,0.488,0.488,120.797
141852,157774,12731,0.013,-0.947,-0.169,0.61,0.488,0.488,120.803
141892,157946,12606,0.01,-0.944,-0.164,0.976,0.549,0.549,120.807
141892,157824,12746,0.014,-0.944,-0.161,0.976,0.549,0.549,120.813
141901,157946,12606,0.014,-0.944,-0.16,1.402,0.549,0.671,120.817
141901,157814,12754,0.011,-0.945,-0.165,1.402,0.549,0.671,120.823
141897,157946,12606,0.014,-0.95,-0.165,0.793,0.488,0.61,120.827
141897,157826,12742,0.014,-0.952,-0.16,0.793,0.488,0.61,120.833
141896,157946,12606,0.015,-0.944,-0.161,0.427,0.305,0.671,120.837
141896,157824,12748,0.012,-0.938,-0.154,0.427,0.305,0.671,120.843
141886,157946,12606,0.013,-0.938,-0.155,0.122,0.488,0.732,120.847
141886,157808,12734,0.011,-0.939,-0.153,0.122,0.488,0.732,120.853
141909,157946,12606,0.013,-0.945,-0.156,-0.61,0.488,0.549,120.857
141909,157827,12743,0.014,-0.948,-0.156,-0.61,0.488,0.549,120.863
141938,157946,12606,0.014,-0.946,-0.161,-1.341,0.244,0.366,120.867
141938,157837,12740,0.012,-0.95,-0.159,-1.341,0.244,0.366,120.873
141943,157946,12606,0.014,-0.953,-0.166,-1.28,0.183,0.244,120.876
141943,157857,12748,0.011,-0.954,-0.175,-1.28,0.183,0.244,120.883
141968,157946,12606,0.013,-0.953,-0.171,-0.61,0.244,0.305,120.886
141968,157893,12753,0.016,-0.952,-0.167,-0.61,0.244,0.305,120.893
141978,157946,12606,0.012,-0.947,-0.167,0.244,0.183,0.488,120.896
141978,157896,12751,0.009,-0.948,-0.164,0.244,0.183,0.488,120.902
142002,157946,12606,0.009,-0.948,-0.164,0.244,0.183,0.488,120.906
142002,157884,12751,0.014,-0.948,-0.168,0.854,0.305,0.549,120.912
141994,157946,12606,0.014,-0.948,-0.168,0.854,0.305,0.549,120.916
141994,157900,12770,0.014,-0.943,-0.156,1.159,0.427,0.671,120.922
142022,157946,12606,0.014,-0.943,-0.156,1.159,0.427,0.671,120.926
142022,157894,12745,0.008,-0.942,-0.162,0.793,0.427,0.549,120.932
141978,157946,12606,0.008,-0.942,-0.162,0.793,0.427,0.549,120.936
141978,157912,12756,0.014,-0.944,-0.158,-0.061,0.671,0.183,120.942
141952,157946,12606,0.014,-0.944,-0.158,-0.061,0.671,0.183,120.946
141952,157897,12749,0.015,-0.953,-0.178,-0.854,0.61,0,120.952
141970,157946,12606,0.015,-0.953,-0.178,-0.854,0.61,0,120.956
141970,157871,12759,0.016,-0.954,-0.166,-0.488,0.427,0.061,120.962
141972,157946,12606,0.016,-0.954,-0.166,-0.488,0.427,0.061,120.966
141972,157871,12742,0.015,-0.946,-0.166,0.793,0.549,0.366,120.972
141954,157946,12606,0.015,-0.946,-0.166,0.793,0.549,0.366,120.975
141954,157888,12755,0.016,-0.948,-0.165,1.28,0.549,0.488,120.982
141937,157946,12606,0.016,-0.948,-0.165,1.28,0.549,0.488,120.985
141937,157893,12767,0.011,-0.954,-0.163,1.829,0.549,0.549,120.992
141952,157946,12606,0.011,-0.954,-0.163,1.829,0.549,0.549,120.995
141952,157862,12747,0.013,-0.944,-0.158,2.5,0.427,0.549,121.001
141949,157946,12606,0.013,-0.944,-0.158,2.5,0.427,0.549,121.005
141949,157878,12752,0.012,-0.941,-0.151,2.195,0.427,0.549,121.011
141967,157946,12606,0.012,-0.941,-0.151,2.195,0.427,0.549,121.015
141967,157901,12757,0.012,-0.943,-0.152,1.341,0.488,0.427,121.021
141957,157946,12606,0.012,-0.943,-0.152,1.341,0.488,0.427,121.025
141957,157888,12743,0.012,-0.943,-0.154,0.244,0.488,0.122,121.031
141984,157946,12606,0.012,-0.943,-0.154,0.244,0.488,0.122,121.035
141984,157873,12754,0.012,-0.952,-0.161,-0.61,0.366,0.061,121.041
141960,157946,12606,0.012,-0.952,-0.161,-0.61,0.366,0.061,121.045
141960,157879,12754,0.015,-0.952,-0.161,-0.915,0.366,-0.061,121.051
141942,157946,12606,0.015,-0.948,-0.152,-0.915,0.366,-0.061,121.055
141942,157879,12741,0.015,-0.941,-0.155,-1.28,0.244,0,121.061
141960,157946,12606,0.015,-0.945,-0.173,-1.28,0.244,0,121.065
141960,157880,12774,0.017,-0.959,-0.168,-1.22,0.427,0.061,121.071
141963,157946,12606,0.019,-0.957,-0.169,-1.22,0.427,0.061,121.074
141963,157859,12748,0.018,-0.952,-0.165,0.183,0.549,0.244,121.081
141978,157946,12606,0.016,-0.944,-0.157,0.183,0.549,0.244,121.084
141978,157872,12760,0.008,-0.942,-0.156,0.793,0.671,0.61,121.091
142019,158202,12606,0.011,-0.946,-0.155,0.793,0.671,0.61,121.094
142019,157955,12766,0.016,-0.947,-0.164,0.549,0.488,0.488,121.1
142100,158202,12606,0.016,-0.947,-0.166,0.549,0.488,0.488,121.104
142100,157975,12772,0.017,-0.947,-0.161,0.061,0.427,0.427,121.11
142138,158202,12606,0.014,-0.945,-0.162,0.061,0.427,0.427,121.114
142138,158036,12780,0.012,-0.947,-0.16,0.183,0.305,0.427,121.12
142155,158202,12606,0.011,-0.943,-0.158,0.183,0.305,0.427,121.124
142155,158083,12780,0.012,-0.94,-0.159,0.183,0.122,0.427,121.13
142184,158202,12606,0.013,-0.946,-0.159,0.183,0.122,0.427,121.134
142184,158087,12774,0.014,-0.95,-0.16,-0.244,0.183,0.244,121.14
142196,158202,12606,0.015,-0.954,-0.16,-0.244,0.183,0.244,121.144
142196,158082,12782,0.017,-0.952,-0.166,-0.366,0.122,0.244,121.15
142167,158202,12606,0.017,-0.949,-0.163,-0.366,0.122,0.244,121.154
142167,158045,12783,0.012,-0.942,-0.161,-0.366,0.122,0.488,121.16
142142,158202,12606,0.015,-0.94,-0.162,-0.366,0.122,0.488,121.164
142142,158049,12766,0.011,-0.946,-0.165,-0.061,0.122,0.427,121.17
142103,158202,12606,0.013,-0.953,-0.163,-0.061,0.122,0.427,121.173
142103,158001,12771,0.016,-0.957,-0.165,0.244,0.183,0.244,121.18
142099,158202,12606,0.015,-0.953,-0.167,0.244,0.183,0.244,121.183
142099,158000,12777,0.012,-0.946,-0.162,0.549,0.427,0.366,121.19
142104,158202,12606,0.011,-0.942,-0.161,0.549,0.427,0.366,121.193
142104,158001,12782,0.013,-0.941,-0.159,0.488,0.61,0.549,121.199
142110,158202,12606,0.016,-0.948,-0.162,0.488,0.61,0.549,121.203
142110,157996,12774,0.014,-0.949,-0.162,0.305,0.671,0.427,121.209
142113,158202,12606,0.015,-0.953,-0.156,0.305,0.671,0.427,121.213
142113,158048,12766,0.013,-0.937,-0.158,0.366,0.61,0.61,121.219
142144,158202,12606,0.012,-0.936,-0.161,0.366,0.61,0.61,121.223
142144,158054,12782,0.011,-0.95,-0.155,-0.122,0.366,0.854,121.229
142182,158202,12606,0.012,-0.954,-0.153,-0.122,0.366,0.854,121.233
142182,158138,12779,0.012,-0.954,-0.158,-0.061,0.366,0.488,121.239
142203,158202,12606,0.014,-0.946,-0.161,-0.061,0.366,0.488,121.243
142203,158127,12788,0.013,-0.945,-0.159,-0.61,0.244,0.488,121.249
142277,158202,12606,0.01,-0.946,-0.16,-0.61,0.244,0.488,121.253
142277,158187,12788,0.013,-0.946,-0.163,-0.427,0.183,0.366,121.259
142275,158202,12606,0.013,-0.945,-0.159,-0.427,0.183,0.366,121.263
142275,158177,12802,0.01,-0.947,-0.154,-0.122,0.061,0.244,121.269
142287,158202,12606,0.012,-0.948,-0.156,-0.122,0.061,0.244,121.272
142287,158200,12798,0.012,-0.946,-0.159,-0.122,0.122,0.366,121.279
142293,158202,12606,0.015,-0.945,-0.16,-0.122,0.122,0.366,121.282
142293,158196,12797,0.011,-0.948,-0.158,-0.244,0.427,0.366,121.289
142313,158458,12606,0.01,-0.948,-0.158,-0.244,0.427,0.366,121.292
142313,158214,12809,0.014,-0.946,-0.159,-0.488,0.488,0.427,121.298
142313,158202,12606,0.014,-0.945,-0.16,-0.488,0.488,0.427,121.302
142313,158182,12814,0.015,-0.95,-0.161,-0.671,0.549,0.366,121.308
142317,158202,12606,0.016,-0.95,-0.159,-0.671,0.549,0.366,121.312
142317,158205,12786,0.016,-0.949,-0.157,-0.671,0.488,0.366,121.318
142323,158458,12606,0.013,-0.947,-0.158,-0.671,0.488,0.366,121.322
142323,158215,12795,0.012,-0.947,-0.166,-0.915,0.305,0.305,121.328
142297,158202,12606,0.014,-0.949,-0.168,-0.915,0.305,0.305,121.332
142297,158193,12799,0.016,-0.95,-0.165,-0.976,0,0.244,121.338
142300,158202,12606,0.012,-0.948,-0.165,-0.976,0,0.244,121.342
142300,158186,12809,0.014,-0.951,-0.171,-0.488,0,0.366,121.348
142272,158202,12606,0.014,-0.953,-0.168,-0.488,0,0.366,121.352
142272,158161,12810,0.014,-0.948,-0.159,0.122,0,0.427,121.358
142253,158202,12606,0.011,-0.942,-0.161,0.122,0,0.427,121.362
142253,158176,12799,0.009,-0.944,-0.163,0.671,0.366,0.488,121.368
142248,158202,12606,0.01,-0.951,-0.167,0.671,0.366,0.488,121.372
142248,158156,12801,0.012,-0.956,-0.17,0.854,0.854,0.244,121.378
142227,158202,12606,0.015,-0.956,-0.167,0.854,0.854,0.244,121.381
142227,158146,12793,0.013,-0.947,-0.162,1.402,0.915,0.244,121.388
142212,158202,12606,0.01,-0.944,-0.158,1.402,0.915,0.244,121.391
142212,158130,12787,0.01,-0.942,-0.156,1.768,0.854,0.488,121.397
142235,158202,12606,0.011,-0.943,-0.159,1.768,0.854,0.488,121.401
142235,158109,12785,0.016,-0.946,-0.156,1.402,0.793,0.366,121.407
142193,158202,12606,0.015,-0.946,-0.157,1.402,0.793,0.366,121.411
142193,158100,12793,0.016,-0.949,-0.157,1.159,0.549,0.366,121.417
142155,158202,12606,0.017,-0.949,-0.158,1.159,0.549,0.366,121.421
142155,158095,12790,0.017,-0.94,-0.154,0.671,0.549,0.488,121.427
142151,158202,12606,0.014,-0.93,-0.151,0.671,0.549,0.488,121.431
142151,158076,12786,0.013,-0.934,-0.149,0.061,0.427,0.671,121.437
142150,158202,12606,0.015,-0.95,-0.149,0.061,0.427,0.671,121.441
142150,158077,12778,0.016,-0.955,-0.158,-0.366,0.183,0.488,121.447
142177,158202,12606,0.018,-0.954,-0.157,-0.366,0.183,0.488,121.451
142177,158080,12783,0.016,-0.95,-0.154,-1.098,0.183,0.488,121.457
142198,158202,12606,0.015,-0.941,-0.161,-1.098,0.183,0.488,121.461
142198,158113,12780,0.015,-0.943,-0.166,-1.463,0.122,0.732,121.467
142206,158202,12606,0.016,-0.951,-0.163,-1.463,0.122,0.732,121.471
142206,158149,12782,0.012,-0.955,-0.166,-0.793,0.244,0.549,121.477
142256,158202,12606,0.014,-0.953,-0.167,-0.793,0.244,0.549,121.48
142256,158159,12786,0.011,-0.948,-0.161,-0.244,0.244,0.549,121.487
142282,158202,12606,0.007,-0.947,-0.163,-0.244,0.244,0.549,121.49
142282,158184,12783,0.008,-0.952,-0.164,0.122,0.488,0.549,121.496
142305,158202,12606,0.008,-0.952,-0.164,0.122,0.488,0.549,121.5
142305,158190,12806,0.01,-0.946,-0.162,0.366,0.549,0.305,121.506
142302,158458,12606,0.01,-0.946,-0.162,0.366,0.549,0.305,121.51
142302,158237,12798,0.009,-0.943,-0.155,0.427,0.549,0.305,121.516
142281,158458,12606,0.009,-0.943,-0.155,0.427,0.549,0.305,121.52
142281,158208,12794,0.015,-0.945,-0.157,0.122,0.488,0.305,121.526
142266,158202,12606,0.015,-0.945,-0.157,0.122,0.488,0.305,121.53
142266,158198,12785,0.012,-0.951,-0.16,0,0.488,0.305,121.536
142252,158202,12606,0.012,-0.951,-0.16,0,0.488,0.305,121.54
142252,158142,12788,0.016,-0.947,-0.156,0,0.366,0.488,121.546
142237,158202,12606,0.016,-0.947,-0.156,0,0.366,0.488,121.55
142237,158140,12773,0.014,-0.948,-0.159,0,0.366,0.366,121.556
142231,158202,12606,0.014,-0.948,-0.159,0,0.366,0.366,121.56
142231,158144,12783,0.016,-0.948,-0.163,-0.122,0.427,0.305,121.566
142232,158202,12606,0.016,-0.948,-0.163,-0.122,0.427,0.305,121.57
142232,158173,12785,0.014,-0.947,-0.163,0.183,0.427,0.305,121.576
142227,158202,12606,0.014,-0.947,-0.163,0.183,0.427,0.305,121.579
142227,158158,12790,0.012,-0.946,-0.156,0.671,0.488,0.366,121.586
142258,158202,12606,0.012,-0.946,-0.156,0.671,0.488,0.366,121.589
142258,158169,12788,0.011,-0.941,-0.156,0.366,0.488,0.366,121.595
142262,158202,12606,0.011,-0.941,-0.156,0.366,0.488,0.366,121.599
142262,158161,12778,0.016,-0.95,-0.163,0,0.366,0.305,121.605
142243,158202,12606,0.016,-0.95,-0.163,0,0.366,0.305,121.609
142243,158136,12803,0.014,-0.948,-0.164,0.244,0.366,0.488,121.615
142247,158202,12606,0.014,-0.948,-0.164,0.244,0.366,0.488,121.619
142247,158165,12794,0.017,-0.951,-0.158,0.366,0.427,0.549,121.625
142244,158202,12606,0.017,-0.951,-0.158,0.366,0.427,0.549,121.629
142244,158129,12791,0.013,-0.944,-0.156,0.244,0.427,0.671,121.635
142248,158202,12606,0.013,-0.944,-0.156,0.244,0.427,0.671,121.639
142248,158137,12793,0.012,-0.946,-0.159,0.244,0.427,0.671,121.645
142199,158202,12606,0.012,-0.952,-0.16,0.305,0.366,0.671,121.649
142199,158124,12777,0.017,-0.954,-0.157,0.305,0.366,0.671,121.655
142172,158202,12606,0.012,-0.945,-0.16,0.488,0.366,0.427,121.659
142172,158073,12786,0.009,-0.941,-0.159,0.488,0.366,0.427,121.665
142169,158202,12606,0.011,-0.947,-0.152,0.549,0.488,0.488,121.669
142169,158061,12790,0.012,-0.95,-0.154,0.549,0.488,0.488,121.675
142139,158202,12606,0.011,-0.949,-0.163,0.671,0.488,0.244,121.678
142139,158060,12772,0.011,-0.95,-0.162,0.671,0.488,0.244,121.685
142151,158202,12606,0.011,-0.95,-0.158,0.61,0.488,0.244,121.688
142151,158057,12777,0.01,-0.95,-0.156,0.61,0.488,0.244,121.695
142120,158202,12606,0.008,-0.951,-0.159,0.61,0.671,0.366,121.698
142120,158042,12773,0.013,-0.948,-0.159,0.61,0.671,0.366,121.704
142112,158202,12606,0.01,-0.947,-0.157,0.305,0.549,0.427,121.708
142112,158020,12763,0.013,-0.944,-0.157,0.305,0.549,0.427,121.714
142133,158202,12606,0.015,-0.947,-0.15,0.305,0.366,0.427,121.718
142133,158040,12784,0.015,-0.949,-0.151,0.305,0.366,0.427,121.724
142147,158202,12606,0.019,-0.941,-0.154,-0.183,0.366,0.488,121.728
142147,158055,12772,0.017,-0.942,-0.156,-0.183,0.366,0.488,121.734
142157,158202,12606,0.016,-0.946,-0.162,-1.159,0.183,0.61,121.738
142157,158089,12770,0.019,-0.95,-0.159,-1.159,0.183,0.61,121.744
142179,158202,12606,0.018,-0.953,-0.157,-1.159,-0.122,0.549,121.748
142179,158081,12782,0.016,-0.95,-0.161,-1.159,-0.122,0.549,121.754
142176,158202,12606,0.014,-0.946,-0.164,-1.341,0.061,0.549,121.758
142176,158086,12792,0.013,-0.949,-0.163,-1.341,0.061,0.549,121.764
142161,158202,12606,0.014,-0.948,-0.164,-0.915,0.061,0.61,121.768
142161,158060,12773,0.012,-0.951,-0.169,-0.915,0.061,0.61,121.774
142143,158202,12606,0.012,-0.954,-0.165,-0.305,0.122,0.61,121.777
142143,158057,12767,0.011,-0.954,-0.158,-0.305,0.122,0.61,121.784
142121,158202,12606,0.007,-0.948,-0.161,0.183,0.488,0.488,121.787
142121,158024,12767,0.005,-0.947,-0.164,0.183,0.488,0.488,121.794
142125,158202,12606,0.01,-0.949,-0.163,0.061,0.488,0.244,121.797
142125,158015,12769,0.007,-0.948,-0.157,0.061,0.488,0.244,121.803
142101,158202,12606,0.01,-0.947,-0.158,0.305,0.549,0.061,121.807
142101,158042,12773,0.008,-0.944,-0.158,0.305,0.549,0.061,121.813
142126,158202,12606,0.01,-0.945,-0.151,0.61,0.671,0.122,121.817
142126,158077,12784,0.01,-0.94,-0.151,0.61,0.671,0.122,121.823
142152,158202,12606,0.012,-0.944,-0.151,0.183,0.427,0.244,121.827
142152,158077,12785,0.014,-0.949,-0.15,0.183,0.427,0.244,121.833
142174,158202,12606,0.018,-0.954,-0.156,-0.488,0.244,0.183,121.837
142174,158113,12792,0.019,-0.952,-0.162,-0.488,0.244,0.183,121.843
142189,158202,12606,0.015,-0.948,-0.159,-0.915,0.427,0.183,121.847
142189,158106,12781,0.017,-0.948,-0.159,-0.915,0.427,0.183,121.853
142215,158202,12606,0.02,-0.953,-0.159,-0.732,0.427,0.488,121.857
142215,158114,12769,0.018,-0.952,-0.161,-0.732,0.427,0.488,121.863
142202,158202,12606,0.016,-0.946,-0.158,-0.305,0.549,0.549,121.867
142202,158096,12786,0.015,-0.941,-0.157,-0.305,0.549,0.549,121.873
142215,158202,12606,0.015,-0.943,-0.157,-0.366,0.549,0.549,121.876
142215,158108,12780,0.01,-0.948,-0.153,-0.366,0.549,0.549,121.883
142215,158202,12606,0.013,-0.949,-0.161,-0.732,0.549,0.244,121.886
142215,158118,12778,0.008,-0.948,-0.162,-0.732,0.549,0.244,121.893
142248,158202,12606,0.006,-0.944,-0.161,-1.28,0.488,0.183,121.896
142248,158155,12792,0.01,-0.944,-0.161,-1.28,0.488,0.183,121.902
142266,158202,12606,0.01,-0.948,-0.16,-1.098,0.427,0.122,121.906
142266,158180,12794,0.01,-0.951,-0.164,-1.098,0.427,0.122,121.912
142244,158202,12606,0.01,-0.949,-0.164,-0.61,0.244,-0.061,121.916
142244,158167,12790,0.009,-0.95,-0.162,-0.61,0.244,-0.061,121.922
142225,158202,12606,0.009,-0.949,-0.163,-0.366,0.366,0.183,121.926
142225,158126,12805,0.014,-0.95,-0.16,-0.366,0.366,0.183,121.932
142201,158202,12606,0.016,-0.945,-0.158,0,0.244,0.427,121.936
142201,158104,12785,0.011,-0.942,-0.153,0,0.244,0.427,121.942
142174,158202,12606,0.012,-0.944,-0.155,0,0.244,0.427,121.946
142174,158087,12780,0.015,-0.949,-0.161,0,0.244,0.427,121.952
142142,158202,12606,0.018,-0.951,-0.165,-0.122,0.183,0.366,121.956
142142,158074,12778,0.019,-0.949,-0.162,-0.122,0.183,0.366,121.962
142140,158202,12606,0.013,-0.951,-0.159,0.244,0.244,0.488,121.966
142140,158053,12769,0.013,-0.948,-0.158,0.244,0.244,0.488,121.972
142167,158202,12606,0.016,-0.951,-0.157,0.366,0.427,0.671,121.975
142167,158072,12776,0.015,-0.95,-0.149,0.366,0.427,0.671,121.982
142179,158202,12606,0.014,-0.943,-0.156,0.244,0.549,0.61,121.985
142179,158091,12782,0.011,-0.94,-0.166,0.244,0.549,0.61,121.992
142195,158202,12606,0.01,-0.952,-0.162,0,0.488,0.61,121.995
142195,158117,12791,0.011,-0.957,-0.149,0,0.488,0.61,122.001
142208,158202,12606,0.012,-0.949,-0.143,0.427,0.061,0.366,122.005
142208,158132,12789,0.005,-0.943,-0.152,0.427,0.061,0.366,122.011
142196,158202,12606,0.005,-0.943,-0.158,-0.427,0.366,0.305,122.015
142196,158115,12780,0.011,-0.945,-0.155,-0.427,0.366,0.305,122.021
142159,158202,12606,0.01,-0.946,-0.159,-0.671,0.305,0.061,122.025
142159,158068,12793,0.009,-0.946,-0.161,-0.671,0.305,0.061,122.031
142124,158202,12606,0.009,-0.946,-0.157,-0.244,0.122,-0.122,122.035
142124,158059,12768,0.013,-0.948,-0.155,-0.244,0.122,-0.122,122.041
142127,158202,12606,0.014,-0.945,-0.157,-0.427,0,-0.183,122.045
142127,158064,12777,0.011,-0.95,-0.162,-0.427,0,-0.183,122.051
142107,158202,12606,0.011,-0.958,-0.165,-0.183,0.366,-0.183,122.055
142107,158024,12786,0.016,-0.959,-0.164,-0.183,0.366,-0.183,122.061
142119,158202,12606,0.021,-0.95,-0.163,0.183,0.793,-0.122,122.065
142119,158032,12785,0.016,-0.937,-0.165,0.183,0.793,-0.122,122.071
142144,158202,12606,0.014,-0.935,-0.157,0.671,1.037,0.366,122.074
142144,158053,12783,0.016,-0.943,-0.152,0.671,1.037,0.366,122.081
142141,158202,12606,0.02,-0.952,-0.164,1.159,0.793,0.549,122.084
142141,158087,12776,0.019,-0.958,-0.168,1.159,0.793,0.549,122.091
142152,158202,12606,0.019,-0.958,-0.168,1.159,0.793,0.549,122.094
142152,158074,12786,0.017,-0.95,-0.163,0.976,0.793,0.671,122.1
142174,158202,12606,0.017,-0.95,-0.163,0.976,0.793,0.671,122.104
142174,158074,12765,0.015,-0.949,-0.163,0.793,0.915,0.976,122.11
142179,158202,12606,0.015,-0.949,-0.163,0.793,0.915,0.976,122.114
142179,158105,12767,0.016,-0.942,-0.156,0.976,0.915,0.793,122.12
142147,158202,12606,0.016,-0.942,-0.156,0.976,0.915,0.793,122.124
142147,158065,12773,0.011,-0.948,-0.158,0.915,0.854,0.793,122.13
142140,158202,12606,0.011,-0.948,-0.158,0.915,0.854,0.793,122.134
142140,158033,12777,0.008,-0.944,-0.15,0.61,0.488,0.915,122.14
142137,158202,12606,0.008,-0.944,-0.15,0.61,0.488,0.915,122.144
142137,158049,12790,0.007,-0.942,-0.145,-0.244,0.366,0.732,122.15
142129,158202,12606,0.007,-0.942,-0.145,-0.244,0.366,0.732,122.154
142129,158051,12785,0.01,-0.948,-0.15,-1.159,0.183,0.488,122.16
142147,158202,12606,0.01,-0.948,-0.15,-1.159,0.183,0.488,122.164
142147,158078,12765,0.012,-0.956,-0.162,-1.585,0.183,0.183,122.17
142151,158202,12606,0.012,-0.956,-0.162,-1.585,0.183,0.183,122.174
142151,158087,12772,0.01,-0.949,-0.162,-1.159,0.183,0.061,122.18
142151,158202,12606,0.01,-0.949,-0.162,-1.159,0.183,0.061,122.183
142151,158073,12773,0.013,-0.944,-0.166,-0.488,0.427,0.244,122.19
142128,158202,12606,0.013,-0.944,-0.166,-0.488,0.427,0.244,122.193
142128,158055,12783,0.013,-0.951,-0.165,0.061,0.732,0.061,122.199
142110,158202,12606,0.013,-0.951,-0.165,0.061,0.732,0.061,122.203
142110,158047,12772,0.015,-0.954,-0.162,1.28,0.732,0.183,122.209
142070,158202,12606,0.015,-0.954,-0.162,1.28,0.732,0.183,122.213
142070,158022,12761,0.015,-0.95,-0.157,1.524,0.671,0.305,122.219
142040,158202,12606,0.015,-0.95,-0.157,1.524,0.671,0.305,122.223
142040,157986,12762,0.013,-0.942,-0.154,0.793,0.549,0.61,122.229
142035,158202,12606,0.013,-0.942,-0.154,0.793,0.549,0.61,122.233
142035,157968,12772,0.014,-0.948,-0.156,0.366,0.366,0.671,122.239
142050,158202,12606,0.015,-0.948,-0.157,0.366,0.366,0.671,122.243
142050,157971,12759,0.011,-0.948,-0.155,0.122,0.305,0.549,122.249
142042,158202,12606,0.013,-0.951,-0.153,0.122,0.305,0.549,122.253
142042,157991,12759,0.013,-0.947,-0.15,-0.305,0.244,0.488,122.259
142057,158202,12606,0.013,-0.941,-0.154,-0.305,0.244,0.488,122.263
142057,157968,12752,0.009,-0.938,-0.156,-0.732,0.183,0.488,122.269
142048,158202,12606,0.008,-0.947,-0.157,-0.732,0.183,0.488,122.273
142048,157973,12762,0.011,-0.951,-0.164,-0.793,0.061,0.244,122.279
142031,157946,12606,0.013,-0.958,-0.168,-0.793,0.061,0.244,122.282
142031,157920,12749,0.01,-0.955,-0.165,-0.244,0.366,0.122,122.289
141974,157946,12606,0.008,-0.95,-0.16,-0.244,0.366,0.122,122.292
141974,157875,12746,0.011,-0.944,-0.163,0.183,0.671,0.305,122.299
141864,157946,12606,0.015,-0.945,-0.162,0.183,0.671,0.305,122.302
141864,157795,12742,0.015,-0.953,-0.156,0.793,0.732,0.305,122.308
141800,157946,12606,0.012,-0.947,-0.149,0.793,0.732,0.305,122.312
141800,157719,12714,0.012,-0.945,-0.153,0.671,0.732,0.427,122.318
141745,157690,12606,0.014,-0.95,-0.155,0.671,0.732,0.427,122.322
141745,157694,12722,0.017,-0.952,-0.153,0.061,0.488,0.488,122.328
141718,157690,12606,0.021,-0.946,-0.157,0.061,0.488,0.488,122.332
141718,157670,12717,0.017,-0.945,-0.159,-0.305,0.305,0.488,122.338
141677,157690,12606,0.013,-0.95,-0.157,-0.305,0.305,0.488,122.342
141677,157683,12718,0.016,-0.949,-0.154,0.122,0.183,0.549,122.348
141670,157690,12606,0.016,-0.946,-0.154,0.122,0.183,0.549,122.352
141670,157637,12722,0.013,-0.945,-0.157,-0.122,0.122,0.488,122.358
141622,157690,12606,0.011,-0.94,-0.157,-0.122,0.122,0.488,122.362
141622,157580,12716,0.008,-0.945,-0.158,-0.61,0.183,0.549,122.368
141624,157690,12606,0.01,-0.947,-0.155,-0.61,0.183,0.549,122.372
141624,157560,12698,0.011,-0.947,-0.155,-0.488,0.305,0.244,122.378
141638,157690,12606,0.011,-0.949,-0.158,-0.488,0.305,0.244,122.381
141638,157550,12696,0.01,-0.947,-0.161,-0.732,0.366,0.061,122.388
141606,157690,12606,0.008,-0.948,-0.158,-0.732,0.366,0.061,122.391
141606,157571,12705,0.008,-0.949,-0.158,-0.427,0.366,0.122,122.397
141633,157690,12606,0.01,-0.951,-0.161,-0.427,0.366,0.122,122.401
141633,157578,12706,0.011,-0.956,-0.158,0.122,0.305,0.061,122.407
141680,157690,12606,0.013,-0.954,-0.156,0.122,0.305,0.061,122.411
141680,157628,12698,0.014,-0.952,-0.158,0.122,0.549,0.122,122.417
141694,157690,12606,0.016,-0.953,-0.159,0.122,0.549,0.122,122.421
141694,157626,12716,0.013,-0.95,-0.16,0.122,0.732,0.244,122.427
141698,157690,12606,0.015,-0.946,-0.156,0.122,0.732,0.244,122.431
141698,157646,12713,0.018,-0.945,-0.153,0.488,0.854,0.305,122.437
141674,157690,12606,0.014,-0.951,-0.164,0.488,0.854,0.305,122.441
141674,157633,12711,0.017,-0.956,-0.164,0.732,0.854,0.366,122.447
141676,157690,12606,0.016,-0.955,-0.158,0.732,0.854,0.366,122.451
141676,157619,12728,0.014,-0.947,-0.15,0.793,0.732,0.549,122.457
141631,157690,12606,0.014,-0.943,-0.153,0.793,0.732,0.549,122.461
141631,157572,12694,0.013,-0.948,-0.162,0.244,0.671,0.732,122.467
141602,157690,12606,0.014,-0.954,-0.161,0.244,0.671,0.732,122.471
141602,157544,12698,0.014,-0.952,-0.156,0,0.488,0.61,122.477
141598,157690,12606,0.012,-0.945,-0.157,0,0.488,0.61,122.48
141598,157520,12694,0.01,-0.94,-0.149,0.366,0.427,0.671,122.487
141576,157690,12606,0.013,-0.938,-0.15,0.366,0.427,0.671,122.49
141576,157528,12682,0.009,-0.943,-0.154,0,0.427,0.549,122.496
141612,157690,12606,0.009,-0.949,-0.157,0,0.427,0.549,122.5
141612,157559,12708,0.011,-0.949,-0.16,-0.183,0.549,0.244,122.506
141650,157690,12606,0.015,-0.947,-0.158,-0.183,0.549,0.244,122.51
141650,157612,12706,0.011,-0.944,-0.153,-0.183,0.305,0.183,122.516
141695,157690,12606,0.009,-0.95,-0.152,-0.183,0.305,0.183,122.52
141695,157611,12708,0.013,-0.945,-0.148,-0.061,0.244,0.305,122.526
141689,157690,12606,0.014,-0.945,-0.146,-0.061,0.244,0.305,122.53
141689,157630,12733,0.013,-0.948,-0.161,-0.671,0.549,0.183,122.536
141711,157690,12606,0.013,-0.952,-0.168,-0.671,0.549,0.183,122.54
141711,157670,12712,0.017,-0.956,-0.163,-0.793,0.549,0.183,122.546
141722,157690,12606,0.019,-0.952,-0.157,-0.793,0.549,0.183,122.55
141722,157660,12698,0.017,-0.944,-0.155,-0.122,0.305,0.427,122.556
141699,157690,12606,0.013,-0.942,-0.157,-0.122,0.305,0.427,122.56
141699,157666,12708,0.014,-0.944,-0.159,-0.183,0.549,0.488,122.566
141726,157690,12606,0.017,-0.951,-0.151,-0.183,0.549,0.488,122.57
141726,157653,12713,0.018,-0.947,-0.146,-0.061,0.366,0.366,122.576
141745,157946,12606,0.01,-0.939,-0.151,-0.061,0.366,0.366,122.579
141745,157715,12706,0.011,-0.938,-0.154,-0.915,0.244,0.61,122.586
141799,157946,12606,0.013,-0.95,-0.161,-0.915,0.244,0.61,122.589
141799,157722,12727,0.015,-0.958,-0.156,-1.341,0.183,0.427,122.596
141830,157946,12606,0.013,-0.955,-0.157,-1.341,0.183,0.427,122.599
141830,157765,12719,0.01,-0.951,-0.164,-1.22,0,0.305,122.605
141841,157946,12606,0.011,-0.95,-0.171,-1.22,0,0.305,122.609
141841,157807,12738,0.008,-0.949,-0.166,-1.037,0.305,0.183,122.615
141858,157946,12606,0.01,-0.947,-0.155,-1.037,0.305,0.183,122.619
141858,157819,12739,0.01,-0.948,-0.156,0,0.427,0.244,122.625
141860,157946,12606,0.008,-0.949,-0.161,0,0.427,0.244,122.629
141860,157830,12724,0.01,-0.947,-0.158,0.305,0.793,0.244,122.635
141841,157946,12606,0.014,-0.95,-0.16,0.305,0.793,0.244,122.639
141841,157818,12725,0.014,-0.95,-0.162,0.427,0.976,0.183,122.645
141819,157946,12606,0.014,-0.947,-0.154,0.427,0.976,0.183,122.649
141819,157751,12738,0.016,-0.945,-0.147,0.915,0.793,0.549,122.655
141766,157946,12606,0.019,-0.944,-0.156,0.915,0.793,0.549,122.659
141766,157720,12712,0.017,-0.952,-0.163,0.793,0.61,0.671,122.665
141712,157690,12606,0.018,-0.957,-0.164,0.793,0.61,0.671,122.669
141712,157648,12718,0.021,-0.957,-0.166,1.22,0.732,0.671,122.675
141677,157690,12606,0.021,-0.956,-0.162,1.22,0.732,0.671,122.678
141677,157600,12709,0.016,-0.95,-0.153,1.89,0.671,0.976,122.685
141602,157690,12606,0.016,-0.95,-0.153,1.89,0.671,0.976,122.688
141602,157564,12694,0.015,-0.949,-0.163,1.951,0.793,1.098,122.695
141577,157690,12606,0.015,-0.949,-0.163,1.951,0.793,1.098,122.698
141577,157554,12687,0.009,-0.948,-0.164,2.134,0.854,0.854,122.704
141547,157690,12606,0.009,-0.948,-0.164,2.134,0.854,0.854,122.708
141547,157495,12690,0.007,-0.947,-0.157,2.988,0.793,0.732,122.714
141525,157690,12606,0.007,-0.947,-0.157,2.988,0.793,0.732,122.718
141525,157506,12684,0.004,-0.941,-0.155,2.866,0.793,0.549,122.724
141512,157690,12606,0.004,-0.941,-0.155,2.866,0.793,0.549,122.728
141512,157512,12688,0.007,-0.941,-0.15,2.683,0.732,0.427,122.734
141484,157690,12606,0.007,-0.941,-0.15,2.683,0.732,0.427,122.738
141484,157484,12676,0.009,-0.954,-0.15,2.622,0.671,0.305,122.744
141496,157690,12606,0.009,-0.954,-0.15,2.622,0.671,0.305,122.748
141496,157505,12683,0.013,-0.952,-0.144,2.256,0.732,0.244,122.754
141490,157690,12606,0.013,-0.952,-0.144,2.256,0.732,0.244,122.758
141490,157478,12672,0.015,-0.945,-0.141,1.341,0.732,0.366,122.764
141510,157690,12606,0.015,-0.945,-0.141,1.341,0.732,0.366,122.768
141510,157459,12692,0.017,-0.948,-0.151,0.61,0.671,0.427,122.774
141513,157690,12606,0.017,-0.948,-0.151,0.61,0.671,0.427,122.777
141513,157458,12688,0.02,-0.948,-0.151,0.61,0.671,0.366,122.784
141519,157690,12606,0.02,-0.948,-0.151,0.61,0.671,0.366,122.787
141519,157467,12682,0.014,-0.946,-0.15,0.671,0.427,0.671,122.794
141488,157690,12606,0.014,-0.946,-0.15,0.671,0.427,0.671,122.797
141488,157453,12680,0.013,-0.943,-0.15,0.366,0.183,0.671,122.803
141474,157434,12606,0.013,-0.943,-0.15,0.366,0.183,0.671,122.807
141474,157435,12682,0.013,-0.954,-0.15,0,0.061,0.488,122.813
141485,157434,12606,0.013,-0.954,-0.15,0,0.061,0.488,122.817
141485,157422,12670,0.01,-0.943,-0.151,-0.305,0.061,0.488,122.823
141452,157434,12606,0.01,-0.943,-0.151,-0.305,0.061,0.488,122.827
141452,157406,12682,0.007,-0.948,-0.149,-0.732,0,0.366,122.833
141423,157434,12606,0.007,-0.948,-0.149,-0.732,0,0.366,122.837
141423,157386,12679,0.011,-0.951,-0.153,-0.732,0,0.366,122.843
141411,157434,12606,0.012,-0.955,-0.156,-0.793,0,0.305,122.847
141411,157358,12670,0.011,-0.948,-0.155,-0.793,0,0.305,122.853
141403,157434,12606,0.007,-0.942,-0.149,-0.793,0.061,0.366,122.857
141403,157376,12663,0.01,-0.945,-0.15,-0.793,0.061,0.366,122.863
141410,157434,12606,0.011,-0.947,-0.152,-1.159,0.183,0.305,122.867
141410,157369,12663,0.012,-0.952,-0.155,-1.159,0.183,0.305,122.873
141398,157434,12606,0.013,-0.953,-0.155,-1.28,0.305,0.183,122.876
141398,157380,12671,0.014,-0.95,-0.148,-1.28,0.305,0.183,122.883
141398,157434,12606,0.013,-0.944,-0.146,-0.854,0.305,0.305,122.886
141398,157396,12660,0.012,-0.948,-0.147,-0.854,0.305,0.305,122.893
141392,157434,12606,0.015,-0.953,-0.153,-0.793,0.427,0.183,122.896
141392,157353,12667,0.014,-0.952,-0.157,-0.793,0.427,0.183,122.902
141400,157434,12606,0.013,-0.953,-0.161,-0.915,0.488,0.122,122.906
141400,157396,12668,0.011,-0.951,-0.158,-0.915,0.488,0.122,122.912
141409,157434,12606,0.012,-0.949,-0.152,-0.366,0.488,0.366,122.916
141409,157396,12671,0.015,-0.944,-0.156,-0.366,0.488,0.366,122.922
141377,157434,12606,0.013,-0.942,-0.155,0.061,0.671,0.549,122.926
141377,157388,12666,0.014,-0.947,-0.153,0.061,0.671,0.549,122.932
141397,157434,12606,0.014,-0.95,-0.151,-0.183,0.427,0.671,122.936
141397,157372,12669,0.015,-0.948,-0.147,-0.183,0.427,0.671,122.942
141400,157434,12606,0.013,-0.944,-0.153,-0.488,0.244,0.671,122.946
141400,157387,12657,0.011,-0.944,-0.152,-0.488,0.244,0.671,122.952
141445,157434,12606,0.015,-0.947,-0.151,-0.61,0.244,0.671,122.956
141445,157417,12674,0.012,-0.949,-0.153,-0.61,0.244,0.671,122.962
141471,157434,12606,0.009,-0.949,-0.159,-0.305,0.183,0.549,122.966
141471,157435,12675,0.008,-0.954,-0.162,-0.305,0.183,0.549,122.972
141491,157690,12606,0.011,-0.958,-0.157,0.061,0.549,0.366,122.975
141491,157475,12672,0.015,-0.952,-0.156,0.061,0.549,0.366,122.982
141492,157690,12606,0.01,-0.95,-0.153,0.427,0.549,0.366,122.985
141492,157479,12688,0.008,-0.95,-0.151,0.427,0.549,0.366,122.992
141547,157690,12606,0.012,-0.944,-0.156,0.549,0.732,0.488,122.995
141547,157513,12693,0.011,-0.946,-0.156,0.549,0.732,0.488,123.001
141564,157690,12606,0.011,-0.951,-0.148,0.488,0.549,0.305,123.005
141564,157530,12696,0.011,-0.951,-0.148,0.488,0.549,0.305,123.011
141584,157690,12606,0.011,-0.947,-0.157,0.427,0.61,0.183,123.015
141584,157538,12700,0.014,-0.948,-0.153,0.427,0.61,0.183,123.021
141598,157690,12606,0.011,-0.946,-0.149,0.061,0.427,0.183,123.025
141598,157552,12679,0.012,-0.946,-0.144,0.061,0.427,0.183,123.031
141606,157690,12606,0.01,-0.942,-0.145,-0.305,0.427,0.122,123.035
141606,157547,12683,0.012,-0.948,-0.151,-0.305,0.427,0.122,123.041
141622,157690,12606,0.013,-0.952,-0.158,-1.098,0.366,-0.061,123.045
141622,157575,12702,0.014,-0.958,-0.152,-1.098,0.366,-0.061,123.051
141647,157690,12606,0.014,-0.952,-0.148,-1.037,0.366,-0.061,123.055
141647,157583,12691,0.013,-0.946,-0.151,-1.037,0.366,-0.061,123.061
141644,157690,12606,0.012,-0.943,-0.149,-0.976,0.305,0.122,123.065
141644,157603,12708,0.014,-0.947,-0.146,-0.976,0.305,0.122,123.071
141643,157690,12606,0.015,-0.952,-0.153,-1.159,0.244,0.183,123.074
141643,157611,12705,0.016,-0.949,-0.157,-1.159,0.244,0.183,123.081
141643,157690,12606,0.016,-0.948,-0.155,-1.159,0.183,0.366,123.084
141643,157627,12696,0.014,-0.945,-0.155,-1.159,0.183,0.366,123.091
141646,157690,12606,0.013,-0.949,-0.151,-1.159,0.183,0.488,123.094
141646,157608,12696,0.015,-0.947,-0.153,-1.159,0.183,0.488,123.1
141634,157690,12606,0.017,-0.949,-0.157,-1.037,0.183,0.61,123.104
141634,157607,12704,0.013,-0.951,-0.16,-1.037,0.183,0.61,123.11
141634,157690,12606,0.014,-0.949,-0.16,-0.732,0.183,0.549,123.114
141634,157591,12712,0.013,-0.948,-0.157,-0.732,0.183,0.549,123.12
141636,157690,12606,0.011,-0.951,-0.158,-0.427,0,0.549,123.124
141636,157579,12702,0.01,-0.95,-0.162,-0.427,0,0.549,123.13
141633,157690,12606,0.012,-0.952,-0.163,-0.061,0.122,0.427,123.134
141633,157588,12711,0.013,-0.951,-0.16,-0.061,0.122,0.427,123.14
141611,157690,12606,0.01,-0.952,-0.156,0.732,0.244,0.427,123.144
141611,157570,12687,0.008,-0.945,-0.154,0.732,0.244,0.427,123.15
141580,157690,12606,0.008,-0.95,-0.148,1.159,0.305,0.427,123.154
141580,157543,12691,0.01,-0.951,-0.148,1.159,0.305,0.427,123.16
141587,157690,12606,0.013,-0.95,-0.148,0.915,0.488,0.366,123.164
141587,157547,12690,0.005,-0.95,-0.145,0.915,0.488,0.366,123.17
141544,157690,12606,0.009,-0.942,-0.138,0.183,0.671,0.305,123.174
141544,157528,12693,0.013,-0.941,-0.144,0.183,0.671,0.305,123.18
141555,157690,12606,0.009,-0.95,-0.153,-0.793,0.244,0.244,123.183
141555,157512,12688,0.014,-0.953,-0.153,-0.793,0.244,0.244,123.19
141559,157690,12606,0.013,-0.946,-0.152,-1.098,0.061,0.122,123.193
141559,157542,12672,0.013,-0.945,-0.147,-1.098,0.061,0.122,123.199
141577,157690,12606,0.01,-0.943,-0.159,-1.524,0.122,0,123.203
141577,157508,12679,0.012,-0.951,-0.165,-1.524,0.122,0,123.209
141588,157690,12606,0.017,-0.958,-0.166,-1.646,0.122,0,123.213
141588,157550,12686,0.018,-0.958,-0.168,-1.646,0.122,0,123.219
141578,157690,12606,0.015,-0.956,-0.166,-0.671,0.183,0.183,123.223
141578,157540,12697,0.016,-0.95,-0.158,-0.671,0.183,0.183,123.229
141552,157690,12606,0.016,-0.948,-0.155,0.427,0.427,0.488,123.233
141552,157521,12683,0.014,-0.947,-0.158,0.427,0.427,0.488,123.239
141536,157690,12606,0.013,-0.945,-0.163,0.671,0.549,0.671,123.243
141536,157513,12674,0.015,-0.945,-0.154,0.671,0.549,0.671,123.249
141522,157690,12606,0.015,-0.945,-0.146,0.793,0.671,0.793,123.253
141522,157509,12694,0.01,-0.941,-0.148,0.793,0.671,0.793,123.259
141526,157690,12606,0.007,-0.949,-0.15,0.61,0.732,0.671,123.263
141526,157497,12690,0.011,-0.953,-0.148,0.61,0.732,0.671,123.269
141518,157690,12606,0.012,-0.951,-0.149,0.183,0.427,0.305,123.273
141518,157489,12673,0.011,-0.942,-0.151,0.183,0.427,0.305,123.279
141528,157690,12606,0.011,-0.942,-0.151,0.183,0.427,0.305,123.282
141528,157536,12684,0.01,-0.946,-0.147,-0.549,0.61,0.244,123.289
141553,157690,12606,0.01,-0.946,-0.147,-0.549,0.61,0.244,123.292
141553,157552,12686,0.012,-0.953,-0.156,-0.732,0.305,0.244,123.298
141587,157690,12606,0.012,-0.953,-0.156,-0.732,0.305,0.244,123.302
141587,157548,12684,0.011,-0.95,-0.155,-0.915,0.305,0,123.308
141590,157690,12606,0.011,-0.95,-0.155,-0.915,0.305,0,123.312
141590,157570,12687,0.011,-0.95,-0.153,-1.037,0.305,0.122,123.318
141569,157690,12606,0.011,-0.95,-0.153,-1.037,0.305,0.122,123.322
141569,157560,12675,0.014,-0.951,-0.155,-0.61,0.305,0.427,123.328
141589,157690,12606,0.014,-0.951,-0.155,-0.61,0.305,0.427,123.332
141589,157543,12682,0.016,-0.947,-0.159,-0.488,0.305,0.488,123.338
141592,157690,12606,0.016,-0.947,-0.159,-0.488,0.305,0.488,123.342
141592,157563,12692,0.012,-0.95,-0.162,-0.61,0.366,0.488,123.348
141607,157690,12606,0.012,-0.95,-0.162,-0.61,0.366,0.488,123.352
141607,157589,12682,0.017,-0.954,-0.158,-0.061,0.549,0.366,123.358
141562,157690,12606,0.017,-0.954,-0.158,-0.061,0.549,0.366,123.362
141562,157548,12701,0.011,-0.941,-0.157,0.61,0.488,0.488,123.368
141552,157690,12606,0.011,-0.941,-0.157,0.61,0.488,0.488,123.372
141552,157504,12672,0.01,-0.937,-0.141,0.793,0.732,0.61,123.378
141562,157690,12606,0.01,-0.937,-0.141,0.793,0.732,0.61,123.381
141562,157499,12675,0.014,-0.952,-0.154,0.549,0.549,0.366,123.388
141520,157690,12606,0.014,-0.952,-0.154,0.549,0.549,0.366,123.391
141520,157514,12676,0.013,-0.955,-0.158,-0.122,0.793,0.122,123.397
141502,157690,12606,0.013,-0.955,-0.158,-0.122,0.793,0.122,123.401
141502,157510,12675,0.014,-0.951,-0.157,0.122,0.61,0.183,123.407
141500,157690,12606,0.014,-0.951,-0.157,0.122,0.61,0.183,123.411
141500,157488,12669,0.01,-0.946,-0.15,0.732,0.549,0.549,123.417
141501,157690,12606,0.01,-0.946,-0.15,0.732,0.549,0.549,123.421
141501,157454,12673,0.011,-0.955,-0.154,1.037,0.61,0.793,123.427
141494,157690,12606,0.011,-0.955,-0.154,1.037,0.61,0.793,123.431
141494,157468,12677,0.008,-0.95,-0.138,1.098,0.427,0.793,123.437
141521,157690,12606,0.014,-0.937,-0.151,1.098,0.427,0.793,123.441
141521,157519,12679,0.008,-0.938,-0.153,0.244,0.366,0.732,123.447
141550,157690,12606,0.007,-0.949,-0.145,0.244,0.366,0.732,123.451
141550,157527,12683,0.013,-0.951,-0.152,0,0.488,0.427,123.457
141548,157690,12606,0.01,-0.944,-0.153,0,0.488,0.427,123.461
141548,157541,12680,0.004,-0.943,-0.148,-0.488,0.488,0.305,123.467
141552,157690,12606,0.009,-0.943,-0.15,-0.488,0.488,0.305,123.471
141552,157541,12696,0.006,-0.946,-0.155,-0.915,0.488,0.183,123.477
141556,157690,12606,0.007,-0.949,-0.156,-0.915,0.488,0.183,123.48
141556,157532,12679,0.01,-0.949,-0.155,-1.159,0.244,-0.122,123.487
141583,157690,12606,0.012,-0.949,-0.162,-1.159,0.244,-0.122,123.49
141583,157519,12688,0.012,-0.949,-0.168,-0.793,0.427,-0.183,123.496
141585,157690,12606,0.013,-0.953,-0.161,-0.793,0.427,-0.183,123.5
141585,157546,12692,0.016,-0.957,-0.159,0.183,0.305,0.061,123.506
141626,157690,12606,0.016,-0.958,-0.16,0.183,0.305,0.061,123.51
141626,157578,12696,0.015,-0.954,-0.161,0.915,0.488,0.183,123.516
141617,157690,12606,0.016,-0.948,-0.153,0.915,0.488,0.183,123.52
141617,157602,12688,0.012,-0.947,-0.152,1.159,0.732,0.427,123.526
141622,157690,12606,0.014,-0.951,-0.153,1.159,0.732,0.427,123.53
141622,157585,12687,0.016,-0.95,-0.157,0.793,0.793,0.488,123.536
141624,157690,12606,0.018,-0.949,-0.155,0.793,0.793,0.488,123.54
141624,157603,12702,0.014,-0.948,-0.155,0.671,0.732,0.305,123.546
141593,157690,12606,0.012,-0.947,-0.15,0.671,0.732,0.305,123.55
141593,157590,12695,0.009,-0.944,-0.145,0.671,0.488,0.366,123.556
141594,157690,12606,0.012,-0.948,-0.142,0.671,0.488,0.366,123.56
141594,157574,12696,0.012,-0.944,-0.148,-0.061,0.305,0.366,123.566
141579,157690,12606,0.007,-0.944,-0.151,-0.061,0.305,0.366,123.57
141579,157574,12691,0.011,-0.947,-0.157,-0.671,0.183,0.183,123.576
141567,157690,12606,0.016,-0.949,-0.159,-0.671,0.183,0.183,123.579
141567,157590,12680,0.014,-0.949,-0.155,-0.183,0.244,0.061,123.586
141583,157690,12606,0.014,-0.949,-0.157,-0.183,0.244,0.061,123.589
141583,157552,12663,0.013,-0.948,-0.159,0.915,0.671,0.244,123.596
141603,157690,12606,0.013,-0.955,-0.152,0.915,0.671,0.244,123.599
141603,157561,12700,0.017,-0.954,-0.148,1.585,0.61,0.427,123.605
141593,157690,12606,0.014,-0.948,-0.154,1.585,0.61,0.427,123.609
141593,157595,12704,0.011,-0.945,-0.149,1.28,0.61,0.61,123.615
141623,157690,12606,0.011,-0.948,-0.147,1.28,0.61,0.61,123.619
141623,157579,12696,0.014,-0.95,-0.147,0.854,0.366,0.61,123.625
141664,157690,12606,0.013,-0.949,-0.145,0.854,0.366,0.61,123.629
141664,157610,12695,0.014,-0.948,-0.151,-0.061,0.427,0.427,123.635
141667,157690,12606,0.013,-0.951,-0.149,-0.061,0.427,0.427,123.639
141667,157622,12703,0.014,-0.952,-0.154,-0.61,0.183,0.366,123.645
141663,157690,12606,0.013,-0.949,-0.16,-0.61,0.183,0.366,123.649
141663,157636,12709,0.013,-0.949,-0.155,-0.488,0.366,0.427,123.655
141669,157690,12606,0.015,-0.948,-0.153,-0.488,0.366,0.427,123.659
141669,157657,12709,0.01,-0.951,-0.156,0.183,0.244,0.671,123.665
141675,157690,12606,0.011,-0.956,-0.159,0.183,0.244,0.671,123.669
141675,157638,12704,0.013,-0.956,-0.157,0.549,0.549,0.61,123.675
141675,157690,12606,0.011,-0.951,-0.155,0.549,0.549,0.61,123.678
141675,157637,12699,0.008,-0.944,-0.152,0.61,0.793,0.732,123.685
141666,157690,12606,0.009,-0.944,-0.143,0.61,0.793,0.732,123.688
141666,157656,12697,0.008,-0.945,-0.144,0.61,0.671,0.732,123.695
141668,157690,12606,0.011,-0.946,-0.144,0.61,0.671,0.732,123.698
141668,157647,12698,0.011,-0.944,-0.147,0.244,0.427,0.366,123.704
141689,157690,12606,0.007,-0.948,-0.151,0.244,0.427,0.366,123.708
141689,157664,12698,0.009,-0.951,-0.145,-0.549,0.427,0.366,123.714
141705,157690,12606,0.014,-0.943,-0.139,-0.549,0.427,0.366,123.718
141705,157659,12708,0.011,-0.94,-0.149,-0.915,0.305,0.183,123.724
141709,157690,12606,0.013,-0.949,-0.161,-0.915,0.305,0.183,123.728
141709,157670,12698,0.018,-0.96,-0.151,-0.854,0.427,0.061,123.734
141715,157690,12606,0.013,-0.956,-0.137,-0.854,0.427,0.061,123.738
141715,157661,12706,0.016,-0.939,-0.155,-0.427,0.305,0.244,123.744
141698,157690,12606,0.016,-0.943,-0.161,-0.427,0.305,0.244,123.748
141698,157658,12716,0.015,-0.958,-0.154,-0.671,0.366,0.305,123.754
141675,157690,12606,0.017,-0.959,-0.158,-0.671,0.366,0.305,123.758
141675,157651,12706,0.016,-0.951,-0.162,0.183,0.305,0.427,123.764
141666,157690,12606,0.014,-0.945,-0.152,0.183,0.305,0.427,123.768
141666,157621,12717,0.016,-0.942,-0.151,0.427,0.488,0.732,123.774
141640,157690,12606,0.015,-0.949,-0.153,0.427,0.488,0.732,123.777
141640,157600,12716,0.011,-0.954,-0.15,0.488,0.427,0.671,123.784
141616,157690,12606,0.008,-0.947,-0.152,0.488,0.427,0.671,123.787
141616,157578,12704,0.008,-0.941,-0.146,0.061,0.427,0.488,123.794
141605,157690,12606,0.006,-0.941,-0.142,0.061,0.427,0.488,123.797
141605,157584,12692,0.004,-0.948,-0.152,-0.61,0.61,0.305,123.803
141615,157690,12606,0.009,-0.954,-0.155,-0.61,0.61,0.305,123.807
141615,157574,12713,0.011,-0.95,-0.153,-0.793,0.488,0.122,123.813
141611,157690,12606,0.012,-0.946,-0.155,-0.793,0.488,0.122,123.817
141611,157590,12700,0.012,-0.949,-0.149,-0.427,0.305,0.305,123.823
141640,157690,12606,0.012,-0.947,-0.145,-0.427,0.305,0.305,123.827
141640,157593,12682,0.012,-0.951,-0.155,-0.427,0.244,0.427,123.833
141646,157690,12606,0.011,-0.953,-0.159,-0.427,0.244,0.427,123.837
141646,157615,12707,0.014,-0.958,-0.158,-0.61,0.183,0.244,123.843
141674,157690,12606,0.016,-0.951,-0.159,-0.61,0.183,0.244,123.847
141674,157641,12695,0.016,-0.948,-0.16,0.122,0.244,0.549,123.853
141682,157690,12606,0.014,-0.949,-0.156,0.122,0.244,0.549,123.857
141682,157669,12712,0.016,-0.949,-0.152,1.037,0.488,0.549,123.863
141673,157690,12606,0.013,-0.946,-0.149,1.037,0.488,0.549,123.867
141673,157644,12694,0.014,-0.946,-0.145,1.22,0.549,0.366,123.873
141598,157690,12606,0.014,-0.946,-0.145,1.22,0.549,0.366,123.876
141598,157585,12695,0.009,-0.949,-0.157,0.732,0.671,0.366,123.883
141517,157690,12606,0.009,-0.949,-0.157,0.732,0.671,0.366,123.886
141517,157547,12689,0.012,-0.944,-0.15,0.671,0.549,0.488,123.893
141473,157690,12606,0.012,-0.944,-0.15,0.671,0.549,0.488,123.896
141473,157467,12694,0.008,-0.946,-0.142,0.549,0.61,0.488,123.902
141467,157690,12606,0.008,-0.946,-0.142,0.549,0.61,0.488,123.906
141467,157464,12684,0.01,-0.945,-0.149,-0.305,0.549,0.244,123.912
141436,157434,12606,0.01,-0.945,-0.149,-0.305,0.549,0.244,123.916
141436,157415,12672,0.011,-0.953,-0.151,-0.854,0.61,0,123.922
141411,157434,12606,0.011,-0.953,-0.151,-0.854,0.61,0,123.926
141411,157424,12666,0.01,-0.945,-0.149,-1.402,0.427,-0.061,123.932
141410,157434,12606,0.01,-0.945,-0.149,-1.402,0.427,-0.061,123.936
141410,157402,12668,0.015,-0.953,-0.159,-1.402,0.427,-0.061,123.942
141440,157434,12606,0.015,-0.953,-0.159,-1.402,0.427,-0.061,123.946
141440,157439,12683,0.013,-0.95,-0.157,-0.793,0.427,0.122,123.952
141485,157690,12606,0.013,-0.95,-0.157,-0.793,0.427,0.122,123.956
141485,157464,12695,0.016,-0.954,-0.159,-0.061,0.488,0.366,123.962
141557,157690,12606,0.016,-0.954,-0.159,-0.061,0.488,0.366,123.966
141557,157545,12704,0.013,-0.953,-0.153,0.854,0.671,0.366,123.972
141606,157690,12606,0.013,-0.953,-0.153,0.854,0.671,0.366,123.975
141606,157587,12695,0.013,-0.947,-0.148,1.037,0.488,0.549,123.982
141652,157690,12606,0.013,-0.947,-0.148,1.037,0.488,0.549,123.985
141652,157637,12719,0.014,-0.946,-0.149,0.366,0.549,0.366,123.992
141651,157690,12606,0.014,-0.946,-0.149,0.366,0.549,0.366,123.995
141651,157604,12721,0.01,-0.952,-0.153,-0.061,0.488,0.183,124.001
141663,157690,12606,0.01,-0.952,-0.153,-0.061,0.488,0.183,124.005
141663,157607,12699,0.012,-0.95,-0.146,-0.183,0.183,0.183,124.011
141630,157690,12606,0.012,-0.95,-0.146,-0.183,0.183,0.183,124.015
141630,157587,12685,0.009,-0.951,-0.144,-0.305,0.122,0.244,124.021
141552,157690,12606,0.009,-0.951,-0.144,-0.305,0.122,0.244,124.025
141552,157529,12691,0.009,-0.948,-0.148,-0.305,0.122,0.244,124.031
141570,157690,12606,0.014,-0.947,-0.151,-0.549,0.244,0.122,124.035
141570,157571,12688,0.013,-0.948,-0.153,-0.549,0.244,0.122,124.041
141569,157690,12606,0.013,-0.954,-0.149,-0.732,0.427,0.122,124.045
141569,157543,12688,0.017,-0.958,-0.156,-0.732,0.427,0.122,124.051
141558,157690,12606,0.012,-0.955,-0.156,-0.305,0.549,0.366,124.055
141558,157551,12685,0.011,-0.947,-0.156,-0.305,0.549,0.366,124.061
141603,157690,12606,0.013,-0.943,-0.146,0.305,0.549,0.549,124.065
141603,157566,12706,0.014,-0.946,-0.148,0.305,0.549,0.549,124.071
141573,157690,12606,0.015,-0.95,-0.153,0.244,0.427,0.427,124.074
141573,157587,12689,0.016,-0.95,-0.154,0.244,0.427,0.427,124.081
141604,157690,12606,0.012,-0.947,-0.16,-0.183,0.488,0.305,124.084
141604,157576,12668,0.01,-0.948,-0.157,-0.183,0.488,0.305,124.091
141597,157690,12606,0.013,-0.95,-0.15,0.122,0.427,0.488,124.094
141597,157599,12682,0.011,-0.947,-0.148,0.122,0.427,0.488,124.1
141566,157690,12606,0.01,-0.942,-0.151,0.427,0.244,0.488,124.104
141566,157571,12691,0.015,-0.945,-0.15,0.427,0.244,0.488,124.11
141558,157690,12606,0.011,-0.947,-0.154,0.183,0.122,0.305,124.114
141558,157541,12684,0.009,-0.949,-0.154,0.183,0.122,0.305,124.12
141542,157690,12606,0.011,-0.949,-0.145,0.366,0.061,0.305,124.124
141542,157516,12698,0.015,-0.95,-0.146,0.366,0.061,0.305,124.13
141567,157690,12606,0.011,-0.949,-0.152,0.305,-0.122,0.427,124.134
141567,157532,12676,0.011,-0.949,-0.145,0.305,-0.122,0.427,124.14
141556,157690,12606,0.013,-0.947,-0.143,0,0.061,0.305,124.144
141556,157541,12690,0.013,-0.948,-0.143,0,0.061,0.305,124.15
141562,157690,12606,0.013,-0.947,-0.146,-0.732,0.122,0.122,124.154
141562,157543,12699,0.011,-0.95,-0.159,-0.732,0.122,0.122,124.16
141565,157690,12606,0.013,-0.954,-0.159,-0.915,0.305,0.183,124.164
141565,157545,12696,0.017,-0.955,-0.154,-0.915,0.305,0.183,124.17
141601,157690,12606,0.016,-0.954,-0.155,-0.549,0.488,0.244,124.173
141601,157576,12694,0.011,-0.953,-0.159,-0.549,0.488,0.244,124.18
141634,157690,12606,0.01,-0.95,-0.158,-0.305,0.427,0.488,124.183
141634,157611,12690,0.016,-0.95,-0.153,-0.305,0.427,0.488,124.19
141649,157690,12606,0.014,-0.949,-0.155,0.305,0.427,0.549,124.193
141649,157637,12704,0.015,-0.951,-0.158,0.305,0.427,0.549,124.199
141668,157690,12606,0.015,-0.952,-0.156,0.61,0.427,0.61,124.203
141668,157634,12707,0.014,-0.947,-0.149,0.61,0.427,0.61,124.209
141666,157690,12606,0.013,-0.949,-0.154,0.976,0.305,0.732,124.213
141666,157620,12708,0.014,-0.95,-0.152,0.976,0.305,0.732,124.219
141696,157690,12606,0.013,-0.949,-0.145,1.037,0.244,0.793,124.223
141696,157664,12718,0.012,-0.948,-0.145,1.037,0.244,0.793,124.229
141704,157690,12606,0.013,-0.948,-0.151,0.366,0.244,0.854,124.233
141704,157684,12709,0.014,-0.951,-0.154,0.366,0.244,0.854,124.239
141686,157690,12606,0.013,-0.95,-0.148,0,0.122,0.61,124.243
141686,157681,12711,0.015,-0.949,-0.149,0,0.122,0.61,124.249
141701,157690,12606,0.01,-0.948,-0.147,0.122,0.122,0.549,124.253
141701,157644,12705,0.012,-0.948,-0.151,0.122,0.122,0.549,124.259
141680,157690,12606,0.012,-0.945,-0.152,-0.427,0.488,0.366,124.263
141680,157648,12711,0.013,-0.945,-0.152,-0.427,0.488,0.366,124.269
141677,157690,12606,0.015,-0.949,-0.153,-0.183,0.427,0.366,124.272
141677,157622,12705,0.012,-0.957,-0.156,-0.183,0.427,0.366,124.279
141676,157690,12606,0.012,-0.958,-0.156,0.549,0.61,0.427,124.282
141676,157641,12697,0.011,-0.953,-0.156,0.549,0.61,0.427,124.289
141640,157690,12606,0.007,-0.946,-0.151,0.793,0.671,0.427,124.292
141640,157611,12705,0.007,-0.946,-0.146,0.793,0.671,0.427,124.298
141628,157690,12606,0.008,-0.945,-0.149,0.915,0.427,0.366,124.302
141628,157614,12709,0.009,-0.947,-0.149,0.915,0.427,0.366,124.308
141607,157690,12606,0.013,-0.947,-0.15,0.854,0.305,0.244,124.312
141607,157577,12702,0.016,-0.949,-0.143,0.854,0.305,0.244,124.318
141620,157690,12606,0.013,-0.947,-0.146,0.732,0.244,-0.061,124.322
141620,157608,12699,0.014,-0.945,-0.145,0.732,0.244,-0.061,124.328
141613,157690,12606,0.013,-0.946,-0.137,0.366,0.183,0.183,124.332
141613,157631,12686,0.013,-0.945,-0.142,0.366,0.183,0.183,124.338
141653,157690,12606,0.011,-0.946,-0.154,-0.366,0.427,0.305,124.342
141653,157629,12711,0.015,-0.95,-0.156,-0.366,0.427,0.305,124.348
141658,157690,12606,0.016,-0.952,-0.149,-0.61,0.366,0.305,124.352
141658,157640,12696,0.016,-0.952,-0.149,-0.61,0.366,0.305,124.358
141675,157690,12606,0.015,-0.95,-0.153,-0.427,0.305,0.549,124.362
141675,157674,12698,0.009,-0.947,-0.155,-0.427,0.305,0.549,124.368
141671,157690,12606,0.014,-0.951,-0.154,-0.427,0.488,0.549,124.371
141671,157644,12697,0.012,-0.956,-0.16,-0.427,0.488,0.549,124.378
141653,157690,12606,0.013,-0.952,-0.161,-0.122,0.549,0.366,124.381
141653,157646,12701,0.014,-0.95,-0.163,-0.122,0.549,0.366,124.388
141685,157690,12606,0.009,-0.955,-0.16,0.732,0.61,0.427,124.391
141685,157658,12708,0.01,-0.952,-0.152,0.732,0.61,0.427,124.397
141672,157690,12606,0.009,-0.943,-0.15,1.402,0.671,0.488,124.401
141672,157680,12700,0.007,-0.945,-0.147,1.402,0.671,0.488,124.407
141654,157690,12606,0.009,-0.949,-0.142,1.22,0.732,0.366,124.411
141654,157636,12694,0.013,-0.952,-0.149,1.22,0.732,0.366,124.417
141648,157690,12606,0.015,-0.949,-0.15,0.854,0.549,0.366,124.421
141648,157639,12704,0.014,-0.946,-0.146,0.854,0.549,0.366,124.427
141641,157690,12606,0.014,-0.943,-0.141,0.671,0.488,0.427,124.431
141641,157614,12706,0.016,-0.944,-0.135,0.671,0.488,0.427,124.437
141645,157690,12606,0.015,-0.944,-0.138,0.122,0.305,0.427,124.441
141645,157628,12707,0.014,-0.945,-0.141,0.122,0.305,0.427,124.447
141628,157690,12606,0.013,-0.952,-0.146,-0.976,0.366,0.305,124.451
141628,157634,12695,0.015,-0.954,-0.145,-0.976,0.366,0.305,124.457
141650,157690,12606,0.014,-0.949,-0.15,-1.646,0.244,0.244,124.461
141650,157609,12702,0.011,-0.947,-0.154,-1.646,0.244,0.244,124.467
141644,157690,12606,0.011,-0.947,-0.154,-1.646,0.244,0.244,124.47
141644,157656,12694,0.009,-0.948,-0.147,-1.646,0.183,0.305,124.477
141685,157690,12606,0.009,-0.948,-0.147,-1.646,0.183,0.305,124.48
141685,157682,12713,0.012,-0.954,-0.16,-1.22,0.061,0.183,124.487
141717,157690,12606,0.012,-0.954,-0.16,-1.22,0.061,0.183,124.49
141717,157675,12709,0.012,-0.95,-0.16,-1.341,0.244,0.122,124.496
141728,157946,12606,0.012,-0.95,-0.16,-1.341,0.244,0.122,124.5
141728,157726,12711,0.012,-0.945,-0.153,-0.549,0.427,0.427,124.506
141766,157946,12606,0.012,-0.945,-0.153,-0.549,0.427,0.427,124.51
141766,157740,12727,0.01,-0.952,-0.151,0.183,0.366,0.488,124.516
141766,157946,12606,0.01,-0.952,-0.151,0.183,0.366,0.488,124.52
141766,157730,12703,0.013,-0.949,-0.157,0.061,0.366,0.488,124.526
141765,157946,12606,0.013,-0.949,-0.157,0.061,0.366,0.488,124.53
141765,157773,12717,0.014,-0.945,-0.135,0.122,0.366,0.549,124.536
141778,157946,12606,0.014,-0.945,-0.135,0.122,0.366,0.549,124.54
141778,157762,12720,0.013,-0.954,-0.151,0.671,0.244,0.549,124.546
141805,157946,12606,0.013,-0.954,-0.151,0.671,0.244,0.549,124.55
141805,157772,12712,0.012,-0.948,-0.146,0.427,0.305,0.427,124.556
141818,157946,12606,0.012,-0.948,-0.146,0.427,0.305,0.427,124.56
141818,157798,12723,0.007,-0.945,-0.14,-0.122,0.244,0.366,124.566
141846,157946,12606,0.007,-0.945,-0.14,-0.122,0.244,0.366,124.569
141846,157804,12738,0.009,-0.949,-0.147,-0.305,0,0.366,124.576
141863,157946,12606,0.009,-0.949,-0.147,-0.305,0,0.366,124.579
141863,157834,12747,0.011,-0.95,-0.149,-0.61,0.305,0.183,124.586
141877,157946,12606,0.011,-0.95,-0.149,-0.61,0.305,0.183,124.589
141877,157857,12753,0.012,-0.951,-0.149,-0.732,0.244,0.061,124.595
141861,157946,12606,0.012,-0.951,-0.149,-0.732,0.244,0.061,124.599
141861,157850,12746,0.011,-0.959,-0.154,-1.098,0.61,0.244,124.605
141871,157946,12606,0.011,-0.959,-0.154,-1.098,0.61,0.244,124.609
