139080,156922,12606,-0.01,-0.942,-0.073,0.244,0.427,0.671,106.633
139080,156907,12433,-0.006,-0.962,-0.104,-1.829,0.366,0.366,106.639
139073,157178,12606,-0.006,-0.962,-0.104,-1.829,0.366,0.366,106.643
139073,156933,12436,-0.007,-0.974,-0.108,-1.829,0.366,0.366,106.649
139067,157178,12606,-0,-0.963,-0.096,-1.829,0.122,0.183,106.653
139067,156932,12447,-0.007,-0.945,-0.094,-1.829,0.122,0.183,106.659
139047,156922,12606,-0.016,-0.943,-0.102,-1.707,0.122,0.671,106.663
139047,156915,12428,-0.014,-0.96,-0.112,-1.707,0.122,0.671,106.669
139031,156922,12606,-0.003,-0.971,-0.119,-1.159,0.061,0.366,106.673
139031,156880,12433,-0.002,-0.969,-0.119,-1.159,0.061,0.366,106.679
139071,156922,12606,-0.008,-0.961,-0.112,0.915,-0.061,0.244,106.682
139071,156916,12436,-0.009,-0.954,-0.108,0.915,-0.061,0.244,106.689
139078,157178,12606,-0.009,-0.959,-0.104,2.744,0.061,0.61,106.692
139078,156936,12431,-0.006,-0.963,-0.093,2.744,0.061,0.61,106.699
139110,157178,12606,-0.006,-0.958,-0.083,3.049,0.122,0.549,106.702
139110,156941,12442,-0.007,-0.947,-0.081,3.049,0.122,0.549,106.708
139094,156922,12606,-0.009,-0.942,-0.083,1.524,0.183,0.61,106.712
139094,156925,12436,-0.009,-0.949,-0.087,1.524,0.183,0.61,106.718
139057,156922,12606,-0.007,-0.955,-0.07,-0.244,0.061,0.305,106.722
139057,156917,12438,-0.004,-0.942,-0.068,-0.244,0.061,0.305,106.728
139002,156922,12606,-0.009,-0.938,-0.07,-2.622,-0.244,0.183,106.732
139002,156887,12433,-0.012,-0.948,-0.083,-2.622,-0.244,0.183,106.738
138984,156922,12606,-0.009,-0.961,-0.094,-5.122,-0.122,-0.061,106.742
138984,156862,12420,0.003,-0.964,-0.104,-5.122,-0.122,-0.061,106.748
138961,156922,12606,0.001,-0.964,-0.106,-5.549,-0.305,-0.305,106.752
138961,156838,12431,-0.007,-0.964,-0.105,-5.549,-0.305,-0.305,106.758
138931,156922,12606,-0.006,-0.963,-0.106,-4.634,-0.366,0.305,106.762
138931,156799,12432,-0.004,-0.966,-0.117,-4.634,-0.366,0.305,106.768
138904,156922,12606,-0.007,-0.973,-0.131,-3.293,0.061,0.366,106.772
138904,156787,12413,-0.004,-0.983,-0.128,-3.293,0.061,0.366,106.778
138881,156922,12606,-0.005,-0.972,-0.11,-0.61,0.488,0.427,106.781
138881,156771,12420,-0.007,-0.959,-0.1,-0.61,0.488,0.427,106.788
138861,156922,12606,-0.005,-0.949,-0.097,0.915,0.793,0.854,106.791
138861,156734,12405,-0.007,-0.946,-0.099,0.915,0.793,0.854,106.798
138839,156922,12606,-0.005,-0.952,-0.1,0.671,1.098,0.793,106.801
138839,156733,12404,-0.005,-0.956,-0.102,0.671,1.098,0.793,106.807
138823,156922,12606,-0.005,-0.954,-0.098,0.488,0.793,0.427,106.811
138823,156708,12410,-0.006,-0.948,-0.101,0.488,0.793,0.427,106.817
138859,156922,12606,-0.006,-0.946,-0.096,0.122,0.427,0.793,106.821
138859,156736,12406,-0.006,-0.947,-0.098,0.122,0.427,0.793,106.827
138877,156922,12606,-0.007,-0.96,-0.098,-0.183,0.305,0.732,106.831
138877,156752,12418,-0.001,-0.97,-0.094,-0.183,0.305,0.732,106.837
138892,156922,12606,-0.001,-0.961,-0.097,-0.488,0.366,0.671,106.841
138892,156795,12432,-0.007,-0.957,-0.099,-0.488,0.366,0.671,106.847
138928,156922,12606,-0.008,-0.962,-0.104,-0.976,0.305,0.854,106.851
138928,156811,12438,-0.005,-0.966,-0.108,-0.976,0.305,0.854,106.857
138949,156922,12606,-0.003,-0.966,-0.105,0,0.488,0.854,106.861
138949,156840,12430,-0.006,-0.958,-0.109,0,0.488,0.854,106.867
139004,156922,12606,-0.012,-0.961,-0.108,1.28,0.793,0.854,106.871
139004,156892,12440,-0.01,-0.966,-0.104,1.28,0.793,0.854,106.877
139063,156922,12606,-0.012,-0.965,-0.097,2.195,0.915,0.854,106.88
139063,156900,12425,-0.011,-0.958,-0.092,2.195,0.915,0.854,106.887
139086,157178,12606,-0.011,-0.955,-0.088,1.951,0.915,0.671,106.89
139086,156951,12441,-0.013,-0.948,-0.089,1.951,0.915,0.671,106.897
139117,157178,12606,-0.009,-0.945,-0.087,0.732,0.854,0.488,106.9
139117,156975,12438,-0.009,-0.944,-0.085,0.732,0.854,0.488,106.906
139116,157178,12606,-0.013,-0.947,-0.088,-0.915,0.366,0.244,106.91
139116,156955,12437,-0.01,-0.952,-0.095,-0.915,0.366,0.244,106.916
139089,157178,12606,-0.007,-0.95,-0.101,-2.622,-0.122,0.122,106.92
139089,156973,12450,-0.009,-0.956,-0.105,-2.622,-0.122,0.122,106.926
139072,157178,12606,-0.008,-0.964,-0.113,-2.927,-0.305,0.183,106.93
139072,156931,12446,-0.004,-0.974,-0.117,-2.927,-0.305,0.183,106.936
139066,157178,12606,-0.005,-0.97,-0.112,-1.646,-0.305,0.183,106.94
139066,156930,12453,-0.004,-0.963,-0.105,-1.646,-0.305,0.183,106.946
139104,157178,12606,-0.006,-0.958,-0.105,-0.488,-0.061,0.427,106.95
139104,156961,12456,-0.008,-0.961,-0.11,-0.488,-0.061,0.427,106.956
139140,157178,12606,-0.009,-0.969,-0.108,0.244,0.61,0.427,106.96
139140,156997,12449,-0.004,-0.967,-0.102,0.244,0.61,0.427,106.966
139201,157178,12606,-0.004,-0.953,-0.104,1.159,1.037,0.305,106.97
139201,157076,12455,-0.007,-0.956,-0.098,1.159,1.037,0.305,106.976
139261,157178,12606,-0.007,-0.959,-0.099,1.707,1.28,0.244,106.979
139261,157106,12459,-0.007,-0.955,-0.095,1.707,1.28,0.244,106.986
139324,157178,12606,-0.007,-0.953,-0.089,1.524,1.22,0.122,106.989
139324,157147,12476,-0.012,-0.949,-0.087,1.524,1.22,0.122,106.996
139370,157178,12606,-0.012,-0.949,-0.091,0.244,1.037,0.122,106.999
139370,157160,12473,-0.012,-0.958,-0.098,0.244,1.037,0.122,107.005
139334,157178,12606,-0.007,-0.961,-0.099,-0.549,0.793,0,107.009
139334,157137,12470,-0.002,-0.953,-0.093,-0.549,0.793,0,107.015
139296,157178,12606,-0.006,-0.949,-0.091,-0.915,0.488,0.061,107.019
139296,157074,12461,-0.01,-0.95,-0.093,-0.915,0.488,0.061,107.025
139228,157178,12606,-0.013,-0.957,-0.095,-1.159,0.427,0.122,107.029
139228,157042,12477,-0.01,-0.96,-0.102,-1.159,0.427,0.122,107.035
139202,157178,12606,-0.005,-0.962,-0.104,-1.159,0.427,-0.061,107.039
139202,157043,12467,-0.005,-0.958,-0.102,-1.159,0.427,-0.061,107.045
139183,157178,12606,-0.008,-0.956,-0.097,-0.488,0.366,0,107.049
139183,157020,12470,-0.005,-0.952,-0.093,-0.488,0.366,0,107.055
139183,157178,12606,-0.005,-0.946,-0.089,-0.122,0.244,0.061,107.059
139183,157031,12466,-0.007,-0.949,-0.093,-0.122,0.244,0.061,107.065
139172,157178,12606,-0.008,-0.958,-0.1,-0.549,0.183,0.061,107.069
139172,157025,12452,-0.006,-0.964,-0.101,-0.549,0.183,0.061,107.075
139142,157178,12606,-0.007,-0.958,-0.097,-0.915,0.061,-0.183,107.078
139142,157018,12451,-0.004,-0.96,-0.098,-0.915,0.061,-0.183,107.085
139139,157178,12606,-0.006,-0.965,-0.106,-1.098,0.061,-0.061,107.088
139139,157018,12447,-0.002,-0.968,-0.109,-1.098,0.061,-0.061,107.095
139157,157178,12606,-0.002,-0.968,-0.109,-1.098,0.061,-0.061,107.098
139157,157007,12446,-0.003,-0.963,-0.11,-0.732,0.183,-0.061,107.104
139136,157178,12606,-0.003,-0.963,-0.11,-0.732,0.183,-0.061,107.108
139136,156979,12450,0.001,-0.961,-0.106,-0.061,0.427,0.061,107.114
139130,157178,12606,0.001,-0.961,-0.106,-0.061,0.427,0.061,107.118
139130,156945,12448,-0.003,-0.958,-0.105,0.488,0.549,0.305,107.124
139132,157178,12606,-0.003,-0.958,-0.105,0.488,0.549,0.305,107.128
139132,156975,12436,-0.007,-0.952,-0.096,0.915,0.61,0.488,107.134
139123,157178,12606,-0.007,-0.952,-0.096,0.915,0.61,0.488,107.138
139123,157005,12449,-0.007,-0.956,-0.103,0.61,0.366,0.61,107.144
139109,157178,12606,-0.007,-0.956,-0.103,0.61,0.366,0.61,107.148
139109,156993,12448,-0.006,-0.954,-0.089,0,0.305,0.427,107.154
139136,157178,12606,-0.006,-0.954,-0.089,0,0.305,0.427,107.158
139136,156991,12452,-0.012,-0.942,-0.099,-0.427,0.183,0.305,107.164
139156,157178,12606,-0.012,-0.942,-0.099,-0.427,0.183,0.305,107.168
139156,157011,12449,-0.008,-0.967,-0.103,-1.28,0.122,0.366,107.174
139169,157178,12606,-0.008,-0.967,-0.103,-1.28,0.122,0.366,107.177
139169,157004,12445,-0.005,-0.956,-0.098,-1.037,0,0,107.184
139169,157178,12606,-0.005,-0.956,-0.098,-1.037,0,0,107.187
139169,157017,12475,-0.007,-0.957,-0.099,-0.793,-0.061,0.366,107.194
139173,157178,12606,-0.007,-0.957,-0.099,-0.793,-0.061,0.366,107.197
139173,157021,12450,-0.002,-0.965,-0.1,-0.854,0.122,0.488,107.203
139203,157178,12606,-0.002,-0.965,-0.1,-0.854,0.122,0.488,107.207
139203,157013,12454,-0.008,-0.948,-0.09,-0.427,0.244,0.488,107.213
139207,157178,12606,-0.008,-0.948,-0.09,-0.427,0.244,0.488,107.217
139207,157047,12447,-0.01,-0.956,-0.102,-0.976,0,0.671,107.223
139225,157178,12606,-0.01,-0.956,-0.102,-0.976,0,0.671,107.227
139225,157086,12451,-0.004,-0.961,-0.103,-1.341,0,0.366,107.233
139235,157178,12606,-0.004,-0.961,-0.103,-1.341,0,0.366,107.237
139235,157069,12458,-0.008,-0.954,-0.095,-0.854,-0.122,0.427,107.243
139220,157178,12606,-0.011,-0.944,-0.096,-0.854,-0.122,0.427,107.247
139220,157061,12449,-0.013,-0.952,-0.109,-1.341,0.061,0.488,107.253
139229,157178,12606,-0.01,-0.966,-0.113,-1.341,0.061,0.488,107.257
139229,157060,12481,-0.004,-0.968,-0.115,-0.915,0.244,0.061,107.263
139228,157178,12606,-0.007,-0.968,-0.113,-0.915,0.244,0.061,107.267
139228,157076,12470,-0.012,-0.962,-0.102,0.549,0.244,0.244,107.273
139218,157178,12606,-0.01,-0.953,-0.103,0.549,0.244,0.244,107.276
139218,157068,12473,-0.011,-0.953,-0.106,1.098,0.427,0.427,107.283
139224,157178,12606,-0.007,-0.959,-0.106,1.098,0.427,0.427,107.286
139224,157044,12462,-0.006,-0.966,-0.104,1.463,0.732,0.122,107.293
139195,157178,12606,-0.002,-0.959,-0.099,1.463,0.732,0.122,107.296
139195,157032,12452,-0.002,-0.952,-0.09,1.829,0.671,0.061,107.302
139186,157178,12606,-0.003,-0.95,-0.086,1.829,0.671,0.061,107.306
139186,157072,12464,-0.006,-0.952,-0.089,0.854,0.549,0.305,107.312
139207,157178,12606,-0.007,-0.959,-0.093,0.854,0.549,0.305,107.316
139207,157038,12447,-0.004,-0.96,-0.092,-0.427,0.427,0.244,107.322
139178,157178,12606,-0.006,-0.953,-0.093,-0.427,0.427,0.244,107.326
139178,157033,12455,-0.009,-0.948,-0.092,-1.524,0.122,0.183,107.332
139162,157178,12606,-0.002,-0.949,-0.09,-1.524,0.122,0.183,107.336
139162,157012,12440,0.004,-0.952,-0.091,-2.317,-0.305,-0.061,107.342
139150,157178,12606,-0,-0.955,-0.103,-2.317,-0.305,-0.061,107.346
139150,157032,12451,-0.004,-0.96,-0.107,-2.561,-0.122,0.122,107.352
139151,157178,12606,-0.004,-0.963,-0.107,-2.561,-0.122,0.122,107.356
139151,156991,12441,-0.001,-0.959,-0.106,-2.012,-0.061,0.488,107.362
139118,157178,12606,-0.006,-0.953,-0.113,-2.012,-0.061,0.488,107.366
139118,156961,12451,-0.01,-0.964,-0.119,-1.402,0.061,0.61,107.372
139104,157178,12606,-0.007,-0.972,-0.112,-1.402,0.061,0.61,107.375
139104,156949,12461,-0.001,-0.969,-0.11,-0.183,0.305,0.549,107.382
139095,157178,12606,-0.006,-0.96,-0.1,-0.183,0.305,0.549,107.385
139095,156970,12452,-0.011,-0.952,-0.091,0.488,0.427,0.732,107.392
139100,157178,12606,-0.014,-0.948,-0.087,0.488,0.427,0.732,107.395
139100,156983,12447,-0.011,-0.943,-0.09,-0.854,0.305,0.671,107.401
139132,157178,12606,-0.009,-0.943,-0.098,-0.854,0.305,0.671,107.405
139132,156989,12446,-0.009,-0.957,-0.105,-2.378,0.122,0.061,107.411
139167,157178,12606,-0.01,-0.969,-0.101,-2.378,0.122,0.061,107.415
139167,157019,12445,-0.006,-0.96,-0.094,-2.439,-0.122,-0.061,107.421
139191,157178,12606,-0.006,-0.947,-0.096,-2.439,-0.122,-0.061,107.425
139191,157051,12452,-0.01,-0.943,-0.106,-2.622,0,0.366,107.431
139208,157178,12606,-0.007,-0.956,-0.119,-2.622,0,0.366,107.435
139208,157054,12461,-0.003,-0.971,-0.119,-2.073,0,0.183,107.441
139197,157178,12606,0.001,-0.97,-0.109,-2.073,0,0.183,107.445
139197,157034,12470,-0.002,-0.961,-0.113,-0.61,-0.122,0.183,107.451
139219,157178,12606,-0.007,-0.96,-0.115,-0.61,-0.122,0.183,107.455
139219,157083,12469,-0.005,-0.968,-0.117,0.793,0.488,0.671,107.461
139194,157178,12606,0.002,-0.968,-0.117,0.793,0.488,0.671,107.465
139194,157056,12461,-0.003,-0.966,-0.11,2.5,0.732,0.61,107.471
139219,157178,12606,-0.005,-0.962,-0.115,2.5,0.732,0.61,107.474
139219,157051,12459,-0.011,-0.969,-0.119,3.78,1.098,0.793,107.481
139212,157178,12606,-0.011,-0.971,-0.103,3.78,1.098,0.793,107.484
139212,157080,12471,-0.005,-0.951,-0.091,4.451,1.28,0.61,107.491
139195,157178,12606,-0.009,-0.942,-0.083,4.451,1.28,0.61,107.494
139195,157071,12460,-0.018,-0.938,-0.078,2.866,1.098,0.488,107.5
139182,157178,12606,-0.015,-0.943,-0.084,2.866,1.098,0.488,107.504
139182,157051,12459,-0.01,-0.947,-0.089,0.427,0.732,0.061,107.51
139220,157178,12606,-0.012,-0.953,-0.095,0.427,0.732,0.061,107.514
139220,157097,12452,-0.01,-0.958,-0.092,-1.037,0.427,-0.427,107.52
139201,157178,12606,-0.007,-0.949,-0.089,-1.037,0.427,-0.427,107.524
139201,157077,12445,-0.007,-0.944,-0.09,-1.524,0.122,-0.427,107.53
139201,157178,12606,-0.009,-0.952,-0.099,-1.524,0.122,-0.427,107.534
139201,157057,12465,-0.008,-0.965,-0.108,-1.829,0.122,-0.427,107.54
139194,157178,12606,-0.008,-0.97,-0.107,-1.829,0.122,-0.427,107.544
139194,157061,12458,-0.015,-0.967,-0.102,-1.098,0.122,-0.732,107.55
139165,157178,12606,0.004,-0.956,-0.091,-1.098,0.122,-0.732,107.554
139165,157049,12473,0.014,-0.953,-0.097,-0.488,-0.244,-0.915,107.56
139184,157178,12606,0.001,-0.962,-0.101,-0.488,-0.244,-0.915,107.564
139184,157051,12449,0.001,-0.967,-0.106,-0.244,0.244,-0.183,107.57
139215,157178,12606,0.005,-0.958,-0.104,-0.244,0.244,-0.183,107.574
139215,157066,12447,0.002,-0.955,-0.097,0.183,0.488,0.427,107.58
139227,157178,12606,-0.001,-0.951,-0.098,0.183,0.488,0.427,107.583
139227,157116,12458,-0.001,-0.951,-0.098,0.183,0.488,0.793,107.59
139228,157178,12606,-0.002,-0.953,-0.094,0.183,0.488,0.793,107.593
139228,157101,12459,-0.001,-0.948,-0.096,-0.244,0.244,0.915,107.599
139234,157178,12606,-0.005,-0.95,-0.093,-0.244,0.244,0.915,107.603
139234,157098,12452,-0.005,-0.948,-0.096,-1.28,0.122,0.976,107.609
139199,157178,12606,-0.009,-0.957,-0.11,-1.28,0.122,0.976,107.613
139199,157073,12460,-0.005,-0.961,-0.108,-2.134,0,0.793,107.619
139188,157178,12606,-0.007,-0.96,-0.106,-2.134,0,0.793,107.623
139188,157047,12461,-0.007,-0.963,-0.109,-2.012,-0.122,0.671,107.629
139160,157178,12606,-0.009,-0.964,-0.11,-2.012,-0.122,0.671,107.633
139160,157024,12449,-0.01,-0.961,-0.103,-1.524,0.183,0.549,107.639
139148,157178,12606,-0.013,-0.96,-0.106,-1.524,0.183,0.549,107.643
139148,157032,12445,-0.012,-0.961,-0.104,-0.61,0.427,0.366,107.649
139162,157178,12606,-0.01,-0.961,-0.102,-0.61,0.427,0.366,107.653
139162,157026,12450,-0.011,-0.959,-0.101,-0.122,0.61,0.122,107.659
139162,157178,12606,-0.011,-0.966,-0.103,-0.122,0.61,0.122,107.663
139162,157029,12461,-0.01,-0.966,-0.102,0.61,0.732,0.061,107.669
139151,157178,12606,-0.005,-0.955,-0.098,0.61,0.732,0.061,107.672
139151,157053,12455,-0.009,-0.953,-0.101,0.793,0.732,0,107.679
139167,157178,12606,-0.009,-0.953,-0.101,0.793,0.732,0,107.682
139167,157050,12444,-0.006,-0.958,-0.097,0.61,0.793,0,107.689
139140,157178,12606,-0.006,-0.958,-0.097,0.61,0.793,0,107.692
139140,157045,12469,-0.004,-0.952,-0.097,0.244,0.671,-0.061,107.698
139125,157178,12606,-0.004,-0.952,-0.097,0.244,0.671,-0.061,107.702
139125,157008,12452,-0.003,-0.958,-0.096,-0.366,0.549,0.122,107.708
139148,157178,12606,-0.003,-0.958,-0.096,-0.366,0.549,0.122,107.712
139148,157040,12451,-0.002,-0.952,-0.104,-0.976,0.305,0.122,107.718
139172,157178,12606,-0.002,-0.952,-0.104,-0.976,0.305,0.122,107.722
139172,157069,12466,-0.001,-0.959,-0.107,-1.098,0.183,0.305,107.728
139198,157178,12606,-0.001,-0.959,-0.107,-1.098,0.183,0.305,107.732
139198,157101,12462,-0.007,-0.958,-0.114,-0.732,0.061,0.427,107.738
139219,157178,12606,-0.007,-0.958,-0.114,-0.732,0.061,0.427,107.742
139219,157136,12466,0.001,-0.966,-0.11,0.244,0.122,0.427,107.748
139267,157178,12606,0.001,-0.966,-0.11,0.244,0.122,0.427,107.752
139267,157147,12460,-0.006,-0.954,-0.104,1.341,0.305,0.549,107.758
139273,157178,12606,-0.006,-0.954,-0.104,1.341,0.305,0.549,107.762
139273,157124,12452,-0.006,-0.958,-0.098,1.951,0.305,0.549,107.768
139258,157178,12606,-0.006,-0.958,-0.098,1.951,0.305,0.549,107.772
139258,157134,12476,-0.008,-0.956,-0.097,1.707,0.488,0.305,107.778
139271,157178,12606,-0.008,-0.956,-0.097,1.707,0.488,0.305,107.781
139271,157109,12464,-0.005,-0.944,-0.072,0.671,0.366,0.488,107.788
139280,157178,12606,-0.005,-0.944,-0.072,0.671,0.366,0.488,107.791
139280,157141,12479,-0.009,-0.949,-0.1,-1.402,0.488,0.549,107.797
139291,157178,12606,-0.009,-0.949,-0.1,-1.402,0.488,0.549,107.801
139291,157165,12471,0.001,-0.971,-0.107,-1.646,0.488,0,107.807
139277,157178,12606,0.001,-0.971,-0.107,-1.646,0.488,0,107.811
139277,157162,12479,-0.008,-0.958,-0.106,-0.244,0.549,0.305,107.817
139292,157434,12606,-0.008,-0.958,-0.106,-0.244,0.549,0.305,107.821
139292,157191,12465,-0.012,-0.96,-0.109,0.671,0.671,0.549,107.827
139285,157178,12606,-0.012,-0.96,-0.109,0.671,0.671,0.549,107.831
139285,157165,12480,-0.006,-0.963,-0.105,0.671,0.671,0.549,107.837
139282,157178,12606,-0.002,-0.962,-0.107,1.341,0.61,0.122,107.841
139282,157156,12466,-0.007,-0.961,-0.104,1.341,0.61,0.122,107.847
139272,157178,12606,-0.006,-0.957,-0.104,2.012,0.793,0.122,107.851
139272,157115,12467,-0.006,-0.951,-0.1,2.012,0.793,0.122,107.857
139225,157178,12606,-0.004,-0.945,-0.095,2.195,0.854,0.122,107.861
139225,157101,12455,-0.006,-0.953,-0.1,2.195,0.854,0.122,107.867
139205,157178,12606,-0.008,-0.957,-0.091,1.829,0.976,0.122,107.871
139205,157073,12458,-0.006,-0.949,-0.089,1.829,0.976,0.122,107.877
139167,157178,12606,-0.004,-0.951,-0.094,1.22,0.854,0.061,107.88
139167,157031,12453,-0.007,-0.956,-0.094,1.22,0.854,0.061,107.887
139119,157178,12606,-0.003,-0.965,-0.094,0.244,0.61,0.122,107.89
139119,157012,12460,-0,-0.962,-0.09,0.244,0.61,0.122,107.896
139099,157178,12606,-0.001,-0.953,-0.079,-0.732,0.244,0.122,107.9
139099,156971,12427,-0.004,-0.949,-0.085,-0.732,0.244,0.122,107.906
139068,157178,12606,-0.008,-0.956,-0.095,-2.439,0.122,0.305,107.91
139068,156944,12445,-0.001,-0.965,-0.103,-2.439,0.122,0.305,107.916
139035,156922,12606,0.004,-0.964,-0.111,-3.293,0.061,0.305,107.92
139035,156912,12436,0,-0.962,-0.115,-3.293,0.061,0.305,107.926
139029,157178,12606,-0.001,-0.966,-0.113,-2.439,-0.061,0.61,107.93
139029,156952,12440,0.001,-0.965,-0.111,-2.439,-0.061,0.61,107.936
139028,156922,12606,-0.001,-0.961,-0.115,-1.159,0.122,0.915,107.94
139028,156921,12434,-0.005,-0.966,-0.119,-1.159,0.122,0.915,107.946
139011,157178,12606,-0.007,-0.975,-0.122,0.122,0.732,0.915,107.95
139011,156948,12433,-0.004,-0.97,-0.116,0.122,0.732,0.915,107.956
139017,157178,12606,-0.005,-0.959,-0.108,1.829,0.976,0.793,107.96
139017,156954,12435,-0.01,-0.957,-0.091,1.829,0.976,0.793,107.966
139061,157178,12606,-0.008,-0.938,-0.065,2.317,1.098,0.854,107.97
139061,156960,12456,-0.01,-0.926,-0.077,2.317,1.098,0.854,107.976
139080,157178,12606,-0.019,-0.944,-0.101,-0.244,1.037,0.732,107.979
139080,156985,12455,-0.013,-0.967,-0.102,-0.244,1.037,0.732,107.986
139115,157178,12606,-0.002,-0.965,-0.092,-0.976,0.793,-0.061,107.989
139115,157012,12452,-0.005,-0.951,-0.085,-0.976,0.793,-0.061,107.996
139132,157178,12606,-0.014,-0.936,-0.081,-1.341,0.305,0.061,107.999
139132,157038,12468,-0.016,-0.935,-0.087,-1.341,0.305,0.061,108.005
139154,157178,12606,-0.011,-0.957,-0.106,-2.744,0.122,0.122,108.009
139154,157060,12445,-0.006,-0.972,-0.105,-2.744,0.122,0.122,108.015
139180,157178,12606,-0,-0.97,-0.101,-2.378,-0.122,-0.549,108.019
139180,157073,12464,-0.001,-0.965,-0.102,-2.378,-0.122,-0.549,108.025
139233,157178,12606,-0.008,-0.957,-0.11,-1.463,-0.122,0,108.029
139233,157094,12465,-0.009,-0.96,-0.118,-1.463,-0.122,0,108.035
139257,157178,12606,-0.004,-0.968,-0.12,-0.244,0.183,0.305,108.039
139257,157150,12460,0.005,-0.974,-0.124,-0.244,0.183,0.305,108.045
139296,157434,12606,0.002,-0.973,-0.123,1.768,0.488,0.244,108.049
139296,157184,12472,-0.001,-0.963,-0.117,1.768,0.488,0.244,108.055
139356,157434,12606,-0.004,-0.957,-0.107,3.537,0.854,0.793,108.059
139356,157235,12487,-0.003,-0.952,-0.096,3.537,0.854,0.793,108.065
139367,157434,12606,-0.004,-0.948,-0.088,3.902,0.854,0.915,108.069
139367,157252,12482,-0.007,-0.947,-0.086,3.902,0.854,0.915,108.075
139378,157434,12606,-0.01,-0.949,-0.085,2.134,0.854,0.732,108.078
139378,157253,12479,-0.007,-0.952,-0.083,2.134,0.854,0.732,108.085
139374,157434,12606,-0.005,-0.957,-0.096,-0.244,0.427,0.427,108.088
139374,157247,12478,-0.01,-0.957,-0.101,-0.244,0.427,0.427,108.095
139333,157434,12606,-0.009,-0.958,-0.098,-1.22,0.244,0.183,108.098
139333,157215,12477,-0.009,-0.951,-0.096,-1.22,0.244,0.183,108.104
139307,157178,12606,-0.011,-0.953,-0.104,-1.159,0.244,0,108.108
139307,157172,12498,-0.015,-0.959,-0.108,-1.159,0.244,0,108.114
139296,157434,12606,-0.017,-0.973,-0.111,-0.793,0.488,-0.366,108.118
139296,157201,12477,0.004,-0.968,-0.109,-0.793,0.488,-0.366,108.124
139278,157434,12606,0.01,-0.96,-0.108,0.427,0.244,-0.976,108.128
139278,157189,12462,-0.008,-0.966,-0.101,0.427,0.244,-0.976,108.134
139244,157178,12606,-0.013,-0.964,-0.091,1.22,0.854,-0.244,108.138
139244,157122,12474,-0.006,-0.949,-0.09,1.22,0.854,-0.244,108.144
139204,157178,12606,-0.003,-0.952,-0.097,0.671,0.671,-0.122,108.148
139204,157104,12458,-0.001,-0.961,-0.095,0.671,0.671,-0.122,108.154
139159,157178,12606,0.002,-0.958,-0.088,0.671,0.488,-0.244,108.158
139159,157041,12458,-0.001,-0.95,-0.083,0.671,0.488,-0.244,108.164
139136,157178,12606,-0.001,-0.936,-0.085,0.061,0.183,0.122,108.168
139136,157051,12456,-0.002,-0.934,-0.088,0.061,0.183,0.122,108.174
139067,157178,12606,0,-0.946,-0.094,-1.341,0.061,0.427,108.177
139067,157003,12435,-0.004,-0.955,-0.102,-1.341,0.061,0.427,108.184
139049,157178,12606,-0.002,-0.962,-0.104,-1.768,-0.122,0.488,108.187
139049,156954,12429,-0.003,-0.954,-0.098,-1.768,-0.122,0.488,108.194
139020,157178,12606,-0.003,-0.95,-0.096,-1.646,-0.305,0.793,108.197
139020,156939,12432,-0.006,-0.956,-0.104,-1.646,-0.305,0.793,108.203
138990,156922,12606,-0.006,-0.964,-0.111,-1.951,-0.061,0.732,108.207
138990,156910,12448,-0.002,-0.973,-0.113,-1.951,-0.061,0.732,108.213
138975,156922,12606,-0.004,-0.966,-0.109,-1.28,0.183,0.427,108.217
138975,156901,12441,-0.006,-0.957,-0.11,-1.28,0.183,0.427,108.223
138988,156922,12606,-0.005,-0.958,-0.109,-0.122,0.488,0.488,108.227
138988,156918,12432,-0.007,-0.96,-0.106,-0.122,0.488,0.488,108.233
139021,157178,12606,-0.007,-0.961,-0.104,0.793,0.854,0.427,108.237
139021,156944,12435,-0.008,-0.958,-0.106,0.793,0.854,0.427,108.243
139038,157178,12606,-0.01,-0.956,-0.104,1.22,1.098,0.366,108.247
139038,156967,12434,-0.008,-0.961,-0.105,1.22,1.098,0.366,108.253
139039,157178,12606,-0.007,-0.96,-0.098,1.707,1.098,0.305,108.257
139039,156980,12441,-0.002,-0.957,-0.098,1.707,1.098,0.305,108.263
139049,157178,12606,-0.003,-0.959,-0.098,1.463,1.037,0.305,108.267
139049,156956,12447,-0.01,-0.957,-0.09,1.463,1.037,0.305,108.273
139006,157178,12606,-0.01,-0.957,-0.09,1.463,1.037,0.305,108.276
139006,156947,12432,-0,-0.952,-0.087,0.854,1.098,0.183,108.283
138999,157178,12606,-0,-0.952,-0.087,0.854,1.098,0.183,108.286
138999,156934,12431,-0.007,-0.958,-0.107,-0.549,0.854,0.244,108.293
138979,157178,12606,-0.007,-0.958,-0.107,-0.549,0.854,0.244,108.296
138979,156934,12429,0.001,-0.959,-0.098,-0.976,0.793,0.183,108.302
138949,156922,12606,0.001,-0.959,-0.098,-0.976,0.793,0.183,108.306
138949,156912,12436,-0.009,-0.957,-0.104,0.061,0.549,0.305,108.312
138962,156922,12606,-0.009,-0.957,-0.104,0.061,0.549,0.305,108.316
138962,156912,12427,0.001,-0.962,-0.101,0.305,0.671,0.488,108.322
138977,157178,12606,0.001,-0.962,-0.101,0.305,0.671,0.488,108.326
138977,156944,12433,-0.005,-0.962,-0.098,0.793,0.61,0.427,108.332
139027,157178,12606,-0.005,-0.962,-0.098,0.793,0.61,0.427,108.336
139027,156972,12451,-0.005,-0.95,-0.084,0.915,0.671,0.488,108.342
139064,157178,12606,-0.005,-0.95,-0.084,0.915,0.671,0.488,108.346
139064,157001,12442,-0.013,-0.948,-0.099,-0.061,0.488,0.488,108.352
139109,157178,12606,-0.013,-0.948,-0.099,-0.061,0.488,0.488,108.356
139109,157028,12451,0,-0.962,-0.095,-1.463,0.366,0.244,108.362
139101,157178,12606,0,-0.962,-0.095,-1.463,0.366,0.244,108.366
139101,157020,12443,-0.006,-0.95,-0.099,-1.463,0.122,0,108.372
139070,157178,12606,-0.006,-0.95,-0.099,-1.463,0.122,0,108.375
139070,157014,12449,-0.006,-0.963,-0.1,-1.524,0.183,0.183,108.382
139069,157178,12606,-0.006,-0.963,-0.1,-1.524,0.183,0.183,108.385
139069,157005,12448,-0.004,-0.956,-0.092,-0.976,0,0.061,108.392
139061,157178,12606,-0.004,-0.956,-0.092,-0.976,0,0.061,108.395
139061,157006,12453,-0.006,-0.952,-0.094,-0.915,0,0.244,108.401
139084,157178,12606,-0.006,-0.952,-0.094,-0.915,0,0.244,108.405
139084,157016,12448,-0.002,-0.965,-0.11,-1.646,0.061,0.305,108.411
139091,157178,12606,-0.002,-0.965,-0.11,-1.646,0.061,0.305,108.415
139091,157037,12448,0.001,-0.963,-0.113,-1.037,0.183,-0.122,108.421
139127,157178,12606,0.001,-0.963,-0.113,-1.037,0.183,-0.122,108.425
139127,157064,12464,-0.002,-0.954,-0.109,0.183,0.183,0.244,108.431
139140,157178,12606,-0.008,-0.961,-0.104,0.183,0.183,0.244,108.435
139140,157077,12464,-0.006,-0.961,-0.101,1.159,0.427,0.366,108.441
139151,157178,12606,-0.003,-0.957,-0.102,1.159,0.427,0.366,108.445
139151,157060,12449,-0.004,-0.963,-0.107,1.707,0.671,0.183,108.451
139138,157178,12606,-0.007,-0.962,-0.094,1.707,0.671,0.183,108.455
139138,157063,12451,-0.003,-0.956,-0.087,1.707,0.732,0.244,108.461
139141,157178,12606,-0.004,-0.942,-0.092,1.707,0.732,0.244,108.465
139141,157069,12444,-0.01,-0.951,-0.102,0.305,0.488,0.305,108.471
139094,157178,12606,-0.004,-0.971,-0.106,0.305,0.488,0.305,108.474
139094,157034,12436,0.006,-0.968,-0.102,-0.061,0.488,0,108.481
139069,157178,12606,0.002,-0.96,-0.094,-0.061,0.488,0,108.484
139069,157004,12439,-0.006,-0.946,-0.096,-0.183,0.549,0.244,108.491
139013,157178,12606,-0.006,-0.948,-0.102,-0.183,0.549,0.244,108.494
139013,156980,12443,-0.004,-0.963,-0.106,-0.671,0.61,0.61,108.5
138931,156922,12606,0.001,-0.97,-0.108,-0.671,0.61,0.61,108.504
138931,156892,12426,-0.002,-0.967,-0.105,0,0.732,0.244,108.51
138881,156922,12606,-0.001,-0.959,-0.102,0,0.732,0.244,108.514
138881,156854,12417,-0.004,-0.951,-0.1,0.854,0.732,0.488,108.52
138831,156922,12606,-0.007,-0.951,-0.096,0.854,0.732,0.488,108.524
138831,156835,12428,-0.004,-0.953,-0.091,1.28,0.732,0.427,108.53
138807,156922,12606,-0.004,-0.954,-0.095,1.28,0.732,0.427,108.534
138807,156817,12413,-0.006,-0.96,-0.095,0.61,0.61,0.305,108.54
138811,156922,12606,-0.004,-0.952,-0.088,0.61,0.61,0.305,108.544
138811,156798,12416,-0.006,-0.943,-0.091,-0.122,0.488,0.305,108.55
138801,156922,12606,-0.012,-0.953,-0.096,-0.122,0.488,0.305,108.554
138801,156794,12407,-0.008,-0.958,-0.098,-0.793,0.366,0.122,108.56
138747,156922,12606,-0.004,-0.954,-0.098,-0.793,0.366,0.122,108.564
138747,156763,12417,-0.004,-0.955,-0.099,-1.037,0.244,0,108.57
138756,156922,12606,-0.008,-0.963,-0.101,-1.037,0.244,0,108.573
138756,156754,12410,-0.004,-0.962,-0.101,-0.854,0.122,0.061,108.58
138722,156922,12606,-0.003,-0.954,-0.094,-0.854,0.122,0.061,108.583
138722,156725,12408,-0.005,-0.946,-0.087,-1.037,-0.244,0.305,108.59
138697,156922,12606,-0.006,-0.951,-0.098,-1.037,-0.244,0.305,108.593
138697,156704,12400,-0.002,-0.96,-0.101,-1.524,-0.122,0.427,108.599
138716,156922,12606,0.002,-0.96,-0.101,-1.524,-0.122,0.427,108.603
138716,156703,12418,0.003,-0.954,-0.101,-1.463,-0.122,0.488,108.609
138688,156922,12606,-0.002,-0.953,-0.111,-1.463,-0.122,0.488,108.613
138688,156699,12398,-0.003,-0.965,-0.11,-1.037,0.061,0.671,108.619
138675,156666,12606,0.002,-0.972,-0.109,-1.037,0.061,0.671,108.623
138675,156669,12415,0.002,-0.965,-0.102,0.061,0.061,0.671,108.629
138678,156922,12606,-0.006,-0.958,-0.106,0.061,0.061,0.671,108.633
138678,156712,12395,-0.011,-0.965,-0.104,0.732,0.366,0.915,108.639
138691,156922,12606,-0.004,-0.967,-0.091,0.732,0.366,0.915,108.643
138691,156697,12406,-0.004,-0.949,-0.088,0.549,0.427,0.671,108.649
138643,156922,12606,-0.011,-0.947,-0.097,0.549,0.427,0.671,108.653
138643,156704,12397,-0.013,-0.955,-0.096,-0.488,0.549,0.427,108.659
138628,156666,12606,-0.008,-0.958,-0.097,-0.488,0.549,0.427,108.663
138628,156659,12413,-0.01,-0.96,-0.099,-0.976,0.427,0.061,108.669
138620,156666,12606,-0.011,-0.961,-0.095,-0.976,0.427,0.061,108.672
138620,156631,12387,-0.009,-0.955,-0.098,-1.22,0.488,-0.061,108.679
138606,156666,12606,-0.009,-0.956,-0.103,-1.22,0.488,-0.061,108.682
138606,156621,12393,-0.01,-0.963,-0.111,-1.463,0.61,-0.305,108.689
138577,156666,12606,-0.007,-0.967,-0.117,-1.463,0.61,-0.305,108.692
138577,156647,12396,-0.005,-0.967,-0.111,-0.305,0.793,-0.427,108.698
138574,156666,12606,-0.001,-0.969,-0.109,-0.305,0.793,-0.427,108.702
138574,156628,12399,-0,-0.965,-0.103,1.22,0.976,-0.122,108.708
138584,156666,12606,0.001,-0.96,-0.095,1.22,0.976,-0.122,108.712
138584,156627,12384,0.001,-0.954,-0.097,1.707,1.098,0.244,108.718
138615,156666,12606,0.001,-0.956,-0.101,1.707,1.098,0.244,108.722
138615,156654,12383,0.001,-0.96,-0.102,1.951,1.098,0.366,108.728
138627,156666,12606,0.001,-0.962,-0.093,1.951,1.098,0.366,108.732
138627,156656,12388,0.003,-0.95,-0.088,2.622,0.793,0.61,108.738
138649,156666,12606,-0.002,-0.936,-0.092,2.622,0.793,0.61,108.742
138649,156668,12385,-0.007,-0.945,-0.091,1.951,0.671,0.854,108.748
138680,156922,12606,-0.001,-0.955,-0.085,1.951,0.671,0.854,108.752
138680,156699,12400,-0,-0.95,-0.088,0.793,0.183,0.549,108.758
138667,156922,12606,-0.006,-0.948,-0.09,0.793,0.183,0.549,108.762
138667,156700,12399,-0.008,-0.949,-0.092,-0.549,-0.183,0.61,108.768
138701,156922,12606,-0.009,-0.952,-0.099,-0.549,-0.183,0.61,108.771
138701,156724,12412,-0.004,-0.961,-0.106,-1.402,-0.366,0.549,108.778
138718,156922,12606,-0.002,-0.964,-0.105,-1.402,-0.366,0.549,108.781
138718,156729,12399,-0.002,-0.964,-0.102,-1.341,-0.183,0.305,108.788
138727,156922,12606,-0.004,-0.956,-0.101,-1.341,-0.183,0.305,108.791
138727,156726,12404,-0.008,-0.957,-0.098,-1.098,0.122,0.549,108.797
138733,156922,12606,-0.009,-0.969,-0.102,-1.098,0.122,0.549,108.801
138733,156739,12417,-0.004,-0.975,-0.104,-0.793,0.183,0.427,108.807
138709,156922,12606,-0.001,-0.966,-0.102,-0.793,0.183,0.427,108.811
138709,156733,12407,-0.003,-0.953,-0.094,-0.549,0.305,0.305,108.817
138731,156922,12606,-0.009,-0.949,-0.1,-0.549,0.305,0.305,108.821
138731,156746,12412,-0.01,-0.959,-0.108,-0.549,0.549,0.427,108.827
138763,156922,12606,-0.005,-0.967,-0.104,-0.549,0.549,0.427,108.831
138763,156765,12407,0.002,-0.959,-0.093,0.183,0.61,0.061,108.837
138762,156922,12606,-0.001,-0.943,-0.088,0.183,0.61,0.061,108.841
138762,156788,12417,-0.008,-0.937,-0.095,0.061,0.549,0.305,108.847
138787,156922,12606,-0.007,-0.954,-0.097,0.061,0.549,0.305,108.851
138787,156820,12417,-0.002,-0.96,-0.094,-0.549,0.488,0.122,108.857
138779,156922,12606,-0.003,-0.953,-0.09,-0.549,0.488,0.122,108.861
138779,156818,12408,-0.004,-0.948,-0.087,-1.159,0.122,0,108.867
138778,156922,12606,-0.004,-0.948,-0.087,-1.159,0.122,0,108.87
138778,156810,12411,-0.002,-0.961,-0.103,-2.5,0,0.183,108.877
138748,156922,12606,-0.002,-0.961,-0.103,-2.5,0,0.183,108.88
138748,156785,12415,-0.001,-0.96,-0.104,-2.561,0.061,0.061,108.887
138706,156922,12606,-0.001,-0.96,-0.104,-2.561,0.061,0.061,108.89
138706,156765,12417,-0.003,-0.962,-0.116,-2.073,0.183,0.305,108.896
138717,156922,12606,-0.003,-0.962,-0.116,-2.073,0.183,0.305,108.9
138717,156777,12400,-0.002,-0.965,-0.098,-0.854,0.366,0.305,108.906
138716,156922,12606,-0.002,-0.965,-0.098,-0.854,0.366,0.305,108.91
138716,156775,12396,-0.008,-0.949,-0.1,-0.488,0.427,0.488,108.916
138747,156922,12606,-0.008,-0.949,-0.1,-0.488,0.427,0.488,108.92
138747,156734,12415,-0.004,-0.96,-0.1,-0.488,0.366,0.549,108.926
138707,156922,12606,-0.004,-0.96,-0.1,-0.488,0.366,0.549,108.93
138707,156713,12407,-0.005,-0.953,-0.099,-0.244,0.244,0.366,108.936
138670,156922,12606,-0.005,-0.953,-0.099,-0.244,0.244,0.366,108.94
138670,156713,12406,-0.004,-0.956,-0.092,-0.732,0,0.366,108.946
138642,156666,12606,-0.004,-0.956,-0.092,-0.732,0,0.366,108.95
138642,156662,12391,-0.004,-0.949,-0.095,-1.463,-0.122,0.366,108.956
138590,156666,12606,-0.004,-0.949,-0.095,-1.463,-0.122,0.366,108.96
138590,156629,12397,-0.006,-0.969,-0.109,-2.012,0,0.244,108.966
138589,156666,12606,-0.006,-0.969,-0.109,-2.012,0,0.244,108.969
138589,156637,12392,-0.003,-0.961,-0.104,-1.524,-0.122,0.183,108.976
138581,156666,12606,-0.003,-0.961,-0.104,-1.524,-0.122,0.183,108.979
138581,156619,12397,-0.008,-0.964,-0.11,-1.22,0.305,0.366,108.986
138586,156666,12606,-0.008,-0.964,-0.11,-1.22,0.305,0.366,108.989
138586,156654,12393,-0.005,-0.963,-0.102,-0.061,0.427,0.122,108.995
138601,156666,12606,-0.005,-0.963,-0.102,-0.061,0.427,0.122,108.999
138601,156652,12390,-0.008,-0.958,-0.106,-0.061,0.671,0.183,109.005
138639,156922,12606,-0.008,-0.958,-0.106,-0.061,0.671,0.183,109.009
138639,156689,12389,-0.006,-0.965,-0.105,-0.061,0.671,0.183,109.015
138644,156922,12606,-0.005,-0.964,-0.1,-0.061,0.549,0.183,109.019
138644,156683,12404,-0.007,-0.957,-0.106,-0.061,0.549,0.183,109.025
138622,156922,12606,-0.005,-0.952,-0.107,0.244,0.61,0.122,109.029
138622,156686,12400,-0.003,-0.954,-0.106,0.244,0.61,0.122,109.035
138646,156922,12606,-0.001,-0.959,-0.108,0.915,0.793,0,109.039
138646,156683,12389,-0.006,-0.958,-0.106,0.915,0.793,0,109.045
138628,156922,12606,-0.013,-0.954,-0.101,1.585,0.793,-0.061,109.049
138628,156674,12396,0.005,-0.951,-0.09,1.585,0.793,-0.061,109.055
138622,156922,12606,0.014,-0.946,-0.08,1.402,0.122,-0.488,109.059
138622,156693,12397,-0.001,-0.944,-0.075,1.402,0.122,-0.488,109.065
138603,156922,12606,-0.007,-0.948,-0.074,-0.366,0.244,0.244,109.068
138603,156678,12394,-0.001,-0.944,-0.077,-0.366,0.244,0.244,109.075
138603,156666,12606,-0.002,-0.943,-0.09,-3.049,-0.183,0.61,109.078
138603,156651,12401,-0.003,-0.958,-0.094,-3.049,-0.183,0.61,109.085
138622,156922,12606,-0.004,-0.966,-0.103,-4.329,-0.366,0.305,109.088
138622,156681,12396,0.002,-0.961,-0.109,-4.329,-0.366,0.305,109.094
138623,156666,12606,-0,-0.957,-0.112,-3.902,-0.488,0.488,109.098
138623,156671,12399,-0.002,-0.959,-0.113,-3.902,-0.488,0.488,109.104
138644,156922,12606,-0.003,-0.961,-0.119,-2.5,-0.183,0.671,109.108
138644,156715,12397,-0.005,-0.965,-0.12,-2.5,-0.183,0.671,109.114
138666,156922,12606,-0.004,-0.967,-0.117,-0.61,0.061,0.671,109.118
138666,156741,12401,-0.006,-0.969,-0.116,-0.61,0.061,0.671,109.124
138701,156922,12606,-0.005,-0.968,-0.109,0.976,0.061,0.854,109.128
138701,156746,12401,-0.006,-0.96,-0.096,0.976,0.061,0.854,109.134
138711,156922,12606,-0.006,-0.952,-0.095,1.098,0.244,0.854,109.138
138711,156778,12411,-0.01,-0.953,-0.098,1.098,0.244,0.854,109.144
138720,156922,12606,-0.005,-0.959,-0.105,0.183,0.366,0.549,109.148
138720,156778,12406,-0.001,-0.962,-0.103,0.183,0.366,0.549,109.154
138727,156922,12606,-0.001,-0.958,-0.105,0,0.427,0.183,109.158
138727,156748,12412,-0.007,-0.957,-0.108,0,0.427,0.183,109.164
138700,156922,12606,-0.006,-0.955,-0.107,0.122,0.549,0.244,109.167
138700,156753,12410,-0.002,-0.951,-0.101,0.122,0.549,0.244,109.174
138699,156922,12606,-0.005,-0.951,-0.1,0.305,0.427,0.244,109.177
138699,156746,12415,-0.005,-0.953,-0.105,0.305,0.427,0.244,109.184
138683,156922,12606,-0.001,-0.959,-0.11,0.244,0.488,0.122,109.187
138683,156746,12419,0.001,-0.963,-0.107,0.244,0.488,0.122,109.193
138711,156922,12606,-0.001,-0.964,-0.1,0.793,0.488,0.305,109.197
138711,156755,12416,-0.003,-0.956,-0.097,0.793,0.488,0.305,109.203
138741,156922,12606,-0.003,-0.953,-0.103,1.098,0.549,0.427,109.207
138741,156799,12409,-0.003,-0.955,-0.111,1.098,0.549,0.427,109.213
138788,156922,12606,-0.003,-0.959,-0.109,1.28,0.732,0.183,109.217
138788,156836,12434,-0.001,-0.966,-0.1,1.28,0.732,0.183,109.223
138841,156922,12606,-0.003,-0.955,-0.077,1.646,0.732,0.366,109.227
138841,156864,12428,-0.002,-0.928,-0.079,1.646,0.732,0.366,109.233
138844,156922,12606,-0.016,-0.935,-0.101,-0.061,0.427,0.854,109.237
138844,156878,12422,-0.014,-0.969,-0.11,-0.061,0.427,0.854,109.243
138885,156922,12606,0.001,-0.985,-0.098,-0.793,0.366,0.183,109.247
138885,156923,12433,0.005,-0.959,-0.083,-0.793,0.366,0.183,109.253
138890,157178,12606,-0.01,-0.935,-0.09,-1.402,-0.122,0.305,109.257
138890,156951,12436,-0.016,-0.946,-0.111,-1.402,-0.122,0.305,109.263
138938,157178,12606,-0.006,-0.973,-0.116,-2.622,0.183,0.488,109.266
138938,156969,12451,0.007,-0.98,-0.108,-2.622,0.183,0.488,109.273
138969,157178,12606,0,-0.967,-0.099,-1.585,0,-0.122,109.276
138969,157013,12462,-0.006,-0.946,-0.107,-1.585,0,-0.122,109.283
139018,157178,12606,-0.007,-0.951,-0.112,-1.341,0.366,0.366,109.286
139018,157021,12441,-0.007,-0.963,-0.106,-1.341,0.366,0.366,109.292
139049,157178,12606,0.001,-0.958,-0.097,-0.61,0.366,0.122,109.296
139049,157061,12451,-0.003,-0.944,-0.094,-0.61,0.366,0.122,109.302
139062,157178,12606,-0.01,-0.946,-0.105,-0.793,0.366,0.183,109.306
139062,157065,12459,-0.007,-0.956,-0.11,-0.793,0.366,0.183,109.312
139092,157178,12606,0.001,-0.962,-0.109,-0.488,0.61,0.122,109.316
139092,157075,12466,-0,-0.956,-0.106,-0.488,0.61,0.122,109.322
139122,157178,12606,-0.006,-0.952,-0.104,0.366,0.427,0.244,109.326
139122,157107,12469,-0.006,-0.954,-0.097,0.366,0.427,0.244,109.332
139117,157178,12606,-0.001,-0.955,-0.092,0.366,0.366,0.488,109.336
139117,157102,12465,-0.001,-0.952,-0.096,0.366,0.366,0.488,109.342
139097,157178,12606,-0.003,-0.954,-0.106,-0.61,0.244,0.366,109.346
139097,157081,12465,-0.005,-0.965,-0.103,-0.61,0.244,0.366,109.352
139058,157178,12606,-0.001,-0.964,-0.098,-0.732,0.305,0.244,109.356
139058,157052,12452,-0.002,-0.954,-0.099,-0.732,0.305,0.244,109.362
139008,157178,12606,-0.006,-0.957,-0.109,-1.159,0.305,0.366,109.365
139008,156999,12454,-0.006,-0.965,-0.115,-1.159,0.305,0.366,109.372
138964,157178,12606,-0.002,-0.97,-0.111,-0.976,0.427,0.244,109.375
138964,156978,12436,-0.003,-0.961,-0.103,-0.976,0.427,0.244,109.382
138949,157178,12606,-0.009,-0.952,-0.104,0,0.427,0.305,109.385
138949,156966,12433,-0.007,-0.954,-0.105,0,0.427,0.305,109.391
138926,157178,12606,-0.006,-0.96,-0.107,0.427,0.427,0.427,109.395
138926,156972,12440,-0.004,-0.956,-0.11,0.427,0.427,0.427,109.401
138959,157178,12606,-0.004,-0.96,-0.103,0.793,0.427,0.183,109.405
138959,156974,12437,-0.006,-0.96,-0.09,0.793,0.427,0.183,109.411
138968,157178,12606,-0.001,-0.945,-0.093,0.549,0.488,0.305,109.415
138968,157000,12451,-0.004,-0.946,-0.104,0.549,0.488,0.305,109.421
139003,157178,12606,-0.006,-0.962,-0.102,-0.183,0.549,0.244,109.425
139003,157018,12458,-0.002,-0.963,-0.092,-0.183,0.549,0.244,109.431
139031,157178,12606,0.001,-0.949,-0.087,-0.488,0.244,0.061,109.435
139031,157041,12458,-0.004,-0.941,-0.094,-0.488,0.244,0.061,109.441
139020,157178,12606,-0.005,-0.944,-0.096,-1.951,0.122,0.427,109.445
139020,157045,12451,0,-0.954,-0.093,-1.951,0.122,0.427,109.451
139013,157178,12606,0,-0.954,-0.093,-1.951,0.122,0.427,109.455
139013,157072,12427,-0.003,-0.954,-0.091,-2.744,-0.122,0.244,109.461
139037,157178,12606,-0.003,-0.954,-0.091,-2.744,-0.122,0.244,109.464
139037,157042,12447,-0.001,-0.948,-0.098,-3.841,-0.427,0.366,109.471
139032,157178,12606,-0.001,-0.948,-0.098,-3.841,-0.427,0.366,109.474
139032,157061,12478,-0.002,-0.958,-0.093,-5.061,-0.549,0.366,109.481
139051,157178,12606,-0.002,-0.958,-0.093,-5.061,-0.549,0.366,109.484
139051,157059,12467,-0.009,-0.954,-0.112,-5.793,-0.549,0.183,109.49
139071,157178,12606,-0.009,-0.954,-0.112,-5.793,-0.549,0.183,109.494
139071,157074,12462,-0.005,-0.971,-0.138,-6.22,-0.61,0.244,109.5
139096,157178,12606,-0.005,-0.971,-0.138,-6.22,-0.61,0.244,109.504
139096,157088,12468,0,-0.974,-0.137,-4.146,-0.488,0.122,109.51
139060,157178,12606,0,-0.974,-0.137,-4.146,-0.488,0.122,109.514
139060,157073,12460,-0.005,-0.97,-0.151,-0.549,0,0.244,109.52
139067,157178,12606,-0.005,-0.97,-0.151,-0.549,0,0.244,109.524
139067,157092,12455,0.003,-0.963,-0.104,2.744,0.61,0.366,109.53
139039,157178,12606,0.003,-0.963,-0.104,2.744,0.61,0.366,109.534
139039,157057,12449,-0.009,-0.95,-0.114,4.756,0.732,0.671,109.54
139044,157178,12606,-0.009,-0.95,-0.114,4.756,0.732,0.671,109.544
139044,157057,12456,0.004,-0.954,-0.087,4.329,1.22,0.732,109.55
139042,157178,12606,0.004,-0.954,-0.087,4.329,1.22,0.732,109.554
139042,157076,12455,-0.009,-0.943,-0.09,3.354,0.854,0.427,109.56
139036,157178,12606,-0.009,-0.943,-0.09,3.354,0.854,0.427,109.563
139036,157067,12457,-0,-0.948,-0.091,0.976,0.671,0.671,109.57
139067,157178,12606,-0,-0.948,-0.091,0.976,0.671,0.671,109.573
139067,157085,12466,-0.002,-0.954,-0.097,-1.22,0.305,0.305,109.58
139100,157178,12606,-0.002,-0.954,-0.097,-1.22,0.305,0.305,109.583
139100,157077,12480,-0.003,-0.957,-0.107,-2.256,0,0.183,109.589
139087,157178,12606,-0.003,-0.957,-0.107,-2.256,0,0.183,109.593
139087,157091,12464,-0.005,-0.966,-0.113,-2.195,-0.061,0.366,109.599
139070,157178,12606,-0.005,-0.967,-0.11,-2.195,-0.061,0.366,109.603
139070,157082,12472,-0.005,-0.957,-0.11,-1.098,0.183,0.305,109.609
139060,157178,12606,-0.007,-0.961,-0.114,-1.098,0.183,0.305,109.613
139060,157087,12456,-0.006,-0.965,-0.118,-0.122,0.549,0.305,109.619
139057,157178,12606,-0.001,-0.963,-0.112,-0.122,0.549,0.305,109.623
139057,157080,12469,-0.005,-0.958,-0.105,1.159,0.61,0.305,109.629
139031,157178,12606,-0.01,-0.951,-0.097,1.159,0.61,0.305,109.633
139031,157040,12455,-0.009,-0.947,-0.104,1.22,0.61,0.427,109.639
138985,157178,12606,-0.01,-0.95,-0.099,1.22,0.61,0.427,109.643
138985,157009,12452,-0.002,-0.954,-0.091,0.671,0.427,0.183,109.649
138974,157178,12606,-0.002,-0.944,-0.09,0.671,0.427,0.183,109.653
138974,157010,12459,-0.007,-0.942,-0.099,-0.671,0.183,0.122,109.659
138995,157178,12606,-0.005,-0.949,-0.102,-0.671,0.183,0.122,109.662
138995,157002,12453,-0.005,-0.953,-0.104,-1.951,0.122,0.122,109.669
138994,157178,12606,0,-0.956,-0.11,-1.951,0.122,0.122,109.672
138994,157012,12477,0.002,-0.96,-0.116,-2.134,0,0.122,109.679
139042,157178,12606,0,-0.963,-0.115,-2.134,0,0.122,109.682
139042,157061,12464,0.002,-0.969,-0.122,-0.976,0.061,0.244,109.688
139070,157178,12606,-0,-0.974,-0.122,-0.976,0.061,0.244,109.692
139070,157076,12465,-0.001,-0.966,-0.114,0.671,0.366,0.488,109.698
139064,157178,12606,0,-0.964,-0.112,0.671,0.366,0.488,109.702
139064,157088,12478,-0.002,-0.963,-0.103,2.012,0.793,0.671,109.708
139053,157178,12606,-0.001,-0.954,-0.098,2.012,0.793,0.671,109.712
139053,157056,12474,-0.006,-0.943,-0.095,1.768,0.793,0.732,109.718
139045,157178,12606,-0.008,-0.945,-0.089,1.768,0.793,0.732,109.722
139045,157042,12456,-0.007,-0.947,-0.089,0.244,0.488,0.61,109.728
138999,157178,12606,-0.005,-0.946,-0.102,0.244,0.488,0.61,109.732
138999,157031,12446,-0.006,-0.952,-0.106,-1.402,0.122,0.427,109.738
138968,157178,12606,-0.004,-0.96,-0.107,-1.402,0.122,0.427,109.742
138968,157020,12463,-0.001,-0.958,-0.105,-1.341,0,0.366,109.748
138951,157178,12606,-0.005,-0.956,-0.11,-1.341,0,0.366,109.752
138951,156980,12453,-0.009,-0.96,-0.116,-1.341,0.061,0.488,109.758
138932,157178,12606,-0.007,-0.967,-0.123,-1.341,0.061,0.488,109.761
138932,156949,12434,-0,-0.973,-0.124,-0.732,0.427,0.244,109.768
138922,157178,12606,-0.001,-0.973,-0.114,-0.732,0.427,0.244,109.771
138922,156940,12451,-0.002,-0.959,-0.099,0.854,0.793,0.305,109.778
138933,157178,12606,-0.01,-0.943,-0.1,0.854,0.793,0.305,109.781
138933,156943,12466,-0.007,-0.952,-0.103,0.915,0.854,0.549,109.787
138974,157178,12606,-0.003,-0.961,-0.098,0.915,0.854,0.549,109.791
138974,156996,12457,-0.004,-0.952,-0.092,0.549,0.915,0.122,109.797
139027,157178,12606,-0.005,-0.946,-0.093,0.549,0.915,0.122,109.801
139027,157036,12453,-0.007,-0.943,-0.094,-0.183,0.732,0.122,109.807
139082,157178,12606,-0.003,-0.949,-0.107,-0.183,0.732,0.122,109.811
139082,157067,12457,-0,-0.956,-0.105,-1.098,0.671,-0.122,109.817
139125,157178,12606,0.002,-0.959,-0.106,-1.098,0.671,-0.122,109.821
139125,157147,12480,0.002,-0.963,-0.111,-1.037,0.488,-0.244,109.827
139169,157178,12606,-0.001,-0.962,-0.111,-1.037,0.488,-0.244,109.831
139169,157166,12473,0.001,-0.956,-0.106,-0.305,0.366,0.305,109.837
139185,157178,12606,-0.003,-0.955,-0.107,-0.305,0.366,0.305,109.841
139185,157175,12494,-0.003,-0.961,-0.106,0.549,0.244,0.549,109.847
139196,157178,12606,-0.002,-0.965,-0.107,0.549,0.244,0.549,109.851
139196,157180,12485,-0.003,-0.958,-0.105,0.549,0.244,0.549,109.857
139202,157434,12606,-0.006,-0.958,-0.108,0.549,0.244,0.549,109.86
139202,157210,12482,-0.007,-0.957,-0.105,0.488,0.305,0.427,109.867
139198,157434,12606,-0.012,-0.956,-0.095,0.488,0.305,0.427,109.87
139198,157207,12485,-0.016,-0.952,-0.096,0.061,0.183,0.122,109.877
139199,157434,12606,-0.013,-0.949,-0.112,0.061,0.183,0.122,109.88
139199,157205,12484,-0.008,-0.961,-0.118,-0.793,0.122,-0.549,109.886
139195,157434,12606,-0.009,-0.967,-0.11,-0.793,0.122,-0.549,109.89
139195,157204,12501,-0.005,-0.96,-0.096,0.061,-0.061,-0.915,109.896
139223,157434,12606,-0.006,-0.944,-0.093,0.061,-0.061,-0.915,109.9
139223,157241,12484,-0.006,-0.942,-0.101,0.122,-0.183,-0.732,109.906
139239,157434,12606,0,-0.951,-0.109,0.122,-0.183,-0.732,109.91
139239,157242,12495,0.002,-0.963,-0.109,-0.549,0.122,-0.793,109.916
139236,157434,12606,0.009,-0.962,-0.105,-0.549,0.122,-0.793,109.92
139236,157248,12478,0.008,-0.954,-0.1,0.183,-0.061,-0.671,109.926
139220,157434,12606,0.007,-0.942,-0.094,0.183,-0.061,-0.671,109.93
139220,157224,12473,0.009,-0.933,-0.093,-0.244,-0.183,0.122,109.936
139188,157434,12606,0.005,-0.949,-0.105,-0.244,-0.183,0.122,109.94
139188,157210,12481,0.003,-0.967,-0.113,-0.915,-0.183,0.427,109.946
139167,157178,12606,0.007,-0.974,-0.106,-0.915,-0.183,0.427,109.95
139167,157162,12478,0.012,-0.963,-0.091,-0.671,-0.244,0.549,109.956
139152,157178,12606,0.001,-0.947,-0.09,-0.671,-0.244,0.549,109.959
139152,157160,12476,-0.006,-0.949,-0.105,-1.829,-0.061,1.037,109.966
139144,157178,12606,-0.003,-0.972,-0.118,-1.829,-0.061,1.037,109.969
139144,157172,12461,0.002,-0.98,-0.113,-2.561,0.244,0.732,109.976
139139,157178,12606,0.004,-0.968,-0.108,-2.561,0.244,0.732,109.979
139139,157177,12469,-0.005,-0.95,-0.106,-2.073,0.122,0.671,109.985
139185,157178,12606,-0.017,-0.95,-0.119,-2.073,0.122,0.671,109.989
139185,157169,12478,-0.011,-0.966,-0.124,-1.951,0.488,0.793,109.995
139164,157434,12606,-0.006,-0.972,-0.124,-1.951,0.488,0.793,109.999
139164,157184,12480,-0.006,-0.964,-0.117,-0.854,0.549,0.305,110.005
139191,157178,12606,-0.011,-0.959,-0.118,-0.854,0.549,0.305,110.009
139191,157169,12485,-0.016,-0.963,-0.118,0.732,1.098,0.366,110.015
139196,157434,12606,-0.012,-0.964,-0.116,0.732,1.098,0.366,110.019
139196,157192,12484,-0.008,-0.962,-0.109,2.012,1.22,-0.061,110.025
139179,157178,12606,-0.005,-0.955,-0.105,2.012,1.22,-0.061,110.029
139179,157169,12489,-0.007,-0.949,-0.092,2.5,1.159,-0.244,110.035
139171,157434,12606,-0.005,-0.943,-0.077,2.5,1.159,-0.244,110.039
139171,157187,12485,-0.006,-0.934,-0.084,1.463,0.915,-0.061,110.045
139152,157434,12606,-0.006,-0.934,-0.084,1.463,0.915,-0.061,110.049
139152,157190,12457,-0.003,-0.955,-0.093,-0.61,0.732,-0.244,110.055
139168,157434,12606,-0.003,-0.955,-0.093,-0.61,0.732,-0.244,110.058
139168,157208,12473,0.004,-0.945,-0.086,-1.951,0.122,-0.183,110.065
139185,157434,12606,0.004,-0.945,-0.086,-1.951,0.122,-0.183,110.068
139185,157215,12474,-0.003,-0.95,-0.117,-3.232,-0.183,0.305,110.075
139190,157434,12606,-0.003,-0.95,-0.117,-3.232,-0.183,0.305,110.078
139190,157190,12467,0.009,-0.975,-0.12,-2.317,-0.488,0.122,110.084
139182,157434,12606,0.009,-0.975,-0.12,-2.317,-0.488,0.122,110.088
139182,157185,12482,0.003,-0.961,-0.124,-0.915,-0.305,0.488,110.094
139190,157434,12606,0.003,-0.961,-0.124,-0.915,-0.305,0.488,110.098
139190,157184,12468,-0.002,-0.975,-0.133,0.915,0.305,0.854,110.104
139201,157434,12606,-0.002,-0.975,-0.133,0.915,0.305,0.854,110.108
139201,157226,12479,0.001,-0.96,-0.117,3.171,0.793,0.915,110.114
139188,157434,12606,0.001,-0.96,-0.117,3.171,0.793,0.915,110.118
139188,157215,12475,-0.011,-0.946,-0.094,3.902,0.976,1.098,110.124
139201,157434,12606,-0.011,-0.946,-0.094,3.902,0.976,1.098,110.128
139201,157204,12476,-0.009,-0.947,-0.08,2.134,0.915,0.732,110.134
139218,157434,12606,-0.009,-0.947,-0.08,2.134,0.915,0.732,110.138
139218,157241,12492,-0.01,-0.932,-0.074,-0.915,0.549,0.427,110.144
139219,157434,12606,-0.01,-0.932,-0.074,-0.915,0.549,0.427,110.148
139219,157223,12482,-0.008,-0.947,-0.079,-4.207,0.122,0,110.154
139227,157434,12606,-0.008,-0.947,-0.079,-4.207,0.122,0,110.157
139227,157218,12471,-0.007,-0.952,-0.092,-7.012,-0.549,-0.366,110.164
139240,157434,12606,-0.007,-0.952,-0.092,-7.012,-0.549,-0.366,110.167
139240,157237,12490,-0.001,-0.955,-0.099,-8.72,-1.098,-0.244,110.174
139239,157434,12606,-0.001,-0.955,-0.099,-8.72,-1.098,-0.244,110.177
139239,157231,12490,-0.006,-0.967,-0.116,-9.268,-1.768,0.061,110.183
139214,157434,12606,-0.006,-0.967,-0.116,-9.268,-1.768,0.061,110.187
139214,157240,12474,-0.001,-0.974,-0.125,-9.268,-1.768,0.061,110.193
139233,157434,12606,0.005,-0.968,-0.119,-8.11,-1.829,0.183,110.197
139233,157248,12478,0.003,-0.957,-0.119,-8.11,-1.829,0.183,110.203
139243,157434,12606,-0.004,-0.953,-0.134,-5.976,-1.463,0.488,110.207
139243,157250,12480,0.001,-0.964,-0.156,-5.976,-1.463,0.488,110.213
139245,157434,12606,0.007,-0.975,-0.165,-2.927,-0.488,0.366,110.217
139245,157256,12494,0.008,-0.982,-0.16,-2.927,-0.488,0.366,110.223
139249,157434,12606,0.001,-0.974,-0.149,1.89,0.366,0.366,110.227
139249,157270,12474,-0.001,-0.959,-0.135,1.89,0.366,0.366,110.233
139204,157434,12606,-0.007,-0.953,-0.124,5.244,1.037,0.915,110.237
139204,157206,12473,-0.003,-0.955,-0.108,5.244,1.037,0.915,110.243
139147,157178,12606,-0.002,-0.952,-0.092,5.671,1.159,0.976,110.247
139147,157165,12463,0,-0.94,-0.087,5.671,1.159,0.976,110.253
139113,157178,12606,-0.014,-0.94,-0.088,2.805,0.915,0.793,110.256
139113,157137,12489,-0.014,-0.941,-0.098,2.805,0.915,0.793,110.263
139101,157178,12606,-0.005,-0.954,-0.11,-0.244,0.671,0.244,110.266
139101,157156,12471,-0,-0.965,-0.107,-0.244,0.671,0.244,110.273
139128,157434,12606,0.001,-0.962,-0.103,-1.098,0.427,-0.488,110.276
139128,157187,12474,-0.006,-0.943,-0.111,-1.098,0.427,-0.488,110.282
139140,157434,12606,-0.007,-0.942,-0.116,-1.768,0.366,0,110.286
139140,157197,12480,-0.002,-0.966,-0.12,-1.768,0.366,0,110.292
139164,157434,12606,0.005,-0.976,-0.12,-0.976,0.366,-0.122,110.296
139164,157203,12477,0.006,-0.967,-0.113,-0.976,0.366,-0.122,110.302
139226,157434,12606,-0.004,-0.957,-0.111,0.549,0.427,0.122,110.306
139226,157257,12471,-0.007,-0.954,-0.108,0.549,0.427,0.122,110.312
139232,157434,12606,-0.006,-0.956,-0.11,1.524,0.732,0.488,110.316
139232,157244,12472,-0.01,-0.96,-0.112,1.524,0.732,0.488,110.322
139227,157434,12606,-0.011,-0.96,-0.11,2.439,0.854,0.061,110.326
139227,157235,12469,0.012,-0.946,-0.1,2.439,0.854,0.061,110.332
139217,157434,12606,0.013,-0.94,-0.098,2.744,0.244,-0.366,110.336
139217,157239,12490,-0.002,-0.951,-0.097,2.744,0.244,-0.366,110.342
139187,157434,12606,-0.003,-0.942,-0.091,1.829,0.549,0.366,110.346
139187,157191,12473,-0.002,-0.937,-0.098,1.829,0.549,0.366,110.352
139165,157434,12606,-0.003,-0.947,-0.112,-0.183,0.183,0.549,110.355
139165,157223,12471,0.001,-0.963,-0.113,-0.183,0.183,0.549,110.362
139177,157434,12606,0.003,-0.963,-0.105,-0.854,-0.061,0.427,110.365
139177,157219,12461,0.002,-0.95,-0.101,-0.854,-0.061,0.427,110.372
139192,157434,12606,-0.003,-0.941,-0.106,-1.524,-0.061,0.61,110.375
139192,157220,12484,-0.005,-0.954,-0.119,-1.524,-0.061,0.61,110.381
139206,157434,12606,-0.003,-0.977,-0.124,-2.195,0.061,0.488,110.385
139206,157245,12494,0.003,-0.981,-0.12,-2.195,0.061,0.488,110.391
139266,157434,12606,0.005,-0.97,-0.111,-1.28,-0.061,0.366,110.395
139266,157293,12512,-0.008,-0.954,-0.109,-1.28,-0.061,0.366,110.401
139301,157434,12606,-0.008,-0.957,-0.124,-0.549,0.244,0.671,110.405
139301,157309,12495,-0.003,-0.971,-0.127,-0.549,0.244,0.671,110.411
139327,157434,12606,0.003,-0.973,-0.126,0.854,0.61,0.183,110.415
139327,157346,12482,-0,-0.963,-0.124,0.854,0.61,0.183,110.421
139352,157434,12606,-0.007,-0.96,-0.12,2.805,0.976,0.366,110.425
139352,157353,12497,-0.006,-0.956,-0.114,2.805,0.976,0.366,110.431
139339,157434,12606,-0.004,-0.948,-0.111,3.902,1.28,0.549,110.435
139339,157354,12503,-0.002,-0.949,-0.109,3.902,1.28,0.549,110.441
139322,157434,12606,-0.007,-0.95,-0.099,4.024,1.341,0.427,110.445
139322,157314,12493,-0.006,-0.947,-0.087,4.024,1.341,0.427,110.451
139334,157434,12606,-0.003,-0.939,-0.076,2.805,1.098,0.366,110.454
139334,157338,12502,-0.005,-0.934,-0.086,2.805,1.098,0.366,110.461
139365,157434,12606,-0.007,-0.944,-0.103,0.183,0.915,0.244,110.464
139365,157398,12524,-0.002,-0.96,-0.101,0.183,0.915,0.244,110.471
139463,157690,12606,0.002,-0.964,-0.093,-1.341,0.427,-0.183,110.474
139463,157463,12525,0.004,-0.95,-0.091,-1.341,0.427,-0.183,110.48
139530,157690,12606,-0.003,-0.937,-0.094,-2.805,-0.061,0,110.484
139530,157509,12532,-0.008,-0.946,-0.103,-2.805,-0.061,0,110.49
139576,157690,12606,-0.003,-0.963,-0.108,-4.024,-0.427,0.061,110.494
139576,157543,12541,0.001,-0.967,-0.112,-4.024,-0.427,0.061,110.5
139613,157690,12606,0,-0.963,-0.115,-3.72,-0.671,-0.061,110.504
139613,157557,12540,-0.002,-0.954,-0.11,-3.72,-0.671,-0.061,110.51
139648,157690,12606,-0.003,-0.958,-0.111,-2.988,-0.61,0.183,110.514
139648,157614,12536,-0.004,-0.956,-0.117,-2.988,-0.61,0.183,110.52
139626,157690,12606,0,-0.954,-0.127,-2.622,-0.366,0.244,110.524
139626,157580,12550,-0.002,-0.964,-0.133,-2.622,-0.366,0.244,110.53
139605,157690,12606,0.006,-0.969,-0.121,-1.28,0.122,0.061,110.534
139605,157561,12551,0.004,-0.953,-0.108,-1.28,0.122,0.061,110.54
139596,157690,12606,-0.004,-0.942,-0.104,-0.793,0.244,0.488,110.544
139596,157566,12534,-0.004,-0.943,-0.115,-0.793,0.244,0.488,110.55
139569,157690,12606,-0.003,-0.96,-0.117,-2.012,0.427,0.61,110.553
139569,157518,12510,0.003,-0.967,-0.113,-2.012,0.427,0.61,110.56
139537,157690,12606,0.005,-0.956,-0.107,-2.866,0.549,0.122,110.563
139537,157503,12541,0,-0.953,-0.106,-2.866,0.549,0.122,110.57
139546,157690,12606,-0.005,-0.953,-0.112,-2.439,0.732,0.427,110.573
139546,157514,12545,-0.002,-0.957,-0.117,-2.439,0.732,0.427,110.579
139562,157690,12606,0.001,-0.963,-0.111,-2.195,0.732,0.305,110.583
139562,157526,12513,0.003,-0.957,-0.109,-2.195,0.732,0.305,110.589
139568,157690,12606,0.001,-0.952,-0.119,-2.012,0.549,0.122,110.593
139568,157510,12526,-0.006,-0.959,-0.124,-2.012,0.549,0.122,110.599
139536,157690,12606,-0.001,-0.97,-0.116,-1.341,0.366,0.305,110.603
139536,157499,12535,0.003,-0.965,-0.102,-1.341,0.366,0.305,110.609
139527,157690,12606,-0.003,-0.949,-0.099,-0.366,0.183,0.488,110.613
139527,157460,12531,-0.005,-0.943,-0.105,-0.366,0.183,0.488,110.619
139475,157690,12606,-0.007,-0.95,-0.112,-0.976,0.244,0.671,110.623
139475,157475,12511,-0.004,-0.964,-0.12,-0.976,0.244,0.671,110.629
139457,157690,12606,-0.004,-0.964,-0.12,-0.976,0.244,0.671,110.633
139457,157445,12517,-0.003,-0.96,-0.119,-0.366,0.183,0.366,110.639
139424,157434,12606,-0.003,-0.96,-0.119,-0.366,0.183,0.366,110.643
139424,157401,12511,-0.004,-0.947,-0.109,0.671,0.122,0.427,110.649
139375,157434,12606,-0.004,-0.947,-0.109,0.671,0.122,0.427,110.652
139375,157372,12501,-0.003,-0.953,-0.112,0.793,0.305,0.549,110.659
139343,157434,12606,-0.003,-0.953,-0.112,0.793,0.305,0.549,110.662
139343,157353,12510,-0.002,-0.966,-0.116,0.305,0.488,0.305,110.669
139304,157434,12606,-0.002,-0.966,-0.116,0.305,0.488,0.305,110.672
139304,157338,12486,-0.001,-0.955,-0.117,0.671,0.488,0.244,110.678
139318,157434,12606,-0.001,-0.955,-0.117,0.671,0.488,0.244,110.682
139318,157321,12486,0.001,-0.964,-0.122,1.037,0.427,0.366,110.688
139335,157434,12606,0.001,-0.964,-0.122,1.037,0.427,0.366,110.692
139335,157324,12493,-0.004,-0.955,-0.104,1.951,0.488,0.305,110.698
139358,157434,12606,-0.004,-0.955,-0.104,1.951,0.488,0.305,110.702
139358,157370,12504,-0.006,-0.934,-0.101,2.195,0.488,0.427,110.708
139402,157434,12606,-0.006,-0.934,-0.101,2.195,0.488,0.427,110.712
139402,157399,12499,-0.001,-0.957,-0.11,0.793,0.427,0.366,110.718
139445,157434,12606,-0.001,-0.957,-0.11,0.793,0.427,0.366,110.722
139445,157439,12509,0.002,-0.957,-0.112,-0.366,0.305,0.061,110.728
139462,157690,12606,0.002,-0.957,-0.112,-0.366,0.305,0.061,110.732
139462,157446,12492,-0.002,-0.951,-0.112,-0.793,0.061,0.244,110.738
139472,157690,12606,-0.002,-0.951,-0.112,-0.793,0.061,0.244,110.742
139472,157452,12516,0.002,-0.96,-0.122,-0.61,0.061,0.61,110.748
139462,157690,12606,0.002,-0.96,-0.122,-0.61,0.061,0.61,110.751
139462,157448,12516,-0.001,-0.961,-0.12,-0.122,0.122,0.488,110.758
139446,157434,12606,-0.001,-0.961,-0.12,-0.122,0.122,0.488,110.761
139446,157400,12506,0.002,-0.965,-0.11,0.732,0.244,0.549,110.768
139413,157434,12606,0.002,-0.965,-0.11,0.732,0.244,0.549,110.771
139413,157417,12510,0.001,-0.956,-0.103,1.463,0.366,0.61,110.777
139431,157434,12606,-0.003,-0.951,-0.103,1.463,0.366,0.61,110.781
139431,157435,12508,-0.007,-0.947,-0.095,0.671,0.488,0.671,110.787
139452,157434,12606,-0.007,-0.947,-0.102,0.671,0.488,0.671,110.791
139452,157425,12512,-0.004,-0.955,-0.114,-0.549,0.366,0.427,110.797
139452,157690,12606,-0.003,-0.956,-0.118,-0.549,0.366,0.427,110.801
139452,157451,12509,-0.001,-0.951,-0.11,-1.037,0.244,0.183,110.807
139450,157690,12606,-0.003,-0.949,-0.116,-1.037,0.244,0.183,110.811
139450,157461,12517,-0.008,-0.959,-0.12,-0.549,0.183,0.305,110.817
139464,157690,12606,-0.007,-0.962,-0.115,-0.549,0.183,0.305,110.821
139464,157463,12506,0,-0.954,-0.112,0.427,0.305,0.183,110.827
139474,157690,12606,-0.003,-0.949,-0.116,0.427,0.305,0.183,110.831
139474,157487,12507,-0.005,-0.957,-0.127,0.793,0.366,0.366,110.837
139477,157690,12606,-0.005,-0.974,-0.128,0.793,0.366,0.366,110.841
139477,157475,12502,-0,-0.974,-0.116,1.951,0.61,0.427,110.847
139396,157434,12606,0.002,-0.957,-0.101,1.951,0.61,0.427,110.85
139396,157417,12491,0.002,-0.944,-0.101,2.622,0.549,0.549,110.857
139348,157434,12606,-0.004,-0.948,-0.109,2.622,0.549,0.549,110.86
139348,157350,12503,0,-0.964,-0.116,1.829,0.915,0.549,110.867
139297,157434,12606,0.004,-0.971,-0.118,1.829,0.915,0.549,110.87
139297,157315,12480,0.004,-0.961,-0.105,2.012,1.159,0.183,110.876
139287,157434,12606,-0.001,-0.944,-0.094,2.012,1.159,0.183,110.88
139287,157323,12467,-0.009,-0.938,-0.094,1.707,1.28,0.488,110.886
139223,157434,12606,-0.01,-0.946,-0.108,1.707,1.28,0.488,110.89
139223,157282,12488,-0.004,-0.967,-0.117,0.488,1.341,0.183,110.896
139213,157434,12606,0.001,-0.981,-0.117,0.488,1.341,0.183,110.9
139213,157235,12473,0,-0.981,-0.105,0.549,1.402,-0.427,110.906
139169,157434,12606,-0.004,-0.965,-0.105,0.549,1.402,-0.427,110.91
139169,157231,12473,-0.01,-0.955,-0.113,0.488,1.768,-0.061,110.916
139166,157434,12606,-0.007,-0.964,-0.122,0.488,1.768,-0.061,110.92
139166,157231,12467,-0,-0.975,-0.119,1.037,1.89,-0.244,110.926
139147,157434,12606,-0.002,-0.968,-0.112,1.037,1.89,-0.244,110.93
139147,157216,12474,-0.011,-0.956,-0.102,2.317,1.646,-0.488,110.936
139140,157434,12606,-0.019,-0.949,-0.099,2.317,1.646,-0.488,110.94
139140,157218,12452,0.004,-0.944,-0.093,2.256,1.463,-0.915,110.946
139152,157434,12606,0.008,-0.939,-0.094,2.256,1.463,-0.915,110.949
139152,157207,12455,0.002,-0.947,-0.101,1.037,1.159,-1.159,110.956
139167,157434,12606,0.002,-0.952,-0.104,1.037,1.159,-1.159,110.959
139167,157209,12462,0,-0.953,-0.105,-0.061,1.341,-0.732,110.966
139183,157434,12606,0.004,-0.954,-0.098,-0.061,1.341,-0.732,110.969
139183,157234,12466,0.003,-0.946,-0.09,-0.671,0.915,-0.366,110.975
139163,157434,12606,-0.001,-0.941,-0.088,-0.671,0.915,-0.366,110.979
139163,157229,12470,0.003,-0.943,-0.1,-2.195,0.671,-0.244,110.985
139172,157434,12606,0.001,-0.952,-0.104,-2.195,0.671,-0.244,110.989
139172,157239,12482,-0.001,-0.961,-0.106,-3.171,0.793,-0.183,110.995
139217,157434,12606,-0.001,-0.957,-0.106,-3.171,0.793,-0.183,110.999
139217,157277,12467,-0.003,-0.946,-0.103,-2.866,0.549,-0.061,111.005
139233,157434,12606,-0.005,-0.941,-0.108,-2.866,0.549,-0.061,111.009
139233,157285,12481,-0.002,-0.952,-0.117,-2.805,0.305,0.061,111.015
139259,157434,12606,-0,-0.961,-0.118,-2.805,0.305,0.061,111.019
139259,157284,12471,0.004,-0.963,-0.122,-2.195,0,-0.183,111.025
139276,157434,12606,0.002,-0.964,-0.124,-2.195,0,-0.183,111.029
139276,157313,12482,0.001,-0.957,-0.115,-1.098,-0.122,0.183,111.035
139321,157434,12606,0.004,-0.949,-0.105,-1.098,-0.122,0.183,111.039
139321,157346,12494,0.002,-0.952,-0.111,-0.671,-0.366,0.549,111.045
139359,157434,12606,-0.002,-0.965,-0.117,-0.671,-0.366,0.549,111.048
139359,157386,12494,0.002,-0.97,-0.112,-0.549,-0.244,0.488,111.055
139372,157434,12606,0.013,-0.961,-0.107,-0.549,-0.244,0.488,111.058
139372,157390,12490,0.004,-0.945,-0.109,-0.305,-0.244,0.61,111.065
139373,157434,12606,-0.005,-0.947,-0.115,-0.305,-0.244,0.61,111.068
139373,157386,12500,0.001,-0.956,-0.116,-0.183,0.122,0.915,111.074
139391,157434,12606,0.005,-0.953,-0.112,-0.183,0.122,0.915,111.078
139391,157408,12495,0.002,-0.946,-0.107,0.061,0.061,0.915,111.084
139401,157434,12606,-0.005,-0.946,-0.109,0.061,0.061,0.915,111.088
139401,157432,12493,-0.011,-0.953,-0.109,-0.061,0.122,1.037,111.094
139433,157690,12606,-0.007,-0.957,-0.102,-0.061,0.122,1.037,111.098
139433,157446,12490,-0.004,-0.959,-0.097,0,0.122,0.671,111.104
139452,157690,12606,-0.003,-0.958,-0.104,0,0.122,0.671,111.108
139452,157472,12513,-0.008,-0.962,-0.112,-0.732,0.244,0.305,111.114
139519,157690,12606,-0.008,-0.972,-0.123,-0.732,0.244,0.305,111.118
139519,157527,12532,-0.001,-0.981,-0.133,-0.793,0.244,0,111.124
139548,157690,12606,-0.002,-0.98,-0.122,-0.793,0.244,0,111.128
139548,157557,12523,-0.005,-0.967,-0.115,1.037,0.366,-0.061,111.134
139593,157690,12606,-0.006,-0.96,-0.116,1.037,0.366,-0.061,111.138
139593,157613,12532,-0.005,-0.96,-0.122,1.951,0.732,0.183,111.144
139661,157690,12606,-0,-0.97,-0.135,1.951,0.732,0.183,111.147
139661,157647,12523,0.001,-0.973,-0.127,3.232,1.037,-0.061,111.154
139705,157690,12606,0.004,-0.964,-0.109,3.232,1.037,-0.061,111.157
139705,157659,12541,0.003,-0.944,-0.095,5.061,1.098,0.061,111.164
139761,157946,12606,-0.003,-0.941,-0.095,5.061,1.098,0.061,111.167
139761,157717,12536,-0.003,-0.947,-0.096,3.963,1.341,0.305,111.173
139837,157946,12606,0.001,-0.951,-0.097,3.963,1.341,0.305,111.177
139837,157768,12561,0.003,-0.962,-0.107,2.256,1.098,-0.061,111.183
139864,157946,12606,-0.013,-0.962,-0.119,2.256,1.098,-0.061,111.187
139864,157835,12563,-0.004,-0.963,-0.121,2.134,0.793,-0.488,111.193
139911,157946,12606,0.015,-0.954,-0.104,2.134,0.793,-0.488,111.197
139911,157853,12566,0.01,-0.949,-0.093,3.11,0.183,-0.732,111.203
139931,157946,12606,0.001,-0.945,-0.091,3.11,0.183,-0.732,111.207
139931,157860,12574,0,-0.94,-0.09,2.5,0.244,-0.122,111.213
139926,157946,12606,0.003,-0.943,-0.089,2.5,0.244,-0.122,111.217
139926,157845,12575,0.004,-0.943,-0.085,1.159,-0.183,0,111.223
139919,157946,12606,0.004,-0.943,-0.085,1.159,-0.183,0,111.227
139919,157873,12584,0.002,-0.94,-0.09,-0.488,-0.671,0.061,111.233
139936,157946,12606,0.002,-0.94,-0.09,-0.488,-0.671,0.061,111.237
139936,157882,12571,0.005,-0.942,-0.086,-1.768,-0.915,0.305,111.243
139969,157946,12606,0.005,-0.942,-0.086,-1.768,-0.915,0.305,111.246
139969,157901,12566,-0.003,-0.945,-0.092,-3.232,-0.976,0.61,111.253
139936,157946,12606,-0.003,-0.945,-0.092,-3.232,-0.976,0.61,111.256
139936,157862,12565,0.003,-0.961,-0.1,-4.756,-1.098,0.549,111.263
139875,157946,12606,0.003,-0.961,-0.1,-4.756,-1.098,0.549,111.266
139875,157856,12573,0.001,-0.965,-0.124,-5.427,-1.159,0.488,111.272
139786,157946,12606,0.001,-0.965,-0.124,-5.427,-1.159,0.488,111.276
139786,157752,12549,0.003,-0.98,-0.133,-4.146,-0.549,0.488,111.282
139751,157946,12606,0.003,-0.98,-0.133,-4.146,-0.549,0.488,111.286
139751,157711,12543,0.001,-0.97,-0.126,-1.524,0.061,0.549,111.292
139688,157690,12606,0.001,-0.97,-0.126,-1.524,0.061,0.549,111.296
139688,157659,12545,-0.004,-0.963,-0.121,0.122,0.732,0.793,111.302
139644,157690,12606,-0.004,-0.963,-0.121,0.122,0.732,0.793,111.306
139644,157646,12533,0,-0.961,-0.113,1.463,1.159,0.549,111.312
139601,157690,12606,0,-0.961,-0.113,1.463,1.159,0.549,111.316
139601,157648,12529,-0.002,-0.936,-0.092,1.768,1.098,0.488,111.322
139629,157690,12606,-0.002,-0.936,-0.092,1.768,1.098,0.488,111.326
139629,157633,12528,-0.007,-0.956,-0.097,0.366,1.22,0.305,111.332
139633,157690,12606,-0.007,-0.956,-0.097,0.366,1.22,0.305,111.336
139633,157615,12524,-0.003,-0.947,-0.105,-0.61,0.793,-0.244,111.342
139592,157690,12606,-0.003,-0.947,-0.105,-0.61,0.793,-0.244,111.345
139592,157603,12524,-0.006,-0.961,-0.101,-1.646,0.732,-0.183,111.352
139567,157690,12606,-0.006,-0.961,-0.101,-1.646,0.732,-0.183,111.355
139567,157570,12510,0.001,-0.96,-0.124,-1.829,0.61,-0.305,111.362
139524,157690,12606,0.001,-0.96,-0.124,-1.829,0.61,-0.305,111.365
139524,157529,12516,0.001,-0.967,-0.122,-1.829,0.61,-0.305,111.371
139492,157690,12606,0.003,-0.961,-0.116,-0.427,0.671,-0.183,111.375
139492,157507,12505,0.002,-0.958,-0.114,-0.427,0.671,-0.183,111.381
139431,157690,12606,-0.001,-0.961,-0.113,0.854,0.671,0.122,111.385
139431,157478,12505,0.001,-0.963,-0.107,0.854,0.671,0.122,111.391
139409,157690,12606,0.004,-0.955,-0.096,1.341,0.61,0.244,111.395
139409,157464,12500,0.002,-0.946,-0.09,1.341,0.61,0.244,111.401
139467,157690,12606,0.002,-0.943,-0.093,0.244,0.427,0.244,111.405
139467,157478,12501,-0,-0.944,-0.102,0.244,0.427,0.244,111.411
139507,157690,12606,0.002,-0.953,-0.103,-1.524,0.366,0.061,111.415
139507,157521,12520,0.009,-0.957,-0.105,-1.524,0.366,0.061,111.421
139588,157690,12606,0.01,-0.957,-0.11,-2.195,-0.122,0.122,111.425
139588,157607,12535,0,-0.955,-0.115,-2.195,-0.122,0.122,111.431
139688,157946,12606,-0,-0.957,-0.12,-1.951,-0.122,0.671,111.435
139688,157720,12539,0.003,-0.956,-0.116,-1.951,-0.122,0.671,111.441
139807,157946,12606,-0.002,-0.953,-0.108,-1.28,-0.244,0.732,111.444
139807,157795,12553,-0.002,-0.956,-0.116,-1.28,-0.244,0.732,111.451
139913,157946,12606,-0.001,-0.963,-0.125,-0.671,-0.244,0.549,111.454
139913,157879,12584,-0,-0.966,-0.126,-0.671,-0.244,0.549,111.461
140036,158202,12606,0.002,-0.968,-0.119,0.488,-0.061,0.366,111.464
140036,157983,12590,0.004,-0.957,-0.114,0.488,-0.061,0.366,111.47
140164,158202,12606,-0.003,-0.95,-0.114,1.829,0.061,0.61,111.474
140164,158067,12614,-0.002,-0.955,-0.114,1.829,0.061,0.61,111.48
140260,158202,12606,-0,-0.957,-0.116,2.134,0.671,0.549,111.484
140260,158158,12607,0.003,-0.966,-0.114,2.134,0.671,0.549,111.49
140311,158202,12606,-0,-0.969,-0.108,2.622,0.915,0.427,111.494
140311,158188,12625,0.001,-0.962,-0.103,2.622,0.915,0.427,111.5
140365,158458,12606,0.004,-0.951,-0.094,2.317,1.037,0.61,111.504
140365,158249,12622,0.002,-0.951,-0.096,2.317,1.037,0.61,111.51
140380,158458,12606,0.002,-0.958,-0.095,1.28,0.915,0.61,111.514
140380,158264,12634,0.004,-0.954,-0.097,1.28,0.915,0.61,111.52
140411,158458,12606,0.002,-0.949,-0.097,0,0.671,0.366,111.524
140411,158301,12639,-0,-0.949,-0.099,0,0.671,0.366,111.53
140365,158458,12606,-0.003,-0.954,-0.098,-0.915,0.427,0.427,111.534
140365,158263,12615,-0.001,-0.946,-0.094,-0.915,0.427,0.427,111.54
140314,158202,12606,-0.001,-0.945,-0.095,-1.768,0.244,0.427,111.543
140314,158180,12616,-0.004,-0.949,-0.105,-1.768,0.244,0.427,111.55
140257,158202,12606,-0.002,-0.961,-0.119,-2.805,0.122,0.183,111.553
140257,158142,12617,0.001,-0.968,-0.117,-2.805,0.122,0.183,111.56
140182,158202,12606,0.002,-0.964,-0.105,-2.256,0.244,-0.061,111.563
140182,158083,12602,-0.001,-0.95,-0.104,-2.256,0.244,-0.061,111.569
140091,158202,12606,-0.004,-0.943,-0.111,-1.707,0.305,0.305,111.573
140091,158024,12585,-0.003,-0.955,-0.123,-1.707,0.305,0.305,111.579
