137634,156500,12136,0.022,-0.938,-0.232,-1.037,0.305,0.122,229.891
137624,156666,12606,0.022,-0.941,-0.238,-1.22,0.305,-0.061,229.895
137624,156489,12129,0.025,-0.941,-0.235,-1.22,0.305,-0.061,229.901
137592,156666,12606,0.026,-0.935,-0.239,-0.366,0.671,0,229.905
137592,156459,12137,0.025,-0.935,-0.245,-0.366,0.671,0,229.911
137616,156666,12606,0.024,-0.938,-0.239,0.366,0.793,0.305,229.915
137616,156455,12140,0.028,-0.936,-0.232,0.366,0.793,0.305,229.921
137621,156666,12606,0.023,-0.929,-0.231,1.098,0.732,0.549,229.925
137621,156497,12132,0.022,-0.926,-0.229,1.098,0.732,0.549,229.931
137625,156666,12606,0.025,-0.925,-0.222,1.159,0.854,0.549,229.935
137625,156504,12129,0.026,-0.928,-0.218,1.159,0.854,0.549,229.941
137620,156666,12606,0.024,-0.927,-0.22,0.854,0.61,0.427,229.944
137620,156492,12139,0.024,-0.924,-0.222,0.854,0.61,0.427,229.951
137599,156666,12606,0.025,-0.925,-0.218,0.366,0.488,0.427,229.954
137599,156482,12139,0.026,-0.933,-0.215,0.366,0.488,0.427,229.96
137600,156666,12606,0.026,-0.931,-0.223,-0.366,0.244,0.366,229.964
137600,156483,12122,0.024,-0.933,-0.227,-0.366,0.244,0.366,229.97
137587,156666,12606,0.024,-0.941,-0.226,-0.549,0.122,0.366,229.974
137587,156471,12132,0.024,-0.941,-0.225,-0.549,0.122,0.366,229.98
137576,156666,12606,0.022,-0.939,-0.228,-0.366,0.122,0.244,229.984
137576,156443,12134,0.021,-0.936,-0.231,-0.366,0.122,0.244,229.99
137576,156666,12606,0.024,-0.94,-0.23,-0.305,0.427,0.244,229.994
137576,156448,12145,0.023,-0.944,-0.228,-0.305,0.427,0.244,230
137575,156666,12606,0.023,-0.94,-0.222,-0.122,0.427,0.305,230.004
137575,156461,12138,0.022,-0.933,-0.217,-0.122,0.427,0.305,230.01
137595,156666,12606,0.02,-0.925,-0.222,-0.549,0.427,0.305,230.014
137595,156458,12135,0.02,-0.927,-0.223,-0.549,0.427,0.305,230.02
137589,156666,12606,0.021,-0.933,-0.228,-0.976,0.427,0.244,230.024
137589,156464,12149,0.024,-0.935,-0.23,-0.976,0.427,0.244,230.03
137600,156666,12606,0.026,-0.929,-0.229,-1.037,0.122,0.122,230.034
137600,156493,12125,0.024,-0.924,-0.23,-1.037,0.122,0.122,230.04
137621,156666,12606,0.027,-0.924,-0.235,-0.793,0.061,0.244,230.043
137621,156504,12144,0.029,-0.932,-0.237,-0.793,0.061,0.244,230.05
137581,156666,12606,0.031,-0.936,-0.232,-0.366,0.305,0.305,230.053
137581,156484,12126,0.028,-0.929,-0.225,-0.366,0.305,0.305,230.06
137602,156666,12606,0.026,-0.919,-0.224,0.244,0.366,0.488,230.063
137602,156478,12133,0.025,-0.923,-0.23,0.244,0.366,0.488,230.069
137611,156666,12606,0.026,-0.94,-0.225,0.061,0.488,0.488,230.073
137611,156461,12138,0.027,-0.94,-0.22,0.061,0.488,0.488,230.079
137645,156666,12606,0.023,-0.933,-0.219,-0.366,0.305,0.244,230.083
137645,156510,12126,0.019,-0.931,-0.225,-0.366,0.305,0.244,230.089
137664,156666,12606,0.023,-0.933,-0.224,-0.732,0.366,0.183,230.093
137664,156509,12146,0.027,-0.939,-0.23,-0.732,0.366,0.183,230.099
137689,156666,12606,0.029,-0.941,-0.238,-0.915,0.305,0.061,230.103
137689,156564,12148,0.025,-0.937,-0.242,-0.915,0.305,0.061,230.109
137709,156666,12606,0.021,-0.935,-0.235,0,0.549,0.305,230.113
137709,156577,12165,0.024,-0.931,-0.235,0,0.549,0.305,230.119
137693,156666,12606,0.024,-0.93,-0.235,0.793,0.61,0.488,230.123
137693,156574,12134,0.022,-0.931,-0.233,0.793,0.61,0.488,230.129
137659,156666,12606,0.024,-0.932,-0.223,1.037,0.61,0.549,230.133
137659,156526,12136,0.024,-0.925,-0.209,1.037,0.61,0.549,230.139
137652,156666,12606,0.024,-0.921,-0.217,0.61,0.427,0.549,230.142
137652,156494,12143,0.022,-0.927,-0.222,0.61,0.427,0.549,230.149
137617,156666,12606,0.026,-0.938,-0.222,-0.427,0.305,0.427,230.152
137617,156457,12129,0.028,-0.943,-0.218,-0.427,0.305,0.427,230.159
137565,156666,12606,0.025,-0.935,-0.211,-0.915,0,0.366,230.162
137565,156455,12126,0.021,-0.925,-0.224,-0.915,0,0.366,230.168
137531,156410,12606,0.022,-0.94,-0.235,-1.646,-0.122,0.305,230.172
137531,156403,12122,0.025,-0.955,-0.233,-1.646,-0.122,0.305,230.178
137519,156410,12606,0.026,-0.948,-0.232,-1.463,-0.183,-0.061,230.182
137519,156388,12129,0.026,-0.934,-0.232,-1.463,-0.183,-0.061,230.188
137558,156666,12606,0.021,-0.927,-0.23,-0.732,0.183,0.122,230.192
137558,156455,12106,0.019,-0.933,-0.23,-0.732,0.183,0.122,230.198
137613,156666,12606,0.026,-0.943,-0.234,-0.061,0.549,0.061,230.202
137613,156469,12125,0.029,-0.941,-0.238,-0.061,0.549,0.061,230.208
137637,156666,12606,0.027,-0.928,-0.234,0.549,0.671,0.061,230.212
137637,156497,12129,0.023,-0.919,-0.229,0.549,0.671,0.061,230.218
137661,156666,12606,0.011,-0.919,-0.232,0.793,0.854,0.305,230.222
137661,156496,12147,0.019,-0.932,-0.238,0.793,0.854,0.305,230.228
137634,156666,12606,0.044,-0.933,-0.231,0.671,0.244,-0.366,230.232
137634,156528,12142,0.046,-0.928,-0.226,0.671,0.244,-0.366,230.238
137625,156666,12606,0.027,-0.925,-0.227,1.159,0.366,0.122,230.241
137625,156497,12123,0.017,-0.923,-0.227,1.159,0.366,0.122,230.248
137604,156666,12606,0.019,-0.928,-0.228,0.732,0.671,1.037,230.251
137604,156479,12117,0.031,-0.936,-0.229,0.732,0.671,1.037,230.258
137571,156666,12606,0.03,-0.941,-0.22,0.61,0.305,0.488,230.261
137571,156459,12130,0.021,-0.933,-0.216,0.61,0.305,0.488,230.267
137556,156666,12606,0.019,-0.927,-0.217,0.427,0.427,0.671,230.271
137556,156469,12130,0.021,-0.926,-0.223,0.427,0.427,0.671,230.277
137540,156666,12606,0.022,-0.936,-0.224,-0.305,0.305,0.427,230.281
137540,156427,12123,0.021,-0.94,-0.227,-0.305,0.305,0.427,230.287
137568,156666,12606,0.02,-0.941,-0.23,-0.305,0.244,0.183,230.291
137568,156458,12132,0.021,-0.938,-0.228,-0.305,0.244,0.183,230.297
137583,156666,12606,0.021,-0.938,-0.228,-0.305,0.244,0.183,230.301
137583,156450,12137,0.027,-0.938,-0.234,-0.061,0.427,0.183,230.307
137575,156666,12606,0.027,-0.938,-0.234,-0.061,0.427,0.183,230.311
137575,156471,12132,0.028,-0.944,-0.222,0.183,0.732,0.061,230.317
137615,156666,12606,0.028,-0.944,-0.222,0.183,0.732,0.061,230.321
137615,156477,12139,0.025,-0.921,-0.207,0.305,0.732,0.183,230.327
137633,156666,12606,0.025,-0.921,-0.207,0.305,0.732,0.183,230.331
137633,156482,12151,0.025,-0.924,-0.216,-0.671,0.732,0.244,230.337
137629,156666,12606,0.025,-0.924,-0.216,-0.671,0.732,0.244,230.34
137629,156480,12142,0.031,-0.936,-0.227,-2.256,0.427,-0.061,230.347
137608,156666,12606,0.031,-0.936,-0.227,-2.256,0.427,-0.061,230.35
137608,156469,12129,0.025,-0.927,-0.24,-2.561,0,-0.061,230.357
137625,156666,12606,0.025,-0.927,-0.24,-2.561,0,-0.061,230.36
137625,156481,12131,0.028,-0.939,-0.247,-2.012,-0.061,0.244,230.366
137613,156666,12606,0.028,-0.939,-0.247,-2.012,-0.061,0.244,230.37
137613,156463,12123,0.029,-0.939,-0.243,-1.098,0.183,0.549,230.376
137615,156666,12606,0.029,-0.939,-0.243,-1.098,0.183,0.549,230.38
137615,156489,12124,0.026,-0.942,-0.243,0.305,0.488,0.854,230.386
137616,156666,12606,0.026,-0.942,-0.243,0.305,0.488,0.854,230.39
137616,156469,12135,0.025,-0.941,-0.227,1.707,0.732,0.915,230.396
137605,156666,12606,0.025,-0.941,-0.227,1.707,0.732,0.915,230.4
137605,156469,12132,0.013,-0.929,-0.218,2.561,0.793,0.915,230.406
137621,156666,12606,0.013,-0.929,-0.218,2.561,0.793,0.915,230.41
137621,156485,12117,0.019,-0.924,-0.214,2.134,0.854,0.732,230.416
137627,156666,12606,0.019,-0.924,-0.214,2.134,0.854,0.732,230.42
137627,156480,12130,0.015,-0.925,-0.198,1.22,0.549,0.366,230.426
137631,156666,12606,0.015,-0.925,-0.198,1.22,0.549,0.366,230.43
137631,156503,12131,0.018,-0.929,-0.218,-0.549,0.183,0.183,230.436
137645,156666,12606,0.018,-0.929,-0.218,-0.549,0.183,0.183,230.439
137645,156513,12140,0.02,-0.941,-0.214,-1.951,0.122,-0.183,230.446
137657,156666,12606,0.027,-0.938,-0.218,-1.951,0.122,-0.183,230.449
137657,156502,12127,0.026,-0.926,-0.223,-2.073,-0.183,-0.122,230.456
137626,156666,12606,0.024,-0.924,-0.233,-2.073,-0.183,-0.122,230.459
137626,156494,12136,0.025,-0.938,-0.238,-1.829,-0.061,0,230.465
137568,156666,12606,0.029,-0.944,-0.236,-1.829,-0.061,0,230.469
137568,156436,12115,0.029,-0.939,-0.241,-1.037,-0.122,0.061,230.475
137539,156666,12606,0.027,-0.926,-0.235,-1.037,-0.122,0.061,230.479
137539,156423,12103,0.027,-0.921,-0.227,0,0.183,0.427,230.485
137502,156410,12606,0.027,-0.928,-0.231,0,0.183,0.427,230.489
137502,156396,12112,0.027,-0.934,-0.236,0,0.366,0.427,230.495
137492,156410,12606,0.03,-0.938,-0.229,0,0.366,0.427,230.499
137492,156379,12117,0.029,-0.931,-0.219,-0.061,0.427,0.427,230.505
137536,156410,12606,0.025,-0.924,-0.224,-0.061,0.427,0.427,230.509
137536,156397,12131,0.022,-0.929,-0.23,-0.366,0.488,0.61,230.515
137546,156666,12606,0.024,-0.937,-0.232,-0.366,0.488,0.61,230.519
137546,156422,12126,0.025,-0.939,-0.228,-0.488,0.366,0.366,230.525
137607,156666,12606,0.025,-0.934,-0.221,-0.488,0.366,0.366,230.529
137607,156499,12145,0.021,-0.93,-0.234,-0.671,0.366,0.305,230.535
137637,156666,12606,0.024,-0.939,-0.232,-0.671,0.366,0.305,230.538
137637,156509,12119,0.026,-0.943,-0.217,-0.793,0.488,0.061,230.545
137642,156666,12606,0.027,-0.935,-0.219,-0.793,0.488,0.061,230.548
137642,156500,12136,0.021,-0.929,-0.232,-1.22,0.427,0.061,230.555
137636,156666,12606,0.022,-0.933,-0.231,-1.22,0.427,0.061,230.558
137636,156503,12148,0.026,-0.94,-0.23,-1.28,0.488,0.061,230.564
137639,156666,12606,0.026,-0.935,-0.23,-1.28,0.488,0.061,230.568
137639,156489,12139,0.024,-0.927,-0.229,-0.549,0.366,0.061,230.574
137628,156666,12606,0.025,-0.928,-0.234,-0.549,0.366,0.061,230.578
137628,156493,12132,0.029,-0.928,-0.236,-0.183,0.549,0.122,230.584
137629,156666,12606,0.027,-0.932,-0.234,-0.183,0.549,0.122,230.588
137629,156500,12122,0.027,-0.939,-0.233,0,0.671,0.061,230.594
137622,156666,12606,0.028,-0.934,-0.232,0,0.671,0.061,230.598
137622,156473,12126,0.028,-0.931,-0.232,0.305,0.671,0.305,230.604
137629,156666,12606,0.025,-0.931,-0.227,0.305,0.671,0.305,230.608
137629,156488,12137,0.026,-0.929,-0.234,0.61,0.793,0.549,230.614
137611,156666,12606,0.026,-0.936,-0.229,0.61,0.793,0.549,230.618
137611,156491,12124,0.025,-0.936,-0.223,0.671,0.671,0.549,230.624
137617,156666,12606,0.024,-0.93,-0.223,0.671,0.671,0.549,230.628
137617,156462,12120,0.023,-0.925,-0.222,0.366,0.549,0.488,230.634
137596,156666,12606,0.024,-0.924,-0.225,0.366,0.549,0.488,230.637
137596,156450,12138,0.024,-0.928,-0.212,-0.244,0.488,0.366,230.644
137604,156666,12606,0.024,-0.931,-0.216,-0.244,0.488,0.366,230.647
137604,156462,12122,0.023,-0.93,-0.226,-0.732,0.366,0.183,230.654
137617,156666,12606,0.022,-0.935,-0.228,-0.732,0.366,0.183,230.657
137617,156489,12122,0.026,-0.937,-0.228,-1.28,0.244,0.122,230.663
137647,156666,12606,0.027,-0.94,-0.23,-1.28,0.244,0.122,230.667
137647,156481,12142,0.026,-0.933,-0.229,-0.793,0.244,0.183,230.673
137669,156666,12606,0.026,-0.926,-0.23,-0.793,0.244,0.183,230.677
137669,156535,12130,0.024,-0.936,-0.241,-0.671,0.427,0.305,230.683
137703,156666,12606,0.026,-0.944,-0.24,-0.671,0.427,0.305,230.687
137703,156570,12142,0.025,-0.938,-0.232,-0.305,0.488,0.244,230.693
137712,156666,12606,0.026,-0.927,-0.231,-0.305,0.488,0.244,230.697
137712,156574,12155,0.019,-0.927,-0.231,0.427,0.488,0.488,230.703
137699,156666,12606,0.019,-0.933,-0.221,0.427,0.488,0.488,230.707
137699,156555,12139,0.022,-0.931,-0.212,0.061,0.305,0.305,230.713
137698,156666,12606,0.022,-0.922,-0.225,0.061,0.305,0.305,230.717
137698,156553,12154,0.021,-0.932,-0.234,-1.098,0.366,0.122,230.723
137682,156666,12606,0.026,-0.94,-0.236,-1.098,0.366,0.122,230.727
137682,156532,12163,0.033,-0.943,-0.238,-1.098,0.549,-0.183,230.733
137647,156666,12606,0.03,-0.935,-0.234,-1.098,0.549,-0.183,230.737
137647,156504,12142,0.026,-0.93,-0.234,-0.305,0.427,0.061,230.743
137631,156666,12606,0.022,-0.93,-0.234,-0.305,0.427,0.061,230.746
137631,156500,12154,0.001,-0.938,-0.233,0.183,0.427,0.061,230.753
137634,156666,12606,0.031,-0.938,-0.23,0.183,0.427,0.061,230.756
137634,156520,12124,0.051,-0.925,-0.226,0.488,-0.305,-0.976,230.762
137661,156666,12606,0.038,-0.922,-0.231,0.488,-0.305,-0.976,230.766
137661,156537,12154,0.015,-0.936,-0.24,0.549,0.183,0,230.772
137724,156666,12606,0.021,-0.937,-0.227,0.549,0.183,0,230.776
137724,156563,12149,0.032,-0.927,-0.216,0.549,0.244,0.488,230.782
137732,156666,12606,0.026,-0.924,-0.224,0.549,0.244,0.488,230.786
137732,156563,12153,0.021,-0.929,-0.231,0.244,0.366,0.549,230.792
137749,156666,12606,0.022,-0.935,-0.229,0.244,0.366,0.549,230.796
137749,156592,12165,0.027,-0.937,-0.221,-0.122,0.427,0.488,230.802
137730,156666,12606,0.025,-0.93,-0.22,-0.122,0.427,0.488,230.806
137730,156570,12148,0.024,-0.926,-0.219,-0.427,0.305,0.366,230.812
137715,156666,12606,0.021,-0.927,-0.223,-0.427,0.305,0.366,230.816
137715,156582,12149,0.023,-0.932,-0.221,-1.22,0.366,0.244,230.822
137668,156666,12606,0.027,-0.935,-0.221,-1.22,0.366,0.244,230.826
137668,156531,12156,0.024,-0.941,-0.225,-1.402,0.122,0,230.832
137659,156666,12606,0.025,-0.939,-0.235,-1.402,0.122,0,230.836
137659,156498,12150,0.028,-0.939,-0.23,-1.28,-0.061,0.061,230.842
137665,156666,12606,0.03,-0.932,-0.228,-1.28,-0.061,0.061,230.845
137665,156525,12163,0.027,-0.928,-0.234,-0.793,-0.061,0.183,230.852
137673,156666,12606,0.027,-0.926,-0.238,-0.793,-0.061,0.183,230.855
137673,156530,12141,0.027,-0.934,-0.243,-0.366,0.427,0.122,230.862
137688,156666,12606,0.025,-0.936,-0.243,-0.366,0.427,0.122,230.865
137688,156581,12139,0.025,-0.932,-0.236,0.61,0.488,0.061,230.871
137701,156666,12606,0.03,-0.928,-0.221,0.61,0.488,0.061,230.875
137701,156563,12144,0.031,-0.919,-0.215,0.915,0.427,0.183,230.881
137699,156666,12606,0.025,-0.919,-0.22,0.915,0.427,0.183,230.885
137699,156544,12139,0.023,-0.932,-0.227,0.061,0.61,0.427,230.891
137670,156666,12606,0.023,-0.932,-0.227,0.061,0.61,0.427,230.895
137670,156525,12135,0.029,-0.932,-0.221,-0.366,0.305,0.305,230.901
137656,156666,12606,0.029,-0.932,-0.221,-0.366,0.305,0.305,230.905
137656,156496,12138,0.024,-0.935,-0.225,-1.037,0.061,0.366,230.911
137625,156666,12606,0.024,-0.935,-0.225,-1.037,0.061,0.366,230.915
137625,156484,12135,0.026,-0.939,-0.234,-1.585,0.061,0.122,230.921
137624,156666,12606,0.026,-0.939,-0.234,-1.585,0.061,0.122,230.925
137624,156466,12124,0.024,-0.936,-0.224,-1.402,-0.122,0.122,230.931
137603,156666,12606,0.024,-0.936,-0.224,-1.402,-0.122,0.122,230.935
137603,156485,12140,0.025,-0.929,-0.237,-1.098,0.244,0.122,230.941
137576,156666,12606,0.025,-0.929,-0.237,-1.098,0.244,0.122,230.944
137576,156430,12133,0.024,-0.938,-0.236,-0.793,0.305,0.183,230.951
137558,156666,12606,0.024,-0.938,-0.236,-0.793,0.305,0.183,230.954
137558,156442,12115,0.018,-0.915,-0.229,-0.305,0.305,0.366,230.96
137562,156666,12606,0.018,-0.915,-0.229,-0.305,0.305,0.366,230.964
137562,156453,12134,0.03,-0.929,-0.246,-0.305,0.427,0.244,230.97
137576,156666,12606,0.03,-0.929,-0.246,-0.305,0.427,0.244,230.974
137576,156433,12132,0.023,-0.933,-0.227,0.488,0.427,0.305,230.98
137608,156666,12606,0.023,-0.933,-0.227,0.488,0.427,0.305,230.984
137608,156458,12117,0.024,-0.926,-0.224,0.244,0.549,0.366,230.99
137597,156666,12606,0.024,-0.926,-0.224,0.244,0.549,0.366,230.994
137597,156463,12124,0.031,-0.945,-0.229,-0.305,0.183,0.061,231
137598,156666,12606,0.031,-0.945,-0.229,-0.305,0.183,0.061,231.004
137598,156437,12120,0.028,-0.939,-0.24,-0.366,0.122,0.305,231.01
137602,156666,12606,0.028,-0.939,-0.24,-0.366,0.122,0.305,231.014
137602,156450,12122,0.032,-0.946,-0.24,0,0.122,0.488,231.02
137584,156666,12606,0.032,-0.946,-0.24,0,0.122,0.488,231.024
137584,156428,12120,0.027,-0.936,-0.228,1.037,0.305,0.671,231.03
137585,156666,12606,0.027,-0.936,-0.228,1.037,0.305,0.671,231.034
137585,156456,12124,0.023,-0.926,-0.225,1.037,0.305,0.671,231.04
137569,156666,12606,0.025,-0.926,-0.223,1.22,0.366,0.671,231.043
137569,156427,12134,0.023,-0.934,-0.217,1.22,0.366,0.671,231.05
137578,156666,12606,0.024,-0.929,-0.208,0.854,0.183,0.549,231.053
137578,156442,12129,0.021,-0.922,-0.216,0.854,0.183,0.549,231.06
137575,156666,12606,0.016,-0.926,-0.221,0.122,0.305,0.488,231.063
137575,156443,12118,0.021,-0.929,-0.221,0.122,0.305,0.488,231.069
137576,156666,12606,0.025,-0.928,-0.213,-0.427,0.183,0.183,231.073
137576,156463,12121,0.022,-0.921,-0.219,-0.427,0.183,0.183,231.079
137619,156666,12606,0.019,-0.924,-0.236,-1.098,0.183,0.061,231.083
137619,156471,12129,0.022,-0.931,-0.236,-1.098,0.183,0.061,231.089
137617,156666,12606,0.03,-0.932,-0.241,-1.159,0.244,-0.061,231.093
137617,156479,12131,0.028,-0.934,-0.241,-1.159,0.244,-0.061,231.099
137598,156666,12606,0.026,-0.934,-0.229,-0.427,0.122,0.122,231.103
137598,156448,12129,0.025,-0.932,-0.227,-0.427,0.122,0.122,231.109
137596,156666,12606,0.024,-0.933,-0.236,-0.366,0.244,0.183,231.113
137596,156460,12135,0.027,-0.946,-0.24,-0.366,0.244,0.183,231.119
137582,156666,12606,0.028,-0.949,-0.232,-0.122,0.488,0.183,231.123
137582,156439,12129,0.031,-0.939,-0.23,-0.122,0.488,0.183,231.129
137604,156666,12606,0.026,-0.926,-0.23,0.549,0.732,0.427,231.133
137604,156433,12125,0.025,-0.924,-0.228,0.549,0.732,0.427,231.139
137593,156666,12606,0.025,-0.932,-0.23,0.366,0.915,0.427,231.142
137593,156474,12131,0.026,-0.936,-0.228,0.366,0.915,0.427,231.149
137621,156666,12606,0.025,-0.931,-0.227,0.549,0.793,0.244,231.152
137621,156468,12119,0.023,-0.927,-0.225,0.549,0.793,0.244,231.159
137605,156666,12606,0.025,-0.923,-0.233,0.488,0.915,0.427,231.162
137605,156453,12109,0.025,-0.929,-0.228,0.488,0.915,0.427,231.168
137591,156666,12606,0.026,-0.932,-0.23,0.122,1.037,0.427,231.172
137591,156443,12130,0.027,-0.926,-0.232,0.122,1.037,0.427,231.178
137604,156666,12606,0.027,-0.927,-0.225,0.854,1.341,0.488,231.182
137604,156436,12127,0.023,-0.928,-0.219,0.854,1.341,0.488,231.188
137598,156666,12606,0.022,-0.931,-0.222,0.793,1.341,0.61,231.192
137598,156464,12123,0.021,-0.931,-0.219,0.793,1.341,0.61,231.198
137582,156666,12606,0.023,-0.931,-0.22,-0.305,0.976,0.427,231.202
137582,156450,12127,0.025,-0.937,-0.225,-0.305,0.976,0.427,231.208
137576,156666,12606,0.025,-0.938,-0.227,-1.037,0.549,0.244,231.212
137576,156460,12134,0.028,-0.935,-0.231,-1.037,0.549,0.244,231.218
137573,156666,12606,0.026,-0.933,-0.231,-0.976,0.244,0.244,231.222
137573,156432,12111,0.028,-0.932,-0.227,-0.976,0.244,0.244,231.228
137595,156666,12606,0.028,-0.931,-0.235,-0.793,0,0.366,231.232
137595,156465,12122,0.03,-0.93,-0.241,-0.793,0,0.366,231.238
137599,156666,12606,0.028,-0.936,-0.241,-0.671,0.061,0.366,231.241
137599,156460,12139,0.029,-0.938,-0.241,-0.671,0.061,0.366,231.248
137619,156666,12606,0.029,-0.938,-0.24,0.183,0.122,0.488,231.251
137619,156458,12120,0.029,-0.932,-0.236,0.183,0.122,0.488,231.258
137622,156666,12606,0.027,-0.933,-0.23,0.976,0.244,0.793,231.261
137622,156438,12126,0.024,-0.936,-0.22,0.976,0.244,0.793,231.267
137613,156666,12606,0.025,-0.934,-0.214,0.915,0.305,0.793,231.271
137613,156432,12125,0.022,-0.927,-0.214,0.915,0.305,0.793,231.277
137595,156666,12606,0.021,-0.931,-0.227,-0.061,0.244,0.732,231.281
137595,156452,12122,0.027,-0.944,-0.228,-0.061,0.244,0.732,231.287
137573,156666,12606,0.026,-0.942,-0.217,-0.61,0.244,0.488,231.291
137573,156450,12130,0.024,-0.933,-0.219,-0.61,0.244,0.488,231.297
137594,156666,12606,0.02,-0.926,-0.227,-0.854,0.244,0.61,231.301
137594,156469,12131,0.024,-0.93,-0.231,-0.854,0.244,0.61,231.307
137616,156666,12606,0.027,-0.934,-0.235,-0.854,0.305,0.427,231.311
137616,156444,12131,0.026,-0.934,-0.233,-0.854,0.305,0.427,231.317
137630,156666,12606,0.024,-0.93,-0.232,-0.305,0.305,0.305,231.321
137630,156452,12134,0.026,-0.929,-0.232,-0.305,0.305,0.305,231.327
137654,156666,12606,0.025,-0.933,-0.232,-0.122,0.244,0.427,231.331
137654,156505,12123,0.024,-0.934,-0.228,-0.122,0.244,0.427,231.337
137637,156666,12606,0.028,-0.935,-0.226,0,0.244,0.427,231.34
137637,156487,12120,0.027,-0.931,-0.224,0,0.244,0.427,231.347
137621,156666,12606,0.023,-0.931,-0.231,-0.122,0.305,0.427,231.35
137621,156469,12131,0.028,-0.936,-0.229,-0.122,0.305,0.427,231.357
137608,156666,12606,0.028,-0.937,-0.225,-0.488,0.488,0.366,231.36
137608,156445,12114,0.028,-0.933,-0.228,-0.488,0.488,0.366,231.366
137570,156666,12606,0.027,-0.93,-0.232,-0.488,0.61,0.427,231.37
137570,156428,12109,0.028,-0.936,-0.229,-0.488,0.61,0.427,231.376
137541,156666,12606,0.027,-0.937,-0.225,-0.305,0.61,0.488,231.38
137541,156419,12118,0.024,-0.935,-0.222,-0.305,0.61,0.488,231.386
137535,156410,12606,0.024,-0.931,-0.221,-0.244,0.427,0.427,231.39
137535,156382,12104,0.021,-0.928,-0.224,-0.244,0.427,0.427,231.396
137522,156410,12606,0.025,-0.929,-0.22,-0.732,0.305,0.244,231.4
137522,156394,12114,0.026,-0.932,-0.221,-0.732,0.305,0.244,231.406
137512,156410,12606,0.026,-0.934,-0.225,-1.28,0.305,0.122,231.41
137512,156364,12100,0.024,-0.934,-0.225,-1.28,0.305,0.122,231.416
137465,156410,12606,0.024,-0.927,-0.228,-1.768,0.427,-0.061,231.42
137465,156349,12100,0.025,-0.927,-0.233,-1.768,0.427,-0.061,231.426
137437,156410,12606,0.027,-0.934,-0.242,-1.463,0.61,-0.244,231.43
137437,156301,12108,0.028,-0.939,-0.235,-1.463,0.61,-0.244,231.436
137414,156410,12606,0.028,-0.933,-0.233,-0.793,0.854,0,231.439
137414,156282,12094,0.025,-0.924,-0.235,-0.793,0.854,0,231.446
137380,156410,12606,0.023,-0.924,-0.226,-0.244,1.037,0.427,231.449
137380,156262,12094,0.025,-0.93,-0.218,-0.244,1.037,0.427,231.456
137329,156410,12606,0.022,-0.931,-0.214,-0.183,0.732,0.61,231.459
137329,156225,12087,0.021,-0.922,-0.215,-0.183,0.732,0.61,231.465
137277,156410,12606,0.022,-0.923,-0.229,-1.159,0.427,0.488,231.469
137277,156184,12085,0.024,-0.938,-0.232,-1.159,0.427,0.488,231.475
137240,156154,12606,0.026,-0.948,-0.221,-1.89,-0.061,0.244,231.479
137240,156141,12076,0.025,-0.94,-0.22,-1.89,-0.061,0.244,231.485
137235,156154,12606,0.025,-0.94,-0.22,-1.89,-0.061,0.244,231.489
137235,156129,12086,0.025,-0.928,-0.239,-2.256,-0.366,0.305,231.495
137181,156154,12606,0.025,-0.928,-0.239,-2.256,-0.366,0.305,231.499
137181,156121,12080,0.035,-0.95,-0.25,-2.805,-0.183,0.122,231.505
137155,156154,12606,0.035,-0.95,-0.25,-2.805,-0.183,0.122,231.509
137155,156107,12082,0.026,-0.929,-0.239,-1.951,-0.183,0.122,231.515
137175,156154,12606,0.026,-0.929,-0.239,-1.951,-0.183,0.122,231.519
137175,156083,12075,0.03,-0.939,-0.25,-0.793,0.427,0.488,231.525
137212,156154,12606,0.03,-0.939,-0.25,-0.793,0.427,0.488,231.529
137212,156096,12078,0.028,-0.933,-0.232,0,0.549,0.366,231.535
137240,156154,12606,0.028,-0.933,-0.232,0,0.549,0.366,231.538
137240,156146,12077,0.022,-0.913,-0.22,0.976,0.61,0.61,231.545
137259,156154,12606,0.022,-0.913,-0.22,0.976,0.61,0.61,231.548
137259,156149,12091,0.023,-0.926,-0.221,0.549,0.549,0.549,231.555
137279,156410,12606,0.023,-0.926,-0.221,0.549,0.549,0.549,231.558
137279,156178,12093,0.024,-0.932,-0.23,-0.366,0.122,0.183,231.564
137314,156410,12606,0.024,-0.932,-0.23,-0.366,0.122,0.183,231.568
137314,156214,12091,0.023,-0.923,-0.225,-0.854,-0.183,0.183,231.574
137307,156410,12606,0.023,-0.923,-0.225,-0.854,-0.183,0.183,231.578
137307,156210,12097,0.024,-0.94,-0.231,-0.671,-0.366,0.305,231.584
137304,156410,12606,0.024,-0.94,-0.231,-0.671,-0.366,0.305,231.588
137304,156189,12087,0.025,-0.93,-0.23,-0.732,-0.244,0.183,231.594
137289,156410,12606,0.025,-0.93,-0.23,-0.732,-0.244,0.183,231.598
137289,156177,12087,0.024,-0.933,-0.228,-0.793,-0.122,0.244,231.604
137329,156410,12606,0.024,-0.933,-0.228,-0.793,-0.122,0.244,231.608
137329,156205,12080,0.029,-0.932,-0.227,-0.793,0,0.122,231.614
137363,156410,12606,0.029,-0.932,-0.227,-0.793,0,0.122,231.618
137363,156202,12090,0.026,-0.939,-0.245,-1.28,0.366,0.183,231.624
137350,156410,12606,0.026,-0.939,-0.245,-1.28,0.366,0.183,231.628
137350,156236,12100,0.031,-0.943,-0.241,-1.098,0.61,-0.061,231.634
137385,156410,12606,0.029,-0.94,-0.245,-1.098,0.61,-0.061,231.637
137385,156277,12102,0.026,-0.935,-0.25,-0.183,0.732,0.122,231.644
137410,156410,12606,0.024,-0.935,-0.249,-0.183,0.732,0.122,231.647
137410,156311,12103,0.024,-0.94,-0.243,0.671,0.976,0.427,231.654
137452,156410,12606,0.027,-0.942,-0.236,0.671,0.976,0.427,231.657
137452,156305,12111,0.025,-0.94,-0.228,1.707,1.037,0.305,231.663
137478,156410,12606,0.02,-0.93,-0.225,1.707,1.037,0.305,231.667
137478,156351,12122,0.02,-0.922,-0.224,1.646,1.098,0.183,231.673
137488,156410,12606,0.025,-0.928,-0.222,1.646,1.098,0.183,231.677
137488,156364,12110,0.026,-0.931,-0.215,1.159,0.854,-0.061,231.683
137504,156410,12606,0.021,-0.926,-0.219,1.159,0.854,-0.061,231.687
137504,156332,12102,0.022,-0.924,-0.215,0.305,0.61,-0.122,231.693
137514,156410,12606,0.023,-0.926,-0.225,0.305,0.61,-0.122,231.697
137514,156354,12124,0.025,-0.93,-0.229,-0.549,0.366,-0.183,231.703
137519,156410,12606,0.027,-0.927,-0.222,-0.549,0.366,-0.183,231.707
137519,156357,12118,0.028,-0.924,-0.223,-0.732,0.122,-0.305,231.713
137556,156410,12606,0.028,-0.922,-0.229,-0.732,0.122,-0.305,231.717
137556,156384,12124,0.029,-0.932,-0.238,-0.976,0.122,-0.183,231.723
137569,156410,12606,0.034,-0.939,-0.239,-0.976,0.122,-0.183,231.727
137569,156413,12123,0.032,-0.941,-0.241,-0.793,0.122,0,231.733
137573,156410,12606,0.028,-0.939,-0.242,-0.793,0.122,0,231.737
137573,156414,12122,0.029,-0.933,-0.239,0.122,0.244,0.244,231.743
137585,156410,12606,0.036,-0.929,-0.234,0.122,0.244,0.244,231.746
137585,156414,12108,0.031,-0.929,-0.237,0.671,0.427,0.427,231.753
137572,156410,12606,0.032,-0.928,-0.23,0.671,0.427,0.427,231.756
137572,156384,12113,0.033,-0.928,-0.23,0.671,0.793,0.488,231.762
137554,156410,12606,0.03,-0.927,-0.228,0.671,0.793,0.488,231.766
137554,156361,12140,0.031,-0.928,-0.225,0.427,0.915,0.488,231.772
137544,156410,12606,0.028,-0.925,-0.223,0.427,0.915,0.488,231.776
137544,156354,12121,0.027,-0.93,-0.224,0.122,0.793,0.549,231.782
137535,156410,12606,0.03,-0.928,-0.226,0.122,0.793,0.549,231.786
137535,156340,12134,0.026,-0.928,-0.236,-0.183,0.671,0.427,231.792
137518,156410,12606,0.022,-0.932,-0.234,-0.183,0.671,0.427,231.796
137518,156362,12129,0.022,-0.935,-0.228,-0.488,0.488,0.366,231.802
137546,156410,12606,0.025,-0.942,-0.23,-0.488,0.488,0.366,231.806
137546,156371,12104,0.023,-0.943,-0.233,-0.305,0.244,0.183,231.812
137559,156410,12606,0.023,-0.942,-0.231,-0.305,0.244,0.183,231.816
137559,156382,12119,0.021,-0.937,-0.231,-0.244,0.305,0.244,231.822
137568,156410,12606,0.021,-0.936,-0.23,-0.244,0.305,0.244,231.826
137568,156400,12103,0.02,-0.935,-0.224,-0.183,0.488,0.061,231.832
137544,156410,12606,0.021,-0.932,-0.227,-0.183,0.488,0.061,231.835
137544,156389,12105,0.022,-0.934,-0.228,-0.671,0.305,-0.183,231.842
137547,156410,12606,0.025,-0.935,-0.226,-0.671,0.305,-0.183,231.845
137547,156404,12108,0.022,-0.932,-0.227,-1.22,0.183,-0.305,231.852
137534,156410,12606,0.025,-0.93,-0.221,-1.22,0.183,-0.305,231.855
137534,156369,12109,0.027,-0.924,-0.225,-1.585,0.366,-0.183,231.861
137502,156410,12606,0.03,-0.924,-0.231,-1.585,0.366,-0.183,231.865
137502,156332,12104,0.031,-0.931,-0.231,-1.829,0.427,-0.244,231.871
137480,156410,12606,0.029,-0.931,-0.233,-1.829,0.427,-0.244,231.875
137480,156303,12120,0.029,-0.931,-0.236,-1.585,0.183,-0.244,231.881
137457,156410,12606,0.029,-0.929,-0.238,-1.585,0.183,-0.244,231.885
137457,156313,12094,0.031,-0.924,-0.237,-1.28,0.122,-0.122,231.891
137447,156410,12606,0.03,-0.928,-0.239,-1.28,0.122,-0.122,231.895
137447,156287,12102,0.029,-0.936,-0.236,-0.549,-0.061,0.122,231.901
137442,156410,12606,0.027,-0.928,-0.228,-0.549,-0.061,0.122,231.905
137442,156279,12100,0.027,-0.92,-0.231,-0.061,-0.061,0.244,231.911
137434,156410,12606,0.025,-0.918,-0.228,-0.061,-0.061,0.244,231.915
137434,156294,12101,0.024,-0.925,-0.23,-0.366,0.061,0.305,231.921
137459,156410,12606,0.023,-0.936,-0.239,-0.366,0.061,0.305,231.925
137459,156327,12110,0.025,-0.936,-0.239,-0.366,-0.122,0.061,231.931
137481,156410,12606,0.026,-0.937,-0.242,-0.366,-0.122,0.061,231.935
137481,156346,12114,0.027,-0.933,-0.239,0.061,-0.122,0.244,231.941
137519,156410,12606,0.027,-0.931,-0.231,0.061,-0.122,0.244,231.944
137519,156364,12104,0.024,-0.932,-0.23,0.244,0.061,0.366,231.951
137513,156410,12606,0.029,-0.939,-0.236,0.244,0.061,0.366,231.954
137513,156361,12105,0.03,-0.939,-0.233,0.183,0.366,0.244,231.96
137485,156410,12606,0.031,-0.938,-0.221,0.183,0.366,0.244,231.964
137485,156357,12119,0.031,-0.928,-0.22,0.244,0.427,0.244,231.97
137466,156410,12606,0.028,-0.925,-0.221,0.244,0.427,0.244,231.974
137466,156344,12101,0.028,-0.932,-0.222,-0.549,0.549,0.244,231.98
137415,156410,12606,0.029,-0.937,-0.225,-0.549,0.549,0.244,231.984
137415,156282,12083,0.034,-0.933,-0.227,-1.098,0.427,0.061,231.99
137385,156410,12606,0.033,-0.93,-0.23,-1.098,0.427,0.061,231.994
137385,156281,12089,0.031,-0.925,-0.235,-1.037,0.244,0.305,232
137393,156410,12606,0.03,-0.927,-0.244,-1.037,0.244,0.305,232.004
137393,156296,12088,0.029,-0.936,-0.244,-0.915,0.244,0.488,232.01
137418,156410,12606,0.031,-0.938,-0.244,-0.915,0.244,0.488,232.014
137418,156302,12086,0.029,-0.935,-0.247,-0.122,0.366,0.488,232.02
137422,156410,12606,0.025,-0.932,-0.239,-0.122,0.366,0.488,232.024
137422,156278,12095,0.023,-0.93,-0.228,0.549,0.549,0.671,232.03
137412,156410,12606,0.024,-0.93,-0.22,0.549,0.549,0.671,232.034
137412,156292,12100,0.023,-0.927,-0.223,0.183,0.549,0.671,232.04
137433,156410,12606,0.021,-0.929,-0.232,0.183,0.549,0.671,232.043
137433,156323,12091,0.026,-0.936,-0.225,-0.61,0.305,0.366,232.05
137422,156410,12606,0.027,-0.931,-0.223,-0.61,0.305,0.366,232.053
137422,156318,12091,0.025,-0.925,-0.228,-0.549,0.183,0.305,232.06
137428,156410,12606,0.022,-0.928,-0.235,-0.549,0.183,0.305,232.063
137428,156306,12081,0.025,-0.938,-0.231,-0.732,0.305,0.244,232.069
137454,156410,12606,0.029,-0.934,-0.222,-0.732,0.305,0.244,232.073
137454,156317,12100,0.027,-0.929,-0.23,-0.793,0.061,0.244,232.079
137430,156410,12606,0.027,-0.929,-0.23,-0.793,0.061,0.244,232.083
137430,156331,12085,0.024,-0.934,-0.224,-1.22,0.244,0.183,232.089
137421,156410,12606,0.024,-0.934,-0.224,-1.22,0.244,0.183,232.093
137421,156278,12095,0.027,-0.933,-0.228,-1.585,0.061,0.183,232.099
137386,156410,12606,0.027,-0.933,-0.228,-1.585,0.061,0.183,232.103
137386,156300,12086,0.029,-0.932,-0.237,-1.829,0.061,0.061,232.109
137382,156410,12606,0.029,-0.932,-0.237,-1.829,0.061,0.061,232.113
137382,156277,12087,0.028,-0.94,-0.244,-1.402,0.061,0.061,232.119
137403,156410,12606,0.028,-0.94,-0.244,-1.402,0.061,0.061,232.123
137403,156268,12100,0.029,-0.929,-0.24,-0.793,0.305,0.244,232.129
137392,156410,12606,0.029,-0.929,-0.24,-0.793,0.305,0.244,232.133
137392,156267,12095,0.026,-0.931,-0.24,-0.244,0.549,0.305,232.139
137391,156410,12606,0.026,-0.931,-0.24,-0.244,0.549,0.305,232.142
137391,156280,12094,0.027,-0.929,-0.236,0.061,0.61,0.244,232.149
137403,156410,12606,0.027,-0.929,-0.236,0.061,0.61,0.244,232.152
137403,156293,12092,0.029,-0.934,-0.243,0,0.61,0.244,232.159
137420,156410,12606,0.029,-0.934,-0.243,0,0.61,0.244,232.162
137420,156289,12073,0.03,-0.936,-0.233,0.305,0.549,0.122,232.168
137393,156410,12606,0.03,-0.936,-0.233,0.305,0.549,0.122,232.172
137393,156283,12085,0.029,-0.927,-0.237,0.305,0.488,0.183,232.178
137416,156410,12606,0.029,-0.927,-0.237,0.305,0.488,0.183,232.182
137416,156297,12081,0.028,-0.936,-0.233,0.305,0.488,0.061,232.188
137415,156410,12606,0.028,-0.936,-0.233,0.305,0.488,0.061,232.192
137415,156315,12081,0.021,-0.932,-0.239,0.366,0.244,0.305,232.198
137409,156410,12606,0.021,-0.932,-0.239,0.366,0.244,0.305,232.202
137409,156326,12091,0.036,-0.921,-0.227,0.427,0,0.122,232.208
137411,156410,12606,0.036,-0.921,-0.227,0.427,0,0.122,232.212
137411,156323,12088,0.027,-0.921,-0.223,0.183,0.183,0.305,232.218
137441,156410,12606,0.027,-0.921,-0.223,0.183,0.183,0.305,232.222
137441,156310,12089,0.023,-0.93,-0.223,0.183,0.183,0.305,232.228
137423,156410,12606,0.026,-0.929,-0.218,-0.549,0.244,0.427,232.232
137423,156306,12083,0.029,-0.922,-0.219,-0.549,0.244,0.427,232.238
137442,156410,12606,0.027,-0.924,-0.226,-1.341,-0.122,0.488,232.241
137442,156292,12110,0.026,-0.933,-0.237,-1.341,-0.122,0.488,232.248
137428,156410,12606,0.031,-0.94,-0.238,-1.829,-0.122,0.244,232.251
137428,156324,12095,0.031,-0.937,-0.239,-1.829,-0.122,0.244,232.258
137430,156410,12606,0.028,-0.936,-0.245,-1.341,-0.183,0.244,232.261
137430,156305,12083,0.029,-0.937,-0.246,-1.341,-0.183,0.244,232.267
137423,156410,12606,0.029,-0.938,-0.247,-0.366,0.122,0.488,232.271
137423,156307,12087,0.027,-0.937,-0.252,-0.366,0.122,0.488,232.277
137388,156410,12606,0.028,-0.936,-0.247,0.793,0.488,0.732,232.281
137388,156283,12079,0.027,-0.93,-0.236,0.793,0.488,0.732,232.287
137370,156410,12606,0.024,-0.926,-0.229,1.585,0.549,0.915,232.291
137370,156264,12088,0.021,-0.922,-0.222,1.585,0.549,0.915,232.297
137396,156410,12606,0.022,-0.923,-0.223,1.159,0.671,0.854,232.301
137396,156256,12080,0.024,-0.927,-0.23,1.159,0.671,0.854,232.307
137362,156410,12606,0.023,-0.936,-0.225,0.427,0.427,0.488,232.311
137362,156281,12079,0.023,-0.934,-0.222,0.427,0.427,0.488,232.317
137365,156410,12606,0.025,-0.928,-0.224,0.061,0.183,0.305,232.321
137365,156254,12085,0.025,-0.922,-0.22,0.061,0.183,0.305,232.327
137360,156410,12606,0.024,-0.931,-0.223,-0.732,0.183,0.061,232.331
137360,156229,12082,0.029,-0.938,-0.23,-0.732,0.183,0.061,232.337
137331,156410,12606,0.032,-0.943,-0.236,-1.098,0.244,-0.244,232.34
137331,156229,12075,0.029,-0.944,-0.241,-1.098,0.244,-0.244,232.347
137325,156410,12606,0.029,-0.94,-0.243,-0.793,0.488,-0.183,232.35
137325,156203,12075,0.032,-0.933,-0.238,-0.793,0.488,-0.183,232.357
137297,156410,12606,0.031,-0.928,-0.234,0,0.427,0.244,232.36
137297,156214,12077,0.029,-0.925,-0.238,0,0.427,0.244,232.366
137264,156410,12606,0.03,-0.924,-0.243,0.244,0.549,0.366,232.37
137264,156183,12074,0.034,-0.938,-0.239,0.244,0.549,0.366,232.376
137233,156154,12606,0.036,-0.936,-0.235,0.793,0.732,0.244,232.38
137233,156156,12078,0.03,-0.92,-0.228,0.793,0.732,0.244,232.386
137236,156410,12606,0.028,-0.913,-0.225,1.037,0.793,0.671,232.39
137236,156172,12072,0.028,-0.918,-0.235,1.037,0.793,0.671,232.396
137236,156410,12606,0.03,-0.937,-0.236,0.366,0.732,0.61,232.4
137236,156167,12073,0.034,-0.945,-0.228,0.366,0.732,0.61,232.406
137276,156410,12606,0.027,-0.936,-0.225,0.305,0.61,0.427,232.41
137276,156166,12068,0.025,-0.93,-0.231,0.305,0.61,0.427,232.416
137304,156410,12606,0.025,-0.932,-0.231,0.244,0.61,0.488,232.42
137304,156176,12077,0.027,-0.939,-0.235,0.244,0.61,0.488,232.426
137311,156410,12606,0.028,-0.943,-0.24,-0.061,0.61,0.427,232.43
137311,156203,12090,0.028,-0.943,-0.242,-0.061,0.61,0.427,232.436
137331,156410,12606,0.028,-0.937,-0.237,0.549,0.671,0.366,232.439
137331,156218,12074,0.026,-0.931,-0.235,0.549,0.671,0.366,232.446
137337,156410,12606,0.024,-0.927,-0.233,1.22,0.793,0.488,232.449
137337,156204,12083,0.023,-0.925,-0.234,1.22,0.793,0.488,232.456
137318,156410,12606,0.027,-0.928,-0.23,1.402,0.915,0.488,232.459
137318,156187,12087,0.025,-0.929,-0.225,1.402,0.915,0.488,232.465
137278,156410,12606,0.025,-0.922,-0.218,1.341,0.854,0.549,232.469
137278,156187,12072,0.023,-0.918,-0.218,1.341,0.854,0.549,232.475
137297,156410,12606,0.025,-0.92,-0.222,0.671,0.671,0.549,232.479
137297,156201,12071,0.027,-0.928,-0.232,0.671,0.671,0.549,232.485
137302,156410,12606,0.03,-0.936,-0.23,0,0.671,0.305,232.489
137302,156197,12076,0.028,-0.935,-0.227,0,0.671,0.305,232.495
137321,156410,12606,0.025,-0.924,-0.229,-0.244,0.488,0.366,232.499
137321,156233,12076,0.031,-0.926,-0.231,-0.244,0.488,0.366,232.505
137327,156410,12606,0.031,-0.934,-0.233,-0.61,0.244,0.366,232.509
137327,156209,12083,0.029,-0.939,-0.236,-0.61,0.244,0.366,232.515
137325,156410,12606,0.031,-0.939,-0.24,-0.732,0.122,0.305,232.519
137325,156218,12071,0.031,-0.937,-0.237,-0.732,0.122,0.305,232.525
137327,156410,12606,0.028,-0.933,-0.234,-0.305,0.122,0.427,232.529
137327,156213,12082,0.028,-0.932,-0.231,-0.305,0.122,0.427,232.535
137337,156410,12606,0.028,-0.93,-0.231,0.305,0.183,0.549,232.538
137337,156208,12080,0.026,-0.93,-0.236,0.305,0.183,0.549,232.545
137368,156410,12606,0.028,-0.933,-0.235,0.305,0.244,0.61,232.548
137368,156249,12092,0.026,-0.935,-0.235,0.305,0.244,0.61,232.555
137436,156410,12606,0.025,-0.935,-0.231,0.61,0.122,0.671,232.558
137436,156258,12098,0.027,-0.928,-0.226,0.61,0.122,0.671,232.564
137456,156410,12606,0.028,-0.925,-0.217,0.671,0.183,0.61,232.568
137456,156307,12083,0.026,-0.919,-0.215,0.671,0.183,0.61,232.574
137492,156410,12606,0.021,-0.923,-0.225,-0.061,0.183,0.549,232.578
137492,156345,12107,0.024,-0.927,-0.231,-0.061,0.183,0.549,232.584
137499,156410,12606,0.029,-0.931,-0.223,-0.976,0.244,0.366,232.588
137499,156347,12100,0.028,-0.928,-0.223,-0.976,0.244,0.366,232.594
137468,156410,12606,0.021,-0.924,-0.221,-1.463,0,0.305,232.598
137468,156316,12091,0.026,-0.928,-0.225,-1.463,0,0.305,232.604
137429,156410,12606,0.028,-0.93,-0.233,-1.829,-0.061,0.183,232.608
137429,156299,12112,0.028,-0.937,-0.23,-1.829,-0.061,0.183,232.614
137397,156410,12606,0.029,-0.94,-0.234,-1.89,-0.122,0.183,232.618
137397,156257,12083,0.028,-0.93,-0.237,-1.89,-0.122,0.183,232.624
137386,156410,12606,0.029,-0.926,-0.231,-1.463,0.061,0.183,232.628
137386,156244,12090,0.028,-0.936,-0.24,-1.463,0.061,0.183,232.634
137376,156410,12606,0.03,-0.949,-0.247,-1.159,0.122,0.183,232.637
137376,156292,12078,0.031,-0.948,-0.244,-1.159,0.122,0.183,232.644
137404,156410,12606,0.034,-0.932,-0.24,-0.488,0.183,0.366,232.647
137404,156266,12078,0.029,-0.931,-0.239,-0.488,0.183,0.366,232.654
137402,156410,12606,0.025,-0.932,-0.237,0.305,0.549,0.61,232.657
137402,156275,12077,0.025,-0.932,-0.234,0.305,0.549,0.61,232.663
137405,156410,12606,0.027,-0.929,-0.228,0.427,0.488,0.427,232.667
137405,156273,12098,0.027,-0.928,-0.225,0.427,0.488,0.427,232.673
137402,156410,12606,0.027,-0.928,-0.225,0.427,0.488,0.427,232.677
137402,156287,12073,0.026,-0.926,-0.227,0,0.488,0.366,232.683
137400,156410,12606,0.026,-0.926,-0.227,0,0.488,0.366,232.687
137400,156269,12080,0.027,-0.929,-0.231,-0.427,0.366,0.305,232.693
137353,156410,12606,0.027,-0.929,-0.231,-0.427,0.366,0.305,232.697
137353,156216,12068,0.03,-0.932,-0.239,-0.793,0.427,0.183,232.703
137361,156410,12606,0.03,-0.932,-0.239,-0.793,0.427,0.183,232.707
137361,156211,12077,0.026,-0.932,-0.233,-0.305,0.671,0.244,232.713
137339,156410,12606,0.026,-0.932,-0.233,-0.305,0.671,0.244,232.717
137339,156200,12074,0.027,-0.933,-0.24,0.244,0.671,0.366,232.723
137328,156410,12606,0.027,-0.933,-0.24,0.244,0.671,0.366,232.727
137328,156219,12073,0.032,-0.934,-0.227,0.366,0.61,0.366,232.733
137350,156410,12606,0.032,-0.934,-0.227,0.366,0.61,0.366,232.736
137350,156208,12070,0.023,-0.927,-0.231,0.427,0.488,0.366,232.743
137373,156410,12606,0.023,-0.927,-0.231,0.427,0.488,0.366,232.746
137373,156255,12071,0.031,-0.933,-0.23,-0.061,0.488,0.366,232.753
137396,156410,12606,0.031,-0.933,-0.23,-0.061,0.488,0.366,232.756
137396,156273,12085,0.024,-0.929,-0.237,0.122,0.244,0.244,232.762
137431,156410,12606,0.024,-0.929,-0.237,0.122,0.244,0.244,232.766
137431,156303,12083,0.028,-0.932,-0.232,0.366,0.427,0.488,232.772
137439,156410,12606,0.028,-0.932,-0.232,0.366,0.427,0.488,232.776
137439,156296,12077,0.026,-0.931,-0.232,0.122,0.305,0.427,232.782
137432,156410,12606,0.026,-0.931,-0.232,0.122,0.305,0.427,232.786
137432,156302,12088,0.024,-0.93,-0.227,0.183,0.366,0.549,232.792
137475,156410,12606,0.024,-0.93,-0.227,0.183,0.366,0.549,232.796
137475,156330,12093,0.025,-0.928,-0.226,0.061,0.366,0.61,232.802
137480,156410,12606,0.025,-0.928,-0.226,0.061,0.366,0.61,232.806
137480,156338,12089,0.023,-0.936,-0.23,-0.305,0.305,0.427,232.812
137505,156410,12606,0.023,-0.936,-0.23,-0.305,0.305,0.427,232.816
137505,156321,12098,0.026,-0.934,-0.227,-0.244,0.366,0.366,232.822
137491,156410,12606,0.025,-0.922,-0.224,-0.244,0.366,0.366,232.826
137491,156334,12097,0.021,-0.918,-0.221,-0.366,0.488,0.488,232.832
137522,156410,12606,0.024,-0.928,-0.233,-0.366,0.488,0.488,232.835
137522,156356,12100,0.026,-0.939,-0.24,-1.159,0.671,0.244,232.842
137536,156410,12606,0.029,-0.942,-0.235,-1.159,0.671,0.244,232.845
137536,156386,12112,0.029,-0.937,-0.233,-0.854,0.61,0.061,232.852
137569,156410,12606,0.026,-0.926,-0.236,-0.854,0.61,0.061,232.855
137569,156395,12099,0.029,-0.925,-0.232,-0.488,0.488,0.244,232.861
137596,156410,12606,0.027,-0.932,-0.239,-0.488,0.488,0.244,232.865
137596,156414,12100,0.028,-0.941,-0.238,-0.732,0.183,0.122,232.871
137599,156410,12606,0.035,-0.937,-0.237,-0.732,0.183,0.122,232.875
137599,156400,12087,0.032,-0.932,-0.237,-0.305,0.244,0.122,232.881
137574,156410,12606,0.027,-0.933,-0.241,-0.305,0.244,0.122,232.885
137574,156382,12104,0.028,-0.939,-0.243,0.305,0.488,0.305,232.891
137532,156410,12606,0.031,-0.94,-0.241,0.305,0.488,0.305,232.895
137532,156356,12103,0.03,-0.939,-0.239,0.793,0.549,0.427,232.901
137511,156410,12606,0.027,-0.929,-0.234,0.793,0.549,0.427,232.905
137511,156332,12078,0.024,-0.929,-0.233,1.341,0.915,0.61,232.911
137486,156410,12606,0.026,-0.934,-0.225,1.341,0.915,0.61,232.915
137486,156346,12095,0.028,-0.932,-0.222,1.098,0.976,0.427,232.921
137503,156410,12606,0.028,-0.929,-0.213,1.098,0.976,0.427,232.925
137503,156330,12090,0.024,-0.923,-0.218,0.244,0.854,0.427,232.931
137517,156410,12606,0.023,-0.926,-0.224,0.244,0.854,0.427,232.934
137517,156358,12075,0.025,-0.928,-0.224,-0.915,0.671,0.305,232.941
137548,156410,12606,0.028,-0.93,-0.227,-0.915,0.671,0.305,232.944
137548,156386,12105,0.026,-0.933,-0.231,-1.463,0.366,0.183,232.951
137566,156410,12606,0.025,-0.929,-0.229,-1.463,0.366,0.183,232.954
137566,156392,12091,0.027,-0.923,-0.23,-1.524,0.305,0.244,232.96
137562,156410,12606,0.025,-0.925,-0.226,-1.524,0.305,0.244,232.964
137562,156389,12102,0.029,-0.93,-0.228,-1.463,0.305,0.183,232.97
137566,156410,12606,0.029,-0.934,-0.239,-1.463,0.305,0.183,232.974
137566,156382,12100,0.027,-0.932,-0.239,-1.037,0.183,0.183,232.98
137533,156410,12606,0.03,-0.928,-0.234,-1.037,0.183,0.183,232.984
137533,156385,12093,0.029,-0.924,-0.238,-0.793,0.183,0.305,232.99
137506,156410,12606,0.024,-0.931,-0.241,-0.793,0.183,0.305,232.994
137506,156359,12086,0.029,-0.941,-0.237,-0.549,0.305,0.244,233
137511,156410,12606,0.027,-0.935,-0.244,-0.549,0.305,0.244,233.004
137511,156344,12106,0.027,-0.932,-0.239,0.061,0.305,0.305,233.01
137536,156410,12606,0.026,-0.93,-0.237,0.061,0.305,0.305,233.014
137536,156361,12085,0.03,-0.933,-0.24,0.366,0.366,0.305,233.02
137530,156410,12606,0.031,-0.938,-0.234,0.366,0.366,0.305,233.024
137530,156378,12081,0.029,-0.937,-0.229,0.488,0.366,0.366,233.03
137543,156410,12606,0.029,-0.933,-0.23,0.488,0.366,0.366,233.033
137543,156367,12102,0.027,-0.927,-0.233,0.427,0.488,0.549,233.04
137539,156410,12606,0.028,-0.934,-0.233,0.427,0.488,0.549,233.043
137539,156374,12103,0.029,-0.938,-0.234,0.793,0.671,0.305,233.05
137524,156410,12606,0.029,-0.937,-0.231,0.793,0.671,0.305,233.053
137524,156382,12108,0.026,-0.931,-0.226,1.037,0.732,0.305,233.059
137558,156410,12606,0.028,-0.92,-0.223,1.037,0.732,0.305,233.063
137558,156397,12109,0.027,-0.92,-0.227,0.671,0.671,0.366,233.069
137551,156410,12606,0.027,-0.931,-0.231,0.671,0.671,0.366,233.073
137551,156384,12108,0.028,-0.936,-0.234,0.061,0.427,0.366,233.079
137536,156410,12606,0.028,-0.929,-0.232,0.061,0.427,0.366,233.083
137536,156377,12083,0.024,-0.921,-0.23,0.488,0.122,0.549,233.089
137539,156410,12606,0.022,-0.921,-0.227,0.488,0.122,0.549,233.093
137539,156373,12104,0.026,-0.932,-0.229,0.366,0.122,0.61,233.099
137544,156410,12606,0.026,-0.934,-0.231,0.366,0.122,0.61,233.103
137544,156384,12092,0.027,-0.934,-0.227,-0.122,0.122,0.427,233.109
137564,156410,12606,0.025,-0.937,-0.231,-0.122,0.122,0.427,233.113
137564,156400,12101,0.025,-0.932,-0.234,-0.366,0.183,0.366,233.119
137565,156410,12606,0.028,-0.932,-0.231,-0.366,0.183,0.366,233.123
137565,156392,12096,0.029,-0.939,-0.233,-0.305,0.122,0.183,233.129
137554,156410,12606,0.027,-0.941,-0.235,-0.305,0.122,0.183,233.132
137554,156399,12104,0.029,-0.934,-0.237,-0.305,0.122,0.244,233.139
137573,156410,12606,0.031,-0.938,-0.232,-0.305,0.122,0.244,233.142
137573,156406,12109,0.029,-0.937,-0.223,-0.488,0.122,0.305,233.149
137560,156410,12606,0.028,-0.925,-0.225,-0.488,0.122,0.305,233.152
137560,156373,12101,0.028,-0.926,-0.238,-0.915,0.122,0.366,233.158
137535,156410,12606,0.029,-0.934,-0.239,-0.915,0.122,0.366,233.162
137535,156383,12102,0.027,-0.946,-0.228,-1.098,0.244,0.183,233.168
137551,156410,12606,0.028,-0.938,-0.222,-1.098,0.244,0.183,233.172
137551,156392,12100,0.029,-0.919,-0.225,-0.61,0.122,0.305,233.178
137542,156410,12606,0.024,-0.919,-0.236,-0.61,0.122,0.305,233.182
137542,156383,12096,0.029,-0.936,-0.242,-1.037,0.244,0.244,233.188
137551,156410,12606,0.032,-0.943,-0.246,-1.037,0.244,0.244,233.192
137551,156385,12101,0.032,-0.935,-0.242,-0.732,0.244,0.122,233.198
137559,156410,12606,0.027,-0.924,-0.236,-0.732,0.244,0.122,233.202
137559,156397,12103,0.026,-0.917,-0.235,0.366,0.366,0.488,233.208
137550,156410,12606,0.029,-0.928,-0.235,0.366,0.366,0.488,233.212
137550,156391,12107,0.029,-0.941,-0.238,0.61,0.549,0.427,233.218
137541,156410,12606,0.03,-0.938,-0.234,0.61,0.549,0.427,233.222
137541,156375,12104,0.027,-0.928,-0.236,0.854,0.671,0.366,233.228
137561,156410,12606,0.026,-0.92,-0.231,0.854,0.671,0.366,233.231
137561,156371,12095,0.027,-0.928,-0.222,1.098,0.732,0.488,233.238
137583,156666,12606,0.028,-0.935,-0.226,1.098,0.732,0.488,233.241
137583,156421,12087,0.029,-0.931,-0.228,0.671,0.671,0.488,233.248
137567,156666,12606,0.026,-0.925,-0.227,0.671,0.671,0.488,233.251
137567,156417,12108,0.025,-0.927,-0.233,0,0.488,0.427,233.257
137574,156410,12606,0.028,-0.931,-0.233,0,0.488,0.427,233.261
137574,156395,12105,0.03,-0.937,-0.231,-0.305,0.488,0.305,233.267
137535,156410,12606,0.03,-0.937,-0.231,-0.305,0.488,0.305,233.271
137535,156374,12079,0.029,-0.932,-0.229,-0.183,0.427,0.488,233.277
137540,156410,12606,0.029,-0.932,-0.229,-0.183,0.427,0.488,233.281
137540,156318,12095,0.027,-0.937,-0.232,-0.183,0.427,0.488,233.287
137525,156410,12606,0.027,-0.937,-0.232,-0.183,0.427,0.488,233.291
137525,156339,12089,0.03,-0.933,-0.23,-0.061,0.366,0.366,233.297
137530,156410,12606,0.03,-0.933,-0.23,-0.061,0.366,0.366,233.301
137530,156338,12106,0.027,-0.93,-0.227,-0.061,0.488,0.427,233.307
137547,156410,12606,0.027,-0.93,-0.227,-0.061,0.488,0.427,233.311
137547,156346,12097,0.025,-0.923,-0.225,-0.732,0.244,0.366,233.317
137536,156410,12606,0.025,-0.923,-0.225,-0.732,0.244,0.366,233.321
137536,156354,12105,0.027,-0.929,-0.238,-1.402,0.244,0.122,233.327
137505,156410,12606,0.027,-0.929,-0.238,-1.402,0.244,0.122,233.33
137505,156329,12084,0.028,-0.932,-0.235,-1.22,0.122,0.122,233.337
137487,156410,12606,0.028,-0.932,-0.235,-1.22,0.122,0.122,233.34
137487,156297,12097,0.028,-0.925,-0.234,-0.915,0.244,0.366,233.347
137464,156410,12606,0.028,-0.925,-0.234,-0.915,0.244,0.366,233.35
137464,156324,12081,0.028,-0.935,-0.236,-0.549,0.244,0.366,233.356
137458,156410,12606,0.028,-0.935,-0.236,-0.549,0.244,0.366,233.36
137458,156285,12082,0.027,-0.934,-0.229,-0.244,0.427,0.366,233.366
137474,156410,12606,0.027,-0.934,-0.229,-0.244,0.427,0.366,233.37
137474,156290,12076,0.024,-0.926,-0.224,-0.671,0.366,0.427,233.376
137462,156410,12606,0.024,-0.926,-0.224,-0.671,0.366,0.427,233.38
137462,156285,12084,0.029,-0.943,-0.233,-1.159,0.183,0.244,233.386
137456,156410,12606,0.029,-0.943,-0.233,-1.159,0.183,0.244,233.39
137456,156293,12104,0.029,-0.929,-0.232,-0.976,0.122,0.244,233.396
137419,156410,12606,0.029,-0.929,-0.232,-0.976,0.122,0.244,233.4
137419,156267,12068,0.026,-0.931,-0.238,-0.976,0.366,0.488,233.406
137394,156410,12606,0.026,-0.931,-0.238,-0.976,0.366,0.488,233.41
137394,156241,12065,0.03,-0.936,-0.243,-0.976,0.366,0.488,233.416
137360,156410,12606,0.032,-0.939,-0.241,-0.366,0.305,0.366,233.42
137360,156212,12083,0.028,-0.929,-0.242,-0.366,0.305,0.366,233.426
137368,156410,12606,0.029,-0.925,-0.234,0.671,0.549,0.488,233.43
137368,156222,12079,0.029,-0.927,-0.232,0.671,0.549,0.488,233.436
137389,156410,12606,0.028,-0.932,-0.227,0.671,0.671,0.61,233.439
137389,156242,12068,0.026,-0.93,-0.217,0.671,0.671,0.61,233.446
137378,156410,12606,0.025,-0.923,-0.221,0,0.427,0.488,233.449
137378,156226,12055,0.026,-0.925,-0.229,0,0.427,0.488,233.455
137337,156410,12606,0.026,-0.931,-0.231,-0.976,0.427,0.244,233.459
137337,156215,12068,0.026,-0.936,-0.231,-0.976,0.427,0.244,233.465
137360,156410,12606,0.027,-0.935,-0.231,-1.22,0.122,0.122,233.469
137360,156207,12071,0.03,-0.931,-0.234,-1.22,0.122,0.122,233.475
137355,156410,12606,0.025,-0.929,-0.241,-1.22,0,0.305,233.479
137355,156198,12063,0.027,-0.936,-0.243,-1.22,0,0.305,233.485
137342,156410,12606,0.027,-0.938,-0.239,-0.915,-0.061,0.305,233.489
137342,156203,12075,0.028,-0.942,-0.24,-0.915,-0.061,0.305,233.495
137337,156410,12606,0.031,-0.936,-0.236,0.122,0.061,0.305,233.499
137337,156216,12066,0.03,-0.928,-0.231,0.122,0.061,0.305,233.505
137323,156410,12606,0.029,-0.923,-0.231,0.671,0.305,0.549,233.509
137323,156191,12055,0.024,-0.929,-0.228,0.671,0.305,0.549,233.515
137332,156410,12606,0.028,-0.93,-0.228,0.671,0.61,0.549,233.519
137332,156190,12069,0.029,-0.929,-0.228,0.671,0.61,0.549,233.525
137337,156410,12606,0.028,-0.923,-0.227,0.427,0.732,0.488,233.529
137337,156175,12082,0.028,-0.923,-0.23,0.427,0.732,0.488,233.535
137342,156410,12606,0.027,-0.934,-0.234,-0.061,0.732,0.488,233.538
137342,156202,12061,0.027,-0.937,-0.23,-0.061,0.732,0.488,233.545
137344,156410,12606,0.027,-0.935,-0.233,-0.183,0.61,0.366,233.548
137344,156225,12052,0.027,-0.929,-0.234,-0.183,0.61,0.366,233.554
137350,156410,12606,0.027,-0.934,-0.237,-0.244,0.61,0.427,233.558
137350,156186,12072,0.025,-0.943,-0.243,-0.244,0.61,0.427,233.564
137372,156410,12606,0.029,-0.943,-0.238,-0.183,0.671,0.244,233.568
137372,156185,12071,0.028,-0.934,-0.238,-0.183,0.671,0.244,233.574
137343,156410,12606,0.025,-0.925,-0.234,0.61,0.549,0.427,233.578
137343,156210,12065,0.026,-0.923,-0.226,0.61,0.549,0.427,233.584
137320,156410,12606,0.028,-0.919,-0.219,1.159,0.549,0.549,233.588
137320,156200,12063,0.027,-0.921,-0.228,1.159,0.549,0.549,233.594
137321,156410,12606,0.026,-0.931,-0.234,0.915,0.488,0.366,233.598
137321,156173,12066,0.026,-0.933,-0.225,0.915,0.488,0.366,233.604
137309,156410,12606,0.028,-0.927,-0.216,0.671,0.305,0.488,233.608
137309,156161,12075,0.025,-0.921,-0.214,0.671,0.305,0.488,233.614
137299,156154,12606,0.024,-0.92,-0.216,-0.244,0.305,0.427,233.618
137299,156127,12059,0.027,-0.931,-0.224,-0.244,0.305,0.427,233.624
137256,156154,12606,0.03,-0.942,-0.229,-1.768,0.183,0.122,233.628
137256,156145,12050,0.032,-0.941,-0.236,-1.768,0.183,0.122,233.634
137264,156154,12606,0.03,-0.938,-0.237,-1.89,-0.061,0.183,233.637
137264,156107,12058,0.028,-0.939,-0.239,-1.89,-0.061,0.183,233.644
137275,156154,12606,0.026,-0.94,-0.243,-1.341,-0.061,0.366,233.647
137275,156143,12049,0.028,-0.942,-0.244,-1.341,-0.061,0.366,233.654
137311,156154,12606,0.029,-0.938,-0.245,-0.61,0.122,0.244,233.657
137311,156146,12064,0.027,-0.939,-0.236,-0.61,0.122,0.244,233.663
137339,156410,12606,0.028,-0.931,-0.237,0.427,0.427,0.305,233.667
137339,156196,12071,0.026,-0.933,-0.238,0.427,0.427,0.305,233.673
137361,156410,12606,0.029,-0.939,-0.239,0.671,0.671,0.244,233.677
137361,156199,12069,0.029,-0.935,-0.234,0.671,0.671,0.244,233.683
137412,156410,12606,0.025,-0.925,-0.228,0.854,0.793,0.244,233.687
137412,156228,12082,0.025,-0.918,-0.224,0.854,0.793,0.244,233.693
137427,156410,12606,0.027,-0.919,-0.231,0.671,0.793,0.305,233.697
137427,156262,12079,0.03,-0.928,-0.231,0.671,0.793,0.305,233.703
137438,156410,12606,0.028,-0.934,-0.229,0,0.732,0.244,233.707
137438,156269,12082,0.029,-0.932,-0.228,0,0.732,0.244,233.713
137455,156410,12606,0.029,-0.929,-0.225,-0.366,0.61,0.366,233.717
137455,156267,12072,0.028,-0.927,-0.229,-0.366,0.61,0.366,233.723
137447,156410,12606,0.029,-0.932,-0.24,-0.61,0.488,0.244,233.727
137447,156269,12082,0.032,-0.942,-0.235,-0.61,0.488,0.244,233.733
137451,156410,12606,0.032,-0.939,-0.23,-0.305,0.244,0.366,233.736
137451,156253,12068,0.029,-0.933,-0.233,-0.305,0.244,0.366,233.743
137424,156410,12606,0.026,-0.932,-0.239,-0.244,0.488,0.427,233.746
137424,156245,12061,0.028,-0.938,-0.233,-0.244,0.488,0.427,233.753
137414,156410,12606,0.028,-0.937,-0.232,-0.244,0.61,0.427,233.756
137414,156240,12071,0.025,-0.932,-0.231,-0.244,0.61,0.427,233.762
137402,156410,12606,0.026,-0.926,-0.234,0.244,0.671,0.549,233.766
137402,156235,12083,0.025,-0.925,-0.238,0.244,0.671,0.549,233.772
137446,156410,12606,0.027,-0.931,-0.237,0.61,0.732,0.427,233.776
137446,156252,12082,0.031,-0.925,-0.239,0.61,0.732,0.427,233.782
137466,156410,12606,0.028,-0.924,-0.231,0.915,0.793,0.427,233.786
137466,156289,12077,0.027,-0.925,-0.227,0.915,0.793,0.427,233.792
137483,156410,12606,0.028,-0.924,-0.225,0.915,0.732,0.549,233.796
137483,156328,12082,0.025,-0.922,-0.223,0.915,0.732,0.549,233.802
137509,156410,12606,0.027,-0.927,-0.226,0.366,0.549,0.427,233.806
137509,156309,12080,0.028,-0.934,-0.225,0.366,0.549,0.427,233.812
137526,156410,12606,0.03,-0.939,-0.216,-0.427,0.244,0.122,233.816
137526,156342,12093,0.027,-0.934,-0.221,-0.427,0.244,0.122,233.822
137549,156410,12606,0.025,-0.936,-0.235,-1.463,0.122,0.061,233.826
137549,156356,12088,0.028,-0.939,-0.24,-1.463,0.122,0.061,233.832
137600,156410,12606,0.032,-0.939,-0.236,-1.585,0,0.061,233.835
137600,156390,12102,0.03,-0.936,-0.236,-1.585,0,0.061,233.842
137601,156410,12606,0.025,-0.928,-0.24,-0.732,0.183,0.244,233.845
137601,156402,12099,0.027,-0.927,-0.24,-0.732,0.183,0.244,233.852
137619,156666,12606,0.031,-0.927,-0.238,-0.244,0.549,0.366,233.855
137619,156423,12099,0.028,-0.932,-0.235,-0.244,0.549,0.366,233.861
137616,156410,12606,0.028,-0.932,-0.235,-0.244,0.549,0.366,233.865
137616,156411,12103,0.028,-0.928,-0.239,0.244,0.549,0.366,233.871
137610,156410,12606,0.028,-0.928,-0.239,0.244,0.549,0.366,233.875
137610,156398,12096,0.028,-0.929,-0.234,0.61,0.549,0.427,233.881
137576,156410,12606,0.028,-0.929,-0.234,0.61,0.549,0.427,233.885
137576,156378,12089,0.027,-0.934,-0.231,0.671,0.549,0.488,233.891
137569,156410,12606,0.027,-0.934,-0.231,0.671,0.549,0.488,233.895
137569,156380,12091,0.026,-0.929,-0.228,0.549,0.427,0.549,233.901
137539,156410,12606,0.026,-0.929,-0.228,0.549,0.427,0.549,233.905
137539,156354,12085,0.029,-0.927,-0.217,0.122,0.244,0.549,233.911
137570,156410,12606,0.029,-0.927,-0.217,0.122,0.244,0.549,233.915
137570,156356,12080,0.031,-0.929,-0.221,-0.854,0.061,0.427,233.921
137556,156410,12606,0.031,-0.929,-0.221,-0.854,0.061,0.427,233.925
137556,156358,12079,0.032,-0.926,-0.225,-1.28,0.061,0.183,233.931
137563,156410,12606,0.032,-0.926,-0.225,-1.28,0.061,0.183,233.934
137563,156382,12094,0.03,-0.939,-0.241,-1.829,0,0.061,233.941
137577,156410,12606,0.03,-0.939,-0.241,-1.829,0,0.061,233.944
137577,156378,12088,0.031,-0.932,-0.237,-2.073,0,-0.061,233.951
137559,156410,12606,0.031,-0.932,-0.237,-2.073,0,-0.061,233.954
137559,156373,12101,0.021,-0.932,-0.251,-1.402,0.061,0.183,233.96
137551,156410,12606,0.021,-0.932,-0.251,-1.402,0.061,0.183,233.964
137551,156345,12079,0.031,-0.937,-0.245,-0.427,0.366,0.305,233.97
137499,156410,12606,0.031,-0.937,-0.245,-0.427,0.366,0.305,233.974
137499,156328,12088,0.023,-0.924,-0.238,0.854,0.671,0.427,233.98
137486,156410,12606,0.023,-0.924,-0.238,0.854,0.671,0.427,233.984
137486,156293,12083,0.03,-0.932,-0.241,1.524,1.037,0.61,233.99
137447,156410,12606,0.03,-0.932,-0.241,1.524,1.037,0.61,233.994
137447,156293,12069,0.027,-0.932,-0.216,1.768,0.854,0.488,234
137452,156410,12606,0.027,-0.932,-0.216,1.768,0.854,0.488,234.004
137452,156269,12068,0.025,-0.917,-0.215,1.402,0.732,0.488,234.01
137462,156410,12606,0.026,-0.916,-0.222,1.402,0.732,0.488,234.014
137462,156271,12062,0.03,-0.941,-0.229,-0.061,0.61,0.244,234.02
137483,156410,12606,0.031,-0.952,-0.232,-0.061,0.61,0.244,234.024
137483,156294,12086,0.033,-0.941,-0.229,-0.671,0.244,0,234.03
137517,156410,12606,0.031,-0.927,-0.227,-0.671,0.244,0,234.033
137517,156317,12080,0.028,-0.921,-0.238,-0.61,0.305,0.305,234.04
137523,156410,12606,0.028,-0.937,-0.237,-0.61,0.305,0.305,234.043
137523,156337,12080,0.034,-0.944,-0.233,-0.549,0.305,0.305,234.05
137560,156410,12606,0.032,-0.936,-0.232,-0.549,0.305,0.305,234.053
137560,156343,12082,0.028,-0.922,-0.237,-0.122,0.305,0.427,234.059
137562,156410,12606,0.027,-0.917,-0.239,-0.122,0.305,0.427,234.063
137562,156343,12080,0.028,-0.923,-0.231,0.061,0.488,0.488,234.069
137554,156410,12606,0.027,-0.931,-0.239,0.061,0.488,0.488,234.073
137554,156363,12092,0.025,-0.927,-0.231,0.549,0.488,0.488,234.079
137525,156410,12606,0.025,-0.924,-0.23,0.549,0.488,0.488,234.083
137525,156335,12091,0.025,-0.944,-0.229,0.61,0.671,0.488,234.089
137485,156410,12606,0.024,-0.931,-0.226,0.61,0.671,0.488,234.093
137485,156315,12074,0.03,-0.921,-0.23,0.183,0.61,0.427,234.099
137485,156410,12606,0.028,-0.927,-0.229,0.183,0.61,0.427,234.103
137485,156294,12079,0.022,-0.935,-0.227,0.122,0.488,0.366,234.109
137501,156410,12606,0.025,-0.931,-0.227,0.122,0.488,0.366,234.113
137501,156280,12083,0.03,-0.929,-0.229,-0.61,0.244,0.244,234.119
137483,156410,12606,0.027,-0.932,-0.231,-0.61,0.244,0.244,234.123
137483,156293,12079,0.03,-0.941,-0.232,-1.037,0.122,0.183,234.129
137491,156410,12606,0.03,-0.941,-0.23,-1.037,0.122,0.183,234.132
137491,156281,12070,0.03,-0.933,-0.227,-1.098,0,0.244,234.139
137519,156410,12606,0.028,-0.926,-0.226,-1.098,0,0.244,234.142
137519,156294,12093,0.027,-0.932,-0.23,-1.159,0.061,0.244,234.149
137529,156410,12606,0.026,-0.935,-0.235,-1.159,0.061,0.244,234.152
137529,156331,12087,0.028,-0.939,-0.238,-1.098,0.122,0,234.158
137566,156410,12606,0.031,-0.936,-0.235,-1.098,0.122,0,234.162
137566,156345,12087,0.029,-0.927,-0.235,-0.244,0.183,0.244,234.168
137611,156410,12606,0.03,-0.923,-0.235,-0.244,0.183,0.244,234.172
137611,156388,12067,0.028,-0.926,-0.24,0.183,0.305,0.427,234.178
137667,156666,12606,0.029,-0.931,-0.24,0.183,0.305,0.427,234.182
137667,156458,12092,0.029,-0.937,-0.238,0.366,0.366,0.366,234.188
137714,156666,12606,0.03,-0.932,-0.24,0.366,0.366,0.366,234.192
137714,156462,12102,0.028,-0.923,-0.235,0.976,0.61,0.61,234.198
137690,156666,12606,0.03,-0.923,-0.229,0.976,0.61,0.61,234.202
137690,156429,12115,0.029,-0.927,-0.229,1.037,0.732,0.732,234.208
137637,156410,12606,0.028,-0.933,-0.221,1.037,0.732,0.732,234.212
137637,156408,12089,0.026,-0.934,-0.217,0.61,0.427,0.61,234.218
137598,156410,12606,0.028,-0.931,-0.224,0.61,0.427,0.61,234.222
137598,156369,12080,0.026,-0.927,-0.222,-0.244,0.183,0.427,234.228
137538,156410,12606,0.025,-0.926,-0.223,-0.244,0.183,0.427,234.231
137538,156338,12062,0.026,-0.932,-0.217,-0.915,0.061,0.305,234.238
137526,156410,12606,0.024,-0.934,-0.221,-0.915,0.061,0.305,234.241
137526,156310,12087,0.027,-0.935,-0.23,-1.829,-0.244,0.244,234.248
137527,156410,12606,0.028,-0.938,-0.239,-1.829,-0.244,0.244,234.251
137527,156341,12091,0.029,-0.943,-0.242,-2.134,-0.305,0.183,234.257
137574,156410,12606,0.031,-0.939,-0.246,-2.134,-0.305,0.183,234.261
137574,156338,12089,0.03,-0.929,-0.238,-1.28,-0.305,0.244,234.267
137619,156410,12606,0.024,-0.922,-0.245,-1.28,-0.305,0.244,234.271
137619,156399,12094,0.025,-0.933,-0.256,-0.305,0.122,0.488,234.277
137614,156410,12606,0.032,-0.939,-0.249,-0.305,0.122,0.488,234.281
137614,156380,12078,0.033,-0.937,-0.24,0.549,0.427,0.427,234.287
137622,156410,12606,0.027,-0.928,-0.232,0.549,0.427,0.427,234.291
137622,156382,12097,0.025,-0.925,-0.231,1.22,0.732,0.488,234.297
137603,156410,12606,0.027,-0.933,-0.22,1.22,0.732,0.488,234.301
137603,156400,12095,0.029,-0.935,-0.221,0.732,0.732,0.366,234.307
137594,156410,12606,0.028,-0.93,-0.222,0.732,0.732,0.366,234.311
137594,156372,12074,0.027,-0.932,-0.225,-0.244,0.61,0.183,234.317
137571,156410,12606,0.027,-0.94,-0.229,-0.244,0.61,0.183,234.321
137571,156367,12079,0.031,-0.939,-0.221,-0.61,0.305,0.061,234.327
137564,156410,12606,0.029,-0.925,-0.223,-0.61,0.305,0.061,234.331
137564,156332,12080,0.026,-0.92,-0.233,-0.976,0.122,0.183,234.337
137557,156410,12606,0.028,-0.928,-0.235,-0.976,0.122,0.183,234.34
137557,156294,12079,0.03,-0.938,-0.241,-1.463,-0.061,0.122,234.347
137515,156410,12606,0.033,-0.941,-0.241,-1.463,-0.061,0.122,234.35
137515,156319,12066,0.028,-0.932,-0.244,-0.793,-0.183,0.244,234.356
137549,156410,12606,0.024,-0.921,-0.242,-0.793,-0.183,0.244,234.36
137549,156327,12063,0.025,-0.922,-0.236,0.122,0.244,0.549,234.366
137538,156410,12606,0.027,-0.93,-0.24,0.122,0.244,0.549,234.37
137538,156343,12064,0.025,-0.938,-0.239,0.854,0.793,0.488,234.376
137528,156410,12606,0.024,-0.932,-0.236,0.854,0.793,0.488,234.38
137528,156330,12075,0.026,-0.93,-0.228,1.402,1.098,0.427,234.386
137533,156410,12606,0.027,-0.932,-0.224,1.402,1.098,0.427,234.39
137533,156306,12086,0.027,-0.927,-0.218,1.159,0.915,0.366,234.396
137534,156410,12606,0.028,-0.927,-0.219,1.159,0.915,0.366,234.4
137534,156321,12061,0.031,-0.933,-0.228,0.122,0.793,0.122,234.406
137506,156410,12606,0.033,-0.938,-0.229,0.122,0.793,0.122,234.41
137506,156327,12079,0.036,-0.942,-0.217,-0.732,0.488,0.061,234.416
137521,156410,12606,0.033,-0.931,-0.21,-0.732,0.488,0.061,234.42
137521,156298,12067,0.028,-0.923,-0.21,-1.646,0.244,0.244,234.426
137505,156410,12606,0.028,-0.929,-0.223,-1.646,0.244,0.244,234.43
137505,156273,12059,0.032,-0.94,-0.24,-2.927,0.122,0,234.436
137453,156410,12606,0.035,-0.951,-0.243,-2.927,0.122,0,234.439
137453,156264,12067,0.035,-0.943,-0.237,-2.5,-0.244,-0.061,234.446
137433,156410,12606,0.028,-0.928,-0.238,-2.5,-0.244,-0.061,234.449
137433,156247,12065,0.023,-0.919,-0.246,-0.915,0,0.244,234.456
137411,156410,12606,0.023,-0.919,-0.246,-0.915,0,0.244,234.459
137411,156233,12060,0.025,-0.928,-0.248,-0.61,0.244,0.183,234.465
137415,156410,12606,0.025,-0.928,-0.248,-0.61,0.244,0.183,234.469
137415,156242,12061,0.021,-0.923,-0.249,0.183,0.488,0.244,234.475
137438,156410,12606,0.021,-0.923,-0.249,0.183,0.488,0.244,234.479
137438,156254,12064,0.021,-0.919,-0.237,0.976,0.854,0.61,234.485
137451,156410,12606,0.021,-0.919,-0.237,0.976,0.854,0.61,234.489
137451,156251,12058,0.026,-0.924,-0.229,1.098,0.915,0.427,234.495
137468,156410,12606,0.026,-0.924,-0.229,1.098,0.915,0.427,234.499
137468,156212,12062,0.027,-0.93,-0.226,0.732,0.915,0.305,234.505
137447,156410,12606,0.027,-0.93,-0.226,0.732,0.915,0.305,234.509
137447,156240,12059,0.032,-0.931,-0.224,0.61,0.671,0.305,234.515
137457,156410,12606,0.032,-0.931,-0.224,0.61,0.671,0.305,234.519
137457,156290,12063,0.03,-0.936,-0.223,0.427,0.366,0.305,234.525
137469,156410,12606,0.03,-0.936,-0.223,0.427,0.366,0.305,234.529
137469,156268,12063,0.03,-0.936,-0.225,0.061,0,0.427,234.535
137489,156410,12606,0.03,-0.936,-0.225,0.061,0,0.427,234.538
137489,156296,12061,0.027,-0.934,-0.23,-0.427,0,0.244,234.545
137549,156410,12606,0.027,-0.934,-0.23,-0.427,0,0.244,234.548
137549,156306,12071,0.028,-0.937,-0.238,-0.671,0,0.305,234.554
137591,156410,12606,0.028,-0.937,-0.238,-0.671,0,0.305,234.558
137591,156371,12073,0.029,-0.939,-0.232,-0.305,0,0.305,234.564
137653,156410,12606,0.029,-0.939,-0.232,-0.305,0,0.305,234.568
137653,156409,12084,0.029,-0.93,-0.246,-0.183,0.183,0.427,234.574
137671,156666,12606,0.029,-0.93,-0.246,-0.183,0.183,0.427,234.578
137671,156445,12096,0.027,-0.939,-0.241,0.427,0.427,0.305,234.584
137693,156666,12606,0.027,-0.939,-0.241,0.427,0.427,0.305,234.588
137693,156457,12091,0.03,-0.938,-0.238,1.098,0.549,0.366,234.594
137672,156666,12606,0.03,-0.938,-0.238,1.098,0.549,0.366,234.598
137672,156446,12089,0.028,-0.929,-0.223,1.22,0.854,0.427,234.604
137648,156666,12606,0.028,-0.929,-0.223,1.22,0.854,0.427,234.608
137648,156423,12094,0.028,-0.926,-0.227,1.22,0.854,0.427,234.614
137667,156410,12606,0.024,-0.93,-0.229,0.549,0.976,0.305,234.618
137667,156411,12093,0.028,-0.936,-0.232,0.549,0.976,0.305,234.624
137650,156410,12606,0.027,-0.937,-0.228,0.244,0.915,0,234.628
137650,156415,12082,0.026,-0.928,-0.23,0.244,0.915,0,234.634
137688,156666,12606,0.01,-0.922,-0.233,0.549,0.732,-0.061,234.637
137688,156462,12091,0.023,-0.928,-0.237,0.549,0.732,-0.061,234.644
137743,156666,12606,0.049,-0.924,-0.222,0.488,0.244,-0.793,234.647
137743,156507,12098,0.041,-0.922,-0.224,0.488,0.244,-0.793,234.654
137757,156666,12606,0.021,-0.929,-0.231,0.183,0.488,-0.244,234.657
137757,156509,12102,0.022,-0.928,-0.226,0.183,0.488,-0.244,234.663
137799,156666,12606,0.033,-0.929,-0.225,-0.061,0.793,0.305,234.667
137799,156529,12107,0.035,-0.931,-0.223,-0.061,0.793,0.305,234.673
137788,156666,12606,0.029,-0.926,-0.222,-0.061,0.549,0.244,234.677
137788,156498,12100,0.025,-0.923,-0.232,-0.061,0.549,0.244,234.683
137815,156666,12606,0.027,-0.934,-0.241,-0.305,0.671,0.305,234.687
137815,156546,12105,0.034,-0.948,-0.234,-0.305,0.671,0.305,234.693
137799,156666,12606,0.032,-0.941,-0.223,-0.305,0.305,0.305,234.697
137799,156509,12102,0.026,-0.924,-0.224,-0.305,0.305,0.305,234.703
137747,156666,12606,0.025,-0.922,-0.234,-0.183,0.366,0.61,234.707
137747,156492,12102,0.023,-0.938,-0.235,-0.183,0.366,0.61,234.713
137710,156666,12606,0.031,-0.952,-0.239,-0.732,0.366,0.244,234.717
137710,156473,12105,0.032,-0.943,-0.239,-0.732,0.366,0.244,234.723
137697,156666,12606,0.025,-0.928,-0.232,0,0.366,0.122,234.727
137697,156448,12101,0.025,-0.922,-0.232,0,0.366,0.122,234.733
137648,156410,12606,0.027,-0.928,-0.23,0.366,0.488,0.427,234.736
137648,156405,12090,0.03,-0.933,-0.232,0.366,0.488,0.427,234.743
137647,156666,12606,0.028,-0.939,-0.236,-0.122,0.488,0.244,234.746
137647,156425,12081,0.027,-0.936,-0.237,-0.122,0.488,0.244,234.753
137659,156666,12606,0.031,-0.93,-0.238,0.183,0.671,0.183,234.756
137659,156436,12083,0.019,-0.935,-0.24,0.183,0.671,0.183,234.762
137699,156666,12606,0.024,-0.939,-0.233,0.549,0.61,0.061,234.766
137699,156479,12107,0.044,-0.926,-0.222,0.549,0.61,0.061,234.772
137736,156666,12606,0.045,-0.918,-0.225,0.61,0.366,-0.427,234.776
137736,156480,12077,0.027,-0.93,-0.238,0.61,0.366,-0.427,234.782
137762,156666,12606,0.026,-0.935,-0.231,0.183,0.915,0.244,234.786
137762,156493,12104,0.035,-0.931,-0.219,0.183,0.915,0.244,234.792
137759,156666,12606,0.034,-0.923,-0.22,0.122,0.549,0.305,234.796
137759,156478,12092,0.027,-0.917,-0.225,0.122,0.549,0.305,234.802
137738,156666,12606,0.024,-0.919,-0.224,-0.366,0.549,0.488,234.806
137738,156485,12096,0.028,-0.927,-0.224,-0.366,0.549,0.488,234.812
137722,156666,12606,0.031,-0.922,-0.224,-0.854,0.305,0.427,234.816
137722,156440,12101,0.027,-0.917,-0.219,-0.854,0.305,0.427,234.822
137706,156666,12606,0.023,-0.917,-0.224,-1.585,0,0.549,234.826
137706,156418,12102,0.025,-0.923,-0.231,-1.585,0,0.549,234.832
137686,156410,12606,0.03,-0.928,-0.232,-2.073,-0.305,0.305,234.835
