141778,156183,12785,0.018,-0.94,-0.155,0.366,0.488,0.671,630.614
141737,156154,12606,0.018,-0.94,-0.155,0.366,0.488,0.671,630.618
141737,156131,12761,0.012,-0.945,-0.164,-0.183,0.305,0.854,630.624
141714,156154,12606,0.012,-0.953,-0.164,-0.183,0.305,0.854,630.628
141714,156083,12753,0.015,-0.951,-0.159,0.061,0.366,0.671,630.634
141690,156154,12606,0.013,-0.944,-0.161,0.061,0.366,0.671,630.638
141690,156111,12750,0.009,-0.945,-0.162,0,0.061,0.488,630.644
141659,156154,12606,0.011,-0.947,-0.159,0,0.061,0.488,630.648
141659,156085,12760,0.014,-0.947,-0.162,0,0.305,0.244,630.654
141608,156154,12606,0.014,-0.945,-0.161,0,0.305,0.244,630.658
141608,156023,12752,0.011,-0.945,-0.159,0,0.366,0.122,630.664
141572,156154,12606,0.012,-0.945,-0.158,0,0.366,0.122,630.668
141572,155977,12734,0.017,-0.946,-0.161,-0.305,0.427,0,630.674
141513,156154,12606,0.019,-0.946,-0.161,-0.305,0.427,0,630.677
141513,155938,12732,0.017,-0.944,-0.165,-0.915,0.244,0.183,630.684
141478,156154,12606,0.016,-0.951,-0.166,-0.915,0.244,0.183,630.687
141478,155906,12749,0.017,-0.952,-0.168,-0.976,0.183,0.305,630.694
141435,155898,12606,0.017,-0.954,-0.174,-0.976,0.183,0.305,630.697
141435,155884,12724,0.016,-0.955,-0.166,-0.732,0.244,0.183,630.703
141425,155898,12606,0.016,-0.953,-0.169,-0.732,0.244,0.183,630.707
141425,155864,12733,0.014,-0.952,-0.167,0.061,0.488,0.305,630.713
141400,155898,12606,0.015,-0.946,-0.16,0.061,0.488,0.305,630.717
141400,155834,12731,0.012,-0.94,-0.162,0.488,0.488,0.488,630.723
141371,155898,12606,0.012,-0.938,-0.158,0.488,0.488,0.488,630.727
141371,155813,12699,0.011,-0.941,-0.161,0.366,0.488,0.366,630.733
141350,155898,12606,0.011,-0.946,-0.161,0.366,0.488,0.366,630.737
141350,155793,12714,0.015,-0.948,-0.158,0.305,0.427,0.122,630.743
141325,155898,12606,0.016,-0.94,-0.161,0.305,0.427,0.122,630.747
141325,155799,12726,0.012,-0.941,-0.165,-0.244,0.488,0.061,630.753
141325,155898,12606,0.01,-0.948,-0.164,-0.244,0.488,0.061,630.757
141325,155792,12718,0.015,-0.952,-0.163,-0.305,0.366,-0.061,630.763
141334,155898,12606,0.019,-0.948,-0.161,-0.305,0.366,-0.061,630.767
141334,155777,12716,0.016,-0.946,-0.162,-0.122,0.366,-0.061,630.773
141322,155898,12606,0.019,-0.947,-0.169,-0.122,0.366,-0.061,630.776
141322,155787,12723,0.019,-0.952,-0.165,-0.366,0.549,0.122,630.783
141327,155898,12606,0.015,-0.953,-0.161,-0.366,0.549,0.122,630.786
141327,155782,12725,0.019,-0.949,-0.163,-0.061,0.61,0.305,630.793
141335,155898,12606,0.018,-0.942,-0.161,-0.061,0.61,0.305,630.796
141335,155804,12726,0.016,-0.948,-0.166,-0.366,0.549,0.366,630.802
141345,155898,12606,0.018,-0.954,-0.166,-0.366,0.549,0.366,630.806
141345,155785,12716,0.02,-0.948,-0.162,-0.122,0.427,0.488,630.812
141309,155898,12606,0.017,-0.942,-0.161,-0.122,0.427,0.488,630.816
141309,155775,12711,0.015,-0.945,-0.162,0,0.488,0.61,630.822
141321,155898,12606,0.014,-0.954,-0.165,0,0.488,0.61,630.826
141321,155759,12710,0.016,-0.952,-0.164,0.183,0.427,0.671,630.832
141302,155898,12606,0.014,-0.946,-0.163,0.183,0.427,0.671,630.836
141302,155784,12730,0.014,-0.945,-0.161,0.305,0.427,0.61,630.842
141283,155898,12606,0.015,-0.952,-0.159,0.305,0.427,0.61,630.846
141283,155750,12722,0.014,-0.949,-0.16,0,0.305,0.488,630.852
141334,155898,12606,0.013,-0.946,-0.166,0,0.305,0.488,630.856
141334,155766,12721,0.015,-0.948,-0.164,-0.122,0.183,0.305,630.862
141338,155898,12606,0.014,-0.946,-0.162,-0.122,0.183,0.305,630.866
141338,155782,12732,0.013,-0.939,-0.147,0.244,0.061,0.427,630.872
141353,155898,12606,0.015,-0.934,-0.147,0.244,0.061,0.427,630.875
141353,155806,12723,0.016,-0.933,-0.155,-0.61,0.183,0.366,630.882
141358,155898,12606,0.013,-0.945,-0.164,-0.61,0.183,0.366,630.885
141358,155804,12715,0.014,-0.959,-0.166,-1.28,0.366,0.183,630.892
141387,155898,12606,0.02,-0.954,-0.167,-1.28,0.366,0.183,630.895
141387,155827,12749,0.017,-0.949,-0.163,-0.854,0.366,0.061,630.901
141370,155898,12606,0.016,-0.944,-0.163,-0.854,0.366,0.061,630.905
141370,155824,12725,0.016,-0.95,-0.17,-0.488,0.427,0.305,630.911
141375,155898,12606,0.017,-0.956,-0.169,-0.488,0.427,0.305,630.915
141375,155839,12727,0.019,-0.953,-0.164,-0.061,0.549,0.183,630.921
141373,155898,12606,0.017,-0.947,-0.163,-0.061,0.549,0.183,630.925
141373,155818,12721,0.012,-0.946,-0.172,0.427,0.488,0.366,630.931
141335,155898,12606,0.014,-0.954,-0.174,0.427,0.488,0.366,630.935
141335,155776,12733,0.018,-0.955,-0.168,0.793,0.427,0.549,630.941
141315,155898,12606,0.018,-0.947,-0.162,0.793,0.427,0.549,630.945
141315,155808,12740,0.014,-0.943,-0.16,1.341,0.549,0.488,630.951
141309,155898,12606,0.015,-0.943,-0.155,1.341,0.549,0.488,630.955
141309,155781,12713,0.018,-0.94,-0.158,1.159,0.732,0.671,630.961
141322,155898,12606,0.016,-0.945,-0.161,1.159,0.732,0.671,630.965
141322,155801,12725,0.015,-0.943,-0.159,0.61,0.671,0.732,630.971
141349,155898,12606,0.016,-0.948,-0.164,0.61,0.671,0.732,630.974
141349,155790,12729,0.016,-0.954,-0.161,0.61,0.549,0.61,630.981
141364,155898,12606,0.015,-0.952,-0.154,0.61,0.549,0.61,630.984
141364,155823,12725,0.011,-0.94,-0.149,0.244,0.427,0.549,630.991
141390,155898,12606,0.009,-0.935,-0.153,0.244,0.427,0.549,630.994
141390,155830,12738,0.013,-0.939,-0.154,-0.732,0.305,0.488,631
141397,155898,12606,0.013,-0.954,-0.167,-0.732,0.305,0.488,631.004
141397,155852,12749,0.014,-0.962,-0.168,-0.854,0.305,0.183,631.01
141410,155898,12606,0.015,-0.955,-0.16,-0.854,0.305,0.183,631.014
141410,155861,12733,0.012,-0.943,-0.158,-0.244,0.305,0.183,631.02
141391,155898,12606,0.014,-0.938,-0.16,-0.244,0.305,0.183,631.024
141391,155818,12736,0.013,-0.943,-0.161,-0.305,0.366,0.305,631.03
141373,155898,12606,0.017,-0.948,-0.162,-0.305,0.366,0.305,631.034
141373,155810,12719,0.017,-0.948,-0.163,-0.427,0.366,0.122,631.04
141364,155898,12606,0.014,-0.944,-0.161,-0.427,0.366,0.122,631.044
141364,155793,12721,0.012,-0.947,-0.169,-0.427,0.488,0.183,631.05
141313,155898,12606,0.017,-0.952,-0.168,-0.427,0.488,0.183,631.054
141313,155775,12732,0.021,-0.95,-0.165,-0.366,0.549,0.122,631.06
141326,155898,12606,0.021,-0.95,-0.165,-0.366,0.549,0.122,631.064
141326,155786,12735,0.012,-0.948,-0.159,0.122,0.366,0.244,631.07
141347,155898,12606,0.012,-0.948,-0.159,0.122,0.366,0.244,631.073
141347,155819,12727,0.015,-0.946,-0.163,-0.366,0.305,0.183,631.08
141346,155898,12606,0.015,-0.946,-0.163,-0.366,0.305,0.183,631.083
141346,155832,12725,0.017,-0.954,-0.166,-0.854,0.244,0.244,631.09
141384,155898,12606,0.017,-0.954,-0.166,-0.854,0.244,0.244,631.093
141384,155851,12732,0.017,-0.941,-0.156,-0.61,0.305,0.366,631.099
141403,155898,12606,0.017,-0.941,-0.156,-0.61,0.305,0.366,631.103
141403,155877,12743,0.015,-0.946,-0.164,-0.976,0.244,0.427,631.109
141416,156154,12606,0.015,-0.946,-0.164,-0.976,0.244,0.427,631.113
141416,155906,12733,0.016,-0.947,-0.166,-1.037,0.183,0.427,631.119
141458,156154,12606,0.016,-0.947,-0.166,-1.037,0.183,0.427,631.123
141458,155907,12733,0.014,-0.946,-0.161,-0.671,0.061,0.427,631.129
141471,156154,12606,0.014,-0.946,-0.161,-0.671,0.061,0.427,631.133
141471,155916,12766,0.013,-0.953,-0.167,-0.732,0,0.549,631.139
141460,156154,12606,0.013,-0.953,-0.167,-0.732,0,0.549,631.143
141460,155915,12737,0.016,-0.952,-0.168,-0.305,0.061,0.427,631.149
141462,156154,12606,0.016,-0.952,-0.168,-0.305,0.061,0.427,631.153
141462,155904,12727,0.013,-0.946,-0.164,0.305,0.427,0.427,631.159
141409,155898,12606,0.013,-0.946,-0.164,0.305,0.427,0.427,631.163
141409,155863,12744,0.012,-0.945,-0.163,0.671,0.61,0.366,631.169
141423,155898,12606,0.012,-0.945,-0.163,0.671,0.61,0.366,631.172
141423,155872,12734,0.016,-0.946,-0.157,0.915,0.671,0.305,631.179
141375,155898,12606,0.016,-0.946,-0.157,0.915,0.671,0.305,631.182
141375,155834,12739,0.015,-0.94,-0.158,0.244,0.793,0.305,631.189
141365,155898,12606,0.015,-0.94,-0.158,0.244,0.793,0.305,631.192
141365,155821,12731,0.018,-0.954,-0.167,-0.366,0.793,0.366,631.198
141360,155898,12606,0.018,-0.954,-0.167,-0.366,0.793,0.366,631.202
141360,155829,12736,0.015,-0.956,-0.17,-0.366,0.793,0.366,631.208
141369,155898,12606,0.013,-0.956,-0.168,0.122,0.61,0.366,631.212
141369,155852,12728,0.016,-0.952,-0.159,0.122,0.61,0.366,631.218
141401,155898,12606,0.017,-0.941,-0.159,0.549,0.488,0.427,631.222
141401,155874,12737,0.017,-0.94,-0.161,0.549,0.488,0.427,631.228
141415,155898,12606,0.013,-0.943,-0.161,0.244,0.488,0.427,631.232
141415,155882,12738,0.016,-0.947,-0.161,0.244,0.488,0.427,631.238
141413,155898,12606,0.015,-0.945,-0.159,0.366,0.183,0.427,631.242
141413,155889,12736,0.015,-0.946,-0.162,0.366,0.183,0.427,631.248
141454,155898,12606,0.014,-0.943,-0.161,-0.122,0.061,0.427,631.252
141454,155895,12740,0.015,-0.941,-0.159,-0.122,0.061,0.427,631.258
141462,155898,12606,0.013,-0.947,-0.154,-0.061,0.305,0.305,631.262
141462,155884,12728,0.013,-0.949,-0.156,-0.061,0.305,0.305,631.268
141434,155898,12606,0.015,-0.948,-0.157,-0.488,0.488,0.183,631.271
141434,155880,12731,0.016,-0.95,-0.159,-0.488,0.488,0.183,631.278
141454,155898,12606,0.015,-0.954,-0.169,-1.037,0.427,0.183,631.281
141454,155869,12755,0.013,-0.953,-0.163,-1.037,0.427,0.183,631.288
141444,155898,12606,0.016,-0.951,-0.16,-0.732,0.549,-0.061,631.291
141444,155866,12743,0.017,-0.948,-0.161,-0.732,0.549,-0.061,631.297
141395,155898,12606,0.015,-0.946,-0.161,-0.366,0.366,0.061,631.301
141395,155862,12725,0.018,-0.944,-0.164,-0.366,0.366,0.061,631.307
141360,155898,12606,0.017,-0.945,-0.164,-0.305,0.183,0.244,631.311
141360,155841,12735,0.017,-0.947,-0.163,-0.305,0.183,0.244,631.317
141342,155898,12606,0.019,-0.946,-0.161,-0.244,0,0.305,631.321
141342,155809,12717,0.018,-0.939,-0.163,-0.244,0,0.305,631.327
141323,155898,12606,0.017,-0.942,-0.159,-0.183,0,0.488,631.331
141323,155791,12717,0.016,-0.944,-0.161,-0.183,0,0.488,631.337
141313,155898,12606,0.016,-0.947,-0.165,-0.305,0.183,0.488,631.341
141313,155763,12707,0.018,-0.947,-0.167,-0.305,0.183,0.488,631.347
141285,155898,12606,0.018,-0.949,-0.161,-0.427,0.061,0.488,631.351
141285,155773,12741,0.012,-0.948,-0.159,-0.427,0.061,0.488,631.357
141301,155898,12606,0.013,-0.946,-0.154,-0.305,0.061,0.549,631.361
141301,155762,12719,0.011,-0.945,-0.161,-0.305,0.061,0.549,631.367
141326,155898,12606,0.012,-0.952,-0.164,-0.854,0.122,0.488,631.37
141326,155767,12729,0.017,-0.95,-0.166,-0.854,0.122,0.488,631.377
141307,155898,12606,0.013,-0.951,-0.166,-0.976,0.244,0.366,631.38
141307,155772,12734,0.012,-0.952,-0.173,-0.976,0.244,0.366,631.387
141345,155898,12606,0.013,-0.953,-0.172,-0.366,0.488,0.366,631.39
141345,155772,12734,0.016,-0.953,-0.166,-0.366,0.488,0.366,631.396
141356,155898,12606,0.016,-0.947,-0.163,0.366,0.549,0.366,631.4
141356,155839,12728,0.015,-0.943,-0.16,0.366,0.549,0.366,631.406
141385,155898,12606,0.012,-0.941,-0.162,0.61,0.61,0.427,631.41
141385,155843,12740,0.014,-0.944,-0.164,0.61,0.61,0.427,631.416
141396,155898,12606,0.016,-0.947,-0.165,0.488,0.793,0.366,631.42
141396,155863,12729,0.018,-0.947,-0.16,0.488,0.793,0.366,631.426
141395,155898,12606,0.016,-0.941,-0.155,0.732,0.671,0.366,631.43
141395,155871,12727,0.016,-0.94,-0.161,0.732,0.671,0.366,631.436
141378,155898,12606,0.016,-0.944,-0.16,0.488,0.671,0.427,631.44
141378,155856,12729,0.016,-0.946,-0.155,0.488,0.671,0.427,631.446
141375,155898,12606,0.015,-0.949,-0.159,0,0.366,0.366,631.45
141375,155846,12715,0.014,-0.948,-0.154,0,0.366,0.366,631.456
141374,155898,12606,0.013,-0.943,-0.153,-0.366,0.122,0.427,631.46
141374,155856,12731,0.017,-0.943,-0.158,-0.366,0.122,0.427,631.466
141372,155898,12606,0.013,-0.947,-0.16,-0.854,0.061,0.305,631.469
141372,155835,12737,0.014,-0.948,-0.157,-0.854,0.061,0.305,631.476
141394,155898,12606,0.013,-0.947,-0.16,-1.28,-0.122,0.183,631.479
141394,155841,12725,0.01,-0.95,-0.165,-1.28,-0.122,0.183,631.486
141414,155898,12606,0.016,-0.956,-0.164,-1.646,0.061,0.122,631.489
141414,155848,12746,0.016,-0.952,-0.168,-1.646,0.061,0.122,631.495
141427,155898,12606,0.014,-0.952,-0.168,-1.341,0.183,0.061,631.499
141427,155864,12745,0.016,-0.953,-0.172,-1.341,0.183,0.061,631.505
141452,155898,12606,0.02,-0.94,-0.167,-0.61,0.488,0.183,631.509
141452,155901,12757,0.017,-0.936,-0.164,-0.61,0.488,0.183,631.515
141506,156154,12606,0.012,-0.946,-0.167,-0.122,0.488,0.366,631.519
141506,155929,12749,0.016,-0.951,-0.17,-0.122,0.488,0.366,631.525
141491,156154,12606,0.019,-0.948,-0.169,0.305,0.61,0.488,631.529
141491,155923,12747,0.016,-0.946,-0.169,0.305,0.61,0.488,631.535
141503,156154,12606,0.017,-0.949,-0.164,0.915,0.488,0.549,631.539
141503,155933,12750,0.017,-0.948,-0.164,0.915,0.488,0.549,631.545
141475,156154,12606,0.013,-0.949,-0.164,1.159,0.488,0.549,631.549
141475,155916,12757,0.014,-0.949,-0.161,1.159,0.488,0.549,631.555
141471,156154,12606,0.015,-0.948,-0.161,0.793,0.488,0.427,631.559
141471,155945,12753,0.011,-0.944,-0.153,0.793,0.488,0.427,631.565
141492,156154,12606,0.012,-0.937,-0.151,0.671,0.488,0.427,631.569
141492,155960,12761,0.012,-0.943,-0.155,0.671,0.488,0.427,631.575
141508,156154,12606,0.017,-0.95,-0.162,-0.061,0.244,0.305,631.578
141508,155976,12758,0.015,-0.952,-0.164,-0.061,0.244,0.305,631.585
141523,156154,12606,0.015,-0.95,-0.161,-0.488,0.427,0.244,631.588
141523,155981,12748,0.014,-0.947,-0.144,-0.488,0.427,0.244,631.594
141544,156154,12606,0.016,-0.943,-0.158,-0.671,0.305,0.305,631.598
141544,155993,12744,0.016,-0.951,-0.165,-0.671,0.305,0.305,631.604
141555,156154,12606,0.018,-0.947,-0.161,-1.22,0.427,0.061,631.608
141555,155972,12772,0.018,-0.943,-0.16,-1.22,0.427,0.061,631.614
141539,156154,12606,0.013,-0.946,-0.163,-1.22,0.244,0.183,631.618
141539,155994,12766,0.017,-0.953,-0.167,-1.22,0.244,0.183,631.624
141533,156154,12606,0.018,-0.954,-0.175,-1.037,0.488,0.305,631.628
141533,155969,12762,0.02,-0.956,-0.171,-1.037,0.488,0.305,631.634
141503,156154,12606,0.018,-0.953,-0.165,-0.061,0.488,0.305,631.638
141503,155973,12770,0.013,-0.943,-0.161,-0.061,0.488,0.305,631.644
141499,156154,12606,0.013,-0.943,-0.161,-0.061,0.488,0.305,631.648
141499,155940,12740,0.018,-0.955,-0.171,0.305,0.549,0.549,631.654
141455,156154,12606,0.018,-0.955,-0.171,0.305,0.549,0.549,631.658
141455,155917,12739,0.016,-0.941,-0.159,0.061,0.671,0.488,631.664
141454,156154,12606,0.016,-0.941,-0.159,0.061,0.671,0.488,631.667
141454,155907,12752,0.014,-0.945,-0.161,0.549,0.732,0.549,631.674
141460,156154,12606,0.014,-0.945,-0.161,0.549,0.732,0.549,631.677
141460,155923,12733,0.017,-0.95,-0.16,0.915,0.732,0.488,631.684
141473,156154,12606,0.017,-0.95,-0.16,0.915,0.732,0.488,631.687
141473,155934,12757,0.013,-0.942,-0.155,0.793,0.61,0.427,631.693
141468,156154,12606,0.013,-0.942,-0.155,0.793,0.61,0.427,631.697
141468,155935,12760,0.01,-0.95,-0.171,0.244,0.488,0.427,631.703
141463,156154,12606,0.01,-0.95,-0.171,0.244,0.488,0.427,631.707
141463,155923,12752,0.015,-0.944,-0.161,0.305,0.671,0.061,631.713
141467,155898,12606,0.015,-0.944,-0.161,0.305,0.671,0.061,631.717
141467,155891,12757,0.014,-0.942,-0.153,0.671,0.488,-0.061,631.723
141486,156154,12606,0.014,-0.942,-0.153,0.671,0.488,-0.061,631.727
141486,155937,12766,0.018,-0.945,-0.159,0.183,0.427,-0.061,631.733
141451,156154,12606,0.018,-0.945,-0.159,0.183,0.427,-0.061,631.737
141451,155914,12745,0.015,-0.947,-0.162,-0.488,0.427,0,631.743
141452,156154,12606,0.015,-0.947,-0.162,-0.488,0.427,0,631.747
141452,155918,12747,0.018,-0.954,-0.168,-1.098,0.488,0.183,631.753
141445,155898,12606,0.018,-0.954,-0.168,-1.098,0.488,0.183,631.757
141445,155900,12739,0.018,-0.947,-0.165,-0.915,0.488,0.244,631.763
141449,155898,12606,0.018,-0.947,-0.165,-0.915,0.488,0.244,631.767
141449,155892,12751,0.018,-0.952,-0.173,-0.671,0.305,0.366,631.773
141444,155898,12606,0.018,-0.952,-0.173,-0.671,0.305,0.366,631.776
141444,155884,12744,0.017,-0.951,-0.168,-0.183,0.366,0.427,631.783
141430,155898,12606,0.017,-0.951,-0.168,-0.183,0.366,0.427,631.786
141430,155882,12759,0.014,-0.942,-0.164,0.732,0.305,0.61,631.792
141425,155898,12606,0.014,-0.942,-0.164,0.732,0.305,0.61,631.796
141425,155902,12745,0.014,-0.941,-0.158,1.341,0.244,0.793,631.802
141414,156154,12606,0.017,-0.947,-0.15,1.341,0.244,0.793,631.806
141414,155911,12769,0.012,-0.944,-0.154,0.671,0.244,0.671,631.812
141448,156154,12606,0.011,-0.946,-0.165,0.671,0.244,0.671,631.816
141448,155917,12769,0.015,-0.954,-0.168,-0.61,0.366,0.427,631.822
141482,156154,12606,0.014,-0.959,-0.166,-0.61,0.366,0.427,631.826
141482,155928,12750,0.018,-0.947,-0.163,-0.244,0.366,0.366,631.832
141508,156154,12606,0.014,-0.932,-0.156,-0.244,0.366,0.366,631.836
141508,155959,12763,0.013,-0.94,-0.155,-0.061,0.427,0.61,631.842
141540,156154,12606,0.016,-0.955,-0.154,-0.061,0.427,0.61,631.846
141540,155975,12785,0.015,-0.951,-0.158,0,0.488,0.488,631.852
141522,156154,12606,0.016,-0.944,-0.163,0,0.488,0.488,631.856
141522,155985,12784,0.014,-0.949,-0.162,-0.549,0.427,0.305,631.862
141551,156154,12606,0.014,-0.955,-0.161,-0.549,0.427,0.305,631.865
141551,156024,12759,0.016,-0.949,-0.162,-0.366,0.549,0.183,631.872
141563,156154,12606,0.012,-0.941,-0.162,-0.366,0.549,0.183,631.875
141563,156026,12786,0.014,-0.942,-0.16,-0.183,0.366,0.183,631.882
141524,156154,12606,0.015,-0.945,-0.162,-0.183,0.366,0.183,631.885
141524,155982,12769,0.018,-0.947,-0.161,-0.488,0.305,0.305,631.891
141492,156154,12606,0.017,-0.947,-0.165,-0.488,0.305,0.305,631.895
141492,155918,12759,0.016,-0.951,-0.167,-0.793,0.244,0.427,631.901
141480,156154,12606,0.015,-0.958,-0.168,-0.793,0.244,0.427,631.905
141480,155922,12765,0.018,-0.954,-0.17,-0.549,0.183,0.488,631.911
141471,156154,12606,0.019,-0.948,-0.169,-0.549,0.183,0.488,631.915
141471,155944,12760,0.017,-0.949,-0.167,-0.061,0.244,0.549,631.921
141463,156154,12606,0.015,-0.95,-0.164,-0.061,0.244,0.549,631.925
141463,155919,12774,0.016,-0.947,-0.158,0.61,0.488,0.732,631.931
141476,156154,12606,0.015,-0.943,-0.158,0.61,0.488,0.732,631.935
141476,155943,12765,0.013,-0.939,-0.161,0.61,0.488,0.732,631.941
141511,156154,12606,0.012,-0.941,-0.158,0.61,0.488,0.732,631.945
141511,155961,12767,0.011,-0.943,-0.156,0.671,0.427,0.61,631.951
141530,156154,12606,0.016,-0.948,-0.16,0.671,0.427,0.61,631.955
141530,155997,12778,0.014,-0.946,-0.156,0.488,0.427,0.488,631.961
141544,156154,12606,0.014,-0.945,-0.158,0.488,0.427,0.488,631.965
141544,155984,12769,0.013,-0.946,-0.165,-0.061,0.427,0.427,631.971
141513,156154,12606,0.014,-0.952,-0.165,-0.061,0.427,0.427,631.974
141513,155955,12783,0.014,-0.954,-0.161,0.122,0.244,0.183,631.981
141489,156154,12606,0.016,-0.95,-0.164,0.122,0.244,0.183,631.984
141489,155963,12749,0.015,-0.954,-0.167,0.305,0.244,0.122,631.99
141471,156154,12606,0.014,-0.949,-0.162,0.305,0.244,0.122,631.994
141471,155930,12753,0.017,-0.95,-0.158,0.183,0.366,0.122,632
141467,156154,12606,0.017,-0.946,-0.161,0.183,0.366,0.122,632.004
141467,155932,12760,0.016,-0.943,-0.166,0,0.366,0.183,632.01
141452,155898,12606,0.017,-0.947,-0.163,0,0.366,0.183,632.014
141452,155896,12767,0.016,-0.942,-0.158,0.244,0.427,0.305,632.02
141471,156154,12606,0.015,-0.942,-0.158,0.244,0.427,0.305,632.024
141471,155920,12750,0.018,-0.944,-0.165,0.366,0.549,0.366,632.03
141482,156154,12606,0.017,-0.949,-0.165,0.366,0.549,0.366,632.034
141482,155939,12758,0.018,-0.949,-0.158,0.122,0.549,0.427,632.04
141518,156154,12606,0.016,-0.944,-0.151,0.122,0.549,0.427,632.044
141518,155935,12746,0.016,-0.935,-0.148,-0.366,0.366,0.61,632.05
141510,156154,12606,0.015,-0.939,-0.154,-0.366,0.366,0.61,632.054
141510,155930,12762,0.015,-0.952,-0.161,-1.707,0.366,0.549,632.06
141505,156154,12606,0.021,-0.953,-0.166,-1.707,0.366,0.549,632.063
141505,155950,12778,0.015,-0.949,-0.168,-2.256,0.122,0.244,632.07
141513,156154,12606,0.013,-0.95,-0.165,-2.256,0.122,0.244,632.073
141513,155958,12779,0.013,-0.953,-0.165,-1.768,0,0.488,632.08
141527,156154,12606,0.015,-0.948,-0.167,-1.768,0,0.488,632.083
141527,155993,12773,0.013,-0.942,-0.159,-1.22,0,0.549,632.089
141560,156154,12606,0.012,-0.944,-0.167,-1.22,0,0.549,632.093
141560,155998,12768,0.013,-0.952,-0.171,-0.854,0.244,0.366,632.099
141570,156154,12606,0.014,-0.956,-0.169,-0.854,0.244,0.366,632.103
141570,156044,12787,0.012,-0.956,-0.17,-0.183,0.427,0.244,632.109
141547,156154,12606,0.016,-0.952,-0.168,-0.183,0.427,0.244,632.113
141547,156005,12779,0.017,-0.947,-0.165,0.427,0.671,0.366,632.119
141537,156154,12606,0.016,-0.948,-0.159,0.427,0.671,0.366,632.123
141537,155968,12767,0.014,-0.947,-0.159,0.549,0.671,0.488,632.129
141502,156154,12606,0.015,-0.947,-0.163,0.549,0.671,0.488,632.133
141502,155978,12761,0.013,-0.948,-0.161,0.305,0.915,0.366,632.139
141478,156154,12606,0.015,-0.943,-0.15,0.305,0.915,0.366,632.143
141478,155952,12766,0.014,-0.944,-0.151,0,0.671,0.244,632.149
141485,156154,12606,0.013,-0.945,-0.154,0,0.671,0.244,632.153
141485,155920,12758,0.016,-0.942,-0.159,-0.976,0.427,0.122,632.159
141468,156154,12606,0.017,-0.943,-0.163,-0.976,0.427,0.122,632.163
141468,155924,12765,0.015,-0.948,-0.163,-1.524,0.366,0.061,632.169
141471,155898,12606,0.015,-0.948,-0.163,-1.524,0.366,0.061,632.172
141471,155879,12752,0.017,-0.947,-0.164,-1.28,0.305,0.244,632.179
141466,156154,12606,0.018,-0.947,-0.166,-1.28,0.305,0.244,632.182
141466,155922,12758,0.018,-0.949,-0.168,-1.037,0.183,0.305,632.188
141486,156154,12606,0.017,-0.955,-0.174,-1.037,0.183,0.305,632.192
141486,155914,12752,0.016,-0.954,-0.174,-0.488,0.305,0.305,632.198
141485,156154,12606,0.017,-0.951,-0.168,-0.488,0.305,0.305,632.202
141485,155943,12770,0.012,-0.949,-0.163,0.793,0.305,0.549,632.208
141486,156154,12606,0.014,-0.951,-0.169,0.793,0.305,0.549,632.212
141486,155972,12762,0.014,-0.951,-0.167,1.402,0.488,0.488,632.218
141491,156154,12606,0.016,-0.948,-0.166,1.402,0.488,0.488,632.222
141491,155959,12755,0.017,-0.946,-0.166,1.707,0.549,0.549,632.228
141463,156154,12606,0.012,-0.949,-0.163,1.707,0.549,0.549,632.232
141463,155932,12765,0.018,-0.947,-0.154,1.707,0.671,0.549,632.238
141440,156154,12606,0.018,-0.947,-0.154,1.707,0.671,0.549,632.242
141440,155913,12754,0.01,-0.935,-0.148,0.671,0.61,0.488,632.248
141405,155898,12606,0.01,-0.935,-0.148,0.671,0.61,0.488,632.252
141405,155891,12738,0.012,-0.955,-0.163,-1.037,0.366,0.244,632.258
141410,155898,12606,0.012,-0.955,-0.163,-1.037,0.366,0.244,632.261
141410,155875,12742,0.019,-0.949,-0.16,-1.707,0.244,-0.183,632.268
141369,155898,12606,0.019,-0.949,-0.16,-1.707,0.244,-0.183,632.271
141369,155850,12745,0.013,-0.941,-0.158,-1.341,0.183,0.183,632.278
141353,155898,12606,0.013,-0.941,-0.158,-1.341,0.183,0.183,632.281
141353,155859,12747,0.014,-0.949,-0.168,-0.915,0.244,0.244,632.287
141353,155898,12606,0.014,-0.949,-0.168,-0.915,0.244,0.244,632.291
141353,155850,12738,0.017,-0.953,-0.168,-0.549,0.244,0.183,632.297
141349,155898,12606,0.017,-0.953,-0.168,-0.549,0.244,0.183,632.301
141349,155819,12737,0.018,-0.953,-0.168,0.244,0.488,0.427,632.307
141346,155898,12606,0.018,-0.953,-0.168,0.244,0.488,0.427,632.311
141346,155833,12734,0.014,-0.95,-0.167,0.793,0.671,0.488,632.317
141342,155898,12606,0.014,-0.95,-0.167,0.793,0.671,0.488,632.321
141342,155811,12720,0.015,-0.958,-0.166,0.915,0.915,0.488,632.327
141333,155898,12606,0.015,-0.958,-0.166,0.915,0.915,0.488,632.331
141333,155782,12734,0.016,-0.944,-0.156,0.732,0.61,0.549,632.337
141337,155898,12606,0.016,-0.944,-0.156,0.732,0.61,0.549,632.341
141337,155779,12724,0.013,-0.938,-0.16,0,0.61,0.671,632.347
141308,155898,12606,0.013,-0.938,-0.16,0,0.61,0.671,632.351
141308,155777,12736,0.016,-0.949,-0.165,-0.061,0.366,0.488,632.357
141298,155898,12606,0.016,-0.949,-0.165,-0.061,0.366,0.488,632.36
141298,155758,12745,0.011,-0.955,-0.167,-0.183,0.244,0.366,632.367
141286,155898,12606,0.011,-0.955,-0.167,-0.183,0.244,0.366,632.37
141286,155763,12723,0.016,-0.941,-0.158,-0.061,0.183,0.366,632.377
141280,155898,12606,0.016,-0.941,-0.158,-0.061,0.183,0.366,632.38
141280,155786,12728,0.011,-0.943,-0.16,-0.061,0.183,0.366,632.386
141274,155898,12606,0.013,-0.949,-0.162,0.183,0.427,0.366,632.39
141274,155775,12732,0.013,-0.948,-0.157,0.183,0.427,0.366,632.396
141288,155898,12606,0.016,-0.946,-0.158,0.122,0.427,0.244,632.4
141288,155786,12739,0.014,-0.945,-0.16,0.122,0.427,0.244,632.406
141318,155898,12606,0.016,-0.945,-0.155,0.061,0.549,0.305,632.41
141318,155831,12725,0.019,-0.94,-0.152,0.061,0.549,0.305,632.416
141334,155898,12606,0.017,-0.938,-0.155,-0.61,0.427,0.305,632.42
141334,155818,12731,0.015,-0.946,-0.166,-0.61,0.427,0.305,632.426
141348,155898,12606,0.02,-0.954,-0.168,-1.28,0.244,0.366,632.43
141348,155843,12747,0.017,-0.953,-0.167,-1.28,0.244,0.366,632.436
141366,155898,12606,0.014,-0.952,-0.166,-1.037,0.183,0.427,632.44
141366,155811,12746,0.014,-0.957,-0.166,-1.037,0.183,0.427,632.446
141339,155898,12606,0.015,-0.956,-0.172,-0.915,0.122,0.488,632.45
141339,155806,12732,0.014,-0.952,-0.171,-0.915,0.122,0.488,632.456
141321,155898,12606,0.016,-0.951,-0.169,-0.427,0.244,0.549,632.46
141321,155792,12738,0.012,-0.952,-0.162,-0.427,0.244,0.549,632.466
141298,155898,12606,0.017,-0.95,-0.164,0.671,0.488,0.549,632.469
141298,155784,12746,0.018,-0.939,-0.159,0.671,0.488,0.549,632.476
141301,155898,12606,0.014,-0.938,-0.156,0.915,0.549,0.549,632.479
141301,155809,12727,0.012,-0.94,-0.151,0.915,0.549,0.549,632.485
141284,155898,12606,0.014,-0.938,-0.15,0.732,0.549,0.549,632.489
141284,155812,12739,0.016,-0.94,-0.151,0.732,0.549,0.549,632.495
141323,155898,12606,0.016,-0.944,-0.153,-0.244,0.244,0.427,632.499
141323,155797,12735,0.013,-0.951,-0.162,-0.244,0.244,0.427,632.505
141337,155898,12606,0.016,-0.956,-0.168,-0.854,0.244,0.244,632.509
141337,155805,12729,0.018,-0.954,-0.164,-0.854,0.244,0.244,632.515
141334,155898,12606,0.018,-0.95,-0.161,-0.732,0.183,0.244,632.519
141334,155811,12747,0.014,-0.947,-0.162,-0.732,0.183,0.244,632.525
141349,155898,12606,0.016,-0.946,-0.161,-0.366,0.183,0.427,632.529
141349,155804,12738,0.015,-0.944,-0.159,-0.366,0.183,0.427,632.535
141370,155898,12606,0.014,-0.941,-0.158,-0.366,0.122,0.305,632.539
141370,155866,12755,0.015,-0.941,-0.162,-0.366,0.122,0.305,632.545
141386,155898,12606,0.014,-0.951,-0.172,-1.159,0.061,0.244,632.549
141386,155853,12749,0.016,-0.951,-0.169,-1.159,0.061,0.244,632.555
141384,155898,12606,0.014,-0.951,-0.172,-1.159,0.061,0.183,632.558
141384,155862,12737,0.015,-0.953,-0.17,-1.159,0.061,0.183,632.565
141371,155898,12606,0.015,-0.954,-0.167,-0.305,-0.061,0.366,632.568
141371,155853,12739,0.015,-0.95,-0.168,-0.305,-0.061,0.366,632.575
141368,155898,12606,0.016,-0.946,-0.169,-0.061,0.305,0.366,632.578
141368,155807,12741,0.013,-0.95,-0.17,-0.061,0.305,0.366,632.584
141342,155898,12606,0.012,-0.954,-0.169,0.305,0.549,0.305,632.588
141342,155844,12740,0.016,-0.954,-0.168,0.305,0.549,0.305,632.594
141308,155898,12606,0.016,-0.946,-0.159,1.159,0.732,0.244,632.598
141308,155829,12752,0.016,-0.941,-0.148,1.159,0.732,0.244,632.604
141317,155898,12606,0.015,-0.933,-0.148,1.159,0.61,0.366,632.608
141317,155799,12749,0.013,-0.938,-0.155,1.159,0.61,0.366,632.614
141315,155898,12606,0.013,-0.945,-0.157,0.061,0.61,0.366,632.618
141315,155800,12732,0.017,-0.947,-0.166,0.061,0.61,0.366,632.624
141324,155898,12606,0.015,-0.95,-0.166,-0.549,0.549,0.183,632.628
141324,155790,12743,0.014,-0.953,-0.168,-0.549,0.549,0.183,632.634
141327,155898,12606,0.015,-0.952,-0.168,-0.183,0.549,0.183,632.638
141327,155778,12737,0.018,-0.951,-0.164,-0.183,0.549,0.183,632.644
141343,155898,12606,0.015,-0.951,-0.159,0.183,0.549,0.366,632.648
141343,155796,12756,0.014,-0.95,-0.16,0.183,0.549,0.366,632.654
141344,155898,12606,0.017,-0.956,-0.167,0.183,0.488,0.488,632.658
141344,155851,12737,0.019,-0.954,-0.168,0.183,0.488,0.488,632.664
141357,155898,12606,0.016,-0.945,-0.163,0.305,0.732,0.488,632.667
141357,155843,12729,0.012,-0.94,-0.157,0.305,0.732,0.488,632.674
141363,155898,12606,0.015,-0.944,-0.159,0.549,0.61,0.61,632.677
141363,155825,12748,0.014,-0.946,-0.157,0.549,0.61,0.61,632.683
141321,155898,12606,0.01,-0.94,-0.161,0.122,0.549,0.305,632.687
141321,155825,12748,0.013,-0.942,-0.158,0.122,0.549,0.305,632.693
141289,155898,12606,0.017,-0.949,-0.159,-0.366,0.244,0.244,632.697
141289,155822,12741,0.017,-0.949,-0.155,-0.366,0.244,0.244,632.703
141300,155898,12606,0.016,-0.94,-0.152,-0.793,0.183,0.122,632.707
141300,155811,12736,0.014,-0.943,-0.163,-0.793,0.183,0.122,632.713
141320,155898,12606,0.012,-0.954,-0.17,-1.89,0.061,0.244,632.717
141320,155822,12750,0.018,-0.959,-0.172,-1.89,0.061,0.244,632.723
141327,155898,12606,0.019,-0.949,-0.166,-1.585,0.244,0.244,632.727
141327,155853,12747,0.016,-0.946,-0.161,-1.585,0.244,0.244,632.733
141358,155898,12606,0.012,-0.947,-0.163,-0.793,0.183,0.488,632.737
141358,155881,12753,0.014,-0.952,-0.166,-0.793,0.183,0.488,632.743
141387,155898,12606,0.018,-0.953,-0.171,-0.671,0.244,0.427,632.747
141387,155891,12738,0.017,-0.949,-0.166,-0.671,0.244,0.427,632.753
141393,155898,12606,0.015,-0.95,-0.161,-0.122,0.427,0.305,632.756
141393,155888,12766,0.015,-0.945,-0.157,-0.122,0.427,0.305,632.763
141418,155898,12606,0.013,-0.938,-0.16,0.122,0.549,0.427,632.766
141418,155888,12746,0.013,-0.94,-0.166,0.122,0.549,0.427,632.773
141428,155898,12606,0.013,-0.948,-0.167,-0.61,0.549,0.305,632.776
141428,155893,12760,0.014,-0.952,-0.169,-0.61,0.549,0.305,632.782
141418,156154,12606,0.016,-0.952,-0.165,-0.305,0.549,0.122,632.786
141418,155917,12749,0.014,-0.947,-0.16,-0.305,0.549,0.122,632.792
141422,156154,12606,0.016,-0.943,-0.155,0,0.427,0.305,632.796
141422,155924,12758,0.014,-0.944,-0.162,0,0.427,0.305,632.802
141428,156154,12606,0.016,-0.949,-0.166,-0.549,0.427,0.427,632.806
141428,155950,12763,0.019,-0.955,-0.169,-0.549,0.427,0.427,632.812
141427,156154,12606,0.017,-0.955,-0.169,-0.366,0.488,0.305,632.816
141427,155917,12761,0.018,-0.949,-0.163,-0.366,0.488,0.305,632.822
141430,156154,12606,0.018,-0.949,-0.163,-0.366,0.488,0.305,632.826
141430,155919,12771,0.015,-0.938,-0.161,0.183,0.366,0.549,632.832
141419,156154,12606,0.015,-0.938,-0.161,0.183,0.366,0.549,632.836
141419,155914,12771,0.017,-0.95,-0.162,0.061,0.305,0.732,632.842
141423,156154,12606,0.017,-0.95,-0.162,0.061,0.305,0.732,632.846
141423,155919,12764,0.012,-0.944,-0.162,0.061,0.244,0.488,632.852
141448,156154,12606,0.012,-0.944,-0.162,0.061,0.244,0.488,632.856
141448,155945,12747,0.013,-0.945,-0.164,-0.305,0.244,0.488,632.862
141439,156154,12606,0.013,-0.945,-0.164,-0.305,0.244,0.488,632.865
141439,155954,12770,0.012,-0.954,-0.169,-0.549,0.244,0.427,632.872
141439,156154,12606,0.012,-0.954,-0.169,-0.549,0.244,0.427,632.875
141439,155939,12756,0.016,-0.948,-0.166,-0.061,0.549,0.183,632.881
141429,156154,12606,0.016,-0.948,-0.166,-0.061,0.549,0.183,632.885
141429,155918,12766,0.014,-0.948,-0.163,0.488,0.61,0.427,632.891
141432,155898,12606,0.014,-0.948,-0.163,0.488,0.61,0.427,632.895
141432,155901,12758,0.013,-0.941,-0.162,0.854,0.61,0.427,632.901
141411,156154,12606,0.013,-0.941,-0.162,0.854,0.61,0.427,632.905
141411,155911,12749,0.016,-0.946,-0.159,0.976,0.427,0.427,632.911
141394,155898,12606,0.016,-0.946,-0.159,0.976,0.427,0.427,632.915
141394,155876,12762,0.015,-0.94,-0.153,0.488,0.244,0.366,632.921
141393,155898,12606,0.015,-0.94,-0.153,0.488,0.244,0.366,632.925
141393,155860,12762,0.016,-0.949,-0.158,-0.305,0.305,0.427,632.931
141403,155898,12606,0.016,-0.949,-0.158,-0.305,0.305,0.427,632.935
141403,155888,12762,0.015,-0.951,-0.167,-0.976,0.366,0.305,632.941
141435,156154,12606,0.015,-0.951,-0.167,-0.976,0.366,0.305,632.945
141435,155927,12757,0.013,-0.949,-0.167,-1.22,0.366,0.305,632.951
141439,156154,12606,0.013,-0.949,-0.167,-1.22,0.366,0.305,632.954
141439,155924,12774,0.017,-0.949,-0.167,-0.854,0.244,0.427,632.961
141473,156154,12606,0.017,-0.949,-0.167,-0.854,0.244,0.427,632.964
141473,155947,12762,0.013,-0.949,-0.168,-0.061,0.244,0.488,632.971
141478,156154,12606,0.018,-0.947,-0.159,-0.061,0.244,0.488,632.974
141478,155949,12773,0.016,-0.942,-0.16,0.061,0.305,0.549,632.98
141471,156154,12606,0.012,-0.944,-0.164,0.061,0.305,0.549,632.984
141471,155955,12762,0.015,-0.95,-0.16,-0.183,0.427,0.427,632.99
141466,156154,12606,0.016,-0.948,-0.167,-0.183,0.427,0.427,632.994
141466,155958,12761,0.014,-0.95,-0.171,0.122,0.366,0.366,633
141509,156154,12606,0.016,-0.951,-0.164,0.122,0.366,0.366,633.004
141509,155947,12762,0.014,-0.947,-0.155,0.61,0.427,0.427,633.01
141493,156154,12606,0.013,-0.943,-0.154,0.61,0.427,0.427,633.014
141493,155957,12771,0.014,-0.944,-0.155,0.122,0.488,0.427,633.02
141467,156154,12606,0.011,-0.943,-0.158,0.122,0.488,0.427,633.024
141467,155944,12763,0.014,-0.944,-0.159,-0.732,0.488,0.305,633.03
141441,155898,12606,0.015,-0.949,-0.164,-0.732,0.488,0.305,633.034
141441,155899,12769,0.014,-0.948,-0.165,-0.854,0.244,0.427,633.04
141394,155898,12606,0.014,-0.947,-0.167,-0.854,0.244,0.427,633.044
141394,155857,12742,0.015,-0.948,-0.161,-0.549,0.305,0.366,633.05
141354,155898,12606,0.014,-0.951,-0.164,-0.549,0.305,0.366,633.054
141354,155862,12756,0.016,-0.953,-0.172,-0.122,0.122,0.244,633.06
141376,155898,12606,0.016,-0.954,-0.166,-0.122,0.122,0.244,633.063
141376,155872,12735,0.017,-0.942,-0.161,0.183,0.122,0.305,633.07
141350,155898,12606,0.013,-0.942,-0.158,0.183,0.122,0.305,633.073
141350,155871,12749,0.015,-0.947,-0.153,0.671,0.366,0.427,633.079
141373,155898,12606,0.016,-0.948,-0.152,0.671,0.366,0.427,633.083
141373,155855,12754,0.015,-0.942,-0.158,-0.183,0.366,0.244,633.089
141360,155898,12606,0.011,-0.946,-0.163,-0.183,0.366,0.244,633.093
141360,155883,12756,0.013,-0.948,-0.158,-0.915,0.549,0.183,633.099
141394,155898,12606,0.019,-0.943,-0.16,-0.915,0.549,0.183,633.103
141394,155899,12750,0.013,-0.939,-0.169,-1.098,0.549,0.183,633.109
141373,155898,12606,0.012,-0.949,-0.169,-1.098,0.549,0.183,633.113
141373,155884,12754,0.017,-0.957,-0.164,-0.793,0.366,0.305,633.119
141404,156154,12606,0.016,-0.951,-0.161,-0.793,0.366,0.305,633.123
141404,155916,12757,0.014,-0.947,-0.161,-0.244,0.183,0.244,633.129
141398,156154,12606,0.014,-0.946,-0.159,-0.244,0.183,0.244,633.133
141398,155917,12760,0.017,-0.948,-0.162,-0.244,0.183,0.366,633.139
141408,155898,12606,0.017,-0.944,-0.159,-0.244,0.183,0.366,633.143
141408,155899,12775,0.016,-0.942,-0.159,-0.488,0.122,0.366,633.149
141388,155898,12606,0.016,-0.948,-0.167,-0.488,0.122,0.366,633.153
141388,155884,12757,0.016,-0.95,-0.166,-0.732,0.244,0.305,633.159
141382,155898,12606,0.02,-0.946,-0.155,-0.732,0.244,0.305,633.162
141382,155875,12742,0.014,-0.941,-0.16,-0.671,0.305,0.427,633.169
141378,155898,12606,0.011,-0.945,-0.168,-0.671,0.305,0.427,633.172
141378,155839,12749,0.017,-0.956,-0.169,-0.671,0.305,0.488,633.178
141374,155898,12606,0.02,-0.961,-0.168,-0.671,0.305,0.488,633.182
141374,155864,12746,0.016,-0.952,-0.165,-0.427,0.183,0.427,633.188
141392,155898,12606,0.013,-0.944,-0.165,-0.427,0.183,0.427,633.192
141392,155854,12754,0.014,-0.941,-0.162,-0.183,0.549,0.488,633.198
141360,155898,12606,0.011,-0.944,-0.171,-0.183,0.549,0.488,633.202
141360,155864,12749,0.014,-0.947,-0.166,0.122,0.61,0.366,633.208
141382,155898,12606,0.014,-0.946,-0.164,0.122,0.61,0.366,633.212
141382,155879,12760,0.013,-0.943,-0.161,0.671,0.427,0.427,633.218
141382,155898,12606,0.015,-0.943,-0.154,0.671,0.427,0.427,633.222
141382,155884,12742,0.014,-0.944,-0.163,0.427,0.488,0.488,633.228
141375,155898,12606,0.013,-0.948,-0.167,0.427,0.488,0.488,633.232
141375,155886,12751,0.017,-0.952,-0.158,0,0.488,0.366,633.238
141392,155898,12606,0.02,-0.944,-0.151,0,0.488,0.366,633.242
141392,155890,12752,0.014,-0.942,-0.152,-0.366,0.366,0.305,633.248
141403,155898,12606,0.015,-0.952,-0.156,-0.366,0.366,0.305,633.252
141403,155890,12741,0.019,-0.952,-0.167,-1.28,0.366,0.366,633.258
141418,155898,12606,0.018,-0.951,-0.163,-1.28,0.366,0.366,633.261
141418,155883,12752,0.013,-0.951,-0.158,-1.585,0.244,0.305,633.268
141444,155898,12606,0.014,-0.942,-0.161,-1.585,0.244,0.305,633.271
141444,155886,12749,0.015,-0.945,-0.167,-1.524,0.122,0.427,633.277
141421,155898,12606,0.016,-0.954,-0.17,-1.524,0.122,0.427,633.281
141421,155900,12747,0.017,-0.955,-0.178,-1.22,0.122,0.305,633.287
141432,155898,12606,0.012,-0.948,-0.167,-1.22,0.122,0.305,633.291
141432,155900,12761,0.011,-0.943,-0.162,-0.366,0.061,0.427,633.297
141445,155898,12606,0.014,-0.942,-0.165,-0.366,0.061,0.427,633.301
141445,155892,12747,0.013,-0.95,-0.171,0.061,0.305,0.488,633.307
141402,155898,12606,0.015,-0.956,-0.175,0.061,0.305,0.488,633.311
141402,155901,12767,0.015,-0.95,-0.166,0.732,0.793,0.366,633.317
141402,155898,12606,0.016,-0.942,-0.157,0.732,0.793,0.366,633.321
141402,155876,12750,0.016,-0.942,-0.159,1.037,0.732,0.366,633.327
141391,155898,12606,0.015,-0.945,-0.156,1.037,0.732,0.366,633.331
141391,155863,12765,0.018,-0.944,-0.151,0.366,0.61,0.366,633.337
141396,155898,12606,0.014,-0.939,-0.152,0.366,0.61,0.366,633.341
141396,155884,12741,0.013,-0.943,-0.162,-0.976,0.488,0.366,633.347
141400,155898,12606,0.018,-0.948,-0.161,-0.976,0.488,0.366,633.351
141400,155897,12754,0.016,-0.951,-0.163,-1.524,0.366,0.183,633.357
141447,156154,12606,0.017,-0.949,-0.167,-1.524,0.366,0.183,633.36
141447,155916,12752,0.015,-0.954,-0.166,-1.098,0.183,0.366,633.367
141437,156154,12606,0.011,-0.955,-0.169,-1.098,0.183,0.366,633.37
141437,155941,12776,0.015,-0.952,-0.169,-0.427,0.366,0.427,633.376
141456,156154,12606,0.015,-0.953,-0.167,-0.427,0.366,0.427,633.38
141456,155944,12786,0.013,-0.951,-0.165,0.366,0.366,0.427,633.386
141478,156154,12606,0.013,-0.943,-0.169,0.366,0.366,0.427,633.39
141478,155984,12762,0.015,-0.945,-0.171,1.098,0.488,0.427,633.396
141511,156154,12606,0.015,-0.953,-0.167,1.098,0.488,0.427,633.4
141511,156006,12764,0.014,-0.95,-0.165,1.524,0.488,0.305,633.406
141529,156154,12606,0.015,-0.941,-0.161,1.524,0.488,0.305,633.41
141529,156019,12767,0.016,-0.937,-0.161,1.707,0.671,0.549,633.416
141523,156154,12606,0.016,-0.937,-0.161,1.707,0.671,0.549,633.42
141523,156013,12778,0.015,-0.945,-0.15,1.22,0.549,0.61,633.426
141500,156154,12606,0.015,-0.945,-0.15,1.22,0.549,0.61,633.43
141500,155986,12770,0.015,-0.938,-0.156,0.183,0.366,0.61,633.436
141515,156154,12606,0.015,-0.938,-0.156,0.183,0.366,0.61,633.44
141515,155971,12763,0.015,-0.953,-0.161,-1.159,0.183,0.488,633.446
141485,156154,12606,0.015,-0.953,-0.161,-1.159,0.183,0.488,633.449
141485,155960,12781,0.017,-0.948,-0.164,-1.463,0.061,0.366,633.456
141534,156154,12606,0.017,-0.948,-0.164,-1.463,0.061,0.366,633.459
141534,155982,12765,0.014,-0.951,-0.163,-1.22,0,0.427,633.466
141496,156154,12606,0.014,-0.951,-0.163,-1.22,0,0.427,633.469
141496,156003,12770,0.014,-0.95,-0.165,-0.915,0.183,0.427,633.475
141465,156154,12606,0.014,-0.95,-0.165,-0.915,0.183,0.427,633.479
141465,155978,12761,0.01,-0.947,-0.169,-0.854,0.366,0.305,633.485
141474,156154,12606,0.01,-0.947,-0.169,-0.854,0.366,0.305,633.489
141474,155948,12779,0.015,-0.947,-0.162,-0.305,0.488,0.305,633.495
141448,156154,12606,0.015,-0.947,-0.162,-0.305,0.488,0.305,633.499
141448,155958,12770,0.015,-0.943,-0.167,-0.488,0.488,0.244,633.505
141468,156154,12606,0.015,-0.943,-0.167,-0.488,0.488,0.244,633.509
141468,155950,12762,0.015,-0.948,-0.17,-0.427,0.427,0.061,633.515
141448,156154,12606,0.015,-0.948,-0.17,-0.427,0.427,0.061,633.519
141448,155940,12762,0.016,-0.951,-0.167,-0.061,0.488,0.183,633.525
141478,156154,12606,0.016,-0.951,-0.167,-0.061,0.488,0.183,633.529
141478,155964,12773,0.016,-0.94,-0.163,0.427,0.305,0.366,633.535
141440,156154,12606,0.016,-0.94,-0.163,0.427,0.305,0.366,633.539
141440,155967,12745,0.017,-0.951,-0.161,0.244,0.305,0.305,633.545
141449,156154,12606,0.017,-0.951,-0.161,0.244,0.305,0.305,633.549
141449,155951,12766,0.017,-0.944,-0.16,0.366,0.366,0.366,633.555
141454,156154,12606,0.017,-0.944,-0.16,0.366,0.366,0.366,633.558
141454,155937,12752,0.016,-0.942,-0.156,0.366,0.366,0.366,633.565
141445,156154,12606,0.015,-0.945,-0.153,0.061,0.366,0.549,633.568
141445,155950,12764,0.016,-0.946,-0.154,0.061,0.366,0.549,633.574
141446,156154,12606,0.016,-0.942,-0.159,-0.549,0.366,0.366,633.578
141446,155946,12757,0.013,-0.945,-0.165,-0.549,0.366,0.366,633.584
141475,156154,12606,0.013,-0.951,-0.173,-1.159,0.488,0.061,633.588
141475,155964,12775,0.012,-0.959,-0.173,-1.159,0.488,0.061,633.594
141489,156154,12606,0.013,-0.962,-0.172,-0.793,0.671,0.122,633.598
141489,155972,12777,0.016,-0.954,-0.168,-0.793,0.671,0.122,633.604
141494,156154,12606,0.016,-0.944,-0.166,0.244,0.671,0.305,633.608
141494,155992,12766,0.012,-0.946,-0.166,0.244,0.671,0.305,633.614
141490,156154,12606,0.015,-0.948,-0.169,0.854,0.671,0.427,633.618
141490,155987,12770,0.014,-0.948,-0.168,0.854,0.671,0.427,633.624
141476,156154,12606,0.016,-0.945,-0.167,1.159,0.549,0.366,633.628
141476,155983,12770,0.015,-0.938,-0.159,1.159,0.549,0.366,633.634
141489,156154,12606,0.015,-0.935,-0.158,1.159,0.61,0.366,633.638
141489,155976,12764,0.017,-0.943,-0.157,1.159,0.61,0.366,633.644
141501,156154,12606,0.018,-0.946,-0.153,1.098,0.549,0.244,633.648
141501,155992,12771,0.016,-0.941,-0.148,1.098,0.549,0.244,633.654
141471,156154,12606,0.015,-0.941,-0.155,0.183,0.305,0.244,633.657
141471,156001,12749,0.018,-0.946,-0.158,0.183,0.305,0.244,633.664
141462,156154,12606,0.018,-0.946,-0.151,-1.037,0.061,0.427,633.667
141462,155998,12759,0.015,-0.947,-0.148,-1.037,0.061,0.427,633.674
141474,156154,12606,0.016,-0.944,-0.161,-2.073,-0.122,0.488,633.677
141474,155994,12769,0.014,-0.945,-0.166,-2.073,-0.122,0.488,633.683
141506,156154,12606,0.014,-0.957,-0.172,-2.439,0.061,0.427,633.687
141506,155985,12787,0.019,-0.959,-0.17,-2.439,0.061,0.427,633.693
141506,156154,12606,0.015,-0.952,-0.161,-1.951,-0.366,0.427,633.697
141506,156016,12781,0.011,-0.945,-0.168,-1.951,-0.366,0.427,633.703
141529,156154,12606,0.011,-0.947,-0.176,-1.707,-0.183,0.427,633.707
141529,156027,12781,0.013,-0.959,-0.174,-1.707,-0.183,0.427,633.713
141538,156154,12606,0.013,-0.957,-0.172,-0.915,0.061,0.244,633.717
141538,156025,12785,0.012,-0.943,-0.173,-0.915,0.061,0.244,633.723
141550,156154,12606,0.009,-0.94,-0.167,-0.122,0.183,0.305,633.727
141550,156044,12778,0.014,-0.941,-0.169,-0.122,0.183,0.305,633.733
141537,156154,12606,0.015,-0.944,-0.174,0.366,0.488,0.183,633.737
141537,156009,12793,0.016,-0.949,-0.173,0.366,0.488,0.183,633.743
141526,156154,12606,0.017,-0.952,-0.171,0.854,0.854,0.244,633.747
141526,156024,12769,0.019,-0.945,-0.164,0.854,0.854,0.244,633.753
141520,156154,12606,0.016,-0.94,-0.161,1.463,0.671,0.427,633.756
141520,155999,12777,0.016,-0.938,-0.161,1.463,0.671,0.427,633.763
141513,156154,12606,0.018,-0.946,-0.162,1.463,0.61,0.61,633.766
141513,156000,12775,0.017,-0.949,-0.166,1.463,0.61,0.61,633.772
141533,156154,12606,0.016,-0.949,-0.162,1.585,0.61,0.61,633.776
141533,156027,12788,0.018,-0.945,-0.146,1.585,0.61,0.61,633.782
141521,156154,12606,0.017,-0.94,-0.144,1.402,0.549,0.732,633.786
141521,156020,12780,0.012,-0.936,-0.153,1.402,0.549,0.732,633.792
141519,156154,12606,0.013,-0.945,-0.158,0,0.549,0.732,633.796
141519,156011,12767,0.017,-0.953,-0.156,0,0.549,0.732,633.802
141519,156154,12606,0.016,-0.946,-0.152,-0.549,0.549,0.427,633.806
141519,156024,12793,0.011,-0.941,-0.159,-0.549,0.549,0.427,633.812
141519,156154,12606,0.011,-0.949,-0.166,-1.159,0.427,0.427,633.816
141519,156002,12777,0.016,-0.954,-0.17,-1.159,0.427,0.427,633.822
141537,156154,12606,0.017,-0.948,-0.17,-1.402,0.244,0.244,633.826
141537,156026,12779,0.013,-0.947,-0.165,-1.402,0.244,0.244,633.832
141521,156154,12606,0.008,-0.949,-0.169,-0.976,0.183,0.244,633.836
141521,155999,12782,0.013,-0.956,-0.173,-0.976,0.183,0.244,633.842
141453,156154,12606,0.013,-0.95,-0.167,-0.366,0.427,0.061,633.845
141453,155957,12766,0.015,-0.948,-0.167,-0.366,0.427,0.061,633.852
141452,156154,12606,0.016,-0.946,-0.168,-0.122,0.366,0,633.855
141452,155954,12750,0.015,-0.945,-0.168,-0.122,0.366,0,633.862
141454,156154,12606,0.018,-0.945,-0.161,-0.061,0.366,0,633.865
141454,155929,12764,0.019,-0.938,-0.161,-0.061,0.366,0,633.871
141449,156154,12606,0.018,-0.941,-0.165,-0.122,0.305,0.183,633.875
141449,155948,12761,0.017,-0.95,-0.162,-0.122,0.305,0.183,633.881
141474,156154,12606,0.019,-0.949,-0.156,-0.183,0.305,0.366,633.885
141474,155989,12770,0.021,-0.944,-0.151,-0.183,0.305,0.366,633.891
141491,156154,12606,0.018,-0.944,-0.157,-0.732,0.183,0.61,633.895
141491,155987,12767,0.017,-0.948,-0.161,-0.732,0.183,0.61,633.901
141519,156154,12606,0.02,-0.95,-0.158,-1.341,0.305,0.671,633.905
141519,156024,12769,0.017,-0.951,-0.168,-1.341,0.305,0.671,633.911
141548,156154,12606,0.015,-0.952,-0.173,-1.341,0.183,0.671,633.915
141548,156029,12770,0.013,-0.954,-0.176,-1.341,0.183,0.671,633.921
141534,156154,12606,0.012,-0.959,-0.17,-0.549,0.122,0.671,633.925
141534,156033,12777,0.011,-0.957,-0.171,-0.549,0.122,0.671,633.931
141557,156154,12606,0.009,-0.955,-0.174,0.549,0.244,0.549,633.935
141557,156056,12776,0.01,-0.951,-0.166,0.549,0.244,0.549,633.941
141541,156154,12606,0.012,-0.941,-0.16,1.159,0.366,0.366,633.945
141541,156052,12779,0.013,-0.936,-0.157,1.159,0.366,0.366,633.951
141538,156154,12606,0.009,-0.933,-0.159,1.098,0.366,0.305,633.954
141538,156023,12780,0.011,-0.943,-0.156,1.098,0.366,0.305,633.961
141505,156154,12606,0.015,-0.947,-0.157,0.427,0.427,0.122,633.964
141505,156023,12778,0.018,-0.944,-0.156,0.427,0.427,0.122,633.97
141536,156154,12606,0.019,-0.943,-0.153,-0.366,0.366,0.061,633.974
141536,156038,12780,0.016,-0.938,-0.146,-0.366,0.366,0.061,633.98
141576,156154,12606,0.016,-0.944,-0.153,-1.159,0.366,0.305,633.984
141576,156062,12780,0.021,-0.952,-0.165,-1.159,0.366,0.305,633.99
141582,156154,12606,0.02,-0.952,-0.168,-1.646,0.427,0.061,633.994
141582,156098,12774,0.016,-0.953,-0.171,-1.646,0.427,0.061,634
141627,156154,12606,0.016,-0.953,-0.171,-1.646,0.427,0.061,634.004
141627,156109,12789,0.018,-0.951,-0.169,-1.22,0.427,0.183,634.01
141619,156154,12606,0.018,-0.951,-0.169,-1.22,0.427,0.183,634.014
141619,156109,12789,0.015,-0.95,-0.172,-0.366,0.488,0.671,634.02
141660,156154,12606,0.015,-0.95,-0.172,-0.366,0.488,0.671,634.024
141660,156131,12791,0.013,-0.951,-0.171,0.488,0.244,0.671,634.03
141626,156154,12606,0.013,-0.951,-0.171,0.488,0.244,0.671,634.034
141626,156131,12778,0.015,-0.944,-0.164,1.159,0.244,0.671,634.04
141632,156154,12606,0.015,-0.944,-0.164,1.159,0.244,0.671,634.044
141632,156118,12796,0.013,-0.946,-0.165,1.28,0.488,0.427,634.05
141629,156154,12606,0.013,-0.946,-0.165,1.28,0.488,0.427,634.053
141629,156102,12784,0.013,-0.948,-0.16,1.037,0.488,0.122,634.06
141599,156154,12606,0.013,-0.948,-0.16,1.037,0.488,0.122,634.063
141599,156051,12770,0.017,-0.939,-0.155,0.488,0.549,0.183,634.069
141570,156154,12606,0.017,-0.939,-0.155,0.488,0.549,0.183,634.073
141570,156089,12778,0.016,-0.943,-0.148,-0.122,0.488,0.305,634.079
141558,156154,12606,0.016,-0.943,-0.148,-0.122,0.488,0.305,634.083
141558,156048,12759,0.014,-0.947,-0.162,-0.488,0.366,0.244,634.089
141517,156154,12606,0.014,-0.947,-0.162,-0.488,0.366,0.244,634.093
141517,156006,12765,0.017,-0.952,-0.162,-1.22,0.366,0.305,634.099
141503,156154,12606,0.017,-0.952,-0.162,-1.22,0.366,0.305,634.103
141503,155971,12769,0.018,-0.945,-0.165,-1.037,0.183,0.427,634.109
141472,156154,12606,0.018,-0.945,-0.165,-1.037,0.183,0.427,634.113
141472,155976,12770,0.016,-0.95,-0.176,-0.793,0.244,0.427,634.119
141538,156154,12606,0.016,-0.95,-0.176,-0.793,0.244,0.427,634.123
141538,156006,12766,0.016,-0.946,-0.171,-0.366,0.366,0.488,634.129
141538,156154,12606,0.016,-0.946,-0.171,-0.366,0.366,0.488,634.133
141538,156009,12775,0.011,-0.944,-0.163,0.366,0.244,0.732,634.139
141575,156154,12606,0.011,-0.944,-0.163,0.366,0.244,0.732,634.143
141575,156053,12776,0.013,-0.949,-0.165,0.61,0.305,0.61,634.149
141576,156154,12606,0.011,-0.95,-0.164,0.61,0.305,0.61,634.152
141576,156066,12787,0.014,-0.948,-0.158,0.549,0.549,0.244,634.159
141582,156154,12606,0.013,-0.938,-0.153,0.549,0.549,0.244,634.162
141582,156061,12771,0.011,-0.938,-0.152,-0.122,0.488,0.183,634.168
141579,156154,12606,0.013,-0.945,-0.16,-0.122,0.488,0.183,634.172
141579,156043,12781,0.016,-0.954,-0.165,-0.976,0.549,0.061,634.178
141595,156154,12606,0.015,-0.951,-0.161,-0.976,0.549,0.061,634.182
141595,156057,12776,0.016,-0.947,-0.16,-0.854,0.549,-0.122,634.188
141595,156154,12606,0.017,-0.944,-0.165,-0.854,0.549,-0.122,634.192
141595,156069,12771,0.016,-0.949,-0.167,-0.61,0.488,0.183,634.198
141624,156154,12606,0.015,-0.949,-0.168,-0.61,0.488,0.183,634.202
141624,156096,12783,0.017,-0.95,-0.17,-0.244,0.549,0.244,634.208
141638,156154,12606,0.016,-0.953,-0.169,-0.244,0.549,0.244,634.212
141638,156130,12791,0.016,-0.952,-0.167,0.366,0.244,0.488,634.218
141712,156410,12606,0.015,-0.948,-0.166,0.366,0.244,0.488,634.222
141712,156162,12796,0.017,-0.946,-0.163,0.793,0.183,0.549,634.228
141725,156410,12606,0.019,-0.946,-0.16,0.793,0.183,0.549,634.232
141725,156211,12803,0.014,-0.947,-0.155,0.549,0.244,0.549,634.238
141748,156410,12606,0.012,-0.937,-0.153,0.549,0.244,0.549,634.242
141748,156203,12795,0.014,-0.937,-0.164,-0.305,0.366,0.671,634.248
141757,156410,12606,0.015,-0.953,-0.166,-0.305,0.366,0.671,634.251
141757,156236,12797,0.014,-0.954,-0.161,-0.793,0.366,0.427,634.258
141746,156410,12606,0.013,-0.95,-0.162,-0.793,0.366,0.427,634.261
141746,156203,12804,0.013,-0.941,-0.16,-0.732,0.305,0.488,634.267
141703,156410,12606,0.013,-0.943,-0.162,-0.732,0.305,0.488,634.271
141703,156181,12809,0.015,-0.955,-0.167,-0.793,0.305,0.366,634.277
141650,156154,12606,0.016,-0.957,-0.172,-0.793,0.305,0.366,634.281
141650,156139,12790,0.015,-0.95,-0.173,-0.732,0.488,0.244,634.287
141622,156154,12606,0.015,-0.947,-0.163,-0.732,0.488,0.244,634.291
141622,156103,12774,0.016,-0.94,-0.161,-0.061,0.305,0.427,634.297
141612,156154,12606,0.012,-0.943,-0.163,-0.061,0.305,0.427,634.301
141612,156093,12791,0.013,-0.948,-0.165,0,0.305,0.244,634.307
141624,156154,12606,0.013,-0.948,-0.163,0,0.305,0.244,634.311
141624,156111,12787,0.014,-0.948,-0.164,-0.305,0.427,0.122,634.317
141653,156154,12606,0.019,-0.946,-0.156,-0.305,0.427,0.122,634.321
141653,156130,12790,0.018,-0.942,-0.158,-0.671,0.366,0.244,634.327
141672,156154,12606,0.016,-0.943,-0.17,-0.671,0.366,0.244,634.331
141672,156148,12787,0.015,-0.949,-0.163,-0.854,0.427,0.427,634.337
141697,156410,12606,0.017,-0.952,-0.165,-0.854,0.427,0.427,634.341
141697,156177,12801,0.016,-0.951,-0.165,-0.366,0.427,0.549,634.347
141673,156410,12606,0.014,-0.946,-0.16,-0.366,0.427,0.549,634.35
141673,156162,12788,0.014,-0.945,-0.156,-0.488,0.366,0.549,634.357
141691,156154,12606,0.015,-0.946,-0.161,-0.488,0.366,0.549,634.36
141691,156158,12799,0.015,-0.946,-0.168,-0.732,0.305,0.549,634.367
141664,156410,12606,0.014,-0.947,-0.167,-0.732,0.305,0.549,634.37
141664,156186,12793,0.013,-0.952,-0.169,-0.732,0.305,0.488,634.376
141655,156154,12606,0.012,-0.95,-0.169,-0.732,0.305,0.488,634.38
141655,156123,12791,0.014,-0.95,-0.167,-0.122,0.244,0.427,634.386
141639,156154,12606,0.012,-0.95,-0.169,-0.122,0.244,0.427,634.39
141639,156118,12794,0.011,-0.948,-0.164,0.488,0.488,0.366,634.396
141622,156154,12606,0.013,-0.946,-0.162,0.488,0.488,0.366,634.4
141622,156124,12779,0.013,-0.944,-0.162,0.915,0.732,0.244,634.406
141643,156154,12606,0.012,-0.944,-0.16,0.915,0.732,0.244,634.41
141643,156135,12784,0.016,-0.944,-0.166,0.793,0.549,0.244,634.416
141649,156154,12606,0.018,-0.946,-0.161,0.793,0.549,0.244,634.42
141649,156144,12782,0.018,-0.947,-0.156,0.366,0.427,0.305,634.426
141668,156154,12606,0.017,-0.94,-0.152,0.366,0.427,0.305,634.43
141668,156125,12794,0.016,-0.937,-0.155,-0.366,0.366,0.427,634.436
141646,156154,12606,0.016,-0.947,-0.159,-0.366,0.366,0.427,634.44
141646,156113,12782,0.016,-0.954,-0.164,-1.037,0.366,0.427,634.446
141657,156154,12606,0.016,-0.951,-0.166,-1.037,0.366,0.427,634.449
141657,156118,12801,0.018,-0.95,-0.17,-1.098,0.427,0.427,634.456
141643,156154,12606,0.016,-0.951,-0.173,-1.098,0.427,0.427,634.459
141643,156104,12778,0.015,-0.954,-0.169,-0.61,0.305,0.61,634.465
141610,156154,12606,0.012,-0.948,-0.168,-0.61,0.305,0.61,634.469
141610,156097,12789,0.009,-0.947,-0.167,0.244,0.427,0.488,634.475
141608,156154,12606,0.009,-0.949,-0.164,0.244,0.427,0.488,634.479
141608,156066,12780,0.013,-0.949,-0.165,0.61,0.61,0.305,634.485
141592,156154,12606,0.012,-0.943,-0.167,0.61,0.61,0.305,634.489
141592,156064,12790,0.016,-0.944,-0.171,0.183,0.61,0.244,634.495
141588,156154,12606,0.011,-0.95,-0.172,0.183,0.61,0.244,634.499
141588,156090,12783,0.01,-0.954,-0.169,0.427,0.549,0.183,634.505
141609,156154,12606,0.012,-0.948,-0.158,0.427,0.549,0.183,634.509
141609,156086,12774,0.016,-0.941,-0.155,0.732,0.61,0.183,634.515
141609,156154,12606,0.015,-0.938,-0.156,0.732,0.61,0.183,634.519
141609,156101,12779,0.015,-0.942,-0.161,0.061,0.671,0.183,634.525
141640,156154,12606,0.017,-0.951,-0.158,0.061,0.671,0.183,634.529
141640,156121,12779,0.019,-0.955,-0.161,-0.488,0.61,0.183,634.535
141652,156154,12606,0.019,-0.949,-0.166,-0.488,0.61,0.183,634.539
141652,156134,12777,0.016,-0.953,-0.162,-0.549,0.488,0.244,634.545
141642,156154,12606,0.017,-0.949,-0.163,-0.549,0.488,0.244,634.548
141642,156138,12788,0.017,-0.946,-0.167,-0.244,0.488,0.305,634.555
141661,156154,12606,0.016,-0.949,-0.167,-0.244,0.488,0.305,634.558
141661,156110,12785,0.016,-0.952,-0.163,-0.061,0.61,0.366,634.565
141622,156154,12606,0.013,-0.945,-0.167,-0.061,0.61,0.366,634.568
141622,156127,12795,0.013,-0.941,-0.167,0.244,0.549,0.427,634.574
141653,156154,12606,0.014,-0.943,-0.158,0.244,0.549,0.427,634.578
141653,156130,12779,0.014,-0.947,-0.155,0.427,0.305,0.488,634.584
141670,156410,12606,0.014,-0.944,-0.162,0.427,0.305,0.488,634.588
141670,156161,12791,0.012,-0.944,-0.166,-0.305,0.305,0.427,634.594
141666,156154,12606,0.012,-0.944,-0.166,-0.305,0.305,0.427,634.598
141666,156147,12783,0.013,-0.953,-0.158,-0.488,0.305,0.305,634.604
141662,156410,12606,0.013,-0.953,-0.158,-0.488,0.305,0.305,634.608
141662,156166,12790,0.011,-0.935,-0.163,-1.037,0.366,0.244,634.614
141679,156410,12606,0.011,-0.935,-0.163,-1.037,0.366,0.244,634.618
141679,156161,12796,0.018,-0.95,-0.166,-0.793,0.427,0.183,634.624
141663,156410,12606,0.018,-0.95,-0.166,-0.793,0.427,0.183,634.628
141663,156161,12800,0.014,-0.945,-0.165,-0.488,0.244,0.183,634.634
141648,156154,12606,0.014,-0.945,-0.165,-0.488,0.244,0.183,634.638
141648,156145,12778,0.017,-0.95,-0.162,-0.427,0.244,0.244,634.644
141658,156154,12606,0.017,-0.95,-0.162,-0.427,0.244,0.244,634.647
141658,156148,12782,0.019,-0.949,-0.166,-0.671,0.183,0.366,634.654
141651,156154,12606,0.019,-0.949,-0.166,-0.671,0.183,0.366,634.657
141651,156150,12793,0.014,-0.951,-0.171,-0.793,0.244,0.244,634.663
141691,156410,12606,0.014,-0.951,-0.171,-0.793,0.244,0.244,634.667
141691,156174,12798,0.015,-0.957,-0.166,-0.122,0.427,0.122,634.673
141707,156410,12606,0.015,-0.957,-0.166,-0.122,0.427,0.122,634.677
141707,156207,12800,0.012,-0.936,-0.166,0.305,0.549,0.366,634.683
141723,156410,12606,0.012,-0.936,-0.166,0.305,0.549,0.366,634.687
141723,156197,12806,0.013,-0.945,-0.162,0.427,0.549,0.488,634.693
141737,156410,12606,0.013,-0.945,-0.162,0.427,0.549,0.488,634.697
141737,156213,12794,0.017,-0.947,-0.156,0.549,0.488,0.366,634.703
141736,156410,12606,0.017,-0.947,-0.156,0.549,0.488,0.366,634.707
141736,156208,12803,0.015,-0.945,-0.16,-0.061,0.305,0.427,634.713
141727,156410,12606,0.015,-0.945,-0.16,-0.061,0.305,0.427,634.717
141727,156194,12793,0.018,-0.956,-0.164,-0.305,0.427,0.366,634.723
141698,156410,12606,0.018,-0.956,-0.164,-0.305,0.427,0.366,634.727
141698,156185,12806,0.014,-0.947,-0.163,-0.488,0.244,0.427,634.733
141692,156410,12606,0.014,-0.947,-0.163,-0.488,0.244,0.427,634.737
141692,156187,12789,0.012,-0.948,-0.169,-0.488,0.244,0.427,634.743
141662,156410,12606,0.017,-0.952,-0.169,-0.427,0.366,0.427,634.746
141662,156171,12790,0.019,-0.951,-0.172,-0.427,0.366,0.427,634.753
141651,156410,12606,0.016,-0.949,-0.17,0.427,0.366,0.366,634.756
141651,156161,12812,0.016,-0.948,-0.165,0.427,0.366,0.366,634.763
141656,156154,12606,0.015,-0.943,-0.157,1.037,0.305,0.61,634.766
141656,156130,12791,0.013,-0.939,-0.158,1.037,0.305,0.61,634.772
141671,156154,12606,0.016,-0.944,-0.158,0.549,0.549,0.732,634.776
141671,156152,12786,0.015,-0.945,-0.162,0.549,0.549,0.732,634.782
141678,156154,12606,0.014,-0.947,-0.17,-0.305,0.549,0.427,634.786
141678,156156,12809,0.016,-0.953,-0.173,-0.305,0.549,0.427,634.792
141687,156154,12606,0.013,-0.954,-0.166,-0.305,0.366,0.366,634.796
141687,156146,12786,0.011,-0.947,-0.162,-0.305,0.366,0.366,634.802
141713,156410,12606,0.011,-0.936,-0.151,-0.061,0.488,0.305,634.806
141713,156196,12794,0.015,-0.94,-0.156,-0.061,0.488,0.305,634.812
141703,156410,12606,0.015,-0.947,-0.161,-0.366,0.427,0.305,634.816
141703,156219,12807,0.018,-0.949,-0.16,-0.366,0.427,0.305,634.822
141733,156410,12606,0.017,-0.952,-0.159,-0.488,0.366,0.122,634.826
141733,156231,12800,0.018,-0.952,-0.165,-0.488,0.366,0.122,634.832
141735,156410,12606,0.017,-0.944,-0.164,-0.427,0.244,0.244,634.836
141735,156220,12797,0.012,-0.945,-0.164,-0.427,0.244,0.244,634.842
141717,156410,12606,0.017,-0.949,-0.161,-0.183,0.366,0.305,634.845
141717,156234,12803,0.016,-0.948,-0.163,-0.183,0.366,0.305,634.852
141718,156410,12606,0.015,-0.946,-0.165,-0.183,0.244,0.427,634.855
141718,156200,12782,0.016,-0.946,-0.167,-0.183,0.244,0.427,634.861
141692,156410,12606,0.017,-0.947,-0.164,-0.122,0.366,0.488,634.865
141692,156177,12787,0.016,-0.948,-0.161,-0.122,0.366,0.488,634.871
141679,156410,12606,0.014,-0.948,-0.162,-0.244,0.183,0.549,634.875
141679,156167,12793,0.016,-0.943,-0.163,-0.244,0.183,0.549,634.881
141694,156154,12606,0.016,-0.944,-0.164,-0.854,0.244,0.427,634.885
141694,156118,12787,0.013,-0.95,-0.164,-0.854,0.244,0.427,634.891
141650,156154,12606,0.014,-0.955,-0.164,-1.159,0.122,0.305,634.895
141650,156132,12781,0.017,-0.951,-0.172,-1.159,0.122,0.305,634.901
141633,156154,12606,0.015,-0.946,-0.168,-0.854,0.366,0.366,634.905
141633,156111,12785,0.016,-0.944,-0.157,-0.854,0.366,0.366,634.911
141604,156154,12606,0.016,-0.941,-0.157,-0.061,0.305,0.488,634.915
141604,156089,12779,0.016,-0.945,-0.159,-0.061,0.305,0.488,634.921
141598,156154,12606,0.018,-0.947,-0.16,-0.305,0.488,0.549,634.925
141598,156111,12786,0.012,-0.951,-0.163,-0.305,0.488,0.549,634.931
141595,156154,12606,0.015,-0.95,-0.165,-0.366,0.61,0.488,634.935
141595,156084,12783,0.019,-0.949,-0.165,-0.366,0.61,0.488,634.941
141614,156154,12606,0.018,-0.948,-0.162,0,0.549,0.427,634.944
141614,156075,12782,0.016,-0.949,-0.162,0,0.549,0.427,634.951
141613,156154,12606,0.015,-0.953,-0.171,0.244,0.366,0.427,634.954
141613,156073,12779,0.012,-0.954,-0.174,0.244,0.366,0.427,634.961
141600,156154,12606,0.016,-0.951,-0.167,0.61,0.244,0.427,634.964
141600,156112,12782,0.015,-0.944,-0.167,0.61,0.244,0.427,634.97
141614,156154,12606,0.013,-0.945,-0.172,0.793,0.549,0.488,634.974
141614,156133,12777,0.014,-0.949,-0.166,0.793,0.549,0.488,634.98
141613,156154,12606,0.016,-0.94,-0.153,1.646,0.549,0.488,634.984
141613,156092,12787,0.012,-0.937,-0.154,1.646,0.549,0.488,634.99
141588,156154,12606,0.011,-0.944,-0.164,0.854,0.427,0.427,634.994
141588,156082,12769,0.015,-0.952,-0.16,0.854,0.427,0.427,635
141584,156154,12606,0.015,-0.949,-0.159,0.061,0.427,0.122,635.004
141584,156070,12756,0.016,-0.945,-0.158,0.061,0.427,0.122,635.01
141579,156154,12606,0.018,-0.941,-0.158,-0.366,0.244,0.244,635.014
141579,156043,12767,0.018,-0.947,-0.16,-0.366,0.244,0.244,635.02
141554,156154,12606,0.017,-0.949,-0.162,-0.732,0.244,0.183,635.024
141554,156040,12765,0.015,-0.948,-0.158,-0.732,0.244,0.183,635.03
141547,156154,12606,0.012,-0.944,-0.154,-0.976,0.427,0.061,635.034
141547,156026,12758,0.016,-0.947,-0.155,-0.976,0.427,0.061,635.04
141568,156154,12606,0.016,-0.943,-0.157,-1.341,0.366,0.122,635.043
141568,156034,12772,0.017,-0.94,-0.161,-1.341,0.366,0.122,635.05
141581,156154,12606,0.016,-0.945,-0.164,-2.073,0.366,0.183,635.053
141581,156045,12757,0.016,-0.952,-0.17,-2.073,0.366,0.183,635.06
141588,156154,12606,0.017,-0.947,-0.171,-1.768,0.244,0.244,635.063
141588,156075,12777,0.017,-0.946,-0.171,-1.768,0.244,0.244,635.069
141634,156154,12606,0.018,-0.95,-0.169,-1.28,0.061,0.488,635.073
141634,156101,12774,0.014,-0.954,-0.173,-1.28,0.061,0.488,635.079
141609,156154,12606,0.012,-0.957,-0.172,-0.488,0.183,0.61,635.083
141609,156097,12786,0.018,-0.954,-0.172,-0.488,0.183,0.61,635.089
141625,156154,12606,0.015,-0.946,-0.167,0.305,0.366,0.488,635.093
141625,156114,12784,0.015,-0.944,-0.164,0.305,0.366,0.488,635.099
141625,156154,12606,0.014,-0.946,-0.16,0.549,0.427,0.549,635.103
141625,156104,12778,0.012,-0.946,-0.158,0.549,0.427,0.549,635.109
141615,156154,12606,0.012,-0.945,-0.164,0.183,0.671,0.366,635.113
141615,156067,12762,0.016,-0.942,-0.161,0.183,0.671,0.366,635.119
141588,156154,12606,0.013,-0.944,-0.162,-0.305,0.549,0.305,635.123
141588,156074,12768,0.011,-0.949,-0.167,-0.305,0.549,0.305,635.129
141597,156154,12606,0.013,-0.952,-0.164,-0.305,0.305,0.183,635.133
141597,156053,12780,0.015,-0.95,-0.162,-0.305,0.305,0.183,635.139
141559,156154,12606,0.014,-0.947,-0.164,-0.061,0.366,0.183,635.142
141559,156052,12777,0.014,-0.948,-0.164,-0.061,0.366,0.183,635.149
141571,156154,12606,0.018,-0.952,-0.163,0.061,0.427,0.427,635.152
141571,156085,12761,0.018,-0.95,-0.167,0.061,0.427,0.427,635.158
141596,156154,12606,0.017,-0.941,-0.16,0.244,0.366,0.427,635.162
141596,156105,12768,0.017,-0.94,-0.155,0.244,0.366,0.427,635.168
141622,156154,12606,0.017,-0.941,-0.156,0.427,0.183,0.549,635.172
141622,156086,12764,0.013,-0.944,-0.157,0.427,0.183,0.549,635.178
141624,156154,12606,0.013,-0.944,-0.157,0.427,0.183,0.549,635.182
141624,156082,12780,0.013,-0.944,-0.158,-0.366,0.305,0.427,635.188
141628,156154,12606,0.013,-0.944,-0.158,-0.366,0.305,0.427,635.192
141628,156096,12773,0.014,-0.949,-0.165,-1.585,0.183,0.366,635.198
141621,156154,12606,0.014,-0.949,-0.165,-1.585,0.183,0.366,635.202
141621,156103,12764,0.012,-0.946,-0.177,-2.073,0.183,0.305,635.208
141616,156154,12606,0.012,-0.946,-0.177,-2.073,0.183,0.305,635.212
141616,156098,12768,0.015,-0.96,-0.173,-1.524,0.305,0.183,635.218
141589,156154,12606,0.015,-0.96,-0.173,-1.524,0.305,0.183,635.222
141589,156082,12777,0.016,-0.953,-0.175,-0.244,0.366,0.305,635.228
141588,156154,12606,0.016,-0.953,-0.175,-0.244,0.366,0.305,635.232
141588,156081,12762,0.015,-0.951,-0.175,1.037,0.61,0.305,635.238
141609,156154,12606,0.015,-0.951,-0.175,1.037,0.61,0.305,635.241
141609,156076,12772,0.012,-0.938,-0.156,2.195,0.732,0.366,635.248
141610,156154,12606,0.012,-0.938,-0.156,2.195,0.732,0.366,635.251
141610,156120,12775,0.014,-0.933,-0.15,2.317,0.793,0.427,635.258
141644,156154,12606,0.014,-0.933,-0.15,2.317,0.793,0.427,635.261
141644,156143,12787,0.017,-0.951,-0.155,0.915,0.732,0.366,635.267
141646,156154,12606,0.017,-0.951,-0.155,0.915,0.732,0.366,635.271
141646,156122,12765,0.017,-0.94,-0.153,-0.427,0.488,0.244,635.277
141658,156154,12606,0.017,-0.94,-0.153,-0.427,0.488,0.244,635.281
141658,156097,12781,0.016,-0.949,-0.162,-1.098,0.488,0.488,635.287
141625,156154,12606,0.016,-0.949,-0.162,-1.098,0.488,0.488,635.291
141625,156127,12773,0.013,-0.951,-0.165,-1.22,0.488,0.427,635.297
141637,156154,12606,0.013,-0.951,-0.165,-1.22,0.488,0.427,635.301
141637,156126,12781,0.014,-0.952,-0.169,-1.22,0.122,0.488,635.307
141636,156154,12606,0.014,-0.952,-0.169,-1.22,0.122,0.488,635.311
141636,156129,12771,0.016,-0.942,-0.162,-0.854,0,0.61,635.317
141625,156154,12606,0.016,-0.942,-0.162,-0.854,0,0.61,635.321
141625,156129,12785,0.015,-0.948,-0.173,-0.976,-0.183,0.488,635.327
141627,156154,12606,0.012,-0.956,-0.183,-0.976,-0.183,0.488,635.331
141627,156113,12782,0.014,-0.96,-0.179,-0.427,0.366,0.183,635.337
141633,156154,12606,0.017,-0.953,-0.173,-0.427,0.366,0.183,635.34
141633,156103,12786,0.013,-0.944,-0.167,0.854,0.305,0.427,635.347
141618,156154,12606,0.014,-0.941,-0.159,0.854,0.305,0.427,635.35
141618,156110,12776,0.014,-0.946,-0.155,0.976,0.366,0.671,635.356
141636,156154,12606,0.015,-0.948,-0.156,0.976,0.366,0.671,635.36
141636,156111,12794,0.016,-0.946,-0.155,0.427,0.427,0.61,635.366
141634,156154,12606,0.017,-0.94,-0.154,0.427,0.427,0.61,635.37
141634,156123,12780,0.015,-0.938,-0.158,-0.549,0.61,0.488,635.376
141654,156154,12606,0.016,-0.946,-0.162,-0.549,0.61,0.488,635.38
141654,156129,12777,0.017,-0.953,-0.16,-0.732,0.549,0.427,635.386
141640,156154,12606,0.016,-0.951,-0.164,-0.732,0.549,0.427,635.39
141640,156130,12779,0.017,-0.946,-0.159,-0.61,0.366,0.488,635.396
141618,156154,12606,0.014,-0.94,-0.156,-0.61,0.366,0.488,635.4
141618,156111,12784,0.012,-0.944,-0.159,-0.61,0.305,0.488,635.406
141629,156154,12606,0.016,-0.949,-0.167,-0.61,0.305,0.488,635.41
141629,156136,12791,0.013,-0.952,-0.172,-0.793,0.244,0.427,635.416
141637,156154,12606,0.013,-0.955,-0.176,-0.793,0.244,0.427,635.42
141637,156137,12789,0.015,-0.955,-0.174,-0.305,0.305,0.244,635.426
141632,156154,12606,0.015,-0.951,-0.173,-0.305,0.305,0.244,635.43
141632,156097,12792,0.013,-0.952,-0.172,0.488,0.427,0.122,635.436
141613,156154,12606,0.011,-0.949,-0.163,0.488,0.427,0.122,635.439
141613,156113,12776,0.011,-0.941,-0.161,0.732,0.488,0.244,635.446
141623,156154,12606,0.013,-0.937,-0.16,0.732,0.488,0.244,635.449
141623,156096,12775,0.013,-0.944,-0.158,0.183,0.427,0.244,635.456
141606,156154,12606,0.013,-0.947,-0.165,0.183,0.427,0.244,635.459
141606,156083,12777,0.013,-0.953,-0.164,-0.122,0.61,0.061,635.465
141600,156154,12606,0.013,-0.952,-0.161,-0.122,0.61,0.061,635.469
141600,156080,12784,0.019,-0.947,-0.161,0.305,0.427,0,635.475
141579,156154,12606,0.018,-0.946,-0.16,0.305,0.427,0,635.479
141579,156047,12790,0.016,-0.94,-0.152,0.427,0.488,0.122,635.485
141568,156154,12606,0.015,-0.942,-0.159,0.427,0.488,0.122,635.489
141568,156046,12771,0.013,-0.948,-0.163,-0.244,0.61,0.366,635.495
141554,156154,12606,0.019,-0.951,-0.164,-0.244,0.61,0.366,635.499
141554,156047,12773,0.018,-0.951,-0.164,-0.488,0.671,0.366,635.505
141528,156154,12606,0.015,-0.945,-0.158,-0.488,0.671,0.366,635.509
141528,156044,12782,0.012,-0.942,-0.17,-0.671,0.427,0.488,635.515
141549,156154,12606,0.015,-0.951,-0.173,-0.671,0.427,0.488,635.519
141549,156043,12773,0.017,-0.953,-0.167,-0.305,0.427,0.427,635.525
141574,156154,12606,0.012,-0.948,-0.163,-0.305,0.427,0.427,635.529
141574,156046,12767,0.014,-0.946,-0.167,0.183,0.305,0.488,635.535
141579,156154,12606,0.016,-0.942,-0.168,0.183,0.305,0.488,635.538
141579,156059,12777,0.016,-0.943,-0.162,0.305,0.305,0.549,635.545
141613,156154,12606,0.013,-0.941,-0.154,0.305,0.305,0.549,635.548
141613,156080,12779,0.014,-0.94,-0.156,0.061,0.244,0.427,635.554
141616,156154,12606,0.014,-0.948,-0.16,0.061,0.244,0.427,635.558
