107234,140484,8743,-0.031,1.024,0.135,-0.549,0.549,0.244,558.766
107232,140432,5203,-0.028,1.026,0.131,-0.549,0.549,0.244,558.77
107232,140473,8733,-0.025,1.03,0.135,-0.305,0.122,0.366,558.776
107247,140432,5203,-0.026,1.032,0.138,-0.305,0.122,0.366,558.78
107247,140493,8732,-0.028,1.032,0.134,0.427,0.244,0.427,558.786
107243,140432,5203,-0.025,1.035,0.136,0.427,0.244,0.427,558.79
107243,140477,8738,-0.027,1.037,0.139,0.244,0.122,0.549,558.796
107246,140432,5203,-0.028,1.04,0.14,0.244,0.122,0.549,558.8
107246,140492,8746,-0.027,1.038,0.14,-0.244,0,0.61,558.806
107248,140432,5203,-0.029,1.038,0.142,-0.244,0,0.61,558.81
107248,140479,8751,-0.031,1.036,0.137,-0.671,0.244,0.488,558.816
107273,140432,5203,-0.032,1.037,0.135,-0.671,0.244,0.488,558.819
107273,140503,8735,-0.032,1.037,0.138,-0.671,0.244,0.488,558.826
107262,140432,5203,-0.032,1.037,0.138,-0.671,0.244,0.488,558.829
107262,140485,8734,-0.027,1.041,0.137,-0.549,0.427,0.305,558.836
107283,140432,5203,-0.027,1.041,0.137,-0.549,0.427,0.305,558.839
107283,140495,8742,-0.031,1.029,0.132,-0.183,0.488,0.305,558.845
107276,140432,5203,-0.031,1.029,0.132,-0.183,0.488,0.305,558.849
107276,140497,8747,-0.025,1.034,0.14,-0.122,0.488,0.366,558.855
107262,140432,5203,-0.025,1.034,0.14,-0.122,0.488,0.366,558.859
107262,140481,8726,-0.027,1.037,0.139,0.061,0.671,0.427,558.865
107293,140432,5203,-0.027,1.037,0.139,0.061,0.671,0.427,558.869
107293,140508,8755,-0.027,1.029,0.137,0.122,0.427,0.427,558.875
107276,140432,5203,-0.027,1.029,0.137,0.122,0.427,0.427,558.879
107276,140513,8741,-0.025,1.04,0.139,-0.427,0.366,0.305,558.885
107276,140432,5203,-0.025,1.04,0.139,-0.427,0.366,0.305,558.889
107276,140518,8747,-0.025,1.035,0.136,-0.427,0.488,0.305,558.895
107277,140432,5203,-0.025,1.035,0.136,-0.427,0.488,0.305,558.899
107277,140518,8749,-0.027,1.042,0.14,-0.549,0.427,0.305,558.905
107307,140432,5203,-0.027,1.042,0.14,-0.549,0.427,0.305,558.909
107307,140519,8750,-0.028,1.048,0.14,-0.854,0.488,0.244,558.915
107299,140432,5203,-0.028,1.048,0.14,-0.854,0.488,0.244,558.918
107299,140516,8746,-0.027,1.04,0.139,-1.098,0.549,0.122,558.925
107307,140432,5203,-0.027,1.04,0.139,-1.098,0.549,0.122,558.928
107307,140519,8757,-0.031,1.024,0.135,-0.854,0.427,0,558.935
107305,140432,5203,-0.031,1.024,0.135,-0.854,0.427,0,558.938
107305,140524,8753,-0.033,1.026,0.139,-0.488,0.427,0.122,558.944
107305,140688,5203,-0.033,1.026,0.139,-0.488,0.427,0.122,558.948
107305,140552,8752,-0.031,1.029,0.139,0,0.488,0.366,558.954
107315,140432,5203,-0.031,1.029,0.139,0,0.488,0.366,558.958
107315,140539,8757,-0.03,1.028,0.134,0.061,0.427,0.549,558.964
107316,140688,5203,-0.03,1.028,0.134,0.061,0.427,0.549,558.968
107316,140556,8754,-0.032,1.03,0.134,0.061,0.427,0.549,558.974
107305,140432,5203,-0.032,1.028,0.135,-0.427,0.183,0.61,558.978
107305,140533,8751,-0.029,1.025,0.137,-0.427,0.183,0.61,558.984
107329,140688,5203,-0.033,1.032,0.139,-0.183,0.305,0.61,558.988
107329,140544,8740,-0.033,1.039,0.143,-0.183,0.305,0.61,558.994
107317,140432,5203,-0.031,1.044,0.145,0.427,0.488,0.793,558.998
107317,140538,8769,-0.03,1.047,0.145,0.427,0.488,0.793,559.004
107290,140432,5203,-0.031,1.049,0.148,0.305,0.549,0.61,559.008
107290,140533,8739,-0.032,1.047,0.143,0.305,0.549,0.61,559.014
107293,140432,5203,-0.031,1.043,0.146,-0.793,0.61,0.305,559.017
107293,140505,8739,-0.03,1.041,0.14,-0.793,0.61,0.305,559.024
107281,140432,5203,-0.035,1.032,0.135,-1.28,0.671,0,559.027
107281,140504,8762,-0.032,1.031,0.135,-1.28,0.671,0,559.034
107267,140432,5203,-0.027,1.028,0.135,-0.549,0.305,-0.061,559.037
107267,140507,8734,-0.026,1.023,0.131,-0.549,0.305,-0.061,559.043
107272,140432,5203,-0.028,1.025,0.128,-0.122,0.183,0.305,559.047
107272,140524,8744,-0.028,1.032,0.131,-0.122,0.183,0.305,559.053
107272,140432,5203,-0.025,1.03,0.131,0.244,0.244,0.366,559.057
107272,140482,8742,-0.026,1.027,0.136,0.244,0.244,0.366,559.063
107276,140432,5203,-0.026,1.029,0.14,0.732,0.244,0.366,559.067
107276,140486,8749,-0.027,1.034,0.142,0.732,0.244,0.366,559.073
107288,140432,5203,-0.026,1.038,0.146,0.793,0.305,0.793,559.077
107288,140500,8757,-0.024,1.042,0.146,0.793,0.305,0.793,559.083
107302,140432,5203,-0.027,1.044,0.138,0.122,0.366,0.854,559.087
107302,140534,8747,-0.027,1.041,0.138,0.122,0.366,0.854,559.093
107291,140432,5203,-0.028,1.04,0.142,-0.854,0.488,0.427,559.097
107291,140513,8751,-0.027,1.038,0.141,-0.854,0.488,0.427,559.103
107325,140432,5203,-0.029,1.031,0.14,-1.098,0.488,0.305,559.107
107325,140505,8738,-0.029,1.033,0.14,-1.098,0.488,0.305,559.113
107291,140432,5203,-0.026,1.037,0.142,-0.366,0.549,0.427,559.116
107291,140528,8743,-0.027,1.043,0.14,-0.366,0.549,0.427,559.123
107318,140432,5203,-0.028,1.044,0.141,-0.061,0.793,0.549,559.126
107318,140520,8752,-0.03,1.043,0.138,-0.061,0.793,0.549,559.133
107313,140432,5203,-0.029,1.037,0.135,-0.366,0.732,0.366,559.136
107313,140509,8757,-0.029,1.031,0.135,-0.366,0.732,0.366,559.142
107301,140432,5203,-0.031,1.03,0.133,0,0.366,0.122,559.146
107301,140513,8751,-0.028,1.025,0.131,0,0.366,0.122,559.152
107315,140432,5203,-0.03,1.028,0.134,0.793,0.305,0.183,559.156
107315,140513,8748,-0.027,1.035,0.137,0.793,0.305,0.183,559.162
107306,140432,5203,-0.024,1.035,0.136,0.915,0.427,0.427,559.166
107306,140532,8758,-0.029,1.036,0.135,0.915,0.427,0.427,559.172
107307,140432,5203,-0.027,1.036,0.136,-0.122,0.488,0.488,559.176
107307,140517,8739,-0.027,1.035,0.136,-0.122,0.488,0.488,559.182
107291,140432,5203,-0.028,1.036,0.138,-0.854,0.366,0.549,559.186
107291,140534,8754,-0.025,1.037,0.139,-0.854,0.366,0.549,559.192
107288,140432,5203,-0.028,1.033,0.141,-0.732,0.305,0.61,559.196
107288,140497,8741,-0.028,1.031,0.141,-0.732,0.305,0.61,559.202
107290,140432,5203,-0.03,1.036,0.139,-0.244,0.305,0.671,559.206
107290,140524,8744,-0.028,1.044,0.138,-0.244,0.305,0.671,559.212
107281,140432,5203,-0.028,1.047,0.14,0.366,0.244,0.61,559.215
107281,140526,8746,-0.028,1.042,0.136,0.366,0.244,0.61,559.222
107291,140432,5203,-0.031,1.038,0.138,0.305,0.305,0.427,559.225
107291,140521,8760,-0.029,1.039,0.137,0.305,0.305,0.427,559.232
107314,140432,5203,-0.029,1.035,0.135,-0.183,0.244,0.183,559.235
107314,140543,8762,-0.031,1.033,0.131,-0.183,0.244,0.183,559.241
107310,140432,5203,-0.028,1.031,0.133,-0.427,0.061,0.183,559.245
107310,140526,8749,-0.028,1.032,0.131,-0.427,0.061,0.183,559.251
107311,140688,5203,-0.027,1.038,0.132,0,0,0.244,559.255
107311,140546,8761,-0.027,1.034,0.137,0,0,0.244,559.261
107326,140432,5203,-0.028,1.03,0.137,-0.183,0.244,0.183,559.265
107326,140536,8760,-0.024,1.034,0.142,-0.183,0.244,0.183,559.271
107333,140432,5203,-0.027,1.033,0.141,-0.244,0.122,0.244,559.275
107333,140541,8753,-0.025,1.036,0.137,-0.244,0.122,0.244,559.281
107309,140432,5203,-0.025,1.041,0.143,0.244,0.183,0.366,559.285
107309,140524,8763,-0.027,1.043,0.144,0.244,0.183,0.366,559.291
107320,140688,5203,-0.029,1.04,0.141,-0.122,0.305,0.427,559.295
107320,140545,8759,-0.027,1.036,0.143,-0.122,0.305,0.427,559.301
107367,140432,5203,-0.026,1.035,0.143,-0.244,0.183,0.183,559.305
107367,140524,8761,-0.025,1.034,0.142,-0.244,0.183,0.183,559.311
107327,140432,5203,-0.026,1.033,0.142,-0.183,0.366,0.244,559.314
107327,140539,8763,-0.029,1.036,0.139,-0.183,0.366,0.244,559.321
107362,140688,5203,-0.03,1.031,0.14,0.122,0.488,0.366,559.324
107362,140558,8756,-0.032,1.03,0.142,0.122,0.488,0.366,559.331
107346,140688,5203,-0.03,1.035,0.14,0.183,0.61,0.427,559.334
107346,140555,8759,-0.029,1.034,0.135,0.183,0.61,0.427,559.34
107352,140688,5203,-0.028,1.04,0.136,0.061,0.732,0.488,559.344
107352,140548,8760,-0.026,1.042,0.133,0.061,0.732,0.488,559.35
107326,140688,5203,-0.028,1.042,0.137,0.244,0.732,0.488,559.354
107326,140571,8762,-0.03,1.042,0.138,0.244,0.732,0.488,559.36
107343,140688,5203,-0.029,1.036,0.133,-0.366,0.671,0.366,559.364
107343,140559,8765,-0.028,1.03,0.136,-0.366,0.671,0.366,559.37
107343,140688,5203,-0.028,1.018,0.136,-0.549,0.366,0.183,559.374
107343,140554,8761,-0.031,1.019,0.133,-0.549,0.366,0.183,559.38
107337,140688,5203,-0.03,1.027,0.132,-0.305,0.183,0.244,559.384
107337,140555,8755,-0.029,1.038,0.14,-0.305,0.183,0.244,559.39
107353,140688,5203,-0.028,1.035,0.142,0.488,0.183,0.366,559.394
107353,140573,8750,-0.026,1.036,0.138,0.488,0.183,0.366,559.4
107348,140688,5203,-0.034,1.039,0.136,1.037,0.183,0.305,559.404
107348,140544,8758,-0.034,1.043,0.132,1.037,0.183,0.305,559.41
107354,140432,5203,-0.034,1.043,0.132,1.037,0.183,0.305,559.413
107354,140541,8752,-0.028,1.038,0.134,-0.305,0,0.305,559.42
107355,140432,5203,-0.028,1.038,0.134,-0.305,0,0.305,559.423
107355,140534,8756,-0.031,1.036,0.128,-1.098,0,0.061,559.43
107353,140688,5203,-0.031,1.036,0.128,-1.098,0,0.061,559.433
107353,140555,8770,-0.032,1.029,0.127,-0.61,0.122,0.366,559.439
107351,140688,5203,-0.032,1.029,0.127,-0.61,0.122,0.366,559.443
107351,140553,8765,-0.023,1.048,0.134,0.488,0.122,0.488,559.449
107335,140688,5203,-0.023,1.048,0.134,0.488,0.122,0.488,559.453
107335,140557,8753,-0.026,1.049,0.142,0.793,0.366,0.61,559.459
107350,140688,5203,-0.026,1.049,0.142,0.793,0.366,0.61,559.463
107350,140564,8777,-0.03,1.045,0.139,0.488,0.488,0.366,559.469
107361,140688,5203,-0.03,1.045,0.139,0.488,0.488,0.366,559.473
107361,140555,8758,-0.031,1.029,0.133,-0.915,0.488,0.061,559.479
107358,140688,5203,-0.031,1.029,0.133,-0.915,0.488,0.061,559.483
107358,140557,8756,-0.025,1.018,0.124,-1.22,0.183,-0.183,559.489
107350,140688,5203,-0.025,1.018,0.124,-1.22,0.183,-0.183,559.493
107350,140561,8771,-0.027,1.025,0.136,-0.305,0.061,-0.061,559.499
107377,140688,5203,-0.027,1.025,0.136,-0.305,0.061,-0.061,559.503
107377,140567,8761,-0.031,1.03,0.148,0.549,0.183,0.305,559.509
107375,140688,5203,-0.031,1.03,0.148,0.549,0.183,0.305,559.512
107375,140560,8784,-0.027,1.041,0.152,0.976,0.183,0.793,559.519
107394,140688,5203,-0.027,1.041,0.152,0.976,0.183,0.793,559.522
107394,140573,8772,-0.029,1.042,0.151,0.305,0.122,0.915,559.528
107391,140688,5203,-0.029,1.042,0.151,0.305,0.122,0.915,559.532
107391,140588,8787,-0.03,1.037,0.136,-0.549,0.122,0.244,559.538
107395,140688,5203,-0.03,1.037,0.136,-0.549,0.122,0.244,559.542
107395,140598,8777,-0.029,1.031,0.132,-1.22,0.061,0.183,559.548
107402,140688,5203,-0.027,1.023,0.139,-1.22,0.061,0.183,559.552
107402,140577,8771,-0.03,1.028,0.141,-0.854,0.183,0.305,559.558
107393,140688,5203,-0.028,1.03,0.138,-0.854,0.183,0.305,559.562
107393,140593,8760,-0.032,1.033,0.137,-0.122,0.427,0.549,559.568
107378,140688,5203,-0.028,1.036,0.134,-0.122,0.427,0.549,559.572
107378,140586,8774,-0.028,1.042,0.133,0.183,0.366,0.671,559.578
107405,140688,5203,-0.026,1.046,0.133,0.183,0.366,0.671,559.582
107405,140576,8749,-0.025,1.044,0.137,-0.244,0.488,0.549,559.588
107401,140688,5203,-0.027,1.04,0.137,-0.244,0.488,0.549,559.592
107401,140592,8764,-0.027,1.04,0.136,-0.549,0.549,0.122,559.598
107393,140688,5203,-0.024,1.037,0.136,-0.549,0.549,0.122,559.601
107393,140600,8773,-0.027,1.04,0.137,-0.366,0.549,0.061,559.608
107410,140688,5203,-0.026,1.04,0.134,-0.366,0.549,0.061,559.611
107410,140587,8776,-0.027,1.035,0.138,0.183,0.427,0.305,559.618
107402,140688,5203,-0.028,1.035,0.142,0.183,0.427,0.305,559.621
107402,140581,8755,-0.027,1.033,0.137,-0.061,0.488,0.305,559.627
107393,140688,5203,-0.026,1.031,0.14,-0.061,0.488,0.305,559.631
107393,140612,8771,-0.026,1.031,0.141,0,0.61,0.244,559.637
107391,140688,5203,-0.024,1.032,0.142,0,0.61,0.244,559.641
107391,140605,8775,-0.028,1.036,0.142,0.183,0.732,0.427,559.647
107394,140688,5203,-0.028,1.03,0.139,0.183,0.732,0.427,559.651
107394,140586,8760,-0.025,1.027,0.14,-0.183,0.61,0.427,559.657
107384,140688,5203,-0.03,1.031,0.138,-0.183,0.61,0.427,559.661
107384,140590,8773,-0.029,1.036,0.133,-0.427,0.671,0.732,559.667
107365,140688,5203,-0.029,1.035,0.13,-0.427,0.671,0.732,559.671
107365,140582,8774,-0.029,1.035,0.136,-0.549,0.671,0.793,559.677
107381,140688,5203,-0.029,1.041,0.14,-0.549,0.671,0.793,559.681
107381,140559,8754,-0.032,1.044,0.135,-0.671,0.549,0.549,559.687
107361,140688,5203,-0.033,1.037,0.132,-0.671,0.549,0.549,559.691
107361,140605,8762,-0.034,1.033,0.134,-0.549,0.366,0.366,559.697
107384,140688,5203,-0.031,1.038,0.131,-0.549,0.366,0.366,559.7
107384,140565,8773,-0.029,1.034,0.135,-0.61,0.122,0.244,559.707
107408,140688,5203,-0.026,1.031,0.14,-0.61,0.122,0.244,559.71
107408,140600,8761,-0.031,1.029,0.139,0.244,0.061,0.183,559.716
107390,140688,5203,-0.034,1.027,0.141,0.244,0.061,0.183,559.72
107390,140595,8775,-0.032,1.029,0.143,0.854,0.183,0.488,559.726
107390,140688,5203,-0.029,1.033,0.14,0.854,0.183,0.488,559.73
107390,140574,8763,-0.029,1.037,0.142,0.732,0.244,0.671,559.736
107383,140688,5203,-0.03,1.038,0.137,0.732,0.244,0.671,559.74
107383,140565,8772,-0.029,1.036,0.135,0.061,0.366,0.549,559.746
107380,140688,5203,-0.032,1.034,0.142,0.061,0.366,0.549,559.75
107380,140562,8770,-0.029,1.031,0.139,-0.671,0.244,0.366,559.756
107383,140688,5203,-0.027,1.03,0.139,-0.671,0.244,0.366,559.76
107383,140577,8759,-0.029,1.035,0.137,-0.427,0.122,0.549,559.766
107394,140688,5203,-0.028,1.042,0.139,-0.427,0.122,0.549,559.77
107394,140611,8776,-0.027,1.041,0.141,0,0.305,0.549,559.776
107401,140688,5203,-0.027,1.041,0.137,0,0.305,0.549,559.78
107401,140589,8783,-0.031,1.044,0.14,-0.488,0.305,0.366,559.786
107367,140688,5203,-0.029,1.036,0.141,-0.488,0.305,0.366,559.79
107367,140576,8780,-0.028,1.037,0.141,-1.098,0.183,0.183,559.796
107356,140688,5203,-0.025,1.039,0.14,-1.098,0.183,0.183,559.799
107356,140555,8767,-0.026,1.037,0.141,-1.159,0.427,0.244,559.806
107369,140688,5203,-0.025,1.03,0.141,-1.159,0.427,0.244,559.809
107369,140564,8759,-0.025,1.023,0.134,-0.122,0.427,0.244,559.815
107377,140688,5203,-0.024,1.026,0.132,-0.122,0.427,0.244,559.819
107377,140562,8760,-0.023,1.033,0.137,0.122,0.366,0.305,559.825
107379,140688,5203,-0.026,1.032,0.139,0.122,0.366,0.305,559.829
107379,140578,8772,-0.025,1.035,0.14,0.488,0.427,0.427,559.835
107374,140688,5203,-0.024,1.034,0.137,0.488,0.427,0.427,559.839
107374,140569,8766,-0.024,1.039,0.141,0.488,0.427,0.793,559.845
107380,140688,5203,-0.028,1.044,0.143,0.488,0.427,0.793,559.849
107380,140579,8769,-0.028,1.046,0.141,0.122,0.488,0.671,559.855
107379,140688,5203,-0.033,1.046,0.132,0.122,0.488,0.671,559.859
107379,140603,8768,-0.034,1.035,0.13,-0.305,0.549,0.366,559.865
107370,140688,5203,-0.033,1.032,0.127,-0.305,0.549,0.366,559.869
107370,140579,8760,-0.029,1.029,0.126,-0.549,0.122,0.122,559.875
107370,140688,5203,-0.027,1.03,0.127,-0.549,0.122,0.122,559.879
107370,140589,8759,-0.029,1.032,0.134,-0.244,0.183,0.061,559.885
107384,140688,5203,-0.029,1.027,0.14,-0.244,0.183,0.061,559.888
107384,140589,8781,-0.03,1.032,0.146,0.732,0.549,0.244,559.895
107389,140688,5203,-0.03,1.037,0.15,0.732,0.549,0.244,559.898
107389,140592,8780,-0.029,1.047,0.148,1.159,0.793,0.671,559.905
107390,140688,5203,-0.027,1.055,0.145,1.159,0.793,0.671,559.908
107390,140584,8752,-0.027,1.051,0.14,0.122,0.793,0.488,559.914
107392,140688,5203,-0.028,1.043,0.134,0.122,0.793,0.488,559.918
107392,140584,8788,-0.029,1.031,0.129,-0.976,0.427,-0.183,559.924
107388,140688,5203,-0.028,1.018,0.121,-0.976,0.427,-0.183,559.928
107388,140599,8758,-0.025,1.018,0.121,-0.732,0.061,-0.122,559.934
107419,140688,5203,-0.022,1.02,0.124,-0.732,0.061,-0.122,559.938
107419,140600,8768,-0.026,1.028,0.131,0.427,0.061,0.244,559.944
107411,140688,5203,-0.027,1.035,0.134,0.427,0.061,0.244,559.948
107411,140611,8785,-0.029,1.035,0.143,0.671,0.366,0.549,559.954
107412,140688,5203,-0.028,1.036,0.15,0.671,0.366,0.549,559.958
107412,140589,8777,-0.029,1.036,0.156,-0.305,0.366,0.854,559.964
107408,140688,5203,-0.032,1.036,0.156,-0.305,0.366,0.854,559.968
107408,140578,8775,-0.031,1.041,0.155,-0.854,0.732,0.915,559.974
107408,140688,5203,-0.028,1.051,0.148,-0.854,0.732,0.915,559.978
107408,140580,8785,-0.028,1.054,0.142,-0.793,0.793,0.732,559.984
107420,140688,5203,-0.028,1.054,0.142,-0.793,0.793,0.732,559.987
107420,140589,8774,-0.027,1.046,0.129,-1.159,0.854,0.305,559.994
107393,140688,5203,-0.027,1.046,0.129,-1.159,0.854,0.305,559.997
107393,140593,8774,-0.031,1.028,0.118,-1.402,0.61,-0.061,560.004
107407,140688,5203,-0.031,1.028,0.118,-1.402,0.61,-0.061,560.007
107407,140599,8762,-0.026,1.028,0.128,-0.671,0.366,-0.061,560.013
107414,140688,5203,-0.026,1.028,0.128,-0.671,0.366,-0.061,560.017
107414,140584,8769,-0.027,1.032,0.14,0.671,0.427,0.427,560.023
107407,140688,5203,-0.027,1.032,0.14,0.671,0.427,0.427,560.027
107407,140595,8786,-0.029,1.041,0.141,0.915,0.366,0.671,560.033
107423,140688,5203,-0.029,1.041,0.141,0.915,0.366,0.671,560.037
107423,140600,8776,-0.027,1.039,0.145,0,0.305,0.549,560.043
107427,140688,5203,-0.027,1.039,0.145,0,0.305,0.549,560.047
107427,140612,8768,-0.023,1.034,0.141,-0.854,0.305,0.305,560.053
107430,140688,5203,-0.023,1.034,0.141,-0.854,0.305,0.305,560.057
107430,140628,8777,-0.026,1.033,0.135,-0.671,0.366,0.244,560.063
107446,140688,5203,-0.026,1.033,0.135,-0.671,0.366,0.244,560.067
107446,140622,8781,-0.028,1.034,0.131,-0.488,0.366,0.305,560.073
107441,140688,5203,-0.028,1.034,0.131,-0.488,0.366,0.305,560.077
107441,140590,8783,-0.028,1.031,0.141,-0.427,0.366,0.366,560.083
107427,140688,5203,-0.028,1.031,0.141,-0.427,0.366,0.366,560.086
107427,140612,8764,-0.036,1.03,0.144,-0.122,0.488,0.427,560.093
107435,140688,5203,-0.036,1.03,0.144,-0.122,0.488,0.427,560.096
107435,140604,8771,-0.036,1.035,0.145,-0.122,0.427,0.427,560.103
107423,140688,5203,-0.036,1.035,0.145,-0.122,0.427,0.427,560.106
107423,140631,8768,-0.034,1.031,0.137,-0.122,0.244,0.366,560.112
107410,140688,5203,-0.034,1.031,0.137,-0.122,0.244,0.366,560.116
107410,140593,8767,-0.03,1.036,0.131,0.061,0.244,0.366,560.122
107398,140688,5203,-0.03,1.036,0.131,0.061,0.244,0.366,560.126
107398,140595,8769,-0.031,1.036,0.133,0.061,0.244,0.366,560.132
107406,140688,5203,-0.033,1.04,0.134,0.122,0.366,0.305,560.136
107406,140601,8776,-0.033,1.039,0.132,0.122,0.366,0.305,560.142
107428,140688,5203,-0.027,1.036,0.136,0.305,0.183,0.305,560.146
107428,140603,8766,-0.025,1.038,0.138,0.305,0.183,0.305,560.152
107414,140688,5203,-0.026,1.043,0.14,0.488,0.244,0.427,560.156
107414,140627,8774,-0.025,1.044,0.142,0.488,0.244,0.427,560.162
107432,140688,5203,-0.026,1.043,0.146,0.366,0.488,0.366,560.166
107432,140603,8802,-0.024,1.043,0.144,0.366,0.488,0.366,560.172
107417,140688,5203,-0.026,1.038,0.142,-0.122,0.61,0.305,560.176
107417,140610,8781,-0.025,1.032,0.138,-0.122,0.61,0.305,560.182
107416,140688,5203,-0.024,1.033,0.138,-0.488,0.61,0.305,560.185
107416,140593,8789,-0.024,1.031,0.136,-0.488,0.61,0.305,560.192
107418,140688,5203,-0.025,1.031,0.133,-0.549,0.61,0.427,560.195
107418,140606,8773,-0.026,1.032,0.13,-0.549,0.61,0.427,560.202
107475,140688,5203,-0.025,1.032,0.131,-0.244,0.549,0.61,560.205
107475,140626,8778,-0.029,1.034,0.126,-0.244,0.549,0.61,560.211
107468,140688,5203,-0.029,1.033,0.134,0,0.366,0.671,560.215
107468,140640,8783,-0.028,1.038,0.137,0,0.366,0.671,560.221
107458,140688,5203,-0.027,1.044,0.138,0.122,0.122,0.488,560.225
107458,140625,8783,-0.027,1.041,0.134,0.122,0.122,0.488,560.231
107457,140688,5203,-0.029,1.035,0.139,0.244,0.122,0.488,560.235
107457,140625,8788,-0.032,1.037,0.141,0.244,0.122,0.488,560.241
107427,140688,5203,-0.034,1.036,0.143,0,0.183,0.427,560.245
107427,140593,8768,-0.035,1.033,0.14,0,0.183,0.427,560.251
107431,140688,5203,-0.03,1.031,0.141,-0.122,0.061,0.366,560.255
107431,140612,8770,-0.029,1.033,0.136,-0.122,0.061,0.366,560.261
107420,140688,5203,-0.031,1.035,0.138,0,0.183,0.366,560.265
107420,140609,8777,-0.03,1.037,0.14,0,0.183,0.366,560.271
107409,140688,5203,-0.034,1.037,0.137,-0.061,0.183,0.366,560.275
107409,140611,8771,-0.03,1.039,0.138,-0.061,0.183,0.366,560.281
107449,140688,5203,-0.032,1.037,0.14,-0.671,0.183,0.183,560.284
107449,140632,8782,-0.032,1.036,0.136,-0.671,0.183,0.183,560.291
107455,140688,5203,-0.027,1.031,0.13,-1.341,0,0.122,560.294
107455,140634,8784,-0.023,1.028,0.132,-1.341,0,0.122,560.301
107428,140688,5203,-0.02,1.033,0.131,-1.402,-0.183,0.244,560.304
107428,140607,8777,-0.019,1.034,0.132,-1.402,-0.183,0.244,560.31
107428,140688,5203,-0.021,1.037,0.141,-0.671,0,0.427,560.314
107428,140613,8781,-0.024,1.034,0.147,-0.671,0,0.427,560.32
107423,140688,5203,-0.024,1.043,0.149,0.488,0.366,0.488,560.324
107423,140608,8781,-0.031,1.048,0.148,0.488,0.366,0.488,560.33
107439,140688,5203,-0.029,1.043,0.144,0.122,0.427,0.549,560.334
107439,140634,8787,-0.025,1.038,0.141,0.122,0.427,0.549,560.34
107423,140688,5203,-0.031,1.035,0.132,-0.427,0.366,0.183,560.344
107423,140599,8786,-0.028,1.033,0.131,-0.427,0.366,0.183,560.35
107416,140688,5203,-0.029,1.029,0.126,-0.671,0.244,0.183,560.354
107416,140614,8787,-0.027,1.027,0.129,-0.671,0.244,0.183,560.36
107422,140688,5203,-0.028,1.03,0.137,-0.305,0.427,0.366,560.364
107422,140629,8787,-0.029,1.032,0.136,-0.305,0.427,0.366,560.37
107422,140688,5203,-0.031,1.036,0.14,-0.061,0.549,0.488,560.374
107422,140615,8781,-0.027,1.042,0.14,-0.061,0.549,0.488,560.38
107426,140688,5203,-0.026,1.045,0.138,0.366,0.549,0.671,560.383
107426,140614,8781,-0.022,1.046,0.14,0.366,0.549,0.671,560.39
107446,140688,5203,-0.027,1.043,0.139,0.061,0.427,0.427,560.393
107446,140616,8766,-0.029,1.04,0.135,0.061,0.427,0.427,560.4
107406,140688,5203,-0.029,1.033,0.135,-0.854,0.244,0.122,560.403
107406,140611,8783,-0.026,1.026,0.137,-0.854,0.244,0.122,560.409
107424,140688,5203,-0.025,1.026,0.138,-0.915,0.183,0.244,560.413
107424,140591,8773,-0.026,1.025,0.139,-0.915,0.183,0.244,560.419
107414,140688,5203,-0.027,1.032,0.14,-0.244,0.305,0.488,560.423
107414,140630,8789,-0.025,1.04,0.14,-0.244,0.305,0.488,560.429
107407,140688,5203,-0.026,1.042,0.142,0.183,0.427,0.671,560.433
107407,140584,8777,-0.028,1.039,0.141,0.183,0.427,0.671,560.439
107400,140688,5203,-0.026,1.036,0.138,0.305,0.305,0.488,560.443
107400,140590,8767,-0.03,1.036,0.139,0.305,0.305,0.488,560.449
107380,140688,5203,-0.031,1.035,0.138,-0.061,0.122,0.366,560.453
107380,140573,8772,-0.031,1.032,0.139,-0.061,0.122,0.366,560.459
107367,140688,5203,-0.032,1.03,0.137,-0.488,0.305,0.305,560.463
107367,140584,8776,-0.033,1.03,0.138,-0.488,0.305,0.305,560.469
107374,140688,5203,-0.033,1.035,0.138,-0.549,0.366,0.488,560.473
107374,140571,8783,-0.031,1.036,0.141,-0.549,0.366,0.488,560.479
107370,140688,5203,-0.03,1.038,0.137,-0.122,0.305,0.549,560.482
107370,140550,8774,-0.028,1.042,0.138,-0.122,0.305,0.549,560.489
107363,140688,5203,-0.029,1.04,0.142,-0.122,0.244,0.366,560.492
107363,140574,8759,-0.027,1.036,0.141,-0.122,0.244,0.366,560.498
107360,140688,5203,-0.027,1.035,0.138,-0.305,0.244,0.183,560.502
107360,140548,8752,-0.029,1.032,0.138,-0.305,0.244,0.183,560.508
107362,140688,5203,-0.027,1.027,0.14,-0.427,0.244,0.305,560.512
107362,140551,8779,-0.025,1.028,0.144,-0.427,0.244,0.305,560.518
107356,140688,5203,-0.028,1.031,0.142,0,0.305,0.366,560.522
107356,140565,8777,-0.031,1.031,0.145,0,0.305,0.366,560.528
107369,140688,5203,-0.028,1.031,0.141,0.122,0.427,0.549,560.532
107369,140565,8775,-0.029,1.033,0.138,0.122,0.427,0.549,560.538
107365,140688,5203,-0.025,1.035,0.141,-0.061,0.305,0.488,560.542
107365,140562,8777,-0.024,1.036,0.142,-0.061,0.305,0.488,560.548
107358,140688,5203,-0.029,1.033,0.137,-0.061,0.305,0.549,560.552
107358,140550,8764,-0.027,1.034,0.133,-0.061,0.305,0.549,560.558
107345,140688,5203,-0.027,1.034,0.133,-0.061,0.305,0.549,560.562
107345,140562,8764,-0.027,1.043,0.132,-0.061,0.305,0.671,560.568
107359,140688,5203,-0.027,1.043,0.132,-0.061,0.305,0.671,560.572
107359,140548,8774,-0.024,1.044,0.133,0.061,0.305,0.549,560.578
107372,140688,5203,-0.024,1.044,0.133,0.061,0.305,0.549,560.581
107372,140552,8764,-0.027,1.042,0.134,-0.305,0.244,0.305,560.588
107357,140688,5203,-0.027,1.042,0.134,-0.305,0.244,0.305,560.591
107357,140564,8762,-0.024,1.038,0.137,-0.488,0.183,0.183,560.597
107341,140688,5203,-0.024,1.038,0.137,-0.488,0.183,0.183,560.601
107341,140574,8787,-0.026,1.034,0.142,-0.488,0.183,0.122,560.607
107358,140688,5203,-0.026,1.034,0.142,-0.488,0.183,0.122,560.611
107358,140554,8766,-0.024,1.035,0.141,-0.488,0.305,0.183,560.617
107362,140688,5203,-0.024,1.035,0.141,-0.488,0.305,0.183,560.621
107362,140586,8779,-0.028,1.029,0.145,-0.183,0.427,0.244,560.627
107377,140688,5203,-0.028,1.029,0.145,-0.183,0.427,0.244,560.631
107377,140564,8766,-0.025,1.027,0.138,0.183,0.427,0.305,560.637
107392,140688,5203,-0.025,1.027,0.138,0.183,0.427,0.305,560.641
107392,140573,8780,-0.027,1.036,0.137,0.305,0.427,0.488,560.647
107384,140688,5203,-0.027,1.036,0.137,0.305,0.427,0.488,560.651
107384,140580,8775,-0.027,1.037,0.137,0.427,0.549,0.671,560.657
107376,140688,5203,-0.027,1.037,0.137,0.427,0.549,0.671,560.661
107376,140575,8778,-0.03,1.034,0.138,0,0.61,0.427,560.667
107387,140688,5203,-0.03,1.034,0.138,0,0.61,0.427,560.67
107387,140575,8778,-0.027,1.035,0.14,-0.366,0.549,0.366,560.677
107369,140688,5203,-0.027,1.035,0.14,-0.366,0.549,0.366,560.68
107369,140574,8775,-0.03,1.042,0.141,-0.244,0.549,0.488,560.687
107376,140688,5203,-0.03,1.042,0.141,-0.244,0.549,0.488,560.69
107376,140555,8770,-0.029,1.037,0.134,-0.366,0.61,0.305,560.696
107377,140688,5203,-0.029,1.037,0.134,-0.366,0.61,0.305,560.7
107377,140560,8762,-0.027,1.037,0.135,-0.793,0.427,0.183,560.706
107351,140688,5203,-0.029,1.033,0.134,-0.793,0.427,0.183,560.71
107351,140563,8765,-0.028,1.031,0.131,-0.732,0.244,0.122,560.716
107356,140688,5203,-0.027,1.027,0.133,-0.732,0.244,0.122,560.72
107356,140548,8764,-0.026,1.028,0.138,-0.061,0.305,0.183,560.726
107352,140688,5203,-0.028,1.036,0.135,-0.061,0.305,0.183,560.73
107352,140576,8779,-0.029,1.033,0.135,-0.061,0.305,0.305,560.736
107351,140688,5203,-0.029,1.032,0.14,-0.061,0.305,0.305,560.74
107351,140559,8779,-0.029,1.036,0.142,0.122,0.366,0.427,560.746
107361,140688,5203,-0.029,1.038,0.14,0.122,0.366,0.427,560.75
107361,140565,8775,-0.032,1.037,0.142,-0.183,0.366,0.61,560.756
107370,140688,5203,-0.032,1.032,0.142,-0.183,0.366,0.61,560.76
107370,140550,8782,-0.028,1.035,0.142,-0.305,0.427,0.427,560.766
107385,140688,5203,-0.025,1.039,0.134,-0.305,0.427,0.427,560.769
107385,140578,8769,-0.024,1.04,0.134,-0.305,0.427,0.549,560.776
107385,140688,5203,-0.025,1.042,0.138,-0.305,0.427,0.549,560.779
107385,140586,8774,-0.026,1.049,0.137,0.244,0.488,0.427,560.786
107398,140688,5203,-0.032,1.044,0.14,0.244,0.488,0.427,560.789
107398,140594,8776,-0.031,1.038,0.134,-0.305,0.549,0.244,560.795
107383,140688,5203,-0.029,1.026,0.128,-0.305,0.549,0.244,560.799
107383,140609,8774,-0.025,1.018,0.13,-0.854,0.244,0.122,560.805
107404,140688,5203,-0.029,1.023,0.131,-0.854,0.244,0.122,560.809
107404,140585,8782,-0.025,1.029,0.138,-0.366,0.122,0.244,560.815
107372,140688,5203,-0.024,1.031,0.143,-0.366,0.122,0.244,560.819
107372,140604,8785,-0.029,1.029,0.146,1.22,0.244,0.427,560.825
107416,140688,5203,-0.032,1.035,0.15,1.22,0.244,0.427,560.829
107416,140588,8781,-0.031,1.045,0.149,1.341,0.061,0.549,560.835
107393,140688,5203,-0.031,1.048,0.146,1.341,0.061,0.549,560.839
107393,140600,8784,-0.027,1.043,0.142,-0.183,0,0.366,560.845
107410,140688,5203,-0.028,1.041,0.136,-0.183,0,0.366,560.849
107410,140613,8788,-0.028,1.035,0.132,-1.159,-0.061,0.244,560.855
107397,140688,5203,-0.024,1.028,0.13,-1.159,-0.061,0.244,560.859
107397,140602,8778,-0.026,1.026,0.127,-1.159,0,0.244,560.865
107400,140688,5203,-0.028,1.026,0.133,-1.159,0,0.244,560.868
107400,140590,8783,-0.025,1.031,0.144,-0.305,0.427,0.427,560.875
107383,140688,5203,-0.026,1.039,0.149,-0.305,0.427,0.427,560.878
107383,140601,8768,-0.026,1.04,0.151,0.183,0.732,0.671,560.885
107393,140688,5203,-0.028,1.043,0.15,0.183,0.732,0.671,560.888
107393,140596,8778,-0.023,1.048,0.147,0.122,0.915,0.671,560.894
107384,140688,5203,-0.024,1.049,0.144,0.122,0.915,0.671,560.898
107384,140591,8768,-0.027,1.046,0.139,-0.488,0.976,0.305,560.904
107375,140688,5203,-0.026,1.038,0.13,-0.488,0.976,0.305,560.908
107375,140602,8777,-0.026,1.03,0.122,-0.915,0.671,0.061,560.914
107393,140688,5203,-0.024,1.024,0.12,-0.915,0.671,0.061,560.918
107393,140571,8777,-0.024,1.023,0.126,-0.61,0.549,0.183,560.924
107376,140688,5203,-0.022,1.024,0.13,-0.61,0.549,0.183,560.928
107376,140598,8776,-0.024,1.027,0.138,1.098,0.793,0.61,560.934
107383,140688,5203,-0.03,1.034,0.14,1.098,0.793,0.61,560.938
107383,140578,8776,-0.033,1.042,0.142,1.463,0.854,1.037,560.944
107365,140688,5203,-0.033,1.047,0.143,1.463,0.854,1.037,560.948
107365,140576,8787,-0.034,1.049,0.142,0.244,0.549,0.854,560.954
107370,140688,5203,-0.035,1.046,0.138,0.244,0.549,0.854,560.958
107370,140558,8784,-0.03,1.043,0.138,-0.854,0.244,0.488,560.964
107367,140688,5203,-0.03,1.039,0.133,-0.854,0.244,0.488,560.967
107367,140581,8766,-0.028,1.029,0.129,-1.28,-0.061,0,560.974
107352,140688,5203,-0.027,1.028,0.129,-1.28,-0.061,0,560.977
107352,140559,8764,-0.031,1.032,0.132,-1.037,-0.061,0.061,560.984
107359,140688,5203,-0.031,1.031,0.131,-1.037,-0.061,0.061,560.987
107359,140575,8780,-0.027,1.036,0.136,-0.427,-0.122,0.305,560.993
107353,140688,5203,-0.023,1.035,0.138,-0.427,-0.122,0.305,560.997
107353,140576,8770,-0.022,1.027,0.142,-0.366,-0.244,0.244,561.003
107355,140688,5203,-0.022,1.023,0.141,-0.366,-0.244,0.244,561.007
107355,140583,8775,-0.024,1.027,0.141,-0.549,-0.244,0.366,561.013
107361,140688,5203,-0.023,1.031,0.142,-0.549,-0.244,0.366,561.017
107361,140567,8773,-0.022,1.035,0.146,0.061,-0.061,0.671,561.023
107356,140688,5203,-0.021,1.037,0.146,0.061,-0.061,0.671,561.027
107356,140579,8762,-0.025,1.042,0.14,0.061,0.183,0.732,561.033
107335,140688,5203,-0.024,1.04,0.145,0.061,0.183,0.732,561.037
107335,140584,8784,-0.027,1.036,0.143,-0.61,0.244,0.61,561.043
107353,140688,5203,-0.026,1.037,0.146,-0.61,0.244,0.61,561.047
107353,140565,8772,-0.025,1.036,0.14,-0.793,0.305,0.488,561.053
107347,140688,5203,-0.028,1.037,0.141,-0.793,0.305,0.488,561.057
107347,140585,8772,-0.029,1.036,0.146,-0.671,0.427,0.488,561.063
107354,140688,5203,-0.026,1.042,0.147,-0.671,0.427,0.488,561.066
107354,140551,8781,-0.027,1.045,0.144,-0.244,0.549,0.549,561.073
107384,140688,5203,-0.027,1.044,0.142,-0.244,0.549,0.549,561.076
107384,140574,8774,-0.026,1.04,0.14,-0.061,0.549,0.366,561.083
107374,140688,5203,-0.026,1.039,0.141,-0.061,0.549,0.366,561.086
107374,140610,8769,-0.024,1.04,0.141,0.061,0.732,0.183,561.092
107381,140688,5203,-0.028,1.038,0.134,0.061,0.732,0.183,561.096
107381,140592,8769,-0.025,1.036,0.136,0.244,0.732,0.183,561.102
107360,140688,5203,-0.023,1.033,0.141,0.244,0.732,0.183,561.106
107360,140569,8771,-0.025,1.031,0.139,-0.183,0.732,0.061,561.112
107377,140688,5203,-0.027,1.028,0.138,-0.183,0.732,0.061,561.116
107377,140578,8769,-0.026,1.026,0.137,-0.488,0.732,0.244,561.122
107373,140688,5203,-0.029,1.026,0.133,-0.488,0.732,0.244,561.126
107373,140600,8767,-0.031,1.027,0.133,-0.549,0.732,0.305,561.132
107394,140688,5203,-0.031,1.03,0.138,-0.549,0.732,0.305,561.136
107394,140604,8788,-0.032,1.029,0.141,-0.732,0.732,0.488,561.142
107394,140688,5203,-0.032,1.029,0.141,-0.732,0.732,0.488,561.146
107394,140611,8771,-0.032,1.036,0.143,-0.915,0.61,0.549,561.152
107382,140688,5203,-0.032,1.036,0.143,-0.915,0.61,0.549,561.156
107382,140582,8770,-0.036,1.037,0.137,-1.037,0.61,0.61,561.162
107358,140688,5203,-0.036,1.037,0.137,-1.037,0.61,0.61,561.165
107358,140593,8795,-0.038,1.042,0.128,-0.549,0.244,0.793,561.172
107341,140688,5203,-0.038,1.042,0.128,-0.549,0.244,0.793,561.175
107341,140560,8770,-0.034,1.041,0.126,-0.061,0,0.427,561.182
107339,140688,5203,-0.034,1.041,0.126,-0.061,0,0.427,561.185
107339,140566,8766,-0.034,1.036,0.132,-0.061,-0.122,0,561.191
107366,140688,5203,-0.034,1.036,0.132,-0.061,-0.122,0,561.195
107366,140564,8768,-0.032,1.034,0.14,0.061,-0.183,-0.061,561.201
107345,140688,5203,-0.032,1.034,0.14,0.061,-0.183,-0.061,561.205
107345,140553,8767,-0.03,1.028,0.14,-0.244,-0.305,0.122,561.211
107348,140688,5203,-0.03,1.028,0.14,-0.244,-0.305,0.122,561.215
107348,140556,8774,-0.024,1.029,0.139,-0.061,-0.488,0.244,561.221
107344,140688,5203,-0.024,1.029,0.139,-0.061,-0.488,0.244,561.225
107344,140575,8768,-0.024,1.032,0.142,-0.549,-0.366,0.183,561.231
107347,140688,5203,-0.024,1.032,0.142,-0.549,-0.366,0.183,561.235
107347,140563,8782,-0.021,1.018,0.144,-0.488,-0.488,0.366,561.241
107356,140688,5203,-0.021,1.018,0.144,-0.488,-0.488,0.366,561.245
107356,140555,8771,-0.022,1.038,0.14,-0.244,-0.305,0.854,561.251
107353,140688,5203,-0.022,1.038,0.14,-0.244,-0.305,0.854,561.255
107353,140549,8767,-0.024,1.041,0.139,-0.061,-0.183,0.793,561.261
107369,140688,5203,-0.024,1.041,0.139,-0.061,-0.183,0.793,561.264
107369,140588,8780,-0.028,1.034,0.141,-0.244,-0.366,0.732,561.271
107365,140688,5203,-0.028,1.034,0.141,-0.244,-0.366,0.732,561.274
107365,140581,8776,-0.021,1.043,0.144,0.122,-0.244,0.61,561.281
107378,140688,5203,-0.021,1.043,0.144,0.122,-0.244,0.61,561.284
107378,140584,8767,-0.022,1.046,0.146,0.122,-0.244,0.61,561.29
107377,140688,5203,-0.024,1.05,0.143,0.183,0.122,0.427,561.294
107377,140577,8777,-0.024,1.045,0.145,0.183,0.122,0.427,561.3
107386,140688,5203,-0.025,1.038,0.148,0.244,0.366,0.305,561.304
107386,140575,8788,-0.025,1.037,0.147,0.244,0.366,0.305,561.31
107382,140688,5203,-0.023,1.033,0.146,-0.183,0.427,0.305,561.314
107382,140593,8774,-0.024,1.032,0.146,-0.183,0.427,0.305,561.32
107421,140688,5203,-0.023,1.032,0.149,-0.122,0.671,0.305,561.324
107421,140607,8781,-0.025,1.033,0.143,-0.122,0.671,0.305,561.33
107408,140688,5203,-0.027,1.031,0.142,0,0.915,0.366,561.334
107408,140618,8788,-0.025,1.03,0.141,0,0.915,0.366,561.34
107405,140688,5203,-0.023,1.033,0.138,-0.122,0.915,0.366,561.344
107405,140597,8788,-0.023,1.034,0.137,-0.122,0.915,0.366,561.35
107421,140688,5203,-0.027,1.032,0.141,0.061,0.976,0.305,561.354
107421,140618,8769,-0.029,1.032,0.141,0.061,0.976,0.305,561.36
107430,140688,5203,-0.029,1.039,0.139,0.183,0.976,0.427,561.363
107430,140621,8792,-0.03,1.038,0.131,0.183,0.976,0.427,561.37
107434,140688,5203,-0.032,1.037,0.134,-0.183,1.037,0.427,561.373
107434,140606,8780,-0.03,1.035,0.135,-0.183,1.037,0.427,561.38
107439,140688,5203,-0.027,1.035,0.132,-0.244,1.037,0.244,561.383
107439,140619,8786,-0.03,1.036,0.134,-0.244,1.037,0.244,561.389
107441,140688,5203,-0.033,1.034,0.135,-0.549,0.976,0.183,561.393
107441,140634,8782,-0.032,1.033,0.136,-0.549,0.976,0.183,561.399
107432,140688,5203,-0.027,1.033,0.137,-0.122,0.61,0.244,561.403
107432,140643,8776,-0.029,1.033,0.137,-0.122,0.61,0.244,561.409
107434,140688,5203,-0.026,1.039,0.139,0.488,0.549,0.366,561.413
107434,140637,8784,-0.029,1.041,0.144,0.488,0.549,0.366,561.419
107408,140688,5203,-0.033,1.032,0.139,-0.122,0.976,0.183,561.423
107408,140642,8786,-0.029,1.024,0.138,-0.122,0.976,0.183,561.429
107413,140688,5203,-0.027,1.021,0.13,-0.976,0.61,0,561.433
107413,140623,8794,-0.027,1.021,0.129,-0.976,0.61,0,561.439
107404,140688,5203,-0.026,1.03,0.133,-0.488,0.305,0.488,561.443
107404,140607,8780,-0.024,1.042,0.14,-0.488,0.305,0.488,561.449
107405,140688,5203,-0.029,1.047,0.141,0.549,0.427,0.671,561.453
107405,140595,8790,-0.031,1.046,0.14,0.549,0.427,0.671,561.459
107398,140688,5203,-0.034,1.04,0.137,-0.122,0.366,0.549,561.462
107398,140619,8784,-0.03,1.036,0.135,-0.122,0.366,0.549,561.469
107411,140688,5203,-0.026,1.04,0.132,-0.732,0.061,0.366,561.472
107411,140604,8782,-0.024,1.043,0.138,-0.732,0.061,0.366,561.479
107397,140688,5203,-0.024,1.041,0.138,-0.183,0.122,0.244,561.482
107397,140600,8751,-0.029,1.037,0.14,-0.183,0.122,0.244,561.488
107394,140688,5203,-0.03,1.036,0.141,0.183,0.122,0.122,561.492
107394,140599,8781,-0.027,1.032,0.135,0.183,0.122,0.122,561.498
107390,140688,5203,-0.028,1.032,0.138,-0.183,0,0.244,561.502
107390,140595,8783,-0.026,1.03,0.136,-0.183,0,0.244,561.508
107374,140688,5203,-0.023,1.033,0.134,-0.244,0,0.305,561.512
107374,140591,8757,-0.025,1.03,0.137,-0.244,0,0.305,561.518
107381,140688,5203,-0.021,1.029,0.142,-0.488,0.122,0.305,561.522
107381,140588,8763,-0.022,1.031,0.148,-0.488,0.122,0.305,561.528
107393,140688,5203,-0.026,1.033,0.144,-0.488,0.244,0.366,561.532
107393,140614,8775,-0.026,1.037,0.149,-0.488,0.244,0.366,561.538
107399,140688,5203,-0.026,1.032,0.151,-0.61,0.305,0.671,561.542
107399,140619,8778,-0.025,1.022,0.151,-0.61,0.305,0.671,561.548
107425,140688,5203,-0.027,1.021,0.148,-0.427,0.488,0.61,561.552
107425,140621,8774,-0.028,1.031,0.145,-0.427,0.488,0.61,561.558
107435,140688,5203,-0.029,1.045,0.143,0.122,0.61,0.671,561.561
107435,140622,8780,-0.029,1.044,0.143,0.122,0.61,0.671,561.568
107438,140688,5203,-0.026,1.043,0.143,0.915,0.61,0.366,561.571
107438,140649,8783,-0.03,1.043,0.146,0.915,0.61,0.366,561.577
107449,140688,5203,-0.033,1.044,0.141,-0.183,0.61,0.183,561.581
107449,140638,8776,-0.031,1.034,0.141,-0.183,0.61,0.183,561.587
107460,140688,5203,-0.03,1.026,0.138,-1.22,0.488,0.061,561.591
107460,140661,8780,-0.027,1.024,0.138,-1.22,0.488,0.061,561.597
107449,140688,5203,-0.029,1.027,0.14,-0.61,0.549,0.305,561.601
107449,140642,8786,-0.027,1.036,0.142,-0.61,0.549,0.305,561.607
107473,140688,5203,-0.028,1.047,0.141,0.488,0.732,0.61,561.611
107473,140661,8787,-0.023,1.05,0.14,0.488,0.732,0.61,561.617
107457,140688,5203,-0.02,1.046,0.14,0.427,0.671,0.305,561.621
107457,140652,8788,-0.024,1.042,0.138,0.427,0.671,0.305,561.627
107473,140688,5203,-0.029,1.034,0.13,-0.61,0.488,0.122,561.631
107473,140646,8790,-0.027,1.022,0.125,-0.61,0.488,0.122,561.637
107458,140688,5203,-0.025,1.023,0.121,-0.732,0.366,0.183,561.641
107458,140661,8787,-0.026,1.03,0.118,-0.732,0.366,0.183,561.647
107447,140688,5203,-0.024,1.034,0.125,0.183,0.427,0.427,561.651
107447,140639,8802,-0.021,1.035,0.134,0.183,0.427,0.427,561.657
107461,140688,5203,-0.023,1.043,0.143,1.402,0.549,0.732,561.66
107461,140640,8779,-0.027,1.047,0.149,1.402,0.549,0.732,561.667
107440,140688,5203,-0.033,1.048,0.147,0.488,0.793,1.037,561.67
107440,140634,8786,-0.033,1.046,0.145,0.488,0.793,1.037,561.676
107446,140688,5203,-0.033,1.041,0.147,-1.22,0.793,0.671,561.68
107446,140646,8772,-0.032,1.038,0.144,-1.22,0.793,0.671,561.686
107435,140688,5203,-0.031,1.031,0.137,-2.256,0.427,0.366,561.69
107435,140644,8784,-0.03,1.027,0.135,-2.256,0.427,0.366,561.696
107432,140688,5203,-0.027,1.024,0.136,-1.768,0.305,0.366,561.7
107432,140626,8790,-0.027,1.027,0.132,-1.768,0.305,0.366,561.706
107440,140688,5203,-0.028,1.031,0.137,-0.732,0.244,0.427,561.71
107440,140617,8792,-0.028,1.032,0.141,-0.732,0.244,0.427,561.716
107421,140688,5203,-0.026,1.035,0.143,-0.244,0.244,0.549,561.72
107421,140608,8784,-0.025,1.038,0.145,-0.244,0.244,0.549,561.726
107425,140688,5203,-0.025,1.038,0.145,-0.244,0.244,0.549,561.73
107425,140606,8776,-0.023,1.041,0.148,-0.915,0.366,0.61,561.736
107413,140688,5203,-0.023,1.041,0.148,-0.915,0.366,0.61,561.74
107413,140609,8794,-0.023,1.038,0.14,-1.707,0.305,0.427,561.746
107401,140688,5203,-0.023,1.038,0.14,-1.707,0.305,0.427,561.749
107401,140631,8779,-0.025,1.04,0.134,-1.707,0.366,0,561.756
107443,140688,5203,-0.025,1.04,0.134,-1.707,0.366,0,561.759
107443,140610,8773,-0.023,1.026,0.138,-2.195,0.305,-0.061,561.766
107442,140688,5203,-0.023,1.026,0.138,-2.195,0.305,-0.061,561.769
107442,140643,8790,-0.027,1.029,0.135,-0.671,0.183,0,561.775
107460,140688,5203,-0.027,1.029,0.135,-0.671,0.183,0,561.779
107460,140660,8782,-0.027,1.044,0.144,0.061,0.244,0.244,561.785
107470,140688,5203,-0.027,1.044,0.144,0.061,0.244,0.244,561.789
107470,140663,8777,-0.027,1.04,0.143,0.366,0.488,0.427,561.795
107495,140688,5203,-0.027,1.04,0.143,0.366,0.488,0.427,561.799
107495,140676,8792,-0.033,1.036,0.147,-0.305,0.488,0.305,561.805
107494,140688,5203,-0.033,1.036,0.147,-0.305,0.488,0.305,561.809
107494,140675,8807,-0.03,1.028,0.138,-1.402,0.549,0.061,561.815
107522,140688,5203,-0.03,1.028,0.138,-1.402,0.549,0.061,561.819
107522,140681,8787,-0.028,1.036,0.136,-1.098,0.671,0.183,561.825
107503,140688,5203,-0.028,1.036,0.136,-1.098,0.671,0.183,561.829
107503,140689,8799,-0.03,1.037,0.136,-0.244,0.732,0.305,561.835
107486,140688,5203,-0.03,1.037,0.136,-0.244,0.732,0.305,561.839
107486,140665,8799,-0.031,1.024,0.133,-0.366,0.427,0.183,561.845
107503,140688,5203,-0.031,1.024,0.133,-0.366,0.427,0.183,561.848
107503,140682,8787,-0.029,1.021,0.138,-1.037,0.122,0.122,561.855
107488,140688,5203,-0.029,1.021,0.138,-1.037,0.122,0.122,561.858
107488,140683,8805,-0.029,1.025,0.14,-0.854,0.183,0.305,561.865
107516,140688,5203,-0.023,1.03,0.145,-0.854,0.183,0.305,561.868
107516,140699,8785,-0.026,1.038,0.148,0,0,0.61,561.874
107514,140688,5203,-0.025,1.041,0.146,0,0,0.61,561.878
107514,140691,8805,-0.027,1.042,0.147,0.061,0,0.549,561.884
107515,140688,5203,-0.03,1.043,0.146,0.061,0,0.549,561.888
107515,140684,8798,-0.027,1.041,0.138,-1.22,-0.061,0.305,561.894
107520,140688,5203,-0.027,1.032,0.138,-1.22,-0.061,0.305,561.898
107520,140683,8794,-0.027,1.033,0.141,-1.524,-0.122,0.305,561.904
107507,140688,5203,-0.027,1.035,0.145,-1.524,-0.122,0.305,561.908
107507,140704,8802,-0.028,1.036,0.145,-0.793,0,0.427,561.914
107515,140688,5203,-0.03,1.034,0.146,-0.793,0,0.427,561.918
107515,140701,8807,-0.03,1.036,0.148,0.305,0.305,0.366,561.924
107517,140688,5203,-0.027,1.041,0.144,0.305,0.305,0.366,561.928
107517,140679,8801,-0.028,1.041,0.145,0.183,0.305,0.427,561.934
107504,140688,5203,-0.028,1.033,0.144,0.183,0.305,0.427,561.938
107504,140671,8786,-0.031,1.027,0.144,-0.305,0.427,0.305,561.944
107487,140688,5203,-0.028,1.027,0.14,-0.305,0.427,0.305,561.947
107487,140654,8787,-0.029,1.027,0.141,-0.732,0.305,0.244,561.954
107503,140688,5203,-0.028,1.027,0.145,-0.732,0.305,0.244,561.957
107503,140670,8785,-0.026,1.03,0.144,-0.305,0.244,0.427,561.964
107496,140688,5203,-0.027,1.036,0.142,-0.305,0.244,0.427,561.967
107496,140673,8816,-0.026,1.039,0.14,0.061,0.366,0.488,561.973
107503,140688,5203,-0.03,1.04,0.137,0.061,0.366,0.488,561.977
107503,140668,8804,-0.026,1.038,0.139,-0.732,0.305,0.427,561.983
107526,140688,5203,-0.024,1.04,0.144,-0.732,0.305,0.427,561.987
107526,140700,8799,-0.023,1.035,0.144,-1.768,0.122,0.366,561.993
107508,140688,5203,-0.022,1.03,0.143,-1.768,0.122,0.366,561.997
107508,140689,8793,-0.023,1.032,0.147,-1.341,0.183,0.305,562.003
107500,140688,5203,-0.024,1.037,0.141,-1.341,0.183,0.305,562.007
107500,140671,8804,-0.028,1.039,0.142,-0.427,0.366,0.366,562.013
107525,140688,5203,-0.028,1.044,0.146,-0.427,0.366,0.366,562.017
107525,140672,8793,-0.027,1.042,0.143,-0.427,0.427,0.305,562.023
107519,140688,5203,-0.026,1.032,0.148,-0.427,0.427,0.305,562.027
107519,140655,8792,-0.031,1.028,0.147,-0.549,0.549,0.244,562.033
107530,140688,5203,-0.027,1.028,0.142,-0.549,0.549,0.244,562.037
107530,140679,8801,-0.028,1.028,0.138,-0.366,0.549,0.366,562.043
107521,140688,5203,-0.029,1.033,0.139,-0.366,0.549,0.366,562.046
107521,140707,8803,-0.029,1.045,0.141,0.427,0.549,0.488,562.053
107542,140688,5203,-0.028,1.046,0.139,0.427,0.549,0.488,562.056
107542,140695,8795,-0.031,1.041,0.14,0,0.488,0.305,562.062
107538,140688,5203,-0.03,1.037,0.137,0,0.488,0.305,562.066
107538,140682,8814,-0.029,1.028,0.137,-0.366,0.366,0.122,562.072
107562,140688,5203,-0.028,1.03,0.14,-0.366,0.366,0.122,562.076
107562,140697,8800,-0.029,1.038,0.137,-0.671,0.549,0.244,562.082
107557,140688,5203,-0.028,1.041,0.14,-0.671,0.549,0.244,562.086
107557,140683,8801,-0.026,1.038,0.139,-0.427,0.549,0.305,562.092
107551,140688,5203,-0.026,1.033,0.139,-0.427,0.549,0.305,562.096
107551,140708,8814,-0.029,1.033,0.144,-0.122,0.244,0.244,562.102
107537,140688,5203,-0.031,1.03,0.143,-0.122,0.244,0.244,562.106
107537,140689,8808,-0.026,1.027,0.14,-0.427,0.061,0.183,562.112
107561,140688,5203,-0.022,1.026,0.141,-0.427,0.061,0.183,562.116
107561,140719,8810,-0.024,1.029,0.142,0.366,-0.061,0.305,562.122
107561,140688,5203,-0.024,1.031,0.142,0.366,-0.061,0.305,562.126
107561,140714,8810,-0.025,1.033,0.146,0.915,-0.061,0.488,562.132
107558,140688,5203,-0.026,1.039,0.15,0.915,-0.061,0.488,562.135
107558,140712,8815,-0.029,1.04,0.147,0.854,0.061,0.549,562.142
107559,140688,5203,-0.028,1.04,0.145,0.854,0.061,0.549,562.145
107559,140685,8796,-0.027,1.036,0.141,0.305,0.061,0.671,562.152
107547,140688,5203,-0.03,1.039,0.143,0.305,0.061,0.671,562.155
107547,140677,8809,-0.025,1.045,0.144,0.305,0.183,0.671,562.161
107555,140688,5203,-0.026,1.047,0.139,0.305,0.183,0.671,562.165
107555,140701,8806,-0.029,1.046,0.14,0,0.427,0.549,562.171
107562,140688,5203,-0.025,1.041,0.146,0,0.427,0.549,562.175
107562,140693,8800,-0.025,1.043,0.145,-0.244,0.427,0.366,562.181
107529,140688,5203,-0.028,1.044,0.146,-0.244,0.427,0.366,562.185
107529,140700,8799,-0.03,1.041,0.151,-0.671,0.732,0.244,562.191
107547,140688,5203,-0.031,1.037,0.149,-0.671,0.732,0.244,562.195
107547,140670,8804,-0.029,1.036,0.136,-1.22,0.793,0.244,562.201
107534,140688,5203,-0.026,1.031,0.141,-1.22,0.793,0.244,562.205
107534,140692,8811,-0.03,1.016,0.137,-1.28,0.61,0.183,562.211
107540,140688,5203,-0.028,1.017,0.141,-1.28,0.61,0.183,562.215
107540,140678,8803,-0.028,1.026,0.143,-0.061,0.488,0.488,562.221
107552,140688,5203,-0.026,1.036,0.142,-0.061,0.488,0.488,562.225
107552,140697,8794,-0.025,1.032,0.141,0.488,0.671,0.671,562.231
107524,140688,5203,-0.024,1.029,0.141,0.488,0.671,0.671,562.234
107524,140689,8799,-0.024,1.036,0.141,0.366,0.427,0.671,562.241
107538,140688,5203,-0.028,1.042,0.143,0.366,0.427,0.671,562.244
107538,140669,8816,-0.027,1.042,0.148,-0.61,0.427,0.854,562.251
107536,140688,5203,-0.028,1.036,0.14,-0.61,0.427,0.854,562.254
107536,140674,8771,-0.027,1.029,0.139,-0.366,0.427,0.549,562.26
107553,140688,5203,-0.028,1.03,0.136,-0.366,0.427,0.549,562.264
107553,140685,8805,-0.027,1.037,0.138,-0.183,0.427,0.549,562.27
107560,140688,5203,-0.024,1.042,0.143,-0.183,0.427,0.549,562.274
107560,140679,8799,-0.025,1.041,0.148,0.427,0.366,0.549,562.28
107551,140688,5203,-0.026,1.037,0.147,0.427,0.366,0.549,562.284
107551,140695,8799,-0.029,1.042,0.151,0.854,0.366,0.427,562.29
107556,140688,5203,-0.033,1.045,0.152,0.854,0.366,0.427,562.294
107556,140679,8807,-0.033,1.039,0.149,0,0.671,0.122,562.3
107556,140688,5203,-0.033,1.039,0.149,0,0.671,0.122,562.304
107556,140696,8792,-0.03,1.027,0.138,-0.854,0.427,-0.122,562.31
107575,140688,5203,-0.03,1.027,0.138,-0.854,0.427,-0.122,562.314
107575,140695,8801,-0.031,1.024,0.138,-0.854,0.366,0,562.32
107568,140688,5203,-0.031,1.024,0.138,-0.854,0.366,0,562.324
107568,140717,8800,-0.026,1.024,0.14,-0.427,0.549,0.244,562.33
107566,140688,5203,-0.026,1.024,0.14,-0.427,0.549,0.244,562.334
107566,140701,8803,-0.026,1.038,0.142,0.244,0.549,0.793,562.34
107563,140688,5203,-0.026,1.038,0.142,0.244,0.549,0.793,562.343
107563,140700,8811,-0.029,1.052,0.141,0.122,0.488,0.793,562.35
107569,140688,5203,-0.029,1.052,0.141,0.122,0.488,0.793,562.353
107569,140703,8794,-0.024,1.043,0.134,-0.549,0.427,0.244,562.359
107555,140688,5203,-0.024,1.043,0.134,-0.549,0.427,0.244,562.363
107555,140722,8804,-0.023,1.035,0.132,-0.793,0.122,-0.183,562.369
107569,140688,5203,-0.023,1.035,0.132,-0.793,0.122,-0.183,562.373
107569,140693,8796,-0.026,1.032,0.138,-0.366,0.305,0.061,562.379
107565,140688,5203,-0.026,1.032,0.138,-0.366,0.305,0.061,562.383
107565,140682,8785,-0.029,1.038,0.139,0,0.549,0.61,562.389
107560,140688,5203,-0.029,1.038,0.139,0,0.549,0.61,562.393
107560,140708,8811,-0.023,1.035,0.143,-0.183,0.488,0.549,562.399
107569,140688,5203,-0.023,1.035,0.143,-0.183,0.488,0.549,562.403
107569,140700,8806,-0.028,1.031,0.146,-0.427,0.427,0.366,562.409
107572,140688,5203,-0.028,1.031,0.146,-0.427,0.427,0.366,562.413
107572,140699,8793,-0.031,1.029,0.147,-0.488,0.305,0.427,562.419
107567,140688,5203,-0.031,1.029,0.147,-0.488,0.305,0.427,562.423
107567,140709,8806,-0.029,1.024,0.142,-0.549,0,0.305,562.429
107577,140688,5203,-0.029,1.024,0.142,-0.549,0,0.305,562.432
107577,140708,8809,-0.031,1.025,0.133,-0.366,-0.122,0.427,562.439
107575,140688,5203,-0.031,1.025,0.133,-0.366,-0.122,0.427,562.442
107575,140697,8802,-0.03,1.036,0.143,-0.366,-0.122,0.427,562.449
107589,140688,5203,-0.025,1.04,0.152,-0.549,-0.122,0.61,562.452
107589,140727,8802,-0.023,1.033,0.146,-0.549,-0.122,0.61,562.458
107583,140688,5203,-0.021,1.033,0.15,-0.305,-0.183,0.549,562.462
107583,140686,8807,-0.024,1.04,0.149,-0.305,-0.183,0.549,562.468
107568,140688,5203,-0.022,1.04,0.147,-0.61,0.061,0.732,562.472
107568,140679,8823,-0.021,1.042,0.149,-0.61,0.061,0.732,562.478
107573,140688,5203,-0.025,1.046,0.147,-0.488,0.305,0.671,562.482
107573,140698,8811,-0.023,1.047,0.146,-0.488,0.305,0.671,562.488
107562,140688,5203,-0.026,1.043,0.147,-0.061,0.427,0.427,562.492
107562,140715,8807,-0.028,1.043,0.144,-0.061,0.427,0.427,562.498
107563,140688,5203,-0.026,1.044,0.141,-0.061,0.61,0.305,562.502
107563,140684,8811,-0.029,1.044,0.145,-0.061,0.61,0.305,562.508
107557,140688,5203,-0.03,1.038,0.143,0.061,0.732,0.061,562.512
107557,140688,8793,-0.026,1.032,0.137,0.061,0.732,0.061,562.518
107554,140688,5203,-0.028,1.028,0.135,0.061,0.549,-0.061,562.522
107554,140676,8805,-0.028,1.029,0.14,0.061,0.549,-0.061,562.528
107529,140688,5203,-0.031,1.029,0.143,-0.183,0.732,0.122,562.531
107529,140694,8784,-0.028,1.027,0.144,-0.183,0.732,0.122,562.538
107540,140688,5203,-0.028,1.025,0.133,0,0.732,0.244,562.541
107540,140693,8806,-0.027,1.031,0.133,0,0.732,0.244,562.548
107567,140688,5203,-0.027,1.031,0.141,-0.549,0.549,0.183,562.551
107567,140671,8789,-0.025,1.028,0.141,-0.549,0.549,0.183,562.557
107570,140688,5203,-0.025,1.032,0.143,-0.122,0.549,0.549,562.561
107570,140708,8799,-0.023,1.042,0.138,-0.122,0.549,0.549,562.567
107544,140688,5203,-0.021,1.048,0.139,-0.061,0.488,0.793,562.571
107544,140686,8815,-0.023,1.043,0.144,-0.061,0.488,0.793,562.577
107549,140688,5203,-0.025,1.041,0.147,-0.244,0.549,0.549,562.581
107549,140692,8801,-0.025,1.041,0.144,-0.244,0.549,0.549,562.587
107592,140688,5203,-0.025,1.036,0.147,-0.427,0.61,0.366,562.591
107592,140728,8815,-0.028,1.03,0.147,-0.427,0.61,0.366,562.597
107606,140688,5203,-0.031,1.027,0.149,0.122,0.671,0.305,562.601
107606,140731,8815,-0.031,1.032,0.145,0.122,0.671,0.305,562.607
107614,140688,5203,-0.033,1.031,0.144,0.366,0.549,0.427,562.611
107614,140725,8807,-0.033,1.026,0.149,0.366,0.549,0.427,562.617
107587,140688,5203,-0.032,1.026,0.148,0.488,0.488,0.549,562.621
107587,140719,8812,-0.032,1.027,0.141,0.488,0.488,0.549,562.627
107591,140688,5203,-0.033,1.029,0.137,0,0.427,0.549,562.63
107591,140698,8794,-0.035,1.034,0.133,0,0.427,0.549,562.637
107582,140688,5203,-0.032,1.035,0.137,-0.183,0.366,0.427,562.64
107582,140692,8811,-0.029,1.035,0.141,-0.183,0.366,0.427,562.647
107578,140688,5203,-0.028,1.035,0.14,-0.549,0.427,0.366,562.65
107578,140705,8814,-0.03,1.037,0.143,-0.549,0.427,0.366,562.656
107570,140688,5203,-0.026,1.04,0.146,-0.671,0.549,0.366,562.66
107570,140687,8794,-0.023,1.04,0.142,-0.671,0.549,0.366,562.666
107572,140688,5203,-0.023,1.042,0.142,-0.305,0.61,0.305,562.67
107572,140686,8805,-0.023,1.042,0.146,-0.305,0.61,0.305,562.676
107543,140688,5203,-0.024,1.043,0.147,-0.061,0.671,0.305,562.68
107543,140674,8809,-0.026,1.034,0.146,-0.061,0.671,0.305,562.686
107559,140688,5203,-0.023,1.031,0.146,-0.244,0.549,0.122,562.69
107559,140661,8793,-0.024,1.029,0.141,-0.244,0.549,0.122,562.696
107568,140688,5203,-0.026,1.027,0.144,-0.244,0.61,0.183,562.7
107568,140696,8793,-0.023,1.031,0.145,-0.244,0.61,0.183,562.706
107568,140688,5203,-0.023,1.037,0.146,0.671,0.793,0.61,562.71
107568,140699,8792,-0.023,1.038,0.145,0.671,0.793,0.61,562.716
107583,140688,5203,-0.027,1.039,0.143,0.488,0.61,0.549,562.72
107583,140715,8808,-0.029,1.033,0.143,0.488,0.61,0.549,562.726
107575,140688,5203,-0.03,1.024,0.138,-0.732,0.488,0.305,562.729
107575,140695,8804,-0.026,1.021,0.135,-0.732,0.488,0.305,562.736
107573,140688,5203,-0.027,1.02,0.135,-0.61,0.244,0.366,562.739
107573,140692,8807,-0.026,1.028,0.14,-0.61,0.244,0.366,562.746
107585,140688,5203,-0.027,1.035,0.145,0.549,0.305,0.671,562.749
107585,140697,8801,-0.026,1.039,0.148,0.549,0.305,0.671,562.755
107582,140688,5203,-0.03,1.046,0.151,1.341,0.488,0.732,562.759
107582,140703,8803,-0.031,1.054,0.146,1.341,0.488,0.732,562.765
107563,140688,5203,-0.031,1.054,0.141,0.549,0.366,0.488,562.769
107563,140706,8796,-0.027,1.044,0.146,0.549,0.366,0.488,562.775
107559,140688,5203,-0.026,1.036,0.139,-0.793,0.244,-0.061,562.779
107559,140696,8813,-0.029,1.026,0.131,-0.793,0.244,-0.061,562.785
107565,140688,5203,-0.028,1.019,0.131,-0.854,0.183,-0.366,562.789
107565,140671,8805,-0.029,1.018,0.13,-0.854,0.183,-0.366,562.795
107578,140688,5203,-0.027,1.021,0.131,0.305,0.366,0.122,562.799
107578,140671,8792,-0.027,1.027,0.143,0.305,0.366,0.122,562.805
107556,140688,5203,-0.029,1.037,0.149,0.915,0.61,0.61,562.809
107556,140668,8803,-0.027,1.042,0.149,0.915,0.61,0.61,562.815
107549,140688,5203,-0.025,1.042,0.149,0.488,0.793,0.732,562.819
107549,140679,8797,-0.024,1.043,0.146,0.488,0.793,0.732,562.825
107529,140688,5203,-0.026,1.049,0.144,0.061,0.549,0.61,562.828
107529,140681,8796,-0.027,1.043,0.142,0.061,0.549,0.61,562.835
107530,140688,5203,-0.027,1.043,0.146,-0.244,0.549,0.122,562.838
107530,140649,8790,-0.024,1.037,0.142,-0.244,0.549,0.122,562.845
107512,140688,5203,-0.019,1.034,0.138,-0.976,0.244,-0.183,562.848
107512,140658,8798,-0.022,1.026,0.142,-0.976,0.244,-0.183,562.854
107518,140688,5203,-0.023,1.021,0.141,-0.427,0.122,-0.061,562.858
107518,140648,8785,-0.021,1.022,0.139,-0.427,0.122,-0.061,562.864
107484,140688,5203,-0.024,1.028,0.137,1.037,0.183,0.427,562.868
107484,140640,8781,-0.025,1.034,0.149,1.037,0.183,0.427,562.874
107465,140688,5203,-0.023,1.04,0.146,1.707,0.305,0.854,562.878
107465,140627,8792,-0.022,1.043,0.143,1.707,0.305,0.854,562.884
107479,140688,5203,-0.022,1.043,0.143,1.707,0.305,0.854,562.888
107479,140610,8776,-0.024,1.043,0.145,1.341,0.244,0.732,562.894
107469,140688,5203,-0.024,1.043,0.145,1.341,0.244,0.732,562.898
107469,140623,8778,-0.032,1.035,0.147,0.427,0.305,0.427,562.904
107471,140688,5203,-0.032,1.035,0.147,0.427,0.305,0.427,562.908
107471,140614,8782,-0.032,1.034,0.14,0.549,0.366,0.183,562.914
107469,140688,5203,-0.032,1.034,0.14,0.549,0.366,0.183,562.918
107469,140636,8789,-0.029,1.035,0.139,0.915,0.549,0.244,562.924
107473,140688,5203,-0.029,1.035,0.139,0.915,0.549,0.244,562.927
107473,140583,8775,-0.027,1.04,0.146,1.159,0.854,0.366,562.934
107448,140688,5203,-0.027,1.04,0.146,1.159,0.854,0.366,562.937
107448,140600,8776,-0.025,1.04,0.139,0.61,0.976,0.366,562.944
107437,140688,5203,-0.025,1.04,0.139,0.61,0.976,0.366,562.947
107437,140604,8786,-0.027,1.037,0.139,0.427,0.915,0.244,562.953
107437,140688,5203,-0.027,1.037,0.139,0.427,0.915,0.244,562.957
107437,140579,8792,-0.023,1.034,0.144,-0.244,0.915,0.122,562.963
107457,140688,5203,-0.023,1.034,0.144,-0.244,0.915,0.122,562.967
107457,140582,8770,-0.022,1.03,0.136,-0.915,0.976,0,562.973
107428,140688,5203,-0.022,1.03,0.136,-0.915,0.976,0,562.977
107428,140584,8774,-0.026,1.032,0.139,-0.61,0.549,0.183,562.983
107415,140688,5203,-0.026,1.032,0.139,-0.61,0.549,0.183,562.987
107415,140574,8786,-0.03,1.03,0.138,-0.549,0.488,0.183,562.993
107414,140688,5203,-0.03,1.03,0.138,-0.549,0.488,0.183,562.997
107414,140571,8779,-0.029,1.023,0.134,-0.671,0.244,0.183,563.003
107429,140688,5203,-0.029,1.023,0.134,-0.671,0.244,0.183,563.007
107429,140562,8774,-0.029,1.034,0.136,-0.732,0.061,0.183,563.013
107419,140688,5203,-0.029,1.034,0.136,-0.732,0.061,0.183,563.017
107419,140571,8777,-0.029,1.047,0.141,0.183,0.305,0.488,563.023
107413,140688,5203,-0.029,1.047,0.141,0.183,0.305,0.488,563.026
107413,140592,8778,-0.033,1.05,0.137,0.793,0.427,0.732,563.033
107402,140688,5203,-0.031,1.049,0.138,0.793,0.427,0.732,563.036
107402,140558,8777,-0.031,1.043,0.144,-0.488,0.183,0.366,563.043
107403,140688,5203,-0.032,1.04,0.141,-0.488,0.183,0.366,563.046
107403,140571,8782,-0.032,1.035,0.141,-1.28,0.305,0,563.052
107421,140688,5203,-0.032,1.026,0.139,-1.28,0.305,0,563.056
107421,140568,8778,-0.029,1.024,0.14,-0.427,0.427,0.061,563.062
107392,140688,5203,-0.027,1.031,0.137,-0.427,0.427,0.061,563.066
107392,140579,8793,-0.025,1.037,0.137,0.427,0.488,0.366,563.072
107429,140688,5203,-0.023,1.037,0.137,0.427,0.488,0.366,563.076
107429,140574,8769,-0.022,1.042,0.138,0.427,0.549,0.366,563.082
107421,140688,5203,-0.025,1.042,0.142,0.427,0.549,0.366,563.086
107421,140564,8762,-0.03,1.04,0.143,-0.305,0.488,0.427,563.092
107389,140688,5203,-0.028,1.033,0.136,-0.305,0.488,0.427,563.096
107389,140547,8770,-0.027,1.032,0.136,-1.159,0.305,0.244,563.102
107390,140432,5203,-0.027,1.031,0.136,-1.159,0.305,0.244,563.106
107390,140537,8768,-0.027,1.031,0.131,-1.037,0.183,0.122,563.112
107387,140688,5203,-0.026,1.026,0.131,-1.037,0.183,0.122,563.116
107387,140546,8769,-0.027,1.026,0.134,-0.305,-0.061,0.244,563.122
107394,140688,5203,-0.023,1.028,0.146,-0.305,-0.061,0.244,563.125
107394,140547,8758,-0.025,1.031,0.15,-0.366,0,0.305,563.132
107397,140688,5203,-0.025,1.031,0.152,-0.366,0,0.305,563.135
107397,140544,8769,-0.021,1.035,0.152,0.549,0.061,0.793,563.142
107383,140688,5203,-0.02,1.046,0.152,0.549,0.061,0.793,563.145
107383,140546,8764,-0.027,1.058,0.147,0.488,0.305,0.854,563.151
107406,140688,5203,-0.034,1.055,0.146,0.488,0.305,0.854,563.155
107406,140554,8785,-0.031,1.043,0.144,-0.976,0.366,0.061,563.161
107392,140688,5203,-0.027,1.025,0.132,-0.976,0.366,0.061,563.165
107392,140553,8770,-0.026,1.016,0.13,-1.829,-0.183,-0.427,563.171
107409,140688,5203,-0.026,1.02,0.135,-1.829,-0.183,-0.427,563.175
107409,140581,8780,-0.029,1.025,0.139,-0.976,0.061,-0.122,563.181
107445,140688,5203,-0.026,1.029,0.139,-0.976,0.061,-0.122,563.185
107445,140575,8763,-0.024,1.038,0.142,0.549,0.427,0.671,563.191
107451,140688,5203,-0.025,1.047,0.144,0.549,0.427,0.671,563.195
107451,140607,8779,-0.027,1.051,0.145,0.732,0.427,1.037,563.201
107447,140688,5203,-0.03,1.051,0.147,0.732,0.427,1.037,563.205
107447,140578,8761,-0.031,1.048,0.144,-0.305,0.549,0.488,563.211
107442,140688,5203,-0.029,1.044,0.139,-0.305,0.549,0.488,563.215
107442,140591,8769,-0.026,1.036,0.135,-1.402,0.183,-0.061,563.221
107428,140688,5203,-0.026,1.026,0.132,-1.402,0.183,-0.061,563.224
107428,140593,8778,-0.025,1.024,0.13,-1.159,0,-0.244,563.231
107440,140688,5203,-0.021,1.024,0.134,-1.159,0,-0.244,563.234
107440,140585,8772,-0.023,1.025,0.139,0.427,0.122,0.122,563.241
107423,140688,5203,-0.027,1.03,0.143,0.427,0.122,0.122,563.244
107423,140570,8772,-0.028,1.035,0.147,1.159,0.244,0.549,563.25
107440,140688,5203,-0.028,1.035,0.15,1.159,0.244,0.549,563.254
107440,140567,8784,-0.028,1.034,0.147,0.427,0.366,0.549,563.26
107437,140688,5203,-0.031,1.031,0.145,0.427,0.366,0.549,563.264
107437,140569,8758,-0.029,1.031,0.145,-0.366,0.183,0.427,563.27
107432,140688,5203,-0.028,1.032,0.143,-0.366,0.183,0.427,563.274
107432,140574,8778,-0.028,1.03,0.139,-0.122,0,0.427,563.28
107423,140688,5203,-0.027,1.033,0.136,-0.122,0,0.427,563.284
107423,140583,8786,-0.029,1.038,0.14,0.915,0.061,0.488,563.29
107405,140688,5203,-0.027,1.042,0.142,0.915,0.061,0.488,563.294
107405,140565,8764,-0.028,1.043,0.145,1.037,0.183,0.488,563.3
107389,140688,5203,-0.03,1.044,0.145,1.037,0.183,0.488,563.304
107389,140560,8785,-0.031,1.042,0.146,0.366,0.366,0.244,563.31
107410,140688,5203,-0.029,1.036,0.143,0.366,0.366,0.244,563.314
107410,140556,8754,-0.027,1.033,0.144,-0.427,0.366,-0.061,563.32
107394,140432,5203,-0.029,1.032,0.144,-0.427,0.366,-0.061,563.323
107394,140540,8774,-0.029,1.032,0.144,-0.854,0.732,-0.061,563.33
107393,140688,5203,-0.028,1.032,0.143,-0.854,0.732,-0.061,563.333
107393,140561,8767,-0.026,1.029,0.14,-0.854,0.671,0.122,563.339
107400,140688,5203,-0.026,1.031,0.136,-0.854,0.671,0.122,563.343
107400,140554,8774,-0.025,1.034,0.138,-0.671,0.61,0.244,563.349
107385,140432,5203,-0.029,1.031,0.137,-0.671,0.61,0.244,563.353
107385,140542,8765,-0.031,1.028,0.139,-0.488,0.61,0.305,563.359
107359,140432,5203,-0.029,1.024,0.143,-0.488,0.61,0.305,563.363
107359,140520,8754,-0.025,1.03,0.139,-0.366,0.244,0.427,563.369
107374,140432,5203,-0.028,1.036,0.138,-0.366,0.244,0.427,563.373
107374,140537,8764,-0.028,1.037,0.142,0,0.183,0.61,563.379
107371,140432,5203,-0.027,1.038,0.15,0,0.183,0.61,563.383
107371,140541,8764,-0.029,1.041,0.145,0.183,0.366,0.671,563.389
107381,140688,5203,-0.027,1.043,0.144,0.183,0.366,0.671,563.393
107381,140549,8769,-0.03,1.042,0.144,-0.366,0.244,0.488,563.399
107390,140432,5203,-0.027,1.042,0.144,-0.366,0.244,0.488,563.403
107390,140517,8756,-0.025,1.04,0.142,-0.427,0.183,0.122,563.409
107350,140432,5203,-0.027,1.037,0.143,-0.427,0.183,0.122,563.412
107350,140513,8773,-0.028,1.033,0.143,0.061,0.244,0.122,563.419
107348,140432,5203,-0.029,1.03,0.144,0.061,0.244,0.122,563.422
107348,140510,8748,-0.027,1.031,0.142,0.488,0.244,0.244,563.429
107322,140432,5203,-0.026,1.039,0.143,0.488,0.244,0.244,563.432
107322,140513,8770,-0.027,1.043,0.142,0.427,0.427,0.305,563.438
107356,140432,5203,-0.026,1.041,0.142,0.427,0.427,0.305,563.442
107356,140519,8750,-0.03,1.036,0.138,0.122,0.61,0.244,563.448
107372,140432,5203,-0.031,1.029,0.132,0.122,0.61,0.244,563.452
107372,140508,8758,-0.031,1.026,0.133,-0.549,0.366,0.122,563.458
107332,140432,5203,-0.026,1.024,0.137,-0.549,0.366,0.122,563.462
107332,140493,8750,-0.024,1.021,0.144,0,0.244,0.183,563.468
107293,140432,5203,-0.024,1.021,0.144,0,0.244,0.183,563.472
107293,140481,8752,-0.031,1.034,0.142,1.037,0.549,0.793,563.478
107293,140432,5203,-0.031,1.034,0.142,1.037,0.549,0.793,563.482
107293,140473,8738,-0.028,1.057,0.145,1.22,0.671,1.22,563.488
107291,140432,5203,-0.028,1.057,0.145,1.22,0.671,1.22,563.492
107291,140465,8743,-0.027,1.052,0.138,-0.061,0.488,0.427,563.498
107335,140432,5203,-0.027,1.052,0.138,-0.061,0.488,0.427,563.502
107335,140481,8755,-0.026,1.035,0.129,-1.28,0.366,-0.122,563.508
107311,140432,5203,-0.026,1.035,0.129,-1.28,0.366,-0.122,563.511
107311,140482,8752,-0.022,1.035,0.131,-0.976,0.244,-0.305,563.518
107317,140432,5203,-0.022,1.035,0.131,-0.976,0.244,-0.305,563.521
107317,140494,8751,-0.022,1.026,0.142,0.244,0.183,0,563.528
107310,140432,5203,-0.022,1.026,0.142,0.244,0.183,0,563.531
107310,140489,8766,-0.026,1.029,0.154,0.732,0.305,0.488,563.537
107335,140432,5203,-0.026,1.029,0.154,0.732,0.305,0.488,563.541
107335,140477,8755,-0.029,1.029,0.151,0.122,0.427,0.915,563.547
107352,140432,5203,-0.029,1.029,0.151,0.122,0.427,0.915,563.551
107352,140506,8752,-0.022,1.041,0.146,-0.671,0.427,0.854,563.557
107373,140432,5203,-0.022,1.041,0.146,-0.671,0.427,0.854,563.561
107373,140528,8752,-0.027,1.033,0.14,-1.22,0.305,0.366,563.567
107392,140432,5203,-0.027,1.033,0.14,-1.22,0.305,0.366,563.571
107392,140528,8755,-0.026,1.026,0.135,-1.28,0.305,0.366,563.577
107380,140688,5203,-0.026,1.026,0.135,-1.28,0.305,0.366,563.581
107380,140549,8768,-0.03,1.027,0.143,-0.671,0.366,0.61,563.587
107381,140432,5203,-0.03,1.027,0.143,-0.671,0.366,0.61,563.591
107381,140532,8771,-0.029,1.037,0.151,0.305,0.549,0.793,563.597
107379,140432,5203,-0.029,1.037,0.151,0.305,0.549,0.793,563.601
107379,140522,8754,-0.03,1.047,0.147,0.732,0.793,0.854,563.607
107378,140432,5203,-0.03,1.047,0.147,0.732,0.793,0.854,563.611
107378,140531,8772,-0.028,1.056,0.147,0.732,0.793,0.854,563.617
107375,140432,5203,-0.027,1.059,0.145,0.793,0.854,0.61,563.62
107375,140514,8751,-0.031,1.05,0.14,0.793,0.854,0.61,563.627
107358,140432,5203,-0.029,1.04,0.134,-0.427,0.854,-0.183,563.63
107358,140515,8750,-0.028,1.027,0.127,-0.427,0.854,-0.183,563.636
107340,140432,5203,-0.026,1.02,0.128,-1.341,0.427,-0.549,563.64
107340,140523,8757,-0.021,1.021,0.132,-1.341,0.427,-0.549,563.646
107364,140432,5203,-0.017,1.019,0.14,-0.183,0.244,-0.366,563.65
107364,140511,8765,-0.02,1.024,0.143,-0.183,0.244,-0.366,563.656
107357,140432,5203,-0.024,1.033,0.146,1.341,0.305,0.122,563.66
107357,140510,8744,-0.022,1.037,0.146,1.341,0.305,0.122,563.666
107363,140432,5203,-0.021,1.04,0.149,0.793,0.183,0.305,563.67
107363,140520,8749,-0.026,1.03,0.139,0.793,0.183,0.305,563.676
107354,140432,5203,-0.025,1.031,0.142,-0.488,-0.183,0.244,563.68
107354,140519,8755,-0.028,1.025,0.148,-0.488,-0.183,0.244,563.686
107399,140432,5203,-0.027,1.02,0.141,-0.183,-0.183,0.366,563.69
107399,140524,8745,-0.026,1.03,0.14,-0.183,-0.183,0.366,563.696
107381,140432,5203,-0.032,1.041,0.137,1.159,0.305,0.671,563.7
107381,140524,8753,-0.035,1.048,0.126,1.159,0.305,0.671,563.706
107382,140432,5203,-0.028,1.047,0.141,2.012,0.549,0.488,563.709
