102781,136674,7946,-0.044,0.983,0.389,0.244,0.488,0.366,111.442
102801,136592,5203,-0.044,0.983,0.389,0.244,0.488,0.366,111.446
102801,136681,7933,-0.043,0.976,0.39,-0.122,0.61,0.305,111.452
102812,136592,5203,-0.043,0.976,0.39,-0.122,0.61,0.305,111.456
102812,136682,7930,-0.042,0.97,0.382,-0.488,0.549,0.366,111.462
102793,136592,5203,-0.042,0.97,0.382,-0.488,0.549,0.366,111.466
102793,136663,7929,-0.045,0.979,0.383,-0.122,0.549,0.488,111.472
102794,136592,5203,-0.045,0.979,0.383,-0.122,0.549,0.488,111.476
102794,136680,7945,-0.041,0.984,0.382,0.305,0.427,0.427,111.482
102804,136592,5203,-0.041,0.984,0.382,0.305,0.427,0.427,111.486
102804,136695,7923,-0.043,0.979,0.38,-0.183,0.427,0.305,111.492
102814,136592,5203,-0.043,0.979,0.38,-0.183,0.427,0.305,111.495
102814,136681,7930,-0.042,0.974,0.377,-0.793,0.305,0.427,111.502
102799,136592,5203,-0.042,0.974,0.377,-0.793,0.305,0.427,111.505
102799,136692,7933,-0.045,0.977,0.377,-0.61,0.244,0.549,111.512
102806,136592,5203,-0.045,0.977,0.377,-0.61,0.244,0.549,111.515
102806,136679,7934,-0.042,0.983,0.384,-0.122,0.244,0.366,111.521
102816,136592,5203,-0.042,0.983,0.384,-0.122,0.244,0.366,111.525
102816,136676,7931,-0.036,0.98,0.391,-0.183,0.305,0.244,111.531
102813,136592,5203,-0.036,0.98,0.391,-0.183,0.305,0.244,111.535
102813,136685,7944,-0.041,0.974,0.387,-0.549,0.305,0.183,111.541
102822,136848,5203,-0.041,0.974,0.387,-0.549,0.305,0.183,111.545
102822,136717,7943,-0.042,0.97,0.387,-0.549,0.305,0.183,111.551
102808,136848,5203,-0.041,0.968,0.384,-0.366,0.244,0.183,111.555
102808,136708,7959,-0.043,0.968,0.384,-0.366,0.244,0.183,111.561
102825,136592,5203,-0.048,0.97,0.387,0.244,0.366,0.488,111.565
102825,136702,7934,-0.049,0.971,0.387,0.244,0.366,0.488,111.571
102819,136592,5203,-0.049,0.972,0.384,0.244,0.366,0.61,111.575
102819,136700,7964,-0.046,0.968,0.386,0.244,0.366,0.61,111.581
102789,136592,5203,-0.05,0.974,0.387,-0.061,0.244,0.183,111.585
102789,136693,7950,-0.051,0.983,0.381,-0.061,0.244,0.183,111.591
102817,136592,5203,-0.048,0.984,0.388,0,0.366,0.305,111.594
102817,136690,7941,-0.045,0.979,0.388,0,0.366,0.305,111.601
102798,136592,5203,-0.043,0.975,0.39,-0.122,0.427,0.244,111.604
102798,136679,7943,-0.043,0.975,0.389,-0.122,0.427,0.244,111.611
102781,136592,5203,-0.04,0.971,0.386,-0.549,0.488,0.427,111.614
102781,136686,7934,-0.043,0.964,0.386,-0.549,0.488,0.427,111.62
102799,136592,5203,-0.042,0.965,0.387,-0.122,0.366,0.366,111.624
102799,136688,7916,-0.038,0.973,0.385,-0.122,0.366,0.366,111.63
102803,136592,5203,-0.042,0.981,0.383,0.488,0.427,0.366,111.634
102803,136667,7938,-0.04,0.983,0.383,0.488,0.427,0.366,111.64
102795,136592,5203,-0.038,0.984,0.388,0.488,0.427,0.427,111.644
102795,136656,7943,-0.037,0.981,0.385,0.488,0.427,0.427,111.65
102794,136592,5203,-0.04,0.981,0.381,-0.244,0.366,0.427,111.654
102794,136680,7948,-0.042,0.979,0.385,-0.244,0.366,0.427,111.66
102783,136592,5203,-0.041,0.971,0.385,-0.915,0.488,0.366,111.664
102783,136659,7932,-0.042,0.969,0.384,-0.915,0.488,0.366,111.67
102791,136592,5203,-0.043,0.966,0.381,-0.061,0.549,0.366,111.674
102791,136674,7955,-0.046,0.972,0.381,-0.061,0.549,0.366,111.68
102805,136592,5203,-0.045,0.981,0.382,0.915,0.488,0.549,111.684
102805,136678,7936,-0.044,0.985,0.384,0.915,0.488,0.549,111.69
102815,136592,5203,-0.042,0.987,0.384,0.732,0.366,0.305,111.693
102815,136681,7945,-0.046,0.983,0.385,0.732,0.366,0.305,111.7
102808,136592,5203,-0.045,0.974,0.384,-0.305,0.549,0.366,111.703
102808,136675,7943,-0.047,0.967,0.388,-0.305,0.549,0.366,111.71
102800,136592,5203,-0.046,0.968,0.386,-0.732,0.549,0.366,111.713
102800,136689,7944,-0.043,0.967,0.38,-0.732,0.549,0.366,111.719
102801,136592,5203,-0.044,0.971,0.382,0.122,0.488,0.427,111.723
102801,136672,7955,-0.042,0.984,0.381,0.122,0.488,0.427,111.729
102793,136592,5203,-0.038,0.985,0.385,0.488,0.366,0.366,111.733
102793,136684,7930,-0.036,0.978,0.385,0.488,0.366,0.366,111.739
102814,136592,5203,-0.036,0.977,0.384,0.366,0.427,0.244,111.743
102814,136697,7938,-0.041,0.978,0.385,0.366,0.427,0.244,111.749
102835,136848,5203,-0.04,0.971,0.38,0,0.549,0.427,111.753
102835,136716,7948,-0.04,0.971,0.382,0,0.549,0.427,111.759
102822,136848,5203,-0.04,0.97,0.382,0,0.366,0.427,111.763
102822,136705,7939,-0.04,0.973,0.381,0,0.366,0.427,111.769
102834,136592,5203,-0.044,0.977,0.386,0.427,0.488,0.61,111.773
102834,136699,7939,-0.044,0.981,0.383,0.427,0.488,0.61,111.779
102855,136848,5203,-0.043,0.979,0.379,0.427,0.366,0.488,111.783
102855,136711,7953,-0.043,0.981,0.378,0.427,0.366,0.488,111.789
102867,136592,5203,-0.042,0.983,0.384,0,0.183,0.305,111.792
102867,136701,7937,-0.041,0.98,0.388,0,0.183,0.305,111.799
102851,136848,5203,-0.04,0.977,0.384,-0.244,0.183,0.366,111.802
102851,136714,7937,-0.043,0.975,0.386,-0.244,0.183,0.366,111.809
102837,136848,5203,-0.041,0.976,0.386,-0.488,0.366,0.183,111.812
102837,136711,7953,-0.038,0.975,0.386,-0.488,0.366,0.183,111.818
102829,136848,5203,-0.038,0.971,0.387,-0.305,0.488,0.366,111.822
102829,136718,7945,-0.043,0.973,0.385,-0.305,0.488,0.366,111.828
102851,136848,5203,-0.044,0.977,0.382,-0.061,0.488,0.488,111.832
102851,136736,7944,-0.044,0.975,0.385,-0.061,0.488,0.488,111.838
102864,136848,5203,-0.044,0.981,0.381,0.122,0.488,0.305,111.842
102864,136736,7947,-0.042,0.979,0.382,0.122,0.488,0.305,111.848
102882,136848,5203,-0.04,0.977,0.383,-0.061,0.366,0.305,111.852
102882,136739,7950,-0.045,0.976,0.381,-0.061,0.366,0.305,111.858
102851,136848,5203,-0.046,0.975,0.38,-0.305,0.366,0.366,111.862
102851,136719,7938,-0.048,0.972,0.382,-0.305,0.366,0.366,111.868
102830,136848,5203,-0.045,0.977,0.386,-0.427,0.366,0.305,111.872
102830,136724,7953,-0.044,0.977,0.387,-0.427,0.366,0.305,111.878
102852,136848,5203,-0.042,0.976,0.39,-0.122,0.366,0.244,111.882
102852,136717,7955,-0.043,0.972,0.389,-0.122,0.366,0.244,111.888
102861,136848,5203,-0.043,0.977,0.388,0.366,0.488,0.427,111.891
102861,136708,7950,-0.044,0.978,0.387,0.366,0.488,0.427,111.898
102862,136848,5203,-0.046,0.977,0.385,0.183,0.61,0.488,111.901
102862,136716,7950,-0.044,0.974,0.379,0.183,0.61,0.488,111.908
102848,136848,5203,-0.042,0.972,0.378,-0.244,0.549,0.305,111.911
102848,136709,7954,-0.043,0.97,0.38,-0.244,0.549,0.305,111.917
102840,136848,5203,-0.045,0.976,0.384,-0.305,0.488,0.427,111.921
102840,136718,7954,-0.045,0.981,0.38,-0.305,0.488,0.427,111.927
102839,136848,5203,-0.044,0.984,0.381,0,0.549,0.305,111.931
102839,136729,7946,-0.041,0.982,0.383,0,0.549,0.305,111.937
102838,136848,5203,-0.041,0.977,0.384,0.061,0.488,0.305,111.941
102838,136732,7951,-0.04,0.976,0.379,0.061,0.488,0.305,111.947
102850,136848,5203,-0.043,0.978,0.379,-0.122,0.488,0.305,111.951
102850,136730,7956,-0.044,0.977,0.383,-0.122,0.488,0.305,111.957
102861,136848,5203,-0.044,0.976,0.383,-0.183,0.427,0.122,111.961
102861,136731,7947,-0.044,0.975,0.38,-0.183,0.427,0.122,111.967
102851,136848,5203,-0.046,0.974,0.378,0.183,0.488,0.244,111.971
102851,136715,7939,-0.046,0.976,0.383,0.183,0.488,0.244,111.977
102833,136848,5203,-0.045,0.974,0.38,0.122,0.366,0.427,111.981
102833,136713,7939,-0.044,0.976,0.379,0.122,0.366,0.427,111.987
102845,136848,5203,-0.044,0.976,0.379,0.122,0.366,0.427,111.99
102845,136722,7943,-0.044,0.979,0.387,-0.122,0.244,0.427,111.997
102837,136848,5203,-0.044,0.979,0.387,-0.122,0.244,0.427,112
102837,136729,7936,-0.041,0.976,0.386,-0.488,0.305,0.366,112.007
102859,136848,5203,-0.041,0.976,0.386,-0.488,0.305,0.366,112.01
102859,136705,7944,-0.041,0.97,0.385,-0.549,0.305,0.305,112.016
102848,136848,5203,-0.041,0.97,0.385,-0.549,0.305,0.305,112.02
102848,136726,7952,-0.04,0.971,0.38,-0.305,0.305,0.427,112.026
102836,136848,5203,-0.04,0.971,0.38,-0.305,0.305,0.427,112.03
102836,136715,7943,-0.044,0.975,0.386,0.244,0.366,0.305,112.036
102861,136848,5203,-0.044,0.975,0.386,0.244,0.366,0.305,112.04
102861,136739,7956,-0.044,0.974,0.384,0.549,0.366,0.305,112.046
102854,136848,5203,-0.044,0.974,0.384,0.549,0.366,0.305,112.05
102854,136731,7941,-0.045,0.974,0.379,-0.183,0.244,0.488,112.056
102862,136848,5203,-0.045,0.974,0.379,-0.183,0.244,0.488,112.06
102862,136724,7954,-0.044,0.976,0.386,-0.854,0.061,0.305,112.066
102872,136848,5203,-0.044,0.976,0.386,-0.854,0.061,0.305,112.07
102872,136712,7961,-0.043,0.981,0.386,-0.488,0,0.183,112.076
102862,136848,5203,-0.043,0.981,0.386,-0.488,0,0.183,112.08
102862,136734,7956,-0.038,0.982,0.391,0.122,0,0.183,112.086
102876,136848,5203,-0.038,0.982,0.391,0.122,0,0.183,112.089
102876,136740,7950,-0.036,0.98,0.386,0.244,0.061,0.244,112.096
102883,136848,5203,-0.036,0.98,0.386,0.244,0.061,0.244,112.099
102883,136739,7950,-0.038,0.977,0.385,-0.061,0.305,0.122,112.106
102869,136848,5203,-0.038,0.977,0.385,-0.061,0.305,0.122,112.109
102869,136753,7959,-0.041,0.977,0.379,-0.061,0.427,0.183,112.115
102890,136848,5203,-0.041,0.977,0.379,-0.061,0.427,0.183,112.119
102890,136730,7955,-0.038,0.978,0.385,0.366,0.671,0.305,112.125
102894,136848,5203,-0.038,0.978,0.385,0.366,0.671,0.305,112.129
102894,136750,7941,-0.042,0.976,0.385,0.488,0.854,0.488,112.135
102900,136848,5203,-0.042,0.975,0.384,0.488,0.854,0.488,112.139
102900,136749,7954,-0.041,0.974,0.385,0.061,0.854,0.366,112.145
102886,136848,5203,-0.041,0.971,0.386,0.061,0.854,0.366,112.149
102886,136743,7947,-0.043,0.974,0.387,0.305,0.732,0.183,112.155
102876,136848,5203,-0.045,0.972,0.385,0.305,0.732,0.183,112.159
102876,136747,7935,-0.045,0.972,0.391,0.061,0.61,0.244,112.165
102882,136848,5203,-0.042,0.969,0.387,0.061,0.61,0.244,112.169
102882,136743,7963,-0.043,0.969,0.377,-0.61,0.488,0.244,112.175
102878,136848,5203,-0.044,0.966,0.375,-0.61,0.488,0.244,112.179
102878,136746,7958,-0.044,0.967,0.381,-0.549,0.366,0.183,112.185
102894,136848,5203,-0.043,0.971,0.38,-0.549,0.366,0.183,112.188
102894,136763,7952,-0.042,0.973,0.376,-0.244,0.305,0.366,112.195
102913,136848,5203,-0.047,0.977,0.38,-0.244,0.305,0.366,112.198
102913,136748,7946,-0.044,0.981,0.388,-0.244,0.305,0.549,112.205
102870,136848,5203,-0.043,0.98,0.387,-0.244,0.305,0.549,112.208
102870,136754,7959,-0.041,0.982,0.385,-0.793,0.305,0.488,112.214
102871,136848,5203,-0.042,0.978,0.386,-0.793,0.305,0.488,112.218
102871,136745,7957,-0.044,0.975,0.385,-0.976,0.427,0.366,112.224
102881,136848,5203,-0.042,0.976,0.386,-0.976,0.427,0.366,112.228
102881,136758,7951,-0.042,0.978,0.387,-0.427,0.488,0.305,112.234
102889,136848,5203,-0.042,0.978,0.382,-0.427,0.488,0.305,112.238
102889,136759,7972,-0.04,0.98,0.38,0.061,0.488,0.305,112.244
102877,136848,5203,-0.038,0.979,0.38,0.061,0.488,0.305,112.248
102877,136753,7958,-0.041,0.975,0.376,0,0.427,0.305,112.254
102870,136848,5203,-0.04,0.975,0.376,0,0.427,0.305,112.258
102870,136729,7951,-0.04,0.978,0.381,0.244,0.366,0.305,112.264
102887,136848,5203,-0.044,0.983,0.382,0.244,0.366,0.305,112.268
102887,136737,7972,-0.043,0.981,0.381,0.488,0.427,0.244,112.274
102881,136848,5203,-0.04,0.979,0.384,0.488,0.427,0.244,112.278
102881,136743,7947,-0.04,0.979,0.383,0.549,0.366,0.244,112.284
102888,136848,5203,-0.042,0.981,0.382,0.549,0.366,0.244,112.287
102888,136751,7933,-0.042,0.98,0.384,-0.061,0.488,0.244,112.294
102886,136848,5203,-0.043,0.973,0.383,-0.061,0.488,0.244,112.297
102886,136746,7940,-0.045,0.971,0.379,-0.488,0.549,0.122,112.303
102890,136848,5203,-0.049,0.971,0.382,-0.488,0.549,0.122,112.307
102890,136770,7946,-0.048,0.97,0.381,-0.122,0.549,0.305,112.313
102873,136848,5203,-0.05,0.972,0.382,-0.122,0.549,0.305,112.317
102873,136761,7959,-0.046,0.979,0.381,0.061,0.366,0.366,112.323
102887,136848,5203,-0.042,0.978,0.382,0.061,0.366,0.366,112.327
102887,136760,7952,-0.042,0.979,0.387,-0.183,0.183,0.244,112.333
102883,136848,5203,-0.042,0.975,0.387,-0.183,0.183,0.244,112.337
102883,136762,7957,-0.042,0.97,0.385,-0.488,0.244,0.244,112.343
102870,136848,5203,-0.045,0.97,0.386,-0.488,0.244,0.244,112.347
102870,136766,7950,-0.045,0.971,0.386,-0.183,0.244,0.305,112.353
102866,136848,5203,-0.044,0.975,0.387,-0.183,0.244,0.305,112.357
102866,136742,7950,-0.043,0.975,0.386,0.061,0.366,0.549,112.363
102883,136848,5203,-0.044,0.978,0.387,0.061,0.366,0.549,112.367
102883,136737,7964,-0.041,0.981,0.388,-0.183,0.427,0.549,112.373
102872,136848,5203,-0.042,0.978,0.387,-0.183,0.427,0.549,112.377
102872,136741,7946,-0.046,0.971,0.388,-0.244,0.488,0.366,112.383
102889,136848,5203,-0.047,0.968,0.386,-0.244,0.488,0.366,112.386
102889,136738,7946,-0.047,0.972,0.385,0.183,0.671,0.427,112.393
102863,136848,5203,-0.043,0.973,0.379,0.183,0.671,0.427,112.396
102863,136732,7954,-0.044,0.976,0.381,0.488,0.549,0.427,112.403
102863,136848,5203,-0.044,0.979,0.377,0.488,0.549,0.427,112.406
102863,136718,7961,-0.042,0.98,0.383,0.488,0.549,0.366,112.412
102838,136848,5203,-0.043,0.979,0.382,0.488,0.549,0.366,112.416
102838,136711,7951,-0.044,0.977,0.379,0.122,0.549,0.366,112.422
102860,136848,5203,-0.043,0.975,0.379,0.122,0.549,0.366,112.426
102860,136713,7945,-0.042,0.975,0.382,-0.061,0.488,0.305,112.432
102852,136848,5203,-0.041,0.975,0.384,-0.061,0.488,0.305,112.436
102852,136721,7953,-0.041,0.975,0.382,0.366,0.366,0.366,112.442
102859,136848,5203,-0.044,0.977,0.384,0.366,0.366,0.366,112.446
102859,136722,7953,-0.044,0.981,0.384,0.915,0.488,0.427,112.452
102851,136848,5203,-0.041,0.981,0.387,0.915,0.488,0.427,112.456
102851,136718,7953,-0.04,0.982,0.386,0.732,0.549,0.549,112.462
102865,136848,5203,-0.041,0.981,0.382,0.732,0.549,0.549,112.466
102865,136711,7961,-0.041,0.98,0.382,0.061,0.366,0.427,112.472
102868,136848,5203,-0.042,0.979,0.385,0.061,0.366,0.427,112.476
102868,136719,7957,-0.04,0.973,0.378,-0.061,0.488,0.366,112.482
102855,136592,5203,-0.04,0.975,0.38,-0.061,0.488,0.366,112.485
102855,136703,7969,-0.042,0.976,0.381,-0.061,0.61,0.366,112.492
102838,136848,5203,-0.041,0.977,0.384,-0.061,0.61,0.366,112.495
102838,136722,7941,-0.042,0.978,0.384,0,0.549,0.427,112.502
102859,136848,5203,-0.042,0.984,0.384,0,0.549,0.427,112.505
102859,136717,7968,-0.041,0.982,0.384,-0.305,0.549,0.366,112.511
102859,136848,5203,-0.041,0.976,0.385,-0.305,0.549,0.366,112.515
102859,136714,7964,-0.042,0.975,0.383,-0.427,0.61,0.244,112.521
102883,136848,5203,-0.046,0.971,0.384,-0.427,0.61,0.244,112.525
102883,136729,7957,-0.043,0.971,0.384,0.061,0.671,0.488,112.531
102863,136848,5203,-0.044,0.979,0.382,0.061,0.671,0.488,112.535
102863,136727,7969,-0.042,0.98,0.38,0.549,0.488,0.488,112.541
102860,136848,5203,-0.04,0.981,0.378,0.549,0.488,0.488,112.545
102860,136734,7961,-0.04,0.981,0.378,0.244,0.427,0.427,112.551
102846,136848,5203,-0.041,0.98,0.381,0.244,0.427,0.427,112.555
102846,136721,7961,-0.042,0.975,0.375,-0.427,0.427,0.366,112.561
102867,136848,5203,-0.042,0.971,0.378,-0.427,0.427,0.366,112.565
102867,136709,7944,-0.038,0.973,0.377,-0.549,0.305,0.366,112.571
102858,136848,5203,-0.038,0.973,0.377,-0.549,0.305,0.366,112.575
102858,136729,7963,-0.041,0.977,0.378,-0.183,0.244,0.244,112.581
102862,136848,5203,-0.041,0.977,0.378,-0.183,0.244,0.244,112.584
102862,136728,7966,-0.04,0.977,0.387,0.122,0.366,0.366,112.591
102851,136848,5203,-0.04,0.977,0.387,0.122,0.366,0.366,112.594
102851,136734,7942,-0.044,0.979,0.382,-0.061,0.488,0.427,112.6
102853,136848,5203,-0.044,0.979,0.382,-0.061,0.488,0.427,112.604
102853,136721,7940,-0.04,0.977,0.384,-0.244,0.488,0.244,112.61
102850,136848,5203,-0.04,0.977,0.384,-0.244,0.488,0.244,112.614
102850,136715,7957,-0.046,0.976,0.382,-0.244,0.549,0.305,112.62
102841,136848,5203,-0.046,0.976,0.382,-0.244,0.549,0.305,112.624
102841,136728,7952,-0.042,0.972,0.382,-0.122,0.549,0.366,112.63
102840,136592,5203,-0.042,0.972,0.382,-0.122,0.549,0.366,112.634
102840,136697,7956,-0.045,0.976,0.383,-0.122,0.427,0.305,112.64
102861,136592,5203,-0.045,0.976,0.383,-0.122,0.427,0.305,112.644
102861,136695,7942,-0.044,0.977,0.385,0.122,0.488,0.366,112.65
102837,136848,5203,-0.044,0.977,0.385,0.122,0.488,0.366,112.654
102837,136706,7956,-0.045,0.979,0.383,-0.061,0.488,0.488,112.66
102853,136848,5203,-0.045,0.979,0.383,-0.061,0.488,0.488,112.664
102853,136707,7947,-0.042,0.977,0.384,-0.244,0.427,0.366,112.67
102868,136848,5203,-0.042,0.977,0.384,-0.244,0.427,0.366,112.674
102868,136740,7953,-0.043,0.979,0.383,-0.122,0.61,0.305,112.68
102856,136848,5203,-0.043,0.979,0.383,-0.122,0.61,0.305,112.683
102856,136714,7938,-0.043,0.981,0.382,-0.122,0.732,0.061,112.69
102862,136848,5203,-0.043,0.981,0.382,-0.122,0.732,0.061,112.693
102862,136713,7948,-0.043,0.972,0.383,-0.244,0.793,0.061,112.7
102852,136848,5203,-0.043,0.972,0.383,-0.244,0.793,0.061,112.703
102852,136713,7938,-0.041,0.972,0.381,0.305,0.732,0.244,112.709
102843,136848,5203,-0.041,0.972,0.381,0.305,0.732,0.244,112.713
102843,136712,7964,-0.042,0.977,0.381,0.305,0.732,0.244,112.719
102854,136848,5203,-0.041,0.976,0.378,0.671,0.61,0.244,112.723
102854,136717,7946,-0.042,0.979,0.378,0.671,0.61,0.244,112.729
102842,136848,5203,-0.042,0.978,0.381,0.244,0.549,0.244,112.733
102842,136706,7948,-0.04,0.979,0.378,0.244,0.549,0.244,112.739
102851,136848,5203,-0.037,0.977,0.384,-0.427,0.427,0.366,112.743
102851,136718,7943,-0.041,0.978,0.381,-0.427,0.427,0.366,112.749
102839,136848,5203,-0.04,0.976,0.385,-0.305,0.488,0.366,112.753
102839,136721,7951,-0.041,0.975,0.389,-0.305,0.488,0.366,112.759
102874,136848,5203,-0.043,0.979,0.387,0.244,0.671,0.488,112.763
102874,136729,7941,-0.044,0.981,0.389,0.244,0.671,0.488,112.769
102848,136848,5203,-0.042,0.981,0.387,0.122,0.732,0.671,112.773
102848,136708,7954,-0.041,0.977,0.387,0.122,0.732,0.671,112.779
102850,136848,5203,-0.045,0.971,0.382,-0.549,0.732,0.488,112.782
102850,136712,7953,-0.049,0.973,0.381,-0.549,0.732,0.488,112.789
102859,136848,5203,-0.049,0.973,0.376,-0.732,0.671,0.427,112.792
102859,136707,7938,-0.046,0.972,0.378,-0.732,0.671,0.427,112.798
102847,136848,5203,-0.049,0.973,0.378,-0.427,0.549,0.427,112.802
102847,136711,7966,-0.049,0.974,0.371,-0.427,0.549,0.427,112.808
102852,136848,5203,-0.048,0.975,0.374,-0.122,0.427,0.488,112.812
102852,136716,7951,-0.049,0.976,0.378,-0.122,0.427,0.488,112.818
102844,136848,5203,-0.047,0.984,0.378,0,0.183,0.488,112.822
102844,136709,7956,-0.048,0.985,0.375,0,0.183,0.488,112.828
102855,136592,5203,-0.044,0.981,0.378,0,0.061,0.366,112.832
102855,136703,7965,-0.044,0.981,0.381,0,0.061,0.366,112.838
102850,136848,5203,-0.041,0.986,0.38,0.122,0,0.305,112.842
102850,136722,7956,-0.038,0.987,0.38,0.122,0,0.305,112.848
102854,136592,5203,-0.037,0.982,0.382,-0.366,0,0.183,112.852
102854,136692,7947,-0.039,0.979,0.384,-0.366,0,0.183,112.858
102874,136592,5203,-0.039,0.979,0.381,-0.61,0.061,0.122,112.862
102874,136695,7938,-0.042,0.979,0.379,-0.61,0.061,0.122,112.868
102850,136848,5203,-0.039,0.978,0.381,-0.488,0.183,0.183,112.872
102850,136705,7953,-0.037,0.982,0.383,-0.488,0.183,0.183,112.878
102836,136848,5203,-0.043,0.98,0.383,-0.183,0.244,0.305,112.881
102836,136705,7951,-0.042,0.976,0.384,-0.183,0.244,0.305,112.888
102845,136592,5203,-0.042,0.971,0.387,-0.427,0.427,0.427,112.891
102845,136702,7947,-0.04,0.97,0.386,-0.427,0.427,0.427,112.898
102844,136592,5203,-0.042,0.973,0.387,-0.305,0.549,0.427,112.901
102844,136702,7969,-0.042,0.972,0.387,-0.305,0.549,0.427,112.907
102848,136592,5203,-0.043,0.97,0.387,0,0.61,0.488,112.911
102848,136697,7944,-0.043,0.971,0.387,0,0.61,0.488,112.917
102852,136592,5203,-0.041,0.973,0.387,0,0.488,0.488,112.921
102852,136699,7948,-0.045,0.973,0.388,0,0.488,0.488,112.927
102839,136848,5203,-0.045,0.971,0.387,-0.061,0.488,0.244,112.931
102839,136704,7946,-0.042,0.969,0.389,-0.061,0.488,0.244,112.937
102845,136848,5203,-0.045,0.969,0.388,-0.183,0.488,0.305,112.941
102845,136705,7962,-0.05,0.97,0.382,-0.183,0.488,0.305,112.947
102864,136592,5203,-0.044,0.974,0.38,-0.427,0.488,0.61,112.951
102864,136692,7946,-0.04,0.977,0.38,-0.427,0.488,0.61,112.957
102825,136592,5203,-0.041,0.983,0.381,-0.305,0.305,0.488,112.961
102825,136697,7960,-0.044,0.984,0.382,-0.305,0.305,0.488,112.967
102808,136592,5203,-0.043,0.981,0.382,-0.488,0.427,0.427,112.971
102808,136678,7958,-0.041,0.978,0.376,-0.488,0.427,0.427,112.977
102820,136592,5203,-0.041,0.979,0.378,-0.671,0.366,0.427,112.98
102820,136676,7953,-0.043,0.977,0.376,-0.671,0.366,0.427,112.987
102808,136592,5203,-0.042,0.979,0.377,0.122,0.549,0.366,112.99
102808,136669,7946,-0.039,0.979,0.373,0.122,0.549,0.366,112.996
102809,136592,5203,-0.039,0.981,0.376,0.427,0.549,0.488,113
102809,136666,7944,-0.039,0.982,0.379,0.427,0.549,0.488,113.006
102814,136592,5203,-0.039,0.978,0.38,0.305,0.61,0.305,113.01
102814,136670,7943,-0.042,0.978,0.379,0.305,0.61,0.305,113.016
102812,136592,5203,-0.044,0.979,0.377,0.122,0.732,0.488,113.02
102812,136675,7949,-0.044,0.982,0.373,0.122,0.732,0.488,113.026
102803,136592,5203,-0.044,0.985,0.378,-0.183,0.549,0.488,113.03
102803,136660,7946,-0.045,0.98,0.38,-0.183,0.549,0.488,113.036
102793,136592,5203,-0.047,0.976,0.382,-0.244,0.427,0.244,113.04
102793,136654,7949,-0.048,0.974,0.38,-0.244,0.427,0.244,113.046
102814,136592,5203,-0.05,0.974,0.378,0.183,0.427,0.305,113.05
102814,136664,7933,-0.049,0.973,0.375,0.183,0.427,0.305,113.056
102817,136592,5203,-0.048,0.974,0.374,0.427,0.183,0.366,113.06
102817,136670,7950,-0.048,0.98,0.378,0.427,0.183,0.366,113.066
102822,136592,5203,-0.041,0.986,0.379,0.122,-0.061,0.244,113.069
102822,136682,7952,-0.04,0.98,0.384,0.122,-0.061,0.244,113.076
102838,136592,5203,-0.04,0.969,0.388,-0.732,-0.061,0,113.079
102838,136684,7957,-0.042,0.966,0.384,-0.732,-0.061,0,113.086
102851,136848,5203,-0.041,0.97,0.387,-0.488,-0.061,0.183,113.089
102851,136708,7959,-0.042,0.974,0.385,-0.488,-0.061,0.183,113.095
102836,136592,5203,-0.041,0.977,0.386,-0.183,0.061,0.244,113.099
102836,136671,7951,-0.039,0.98,0.388,-0.183,0.061,0.244,113.105
102831,136592,5203,-0.041,0.975,0.393,-0.488,0.122,0.183,113.109
102831,136684,7951,-0.041,0.971,0.391,-0.488,0.122,0.183,113.115
102838,136592,5203,-0.042,0.968,0.385,-0.732,0.305,0.366,113.119
102838,136691,7958,-0.044,0.97,0.384,-0.732,0.305,0.366,113.125
102842,136592,5203,-0.045,0.973,0.39,-0.244,0.488,0.61,113.129
102842,136668,7951,-0.043,0.976,0.386,-0.244,0.488,0.61,113.135
102833,136592,5203,-0.045,0.983,0.385,0.183,0.488,0.61,113.139
102833,136686,7967,-0.045,0.983,0.384,0.183,0.488,0.61,113.145
102829,136592,5203,-0.047,0.976,0.385,-0.061,0.61,0.488,113.149
102829,136691,7950,-0.043,0.972,0.385,-0.061,0.61,0.488,113.155
102808,136592,5203,-0.043,0.972,0.385,-0.061,0.61,0.488,113.159
102808,136657,7956,-0.047,0.975,0.383,-0.061,0.671,0.305,113.165
102796,136592,5203,-0.047,0.975,0.383,-0.061,0.671,0.305,113.169
102796,136663,7961,-0.043,0.979,0.38,0.305,0.793,0.366,113.175
102798,136592,5203,-0.043,0.979,0.38,0.305,0.793,0.366,113.178
102798,136659,7945,-0.04,0.983,0.38,0.732,0.793,0.366,113.185
102815,136592,5203,-0.04,0.983,0.38,0.732,0.793,0.366,113.188
102815,136652,7944,-0.042,0.973,0.38,0.244,0.793,0.427,113.194
102801,136592,5203,-0.042,0.973,0.38,0.244,0.793,0.427,113.198
102801,136667,7959,-0.044,0.972,0.375,-0.427,0.549,0.427,113.204
102800,136592,5203,-0.044,0.972,0.375,-0.427,0.549,0.427,113.208
102800,136666,7935,-0.043,0.98,0.374,-0.305,0.549,0.549,113.214
102813,136592,5203,-0.043,0.98,0.374,-0.305,0.549,0.549,113.218
102813,136661,7946,-0.042,0.984,0.38,0.122,0.244,0.427,113.224
102813,136592,5203,-0.042,0.984,0.38,0.122,0.244,0.427,113.228
102813,136673,7948,-0.043,0.98,0.38,-0.305,0.305,0.427,113.234
102798,136592,5203,-0.043,0.98,0.38,-0.305,0.305,0.427,113.238
102798,136653,7952,-0.043,0.974,0.381,-0.427,0.305,0.366,113.244
102800,136592,5203,-0.043,0.974,0.381,-0.427,0.305,0.366,113.248
102800,136673,7950,-0.042,0.975,0.383,-0.305,0.244,0.183,113.254
102798,136592,5203,-0.042,0.975,0.383,-0.305,0.244,0.183,113.258
102798,136663,7952,-0.044,0.971,0.38,-0.122,0.122,0.244,113.264
102798,136592,5203,-0.044,0.971,0.38,-0.122,0.122,0.244,113.268
102798,136655,7963,-0.041,0.976,0.38,0.183,0.183,0.366,113.274
102783,136592,5203,-0.041,0.976,0.38,0.183,0.183,0.366,113.277
102783,136652,7962,-0.043,0.981,0.385,0.244,0.122,0.305,113.284
102805,136592,5203,-0.043,0.981,0.385,0.244,0.122,0.305,113.287
102805,136659,7931,-0.043,0.974,0.38,-0.122,0.244,0.427,113.293
102796,136592,5203,-0.043,0.974,0.38,-0.122,0.244,0.427,113.297
102796,136645,7939,-0.041,0.973,0.382,-0.793,0.305,0.427,113.303
102792,136592,5203,-0.044,0.97,0.384,-0.793,0.305,0.427,113.307
102792,136633,7952,-0.043,0.974,0.381,-0.427,0.305,0.488,113.313
102779,136592,5203,-0.043,0.979,0.382,-0.427,0.305,0.488,113.317
102779,136634,7938,-0.041,0.979,0.388,0.061,0.488,0.488,113.323
102778,136592,5203,-0.042,0.981,0.388,0.061,0.488,0.488,113.327
102778,136627,7952,-0.043,0.981,0.386,0.122,0.671,0.427,113.333
102758,136592,5203,-0.044,0.976,0.384,0.122,0.671,0.427,113.337
102758,136643,7949,-0.044,0.976,0.384,-0.244,0.549,0.488,113.343
102764,136592,5203,-0.044,0.975,0.38,-0.244,0.549,0.488,113.347
102764,136624,7938,-0.045,0.977,0.381,-0.244,0.427,0.366,113.353
102752,136592,5203,-0.043,0.977,0.379,-0.244,0.427,0.366,113.357
102752,136632,7933,-0.041,0.975,0.379,-0.122,0.488,0.305,113.363
102747,136592,5203,-0.043,0.973,0.38,-0.122,0.488,0.305,113.366
102747,136623,7946,-0.043,0.978,0.384,0.244,0.549,0.427,113.373
102776,136592,5203,-0.042,0.982,0.383,0.244,0.549,0.427,113.376
102776,136607,7943,-0.044,0.982,0.378,0,0.488,0.427,113.383
102719,136592,5203,-0.042,0.982,0.382,0,0.488,0.427,113.386
102719,136624,7955,-0.042,0.979,0.382,-0.488,0.427,0.366,113.392
102754,136592,5203,-0.044,0.977,0.383,-0.488,0.427,0.366,113.396
102754,136606,7956,-0.045,0.975,0.378,-0.61,0.549,0.427,113.402
102754,136592,5203,-0.039,0.978,0.38,-0.61,0.549,0.427,113.406
102754,136637,7953,-0.041,0.978,0.383,-0.244,0.427,0.488,113.412
102763,136592,5203,-0.042,0.978,0.381,-0.244,0.427,0.488,113.416
102763,136621,7934,-0.041,0.98,0.376,0.244,0.427,0.549,113.422
102766,136592,5203,-0.042,0.98,0.38,0.244,0.427,0.549,113.426
102766,136637,7951,-0.042,0.98,0.385,0.366,0.549,0.366,113.432
102767,136592,5203,-0.042,0.979,0.383,0.366,0.549,0.366,113.436
102767,136622,7939,-0.046,0.974,0.383,-0.305,0.549,0.488,113.442
102754,136592,5203,-0.047,0.971,0.379,-0.305,0.549,0.488,113.446
102754,136629,7931,-0.044,0.975,0.378,-0.671,0.488,0.366,113.452
102749,136592,5203,-0.044,0.976,0.381,-0.671,0.488,0.366,113.456
102749,136618,7937,-0.046,0.975,0.38,-0.366,0.488,0.366,113.462
102752,136592,5203,-0.047,0.975,0.379,-0.366,0.488,0.366,113.466
102752,136620,7926,-0.046,0.975,0.379,0,0.549,0.366,113.472
102770,136592,5203,-0.044,0.978,0.381,0,0.549,0.366,113.475
102770,136619,7945,-0.046,0.979,0.382,-0.427,0.549,0.366,113.482
102760,136592,5203,-0.048,0.976,0.382,-0.427,0.549,0.366,113.485
102760,136638,7957,-0.045,0.977,0.378,-0.488,0.488,0.305,113.491
102771,136592,5203,-0.048,0.977,0.378,-0.488,0.488,0.305,113.495
102771,136620,7939,-0.044,0.976,0.382,-0.122,0.366,0.305,113.501
102765,136592,5203,-0.041,0.981,0.382,-0.122,0.366,0.305,113.505
102765,136607,7941,-0.042,0.983,0.383,-0.061,0.366,0.427,113.511
102731,136592,5203,-0.044,0.979,0.38,-0.061,0.366,0.427,113.515
102731,136624,7945,-0.044,0.978,0.381,-0.244,0.427,0.488,113.521
102744,136592,5203,-0.043,0.98,0.379,-0.244,0.427,0.488,113.525
102744,136612,7945,-0.041,0.978,0.378,-0.305,0.244,0.366,113.531
102752,136592,5203,-0.041,0.975,0.375,-0.305,0.244,0.366,113.535
102752,136616,7944,-0.04,0.972,0.379,-0.427,0.244,0.244,113.541
102753,136592,5203,-0.041,0.973,0.383,-0.427,0.244,0.244,113.545
102753,136626,7949,-0.044,0.968,0.379,-0.488,0.244,0.305,113.551
102751,136592,5203,-0.042,0.968,0.382,-0.488,0.244,0.305,113.555
102751,136624,7951,-0.044,0.972,0.381,0.183,0.122,0.427,113.561
102757,136592,5203,-0.044,0.977,0.377,0.183,0.122,0.427,113.564
102757,136620,7947,-0.047,0.983,0.376,0.854,0.183,0.549,113.571
102765,136592,5203,-0.046,0.981,0.378,0.854,0.183,0.549,113.574
102765,136636,7931,-0.046,0.981,0.378,0.366,-0.122,0.488,113.581
102764,136592,5203,-0.045,0.981,0.379,0.366,-0.122,0.488,113.584
102764,136645,7946,-0.042,0.98,0.383,-0.305,-0.183,0.427,113.59
102775,136592,5203,-0.039,0.981,0.383,-0.305,-0.183,0.427,113.594
102775,136622,7952,-0.037,0.977,0.381,-0.305,-0.061,0.183,113.6
102769,136592,5203,-0.039,0.978,0.384,-0.305,-0.061,0.183,113.604
102769,136630,7928,-0.041,0.98,0.385,0.061,0.183,0.244,113.61
102793,136592,5203,-0.041,0.979,0.384,0.061,0.183,0.244,113.614
102793,136643,7949,-0.043,0.985,0.382,0.244,0.488,0.366,113.62
102764,136592,5203,-0.039,0.982,0.386,0.244,0.488,0.366,113.624
102764,136648,7949,-0.04,0.979,0.385,-0.183,0.488,0.305,113.63
102767,136592,5203,-0.041,0.974,0.385,-0.183,0.488,0.305,113.634
102767,136655,7938,-0.043,0.972,0.381,-0.427,0.671,0.366,113.64
102770,136592,5203,-0.046,0.974,0.383,-0.427,0.671,0.366,113.644
102770,136646,7937,-0.043,0.976,0.381,-0.305,0.854,0.427,113.65
102766,136592,5203,-0.044,0.977,0.38,-0.305,0.854,0.427,113.654
102766,136651,7949,-0.042,0.975,0.378,-0.244,0.732,0.305,113.66
102781,136592,5203,-0.043,0.969,0.379,-0.244,0.732,0.305,113.663
102781,136635,7960,-0.045,0.971,0.383,-0.366,0.671,0.427,113.67
102768,136592,5203,-0.043,0.974,0.38,-0.366,0.671,0.427,113.673
102768,136648,7955,-0.045,0.973,0.381,-0.366,0.488,0.427,113.68
102777,136592,5203,-0.043,0.972,0.386,-0.366,0.488,0.427,113.683
102777,136647,7945,-0.041,0.974,0.384,-0.122,0.427,0.305,113.689
102766,136592,5203,-0.047,0.973,0.384,-0.122,0.427,0.305,113.693
102766,136653,7933,-0.044,0.977,0.383,0.061,0.488,0.427,113.699
102789,136592,5203,-0.043,0.98,0.386,0.061,0.488,0.427,113.703
102789,136632,7959,-0.042,0.98,0.39,-0.305,0.427,0.366,113.709
102786,136592,5203,-0.04,0.978,0.384,-0.305,0.427,0.366,113.713
102786,136630,7959,-0.043,0.976,0.388,-0.732,0.549,0.488,113.719
102781,136592,5203,-0.044,0.978,0.384,-0.732,0.549,0.488,113.723
102781,136661,7952,-0.044,0.975,0.38,-0.671,0.61,0.488,113.729
102781,136592,5203,-0.046,0.976,0.38,-0.671,0.61,0.488,113.733
102781,136651,7954,-0.046,0.975,0.378,0.122,0.61,0.488,113.739
102788,136592,5203,-0.046,0.975,0.378,0.122,0.61,0.488,113.743
102788,136653,7943,-0.044,0.983,0.382,0.549,0.671,0.488,113.749
102795,136592,5203,-0.044,0.983,0.382,0.549,0.671,0.488,113.753
102795,136636,7942,-0.039,0.977,0.371,0.061,0.488,0.366,113.759
102774,136592,5203,-0.039,0.977,0.371,0.061,0.488,0.366,113.762
102774,136665,7948,-0.044,0.976,0.377,-0.427,0.427,0.305,113.769
102799,136592,5203,-0.044,0.976,0.377,-0.427,0.427,0.305,113.772
102799,136644,7952,-0.041,0.979,0.38,-0.122,0.244,0.122,113.779
102775,136592,5203,-0.041,0.979,0.38,-0.122,0.244,0.122,113.782
102775,136659,7947,-0.038,0.978,0.382,-0.061,0.305,0.244,113.788
102787,136592,5203,-0.038,0.978,0.382,-0.061,0.305,0.244,113.792
102787,136672,7928,-0.045,0.976,0.379,-0.488,0.305,0.305,113.798
102771,136592,5203,-0.045,0.976,0.379,-0.488,0.305,0.305,113.802
102771,136653,7947,-0.044,0.975,0.378,-0.427,0.244,0.305,113.808
102786,136592,5203,-0.044,0.975,0.378,-0.427,0.244,0.305,113.812
102786,136679,7946,-0.045,0.974,0.38,0,0.305,0.244,113.818
102774,136592,5203,-0.045,0.974,0.38,0,0.305,0.244,113.822
102774,136660,7954,-0.043,0.977,0.379,0.183,0.244,0.366,113.828
102798,136592,5203,-0.043,0.977,0.379,0.183,0.244,0.366,113.832
102798,136682,7951,-0.044,0.975,0.384,-0.122,0.122,0.427,113.838
102806,136592,5203,-0.044,0.975,0.384,-0.122,0.122,0.427,113.842
102806,136672,7946,-0.045,0.978,0.384,-0.305,0,0.366,113.848
102805,136592,5203,-0.045,0.978,0.384,-0.305,0,0.366,113.852
102805,136683,7932,-0.043,0.978,0.386,-0.183,0.061,0.244,113.858
102833,136592,5203,-0.043,0.978,0.386,-0.183,0.061,0.244,113.861
102833,136690,7951,-0.044,0.98,0.384,-0.183,0.061,0.488,113.868
102789,136592,5203,-0.044,0.98,0.384,-0.183,0.061,0.488,113.871
102789,136698,7954,-0.047,0.972,0.384,-0.671,0.122,0.549,113.878
102815,136592,5203,-0.047,0.972,0.384,-0.671,0.122,0.549,113.881
102815,136662,7956,-0.047,0.976,0.383,-0.671,0.122,0.549,113.887
102794,136592,5203,-0.044,0.978,0.381,-0.793,0.244,0.366,113.891
102794,136693,7942,-0.047,0.978,0.381,-0.793,0.244,0.366,113.897
102785,136592,5203,-0.044,0.975,0.382,-0.427,0.366,0.183,113.901
102785,136664,7952,-0.044,0.973,0.385,-0.427,0.366,0.183,113.907
102786,136592,5203,-0.043,0.973,0.383,0.122,0.549,0.366,113.911
102786,136679,7965,-0.045,0.975,0.383,0.122,0.549,0.366,113.917
102790,136592,5203,-0.042,0.973,0.386,0.061,0.61,0.488,113.921
102790,136682,7953,-0.042,0.974,0.386,0.061,0.61,0.488,113.927
102797,136592,5203,-0.042,0.975,0.389,0.183,0.488,0.427,113.931
102797,136663,7950,-0.042,0.977,0.382,0.183,0.488,0.427,113.937
102821,136592,5203,-0.041,0.98,0.384,0.305,0.488,0.366,113.941
102821,136669,7950,-0.039,0.976,0.384,0.305,0.488,0.366,113.947
102807,136592,5203,-0.041,0.977,0.379,0.305,0.61,0.427,113.951
102807,136663,7954,-0.041,0.977,0.373,0.305,0.61,0.427,113.957
102770,136592,5203,-0.041,0.975,0.377,0.061,0.427,0.427,113.96
102770,136658,7946,-0.04,0.972,0.379,0.061,0.427,0.427,113.967
102797,136592,5203,-0.043,0.974,0.38,0,0.427,0.488,113.97
102797,136664,7944,-0.042,0.978,0.384,0,0.427,0.488,113.977
102772,136592,5203,-0.044,0.98,0.382,0.244,0.488,0.61,113.98
102772,136665,7939,-0.045,0.983,0.383,0.244,0.488,0.61,113.986
102812,136592,5203,-0.042,0.986,0.381,0.305,0.427,0.427,113.99
102812,136663,7958,-0.043,0.986,0.383,0.305,0.427,0.427,113.996
102808,136592,5203,-0.043,0.979,0.382,-0.305,0.305,0.183,114
102808,136678,7955,-0.042,0.973,0.378,-0.305,0.305,0.183,114.006
102805,136592,5203,-0.044,0.972,0.377,-0.854,0.427,0.183,114.01
102805,136679,7943,-0.045,0.97,0.378,-0.854,0.427,0.183,114.016
102829,136592,5203,-0.039,0.973,0.385,-0.61,0.427,0.244,114.02
102829,136676,7956,-0.042,0.974,0.387,-0.61,0.427,0.244,114.026
102828,136592,5203,-0.042,0.977,0.382,-0.061,0.305,0.488,114.03
102828,136679,7945,-0.038,0.979,0.381,-0.061,0.305,0.488,114.036
102828,136592,5203,-0.042,0.98,0.385,0.061,0.427,0.61,114.04
102828,136686,7959,-0.041,0.98,0.384,0.061,0.427,0.61,114.046
102845,136592,5203,-0.038,0.98,0.38,-0.671,0.427,0.488,114.05
102845,136690,7950,-0.04,0.976,0.375,-0.671,0.427,0.488,114.056
102830,136848,5203,-0.043,0.973,0.377,-0.793,0.244,0.427,114.059
102830,136713,7955,-0.041,0.973,0.375,-0.793,0.244,0.427,114.066
102838,136592,5203,-0.042,0.978,0.381,0,0.183,0.366,114.069
102838,136681,7951,-0.043,0.98,0.383,0,0.183,0.366,114.076
102842,136592,5203,-0.041,0.982,0.385,0.122,0.183,0.305,114.079
102842,136700,7948,-0.041,0.982,0.385,0.122,0.183,0.305,114.085
102846,136592,5203,-0.044,0.979,0.382,-0.122,0.183,0.427,114.089
102846,136696,7961,-0.041,0.979,0.384,-0.122,0.183,0.427,114.095
102840,136848,5203,-0.044,0.974,0.388,-0.427,0.305,0.427,114.099
102840,136708,7965,-0.043,0.976,0.384,-0.427,0.305,0.427,114.105
102869,136592,5203,-0.045,0.972,0.383,-0.488,0.183,0.305,114.109
102869,136699,7953,-0.043,0.971,0.384,-0.488,0.183,0.305,114.115
102841,136848,5203,-0.042,0.973,0.382,0,0.305,0.427,114.119
102841,136724,7949,-0.046,0.974,0.383,0,0.305,0.427,114.125
102854,136848,5203,-0.043,0.977,0.382,0.366,0.427,0.671,114.129
102854,136706,7963,-0.041,0.979,0.387,0.366,0.427,0.671,114.135
102844,136592,5203,-0.041,0.978,0.383,0,0.366,0.671,114.139
102844,136702,7959,-0.04,0.979,0.384,0,0.366,0.671,114.145
102844,136848,5203,-0.04,0.975,0.382,-0.427,0.366,0.488,114.149
102844,136724,7962,-0.043,0.977,0.381,-0.427,0.366,0.488,114.155
102868,136848,5203,-0.044,0.977,0.381,-0.244,0.305,0.427,114.158
102868,136731,7970,-0.044,0.978,0.379,-0.244,0.305,0.427,114.165
102858,136848,5203,-0.043,0.985,0.381,-0.122,0.305,0.427,114.168
102858,136718,7951,-0.041,0.983,0.384,-0.122,0.305,0.427,114.175
102849,136848,5203,-0.042,0.976,0.38,-0.366,0.305,0.427,114.178
102849,136706,7949,-0.042,0.974,0.381,-0.366,0.305,0.427,114.184
102846,136592,5203,-0.042,0.976,0.381,-0.305,0.244,0.427,114.188
102846,136691,7966,-0.045,0.976,0.38,-0.305,0.244,0.427,114.194
102848,136592,5203,-0.044,0.98,0.377,0.305,0.366,0.488,114.198
102848,136702,7964,-0.043,0.982,0.382,0.305,0.366,0.488,114.204
102843,136848,5203,-0.044,0.983,0.383,0.305,0.305,0.488,114.208
102843,136707,7954,-0.042,0.976,0.38,0.305,0.305,0.488,114.214
102859,136848,5203,-0.041,0.973,0.377,-0.427,0.183,0.366,114.218
102859,136713,7954,-0.044,0.971,0.376,-0.427,0.183,0.366,114.224
102846,136848,5203,-0.045,0.973,0.377,-0.488,0.305,0.244,114.228
102846,136714,7959,-0.043,0.979,0.377,-0.488,0.305,0.244,114.234
102867,136848,5203,-0.043,0.979,0.382,-0.366,0.244,0.366,114.238
102867,136725,7952,-0.044,0.975,0.385,-0.366,0.244,0.366,114.244
102854,136848,5203,-0.044,0.977,0.382,-0.244,0.244,0.427,114.248
102854,136732,7943,-0.043,0.972,0.385,-0.244,0.244,0.427,114.254
102849,136848,5203,-0.045,0.974,0.378,-0.244,0.366,0.366,114.257
102849,136726,7957,-0.044,0.978,0.378,-0.244,0.366,0.366,114.264
102842,136848,5203,-0.042,0.976,0.382,0,0.305,0.427,114.267
102842,136720,7959,-0.042,0.976,0.383,0,0.305,0.427,114.274
102847,136848,5203,-0.041,0.98,0.382,0.061,0.305,0.488,114.277
102847,136715,7947,-0.043,0.981,0.381,0.061,0.305,0.488,114.283
102855,136848,5203,-0.039,0.975,0.381,0,0.366,0.366,114.287
102855,136705,7962,-0.036,0.976,0.38,0,0.366,0.366,114.293
102821,136592,5203,-0.041,0.976,0.379,-0.183,0.305,0.244,114.297
102821,136703,7969,-0.044,0.975,0.379,-0.183,0.305,0.244,114.303
102853,136848,5203,-0.042,0.976,0.378,-0.061,0.366,0.305,114.307
102853,136709,7964,-0.043,0.975,0.381,-0.061,0.366,0.305,114.313
102823,136848,5203,-0.041,0.974,0.386,0.122,0.244,0.366,114.317
102823,136716,7972,-0.039,0.973,0.384,0.122,0.244,0.366,114.323
102840,136848,5203,-0.039,0.973,0.384,0.122,0.244,0.366,114.327
102840,136704,7958,-0.043,0.975,0.382,0.122,0.244,0.427,114.333
102864,136848,5203,-0.043,0.975,0.382,0.122,0.244,0.427,114.337
102864,136728,7967,-0.046,0.98,0.38,0,0.305,0.488,114.343
102850,136848,5203,-0.046,0.98,0.38,0,0.305,0.488,114.347
102850,136725,7961,-0.047,0.978,0.384,-0.183,0.122,0.366,114.353
102859,136848,5203,-0.047,0.978,0.384,-0.183,0.122,0.366,114.356
102859,136705,7949,-0.042,0.975,0.379,-0.366,0.122,0.488,114.363
102862,136848,5203,-0.042,0.975,0.379,-0.366,0.122,0.488,114.366
102862,136708,7972,-0.041,0.983,0.377,-0.122,0.061,0.427,114.373
102835,136592,5203,-0.041,0.983,0.377,-0.122,0.061,0.427,114.376
102835,136696,7963,-0.042,0.988,0.382,0.366,0.061,0.244,114.382
102850,136592,5203,-0.042,0.988,0.382,0.366,0.061,0.244,114.386
102850,136689,7944,-0.042,0.984,0.382,0.305,0.305,0.366,114.392
102857,136848,5203,-0.042,0.984,0.382,0.305,0.305,0.366,114.396
102857,136721,7956,-0.043,0.977,0.383,-0.488,0.488,0.427,114.402
102830,136848,5203,-0.043,0.977,0.383,-0.488,0.488,0.427,114.406
102830,136720,7962,-0.042,0.975,0.38,-0.366,0.61,0.305,114.412
102837,136848,5203,-0.042,0.975,0.38,-0.366,0.61,0.305,114.416
102837,136712,7964,-0.042,0.977,0.383,0.366,0.793,0.366,114.422
102853,136848,5203,-0.042,0.977,0.383,0.366,0.793,0.366,114.426
102853,136736,7970,-0.041,0.978,0.38,0.671,0.732,0.488,114.432
102844,136848,5203,-0.041,0.978,0.38,0.671,0.732,0.488,114.436
102844,136712,7970,-0.047,0.976,0.381,0.244,0.488,0.427,114.442
102848,136848,5203,-0.047,0.976,0.381,0.244,0.488,0.427,114.446
102848,136715,7961,-0.044,0.971,0.378,-0.366,0.549,0.366,114.452
102855,136848,5203,-0.044,0.971,0.378,-0.366,0.549,0.366,114.455
102855,136733,7956,-0.043,0.977,0.383,-0.671,0.305,0.427,114.462
102884,136848,5203,-0.043,0.977,0.383,-0.671,0.305,0.427,114.465
102884,136722,7968,-0.039,0.976,0.385,-0.549,0.122,0.366,114.472
102855,136848,5203,-0.037,0.977,0.383,-0.549,0.122,0.366,114.475
102855,136736,7969,-0.038,0.976,0.381,-0.366,0.122,0.427,114.481
102865,136848,5203,-0.044,0.975,0.384,-0.366,0.122,0.427,114.485
102865,136740,7979,-0.043,0.974,0.381,-0.244,0.305,0.488,114.491
102864,136848,5203,-0.041,0.976,0.385,-0.244,0.305,0.488,114.495
102864,136752,7970,-0.042,0.975,0.383,-0.122,0.305,0.305,114.501
102885,136848,5203,-0.043,0.975,0.383,-0.122,0.305,0.305,114.505
102885,136761,7962,-0.044,0.976,0.385,-0.061,0.427,0.366,114.511
102874,136848,5203,-0.045,0.978,0.384,-0.061,0.427,0.366,114.515
102874,136742,7976,-0.043,0.977,0.382,-0.305,0.488,0.427,114.521
102888,136848,5203,-0.042,0.981,0.379,-0.305,0.488,0.427,114.525
102888,136747,7948,-0.043,0.979,0.377,-0.488,0.488,0.366,114.531
102878,136848,5203,-0.043,0.979,0.378,-0.488,0.488,0.366,114.535
102878,136745,7957,-0.043,0.978,0.381,-0.549,0.366,0.305,114.541
102873,136848,5203,-0.04,0.982,0.379,-0.549,0.366,0.305,114.545
102873,136751,7965,-0.041,0.981,0.378,-0.671,0.366,0.366,114.551
102874,136848,5203,-0.042,0.981,0.378,-0.671,0.366,0.366,114.554
102874,136753,7974,-0.043,0.977,0.38,-0.427,0.488,0.427,114.561
102910,136848,5203,-0.041,0.981,0.379,-0.427,0.488,0.427,114.564
102910,136764,7974,-0.041,0.983,0.383,-0.244,0.427,0.488,114.57
102894,136848,5203,-0.042,0.982,0.382,-0.244,0.427,0.488,114.574
102894,136764,7974,-0.043,0.977,0.38,-0.305,0.488,0.305,114.58
102896,136848,5203,-0.046,0.976,0.379,-0.305,0.488,0.305,114.584
102896,136749,7951,-0.046,0.974,0.38,-0.427,0.366,0.488,114.59
102889,136848,5203,-0.045,0.974,0.382,-0.427,0.366,0.488,114.594
102889,136746,7966,-0.043,0.976,0.377,-0.366,0.305,0.305,114.6
102886,136848,5203,-0.041,0.978,0.385,-0.366,0.305,0.305,114.604
102886,136759,7969,-0.044,0.979,0.385,-0.122,0.244,0.183,114.61
102889,136848,5203,-0.042,0.977,0.385,-0.122,0.244,0.183,114.614
102889,136767,7973,-0.04,0.974,0.387,-0.366,0.305,0.366,114.62
102883,136848,5203,-0.037,0.97,0.389,-0.366,0.305,0.366,114.624
102883,136746,7978,-0.039,0.971,0.385,-0.732,0.366,0.549,114.63
102874,136848,5203,-0.038,0.974,0.384,-0.732,0.366,0.549,114.634
102874,136736,7971,-0.038,0.977,0.382,-0.488,0.427,0.61,114.64
102893,136848,5203,-0.039,0.977,0.385,-0.488,0.427,0.61,114.644
102893,136745,7972,-0.04,0.978,0.383,-0.427,0.488,0.549,114.65
102870,136848,5203,-0.041,0.977,0.384,-0.427,0.488,0.549,114.653
102870,136765,7958,-0.041,0.971,0.386,-0.488,0.671,0.427,114.66
102885,136848,5203,-0.044,0.969,0.385,-0.488,0.671,0.427,114.663
102885,136734,7952,-0.049,0.97,0.382,-0.366,0.671,0.549,114.67
102878,136848,5203,-0.049,0.971,0.38,-0.366,0.671,0.549,114.673
102878,136737,7954,-0.052,0.971,0.384,-0.183,0.549,0.488,114.679
102868,136848,5203,-0.053,0.977,0.386,-0.183,0.549,0.488,114.683
102868,136734,7950,-0.053,0.981,0.389,0.183,0.427,0.366,114.689
102879,136848,5203,-0.053,0.979,0.388,0.183,0.427,0.366,114.693
102879,136740,7961,-0.05,0.975,0.382,0.427,0.366,0.244,114.699
102878,136848,5203,-0.051,0.977,0.378,0.427,0.366,0.244,114.703
102878,136732,7961,-0.051,0.979,0.374,0.366,0.061,0.244,114.709
102862,136848,5203,-0.045,0.976,0.378,0.366,0.061,0.244,114.713
102862,136738,7974,-0.042,0.975,0.378,0.305,-0.122,0.183,114.719
102889,136848,5203,-0.04,0.977,0.374,0.305,-0.122,0.183,114.723
102889,136732,7959,-0.038,0.976,0.376,0.366,0,0.122,114.729
102863,136848,5203,-0.038,0.977,0.38,0.366,0,0.122,114.733
102863,136738,7959,-0.032,0.98,0.379,0.183,-0.183,0.305,114.739
102871,136848,5203,-0.03,0.984,0.383,0.183,-0.183,0.305,114.743
102871,136744,7954,-0.029,0.986,0.383,0.305,-0.122,0.305,114.749
102847,136848,5203,-0.028,0.987,0.382,0.305,-0.122,0.305,114.752
102847,136720,7974,-0.028,0.987,0.385,0.061,0.061,0.427,114.759
102855,136848,5203,-0.029,0.985,0.384,0.061,0.061,0.427,114.762
102855,136739,7963,-0.031,0.979,0.384,-0.549,0.183,0.427,114.768
102858,136848,5203,-0.032,0.977,0.384,-0.549,0.183,0.427,114.772
102858,136732,7959,-0.037,0.976,0.384,-0.61,0.427,0.366,114.778
102882,136848,5203,-0.034,0.976,0.385,-0.61,0.427,0.366,114.782
102882,136717,7968,-0.038,0.975,0.386,0.061,0.671,0.305,114.788
102881,136848,5203,-0.043,0.975,0.385,0.061,0.671,0.305,114.792
102881,136755,7970,-0.043,0.975,0.383,0.366,0.732,0.488,114.798
102880,136848,5203,-0.045,0.97,0.388,0.366,0.732,0.488,114.802
102880,136750,7965,-0.046,0.969,0.389,0,0.854,0.61,114.808
102877,136848,5203,-0.048,0.972,0.388,0,0.854,0.61,114.812
102877,136753,7960,-0.048,0.973,0.391,-0.366,0.854,0.61,114.818
102878,136848,5203,-0.048,0.972,0.39,-0.366,0.854,0.61,114.822
102878,136746,7945,-0.049,0.973,0.388,-0.244,1.037,0.61,114.828
102844,136848,5203,-0.046,0.974,0.382,-0.244,1.037,0.61,114.832
102844,136743,7963,-0.044,0.976,0.381,0,1.037,0.671,114.838
102850,136848,5203,-0.045,0.977,0.383,0,1.037,0.671,114.841
102850,136733,7957,-0.041,0.976,0.386,0.183,1.037,0.488,114.848
102858,136848,5203,-0.042,0.976,0.382,0.183,1.037,0.488,114.851
102858,136754,7955,-0.042,0.975,0.377,0.122,1.159,0.427,114.858
102876,136848,5203,-0.043,0.974,0.376,0.122,1.159,0.427,114.861
102876,136748,7962,-0.043,0.979,0.376,0.061,1.037,0.671,114.867
102850,136848,5203,-0.039,0.978,0.374,0.061,1.037,0.671,114.871
102850,136750,7970,-0.041,0.976,0.373,0.061,0.671,0.671,114.877
102865,136848,5203,-0.042,0.979,0.37,0.061,0.671,0.671,114.881
102865,136736,7972,-0.044,0.983,0.365,0.183,0.427,0.488,114.887
102842,136848,5203,-0.045,0.984,0.371,0.183,0.427,0.488,114.891
102842,136731,7966,-0.044,0.985,0.373,0.366,0.427,0.366,114.897
102857,136848,5203,-0.046,0.987,0.377,0.366,0.427,0.366,114.901
102857,136745,7971,-0.047,0.984,0.378,0.305,0.366,0.427,114.907
102858,136848,5203,-0.047,0.984,0.378,0.305,0.366,0.427,114.911
102858,136751,7971,-0.051,0.978,0.373,0.061,0.244,0.305,114.917
102871,136848,5203,-0.051,0.978,0.373,0.061,0.244,0.305,114.921
102871,136750,7970,-0.05,0.98,0.379,0.183,0.061,0.122,114.927
102885,136848,5203,-0.05,0.98,0.379,0.183,0.061,0.122,114.931
102885,136758,7978,-0.047,0.978,0.377,0.122,0.061,0.183,114.937
102883,136848,5203,-0.047,0.978,0.377,0.122,0.061,0.183,114.941
102883,136742,7976,-0.041,0.97,0.378,-0.427,-0.061,0.305,114.947
102889,136848,5203,-0.041,0.97,0.378,-0.427,-0.061,0.305,114.95
102889,136743,7961,-0.041,0.971,0.378,-0.549,-0.183,0.305,114.957
102861,136848,5203,-0.041,0.971,0.378,-0.549,-0.183,0.305,114.96
102861,136746,7941,-0.038,0.981,0.386,-0.366,-0.183,0.244,114.966
102866,136848,5203,-0.038,0.981,0.386,-0.366,-0.183,0.244,114.97
102866,136728,7961,-0.038,0.978,0.391,-0.427,-0.122,0.305,114.976
102853,136848,5203,-0.038,0.978,0.391,-0.427,-0.122,0.305,114.98
102853,136745,7966,-0.039,0.973,0.385,-0.671,0.122,0.488,114.986
102865,136848,5203,-0.039,0.973,0.385,-0.671,0.122,0.488,114.99
102865,136743,7976,-0.041,0.975,0.389,-0.122,0.244,0.305,114.996
102856,136848,5203,-0.041,0.975,0.389,-0.122,0.244,0.305,115
102856,136746,7974,-0.039,0.983,0.38,0.427,0.427,0.305,115.006
102843,136848,5203,-0.039,0.983,0.38,0.427,0.427,0.305,115.01
102843,136757,7952,-0.038,0.981,0.383,0.122,0.732,0.488,115.016
102855,136848,5203,-0.038,0.981,0.383,0.122,0.732,0.488,115.02
102855,136745,7968,-0.039,0.975,0.379,-0.244,0.915,0.549,115.026
102862,136848,5203,-0.039,0.975,0.379,-0.244,0.915,0.549,115.03
102862,136735,7962,-0.036,0.973,0.384,-0.061,0.854,0.488,115.036
102859,136848,5203,-0.036,0.973,0.384,-0.061,0.854,0.488,115.04
102859,136742,7971,-0.041,0.974,0.381,0.183,0.854,0.427,115.046
102868,136848,5203,-0.041,0.974,0.381,0.183,0.854,0.427,115.049
102868,136728,7970,-0.043,0.978,0.381,0.183,0.854,0.427,115.056
102861,136848,5203,-0.045,0.978,0.383,0,0.732,0.61,115.059
102861,136735,7961,-0.046,0.978,0.384,0,0.732,0.61,115.065
102874,136848,5203,-0.052,0.975,0.38,-0.366,0.549,0.488,115.069
102874,136743,7975,-0.049,0.974,0.373,-0.366,0.549,0.488,115.075
102886,136848,5203,-0.05,0.971,0.375,-0.244,0.488,0.305,115.079
102886,136763,7959,-0.05,0.974,0.369,-0.244,0.488,0.305,115.085
102906,136848,5203,-0.048,0.979,0.369,0.366,0.366,0.305,115.089
102906,136753,7962,-0.048,0.983,0.372,0.366,0.366,0.305,115.095
102892,136848,5203,-0.042,0.984,0.375,0,0,0.244,115.099
102892,136745,7976,-0.039,0.978,0.376,0,0,0.244,115.105
102905,136848,5203,-0.038,0.974,0.374,-0.732,-0.244,0,115.109
102905,136757,7958,-0.037,0.977,0.379,-0.732,-0.244,0,115.115
102887,136848,5203,-0.038,0.976,0.379,-0.671,-0.183,0.061,115.119
102887,136764,7963,-0.034,0.98,0.379,-0.671,-0.183,0.061,115.125
102884,136848,5203,-0.033,0.985,0.383,-0.122,-0.244,0.244,115.129
102884,136763,7961,-0.028,0.982,0.384,-0.122,-0.244,0.244,115.135
102903,136848,5203,-0.028,0.985,0.388,-0.244,-0.183,0.366,115.138
102903,136765,7957,-0.031,0.983,0.382,-0.244,-0.183,0.366,115.145
102896,136848,5203,-0.037,0.974,0.379,-0.61,0,0.427,115.148
102896,136787,7958,-0.041,0.975,0.377,-0.61,0,0.427,115.155
102914,136848,5203,-0.047,0.981,0.383,-0.183,0.122,0.427,115.158
102914,136769,7966,-0.045,0.984,0.385,-0.183,0.122,0.427,115.164
102915,136848,5203,-0.043,0.986,0.389,0.366,0.244,0.244,115.168
102915,136764,7966,-0.045,0.981,0.388,0.366,0.244,0.244,115.174
102888,136848,5203,-0.05,0.975,0.389,0.244,0.427,0.244,115.178
102888,136764,7967,-0.05,0.971,0.385,0.244,0.427,0.244,115.184
102883,136848,5203,-0.047,0.975,0.383,0,0.671,0.305,115.188
102883,136775,7963,-0.048,0.974,0.389,0,0.671,0.305,115.194
102887,136848,5203,-0.042,0.972,0.385,0.183,0.854,0.244,115.198
102887,136764,7964,-0.043,0.975,0.389,0.183,0.854,0.244,115.204
102896,136848,5203,-0.043,0.974,0.387,0.427,0.976,0.061,115.208
102896,136736,7973,-0.042,0.974,0.387,0.427,0.976,0.061,115.214
102893,136848,5203,-0.039,0.972,0.384,-0.061,0.793,0.183,115.218
102893,136767,7983,-0.035,0.968,0.384,-0.061,0.793,0.183,115.224
102881,136848,5203,-0.037,0.967,0.379,-0.61,0.671,0.305,115.228
102881,136777,7961,-0.039,0.968,0.381,-0.61,0.671,0.305,115.234
102877,136848,5203,-0.04,0.979,0.378,-0.61,0.61,0.427,115.237
102877,136765,7960,-0.035,0.98,0.38,-0.61,0.61,0.427,115.244
102871,136848,5203,-0.036,0.98,0.381,-0.549,0.549,0.427,115.247
102871,136735,7971,-0.041,0.98,0.379,-0.549,0.549,0.427,115.254
102881,136848,5203,-0.043,0.977,0.381,-0.427,0.549,0.549,115.257
102881,136752,7949,-0.043,0.977,0.38,-0.427,0.549,0.549,115.263
102872,136848,5203,-0.043,0.981,0.378,-0.427,0.488,0.549,115.267
102872,136756,7972,-0.047,0.982,0.375,-0.427,0.488,0.549,115.273
102882,136848,5203,-0.045,0.982,0.376,-0.122,0.488,0.305,115.277
102882,136751,7967,-0.045,0.981,0.377,-0.122,0.488,0.305,115.283
102888,136848,5203,-0.046,0.98,0.38,0,0.427,0.244,115.287
102888,136776,7981,-0.044,0.979,0.379,0,0.427,0.244,115.293
102901,136848,5203,-0.045,0.976,0.375,0,0.244,0.183,115.297
102901,136764,7968,-0.046,0.975,0.374,0,0.244,0.183,115.303
102894,136848,5203,-0.046,0.976,0.377,0.244,0.183,0.183,115.307
102894,136760,7963,-0.046,0.981,0.377,0.244,0.183,0.183,115.313
102899,136848,5203,-0.043,0.984,0.381,0.061,0,0.122,115.317
102899,136774,7971,-0.042,0.982,0.382,0.061,0,0.122,115.323
102892,136848,5203,-0.041,0.977,0.379,-0.183,-0.244,0.122,115.327
102892,136770,7971,-0.04,0.975,0.378,-0.183,-0.244,0.122,115.333
102884,136848,5203,-0.043,0.979,0.38,-0.122,-0.061,0.244,115.336
102884,136774,7967,-0.039,0.98,0.382,-0.122,-0.061,0.244,115.343
102884,136848,5203,-0.04,0.984,0.384,-0.061,0.061,0,115.346
102884,136743,7961,-0.038,0.984,0.388,-0.061,0.061,0,115.353
102899,136848,5203,-0.036,0.98,0.389,0.061,0.183,0.122,115.356
102899,136759,7978,-0.038,0.979,0.385,0.061,0.183,0.122,115.362
102907,136848,5203,-0.034,0.974,0.388,-0.305,0.366,0.305,115.366
102907,136763,7972,-0.034,0.97,0.385,-0.305,0.366,0.305,115.372
102899,136848,5203,-0.038,0.97,0.386,-0.427,0.488,0.366,115.376
102899,136764,7980,-0.039,0.972,0.387,-0.427,0.488,0.366,115.382
102896,136848,5203,-0.038,0.973,0.387,0,0.671,0.488,115.386
102896,136738,7980,-0.041,0.974,0.384,0,0.671,0.488,115.392
102895,136848,5203,-0.042,0.974,0.387,0,0.793,0.549,115.396
102895,136777,7960,-0.045,0.979,0.388,0,0.793,0.549,115.402
102898,136848,5203,-0.044,0.977,0.384,-0.122,0.793,0.488,115.406
102898,136755,7969,-0.046,0.976,0.382,-0.122,0.793,0.488,115.412
102883,136848,5203,-0.048,0.975,0.384,0.183,0.854,0.427,115.416
102883,136773,7964,-0.047,0.972,0.385,0.183,0.854,0.427,115.422
102890,136848,5203,-0.051,0.972,0.381,0.427,1.037,0.61,115.426
102890,136773,7969,-0.047,0.976,0.378,0.427,1.037,0.61,115.432
102887,136848,5203,-0.052,0.977,0.382,0.61,1.098,0.549,115.435
102887,136751,7973,-0.052,0.982,0.379,0.61,1.098,0.549,115.442
102860,136848,5203,-0.046,0.981,0.376,0.305,0.976,0.488,115.445
102860,136748,7967,-0.045,0.976,0.371,0.305,0.976,0.488,115.452
102867,136848,5203,-0.047,0.973,0.368,0.061,0.793,0.305,115.455
102867,136714,7968,-0.048,0.974,0.368,0.061,0.793,0.305,115.461
102871,136848,5203,-0.046,0.978,0.368,-0.122,0.61,0.244,115.465
102871,136731,7975,-0.044,0.978,0.373,-0.122,0.61,0.244,115.471
102830,136848,5203,-0.043,0.98,0.374,-0.122,0.305,0.244,115.475
102830,136739,7968,-0.04,0.98,0.373,-0.122,0.305,0.244,115.481
102859,136848,5203,-0.038,0.982,0.376,-0.366,0.122,0.305,115.485
102859,136705,7983,-0.04,0.982,0.38,-0.366,0.122,0.305,115.491
102839,136592,5203,-0.04,0.982,0.38,-0.366,0.122,0.305,115.495
102839,136697,7968,-0.04,0.98,0.375,-0.488,0,0.488,115.501
102826,136848,5203,-0.04,0.98,0.375,-0.488,0,0.488,115.505
102826,136708,7958,-0.044,0.977,0.379,-0.427,0.061,0.305,115.511
102826,136592,5203,-0.044,0.977,0.379,-0.427,0.061,0.305,115.515
102826,136701,7963,-0.047,0.983,0.374,-0.366,-0.061,0.305,115.521
102815,136592,5203,-0.047,0.983,0.374,-0.366,-0.061,0.305,115.525
102815,136684,7951,-0.044,0.978,0.384,-0.061,-0.061,0.305,115.531
102815,136848,5203,-0.044,0.978,0.384,-0.061,-0.061,0.305,115.534
102815,136708,7973,-0.04,0.973,0.384,-0.061,-0.183,0.122,115.541
102792,136592,5203,-0.04,0.973,0.384,-0.061,-0.183,0.122,115.544
102792,136697,7956,-0.044,0.973,0.384,0,-0.183,0.061,115.551
102798,136592,5203,-0.044,0.973,0.384,0,-0.183,0.061,115.554
102798,136694,7957,-0.046,0.972,0.383,0.183,0.061,0.305,115.56
102805,136848,5203,-0.046,0.972,0.383,0.183,0.061,0.305,115.564
102805,136706,7951,-0.044,0.977,0.385,0.183,0,0.366,115.57
102799,136592,5203,-0.044,0.977,0.385,0.183,0,0.366,115.574
102799,136697,7952,-0.041,0.981,0.386,0,0,0.366,115.58
102808,136592,5203,-0.041,0.981,0.386,0,0,0.366,115.584
102808,136695,7946,-0.041,0.977,0.376,-0.183,0.061,0.366,115.59
102814,136592,5203,-0.041,0.977,0.376,-0.183,0.061,0.366,115.594
102814,136692,7958,-0.041,0.975,0.385,-0.244,0.244,0.488,115.6
102816,136592,5203,-0.041,0.975,0.385,-0.244,0.244,0.488,115.604
102816,136686,7954,-0.039,0.978,0.386,-0.122,0.244,0.671,115.61
102803,136592,5203,-0.039,0.978,0.386,-0.122,0.244,0.671,115.614
102803,136688,7961,-0.038,0.975,0.385,0.061,0.366,0.366,115.62
102764,136592,5203,-0.038,0.975,0.385,0.061,0.366,0.366,115.624
102764,136687,7955,-0.041,0.978,0.38,0.122,0.61,0.488,115.63
102787,136592,5203,-0.041,0.978,0.38,0.122,0.61,0.488,115.633
102787,136702,7952,-0.04,0.979,0.376,0,0.549,0.671,115.64
102786,136592,5203,-0.044,0.981,0.38,0,0.549,0.671,115.643
102786,136669,7958,-0.04,0.981,0.379,0.183,0.549,0.366,115.65
102808,136592,5203,-0.042,0.981,0.38,0.183,0.549,0.366,115.653
102808,136703,7967,-0.043,0.975,0.382,-0.244,0.488,0.427,115.659
102817,136592,5203,-0.044,0.976,0.379,-0.244,0.488,0.427,115.663
102817,136694,7945,-0.041,0.975,0.378,-0.549,0.488,0.488,115.669
102826,136848,5203,-0.041,0.975,0.379,-0.549,0.488,0.488,115.673
102826,136712,7935,-0.045,0.976,0.379,-0.183,0.305,0.488,115.679
102813,136592,5203,-0.047,0.979,0.38,-0.183,0.305,0.488,115.683
102813,136703,7961,-0.044,0.985,0.381,0.183,0.244,0.488,115.689
102814,136848,5203,-0.044,0.985,0.379,0.183,0.244,0.488,115.693
102814,136713,7975,-0.043,0.987,0.379,0.122,0.183,0.244,115.699
102824,136592,5203,-0.043,0.983,0.382,0.122,0.183,0.244,115.703
102824,136699,7951,-0.041,0.977,0.382,-0.366,0.183,0.183,115.709
102833,136848,5203,-0.043,0.973,0.38,-0.366,0.183,0.183,115.713
102833,136711,7947,-0.042,0.972,0.379,-0.305,0.488,0.244,115.719
102803,136848,5203,-0.043,0.979,0.38,-0.305,0.488,0.244,115.723
102803,136717,7958,-0.041,0.978,0.379,0.244,0.366,0.305,115.729
102817,136848,5203,-0.037,0.978,0.381,0.244,0.366,0.305,115.732
102817,136714,7956,-0.038,0.98,0.385,0.244,0.366,0.427,115.739
102801,136592,5203,-0.04,0.98,0.385,0.244,0.366,0.427,115.742
102801,136699,7955,-0.042,0.978,0.385,-0.427,0.549,0.427,115.748
102789,136592,5203,-0.04,0.975,0.383,-0.427,0.549,0.427,115.752
102789,136670,7953,-0.041,0.975,0.381,-0.183,0.549,0.305,115.758
102766,136592,5203,-0.044,0.975,0.379,-0.183,0.549,0.305,115.762
102766,136675,7952,-0.043,0.979,0.38,0.305,0.549,0.488,115.768
102754,136592,5203,-0.042,0.98,0.381,0.305,0.549,0.488,115.772
102754,136686,7948,-0.041,0.979,0.383,0.305,0.488,0.305,115.778
102770,136592,5203,-0.039,0.979,0.384,0.305,0.488,0.305,115.782
102770,136642,7943,-0.041,0.976,0.385,-0.183,0.549,0.305,115.788
102731,136592,5203,-0.042,0.976,0.383,-0.183,0.549,0.305,115.792
102731,136692,7948,-0.04,0.972,0.383,-0.122,0.61,0.244,115.798
102763,136592,5203,-0.042,0.977,0.379,-0.122,0.61,0.244,115.802
102763,136653,7953,-0.038,0.98,0.379,0.061,0.488,0.244,115.808
102758,136592,5203,-0.039,0.978,0.383,0.061,0.488,0.244,115.812
102758,136662,7948,-0.039,0.975,0.386,0.061,0.549,0.183,115.818
102760,136592,5203,-0.043,0.973,0.385,0.061,0.549,0.183,115.821
102760,136667,7940,-0.043,0.972,0.378,-0.122,0.732,0.427,115.828
102749,136592,5203,-0.042,0.973,0.378,-0.122,0.732,0.427,115.831
102749,136676,7942,-0.045,0.971,0.378,0.061,0.671,0.61,115.838
102762,136592,5203,-0.044,0.973,0.38,0.061,0.671,0.61,115.841
102762,136677,7949,-0.046,0.976,0.378,0.244,0.671,0.61,115.847
102754,136592,5203,-0.046,0.979,0.381,0.244,0.671,0.61,115.851
102754,136673,7959,-0.047,0.98,0.378,0,0.61,0.671,115.857
102784,136592,5203,-0.046,0.979,0.375,0,0.61,0.671,115.861
102784,136676,7956,-0.049,0.978,0.377,-0.366,0.427,0.549,115.867
102780,136592,5203,-0.047,0.978,0.378,-0.366,0.427,0.549,115.871
102780,136673,7951,-0.044,0.979,0.382,-0.061,0.366,0.427,115.877
102789,136592,5203,-0.043,0.985,0.376,-0.061,0.366,0.427,115.881
102789,136664,7961,-0.039,0.993,0.374,0.732,0.244,0.244,115.887
102765,136592,5203,-0.036,0.989,0.377,0.732,0.244,0.244,115.891
102765,136651,7953,-0.037,0.992,0.375,0.488,0.183,0.183,115.897
102763,136592,5203,-0.034,0.989,0.38,0.488,0.183,0.183,115.901
102763,136672,7951,-0.035,0.981,0.381,-0.305,0.183,0.061,115.907
102779,136592,5203,-0.04,0.976,0.378,-0.305,0.183,0.061,115.911
102779,136670,7948,-0.04,0.974,0.377,-0.366,0.427,0.305,115.917
102793,136592,5203,-0.04,0.977,0.377,-0.366,0.427,0.305,115.92
102793,136664,7940,-0.041,0.979,0.383,0.305,0.488,0.061,115.927
102799,136592,5203,-0.039,0.977,0.381,0.305,0.488,0.061,115.93
102799,136674,7945,-0.041,0.977,0.383,0.366,0.549,0.061,115.937
102789,136592,5203,-0.045,0.974,0.382,0.366,0.549,0.061,115.94
102789,136666,7944,-0.043,0.971,0.378,-0.122,0.549,0.244,115.946
102787,136592,5203,-0.044,0.968,0.378,-0.122,0.549,0.244,115.95
102787,136668,7937,-0.047,0.966,0.382,-0.061,0.427,0.305,115.956
102786,136592,5203,-0.044,0.969,0.387,-0.061,0.427,0.305,115.96
102786,136666,7946,-0.048,0.972,0.387,0.122,0.549,0.488,115.966
102789,136592,5203,-0.045,0.969,0.385,0.122,0.549,0.488,115.97
102789,136680,7935,-0.042,0.969,0.389,-0.061,0.427,0.488,115.976
102795,136592,5203,-0.04,0.971,0.385,-0.061,0.427,0.488,115.98
102795,136681,7943,-0.044,0.976,0.386,-0.427,0.488,0.549,115.986
102780,136592,5203,-0.045,0.978,0.386,-0.427,0.488,0.549,115.99
102780,136680,7944,-0.042,0.979,0.387,-0.549,0.61,0.488,115.996
102780,136592,5203,-0.042,0.977,0.384,-0.549,0.61,0.488,116
102780,136675,7947,-0.039,0.97,0.384,-0.183,0.671,0.366,116.006
102793,136592,5203,-0.04,0.97,0.383,-0.183,0.671,0.366,116.01
102793,136680,7938,-0.041,0.976,0.379,0.183,0.854,0.488,116.016
102792,136592,5203,-0.042,0.984,0.379,0.183,0.854,0.488,116.02
102792,136677,7940,-0.04,0.986,0.375,0.244,0.854,0.488,116.026
102792,136592,5203,-0.037,0.989,0.376,0.244,0.854,0.488,116.029
102792,136676,7956,-0.034,0.985,0.376,0.244,0.915,0.427,116.036
102790,136592,5203,-0.036,0.982,0.374,0.244,0.915,0.427,116.039
102790,136665,7941,-0.039,0.982,0.373,0.244,0.976,0.366,116.045
102812,136592,5203,-0.04,0.988,0.375,0.244,0.976,0.366,116.049
102812,136693,7956,-0.038,0.986,0.375,0.366,0.854,0.366,116.055
102782,136592,5203,-0.039,0.982,0.376,0.366,0.854,0.366,116.059
102782,136694,7950,-0.038,0.981,0.374,0.061,0.732,0.122,116.065
102800,136592,5203,-0.046,0.982,0.373,0.061,0.732,0.122,116.069
102800,136697,7954,-0.046,0.981,0.371,-0.427,0.732,0.244,116.075
102802,136592,5203,-0.046,0.981,0.371,-0.427,0.732,0.244,116.079
102802,136664,7952,-0.045,0.98,0.371,-0.244,0.549,0.183,116.085
102801,136592,5203,-0.045,0.98,0.371,-0.244,0.549,0.183,116.089
102801,136684,7965,-0.05,0.981,0.377,-0.305,0.427,0.244,116.095
102814,136592,5203,-0.05,0.981,0.377,-0.305,0.427,0.244,116.099
102814,136683,7948,-0.048,0.975,0.374,-0.671,0.244,0.244,116.105
102805,136592,5203,-0.048,0.975,0.374,-0.671,0.244,0.244,116.109
102805,136690,7958,-0.047,0.975,0.381,-0.427,0.244,0.183,116.115
102814,136592,5203,-0.047,0.975,0.381,-0.427,0.244,0.183,116.118
102814,136686,7954,-0.046,0.977,0.386,-0.183,0.122,0.244,116.125
102834,136592,5203,-0.046,0.977,0.386,-0.183,0.122,0.244,116.128
102834,136676,7958,-0.04,0.978,0.383,-0.244,0,0.305,116.135
102823,136592,5203,-0.04,0.978,0.383,-0.244,0,0.305,116.138
102823,136695,7957,-0.043,0.972,0.381,-0.671,0.061,0.183,116.144
102830,136848,5203,-0.043,0.972,0.381,-0.671,0.061,0.183,116.148
102830,136708,7958,-0.039,0.972,0.385,-0.671,0.061,0.183,116.154
102824,136848,5203,-0.039,0.972,0.385,-0.671,0.061,0.183,116.158
102824,136713,7968,-0.045,0.977,0.381,-0.427,0,0.427,116.164
102830,136848,5203,-0.045,0.977,0.381,-0.427,0,0.427,116.168
102830,136709,7958,-0.043,0.982,0.381,0.061,0.122,0.488,116.174
102837,136592,5203,-0.043,0.982,0.381,0.061,0.122,0.488,116.178
102837,136702,7944,-0.041,0.984,0.376,0.244,0.366,0.366,116.184
102790,136592,5203,-0.041,0.984,0.376,0.244,0.366,0.366,116.188
102790,136699,7952,-0.045,0.981,0.385,-0.122,0.549,0.427,116.194
102822,136592,5203,-0.045,0.981,0.385,-0.122,0.549,0.427,116.198
102822,136681,7945,-0.044,0.973,0.387,-0.244,0.671,0.366,116.204
102791,136592,5203,-0.044,0.973,0.387,-0.244,0.671,0.366,116.208
102791,136682,7962,-0.046,0.969,0.383,-0.244,0.671,0.366,116.214
102800,136592,5203,-0.044,0.971,0.379,-0.122,0.671,0.244,116.217
102800,136673,7948,-0.041,0.976,0.379,-0.122,0.671,0.244,116.224
102824,136592,5203,-0.042,0.975,0.378,-0.244,0.61,0.366,116.227
102824,136672,7945,-0.042,0.973,0.379,-0.244,0.61,0.366,116.234
102810,136592,5203,-0.043,0.971,0.379,-0.549,0.549,0.427,116.237
102810,136677,7938,-0.044,0.974,0.374,-0.549,0.549,0.427,116.243
102786,136592,5203,-0.046,0.968,0.371,-0.488,0.427,0.549,116.247
102786,136672,7947,-0.045,0.974,0.375,-0.488,0.427,0.549,116.253
102780,136592,5203,-0.043,0.983,0.376,0.183,0.366,0.549,116.257
102780,136670,7948,-0.042,0.989,0.38,0.183,0.366,0.549,116.263
102773,136592,5203,-0.042,0.988,0.381,0.488,0.305,0.427,116.267
102773,136628,7961,-0.039,0.988,0.381,0.488,0.305,0.427,116.273
102753,136592,5203,-0.042,0.986,0.379,0,0.305,0.366,116.277
102753,136643,7944,-0.042,0.983,0.378,0,0.305,0.366,116.283
102785,136592,5203,-0.039,0.975,0.378,-0.61,0.427,0.183,116.287
102785,136633,7942,-0.042,0.972,0.377,-0.61,0.427,0.183,116.293
102775,136592,5203,-0.043,0.975,0.38,-0.488,0.488,0.244,116.297
102775,136639,7966,-0.041,0.976,0.38,-0.488,0.488,0.244,116.303
102761,136592,5203,-0.04,0.979,0.373,-0.122,0.366,0.244,116.307
102761,136637,7942,-0.042,0.978,0.374,-0.122,0.366,0.244,116.313
102773,136592,5203,-0.041,0.979,0.376,0.061,0.366,0.366,116.316
102773,136649,7946,-0.04,0.979,0.382,0.061,0.366,0.366,116.323
102763,136592,5203,-0.043,0.98,0.378,-0.488,0.366,0.488,116.326
102763,136643,7958,-0.043,0.975,0.378,-0.488,0.366,0.488,116.333
102764,136592,5203,-0.039,0.969,0.384,-0.915,0.305,0.305,116.336
102764,136668,7958,-0.042,0.974,0.386,-0.915,0.305,0.305,116.342
102749,136592,5203,-0.043,0.976,0.388,-0.366,0.366,0.366,116.346
102749,136656,7957,-0.043,0.974,0.384,-0.366,0.366,0.366,116.352
102772,136592,5203,-0.043,0.979,0.385,0.305,0.488,0.488,116.356
102772,136657,7949,-0.042,0.98,0.385,0.305,0.488,0.488,116.362
102772,136592,5203,-0.043,0.979,0.382,0.366,0.427,0.488,116.366
102772,136651,7933,-0.041,0.976,0.381,0.366,0.427,0.488,116.372
102775,136592,5203,-0.044,0.974,0.375,0.061,0.488,0.366,116.376
102775,136666,7948,-0.042,0.974,0.376,0.061,0.488,0.366,116.382
102760,136592,5203,-0.044,0.974,0.382,-0.061,0.488,0.366,116.386
