103056,135490,8053,-0.021,0.927,0.489,0.427,0.549,0.244,119.106
103076,135568,5203,-0.019,0.928,0.491,0.366,0.427,0.244,119.11
103076,135500,8034,-0.018,0.931,0.49,0.366,0.427,0.244,119.116
103051,135568,5203,-0.02,0.927,0.495,-0.427,0.305,0.122,119.12
103051,135495,8037,-0.02,0.925,0.498,-0.427,0.305,0.122,119.126
103049,135568,5203,-0.02,0.923,0.5,-0.671,0.305,0,119.13
103049,135497,8052,-0.019,0.923,0.501,-0.671,0.305,0,119.136
103054,135568,5203,-0.021,0.924,0.5,-0.183,0.427,0.122,119.14
103054,135487,8056,-0.016,0.924,0.494,-0.183,0.427,0.122,119.146
103035,135568,5203,-0.02,0.923,0.493,-0.061,0.427,0.366,119.15
103035,135489,8031,-0.024,0.92,0.492,-0.061,0.427,0.366,119.156
103053,135568,5203,-0.021,0.923,0.487,-0.244,0.427,0.488,119.16
103053,135478,8049,-0.019,0.922,0.49,-0.244,0.427,0.488,119.166
103053,135568,5203,-0.023,0.919,0.489,-0.549,0.305,0.488,119.17
103053,135488,8059,-0.023,0.921,0.492,-0.549,0.305,0.488,119.176
103042,135568,5203,-0.026,0.92,0.486,-0.366,0.244,0.61,119.179
103042,135465,8031,-0.02,0.923,0.487,-0.366,0.244,0.61,119.186
103031,135568,5203,-0.021,0.932,0.492,-0.244,0.122,0.549,119.189
103031,135457,8023,-0.021,0.933,0.494,-0.244,0.122,0.549,119.196
103014,135568,5203,-0.017,0.933,0.495,-0.366,0.061,0.366,119.199
103014,135455,8038,-0.016,0.93,0.502,-0.366,0.061,0.366,119.205
103012,135568,5203,-0.018,0.931,0.498,-0.305,0.244,0.244,119.209
103012,135462,8032,-0.02,0.931,0.501,-0.305,0.244,0.244,119.215
103034,135568,5203,-0.02,0.932,0.502,0,0.366,0.244,119.219
103034,135452,8041,-0.017,0.931,0.499,0,0.366,0.244,119.225
102994,135568,5203,-0.015,0.929,0.495,0.061,0.488,0,119.229
102994,135452,8026,-0.017,0.925,0.493,0.061,0.488,0,119.235
103008,135568,5203,-0.017,0.925,0.493,0.061,0.488,0,119.239
103008,135445,8037,-0.02,0.92,0.492,-0.061,0.549,0.183,119.245
103002,135568,5203,-0.02,0.92,0.492,-0.061,0.549,0.183,119.249
103002,135469,8034,-0.021,0.922,0.486,-0.061,0.549,0.183,119.255
103002,135568,5203,-0.021,0.922,0.486,-0.061,0.549,0.183,119.259
103002,135452,8034,-0.015,0.927,0.49,0.061,0.488,0.366,119.265
103002,135568,5203,-0.015,0.927,0.49,0.061,0.488,0.366,119.269
103002,135478,8044,-0.02,0.93,0.49,0.122,0.549,0.549,119.275
103025,135568,5203,-0.02,0.93,0.49,0.122,0.549,0.549,119.278
103025,135471,8018,-0.018,0.93,0.495,-0.061,0.549,0.61,119.285
103014,135568,5203,-0.018,0.93,0.495,-0.061,0.549,0.61,119.288
103014,135464,8029,-0.021,0.926,0.495,-0.305,0.488,0.549,119.295
103019,135568,5203,-0.021,0.926,0.495,-0.305,0.488,0.549,119.298
103019,135458,8026,-0.018,0.924,0.496,-0.488,0.427,0.488,119.304
103038,135568,5203,-0.018,0.924,0.496,-0.488,0.427,0.488,119.308
103038,135454,8039,-0.024,0.922,0.495,-0.366,0.488,0.427,119.314
103033,135568,5203,-0.024,0.922,0.495,-0.366,0.488,0.427,119.318
103033,135489,8039,-0.019,0.922,0.489,-0.305,0.305,0.427,119.324
102998,135568,5203,-0.019,0.922,0.489,-0.305,0.305,0.427,119.328
102998,135459,8029,-0.016,0.93,0.488,0.061,0.183,0.488,119.334
103036,135568,5203,-0.016,0.93,0.488,0.061,0.183,0.488,119.338
103036,135467,8043,-0.023,0.93,0.49,0.183,0.244,0.305,119.344
103009,135568,5203,-0.023,0.93,0.49,0.183,0.244,0.305,119.348
103009,135481,8033,-0.021,0.927,0.489,-0.122,0.305,0.427,119.354
103030,135568,5203,-0.021,0.927,0.489,-0.122,0.305,0.427,119.358
103030,135505,8038,-0.017,0.923,0.493,-0.61,0.244,0.366,119.364
103059,135568,5203,-0.017,0.923,0.493,-0.61,0.244,0.366,119.368
103059,135487,8036,-0.02,0.929,0.493,-0.183,0.183,0.244,119.374
103041,135568,5203,-0.02,0.929,0.493,-0.183,0.183,0.244,119.377
103041,135471,8050,-0.018,0.93,0.497,0.122,0.366,0.427,119.384
103029,135568,5203,-0.018,0.93,0.495,0.122,0.366,0.427,119.387
103029,135486,8030,-0.016,0.931,0.496,0,0.427,0.305,119.394
103047,135568,5203,-0.021,0.928,0.495,0,0.427,0.305,119.397
103047,135476,8036,-0.02,0.922,0.496,-0.305,0.366,0.183,119.403
103029,135568,5203,-0.019,0.921,0.496,-0.305,0.366,0.183,119.407
103029,135484,8029,-0.02,0.922,0.494,-0.305,0.366,0.244,119.413
103012,135568,5203,-0.019,0.925,0.491,-0.305,0.366,0.244,119.417
103012,135473,8037,-0.018,0.927,0.49,0.122,0.427,0.305,119.423
103020,135568,5203,-0.019,0.926,0.488,0.122,0.427,0.305,119.427
103020,135458,8043,-0.023,0.93,0.49,0.183,0.488,0.488,119.433
103026,135568,5203,-0.02,0.929,0.494,0.183,0.488,0.488,119.437
103026,135484,8035,-0.019,0.926,0.49,-0.183,0.305,0.366,119.443
103014,135568,5203,-0.016,0.927,0.493,-0.183,0.305,0.366,119.447
103014,135489,8036,-0.019,0.926,0.494,-0.244,0.366,0.305,119.453
103035,135568,5203,-0.019,0.927,0.496,-0.244,0.366,0.305,119.457
103035,135486,8037,-0.022,0.928,0.499,-0.122,0.427,0.427,119.463
103014,135568,5203,-0.02,0.928,0.496,-0.122,0.427,0.427,119.467
103014,135469,8040,-0.019,0.929,0.495,-0.061,0.427,0.427,119.473
103001,135568,5203,-0.017,0.926,0.491,-0.061,0.427,0.427,119.476
103001,135470,8041,-0.017,0.923,0.489,-0.061,0.549,0.488,119.483
102995,135568,5203,-0.019,0.924,0.491,-0.061,0.549,0.488,119.486
102995,135471,8036,-0.02,0.924,0.495,0,0.488,0.366,119.493
102988,135568,5203,-0.02,0.927,0.491,0,0.488,0.366,119.496
102988,135452,8025,-0.018,0.927,0.488,0,0.549,0.305,119.502
103004,135568,5203,-0.022,0.925,0.494,0,0.549,0.305,119.506
103004,135452,8024,-0.023,0.923,0.491,-0.183,0.549,0.488,119.512
102996,135568,5203,-0.021,0.922,0.488,-0.183,0.549,0.488,119.516
102996,135470,8029,-0.022,0.927,0.486,-0.366,0.427,0.427,119.522
103006,135568,5203,-0.021,0.931,0.491,-0.366,0.427,0.427,119.526
103006,135482,8036,-0.018,0.931,0.497,-0.305,0.366,0.427,119.532
103019,135568,5203,-0.019,0.927,0.495,-0.305,0.366,0.427,119.536
103019,135481,8037,-0.021,0.928,0.493,-0.183,0.305,0.488,119.542
103026,135568,5203,-0.019,0.93,0.492,-0.183,0.305,0.488,119.546
103026,135464,8043,-0.017,0.93,0.489,-0.183,0.305,0.427,119.552
103015,135568,5203,-0.018,0.932,0.489,-0.183,0.305,0.427,119.556
103015,135469,8050,-0.018,0.928,0.49,-0.366,0.305,0.244,119.562
103022,135568,5203,-0.017,0.924,0.488,-0.366,0.305,0.244,119.566
103022,135467,8039,-0.021,0.921,0.489,-0.61,0.366,0.305,119.572
103022,135568,5203,-0.021,0.92,0.49,-0.61,0.366,0.305,119.575
103022,135493,8027,-0.021,0.921,0.491,-0.366,0.244,0.366,119.582
103018,135568,5203,-0.02,0.924,0.493,-0.366,0.244,0.366,119.585
103018,135475,8032,-0.02,0.924,0.491,0.122,0.244,0.488,119.592
103038,135568,5203,-0.022,0.926,0.486,0.122,0.244,0.488,119.595
103038,135478,8022,-0.02,0.932,0.492,0,0.061,0.488,119.601
103040,135568,5203,-0.014,0.93,0.494,0,0.061,0.488,119.605
103040,135481,8057,-0.017,0.928,0.497,-0.244,0.122,0.366,119.611
103045,135568,5203,-0.016,0.926,0.495,-0.244,0.122,0.366,119.615
103045,135498,8043,-0.018,0.929,0.496,-0.061,0.244,0.122,119.621
103050,135568,5203,-0.02,0.927,0.497,-0.061,0.244,0.122,119.625
103050,135511,8057,-0.019,0.927,0.497,0,0.244,0.427,119.631
103043,135568,5203,-0.014,0.93,0.498,0,0.244,0.427,119.635
103043,135491,8027,-0.018,0.931,0.499,0.122,0.305,0.244,119.641
103039,135568,5203,-0.018,0.93,0.495,0.122,0.305,0.244,119.645
103039,135499,8045,-0.021,0.929,0.496,-0.122,0.427,0.244,119.651
103035,135568,5203,-0.018,0.923,0.495,-0.122,0.427,0.244,119.655
103035,135482,8035,-0.017,0.924,0.492,-0.244,0.488,0.488,119.661
103043,135568,5203,-0.017,0.927,0.484,-0.244,0.488,0.488,119.665
103043,135482,8028,-0.019,0.923,0.489,0.061,0.671,0.488,119.671
103038,135568,5203,-0.022,0.926,0.487,0.061,0.671,0.488,119.674
103038,135489,8047,-0.019,0.932,0.49,0.488,0.732,0.488,119.681
103049,135568,5203,-0.02,0.933,0.489,0.488,0.732,0.488,119.684
103049,135495,8048,-0.019,0.931,0.491,-0.183,0.61,0.427,119.69
103031,135568,5203,-0.021,0.925,0.49,-0.183,0.61,0.427,119.694
103031,135512,8053,-0.019,0.921,0.49,-0.671,0.488,0.305,119.7
103062,135568,5203,-0.019,0.922,0.492,-0.671,0.488,0.305,119.704
103062,135509,8054,-0.021,0.926,0.491,-0.305,0.488,0.427,119.71
103093,135568,5203,-0.018,0.926,0.493,-0.305,0.488,0.427,119.714
103093,135513,8042,-0.017,0.93,0.491,-0.061,0.366,0.244,119.72
103068,135568,5203,-0.017,0.928,0.494,-0.061,0.366,0.244,119.724
103068,135532,8050,-0.018,0.93,0.497,-0.366,0.183,0.366,119.73
103103,135568,5203,-0.017,0.93,0.495,-0.366,0.183,0.366,119.734
103103,135539,8034,-0.017,0.923,0.493,-0.366,0.244,0.549,119.74
103123,135568,5203,-0.018,0.921,0.494,-0.366,0.244,0.549,119.744
103123,135549,8053,-0.017,0.921,0.495,-0.305,0.183,0.366,119.75
103120,135568,5203,-0.018,0.926,0.493,-0.305,0.183,0.366,119.754
103120,135554,8044,-0.019,0.928,0.495,-0.427,0.183,0.427,119.76
103118,135568,5203,-0.018,0.924,0.493,-0.427,0.183,0.427,119.764
103118,135550,8051,-0.023,0.928,0.492,-0.183,0.305,0.488,119.77
103137,135568,5203,-0.021,0.933,0.495,-0.183,0.305,0.488,119.773
103137,135565,8052,-0.018,0.931,0.494,-0.366,0.183,0.427,119.78
103130,135568,5203,-0.019,0.921,0.494,-0.366,0.183,0.427,119.783
103130,135583,8046,-0.018,0.92,0.493,-0.488,0.244,0.366,119.79
103147,135568,5203,-0.017,0.922,0.495,-0.488,0.244,0.366,119.793
103147,135566,8051,-0.019,0.925,0.495,-0.305,0.366,0.488,119.799
103139,135568,5203,-0.016,0.932,0.491,-0.305,0.366,0.488,119.803
103139,135563,8050,-0.017,0.933,0.493,0.305,0.427,0.488,119.809
103140,135568,5203,-0.018,0.936,0.493,0.305,0.427,0.488,119.813
103140,135572,8044,-0.016,0.935,0.495,-0.366,0.305,0.427,119.819
103160,135568,5203,-0.016,0.935,0.495,-0.366,0.305,0.427,119.823
103160,135567,8054,-0.018,0.916,0.488,-0.854,0.366,0.488,119.829
103166,135568,5203,-0.018,0.916,0.488,-0.854,0.366,0.488,119.833
103166,135573,8070,-0.025,0.925,0.49,-0.366,0.488,0.488,119.839
103178,135568,5203,-0.025,0.925,0.49,-0.366,0.488,0.488,119.843
103178,135576,8052,-0.02,0.935,0.494,0.244,0.427,0.366,119.849
103169,135568,5203,-0.02,0.935,0.494,0.244,0.427,0.366,119.853
103169,135592,8047,-0.022,0.926,0.49,-0.244,0.488,0.183,119.859
103171,135568,5203,-0.022,0.926,0.49,-0.244,0.488,0.183,119.863
103171,135592,8055,-0.021,0.923,0.498,-0.976,0.427,0.183,119.869
103187,135568,5203,-0.021,0.923,0.498,-0.976,0.427,0.183,119.872
103187,135585,8064,-0.018,0.915,0.5,-0.793,0.305,0.183,119.879
103174,135568,5203,-0.018,0.915,0.5,-0.793,0.305,0.183,119.882
103174,135585,8061,-0.021,0.92,0.492,-0.122,0.244,0.305,119.888
103168,135568,5203,-0.021,0.92,0.492,-0.122,0.244,0.305,119.892
103168,135597,8051,-0.017,0.931,0.493,0.366,0.122,0.427,119.898
103172,135568,5203,-0.017,0.931,0.493,0.366,0.122,0.427,119.902
103172,135595,8064,-0.021,0.933,0.49,0.305,0.305,0.244,119.908
103175,135568,5203,-0.021,0.933,0.49,0.305,0.305,0.244,119.912
103175,135608,8052,-0.019,0.927,0.499,-0.427,0.305,0.488,119.918
103162,135568,5203,-0.019,0.927,0.499,-0.427,0.305,0.488,119.922
103162,135594,8054,-0.021,0.92,0.5,-0.549,0.366,0.488,119.928
103169,135568,5203,-0.021,0.92,0.5,-0.549,0.366,0.488,119.932
103169,135597,8056,-0.022,0.926,0.494,-0.244,0.427,0.427,119.938
103187,135568,5203,-0.022,0.926,0.494,-0.244,0.427,0.427,119.942
103187,135595,8059,-0.018,0.927,0.492,0.183,0.305,0.366,119.948
103191,135568,5203,-0.018,0.927,0.492,0.183,0.305,0.366,119.952
103191,135598,8072,-0.018,0.928,0.493,0.061,0.366,0.366,119.958
103193,135568,5203,-0.018,0.928,0.493,0.061,0.366,0.366,119.962
103193,135591,8058,-0.017,0.931,0.493,0.061,0.366,0.366,119.968
103194,135568,5203,-0.017,0.927,0.496,0.061,0.427,0.183,119.971
103194,135617,8057,-0.016,0.929,0.493,0.061,0.427,0.183,119.978
103205,135568,5203,-0.017,0.924,0.49,-0.305,0.427,0.305,119.981
103205,135616,8056,-0.016,0.917,0.491,-0.305,0.427,0.305,119.987
103219,135568,5203,-0.016,0.919,0.492,-0.122,0.427,0.488,119.991
103219,135604,8059,-0.016,0.929,0.497,-0.122,0.427,0.488,119.997
103219,135568,5203,-0.017,0.932,0.496,0.122,0.61,0.488,120.001
103219,135616,8072,-0.019,0.933,0.499,0.122,0.61,0.488,120.007
103224,135568,5203,-0.017,0.933,0.497,0.305,0.671,0.427,120.011
103224,135625,8060,-0.019,0.93,0.495,0.305,0.671,0.427,120.017
103206,135568,5203,-0.023,0.93,0.494,0.122,0.61,0.549,120.021
103206,135602,8066,-0.02,0.927,0.493,0.122,0.61,0.549,120.027
103222,135568,5203,-0.015,0.926,0.493,-0.061,0.732,0.366,120.031
103222,135642,8062,-0.019,0.922,0.495,-0.061,0.732,0.366,120.037
103227,135568,5203,-0.021,0.921,0.492,0.122,0.793,0.427,120.041
103227,135649,8072,-0.023,0.924,0.492,0.122,0.793,0.427,120.047
103232,135568,5203,-0.021,0.926,0.49,0.366,0.671,0.549,120.051
103232,135644,8074,-0.022,0.929,0.486,0.366,0.671,0.549,120.057
103259,135568,5203,-0.021,0.932,0.483,0.488,0.549,0.488,120.06
103259,135630,8071,-0.018,0.931,0.49,0.488,0.549,0.488,120.067
103264,135568,5203,-0.021,0.932,0.491,-0.305,0.427,0.366,120.07
103264,135645,8078,-0.02,0.926,0.492,-0.305,0.427,0.366,120.077
103236,135568,5203,-0.018,0.923,0.49,-0.549,0.366,0.122,120.08
103236,135674,8060,-0.021,0.921,0.493,-0.549,0.366,0.122,120.086
103268,135568,5203,-0.02,0.923,0.491,-0.061,0.366,0.366,120.09
103268,135657,8072,-0.02,0.928,0.49,-0.061,0.366,0.366,120.096
103269,135568,5203,-0.016,0.93,0.492,0.122,0.305,0.427,120.1
103269,135668,8068,-0.016,0.928,0.493,0.122,0.305,0.427,120.106
103267,135568,5203,-0.019,0.929,0.495,-0.244,0.366,0.305,120.11
103267,135674,8054,-0.019,0.927,0.496,-0.244,0.366,0.305,120.116
103271,135568,5203,-0.019,0.924,0.493,-0.549,0.244,0.366,120.12
103271,135659,8101,-0.019,0.924,0.491,-0.549,0.244,0.366,120.126
103274,135568,5203,-0.018,0.924,0.489,-0.122,0.244,0.488,120.13
103274,135666,8078,-0.019,0.929,0.487,-0.122,0.244,0.488,120.136
103273,135568,5203,-0.019,0.933,0.489,-0.061,0.305,0.427,120.14
103273,135673,8074,-0.017,0.928,0.492,-0.061,0.305,0.427,120.146
103263,135568,5203,-0.018,0.926,0.495,-0.244,0.244,0.244,120.15
103263,135648,8083,-0.018,0.924,0.498,-0.244,0.244,0.244,120.156
103257,135568,5203,-0.02,0.924,0.502,0,0.305,0.366,120.16
103257,135659,8075,-0.022,0.925,0.497,0,0.305,0.366,120.166
103264,135568,5203,-0.02,0.929,0.496,0.305,0.427,0.366,120.169
103264,135633,8065,-0.02,0.932,0.494,0.305,0.427,0.366,120.176
103249,135568,5203,-0.016,0.932,0.491,0.122,0.427,0.305,120.179
103249,135637,8062,-0.019,0.931,0.496,0.122,0.427,0.305,120.185
103238,135568,5203,-0.017,0.925,0.494,-0.305,0.366,0.305,120.189
103238,135634,8067,-0.015,0.923,0.497,-0.305,0.366,0.305,120.195
103236,135568,5203,-0.018,0.923,0.492,-0.427,0.488,0.305,120.199
103236,135640,8065,-0.019,0.922,0.487,-0.427,0.488,0.305,120.205
103237,135568,5203,-0.018,0.921,0.482,-0.366,0.549,0.427,120.209
103237,135643,8061,-0.023,0.924,0.486,-0.366,0.549,0.427,120.215
103253,135568,5203,-0.019,0.923,0.49,-0.305,0.305,0.488,120.219
103253,135656,8058,-0.017,0.922,0.495,-0.305,0.305,0.488,120.225
103246,135568,5203,-0.017,0.926,0.495,-0.183,0.122,0.366,120.229
103246,135651,8064,-0.015,0.931,0.497,-0.183,0.122,0.366,120.235
103244,135568,5203,-0.015,0.932,0.501,0.366,0.183,0.366,120.239
103244,135645,8074,-0.017,0.934,0.499,0.366,0.183,0.366,120.245
103248,135568,5203,-0.019,0.934,0.492,0.244,0.305,0.488,120.249
103248,135667,8065,-0.021,0.933,0.492,0.244,0.305,0.488,120.255
103252,135568,5203,-0.017,0.93,0.491,-0.427,0.305,0.122,120.258
103252,135640,8064,-0.02,0.922,0.492,-0.427,0.305,0.122,120.265
103264,135568,5203,-0.02,0.917,0.487,-0.366,0.305,0,120.268
103264,135648,8064,-0.019,0.914,0.49,-0.366,0.305,0,120.275
103237,135568,5203,-0.019,0.918,0.493,0.305,0.488,0.244,120.278
103237,135626,8070,-0.018,0.929,0.496,0.305,0.488,0.244,120.284
103238,135568,5203,-0.015,0.935,0.495,0.366,0.305,0.488,120.288
103238,135657,8059,-0.016,0.935,0.494,0.366,0.305,0.488,120.294
103227,135568,5203,-0.016,0.933,0.499,-0.061,0.244,0.427,120.298
103227,135627,8063,-0.016,0.929,0.492,-0.061,0.244,0.427,120.304
103229,135568,5203,-0.017,0.927,0.492,-0.427,0.427,0.427,120.308
103229,135648,8066,-0.018,0.925,0.492,-0.427,0.427,0.427,120.314
103225,135568,5203,-0.019,0.921,0.489,-0.549,0.427,0.183,120.318
103225,135627,8065,-0.018,0.922,0.494,-0.549,0.427,0.183,120.324
103219,135568,5203,-0.02,0.918,0.493,-0.61,0.366,0.305,120.328
103219,135644,8051,-0.023,0.917,0.489,-0.61,0.366,0.305,120.334
103234,135568,5203,-0.024,0.914,0.485,-0.366,0.305,0.366,120.338
103234,135634,8072,-0.023,0.914,0.486,-0.366,0.305,0.366,120.344
103215,135568,5203,-0.025,0.927,0.487,0.244,0.122,0.427,120.348
103215,135633,8074,-0.022,0.938,0.495,0.244,0.122,0.427,120.354
103200,135568,5203,-0.02,0.937,0.492,0.244,0.122,0.305,120.357
103200,135624,8052,-0.018,0.934,0.496,0.244,0.122,0.305,120.364
103214,135568,5203,-0.02,0.932,0.499,-0.183,0.244,0.366,120.367
103214,135621,8068,-0.021,0.929,0.495,-0.183,0.244,0.366,120.374
103228,135568,5203,-0.017,0.926,0.496,-0.366,0.366,0.427,120.377
103228,135627,8060,-0.017,0.929,0.492,-0.366,0.366,0.427,120.383
103231,135568,5203,-0.02,0.933,0.492,-0.061,0.549,0.305,120.387
103231,135643,8086,-0.019,0.926,0.494,-0.061,0.549,0.305,120.393
103235,135568,5203,-0.016,0.923,0.49,0.122,0.61,0.427,120.397
103235,135650,8058,-0.017,0.919,0.492,0.122,0.61,0.427,120.403
103247,135568,5203,-0.017,0.919,0.492,0.122,0.61,0.427,120.407
103247,135645,8079,-0.015,0.938,0.495,0.305,0.549,0.366,120.413
103244,135568,5203,-0.015,0.938,0.495,0.305,0.549,0.366,120.417
103244,135656,8071,-0.013,0.941,0.489,0.488,0.671,0.366,120.423
103246,135568,5203,-0.013,0.941,0.489,0.488,0.671,0.366,120.427
103246,135645,8075,-0.016,0.929,0.489,0.061,0.671,0.305,120.433
103242,135568,5203,-0.016,0.929,0.489,0.061,0.671,0.305,120.437
103242,135650,8057,-0.021,0.921,0.487,-0.122,0.61,0.244,120.443
103250,135568,5203,-0.021,0.921,0.487,-0.122,0.61,0.244,120.447
103250,135646,8075,-0.02,0.922,0.488,0.183,0.549,0,120.453
103242,135568,5203,-0.02,0.922,0.488,0.183,0.549,0,120.456
103242,135643,8065,-0.019,0.92,0.488,0.488,0.427,0,120.463
103233,135568,5203,-0.019,0.92,0.488,0.488,0.427,0,120.466
103233,135633,8073,-0.019,0.928,0.497,0.488,0.366,0.183,120.473
103244,135568,5203,-0.019,0.928,0.497,0.488,0.366,0.183,120.476
103244,135646,8071,-0.019,0.928,0.496,0.061,0.305,0.305,120.482
103254,135824,5203,-0.019,0.928,0.496,0.061,0.305,0.305,120.486
103254,135688,8072,-0.02,0.921,0.491,-0.427,0.122,0.122,120.492
103274,135568,5203,-0.02,0.921,0.491,-0.427,0.122,0.122,120.496
103274,135671,8066,-0.021,0.922,0.495,-0.61,0.183,0.122,120.502
103275,135824,5203,-0.021,0.922,0.495,-0.61,0.183,0.122,120.506
103275,135692,8078,-0.019,0.927,0.495,-0.488,0.427,0.366,120.512
103263,135568,5203,-0.019,0.927,0.495,-0.488,0.427,0.366,120.516
103263,135670,8069,-0.015,0.929,0.494,-0.366,0.366,0.488,120.522
103274,135568,5203,-0.015,0.929,0.494,-0.366,0.366,0.488,120.526
103274,135658,8054,-0.021,0.927,0.492,-0.427,0.427,0.549,120.532
103278,135568,5203,-0.021,0.927,0.492,-0.427,0.427,0.549,120.536
103278,135665,8071,-0.017,0.932,0.491,-0.488,0.366,0.549,120.542
103276,135568,5203,-0.017,0.932,0.491,-0.488,0.366,0.549,120.546
103276,135663,8060,-0.02,0.929,0.488,-0.427,0.427,0.549,120.552
103261,135568,5203,-0.02,0.932,0.488,-0.427,0.427,0.549,120.555
103261,135668,8063,-0.015,0.934,0.493,-0.366,0.488,0.61,120.562
103251,135824,5203,-0.014,0.935,0.496,-0.366,0.488,0.61,120.565
103251,135681,8060,-0.018,0.932,0.493,-0.366,0.549,0.305,120.572
103270,135568,5203,-0.017,0.93,0.494,-0.366,0.549,0.305,120.575
103270,135658,8063,-0.02,0.929,0.494,0.183,0.488,0.183,120.581
103251,135568,5203,-0.021,0.93,0.5,0.183,0.488,0.183,120.585
103251,135648,8065,-0.018,0.929,0.495,0.427,0.549,0.305,120.591
103253,135568,5203,-0.02,0.925,0.492,0.427,0.549,0.305,120.595
103253,135648,8080,-0.022,0.924,0.489,0.427,0.549,0.061,120.601
103252,135568,5203,-0.022,0.923,0.486,0.427,0.549,0.061,120.605
103252,135655,8076,-0.021,0.924,0.488,0.366,0.549,0.122,120.611
103245,135568,5203,-0.023,0.919,0.492,0.366,0.549,0.122,120.615
103245,135660,8060,-0.024,0.919,0.485,0.305,0.427,0.122,120.621
103240,135568,5203,-0.023,0.921,0.49,0.305,0.427,0.122,120.625
103240,135627,8072,-0.022,0.92,0.49,-0.122,0.244,0.366,120.631
103206,135568,5203,-0.022,0.923,0.491,-0.122,0.244,0.366,120.635
103206,135642,8070,-0.018,0.923,0.495,-0.671,0.122,0.366,120.641
103210,135568,5203,-0.018,0.923,0.498,-0.671,0.122,0.366,120.645
103210,135618,8065,-0.02,0.923,0.497,-0.61,0.122,0.366,120.651
103227,135568,5203,-0.02,0.925,0.498,-0.61,0.122,0.366,120.654
103227,135621,8062,-0.021,0.926,0.498,-0.183,0.305,0.671,120.661
103214,135568,5203,-0.019,0.928,0.495,-0.183,0.305,0.671,120.664
103214,135613,8064,-0.017,0.932,0.494,-0.122,0.305,0.671,120.671
103213,135568,5203,-0.019,0.931,0.494,-0.122,0.305,0.671,120.674
103213,135629,8068,-0.02,0.927,0.494,-0.244,0.305,0.366,120.68
103208,135568,5203,-0.02,0.924,0.496,-0.244,0.305,0.366,120.684
103208,135611,8066,-0.019,0.924,0.495,-0.244,0.305,0.305,120.69
103180,135568,5203,-0.018,0.925,0.495,-0.244,0.305,0.305,120.694
103180,135625,8057,-0.019,0.924,0.489,0.061,0.366,0.305,120.7
103180,135568,5203,-0.018,0.928,0.486,0.061,0.366,0.305,120.704
103180,135589,8075,-0.018,0.933,0.494,0.427,0.244,0.183,120.71
103180,135568,5203,-0.017,0.933,0.495,0.427,0.244,0.183,120.714
103180,135601,8064,-0.015,0.927,0.496,0.305,0.305,-0.061,120.72
103180,135568,5203,-0.016,0.925,0.499,0.305,0.305,-0.061,120.724
103180,135573,8055,-0.019,0.926,0.501,0.305,0.427,0.061,120.73
103178,135568,5203,-0.021,0.931,0.496,0.305,0.427,0.061,120.734
103178,135576,8066,-0.015,0.929,0.496,0.366,0.488,0.305,120.74
103163,135568,5203,-0.013,0.926,0.495,0.366,0.488,0.305,120.744
103163,135595,8049,-0.018,0.924,0.491,0.305,0.549,0.244,120.75
103131,135568,5203,-0.021,0.924,0.494,0.305,0.549,0.244,120.753
103131,135577,8048,-0.019,0.921,0.499,0.061,0.671,0.305,120.76
103148,135568,5203,-0.019,0.92,0.496,0.061,0.671,0.305,120.763
103148,135583,8066,-0.017,0.92,0.495,0.244,0.671,0.488,120.77
103166,135568,5203,-0.019,0.93,0.495,0.244,0.671,0.488,120.773
103166,135583,8038,-0.016,0.935,0.491,0.183,0.671,0.671,120.779
103144,135568,5203,-0.018,0.928,0.492,0.183,0.671,0.671,120.783
103144,135571,8050,-0.021,0.925,0.49,0.061,0.671,0.427,120.789
103137,135568,5203,-0.019,0.923,0.489,0.061,0.671,0.427,120.793
103137,135586,8053,-0.02,0.924,0.493,-0.244,0.61,0.549,120.799
103150,135568,5203,-0.02,0.928,0.493,-0.244,0.61,0.549,120.803
103150,135551,8044,-0.02,0.93,0.494,-0.061,0.61,0.488,120.809
103142,135568,5203,-0.018,0.93,0.491,-0.061,0.61,0.488,120.813
103142,135586,8062,-0.018,0.928,0.489,0.183,0.488,0.488,120.819
103171,135568,5203,-0.023,0.931,0.486,0.183,0.488,0.488,120.823
103171,135577,8052,-0.023,0.934,0.489,0.061,0.366,0.488,120.829
103168,135568,5203,-0.021,0.93,0.486,0.061,0.366,0.488,120.833
103168,135593,8062,-0.018,0.928,0.491,-0.244,0.305,0.244,120.839
103170,135568,5203,-0.018,0.923,0.488,-0.244,0.305,0.244,120.843
103170,135577,8058,-0.021,0.926,0.491,-0.183,0.183,0.244,120.849
103153,135568,5203,-0.023,0.928,0.49,-0.183,0.183,0.244,120.852
103153,135588,8057,-0.019,0.93,0.491,-0.061,0.122,0.366,120.859
103156,135568,5203,-0.016,0.934,0.493,-0.061,0.122,0.366,120.862
103156,135598,8051,-0.017,0.937,0.494,0.183,0.122,0.183,120.868
103172,135568,5203,-0.019,0.928,0.497,0.183,0.122,0.183,120.872
103172,135601,8044,-0.02,0.924,0.492,0.061,0.183,0,120.878
103167,135568,5203,-0.02,0.925,0.494,0.061,0.183,0,120.882
103167,135606,8051,-0.02,0.928,0.491,0,0.244,0.183,120.888
103169,135568,5203,-0.021,0.928,0.493,0,0.244,0.183,120.892
103169,135610,8046,-0.017,0.926,0.492,0.183,0.305,0.183,120.898
103189,135568,5203,-0.018,0.925,0.492,0.183,0.305,0.183,120.902
103189,135611,8069,-0.02,0.921,0.492,-0.122,0.305,0.061,120.908
103170,135568,5203,-0.02,0.92,0.494,-0.122,0.305,0.061,120.912
103170,135591,8059,-0.019,0.922,0.491,-0.549,0.366,0.305,120.918
103171,135568,5203,-0.018,0.923,0.492,-0.549,0.366,0.305,120.922
103171,135601,8062,-0.019,0.922,0.49,-0.244,0.366,0.244,120.928
103151,135568,5203,-0.021,0.927,0.495,-0.244,0.366,0.244,120.932
103151,135596,8049,-0.019,0.929,0.496,0,0.488,0.488,120.938
103159,135568,5203,-0.015,0.932,0.497,0,0.488,0.488,120.941
103159,135598,8058,-0.019,0.934,0.496,-0.183,0.549,0.488,120.948
103150,135568,5203,-0.017,0.933,0.491,-0.183,0.549,0.488,120.951
103150,135591,8065,-0.019,0.927,0.491,-0.244,0.549,0.305,120.958
103174,135568,5203,-0.019,0.923,0.492,-0.244,0.549,0.305,120.961
103174,135593,8061,-0.018,0.923,0.493,-0.061,0.61,0.427,120.967
103178,135568,5203,-0.023,0.924,0.492,-0.061,0.61,0.427,120.971
103178,135579,8052,-0.022,0.929,0.491,0.183,0.671,0.488,120.977
103189,135568,5203,-0.021,0.931,0.493,0.183,0.671,0.488,120.981
103189,135596,8055,-0.021,0.934,0.49,0.122,0.549,0.427,120.987
103166,135568,5203,-0.021,0.934,0.49,0.122,0.549,0.427,120.991
103166,135609,8042,-0.019,0.927,0.49,-0.366,0.427,0.366,120.997
103166,135568,5203,-0.019,0.927,0.49,-0.366,0.427,0.366,121.001
103166,135563,8047,-0.018,0.924,0.487,-0.488,0.366,0.305,121.007
103146,135568,5203,-0.018,0.924,0.487,-0.488,0.366,0.305,121.011
103146,135573,8055,-0.02,0.93,0.491,0.366,0.366,0.244,121.017
103134,135568,5203,-0.02,0.93,0.491,0.366,0.366,0.244,121.021
103134,135581,8051,-0.016,0.933,0.495,0.366,0.488,0.305,121.027
103138,135568,5203,-0.016,0.933,0.495,0.366,0.488,0.305,121.031
103138,135596,8043,-0.018,0.926,0.49,-0.305,0.488,0.305,121.037
103163,135568,5203,-0.018,0.926,0.49,-0.305,0.488,0.305,121.041
103163,135593,8063,-0.021,0.918,0.491,-0.549,0.427,0.366,121.047
103148,135568,5203,-0.021,0.918,0.491,-0.549,0.427,0.366,121.05
103148,135590,8057,-0.021,0.923,0.494,-0.305,0.366,0.427,121.057
103178,135568,5203,-0.021,0.923,0.494,-0.305,0.366,0.427,121.06
103178,135579,8044,-0.02,0.926,0.487,-0.122,0.305,0.366,121.066
103158,135568,5203,-0.02,0.926,0.487,-0.122,0.305,0.366,121.07
103158,135586,8066,-0.024,0.925,0.486,-0.183,0.183,0.366,121.076
103151,135568,5203,-0.024,0.925,0.486,-0.183,0.183,0.366,121.08
103151,135594,8055,-0.024,0.928,0.494,-0.122,0.244,0.488,121.086
103181,135568,5203,-0.024,0.928,0.494,-0.122,0.244,0.488,121.09
103181,135604,8058,-0.019,0.933,0.491,-0.122,0.305,0.549,121.096
103160,135568,5203,-0.019,0.933,0.491,-0.122,0.305,0.549,121.1
103160,135585,8040,-0.019,0.931,0.495,-0.061,0.366,0.366,121.106
103145,135568,5203,-0.019,0.931,0.495,-0.061,0.366,0.366,121.11
103145,135595,8044,-0.016,0.93,0.497,0.244,0.549,0.427,121.116
103170,135568,5203,-0.016,0.93,0.497,0.244,0.549,0.427,121.12
103170,135583,8046,-0.02,0.933,0.495,0.244,0.549,0.427,121.126
103179,135568,5203,-0.018,0.935,0.489,0.427,0.732,0.427,121.13
103179,135580,8057,-0.017,0.932,0.485,0.427,0.732,0.427,121.136
103144,135568,5203,-0.016,0.933,0.489,0.061,0.549,0.305,121.139
103144,135570,8052,-0.015,0.934,0.489,0.061,0.549,0.305,121.146
103138,135568,5203,-0.014,0.93,0.49,-0.488,0.488,0.183,121.149
103138,135586,8050,-0.014,0.929,0.49,-0.488,0.488,0.183,121.156
103160,135568,5203,-0.018,0.927,0.495,-0.305,0.732,0.244,121.159
103160,135567,8043,-0.02,0.926,0.494,-0.305,0.732,0.244,121.165
103165,135568,5203,-0.017,0.923,0.492,0.122,0.732,0.305,121.169
103165,135603,8059,-0.02,0.924,0.493,0.122,0.732,0.305,121.175
103166,135568,5203,-0.021,0.926,0.494,0.244,0.61,0.244,121.179
103166,135579,8052,-0.019,0.925,0.491,0.244,0.61,0.244,121.185
103173,135568,5203,-0.022,0.924,0.49,0.244,0.549,0.305,121.189
103173,135610,8045,-0.022,0.924,0.493,0.244,0.549,0.305,121.195
103155,135568,5203,-0.022,0.922,0.491,0,0.488,0.305,121.199
103155,135593,8042,-0.021,0.922,0.492,0,0.488,0.305,121.205
103156,135568,5203,-0.021,0.923,0.492,-0.183,0.427,0.305,121.209
103156,135585,8040,-0.021,0.924,0.493,-0.183,0.427,0.305,121.215
103152,135568,5203,-0.022,0.927,0.493,-0.244,0.427,0.305,121.219
103152,135561,8044,-0.017,0.926,0.491,-0.244,0.427,0.305,121.225
103156,135568,5203,-0.02,0.928,0.491,-0.305,0.488,0.488,121.229
103156,135578,8057,-0.019,0.929,0.489,-0.305,0.488,0.488,121.235
103135,135568,5203,-0.018,0.928,0.49,-0.549,0.427,0.549,121.238
103135,135569,8049,-0.016,0.932,0.495,-0.549,0.427,0.549,121.245
103145,135568,5203,-0.017,0.931,0.494,-0.671,0.427,0.488,121.248
103145,135574,8050,-0.017,0.93,0.491,-0.671,0.427,0.488,121.255
103132,135568,5203,-0.016,0.93,0.49,-0.488,0.488,0.488,121.258
103132,135593,8050,-0.017,0.932,0.49,-0.488,0.488,0.488,121.264
103149,135568,5203,-0.018,0.931,0.49,-0.305,0.305,0.549,121.268
103149,135609,8045,-0.018,0.932,0.489,-0.305,0.305,0.549,121.274
103152,135568,5203,-0.021,0.93,0.486,-0.122,0.427,0.366,121.278
103152,135600,8054,-0.02,0.929,0.488,-0.122,0.427,0.366,121.284
103167,135568,5203,-0.018,0.931,0.489,0,0.427,0.305,121.288
103167,135594,8055,-0.019,0.93,0.486,0,0.427,0.305,121.294
103176,135568,5203,-0.022,0.931,0.487,-0.244,0.488,0.305,121.298
103176,135578,8054,-0.021,0.927,0.493,-0.244,0.488,0.305,121.304
103167,135568,5203,-0.02,0.924,0.495,-0.427,0.488,0.305,121.308
103167,135604,8061,-0.023,0.924,0.494,-0.427,0.488,0.305,121.314
103137,135568,5203,-0.022,0.926,0.492,-0.244,0.366,0.183,121.318
103137,135584,8060,-0.019,0.924,0.489,-0.244,0.366,0.183,121.324
103185,135568,5203,-0.021,0.927,0.492,-0.244,0.488,0.244,121.328
103185,135601,8042,-0.021,0.926,0.492,-0.244,0.488,0.244,121.334
103156,135568,5203,-0.019,0.924,0.493,-0.183,0.366,0.244,121.337
103156,135593,8063,-0.021,0.923,0.489,-0.183,0.366,0.244,121.344
103170,135568,5203,-0.021,0.92,0.488,-0.122,0.366,0.244,121.347
103170,135597,8050,-0.02,0.922,0.493,-0.122,0.366,0.244,121.354
103172,135568,5203,-0.02,0.925,0.491,-0.183,0.305,0.427,121.357
103172,135589,8050,-0.021,0.926,0.49,-0.183,0.305,0.427,121.363
103160,135568,5203,-0.019,0.926,0.491,-0.305,0.183,0.366,121.367
103160,135561,8057,-0.018,0.923,0.492,-0.305,0.183,0.366,121.373
103163,135568,5203,-0.018,0.923,0.498,-0.427,0.305,0.366,121.377
103163,135585,8050,-0.018,0.927,0.498,-0.427,0.305,0.366,121.383
103157,135568,5203,-0.018,0.927,0.5,-0.366,0.427,0.488,121.387
103157,135565,8051,-0.017,0.929,0.495,-0.366,0.427,0.488,121.393
103151,135568,5203,-0.02,0.931,0.496,-0.183,0.427,0.488,121.397
103151,135573,8060,-0.019,0.93,0.491,-0.183,0.427,0.488,121.403
103153,135568,5203,-0.021,0.929,0.488,-0.305,0.427,0.488,121.407
103153,135580,8058,-0.019,0.926,0.491,-0.305,0.427,0.488,121.413
103149,135568,5203,-0.018,0.927,0.492,-0.488,0.488,0.366,121.417
103149,135589,8063,-0.02,0.924,0.492,-0.488,0.488,0.366,121.423
103144,135568,5203,-0.018,0.927,0.491,-0.244,0.366,0.305,121.427
103144,135559,8055,-0.019,0.93,0.489,-0.244,0.366,0.305,121.433
103124,135568,5203,-0.016,0.929,0.491,0.305,0.488,0.244,121.436
103124,135563,8055,-0.018,0.932,0.495,0.305,0.488,0.244,121.443
103123,135568,5203,-0.018,0.926,0.497,0.061,0.488,0.305,121.446
103123,135575,8044,-0.02,0.928,0.497,0.061,0.488,0.305,121.453
103114,135568,5203,-0.02,0.926,0.495,-0.061,0.549,0.244,121.456
103114,135561,8038,-0.017,0.926,0.492,-0.061,0.549,0.244,121.462
103135,135568,5203,-0.02,0.925,0.493,-0.122,0.61,0.305,121.466
103135,135558,8056,-0.02,0.924,0.494,-0.122,0.61,0.305,121.472
103123,135568,5203,-0.022,0.925,0.493,-0.183,0.61,0.244,121.476
103123,135553,8057,-0.02,0.923,0.485,-0.183,0.61,0.244,121.482
103123,135568,5203,-0.023,0.92,0.484,-0.183,0.488,0.366,121.486
103123,135544,8039,-0.023,0.923,0.489,-0.183,0.488,0.366,121.492
103108,135568,5203,-0.018,0.933,0.492,0,0.305,0.488,121.496
103108,135553,8041,-0.016,0.933,0.494,0,0.305,0.488,121.502
103107,135568,5203,-0.018,0.932,0.496,0.122,0.427,0.366,121.506
103107,135552,8037,-0.019,0.932,0.495,0.122,0.427,0.366,121.512
103105,135568,5203,-0.017,0.932,0.491,-0.366,0.427,0.427,121.516
103105,135548,8037,-0.018,0.926,0.495,-0.366,0.427,0.427,121.522
103110,135568,5203,-0.02,0.919,0.489,-0.488,0.366,0.488,121.526
103110,135543,8041,-0.018,0.924,0.49,-0.488,0.366,0.488,121.532
103100,135568,5203,-0.019,0.926,0.495,-0.061,0.366,0.427,121.535
103100,135544,8043,-0.02,0.932,0.49,-0.061,0.366,0.427,121.542
103111,135568,5203,-0.021,0.931,0.493,0.366,0.427,0.488,121.545
103111,135546,8053,-0.021,0.929,0.491,0.366,0.427,0.488,121.551
103111,135568,5203,-0.019,0.926,0.489,-0.061,0.366,0.427,121.555
103111,135542,8041,-0.021,0.924,0.493,-0.061,0.366,0.427,121.561
103117,135568,5203,-0.021,0.924,0.493,-0.061,0.366,0.427,121.565
103117,135533,8040,-0.021,0.928,0.492,-0.244,0.183,0.305,121.571
103104,135568,5203,-0.021,0.928,0.492,-0.244,0.183,0.305,121.575
103104,135540,8043,-0.022,0.929,0.487,-0.183,0.244,0.183,121.581
103094,135568,5203,-0.022,0.929,0.487,-0.183,0.244,0.183,121.585
103094,135568,8049,-0.02,0.927,0.494,-0.244,0.305,0.305,121.591
103088,135568,5203,-0.02,0.927,0.494,-0.244,0.305,0.305,121.595
103088,135559,8036,-0.019,0.927,0.491,-0.549,0.366,0.366,121.601
103097,135568,5203,-0.019,0.927,0.491,-0.549,0.366,0.366,121.605
103097,135563,8041,-0.022,0.928,0.492,-0.549,0.427,0.305,121.611
103098,135568,5203,-0.022,0.928,0.492,-0.549,0.427,0.305,121.615
103098,135563,8025,-0.02,0.923,0.49,-0.427,0.427,0.366,121.621
103112,135568,5203,-0.02,0.923,0.49,-0.427,0.427,0.366,121.625
103112,135575,8031,-0.02,0.919,0.486,-0.61,0.305,0.427,121.631
103127,135568,5203,-0.02,0.919,0.486,-0.61,0.305,0.427,121.634
103127,135551,8037,-0.016,0.93,0.491,-0.427,0.427,0.366,121.641
103117,135568,5203,-0.016,0.93,0.491,-0.427,0.427,0.366,121.644
103117,135536,8046,-0.023,0.93,0.493,-0.122,0.549,0.305,121.651
103095,135568,5203,-0.023,0.93,0.493,-0.122,0.549,0.305,121.654
103095,135539,8042,-0.019,0.928,0.496,-0.305,0.488,0.183,121.66
103109,135568,5203,-0.019,0.928,0.496,-0.305,0.488,0.183,121.664
103109,135554,8043,-0.021,0.934,0.496,-0.183,0.549,0.488,121.67
103079,135568,5203,-0.021,0.934,0.496,-0.183,0.549,0.488,121.674
103079,135526,8050,-0.016,0.914,0.488,-0.549,0.61,0.305,121.68
103101,135568,5203,-0.016,0.914,0.488,-0.549,0.61,0.305,121.684
103101,135558,8051,-0.026,0.922,0.485,-0.61,0.305,0.305,121.69
103113,135568,5203,-0.026,0.922,0.485,-0.61,0.305,0.305,121.694
103113,135574,8027,-0.018,0.943,0.492,-0.122,0.427,0.61,121.7
103120,135568,5203,-0.018,0.943,0.492,-0.122,0.427,0.61,121.704
103120,135559,8034,-0.016,0.932,0.489,-0.061,0.427,0.122,121.71
103116,135568,5203,-0.014,0.917,0.494,-0.061,0.427,0.122,121.714
103116,135567,8044,-0.021,0.925,0.496,-0.671,0.183,0.305,121.72
103121,135568,5203,-0.025,0.932,0.497,-0.671,0.183,0.305,121.724
103121,135540,8026,-0.021,0.929,0.496,-0.854,0.549,0.427,121.73
103106,135568,5203,-0.013,0.925,0.496,-0.854,0.549,0.427,121.733
103106,135549,8036,-0.014,0.924,0.493,-0.305,0.305,0.061,121.74
103113,135568,5203,-0.021,0.921,0.49,-0.305,0.305,0.061,121.743
103113,135549,8038,-0.025,0.917,0.488,-0.244,0.366,0.488,121.749
103101,135568,5203,-0.025,0.923,0.486,-0.244,0.366,0.488,121.753
103101,135569,8028,-0.02,0.929,0.487,0.183,0.366,0.488,121.759
103130,135568,5203,-0.017,0.929,0.485,0.183,0.366,0.488,121.763
103130,135559,8049,-0.021,0.931,0.487,0.183,0.183,0.427,121.769
103122,135568,5203,-0.021,0.926,0.486,0.183,0.183,0.427,121.773
103122,135573,8034,-0.02,0.928,0.494,-0.183,0.305,0.549,121.779
103093,135568,5203,-0.016,0.929,0.496,-0.183,0.305,0.549,121.783
103093,135576,8046,-0.016,0.928,0.494,-0.549,0.244,0.488,121.789
103106,135568,5203,-0.017,0.93,0.495,-0.549,0.244,0.488,121.793
103106,135577,8035,-0.015,0.927,0.495,-0.305,0.305,0.366,121.799
103120,135568,5203,-0.017,0.929,0.496,-0.305,0.305,0.366,121.803
103120,135574,8042,-0.019,0.928,0.499,-0.183,0.366,0.427,121.809
103138,135568,5203,-0.02,0.926,0.497,-0.183,0.366,0.427,121.813
103138,135584,8053,-0.02,0.921,0.495,-0.244,0.366,0.244,121.819
103124,135568,5203,-0.018,0.92,0.496,-0.244,0.366,0.244,121.823
103124,135566,8050,-0.023,0.924,0.495,0.122,0.427,0.427,121.829
103130,135568,5203,-0.024,0.927,0.49,0.122,0.427,0.427,121.832
103130,135571,8044,-0.021,0.928,0.483,0.366,0.305,0.671,121.839
103137,135568,5203,-0.02,0.932,0.488,0.366,0.305,0.671,121.842
103137,135572,8041,-0.018,0.932,0.49,0,0.061,0.427,121.848
103138,135568,5203,-0.019,0.933,0.49,0,0.061,0.427,121.852
103138,135570,8042,-0.019,0.932,0.493,-0.061,0.183,0.305,121.858
103127,135568,5203,-0.019,0.929,0.495,-0.061,0.183,0.305,121.862
103127,135586,8062,-0.019,0.93,0.498,0.061,0.427,0.366,121.868
103144,135568,5203,-0.018,0.934,0.497,0.061,0.427,0.366,121.872
103144,135569,8057,-0.019,0.929,0.495,0,0.488,0.366,121.878
103132,135568,5203,-0.017,0.927,0.496,0,0.488,0.366,121.882
103132,135574,8048,-0.017,0.93,0.496,-0.183,0.671,0.427,121.888
103138,135568,5203,-0.019,0.928,0.493,-0.183,0.671,0.427,121.892
103138,135609,8045,-0.019,0.929,0.492,-0.305,0.671,0.488,121.898
103145,135568,5203,-0.018,0.927,0.492,-0.305,0.671,0.488,121.902
103145,135589,8034,-0.017,0.926,0.492,-0.488,0.732,0.488,121.908
103133,135568,5203,-0.017,0.921,0.486,-0.488,0.732,0.488,121.912
103133,135598,8039,-0.021,0.924,0.489,-0.366,0.793,0.671,121.918
103091,135568,5203,-0.024,0.932,0.492,-0.366,0.793,0.671,121.921
103091,135564,8027,-0.02,0.932,0.494,-0.183,0.732,0.732,121.928
103098,135568,5203,-0.019,0.934,0.491,-0.183,0.732,0.732,121.931
103098,135544,8033,-0.019,0.93,0.488,-0.366,0.549,0.488,121.938
103058,135568,5203,-0.019,0.928,0.488,-0.366,0.549,0.488,121.941
103058,135541,8039,-0.018,0.924,0.49,-0.427,0.427,0.244,121.947
103077,135568,5203,-0.02,0.927,0.488,-0.427,0.427,0.244,121.951
103077,135531,8023,-0.018,0.927,0.489,-0.488,0.244,0.122,121.957
103068,135568,5203,-0.017,0.927,0.49,-0.488,0.244,0.122,121.961
103068,135526,8031,-0.018,0.927,0.489,-0.183,0.122,0.061,121.967
103045,135568,5203,-0.018,0.928,0.49,-0.183,0.122,0.061,121.971
103045,135499,8035,-0.019,0.926,0.494,-0.183,0.122,0.183,121.977
103014,135568,5203,-0.021,0.927,0.496,-0.183,0.122,0.183,121.981
103014,135500,8025,-0.019,0.927,0.496,-0.549,0.122,0.244,121.987
103003,135568,5203,-0.02,0.921,0.497,-0.549,0.122,0.244,121.991
103003,135495,8026,-0.018,0.918,0.497,-0.793,0.183,0.305,121.997
102966,135568,5203,-0.023,0.92,0.499,-0.793,0.183,0.305,122.001
102966,135492,8015,-0.02,0.921,0.497,-1.037,0.244,0.488,122.007
102971,135568,5203,-0.017,0.925,0.497,-1.037,0.244,0.488,122.011
102971,135489,8019,-0.017,0.931,0.496,-0.488,0.305,0.549,122.017
102988,135568,5203,-0.02,0.933,0.494,-0.488,0.305,0.549,122.02
102988,135485,8022,-0.017,0.929,0.49,-0.305,0.305,0.488,122.027
102999,135568,5203,-0.018,0.926,0.493,-0.305,0.305,0.488,122.03
102999,135479,8024,-0.018,0.929,0.497,-0.244,0.305,0.366,122.037
103014,135568,5203,-0.02,0.929,0.491,-0.244,0.305,0.366,122.04
103014,135498,8025,-0.018,0.931,0.49,-0.183,0.549,0.366,122.046
103035,135568,5203,-0.021,0.934,0.491,-0.183,0.549,0.366,122.05
103035,135493,8019,-0.021,0.928,0.491,-0.183,0.671,0.488,122.056
103030,135568,5203,-0.02,0.926,0.491,-0.183,0.671,0.488,122.06
103030,135504,8025,-0.019,0.925,0.492,-0.183,0.488,0.427,122.066
103015,135568,5203,-0.021,0.925,0.492,-0.183,0.488,0.427,122.07
103015,135507,8030,-0.02,0.928,0.493,-0.305,0.427,0.305,122.076
103013,135568,5203,-0.021,0.925,0.492,-0.305,0.427,0.305,122.08
103013,135522,8023,-0.02,0.924,0.49,-0.061,0.305,0.366,122.086
103020,135568,5203,-0.021,0.926,0.493,-0.061,0.305,0.366,122.09
103020,135509,8038,-0.021,0.926,0.493,0,0.366,0.427,122.096
103026,135568,5203,-0.023,0.926,0.49,0,0.366,0.427,122.1
103026,135509,8028,-0.021,0.931,0.499,0.061,0.305,0.366,122.106
103023,135568,5203,-0.021,0.926,0.494,0.061,0.305,0.366,122.11
103023,135527,8037,-0.022,0.921,0.496,-0.549,0.122,0.244,122.116
103034,135568,5203,-0.021,0.917,0.493,-0.549,0.122,0.244,122.119
103034,135531,8025,-0.02,0.917,0.496,-0.793,0.122,0.305,122.126
103038,135568,5203,-0.022,0.921,0.5,-0.793,0.122,0.305,122.129
103038,135536,8022,-0.023,0.923,0.501,-0.183,0.183,0.488,122.136
103022,135568,5203,-0.018,0.926,0.497,-0.183,0.183,0.488,122.139
103022,135520,8030,-0.018,0.924,0.496,0.183,0.305,0.61,122.145
103029,135568,5203,-0.018,0.924,0.496,0.183,0.305,0.61,122.149
103029,135503,8016,-0.022,0.926,0.493,0.061,0.305,0.61,122.155
103036,135568,5203,-0.022,0.926,0.493,0.061,0.305,0.61,122.159
103036,135529,8025,-0.018,0.927,0.49,-0.061,0.305,0.549,122.165
103032,135568,5203,-0.018,0.927,0.49,-0.061,0.305,0.549,122.169
103032,135530,8036,-0.021,0.923,0.487,-0.122,0.427,0.488,122.175
103009,135568,5203,-0.021,0.923,0.487,-0.122,0.427,0.488,122.179
103009,135513,8027,-0.019,0.927,0.494,-0.122,0.549,0.549,122.185
102995,135568,5203,-0.019,0.927,0.494,-0.122,0.549,0.549,122.189
102995,135492,8029,-0.017,0.93,0.494,-0.244,0.549,0.488,122.195
102986,135568,5203,-0.017,0.93,0.494,-0.244,0.549,0.488,122.199
102986,135472,8022,-0.017,0.923,0.492,-0.183,0.488,0.427,122.205
102973,135568,5203,-0.017,0.923,0.492,-0.183,0.488,0.427,122.209
102973,135476,8026,-0.018,0.931,0.492,0.061,0.305,0.427,122.215
102971,135568,5203,-0.018,0.931,0.492,0.061,0.305,0.427,122.218
102971,135482,8032,-0.016,0.935,0.492,0.061,0.366,0.244,122.225
102960,135568,5203,-0.016,0.935,0.492,0.061,0.366,0.244,122.228
102960,135477,8018,-0.019,0.923,0.494,-0.061,0.427,0.305,122.235
102968,135568,5203,-0.019,0.923,0.494,-0.061,0.427,0.305,122.238
102968,135466,8014,-0.02,0.923,0.491,-0.061,0.427,0.488,122.244
102988,135568,5203,-0.02,0.923,0.491,-0.061,0.427,0.488,122.248
102988,135474,8024,-0.018,0.93,0.49,0.305,0.305,0.488,122.254
102985,135568,5203,-0.018,0.93,0.49,0.305,0.305,0.488,122.258
102985,135465,8017,-0.019,0.93,0.494,0.122,0.244,0.427,122.264
102991,135568,5203,-0.019,0.93,0.494,0.122,0.244,0.427,122.268
102991,135493,8019,-0.02,0.923,0.495,-0.244,0.366,0.488,122.274
103020,135568,5203,-0.02,0.923,0.495,-0.244,0.366,0.488,122.278
103020,135491,8017,-0.02,0.927,0.491,-0.549,0.305,0.427,122.284
103004,135568,5203,-0.02,0.927,0.491,-0.549,0.305,0.427,122.288
103004,135510,8035,-0.016,0.926,0.494,-0.549,0.305,0.427,122.294
103019,135568,5203,-0.018,0.926,0.492,-0.427,0.244,0.488,122.298
103019,135500,8020,-0.02,0.928,0.491,-0.427,0.244,0.488,122.304
103015,135568,5203,-0.02,0.928,0.493,-0.061,0.305,0.427,122.308
103015,135513,8025,-0.021,0.927,0.498,-0.061,0.305,0.427,122.314
103021,135568,5203,-0.018,0.927,0.497,-0.061,0.305,0.366,122.317
103021,135504,8031,-0.019,0.928,0.495,-0.061,0.305,0.366,122.324
103033,135568,5203,-0.019,0.928,0.494,-0.122,0.305,0.183,122.327
103033,135504,8038,-0.02,0.926,0.491,-0.122,0.305,0.183,122.334
103037,135568,5203,-0.019,0.925,0.493,-0.061,0.366,0.122,122.337
103037,135502,8020,-0.021,0.926,0.497,-0.061,0.366,0.122,122.343
103049,135568,5203,-0.019,0.925,0.494,0.122,0.366,0.183,122.347
103049,135504,8017,-0.02,0.925,0.491,0.122,0.366,0.183,122.353
103028,135568,5203,-0.022,0.924,0.491,0.061,0.488,0.366,122.357
103028,135500,8044,-0.02,0.925,0.493,0.061,0.488,0.366,122.363
103039,135568,5203,-0.02,0.925,0.494,-0.244,0.427,0.488,122.367
103039,135528,8018,-0.019,0.925,0.491,-0.244,0.427,0.488,122.373
103040,135568,5203,-0.019,0.927,0.491,-0.427,0.366,0.366,122.377
103040,135526,8036,-0.019,0.923,0.491,-0.427,0.366,0.366,122.383
103058,135568,5203,-0.021,0.924,0.492,-0.366,0.427,0.427,122.387
103058,135546,8042,-0.021,0.923,0.495,-0.366,0.427,0.427,122.393
103064,135568,5203,-0.018,0.932,0.492,-0.122,0.427,0.671,122.397
103064,135551,8019,-0.02,0.933,0.489,-0.122,0.427,0.671,122.403
103055,135568,5203,-0.019,0.931,0.488,-0.305,0.305,0.549,122.407
103055,135547,8031,-0.019,0.93,0.491,-0.305,0.305,0.549,122.413
103067,135568,5203,-0.02,0.924,0.494,-0.488,0.305,0.305,122.416
103067,135537,8031,-0.021,0.922,0.493,-0.488,0.305,0.305,122.423
103077,135568,5203,-0.02,0.923,0.493,-0.122,0.366,0.305,122.426
103077,135528,8020,-0.021,0.927,0.498,-0.122,0.366,0.305,122.433
103055,135568,5203,-0.017,0.936,0.499,0.427,0.305,0.305,122.436
103055,135530,8013,-0.021,0.935,0.495,0.427,0.305,0.305,122.442
103061,135568,5203,-0.021,0.935,0.493,0.549,0.427,0.122,122.446
103061,135537,8033,-0.016,0.93,0.494,0.549,0.427,0.122,122.452
103059,135568,5203,-0.019,0.926,0.499,0.122,0.488,0,122.456
103059,135532,8037,-0.019,0.922,0.494,0.122,0.488,0,122.462
103054,135568,5203,-0.017,0.922,0.493,0.183,0.488,0.061,122.466
103054,135513,8026,-0.02,0.922,0.495,0.183,0.488,0.061,122.472
103026,135568,5203,-0.018,0.924,0.494,0.488,0.671,0.244,122.476
103026,135536,8035,-0.018,0.923,0.49,0.488,0.671,0.244,122.482
103028,135568,5203,-0.021,0.922,0.491,0.549,0.549,0.488,122.486
103028,135515,8033,-0.021,0.918,0.487,0.549,0.549,0.488,122.492
103004,135568,5203,-0.021,0.922,0.49,0.061,0.366,0.61,122.496
103004,135492,8026,-0.021,0.929,0.49,0.061,0.366,0.61,122.502
103032,135568,5203,-0.018,0.932,0.492,-0.427,0.183,0.427,122.506
103032,135493,8027,-0.016,0.927,0.495,-0.427,0.183,0.427,122.512
103038,135568,5203,-0.016,0.927,0.494,-0.549,0.366,0.366,122.515
103038,135512,8022,-0.021,0.932,0.495,-0.549,0.366,0.366,122.522
103070,135568,5203,-0.02,0.932,0.498,-0.305,0.427,0.61,122.525
103070,135514,8032,-0.02,0.933,0.497,-0.305,0.427,0.61,122.531
103046,135568,5203,-0.018,0.934,0.497,-0.244,0.488,0.427,122.535
103046,135529,8030,-0.018,0.929,0.5,-0.244,0.488,0.427,122.541
103069,135568,5203,-0.017,0.928,0.495,-0.183,0.488,0.244,122.545
103069,135535,8042,-0.016,0.931,0.493,-0.183,0.488,0.244,122.551
103112,135568,5203,-0.014,0.932,0.491,0,0.488,0.244,122.555
103112,135547,8020,-0.014,0.929,0.492,0,0.488,0.244,122.561
103068,135568,5203,-0.016,0.929,0.487,0.122,0.671,0.244,122.565
103068,135555,8033,-0.019,0.928,0.486,0.122,0.671,0.244,122.571
103095,135568,5203,-0.019,0.925,0.488,-0.183,0.61,0.244,122.575
103095,135547,8033,-0.02,0.924,0.488,-0.183,0.61,0.244,122.581
103089,135568,5203,-0.02,0.925,0.484,-0.488,0.366,0.305,122.585
103089,135560,8044,-0.021,0.918,0.483,-0.488,0.366,0.305,122.591
103083,135568,5203,-0.025,0.912,0.488,-0.305,0.244,0.427,122.595
103083,135564,8030,-0.025,0.917,0.491,-0.305,0.244,0.427,122.601
103095,135568,5203,-0.023,0.926,0.491,0.366,0.122,0.549,122.605
103095,135557,8028,-0.024,0.938,0.489,0.366,0.122,0.549,122.611
103088,135568,5203,-0.02,0.941,0.493,0.366,0,0.61,122.614
103088,135574,8028,-0.017,0.938,0.5,0.366,0,0.61,122.621
103082,135568,5203,-0.021,0.932,0.5,-0.671,0.061,0.244,122.624
103082,135574,8030,-0.02,0.924,0.495,-0.671,0.061,0.244,122.63
103097,135568,5203,-0.023,0.923,0.495,-0.915,0.244,0.244,122.634
103097,135565,8046,-0.022,0.924,0.493,-0.915,0.244,0.244,122.64
103103,135568,5203,-0.018,0.93,0.487,-0.061,0.305,0.305,122.644
103103,135578,8051,-0.015,0.933,0.489,-0.061,0.305,0.305,122.65
103104,135568,5203,-0.017,0.93,0.488,0.427,0.366,0.366,122.654
103104,135565,8038,-0.019,0.931,0.494,0.427,0.366,0.366,122.66
103121,135568,5203,-0.018,0.93,0.492,0,0.488,0.366,122.664
103121,135588,8036,-0.017,0.93,0.492,0,0.488,0.366,122.67
103102,135568,5203,-0.014,0.929,0.494,-0.488,0.61,0.244,122.674
103102,135576,8030,-0.014,0.928,0.5,-0.488,0.61,0.244,122.68
103120,135568,5203,-0.017,0.926,0.504,-0.61,0.793,0.427,122.684
103120,135573,8039,-0.02,0.923,0.497,-0.61,0.793,0.427,122.69
103125,135568,5203,-0.02,0.923,0.493,-0.183,0.732,0.488,122.694
103125,135588,8027,-0.019,0.929,0.495,-0.183,0.732,0.488,122.7
103115,135568,5203,-0.021,0.928,0.493,0.244,0.671,0.305,122.704
103115,135598,8046,-0.021,0.928,0.492,0.244,0.671,0.305,122.71
103111,135568,5203,-0.02,0.922,0.488,0.061,0.671,0.122,122.713
103111,135577,8051,-0.021,0.923,0.487,0.061,0.671,0.122,122.72
103108,135568,5203,-0.021,0.923,0.487,0.061,0.671,0.122,122.723
103108,135563,8057,-0.019,0.924,0.49,-0.183,0.305,0.183,122.729
103113,135568,5203,-0.019,0.924,0.49,-0.183,0.305,0.183,122.733
103113,135563,8044,-0.02,0.93,0.494,-0.366,0.183,0.183,122.739
103125,135568,5203,-0.02,0.93,0.494,-0.366,0.183,0.183,122.743
103125,135562,8039,-0.016,0.924,0.499,-0.61,0.305,0.183,122.749
103117,135568,5203,-0.016,0.924,0.499,-0.61,0.305,0.183,122.753
103117,135590,8037,-0.019,0.915,0.489,-0.732,0.122,0.427,122.759
103140,135568,5203,-0.019,0.915,0.489,-0.732,0.122,0.427,122.763
103140,135585,8053,-0.018,0.935,0.492,-0.366,0.122,0.671,122.769
103128,135568,5203,-0.018,0.935,0.492,-0.366,0.122,0.671,122.773
103128,135582,8061,-0.022,0.936,0.496,0.122,0.183,0.549,122.779
103126,135568,5203,-0.022,0.936,0.496,0.122,0.183,0.549,122.783
103126,135591,8068,-0.023,0.924,0.499,-0.183,0.427,0.549,122.789
103126,135568,5203,-0.023,0.924,0.499,-0.183,0.427,0.549,122.793
103126,135589,8045,-0.018,0.926,0.499,-0.732,0.427,0.488,122.799
103101,135568,5203,-0.018,0.926,0.499,-0.732,0.427,0.488,122.802
103101,135575,8057,-0.018,0.928,0.494,-0.427,0.549,0.305,122.809
103112,135568,5203,-0.018,0.928,0.494,-0.427,0.549,0.305,122.812
103112,135574,8047,-0.018,0.927,0.494,0.061,0.732,0.244,122.819
103110,135568,5203,-0.018,0.927,0.494,0.061,0.732,0.244,122.822
103110,135610,8038,-0.023,0.93,0.486,0.366,0.732,0.305,122.828
103118,135568,5203,-0.023,0.93,0.486,0.366,0.732,0.305,122.832
103118,135582,8035,-0.019,0.928,0.486,-0.061,0.488,0.366,122.838
103124,135568,5203,-0.019,0.928,0.486,-0.061,0.488,0.366,122.842
103124,135587,8048,-0.017,0.921,0.488,-0.488,0.305,0.244,122.848
103113,135568,5203,-0.017,0.921,0.488,-0.488,0.305,0.244,122.852
103113,135565,8038,-0.021,0.92,0.494,-0.183,0.61,0.305,122.858
103144,135568,5203,-0.021,0.92,0.494,-0.183,0.61,0.305,122.862
103144,135600,8046,-0.023,0.927,0.495,0.305,0.549,0.549,122.868
103142,135568,5203,-0.017,0.932,0.495,0.305,0.549,0.549,122.872
103142,135597,8065,-0.017,0.935,0.498,0.122,0.305,0.305,122.878
103167,135568,5203,-0.02,0.928,0.492,0.122,0.305,0.305,122.882
103167,135582,8053,-0.02,0.92,0.495,-0.488,0.183,0.244,122.888
103141,135568,5203,-0.022,0.921,0.5,-0.488,0.183,0.244,122.892
103141,135594,8048,-0.02,0.924,0.498,-1.098,0.244,0.366,122.898
103140,135568,5203,-0.016,0.925,0.497,-1.098,0.244,0.366,122.901
103140,135595,8042,-0.017,0.927,0.499,-0.61,0.366,0.244,122.908
103147,135568,5203,-0.017,0.926,0.503,-0.61,0.366,0.244,122.911
103147,135570,8041,-0.021,0.922,0.501,-0.122,0.793,0.61,122.918
103126,135568,5203,-0.023,0.922,0.499,-0.122,0.793,0.61,122.921
103126,135578,8049,-0.021,0.923,0.496,-0.061,0.915,0.854,122.927
103138,135568,5203,-0.022,0.924,0.497,-0.061,0.915,0.854,122.931
103138,135591,8048,-0.023,0.926,0.495,0.061,1.037,0.671,122.937
103141,135568,5203,-0.019,0.925,0.493,0.061,1.037,0.671,122.941
103141,135593,8043,-0.021,0.922,0.494,0.061,1.037,0.488,122.947
103134,135568,5203,-0.02,0.919,0.494,0.061,1.037,0.488,122.951
103134,135562,8040,-0.022,0.925,0.494,0.183,0.976,0.427,122.957
103124,135568,5203,-0.018,0.928,0.491,0.183,0.976,0.427,122.961
103124,135568,8041,-0.015,0.932,0.496,0.183,0.915,0.549,122.967
103097,135568,5203,-0.015,0.927,0.493,0.183,0.915,0.549,122.971
103097,135553,8028,-0.016,0.925,0.492,-0.244,0.793,0.549,122.977
103109,135568,5203,-0.018,0.923,0.493,-0.244,0.793,0.549,122.981
103109,135539,8047,-0.017,0.925,0.489,-0.366,0.671,0.488,122.987
103106,135568,5203,-0.017,0.925,0.491,-0.366,0.671,0.488,122.991
103106,135565,8037,-0.016,0.93,0.489,0.122,0.61,0.61,122.997
103116,135568,5203,-0.017,0.936,0.485,0.122,0.61,0.61,123
103116,135549,8049,-0.018,0.936,0.485,0.183,0.488,0.549,123.007
103107,135568,5203,-0.018,0.928,0.484,0.183,0.488,0.549,123.01
103107,135549,8050,-0.023,0.924,0.484,-0.427,0.366,0.427,123.017
103082,135568,5203,-0.022,0.93,0.484,-0.427,0.366,0.427,123.02
103082,135552,8042,-0.02,0.928,0.487,-0.671,0.244,0.305,123.026
103089,135568,5203,-0.02,0.928,0.487,-0.671,0.244,0.305,123.03
103089,135558,8037,-0.021,0.929,0.49,-0.244,0.183,0.244,123.036
103102,135568,5203,-0.023,0.93,0.493,-0.244,0.183,0.244,123.04
103102,135568,8043,-0.021,0.93,0.497,-0.122,0.183,0.488,123.046
103096,135568,5203,-0.02,0.932,0.492,-0.122,0.183,0.488,123.05
103096,135562,8032,-0.019,0.927,0.493,-0.366,0.061,0.244,123.056
103101,135568,5203,-0.018,0.925,0.493,-0.366,0.061,0.244,123.06
103101,135564,8027,-0.02,0.924,0.493,-0.244,0,0,123.066
103123,135568,5203,-0.02,0.925,0.491,-0.244,0,0,123.07
103123,135570,8030,-0.019,0.929,0.494,0.244,0.061,0,123.076
103144,135568,5203,-0.021,0.931,0.491,0.244,0.061,0,123.08
103144,135546,8042,-0.018,0.927,0.491,0.183,0.122,0.061,123.086
103122,135568,5203,-0.017,0.924,0.49,0.183,0.122,0.061,123.09
103122,135567,8045,-0.017,0.922,0.491,-0.427,0.061,0.061,123.096
103123,135568,5203,-0.017,0.922,0.495,-0.427,0.061,0.061,123.099
103123,135543,8037,-0.018,0.922,0.495,-0.366,0.061,0,123.106
103124,135568,5203,-0.02,0.925,0.496,-0.366,0.061,0,123.109
103124,135583,8065,-0.018,0.925,0.501,-0.061,0.244,0.122,123.116
103126,135568,5203,-0.02,0.925,0.5,-0.061,0.244,0.122,123.119
103126,135584,8039,-0.019,0.923,0.501,0.305,0.305,0.366,123.125
103137,135568,5203,-0.016,0.925,0.496,0.305,0.305,0.366,123.129
103137,135570,8057,-0.018,0.927,0.498,0.244,0.244,0.305,123.135
103112,135568,5203,-0.02,0.93,0.492,0.244,0.244,0.305,123.139
103112,135564,8048,-0.019,0.927,0.493,-0.122,0.366,0.366,123.145
103135,135568,5203,-0.018,0.923,0.493,-0.122,0.366,0.366,123.149
103135,135569,8041,-0.017,0.923,0.494,-0.549,0.488,0.427,123.155
103135,135568,5203,-0.02,0.922,0.495,-0.549,0.488,0.427,123.159
103135,135578,8056,-0.019,0.922,0.495,-0.549,0.549,0.549,123.165
103136,135568,5203,-0.018,0.916,0.493,-0.549,0.549,0.549,123.169
103136,135561,8037,-0.021,0.919,0.497,-0.366,0.61,0.732,123.175
103126,135568,5203,-0.022,0.926,0.495,-0.366,0.61,0.732,123.179
103126,135563,8041,-0.018,0.932,0.488,0.183,0.488,0.793,123.185
103132,135568,5203,-0.022,0.932,0.48,0.183,0.488,0.793,123.189
103132,135569,8031,-0.023,0.932,0.483,0.122,0.366,0.549,123.195
103109,135568,5203,-0.02,0.936,0.488,0.122,0.366,0.549,123.198
103109,135573,8046,-0.019,0.933,0.488,-0.549,0.061,0.244,123.205
103141,135568,5203,-0.02,0.926,0.486,-0.549,0.061,0.244,123.208
103141,135589,8037,-0.019,0.924,0.489,-0.305,0.244,0.183,123.215
103131,135568,5203,-0.024,0.924,0.491,-0.305,0.244,0.183,123.218
103131,135585,8050,-0.022,0.933,0.491,0.305,0.244,0.488,123.224
103122,135568,5203,-0.023,0.932,0.491,0.305,0.244,0.488,123.228
103122,135565,8053,-0.018,0.929,0.494,0.549,0.122,0.183,123.234
103120,135568,5203,-0.019,0.927,0.494,0.549,0.122,0.183,123.238
103120,135584,8059,-0.02,0.925,0.493,0.427,0.183,-0.061,123.244
103137,135568,5203,-0.021,0.922,0.495,0.427,0.183,-0.061,123.248
103137,135585,8033,-0.019,0.926,0.492,0.305,0.183,0,123.254
103112,135568,5203,-0.015,0.928,0.495,0.305,0.183,0,123.258
103112,135582,8024,-0.019,0.925,0.499,0.305,0.244,0,123.264
103144,135568,5203,-0.018,0.921,0.494,0.305,0.244,0,123.268
103144,135562,8043,-0.02,0.922,0.491,0.183,0.183,0.305,123.274
103129,135568,5203,-0.019,0.927,0.495,0.183,0.183,0.305,123.278
103129,135565,8035,-0.018,0.928,0.496,-0.122,0.305,0.244,123.284
103148,135568,5203,-0.018,0.927,0.498,-0.122,0.305,0.244,123.288
103148,135570,8044,-0.018,0.923,0.497,-0.671,0.305,0.244,123.294
103168,135568,5203,-0.019,0.921,0.496,-0.671,0.305,0.244,123.297
103168,135591,8042,-0.018,0.921,0.493,-0.854,0.305,0.427,123.304
103156,135568,5203,-0.018,0.921,0.493,-0.854,0.305,0.427,123.307
103156,135593,8038,-0.017,0.927,0.495,-0.183,0.488,0.671,123.314
103139,135568,5203,-0.017,0.927,0.495,-0.183,0.488,0.671,123.317
103139,135594,8054,-0.013,0.936,0.49,0,0.549,0.671,123.323
103147,135568,5203,-0.013,0.936,0.49,0,0.549,0.671,123.327
103147,135605,8052,-0.015,0.93,0.496,-0.305,0.427,0.427,123.333
103147,135568,5203,-0.015,0.93,0.496,-0.305,0.427,0.427,123.337
103147,135630,8037,-0.022,0.922,0.486,-0.671,0.427,0.488,123.343
103183,135568,5203,-0.022,0.922,0.486,-0.671,0.427,0.488,123.347
103183,135592,8042,-0.017,0.925,0.487,-0.305,0.305,0.427,123.353
103146,135568,5203,-0.017,0.925,0.487,-0.305,0.305,0.427,123.357
103146,135578,8056,-0.022,0.924,0.489,0.183,0.366,0.183,123.363
103168,135568,5203,-0.022,0.924,0.489,0.183,0.366,0.183,123.367
103168,135600,8043,-0.021,0.93,0.492,0.427,0.305,0.488,123.373
103156,135568,5203,-0.021,0.93,0.492,0.427,0.305,0.488,123.377
103156,135617,8038,-0.02,0.935,0.496,0.122,0,0.427,123.383
103149,135568,5203,-0.02,0.935,0.496,0.122,0,0.427,123.387
103149,135606,8031,-0.018,0.93,0.492,0,0.122,0.183,123.393
103148,135568,5203,-0.018,0.93,0.492,0,0.122,0.183,123.396
103148,135612,8062,-0.019,0.925,0.496,0,0.244,0.122,123.403
103177,135568,5203,-0.019,0.925,0.496,0,0.244,0.122,123.406
103177,135600,8040,-0.02,0.929,0.497,0.244,0.305,0.305,123.413
103164,135568,5203,-0.02,0.929,0.497,0.244,0.305,0.305,123.416
103164,135602,8049,-0.013,0.93,0.491,0.183,0.366,0.366,123.422
103174,135568,5203,-0.013,0.93,0.491,0.183,0.366,0.366,123.426
103174,135613,8037,-0.016,0.928,0.49,-0.244,0.488,0.366,123.432
103189,135568,5203,-0.016,0.928,0.49,-0.244,0.488,0.366,123.436
103189,135617,8037,-0.018,0.923,0.49,-0.427,0.549,0.366,123.442
103159,135568,5203,-0.018,0.923,0.49,-0.427,0.549,0.366,123.446
103159,135628,8049,-0.012,0.929,0.488,-0.427,0.549,0.366,123.452
103186,135568,5203,-0.015,0.928,0.49,-0.183,0.549,0.549,123.456
103186,135628,8056,-0.017,0.93,0.493,-0.183,0.549,0.549,123.462
103190,135568,5203,-0.018,0.931,0.495,0.122,0.549,0.549,123.466
103190,135623,8047,-0.018,0.929,0.498,0.122,0.549,0.549,123.472
103207,135568,5203,-0.021,0.931,0.498,-0.122,0.61,0.549,123.476
103207,135615,8054,-0.019,0.927,0.495,-0.122,0.61,0.549,123.482
103192,135568,5203,-0.019,0.926,0.494,-0.488,0.427,0.366,123.486
103192,135621,8039,-0.02,0.926,0.494,-0.488,0.427,0.366,123.492
103194,135568,5203,-0.02,0.923,0.492,-0.244,0.366,0.244,123.495
103194,135636,8055,-0.02,0.918,0.491,-0.244,0.366,0.244,123.502
103214,135568,5203,-0.022,0.918,0.493,0,0.427,0.305,123.505
103214,135627,8048,-0.023,0.92,0.494,0,0.427,0.305,123.512
103189,135568,5203,-0.02,0.92,0.493,-0.122,0.427,0.244,123.515
103189,135632,8039,-0.019,0.917,0.496,-0.122,0.427,0.244,123.521
103200,135568,5203,-0.021,0.918,0.495,-0.122,0.488,0.305,123.525
103200,135629,8054,-0.023,0.923,0.496,-0.122,0.488,0.305,123.531
103200,135568,5203,-0.021,0.926,0.501,-0.122,0.488,0.549,123.535
103200,135638,8038,-0.018,0.926,0.5,-0.122,0.488,0.549,123.541
103187,135568,5203,-0.018,0.927,0.499,-0.305,0.61,0.488,123.545
103187,135622,8046,-0.019,0.928,0.498,-0.305,0.61,0.488,123.551
103189,135568,5203,-0.019,0.924,0.496,-0.488,0.671,0.61,123.555
103189,135625,8049,-0.02,0.922,0.493,-0.488,0.671,0.61,123.561
103184,135568,5203,-0.019,0.927,0.489,-0.183,0.793,0.793,123.565
103184,135619,8050,-0.02,0.934,0.489,-0.183,0.793,0.793,123.571
103190,135568,5203,-0.018,0.93,0.491,0.183,0.915,0.793,123.575
103190,135604,8055,-0.02,0.931,0.489,0.183,0.915,0.793,123.581
103183,135568,5203,-0.023,0.933,0.486,0.183,0.793,0.732,123.585
103183,135612,8065,-0.021,0.93,0.483,0.183,0.793,0.732,123.591
103192,135568,5203,-0.021,0.931,0.482,0.061,0.671,0.671,123.594
103192,135625,8053,-0.018,0.934,0.485,0.061,0.671,0.671,123.601
103193,135568,5203,-0.022,0.934,0.486,-0.183,0.427,0.366,123.604
103193,135627,8043,-0.022,0.93,0.484,-0.183,0.427,0.366,123.61
103182,135568,5203,-0.021,0.926,0.487,-0.183,0.305,0.244,123.614
103182,135632,8043,-0.024,0.929,0.491,-0.183,0.305,0.244,123.62
103193,135568,5203,-0.022,0.93,0.493,-0.122,0.244,0.305,123.624
103193,135635,8044,-0.02,0.929,0.49,-0.122,0.244,0.305,123.63
103214,135568,5203,-0.017,0.928,0.492,0.305,0.183,0.183,123.634
103214,135615,8069,-0.018,0.927,0.492,0.305,0.183,0.183,123.64
103210,135568,5203,-0.02,0.925,0.496,0.488,0.183,-0.061,123.644
103210,135624,8065,-0.022,0.924,0.491,0.488,0.183,-0.061,123.65
103177,135568,5203,-0.024,0.923,0.493,0.305,0.061,0,123.654
103177,135633,8064,-0.02,0.921,0.494,0.305,0.061,0,123.66
103197,135568,5203,-0.018,0.922,0.493,-0.122,0,0.061,123.664
103197,135611,8051,-0.018,0.918,0.49,-0.122,0,0.061,123.67
103205,135568,5203,-0.019,0.916,0.492,-0.305,-0.122,0.183,123.674
103205,135618,8060,-0.018,0.917,0.495,-0.305,-0.122,0.183,123.68
103197,135568,5203,-0.015,0.921,0.494,-0.366,-0.061,0.366,123.684
103197,135629,8027,-0.016,0.922,0.495,-0.366,-0.061,0.366,123.69
103205,135568,5203,-0.017,0.926,0.498,-0.122,0,0.427,123.693
103205,135611,8042,-0.015,0.935,0.498,-0.122,0,0.427,123.7
103195,135568,5203,-0.018,0.931,0.498,-0.061,0.183,0.61,123.703
103195,135607,8047,-0.018,0.929,0.499,-0.061,0.183,0.61,123.71
103205,135568,5203,-0.015,0.928,0.501,0,0.427,0.549,123.713
103205,135609,8047,-0.016,0.929,0.502,0,0.427,0.549,123.719
103200,135568,5203,-0.014,0.927,0.499,0,0.549,0.366,123.723
103200,135611,8051,-0.015,0.924,0.497,0,0.549,0.366,123.729
103188,135568,5203,-0.019,0.924,0.494,0.183,0.671,0.305,123.733
103188,135607,8047,-0.016,0.929,0.49,0.183,0.671,0.305,123.739
103175,135568,5203,-0.019,0.934,0.492,0.488,0.732,0.366,123.743
103175,135603,8055,-0.019,0.936,0.488,0.488,0.732,0.366,123.749
103181,135568,5203,-0.017,0.931,0.484,0.366,0.732,0.183,123.753
103181,135592,8047,-0.016,0.922,0.485,0.366,0.732,0.183,123.759
103165,135568,5203,-0.016,0.922,0.488,0,0.671,0.183,123.763
103165,135588,8036,-0.017,0.927,0.487,0,0.671,0.183,123.769
103185,135568,5203,-0.014,0.929,0.492,-0.244,0.671,0.244,123.773
103185,135607,8038,-0.013,0.927,0.497,-0.244,0.671,0.244,123.779
103206,135568,5203,-0.015,0.932,0.502,0.305,0.793,0.366,123.783
103206,135606,8054,-0.014,0.933,0.499,0.305,0.793,0.366,123.789
103197,135568,5203,-0.016,0.933,0.495,0.244,0.854,0.61,123.792
103197,135606,8069,-0.017,0.93,0.492,0.244,0.854,0.61,123.799
103205,135568,5203,-0.019,0.929,0.486,0,0.732,0.488,123.802
103205,135601,8054,-0.021,0.927,0.484,0,0.732,0.488,123.809
103185,135568,5203,-0.022,0.927,0.488,0.061,0.671,0.488,123.812
103185,135604,8048,-0.024,0.927,0.491,0.061,0.671,0.488,123.818
103196,135568,5203,-0.024,0.927,0.486,0.305,0.671,0.488,123.822
103196,135592,8048,-0.025,0.921,0.487,0.305,0.671,0.488,123.828
103191,135568,5203,-0.025,0.926,0.491,0.305,0.488,0.427,123.832
103191,135592,8052,-0.025,0.929,0.487,0.305,0.488,0.427,123.838
103183,135568,5203,-0.027,0.924,0.482,0.183,0.305,0.305,123.842
103183,135598,8059,-0.023,0.926,0.484,0.183,0.305,0.305,123.848
103193,135568,5203,-0.024,0.932,0.485,0.122,0.122,0.122,123.852
103193,135617,8047,-0.023,0.932,0.485,0.122,0.122,0.122,123.858
103186,135568,5203,-0.019,0.925,0.485,-0.122,0,0,123.862
103186,135607,8055,-0.019,0.923,0.491,-0.122,0,0,123.868
103198,135568,5203,-0.017,0.926,0.495,-0.122,0,-0.061,123.872
103198,135627,8057,-0.019,0.928,0.496,-0.122,0,-0.061,123.878
103210,135568,5203,-0.017,0.929,0.495,0.183,0,0.122,123.882
103210,135622,8050,-0.015,0.93,0.498,0.183,0,0.122,123.888
103205,135568,5203,-0.015,0.93,0.498,0.183,0,0.122,123.891
103205,135615,8060,-0.015,0.931,0.499,0.366,0.122,0.244,123.898
103199,135568,5203,-0.015,0.931,0.499,0.366,0.122,0.244,123.901
103199,135596,8053,-0.016,0.928,0.492,-0.061,0.122,0.305,123.907
103186,135568,5203,-0.016,0.928,0.492,-0.061,0.122,0.305,123.911
103186,135609,8042,-0.016,0.923,0.492,-0.305,0.122,0.183,123.917
103206,135568,5203,-0.016,0.923,0.492,-0.305,0.122,0.183,123.921
103206,135597,8054,-0.016,0.925,0.497,-0.366,0.366,0.305,123.927
103215,135568,5203,-0.016,0.925,0.497,-0.366,0.366,0.305,123.931
103215,135612,8068,-0.018,0.926,0.497,0.061,0.549,0.366,123.937
103205,135568,5203,-0.018,0.926,0.497,0.061,0.549,0.366,123.941
103205,135609,8066,-0.018,0.93,0.5,0.427,0.488,0.366,123.947
103205,135568,5203,-0.018,0.93,0.5,0.427,0.488,0.366,123.951
103205,135620,8054,-0.019,0.933,0.493,0.122,0.549,0.427,123.957
103201,135568,5203,-0.019,0.933,0.493,0.122,0.549,0.427,123.961
103201,135626,8045,-0.023,0.924,0.487,-0.244,0.488,0.366,123.967
103203,135568,5203,-0.023,0.924,0.487,-0.244,0.488,0.366,123.971
103203,135645,8042,-0.021,0.925,0.485,-0.488,0.549,0.366,123.977
103207,135568,5203,-0.021,0.925,0.485,-0.488,0.549,0.366,123.98
103207,135604,8062,-0.019,0.929,0.493,-0.183,0.671,0.488,123.987
103196,135568,5203,-0.019,0.929,0.493,-0.183,0.671,0.488,123.99
103196,135587,8053,-0.017,0.931,0.501,0.183,0.793,0.427,123.997
103211,135568,5203,-0.017,0.931,0.501,0.183,0.793,0.427,124
103211,135599,8059,-0.018,0.928,0.491,0.244,0.854,0.61,124.006
103196,135568,5203,-0.018,0.928,0.491,0.244,0.854,0.61,124.01
103196,135604,8043,-0.022,0.928,0.483,0.122,0.671,0.549,124.016
103193,135568,5203,-0.022,0.928,0.483,0.122,0.671,0.549,124.02
103193,135600,8050,-0.021,0.923,0.484,0,0.61,0.183,124.026
103213,135568,5203,-0.021,0.923,0.484,0,0.61,0.183,124.03
103213,135607,8056,-0.021,0.92,0.482,-0.122,0.427,0.244,124.036
103209,135568,5203,-0.022,0.922,0.486,-0.122,0.427,0.244,124.04
103209,135613,8055,-0.022,0.927,0.491,0.122,0.366,0.305,124.046
103210,135568,5203,-0.021,0.931,0.494,0.122,0.366,0.305,124.05
