99899,134544,5203,0.002,0.774,0.707,-0.183,0.488,0.366,11.748
99899,134418,7698,0,0.777,0.707,-0.061,0.61,0.488,11.754
99878,134544,5203,0,0.779,0.703,-0.061,0.61,0.488,11.758
99878,134434,7704,0.001,0.776,0.704,-0.183,0.549,0.427,11.764
99896,134544,5203,0,0.772,0.709,-0.183,0.549,0.427,11.768
99896,134438,7720,-0.001,0.775,0.707,-0.305,0.244,0.427,11.774
99901,134544,5203,-0.001,0.779,0.709,-0.305,0.244,0.427,11.777
99901,134431,7698,0.001,0.782,0.706,-0.061,0.305,0.305,11.784
99902,134544,5203,-0,0.779,0.705,-0.061,0.305,0.305,11.787
99902,134420,7702,-0.003,0.786,0.709,0.305,0.427,0.305,11.794
99889,134544,5203,-0.007,0.783,0.707,0.305,0.427,0.305,11.797
99889,134432,7693,-0.003,0.779,0.705,-0.183,0.305,0.244,11.803
99889,134544,5203,-0,0.778,0.711,-0.183,0.305,0.244,11.807
99889,134421,7695,-0.001,0.773,0.711,-0.427,0.305,0.183,11.813
99911,134544,5203,-0.002,0.776,0.71,-0.427,0.305,0.183,11.817
99911,134421,7700,0,0.776,0.708,-0.305,0.488,0.244,11.823
99890,134544,5203,0.002,0.774,0.706,-0.305,0.488,0.244,11.827
99890,134454,7703,0.003,0.774,0.707,0,0.427,0.366,11.833
99904,134544,5203,0.005,0.773,0.704,0,0.427,0.366,11.837
99904,134437,7682,0.006,0.776,0.702,0,0.305,0.366,11.843
99907,134544,5203,0.005,0.778,0.705,0,0.305,0.366,11.847
99907,134432,7703,0.003,0.777,0.707,0,0.244,0.305,11.853
99896,134544,5203,0.004,0.779,0.709,0,0.244,0.305,11.857
99896,134434,7695,0.004,0.774,0.709,0.122,0.244,0.305,11.863
99914,134544,5203,0.003,0.775,0.708,0.122,0.244,0.305,11.867
99914,134424,7706,0.002,0.771,0.711,-0.244,0.244,0.427,11.873
99903,134544,5203,-0.003,0.772,0.708,-0.244,0.244,0.427,11.876
99903,134446,7692,-0.003,0.773,0.71,-0.61,0.305,0.366,11.883
99905,134544,5203,-0.003,0.771,0.711,-0.61,0.305,0.366,11.886
99905,134455,7693,-0.005,0.776,0.713,0,0.366,0.488,11.893
99920,134544,5203,-0.004,0.781,0.715,0,0.366,0.488,11.896
99920,134436,7699,0.001,0.786,0.714,0.549,0.488,0.305,11.902
99886,134544,5203,0.003,0.782,0.704,0.549,0.488,0.305,11.906
99886,134433,7699,0.005,0.786,0.704,0.488,0.488,0.183,11.912
99904,134544,5203,0.005,0.783,0.707,0.488,0.488,0.183,11.916
99904,134417,7692,0.003,0.782,0.706,0.061,0.61,0.183,11.922
99893,134544,5203,0.007,0.777,0.704,0.061,0.61,0.183,11.926
99893,134415,7693,0.007,0.773,0.705,-0.366,0.488,0.366,11.932
99891,134544,5203,0.007,0.773,0.705,-0.366,0.488,0.366,11.936
99891,134427,7689,0.003,0.772,0.707,-0.122,0.61,0.61,11.942
99880,134544,5203,0.003,0.772,0.707,-0.122,0.61,0.61,11.946
99880,134415,7700,0.002,0.774,0.708,-0.061,0.549,0.549,11.952
99904,134544,5203,0.002,0.774,0.708,-0.061,0.549,0.549,11.956
99904,134430,7683,-0.001,0.775,0.708,-0.122,0.427,0.549,11.962
99902,134544,5203,-0.001,0.775,0.708,-0.122,0.427,0.549,11.966
99902,134430,7690,0.002,0.774,0.703,-0.122,0.366,0.488,11.972
99898,134544,5203,0.002,0.774,0.703,-0.122,0.366,0.488,11.975
99898,134427,7693,-0.002,0.776,0.703,-0.183,0.183,0.488,11.982
99913,134544,5203,-0.002,0.776,0.703,-0.183,0.183,0.488,11.985
99913,134428,7719,0.001,0.776,0.711,-0.122,0.366,0.427,11.992
99904,134544,5203,0.001,0.776,0.711,-0.122,0.366,0.427,11.995
99904,134435,7689,-0,0.779,0.71,0.122,0.488,0.366,12.001
99908,134544,5203,-0,0.779,0.71,0.122,0.488,0.366,12.005
99908,134435,7688,0.001,0.778,0.712,0,0.549,0.366,12.011
99895,134544,5203,0.001,0.778,0.712,0,0.549,0.366,12.015
99895,134420,7689,0.001,0.776,0.708,-0.061,0.427,0.305,12.021
99921,134544,5203,0.001,0.776,0.708,-0.061,0.427,0.305,12.025
99921,134437,7696,-0.001,0.781,0.705,0.183,0.488,0.366,12.031
99892,134544,5203,-0.001,0.781,0.705,0.183,0.488,0.366,12.035
99892,134430,7702,0.003,0.786,0.705,0.122,0.549,0.366,12.041
99900,134544,5203,0.003,0.786,0.705,0.122,0.549,0.366,12.045
99900,134414,7698,-0.001,0.781,0.706,-0.122,0.671,0.366,12.051
99909,134544,5203,-0.001,0.781,0.706,-0.122,0.671,0.366,12.055
99909,134416,7684,0.004,0.78,0.711,-0.244,0.671,0.183,12.061
99881,134544,5203,0.004,0.78,0.711,-0.244,0.671,0.183,12.065
99881,134411,7702,0.006,0.776,0.707,-0.183,0.732,0.366,12.071
99878,134544,5203,0.006,0.776,0.707,-0.183,0.732,0.366,12.074
99878,134427,7700,0.005,0.771,0.705,-0.183,0.732,0.366,12.081
99899,134544,5203,0.006,0.771,0.706,-0.488,0.732,0.488,12.084
99899,134426,7708,0.007,0.769,0.707,-0.488,0.732,0.488,12.091
99899,134544,5203,0.005,0.77,0.704,-0.427,0.549,0.427,12.094
99899,134430,7694,0.004,0.772,0.7,-0.427,0.549,0.427,12.1
99882,134544,5203,0.002,0.776,0.704,-0.061,0.488,0.427,12.104
99882,134420,7692,0.001,0.776,0.704,-0.061,0.488,0.427,12.11
99888,134544,5203,0,0.777,0.704,-0.183,0.366,0.427,12.114
99888,134426,7691,-0.004,0.777,0.707,-0.183,0.366,0.427,12.12
99906,134544,5203,-0.005,0.776,0.71,-0.61,0.183,0.427,12.124
99906,134443,7698,-0.005,0.776,0.71,-0.61,0.183,0.427,12.13
99908,134544,5203,-0.007,0.779,0.708,-0.854,0.122,0.183,12.134
99908,134429,7698,-0.001,0.778,0.711,-0.854,0.122,0.183,12.14
99931,134544,5203,0.001,0.782,0.715,-0.366,0.305,0.122,12.144
99931,134434,7710,0.003,0.778,0.717,-0.366,0.305,0.122,12.15
99913,134544,5203,0.006,0.776,0.719,-0.183,0.427,0.244,12.154
99913,134450,7688,0.005,0.777,0.71,-0.183,0.427,0.244,12.16
99916,134544,5203,0.002,0.777,0.705,-0.305,0.549,0.244,12.164
99916,134449,7698,0.005,0.776,0.704,-0.305,0.549,0.244,12.17
99904,134544,5203,0.007,0.772,0.703,0.061,0.61,0.183,12.173
99904,134415,7702,0.006,0.78,0.705,0.061,0.61,0.183,12.18
99907,134544,5203,0.005,0.775,0.703,0.244,0.61,0.244,12.183
99907,134430,7721,-0.001,0.781,0.704,0.244,0.61,0.244,12.189
99902,134544,5203,-0,0.782,0.704,0.183,0.61,0.488,12.193
99902,134422,7705,-0,0.776,0.699,0.183,0.61,0.488,12.199
99892,134544,5203,-0.002,0.779,0.699,-0.305,0.366,0.549,12.203
99892,134430,7688,-0.005,0.782,0.7,-0.305,0.366,0.549,12.209
99917,134544,5203,-0.005,0.782,0.704,-0.671,0.244,0.305,12.213
99917,134427,7700,-0.003,0.78,0.709,-0.671,0.244,0.305,12.219
99915,134544,5203,-0.001,0.78,0.709,-0.305,0.305,0.244,12.223
99915,134425,7708,-0.002,0.777,0.709,-0.305,0.305,0.244,12.229
99877,134544,5203,-0.002,0.775,0.708,-0.488,0.366,0.305,12.233
99877,134417,7702,0.001,0.774,0.709,-0.488,0.366,0.305,12.239
99898,134544,5203,0.005,0.772,0.707,-0.549,0.244,0.244,12.243
99898,134433,7692,0.005,0.769,0.705,-0.549,0.244,0.244,12.249
99888,134544,5203,0.003,0.769,0.702,-0.122,0.366,0.305,12.253
99888,134421,7694,0.002,0.771,0.703,-0.122,0.366,0.305,12.259
99897,134544,5203,0.002,0.771,0.708,0,0.244,0.488,12.262
99897,134418,7693,0.002,0.771,0.707,0,0.244,0.488,12.269
99883,134544,5203,-0.003,0.771,0.709,-0.244,0.244,0.671,12.272
99883,134430,7698,-0.007,0.77,0.706,-0.244,0.244,0.671,12.279
99890,134544,5203,-0.01,0.769,0.704,-0.488,0.122,0.732,12.282
99890,134434,7695,-0.007,0.774,0.708,-0.488,0.122,0.732,12.288
99884,134544,5203,-0.01,0.778,0.713,-0.488,0.244,0.671,12.292
99884,134422,7686,-0.008,0.781,0.712,-0.488,0.244,0.671,12.298
99869,134288,5203,-0.007,0.781,0.716,-0.122,0.305,0.366,12.302
99869,134397,7697,-0.003,0.781,0.713,-0.122,0.305,0.366,12.308
99872,134544,5203,-0.002,0.783,0.713,0.122,0.427,0.305,12.312
99872,134423,7695,0,0.784,0.711,0.122,0.427,0.305,12.318
99863,134544,5203,0.003,0.781,0.706,0.122,0.61,0,12.322
99863,134419,7681,0.006,0.776,0.703,0.122,0.61,0,12.328
99865,134544,5203,0.009,0.774,0.704,0.244,0.488,-0.061,12.332
99865,134408,7690,0.009,0.771,0.703,0.244,0.488,-0.061,12.338
99872,134544,5203,0.008,0.772,0.7,0.366,0.488,0.183,12.342
99872,134436,7677,0.005,0.775,0.7,0.366,0.488,0.183,12.348
99864,134288,5203,0.005,0.773,0.701,0.061,0.427,0.427,12.352
99864,134389,7680,0.007,0.771,0.703,0.061,0.427,0.427,12.358
99866,134544,5203,0.001,0.774,0.704,-0.244,0.183,0.732,12.361
99866,134403,7685,-0.002,0.774,0.706,-0.244,0.183,0.732,12.368
99862,134544,5203,-0.005,0.781,0.706,-0.122,0.183,0.671,12.371
99862,134407,7705,-0.001,0.784,0.71,-0.122,0.183,0.671,12.378
99858,134544,5203,0,0.785,0.715,-0.427,0.244,0.549,12.381
99858,134421,7706,0.001,0.784,0.714,-0.427,0.244,0.549,12.387
99884,134544,5203,-0.004,0.777,0.713,-0.549,0.244,0.427,12.391
99884,134414,7693,-0.001,0.774,0.709,-0.549,0.244,0.427,12.397
99869,134544,5203,0.002,0.773,0.711,-0.061,0.427,0.305,12.401
99869,134414,7695,0.005,0.775,0.708,-0.061,0.427,0.305,12.407
99864,134544,5203,0.007,0.773,0.707,0.244,0.61,0.366,12.411
99864,134400,7687,0.004,0.774,0.706,0.244,0.61,0.366,12.417
99853,134544,5203,0.004,0.77,0.702,0.122,0.549,0.488,12.421
99853,134406,7710,0.002,0.765,0.701,0.122,0.549,0.488,12.427
99839,134544,5203,-0.001,0.767,0.702,0.122,0.488,0.732,12.431
99839,134400,7690,-0,0.772,0.7,0.122,0.488,0.732,12.437
99851,134288,5203,-0.001,0.777,0.703,0.122,0.427,0.915,12.441
99851,134399,7691,-0.002,0.779,0.71,0.122,0.427,0.915,12.447
99868,134544,5203,-0.002,0.782,0.711,-0.305,0.305,0.854,12.451
99868,134410,7690,-0.005,0.782,0.712,-0.305,0.305,0.854,12.457
99865,134544,5203,-0.004,0.783,0.711,-0.305,0.305,0.61,12.46
99865,134411,7694,-0.003,0.781,0.71,-0.305,0.305,0.61,12.467
99855,134544,5203,0,0.783,0.712,-0.122,0.244,0.244,12.47
99855,134404,7693,0.005,0.783,0.709,-0.122,0.244,0.244,12.477
99858,134544,5203,0.009,0.781,0.706,-0.061,0.305,0.122,12.48
99858,134412,7713,0.007,0.777,0.705,-0.061,0.305,0.122,12.486
99856,134288,5203,0.007,0.773,0.703,-0.061,0.427,0,12.49
99856,134398,7681,0.007,0.776,0.706,-0.061,0.427,0,12.496
99841,134544,5203,0.006,0.773,0.705,0.061,0.488,0.305,12.5
99841,134402,7693,0.006,0.773,0.705,0.061,0.488,0.305,12.506
99856,134288,5203,0.002,0.773,0.705,0.183,0.427,0.549,12.51
99856,134379,7690,-0,0.775,0.707,0.183,0.427,0.549,12.516
99858,134544,5203,-0,0.775,0.707,0.183,0.427,0.549,12.52
99858,134409,7682,-0.006,0.779,0.709,0,0.305,0.61,12.526
99860,134288,5203,-0.006,0.779,0.709,0,0.305,0.61,12.53
99860,134394,7714,-0.008,0.776,0.71,-0.305,0.244,0.61,12.536
99870,134544,5203,-0.008,0.776,0.71,-0.305,0.244,0.61,12.54
99870,134415,7700,0,0.781,0.713,-0.305,0.305,0.427,12.546
99861,134544,5203,0,0.781,0.713,-0.305,0.305,0.427,12.55
99861,134418,7686,0.003,0.776,0.712,-0.305,0.305,0.122,12.556
99851,134544,5203,0.003,0.776,0.712,-0.305,0.305,0.122,12.559
99851,134403,7682,0.006,0.772,0.709,-0.122,0.366,0.061,12.566
99866,134544,5203,0.006,0.772,0.709,-0.122,0.366,0.061,12.569
99866,134404,7690,0.01,0.77,0.706,0,0.61,0.061,12.576
99867,134544,5203,0.01,0.77,0.706,0,0.61,0.061,12.579
99867,134419,7683,0.008,0.774,0.71,0.061,0.488,0.183,12.585
99875,134544,5203,0.008,0.774,0.71,0.061,0.488,0.183,12.589
99875,134410,7695,0.001,0.774,0.706,0.305,0.488,0.366,12.595
99869,134544,5203,0.001,0.774,0.706,0.305,0.488,0.366,12.599
99869,134412,7704,-0.002,0.775,0.704,0.122,0.61,0.549,12.605
99867,134544,5203,-0.002,0.775,0.704,0.122,0.61,0.549,12.609
99867,134412,7692,-0.004,0.776,0.702,-0.366,0.549,0.61,12.615
99882,134544,5203,-0.004,0.776,0.702,-0.366,0.549,0.61,12.619
99882,134442,7689,-0.008,0.776,0.711,-0.61,0.305,0.549,12.625
99880,134544,5203,-0.008,0.776,0.711,-0.61,0.305,0.549,12.629
99880,134428,7672,0.001,0.78,0.703,-0.366,0.305,0.366,12.635
99876,134544,5203,0.001,0.78,0.703,-0.366,0.305,0.366,12.639
99876,134421,7700,0.003,0.784,0.706,0.061,0.244,0.122,12.645
99888,134544,5203,0.003,0.784,0.706,0.061,0.244,0.122,12.649
99888,134406,7682,0.002,0.783,0.705,0.122,0.305,0.061,12.655
99877,134288,5203,0.004,0.78,0.702,0.122,0.305,0.061,12.658
99877,134379,7699,0.006,0.774,0.704,-0.061,0.305,-0.061,12.665
99844,134288,5203,0.005,0.776,0.706,-0.061,0.305,-0.061,12.668
99844,134376,7688,0.005,0.782,0.708,-0.244,0.244,0.183,12.674
99866,134288,5203,0.002,0.779,0.709,-0.244,0.244,0.183,12.678
99866,134394,7690,-0.002,0.775,0.707,-0.488,0.305,0.183,12.684
99866,134544,5203,0.003,0.773,0.71,-0.488,0.305,0.183,12.688
99866,134418,7697,0.005,0.774,0.709,-0.366,0.183,0.183,12.694
99869,134544,5203,0.001,0.775,0.708,-0.366,0.183,0.183,12.698
99869,134425,7699,-0.002,0.776,0.705,-0.122,0.244,0.244,12.704
99875,134544,5203,0.002,0.777,0.705,-0.122,0.244,0.244,12.708
99875,134409,7697,0.004,0.776,0.705,-0.244,0.366,0.061,12.714
99889,134544,5203,0.006,0.776,0.708,-0.244,0.366,0.061,12.718
99889,134431,7683,0.006,0.769,0.711,-0.488,0.244,0.061,12.724
99867,134544,5203,0.005,0.767,0.71,-0.488,0.244,0.061,12.728
99867,134409,7687,0.006,0.765,0.706,-0.183,0.305,0.427,12.734
99861,134544,5203,0.004,0.77,0.707,-0.183,0.305,0.427,12.738
99861,134404,7695,0.007,0.772,0.71,0.427,0.305,0.549,12.744
99903,134544,5203,0.006,0.773,0.71,0.427,0.305,0.549,12.748
99903,134403,7708,0.002,0.774,0.709,0.61,0.305,0.488,12.754
99864,134544,5203,-0.004,0.776,0.707,0.61,0.305,0.488,12.757
99864,134402,7692,-0.004,0.781,0.711,0.671,0.366,0.671,12.764
99871,134544,5203,-0.009,0.782,0.712,0.671,0.366,0.671,12.767
99871,134400,7698,-0.01,0.779,0.71,0.366,0.488,0.671,12.773
99866,134288,5203,-0.01,0.778,0.707,0.366,0.488,0.671,12.777
99866,134394,7696,-0.01,0.779,0.708,0.061,0.427,0.549,12.783
99892,134544,5203,-0.007,0.779,0.704,0.061,0.427,0.549,12.787
99892,134425,7692,-0.002,0.782,0.706,0.183,0.488,0.366,12.793
99882,134544,5203,-0.002,0.783,0.704,0.183,0.488,0.366,12.797
99882,134421,7698,0.001,0.777,0.708,0.244,0.671,0.183,12.803
99888,134544,5203,0.003,0.778,0.707,0.244,0.671,0.183,12.807
99888,134425,7694,0.002,0.778,0.703,0.366,0.793,0.305,12.813
99889,134544,5203,0.001,0.778,0.702,0.366,0.793,0.305,12.817
99889,134404,7688,0,0.777,0.703,0.549,0.732,0.366,12.823
99877,134544,5203,-0,0.781,0.701,0.549,0.732,0.366,12.827
99877,134403,7691,0.001,0.78,0.696,0.488,0.549,0.427,12.833
99882,134544,5203,-0.002,0.777,0.696,0.488,0.549,0.427,12.837
99882,134403,7703,-0.001,0.782,0.7,0.305,0.244,0.427,12.843
99869,134544,5203,-0,0.785,0.697,0.305,0.244,0.427,12.846
99869,134402,7681,0.002,0.786,0.703,-0.122,0.244,0.122,12.853
99866,134544,5203,0.004,0.78,0.709,-0.122,0.244,0.122,12.856
99866,134423,7682,0.004,0.775,0.712,-0.671,0.122,-0.061,12.863
99872,134288,5203,0.006,0.771,0.712,-0.671,0.122,-0.061,12.866
99872,134394,7682,0.007,0.77,0.71,-0.671,0.122,0.061,12.872
99864,134544,5203,0.008,0.774,0.712,-0.671,0.122,0.061,12.876
99864,134411,7686,0.01,0.772,0.711,-0.183,0.244,0,12.882
99868,134544,5203,0.007,0.771,0.713,-0.183,0.244,0,12.886
99868,134429,7690,0.006,0.767,0.716,0.061,0.244,0.122,12.892
99867,134288,5203,0.006,0.77,0.712,0.061,0.244,0.122,12.896
99867,134392,7710,0.001,0.774,0.708,0.366,0.305,0.488,12.902
99875,134544,5203,-0.003,0.773,0.706,0.366,0.305,0.488,12.906
99875,134413,7692,-0.002,0.78,0.705,0.305,0.366,0.61,12.912
99880,134544,5203,-0.005,0.785,0.71,0.305,0.366,0.61,12.916
99880,134406,7681,-0.004,0.784,0.71,-0.122,0.366,0.549,12.922
99881,134544,5203,-0.008,0.779,0.712,-0.122,0.366,0.549,12.926
99881,134426,7690,-0.007,0.781,0.71,0,0.61,0.366,12.932
99881,134544,5203,-0.002,0.784,0.711,0,0.61,0.366,12.936
99881,134434,7703,0.004,0.785,0.704,-0.061,0.793,0.244,12.942
99893,134544,5203,0.004,0.785,0.703,-0.061,0.793,0.244,12.945
99893,134412,7692,0.005,0.782,0.705,-0.061,0.732,0.183,12.952
99882,134544,5203,0.009,0.78,0.701,-0.061,0.732,0.183,12.955
99882,134411,7702,0.007,0.776,0.698,0,0.671,0.244,12.962
99854,134544,5203,0.009,0.775,0.7,0,0.671,0.244,12.965
99854,134405,7690,0.009,0.773,0.698,-0.122,0.671,0.366,12.971
99850,134288,5203,0.004,0.777,0.701,-0.122,0.671,0.366,12.975
99850,134392,7694,0.003,0.777,0.708,-0.305,0.549,0.61,12.981
99845,134288,5203,0.002,0.775,0.707,-0.305,0.549,0.61,12.985
99845,134386,7699,-0.001,0.777,0.707,-0.549,0.305,0.671,12.991
99859,134544,5203,0,0.781,0.705,-0.549,0.305,0.671,12.995
99859,134402,7690,-0.005,0.784,0.709,-0.61,0.244,0.549,13.001
99862,134544,5203,-0.003,0.786,0.71,-0.61,0.244,0.549,13.005
99862,134401,7686,-0.001,0.779,0.707,-0.793,0.061,0.305,13.011
99869,134288,5203,-0.005,0.771,0.71,-0.793,0.061,0.305,13.015
99869,134373,7699,-0.004,0.771,0.713,-1.159,0.183,0.244,13.021
99861,134288,5203,-0.001,0.771,0.713,-1.159,0.183,0.244,13.025
99861,134394,7691,0.002,0.775,0.714,-0.671,0.305,0.244,13.031
99866,134544,5203,0.003,0.775,0.715,-0.671,0.305,0.244,13.035
99866,134400,7685,0.006,0.772,0.714,-0.122,0.549,0.244,13.041
99861,134544,5203,0.006,0.771,0.712,-0.122,0.549,0.244,13.044
99861,134408,7688,-0.001,0.769,0.711,0,0.549,0.549,13.051
99867,134544,5203,0.001,0.768,0.708,0,0.549,0.549,13.054
99867,134420,7690,-0,0.775,0.704,0.244,0.732,0.732,13.061
99890,134544,5203,-0.001,0.778,0.703,0.244,0.732,0.732,13.064
99890,134412,7694,-0.004,0.774,0.703,0.427,0.671,0.61,13.07
99862,134544,5203,-0.007,0.775,0.701,0.427,0.671,0.61,13.074
99862,134413,7677,-0.006,0.78,0.7,0.061,0.549,0.488,13.08
99871,134544,5203,-0.005,0.778,0.698,0.061,0.549,0.488,13.084
99871,134412,7681,-0.003,0.779,0.697,-0.122,0.366,0.183,13.09
99886,134544,5203,-0.003,0.779,0.697,-0.122,0.366,0.183,13.094
99886,134403,7684,-0.001,0.776,0.707,-0.061,0.305,0.122,13.1
99862,134288,5203,-0.001,0.776,0.707,-0.061,0.305,0.122,13.104
99862,134397,7702,0.002,0.778,0.703,-0.122,0.244,0.061,13.11
99846,134288,5203,0.002,0.778,0.703,-0.122,0.244,0.061,13.114
99846,134386,7688,0.008,0.78,0.709,0,0.244,0.061,13.12
99864,134288,5203,0.008,0.78,0.709,0,0.244,0.061,13.124
99864,134368,7675,0.008,0.78,0.707,0.061,0.183,0.183,13.13
99849,134288,5203,0.008,0.78,0.707,0.061,0.183,0.183,13.134
99849,134372,7682,0.006,0.774,0.71,0,0.122,0.427,13.14
99811,134288,5203,0.006,0.774,0.71,0,0.122,0.427,13.143
99811,134374,7685,0.001,0.781,0.705,0,0.183,0.427,13.15
99834,134288,5203,0.001,0.781,0.705,0,0.183,0.427,13.153
99834,134372,7680,0,0.776,0.71,-0.183,0.244,0.427,13.159
99819,134288,5203,0,0.776,0.71,-0.183,0.244,0.427,13.163
99819,134380,7695,-0.003,0.776,0.717,-0.244,0.305,0.427,13.169
99828,134288,5203,-0.003,0.776,0.717,-0.244,0.305,0.427,13.173
99828,134356,7673,0.003,0.776,0.71,-0.061,0.427,0.244,13.179
99820,134288,5203,0.003,0.776,0.71,-0.061,0.427,0.244,13.183
99820,134378,7677,0.007,0.775,0.71,-0.061,0.488,0.183,13.189
99802,134288,5203,0.007,0.775,0.71,-0.061,0.488,0.183,13.193
99802,134385,7672,0.007,0.769,0.708,0.122,0.61,0.305,13.199
99817,134288,5203,0.007,0.769,0.708,0.122,0.61,0.305,13.203
99817,134344,7680,0.006,0.772,0.704,0.305,0.793,0.488,13.209
99822,134288,5203,0.006,0.772,0.704,0.305,0.793,0.488,13.213
99822,134337,7694,0.003,0.772,0.706,0.305,0.732,0.61,13.219
99819,134288,5203,0.003,0.772,0.706,0.305,0.732,0.61,13.223
99819,134359,7685,-0.003,0.773,0.706,0.305,0.732,0.61,13.229
99812,134288,5203,-0.003,0.773,0.707,0,0.61,0.854,13.233
99812,134382,7690,-0.001,0.775,0.704,0,0.61,0.854,13.239
99828,134288,5203,-0.005,0.777,0.707,-0.122,0.488,0.793,13.242
99828,134371,7688,-0.003,0.781,0.706,-0.122,0.488,0.793,13.249
99833,134288,5203,-0.003,0.782,0.704,0.061,0.61,0.671,13.252
99833,134362,7694,-0.003,0.785,0.702,0.061,0.61,0.671,13.258
99834,134288,5203,-0.002,0.787,0.706,-0.122,0.61,0.488,13.262
99834,134353,7684,-0.001,0.786,0.704,-0.122,0.61,0.488,13.268
99831,134288,5203,0.003,0.783,0.705,-0.183,0.549,0.244,13.272
99831,134372,7685,0,0.779,0.708,-0.183,0.549,0.244,13.278
99830,134288,5203,0.004,0.779,0.706,-0.244,0.671,0.183,13.282
99830,134354,7674,0.009,0.777,0.712,-0.244,0.671,0.183,13.288
99808,134288,5203,0.009,0.776,0.712,-0.244,0.671,0.244,13.292
99808,134375,7686,0.013,0.779,0.709,-0.244,0.671,0.244,13.298
99842,134288,5203,0.011,0.775,0.707,-0.244,0.793,0.549,13.302
99842,134369,7679,0.007,0.775,0.705,-0.244,0.793,0.549,13.308
99821,134288,5203,0.002,0.778,0.703,-0.488,0.793,0.915,13.312
99821,134349,7683,-0.001,0.778,0.7,-0.488,0.793,0.915,13.318
99816,134288,5203,-0.002,0.776,0.699,-0.915,0.793,1.037,13.322
99816,134354,7674,-0.006,0.776,0.704,-0.915,0.793,1.037,13.328
99831,134288,5203,-0.009,0.776,0.706,-0.915,0.793,0.915,13.331
99831,134359,7684,-0.006,0.781,0.712,-0.915,0.793,0.915,13.338
99806,134288,5203,-0.007,0.784,0.712,-0.488,0.671,0.61,13.341
99806,134382,7676,-0.007,0.781,0.716,-0.488,0.671,0.61,13.348
99835,134288,5203,-0.01,0.779,0.714,-0.183,0.732,0.366,13.351
99835,134365,7671,-0.007,0.775,0.711,-0.183,0.732,0.366,13.357
99839,134288,5203,-0.003,0.774,0.711,0.122,0.732,0.122,13.361
99839,134377,7686,0.002,0.778,0.712,0.122,0.732,0.122,13.367
99817,134288,5203,0.002,0.777,0.705,0.671,0.854,-0.122,13.371
99817,134391,7682,0.006,0.773,0.704,0.671,0.854,-0.122,13.377
99835,134288,5203,0.008,0.773,0.704,0.671,0.732,-0.061,13.381
99835,134375,7673,0.006,0.774,0.702,0.671,0.732,-0.061,13.387
99824,134288,5203,0.01,0.774,0.703,0.549,0.61,0.244,13.391
99824,134364,7697,0.006,0.775,0.703,0.549,0.61,0.244,13.397
99818,134288,5203,0.005,0.774,0.702,0.305,0.61,0.488,13.401
99818,134364,7676,0.003,0.772,0.706,0.305,0.61,0.488,13.407
99822,134288,5203,0.004,0.773,0.709,0.061,0.488,0.732,13.411
99822,134381,7685,0,0.776,0.71,0.061,0.488,0.732,13.417
99818,134288,5203,-0.002,0.779,0.706,0.366,0.61,0.732,13.421
99818,134362,7674,0,0.783,0.706,0.366,0.61,0.732,13.427
99804,134288,5203,0.001,0.783,0.704,0.488,0.671,0.671,13.43
99804,134376,7686,-0.001,0.783,0.706,0.488,0.671,0.671,13.437
99813,134288,5203,-0.002,0.782,0.708,0,0.61,0.61,13.44
99813,134368,7684,0.001,0.778,0.706,0,0.61,0.61,13.447
99803,134288,5203,0.001,0.776,0.706,-0.061,0.61,0.305,13.45
99803,134349,7676,-0.002,0.775,0.704,-0.061,0.61,0.305,13.456
99818,134288,5203,0.001,0.773,0.707,0.061,0.61,0.122,13.46
99818,134346,7683,-0,0.771,0.703,0.061,0.61,0.122,13.466
99824,134288,5203,0.001,0.773,0.699,0.183,0.427,0.122,13.47
99824,134365,7679,-0,0.774,0.701,0.183,0.427,0.122,13.476
99824,134288,5203,-0,0.779,0.699,0.61,0.366,0.305,13.48
99824,134373,7702,0,0.784,0.703,0.61,0.366,0.305,13.486
99839,134288,5203,-0.002,0.781,0.701,0.305,0.244,0.488,13.49
99839,134366,7676,-0.001,0.781,0.703,0.305,0.244,0.488,13.496
99837,134288,5203,-0.002,0.782,0.704,-0.183,0.061,0.488,13.5
99837,134387,7685,-0.003,0.782,0.706,-0.183,0.061,0.488,13.506
99832,134288,5203,-0.004,0.781,0.709,0.061,0.244,0.427,13.51
99832,134372,7683,-0,0.782,0.711,0.061,0.244,0.427,13.516
99853,134288,5203,-0.001,0.784,0.709,0.305,0.427,0.549,13.52
99853,134371,7678,0.002,0.785,0.708,0.305,0.427,0.549,13.526
99826,134288,5203,0.002,0.782,0.708,-0.061,0.366,0.305,13.529
99826,134372,7681,0.002,0.779,0.706,-0.061,0.366,0.305,13.536
99806,134288,5203,0.004,0.778,0.702,0,0.427,0.183,13.539
99806,134363,7689,0.005,0.777,0.703,0,0.427,0.183,13.545
99820,134288,5203,0.006,0.775,0.704,0,0.61,0.244,13.549
99820,134357,7692,0.009,0.774,0.703,0,0.61,0.244,13.555
99834,134288,5203,0.01,0.776,0.706,-0.061,0.732,0.366,13.559
99834,134354,7688,0.008,0.773,0.705,-0.061,0.732,0.366,13.565
99825,134288,5203,0.006,0.771,0.707,-0.305,0.732,0.549,13.569
99825,134364,7683,0.003,0.769,0.709,-0.305,0.732,0.549,13.575
99844,134288,5203,0.001,0.769,0.71,-0.488,0.488,0.732,13.579
99844,134361,7676,-0.002,0.771,0.704,-0.488,0.488,0.732,13.585
99835,134288,5203,-0.001,0.776,0.706,-0.488,0.366,0.671,13.589
99835,134358,7681,-0.004,0.776,0.71,-0.488,0.366,0.671,13.595
99832,134288,5203,-0.004,0.778,0.712,-0.549,0.244,0.427,13.599
99832,134365,7672,-0.004,0.776,0.709,-0.549,0.244,0.427,13.605
99819,134288,5203,-0.006,0.776,0.705,-0.488,0.244,0.305,13.609
99819,134383,7684,-0.004,0.78,0.703,-0.488,0.244,0.305,13.615
99814,134288,5203,-0.004,0.782,0.708,-0.244,0.244,0.122,13.618
99814,134361,7673,0,0.78,0.706,-0.244,0.244,0.122,13.625
99801,134288,5203,0.002,0.782,0.707,-0.366,0.183,-0.183,13.628
99801,134349,7676,0.004,0.782,0.709,-0.366,0.183,-0.183,13.635
99809,134288,5203,0.005,0.781,0.707,-0.305,0.244,-0.122,13.638
99809,134365,7695,0.009,0.778,0.703,-0.305,0.244,-0.122,13.644
99808,134288,5203,0.01,0.773,0.706,-0.183,0.305,0.061,13.648
99808,134348,7686,0.004,0.777,0.703,-0.183,0.305,0.061,13.654
99804,134288,5203,0.004,0.777,0.703,-0.183,0.305,0.061,13.658
99804,134352,7684,0.003,0.781,0.705,-0.305,0.244,0.244,13.664
99824,134288,5203,0.003,0.781,0.705,-0.305,0.244,0.244,13.668
99824,134352,7672,-0.004,0.779,0.703,-0.244,0.366,0.427,13.674
99810,134288,5203,-0.004,0.779,0.703,-0.244,0.366,0.427,13.678
99810,134366,7673,-0.007,0.78,0.701,-0.366,0.305,0.427,13.684
99813,134288,5203,-0.007,0.78,0.701,-0.366,0.305,0.427,13.688
99813,134357,7681,-0.003,0.779,0.704,-0.305,0.183,0.305,13.694
99819,134288,5203,-0.003,0.779,0.704,-0.305,0.183,0.305,13.698
99819,134365,7681,-0.004,0.777,0.704,-0.244,0.244,0.122,13.704
99821,134288,5203,-0.004,0.777,0.704,-0.244,0.244,0.122,13.708
99821,134359,7686,0.005,0.772,0.707,-0.549,0.183,0.183,13.714
99829,134288,5203,0.005,0.772,0.707,-0.549,0.183,0.183,13.717
99829,134335,7693,0.006,0.771,0.707,-0.244,0.122,0,13.724
99812,134288,5203,0.006,0.771,0.707,-0.244,0.122,0,13.727
99812,134371,7691,0.005,0.776,0.709,0.427,0.305,0.305,13.734
99820,134288,5203,0.005,0.776,0.709,0.427,0.305,0.305,13.737
99820,134362,7696,0.006,0.774,0.711,0,0.244,0.427,13.743
99831,134288,5203,0.006,0.774,0.711,0,0.244,0.427,13.747
99831,134356,7692,-0.001,0.775,0.712,-0.305,0.305,0.488,13.753
99835,134288,5203,-0.001,0.775,0.712,-0.305,0.305,0.488,13.757
99835,134347,7683,-0.001,0.777,0.708,-0.305,0.366,0.61,13.763
99852,134288,5203,-0.001,0.777,0.708,-0.305,0.366,0.61,13.767
99852,134358,7683,0.003,0.779,0.716,-0.549,0.366,0.427,13.773
99862,134288,5203,0.003,0.779,0.716,-0.549,0.366,0.427,13.777
99862,134381,7697,-0,0.773,0.713,-0.671,0.305,0.427,13.783
99839,134288,5203,-0,0.773,0.713,-0.671,0.305,0.427,13.787
99839,134358,7674,0.003,0.778,0.711,-0.061,0.366,0.183,13.793
99847,134288,5203,0.003,0.778,0.711,-0.061,0.366,0.183,13.797
99847,134368,7684,0.007,0.781,0.708,0.305,0.732,0.305,13.803
99837,134288,5203,0.005,0.78,0.704,0.305,0.732,0.305,13.807
99837,134357,7693,0.004,0.774,0.703,0,0.732,0.427,13.813
99837,134288,5203,0.002,0.771,0.704,0,0.732,0.427,13.816
99837,134360,7672,0,0.774,0.707,-0.305,0.549,0.427,13.823
99824,134288,5203,-0.001,0.778,0.706,-0.305,0.549,0.427,13.826
99824,134354,7668,0.002,0.777,0.706,0.122,0.549,0.244,13.833
99827,134288,5203,-0.001,0.779,0.706,0.122,0.549,0.244,13.836
99827,134364,7680,-0.003,0.779,0.703,0.061,0.427,0.366,13.842
99815,134288,5203,-0.005,0.778,0.701,0.061,0.427,0.366,13.846
99815,134371,7681,-0.005,0.777,0.702,-0.244,0.366,0.244,13.852
99832,134288,5203,0.001,0.774,0.703,-0.244,0.366,0.244,13.856
99832,134349,7693,0.005,0.775,0.706,-0.305,0.305,0.183,13.862
99818,134288,5203,0.004,0.773,0.708,-0.305,0.305,0.183,13.866
99818,134360,7682,-0,0.771,0.71,-0.244,0.305,0.244,13.872
99832,134288,5203,0.002,0.774,0.709,-0.244,0.305,0.244,13.876
99832,134369,7686,0.004,0.776,0.712,-0.061,0.244,0.244,13.882
99818,134288,5203,0.003,0.777,0.714,-0.061,0.244,0.244,13.886
99818,134323,7693,0.003,0.779,0.709,0.366,0.183,0.366,13.892
99824,134288,5203,0.003,0.78,0.706,0.366,0.183,0.366,13.896
99824,134350,7681,0.004,0.783,0.706,0.488,0.366,0.305,13.902
99823,134288,5203,0,0.783,0.702,0.488,0.366,0.305,13.906
99823,134336,7691,-0.002,0.779,0.702,0.183,0.366,0.427,13.912
99836,134288,5203,-0.003,0.778,0.702,0.183,0.366,0.427,13.915
99836,134338,7677,-0.001,0.78,0.702,-0.183,0.305,0.488,13.922
99829,134288,5203,-0.004,0.779,0.705,-0.183,0.305,0.488,13.925
99829,134360,7684,-0.004,0.781,0.703,-0.183,0.427,0.244,13.932
99832,134288,5203,-0.003,0.779,0.706,-0.183,0.427,0.244,13.935
99832,134351,7688,-0.001,0.777,0.706,-0.183,0.366,0.244,13.941
99850,134288,5203,0,0.782,0.706,-0.183,0.366,0.244,13.945
99850,134344,7683,0.005,0.782,0.711,-0.122,0.305,0.122,13.951
99837,134288,5203,0.007,0.779,0.707,-0.122,0.305,0.122,13.955
99837,134347,7682,0.007,0.775,0.709,-0.244,0.549,0.061,13.961
99846,134288,5203,0.008,0.77,0.715,-0.244,0.549,0.061,13.965
99846,134368,7682,0.006,0.769,0.709,-0.122,0.427,0.305,13.971
99846,134288,5203,0.007,0.772,0.709,-0.122,0.427,0.305,13.975
99846,134359,7686,0.007,0.781,0.707,0.122,0.549,0.366,13.981
99847,134288,5203,0.002,0.78,0.703,0.122,0.549,0.366,13.985
99847,134358,7681,0.002,0.777,0.705,-0.183,0.366,0.427,13.991
99816,134288,5203,-0,0.775,0.707,-0.183,0.366,0.427,13.995
99816,134332,7694,0.001,0.775,0.707,-0.488,0.244,0.549,14.001
99841,134288,5203,-0.003,0.779,0.709,-0.488,0.244,0.549,14.005
99841,134357,7693,-0.005,0.78,0.711,-0.366,0.427,0.61,14.011
99816,134288,5203,-0.002,0.778,0.712,-0.366,0.427,0.61,14.014
99816,134356,7687,-0.003,0.777,0.712,-0.488,0.488,0.61,14.021
99820,134288,5203,-0.003,0.777,0.71,-0.488,0.488,0.61,14.024
99820,134345,7695,-0.003,0.779,0.708,-0.305,0.488,0.427,14.03
99827,134288,5203,0.001,0.782,0.707,-0.305,0.488,0.427,14.034
99827,134360,7676,0.009,0.779,0.708,-0.244,0.488,0.244,14.04
99833,134288,5203,0.001,0.777,0.707,-0.244,0.488,0.244,14.044
99833,134353,7676,0.003,0.78,0.706,0.061,0.549,0.305,14.05
99827,134288,5203,-0,0.779,0.703,0.061,0.549,0.305,14.054
99827,134348,7688,-0.003,0.779,0.703,-0.122,0.671,0.427,14.06
99833,134288,5203,0.001,0.777,0.701,-0.122,0.671,0.427,14.064
99833,134338,7689,0,0.781,0.7,-0.183,0.488,0.427,14.07
99819,134288,5203,-0.002,0.784,0.702,-0.183,0.488,0.427,14.074
99819,134348,7690,-0.005,0.781,0.703,-0.305,0.488,0.488,14.08
99822,134288,5203,-0.004,0.778,0.703,-0.305,0.488,0.488,14.084
99822,134341,7688,-0.003,0.779,0.707,-0.427,0.366,0.366,14.09
99838,134288,5203,-0.004,0.781,0.707,-0.427,0.366,0.366,14.094
99838,134352,7685,-0.001,0.779,0.708,-0.549,0.244,0.244,14.1
99831,134288,5203,-0,0.776,0.708,-0.549,0.244,0.244,14.103
99831,134340,7699,-0,0.776,0.708,-0.488,0.183,0.183,14.11
99828,134288,5203,0,0.776,0.705,-0.488,0.183,0.183,14.113
99828,134344,7683,0.002,0.777,0.705,-0.122,0.244,0,14.12
99830,134288,5203,0.006,0.78,0.703,-0.122,0.244,0,14.123
99830,134356,7685,0.01,0.778,0.706,-0.122,0,-0.061,14.129
99800,134288,5203,0.008,0.776,0.708,-0.122,0,-0.061,14.133
99800,134350,7691,0.005,0.774,0.711,0.122,0.305,0.061,14.139
99813,134288,5203,-0,0.776,0.71,0.122,0.305,0.061,14.143
99813,134371,7683,0,0.772,0.71,-0.061,0.427,0.427,14.149
99836,134288,5203,0.003,0.774,0.71,-0.061,0.427,0.427,14.153
99836,134358,7695,0.001,0.777,0.704,-0.244,0.305,0.671,14.159
99828,134288,5203,-0.001,0.777,0.705,-0.244,0.305,0.671,14.163
99828,134352,7688,-0.003,0.776,0.706,-0.427,0.366,0.671,14.169
99810,134288,5203,-0.005,0.777,0.708,-0.427,0.366,0.671,14.173
99810,134331,7685,-0.007,0.774,0.713,-0.549,0.427,0.488,14.179
99824,134288,5203,-0.003,0.773,0.712,-0.549,0.427,0.488,14.183
99824,134347,7687,0,0.773,0.709,-0.549,0.366,0.366,14.189
99835,134288,5203,-0.004,0.772,0.708,-0.549,0.366,0.366,14.193
99835,134341,7686,-0.002,0.772,0.708,0,0.366,0.244,14.199
99834,134288,5203,-0,0.775,0.705,0,0.366,0.244,14.202
99834,134324,7665,0,0.778,0.703,0.427,0.305,0.305,14.209
99824,134288,5203,0.002,0.781,0.702,0.427,0.305,0.305,14.212
99824,134329,7689,0.003,0.779,0.703,0,0.305,0.427,14.219
99839,134288,5203,0.004,0.78,0.705,0,0.305,0.427,14.222
99839,134351,7682,0,0.777,0.705,-0.305,0.244,0.427,14.228
99830,134288,5203,0.002,0.777,0.703,-0.305,0.244,0.427,14.232
99830,134343,7693,-0,0.784,0.708,0.122,0.244,0.488,14.238
99829,134288,5203,-0,0.784,0.708,0.122,0.244,0.488,14.242
99829,134345,7689,0.001,0.789,0.709,0.427,0.427,0.427,14.248
99826,134288,5203,0.001,0.789,0.709,0.427,0.427,0.427,14.252
99826,134350,7690,0.001,0.784,0.705,-0.305,0.366,0.305,14.258
99824,134288,5203,0.001,0.784,0.705,-0.305,0.366,0.305,14.262
99824,134371,7684,0.005,0.772,0.702,-1.037,0.183,0.244,14.268
99840,134288,5203,0.005,0.772,0.702,-1.037,0.183,0.244,14.272
99840,134335,7677,0.005,0.777,0.71,-0.488,0.366,0.305,14.278
99835,134288,5203,0.005,0.777,0.71,-0.488,0.366,0.305,14.282
99835,134323,7689,0.006,0.774,0.712,0,0.61,0.488,14.288
99825,134288,5203,0.006,0.774,0.712,0,0.61,0.488,14.292
99825,134339,7689,0.005,0.773,0.708,0,0.549,0.793,14.298
99832,134288,5203,0.005,0.773,0.708,0,0.549,0.793,14.301
99832,134361,7672,-0.006,0.777,0.708,0.061,0.61,0.854,14.308
99827,134288,5203,-0.006,0.777,0.708,0.061,0.61,0.854,14.311
99827,134342,7678,-0.004,0.775,0.703,-0.122,0.488,0.732,14.318
99826,134288,5203,-0.004,0.775,0.703,-0.122,0.488,0.732,14.321
99826,134353,7682,-0.007,0.778,0.71,-0.366,0.488,0.549,14.327
99823,134288,5203,-0.007,0.778,0.71,-0.366,0.488,0.549,14.331
99823,134354,7678,-0,0.777,0.711,-0.549,0.427,0.122,14.337
99839,134288,5203,-0,0.777,0.711,-0.549,0.427,0.122,14.341
99839,134360,7681,0.002,0.778,0.707,-0.122,0.366,0,14.347
99837,134288,5203,0.002,0.778,0.707,-0.122,0.366,0,14.351
99837,134363,7697,0.007,0.779,0.704,0,0.427,0,14.357
99840,134288,5203,0.007,0.779,0.704,0,0.427,0,14.361
99840,134358,7683,0.006,0.78,0.697,-0.305,0.183,-0.122,14.367
99819,134288,5203,0.006,0.78,0.697,-0.305,0.183,-0.122,14.371
99819,134347,7682,0.005,0.778,0.696,-0.305,0.183,-0.122,14.377
99814,134288,5203,0.007,0.776,0.699,-0.671,-0.061,0.122,14.381
99814,134362,7684,0.003,0.777,0.704,-0.671,-0.061,0.122,14.387
99832,134288,5203,-0.001,0.783,0.707,-0.549,-0.061,0.366,14.391
99832,134359,7683,-0,0.783,0.708,-0.549,-0.061,0.366,14.397
99858,134288,5203,-0.003,0.784,0.71,-0.549,0,0.366,14.4
99858,134352,7686,-0.003,0.781,0.714,-0.549,0,0.366,14.407
99836,134288,5203,-0.003,0.78,0.714,-0.732,0.122,0.366,14.41
99836,134361,7684,-0.006,0.78,0.712,-0.732,0.122,0.366,14.417
99835,134288,5203,-0.001,0.776,0.708,-0.427,0.244,0.183,14.42
99835,134344,7684,0.001,0.777,0.704,-0.427,0.244,0.183,14.426
99825,134288,5203,0.004,0.78,0.703,-0.122,0.244,0.122,14.43
99825,134350,7681,0.006,0.777,0.706,-0.122,0.244,0.122,14.436
99823,134288,5203,0.006,0.77,0.704,-0.244,0.183,0.122,14.44
99823,134338,7683,0.002,0.766,0.709,-0.244,0.183,0.122,14.446
99822,134288,5203,0.001,0.767,0.709,-0.061,0.183,0.244,14.45
99822,134371,7686,0.004,0.769,0.71,-0.061,0.183,0.244,14.456
99814,134288,5203,0.005,0.768,0.708,0.122,0.244,0.305,14.46
99814,134360,7696,0.005,0.772,0.705,0.122,0.244,0.305,14.466
99829,134288,5203,0.003,0.774,0.708,-0.122,0.061,0.427,14.47
99829,134362,7684,0.002,0.773,0.711,-0.122,0.061,0.427,14.476
99850,134288,5203,-0,0.773,0.711,-0.488,0.122,0.549,14.48
99850,134357,7690,-0.002,0.773,0.712,-0.488,0.122,0.549,14.486
99842,134288,5203,-0.001,0.778,0.715,-0.61,0.183,0.488,14.49
99842,134356,7692,0.002,0.78,0.715,-0.61,0.183,0.488,14.496
99842,134288,5203,0.002,0.777,0.717,-0.671,0.244,0.366,14.499
99842,134369,7711,0.004,0.775,0.714,-0.671,0.244,0.366,14.506
99834,134288,5203,0.001,0.77,0.711,-0.488,0.366,0.305,14.509
99834,134378,7680,0.001,0.773,0.712,-0.488,0.366,0.305,14.515
99835,134288,5203,0.004,0.775,0.714,-0.061,0.61,0.366,14.519
99835,134352,7692,0.005,0.775,0.708,-0.061,0.61,0.366,14.525
99813,134288,5203,0.007,0.777,0.705,0.366,0.61,0.488,14.529
99813,134359,7688,0.003,0.778,0.703,0.366,0.61,0.488,14.535
99820,134288,5203,0,0.775,0.702,0.305,0.549,0.488,14.539
99820,134351,7678,-0.004,0.773,0.7,0.305,0.549,0.488,14.545
99808,134288,5203,-0.004,0.778,0.701,0,0.549,0.427,14.549
99808,134351,7685,-0.003,0.779,0.706,0,0.549,0.427,14.555
99833,134288,5203,-0.002,0.781,0.71,0.122,0.549,0.305,14.559
99833,134346,7700,-0.003,0.778,0.71,0.122,0.549,0.305,14.565
99808,134288,5203,0.003,0.78,0.709,0,0.488,0.244,14.569
99808,134345,7688,0.001,0.775,0.705,0,0.488,0.244,14.575
99820,134288,5203,0.002,0.774,0.704,-0.427,0.244,0.061,14.579
99820,134324,7680,0.005,0.776,0.707,-0.427,0.244,0.061,14.585
99832,134288,5203,0.007,0.78,0.706,-0.366,0.244,0,14.588
99832,134317,7679,0.007,0.775,0.708,-0.366,0.244,0,14.595
99821,134288,5203,0.008,0.771,0.71,-0.061,0.305,0.244,14.598
99821,134331,7692,0.003,0.772,0.705,-0.061,0.305,0.244,14.605
99827,134288,5203,-0.001,0.769,0.707,-0.305,0.244,0.549,14.608
99827,134338,7704,0.002,0.774,0.711,-0.305,0.244,0.549,14.614
99824,134288,5203,0.002,0.777,0.712,-0.305,0.305,0.793,14.618
99824,134343,7678,-0.003,0.777,0.71,-0.305,0.305,0.793,14.624
99826,134288,5203,-0.002,0.775,0.709,0.122,0.305,0.549,14.628
99826,134325,7699,-0.007,0.778,0.712,0.122,0.305,0.549,14.634
99813,134288,5203,-0.005,0.781,0.712,0.122,0.366,0.61,14.638
99813,134345,7683,-0.005,0.778,0.706,0.122,0.366,0.61,14.644
99826,134288,5203,-0,0.776,0.706,-0.061,0.427,0.366,14.648
99826,134340,7679,0.001,0.775,0.706,-0.061,0.427,0.366,14.654
99816,134288,5203,0.001,0.776,0.704,-0.122,0.427,0.244,14.658
99816,134324,7689,0.002,0.773,0.708,-0.122,0.427,0.244,14.664
99820,134288,5203,0,0.774,0.709,0.122,0.488,0.366,14.668
99820,134348,7681,0.001,0.776,0.703,0.122,0.488,0.366,14.674
99820,134288,5203,0.002,0.782,0.705,0.488,0.366,0.366,14.678
99820,134336,7688,0.007,0.786,0.708,0.488,0.366,0.366,14.684
99820,134288,5203,0.003,0.788,0.705,0.732,0.366,0.366,14.687
99820,134340,7689,0,0.786,0.706,0.732,0.366,0.366,14.694
99850,134288,5203,0,0.782,0.703,0,0.366,0.244,14.697
99850,134332,7698,-0.001,0.779,0.7,0,0.366,0.244,14.704
99835,134288,5203,-0.003,0.777,0.703,-0.61,0.305,0.183,14.707
99835,134344,7692,-0.001,0.781,0.708,-0.61,0.305,0.183,14.713
99840,134288,5203,0.002,0.782,0.712,-0.671,0.427,0.183,14.717
99840,134339,7688,0.004,0.783,0.71,-0.671,0.427,0.183,14.723
99870,134288,5203,0.004,0.777,0.707,-0.732,0.427,0,14.727
99870,134348,7689,0.007,0.775,0.709,-0.732,0.427,0,14.733
99873,134288,5203,0.008,0.771,0.71,-0.488,0.244,0.061,14.737
99873,134360,7689,0.009,0.776,0.708,-0.488,0.244,0.061,14.743
99880,134288,5203,0.008,0.782,0.707,0,0.305,0.061,14.747
99880,134369,7685,0.008,0.782,0.705,0,0.305,0.061,14.753
99851,134288,5203,0.008,0.777,0.708,-0.122,0.488,0.244,14.757
99851,134366,7688,0.006,0.772,0.705,-0.122,0.488,0.244,14.763
99862,134288,5203,0.005,0.772,0.707,-0.671,0.488,0.488,14.767
99862,134364,7697,0,0.774,0.71,-0.671,0.488,0.488,14.773
99856,134288,5203,-0.005,0.774,0.71,-0.671,0.488,0.549,14.777
99856,134360,7690,-0.003,0.773,0.712,-0.671,0.488,0.549,14.783
99851,134288,5203,-0.002,0.774,0.71,-0.488,0.488,0.671,14.786
99851,134361,7681,-0.003,0.776,0.705,-0.488,0.488,0.671,14.793
99830,134288,5203,-0,0.778,0.708,-0.305,0.366,0.61,14.796
99830,134352,7679,-0.002,0.781,0.707,-0.305,0.366,0.61,14.803
99840,134288,5203,0.002,0.781,0.705,-0.305,0.427,0.549,14.806
99840,134369,7680,0.001,0.779,0.702,-0.305,0.427,0.549,14.812
99863,134288,5203,0.001,0.779,0.702,-0.305,0.427,0.549,14.816
99863,134369,7683,0.003,0.773,0.705,-0.549,0.488,0.488,14.822
99829,134288,5203,0.003,0.773,0.705,-0.549,0.488,0.488,14.826
99829,134355,7683,0.002,0.778,0.706,-0.549,0.366,0.366,14.832
99872,134288,5203,0.002,0.778,0.706,-0.549,0.366,0.366,14.836
99872,134363,7686,0.001,0.78,0.709,-0.244,0.488,0.305,14.842
99871,134288,5203,0.001,0.78,0.709,-0.244,0.488,0.305,14.846
99871,134340,7685,-0.002,0.778,0.706,-0.305,0.488,0.61,14.852
99853,134288,5203,-0.002,0.778,0.706,-0.305,0.488,0.61,14.856
99853,134384,7699,-0.005,0.781,0.706,-0.427,0.366,0.671,14.862
99868,134288,5203,-0.005,0.781,0.706,-0.427,0.366,0.671,14.866
99868,134343,7704,-0.002,0.778,0.712,-0.244,0.427,0.366,14.872
99855,134288,5203,-0.002,0.778,0.712,-0.244,0.427,0.366,14.876
99855,134361,7683,-0.001,0.775,0.703,-0.244,0.305,0.183,14.882
99864,134288,5203,-0.001,0.775,0.703,-0.244,0.305,0.183,14.885
99864,134357,7695,0.004,0.775,0.706,-0.183,0.183,0.061,14.892
99870,134288,5203,0.004,0.775,0.706,-0.183,0.183,0.061,14.895
99870,134354,7699,0.007,0.775,0.706,0,0.244,-0.122,14.902
99879,134288,5203,0.007,0.775,0.706,0,0.244,-0.122,14.905
99879,134361,7684,0.008,0.769,0.712,-0.366,0.183,-0.061,14.911
99862,134288,5203,0.008,0.769,0.712,-0.366,0.183,-0.061,14.915
99862,134364,7688,-0,0.773,0.708,-0.488,0.244,0.305,14.921
99871,134288,5203,-0,0.773,0.708,-0.488,0.244,0.305,14.925
99871,134372,7695,-0.001,0.77,0.71,-0.488,0.305,0.488,14.931
99868,134288,5203,-0.001,0.77,0.71,-0.488,0.305,0.488,14.935
99868,134378,7698,-0.006,0.768,0.71,-0.549,0.183,0.549,14.941
99879,134288,5203,-0.006,0.768,0.71,-0.549,0.183,0.549,14.945
99879,134367,7684,-0.011,0.774,0.712,-0.244,0.244,0.671,14.951
99866,134288,5203,-0.006,0.779,0.714,-0.244,0.244,0.671,14.955
99866,134360,7703,-0,0.781,0.716,-0.061,0.305,0.305,14.961
99877,134288,5203,0.002,0.78,0.712,-0.061,0.305,0.305,14.965
99877,134355,7685,0.005,0.776,0.709,0.183,0.366,0.183,14.971
99859,134288,5203,0.006,0.773,0.715,0.183,0.366,0.183,14.975
99859,134360,7698,0.006,0.773,0.712,0.305,0.427,0.305,14.981
99871,134288,5203,0.007,0.774,0.71,0.305,0.427,0.305,14.984
99871,134352,7684,0.009,0.78,0.707,0.427,0.61,0.366,14.991
99862,134288,5203,0.009,0.783,0.708,0.427,0.61,0.366,14.994
99862,134355,7701,0.003,0.778,0.704,0.549,0.549,0.427,15
99862,134288,5203,0,0.78,0.702,0.549,0.549,0.427,15.004
99862,134380,7695,-0.003,0.783,0.701,0.427,0.61,0.671,15.01
99870,134288,5203,-0.005,0.784,0.702,0.427,0.61,0.671,15.014
99870,134370,7684,-0.005,0.781,0.704,-0.122,0.61,0.671,15.02
99877,134288,5203,-0.005,0.782,0.709,-0.122,0.61,0.671,15.024
99877,134368,7684,-0.004,0.78,0.709,-0.366,0.549,0.427,15.03
99897,134288,5203,-0.003,0.781,0.707,-0.366,0.549,0.427,15.034
99897,134360,7712,0,0.78,0.707,-0.122,0.549,0.244,15.04
99901,134288,5203,0.003,0.776,0.705,-0.122,0.549,0.244,15.044
99901,134366,7699,0.003,0.774,0.705,0.244,0.427,0.244,15.05
99888,134288,5203,0.008,0.775,0.701,0.244,0.427,0.244,15.054
99888,134376,7691,0.006,0.774,0.702,0.244,0.366,0.244,15.06
99876,134288,5203,0.004,0.775,0.703,0.244,0.366,0.244,15.064
99876,134358,7696,0.004,0.774,0.703,-0.061,0.305,0.305,15.07
99886,134288,5203,0.003,0.773,0.706,-0.061,0.305,0.305,15.073
99886,134377,7685,0.001,0.77,0.708,-0.244,0.244,0.427,15.08
99854,134288,5203,-0.001,0.773,0.71,-0.244,0.244,0.427,15.083
99854,134374,7671,-0.003,0.776,0.708,-0.427,0.244,0.61,15.09
99865,134288,5203,-0.004,0.777,0.711,-0.427,0.244,0.61,15.093
99865,134393,7699,-0.001,0.779,0.711,-0.793,0.244,0.549,15.099
99882,134288,5203,-0.003,0.777,0.708,-0.793,0.244,0.549,15.103
99882,134384,7699,-0.001,0.777,0.711,-0.793,0.244,0.305,15.109
99883,134288,5203,0.003,0.779,0.711,-0.793,0.244,0.305,15.113
99883,134372,7700,0.003,0.78,0.712,-0.671,0.427,0.122,15.119
99882,134288,5203,0.006,0.776,0.714,-0.671,0.427,0.122,15.123
99882,134364,7693,0.007,0.77,0.709,-0.793,0.427,0.122,15.129
99878,134544,5203,0.005,0.77,0.709,-0.793,0.427,0.122,15.133
99878,134400,7700,0.008,0.772,0.713,-0.427,0.366,0.305,15.139
99905,134288,5203,0.008,0.774,0.71,-0.427,0.366,0.305,15.143
99905,134390,7691,0.009,0.775,0.707,-0.061,0.549,0.305,15.149
99902,134288,5203,0.005,0.778,0.701,-0.061,0.549,0.305,15.153
99902,134376,7704,-0.001,0.777,0.704,0,0.488,0.671,15.159
99893,134288,5203,-0.001,0.781,0.707,0,0.488,0.671,15.163
99893,134392,7683,-0.006,0.779,0.71,-0.305,0.488,0.793,15.169
99909,134544,5203,-0.008,0.782,0.706,-0.305,0.488,0.793,15.172
99909,134406,7698,-0.006,0.784,0.709,-0.122,0.488,0.488,15.179
99908,134544,5203,-0.005,0.786,0.709,-0.122,0.488,0.488,15.182
99908,134419,7704,-0.002,0.782,0.706,-0.183,0.366,0.183,15.189
99901,134544,5203,-0.002,0.777,0.708,-0.183,0.366,0.183,15.192
99901,134400,7700,-0,0.775,0.705,-0.183,0.366,0.122,15.198
99895,134288,5203,0.001,0.773,0.702,-0.183,0.366,0.122,15.202
99895,134384,7704,0.003,0.77,0.702,0.122,0.488,0.122,15.208
99892,134288,5203,0.003,0.772,0.702,0.122,0.488,0.122,15.212
99892,134392,7691,0.002,0.774,0.706,0.244,0.427,0.183,15.218
99908,134288,5203,0.005,0.774,0.708,0.244,0.427,0.183,15.222
99908,134386,7694,0.004,0.779,0.707,0.183,0.366,0.305,15.228
99894,134288,5203,0.002,0.778,0.705,0.183,0.366,0.305,15.232
99894,134383,7692,-0.001,0.777,0.709,-0.122,0.366,0.366,15.238
99894,134288,5203,0.002,0.779,0.71,-0.122,0.366,0.366,15.242
99894,134364,7693,0.001,0.776,0.709,-0.61,0.366,0.427,15.248
99907,134288,5203,0.001,0.777,0.71,-0.61,0.366,0.427,15.252
99907,134399,7691,0.001,0.779,0.713,-0.671,0.427,0.305,15.258
99891,134544,5203,0.001,0.775,0.712,-0.671,0.427,0.305,15.262
99891,134408,7692,-0.001,0.772,0.718,-0.732,0.549,0.244,15.268
99894,134288,5203,0,0.776,0.718,-0.732,0.549,0.244,15.271
99894,134384,7696,0.002,0.775,0.712,-0.366,0.61,0.183,15.278
99897,134544,5203,0.008,0.773,0.71,-0.366,0.61,0.183,15.281
99897,134407,7703,0.01,0.779,0.704,0.427,0.61,0.305,15.288
99880,134288,5203,0.008,0.779,0.702,0.427,0.61,0.305,15.291
99880,134374,7698,0.005,0.779,0.698,0.915,0.793,0.183,15.297
99884,134288,5203,0.007,0.78,0.702,0.915,0.793,0.183,15.301
99884,134374,7697,0.002,0.772,0.701,0.244,0.732,0.183,15.307
99868,134288,5203,-0.001,0.771,0.701,0.244,0.732,0.183,15.311
99868,134370,7693,-0,0.766,0.701,-0.305,0.427,0.549,15.317
99881,134288,5203,-0.003,0.773,0.706,-0.305,0.427,0.549,15.321
99881,134379,7690,-0.006,0.776,0.705,-0.366,0.488,0.671,15.327
99868,134288,5203,-0.008,0.78,0.707,-0.366,0.488,0.671,15.331
99868,134374,7701,-0.002,0.782,0.71,-0.488,0.183,0.488,15.337
99875,134288,5203,-0,0.781,0.709,-0.488,0.183,0.488,15.341
99875,134372,7688,-0.006,0.778,0.711,-0.183,0.122,0.305,15.347
99888,134288,5203,-0.005,0.782,0.708,-0.183,0.122,0.305,15.351
99888,134354,7703,-0.001,0.782,0.705,-0.122,0.366,0.122,15.357
99877,134288,5203,0.001,0.782,0.708,-0.122,0.366,0.122,15.361
99877,134393,7691,0,0.777,0.708,-0.183,0.305,0.061,15.367
99867,134288,5203,0.004,0.773,0.707,-0.183,0.305,0.061,15.37
99867,134367,7699,0.002,0.773,0.708,-0.244,0.488,0.244,15.377
99868,134288,5203,0.003,0.774,0.708,-0.244,0.488,0.244,15.38
99868,134332,7713,0.004,0.773,0.706,-0.244,0.488,0.427,15.387
99857,134288,5203,0.004,0.773,0.706,-0.244,0.488,0.427,15.39
99857,134384,7700,0.005,0.777,0.704,-0.244,0.305,0.488,15.396
99864,134288,5203,0.005,0.777,0.704,-0.244,0.305,0.488,15.4
99864,134364,7699,0.003,0.778,0.705,-0.122,0.244,0.427,15.406
99862,134288,5203,0.003,0.778,0.705,-0.122,0.244,0.427,15.41
99862,134361,7699,-0.001,0.779,0.708,-0.305,0.366,0.549,15.416
99881,134288,5203,-0.001,0.779,0.708,-0.305,0.366,0.549,15.42
99881,134374,7692,-0.001,0.772,0.707,-0.793,0.366,0.427,15.426
99887,134288,5203,-0.001,0.772,0.707,-0.793,0.366,0.427,15.43
99887,134371,7690,-0.003,0.776,0.713,-0.488,0.488,0.366,15.436
99881,134288,5203,-0.003,0.776,0.713,-0.488,0.488,0.366,15.44
99881,134378,7703,0.003,0.776,0.713,0,0.549,0.427,15.446
99893,134288,5203,0.003,0.776,0.713,0,0.549,0.427,15.45
99893,134376,7683,0.004,0.778,0.705,-0.122,0.488,0.366,15.456
99888,134288,5203,0.004,0.778,0.705,-0.122,0.488,0.366,15.46
99888,134373,7698,0.001,0.776,0.702,-0.305,0.488,0.427,15.466
99889,134288,5203,0.001,0.776,0.702,-0.305,0.488,0.427,15.469
99889,134373,7703,-0.001,0.773,0.704,-0.244,0.427,0.488,15.476
99889,134288,5203,-0.001,0.773,0.704,-0.244,0.427,0.488,15.479
99889,134376,7704,0.004,0.778,0.702,-0.122,0.427,0.549,15.486
99896,134288,5203,0.004,0.778,0.702,-0.122,0.427,0.549,15.489
99896,134386,7711,-0.003,0.783,0.706,-0.549,0.366,0.427,15.495
99911,134288,5203,-0.003,0.783,0.706,-0.549,0.366,0.427,15.499
99911,134383,7715,-0.003,0.78,0.705,-0.671,0.244,0.366,15.505
99890,134288,5203,-0.003,0.78,0.705,-0.671,0.244,0.366,15.509
99890,134386,7689,0.003,0.78,0.711,-0.427,0.305,0.122,15.515
99896,134288,5203,0.003,0.78,0.711,-0.427,0.305,0.122,15.519
99896,134372,7697,0.004,0.779,0.718,-0.488,0.305,-0.183,15.525
99902,134544,5203,0.004,0.779,0.718,-0.488,0.305,-0.183,15.529
99902,134409,7686,0.007,0.773,0.706,-0.488,0.305,-0.183,15.535
99909,134288,5203,0.011,0.773,0.701,-0.732,0.122,-0.122,15.539
99909,134385,7699,0.011,0.767,0.71,-0.732,0.122,-0.122,15.545
99906,134288,5203,0.005,0.764,0.707,-0.366,0.122,0.183,15.549
99906,134381,7710,0.003,0.769,0.702,-0.366,0.122,0.183,15.555
99910,134288,5203,0.003,0.774,0.705,0.244,0.305,0.427,15.559
99910,134381,7699,0.009,0.778,0.708,0.244,0.305,0.427,15.565
99891,134288,5203,0.004,0.777,0.709,0.061,0.183,0.671,15.568
99891,134389,7704,-0.001,0.773,0.71,0.061,0.183,0.671,15.575
99920,134288,5203,-0.005,0.772,0.71,-0.305,0.183,0.732,15.578
99920,134373,7701,-0.011,0.776,0.709,-0.305,0.183,0.732,15.585
99906,134288,5203,-0.007,0.779,0.709,-0.061,0.183,0.671,15.588
99906,134387,7707,-0.005,0.78,0.711,-0.061,0.183,0.671,15.594
99927,134288,5203,-0.002,0.777,0.708,-0.122,0.305,0.427,15.598
99927,134382,7712,-0.002,0.777,0.71,-0.122,0.305,0.427,15.604
99880,134288,5203,-0.001,0.775,0.711,-0.122,0.427,0.061,15.608
99880,134395,7688,0,0.774,0.709,-0.122,0.427,0.061,15.614
99893,134288,5203,0.002,0.771,0.708,0.061,0.488,0,15.618
99893,134381,7703,0.008,0.772,0.702,0.061,0.488,0,15.624
99888,134288,5203,0.01,0.773,0.698,0.061,0.427,0.183,15.628
99888,134366,7704,0.008,0.773,0.701,0.061,0.427,0.183,15.634
99875,134288,5203,0.003,0.773,0.701,0.122,0.427,0.488,15.638
99875,134355,7694,0.001,0.779,0.706,0.122,0.427,0.488,15.644
99864,134288,5203,0,0.78,0.707,0.366,0.427,0.61,15.648
99864,134386,7673,0.001,0.784,0.705,0.366,0.427,0.61,15.654
99889,134288,5203,-0,0.786,0.713,0.305,0.366,0.61,15.658
99889,134379,7682,0,0.785,0.711,0.305,0.366,0.61,15.664
99898,134288,5203,0.003,0.781,0.71,-0.183,0.366,0.305,15.667
99898,134360,7685,0.003,0.78,0.709,-0.183,0.366,0.305,15.674
99883,134288,5203,0.003,0.776,0.713,-0.244,0.366,0.061,15.677
99883,134393,7707,0.004,0.775,0.71,-0.244,0.366,0.061,15.683
99888,134288,5203,0.009,0.771,0.71,-0.122,0.366,0,15.687
99888,134368,7686,0.005,0.768,0.709,-0.122,0.366,0,15.693
99894,134288,5203,0.004,0.765,0.703,0.244,0.366,0.244,15.697
99894,134360,7681,0.005,0.766,0.706,0.244,0.366,0.244,15.703
99905,134288,5203,0.001,0.769,0.709,0.488,0.488,0.671,15.707
99905,134359,7701,-0.001,0.767,0.707,0.488,0.488,0.671,15.713
99891,134288,5203,0,0.772,0.708,0.488,0.488,0.976,15.717
99891,134361,7695,-0.005,0.777,0.704,0.488,0.488,0.976,15.723
99891,134288,5203,-0.005,0.778,0.708,0.61,0.488,1.037,15.727
99891,134380,7700,-0.007,0.779,0.71,0.61,0.488,1.037,15.733
99881,134288,5203,-0.011,0.784,0.705,0.61,0.61,0.976,15.737
99881,134391,7720,-0.013,0.783,0.708,0.61,0.61,0.976,15.743
99894,134288,5203,-0.008,0.783,0.71,0.366,0.549,0.671,15.747
99894,134384,7697,-0.005,0.787,0.708,0.366,0.549,0.671,15.753
99883,134288,5203,-0.01,0.783,0.703,0.366,0.732,0.427,15.757
99883,134381,7694,-0.005,0.78,0.707,0.366,0.732,0.427,15.763
99890,134288,5203,0,0.787,0.705,0.488,0.915,0.366,15.766
99890,134390,7692,0.001,0.791,0.706,0.488,0.915,0.366,15.773
99895,134288,5203,0.004,0.786,0.705,0.244,1.037,0.122,15.776
99895,134390,7680,0.007,0.779,0.707,0.244,1.037,0.122,15.782
99889,134288,5203,0.015,0.775,0.707,-0.061,0.61,0.183,15.786
99889,134378,7705,0.012,0.781,0.707,-0.061,0.61,0.183,15.792
99896,134288,5203,0.011,0.787,0.705,0.305,0.671,0.549,15.796
99896,134372,7709,0.014,0.787,0.706,0.305,0.671,0.549,15.802
99883,134288,5203,0.014,0.78,0.705,0.366,0.732,0.488,15.806
99883,134390,7704,0.008,0.78,0.704,0.366,0.732,0.488,15.812
99895,134288,5203,0.002,0.781,0.704,0,0.549,0.732,15.816
99895,134378,7684,0.003,0.779,0.702,0,0.549,0.732,15.822
99892,134288,5203,0,0.775,0.705,-0.61,0.427,0.854,15.826
99892,134387,7697,-0.003,0.773,0.706,-0.61,0.427,0.854,15.832
99873,134288,5203,-0.006,0.77,0.709,-0.61,0.305,0.793,15.836
99873,134389,7690,-0.007,0.773,0.708,-0.61,0.305,0.793,15.842
99870,134288,5203,-0.007,0.776,0.709,-0.305,0.305,0.549,15.846
99870,134371,7709,-0.004,0.774,0.708,-0.305,0.305,0.549,15.852
99870,134288,5203,-0.002,0.776,0.708,-0.244,0.244,0.427,15.855
99870,134386,7688,0,0.775,0.707,-0.244,0.244,0.427,15.862
99874,134288,5203,0.002,0.777,0.707,-0.366,0.366,0.366,15.865
99874,134373,7688,0.003,0.775,0.705,-0.366,0.366,0.366,15.872
99886,134288,5203,0.004,0.771,0.704,-0.671,0.366,0.427,15.875
99886,134373,7696,0.006,0.768,0.703,-0.671,0.366,0.427,15.881
99883,134288,5203,0.007,0.771,0.709,-0.915,0.488,0.61,15.885
99883,134371,7693,0.008,0.774,0.709,-0.915,0.488,0.61,15.891
99879,134288,5203,0.008,0.778,0.707,-0.61,0.61,0.854,15.895
99879,134373,7694,0.007,0.779,0.709,-0.61,0.61,0.854,15.901
99880,134288,5203,0.005,0.777,0.709,-0.671,0.549,1.159,15.905
99880,134399,7697,0.001,0.777,0.707,-0.671,0.549,1.159,15.911
99886,134288,5203,0.002,0.777,0.71,-0.732,0.488,1.22,15.915
99886,134388,7693,0.001,0.783,0.706,-0.732,0.488,1.22,15.921
99899,134544,5203,-0.001,0.78,0.705,-0.122,0.427,1.402,15.925
99899,134402,7701,-0.005,0.779,0.7,-0.122,0.427,1.402,15.931
99902,134288,5203,-0.01,0.786,0.7,0.427,0.427,0.976,15.935
99902,134381,7701,-0.002,0.784,0.706,0.427,0.427,0.976,15.941
99907,134544,5203,-0.004,0.788,0.703,0.244,-0.183,0.549,15.945
99907,134400,7702,-0.007,0.782,0.704,0.244,-0.183,0.549,15.951
99914,134288,5203,-0.002,0.778,0.702,-0.244,-0.305,0.122,15.954
99914,134398,7694,0.001,0.773,0.704,-0.244,-0.305,0.122,15.961
99904,134544,5203,0.001,0.773,0.704,-0.244,-0.305,0.122,15.964
99904,134406,7693,-0.001,0.772,0.704,0,-0.244,-0.061,15.971
99924,134544,5203,-0.001,0.772,0.704,0,-0.244,-0.061,15.974
99924,134419,7698,0.006,0.777,0.702,0.305,-0.244,0.061,15.98
99923,134544,5203,0.006,0.777,0.702,0.305,-0.244,0.061,15.984
99923,134431,7713,0.002,0.765,0.703,-0.061,-0.427,0,15.99
99930,134544,5203,0.002,0.765,0.703,-0.061,-0.427,0,15.994
99930,134410,7709,-0.001,0.763,0.71,-0.976,-0.366,0.305,16
99921,134544,5203,-0.001,0.763,0.71,-0.976,-0.366,0.305,16.004
99921,134435,7696,0.001,0.773,0.713,-0.976,-0.061,0.427,16.01
99933,134544,5203,0.001,0.773,0.713,-0.976,-0.061,0.427,16.014
99933,134428,7694,0.002,0.777,0.718,-0.488,0.061,0.61,16.02
99939,134544,5203,0.002,0.777,0.718,-0.488,0.061,0.61,16.024
99939,134437,7701,0.004,0.772,0.716,-0.366,0.122,0.366,16.03
99953,134544,5203,0.004,0.772,0.716,-0.366,0.122,0.366,16.034
99953,134433,7707,0.005,0.782,0.714,0,0.305,0.183,16.04
99972,134544,5203,0.005,0.782,0.714,0,0.305,0.183,16.044
99972,134456,7700,0.01,0.77,0.713,0.183,0.61,0.122,16.05
99985,134544,5203,0.01,0.77,0.713,0.183,0.61,0.122,16.053
99985,134438,7713,0.008,0.777,0.713,0.366,0.793,0.244,16.06
99998,134544,5203,0.008,0.777,0.713,0.366,0.793,0.244,16.063
99998,134449,7702,0.008,0.772,0.709,0.671,1.098,0.305,16.07
99977,134544,5203,0.008,0.772,0.709,0.671,1.098,0.305,16.073
99977,134469,7700,0.006,0.773,0.707,0.488,0.976,0.366,16.079
99972,134544,5203,0.006,0.773,0.707,0.488,0.976,0.366,16.083
99972,134444,7714,0.004,0.781,0.704,0.305,0.732,0.427,16.089
99969,134544,5203,0.004,0.781,0.704,0.305,0.732,0.427,16.093
99969,134438,7700,0.001,0.781,0.702,0.305,0.671,0.427,16.099
99944,134544,5203,0.001,0.781,0.702,0.305,0.671,0.427,16.103
99944,134419,7693,-0.002,0.783,0.703,0.244,0.488,0.366,16.109
99944,134544,5203,-0.004,0.782,0.702,0.244,0.488,0.366,16.113
99944,134440,7703,-0.005,0.779,0.703,0.061,0.488,0.244,16.119
99957,134544,5203,-0.004,0.779,0.709,0.061,0.488,0.244,16.123
99957,134429,7694,-0,0.779,0.708,-0.061,0.488,0.305,16.129
99947,134544,5203,0.001,0.773,0.707,-0.061,0.488,0.305,16.133
99947,134428,7697,-0.001,0.776,0.709,0.122,0.488,0.244,16.139
99952,134544,5203,0.001,0.774,0.707,0.122,0.488,0.244,16.143
99952,134425,7699,-0,0.775,0.704,0.244,0.488,0.305,16.149
99943,134544,5203,0,0.775,0.701,0.244,0.488,0.305,16.152
99943,134402,7701,0.003,0.776,0.701,0.427,0.305,0.366,16.159
99940,134544,5203,0.001,0.779,0.7,0.427,0.305,0.366,16.162
99940,134418,7709,0.001,0.78,0.702,0.305,0.305,0.305,16.169
99936,134544,5203,-0.001,0.781,0.705,0.305,0.305,0.305,16.172
99936,134410,7702,0,0.779,0.703,0.061,0.244,0.305,16.178
99935,134544,5203,0.002,0.777,0.708,0.061,0.244,0.305,16.182
99935,134411,7702,0.002,0.781,0.709,-0.183,0.244,0.244,16.188
99940,134544,5203,0.002,0.779,0.707,-0.183,0.244,0.244,16.192
99940,134430,7690,0.002,0.777,0.709,-0.305,0.183,0,16.198
99922,134544,5203,0.005,0.779,0.713,-0.305,0.183,0,16.202
99922,134409,7694,0.003,0.778,0.711,-0.183,0.183,-0.122,16.208
99928,134288,5203,0.005,0.777,0.708,-0.183,0.183,-0.122,16.212
99928,134380,7701,0.007,0.779,0.708,0.244,0.366,0,16.218
99911,134288,5203,0.004,0.779,0.711,0.244,0.366,0,16.222
99911,134362,7693,0.003,0.779,0.711,0.427,0.427,0,16.228
99882,134288,5203,0.005,0.778,0.709,0.427,0.427,0,16.232
99882,134369,7688,0.004,0.777,0.707,0.183,0.427,0.061,16.238
99858,134288,5203,0.001,0.774,0.708,0.183,0.427,0.061,16.242
99858,134364,7681,0.003,0.771,0.71,-0.061,0.427,0.183,16.248
99861,134288,5203,0.001,0.771,0.709,-0.061,0.427,0.183,16.251
99861,134346,7697,-0,0.774,0.708,-0.061,0.488,0.366,16.258
99807,134288,5203,0.003,0.776,0.713,-0.061,0.488,0.366,16.261
99807,134337,7701,-0.001,0.773,0.709,-0.122,0.549,0.366,16.267
99803,134288,5203,-0.002,0.772,0.705,-0.122,0.549,0.366,16.271
99803,134335,7681,-0,0.779,0.701,0.122,0.427,0.427,16.277
99782,134288,5203,0.002,0.779,0.703,0.122,0.427,0.427,16.281
99782,134311,7671,0.004,0.78,0.701,0.366,0.488,0.366,16.287
99781,134288,5203,0.003,0.782,0.705,0.366,0.488,0.366,16.291
99781,134291,7687,0.001,0.778,0.706,0.122,0.488,0.305,16.297
99774,134288,5203,-0.003,0.774,0.702,0.122,0.488,0.305,16.301
99774,134297,7671,-0.006,0.774,0.705,-0.305,0.427,0.427,16.307
99743,134288,5203,-0.005,0.779,0.704,-0.305,0.427,0.427,16.311
99743,134297,7686,-0.004,0.779,0.705,-0.366,0.427,0.488,16.317
99730,134288,5203,-0.001,0.777,0.707,-0.366,0.427,0.488,16.321
99730,134275,7693,-0.004,0.78,0.706,-0.061,0.488,0.305,16.327
99738,134288,5203,-0.002,0.78,0.708,-0.061,0.488,0.305,16.331
99738,134301,7694,-0.003,0.779,0.706,0,0.427,0.305,16.337
99739,134288,5203,-0.002,0.781,0.71,0,0.427,0.305,16.34
99739,134307,7681,-0.001,0.779,0.704,0.061,0.549,0.183,16.347
99765,134288,5203,0.002,0.771,0.703,0.061,0.549,0.183,16.35
99765,134296,7684,0.005,0.774,0.708,-0.061,0.488,0.305,16.357
99765,134288,5203,0.005,0.776,0.707,-0.061,0.488,0.305,16.36
99765,134306,7661,0.005,0.775,0.703,0.305,0.488,0.305,16.366
99761,134288,5203,0.007,0.778,0.707,0.305,0.488,0.305,16.37
99761,134284,7677,0.006,0.778,0.705,0.366,0.427,0.427,16.376
99766,134288,5203,0.004,0.774,0.701,0.366,0.427,0.427,16.38
99766,134296,7682,0.004,0.771,0.7,-0.183,0.244,0.488,16.386
99782,134288,5203,0.003,0.772,0.703,-0.183,0.244,0.488,16.39
99782,134283,7683,0.001,0.78,0.704,-0.305,0.122,0.427,16.396
99781,134288,5203,0.003,0.784,0.707,-0.305,0.122,0.427,16.4
99781,134294,7692,0.003,0.783,0.711,0.061,0.122,0.488,16.406
99771,134288,5203,0.001,0.78,0.71,0.061,0.122,0.488,16.41
99771,134312,7683,-0.002,0.78,0.711,0,0.305,0.488,16.416
99774,134288,5203,-0.001,0.777,0.713,0,0.305,0.488,16.42
99774,134307,7677,-0,0.781,0.71,-0.305,0.305,0.427,16.426
99762,134288,5203,-0.003,0.779,0.708,-0.305,0.305,0.427,16.43
99762,134308,7680,-0,0.776,0.712,-0.244,0.488,0.244,16.436
99802,134288,5203,0,0.777,0.708,-0.244,0.488,0.244,16.439
99802,134311,7688,0.003,0.771,0.708,-0.061,0.488,0.244,16.446
99786,134288,5203,0.002,0.772,0.705,-0.061,0.488,0.244,16.449
99786,134317,7694,0.002,0.771,0.707,0.183,0.549,0.183,16.456
99785,134288,5203,0.003,0.775,0.708,0.183,0.549,0.183,16.459
99785,134321,7689,0.002,0.775,0.71,0.305,0.61,0.366,16.465
99798,134288,5203,0.002,0.773,0.708,0.305,0.61,0.366,16.469
99798,134300,7686,0.005,0.774,0.707,0.061,0.366,0.549,16.475
99824,134288,5203,0.007,0.773,0.7,0.061,0.366,0.549,16.479
99824,134312,7679,0.006,0.776,0.703,0.366,0.305,0.549,16.485
99809,134288,5203,0.008,0.783,0.706,0.366,0.305,0.549,16.489
99809,134334,7695,0.009,0.782,0.705,0.549,0.427,0.549,16.495
99816,134288,5203,0.008,0.782,0.705,0.549,0.427,0.549,16.499
99816,134314,7679,0.001,0.783,0.706,0.427,0.549,0.671,16.505
99833,134288,5203,0.001,0.782,0.705,0.427,0.549,0.671,16.509
99833,134328,7674,-0.001,0.783,0.704,0.122,0.427,0.793,16.515
99818,134288,5203,-0.002,0.785,0.705,0.122,0.427,0.793,16.519
99818,134325,7681,-0.004,0.785,0.709,0.061,0.488,0.671,16.525
99839,134288,5203,-0.005,0.779,0.712,0.061,0.488,0.671,16.529
99839,134313,7696,-0.006,0.78,0.714,0.061,0.488,0.488,16.535
99838,134288,5203,-0.006,0.78,0.714,0.061,0.488,0.488,16.538
99838,134345,7668,-0.002,0.78,0.717,0.061,0.549,0.305,16.545
99805,134288,5203,-0.002,0.78,0.717,0.061,0.549,0.305,16.548
99805,134346,7683,-0.001,0.774,0.715,-0.061,0.427,0.122,16.555
99817,134288,5203,-0.001,0.774,0.715,-0.061,0.427,0.122,16.558
99817,134329,7684,0.006,0.777,0.707,1.28,0.61,0.122,16.564
99826,134288,5203,0.006,0.777,0.707,1.28,0.61,0.122,16.568
99826,134340,7689,0.007,0.783,0.695,1.646,0.854,0,16.574
99823,134288,5203,0.007,0.783,0.695,1.646,0.854,0,16.578
99823,134338,7687,0.008,0.763,0.691,-0.061,0.427,-0.244,16.584
99830,134288,5203,0.008,0.763,0.691,-0.061,0.427,-0.244,16.588
99830,134353,7685,0.002,0.76,0.694,-0.915,0.244,0.244,16.594
99849,134288,5203,0.002,0.76,0.694,-0.915,0.244,0.244,16.598
99849,134337,7684,-0.007,0.784,0.702,0.732,0.488,0.732,16.604
99818,134288,5203,-0.007,0.784,0.702,0.732,0.488,0.732,16.608
99818,134355,7691,0.002,0.798,0.708,0.854,0.488,0.427,16.614
99828,134288,5203,0.002,0.798,0.708,0.854,0.488,0.427,16.618
99828,134324,7674,0.003,0.784,0.72,-1.768,0,0.122,16.624
99841,134288,5203,0.003,0.784,0.72,-1.768,0,0.122,16.628
99841,134335,7686,-0.004,0.752,0.708,-2.439,0,-0.061,16.634
99853,134288,5203,-0.004,0.752,0.708,-2.439,0,-0.061,16.637
99853,134327,7673,0.005,0.788,0.712,-0.061,0.549,0.305,16.644
99860,134288,5203,0.005,0.788,0.712,-0.061,0.549,0.305,16.647
99860,134342,7674,0.008,0.788,0.71,1.098,0.976,0.244,16.654
99838,134288,5203,0.008,0.788,0.71,1.098,0.976,0.244,16.657
99838,134339,7684,0.011,0.773,0.709,-0.549,0.671,0.671,16.663
99843,134288,5203,0.011,0.773,0.709,-0.549,0.671,0.671,16.667
99843,134351,7685,0,0.771,0.705,-0.793,0.488,0.915,16.673
99850,134288,5203,0,0.771,0.705,-0.793,0.488,0.915,16.677
99850,134347,7690,0.002,0.779,0.703,-0.793,0.488,0.915,16.683
99847,134288,5203,0.003,0.78,0.701,0.122,0.671,0.793,16.687
99847,134341,7686,-0.001,0.782,0.695,0.122,0.671,0.793,16.693
