99244,134032,5203,-0.05,1,0.26,-1.585,0.61,-0.061,307.354
99244,133992,7356,-0.048,0.99,0.257,-2.195,0.366,0.061,307.361
99264,134032,5203,-0.047,1,0.263,-2.195,0.366,0.061,307.364
99264,133995,7354,-0.047,1.012,0.267,-0.915,0.366,0.061,307.37
99301,134032,5203,-0.047,1.021,0.271,-0.915,0.366,0.061,307.374
99301,134005,7349,-0.049,1.023,0.272,0.305,0.671,0.427,307.38
99295,134032,5203,-0.046,1.016,0.27,0.305,0.671,0.427,307.384
99295,134020,7355,-0.048,1.012,0.266,-0.976,0.427,0.122,307.39
99324,134032,5203,-0.046,1.013,0.261,-0.976,0.427,0.122,307.394
99324,134052,7350,-0.044,1.011,0.264,-1.768,0.427,0.061,307.4
99305,134032,5203,-0.043,1.003,0.262,-1.768,0.427,0.061,307.404
99305,134018,7358,-0.046,1.002,0.263,-1.829,0.305,0.183,307.41
99309,134032,5203,-0.046,1.009,0.261,-1.829,0.305,0.183,307.414
99309,134000,7355,-0.04,1.012,0.265,-2.195,0.244,0,307.42
99304,134032,5203,-0.039,1.01,0.262,-2.195,0.244,0,307.424
99304,133995,7343,-0.046,1.01,0.27,-2.378,0.244,0.061,307.43
99318,134032,5203,-0.044,1.009,0.279,-2.378,0.244,0.061,307.434
99318,133995,7363,-0.044,1.014,0.273,-2.134,0.305,0.305,307.44
99291,134032,5203,-0.047,1.013,0.271,-2.134,0.305,0.305,307.443
99291,134016,7359,-0.046,1.004,0.269,-2.256,0.549,0.244,307.45
99284,134032,5203,-0.046,1,0.267,-2.256,0.549,0.244,307.453
99284,133988,7343,-0.044,0.993,0.27,-1.646,0.488,0.305,307.46
99273,134032,5203,-0.047,0.993,0.269,-1.646,0.488,0.305,307.463
99273,133993,7360,-0.05,1.002,0.26,0,0.549,0.732,307.469
99257,134032,5203,-0.048,1.013,0.262,0,0.549,0.732,307.473
99257,133987,7351,-0.048,1.023,0.262,0.61,0.488,0.915,307.479
99256,134032,5203,-0.047,1.024,0.258,0.61,0.488,0.915,307.483
99256,134014,7354,-0.045,1.014,0.258,-0.732,0.122,0.549,307.489
99259,134032,5203,-0.045,1.004,0.264,-0.732,0.122,0.549,307.493
99259,133999,7344,-0.045,1.005,0.27,-1.646,0.183,0.427,307.499
99270,134032,5203,-0.045,1.011,0.275,-1.646,0.183,0.427,307.503
99270,133967,7352,-0.045,1.024,0.28,-0.915,0.488,0.488,307.509
99273,134032,5203,-0.046,1.027,0.284,-0.915,0.488,0.488,307.513
99273,133990,7349,-0.047,1.02,0.284,-0.732,0.793,0.244,307.519
99263,134032,5203,-0.044,1.008,0.282,-0.732,0.793,0.244,307.523
99263,134002,7349,-0.044,1.011,0.279,-1.159,0.976,0,307.529
99290,134032,5203,-0.037,1.024,0.275,-1.159,0.976,0,307.533
99290,133992,7337,-0.042,1.017,0.277,-0.854,1.098,-0.122,307.539
99282,134032,5203,-0.046,1.01,0.263,-0.854,1.098,-0.122,307.542
99282,133997,7356,-0.046,0.997,0.252,-1.098,1.159,-0.183,307.549
99301,134032,5203,-0.045,0.994,0.257,-1.098,1.159,-0.183,307.552
99301,134034,7366,-0.039,1.006,0.248,-0.488,0.488,-0.305,307.559
99293,134032,5203,-0.041,1.011,0.244,-0.488,0.488,-0.305,307.562
99293,134041,7349,-0.043,1.014,0.25,0.549,0.122,-0.366,307.568
99309,134032,5203,-0.049,1.02,0.25,0.549,0.122,-0.366,307.572
99309,134029,7360,-0.048,1.02,0.255,0.61,-0.244,0.061,307.578
99294,134032,5203,-0.048,1.02,0.255,0.61,-0.244,0.061,307.582
99294,134016,7334,-0.043,1.007,0.271,-0.427,-0.244,0.305,307.588
99300,134032,5203,-0.043,1.007,0.271,-0.427,-0.244,0.305,307.592
99300,134008,7365,-0.048,1.01,0.274,-0.061,0.122,0.549,307.598
99289,134032,5203,-0.048,1.01,0.274,-0.061,0.122,0.549,307.602
99289,134004,7336,-0.049,1.021,0.281,0.61,0.427,0.61,307.608
99282,134032,5203,-0.049,1.021,0.281,0.61,0.427,0.61,307.612
99282,134014,7363,-0.048,1.013,0.268,-0.061,0.488,0.549,307.618
99305,134032,5203,-0.048,1.013,0.268,-0.061,0.488,0.549,307.622
99305,134034,7356,-0.047,1.022,0.248,-0.61,0.366,0.427,307.628
99308,134032,5203,-0.047,1.022,0.248,-0.61,0.366,0.427,307.632
99308,134059,7348,-0.04,1.007,0.25,-1.037,0.183,0,307.638
99325,134032,5203,-0.04,1.007,0.25,-1.037,0.183,0,307.641
99325,134030,7344,-0.044,1.009,0.259,-0.915,0.061,0,307.648
99302,134032,5203,-0.044,1.009,0.259,-0.915,0.061,0,307.651
99302,134018,7340,-0.042,1.026,0.264,-0.366,-0.061,0.061,307.658
99324,134032,5203,-0.042,1.026,0.264,-0.366,-0.061,0.061,307.661
99324,134019,7355,-0.044,1.011,0.264,-0.305,-0.183,-0.183,307.667
99332,134032,5203,-0.044,1.011,0.264,-0.305,-0.183,-0.183,307.671
99332,134037,7361,-0.05,1,0.26,-0.244,-0.244,0,307.677
99350,134032,5203,-0.05,1,0.26,-0.244,-0.244,0,307.681
99350,134058,7357,-0.042,1.011,0.276,0.244,-0.549,0.366,307.687
99357,134032,5203,-0.042,1.011,0.276,0.244,-0.549,0.366,307.691
99357,134063,7370,-0.052,1.01,0.291,0.122,-0.427,0.549,307.697
99370,134032,5203,-0.052,1.01,0.291,0.122,-0.427,0.549,307.701
99370,134080,7367,-0.05,1.001,0.272,-0.915,-0.305,0.61,307.707
99385,134032,5203,-0.05,1.001,0.272,-0.915,-0.305,0.61,307.711
99385,134082,7373,-0.048,1.007,0.26,-0.976,-0.183,0.427,307.717
99409,134032,5203,-0.048,1.007,0.26,-0.976,-0.183,0.427,307.721
99409,134094,7358,-0.049,1.01,0.261,-0.976,-0.183,0.427,307.727
99447,134032,5203,-0.046,1.014,0.26,-0.732,0.061,0.732,307.73
99447,134111,7372,-0.042,1.024,0.263,-0.732,0.061,0.732,307.737
99448,134032,5203,-0.037,1.029,0.265,-0.671,0.122,0.549,307.74
99448,134108,7375,-0.036,1.018,0.259,-0.671,0.122,0.549,307.747
99451,134032,5203,-0.041,1.008,0.258,-0.305,0.244,0.183,307.75
99451,134116,7373,-0.044,1.014,0.26,-0.305,0.244,0.183,307.756
99450,134032,5203,-0.038,1.024,0.262,0.366,0.183,0.183,307.76
99450,134114,7376,-0.037,1.024,0.264,0.366,0.183,0.183,307.766
99430,134032,5203,-0.038,1.016,0.271,1.098,0.488,0.183,307.77
99430,134110,7367,-0.043,1.017,0.282,1.098,0.488,0.183,307.776
99421,134032,5203,-0.047,1.019,0.28,1.402,0.854,0.488,307.78
99421,134107,7360,-0.043,1.019,0.278,1.402,0.854,0.488,307.786
99403,134032,5203,-0.045,1.012,0.272,0.488,0.732,0.488,307.79
99403,134087,7347,-0.047,1.005,0.268,0.488,0.732,0.488,307.796
99429,134032,5203,-0.049,0.994,0.267,-0.854,0.671,0.366,307.8
99429,134107,7367,-0.047,0.997,0.262,-0.854,0.671,0.366,307.806
99425,134032,5203,-0.046,1,0.258,-1.28,0.427,0.122,307.81
99425,134130,7380,-0.045,1.007,0.263,-1.28,0.427,0.122,307.816
99438,134032,5203,-0.045,1.008,0.274,-0.244,0.305,0.366,307.82
99438,134128,7375,-0.045,1.01,0.267,-0.244,0.305,0.366,307.826
99472,134032,5203,-0.046,1.016,0.263,-0.244,0.305,0.488,307.829
99472,134137,7373,-0.043,1.014,0.264,-0.244,0.305,0.488,307.836
99475,134288,5203,-0.045,1.014,0.263,-0.244,0.305,0.305,307.839
99475,134145,7378,-0.047,1.01,0.261,-0.244,0.305,0.305,307.846
99495,134288,5203,-0.046,1.009,0.261,0.366,0.183,0.427,307.849
99495,134160,7382,-0.043,1.012,0.27,0.366,0.183,0.427,307.855
99484,134288,5203,-0.042,1.014,0.273,0.488,0.183,0.488,307.859
99484,134159,7384,-0.044,1.012,0.272,0.488,0.183,0.488,307.865
99472,134288,5203,-0.046,1.022,0.276,0.427,0.427,0.549,307.869
99472,134152,7388,-0.044,1.029,0.272,0.427,0.427,0.549,307.875
99510,134288,5203,-0.045,1.025,0.269,-0.305,0.549,0.488,307.879
99510,134169,7373,-0.044,1.018,0.265,-0.305,0.549,0.488,307.885
99524,134288,5203,-0.041,1.015,0.263,-0.854,0.61,0.305,307.889
99524,134170,7381,-0.042,1.013,0.263,-0.854,0.61,0.305,307.895
99522,134288,5203,-0.044,1.011,0.262,-0.305,0.915,0.244,307.899
99522,134175,7379,-0.05,1.014,0.257,-0.305,0.915,0.244,307.905
99559,134288,5203,-0.049,1.02,0.253,0.061,0.976,0.427,307.909
99559,134200,7408,-0.047,1.016,0.255,0.061,0.976,0.427,307.915
99552,134288,5203,-0.042,1.013,0.254,-0.61,0.671,0.183,307.919
99552,134185,7373,-0.039,1.015,0.257,-0.61,0.671,0.183,307.925
99539,134288,5203,-0.046,1.009,0.261,-0.732,0.427,0.305,307.928
99539,134180,7388,-0.046,1.011,0.264,-0.732,0.427,0.305,307.935
99520,134288,5203,-0.045,1.011,0.267,-0.488,0.427,0.488,307.938
99520,134177,7376,-0.047,1.006,0.27,-0.488,0.427,0.488,307.945
99514,134288,5203,-0.045,1.004,0.27,-0.427,0.305,0.488,307.948
99514,134195,7377,-0.045,1.012,0.268,-0.427,0.305,0.488,307.954
99516,134288,5203,-0.043,1.016,0.267,0.305,0.183,0.549,307.958
99516,134182,7365,-0.049,1.021,0.271,0.305,0.183,0.549,307.964
99496,134288,5203,-0.051,1.025,0.277,0.122,0.366,0.488,307.968
99496,134171,7365,-0.05,1.01,0.271,0.122,0.366,0.488,307.974
99510,134288,5203,-0.049,1.005,0.269,-0.915,0.183,0.305,307.978
99510,134153,7376,-0.049,1.006,0.269,-0.915,0.183,0.305,307.984
99499,134288,5203,-0.052,1.002,0.263,-1.341,0.244,0,307.988
99499,134168,7363,-0.053,0.997,0.268,-1.341,0.244,0,307.994
99504,134288,5203,-0.05,1.002,0.27,-0.854,0.366,0.244,307.998
99504,134166,7356,-0.047,1.016,0.268,-0.854,0.366,0.244,308.004
99496,134288,5203,-0.044,1.016,0.274,-0.854,0.305,0.305,308.008
99496,134172,7368,-0.047,1.005,0.266,-0.854,0.305,0.305,308.014
99512,134288,5203,-0.051,1,0.257,-0.671,0.122,0.427,308.018
99512,134166,7381,-0.049,1.007,0.254,-0.671,0.122,0.427,308.024
99511,134288,5203,-0.041,1.018,0.256,-0.488,0.061,0.366,308.027
99511,134166,7374,-0.04,1.02,0.264,-0.488,0.061,0.366,308.034
99533,134288,5203,-0.041,1.021,0.275,-0.061,0.183,0.488,308.037
99533,134183,7381,-0.043,1.012,0.276,-0.061,0.183,0.488,308.044
99505,134288,5203,-0.043,0.998,0.281,-0.488,0.244,0.549,308.047
99505,134158,7376,-0.044,0.995,0.278,-0.488,0.244,0.549,308.053
99485,134288,5203,-0.041,1.004,0.272,0.366,0.244,0.305,308.057
99485,134145,7372,-0.041,1.021,0.276,0.366,0.244,0.305,308.063
99465,134032,5203,-0.043,1.028,0.288,1.524,0.427,0.549,308.067
99465,134124,7367,-0.042,1.024,0.288,1.524,0.427,0.549,308.073
99427,134032,5203,-0.041,1.017,0.283,0.061,0.671,0.244,308.077
99427,134130,7357,-0.042,1.005,0.271,0.061,0.671,0.244,308.083
99458,134032,5203,-0.045,1.002,0.255,-1.037,0.671,0.122,308.087
99458,134117,7368,-0.043,1.002,0.252,-1.037,0.671,0.122,308.093
99449,134032,5203,-0.042,0.999,0.254,-1.22,0.549,0.122,308.097
99449,134142,7361,-0.04,1.002,0.26,-1.22,0.549,0.122,308.103
99457,134032,5203,-0.044,1.013,0.268,-0.61,0.244,0.427,308.107
99457,134104,7377,-0.045,1.013,0.269,-0.61,0.244,0.427,308.113
99434,134032,5203,-0.045,1.011,0.272,-0.061,0.61,0.671,308.117
99434,134118,7367,-0.043,1.015,0.268,-0.061,0.61,0.671,308.123
99434,134032,5203,-0.043,1.02,0.271,0.549,0.732,0.671,308.126
99434,134116,7361,-0.046,1.019,0.272,0.549,0.732,0.671,308.133
99430,134032,5203,-0.047,1.01,0.27,0.366,0.793,0.793,308.136
99430,134101,7363,-0.047,1.005,0.278,0.366,0.793,0.793,308.142
99442,134032,5203,-0.046,1.004,0.278,0.183,0.854,0.671,308.146
99442,134133,7373,-0.044,1.007,0.268,0.183,0.854,0.671,308.152
99476,134032,5203,-0.047,1.016,0.258,0.671,0.976,0.671,308.156
99476,134132,7357,-0.046,1.027,0.257,0.671,0.976,0.671,308.162
99489,134032,5203,-0.046,1.027,0.257,0.671,0.976,0.671,308.166
99489,134135,7364,-0.04,1.007,0.263,-0.244,0.61,0.366,308.172
99475,134288,5203,-0.04,1.007,0.263,-0.244,0.61,0.366,308.176
99475,134144,7365,-0.046,1.009,0.265,-1.159,0.244,0.122,308.182
99483,134032,5203,-0.046,1.009,0.265,-1.159,0.244,0.122,308.186
99483,134122,7367,-0.044,1.023,0.269,-0.427,0.183,0.305,308.192
99487,134032,5203,-0.044,1.023,0.269,-0.427,0.183,0.305,308.196
99487,134127,7363,-0.041,1.007,0.267,-0.061,0.305,0,308.202
99469,134032,5203,-0.041,1.007,0.267,-0.061,0.305,0,308.206
99469,134118,7364,-0.048,1.007,0.275,-0.244,0.305,0.061,308.212
99464,134032,5203,-0.048,1.007,0.275,-0.244,0.305,0.061,308.216
99464,134085,7361,-0.045,1.012,0.267,0.061,0.488,0.305,308.222
99450,134032,5203,-0.045,1.012,0.267,0.061,0.488,0.305,308.225
99450,134113,7359,-0.045,1.008,0.265,0,0.427,0.244,308.232
99455,134032,5203,-0.045,1.008,0.265,0,0.427,0.244,308.235
99455,134105,7360,-0.045,1.011,0.269,-0.183,0.427,0.244,308.241
99464,134032,5203,-0.045,1.011,0.269,-0.183,0.427,0.244,308.245
99464,134109,7360,-0.05,1.01,0.255,0.244,0.549,0.549,308.251
99475,134032,5203,-0.05,1.01,0.255,0.244,0.549,0.549,308.255
99475,134121,7365,-0.046,1.025,0.263,0.244,0.366,0.488,308.261
99461,134032,5203,-0.046,1.025,0.263,0.244,0.366,0.488,308.265
99461,134102,7358,-0.046,1.008,0.276,-0.488,0.244,0.305,308.271
99443,134032,5203,-0.046,1.008,0.276,-0.488,0.244,0.305,308.275
99443,134089,7366,-0.044,1.019,0.269,-0.671,0.183,0.244,308.281
99431,134032,5203,-0.044,1.019,0.269,-0.671,0.183,0.244,308.285
99431,134117,7371,-0.042,1.018,0.269,0.061,0.427,0.122,308.291
99456,134032,5203,-0.042,1.018,0.269,0.061,0.427,0.122,308.295
99456,134088,7364,-0.042,1.012,0.27,0.244,0.427,0,308.301
99452,134032,5203,-0.045,1.005,0.272,0.244,0.427,0,308.305
99452,134113,7362,-0.044,1.004,0.279,-0.366,0.427,0.122,308.311
99453,134032,5203,-0.045,1.003,0.275,-0.366,0.427,0.122,308.315
99453,134121,7352,-0.046,1.001,0.269,-0.427,0.61,0.244,308.321
99443,134032,5203,-0.048,1.005,0.26,-0.427,0.61,0.244,308.324
99443,134136,7349,-0.045,1.006,0.26,-0.488,0.61,0.366,308.331
99447,134032,5203,-0.04,1.013,0.261,-0.488,0.61,0.366,308.334
99447,134132,7362,-0.039,1.015,0.254,-1.098,0.366,0.122,308.34
99472,134032,5203,-0.042,1.013,0.253,-1.098,0.366,0.122,308.344
99472,134123,7349,-0.047,1.018,0.26,-0.305,0.244,0.183,308.35
99474,134032,5203,-0.048,1.023,0.256,-0.305,0.244,0.183,308.354
99474,134125,7367,-0.043,1.021,0.26,0,0.183,0.183,308.36
99489,134288,5203,-0.043,1.021,0.27,0,0.183,0.183,308.364
99489,134158,7372,-0.048,1.016,0.275,-0.244,0.183,0.488,308.37
99499,134288,5203,-0.048,1.01,0.275,-0.244,0.183,0.488,308.374
99499,134150,7363,-0.051,1.003,0.274,-0.671,0.366,0.488,308.38
99490,134288,5203,-0.05,0.996,0.279,-0.671,0.366,0.488,308.384
99490,134145,7362,-0.047,0.991,0.268,-0.488,0.488,0.366,308.39
99481,134032,5203,-0.049,0.995,0.263,-0.488,0.488,0.366,308.394
99481,134133,7359,-0.049,1.008,0.27,0.122,0.366,0.427,308.4
99469,134032,5203,-0.047,1.01,0.274,0.122,0.366,0.427,308.404
99469,134132,7360,-0.045,1.007,0.277,0.061,0.122,0.427,308.41
99478,134032,5203,-0.044,1.01,0.271,0.061,0.122,0.427,308.414
99478,134138,7336,-0.046,1.023,0.267,-0.061,0.122,0.488,308.42
99476,134032,5203,-0.044,1.032,0.263,-0.061,0.122,0.488,308.423
99476,134125,7369,-0.042,1.03,0.267,-0.122,0.244,0.244,308.43
99485,134288,5203,-0.041,1.022,0.267,-0.122,0.244,0.244,308.433
99485,134151,7370,-0.04,1.017,0.264,-0.427,0.122,0.061,308.439
99469,134288,5203,-0.039,1.012,0.26,-0.427,0.122,0.061,308.443
99469,134185,7375,-0.042,1.011,0.257,-0.488,0.244,0.183,308.449
99486,134288,5203,-0.04,1.012,0.253,-0.488,0.244,0.183,308.453
99486,134149,7366,-0.043,1.008,0.257,0.061,0.488,0.244,308.459
99507,134288,5203,-0.045,1.009,0.261,0.061,0.488,0.244,308.463
99507,134157,7368,-0.045,1.012,0.266,0,0.549,0.488,308.469
99511,134288,5203,-0.049,1.016,0.269,0,0.549,0.488,308.473
99511,134177,7366,-0.044,1.013,0.277,-0.732,0.427,0.549,308.479
99507,134288,5203,-0.046,1.008,0.281,-0.732,0.427,0.549,308.483
99507,134187,7362,-0.05,1.011,0.283,-0.793,0.61,0.366,308.489
99501,134288,5203,-0.049,1.016,0.275,-0.793,0.61,0.366,308.493
99501,134187,7374,-0.048,1.018,0.269,-0.183,0.732,0.427,308.499
99547,134288,5203,-0.047,1.016,0.269,-0.183,0.732,0.427,308.503
99547,134193,7356,-0.052,1.005,0.27,-0.427,0.793,0.061,308.509
99549,134288,5203,-0.051,0.999,0.273,-0.427,0.793,0.061,308.512
99549,134213,7356,-0.049,1.002,0.276,-0.549,0.61,0.122,308.519
99556,134288,5203,-0.049,1.007,0.278,-0.549,0.61,0.122,308.522
99556,134197,7360,-0.045,1.008,0.275,-0.61,0.671,0.244,308.529
99559,134288,5203,-0.043,1.009,0.271,-0.61,0.671,0.244,308.532
99559,134190,7364,-0.045,1.015,0.268,-0.854,0.61,0.305,308.538
99548,134288,5203,-0.043,1.012,0.268,-0.854,0.61,0.305,308.542
99548,134188,7356,-0.041,1.007,0.266,-1.707,0.427,0.183,308.548
99505,134288,5203,-0.04,1.012,0.266,-1.707,0.427,0.183,308.552
99505,134179,7369,-0.045,1.016,0.263,-1.463,0.366,0.244,308.558
99530,134288,5203,-0.046,1.018,0.266,-1.463,0.366,0.244,308.562
99530,134188,7374,-0.046,1.018,0.268,-1.037,0.488,0.305,308.568
99572,134288,5203,-0.045,1.012,0.271,-1.037,0.488,0.305,308.572
99572,134207,7365,-0.045,1.008,0.266,-1.28,0.488,0.366,308.578
99573,134288,5203,-0.045,1.016,0.266,-1.28,0.488,0.366,308.582
99573,134222,7367,-0.048,1.015,0.269,-1.037,0.61,0.549,308.588
99592,134288,5203,-0.047,1.009,0.268,-1.037,0.61,0.549,308.592
99592,134216,7365,-0.049,1.004,0.271,-1.098,0.61,0.427,308.598
99583,134288,5203,-0.048,1.006,0.264,-1.098,0.61,0.427,308.602
99583,134239,7362,-0.048,1.015,0.255,-1.037,0.549,0.549,308.608
99568,134288,5203,-0.048,1.021,0.247,-1.037,0.549,0.549,308.611
99568,134223,7373,-0.044,1.016,0.245,-1.037,0.305,0.427,308.618
99593,134288,5203,-0.045,1.009,0.249,-1.037,0.305,0.427,308.621
99593,134231,7359,-0.047,1.009,0.258,-1.28,-0.183,0.305,308.628
99597,134288,5203,-0.046,1.014,0.266,-1.28,-0.183,0.305,308.631
99597,134202,7366,-0.045,1.02,0.271,-0.915,-0.061,0.366,308.637
99566,134288,5203,-0.044,1.022,0.279,-0.915,-0.061,0.366,308.641
99566,134214,7361,-0.046,1.018,0.284,-0.854,0.061,0.366,308.647
99556,134288,5203,-0.046,1.013,0.281,-0.854,0.061,0.366,308.651
99556,134205,7373,-0.045,1.011,0.282,-1.098,0.244,0.183,308.657
99570,134288,5203,-0.044,1.004,0.287,-1.098,0.244,0.183,308.661
99570,134224,7353,-0.045,0.998,0.285,-0.854,0.244,0.122,308.667
99584,134288,5203,-0.044,0.993,0.284,-0.854,0.244,0.122,308.671
99584,134232,7384,-0.047,1.004,0.279,-0.122,0.183,0.244,308.677
99581,134288,5203,-0.045,1.008,0.273,-0.122,0.183,0.244,308.681
99581,134234,7356,-0.046,1.016,0.273,0.183,0.244,0.549,308.687
99569,134288,5203,-0.044,1.017,0.272,0.183,0.244,0.549,308.691
99569,134208,7384,-0.045,1.003,0.268,-1.098,0.366,0.488,308.697
99580,134288,5203,-0.049,0.992,0.262,-1.098,0.366,0.488,308.701
99580,134206,7357,-0.045,0.997,0.268,-1.89,0.305,0.671,308.707
99600,134288,5203,-0.041,1.01,0.266,-1.89,0.305,0.671,308.71
99600,134214,7359,-0.041,1.009,0.274,-1.463,0.488,0.671,308.717
99604,134288,5203,-0.044,1.014,0.276,-1.463,0.488,0.671,308.72
99604,134250,7378,-0.044,1.023,0.287,-0.671,0.854,1.037,308.726
99595,134288,5203,-0.044,1.035,0.286,-0.671,0.854,1.037,308.73
99595,134246,7376,-0.049,1.011,0.28,-1.524,1.098,0.793,308.736
99619,134288,5203,-0.049,1.011,0.28,-1.524,1.098,0.793,308.74
99619,134268,7377,-0.047,0.986,0.274,-1.098,0.854,0.183,308.746
99619,134288,5203,-0.047,0.986,0.274,-1.098,0.854,0.183,308.75
99619,134237,7372,-0.044,1.025,0.268,1.402,0.61,0.366,308.756
99595,134288,5203,-0.044,1.025,0.268,1.402,0.61,0.366,308.76
99595,134211,7369,-0.046,1.025,0.276,1.402,0.549,0.183,308.766
99567,134288,5203,-0.046,1.025,0.276,1.402,0.549,0.183,308.77
99567,134203,7370,-0.045,0.997,0.272,-0.549,0.488,-0.122,308.776
99542,134288,5203,-0.045,0.997,0.272,-0.549,0.488,-0.122,308.78
99542,134196,7351,-0.05,0.985,0.258,-0.61,0.488,0.122,308.786
99496,134288,5203,-0.05,0.985,0.258,-0.61,0.488,0.122,308.79
99496,134162,7359,-0.037,1.027,0.254,0.183,0.244,0.488,308.796
99441,134032,5203,-0.037,1.027,0.254,0.183,0.244,0.488,308.799
99441,134124,7339,-0.038,1.017,0.274,-0.122,0.183,0.854,308.806
99439,134032,5203,-0.038,1.017,0.274,-0.122,0.183,0.854,308.809
99439,134110,7344,-0.047,1.004,0.278,-0.915,0.305,0.915,308.816
99407,134032,5203,-0.047,1.004,0.278,-0.915,0.305,0.915,308.819
99407,134092,7338,-0.047,1.022,0.278,-0.549,0.549,0.793,308.825
99396,134032,5203,-0.047,1.022,0.278,-0.549,0.549,0.793,308.829
99396,134087,7326,-0.049,1.022,0.282,-0.61,0.305,0.549,308.835
99381,134032,5203,-0.049,1.022,0.282,-0.61,0.305,0.549,308.839
99381,134078,7324,-0.047,0.996,0.275,-1.22,-0.244,0.305,308.845
99371,134032,5203,-0.047,0.996,0.275,-1.22,-0.244,0.305,308.849
99371,134069,7345,-0.047,1.011,0.267,-0.915,-0.305,0.305,308.855
99353,134032,5203,-0.047,1.011,0.267,-0.915,-0.305,0.305,308.859
99353,134079,7337,-0.046,1.024,0.257,-0.793,-0.427,0,308.865
99366,134032,5203,-0.046,1.024,0.257,-0.793,-0.427,0,308.869
99366,134085,7345,-0.042,1.027,0.265,-0.793,-0.427,0,308.875
99364,134032,5203,-0.04,1.016,0.27,-1.524,-0.61,0.122,308.879
99364,134106,7330,-0.036,1.009,0.261,-1.524,-0.61,0.122,308.885
99399,134032,5203,-0.037,1.021,0.266,-1.402,-0.549,-0.061,308.889
99399,134113,7345,-0.048,1.021,0.266,-1.402,-0.549,-0.061,308.895
99407,134032,5203,-0.052,1.011,0.266,-0.671,-0.244,-0.366,308.898
99407,134125,7346,-0.046,1.001,0.271,-0.671,-0.244,-0.366,308.905
99389,134032,5203,-0.043,1.001,0.279,-0.549,-0.366,-0.244,308.908
99389,134130,7351,-0.043,1.008,0.282,-0.549,-0.366,-0.244,308.915
99402,134032,5203,-0.046,1.015,0.279,-0.122,-0.183,0.183,308.918
99402,134121,7324,-0.045,1.015,0.279,-0.122,-0.183,0.183,308.924
99405,134032,5203,-0.05,1.009,0.276,0,0.061,0.305,308.928
99405,134134,7351,-0.047,1.007,0.275,0,0.061,0.305,308.934
99440,134032,5203,-0.047,1.002,0.269,-0.976,0.061,0.183,308.938
99440,134142,7354,-0.048,0.993,0.266,-0.976,0.061,0.183,308.944
99423,134032,5203,-0.046,0.991,0.266,-1.402,0.061,0.305,308.948
99423,134129,7350,-0.047,0.997,0.265,-1.402,0.061,0.305,308.954
99452,134032,5203,-0.044,1,0.273,-0.915,-0.061,0.366,308.958
99452,134132,7360,-0.044,1.01,0.28,-0.915,-0.061,0.366,308.964
99450,134032,5203,-0.042,1.023,0.281,-0.244,0.061,0.732,308.968
99450,134133,7341,-0.038,1.029,0.29,-0.244,0.061,0.732,308.974
99449,134288,5203,-0.041,1.028,0.296,-0.427,0.183,0.793,308.978
99449,134160,7357,-0.04,1.019,0.295,-0.427,0.183,0.793,308.984
99445,134288,5203,-0.043,1.01,0.297,-1.402,0.61,0.427,308.988
99445,134147,7353,-0.045,1.003,0.287,-1.402,0.61,0.427,308.994
99425,134288,5203,-0.046,1.003,0.283,-1.524,0.854,0.305,308.997
99425,134145,7338,-0.042,1.011,0.278,-1.524,0.854,0.305,309.004
99419,134032,5203,-0.042,1.011,0.272,-0.488,0.976,0.305,309.007
99419,134126,7331,-0.044,1.009,0.271,-0.488,0.976,0.305,309.014
99397,134032,5203,-0.044,0.997,0.253,-0.366,0.915,0.366,309.017
99397,134117,7343,-0.048,0.993,0.243,-0.366,0.915,0.366,309.023
99406,134032,5203,-0.044,1.009,0.246,-0.732,0.366,0.549,309.027
99406,134129,7339,-0.041,1.016,0.252,-0.732,0.366,0.549,309.033
99412,134288,5203,-0.042,1.013,0.26,-0.244,0.122,0.366,309.037
99412,134159,7329,-0.043,1.016,0.264,-0.244,0.122,0.366,309.043
99422,134288,5203,-0.047,1.024,0.271,0.305,0.061,0.671,309.047
99422,134155,7350,-0.046,1.027,0.272,0.305,0.061,0.671,309.053
99416,134288,5203,-0.045,1.019,0.271,-0.061,-0.122,0.549,309.057
99416,134152,7336,-0.044,1.013,0.275,-0.061,-0.122,0.549,309.063
99439,134032,5203,-0.048,1.007,0.29,-0.244,-0.061,0.427,309.067
99439,134135,7352,-0.047,1.01,0.293,-0.244,-0.061,0.427,309.073
99433,134288,5203,-0.046,1.011,0.288,-0.305,0.183,0.427,309.077
99433,134156,7339,-0.048,1.006,0.29,-0.305,0.183,0.427,309.083
99425,134288,5203,-0.045,1.003,0.281,0.061,0.488,0.244,309.087
99425,134150,7332,-0.046,0.999,0.276,0.061,0.488,0.244,309.093
99413,134032,5203,-0.051,0.998,0.267,0,0.61,0.183,309.096
99413,134129,7339,-0.049,1,0.267,0,0.61,0.183,309.103
99430,134288,5203,-0.046,0.994,0.263,-0.488,0.366,0.122,309.106
99430,134146,7348,-0.041,0.995,0.263,-0.488,0.366,0.122,309.113
99458,134288,5203,-0.044,1.008,0.268,-0.549,-0.061,0.244,309.116
99458,134180,7352,-0.047,1.02,0.273,-0.549,-0.061,0.244,309.122
99492,134288,5203,-0.041,1.018,0.28,-0.854,-0.183,0.61,309.126
99492,134187,7351,-0.037,1.017,0.282,-0.854,-0.183,0.61,309.132
99496,134288,5203,-0.047,1.013,0.288,-1.829,0,0.549,309.136
99496,134183,7369,-0.047,1.01,0.292,-1.829,0,0.549,309.142
99517,134288,5203,-0.041,1.01,0.29,-2.378,0.244,0.732,309.146
99517,134223,7358,-0.045,1.013,0.286,-2.378,0.244,0.732,309.152
99493,134288,5203,-0.047,1.017,0.279,-2.378,0.61,0.671,309.156
99493,134204,7356,-0.047,1.016,0.278,-2.378,0.61,0.671,309.162
99494,134288,5203,-0.047,1.01,0.279,-1.585,0.793,0.732,309.166
99494,134180,7356,-0.043,1.005,0.266,-1.585,0.793,0.732,309.172
99472,134288,5203,-0.049,1.005,0.257,-1.098,0.732,0.732,309.176
99472,134172,7344,-0.05,1.007,0.256,-1.098,0.732,0.732,309.182
99453,134288,5203,-0.052,1.009,0.25,-1.037,0.549,0.549,309.186
99453,134163,7354,-0.047,1.015,0.252,-1.037,0.549,0.549,309.192
99456,134288,5203,-0.037,1.013,0.261,-1.28,-0.061,0.427,309.195
99456,134187,7352,-0.037,1.013,0.267,-1.28,-0.061,0.427,309.202
99463,134288,5203,-0.043,1.02,0.27,-0.305,-0.122,0.488,309.205
99463,134165,7334,-0.04,1.027,0.275,-0.305,-0.122,0.488,309.211
99472,134288,5203,-0.039,1.028,0.277,0,0,0.305,309.215
99472,134159,7366,-0.038,1.022,0.283,0,0,0.305,309.221
99495,134288,5203,-0.04,1.011,0.284,-0.671,0.122,0.122,309.225
99495,134169,7363,-0.044,1.003,0.291,-0.671,0.122,0.122,309.231
99507,134288,5203,-0.044,1.003,0.296,-0.793,0.366,0.122,309.235
99507,134226,7362,-0.044,0.999,0.3,-0.793,0.366,0.122,309.241
99531,134288,5203,-0.042,0.995,0.294,-0.61,0.549,0.183,309.245
99531,134218,7367,-0.046,0.989,0.287,-0.61,0.549,0.183,309.251
99545,134288,5203,-0.048,0.991,0.275,-0.488,0.61,0.305,309.255
99545,134220,7370,-0.048,0.996,0.26,-0.488,0.61,0.305,309.261
99548,134288,5203,-0.047,0.999,0.261,-0.671,0.549,0.549,309.265
99548,134217,7359,-0.044,0.997,0.263,-0.671,0.549,0.549,309.271
99553,134288,5203,-0.043,0.998,0.268,-0.854,0.427,0.488,309.275
99553,134223,7357,-0.045,1.006,0.273,-0.854,0.427,0.488,309.281
99564,134288,5203,-0.047,1.021,0.284,-0.793,0.366,0.793,309.284
99564,134229,7362,-0.044,1.021,0.279,-0.793,0.366,0.793,309.291
99559,134288,5203,-0.042,1.02,0.277,-0.915,0.366,0.427,309.294
99559,134235,7358,-0.043,1.021,0.278,-0.915,0.366,0.427,309.301
99577,134288,5203,-0.043,1.021,0.278,-0.915,0.366,0.427,309.304
99577,134218,7371,-0.044,1.023,0.274,-0.854,0.183,0.244,309.31
99554,134288,5203,-0.044,1.023,0.274,-0.854,0.183,0.244,309.314
99554,134221,7355,-0.041,1.023,0.284,-0.488,0.366,0.122,309.32
99533,134288,5203,-0.041,1.023,0.284,-0.488,0.366,0.122,309.324
99533,134201,7354,-0.044,1.017,0.275,-0.183,0.488,0.061,309.33
99548,134288,5203,-0.044,1.017,0.275,-0.183,0.488,0.061,309.334
99548,134212,7372,-0.049,1.004,0.262,-0.305,0.732,0.122,309.34
99537,134288,5203,-0.049,1.004,0.262,-0.305,0.732,0.122,309.344
99537,134197,7362,-0.044,0.995,0.266,-0.793,0.61,0.244,309.35
99534,134288,5203,-0.044,0.995,0.266,-0.793,0.61,0.244,309.354
99534,134204,7370,-0.048,1.002,0.272,-0.793,0.427,0.305,309.36
99565,134288,5203,-0.048,1.002,0.272,-0.793,0.427,0.305,309.364
99565,134219,7369,-0.045,1.007,0.273,-0.244,0.366,0.793,309.37
99568,134288,5203,-0.045,1.007,0.273,-0.244,0.366,0.793,309.374
99568,134234,7385,-0.043,1.012,0.273,-0.549,0.061,0.854,309.38
99567,134288,5203,-0.043,1.012,0.273,-0.549,0.061,0.854,309.383
99567,134233,7355,-0.043,1.015,0.292,-0.671,0.061,0.549,309.39
99563,134288,5203,-0.043,1.015,0.292,-0.671,0.061,0.549,309.393
99563,134232,7365,-0.042,1.016,0.291,-0.305,0.122,0.488,309.4
99571,134288,5203,-0.042,1.016,0.291,-0.305,0.122,0.488,309.403
99571,134233,7360,-0.041,1.024,0.284,0,0.305,0.305,309.409
99539,134288,5203,-0.041,1.024,0.284,0,0.305,0.305,309.413
99539,134234,7368,-0.047,1.013,0.283,0.244,0.488,-0.244,309.419
99569,134288,5203,-0.047,1.013,0.283,0.244,0.488,-0.244,309.423
99569,134218,7359,-0.049,1.01,0.269,0.122,0.671,-0.366,309.429
99573,134288,5203,-0.049,1.01,0.269,0.122,0.671,-0.366,309.433
99573,134221,7387,-0.052,0.988,0.252,-0.183,0.732,-0.244,309.439
99578,134288,5203,-0.052,0.988,0.252,-0.183,0.732,-0.244,309.443
99578,134229,7378,-0.044,0.981,0.256,-0.732,0.427,0,309.449
99587,134288,5203,-0.04,0.984,0.258,-0.732,0.427,0,309.453
99587,134236,7376,-0.046,0.999,0.276,0.061,0.183,0.549,309.459
99585,134288,5203,-0.046,1.016,0.289,0.061,0.183,0.549,309.463
99585,134243,7369,-0.043,1.023,0.287,0.915,0.183,1.22,309.469
99562,134288,5203,-0.041,1.021,0.286,0.915,0.183,1.22,309.473
99562,134206,7372,-0.047,1.016,0.286,-0.366,0.305,1.159,309.479
99566,134288,5203,-0.045,1.013,0.288,-0.366,0.305,1.159,309.482
99566,134202,7359,-0.045,1.012,0.289,-1.098,0.488,1.037,309.489
99547,134288,5203,-0.047,1.015,0.297,-1.098,0.488,1.037,309.492
99547,134222,7343,-0.046,1.014,0.297,-0.854,0.793,0.732,309.499
99554,134288,5203,-0.049,1.003,0.293,-0.854,0.793,0.732,309.502
99554,134194,7372,-0.044,1.001,0.289,-0.244,0.915,0.427,309.508
99564,134288,5203,-0.045,1.01,0.278,-0.244,0.915,0.427,309.512
99564,134206,7355,-0.047,1.011,0.261,0.854,0.854,0.305,309.518
99581,134288,5203,-0.044,1.017,0.256,0.854,0.854,0.305,309.522
99581,134209,7355,-0.043,1.021,0.258,0.427,0.427,-0.183,309.528
99558,134288,5203,-0.039,1.004,0.258,0.427,0.427,-0.183,309.532
99558,134219,7372,-0.04,0.995,0.257,-0.427,0,-0.305,309.538
99591,134288,5203,-0.042,1.008,0.264,-0.427,0,-0.305,309.542
99591,134229,7362,-0.041,1.019,0.265,0.183,0,0.183,309.548
99584,134288,5203,-0.039,1.02,0.27,0.183,0,0.183,309.552
99584,134229,7368,-0.044,1.008,0.272,-0.122,0.061,0.244,309.558
99575,134288,5203,-0.042,1,0.271,-0.122,0.061,0.244,309.562
99575,134205,7366,-0.047,1,0.271,-0.549,-0.183,0.671,309.568
99574,134288,5203,-0.045,1.011,0.281,-0.549,-0.183,0.671,309.572
99574,134194,7378,-0.049,1.008,0.292,-0.427,0.061,0.793,309.578
99565,134288,5203,-0.05,1.002,0.297,-0.427,0.061,0.793,309.581
99565,134220,7370,-0.049,1.009,0.3,-0.488,0.427,0.915,309.588
99570,134288,5203,-0.048,1.008,0.296,-0.488,0.427,0.915,309.591
99570,134206,7370,-0.047,1.006,0.294,-0.61,0.671,0.793,309.598
99586,134288,5203,-0.044,1.013,0.285,-0.61,0.671,0.793,309.601
99586,134205,7378,-0.041,1.022,0.281,-0.061,0.854,0.549,309.607
99584,134288,5203,-0.046,1.015,0.278,-0.061,0.854,0.549,309.611
99584,134219,7365,-0.045,1.004,0.269,0.305,0.915,0.305,309.617
99611,134288,5203,-0.043,1.004,0.259,0.305,0.915,0.305,309.621
99611,134224,7373,-0.043,1.012,0.244,0.366,0.427,0.183,309.627
99623,134288,5203,-0.043,1.016,0.243,0.366,0.427,0.183,309.631
99623,134228,7368,-0.037,1.016,0.256,-0.061,-0.122,0,309.637
99620,134288,5203,-0.037,1.008,0.27,-0.061,-0.122,0,309.641
99620,134254,7375,-0.036,0.999,0.282,-0.366,-0.366,0.305,309.647
99605,134288,5203,-0.038,1.005,0.284,-0.366,-0.366,0.305,309.651
99605,134235,7379,-0.041,1.022,0.29,0.244,-0.122,0.549,309.657
99619,134288,5203,-0.043,1.029,0.293,0.244,-0.122,0.549,309.661
99619,134240,7378,-0.045,1.023,0.295,0.671,0.183,0.427,309.667
99611,134288,5203,-0.047,1.008,0.301,0.671,0.183,0.427,309.671
99611,134232,7359,-0.049,0.995,0.292,-0.305,0.305,0.244,309.677
99597,134288,5203,-0.052,0.993,0.281,-0.305,0.305,0.244,309.68
99597,134226,7373,-0.047,1.002,0.278,-0.427,0.488,0.244,309.687
99610,134288,5203,-0.048,1.004,0.276,-0.427,0.488,0.244,309.69
99610,134221,7373,-0.046,1,0.279,-0.061,0.61,0.366,309.697
99608,134288,5203,-0.047,0.996,0.278,-0.061,0.61,0.366,309.7
99608,134249,7379,-0.044,0.997,0.277,-0.305,0.366,0.366,309.706
99616,134288,5203,-0.044,1.005,0.27,-0.305,0.366,0.366,309.71
99616,134235,7368,-0.044,1.013,0.267,0.122,0.305,0.427,309.716
99611,134288,5203,-0.043,1.023,0.272,0.122,0.305,0.427,309.72
99611,134224,7373,-0.038,1.025,0.267,0.671,0.366,0.671,309.726
99594,134288,5203,-0.043,1.017,0.266,0.671,0.366,0.671,309.73
99594,134200,7376,-0.042,1.012,0.268,0.305,0.244,0.488,309.736
99536,134288,5203,-0.044,1.015,0.27,0.305,0.244,0.488,309.74
99536,134198,7365,-0.047,1.018,0.269,0.427,0.122,0.671,309.746
99542,134288,5203,-0.042,1.019,0.276,0.427,0.122,0.671,309.75
99542,134170,7340,-0.048,1.015,0.278,-0.061,0.244,0.549,309.756
99529,134288,5203,-0.048,1.004,0.276,-0.061,0.244,0.549,309.76
99529,134155,7348,-0.048,0.997,0.278,-0.549,0.244,0.488,309.766
99505,134288,5203,-0.048,0.998,0.281,-0.549,0.244,0.488,309.77
99505,134158,7342,-0.047,1.008,0.284,0.305,0.244,0.427,309.776
99520,134288,5203,-0.043,1.02,0.288,0.305,0.244,0.427,309.779
99520,134151,7350,-0.042,1.021,0.29,0.732,0.366,0.366,309.786
99524,134288,5203,-0.044,1.013,0.288,0.732,0.366,0.366,309.789
99524,134154,7369,-0.042,1.01,0.283,0.305,0.427,0.061,309.795
99533,134288,5203,-0.045,1.007,0.277,0.305,0.427,0.061,309.799
99533,134170,7362,-0.046,1.01,0.272,0,0.488,0,309.805
99510,134288,5203,-0.041,1.002,0.266,0,0.488,0,309.809
99510,134157,7362,-0.042,0.994,0.26,0,0.427,0,309.815
99490,134288,5203,-0.047,0.993,0.254,0,0.427,0,309.819
99490,134170,7346,-0.044,1.007,0.248,0.793,0.366,0.305,309.825
99497,134288,5203,-0.038,1.02,0.253,0.793,0.366,0.305,309.829
99497,134154,7345,-0.038,1.019,0.26,0.854,0.122,0.427,309.835
99505,134288,5203,-0.046,1.011,0.264,0.854,0.122,0.427,309.839
99505,134172,7352,-0.046,1.008,0.276,0.305,-0.122,0.61,309.845
99493,134288,5203,-0.046,1.002,0.284,0.305,-0.122,0.61,309.849
99493,134162,7354,-0.047,1.009,0.297,0.183,-0.244,0.793,309.855
99492,134288,5203,-0.047,1.018,0.304,0.183,-0.244,0.793,309.859
99492,134168,7359,-0.047,1.021,0.306,0.61,0.305,0.793,309.865
99515,134288,5203,-0.047,1.017,0.31,0.61,0.305,0.793,309.869
99515,134177,7335,-0.049,1.009,0.305,0.122,0.732,0.427,309.875
99531,134288,5203,-0.049,1.004,0.298,0.122,0.732,0.427,309.878
99531,134169,7350,-0.047,1.003,0.289,-0.366,0.915,0,309.885
99535,134288,5203,-0.047,1.003,0.289,-0.366,0.915,0,309.888
99535,134193,7352,-0.047,0.996,0.265,0.366,0.915,0.122,309.894
99539,134288,5203,-0.047,0.996,0.265,0.366,0.915,0.122,309.898
99539,134197,7365,-0.044,1.013,0.248,0.488,0.732,0.244,309.904
99536,134288,5203,-0.044,1.013,0.248,0.488,0.732,0.244,309.908
99536,134201,7355,-0.034,1.013,0.255,-0.183,0.305,0.305,309.914
99519,134288,5203,-0.034,1.013,0.255,-0.183,0.305,0.305,309.918
99519,134166,7358,-0.034,1.019,0.266,0.244,0.183,0.915,309.924
99477,134288,5203,-0.034,1.019,0.266,0.244,0.183,0.915,309.928
99477,134144,7346,-0.044,1.031,0.281,0.427,0.244,0.793,309.934
99466,134032,5203,-0.044,1.031,0.281,0.427,0.244,0.793,309.938
99466,134136,7353,-0.042,1.017,0.282,-0.305,0.427,0.61,309.944
99457,134032,5203,-0.042,1.017,0.282,-0.305,0.427,0.61,309.948
99457,134135,7342,-0.05,1.008,0.273,-0.732,0.671,0.427,309.954
99457,134032,5203,-0.05,1.008,0.273,-0.732,0.671,0.427,309.958
99457,134131,7339,-0.053,1.004,0.273,-0.244,0.61,0.305,309.964
99431,134032,5203,-0.053,1.004,0.273,-0.244,0.61,0.305,309.967
99431,134113,7341,-0.045,1.006,0.274,-0.061,0.549,0.183,309.974
99399,134032,5203,-0.045,1.006,0.274,-0.061,0.549,0.183,309.977
99399,134117,7332,-0.048,1.006,0.274,0.366,0.427,0.244,309.984
99417,134032,5203,-0.048,1.006,0.274,0.366,0.427,0.244,309.987
99417,134127,7336,-0.046,1.007,0.268,0,0.305,0.366,309.993
99445,134032,5203,-0.046,1.007,0.268,0,0.305,0.366,309.997
99445,134125,7318,-0.038,1.004,0.269,-0.366,-0.122,-0.061,310.003
99430,134288,5203,-0.038,1.004,0.269,-0.366,-0.122,-0.061,310.007
99430,134150,7340,-0.041,1.014,0.28,0.061,-0.183,0.244,310.013
99469,134032,5203,-0.041,1.014,0.28,0.061,-0.183,0.244,310.017
99469,134140,7345,-0.04,1.006,0.285,-0.183,-0.183,0.549,310.023
99476,134288,5203,-0.04,1.006,0.285,-0.183,-0.183,0.549,310.027
99476,134156,7359,-0.038,1.006,0.291,-0.183,-0.183,0.549,310.033
99469,134032,5203,-0.043,1.009,0.294,-0.366,0,0.244,310.037
99469,134142,7345,-0.044,1.011,0.299,-0.366,0,0.244,310.043
99483,134288,5203,-0.044,1.014,0.301,-0.122,0.244,0.61,310.047
99483,134172,7330,-0.045,1.014,0.291,-0.122,0.244,0.61,310.053
99500,134288,5203,-0.046,1.007,0.28,-0.305,0.671,0.427,310.057
99500,134151,7345,-0.05,1.001,0.273,-0.305,0.671,0.427,310.063
99517,134288,5203,-0.051,0.997,0.266,-0.366,0.854,0.366,310.066
99517,134183,7360,-0.049,0.995,0.258,-0.366,0.854,0.366,310.073
99539,134288,5203,-0.049,1.001,0.254,0,0.915,0.61,310.076
99539,134195,7358,-0.047,1.014,0.248,0,0.915,0.61,310.083
99551,134288,5203,-0.042,1.022,0.249,-0.183,0.61,0.671,310.086
99551,134205,7362,-0.041,1.019,0.252,-0.183,0.61,0.671,310.092
99547,134288,5203,-0.042,1.023,0.261,-0.244,0.183,0.793,310.096
99547,134217,7349,-0.04,1.032,0.275,-0.244,0.183,0.793,310.102
99554,134288,5203,-0.036,1.029,0.286,-0.488,-0.061,0.854,310.106
99554,134240,7358,-0.038,1.024,0.285,-0.488,-0.061,0.854,310.112
99583,134288,5203,-0.038,1.027,0.292,-0.488,0,0.427,310.116
99583,134207,7352,-0.037,1.028,0.309,-0.488,0,0.427,310.122
99561,134288,5203,-0.04,1.041,0.3,-1.341,0.305,0.183,310.126
99561,134232,7358,-0.045,1.029,0.28,-1.341,0.305,0.183,310.132
99565,134288,5203,-0.044,0.989,0.274,-3.598,0.732,-0.427,310.136
99565,134202,7349,-0.046,0.969,0.276,-3.598,0.732,-0.427,310.142
99541,134288,5203,-0.044,0.969,0.28,-2.927,0.549,-0.122,310.146
99541,134206,7346,-0.052,0.975,0.269,-2.927,0.549,-0.122,310.152
99527,134288,5203,-0.053,0.986,0.256,-0.366,0.671,0.793,310.156
99527,134237,7348,-0.045,0.995,0.253,-0.366,0.671,0.793,310.162
99603,134288,5203,-0.044,1.005,0.246,-0.61,0.244,0.793,310.165
99603,134238,7350,-0.047,1.003,0.257,-0.61,0.244,0.793,310.172
99612,134288,5203,-0.048,1.01,0.258,-2.561,-0.305,0.793,310.175
99612,134260,7378,-0.052,1.014,0.255,-2.561,-0.305,0.793,310.182
99624,134288,5203,-0.046,1.008,0.271,-3.049,-0.854,1.098,310.185
99624,134259,7374,-0.048,1.011,0.276,-3.049,-0.854,1.098,310.191
99592,134288,5203,-0.078,1.046,0.255,-1.341,-0.61,0.854,310.195
99592,134252,7361,0.001,1.05,0.278,-1.341,-0.61,0.854,310.201
99571,134288,5203,-0.034,0.973,0.362,0.488,-0.427,0.671,310.205
99571,134220,7358,-0.068,1.027,0.313,0.488,-0.427,0.671,310.211
99561,134288,5203,-0.056,0.999,0.295,-2.622,0.61,1.159,310.215
99561,134234,7367,-0.044,0.971,0.32,-2.622,0.61,1.159,310.221
99556,134288,5203,-0.034,1.013,0.309,-0.854,0.854,0.183,310.225
99556,134234,7355,-0.044,1.029,0.297,-0.854,0.854,0.183,310.231
99572,134288,5203,-0.044,1.023,0.281,0.732,0.976,0.366,310.235
99572,134223,7350,-0.045,1.007,0.272,0.732,0.976,0.366,310.241
99572,134288,5203,-0.037,0.986,0.272,-0.915,0.61,-0.61,310.245
99572,134242,7369,-0.038,0.993,0.271,-0.915,0.61,-0.61,310.251
99564,134288,5203,-0.038,1,0.256,-0.61,0.305,-0.549,310.255
99564,134223,7362,-0.044,1.003,0.248,-0.61,0.305,-0.549,310.261
99572,134288,5203,-0.042,1.016,0.255,0.427,0.122,0.061,310.264
99572,134224,7351,-0.029,1.031,0.27,0.427,0.122,0.061,310.271
99577,134288,5203,-0.032,1.02,0.276,-0.915,-0.183,0.61,310.274
99577,134207,7352,-0.041,0.999,0.272,-0.915,-0.183,0.61,310.281
99558,134288,5203,-0.043,0.995,0.264,-1.646,0.183,0.366,310.284
99558,134206,7372,-0.045,1.008,0.273,-1.646,0.183,0.366,310.29
99534,134288,5203,-0.046,1.023,0.284,0,0.671,0.671,310.294
99534,134192,7351,-0.049,1.021,0.297,0,0.671,0.671,310.3
99531,134288,5203,-0.046,1.002,0.304,0,0.976,0.854,310.304
99531,134211,7372,-0.049,0.987,0.311,0,0.976,0.854,310.31
99521,134288,5203,-0.051,0.993,0.312,-0.61,1.28,1.037,310.314
99521,134198,7352,-0.049,1.012,0.305,-0.61,1.28,1.037,310.32
99518,134288,5203,-0.046,1.025,0.296,0.305,1.585,0.854,310.324
99518,134186,7337,-0.047,1.025,0.284,0.305,1.585,0.854,310.33
99534,134288,5203,-0.045,1.011,0.273,-0.244,1.28,0.183,310.334
99534,134197,7338,-0.038,0.996,0.257,-0.244,1.28,0.183,310.34
99543,134288,5203,-0.041,0.99,0.246,-0.61,0.793,-0.427,310.344
99543,134220,7346,-0.041,1.005,0.248,-0.61,0.793,-0.427,310.35
99545,134288,5203,-0.041,1.018,0.253,0.427,0.61,-0.427,310.354
99545,134187,7326,-0.041,1.018,0.254,0.427,0.61,-0.427,310.36
99539,134288,5203,-0.041,1.01,0.254,0.305,0.244,-0.244,310.363
99539,134197,7362,-0.039,1.013,0.259,0.305,0.244,-0.244,310.37
99545,134288,5203,-0.038,1.012,0.272,-0.427,0,0.183,310.373
99545,134200,7352,-0.044,1.003,0.277,-0.427,0,0.183,310.379
99502,134288,5203,-0.045,0.999,0.278,-0.427,0.366,0.549,310.383
99502,134162,7347,-0.048,1.013,0.288,-0.427,0.366,0.549,310.389
99480,134288,5203,-0.051,1.022,0.297,0,0.366,1.098,310.393
99480,134155,7354,-0.052,1.01,0.303,0,0.366,1.098,310.399
99451,134288,5203,-0.047,0.998,0.303,-1.037,0.305,1.098,310.403
99451,134148,7343,-0.047,0.999,0.304,-1.037,0.305,1.098,310.409
99505,134032,5203,-0.046,1.006,0.303,-1.28,0.427,0.915,310.413
99505,134143,7345,-0.044,1.011,0.287,-1.28,0.427,0.915,310.419
99461,134032,5203,-0.048,1.008,0.271,-0.427,0.61,0.549,310.423
99461,134128,7323,-0.046,1.011,0.267,-0.427,0.61,0.549,310.429
99477,134288,5203,-0.041,1.008,0.267,-0.671,0.366,0.244,310.433
99477,134149,7333,-0.038,1.001,0.259,-0.671,0.366,0.244,310.439
99487,134288,5203,-0.038,1.002,0.261,-0.61,0.183,-0.061,310.443
99487,134146,7351,-0.043,1.011,0.26,-0.61,0.183,-0.061,310.449
99471,134288,5203,-0.046,1.013,0.261,-0.061,0.244,0.366,310.453
99471,134154,7346,-0.034,1.014,0.274,-0.061,0.244,0.366,310.459
99434,134032,5203,-0.034,1.014,0.274,-0.061,0.244,0.366,310.462
99434,134119,7329,-0.041,1.005,0.289,-0.976,0,0.366,310.469
99422,134032,5203,-0.041,1.005,0.289,-0.976,0,0.366,310.472
99422,134093,7339,-0.045,1.009,0.298,-0.549,0.183,0.305,310.479
99354,134032,5203,-0.045,1.009,0.298,-0.549,0.183,0.305,310.482
99354,134045,7306,-0.045,1.031,0.287,0.732,0.427,0.427,310.488
99347,134032,5203,-0.045,1.031,0.287,0.732,0.427,0.427,310.492
99347,134048,7318,-0.048,1,0.288,0.244,0.61,-0.061,310.498
99315,134032,5203,-0.048,1,0.288,0.244,0.61,-0.061,310.502
99315,134035,7328,-0.048,1,0.275,-0.61,0.671,-0.122,310.508
99312,134032,5203,-0.048,1,0.275,-0.61,0.671,-0.122,310.512
99312,134051,7320,-0.045,1.008,0.266,-0.061,0.915,0.061,310.518
99323,134032,5203,-0.045,1.008,0.266,-0.061,0.915,0.061,310.522
99323,134034,7310,-0.044,1.001,0.257,0.244,0.732,0.305,310.528
99308,134032,5203,-0.044,1.001,0.257,0.244,0.732,0.305,310.532
99308,134006,7311,-0.035,1.001,0.263,-0.976,0.183,0.366,310.538
99295,134032,5203,-0.035,1.001,0.263,-0.976,0.183,0.366,310.542
99295,134035,7321,-0.042,1.018,0.276,-0.61,-0.122,0.549,310.548
99301,134032,5203,-0.042,1.018,0.276,-0.61,-0.122,0.549,310.552
99301,134021,7294,-0.034,1.007,0.292,-0.122,-0.183,0.915,310.558
99297,134032,5203,-0.034,1.007,0.292,-0.122,-0.183,0.915,310.561
99297,134004,7304,-0.046,1.006,0.306,-0.244,-0.061,0.732,310.568
99302,134032,5203,-0.046,1.006,0.306,-0.244,-0.061,0.732,310.571
99302,134036,7325,-0.046,1.023,0.308,0.732,0.305,0.732,310.578
99286,134032,5203,-0.046,1.023,0.308,0.732,0.305,0.732,310.581
99286,134045,7305,-0.047,1.013,0.298,0.488,0.793,0.427,310.587
99289,134032,5203,-0.047,1.013,0.298,0.488,0.793,0.427,310.591
99289,134041,7309,-0.049,0.991,0.273,-0.671,0.915,-0.061,310.597
99336,134032,5203,-0.049,0.991,0.273,-0.671,0.915,-0.061,310.601
99336,134073,7316,-0.05,0.991,0.258,-0.915,1.037,-0.061,310.607
99390,134032,5203,-0.047,0.996,0.254,-0.915,1.037,-0.061,310.611
99390,134119,7334,-0.042,0.999,0.25,-0.793,0.61,-0.061,310.617
99474,134288,5203,-0.038,1.002,0.249,-0.793,0.61,-0.061,310.621
99474,134159,7330,-0.041,1.012,0.256,-0.488,0.122,0.122,310.627
99492,134288,5203,-0.044,1.018,0.26,-0.488,0.122,0.122,310.631
99492,134180,7337,-0.041,1.02,0.27,-0.61,-0.122,0.976,310.637
99500,134288,5203,-0.035,1.013,0.278,-0.61,-0.122,0.976,310.641
99500,134188,7326,-0.039,1.006,0.279,-0.793,-0.122,1.22,310.647
99501,134288,5203,-0.044,1.017,0.282,-0.793,-0.122,1.22,310.651
99501,134175,7349,-0.046,1.023,0.29,0.122,0.122,1.159,310.657
99471,134288,5203,-0.046,1.021,0.299,0.122,0.122,1.159,310.66
99471,134184,7344,-0.043,1.016,0.294,0.305,0.183,0.915,310.667
99459,134288,5203,-0.042,1.01,0.293,0.305,0.183,0.915,310.67
99459,134170,7341,-0.048,1.008,0.284,0.122,0.427,0.488,310.676
99453,134288,5203,-0.051,1.015,0.266,0.122,0.427,0.488,310.68
99453,134171,7341,-0.048,1.029,0.263,0.122,0.427,0.122,310.686
99468,134288,5203,-0.039,1.021,0.254,0.122,0.427,0.122,310.69
99468,134191,7328,-0.038,1.006,0.265,-0.427,0.122,-0.671,310.696
99522,134288,5203,-0.038,1.003,0.275,-0.427,0.122,-0.671,310.7
99522,134201,7340,-0.042,1.009,0.28,-0.122,0.122,-0.61,310.706
99520,134288,5203,-0.042,1.018,0.285,-0.122,0.122,-0.61,310.71
99520,134226,7341,-0.039,1.023,0.281,0.549,0.122,-0.549,310.716
99521,134288,5203,-0.038,1.014,0.281,0.549,0.122,-0.549,310.72
99521,134238,7341,-0.041,0.999,0.281,0.427,0.183,-0.854,310.726
99531,134288,5203,-0.042,0.987,0.284,0.427,0.183,-0.854,310.73
99531,134198,7333,-0.044,0.99,0.293,0.366,0.305,-0.366,310.736
99492,134288,5203,-0.045,0.993,0.308,0.366,0.305,-0.366,310.74
99492,134191,7336,-0.046,0.993,0.311,0.61,0.671,0.61,310.746
99482,134288,5203,-0.043,0.992,0.304,0.61,0.671,0.61,310.749
99482,134197,7337,-0.047,0.997,0.304,0.305,0.976,0.976,310.756
99503,134288,5203,-0.049,1.002,0.308,0.305,0.976,0.976,310.759
99503,134203,7340,-0.046,1.006,0.308,-0.61,1.28,1.28,310.766
99530,134288,5203,-0.044,1.002,0.301,-0.61,1.28,1.28,310.769
99530,134219,7329,-0.044,0.997,0.288,-1.951,1.585,1.28,310.775
99521,134288,5203,-0.047,0.994,0.264,-1.951,1.585,1.28,310.779
99521,134229,7349,-0.05,1.005,0.249,-2.134,1.524,1.22,310.785
99556,134288,5203,-0.044,1.019,0.242,-2.134,1.524,1.22,310.789
99556,134228,7356,-0.038,1.02,0.235,-1.951,0.854,0.732,310.795
99551,134288,5203,-0.037,1.018,0.244,-1.951,0.854,0.732,310.799
99551,134265,7349,-0.039,1.027,0.242,-1.098,0.061,0.488,310.805
99561,134288,5203,-0.043,1.04,0.235,-1.098,0.061,0.488,310.809
99561,134256,7354,-0.039,1.054,0.239,0.122,-0.427,0.671,310.815
99565,134288,5203,-0.032,1.055,0.251,0.122,-0.427,0.671,310.819
99565,134253,7336,-0.037,1.032,0.261,-0.366,-0.915,-0.305,310.825
99569,134288,5203,-0.047,1.014,0.281,-0.366,-0.915,-0.305,310.829
99569,134230,7356,-0.05,1.009,0.292,0.305,-0.976,-0.488,310.835
99540,134288,5203,-0.051,1.014,0.296,0.305,-0.976,-0.488,310.839
99540,134229,7358,-0.049,1.011,0.306,1.341,-0.61,-0.549,310.845
99538,134288,5203,-0.05,1.012,0.319,1.341,-0.61,-0.549,310.848
99538,134241,7355,-0.051,1.007,0.321,1.098,-0.122,-0.61,310.855
99558,134288,5203,-0.052,1,0.311,1.098,-0.122,-0.61,310.858
99558,134236,7353,-0.052,1,0.3,0.244,0.366,-0.61,310.865
99581,134288,5203,-0.047,0.997,0.297,0.244,0.366,-0.61,310.868
99581,134266,7348,-0.045,0.994,0.293,-0.183,0.549,-0.671,310.874
99596,134288,5203,-0.047,0.989,0.282,-0.183,0.549,-0.671,310.878
99596,134264,7365,-0.048,0.982,0.274,-0.061,0.732,-0.305,310.884
99614,134288,5203,-0.043,0.989,0.267,-0.061,0.732,-0.305,310.888
99614,134305,7352,-0.043,0.992,0.255,0.61,0.854,0.061,310.894
99641,134288,5203,-0.045,1.002,0.252,0.61,0.854,0.061,310.898
99641,134295,7360,-0.045,1.013,0.253,0.61,0.427,0.244,310.904
99615,134288,5203,-0.04,1.015,0.273,0.61,0.427,0.244,310.908
99615,134275,7351,-0.036,1.013,0.289,-0.122,-0.061,0.549,310.914
99590,134288,5203,-0.043,1.007,0.301,-0.122,-0.061,0.549,310.918
99590,134261,7348,-0.043,1.009,0.299,-0.244,0.061,1.098,310.924
99548,134288,5203,-0.043,1.021,0.286,-0.244,0.061,1.098,310.928
99548,134248,7356,-0.042,1.024,0.283,0.122,0.305,0.488,310.934
99552,134288,5203,-0.042,1.022,0.286,0.122,0.305,0.488,310.938
99552,134245,7347,-0.043,1.011,0.29,-0.061,0.427,0.061,310.944
99546,134288,5203,-0.043,0.999,0.294,-0.061,0.427,0.061,310.947
99546,134231,7346,-0.048,0.99,0.289,-1.28,0.488,0.183,310.954
99574,134288,5203,-0.047,0.989,0.278,-1.28,0.488,0.183,310.957
99574,134228,7348,-0.045,0.994,0.27,-1.098,0.549,0.244,310.964
99564,134288,5203,-0.044,1.006,0.266,-1.098,0.549,0.244,310.967
99564,134235,7354,-0.046,1.009,0.266,-0.427,0.305,0,310.973
99548,134288,5203,-0.048,1.003,0.27,-0.427,0.305,0,310.977
99548,134233,7342,-0.049,0.998,0.268,-0.854,0.183,0.183,310.983
99556,134288,5203,-0.047,1.003,0.27,-0.854,0.183,0.183,310.987
99556,134231,7356,-0.042,1.019,0.279,-0.61,0,0.488,310.993
99566,134288,5203,-0.044,1.023,0.285,-0.61,0,0.488,310.997
99566,134236,7351,-0.047,1.023,0.292,-0.427,0.244,0.183,311.003
99564,134288,5203,-0.045,1.016,0.298,-0.427,0.244,0.183,311.007
99564,134217,7357,-0.046,1.005,0.293,-0.732,0.61,0.244,311.013
99525,134288,5203,-0.043,0.997,0.299,-0.732,0.61,0.244,311.017
99525,134181,7341,-0.042,1,0.3,-0.366,1.098,0.305,311.023
99510,134288,5203,-0.041,1.006,0.301,-0.366,1.098,0.305,311.027
99510,134221,7347,-0.045,1.011,0.298,1.037,1.585,0.549,311.033
99537,134288,5203,-0.047,1.02,0.286,1.037,1.585,0.549,311.037
99537,134195,7353,-0.046,1.01,0.264,0.61,1.646,0.427,311.043
99549,134288,5203,-0.046,1.01,0.264,0.61,1.646,0.427,311.046
99549,134224,7338,-0.042,0.999,0.263,-1.28,1.098,0.244,311.053
99580,134288,5203,-0.042,0.999,0.263,-1.28,1.098,0.244,311.056
99580,134257,7352,-0.043,0.977,0.253,-1.341,0.549,0.671,311.063
99612,134288,5203,-0.043,0.977,0.253,-1.341,0.549,0.671,311.066
99612,134271,7358,-0.034,1.023,0.273,0.122,0.122,0.915,311.072
99652,134288,5203,-0.034,1.023,0.273,0.122,0.122,0.915,311.076
99652,134292,7366,-0.039,1.024,0.292,0.244,0,0.793,311.082
99651,134288,5203,-0.039,1.024,0.292,0.244,0,0.793,311.086
99651,134328,7375,-0.042,1.027,0.3,-0.732,-0.122,0.976,311.092
99655,134288,5203,-0.042,1.027,0.3,-0.732,-0.122,0.976,311.096
99655,134314,7359,-0.046,1.01,0.294,-0.61,0.183,0.244,311.102
99612,134288,5203,-0.046,1.01,0.294,-0.61,0.183,0.244,311.106
99612,134283,7358,-0.047,1.013,0.274,0,0.549,-0.183,311.112
99583,134288,5203,-0.047,1.013,0.274,0,0.549,-0.183,311.116
99583,134237,7352,-0.052,1.005,0.271,0.244,0.793,-0.305,311.122
99575,134288,5203,-0.052,1.005,0.271,0.244,0.793,-0.305,311.126
99575,134241,7352,-0.048,1,0.259,0.122,0.549,-0.183,311.132
99577,134288,5203,-0.048,1,0.259,0.122,0.549,-0.183,311.136
99577,134253,7339,-0.047,1.009,0.263,0.122,0,-0.244,311.142
99591,134288,5203,-0.047,1.009,0.263,0.122,0,-0.244,311.145
99591,134259,7350,-0.041,1.004,0.276,-0.061,-0.183,0.061,311.152
99636,134288,5203,-0.041,1.004,0.276,-0.061,-0.183,0.061,311.155
99636,134274,7365,-0.038,1.012,0.296,-0.061,-0.122,0.427,311.162
99678,134288,5203,-0.038,1.012,0.296,-0.061,-0.122,0.427,311.165
99678,134320,7373,-0.039,1.008,0.305,0.305,0.305,0.549,311.171
99723,134288,5203,-0.039,1.008,0.305,0.305,0.305,0.549,311.175
99723,134359,7378,-0.04,1.015,0.296,0.122,0.671,0.488,311.181
99748,134288,5203,-0.04,1.015,0.296,0.122,0.671,0.488,311.185
99748,134372,7361,-0.043,1.012,0.298,0.122,0.671,0.488,311.191
99737,134288,5203,-0.048,1.006,0.293,-0.244,0.793,0.61,311.195
99737,134365,7380,-0.045,0.996,0.285,-0.244,0.793,0.61,311.201
99747,134288,5203,-0.047,0.991,0.273,-0.366,0.732,0.549,311.205
99747,134370,7373,-0.052,1,0.256,-0.366,0.732,0.549,311.211
99754,134288,5203,-0.052,1.013,0.254,0.244,0.488,0.488,311.215
99754,134387,7370,-0.05,1.02,0.251,0.244,0.488,0.488,311.221
99766,134544,5203,-0.043,1.018,0.251,0,0.061,0.244,311.225
99766,134407,7378,-0.041,1.014,0.258,0,0.061,0.244,311.231
99751,134288,5203,-0.045,1.016,0.264,0,-0.366,0.183,311.235
99751,134380,7377,-0.05,1.027,0.276,0,-0.366,0.183,311.241
99777,134288,5203,-0.044,1.034,0.283,0.244,-0.244,0.244,311.244
99777,134389,7357,-0.041,1.023,0.285,0.244,-0.244,0.244,311.251
99767,134544,5203,-0.045,1.012,0.292,-0.061,-0.183,-0.061,311.254
99767,134411,7378,-0.049,0.998,0.302,-0.061,-0.183,-0.061,311.26
99789,134288,5203,-0.046,0.995,0.305,0.183,0.061,-0.183,311.264
99789,134394,7360,-0.043,1.007,0.305,0.183,0.061,-0.183,311.27
99770,134288,5203,-0.043,1.014,0.3,0.732,0.61,-0.061,311.274
99770,134392,7362,-0.043,1.014,0.295,0.732,0.61,-0.061,311.28
99764,134288,5203,-0.047,1.008,0.285,-0.183,0.854,-0.061,311.284
99764,134392,7361,-0.05,0.99,0.275,-0.183,0.854,-0.061,311.29
99756,134288,5203,-0.049,0.975,0.266,-1.402,0.854,0.061,311.294
99756,134380,7355,-0.046,0.974,0.264,-1.402,0.854,0.061,311.3
99733,134288,5203,-0.045,0.989,0.256,-0.976,0.549,0.366,311.304
99733,134385,7382,-0.046,1.003,0.247,-0.976,0.549,0.366,311.31
99753,134544,5203,-0.045,1.021,0.251,0.427,0.061,0.915,311.314
99753,134405,7380,-0.037,1.026,0.262,0.427,0.061,0.915,311.32
99837,134544,5203,-0.037,1.017,0.266,-0.366,-0.366,1.098,311.324
99837,134460,7381,-0.041,1.008,0.275,-0.366,-0.366,1.098,311.33
99848,134544,5203,-0.037,1.02,0.279,-0.549,-0.427,1.28,311.334
99848,134499,7379,-0.039,1.033,0.285,-0.549,-0.427,1.28,311.34
99877,134544,5203,-0.04,1.031,0.295,-0.061,-0.305,0.732,311.343
99877,134498,7379,-0.048,1.016,0.307,-0.061,-0.305,0.732,311.35
99885,134544,5203,-0.045,1,0.319,-0.549,-0.122,0.183,311.353
99885,134491,7386,-0.043,1.001,0.312,-0.549,-0.122,0.183,311.359
99848,134544,5203,-0.048,1.013,0.301,-0.854,0.122,0,311.363
99848,134471,7394,-0.049,1.017,0.294,-0.854,0.122,0,311.369
99822,134544,5203,-0.047,1.005,0.289,-0.854,0.488,-0.244,311.373
99822,134467,7374,-0.049,0.984,0.287,-0.854,0.488,-0.244,311.379
99842,134544,5203,-0.053,0.969,0.271,-1.341,0.427,-0.183,311.383
99842,134473,7382,-0.059,0.968,0.249,-1.341,0.427,-0.183,311.389
99860,134544,5203,-0.055,0.993,0.243,0.061,0.427,0.183,311.393
99860,134447,7382,-0.044,1.019,0.247,0.061,0.427,0.183,311.399
99870,134544,5203,-0.042,1.028,0.252,0.61,-0.061,0.427,311.403
99870,134484,7393,-0.037,1.014,0.273,0.61,-0.061,0.427,311.409
99891,134544,5203,-0.034,1.01,0.284,0,-0.366,1.037,311.413
99891,134515,7379,-0.037,1.024,0.287,0,-0.366,1.037,311.419
99921,134544,5203,-0.041,1.036,0.287,-0.122,0.244,1.402,311.423
99921,134511,7393,-0.037,1.032,0.29,-0.122,0.244,1.402,311.429
99898,134544,5203,-0.037,1.018,0.295,-0.305,0.671,0.793,311.433
99898,134529,7381,-0.041,1.011,0.298,-0.305,0.671,0.793,311.439
99874,134544,5203,-0.042,1.004,0.297,0.244,0.976,0.549,311.442
99874,134509,7383,-0.044,1.008,0.295,0.244,0.976,0.549,311.449
99881,134544,5203,-0.042,1.017,0.294,1.037,1.22,0.183,311.452
99881,134496,7399,-0.045,1.014,0.289,1.037,1.22,0.183,311.459
99885,134544,5203,-0.048,1,0.275,0.793,1.28,-0.183,311.462
99885,134504,7394,-0.048,0.99,0.271,0.793,1.28,-0.183,311.468
99881,134544,5203,-0.044,0.986,0.281,-0.244,0.915,-0.61,311.472
99881,134514,7384,-0.046,0.975,0.287,-0.244,0.915,-0.61,311.478
99896,134544,5203,-0.047,0.981,0.29,0.183,0.549,-0.427,311.482
99896,134506,7390,-0.045,1.006,0.285,0.183,0.549,-0.427,311.488
99891,134544,5203,-0.046,1.023,0.281,0.732,0.61,0.488,311.492
99891,134530,7390,-0.044,1.022,0.276,0.732,0.61,0.488,311.498
99896,134544,5203,-0.041,1.007,0.277,-0.854,0.61,0.427,311.502
99896,134510,7395,-0.044,0.988,0.274,-0.854,0.61,0.427,311.508
99888,134544,5203,-0.044,0.981,0.271,-2.134,0.366,0.671,311.512
99888,134504,7393,-0.046,0.993,0.262,-2.134,0.366,0.671,311.518
99881,134544,5203,-0.05,1.019,0.265,-0.732,0.427,1.037,311.522
99881,134505,7409,-0.047,1.035,0.277,-0.732,0.427,1.037,311.528
99875,134544,5203,-0.039,1.032,0.278,-0.61,0.366,0.976,311.532
99875,134512,7389,-0.038,1.014,0.278,-0.61,0.366,0.976,311.538
99863,134544,5203,-0.047,1.008,0.281,-1.524,0.244,0.549,311.541
99863,134505,7390,-0.047,1.02,0.281,-1.524,0.244,0.549,311.548
99884,134544,5203,-0.045,1.031,0.285,-0.61,0.244,0.488,311.551
99884,134523,7409,-0.044,1.029,0.283,-0.61,0.244,0.488,311.557
99925,134544,5203,-0.038,1.015,0.28,-0.61,0.305,-0.183,311.561
99925,134554,7391,-0.041,1.002,0.281,-0.61,0.305,-0.183,311.567
99949,134544,5203,-0.043,0.989,0.282,-0.793,0.305,-0.244,311.571
99949,134549,7395,-0.045,0.99,0.285,-0.793,0.305,-0.244,311.577
99977,134544,5203,-0.046,0.996,0.278,0.244,0.366,0,311.581
99977,134580,7390,-0.044,1.005,0.269,0.244,0.366,0,311.587
99987,134544,5203,-0.045,1.015,0.268,0.976,0.366,0.549,311.591
99987,134592,7418,-0.045,1.011,0.275,0.976,0.366,0.549,311.597
99996,134544,5203,-0.043,0.999,0.27,-0.366,0.427,0.671,311.601
99996,134582,7389,-0.045,0.99,0.272,-0.366,0.427,0.671,311.607
99970,134544,5203,-0.045,0.998,0.276,-1.22,0.122,1.037,311.611
99970,134572,7406,-0.044,1.015,0.283,-1.22,0.122,1.037,311.617
99956,134544,5203,-0.041,1.024,0.292,-0.244,0.244,1.098,311.621
99956,134567,7406,-0.041,1.023,0.297,-0.244,0.244,1.098,311.627
99931,134544,5203,-0.041,1.023,0.297,-0.244,0.244,1.098,311.63
99931,134561,7393,-0.042,1.015,0.303,0,0.366,0.732,311.637
99943,134544,5203,-0.042,1.015,0.303,0,0.366,0.732,311.64
99943,134574,7418,-0.044,1.012,0.297,-0.305,0.488,0.305,311.647
99992,134544,5203,-0.044,1.012,0.297,-0.305,0.488,0.305,311.65
99992,134614,7399,-0.046,1.013,0.293,0.122,0.793,-0.122,311.656
100020,134544,5203,-0.046,1.013,0.293,0.122,0.793,-0.122,311.66
100020,134605,7407,-0.045,0.993,0.281,0.061,0.915,-0.366,311.666
100042,134544,5203,-0.045,0.993,0.281,0.061,0.915,-0.366,311.67
100042,134622,7410,-0.049,0.974,0.262,-0.549,0.915,-0.305,311.676
100042,134544,5203,-0.049,0.974,0.262,-0.549,0.915,-0.305,311.68
100042,134638,7416,-0.048,0.998,0.245,-0.244,0.61,0.244,311.686
100021,134544,5203,-0.048,0.998,0.245,-0.244,0.61,0.244,311.69
100021,134622,7401,-0.044,1.003,0.265,0.122,0.061,0.793,311.696
100027,134544,5203,-0.044,1.003,0.265,0.122,0.061,0.793,311.7
100027,134613,7402,-0.045,1.022,0.286,0.183,0,1.159,311.706
100032,134544,5203,-0.045,1.022,0.286,0.183,0,1.159,311.71
100032,134612,7416,-0.045,1.034,0.295,0.061,0.061,1.463,311.716
100040,134544,5203,-0.045,1.034,0.295,0.061,0.061,1.463,311.72
100040,134622,7409,-0.043,1.015,0.307,-0.427,0.244,1.098,311.726
100034,134544,5203,-0.043,1.015,0.307,-0.427,0.244,1.098,311.729
100034,134638,7416,-0.046,1.017,0.301,-0.793,0.427,0.671,311.736
100064,134544,5203,-0.046,1.017,0.301,-0.793,0.427,0.671,311.739
100064,134653,7401,-0.039,1.012,0.277,-0.427,0.793,0.061,311.746
100044,134544,5203,-0.039,1.012,0.277,-0.427,0.793,0.061,311.749
100044,134643,7419,-0.049,0.987,0.248,-0.122,0.671,-0.427,311.755
100043,134544,5203,-0.049,0.987,0.248,-0.122,0.671,-0.427,311.759
100043,134648,7408,-0.037,1,0.259,0.366,0.244,-0.61,311.765
100072,134544,5203,-0.037,1,0.259,0.366,0.244,-0.61,311.769
100072,134647,7430,-0.036,1.004,0.271,0.915,-0.183,-0.427,311.775
100099,134800,5203,-0.041,1.009,0.28,0.915,-0.183,-0.427,311.779
100099,134660,7422,-0.04,1.015,0.278,1.037,-0.183,0.183,311.785
100102,134800,5203,-0.041,1.018,0.281,1.037,-0.183,0.183,311.789
100102,134679,7419,-0.041,1.012,0.281,-0.244,-0.061,0.488,311.795
100125,134800,5203,-0.046,1.002,0.283,-0.244,-0.061,0.488,311.799
100125,134684,7426,-0.046,0.998,0.294,-0.854,0.305,0.732,311.805
100113,134800,5203,-0.047,0.997,0.3,-0.854,0.305,0.732,311.809
100113,134673,7426,-0.045,1.003,0.302,-0.427,0.488,1.098,311.815
100094,134800,5203,-0.043,1.012,0.302,-0.427,0.488,1.098,311.819
100094,134660,7434,-0.045,1.017,0.296,0.122,0.732,1.098,311.825
100124,134800,5203,-0.043,1.012,0.294,0.122,0.732,1.098,311.828
100124,134711,7426,-0.043,1.013,0.288,-0.366,0.915,0.915,311.835
100148,134800,5203,-0.043,1.01,0.284,-0.366,0.915,0.915,311.838
100148,134710,7423,-0.045,1.007,0.275,-0.305,0.976,0.549,311.845
100169,134800,5203,-0.047,1.009,0.26,-0.305,0.976,0.549,311.848
100169,134707,7441,-0.044,1.013,0.259,0.305,0.793,0.244,311.854
100167,134800,5203,-0.039,1.014,0.264,0.305,0.793,0.244,311.858
100167,134712,7434,-0.041,1.01,0.267,0.488,0.488,-0.244,311.864
100172,134800,5203,-0.043,1.007,0.269,0.488,0.488,-0.244,311.868
100172,134738,7436,-0.04,1.015,0.27,1.402,0.244,-0.183,311.874
100147,134800,5203,-0.042,1.017,0.271,1.402,0.244,-0.183,311.878
100147,134707,7428,-0.045,1.016,0.272,1.402,0.305,-0.183,311.884
100138,134800,5203,-0.048,1.01,0.273,1.402,0.305,-0.183,311.888
100138,134713,7418,-0.045,1.002,0.286,1.037,0.305,0,311.894
100107,134800,5203,-0.048,0.995,0.292,1.037,0.305,0,311.898
100107,134672,7421,-0.049,0.997,0.293,0.671,0.305,0.549,311.904
100079,134800,5203,-0.049,1.003,0.288,0.671,0.305,0.549,311.908
100079,134658,7422,-0.051,1.008,0.283,0.854,0.61,0.671,311.914
100104,134800,5203,-0.049,1.015,0.285,0.854,0.61,0.671,311.918
100104,134686,7421,-0.045,1.009,0.286,0.549,0.671,0.854,311.924
100113,134800,5203,-0.046,1.001,0.287,0.549,0.671,0.854,311.927
100113,134680,7419,-0.046,1.006,0.284,-0.183,0.671,0.732,311.934
100147,134800,5203,-0.045,1.014,0.289,-0.183,0.671,0.732,311.937
100147,134692,7419,-0.043,1.015,0.286,-0.061,0.732,0.854,311.944
100151,134800,5203,-0.048,1.013,0.274,-0.061,0.732,0.854,311.947
100151,134706,7435,-0.045,1.005,0.269,-0.305,0.732,0.732,311.953
100164,134800,5203,-0.037,1.004,0.274,-0.305,0.732,0.732,311.957
100164,134708,7423,-0.036,1.01,0.272,-0.061,0.488,0.366,311.963
100159,134800,5203,-0.04,1.014,0.273,-0.061,0.488,0.366,311.967
100159,134705,7440,-0.043,1.014,0.278,0.549,0.427,0.061,311.973
100125,134800,5203,-0.04,1.01,0.276,0.549,0.427,0.061,311.977
100125,134698,7432,-0.04,1.006,0.274,0.183,0.183,0.061,311.983
100117,134800,5203,-0.037,1.011,0.276,0.183,0.183,0.061,311.987
100117,134685,7416,-0.042,1.015,0.281,0,0.183,0.122,311.993
100097,134800,5203,-0.048,1.011,0.287,0,0.183,0.122,311.997
100097,134672,7427,-0.047,1.004,0.289,-0.427,0.366,0.305,312.003
100071,134544,5203,-0.048,0.999,0.29,-0.427,0.366,0.305,312.007
100071,134623,7429,-0.047,1.004,0.296,-0.854,0.549,0.427,312.013
100059,134544,5203,-0.048,1.008,0.299,-0.854,0.549,0.427,312.017
100059,134645,7419,-0.048,1.006,0.298,-0.61,0.732,0.488,312.023
100088,134800,5203,-0.048,1.002,0.291,-0.61,0.732,0.488,312.026
100088,134668,7419,-0.048,1.001,0.284,-0.244,0.854,0.549,312.033
100121,134800,5203,-0.044,1.004,0.277,-0.244,0.854,0.549,312.036
100121,134696,7425,-0.045,1.008,0.277,0.488,0.976,0.488,312.043
100107,134800,5203,-0.047,1.009,0.277,0.488,0.976,0.488,312.046
100107,134686,7424,-0.046,1.009,0.272,0.854,0.976,0.61,312.052
100093,134800,5203,-0.047,1.01,0.261,0.854,0.976,0.61,312.056
100093,134677,7430,-0.044,1.008,0.248,-0.122,0.671,0.366,312.062
100102,134800,5203,-0.041,1.008,0.245,-0.122,0.671,0.366,312.066
100102,134692,7416,-0.039,1.019,0.255,-0.61,0.122,0.366,312.072
100119,134800,5203,-0.03,1.017,0.264,-0.61,0.122,0.366,312.076
100119,134713,7427,-0.031,1.018,0.28,-0.122,-0.244,0.305,312.082
100123,134800,5203,-0.042,1.024,0.283,-0.122,-0.244,0.305,312.086
100123,134709,7420,-0.043,1.031,0.289,0.61,-0.244,0.244,312.092
100173,134800,5203,-0.042,1.022,0.295,0.61,-0.244,0.244,312.096
100173,134706,7447,-0.044,1.005,0.302,-0.366,-0.244,-0.061,312.102
100160,134800,5203,-0.048,0.996,0.302,-0.366,-0.244,-0.061,312.106
100160,134733,7446,-0.05,0.988,0.299,-0.549,0.061,-0.122,312.112
100163,134800,5203,-0.051,0.99,0.297,-0.549,0.061,-0.122,312.116
100163,134735,7435,-0.052,0.999,0.296,0.366,0.427,0.061,312.122
100197,134800,5203,-0.05,0.999,0.29,0.366,0.427,0.061,312.125
100197,134766,7427,-0.051,1.003,0.28,0.488,0.549,0.305,312.132
100216,134800,5203,-0.049,1.003,0.27,0.488,0.549,0.305,312.135
100216,134761,7432,-0.052,0.991,0.263,-0.549,0.61,0.427,312.142
100207,134800,5203,-0.051,0.989,0.252,-0.549,0.61,0.427,312.145
100207,134760,7451,-0.047,1.007,0.252,-0.915,0.244,0.854,312.151
100223,134800,5203,-0.039,1.023,0.254,-0.915,0.244,0.854,312.155
100223,134792,7425,-0.034,1.026,0.266,-0.793,-0.122,0.915,312.161
100243,134800,5203,-0.041,1.025,0.272,-0.793,-0.122,0.915,312.165
100243,134775,7454,-0.035,1.025,0.272,-0.366,-0.305,1.28,312.171
100263,134800,5203,-0.032,1.032,0.273,-0.366,-0.305,1.28,312.175
100263,134787,7443,-0.034,1.031,0.28,-0.305,-0.183,0.732,312.181
100306,134800,5203,-0.039,1.025,0.296,-0.305,-0.183,0.732,312.185
100306,134797,7447,-0.039,1.016,0.307,0.122,0.183,0.305,312.191
100293,134800,5203,-0.04,1.006,0.303,0.122,0.183,0.305,312.195
100293,134850,7456,-0.041,1.007,0.296,0.305,0.61,-0.061,312.201
100338,134800,5203,-0.041,1.007,0.296,0.305,0.61,-0.061,312.205
100338,134849,7450,-0.049,1.006,0.291,0.61,1.098,-0.427,312.211
100346,134800,5203,-0.049,1.006,0.291,0.61,1.098,-0.427,312.215
100346,134845,7453,-0.051,0.99,0.281,0.488,1.098,-0.366,312.221
100348,134800,5203,-0.051,0.99,0.281,0.488,1.098,-0.366,312.224
100348,134870,7467,-0.054,0.981,0.259,0.061,0.915,-0.183,312.231
100367,134800,5203,-0.054,0.981,0.259,0.061,0.915,-0.183,312.234
100367,134883,7469,-0.045,1.008,0.256,-0.183,0.488,0.061,312.241
100381,134800,5203,-0.045,1.008,0.256,-0.183,0.488,0.061,312.244
100381,134893,7471,-0.043,0.991,0.272,-1.037,-0.122,0.305,312.25
100394,134800,5203,-0.043,0.991,0.272,-1.037,-0.122,0.305,312.254
100394,134893,7459,-0.039,1.014,0.286,-0.488,-0.366,1.098,312.26
100417,135056,5203,-0.039,1.014,0.286,-0.488,-0.366,1.098,312.264
100417,134914,7468,-0.038,1.033,0.299,0.244,0.061,0.915,312.27
100428,135056,5203,-0.038,1.033,0.299,0.244,0.061,0.915,312.274
100428,134937,7476,-0.038,1.021,0.302,-0.488,0.244,0.61,312.28
100453,135056,5203,-0.038,1.021,0.302,-0.488,0.244,0.61,312.284
100453,134948,7478,-0.041,1.011,0.29,-0.915,0.549,0.183,312.29
100450,135056,5203,-0.041,1.011,0.29,-0.915,0.549,0.183,312.294
100450,134947,7483,-0.047,1.008,0.277,-0.244,0.793,0.122,312.3
