105795,137674,8362,-0.046,1.009,0.309,0,0.549,0.793,68.732
105782,137616,5203,-0.044,1.004,0.309,0,0.549,0.793,68.735
105782,137640,8374,-0.044,0.998,0.311,-0.61,0.427,0.549,68.741
105769,137616,5203,-0.047,0.998,0.311,-0.61,0.427,0.549,68.745
105769,137684,8371,-0.045,1.005,0.311,-0.61,0.488,0.427,68.751
105795,137616,5203,-0.044,1.004,0.313,-0.61,0.488,0.427,68.755
105795,137698,8364,-0.045,1.005,0.315,-0.427,0.549,0.488,68.761
105802,137616,5203,-0.042,1.001,0.315,-0.427,0.549,0.488,68.765
105802,137678,8383,-0.043,1.001,0.314,-0.366,0.488,0.488,68.771
105819,137616,5203,-0.045,0.997,0.308,-0.366,0.488,0.488,68.775
105819,137689,8372,-0.044,0.995,0.308,-0.427,0.366,0.366,68.781
105801,137616,5203,-0.048,0.996,0.312,-0.427,0.366,0.366,68.785
105801,137684,8376,-0.048,0.996,0.31,-0.183,0.183,0.366,68.791
105832,137616,5203,-0.048,0.996,0.31,-0.183,0.183,0.366,68.795
105832,137686,8357,-0.051,0.995,0.311,-0.122,0.183,0.427,68.801
105823,137616,5203,-0.051,0.995,0.311,-0.122,0.183,0.427,68.805
105823,137703,8393,-0.047,1.001,0.311,0,0.122,0.427,68.811
105836,137616,5203,-0.047,1.001,0.311,0,0.122,0.427,68.815
105836,137702,8369,-0.049,0.997,0.309,0.122,0,0.427,68.821
105842,137616,5203,-0.049,0.997,0.309,0.122,0,0.427,68.824
105842,137691,8365,-0.048,1.004,0.311,0.122,0.122,0.427,68.831
105812,137616,5203,-0.048,1.004,0.311,0.122,0.122,0.427,68.834
105812,137699,8376,-0.046,1.006,0.316,0.061,0.183,0.183,68.84
105839,137616,5203,-0.046,1.006,0.316,0.061,0.183,0.183,68.844
105839,137704,8378,-0.046,0.993,0.319,-0.061,0.305,0.366,68.85
105827,137616,5203,-0.046,0.993,0.319,-0.061,0.305,0.366,68.854
105827,137709,8385,-0.044,1,0.309,-0.244,0.427,0.427,68.86
105831,137616,5203,-0.044,1,0.309,-0.244,0.427,0.427,68.864
105831,137701,8380,-0.045,1.001,0.311,-0.305,0.488,0.366,68.87
105859,137616,5203,-0.045,1.001,0.311,-0.305,0.488,0.366,68.874
105859,137705,8357,-0.043,1,0.316,-0.427,0.488,0.305,68.88
105856,137616,5203,-0.043,1,0.316,-0.427,0.488,0.305,68.884
105856,137711,8379,-0.046,0.996,0.316,-0.366,0.488,0.366,68.89
105842,137616,5203,-0.046,0.996,0.316,-0.366,0.488,0.366,68.894
105842,137701,8376,-0.043,0.998,0.318,-0.244,0.61,0.488,68.9
105839,137616,5203,-0.043,0.998,0.318,-0.244,0.61,0.488,68.904
105839,137714,8374,-0.043,0.998,0.317,-0.305,0.732,0.427,68.91
105854,137616,5203,-0.043,0.998,0.317,-0.305,0.732,0.427,68.913
105854,137707,8382,-0.043,0.994,0.314,-0.061,0.549,0.366,68.92
105844,137616,5203,-0.043,0.994,0.314,-0.061,0.549,0.366,68.923
105844,137716,8397,-0.048,0.999,0.313,0.244,0.549,0.549,68.93
105857,137872,5203,-0.048,0.999,0.313,0.244,0.549,0.549,68.933
105857,137731,8383,-0.048,0.999,0.308,0.244,0.549,0.549,68.939
105880,137616,5203,-0.046,0.999,0.31,0.122,0.366,0.427,68.943
105880,137707,8387,-0.045,0.999,0.318,0.122,0.366,0.427,68.949
105860,137616,5203,-0.042,0.998,0.315,-0.732,0.427,0.305,68.953
105860,137709,8371,-0.047,0.998,0.311,-0.732,0.427,0.305,68.959
105862,137616,5203,-0.05,0.996,0.314,-0.976,0.488,0.427,68.963
105862,137690,8387,-0.046,0.994,0.312,-0.976,0.488,0.427,68.969
105843,137616,5203,-0.047,0.999,0.312,-0.488,0.427,0.549,68.973
105843,137685,8385,-0.046,1.003,0.312,-0.488,0.427,0.549,68.979
105846,137616,5203,-0.045,1.006,0.313,-0.244,0.488,0.427,68.983
105846,137692,8390,-0.044,1.005,0.313,-0.244,0.488,0.427,68.989
105861,137616,5203,-0.045,1.004,0.312,-0.244,0.427,0.488,68.993
105861,137688,8371,-0.045,1.002,0.308,-0.244,0.427,0.488,68.999
105837,137616,5203,-0.046,0.999,0.308,-0.61,0.305,0.488,69.003
105837,137713,8386,-0.044,1.002,0.309,-0.61,0.305,0.488,69.009
105857,137616,5203,-0.044,1.005,0.308,-0.549,0.427,0.366,69.012
105857,137689,8359,-0.043,1.007,0.311,-0.549,0.427,0.366,69.019
105854,137616,5203,-0.044,1.003,0.31,-0.244,0.488,0.366,69.022
105854,137680,8379,-0.043,1,0.313,-0.244,0.488,0.366,69.029
105821,137616,5203,-0.045,0.998,0.311,-0.427,0.427,0.488,69.032
105821,137695,8381,-0.045,1.001,0.312,-0.427,0.427,0.488,69.038
105845,137616,5203,-0.044,1.001,0.312,-0.671,0.366,0.427,69.042
105845,137696,8391,-0.043,1.004,0.307,-0.671,0.366,0.427,69.048
105824,137616,5203,-0.044,1,0.312,-0.488,0.305,0.427,69.052
105824,137688,8369,-0.048,0.998,0.314,-0.488,0.305,0.427,69.058
105843,137616,5203,-0.049,0.998,0.313,-0.671,0.244,0.305,69.062
105843,137681,8382,-0.048,0.994,0.315,-0.671,0.244,0.305,69.068
105833,137616,5203,-0.046,0.994,0.317,-0.61,0.122,0.122,69.072
105833,137669,8369,-0.048,0.993,0.315,-0.61,0.122,0.122,69.078
105843,137616,5203,-0.051,0.99,0.313,0.122,0.244,0.427,69.082
105843,137714,8371,-0.049,0.999,0.314,0.122,0.244,0.427,69.088
105836,137616,5203,-0.051,1.006,0.313,0.122,0.244,0.488,69.092
105836,137682,8366,-0.045,1.006,0.317,0.122,0.244,0.488,69.098
105852,137616,5203,-0.042,1.002,0.318,-0.366,0.122,0.244,69.102
105852,137694,8386,-0.043,0.999,0.315,-0.366,0.122,0.244,69.108
105825,137616,5203,-0.047,0.996,0.311,-1.037,0.122,0.305,69.111
105825,137675,8374,-0.047,0.99,0.313,-1.037,0.122,0.305,69.118
105832,137616,5203,-0.046,0.992,0.315,-0.732,0.183,0.305,69.121
105832,137682,8371,-0.046,0.999,0.316,-0.732,0.183,0.305,69.127
105820,137616,5203,-0.046,1.004,0.313,-0.122,0.366,0.427,69.131
105820,137694,8376,-0.042,1.005,0.315,-0.122,0.366,0.427,69.137
105816,137616,5203,-0.046,1.003,0.313,0.183,0.488,0.488,69.141
105816,137673,8376,-0.049,0.999,0.317,0.183,0.488,0.488,69.147
105798,137616,5203,-0.045,0.998,0.317,-0.427,0.488,0.549,69.151
105798,137654,8377,-0.045,0.994,0.315,-0.427,0.488,0.549,69.157
105788,137616,5203,-0.043,0.996,0.314,-0.671,0.427,0.366,69.161
105788,137645,8359,-0.041,0.999,0.315,-0.671,0.427,0.366,69.167
105776,137616,5203,-0.044,0.997,0.312,-0.122,0.488,0.305,69.171
105776,137625,8372,-0.045,0.998,0.311,-0.122,0.488,0.305,69.177
105759,137616,5203,-0.045,1,0.312,0.366,0.366,0.305,69.181
105759,137617,8378,-0.045,0.996,0.316,0.366,0.366,0.305,69.187
105757,137616,5203,-0.046,0.999,0.314,0.244,0.427,0.244,69.191
105757,137604,8361,-0.045,1.002,0.311,0.244,0.427,0.244,69.197
105733,137616,5203,-0.043,0.998,0.316,-0.122,0.305,0.244,69.201
105733,137602,8371,-0.045,0.999,0.316,-0.122,0.305,0.244,69.207
105745,137616,5203,-0.047,1.001,0.311,-0.366,0.427,0.305,69.21
105745,137591,8364,-0.045,1.004,0.309,-0.366,0.427,0.305,69.217
105731,137616,5203,-0.047,1.001,0.307,-0.61,0.427,0.305,69.22
105731,137607,8366,-0.049,0.997,0.312,-0.61,0.427,0.305,69.226
105725,137616,5203,-0.048,0.993,0.312,-0.366,0.427,0.366,69.23
105725,137597,8362,-0.047,0.995,0.309,-0.366,0.427,0.366,69.236
105711,137616,5203,-0.05,0.999,0.308,-0.366,0.366,0.488,69.24
105711,137591,8367,-0.046,1.001,0.312,-0.366,0.366,0.488,69.246
105718,137616,5203,-0.046,0.999,0.312,-0.305,0.366,0.488,69.25
105718,137611,8355,-0.047,0.999,0.311,-0.305,0.366,0.488,69.256
105733,137616,5203,-0.048,0.996,0.311,-0.427,0.305,0.488,69.26
105733,137596,8383,-0.048,0.994,0.313,-0.427,0.305,0.488,69.266
105724,137616,5203,-0.045,0.995,0.312,0,0.183,0.244,69.27
105724,137599,8376,-0.045,1,0.311,0,0.183,0.244,69.276
105750,137616,5203,-0.043,1.001,0.317,0.305,0.183,0.244,69.28
105750,137620,8359,-0.045,1.005,0.319,0.305,0.183,0.244,69.286
105746,137616,5203,-0.042,1.002,0.317,0.061,0.244,0.427,69.29
105746,137602,8364,-0.042,1.003,0.317,0.061,0.244,0.427,69.296
105741,137616,5203,-0.046,1.001,0.316,-0.488,0.366,0.427,69.299
105741,137623,8360,-0.046,0.996,0.318,-0.488,0.366,0.427,69.306
105751,137616,5203,-0.048,0.994,0.313,-0.366,0.305,0.427,69.309
105751,137613,8356,-0.048,0.999,0.31,-0.366,0.305,0.427,69.316
105728,137616,5203,-0.044,1.002,0.313,-0.122,0.366,0.305,69.319
105728,137611,8357,-0.044,1.003,0.317,-0.122,0.366,0.305,69.325
105741,137616,5203,-0.044,1.001,0.313,-0.183,0.427,0.305,69.329
105741,137622,8370,-0.046,0.999,0.317,-0.183,0.427,0.305,69.335
105769,137616,5203,-0.045,0.997,0.316,-0.793,0.305,0.305,69.339
105769,137605,8369,-0.047,0.993,0.311,-0.793,0.305,0.305,69.345
105739,137616,5203,-0.048,0.992,0.313,-0.854,0.244,0.305,69.349
105739,137607,8360,-0.047,0.993,0.311,-0.854,0.244,0.305,69.355
105751,137616,5203,-0.048,0.998,0.31,-0.305,0.366,0.305,69.359
105751,137608,8371,-0.045,1.002,0.315,-0.305,0.366,0.305,69.365
105716,137616,5203,-0.045,1.002,0.315,-0.305,0.366,0.305,69.369
105716,137608,8355,-0.044,1,0.313,0.183,0.366,0.366,69.375
105731,137616,5203,-0.044,1,0.313,0.183,0.366,0.366,69.379
105731,137601,8349,-0.049,1.004,0.311,0.122,0.366,0.427,69.385
105727,137616,5203,-0.049,1.004,0.311,0.122,0.366,0.427,69.389
105727,137618,8358,-0.048,1.002,0.316,-0.122,0.427,0.366,69.395
105737,137616,5203,-0.048,1.002,0.316,-0.122,0.427,0.366,69.398
105737,137609,8365,-0.045,1,0.319,-0.244,0.427,0.549,69.405
105728,137616,5203,-0.045,1,0.319,-0.244,0.427,0.549,69.408
105728,137605,8361,-0.048,0.999,0.311,-0.061,0.366,0.427,69.415
105730,137616,5203,-0.048,0.999,0.311,-0.061,0.366,0.427,69.418
105730,137594,8362,-0.045,0.999,0.31,-0.122,0,0.244,69.424
105732,137616,5203,-0.045,0.999,0.31,-0.122,0,0.244,69.428
105732,137596,8367,-0.046,0.996,0.308,-0.305,-0.061,0.366,69.434
105725,137616,5203,-0.046,0.996,0.308,-0.305,-0.061,0.366,69.438
105725,137582,8357,-0.042,1.006,0.309,-0.61,-0.183,0.305,69.444
105726,137616,5203,-0.042,1.006,0.309,-0.61,-0.183,0.305,69.448
105726,137593,8365,-0.044,0.998,0.314,-0.549,-0.305,0.183,69.454
105721,137616,5203,-0.044,0.998,0.314,-0.549,-0.305,0.183,69.458
105721,137590,8356,-0.044,0.992,0.316,-0.183,-0.122,0.244,69.464
105694,137616,5203,-0.044,0.992,0.316,-0.183,-0.122,0.244,69.468
105694,137576,8353,-0.046,1,0.315,0.122,-0.122,0.427,69.474
105697,137616,5203,-0.046,1,0.315,0.122,-0.122,0.427,69.478
105697,137576,8356,-0.047,1.005,0.317,0.122,-0.183,0.61,69.484
105691,137616,5203,-0.047,1.005,0.317,0.122,-0.183,0.61,69.488
105691,137581,8352,-0.048,0.993,0.314,-0.366,0,0.488,69.494
105685,137616,5203,-0.048,0.993,0.314,-0.366,0,0.488,69.497
105685,137579,8357,-0.047,0.992,0.314,-0.549,0.183,0.488,69.504
105693,137616,5203,-0.047,0.992,0.314,-0.549,0.183,0.488,69.507
105693,137578,8367,-0.045,0.997,0.315,-0.061,0.183,0.61,69.514
105717,137616,5203,-0.047,0.998,0.319,-0.061,0.183,0.61,69.517
105717,137581,8353,-0.047,1.002,0.318,0.366,0.427,0.61,69.523
105698,137616,5203,-0.043,1.005,0.312,0.366,0.427,0.61,69.527
105698,137574,8358,-0.045,1.001,0.314,0,0.549,0.549,69.533
105702,137616,5203,-0.049,0.999,0.313,0,0.549,0.549,69.537
105702,137593,8359,-0.046,1.001,0.314,-0.549,0.488,0.427,69.543
105724,137616,5203,-0.044,1.001,0.311,-0.549,0.488,0.427,69.547
105724,137586,8381,-0.043,0.997,0.311,-0.915,0.549,0.366,69.553
105708,137616,5203,-0.041,0.995,0.312,-0.915,0.549,0.366,69.557
105708,137566,8359,-0.045,0.995,0.31,-0.854,0.488,0.305,69.563
105718,137616,5203,-0.046,0.995,0.308,-0.854,0.488,0.305,69.567
105718,137584,8343,-0.047,0.995,0.307,-0.427,0.488,0.244,69.573
105706,137616,5203,-0.047,0.996,0.317,-0.427,0.488,0.244,69.577
105706,137547,8356,-0.045,0.995,0.313,0.061,0.488,0.427,69.583
105704,137616,5203,-0.047,0.998,0.317,0.061,0.488,0.427,69.587
105704,137581,8341,-0.051,1.002,0.316,0.305,0.488,0.488,69.593
105720,137616,5203,-0.049,1.004,0.316,0.305,0.488,0.488,69.596
105720,137564,8349,-0.045,1.002,0.319,0.305,0.549,0.305,69.603
105710,137616,5203,-0.046,1,0.32,0.305,0.549,0.305,69.606
105710,137570,8359,-0.046,0.997,0.318,0,0.61,0.183,69.613
105696,137616,5203,-0.043,0.995,0.316,0,0.61,0.183,69.616
105696,137564,8368,-0.043,0.992,0.316,-0.122,0.488,0.305,69.622
105694,137616,5203,-0.04,0.999,0.311,-0.122,0.488,0.305,69.626
105694,137579,8363,-0.04,1.005,0.313,0.305,0.488,0.488,69.632
105702,137616,5203,-0.04,1.007,0.309,0.305,0.488,0.488,69.636
105702,137562,8353,-0.045,1.008,0.309,0.061,0.488,0.488,69.642
105692,137616,5203,-0.047,1.004,0.311,0.061,0.488,0.488,69.646
105692,137576,8338,-0.042,0.998,0.309,-0.793,0.488,0.488,69.652
105686,137616,5203,-0.043,0.994,0.308,-0.793,0.488,0.488,69.656
105686,137584,8361,-0.043,0.999,0.309,-0.793,0.61,0.488,69.662
105700,137616,5203,-0.045,1,0.308,-0.793,0.61,0.488,69.666
105700,137551,8359,-0.048,1.004,0.31,0.061,0.732,0.61,69.672
105704,137616,5203,-0.046,1.007,0.307,0.061,0.732,0.61,69.676
105704,137562,8353,-0.049,1.007,0.313,0,0.61,0.549,69.682
105706,137616,5203,-0.047,1,0.313,0,0.61,0.549,69.686
105706,137563,8358,-0.048,0.993,0.314,-0.488,0.488,0.244,69.692
105704,137616,5203,-0.049,0.991,0.319,-0.488,0.488,0.244,69.695
105704,137583,8354,-0.045,0.987,0.317,-0.183,0.244,0.244,69.702
105713,137616,5203,-0.044,0.995,0.316,-0.183,0.244,0.244,69.705
105713,137601,8370,-0.043,1,0.316,0.366,0.366,0.305,69.711
105762,137616,5203,-0.044,1.001,0.312,0.366,0.366,0.305,69.715
105762,137590,8360,-0.045,1.002,0.311,0.244,0.305,0.305,69.721
105769,137616,5203,-0.042,1.001,0.311,0.244,0.305,0.305,69.725
105769,137633,8363,-0.044,1,0.317,-0.305,0.366,0.244,69.731
105768,137616,5203,-0.044,1,0.318,-0.305,0.366,0.244,69.735
105768,137622,8363,-0.043,1,0.32,-0.549,0.488,0.244,69.741
105782,137616,5203,-0.042,0.998,0.325,-0.549,0.488,0.244,69.745
105782,137638,8377,-0.043,0.997,0.32,-0.549,0.427,0.183,69.751
105804,137616,5203,-0.043,0.994,0.317,-0.549,0.427,0.183,69.755
105804,137639,8378,-0.046,0.992,0.314,-0.122,0.488,0.122,69.761
105801,137616,5203,-0.044,0.998,0.312,-0.122,0.488,0.122,69.765
105801,137645,8372,-0.043,1,0.312,0.183,0.488,0.305,69.771
105798,137616,5203,-0.045,0.999,0.314,0.183,0.488,0.305,69.775
105798,137639,8367,-0.042,1.001,0.316,0,0.61,0.427,69.781
105815,137616,5203,-0.042,1.003,0.315,0,0.61,0.427,69.784
105815,137626,8371,-0.043,1.001,0.318,-0.732,0.793,0.61,69.791
105818,137616,5203,-0.044,0.995,0.312,-0.732,0.793,0.61,69.794
105818,137624,8389,-0.043,0.995,0.312,-0.793,0.671,0.549,69.801
105792,137616,5203,-0.045,1,0.309,-0.793,0.671,0.549,69.804
105792,137628,8378,-0.046,1.001,0.309,-0.244,0.732,0.671,69.81
105789,137616,5203,-0.047,1.005,0.311,-0.244,0.732,0.671,69.814
105789,137613,8381,-0.048,1.001,0.307,-0.183,0.793,0.488,69.82
105800,137616,5203,-0.046,1.003,0.308,-0.183,0.793,0.488,69.824
105800,137641,8370,-0.049,1.001,0.308,-0.244,0.61,0.305,69.83
105798,137616,5203,-0.048,0.997,0.308,-0.244,0.61,0.305,69.834
105798,137600,8373,-0.047,0.997,0.309,0.061,0.549,0.305,69.84
105798,137616,5203,-0.047,0.996,0.308,0.061,0.549,0.305,69.844
105798,137634,8360,-0.046,0.994,0.317,0.244,0.427,0.366,69.85
105771,137616,5203,-0.053,1.013,0.317,0.244,0.427,0.366,69.854
105771,137622,8365,-0.051,1.018,0.315,-0.488,0.366,0.244,69.86
105764,137616,5203,-0.046,0.992,0.316,-0.488,0.366,0.244,69.864
105764,137599,8364,-0.043,0.982,0.315,-0.732,0.122,-0.183,69.87
105779,137616,5203,-0.047,0.986,0.315,-0.732,0.122,-0.183,69.874
105779,137590,8371,-0.05,0.989,0.312,-0.427,0.183,0.305,69.88
105755,137616,5203,-0.049,0.998,0.309,-0.427,0.183,0.305,69.883
105755,137580,8351,-0.047,1.009,0.313,0.427,0.305,0.183,69.89
105752,137616,5203,-0.042,1.005,0.32,0.427,0.305,0.183,69.893
105752,137613,8354,-0.042,1.001,0.315,0.305,0.183,0.183,69.9
105765,137616,5203,-0.045,0.999,0.314,0.305,0.183,0.183,69.903
105765,137606,8359,-0.047,0.992,0.318,-0.122,0.305,0.366,69.909
105755,137616,5203,-0.048,0.994,0.316,-0.122,0.305,0.366,69.913
105755,137576,8368,-0.046,1.001,0.314,-0.183,0.427,0.366,69.919
105718,137616,5203,-0.049,0.997,0.313,-0.183,0.427,0.366,69.923
105718,137573,8351,-0.046,0.996,0.312,-0.122,0.305,0.366,69.929
105741,137616,5203,-0.043,0.996,0.316,-0.122,0.305,0.366,69.933
105741,137565,8350,-0.045,0.989,0.315,-0.183,0.366,0.305,69.939
105712,137616,5203,-0.045,0.989,0.315,-0.183,0.366,0.305,69.943
105712,137525,8356,-0.048,0.995,0.317,-0.122,0.305,0.305,69.949
105690,137616,5203,-0.048,0.995,0.317,-0.122,0.305,0.305,69.953
105690,137549,8353,-0.043,1.004,0.315,0.183,0.366,0.488,69.959
105679,137616,5203,-0.043,1.004,0.315,0.183,0.366,0.488,69.963
105679,137544,8363,-0.043,1.005,0.317,0.061,0.305,0.366,69.969
105666,137616,5203,-0.043,1.005,0.317,0.061,0.305,0.366,69.973
105666,137543,8363,-0.042,0.998,0.316,-0.488,0.244,0.183,69.979
105655,137616,5203,-0.042,0.998,0.316,-0.488,0.244,0.183,69.982
105655,137529,8342,-0.044,0.996,0.31,-0.427,0.183,0.244,69.989
105690,137616,5203,-0.044,0.996,0.31,-0.427,0.183,0.244,69.992
105690,137530,8348,-0.044,0.997,0.309,0.061,0.305,0.244,69.999
105681,137616,5203,-0.044,0.997,0.309,0.061,0.305,0.244,70.002
105681,137523,8365,-0.044,0.999,0.312,0.305,0.427,0.427,70.008
105653,137616,5203,-0.044,0.999,0.312,0.305,0.427,0.427,70.012
105653,137516,8365,-0.045,1.003,0.317,0.305,0.366,0.488,70.018
105658,137616,5203,-0.045,1.003,0.317,0.305,0.366,0.488,70.022
105658,137515,8359,-0.043,1.003,0.315,-0.183,0.366,0.549,70.028
105647,137616,5203,-0.043,1.003,0.315,-0.183,0.366,0.549,70.032
105647,137515,8354,-0.05,0.988,0.31,-0.549,0.366,0.488,70.038
105666,137616,5203,-0.05,0.988,0.31,-0.549,0.366,0.488,70.042
105666,137527,8342,-0.047,1.015,0.314,-0.427,0.427,0.488,70.048
105652,137616,5203,-0.047,1.015,0.314,-0.427,0.427,0.488,70.052
105652,137499,8362,-0.04,0.992,0.311,0,0.549,0.183,70.058
105642,137616,5203,-0.04,0.992,0.311,0,0.549,0.183,70.062
105642,137485,8356,-0.043,0.992,0.316,0.122,0.488,0.183,70.068
105640,137616,5203,-0.043,0.992,0.316,0.122,0.488,0.183,70.072
105640,137498,8355,-0.042,1.004,0.311,0.183,0.61,0.488,70.078
105624,137616,5203,-0.042,1.004,0.311,0.183,0.61,0.488,70.081
105624,137507,8348,-0.04,1.005,0.312,0.183,0.61,0.488,70.088
105619,137616,5203,-0.042,1.002,0.315,0.122,0.488,0.427,70.091
105619,137513,8349,-0.046,0.998,0.316,0.122,0.488,0.427,70.098
105650,137616,5203,-0.047,0.991,0.316,-0.671,0.427,0.61,70.101
105650,137496,8365,-0.048,0.988,0.318,-0.671,0.427,0.61,70.107
105632,137616,5203,-0.047,0.995,0.316,-0.61,0.549,0.61,70.111
105632,137495,8350,-0.043,1,0.315,-0.61,0.549,0.61,70.117
105630,137616,5203,-0.044,1.006,0.314,-0.244,0.549,0.61,70.121
105630,137511,8351,-0.045,1.007,0.315,-0.244,0.549,0.61,70.127
105623,137616,5203,-0.052,1.007,0.313,-0.122,0.549,0.549,70.131
105623,137484,8351,-0.053,1.004,0.311,-0.122,0.549,0.549,70.137
105630,137616,5203,-0.047,1.001,0.317,-0.732,0.488,0.366,70.141
105630,137498,8354,-0.047,0.994,0.312,-0.732,0.488,0.366,70.147
105622,137616,5203,-0.045,0.991,0.311,-0.488,0.549,0.183,70.151
105622,137485,8336,-0.046,0.995,0.313,-0.488,0.549,0.183,70.157
105620,137616,5203,-0.046,0.996,0.312,0.244,0.549,0.305,70.161
105620,137481,8344,-0.049,1.001,0.309,0.244,0.549,0.305,70.167
105586,137616,5203,-0.046,1.003,0.31,0.61,0.61,0.427,70.171
105586,137494,8340,-0.045,1.003,0.313,0.61,0.61,0.427,70.177
105622,137616,5203,-0.048,1.001,0.31,0.244,0.549,0.427,70.18
105622,137492,8333,-0.048,1,0.317,0.244,0.549,0.427,70.187
105607,137616,5203,-0.045,0.997,0.316,-0.488,0.427,0.488,70.19
105607,137484,8354,-0.046,0.998,0.314,-0.488,0.427,0.488,70.196
105579,137360,5203,-0.05,0.998,0.312,-0.671,0.427,0.366,70.2
105579,137471,8332,-0.051,0.993,0.305,-0.671,0.427,0.366,70.206
105593,137616,5203,-0.048,0.989,0.311,-0.061,0.366,0.244,70.21
105593,137478,8344,-0.05,0.99,0.31,-0.061,0.366,0.244,70.216
105575,137360,5203,-0.046,0.994,0.311,0.488,0.244,0.244,70.22
105575,137463,8345,-0.044,0.999,0.314,0.488,0.244,0.244,70.226
105569,137360,5203,-0.045,1.001,0.314,0.488,0.244,0.366,70.23
105569,137446,8345,-0.045,1.001,0.314,0.488,0.244,0.366,70.236
105584,137360,5203,-0.045,1.004,0.316,0.366,0.183,0.305,70.24
105584,137456,8333,-0.048,1.005,0.313,0.366,0.183,0.305,70.246
105564,137360,5203,-0.043,1.005,0.313,-0.061,0.244,0.122,70.25
105564,137450,8344,-0.045,0.999,0.314,-0.061,0.244,0.122,70.256
105568,137360,5203,-0.044,0.989,0.31,-0.061,0.183,-0.061,70.26
105568,137454,8352,-0.043,0.984,0.31,-0.061,0.183,-0.061,70.266
105574,137360,5203,-0.045,0.985,0.311,0.488,0.183,0.183,70.269
105574,137455,8356,-0.046,0.995,0.311,0.488,0.183,0.183,70.276
105577,137360,5203,-0.045,1.001,0.312,0.854,0.244,0.488,70.279
105577,137456,8348,-0.044,1.013,0.317,0.854,0.244,0.488,70.286
105560,137360,5203,-0.042,1.015,0.318,0.366,0.244,0.427,70.289
105560,137468,8343,-0.042,1.008,0.318,0.366,0.244,0.427,70.295
105561,137616,5203,-0.044,0.999,0.318,-0.549,0.305,0.305,70.299
105561,137474,8332,-0.046,0.993,0.316,-0.549,0.305,0.305,70.305
105576,137360,5203,-0.046,0.993,0.318,-0.427,0.427,0.427,70.309
105576,137459,8353,-0.046,0.994,0.317,-0.427,0.427,0.427,70.315
105574,137616,5203,-0.048,1,0.317,0.488,0.488,0.427,70.319
105574,137474,8345,-0.047,1.005,0.314,0.488,0.488,0.427,70.325
105549,137360,5203,-0.044,1.005,0.313,0.732,0.671,0.366,70.329
105549,137465,8341,-0.046,1.007,0.316,0.732,0.671,0.366,70.335
105560,137616,5203,-0.047,1,0.316,-0.061,0.61,0.305,70.339
105560,137482,8335,-0.048,0.994,0.32,-0.061,0.61,0.305,70.345
105565,137360,5203,-0.047,0.994,0.318,-0.488,0.427,0.305,70.349
105565,137455,8352,-0.044,0.996,0.316,-0.488,0.427,0.305,70.355
105585,137616,5203,-0.045,0.999,0.314,-0.244,0.671,0.183,70.359
105585,137472,8332,-0.047,0.999,0.309,-0.244,0.671,0.183,70.365
105560,137360,5203,-0.046,0.997,0.311,0.549,0.488,0.122,70.368
105560,137440,8342,-0.047,1,0.311,0.549,0.488,0.122,70.375
105574,137360,5203,-0.047,1.002,0.313,0.488,0.549,0.305,70.378
105574,137452,8335,-0.047,1.001,0.315,0.488,0.549,0.305,70.385
105551,137360,5203,-0.048,1,0.312,0,0.61,0.305,70.388
105551,137465,8327,-0.048,1,0.311,0,0.61,0.305,70.394
105536,137360,5203,-0.045,0.997,0.312,-0.244,0.488,0.244,70.398
105536,137443,8338,-0.045,0.995,0.311,-0.244,0.488,0.244,70.404
105569,137360,5203,-0.044,0.999,0.303,0.122,0.488,0.427,70.408
105569,137445,8355,-0.044,0.991,0.306,0.122,0.488,0.427,70.414
105549,137360,5203,-0.044,0.987,0.317,0.671,0.488,0.549,70.418
105549,137450,8342,-0.047,1.015,0.314,0.671,0.488,0.549,70.424
105562,137360,5203,-0.053,1.029,0.31,0.305,0.671,0.732,70.428
105562,137438,8350,-0.046,1.014,0.306,0.305,0.671,0.732,70.434
105539,137360,5203,-0.041,0.992,0.31,-0.366,0.488,0.061,70.438
105539,137454,8346,-0.042,0.99,0.315,-0.366,0.488,0.061,70.444
105545,137360,5203,-0.045,0.993,0.31,-0.976,0.244,0.427,70.448
105545,137442,8327,-0.047,0.994,0.31,-0.976,0.244,0.427,70.454
105539,137360,5203,-0.046,0.991,0.314,-0.244,0.671,0.366,70.458
105539,137454,8344,-0.044,0.999,0.32,-0.244,0.671,0.366,70.464
105527,137360,5203,-0.044,1.011,0.315,0.549,0.671,0.366,70.467
105527,137439,8325,-0.046,1.005,0.31,0.549,0.671,0.366,70.474
105562,137360,5203,-0.046,0.998,0.313,0.427,0.671,0.366,70.477
105562,137455,8338,-0.044,0.993,0.318,0.427,0.671,0.366,70.484
105570,137360,5203,-0.046,0.99,0.318,0,0.488,0.183,70.487
105570,137461,8334,-0.049,0.991,0.313,0,0.488,0.183,70.493
105546,137360,5203,-0.047,0.998,0.312,-0.122,0.427,0.305,70.497
105546,137433,8344,-0.046,0.993,0.314,-0.122,0.427,0.305,70.503
105575,137360,5203,-0.046,0.994,0.317,0.366,0.427,0.244,70.507
105575,137445,8343,-0.042,0.997,0.318,0.366,0.427,0.244,70.513
105532,137360,5203,-0.042,0.997,0.318,0.366,0.427,0.244,70.517
105532,137455,8333,-0.045,0.997,0.313,0.183,0.305,0.244,70.523
105539,137360,5203,-0.045,0.997,0.313,0.183,0.305,0.244,70.527
105539,137434,8330,-0.045,0.996,0.317,-0.122,0.244,0.305,70.533
105569,137360,5203,-0.045,0.996,0.317,-0.122,0.244,0.305,70.537
105569,137440,8333,-0.045,0.997,0.313,-0.305,0.244,0.488,70.543
105563,137360,5203,-0.045,0.997,0.313,-0.305,0.244,0.488,70.547
105563,137433,8353,-0.047,1.006,0.311,-0.061,0.305,0.61,70.553
105528,137360,5203,-0.047,1.006,0.311,-0.061,0.305,0.61,70.557
105528,137444,8330,-0.045,1.003,0.312,-0.061,0.427,0.549,70.563
105529,137360,5203,-0.045,1.003,0.312,-0.061,0.427,0.549,70.566
105529,137426,8328,-0.045,1.003,0.31,-0.488,0.427,0.427,70.573
105537,137360,5203,-0.045,1.003,0.31,-0.488,0.427,0.427,70.576
105537,137425,8320,-0.04,1.004,0.31,-0.61,0.488,0.427,70.583
105525,137360,5203,-0.04,1.004,0.31,-0.61,0.488,0.427,70.586
105525,137419,8323,-0.045,1.006,0.307,-0.122,0.488,0.366,70.592
105512,137360,5203,-0.045,1.006,0.307,-0.122,0.488,0.366,70.596
105512,137436,8336,-0.042,0.999,0.31,-0.061,0.427,0.305,70.602
105522,137360,5203,-0.042,0.999,0.31,-0.061,0.427,0.305,70.606
105522,137429,8337,-0.043,0.998,0.316,-0.488,0.366,0.183,70.612
105527,137360,5203,-0.043,0.998,0.316,-0.488,0.366,0.183,70.616
105527,137420,8328,-0.042,0.997,0.312,-0.488,0.366,0.122,70.622
105520,137360,5203,-0.042,0.997,0.312,-0.488,0.366,0.122,70.626
105520,137420,8333,-0.045,0.998,0.318,0.061,0.305,0.305,70.632
105528,137360,5203,-0.045,0.998,0.318,0.061,0.305,0.305,70.636
105528,137418,8344,-0.046,0.994,0.316,0.183,0.183,0.305,70.642
105522,137360,5203,-0.046,0.994,0.316,0.183,0.183,0.305,70.646
105522,137420,8339,-0.047,0.996,0.319,0.183,0.305,0.244,70.652
105522,137360,5203,-0.047,0.996,0.319,0.183,0.305,0.244,70.656
105522,137411,8335,-0.047,0.995,0.314,0.244,0.183,0.244,70.662
105498,137360,5203,-0.048,0.996,0.317,0.244,0.183,0.244,70.665
105498,137417,8332,-0.049,0.99,0.314,0.183,0.061,0.305,70.672
105507,137360,5203,-0.051,0.991,0.313,0.183,0.061,0.305,70.675
105507,137403,8322,-0.05,0.997,0.318,-0.183,0.244,0.427,70.681
105498,137360,5203,-0.047,0.999,0.314,-0.183,0.244,0.427,70.685
105498,137390,8325,-0.048,0.998,0.314,-0.366,0.427,0.366,70.691
105511,137360,5203,-0.047,0.995,0.317,-0.366,0.427,0.366,70.695
105511,137418,8328,-0.046,0.996,0.318,-0.305,0.488,0.549,70.701
105463,137360,5203,-0.048,0.997,0.313,-0.305,0.488,0.549,70.705
105463,137384,8314,-0.046,1.001,0.308,0,0.427,0.61,70.711
105468,137360,5203,-0.047,1.005,0.311,0,0.427,0.61,70.715
105468,137374,8334,-0.046,1.004,0.312,0.305,0.549,0.549,70.721
105467,137360,5203,-0.045,0.999,0.313,0.305,0.549,0.549,70.725
105467,137372,8320,-0.046,1,0.313,0.244,0.671,0.549,70.731
105462,137360,5203,-0.048,0.999,0.312,0.244,0.671,0.549,70.735
105462,137361,8312,-0.046,0.996,0.309,0.061,0.671,0.366,70.741
105435,137360,5203,-0.043,0.998,0.307,0.061,0.671,0.366,70.745
105435,137355,8324,-0.043,1,0.309,0.305,0.427,0.122,70.751
105430,137360,5203,-0.046,1.003,0.311,0.305,0.427,0.122,70.755
105430,137356,8325,-0.043,1.005,0.314,0.122,0.427,0.183,70.761
105439,137360,5203,-0.042,1.001,0.318,0.122,0.427,0.183,70.764
105439,137347,8317,-0.042,1,0.314,-0.183,0.366,0.244,70.771
105446,137360,5203,-0.042,0.995,0.313,-0.183,0.366,0.244,70.774
105446,137363,8325,-0.047,0.994,0.313,-0.122,0.305,0.122,70.78
105460,137360,5203,-0.049,0.993,0.313,-0.122,0.305,0.122,70.784
105460,137325,8307,-0.048,0.998,0.312,0.183,0.427,0.366,70.79
105433,137360,5203,-0.047,1.003,0.309,0.183,0.427,0.366,70.794
105433,137354,8326,-0.046,1.005,0.31,0.366,0.366,0.488,70.8
105434,137360,5203,-0.046,1.001,0.311,0.366,0.366,0.488,70.804
105434,137351,8319,-0.046,1,0.311,-0.183,0.488,0.366,70.81
105435,137360,5203,-0.047,0.994,0.308,-0.183,0.488,0.366,70.814
105435,137344,8324,-0.047,0.995,0.311,-0.244,0.488,0.366,70.82
105443,137360,5203,-0.047,0.999,0.316,-0.244,0.488,0.366,70.824
105443,137340,8326,-0.045,1,0.313,-0.122,0.671,0.427,70.83
105433,137360,5203,-0.045,1.001,0.312,-0.122,0.671,0.427,70.834
105433,137377,8327,-0.045,0.999,0.316,-0.122,0.732,0.488,70.84
105427,137360,5203,-0.047,0.997,0.312,-0.122,0.732,0.488,70.844
105427,137345,8321,-0.045,0.995,0.313,0,0.671,0.427,70.85
105437,137360,5203,-0.045,0.995,0.316,0,0.671,0.427,70.853
105437,137334,8329,-0.046,1.001,0.314,0.122,0.61,0.549,70.86
105460,137360,5203,-0.044,1.005,0.312,0.122,0.61,0.549,70.863
105460,137370,8322,-0.044,1.004,0.313,0,0.427,0.549,70.87
105442,137360,5203,-0.041,1.002,0.312,0,0.427,0.549,70.873
105442,137345,8318,-0.041,1.003,0.306,-0.305,0.305,0.183,70.879
105460,137360,5203,-0.046,1,0.304,-0.305,0.305,0.183,70.883
105460,137350,8316,-0.046,0.994,0.303,-0.244,0.244,0.122,70.889
105427,137360,5203,-0.044,0.995,0.307,-0.244,0.244,0.122,70.893
105427,137355,8310,-0.043,1.003,0.309,-0.122,0.061,0.183,70.899
105446,137360,5203,-0.043,1.002,0.309,-0.122,0.061,0.183,70.903
105446,137348,8315,-0.044,1,0.312,0,0.183,0.366,70.909
105447,137360,5203,-0.047,1.002,0.314,0,0.183,0.366,70.913
105447,137334,8321,-0.047,1.006,0.314,-0.305,0.305,0.549,70.919
105434,137360,5203,-0.049,1.002,0.315,-0.305,0.305,0.549,70.923
105434,137358,8330,-0.048,0.995,0.315,-0.549,0.244,0.427,70.929
105437,137360,5203,-0.047,0.992,0.312,-0.549,0.244,0.427,70.933
105437,137359,8330,-0.048,0.994,0.315,-0.122,0.366,0.427,70.939
105463,137360,5203,-0.047,0.998,0.316,-0.122,0.366,0.427,70.943
105463,137372,8328,-0.046,1.002,0.319,0.427,0.488,0.366,70.949
105450,137360,5203,-0.045,1.002,0.32,0.427,0.488,0.366,70.952
105450,137392,8329,-0.044,1.002,0.321,0.244,0.549,0.366,70.959
105446,137360,5203,-0.046,1,0.32,0.244,0.549,0.366,70.962
105446,137385,8323,-0.042,1,0.319,-0.305,0.549,0.366,70.969
105471,137360,5203,-0.041,0.998,0.31,-0.305,0.549,0.366,70.972
105471,137384,8319,-0.043,0.997,0.309,-0.183,0.549,0.183,70.978
105472,137360,5203,-0.045,0.996,0.311,-0.183,0.549,0.183,70.982
105472,137372,8331,-0.044,0.997,0.308,0.244,0.488,0.183,70.988
105482,137360,5203,-0.044,0.994,0.309,0.244,0.488,0.183,70.992
105482,137376,8332,-0.044,0.995,0.311,0.061,0.549,0.305,70.998
105476,137360,5203,-0.045,0.998,0.31,0.061,0.549,0.305,71.002
105476,137391,8323,-0.045,0.999,0.313,-0.366,0.549,0.488,71.008
105490,137360,5203,-0.045,1.002,0.315,-0.366,0.549,0.488,71.012
105490,137378,8335,-0.046,1.003,0.31,-0.427,0.488,0.671,71.018
105501,137360,5203,-0.049,1.004,0.313,-0.427,0.488,0.671,71.022
105501,137415,8323,-0.05,1,0.313,-0.488,0.488,0.549,71.028
105499,137360,5203,-0.049,1.001,0.313,-0.488,0.488,0.549,71.032
105499,137381,8318,-0.052,0.999,0.312,-0.488,0.427,0.366,71.038
105482,137360,5203,-0.05,1,0.312,-0.488,0.427,0.366,71.042
105482,137367,8318,-0.046,0.998,0.314,-0.427,0.305,0.122,71.048
105493,137360,5203,-0.046,0.991,0.313,-0.427,0.305,0.122,71.051
105493,137374,8333,-0.046,0.994,0.313,-0.061,0.366,0.305,71.058
105491,137360,5203,-0.046,0.996,0.312,-0.061,0.366,0.305,71.061
105491,137389,8337,-0.044,1.001,0.313,0.244,0.488,0.488,71.068
105493,137360,5203,-0.042,1.007,0.311,0.244,0.488,0.488,71.071
105493,137371,8337,-0.045,1.007,0.31,-0.061,0.427,0.427,71.077
105480,137360,5203,-0.043,1.002,0.306,-0.061,0.427,0.427,71.081
105480,137382,8328,-0.044,0.994,0.311,-0.488,0.305,0.366,71.087
105475,137360,5203,-0.045,0.99,0.31,-0.488,0.305,0.366,71.091
105475,137374,8322,-0.046,0.989,0.304,-0.488,0.366,0.427,71.097
105492,137360,5203,-0.046,0.989,0.304,-0.488,0.366,0.427,71.101
105492,137374,8329,-0.043,1.001,0.312,0.061,0.244,0.488,71.107
105503,137360,5203,-0.043,1.001,0.312,0.061,0.244,0.488,71.111
105503,137382,8332,-0.044,1.001,0.309,0,0.122,0.549,71.117
105491,137360,5203,-0.044,1.001,0.309,0,0.122,0.549,71.121
105491,137386,8328,-0.047,1.002,0.309,-0.366,0,0.366,71.127
105498,137360,5203,-0.047,1.002,0.309,-0.366,0,0.366,71.131
105498,137393,8325,-0.045,1,0.311,-0.366,-0.061,0.122,71.137
105489,137360,5203,-0.045,1,0.311,-0.366,-0.061,0.122,71.141
105489,137378,8328,-0.043,0.999,0.312,-0.244,-0.122,0.183,71.147
105480,137360,5203,-0.043,0.999,0.312,-0.244,-0.122,0.183,71.15
105480,137405,8322,-0.048,1.002,0.319,-0.366,0.061,0.305,71.157
105512,137360,5203,-0.048,1.002,0.319,-0.366,0.061,0.305,71.16
105512,137381,8333,-0.046,0.993,0.318,-0.305,0.061,0.305,71.167
105508,137360,5203,-0.046,0.993,0.318,-0.305,0.061,0.305,71.17
105508,137389,8333,-0.05,0.996,0.314,0,0.122,0.366,71.176
105495,137360,5203,-0.05,0.996,0.314,0,0.122,0.366,71.18
105495,137374,8331,-0.049,1.007,0.313,0.366,0.305,0.427,71.186
105484,137360,5203,-0.049,1.007,0.313,0.366,0.305,0.427,71.19
105484,137389,8331,-0.046,1.001,0.311,0.183,0.244,0.244,71.196
105503,137360,5203,-0.046,1.001,0.311,0.183,0.244,0.244,71.2
105503,137383,8329,-0.044,1,0.313,-0.122,0.366,0.244,71.206
105506,137360,5203,-0.044,1,0.313,-0.122,0.366,0.244,71.21
105506,137391,8323,-0.045,1.005,0.311,-0.122,0.549,0.366,71.216
105504,137360,5203,-0.045,1.005,0.311,-0.122,0.549,0.366,71.22
105504,137401,8323,-0.041,1.001,0.311,-0.244,0.366,0.366,71.226
105507,137360,5203,-0.041,1.001,0.311,-0.244,0.366,0.366,71.23
105507,137380,8329,-0.042,1.001,0.317,-0.61,0.183,0.366,71.236
105498,137360,5203,-0.042,1.001,0.317,-0.61,0.183,0.366,71.24
105498,137362,8319,-0.041,1.001,0.318,-0.61,0.183,0.366,71.246
105513,137360,5203,-0.039,0.999,0.316,-0.549,0.366,0.305,71.249
105513,137390,8327,-0.043,0.999,0.315,-0.549,0.366,0.305,71.256
105512,137360,5203,-0.045,1.001,0.314,-0.244,0.61,0.366,71.259
105512,137399,8342,-0.043,0.998,0.314,-0.244,0.61,0.366,71.266
105514,137360,5203,-0.044,1,0.314,0.305,0.671,0.366,71.269
105514,137400,8329,-0.048,1.003,0.311,0.305,0.671,0.366,71.275
105537,137360,5203,-0.047,0.999,0.311,0.366,0.671,0.427,71.279
105537,137396,8308,-0.048,0.996,0.316,0.366,0.671,0.427,71.285
105521,137360,5203,-0.049,0.994,0.316,-0.061,0.61,0.427,71.289
105521,137384,8339,-0.047,0.992,0.312,-0.061,0.61,0.427,71.295
105489,137360,5203,-0.048,0.994,0.314,-0.244,0.366,0.244,71.299
105489,137382,8319,-0.048,0.995,0.309,-0.244,0.366,0.244,71.305
105502,137360,5203,-0.047,1.001,0.31,0.122,0.305,0.305,71.309
105502,137389,8336,-0.047,1.003,0.309,0.122,0.305,0.305,71.315
105486,137360,5203,-0.046,1.003,0.303,0.061,0.366,0.305,71.319
105486,137374,8329,-0.044,1.003,0.311,0.061,0.366,0.305,71.325
105497,137360,5203,-0.042,1.001,0.309,-0.549,0.366,0.244,71.329
105497,137384,8316,-0.041,1,0.307,-0.549,0.366,0.244,71.335
105501,137360,5203,-0.043,1,0.31,-0.793,0.366,0.183,71.339
105501,137366,8327,-0.042,0.998,0.31,-0.793,0.366,0.183,71.345
105502,137360,5203,-0.042,0.998,0.308,-0.488,0.488,0.366,71.348
105502,137410,8319,-0.045,1.001,0.312,-0.488,0.488,0.366,71.355
105518,137360,5203,-0.044,1.005,0.314,-0.244,0.488,0.671,71.358
105518,137406,8334,-0.041,1.008,0.311,-0.244,0.488,0.671,71.365
105528,137360,5203,-0.043,1.008,0.31,-0.305,0.427,0.549,71.368
105528,137424,8327,-0.046,1.001,0.312,-0.305,0.427,0.549,71.374
105547,137360,5203,-0.045,0.999,0.312,-0.305,0.366,0.427,71.378
105547,137418,8336,-0.046,0.996,0.309,-0.305,0.366,0.427,71.384
105542,137360,5203,-0.047,0.996,0.314,-0.244,0.244,0.366,71.388
105542,137440,8323,-0.047,1,0.312,-0.244,0.244,0.366,71.394
105550,137360,5203,-0.046,0.998,0.307,-0.061,0.305,0.305,71.398
105550,137435,8336,-0.049,1,0.311,-0.061,0.305,0.305,71.404
105596,137360,5203,-0.048,0.999,0.312,-0.122,0.244,0.183,71.408
105596,137430,8343,-0.046,1,0.31,-0.122,0.244,0.183,71.414
105594,137360,5203,-0.047,1,0.313,-0.305,0.244,0.183,71.418
105594,137458,8352,-0.047,1.001,0.314,-0.305,0.244,0.183,71.424
105594,137360,5203,-0.047,1.002,0.314,-0.61,0.183,0.122,71.428
105594,137470,8350,-0.047,0.999,0.315,-0.61,0.183,0.122,71.434
105607,137360,5203,-0.048,0.996,0.315,-0.61,0.366,0.244,71.438
105607,137463,8342,-0.049,0.996,0.315,-0.61,0.366,0.244,71.444
105637,137360,5203,-0.048,0.989,0.318,-0.427,0.244,0.244,71.447
105637,137450,8340,-0.047,0.99,0.321,-0.427,0.244,0.244,71.454
105610,137360,5203,-0.047,0.993,0.318,-0.305,0.305,0.366,71.457
105610,137465,8351,-0.046,0.998,0.316,-0.305,0.305,0.366,71.464
105626,137360,5203,-0.046,1.001,0.318,-0.122,0.427,0.488,71.467
105626,137458,8355,-0.044,0.999,0.314,-0.122,0.427,0.488,71.473
105615,137616,5203,-0.045,0.999,0.308,-0.244,0.305,0.427,71.477
105615,137495,8355,-0.048,1,0.311,-0.244,0.305,0.427,71.483
105633,137360,5203,-0.046,0.997,0.311,-0.427,0.183,0.122,71.487
105633,137459,8352,-0.044,1,0.312,-0.427,0.183,0.122,71.493
105600,137360,5203,-0.044,0.999,0.313,-0.122,0.244,0.244,71.497
105600,137442,8344,-0.047,1,0.313,-0.122,0.244,0.244,71.503
105602,137360,5203,-0.045,1.002,0.311,0.122,0.366,0.488,71.507
105602,137441,8340,-0.045,1.004,0.314,0.122,0.366,0.488,71.513
105596,137360,5203,-0.047,1.009,0.311,-0.061,0.366,0.427,71.517
105596,137415,8352,-0.045,1.004,0.312,-0.061,0.366,0.427,71.523
105585,137360,5203,-0.045,1,0.31,-0.488,0.305,0.183,71.527
105585,137428,8332,-0.045,0.999,0.315,-0.488,0.305,0.183,71.533
105560,137360,5203,-0.046,0.998,0.318,-0.732,0.305,0.122,71.537
105560,137426,8335,-0.047,1.003,0.314,-0.732,0.305,0.122,71.543
105561,137360,5203,-0.046,0.998,0.313,-0.305,0.427,0.122,71.546
105561,137420,8338,-0.045,0.995,0.313,-0.305,0.427,0.122,71.553
105569,137360,5203,-0.047,0.994,0.316,0.183,0.427,0.244,71.556
105569,137406,8342,-0.046,0.997,0.322,0.183,0.427,0.244,71.562
105544,137360,5203,-0.048,1.002,0.32,0.122,0.488,0.305,71.566
105544,137442,8325,-0.045,1.001,0.316,0.122,0.488,0.305,71.572
105563,137360,5203,-0.045,1,0.315,0.061,0.488,0.305,71.576
105563,137405,8329,-0.047,0.998,0.315,0.061,0.488,0.305,71.582
105557,137360,5203,-0.047,0.994,0.318,-0.244,0.366,0.305,71.586
105557,137419,8351,-0.047,0.992,0.312,-0.244,0.366,0.305,71.592
105556,137360,5203,-0.05,0.992,0.312,-0.183,0.488,0.427,71.596
105556,137431,8339,-0.048,0.998,0.31,-0.183,0.488,0.427,71.602
105547,137360,5203,-0.046,0.999,0.31,0.366,0.549,0.366,71.606
105547,137413,8345,-0.045,1.006,0.308,0.366,0.549,0.366,71.612
105545,137360,5203,-0.044,1.009,0.31,-0.122,0.488,0.244,71.616
105545,137397,8348,-0.045,1.003,0.312,-0.122,0.488,0.244,71.622
105513,137360,5203,-0.044,0.998,0.311,-0.61,0.549,0.488,71.626
105513,137406,8334,-0.045,0.995,0.314,-0.61,0.549,0.488,71.632
105525,137360,5203,-0.046,0.995,0.317,-0.793,0.671,0.549,71.636
105525,137393,8339,-0.043,0.995,0.317,-0.793,0.671,0.549,71.642
105534,137360,5203,-0.047,0.997,0.31,-0.488,0.671,0.549,71.645
105534,137411,8358,-0.05,1.001,0.307,-0.488,0.671,0.549,71.652
105542,137360,5203,-0.047,1.002,0.308,-0.122,0.549,0.549,71.655
105542,137428,8330,-0.048,1,0.31,-0.122,0.549,0.549,71.661
105560,137360,5203,-0.044,1.002,0.31,-0.061,0.366,0.549,71.665
105560,137422,8331,-0.047,1.007,0.314,-0.061,0.366,0.549,71.671
105577,137360,5203,-0.047,1.007,0.314,-0.061,0.366,0.549,71.675
105577,137444,8334,-0.044,0.999,0.321,-0.61,0.305,0.305,71.681
105559,137360,5203,-0.044,0.999,0.321,-0.61,0.305,0.305,71.685
105559,137435,8348,-0.045,0.99,0.317,-0.427,0.427,0.122,71.691
105573,137360,5203,-0.045,0.99,0.317,-0.427,0.427,0.122,71.695
105573,137442,8343,-0.044,1.003,0.311,0.366,0.488,0.366,71.701
105558,137360,5203,-0.044,1.003,0.311,0.366,0.488,0.366,71.705
105558,137428,8362,-0.046,0.995,0.32,0.122,0.549,0.427,71.711
105571,137360,5203,-0.046,0.995,0.32,0.122,0.549,0.427,71.715
105571,137435,8341,-0.045,0.99,0.31,-0.244,0.549,0.244,71.721
105575,137360,5203,-0.045,0.99,0.31,-0.244,0.549,0.244,71.725
105575,137450,8332,-0.046,1.006,0.31,-0.366,0.488,0.549,71.731
105570,137360,5203,-0.046,1.006,0.31,-0.366,0.488,0.549,71.734
105570,137422,8328,-0.045,1.008,0.314,-0.122,0.366,0.61,71.741
105561,137360,5203,-0.045,1.008,0.314,-0.122,0.366,0.61,71.744
105561,137435,8328,-0.045,0.995,0.314,-0.305,0.305,0.427,71.751
105549,137360,5203,-0.045,0.995,0.314,-0.305,0.305,0.427,71.754
105549,137442,8332,-0.051,1,0.307,-0.671,0.305,0.488,71.76
105562,137360,5203,-0.051,1,0.307,-0.671,0.305,0.488,71.764
105562,137429,8341,-0.047,1.005,0.31,-0.122,0.305,0.549,71.77
105550,137360,5203,-0.047,1.005,0.31,-0.122,0.305,0.549,71.774
105550,137421,8343,-0.048,1.006,0.311,0.366,0.366,0.366,71.78
105552,137360,5203,-0.048,1.006,0.311,0.366,0.366,0.366,71.784
105552,137423,8349,-0.046,0.997,0.311,-0.061,0.366,0.122,71.79
105539,137360,5203,-0.046,0.997,0.311,-0.061,0.366,0.122,71.794
105539,137426,8356,-0.043,0.988,0.311,-0.488,0.183,0,71.8
105521,137360,5203,-0.043,0.988,0.311,-0.488,0.183,0,71.804
105521,137419,8341,-0.043,0.995,0.311,-0.244,0.305,0.183,71.81
105538,137360,5203,-0.043,0.995,0.311,-0.244,0.305,0.183,71.814
105538,137407,8346,-0.047,0.997,0.311,0.183,0.427,0.488,71.82
105556,137360,5203,-0.049,0.998,0.316,0.183,0.427,0.488,71.824
105556,137433,8329,-0.047,0.999,0.315,0.244,0.244,0.671,71.83
105563,137360,5203,-0.047,0.999,0.316,0.244,0.244,0.671,71.834
105563,137414,8338,-0.047,1,0.314,-0.244,0.183,0.61,71.84
105534,137360,5203,-0.047,1.003,0.311,-0.244,0.183,0.61,71.843
105534,137422,8339,-0.044,1.001,0.311,-0.61,0.244,0.549,71.85
105531,137360,5203,-0.043,0.997,0.313,-0.61,0.244,0.549,71.853
105531,137416,8332,-0.048,0.998,0.314,-0.305,0.366,0.427,71.859
105528,137360,5203,-0.045,1,0.312,-0.305,0.366,0.427,71.863
105528,137426,8343,-0.043,1.001,0.312,0,0.305,0.305,71.869
105536,137360,5203,-0.044,1.004,0.31,0,0.305,0.305,71.873
105536,137413,8345,-0.043,1.001,0.311,0.183,0.305,0.244,71.879
105545,137360,5203,-0.044,1.003,0.314,0.183,0.305,0.244,71.883
105545,137430,8335,-0.045,1,0.317,-0.061,0.427,0.183,71.889
105555,137360,5203,-0.045,0.997,0.32,-0.061,0.427,0.183,71.893
105555,137424,8344,-0.045,0.993,0.316,-0.427,0.427,0.244,71.899
105554,137360,5203,-0.046,0.994,0.317,-0.427,0.427,0.244,71.903
105554,137430,8337,-0.047,1.007,0.313,-0.305,0.366,0.366,71.909
105543,137360,5203,-0.047,1.003,0.309,-0.305,0.366,0.366,71.913
105543,137420,8317,-0.044,1.002,0.314,-0.061,0.305,0.366,71.919
105532,137360,5203,-0.043,1.002,0.313,-0.061,0.305,0.366,71.923
105532,137427,8359,-0.045,1.003,0.31,-0.244,0.183,0.305,71.929
105551,137360,5203,-0.048,1.003,0.311,-0.244,0.183,0.305,71.932
105551,137440,8337,-0.046,0.998,0.312,-0.488,0.305,0.305,71.939
105574,137360,5203,-0.043,1,0.315,-0.488,0.305,0.305,71.942
105574,137425,8335,-0.045,0.997,0.314,-0.244,0.366,0.244,71.949
105561,137360,5203,-0.049,0.993,0.318,-0.244,0.366,0.244,71.952
105561,137438,8336,-0.051,0.994,0.318,-0.183,0.488,0.305,71.958
105531,137360,5203,-0.049,0.994,0.32,-0.183,0.488,0.305,71.962
105531,137457,8333,-0.048,0.994,0.321,-0.122,0.427,0.488,71.968
105540,137360,5203,-0.047,0.998,0.315,-0.122,0.427,0.488,71.972
105540,137443,8334,-0.047,1.003,0.316,-0.183,0.366,0.488,71.978
105562,137360,5203,-0.049,1.002,0.31,-0.183,0.366,0.488,71.982
105562,137423,8353,-0.048,1,0.307,-0.305,0.183,0.488,71.988
105547,137360,5203,-0.047,0.997,0.307,-0.305,0.183,0.488,71.992
105547,137447,8344,-0.042,0.998,0.31,-0.366,0.122,0.305,71.998
105578,137360,5203,-0.043,0.998,0.311,-0.366,0.122,0.305,72.002
105578,137446,8331,-0.044,1.001,0.315,-0.061,0.366,0.427,72.008
105563,137360,5203,-0.044,1.007,0.31,-0.061,0.366,0.427,72.012
105563,137450,8326,-0.041,1.006,0.31,0.366,0.427,0.488,72.018
105566,137360,5203,-0.041,1.008,0.316,0.366,0.427,0.488,72.022
105566,137424,8331,-0.044,1.002,0.313,0,0.427,0.366,72.028
105591,137360,5203,-0.045,1.003,0.311,0,0.427,0.366,72.031
105591,137445,8336,-0.045,1.001,0.313,-0.61,0.305,0.366,72.038
105573,137360,5203,-0.041,0.998,0.312,-0.61,0.305,0.366,72.041
105573,137444,8329,-0.042,0.998,0.314,-0.488,0.305,0.305,72.048
105554,137360,5203,-0.047,1.001,0.312,-0.488,0.305,0.305,72.051
105554,137464,8346,-0.043,0.996,0.31,0,0.427,0.427,72.057
105576,137360,5203,-0.045,0.996,0.311,0,0.427,0.427,72.061
105576,137441,8329,-0.045,0.998,0.311,0.488,0.305,0.427,72.067
105577,137360,5203,-0.048,0.999,0.311,0.488,0.305,0.427,72.071
105577,137447,8328,-0.049,1.001,0.313,0.732,0.366,0.488,72.077
105573,137360,5203,-0.045,1.001,0.312,0.732,0.366,0.488,72.081
105573,137442,8337,-0.045,0.997,0.314,0.854,0.305,0.366,72.087
105562,137360,5203,-0.047,0.99,0.311,0.854,0.305,0.366,72.091
105562,137439,8332,-0.049,0.988,0.309,1.159,0.244,0.305,72.097
105554,137360,5203,-0.05,0.992,0.312,1.159,0.244,0.305,72.101
105554,137448,8338,-0.048,0.992,0.309,1.829,0.366,0.366,72.107
105562,137360,5203,-0.045,0.992,0.315,1.829,0.366,0.366,72.111
105562,137453,8320,-0.044,0.991,0.32,3.11,0.366,0.488,72.117
105559,137360,5203,-0.042,0.997,0.322,3.11,0.366,0.488,72.121
105559,137465,8339,-0.042,1.003,0.323,3.293,0.488,0.732,72.127
105596,137360,5203,-0.048,1.011,0.321,3.293,0.488,0.732,72.13
105596,137442,8336,-0.046,1.021,0.32,1.646,0.671,0.793,72.137
105595,137360,5203,-0.045,1.019,0.316,1.646,0.671,0.793,72.14
105595,137448,8335,-0.045,1.01,0.314,-1.098,0.61,0.244,72.147
105584,137360,5203,-0.043,1,0.313,-1.098,0.61,0.244,72.15
105584,137446,8364,-0.043,0.991,0.307,-2.378,0.671,0.061,72.156
105575,137360,5203,-0.045,0.994,0.308,-2.378,0.671,0.061,72.16
105575,137453,8352,-0.044,0.996,0.31,-1.585,0.793,0.183,72.166
105585,137616,5203,-0.04,1.001,0.308,-1.585,0.793,0.183,72.17
105585,137474,8342,-0.04,0.997,0.309,-0.366,0.732,0.183,72.176
105587,137360,5203,-0.043,0.997,0.309,-0.366,0.732,0.183,72.18
105587,137450,8336,-0.042,0.999,0.311,0.122,0.671,0.427,72.186
105603,137360,5203,-0.046,1.002,0.309,0.122,0.671,0.427,72.19
105603,137467,8341,-0.047,1.003,0.308,-0.122,0.549,0.549,72.196
105604,137360,5203,-0.045,1.003,0.312,-0.122,0.549,0.549,72.2
105604,137461,8326,-0.046,1.004,0.311,-0.366,0.305,0.488,72.206
105605,137360,5203,-0.047,1,0.307,-0.366,0.305,0.488,72.21
105605,137449,8336,-0.049,0.996,0.301,-0.183,0.244,0.549,72.216
105580,137360,5203,-0.051,0.997,0.307,-0.183,0.244,0.549,72.22
105580,137440,8341,-0.049,1.005,0.308,0.122,0.122,0.488,72.226
105583,137360,5203,-0.05,1.008,0.305,0.122,0.122,0.488,72.229
105583,137441,8338,-0.047,1.005,0.313,0.366,0.122,0.427,72.236
105576,137360,5203,-0.047,1.004,0.314,0.366,0.122,0.427,72.239
105576,137437,8341,-0.049,1.002,0.314,-0.244,0.183,0.488,72.246
105568,137360,5203,-0.049,0.996,0.317,-0.244,0.183,0.488,72.249
105568,137457,8344,-0.05,0.989,0.319,-0.671,0.122,0.427,72.255
105564,137360,5203,-0.05,0.989,0.319,-0.671,0.122,0.427,72.259
105564,137447,8355,-0.044,0.992,0.312,-0.244,0,0.305,72.265
105593,137360,5203,-0.044,0.992,0.312,-0.244,0,0.305,72.269
105593,137451,8340,-0.043,1.005,0.311,-0.061,0.122,0.366,72.275
105576,137616,5203,-0.043,1.005,0.311,-0.061,0.122,0.366,72.279
105576,137481,8340,-0.043,1.005,0.314,0.061,0.305,0.366,72.285
105566,137360,5203,-0.043,1.005,0.314,0.061,0.305,0.366,72.289
105566,137428,8345,-0.043,1,0.315,-0.671,0.183,0.305,72.295
105561,137360,5203,-0.043,1,0.315,-0.671,0.183,0.305,72.299
105561,137454,8340,-0.042,0.997,0.313,-1.098,0.305,0.244,72.305
105557,137360,5203,-0.042,0.997,0.313,-1.098,0.305,0.244,72.309
105557,137456,8330,-0.048,0.988,0.315,-0.549,0.427,0.366,72.315
105584,137360,5203,-0.048,0.988,0.315,-0.549,0.427,0.366,72.319
105584,137436,8348,-0.045,0.989,0.315,0.427,0.366,0.549,72.325
105560,137360,5203,-0.045,0.989,0.315,0.427,0.366,0.549,72.328
105560,137428,8339,-0.044,1.008,0.317,1.037,0.549,0.732,72.335
105566,137360,5203,-0.044,1.008,0.317,1.037,0.549,0.732,72.338
105566,137446,8335,-0.046,1.016,0.316,0.488,0.488,0.671,72.345
105573,137360,5203,-0.046,1.016,0.316,0.488,0.488,0.671,72.348
105573,137441,8337,-0.046,1.001,0.313,-1.098,0.366,0.366,72.354
105560,137360,5203,-0.046,1.001,0.313,-1.098,0.366,0.366,72.358
105560,137432,8349,-0.047,0.985,0.303,-1.159,0.366,0.183,72.364
105568,137360,5203,-0.047,0.985,0.303,-1.159,0.366,0.183,72.368
105568,137445,8339,-0.047,0.999,0.301,-0.061,0.427,0.183,72.374
105587,137360,5203,-0.047,0.999,0.301,-0.061,0.427,0.183,72.378
105587,137449,8330,-0.042,1.005,0.308,0.488,0.427,0.122,72.384
105588,137360,5203,-0.042,1.005,0.308,0.488,0.427,0.122,72.388
105588,137459,8355,-0.044,1.004,0.319,-0.366,0.488,0.427,72.394
105575,137360,5203,-0.044,1.004,0.319,-0.366,0.488,0.427,72.398
105575,137448,8342,-0.047,0.999,0.32,-0.366,0.488,0.427,72.404
105569,137360,5203,-0.043,0.992,0.318,-1.159,0.488,0.488,72.408
105569,137439,8340,-0.043,0.992,0.32,-1.159,0.488,0.488,72.414
105567,137360,5203,-0.045,0.995,0.312,-0.183,0.488,0.549,72.418
105567,137447,8342,-0.047,1.003,0.31,-0.183,0.488,0.549,72.424
105558,137360,5203,-0.047,1.005,0.315,0.488,0.427,0.549,72.427
105558,137419,8347,-0.044,1.005,0.313,0.488,0.427,0.549,72.434
105548,137360,5203,-0.042,0.997,0.309,0.183,0.427,0.488,72.437
105548,137442,8337,-0.044,0.996,0.31,0.183,0.427,0.488,72.444
105544,137360,5203,-0.045,0.999,0.306,-0.122,0.488,0.488,72.447
105544,137435,8340,-0.047,1.001,0.31,-0.122,0.488,0.488,72.453
105544,137360,5203,-0.046,1.011,0.31,-0.183,0.549,0.488,72.457
105544,137433,8323,-0.048,1.01,0.309,-0.183,0.549,0.488,72.463
105546,137360,5203,-0.044,1.006,0.312,-0.732,0.366,0.366,72.467
105546,137421,8325,-0.041,1.001,0.312,-0.732,0.366,0.366,72.473
105544,137360,5203,-0.04,0.982,0.319,-1.098,0.244,0.305,72.477
105544,137418,8333,-0.047,0.994,0.319,-1.098,0.244,0.305,72.483
105563,137360,5203,-0.049,1.018,0.303,-0.671,0.488,0.488,72.487
105563,137445,8339,-0.046,1.004,0.303,-0.671,0.488,0.488,72.493
105580,137360,5203,-0.043,0.995,0.312,0.549,0.183,0.183,72.497
105580,137458,8347,-0.041,1,0.315,0.549,0.183,0.183,72.503
105579,137360,5203,-0.048,0.998,0.315,0.854,0.122,0.366,72.507
105579,137454,8347,-0.052,1.002,0.311,0.854,0.122,0.366,72.513
105561,137360,5203,-0.048,1.002,0.312,0.122,0.427,0.366,72.517
105561,137471,8330,-0.043,1,0.316,0.122,0.427,0.366,72.523
105574,137616,5203,-0.041,0.998,0.315,-0.122,0,0.061,72.526
105574,137485,8330,-0.044,0.996,0.315,-0.122,0,0.061,72.533
105598,137616,5203,-0.046,0.995,0.311,0.122,0.244,0.305,72.536
105598,137509,8340,-0.047,0.995,0.312,0.122,0.244,0.305,72.542
105604,137616,5203,-0.043,0.997,0.312,0.305,0.244,0.183,72.546
105604,137478,8333,-0.042,1.001,0.312,0.305,0.244,0.183,72.552
105593,137616,5203,-0.04,1.005,0.311,0,-0.061,0.305,72.556
105593,137482,8337,-0.04,1.004,0.309,0,-0.061,0.305,72.562
105611,137360,5203,-0.043,1.001,0.311,0.061,0.122,0.366,72.566
105611,137469,8339,-0.044,1,0.308,0.061,0.122,0.366,72.572
105573,137616,5203,-0.042,0.997,0.309,0.183,0.183,0.366,72.576
105573,137474,8339,-0.045,1.002,0.313,0.183,0.183,0.366,72.582
105586,137360,5203,-0.045,1.006,0.308,0.122,0.244,0.427,72.586
105586,137454,8344,-0.044,1.003,0.31,0.122,0.244,0.427,72.592
105571,137360,5203,-0.043,0.999,0.314,0.061,0.122,0.183,72.596
105571,137471,8339,-0.047,0.996,0.31,0.061,0.122,0.183,72.602
105606,137360,5203,-0.046,0.995,0.308,0,0.122,0.183,72.606
105606,137462,8334,-0.046,0.995,0.316,0,0.122,0.183,72.612
105600,137616,5203,-0.046,0.999,0.317,0.305,0.183,0.366,72.616
105600,137496,8325,-0.049,1.002,0.318,0.305,0.183,0.366,72.622
105610,137360,5203,-0.048,1.003,0.313,0.061,0.244,0.427,72.625
105610,137460,8342,-0.046,1.001,0.313,0.061,0.244,0.427,72.632
105592,137360,5203,-0.044,1,0.315,-0.183,0.366,0.244,72.635
105592,137467,8345,-0.045,0.997,0.311,-0.183,0.366,0.244,72.641
105592,137616,5203,-0.047,0.998,0.312,0,0.427,0.122,72.645
105592,137498,8340,-0.049,1,0.316,0,0.427,0.122,72.651
105605,137616,5203,-0.047,1,0.318,0.061,0.61,0.244,72.655
105605,137476,8339,-0.042,0.999,0.313,0.061,0.61,0.244,72.661
105589,137360,5203,-0.042,0.997,0.316,-0.244,0.61,0.183,72.665
105589,137464,8344,-0.045,0.996,0.312,-0.244,0.61,0.183,72.671
105571,137360,5203,-0.045,0.997,0.305,-0.305,0.671,0.183,72.675
105571,137469,8336,-0.046,0.996,0.305,-0.305,0.671,0.183,72.681
105576,137360,5203,-0.046,0.993,0.308,-0.244,0.671,0.244,72.685
105576,137469,8322,-0.047,0.99,0.308,-0.244,0.671,0.244,72.691
105594,137360,5203,-0.044,0.994,0.309,-0.244,0.488,0.366,72.695
105594,137466,8341,-0.044,1,0.312,-0.244,0.488,0.366,72.701
105594,137616,5203,-0.043,0.997,0.311,0,0.427,0.427,72.705
105594,137472,8341,-0.045,0.999,0.31,0,0.427,0.427,72.711
105590,137616,5203,-0.045,1.004,0.311,0.244,0.427,0.793,72.715
105590,137487,8337,-0.042,1.006,0.312,0.244,0.427,0.793,72.721
105600,137616,5203,-0.046,1.005,0.312,-0.061,0.427,0.732,72.724
105600,137481,8333,-0.046,1,0.31,-0.061,0.427,0.732,72.731
105606,137360,5203,-0.042,0.998,0.314,-0.183,0.305,0.427,72.734
105606,137452,8346,-0.044,1.001,0.322,-0.183,0.305,0.427,72.74
105575,137360,5203,-0.046,1.002,0.319,-0.427,0.549,0.427,72.744
105575,137462,8349,-0.043,0.997,0.318,-0.427,0.549,0.427,72.75
105573,137616,5203,-0.044,1,0.317,-0.122,0.488,0.366,72.754
105573,137475,8351,-0.044,1.002,0.309,-0.122,0.488,0.366,72.76
105588,137360,5203,-0.044,1.006,0.308,-0.061,0.366,0.183,72.764
105588,137454,8343,-0.048,1.01,0.303,-0.061,0.366,0.183,72.77
105600,137616,5203,-0.046,1.004,0.308,-0.366,0.244,-0.183,72.774
105600,137484,8346,-0.043,0.994,0.307,-0.366,0.244,-0.183,72.78
105614,137616,5203,-0.044,0.991,0.305,-0.549,0.061,-0.183,72.784
105614,137499,8345,-0.045,0.988,0.304,-0.549,0.061,-0.183,72.79
105632,137616,5203,-0.049,0.987,0.306,-0.122,0.061,0.183,72.794
105632,137499,8342,-0.046,0.987,0.314,-0.122,0.061,0.183,72.8
105646,137616,5203,-0.043,0.993,0.314,0.427,0.061,0.488,72.804
105646,137524,8353,-0.046,1.007,0.304,0.427,0.061,0.488,72.81
105652,137616,5203,-0.047,1.011,0.309,0.244,0.061,0.671,72.814
105652,137514,8348,-0.043,1.012,0.32,0.244,0.061,0.671,72.82
105673,137616,5203,-0.041,1.011,0.326,-0.793,0.122,0.488,72.823
105673,137545,8359,-0.045,1.004,0.321,-0.793,0.122,0.488,72.83
105695,137616,5203,-0.05,0.995,0.31,-1.524,0.488,0.549,72.833
105695,137540,8360,-0.047,0.99,0.313,-1.524,0.488,0.549,72.839
105681,137616,5203,-0.047,0.99,0.313,-1.524,0.488,0.549,72.843
105681,137552,8364,-0.044,0.998,0.317,-1.037,0.61,0.488,72.849
105704,137616,5203,-0.044,0.998,0.317,-1.037,0.61,0.488,72.853
105704,137549,8357,-0.048,1.003,0.314,0.122,0.671,0.488,72.859
105692,137616,5203,-0.048,1.003,0.314,0.122,0.671,0.488,72.863
105692,137562,8372,-0.043,1.006,0.315,0.793,0.854,0.488,72.869
105707,137616,5203,-0.043,1.006,0.315,0.793,0.854,0.488,72.873
105707,137561,8360,-0.043,1.009,0.312,0.488,0.732,0.366,72.879
105718,137616,5203,-0.043,1.009,0.312,0.488,0.732,0.366,72.883
105718,137567,8352,-0.044,1,0.312,0.183,0.915,0.122,72.889
105704,137616,5203,-0.044,1,0.312,0.183,0.915,0.122,72.893
105704,137553,8358,-0.044,0.996,0.305,0.244,0.976,0.061,72.899
105687,137616,5203,-0.044,0.996,0.305,0.244,0.976,0.061,72.903
105687,137563,8345,-0.046,0.998,0.302,0.122,0.793,0.244,72.909
105689,137616,5203,-0.046,0.998,0.302,0.122,0.793,0.244,72.912
105689,137555,8352,-0.043,0.998,0.307,-0.061,0.671,0.244,72.919
105700,137616,5203,-0.043,0.998,0.307,-0.061,0.671,0.244,72.922
105700,137556,8336,-0.046,0.998,0.307,-0.427,0.549,0.244,72.929
105705,137616,5203,-0.046,0.998,0.307,-0.427,0.549,0.244,72.932
105705,137556,8347,-0.044,1,0.305,-0.549,0.305,0.427,72.938
105709,137616,5203,-0.044,1,0.305,-0.549,0.305,0.427,72.942
105709,137565,8358,-0.04,0.989,0.317,-0.793,0.244,0.488,72.948
105723,137616,5203,-0.04,0.989,0.317,-0.793,0.244,0.488,72.952
105723,137561,8346,-0.05,1.013,0.31,-0.244,0.122,0.488,72.958
105710,137616,5203,-0.05,1.013,0.31,-0.244,0.122,0.488,72.962
105710,137573,8366,-0.039,1.001,0.317,0.061,0.305,0.488,72.968
105708,137616,5203,-0.039,1.001,0.317,0.061,0.305,0.488,72.972
105708,137568,8360,-0.042,1.01,0.322,0.427,0.122,0.122,72.978
105717,137616,5203,-0.042,1.01,0.322,0.427,0.122,0.122,72.982
105717,137557,8362,-0.041,1.01,0.313,-0.061,0.366,0.305,72.988
105719,137616,5203,-0.042,1,0.308,-0.061,0.366,0.305,72.992
105719,137552,8364,-0.042,0.99,0.313,0,0.61,0,72.998
105697,137616,5203,-0.045,0.989,0.315,0,0.61,0,73.002
105697,137563,8357,-0.046,0.995,0.312,0.122,0.671,0.366,73.008
105707,137616,5203,-0.046,0.997,0.306,0.122,0.671,0.366,73.011
105707,137565,8351,-0.047,0.994,0.31,0.305,0.915,0.488,73.018
105698,137616,5203,-0.044,0.994,0.312,0.305,0.915,0.488,73.021
105698,137555,8355,-0.043,0.999,0.313,0.061,0.671,0.549,73.028
105701,137616,5203,-0.044,1.004,0.312,0.061,0.671,0.549,73.031
105701,137583,8361,-0.043,1.003,0.319,-0.305,0.671,0.671,73.037
105700,137616,5203,-0.048,1.004,0.314,-0.305,0.671,0.671,73.041
105700,137574,8358,-0.046,1.005,0.315,-0.549,0.732,0.366,73.047
105707,137616,5203,-0.043,1.007,0.315,-0.549,0.732,0.366,73.051
105707,137560,8366,-0.046,1.003,0.312,-0.976,0.61,0.244,73.057
105708,137616,5203,-0.048,0.992,0.309,-0.976,0.61,0.244,73.061
105708,137547,8371,-0.048,0.995,0.309,-0.366,0.671,0.122,73.067
105727,137616,5203,-0.05,0.994,0.309,-0.366,0.671,0.122,73.071
105727,137591,8364,-0.049,0.994,0.311,0.366,0.61,0.183,73.077
105694,137616,5203,-0.048,0.995,0.309,0.366,0.61,0.183,73.081
105694,137576,8360,-0.049,0.994,0.305,0.427,0.61,0.305,73.087
105702,137616,5203,-0.052,0.994,0.308,0.427,0.61,0.305,73.091
105702,137542,8361,-0.049,0.99,0.309,0.061,0.549,0.427,73.097
105666,137616,5203,-0.051,0.993,0.309,0.061,0.549,0.427,73.101
105666,137522,8345,-0.054,1.002,0.305,-0.244,0.549,0.671,73.107
105660,137616,5203,-0.049,1.003,0.307,-0.244,0.549,0.671,73.11
105660,137528,8349,-0.05,1.004,0.307,-0.366,0.427,0.488,73.117
105648,137616,5203,-0.05,1.002,0.311,-0.366,0.427,0.488,73.12
105648,137501,8343,-0.05,1.002,0.312,-0.427,0.427,0.488,73.127
105633,137616,5203,-0.046,1.003,0.312,-0.427,0.427,0.488,73.13
105633,137494,8359,-0.045,1.001,0.313,-0.061,0.488,0.549,73.136
105632,137616,5203,-0.045,1,0.313,-0.061,0.488,0.549,73.14
105632,137520,8356,-0.045,1.001,0.312,0.061,0.366,0.366,73.146
105621,137616,5203,-0.045,1,0.313,0.061,0.366,0.366,73.15
105621,137504,8348,-0.044,1,0.313,0.488,0.366,0.183,73.156
105607,137360,5203,-0.042,0.995,0.313,0.488,0.366,0.183,73.16
105607,137456,8344,-0.04,0.995,0.312,0.854,0.305,0,73.166
105597,137360,5203,-0.04,0.997,0.314,0.854,0.305,0,73.17
105597,137454,8343,-0.041,0.999,0.32,0.671,0.244,0.061,73.176
105599,137360,5203,-0.039,1.001,0.317,0.671,0.244,0.061,73.18
105599,137452,8347,-0.04,1.001,0.313,0.183,0.427,0.244,73.186
105600,137616,5203,-0.042,0.997,0.313,0.183,0.427,0.244,73.19
105600,137484,8340,-0.042,0.996,0.311,0.183,0.305,0.183,73.196
105601,137616,5203,-0.043,0.998,0.314,0.183,0.305,0.183,73.2
105601,137478,8348,-0.046,1,0.313,0.305,0.427,0.366,73.206
105596,137360,5203,-0.046,1.002,0.308,0.305,0.427,0.366,73.209
105596,137471,8337,-0.043,1.002,0.31,0.244,0.732,0.61,73.216
105591,137360,5203,-0.047,1,0.307,0.244,0.732,0.61,73.219
105591,137462,8333,-0.046,1.001,0.309,-0.366,0.61,0.61,73.226
105615,137616,5203,-0.047,1,0.312,-0.366,0.61,0.61,73.229
105615,137481,8341,-0.048,1,0.31,-0.427,0.732,0.61,73.235
105599,137360,5203,-0.046,1,0.312,-0.427,0.732,0.61,73.239
105599,137458,8361,-0.049,1.003,0.308,0.366,0.793,0.671,73.245
105602,137616,5203,-0.048,1.008,0.313,0.366,0.793,0.671,73.249
105602,137489,8346,-0.047,1.007,0.315,0.793,0.732,0.61,73.255
105614,137616,5203,-0.046,1.007,0.31,0.793,0.732,0.61,73.259
105614,137510,8337,-0.042,1.005,0.307,0.427,0.732,0.244,73.265
105624,137616,5203,-0.045,1.004,0.305,0.427,0.732,0.244,73.269
105624,137513,8351,-0.046,1.001,0.305,0.244,0.732,0.122,73.275
105619,137616,5203,-0.044,1,0.308,0.244,0.732,0.122,73.279
105619,137519,8340,-0.042,1,0.31,0.122,0.549,0.183,73.285
105623,137616,5203,-0.043,1.001,0.305,0.122,0.549,0.183,73.289
105623,137524,8356,-0.043,1.001,0.305,-0.122,0.427,0.244,73.295
105626,137616,5203,-0.044,0.996,0.304,-0.122,0.427,0.244,73.299
105626,137525,8351,-0.045,0.995,0.307,-0.183,0.427,0.244,73.305
105622,137616,5203,-0.042,0.999,0.307,-0.183,0.427,0.244,73.308
105622,137501,8330,-0.043,1.003,0.31,-0.244,0.305,0.488,73.315
105621,137616,5203,-0.045,1.004,0.309,-0.244,0.305,0.488,73.318
105621,137492,8335,-0.049,1.001,0.308,-0.305,0.305,0.549,73.325
105620,137616,5203,-0.047,1,0.311,-0.305,0.305,0.549,73.328
105620,137499,8341,-0.047,0.998,0.312,-0.244,0.366,0.427,73.334
105641,137616,5203,-0.048,0.997,0.314,-0.244,0.366,0.427,73.338
105641,137524,8349,-0.049,0.995,0.308,-0.061,0.305,0.488,73.344
105629,137616,5203,-0.049,0.997,0.309,-0.061,0.305,0.488,73.348
105629,137526,8345,-0.048,1,0.316,0.305,0.366,0.488,73.354
105648,137616,5203,-0.049,1.004,0.312,0.305,0.366,0.488,73.358
105648,137499,8339,-0.047,1.003,0.31,0.183,0.488,0.366,73.364
105617,137616,5203,-0.047,1,0.309,0.183,0.488,0.366,73.368
105617,137506,8353,-0.043,0.998,0.308,0,0.427,0.427,73.374
105629,137616,5203,-0.045,1,0.309,0,0.427,0.427,73.378
105629,137502,8337,-0.046,1.003,0.307,-0.244,0.427,0.427,73.384
105625,137616,5203,-0.046,1.004,0.304,-0.244,0.427,0.427,73.388
105625,137497,8342,-0.041,1.001,0.306,-0.244,0.427,0.366,73.394
105614,137616,5203,-0.041,0.998,0.308,-0.244,0.427,0.366,73.398
105614,137501,8347,-0.042,0.991,0.31,0.061,0.183,0.244,73.404
105612,137616,5203,-0.042,0.996,0.31,0.061,0.183,0.244,73.407
105612,137505,8325,-0.038,0.994,0.306,0.732,0.366,0.305,73.414
105638,137616,5203,-0.036,1,0.315,0.732,0.366,0.305,73.417
105638,137502,8345,-0.041,1.017,0.31,1.341,0.549,0.61,73.424
105632,137616,5203,-0.041,1.017,0.31,1.341,0.549,0.61,73.427
105632,137506,8354,-0.043,0.997,0.312,0.976,0.671,0.549,73.433
105631,137616,5203,-0.043,0.997,0.312,0.976,0.671,0.549,73.437
105631,137515,8334,-0.051,1.001,0.307,0.549,0.61,0.488,73.443
105625,137616,5203,-0.051,1.001,0.307,0.549,0.61,0.488,73.447
105625,137537,8345,-0.058,0.988,0.297,1.098,0.488,0.183,73.453
105642,137616,5203,-0.058,0.988,0.297,1.098,0.488,0.183,73.457
105642,137505,8337,-0.049,0.991,0.314,1.707,0,0.061,73.463
105628,137616,5203,-0.049,0.991,0.314,1.707,0,0.061,73.467
105628,137551,8355,-0.051,1.006,0.317,1.585,-0.061,0.244,73.473
105643,137616,5203,-0.051,1.006,0.317,1.585,-0.061,0.244,73.477
105643,137553,8350,-0.048,1.007,0.305,1.159,0.183,0.122,73.483
105642,137616,5203,-0.048,1.007,0.305,1.159,0.183,0.122,73.487
105642,137519,8355,-0.046,0.997,0.307,0.549,0.122,0.061,73.493
105638,137616,5203,-0.046,0.997,0.307,0.549,0.122,0.061,73.497
105638,137524,8337,-0.045,0.999,0.309,1.037,0.244,0.305,73.503
105649,137616,5203,-0.045,0.999,0.309,1.037,0.244,0.305,73.506
105649,137523,8343,-0.044,1.006,0.309,0.732,0.427,0.549,73.513
105644,137616,5203,-0.044,1.006,0.309,0.732,0.427,0.549,73.516
105644,137542,8343,-0.045,1.004,0.311,-0.61,0.366,0.305,73.522
105665,137616,5203,-0.045,1.004,0.311,-0.61,0.366,0.305,73.526
105665,137555,8338,-0.047,0.986,0.305,-0.854,0.305,0.244,73.532
105686,137616,5203,-0.047,0.986,0.305,-0.854,0.305,0.244,73.536
105686,137556,8352,-0.045,0.995,0.31,0.427,0.244,0.61,73.542
105705,137616,5203,-0.045,0.995,0.31,0.427,0.244,0.61,73.546
105705,137555,8349,-0.041,1.008,0.309,1.341,0.061,0.793,73.552
105711,137616,5203,-0.041,1.008,0.309,1.341,0.061,0.793,73.556
105711,137564,8366,-0.038,1.008,0.316,1.341,0.061,0.793,73.562
105708,137616,5203,-0.043,1.014,0.315,0.793,0.244,0.549,73.566
105708,137547,8358,-0.045,1.014,0.313,0.793,0.244,0.549,73.572
105735,137616,5203,-0.042,1.007,0.309,0,0.305,0.183,73.576
105735,137557,8359,-0.043,0.997,0.311,0,0.305,0.183,73.582
105715,137616,5203,-0.044,0.992,0.309,-0.183,0.305,0.183,73.586
105715,137584,8373,-0.043,0.997,0.308,-0.183,0.305,0.183,73.592
105698,137616,5203,-0.044,0.999,0.306,0.061,0.549,0.244,73.595
105698,137554,8369,-0.046,0.998,0.312,0.061,0.549,0.244,73.602
105718,137616,5203,-0.052,0.995,0.311,0.122,0.61,0.305,73.605
105718,137573,8365,-0.048,0.993,0.309,0.122,0.61,0.305,73.612
105713,137616,5203,-0.048,0.995,0.309,-0.427,0.549,0.488,73.615
105713,137565,8359,-0.048,0.999,0.309,-0.427,0.549,0.488,73.621
105716,137616,5203,-0.044,1,0.313,-0.488,0.366,0.427,73.625
105716,137551,8375,-0.044,1.005,0.312,-0.488,0.366,0.427,73.631
105695,137616,5203,-0.044,1.003,0.307,-0.427,0.488,0.305,73.635
105695,137540,8364,-0.047,0.999,0.308,-0.427,0.488,0.305,73.641
105717,137616,5203,-0.044,0.997,0.306,-0.427,0.61,0.427,73.645
105717,137573,8366,-0.042,0.998,0.309,-0.427,0.61,0.427,73.651
105732,137616,5203,-0.041,0.998,0.306,-0.183,0.671,0.549,73.655
105732,137591,8338,-0.042,1.006,0.306,-0.183,0.671,0.549,73.661
105720,137616,5203,-0.044,1.011,0.299,0.244,0.915,0.732,73.665
105720,137551,8356,-0.042,1.004,0.311,0.244,0.915,0.732,73.671
105745,137616,5203,-0.044,1.007,0.308,0.488,0.915,0.549,73.675
