100230,135312,5203,0.009,0.797,0.691,0.122,0.305,0.549,615.718
100230,135226,7860,0.003,0.797,0.681,0,0.427,0.305,615.724
100244,135312,5203,0.003,0.797,0.681,0,0.427,0.305,615.728
100244,135191,7841,0.002,0.787,0.681,-0.244,0.366,0.549,615.734
100247,135312,5203,0.002,0.787,0.681,-0.244,0.366,0.549,615.738
100247,135196,7827,0.004,0.797,0.683,0.122,0.488,0.671,615.744
100232,135312,5203,0.004,0.797,0.683,0.122,0.488,0.671,615.748
100232,135189,7838,0.01,0.804,0.687,-0.183,0.488,0.488,615.754
100202,135312,5203,0.01,0.804,0.687,-0.183,0.488,0.488,615.758
100202,135189,7849,0.009,0.795,0.69,-0.61,0.305,0.549,615.764
100201,135056,5203,0.009,0.795,0.69,-0.61,0.305,0.549,615.767
100201,135167,7848,0.002,0.791,0.686,-0.732,0.366,0.488,615.774
100196,135312,5203,0.002,0.791,0.686,-0.732,0.366,0.488,615.777
100196,135187,7840,0.006,0.793,0.685,-0.549,0.427,0.305,615.784
100204,135312,5203,0.006,0.793,0.685,-0.549,0.427,0.305,615.787
100204,135185,7837,0.003,0.797,0.686,-0.061,0.427,0.366,615.793
100225,135312,5203,0.003,0.797,0.686,-0.061,0.427,0.366,615.797
100225,135187,7838,0.005,0.799,0.688,0.122,0.488,0.305,615.803
100236,135312,5203,0.005,0.799,0.688,0.122,0.488,0.305,615.807
100236,135192,7852,0.003,0.793,0.686,-0.305,0.244,0.244,615.813
100240,135312,5203,0.003,0.793,0.686,-0.305,0.244,0.244,615.817
100240,135221,7848,0.003,0.789,0.684,-0.366,0.183,0.366,615.823
100267,135312,5203,0.003,0.789,0.684,-0.366,0.183,0.366,615.827
100267,135238,7860,0.004,0.792,0.68,-0.366,0.183,0.366,615.833
100286,135312,5203,0.006,0.794,0.684,0.183,0.427,0.244,615.837
100286,135233,7844,0.005,0.795,0.685,0.183,0.427,0.244,615.843
100282,135312,5203,0.008,0.795,0.688,0,0.305,0.122,615.847
100282,135231,7847,0.005,0.797,0.688,0,0.305,0.122,615.853
100284,135312,5203,0.005,0.795,0.686,-0.549,0.244,0.183,615.857
100284,135236,7859,0.003,0.794,0.69,-0.549,0.244,0.183,615.863
100290,135312,5203,0.006,0.794,0.69,-0.793,0.305,0.183,615.866
100290,135263,7851,0.004,0.792,0.686,-0.793,0.305,0.183,615.873
100296,135312,5203,0.005,0.791,0.685,-0.61,0.183,0.122,615.876
100296,135228,7843,0.006,0.789,0.685,-0.61,0.183,0.122,615.883
100321,135312,5203,0.002,0.788,0.689,-0.122,0.122,0.122,615.886
100321,135236,7861,0.004,0.793,0.685,-0.122,0.122,0.122,615.892
100307,135312,5203,0.001,0.797,0.685,0.488,0.122,0.122,615.896
100307,135219,7851,-0,0.798,0.686,0.488,0.122,0.122,615.902
100315,135312,5203,0.003,0.798,0.687,0.305,0.122,0.183,615.906
100315,135249,7870,0.001,0.796,0.685,0.305,0.122,0.183,615.912
100324,135312,5203,0.002,0.79,0.683,0.061,0.061,0.183,615.916
100324,135267,7865,0.002,0.796,0.683,0.061,0.061,0.183,615.922
100320,135312,5203,0.004,0.799,0.689,0.122,0.061,0.183,615.926
100320,135253,7855,0.007,0.8,0.688,0.122,0.061,0.183,615.932
100322,135312,5203,0.009,0.801,0.691,0.183,0.366,-0.061,615.936
100322,135261,7865,0.005,0.799,0.692,0.183,0.366,-0.061,615.942
100317,135312,5203,0.006,0.796,0.687,0,0.305,0.122,615.946
100317,135251,7857,0.008,0.79,0.685,0,0.305,0.122,615.952
100305,135312,5203,0.006,0.794,0.682,-0.122,0.244,0.183,615.956
100305,135254,7858,0.006,0.798,0.684,-0.122,0.244,0.183,615.962
100333,135312,5203,0.005,0.8,0.688,-0.244,0.305,0.122,615.965
100333,135233,7860,0.01,0.796,0.686,-0.244,0.305,0.122,615.972
100346,135312,5203,0.01,0.794,0.69,-0.488,0.366,0.244,615.975
100346,135246,7853,0.007,0.793,0.69,-0.488,0.366,0.244,615.981
100315,135312,5203,0.001,0.788,0.687,-0.488,0.427,0.305,615.985
100315,135235,7858,0.001,0.789,0.69,-0.488,0.427,0.305,615.991
100312,135312,5203,0.002,0.794,0.689,-0.366,0.366,0.366,615.995
100312,135235,7861,0.007,0.797,0.687,-0.366,0.366,0.366,616.001
100294,135312,5203,0.009,0.795,0.688,0,0.244,0.183,616.005
100294,135206,7855,0.008,0.794,0.687,0,0.244,0.183,616.011
100281,135312,5203,0.005,0.793,0.688,0,0.183,0.122,616.015
100281,135222,7855,0.002,0.791,0.687,0,0.183,0.122,616.021
100280,135312,5203,0.002,0.795,0.69,-0.244,0.183,0.183,616.025
100280,135213,7849,0.004,0.795,0.691,-0.244,0.183,0.183,616.031
100268,135312,5203,0.004,0.795,0.686,-0.183,0.183,0.061,616.035
100268,135198,7853,0.004,0.793,0.681,-0.183,0.183,0.061,616.041
100250,135312,5203,0.005,0.793,0.685,-0.122,0.122,0.061,616.045
100250,135202,7851,0.006,0.798,0.687,-0.122,0.122,0.061,616.051
100259,135312,5203,0.005,0.798,0.685,-0.244,0.122,0,616.054
100259,135201,7867,0.007,0.799,0.686,-0.244,0.122,0,616.061
100288,135312,5203,0.009,0.8,0.688,-0.488,0.122,0.061,616.064
100288,135192,7851,0.008,0.798,0.692,-0.488,0.122,0.061,616.071
100283,135312,5203,0.005,0.801,0.689,-0.549,0.183,0.305,616.074
100283,135212,7864,0.005,0.798,0.687,-0.549,0.183,0.305,616.08
100286,135312,5203,0.006,0.793,0.69,-0.549,0.427,0.305,616.084
100286,135209,7856,0.004,0.794,0.691,-0.549,0.427,0.305,616.09
100305,135312,5203,0.007,0.791,0.688,-0.427,0.305,0.244,616.094
100305,135215,7851,0.005,0.791,0.69,-0.427,0.305,0.244,616.1
100323,135312,5203,0.004,0.792,0.69,-0.366,0.305,0.244,616.104
100323,135255,7854,0.004,0.791,0.689,-0.366,0.305,0.244,616.11
100317,135312,5203,0.005,0.791,0.687,-0.061,0.427,0.488,616.114
100317,135234,7856,0.006,0.796,0.685,-0.061,0.427,0.488,616.12
100327,135312,5203,0.004,0.793,0.682,-0.061,0.305,0.305,616.124
100327,135228,7872,0.003,0.789,0.686,-0.061,0.305,0.305,616.13
100338,135312,5203,0.003,0.793,0.683,0,0.305,0.305,616.134
100338,135252,7851,0.004,0.795,0.683,0,0.305,0.305,616.14
100341,135312,5203,0.003,0.796,0.682,-0.122,0.305,0.305,616.144
100341,135251,7854,0.001,0.793,0.681,-0.122,0.305,0.305,616.15
100359,135312,5203,0.001,0.79,0.685,-0.366,0.244,0.183,616.154
100359,135262,7861,0.004,0.79,0.683,-0.366,0.244,0.183,616.16
100361,135312,5203,0.002,0.791,0.688,-0.549,0.183,0.366,616.163
100361,135244,7865,0.003,0.796,0.691,-0.549,0.183,0.366,616.17
100359,135312,5203,0.004,0.797,0.691,-0.488,0.122,0.244,616.173
100359,135269,7850,0.006,0.794,0.691,-0.488,0.122,0.244,616.179
100360,135312,5203,0.005,0.794,0.691,-0.61,0.122,0.305,616.183
100360,135252,7874,0.008,0.793,0.688,-0.61,0.122,0.305,616.189
100367,135312,5203,0.004,0.792,0.689,-0.793,0.183,0.427,616.193
100367,135277,7855,0.003,0.795,0.689,-0.793,0.183,0.427,616.199
100341,135312,5203,0.006,0.796,0.695,-0.366,0.366,0.427,616.203
100341,135266,7850,0.005,0.796,0.692,-0.366,0.366,0.427,616.209
100348,135312,5203,0.007,0.792,0.693,-0.427,0.427,0.366,616.213
100348,135262,7857,0.007,0.788,0.692,-0.427,0.427,0.366,616.219
100345,135312,5203,0.004,0.789,0.691,-0.061,0.244,0.366,616.223
100345,135243,7861,0.001,0.795,0.686,-0.061,0.244,0.366,616.229
100347,135312,5203,-0.001,0.802,0.682,0.61,0.549,0.244,616.233
100347,135253,7865,0.002,0.804,0.68,0.61,0.549,0.244,616.239
100380,135312,5203,0.008,0.802,0.679,0.122,0.305,-0.061,616.243
100380,135256,7849,0.009,0.794,0.683,0.122,0.305,-0.061,616.249
100374,135312,5203,0.006,0.791,0.682,-0.305,0.061,-0.061,616.253
100374,135238,7858,0.004,0.787,0.685,-0.305,0.061,-0.061,616.259
100360,135312,5203,0.004,0.787,0.685,-0.305,0.061,-0.061,616.262
100360,135240,7859,0.004,0.797,0.691,-0.183,0.122,0.061,616.269
100351,135312,5203,0.004,0.797,0.691,-0.183,0.122,0.061,616.272
100351,135270,7873,0.01,0.798,0.682,0,0.061,0.061,616.278
100345,135312,5203,0.01,0.798,0.682,0,0.061,0.061,616.282
100345,135249,7861,0.007,0.795,0.686,-0.427,0.061,0.122,616.288
100364,135312,5203,0.007,0.795,0.686,-0.427,0.061,0.122,616.292
100364,135234,7860,0.004,0.794,0.683,-0.549,0,0.122,616.298
100363,135312,5203,0.004,0.794,0.683,-0.549,0,0.122,616.302
100363,135247,7857,0.006,0.797,0.686,-0.305,0.061,0.244,616.308
100364,135312,5203,0.006,0.797,0.686,-0.305,0.061,0.244,616.312
100364,135241,7871,0.005,0.793,0.689,-0.305,0.183,0.305,616.318
100372,135312,5203,0.005,0.793,0.689,-0.305,0.183,0.305,616.322
100372,135263,7857,0.005,0.792,0.691,-0.244,0.122,0.244,616.328
100367,135312,5203,0.005,0.792,0.691,-0.244,0.122,0.244,616.332
100367,135272,7863,0.006,0.794,0.688,-0.122,0.183,0.183,616.338
100366,135312,5203,0.006,0.794,0.688,-0.122,0.183,0.183,616.342
100366,135262,7851,0.003,0.796,0.687,-0.305,0.305,0.122,616.348
100377,135312,5203,0.003,0.796,0.687,-0.305,0.305,0.122,616.351
100377,135254,7857,0.005,0.795,0.687,-0.122,0.122,0.061,616.358
100375,135312,5203,0.005,0.795,0.687,-0.122,0.122,0.061,616.361
100375,135260,7867,0.006,0.792,0.692,-0.244,0.183,0,616.367
100363,135312,5203,0.006,0.792,0.692,-0.244,0.183,0,616.371
100363,135240,7860,0.005,0.794,0.686,-0.366,0.244,0.122,616.377
100364,135312,5203,0.005,0.794,0.686,-0.366,0.244,0.122,616.381
100364,135243,7858,0.008,0.794,0.684,-0.488,0.244,0.183,616.387
100393,135312,5203,0.008,0.794,0.684,-0.488,0.244,0.183,616.391
100393,135273,7850,0.001,0.795,0.691,-0.366,0.366,0.244,616.397
100363,135312,5203,0.001,0.795,0.691,-0.366,0.366,0.244,616.401
100363,135239,7856,0.005,0.795,0.686,-0.366,0.366,0.183,616.407
100364,135312,5203,0.005,0.793,0.688,-0.366,0.366,0.183,616.411
100364,135230,7857,0.006,0.793,0.689,-0.488,0.244,0.244,616.417
100370,135312,5203,0.003,0.794,0.69,-0.488,0.244,0.244,616.421
100370,135256,7865,0.003,0.793,0.691,-0.427,0.305,0.305,616.427
100361,135312,5203,0.003,0.795,0.688,-0.427,0.305,0.305,616.431
100361,135256,7868,0.005,0.796,0.689,-0.488,0.366,0.244,616.437
100392,135312,5203,0.005,0.794,0.689,-0.488,0.366,0.244,616.441
100392,135265,7860,0.008,0.796,0.69,-0.671,0.305,0.122,616.447
100385,135312,5203,0.005,0.793,0.688,-0.671,0.305,0.122,616.45
100385,135258,7858,0.002,0.791,0.685,-0.671,0.427,0.183,616.457
100389,135312,5203,0.003,0.791,0.684,-0.671,0.427,0.183,616.46
100389,135260,7860,0.006,0.793,0.688,-0.366,0.488,0.305,616.466
100384,135312,5203,0.004,0.797,0.686,-0.366,0.488,0.305,616.47
100384,135263,7857,0.004,0.8,0.691,-0.061,0.488,0.244,616.476
100393,135312,5203,0.004,0.798,0.691,-0.061,0.488,0.244,616.48
100393,135265,7876,0.002,0.793,0.688,-0.732,0.427,0.244,616.486
100392,135312,5203,0.006,0.785,0.685,-0.732,0.427,0.244,616.49
100392,135255,7858,0.005,0.785,0.692,-0.915,0.183,0.366,616.496
100376,135312,5203,0.002,0.791,0.692,-0.915,0.183,0.366,616.5
100376,135245,7859,0.003,0.797,0.69,0,0.305,0.427,616.506
100385,135312,5203,0.004,0.797,0.693,0,0.305,0.427,616.51
100385,135251,7866,0.007,0.798,0.686,0.183,0.488,0.366,616.516
100389,135312,5203,0.006,0.797,0.685,0.183,0.488,0.366,616.52
100389,135236,7849,0.005,0.789,0.682,-0.732,0.061,0.366,616.526
100371,135312,5203,0.002,0.787,0.682,-0.732,0.061,0.366,616.53
100371,135248,7861,0,0.793,0.683,-0.488,0.061,0.244,616.536
100380,135312,5203,0.001,0.798,0.68,-0.488,0.061,0.244,616.539
100380,135273,7859,0.003,0.8,0.68,-0.183,0.061,0.183,616.546
100395,135312,5203,0.004,0.8,0.683,-0.183,0.061,0.183,616.549
100395,135250,7860,0.008,0.802,0.69,-0.915,-0.366,0.366,616.556
100389,135312,5203,0.008,0.798,0.693,-0.915,-0.366,0.366,616.559
100389,135263,7866,0.006,0.799,0.691,-2.073,-0.244,0.488,616.565
100397,135312,5203,0.005,0.788,0.689,-2.073,-0.244,0.488,616.569
100397,135263,7851,0.008,0.776,0.691,-2.317,-0.244,0.488,616.575
100382,135312,5203,0.005,0.778,0.694,-2.317,-0.244,0.488,616.579
100382,135254,7861,0.007,0.791,0.693,-0.61,0.061,0.61,616.585
100412,135312,5203,0.003,0.798,0.693,-0.61,0.061,0.61,616.589
100412,135271,7863,0.003,0.799,0.694,0.427,0.549,0.488,616.595
100415,135312,5203,0.006,0.791,0.69,0.427,0.549,0.488,616.599
100415,135289,7859,0.007,0.788,0.685,-0.061,0.244,0.366,616.605
100414,135312,5203,0.003,0.786,0.686,-0.061,0.244,0.366,616.609
100414,135288,7868,0.001,0.787,0.687,-0.183,0.183,0.305,616.615
100433,135312,5203,-0,0.795,0.685,-0.183,0.183,0.305,616.619
100433,135286,7862,0.002,0.798,0.686,0.366,0.427,0.244,616.625
100431,135312,5203,0.004,0.795,0.691,0.366,0.427,0.244,616.629
100431,135288,7874,0.006,0.794,0.686,0.244,0.305,0.244,616.635
100455,135312,5203,0.006,0.79,0.685,0.244,0.305,0.244,616.638
100455,135308,7866,0.006,0.788,0.685,0.122,0.244,0.183,616.645
100439,135312,5203,0.003,0.791,0.687,0.122,0.244,0.183,616.648
100439,135299,7870,0.004,0.8,0.689,0.183,0.305,0.122,616.655
100446,135312,5203,0.007,0.804,0.685,0.183,0.305,0.122,616.658
100446,135299,7866,0.009,0.802,0.684,-0.122,0.244,-0.061,616.664
100440,135312,5203,0.009,0.797,0.69,-0.122,0.244,-0.061,616.668
100440,135285,7861,0.005,0.794,0.692,-0.183,0.122,0.122,616.674
100453,135312,5203,0.001,0.795,0.693,-0.183,0.122,0.122,616.678
100453,135314,7869,0.003,0.796,0.693,-0.366,0.366,0.183,616.684
100432,135312,5203,0.008,0.792,0.692,-0.366,0.366,0.183,616.688
100432,135300,7878,0.009,0.791,0.691,-0.183,0.427,0.183,616.694
100445,135312,5203,0.009,0.79,0.688,-0.183,0.427,0.183,616.698
100445,135295,7847,0.003,0.79,0.687,0.61,0.61,0.305,616.704
100448,135312,5203,0.001,0.795,0.685,0.61,0.61,0.305,616.708
100448,135290,7879,0.003,0.799,0.683,0.488,0.549,0.244,616.714
100446,135312,5203,0.007,0.798,0.683,0.488,0.549,0.244,616.718
100446,135272,7856,0.009,0.795,0.686,-0.061,0.244,-0.122,616.724
100442,135312,5203,0.005,0.787,0.685,-0.061,0.244,-0.122,616.728
100442,135313,7865,0.003,0.787,0.688,-0.061,0.366,0,616.734
100462,135312,5203,0.004,0.788,0.688,-0.061,0.366,0,616.737
100462,135274,7863,0.005,0.793,0.689,-0.061,0.366,0.061,616.744
100454,135312,5203,0.005,0.794,0.687,-0.061,0.366,0.061,616.747
100454,135297,7851,0.006,0.795,0.688,-0.183,0.305,-0.061,616.754
100426,135312,5203,0.007,0.795,0.69,-0.183,0.305,-0.061,616.757
100426,135284,7875,0.005,0.79,0.69,-0.366,0.244,0.122,616.763
100427,135312,5203,0.003,0.79,0.686,-0.366,0.244,0.122,616.767
100427,135283,7859,0.005,0.788,0.684,-0.488,0.244,0.183,616.773
100414,135312,5203,0.003,0.785,0.682,-0.488,0.244,0.183,616.777
100414,135261,7865,0.003,0.788,0.689,-0.183,0.061,0.244,616.783
100399,135312,5203,0.006,0.797,0.687,-0.183,0.061,0.244,616.787
100399,135246,7859,0.008,0.802,0.688,-0.244,0.061,0.183,616.793
100390,135312,5203,0.011,0.8,0.696,-0.244,0.061,0.183,616.797
100390,135238,7851,0.01,0.796,0.694,0.244,0.244,0.061,616.803
100395,135312,5203,0.005,0.799,0.693,0.244,0.244,0.061,616.807
100395,135238,7865,0.002,0.797,0.69,0.366,0.305,0.305,616.813
100372,135312,5203,0.002,0.8,0.688,0.366,0.305,0.305,616.817
100372,135226,7867,0.004,0.799,0.686,0.061,0.488,0.183,616.823
100347,135312,5203,0.011,0.794,0.683,0.061,0.488,0.183,616.827
100347,135203,7874,0.008,0.793,0.684,-0.244,0.427,0.244,616.833
100297,135312,5203,0.003,0.789,0.686,-0.244,0.427,0.244,616.836
100297,135174,7838,0.005,0.79,0.687,-0.061,0.427,0.244,616.843
100247,135056,5203,0.005,0.79,0.687,-0.061,0.427,0.244,616.846
100247,135127,7829,0.006,0.792,0.684,0.061,0.427,0.305,616.853
100232,135056,5203,0.006,0.792,0.684,0.061,0.427,0.305,616.856
100232,135104,7832,0.006,0.792,0.679,0,0.366,0.427,616.862
100206,135056,5203,0.006,0.792,0.679,0,0.366,0.427,616.866
100206,135087,7836,0.002,0.794,0.686,-0.427,0.305,0.305,616.872
100210,135056,5203,0.002,0.794,0.686,-0.427,0.305,0.305,616.876
100210,135106,7832,0.005,0.792,0.69,-0.976,0.244,0.244,616.882
100199,135056,5203,0.005,0.792,0.69,-0.976,0.244,0.244,616.886
100199,135112,7855,0.004,0.784,0.694,-0.915,0.122,0.305,616.892
100218,135056,5203,0.004,0.784,0.694,-0.915,0.122,0.305,616.896
100218,135121,7837,0.004,0.793,0.697,-0.61,0.305,0.366,616.902
100223,135056,5203,0.004,0.793,0.697,-0.61,0.305,0.366,616.906
100223,135151,7830,0.006,0.791,0.694,-0.305,0.366,0.366,616.912
100236,135056,5203,0.006,0.791,0.694,-0.305,0.366,0.366,616.916
100236,135134,7825,0.001,0.786,0.692,-0.488,0.366,0.427,616.922
100252,135056,5203,0.001,0.786,0.692,-0.488,0.366,0.427,616.926
100252,135154,7843,0.005,0.791,0.688,0,0.488,0.488,616.932
100268,135056,5203,0.005,0.791,0.688,0,0.488,0.488,616.935
100268,135144,7841,0.003,0.798,0.687,0,0.732,0.427,616.942
100288,135056,5203,0.003,0.798,0.687,0,0.732,0.427,616.945
100288,135158,7844,0.004,0.789,0.69,-0.427,0.549,0.427,616.952
100287,135056,5203,0.004,0.789,0.69,-0.427,0.549,0.427,616.955
100287,135151,7849,0.005,0.789,0.688,-0.061,0.488,0.488,616.961
100267,135056,5203,0.005,0.789,0.688,-0.061,0.488,0.488,616.965
100267,135164,7826,0.004,0.795,0.687,0,0.671,0.366,616.971
100280,135312,5203,0.004,0.795,0.687,0,0.671,0.366,616.975
100280,135172,7846,0.003,0.795,0.684,-0.488,0.427,0.183,616.981
100266,135312,5203,0.003,0.795,0.684,-0.488,0.427,0.183,616.985
100266,135177,7844,0.006,0.792,0.685,-0.488,0.427,0.183,616.991
100301,135312,5203,0.005,0.794,0.686,-0.183,0.488,0.122,616.995
100301,135189,7848,0.004,0.792,0.69,-0.183,0.488,0.122,617.001
100301,135312,5203,0.005,0.794,0.688,0.183,0.488,0.244,617.005
100301,135183,7848,0.005,0.794,0.684,0.183,0.488,0.244,617.011
100328,135312,5203,0.003,0.794,0.683,0.122,0.427,0.305,617.015
100328,135184,7850,0.006,0.797,0.686,0.122,0.427,0.305,617.021
100322,135312,5203,0.006,0.797,0.687,-0.244,0.366,0.183,617.025
100322,135198,7848,0.007,0.791,0.686,-0.244,0.366,0.183,617.031
100331,135312,5203,0.007,0.789,0.692,-0.488,0.244,0.183,617.034
100331,135215,7842,0.007,0.789,0.696,-0.488,0.244,0.183,617.041
100324,135312,5203,0.009,0.791,0.694,-0.183,0.305,0.488,617.044
100324,135199,7848,0.007,0.796,0.691,-0.183,0.305,0.488,617.051
100350,135312,5203,0.008,0.795,0.691,-0.061,0.427,0.671,617.054
100350,135213,7848,0.005,0.796,0.689,-0.061,0.427,0.671,617.06
100349,135312,5203,0.006,0.794,0.686,0.061,0.366,0.549,617.064
100349,135225,7855,0.007,0.788,0.683,0.061,0.366,0.549,617.07
100364,135312,5203,0.002,0.789,0.688,-0.122,0.366,0.488,617.074
100364,135216,7851,0.004,0.791,0.688,-0.122,0.366,0.488,617.08
100370,135312,5203,0,0.793,0.685,-0.366,0.244,0.488,617.084
100370,135212,7865,0.002,0.788,0.681,-0.366,0.244,0.488,617.09
100363,135312,5203,0.008,0.795,0.684,-0.183,0,0.427,617.094
100363,135214,7853,0.005,0.799,0.688,-0.183,0,0.427,617.1
100384,135312,5203,0.002,0.799,0.683,0.122,0.122,0.366,617.104
100384,135219,7847,0.001,0.8,0.682,0.122,0.122,0.366,617.11
100387,135312,5203,0.005,0.797,0.688,0,0.061,0.366,617.114
100387,135231,7842,0.005,0.795,0.688,0,0.061,0.366,617.12
100401,135312,5203,0.007,0.793,0.688,-0.488,0.061,0.244,617.124
100401,135232,7856,0.005,0.794,0.693,-0.488,0.061,0.244,617.13
100389,135312,5203,0.005,0.795,0.692,-0.305,0.244,0.244,617.133
100389,135205,7850,0.007,0.792,0.692,-0.305,0.244,0.244,617.14
100376,135312,5203,0.009,0.79,0.694,-0.305,0.366,0.305,617.143
100376,135206,7858,0.005,0.792,0.687,-0.305,0.366,0.305,617.15
100399,135312,5203,0.003,0.788,0.688,-0.549,0.488,0.549,617.153
100399,135231,7871,0.006,0.787,0.689,-0.549,0.488,0.549,617.159
100408,135312,5203,0.004,0.786,0.686,-0.305,0.305,0.488,617.163
100408,135239,7858,0.002,0.793,0.688,-0.305,0.305,0.488,617.169
100395,135312,5203,0.005,0.793,0.686,0.061,0.244,0.366,617.173
100395,135239,7853,0.006,0.795,0.69,0.061,0.244,0.366,617.179
100401,135312,5203,0.005,0.796,0.689,-0.122,0.183,0.366,617.183
100401,135235,7862,0.003,0.789,0.687,-0.122,0.183,0.366,617.189
100400,135312,5203,0.003,0.791,0.688,0,0.244,0.427,617.193
100400,135224,7862,0.004,0.794,0.688,0,0.244,0.427,617.199
100423,135312,5203,0.003,0.795,0.694,0.183,0.427,0.549,617.203
100423,135256,7881,0.004,0.799,0.694,0.183,0.427,0.549,617.209
100424,135312,5203,0.005,0.799,0.691,0.183,0.427,0.366,617.213
100424,135233,7869,0.003,0.795,0.688,0.183,0.427,0.366,617.219
100394,135312,5203,0.004,0.793,0.689,-0.122,0.305,0.305,617.223
100394,135230,7866,0.005,0.791,0.688,-0.122,0.305,0.305,617.229
100392,135312,5203,0.004,0.79,0.688,-0.366,0.488,0.366,617.232
100392,135217,7855,0.004,0.793,0.687,-0.366,0.488,0.366,617.239
100370,135312,5203,0.008,0.792,0.681,-0.122,0.488,0.305,617.242
100370,135225,7842,0.004,0.789,0.68,-0.122,0.488,0.305,617.248
100385,135312,5203,0.001,0.788,0.685,0,0.305,0.305,617.252
100385,135217,7860,0.004,0.794,0.683,0,0.305,0.305,617.258
100381,135312,5203,0.006,0.799,0.687,-0.305,0,0.244,617.262
100381,135240,7863,0.005,0.796,0.687,-0.305,0,0.244,617.268
100394,135312,5203,0.005,0.792,0.692,-0.366,0.061,0.061,617.272
100394,135208,7858,0.006,0.794,0.693,-0.366,0.061,0.061,617.278
100369,135312,5203,0.008,0.798,0.696,-0.122,0.122,0.183,617.282
100369,135229,7848,0.008,0.796,0.696,-0.122,0.122,0.183,617.288
100402,135312,5203,0.008,0.793,0.691,-0.061,0.183,0.183,617.292
100402,135237,7857,0.009,0.796,0.69,-0.061,0.183,0.183,617.298
100398,135312,5203,0.009,0.796,0.691,0,0.305,0.122,617.302
100398,135223,7851,0.01,0.793,0.686,0,0.305,0.122,617.308
100393,135312,5203,0.012,0.793,0.686,-0.061,0.427,0.122,617.312
100393,135232,7848,0.008,0.789,0.686,-0.061,0.427,0.122,617.318
100396,135312,5203,0.006,0.783,0.682,-0.305,0.366,0.305,617.322
100396,135238,7875,0.008,0.783,0.684,-0.305,0.366,0.305,617.328
100400,135312,5203,0.006,0.791,0.684,-0.427,0.305,0.244,617.331
100400,135224,7849,0,0.789,0.682,-0.427,0.305,0.244,617.338
100415,135312,5203,0.003,0.784,0.692,-0.549,0.183,0.305,617.341
100415,135229,7853,0.005,0.782,0.695,-0.549,0.183,0.305,617.348
100406,135312,5203,-0,0.789,0.695,-0.061,0,0.61,617.351
100406,135228,7866,-0.002,0.795,0.693,-0.061,0,0.61,617.357
100392,135312,5203,-0.001,0.798,0.687,-0.122,0.366,0.488,617.361
100392,135216,7857,0.004,0.796,0.692,-0.122,0.366,0.488,617.367
100392,135312,5203,0.004,0.793,0.691,-0.61,0.183,0.366,617.371
100392,135217,7848,0.003,0.792,0.688,-0.61,0.183,0.366,617.377
100387,135312,5203,0.005,0.792,0.691,-0.427,0.183,0.305,617.381
100387,135198,7866,0.006,0.796,0.696,-0.427,0.183,0.305,617.387
100365,135312,5203,0.005,0.801,0.695,0.427,0.549,0.183,617.391
100365,135189,7852,0.008,0.803,0.694,0.427,0.549,0.183,617.397
100370,135312,5203,0.011,0.802,0.689,0.244,0.61,0.305,617.401
100370,135199,7850,0.008,0.795,0.687,0.244,0.61,0.305,617.407
100372,135312,5203,0.006,0.79,0.681,-0.549,0.61,0.366,617.411
100372,135216,7853,0.005,0.789,0.684,-0.549,0.61,0.366,617.417
100354,135312,5203,0.005,0.791,0.688,-0.549,0.671,0.366,617.421
100354,135171,7863,0.004,0.793,0.686,-0.549,0.671,0.366,617.427
100367,135312,5203,0.004,0.793,0.686,-0.549,0.671,0.366,617.43
100367,135193,7845,0.003,0.794,0.697,-0.244,0.732,0.427,617.437
100362,135312,5203,0.003,0.794,0.697,-0.244,0.732,0.427,617.44
100362,135180,7854,0.004,0.797,0.691,-0.122,0.732,0.549,617.446
100365,135312,5203,0.004,0.797,0.691,-0.122,0.732,0.549,617.45
100365,135191,7850,0.006,0.794,0.684,-0.244,0.793,0.549,617.456
100357,135312,5203,0.006,0.794,0.684,-0.244,0.793,0.549,617.46
100357,135200,7848,-0.001,0.796,0.682,-0.122,0.61,0.366,617.466
100372,135312,5203,-0.001,0.796,0.682,-0.122,0.61,0.366,617.47
100372,135186,7844,0.004,0.79,0.68,-0.244,0.488,0.122,617.476
100372,135312,5203,0.004,0.79,0.68,-0.244,0.488,0.122,617.48
100372,135208,7849,0.004,0.793,0.683,-0.427,0.244,0,617.486
100348,135312,5203,0.004,0.793,0.683,-0.427,0.244,0,617.49
100348,135198,7838,0.006,0.792,0.689,-0.61,0.122,0.122,617.496
100356,135312,5203,0.006,0.792,0.689,-0.61,0.122,0.122,617.5
100356,135171,7854,0.004,0.796,0.696,-0.549,0,0.244,617.506
100361,135312,5203,0.004,0.796,0.696,-0.549,0,0.244,617.51
100361,135194,7867,0.005,0.797,0.69,-0.61,0.122,0.244,617.516
100372,135312,5203,0.005,0.797,0.69,-0.61,0.122,0.244,617.52
100372,135218,7849,0.003,0.794,0.693,-0.61,0.244,0.305,617.526
100375,135312,5203,0.003,0.794,0.693,-0.61,0.244,0.305,617.529
100375,135181,7863,0.006,0.795,0.69,-0.488,0.366,0.366,617.536
100373,135312,5203,0.006,0.795,0.69,-0.488,0.366,0.366,617.539
100373,135193,7846,0.003,0.794,0.686,-0.427,0.427,0.366,617.545
100370,135312,5203,0.003,0.794,0.686,-0.427,0.427,0.366,617.549
100370,135193,7852,0,0.788,0.688,-0.427,0.488,0.305,617.555
100355,135312,5203,0,0.788,0.688,-0.427,0.488,0.305,617.559
100355,135193,7863,0.001,0.793,0.69,-0.244,0.549,0.488,617.565
100356,135312,5203,0.007,0.797,0.693,-0.244,0.549,0.488,617.569
100356,135200,7857,0.009,0.796,0.695,-0.427,0.488,0.427,617.575
100370,135312,5203,0.008,0.794,0.693,-0.427,0.488,0.427,617.579
100370,135182,7871,0.002,0.795,0.693,-0.183,0.488,0.488,617.585
100369,135312,5203,0.003,0.796,0.692,-0.183,0.488,0.488,617.589
100369,135194,7851,0.005,0.79,0.684,0,0.61,0.61,617.595
100394,135312,5203,0.005,0.791,0.68,0,0.61,0.61,617.599
100394,135196,7843,0.003,0.795,0.682,-0.061,0.549,0.549,617.605
100383,135312,5203,0.01,0.799,0.682,-0.061,0.549,0.549,617.609
100383,135195,7865,0.007,0.795,0.685,-0.427,0.488,0.366,617.615
100389,135312,5203,0.004,0.791,0.693,-0.427,0.488,0.366,617.618
100389,135204,7843,0.002,0.788,0.693,-0.732,0.488,0.427,617.625
100376,135312,5203,0.006,0.787,0.693,-0.732,0.488,0.427,617.628
100376,135193,7857,0.003,0.787,0.698,-0.305,0.305,0.671,617.635
100358,135312,5203,-0.002,0.792,0.692,-0.305,0.305,0.671,617.638
100358,135191,7857,-0.001,0.794,0.684,-0.061,0.366,0.488,617.644
100392,135312,5203,0.005,0.794,0.683,-0.061,0.366,0.488,617.648
100392,135194,7846,0.002,0.791,0.686,-0.305,0.183,0.366,617.654
100359,135312,5203,0.003,0.79,0.686,-0.305,0.183,0.366,617.658
100359,135182,7858,0.004,0.792,0.691,-0.732,0.122,0.244,617.664
100337,135312,5203,0.001,0.794,0.689,-0.732,0.122,0.244,617.668
100337,135190,7856,0.003,0.796,0.691,-0.366,0.244,0.305,617.674
100350,135312,5203,0.004,0.798,0.694,-0.366,0.244,0.305,617.678
100350,135168,7856,0.003,0.796,0.689,0.122,0.549,0.488,617.684
100330,135312,5203,0.002,0.797,0.689,0.122,0.549,0.488,617.688
100330,135170,7848,0.001,0.796,0.691,0.061,0.549,0.427,617.694
100320,135056,5203,0.006,0.791,0.693,0.061,0.549,0.427,617.698
100320,135167,7853,0.007,0.788,0.694,-0.427,0.488,0.244,617.704
100330,135056,5203,0.005,0.786,0.69,-0.427,0.488,0.244,617.708
100330,135156,7851,0.005,0.786,0.688,-0.122,0.488,0.183,617.714
100336,135312,5203,0.006,0.788,0.685,-0.122,0.488,0.183,617.717
100336,135172,7847,0.005,0.794,0.688,0.244,0.488,0.183,617.724
100311,135312,5203,0.007,0.795,0.686,0.244,0.488,0.183,617.727
100311,135170,7851,0.009,0.792,0.683,0.183,0.366,0.244,617.734
100320,135056,5203,0.006,0.788,0.687,0.183,0.366,0.244,617.737
100320,135165,7846,0.006,0.791,0.688,-0.305,0.366,0.183,617.743
100351,135312,5203,0.006,0.79,0.688,-0.305,0.366,0.183,617.747
100351,135170,7847,0.008,0.79,0.696,-0.366,0.305,0.366,617.753
100353,135056,5203,0.007,0.787,0.693,-0.366,0.305,0.366,617.757
100353,135147,7849,0.005,0.787,0.691,-0.305,0.305,0.549,617.763
100330,135056,5203,0.006,0.788,0.69,-0.305,0.305,0.549,617.767
100330,135130,7849,0.003,0.794,0.692,-0.183,0.488,0.671,617.773
100320,135056,5203,0.003,0.796,0.696,-0.183,0.488,0.671,617.777
100320,135131,7847,0.006,0.796,0.694,0,0.549,0.61,617.783
100320,135056,5203,0.004,0.797,0.692,0,0.549,0.61,617.787
100320,135128,7855,0.005,0.795,0.692,-0.061,0.549,0.61,617.793
100308,135056,5203,0.004,0.795,0.69,-0.061,0.549,0.61,617.797
100308,135143,7851,0.001,0.795,0.69,-0.061,0.549,0.61,617.803
100318,135056,5203,0,0.793,0.688,-0.061,0.549,0.61,617.807
100318,135139,7854,0.006,0.79,0.687,-0.305,0.671,0.488,617.813
100327,135056,5203,0.006,0.792,0.693,-0.305,0.671,0.488,617.816
100327,135153,7839,0.008,0.792,0.688,-0.061,0.61,0.488,617.823
100340,135056,5203,0.006,0.789,0.691,-0.061,0.61,0.488,617.826
100340,135132,7852,0.005,0.79,0.684,0.122,0.61,0.61,617.833
100358,135056,5203,0.005,0.795,0.689,0.122,0.61,0.61,617.836
100358,135153,7855,0.006,0.796,0.688,0.122,0.61,0.488,617.842
100337,135056,5203,0.005,0.793,0.688,0.122,0.61,0.488,617.846
100337,135166,7848,0.006,0.789,0.688,-0.183,0.488,0.488,617.852
100318,135056,5203,0.004,0.79,0.688,-0.183,0.488,0.488,617.856
100318,135154,7846,0.002,0.789,0.689,-0.122,0.427,0.488,617.862
100333,135056,5203,0.001,0.792,0.686,-0.122,0.427,0.488,617.866
100333,135155,7846,0.001,0.791,0.687,0,0.366,0.366,617.872
100351,135056,5203,0.003,0.788,0.688,0,0.366,0.366,617.876
100351,135144,7850,-0.001,0.793,0.689,-0.122,0.366,0.244,617.882
100355,135056,5203,-0.001,0.789,0.691,-0.122,0.366,0.244,617.886
100355,135154,7843,0.002,0.789,0.69,-0.305,0.244,0.244,617.892
100341,135056,5203,0.006,0.791,0.692,-0.305,0.244,0.244,617.896
100341,135133,7838,0.003,0.791,0.692,-0.122,0.244,0.305,617.902
100323,135056,5203,0.004,0.796,0.692,-0.122,0.244,0.305,617.906
100323,135140,7861,0.006,0.797,0.691,0,0.427,0.244,617.912
100332,135056,5203,0.004,0.794,0.692,0,0.427,0.244,617.915
100332,135166,7847,0.005,0.794,0.693,-0.061,0.305,0.244,617.922
100334,135056,5203,0.007,0.796,0.691,-0.061,0.305,0.244,617.925
100334,135134,7856,0.005,0.791,0.689,-0.061,0.427,0.183,617.932
100313,135056,5203,0.004,0.791,0.689,-0.061,0.427,0.183,617.935
100313,135145,7851,0.004,0.794,0.689,0.305,0.61,0.244,617.941
100332,135056,5203,0.007,0.792,0.688,0.305,0.61,0.244,617.945
100332,135156,7859,0.006,0.792,0.688,0.305,0.61,0.244,617.951
100298,135056,5203,0.004,0.788,0.688,0.305,0.61,0.244,617.955
100298,135149,7851,0.005,0.785,0.69,0.122,0.488,0.183,617.961
100333,135056,5203,0.005,0.789,0.686,0.122,0.488,0.183,617.965
100333,135135,7849,0.005,0.789,0.685,0,0.427,0.122,617.971
100324,135056,5203,0.005,0.789,0.688,0,0.427,0.122,617.975
100324,135132,7849,0.005,0.791,0.685,0.122,0.366,0.183,617.981
100333,135056,5203,0.003,0.792,0.684,0.122,0.366,0.183,617.985
100333,135123,7845,0.003,0.789,0.685,0.183,0.305,0.061,617.991
100332,135056,5203,0.001,0.788,0.691,0.183,0.305,0.061,617.995
100332,135131,7842,-0.002,0.794,0.693,0.122,0.183,0,618.001
100339,135056,5203,-0.002,0.794,0.693,0.122,0.183,0,618.005
100339,135138,7849,0.003,0.794,0.695,0.061,0.183,-0.244,618.011
100335,135056,5203,0.003,0.794,0.695,0.061,0.183,-0.244,618.014
100335,135130,7845,-0.001,0.796,0.695,0.244,0.122,-0.122,618.021
100330,135056,5203,-0.001,0.796,0.695,0.244,0.122,-0.122,618.024
100330,135120,7853,0.001,0.801,0.685,0.671,0.244,-0.061,618.03
100297,135056,5203,0.001,0.801,0.685,0.671,0.244,-0.061,618.034
100297,135125,7843,0.004,0.799,0.683,0.549,0.305,-0.183,618.04
100309,135056,5203,0.004,0.799,0.683,0.549,0.305,-0.183,618.044
100309,135094,7861,0.01,0.797,0.686,-0.061,0.183,-0.183,618.05
100315,135056,5203,0.01,0.797,0.686,-0.061,0.183,-0.183,618.054
100315,135112,7829,0.014,0.798,0.689,-0.061,0.366,-0.061,618.06
100300,135056,5203,0.014,0.798,0.689,-0.061,0.366,-0.061,618.064
100300,135124,7843,0.015,0.793,0.689,-0.122,0.61,0.244,618.07
100314,135056,5203,0.015,0.793,0.689,-0.122,0.61,0.244,618.074
100314,135129,7836,0.014,0.792,0.69,-0.366,0.61,0.427,618.08
100313,135056,5203,0.014,0.792,0.69,-0.366,0.61,0.427,618.084
100313,135116,7842,0.013,0.788,0.693,-0.61,0.61,0.305,618.09
100313,135056,5203,0.013,0.788,0.693,-0.61,0.61,0.305,618.094
100313,135121,7852,0.009,0.788,0.696,-0.671,0.61,0.549,618.1
100323,135056,5203,0.009,0.788,0.696,-0.671,0.61,0.549,618.104
100323,135138,7839,0.005,0.788,0.692,-0.671,0.549,0.854,618.11
100319,135056,5203,0.005,0.788,0.692,-0.671,0.549,0.854,618.113
100319,135126,7843,0.003,0.793,0.693,-0.549,0.671,1.037,618.12
100308,135056,5203,0.003,0.793,0.693,-0.549,0.671,1.037,618.123
100308,135137,7838,0.004,0.794,0.69,-0.488,0.671,1.098,618.129
100332,135056,5203,0.004,0.794,0.69,-0.488,0.671,1.098,618.133
100332,135140,7848,0.006,0.794,0.694,-0.915,0.915,1.159,618.139
100332,135056,5203,0.006,0.794,0.694,-0.915,0.915,1.159,618.143
100332,135116,7857,0.005,0.79,0.694,-0.915,0.915,1.159,618.149
100318,135056,5203,0.006,0.786,0.693,-1.037,0.976,1.28,618.153
100318,135122,7839,0.004,0.787,0.695,-1.037,0.976,1.28,618.159
100317,135056,5203,-0,0.794,0.687,-0.183,1.28,1.28,618.163
100317,135134,7843,-0.002,0.798,0.688,-0.183,1.28,1.28,618.169
100318,135056,5203,0,0.795,0.686,-0.244,1.22,1.341,618.173
100318,135117,7856,-0.001,0.791,0.686,-0.244,1.22,1.341,618.179
100321,135056,5203,-0.004,0.789,0.679,-0.61,0.915,1.463,618.183
100321,135124,7847,-0.003,0.791,0.679,-0.61,0.915,1.463,618.189
100317,135056,5203,-0.007,0.793,0.684,-0.183,0.915,1.22,618.193
100317,135115,7840,-0.009,0.797,0.682,-0.183,0.915,1.22,618.199
100315,135056,5203,-0.005,0.798,0.681,0.244,0.915,1.159,618.202
100315,135111,7829,-0.003,0.798,0.682,0.244,0.915,1.159,618.209
100311,135056,5203,-0.006,0.798,0.68,0.366,0.854,1.037,618.212
100311,135133,7838,-0.007,0.802,0.682,0.366,0.854,1.037,618.219
100312,135056,5203,-0.003,0.801,0.676,0.366,0.793,0.732,618.222
100312,135131,7832,-0.001,0.799,0.677,0.366,0.793,0.732,618.228
100342,135056,5203,0.001,0.797,0.681,0,0.427,0.305,618.232
100342,135110,7851,0.003,0.797,0.679,0,0.427,0.305,618.238
100341,135056,5203,0.002,0.797,0.679,-0.061,0.183,0,618.242
100341,135128,7841,0.004,0.798,0.684,-0.061,0.183,0,618.248
100346,135056,5203,0.003,0.797,0.689,0.122,0,-0.122,618.252
100346,135159,7857,0.009,0.794,0.688,0.122,0,-0.122,618.258
100332,135056,5203,0.01,0.792,0.689,-0.061,-0.183,-0.183,618.262
100332,135130,7853,0.006,0.795,0.69,-0.061,-0.183,-0.183,618.268
100339,135056,5203,0.009,0.793,0.689,-0.244,-0.305,-0.244,618.272
100339,135134,7845,0.008,0.789,0.691,-0.244,-0.305,-0.244,618.278
100362,135056,5203,0.007,0.793,0.687,-0.244,-0.305,-0.183,618.282
100362,135149,7837,0.005,0.793,0.689,-0.244,-0.305,-0.183,618.288
100340,135056,5203,0.005,0.792,0.693,-0.305,-0.244,-0.244,618.292
100340,135131,7841,0.008,0.792,0.691,-0.305,-0.244,-0.244,618.298
100347,135056,5203,0.009,0.796,0.688,-0.244,-0.366,-0.305,618.301
100347,135140,7862,0.01,0.794,0.689,-0.244,-0.366,-0.305,618.308
100324,135056,5203,0.009,0.792,0.694,-0.122,-0.427,-0.244,618.311
100324,135122,7834,0.007,0.792,0.695,-0.122,-0.427,-0.244,618.318
100339,135056,5203,0.004,0.793,0.695,-0.061,-0.244,-0.122,618.321
100339,135129,7851,0.006,0.792,0.695,-0.061,-0.244,-0.122,618.327
100343,135056,5203,0.009,0.787,0.692,-0.244,-0.183,-0.244,618.331
100343,135118,7833,0.009,0.788,0.692,-0.244,-0.183,-0.244,618.337
100330,135056,5203,0.005,0.786,0.691,-0.183,0.061,-0.061,618.341
100330,135125,7834,0.005,0.787,0.69,-0.183,0.061,-0.061,618.347
100328,135056,5203,0.008,0.786,0.693,-0.061,0.122,0,618.351
100328,135110,7837,0.01,0.788,0.692,-0.061,0.122,0,618.357
100302,135056,5203,0.01,0.793,0.689,0.122,0.366,-0.061,618.361
100302,135127,7852,0.005,0.789,0.694,0.122,0.366,-0.061,618.367
100333,135056,5203,0.006,0.786,0.69,0.061,0.366,0.305,618.371
100333,135140,7845,0.008,0.784,0.69,0.061,0.366,0.305,618.377
100331,135056,5203,0.007,0.788,0.692,-0.061,0.427,0.427,618.381
100331,135141,7839,0.006,0.791,0.693,-0.061,0.427,0.427,618.387
100328,135056,5203,0.007,0.793,0.693,-0.244,0.61,0.366,618.391
100328,135153,7846,0.006,0.788,0.691,-0.244,0.61,0.366,618.397
100347,135056,5203,0.005,0.784,0.692,-0.549,0.366,0.366,618.4
100347,135139,7851,0.004,0.78,0.695,-0.549,0.366,0.366,618.407
100350,135056,5203,0.005,0.786,0.696,-0.183,0.366,0.488,618.41
100350,135130,7845,0.006,0.793,0.693,-0.183,0.366,0.488,618.417
100328,135056,5203,0.003,0.799,0.688,0.183,0.488,0.488,618.42
100328,135133,7856,0.002,0.798,0.688,0.183,0.488,0.488,618.426
100328,135056,5203,0.005,0.792,0.688,-0.183,0.366,0.488,618.43
100328,135139,7842,0.003,0.792,0.684,-0.183,0.366,0.488,618.436
100317,135056,5203,0.002,0.792,0.687,-0.183,0.366,0.488,618.44
100317,135112,7849,0.002,0.796,0.689,-0.183,0.366,0.488,618.446
100307,135056,5203,0.004,0.799,0.69,0.244,0.671,0.366,618.45
100307,135109,7854,0.007,0.797,0.689,0.244,0.671,0.366,618.456
100302,135056,5203,0.009,0.794,0.689,0.061,0.549,0.427,618.46
100302,135133,7832,0.008,0.792,0.689,0.061,0.549,0.427,618.466
100296,135056,5203,0.005,0.791,0.689,-0.244,0.488,0.366,618.47
100296,135106,7841,0.005,0.79,0.688,-0.244,0.488,0.366,618.476
100293,135056,5203,0.005,0.791,0.686,0.122,0.61,0.305,618.48
100293,135128,7822,0.008,0.791,0.69,0.122,0.61,0.305,618.486
100301,135056,5203,0.006,0.791,0.688,0.244,0.671,0.427,618.49
100301,135084,7836,0.009,0.791,0.689,0.244,0.671,0.427,618.496
100277,135056,5203,0.008,0.787,0.694,-0.244,0.488,0.366,618.499
100277,135105,7839,0.005,0.79,0.695,-0.244,0.488,0.366,618.506
100291,135056,5203,0.004,0.792,0.694,-0.244,0.488,0.366,618.509
100291,135099,7836,0.005,0.787,0.691,-0.244,0.488,0.366,618.516
100297,135056,5203,0.005,0.788,0.691,-0.061,0.61,0.427,618.519
100297,135106,7835,0.004,0.791,0.689,-0.061,0.61,0.427,618.525
100309,135056,5203,0.004,0.792,0.69,0.061,0.488,0.427,618.529
100309,135105,7826,0.004,0.795,0.686,0.061,0.488,0.427,618.535
100306,135056,5203,0.002,0.792,0.683,-0.061,0.427,0.427,618.539
100306,135111,7844,0.003,0.79,0.678,-0.061,0.427,0.427,618.545
100313,135056,5203,0.005,0.79,0.684,0,0.427,0.427,618.549
100313,135097,7843,0.004,0.795,0.691,0,0.427,0.427,618.555
100314,135056,5203,0.002,0.798,0.69,0.061,0.488,0.427,618.559
100314,135106,7832,0.005,0.797,0.688,0.061,0.488,0.427,618.565
100299,135056,5203,0.005,0.794,0.687,0,0.61,0.427,618.569
100299,135083,7836,0.002,0.791,0.693,0,0.61,0.427,618.575
100307,135056,5203,0.002,0.791,0.693,0,0.61,0.427,618.579
100307,135103,7847,0.004,0.796,0.688,0,0.61,0.671,618.585
100294,135056,5203,0.004,0.796,0.688,0,0.61,0.671,618.589
100294,135103,7843,0.004,0.796,0.688,0,0.671,0.366,618.595
100293,135056,5203,0.004,0.796,0.688,0,0.671,0.366,618.598
100293,135090,7833,0.004,0.792,0.687,0.366,0.671,0.366,618.605
100294,135056,5203,0.004,0.792,0.687,0.366,0.671,0.366,618.608
100294,135075,7846,0,0.79,0.683,0.244,0.61,0.427,618.614
100303,135056,5203,0,0.79,0.683,0.244,0.61,0.427,618.618
100303,135104,7847,0.005,0.797,0.686,0,0.61,0.366,618.624
100284,135056,5203,0.005,0.797,0.686,0,0.61,0.366,618.628
100284,135103,7835,0.003,0.792,0.684,0.061,0.488,0.305,618.634
100286,135056,5203,0.003,0.792,0.684,0.061,0.488,0.305,618.638
100286,135113,7848,0.002,0.795,0.682,0.305,0.366,0.183,618.644
100311,135056,5203,0.002,0.795,0.682,0.305,0.366,0.183,618.648
100311,135105,7855,0.004,0.795,0.684,0.366,0.305,0.244,618.654
100329,135056,5203,0.004,0.795,0.684,0.366,0.305,0.244,618.658
100329,135119,7840,0.004,0.799,0.685,0.061,0.183,0.183,618.664
100332,135056,5203,0.004,0.799,0.685,0.061,0.183,0.183,618.668
100332,135116,7845,0.004,0.794,0.692,-0.061,-0.122,-0.061,618.674
100342,135056,5203,0.004,0.794,0.692,-0.061,-0.122,-0.061,618.678
100342,135126,7838,-0,0.793,0.687,0.061,-0.488,0.122,618.684
100349,135056,5203,-0,0.793,0.687,0.061,-0.488,0.122,618.688
100349,135144,7831,0.007,0.796,0.688,-0.122,-0.305,0.061,618.694
100352,135056,5203,0.007,0.796,0.688,-0.122,-0.305,0.061,618.697
100352,135120,7842,0.005,0.793,0.697,-0.244,-0.122,0.122,618.704
100349,135056,5203,0.005,0.793,0.697,-0.244,-0.122,0.122,618.707
100349,135125,7841,0.004,0.793,0.693,-0.122,-0.122,0,618.713
100335,135056,5203,0.004,0.793,0.693,-0.122,-0.122,0,618.717
100335,135147,7833,0.008,0.798,0.687,0.549,-0.122,0.061,618.723
100329,135056,5203,0.009,0.801,0.686,0.549,-0.122,0.061,618.727
100329,135127,7841,0.008,0.803,0.69,0.549,0,0,618.733
100342,135056,5203,0.009,0.797,0.688,0.549,0,0,618.737
100342,135100,7833,0.005,0.791,0.686,-0.122,0.122,-0.061,618.743
100339,135056,5203,0.004,0.786,0.689,-0.122,0.122,-0.061,618.747
100339,135102,7838,0.005,0.787,0.688,-0.427,0.061,0.061,618.753
100320,135056,5203,0.009,0.789,0.688,-0.427,0.061,0.061,618.757
100320,135081,7858,0.008,0.79,0.688,0.061,0.244,0.183,618.763
100309,135056,5203,0.007,0.791,0.688,0.061,0.244,0.183,618.767
100309,135118,7833,0.005,0.789,0.688,0,0.427,0.244,618.773
100307,135056,5203,0.007,0.792,0.691,0,0.427,0.244,618.777
100307,135092,7850,0.008,0.794,0.69,-0.244,0.427,0.427,618.783
100317,135056,5203,0.007,0.796,0.686,-0.244,0.427,0.427,618.786
100317,135080,7839,0.004,0.797,0.686,-0.488,0.427,0.305,618.793
100310,135056,5203,0.007,0.795,0.688,-0.488,0.427,0.305,618.796
100310,135079,7837,0.003,0.79,0.687,-0.915,0.427,0.366,618.803
100316,135056,5203,0.005,0.787,0.689,-0.915,0.427,0.366,618.806
100316,135091,7841,0.006,0.788,0.686,-0.61,0.305,0.427,618.812
100300,135056,5203,0.007,0.791,0.69,-0.61,0.305,0.427,618.816
100300,135104,7841,0.007,0.793,0.694,-0.183,0.549,0.671,618.822
100306,135056,5203,0.006,0.795,0.697,-0.183,0.549,0.671,618.826
100306,135084,7830,0.007,0.796,0.695,-0.366,0.427,0.671,618.832
100307,135056,5203,0.007,0.793,0.692,-0.366,0.427,0.671,618.836
100307,135079,7839,0.005,0.789,0.688,-0.366,0.61,0.61,618.842
100309,135056,5203,0.005,0.788,0.693,-0.366,0.61,0.61,618.846
100309,135058,7833,0.002,0.792,0.689,-0.183,0.671,0.732,618.852
100292,135056,5203,0.003,0.792,0.686,-0.183,0.671,0.732,618.856
100292,135099,7835,0.005,0.788,0.687,-0.305,0.61,0.61,618.862
100303,135056,5203,0.002,0.788,0.685,-0.305,0.61,0.61,618.866
100303,135090,7847,-0.002,0.788,0.684,-0.244,0.732,0.488,618.872
100318,135056,5203,-0.001,0.787,0.688,-0.244,0.732,0.488,618.876
100318,135093,7833,-0.001,0.791,0.689,-0.122,0.671,0.61,618.882
100319,135056,5203,-0,0.794,0.687,-0.122,0.671,0.61,618.885
100319,135088,7829,0.002,0.795,0.687,0,0.549,0.793,618.892
100322,135056,5203,0.002,0.801,0.689,0,0.549,0.793,618.895
100322,135093,7833,0.005,0.799,0.689,-0.183,0.61,0.671,618.901
100307,135056,5203,0.002,0.794,0.685,-0.183,0.61,0.671,618.905
100307,135086,7814,0.005,0.791,0.688,-0.366,0.671,0.549,618.911
100322,135056,5203,0.011,0.792,0.692,-0.366,0.671,0.549,618.915
100322,135065,7816,0.007,0.798,0.69,-0.061,0.549,0.61,618.921
100310,135056,5203,0.007,0.797,0.685,-0.061,0.549,0.61,618.925
100310,135092,7836,0.007,0.797,0.688,0.61,0.61,0.488,618.931
100309,135056,5203,0.005,0.801,0.682,0.61,0.61,0.488,618.935
100309,135094,7832,0.005,0.8,0.684,0.244,0.61,0.549,618.941
100330,135056,5203,0.007,0.794,0.687,0.244,0.61,0.549,618.945
100330,135111,7833,0.005,0.795,0.685,-0.488,0.488,0.427,618.951
100389,135056,5203,0.005,0.791,0.688,-0.488,0.488,0.427,618.955
100389,135136,7838,0.005,0.792,0.685,-0.305,0.61,0.427,618.961
100408,135312,5203,0,0.793,0.686,-0.305,0.61,0.427,618.965
100408,135175,7849,0.003,0.792,0.686,-0.122,0.488,0.488,618.971
100431,135312,5203,0.005,0.793,0.688,-0.122,0.488,0.488,618.974
100431,135181,7849,0.002,0.79,0.692,-0.122,0.549,0.427,618.981
100436,135312,5203,0.002,0.79,0.687,-0.122,0.549,0.427,618.984
100436,135207,7854,0.003,0.791,0.691,-0.183,0.427,0.427,618.991
100476,135312,5203,0.005,0.79,0.695,-0.183,0.427,0.427,618.994
100476,135200,7859,0.004,0.791,0.687,-0.122,0.366,0.244,619
100504,135312,5203,0.007,0.788,0.687,-0.122,0.366,0.244,619.004
100504,135231,7875,0.004,0.79,0.686,-0.122,0.366,0.183,619.01
100524,135312,5203,0.003,0.795,0.685,-0.122,0.366,0.183,619.014
100524,135212,7849,0.006,0.792,0.685,-0.366,0.305,0.061,619.02
100506,135312,5203,0.008,0.792,0.686,-0.366,0.305,0.061,619.024
100506,135202,7872,0.006,0.787,0.689,-0.366,0.305,0.061,619.03
100496,135312,5203,0.006,0.792,0.687,-0.366,0.305,0.061,619.034
100496,135201,7870,0.009,0.797,0.689,-0.549,0.244,0.122,619.04
100477,135312,5203,0.008,0.796,0.692,-0.549,0.244,0.122,619.044
100477,135188,7858,0.007,0.797,0.693,-0.488,0.122,-0.061,619.05
100459,135312,5203,0.008,0.798,0.689,-0.488,0.122,-0.061,619.054
100459,135180,7855,0.007,0.796,0.691,-0.244,0.244,0.244,619.06
100445,135056,5203,0.006,0.798,0.692,-0.244,0.244,0.244,619.064
100445,135161,7861,0.005,0.801,0.69,-0.366,0.366,0.366,619.07
100417,135056,5203,0.008,0.801,0.685,-0.366,0.366,0.366,619.073
100417,135133,7853,0.009,0.797,0.687,-0.366,0.488,0.183,619.08
100372,135056,5203,0.004,0.797,0.687,-0.366,0.488,0.183,619.083
100372,135128,7853,0.002,0.795,0.687,-0.488,0.549,0.305,619.09
100386,135056,5203,0.004,0.793,0.686,-0.488,0.549,0.305,619.093
100386,135138,7853,0.005,0.792,0.686,-0.427,0.488,0.305,619.099
100359,135056,5203,0.004,0.793,0.689,-0.427,0.488,0.305,619.103
100359,135123,7837,0.003,0.791,0.689,-0.366,0.427,0.305,619.109
100358,135056,5203,0.004,0.791,0.689,-0.366,0.427,0.305,619.113
100358,135115,7835,0.004,0.787,0.69,-0.61,0.427,0.366,619.119
100356,135056,5203,0.006,0.786,0.687,-0.61,0.427,0.366,619.123
100356,135115,7842,0.006,0.785,0.691,-0.366,0.427,0.366,619.129
100355,135056,5203,0.003,0.792,0.692,-0.366,0.427,0.366,619.133
100355,135084,7842,0.007,0.794,0.694,-0.061,0.427,0.366,619.139
100346,135056,5203,0.003,0.789,0.689,-0.061,0.427,0.366,619.143
100346,135087,7852,0.002,0.79,0.69,-0.305,0.366,0.366,619.149
100343,135056,5203,0.002,0.79,0.69,-0.305,0.366,0.366,619.153
100343,135078,7838,0.003,0.786,0.691,-0.427,0.366,0.488,619.159
100339,135056,5203,0.003,0.786,0.691,-0.427,0.366,0.488,619.163
100339,135102,7849,0.003,0.793,0.692,-0.305,0.427,0.488,619.169
100333,135056,5203,0.003,0.793,0.692,-0.305,0.427,0.488,619.172
100333,135085,7845,0.004,0.79,0.694,-0.427,0.366,0.366,619.179
100334,135056,5203,0.004,0.79,0.694,-0.427,0.366,0.366,619.182
100334,135071,7838,0.001,0.788,0.693,-0.488,0.305,0.366,619.189
100322,135056,5203,0.001,0.788,0.693,-0.488,0.305,0.366,619.192
100322,135074,7820,0.005,0.793,0.69,-0.427,0.488,0.549,619.198
100320,135056,5203,0.005,0.793,0.69,-0.427,0.488,0.549,619.202
100320,135075,7821,0.005,0.793,0.689,-0.122,0.549,0.488,619.208
100287,135056,5203,0.005,0.793,0.689,-0.122,0.549,0.488,619.212
100287,135040,7820,0.002,0.787,0.688,-0.122,0.549,0.488,619.218
100281,135056,5203,0.002,0.787,0.688,-0.122,0.549,0.488,619.222
100281,135070,7847,0.006,0.796,0.688,-0.183,0.61,0.488,619.228
100273,135056,5203,0.006,0.796,0.688,-0.183,0.61,0.488,619.232
100273,135040,7830,0.005,0.791,0.692,0.122,0.61,0.305,619.238
100256,135056,5203,0.005,0.791,0.692,0.122,0.61,0.305,619.242
100256,135039,7827,0.003,0.793,0.687,0.305,0.732,0.305,619.248
100242,135056,5203,0.003,0.793,0.687,0.305,0.732,0.305,619.252
100242,135033,7822,0.008,0.796,0.685,-0.061,0.488,0.122,619.258
100244,135056,5203,0.008,0.796,0.685,-0.061,0.488,0.122,619.262
100244,135004,7814,0.005,0.787,0.685,-0.427,0.305,0,619.268
100227,135056,5203,0.005,0.787,0.685,-0.427,0.305,0,619.271
100227,135015,7803,0.005,0.789,0.689,-0.244,0.244,0.061,619.278
100233,135056,5203,0.005,0.789,0.689,-0.244,0.244,0.061,619.281
100233,135034,7814,0.01,0.795,0.693,0.061,0.122,0.305,619.288
100252,135056,5203,0.01,0.795,0.693,0.061,0.122,0.305,619.291
100252,135018,7818,0.011,0.794,0.689,0.061,0.122,0.305,619.297
100251,135056,5203,0.006,0.795,0.688,0.061,0.244,0.427,619.301
100251,135023,7831,0.002,0.796,0.685,0.061,0.244,0.427,619.307
100251,135056,5203,0.003,0.796,0.686,-0.183,0.305,0.427,619.311
100251,135033,7829,0.006,0.794,0.685,-0.183,0.305,0.427,619.317
100233,135056,5203,0.002,0.788,0.686,-0.366,0.244,0.366,619.321
100233,135022,7820,0.002,0.792,0.686,-0.366,0.244,0.366,619.327
100248,135056,5203,0.001,0.794,0.69,-0.488,0.427,0.488,619.331
100248,135013,7828,0.004,0.797,0.686,-0.488,0.427,0.488,619.337
100251,135056,5203,0.004,0.794,0.689,-0.305,0.427,0.305,619.341
100251,135015,7815,0.005,0.795,0.693,-0.305,0.427,0.305,619.347
100243,135056,5203,0.005,0.793,0.694,-0.183,0.305,0.305,619.351
100243,135017,7813,0.004,0.791,0.691,-0.183,0.305,0.305,619.357
100270,135056,5203,0.003,0.793,0.692,-0.061,0.305,0.305,619.361
100270,135022,7820,0.003,0.795,0.691,-0.061,0.305,0.305,619.367
100262,135056,5203,0.002,0.796,0.683,0.183,0.427,0.183,619.37
100262,135006,7824,0.003,0.793,0.682,0.183,0.427,0.183,619.377
100265,135056,5203,0.004,0.791,0.68,0.061,0.427,0.244,619.38
100265,135042,7827,0.002,0.79,0.685,0.061,0.427,0.244,619.387
100269,135056,5203,0.005,0.79,0.688,-0.305,0.366,0.122,619.39
100269,135036,7825,0.004,0.79,0.689,-0.305,0.366,0.122,619.396
100278,135056,5203,0.001,0.792,0.688,-0.366,0.366,0.183,619.4
100278,135033,7826,0.004,0.79,0.692,-0.366,0.366,0.183,619.406
100297,135056,5203,0.004,0.792,0.694,-0.61,0.427,0.305,619.41
100297,135033,7826,0.004,0.788,0.698,-0.61,0.427,0.305,619.416
100310,135056,5203,0.002,0.789,0.696,-0.427,0.366,0.366,619.42
100310,135058,7816,0.005,0.793,0.695,-0.427,0.366,0.366,619.426
100320,135056,5203,0.005,0.793,0.693,0.183,0.549,0.427,619.43
100320,135072,7832,0.005,0.797,0.69,0.183,0.549,0.427,619.436
100296,135056,5203,0.007,0.795,0.685,0.244,0.61,0.305,619.44
100296,135063,7831,0.007,0.794,0.686,0.244,0.61,0.305,619.446
100311,135056,5203,0.007,0.792,0.686,-0.305,0.549,0.305,619.45
100311,135080,7832,0.005,0.788,0.687,-0.305,0.549,0.305,619.456
100312,135056,5203,0.004,0.784,0.688,-0.366,0.427,0.305,619.46
100312,135063,7801,0.001,0.788,0.686,-0.366,0.427,0.305,619.466
100324,135056,5203,0.004,0.793,0.69,0.061,0.427,0.366,619.469
100324,135057,7824,0.004,0.797,0.692,0.061,0.427,0.366,619.476
100303,135056,5203,0.005,0.799,0.687,0.061,0.427,0.305,619.479
100303,135058,7819,0.002,0.795,0.685,0.061,0.427,0.305,619.485
100310,135056,5203,0.002,0.792,0.69,-0.427,0.244,0.366,619.489
100310,135081,7833,0.001,0.791,0.689,-0.427,0.244,0.366,619.495
100303,135056,5203,0.004,0.791,0.692,-0.671,0.244,0.427,619.499
100303,135070,7830,0.005,0.79,0.688,-0.671,0.244,0.427,619.505
100305,135056,5203,0.003,0.79,0.691,-0.244,0.488,0.488,619.509
100305,135072,7829,0.004,0.795,0.692,-0.244,0.488,0.488,619.515
100274,135056,5203,0.002,0.794,0.686,-0.122,0.488,0.427,619.519
100274,135045,7827,0.005,0.791,0.687,-0.122,0.488,0.427,619.525
100306,135056,5203,0.004,0.788,0.685,-0.305,0.366,0.488,619.529
100306,135060,7811,0.001,0.787,0.689,-0.305,0.366,0.488,619.535
100299,135056,5203,0.003,0.79,0.692,-0.183,0.427,0.427,619.539
100299,135041,7823,0.003,0.792,0.692,-0.183,0.427,0.427,619.545
100311,135056,5203,0.003,0.795,0.689,0,0.488,0.366,619.549
100311,135084,7821,0.004,0.793,0.693,0,0.488,0.366,619.555
100297,135056,5203,0.003,0.79,0.689,-0.122,0.427,0.366,619.559
100297,135055,7813,0.004,0.791,0.687,-0.122,0.427,0.366,619.565
100321,135056,5203,0.003,0.793,0.689,-0.244,0.549,0.305,619.568
100321,135044,7812,0.005,0.795,0.688,-0.244,0.549,0.305,619.575
100288,135056,5203,0.006,0.796,0.688,-0.122,0.549,0.488,619.578
100288,135043,7813,0.006,0.792,0.686,-0.122,0.549,0.488,619.584
100308,135056,5203,0.006,0.789,0.69,-0.183,0.427,0.549,619.588
100308,135051,7825,0.002,0.796,0.689,-0.183,0.427,0.549,619.594
100308,135056,5203,0.003,0.796,0.687,-0.122,0.549,0.61,619.598
100308,135054,7828,0.009,0.797,0.692,-0.122,0.549,0.61,619.604
100306,135056,5203,0.004,0.795,0.686,-0.305,0.549,0.61,619.608
100306,135059,7833,0.003,0.79,0.684,-0.305,0.549,0.61,619.614
100321,135056,5203,0.002,0.791,0.685,-0.244,0.488,0.549,619.618
100321,135062,7838,0.003,0.799,0.687,-0.244,0.488,0.549,619.624
100328,135056,5203,0.005,0.8,0.688,-0.061,0.549,0.427,619.628
100328,135059,7819,0.006,0.796,0.688,-0.061,0.549,0.427,619.634
100313,135056,5203,0.006,0.789,0.687,-0.427,0.366,0.122,619.638
100313,135062,7814,0.005,0.784,0.689,-0.427,0.366,0.122,619.644
100319,135056,5203,-0.001,0.784,0.687,-0.427,0.244,0.244,619.648
100319,135056,7809,0,0.787,0.691,-0.427,0.244,0.244,619.654
100326,135056,5203,0.003,0.793,0.693,0.061,0.305,0.427,619.657
100326,135083,7829,0.001,0.794,0.692,0.061,0.305,0.427,619.664
100339,135056,5203,0.006,0.794,0.689,0.244,0.244,0.427,619.667
100339,135074,7823,0.006,0.793,0.689,0.244,0.244,0.427,619.674
100339,135056,5203,0.007,0.794,0.69,-0.061,0.183,0.305,619.677
100339,135086,7820,0.006,0.794,0.685,-0.061,0.183,0.305,619.683
100343,135056,5203,0.005,0.793,0.687,-0.305,0.122,0.061,619.687
100343,135086,7823,0.006,0.795,0.691,-0.305,0.122,0.061,619.693
100317,135056,5203,0.006,0.793,0.69,-0.061,0.244,0.305,619.697
100317,135063,7835,0.005,0.793,0.689,-0.061,0.244,0.305,619.703
100346,135056,5203,0.005,0.796,0.689,0,0.122,0.305,619.707
100346,135067,7819,0.005,0.796,0.686,0,0.122,0.305,619.713
100348,135056,5203,0.005,0.8,0.692,0.061,0.122,0.244,619.717
100348,135073,7830,0.006,0.798,0.693,0.061,0.122,0.244,619.723
100361,135056,5203,0.006,0.798,0.693,0.061,0.122,0.244,619.727
100361,135091,7811,0.004,0.793,0.686,0,0.305,0.183,619.733
100349,135056,5203,0.004,0.793,0.686,0,0.305,0.183,619.737
100349,135056,7836,0.003,0.79,0.69,-0.183,0.305,0.244,619.743
100342,135056,5203,0.003,0.79,0.69,-0.183,0.305,0.244,619.747
100342,135057,7815,0.001,0.792,0.688,0.061,0.427,0.427,619.753
100327,135056,5203,0.001,0.792,0.688,0.061,0.427,0.427,619.756
100327,135068,7831,0.005,0.791,0.688,0.122,0.61,0.366,619.763
100343,135056,5203,0.005,0.791,0.688,0.122,0.61,0.366,619.766
100343,135072,7825,0.005,0.794,0.69,-0.244,0.305,0.366,619.773
100333,135056,5203,0.005,0.794,0.69,-0.244,0.305,0.366,619.776
100333,135071,7834,0.007,0.79,0.686,-0.427,0.244,0.366,619.782
100338,135056,5203,0.007,0.79,0.686,-0.427,0.244,0.366,619.786
100338,135082,7820,0.005,0.791,0.69,-0.427,0.244,0.244,619.792
100331,135056,5203,0.005,0.791,0.69,-0.427,0.244,0.244,619.796
100331,135090,7814,0.004,0.797,0.688,-0.122,0.244,0.305,619.802
100343,135056,5203,0.004,0.797,0.688,-0.122,0.244,0.305,619.806
100343,135087,7828,0.007,0.789,0.691,-0.488,0.183,0.366,619.812
100335,135056,5203,0.007,0.789,0.691,-0.488,0.183,0.366,619.816
100335,135081,7818,0.005,0.792,0.692,-0.671,0.122,0.244,619.822
100338,135056,5203,0.005,0.792,0.692,-0.671,0.122,0.244,619.826
100338,135063,7820,0.003,0.791,0.693,-0.366,0.244,0.427,619.832
100346,135056,5203,0.003,0.791,0.693,-0.366,0.244,0.427,619.836
100346,135068,7830,0.004,0.794,0.691,-0.061,0.305,0.488,619.842
100336,135056,5203,0.004,0.794,0.691,-0.061,0.305,0.488,619.846
100336,135075,7816,0.003,0.8,0.692,0,0.305,0.488,619.852
100347,135056,5203,0.003,0.8,0.692,0,0.305,0.488,619.855
100347,135083,7821,0.003,0.793,0.689,-0.061,0.366,0.427,619.862
100342,135056,5203,0.003,0.793,0.689,-0.061,0.366,0.427,619.865
100342,135090,7817,-0.001,0.79,0.685,-0.244,0.366,0.427,619.872
100338,135056,5203,0.004,0.794,0.686,-0.244,0.366,0.427,619.875
100338,135079,7812,0.006,0.793,0.69,-0.183,0.427,0.488,619.881
100342,135056,5203,0.003,0.793,0.684,-0.183,0.427,0.488,619.885
100342,135083,7826,0.002,0.796,0.684,0.061,0.488,0.427,619.891
100351,135056,5203,0.001,0.795,0.684,0.061,0.488,0.427,619.895
100351,135070,7832,0.002,0.792,0.682,-0.061,0.366,0.305,619.901
100341,135056,5203,0.004,0.79,0.683,-0.061,0.366,0.305,619.905
100341,135088,7831,0.005,0.794,0.685,-0.122,0.122,0.305,619.911
100355,135056,5203,0.008,0.794,0.685,-0.122,0.122,0.305,619.915
100355,135106,7833,0.008,0.797,0.689,-0.122,0.061,0.244,619.921
100362,135056,5203,0.008,0.796,0.691,-0.122,0.061,0.244,619.925
100362,135099,7825,0.006,0.791,0.687,-0.122,0.122,0.244,619.931
100365,135056,5203,0.004,0.785,0.685,-0.122,0.122,0.244,619.935
100365,135104,7834,0.002,0.791,0.684,-0.122,-0.061,0.244,619.941
100378,135056,5203,0.006,0.794,0.693,-0.122,-0.061,0.244,619.945
100378,135084,7835,0.008,0.795,0.695,-0.244,-0.122,0.061,619.951
100363,135056,5203,0.005,0.792,0.696,-0.244,-0.122,0.061,619.954
100363,135089,7832,0.003,0.784,0.695,-0.488,0.061,0.183,619.961
100390,135056,5203,-0.002,0.788,0.692,-0.488,0.061,0.183,619.964
100390,135104,7825,0.006,0.79,0.686,-0.427,-0.122,0.366,619.971
100380,135056,5203,0.006,0.79,0.688,-0.427,-0.122,0.366,619.974
100380,135088,7826,0.002,0.79,0.686,0.183,0.061,0.305,619.98
100353,135056,5203,-0.001,0.797,0.692,0.183,0.061,0.305,619.984
100353,135083,7846,0.005,0.801,0.69,-0.183,0,0.366,619.99
100342,135056,5203,0.008,0.795,0.692,-0.183,0,0.366,619.994
100342,135071,7829,0.005,0.794,0.69,0,0,-0.183,620
100334,135056,5203,0.005,0.794,0.693,0,0,-0.183,620.004
100334,135087,7831,0.007,0.793,0.69,-0.244,0.244,0.122,620.01
100338,135056,5203,0.009,0.792,0.688,-0.244,0.244,0.122,620.014
100338,135079,7813,0.009,0.789,0.686,-0.427,0.244,-0.061,620.02
100342,135056,5203,0.005,0.789,0.689,-0.427,0.244,-0.061,620.024
100342,135074,7810,0.004,0.792,0.691,-0.061,0.427,0,620.03
100330,135056,5203,0.005,0.791,0.691,-0.061,0.427,0,620.034
100330,135061,7834,0.005,0.791,0.694,-0.244,0.549,0.183,620.04
100344,135056,5203,0.006,0.786,0.695,-0.244,0.549,0.183,620.044
100344,135056,7822,0.006,0.782,0.691,-0.488,0.305,0.183,620.05
100339,135056,5203,0.007,0.783,0.687,-0.488,0.305,0.183,620.053
100339,135045,7831,0.005,0.787,0.687,-0.061,0.183,0.305,620.06
100330,135056,5203,0.004,0.792,0.686,-0.061,0.183,0.305,620.063
100330,135067,7816,0.003,0.799,0.686,0.122,0.427,0.244,620.069
100354,135056,5203,0.006,0.795,0.686,0.122,0.427,0.244,620.073
100354,135063,7830,0.008,0.796,0.684,-0.061,0.244,0.244,620.079
100362,135056,5203,0.003,0.795,0.683,-0.061,0.244,0.244,620.083
100362,135047,7809,0.004,0.798,0.689,-0.305,0.244,0.244,620.089
100347,135056,5203,0.005,0.794,0.694,-0.305,0.244,0.244,620.093
100347,135073,7824,0.005,0.792,0.691,-0.366,0.427,0.305,620.099
100353,135056,5203,0.005,0.792,0.689,-0.366,0.427,0.305,620.103
100353,135043,7816,0.007,0.795,0.693,-0.427,0.427,0.427,620.109
100346,135056,5203,0.006,0.792,0.693,-0.427,0.427,0.427,620.113
100346,135076,7821,0.007,0.791,0.692,-0.244,0.671,0.427,620.119
100351,135056,5203,0.006,0.79,0.689,-0.244,0.671,0.427,620.123
100351,135046,7830,0.004,0.789,0.691,-0.305,0.549,0.427,620.129
100334,135056,5203,0.005,0.787,0.69,-0.305,0.549,0.427,620.133
100334,135048,7817,0.004,0.79,0.689,-0.244,0.488,0.427,620.139
100350,135056,5203,0.007,0.791,0.685,-0.244,0.488,0.427,620.143
100350,135055,7823,0.009,0.792,0.686,0,0.488,0.427,620.149
100359,135056,5203,0.006,0.795,0.686,0,0.488,0.427,620.152
100359,135058,7820,0.006,0.793,0.686,-0.061,0.366,0.244,620.159
100355,135056,5203,0.008,0.795,0.688,-0.061,0.366,0.244,620.162
100355,135081,7819,0.006,0.793,0.69,-0.305,0.305,0.305,620.168
100342,135056,5203,0.008,0.79,0.692,-0.305,0.305,0.305,620.172
100342,135056,7821,0.006,0.79,0.692,-0.549,0.366,0.427,620.178
100357,135056,5203,0.005,0.791,0.693,-0.549,0.366,0.427,620.182
100357,135080,7834,0.003,0.793,0.689,-0.61,0.427,0.549,620.188
100377,135056,5203,0.004,0.793,0.687,-0.61,0.427,0.549,620.192
100377,135076,7831,0.001,0.789,0.693,-0.427,0.427,0.61,620.198
100385,135056,5203,0.005,0.788,0.693,-0.427,0.427,0.61,620.202
100385,135081,7815,0.001,0.79,0.695,-0.366,0.488,0.549,620.208
100399,135056,5203,0.001,0.791,0.694,-0.366,0.488,0.549,620.212
100399,135097,7831,-0,0.791,0.692,-0.244,0.549,0.488,620.218
100389,135056,5203,0.001,0.791,0.69,-0.244,0.549,0.488,620.222
100389,135096,7824,0.005,0.793,0.69,-0.061,0.488,0.427,620.228
100388,135056,5203,0.005,0.791,0.686,-0.061,0.488,0.427,620.232
100388,135107,7828,0.002,0.794,0.683,-0.183,0.549,0.366,620.238
100440,135056,5203,0.004,0.795,0.686,-0.183,0.549,0.366,620.241
100440,135113,7838,0.004,0.791,0.685,-0.427,0.427,0.244,620.248
100441,135056,5203,0.003,0.791,0.683,-0.427,0.427,0.244,620.251
100441,135119,7835,0.007,0.791,0.687,-0.488,0.366,0.244,620.258
100454,135056,5203,0.009,0.794,0.692,-0.488,0.366,0.244,620.261
100454,135133,7841,0.008,0.794,0.692,-0.366,0.427,0.305,620.267
100475,135056,5203,0.006,0.79,0.693,-0.366,0.427,0.305,620.271
100475,135139,7820,0.004,0.79,0.694,-0.183,0.427,0.671,620.277
100465,135056,5203,0.003,0.793,0.691,-0.183,0.427,0.671,620.281
100465,135160,7842,0.002,0.792,0.689,-0.122,0.488,0.61,620.287
100496,135056,5203,0.005,0.796,0.691,-0.122,0.488,0.61,620.291
100496,135160,7835,0.007,0.797,0.692,-0.061,0.488,0.549,620.297
100518,135312,5203,0.007,0.797,0.692,-0.061,0.488,0.549,620.301
100518,135181,7851,0,0.787,0.689,-0.061,0.366,0.61,620.307
100524,135312,5203,0,0.787,0.689,-0.061,0.366,0.61,620.311
100524,135192,7848,0.002,0.791,0.691,0.122,0.427,0.427,620.317
100528,135312,5203,0.002,0.791,0.691,0.122,0.427,0.427,620.321
100528,135199,7843,0.004,0.799,0.688,0.061,0.427,0.244,620.327
100547,135312,5203,0.004,0.799,0.688,0.061,0.427,0.244,620.331
100547,135191,7857,0.003,0.787,0.691,-0.183,0.244,0.305,620.337
100545,135312,5203,0.003,0.787,0.691,-0.183,0.244,0.305,620.34
100545,135184,7846,0.004,0.792,0.689,-0.122,0.305,0.305,620.347
100547,135312,5203,0.004,0.792,0.689,-0.122,0.305,0.305,620.35
100547,135182,7852,0.005,0.799,0.684,-0.061,0.366,0.183,620.357
100542,135312,5203,0.005,0.799,0.684,-0.061,0.366,0.183,620.36
100542,135175,7845,0.003,0.792,0.694,-0.366,0.183,0.122,620.366
100531,135056,5203,0.003,0.792,0.694,-0.366,0.183,0.122,620.37
100531,135163,7848,0.004,0.789,0.69,-0.183,0.244,0.183,620.376
100529,135312,5203,0.004,0.789,0.69,-0.183,0.244,0.183,620.38
100529,135180,7849,0.006,0.797,0.692,0.244,0.366,0.244,620.386
100524,135056,5203,0.006,0.797,0.692,0.244,0.366,0.244,620.39
100524,135163,7839,0.006,0.795,0.691,0.122,0.305,0.061,620.396
100533,135312,5203,0.006,0.795,0.691,0.122,0.305,0.061,620.4
100533,135182,7839,0.006,0.79,0.688,0.122,0.427,0.244,620.406
100517,135312,5203,0.006,0.79,0.688,0.122,0.427,0.244,620.41
100517,135185,7838,0.008,0.795,0.684,0.305,0.427,0.305,620.416
100543,135312,5203,0.008,0.795,0.684,0.305,0.427,0.305,620.42
100543,135171,7838,0.008,0.793,0.686,-0.061,0.244,0.061,620.426
100505,135312,5203,0.008,0.793,0.686,-0.061,0.244,0.061,620.43
100505,135177,7843,0.002,0.788,0.688,-0.488,0.183,0.183,620.436
100540,135056,5203,0.002,0.788,0.688,-0.488,0.183,0.183,620.439
100540,135145,7844,0.002,0.788,0.691,-0.488,0.183,0.183,620.446
100529,135312,5203,0.002,0.789,0.695,-0.244,0.183,0.244,620.449
100529,135169,7834,0.004,0.787,0.691,-0.244,0.183,0.244,620.456
100540,135056,5203,0.005,0.789,0.695,-0.061,0.183,0.427,620.459
100540,135159,7852,0.002,0.795,0.698,-0.061,0.183,0.427,620.465
100535,135312,5203,0.003,0.796,0.694,0.061,0.244,0.244,620.469
100535,135170,7845,0.004,0.795,0.693,0.061,0.244,0.244,620.475
100534,135312,5203,0.008,0.796,0.693,-0.061,0.244,0.244,620.479
100534,135210,7842,0.008,0.791,0.692,-0.061,0.244,0.244,620.485
100506,135312,5203,0.008,0.791,0.693,-0.061,0.427,0.183,620.489
100506,135196,7841,0.007,0.792,0.69,-0.061,0.427,0.183,620.495
100530,135312,5203,0.01,0.794,0.689,0.061,0.488,0.244,620.499
100530,135192,7846,0.008,0.796,0.692,0.061,0.488,0.244,620.505
100515,135312,5203,0.005,0.792,0.691,-0.183,0.549,0.427,620.509
100515,135175,7839,0.006,0.789,0.69,-0.183,0.549,0.427,620.515
100522,135312,5203,0.002,0.79,0.69,-0.305,0.549,0.732,620.519
100522,135191,7846,0.006,0.793,0.686,-0.305,0.549,0.732,620.525
100529,135312,5203,0.005,0.795,0.691,-0.061,0.671,0.61,620.529
100529,135176,7853,0,0.797,0.687,-0.061,0.671,0.61,620.535
100510,135312,5203,-0,0.796,0.688,0.061,0.732,0.488,620.538
100510,135193,7841,0.002,0.795,0.687,0.061,0.732,0.488,620.545
100514,135312,5203,0.002,0.79,0.686,-0.183,0.549,0.488,620.548
100514,135176,7853,0.003,0.791,0.687,-0.183,0.549,0.488,620.555
100507,135312,5203,-0,0.794,0.689,-0.244,0.549,0.488,620.558
100507,135173,7843,0.005,0.797,0.688,-0.244,0.549,0.488,620.564
100518,135312,5203,0.002,0.795,0.689,-0.366,0.61,0.366,620.568
100518,135180,7843,0.003,0.792,0.69,-0.366,0.61,0.366,620.574
100526,135312,5203,0.006,0.793,0.689,-0.488,0.427,0.244,620.578
100526,135175,7849,0.006,0.79,0.695,-0.488,0.427,0.244,620.584
100530,135312,5203,0.006,0.79,0.696,-0.732,0.366,0.122,620.588
100530,135175,7842,0.007,0.79,0.697,-0.732,0.366,0.122,620.594
100533,135312,5203,0.01,0.787,0.686,-0.366,0.244,0.244,620.598
100533,135174,7828,0.005,0.791,0.687,-0.366,0.244,0.244,620.604
100511,135056,5203,0.008,0.792,0.685,0.366,0.366,0.244,620.608
100511,135166,7849,0.007,0.797,0.685,0.366,0.366,0.244,620.614
100519,135056,5203,0.008,0.793,0.686,-0.061,0.427,0.244,620.618
100519,135161,7836,0.009,0.79,0.687,-0.061,0.427,0.244,620.624
100516,135312,5203,0.006,0.79,0.692,-0.549,0.122,0.427,620.628
100516,135175,7840,0.006,0.792,0.694,-0.549,0.122,0.427,620.634
100517,135312,5203,0.004,0.79,0.69,-0.366,0.244,0.244,620.637
100517,135173,7839,0.002,0.791,0.695,-0.366,0.244,0.244,620.644
100521,135312,5203,0.003,0.794,0.693,-0.122,0.427,0.488,620.647
100521,135169,7843,0.004,0.795,0.695,-0.122,0.427,0.488,620.653
100533,135056,5203,0.003,0.796,0.692,-0.183,0.427,0.427,620.657
100533,135155,7833,0.004,0.797,0.69,-0.183,0.427,0.427,620.663
