104585,138071,8233,-0.035,1.004,0.271,0.305,0.854,0.183,473.925
104638,138128,5203,-0.033,1.006,0.273,0.305,0.854,0.183,473.929
104638,138088,8244,-0.034,1.006,0.28,0.244,0.305,0.366,473.935
104618,138128,5203,-0.033,1.004,0.28,0.244,0.305,0.366,473.939
104618,138066,8247,-0.032,1.004,0.284,0.305,-0.061,0.488,473.945
104615,138128,5203,-0.032,1.01,0.297,0.305,-0.061,0.488,473.949
104615,138076,8241,-0.03,1.01,0.3,0.244,-0.061,0.793,473.955
104587,138128,5203,-0.029,1.006,0.305,0.244,-0.061,0.793,473.959
104587,138082,8239,-0.036,1.008,0.307,0.061,0.061,0.671,473.965
104605,138128,5203,-0.034,1.017,0.307,0.061,0.061,0.671,473.969
104605,138048,8236,-0.03,1.013,0.303,-0.427,0.61,0.427,473.975
104592,138128,5203,-0.034,1.004,0.302,-0.427,0.61,0.427,473.979
104592,138080,8232,-0.037,0.999,0.296,-0.366,1.098,0.061,473.985
104604,138128,5203,-0.036,1.002,0.293,-0.366,1.098,0.061,473.988
104604,138057,8229,-0.032,1.004,0.285,-0.305,1.159,0.122,473.995
104586,138128,5203,-0.034,1.004,0.276,-0.305,1.159,0.122,473.998
104586,138054,8243,-0.036,1.002,0.271,0,1.098,0,474.005
104605,138128,5203,-0.039,0.994,0.274,0,1.098,0,474.008
104605,138057,8236,-0.038,0.999,0.273,0.122,0.549,0.305,474.014
104580,138128,5203,-0.038,0.999,0.274,0.122,0.549,0.305,474.018
104580,138064,8237,-0.035,0.995,0.279,-0.244,-0.061,0.671,474.024
104605,138128,5203,-0.034,1.001,0.286,-0.244,-0.061,0.671,474.028
104605,138038,8239,-0.032,1.007,0.293,-0.183,-0.366,0.793,474.034
104590,138128,5203,-0.033,1.009,0.293,-0.183,-0.366,0.793,474.038
104590,138061,8234,-0.033,1.015,0.298,-0.122,-0.305,0.671,474.044
104565,138128,5203,-0.034,1.019,0.305,-0.122,-0.305,0.671,474.048
104565,138055,8235,-0.035,1.019,0.305,-0.183,0,0.366,474.054
104579,138128,5203,-0.035,1.012,0.302,-0.183,0,0.366,474.058
104579,138039,8221,-0.033,1.003,0.302,-0.366,0.305,0.122,474.064
104565,138128,5203,-0.034,1.001,0.297,-0.366,0.305,0.122,474.068
104565,138030,8233,-0.033,1.003,0.291,-0.488,0.671,0.122,474.074
104569,138128,5203,-0.034,1.004,0.289,-0.488,0.671,0.122,474.078
104569,138039,8231,-0.038,1,0.288,0,1.037,0.122,474.084
104527,138128,5203,-0.036,1.005,0.288,0,1.037,0.122,474.087
104527,138005,8236,-0.036,1.009,0.281,0.183,1.037,0.061,474.094
104542,138128,5203,-0.035,1.004,0.277,0.183,1.037,0.061,474.097
104542,137988,8228,-0.035,0.999,0.276,0.183,0.793,-0.122,474.103
104521,138128,5203,-0.033,0.994,0.28,0.183,0.793,-0.122,474.107
104521,138007,8217,-0.034,1,0.283,0.122,0.366,0.183,474.113
104523,138128,5203,-0.031,1.006,0.289,0.122,0.366,0.183,474.117
104523,138012,8234,-0.032,1.003,0.289,0.061,0.122,0.61,474.123
104534,138128,5203,-0.036,1.004,0.29,0.061,0.122,0.61,474.127
104534,138046,8223,-0.038,1.015,0.285,-0.122,-0.061,0.915,474.133
104562,138128,5203,-0.035,1.015,0.288,-0.122,-0.061,0.915,474.137
104562,138017,8216,-0.033,1.005,0.294,-0.488,-0.244,0.793,474.143
104535,138128,5203,-0.035,1.002,0.297,-0.488,-0.244,0.793,474.147
104535,138014,8226,-0.037,0.998,0.295,-0.488,-0.061,0.61,474.153
104517,138128,5203,-0.036,0.998,0.292,-0.488,-0.061,0.61,474.157
104517,137991,8216,-0.032,1.005,0.295,-0.183,0.183,0.549,474.163
104486,138128,5203,-0.034,1.014,0.295,-0.183,0.183,0.549,474.167
104486,138008,8228,-0.033,1.016,0.298,0.122,0.671,0.427,474.173
104497,137872,5203,-0.034,1.012,0.295,0.122,0.671,0.427,474.177
104497,137981,8229,-0.034,1.015,0.291,-0.183,0.915,0.244,474.183
104468,138128,5203,-0.033,1.007,0.288,-0.183,0.915,0.244,474.186
104468,137993,8236,-0.032,0.999,0.287,-0.122,1.159,0,474.193
104514,138128,5203,-0.032,1,0.281,-0.122,1.159,0,474.196
104514,138025,8212,-0.033,1.004,0.282,-0.061,0.854,0.183,474.203
104546,138128,5203,-0.032,1.007,0.281,-0.061,0.854,0.183,474.206
104546,138000,8236,-0.034,1,0.281,0.061,0.61,0.183,474.212
104560,138128,5203,-0.037,0.998,0.282,0.061,0.61,0.183,474.216
104560,138054,8230,-0.038,1.006,0.287,0.427,0.183,0.366,474.222
104589,138128,5203,-0.036,1.008,0.283,0.427,0.183,0.366,474.226
104589,138059,8240,-0.032,1.006,0.283,-0.061,-0.061,0.427,474.232
104598,138128,5203,-0.035,1,0.286,-0.061,-0.061,0.427,474.236
104598,138056,8238,-0.037,0.999,0.285,-0.183,-0.244,0.488,474.242
104584,138128,5203,-0.039,1.004,0.286,-0.183,-0.244,0.488,474.246
104584,138065,8233,-0.037,1.013,0.295,0.122,-0.366,0.61,474.252
104577,138128,5203,-0.034,1.014,0.295,0.122,-0.366,0.61,474.256
104577,138036,8239,-0.033,1.015,0.294,0.244,-0.061,0.366,474.262
104555,138128,5203,-0.035,1.011,0.295,0.244,-0.061,0.366,474.266
104555,138036,8223,-0.035,1.007,0.297,0.122,0.061,0.305,474.272
104541,138128,5203,-0.033,1.003,0.301,0.122,0.061,0.305,474.276
104541,138020,8221,-0.033,1.003,0.295,-0.122,0.366,0.366,474.282
104553,138128,5203,-0.032,1.006,0.288,-0.122,0.366,0.366,474.285
104553,138021,8234,-0.032,1.005,0.288,-0.366,0.732,0.488,474.292
104541,138128,5203,-0.034,1.012,0.291,-0.366,0.732,0.488,474.295
104541,138024,8223,-0.032,1.013,0.287,-0.366,0.793,0.488,474.301
104540,138128,5203,-0.032,1.011,0.286,-0.366,0.793,0.488,474.305
104540,138043,8223,-0.035,1.01,0.281,-0.122,0.793,0.183,474.311
104549,138128,5203,-0.032,1.011,0.284,-0.122,0.793,0.183,474.315
104549,138014,8232,-0.031,1.007,0.293,0,0.732,0.122,474.321
104547,138128,5203,-0.034,1.002,0.29,0,0.732,0.122,474.325
104547,138013,8226,-0.037,1.004,0.288,-0.061,0.61,0.244,474.331
104564,138128,5203,-0.032,1.004,0.297,-0.061,0.61,0.244,474.335
104564,138035,8231,-0.034,1.003,0.3,-0.183,0.61,0.427,474.341
104557,138128,5203,-0.034,1.003,0.3,-0.183,0.61,0.427,474.345
104557,138046,8225,-0.035,1.001,0.299,-0.244,0.671,0.305,474.351
104579,138128,5203,-0.035,1.001,0.299,-0.244,0.671,0.305,474.355
104579,138041,8242,-0.033,1.004,0.296,-0.061,0.732,0.305,474.361
104572,138128,5203,-0.033,1.004,0.296,-0.061,0.732,0.305,474.365
104572,138044,8224,-0.035,1,0.293,-0.122,0.854,0.244,474.371
104543,138128,5203,-0.035,1,0.293,-0.122,0.854,0.244,474.374
104543,138052,8226,-0.034,1,0.286,-0.366,0.854,0.366,474.381
104568,138128,5203,-0.034,1,0.286,-0.366,0.854,0.366,474.384
104568,138043,8232,-0.036,0.994,0.287,-0.366,0.793,0.488,474.391
104563,138128,5203,-0.036,0.994,0.287,-0.366,0.793,0.488,474.394
104563,138053,8224,-0.034,1.003,0.283,-0.244,0.61,0.671,474.4
104567,138128,5203,-0.034,1.003,0.283,-0.244,0.61,0.671,474.404
104567,138046,8235,-0.037,1.011,0.285,0,0.427,0.854,474.41
104612,138128,5203,-0.037,1.011,0.285,0,0.427,0.854,474.414
104612,138074,8232,-0.033,1.012,0.292,-0.305,0.366,0.793,474.42
104645,138128,5203,-0.033,1.012,0.292,-0.305,0.366,0.793,474.424
104645,138082,8235,-0.034,1.019,0.285,-0.671,0.549,0.61,474.43
104647,138128,5203,-0.034,1.019,0.285,-0.671,0.549,0.61,474.434
104647,138107,8234,-0.034,1.019,0.287,-0.793,0.671,0.61,474.44
104645,138128,5203,-0.034,1.019,0.287,-0.793,0.671,0.61,474.444
104645,138122,8244,-0.033,1.003,0.288,-0.305,0.549,0.305,474.45
104644,138128,5203,-0.033,1.003,0.288,-0.305,0.549,0.305,474.454
104644,138086,8241,-0.036,1.006,0.283,0.183,0.427,0.244,474.46
104616,138128,5203,-0.036,1.006,0.283,0.183,0.427,0.244,474.464
104616,138102,8233,-0.036,0.999,0.294,0.427,0.305,0.244,474.47
104617,138128,5203,-0.036,0.999,0.294,0.427,0.305,0.244,474.473
104617,138069,8224,-0.034,1.006,0.289,0.549,0.244,0.366,474.48
104608,138128,5203,-0.034,1.006,0.289,0.549,0.244,0.366,474.483
104608,138054,8232,-0.034,1.007,0.286,0.549,0.244,0.366,474.49
104601,138128,5203,-0.036,0.999,0.292,0.549,0.183,0.305,474.493
104601,138059,8242,-0.037,1.001,0.297,0.549,0.183,0.305,474.499
104577,138128,5203,-0.035,1.001,0.301,0.122,0.244,0.244,474.503
104577,138051,8230,-0.033,1.002,0.297,0.122,0.244,0.244,474.509
104602,138128,5203,-0.03,0.997,0.293,-0.366,0.183,0.305,474.513
104602,138078,8251,-0.031,0.999,0.297,-0.366,0.183,0.305,474.519
104625,138128,5203,-0.031,1,0.291,-0.305,0.122,0.549,474.523
104625,138073,8250,-0.031,1.006,0.293,-0.305,0.122,0.549,474.529
104622,138128,5203,-0.031,1.008,0.291,-0.305,0.122,0.793,474.533
104622,138086,8248,-0.033,1.006,0.287,-0.305,0.122,0.793,474.539
104640,138128,5203,-0.035,1.011,0.282,-0.488,0.122,0.793,474.543
104640,138124,8256,-0.037,1.01,0.285,-0.488,0.122,0.793,474.549
104672,138128,5203,-0.033,1.008,0.285,-0.671,0.061,0.671,474.553
104672,138113,8235,-0.039,1.006,0.291,-0.671,0.061,0.671,474.559
104649,138128,5203,-0.038,1.01,0.289,-0.305,0.061,0.488,474.563
104649,138109,8252,-0.036,1.012,0.293,-0.305,0.061,0.488,474.569
104640,138128,5203,-0.038,1.01,0.29,0,0.183,0.366,474.572
104640,138073,8240,-0.036,1.013,0.29,0,0.183,0.366,474.579
104615,138128,5203,-0.035,1.006,0.294,0.061,0.305,0.183,474.582
104615,138069,8240,-0.033,1.001,0.299,0.061,0.305,0.183,474.589
104613,138128,5203,-0.031,1.004,0.3,-0.061,0.488,-0.061,474.592
104613,138051,8240,-0.033,1.004,0.298,-0.061,0.488,-0.061,474.598
104577,138128,5203,-0.03,1,0.289,0,0.61,-0.122,474.602
104577,138065,8243,-0.031,0.998,0.287,0,0.61,-0.122,474.608
104597,138128,5203,-0.033,0.999,0.284,0.122,0.61,0,474.612
104597,138043,8220,-0.031,1.001,0.287,0.122,0.61,0,474.618
104578,138128,5203,-0.03,1.002,0.289,-0.061,0.549,0.366,474.622
104578,138045,8242,-0.03,1,0.292,-0.061,0.549,0.366,474.628
104579,138128,5203,-0.034,1.005,0.292,-0.061,0.549,0.427,474.632
104579,138043,8237,-0.031,1.009,0.289,-0.061,0.549,0.427,474.638
104575,138128,5203,-0.033,1.006,0.289,-0.183,0.549,0.61,474.642
104575,138039,8245,-0.038,1.006,0.281,-0.183,0.549,0.61,474.648
104586,138128,5203,-0.04,1.001,0.277,-0.671,0.427,0.61,474.652
104586,138041,8228,-0.037,1.001,0.285,-0.671,0.427,0.61,474.658
104556,138128,5203,-0.036,1.008,0.286,-0.427,0.061,0.671,474.662
104556,138049,8237,-0.036,1.011,0.286,-0.427,0.061,0.671,474.668
104572,138128,5203,-0.037,1.013,0.286,-0.244,0,0.61,474.671
104572,138032,8234,-0.037,1.01,0.285,-0.244,0,0.61,474.678
104550,138128,5203,-0.039,1.008,0.285,-0.061,0.061,0.488,474.681
104550,138028,8253,-0.039,1.017,0.291,-0.061,0.061,0.488,474.688
104550,138128,5203,-0.037,1.016,0.288,0.122,0.122,0.244,474.691
104550,138040,8236,-0.033,1.007,0.292,0.122,0.122,0.244,474.697
104555,138128,5203,-0.032,1.001,0.294,0.122,0.244,-0.122,474.701
104555,138024,8235,-0.032,1.001,0.294,0.122,0.244,-0.122,474.707
104559,138128,5203,-0.031,1,0.295,-0.061,0.305,0.122,474.711
104559,138009,8236,-0.029,1.002,0.297,-0.061,0.305,0.122,474.717
104545,138128,5203,-0.029,1.001,0.3,0,0.488,0.183,474.721
104545,138009,8228,-0.029,0.996,0.302,0,0.488,0.183,474.727
104574,138128,5203,-0.031,1.002,0.295,-0.061,0.732,0.244,474.731
104574,138056,8245,-0.031,1.01,0.291,-0.061,0.732,0.244,474.737
104597,138128,5203,-0.031,1.007,0.286,-0.305,0.732,0.305,474.741
104597,138072,8233,-0.029,1.008,0.288,-0.305,0.732,0.305,474.747
104609,138128,5203,-0.034,1.008,0.29,-0.61,0.671,0.183,474.751
104609,138062,8254,-0.034,1.002,0.286,-0.61,0.671,0.183,474.757
104666,138128,5203,-0.034,0.999,0.277,-0.732,0.305,0.366,474.761
104666,138083,8235,-0.035,0.997,0.277,-0.732,0.305,0.366,474.767
104663,138128,5203,-0.035,0.999,0.283,-0.122,0.122,0.549,474.77
104663,138119,8238,-0.039,1.008,0.286,-0.122,0.122,0.549,474.777
104673,138128,5203,-0.037,1.011,0.293,0.122,-0.122,0.854,474.78
104673,138114,8248,-0.034,1.011,0.296,0.122,-0.122,0.854,474.786
104684,138128,5203,-0.037,1.01,0.291,-0.061,-0.183,0.732,474.79
104684,138147,8243,-0.038,1.011,0.294,-0.061,-0.183,0.732,474.796
104680,138128,5203,-0.037,1.014,0.291,-0.366,0.122,0.366,474.8
104680,138122,8247,-0.036,1.009,0.285,-0.366,0.122,0.366,474.806
104682,138128,5203,-0.039,0.997,0.283,-0.488,0.244,0.122,474.81
104682,138147,8244,-0.039,0.999,0.289,-0.488,0.244,0.122,474.816
104711,138128,5203,-0.033,1.005,0.299,-0.427,0.305,0.061,474.82
104711,138152,8255,-0.029,1.008,0.3,-0.427,0.305,0.061,474.826
104723,138128,5203,-0.033,1.007,0.294,-0.427,0.488,0.305,474.83
104723,138173,8254,-0.032,1.012,0.29,-0.427,0.488,0.305,474.836
104727,138128,5203,-0.03,1.018,0.295,-0.244,0.61,0.305,474.84
104727,138157,8269,-0.028,1.014,0.294,-0.244,0.61,0.305,474.846
104712,138128,5203,-0.028,1.005,0.287,-0.183,0.549,0.122,474.85
104712,138141,8263,-0.032,1,0.291,-0.183,0.549,0.122,474.856
104741,138128,5203,-0.034,0.998,0.284,-0.244,0.488,0.183,474.86
104741,138144,8254,-0.033,0.994,0.283,-0.244,0.488,0.183,474.866
104748,138128,5203,-0.034,0.992,0.281,-0.183,0.305,0.305,474.869
104748,138151,8247,-0.036,0.997,0.283,-0.183,0.305,0.305,474.876
104732,138128,5203,-0.037,1.004,0.289,-0.122,0.061,0.61,474.879
104732,138162,8254,-0.038,1.006,0.283,-0.122,0.061,0.61,474.885
104738,138128,5203,-0.042,1.009,0.28,0.061,-0.122,0.671,474.889
104738,138158,8259,-0.042,1.007,0.282,0.061,-0.122,0.671,474.895
104707,138128,5203,-0.036,1.012,0.292,-0.244,-0.366,0.549,474.899
104707,138142,8263,-0.035,1.009,0.299,-0.244,-0.366,0.549,474.905
104669,138128,5203,-0.034,1.005,0.295,-0.61,-0.244,0.488,474.909
104669,138149,8249,-0.033,1.004,0.296,-0.61,-0.244,0.488,474.915
104638,138128,5203,-0.036,1.009,0.301,-0.488,0.061,0.488,474.919
104638,138114,8247,-0.034,1.013,0.297,-0.488,0.061,0.488,474.925
104667,138128,5203,-0.034,1.013,0.297,-0.488,0.061,0.488,474.929
104667,138106,8264,-0.027,1.005,0.296,-0.244,0.427,0.244,474.935
104655,138128,5203,-0.027,1.005,0.296,-0.244,0.427,0.244,474.939
104655,138100,8261,-0.03,0.998,0.296,-0.244,0.61,0.183,474.945
104663,138128,5203,-0.03,0.998,0.296,-0.244,0.61,0.183,474.949
104663,138115,8246,-0.032,1.001,0.29,-0.244,0.732,0.122,474.955
104686,138128,5203,-0.032,1.001,0.29,-0.244,0.732,0.122,474.959
104686,138140,8253,-0.038,1,0.275,-0.061,0.854,0.305,474.965
104683,138128,5203,-0.038,1,0.275,-0.061,0.854,0.305,474.968
104683,138140,8241,-0.034,0.999,0.283,-0.244,0.427,0.549,474.975
104699,138128,5203,-0.034,0.999,0.283,-0.244,0.427,0.549,474.978
104699,138128,8259,-0.035,1.003,0.28,-0.488,-0.061,0.549,474.984
104698,138128,5203,-0.035,1.003,0.28,-0.488,-0.061,0.549,474.988
104698,138140,8260,-0.037,1.007,0.286,-0.183,-0.305,0.671,474.994
104703,138128,5203,-0.037,1.007,0.286,-0.183,-0.305,0.671,474.998
104703,138128,8256,-0.038,1.018,0.297,0.183,-0.305,0.61,475.004
104677,138128,5203,-0.038,1.018,0.297,0.183,-0.305,0.61,475.008
104677,138128,8246,-0.031,1.014,0.299,-0.122,-0.366,0.549,475.014
104682,138128,5203,-0.031,1.014,0.299,-0.122,-0.366,0.549,475.018
104682,138113,8264,-0.034,1.005,0.299,-0.244,-0.061,0.305,475.024
104655,138128,5203,-0.034,1.005,0.299,-0.244,-0.061,0.305,475.028
104655,138117,8248,-0.033,1.004,0.295,-0.488,0.488,0.305,475.034
104652,138128,5203,-0.033,1.004,0.295,-0.488,0.488,0.305,475.038
104652,138112,8242,-0.033,1,0.283,-0.732,0.976,0.244,475.044
104668,138128,5203,-0.033,1,0.283,-0.732,0.976,0.244,475.048
104668,138120,8226,-0.037,1.002,0.283,-0.366,0.976,0.305,475.054
104630,138128,5203,-0.037,1.002,0.283,-0.366,0.976,0.305,475.057
104630,138072,8237,-0.029,1.004,0.287,-0.183,0.732,0.366,475.064
104612,138128,5203,-0.029,1.004,0.287,-0.183,0.732,0.366,475.067
104612,138074,8240,-0.03,1.005,0.289,0,0.549,0.305,475.074
104624,138128,5203,-0.032,1.004,0.29,0,0.549,0.305,475.077
104624,138068,8252,-0.031,0.998,0.293,-0.122,0.305,0.244,475.083
104622,138128,5203,-0.033,1.003,0.296,-0.122,0.305,0.244,475.087
104622,138074,8243,-0.031,1.009,0.296,-0.183,0.122,0.427,475.093
104643,138128,5203,-0.032,1.002,0.297,-0.183,0.122,0.427,475.097
104643,138089,8238,-0.034,0.996,0.297,-0.488,0.061,0.305,475.103
104610,138128,5203,-0.029,0.999,0.298,-0.488,0.061,0.305,475.107
104610,138079,8240,-0.032,1.002,0.299,-0.549,0.183,0.305,475.113
104634,138128,5203,-0.029,1,0.298,-0.549,0.183,0.305,475.117
104634,138082,8251,-0.032,1.003,0.287,-0.427,0.305,0.305,475.123
104622,138128,5203,-0.036,1.005,0.283,-0.427,0.305,0.305,475.127
104622,138096,8238,-0.035,1.004,0.285,-0.427,0.305,0.488,475.133
104636,138128,5203,-0.032,1.002,0.291,-0.427,0.305,0.488,475.137
104636,138081,8243,-0.031,1.005,0.291,-0.549,0.244,0.61,475.143
104647,138128,5203,-0.033,1.007,0.292,-0.549,0.244,0.61,475.147
104647,138082,8259,-0.031,1.012,0.288,-0.549,0.366,0.671,475.153
104651,138128,5203,-0.034,1.01,0.281,-0.549,0.366,0.671,475.156
104651,138100,8236,-0.035,1.01,0.285,-0.488,0.366,0.793,475.163
104644,138128,5203,-0.037,1.015,0.289,-0.488,0.366,0.793,475.166
104644,138126,8258,-0.031,1.015,0.293,-0.427,0.305,0.671,475.173
104690,138128,5203,-0.031,1.013,0.297,-0.427,0.305,0.671,475.176
104690,138121,8247,-0.034,1.014,0.291,-0.244,0.366,0.183,475.182
104666,138128,5203,-0.038,1.016,0.285,-0.244,0.366,0.183,475.186
104666,138127,8259,-0.038,1.009,0.286,-0.122,0.488,0.061,475.192
104675,138128,5203,-0.038,1.003,0.281,-0.122,0.488,0.061,475.196
104675,138144,8261,-0.036,0.995,0.284,-0.183,0.427,0.122,475.202
104678,138128,5203,-0.036,0.995,0.289,-0.183,0.427,0.122,475.206
104678,138137,8253,-0.035,0.997,0.295,0.122,0.305,0.305,475.212
104645,138128,5203,-0.038,1.005,0.301,0.122,0.305,0.305,475.216
104645,138095,8256,-0.036,1.011,0.3,0.427,0.488,0.366,475.222
104629,138128,5203,-0.033,1.013,0.296,0.427,0.488,0.366,475.226
104629,138111,8231,-0.034,1.01,0.29,-0.061,0.61,0.122,475.232
104644,138128,5203,-0.036,1.008,0.292,-0.061,0.61,0.122,475.236
104644,138100,8260,-0.034,0.998,0.295,-0.549,0.488,0.061,475.242
104637,138128,5203,-0.034,0.993,0.289,-0.549,0.488,0.061,475.246
104637,138078,8253,-0.032,0.989,0.28,-0.854,0.244,0.122,475.252
104667,138128,5203,-0.036,0.989,0.287,-0.854,0.244,0.122,475.255
104667,138097,8253,-0.036,0.998,0.285,-0.488,0.061,0.305,475.262
104650,138128,5203,-0.036,1.008,0.283,-0.488,0.061,0.305,475.265
104650,138113,8250,-0.033,1.006,0.288,-0.305,-0.122,0.61,475.272
104673,138128,5203,-0.036,1.006,0.29,-0.305,-0.122,0.61,475.275
104673,138126,8259,-0.032,1.011,0.29,-0.549,-0.183,0.549,475.281
104701,138128,5203,-0.033,1.009,0.291,-0.549,-0.183,0.549,475.285
104701,138136,8266,-0.035,1.004,0.293,-0.549,-0.244,0.549,475.291
104714,138128,5203,-0.036,1.004,0.299,-0.549,-0.244,0.549,475.295
104714,138150,8268,-0.036,1.004,0.293,-0.244,-0.183,0.549,475.301
104693,138128,5203,-0.036,1.001,0.285,-0.244,-0.183,0.549,475.305
104693,138157,8256,-0.042,1.002,0.285,-0.122,-0.061,0.61,475.311
104686,138128,5203,-0.038,1.009,0.291,-0.122,-0.061,0.61,475.315
104686,138116,8257,-0.032,1.014,0.299,0.244,-0.061,0.549,475.321
104671,138128,5203,-0.033,1.014,0.297,0.244,-0.061,0.549,475.325
104671,138090,8243,-0.034,1.015,0.296,0.366,0.305,0.122,475.331
104659,138128,5203,-0.033,1.016,0.302,0.366,0.305,0.122,475.335
104659,138113,8255,-0.032,1.012,0.307,0.061,0.671,-0.366,475.341
104637,138128,5203,-0.03,1.002,0.298,0.061,0.671,-0.366,475.345
104637,138093,8262,-0.032,0.995,0.294,-0.061,0.915,-0.366,475.351
104633,138128,5203,-0.03,1.001,0.29,-0.061,0.915,-0.366,475.354
104633,138079,8262,-0.029,1.001,0.29,-0.122,0.732,-0.122,475.361
104643,138128,5203,-0.028,0.997,0.291,-0.122,0.732,-0.122,475.364
104643,138112,8259,-0.031,0.996,0.287,0.244,0.61,0,475.371
104648,138128,5203,-0.031,0.996,0.285,0.244,0.61,0,475.374
104648,138089,8255,-0.031,0.997,0.288,0.183,0.305,0.366,475.38
104657,138128,5203,-0.031,0.996,0.289,0.183,0.305,0.366,475.384
104657,138099,8265,-0.037,0.994,0.285,-0.061,0.244,0.732,475.39
104648,138128,5203,-0.037,0.996,0.281,-0.061,0.244,0.732,475.394
104648,138121,8240,-0.039,1.007,0.286,-0.305,-0.122,1.22,475.4
104680,138128,5203,-0.035,1.014,0.294,-0.305,-0.122,1.22,475.404
104680,138115,8250,-0.034,1.016,0.3,-0.305,-0.122,1.22,475.41
104665,138128,5203,-0.039,1.015,0.294,-0.305,-0.122,1.22,475.414
104665,138135,8254,-0.04,1.018,0.294,-0.244,0.244,0.854,475.42
104636,138128,5203,-0.037,1.018,0.295,-0.244,0.244,0.854,475.424
104636,138112,8240,-0.035,1.015,0.301,-0.305,0.488,0.61,475.43
104652,138128,5203,-0.036,1.011,0.306,-0.305,0.488,0.61,475.434
104652,138115,8251,-0.035,1.009,0.306,-0.305,0.915,0.183,475.44
104640,138128,5203,-0.033,1.006,0.292,-0.305,0.915,0.183,475.444
104640,138080,8257,-0.035,1.007,0.276,-0.549,1.22,-0.061,475.45
104617,138128,5203,-0.035,1.009,0.276,-0.549,1.22,-0.061,475.453
104617,138071,8250,-0.034,1.009,0.28,-0.244,0.915,0,475.46
104622,138128,5203,-0.036,1.011,0.279,-0.244,0.915,0,475.463
104622,138082,8260,-0.03,1,0.285,-0.488,0.305,0.061,475.469
104633,138128,5203,-0.028,0.994,0.286,-0.488,0.305,0.061,475.473
104633,138098,8223,-0.026,1.002,0.282,-0.427,0.061,0.061,475.479
104662,138128,5203,-0.029,1.001,0.292,-0.427,0.061,0.061,475.483
104662,138099,8252,-0.034,1.002,0.297,-0.061,-0.122,0.366,475.489
104648,138128,5203,-0.031,1.01,0.297,-0.061,-0.122,0.366,475.493
104648,138110,8259,-0.032,1.01,0.297,-0.183,-0.183,0.549,475.499
104688,138128,5203,-0.032,1.01,0.297,-0.183,-0.183,0.549,475.503
104688,138110,8254,-0.037,1.001,0.293,-0.488,-0.122,0.244,475.509
104682,138128,5203,-0.037,1.001,0.293,-0.488,-0.122,0.244,475.513
104682,138101,8249,-0.035,1.01,0.292,-0.488,-0.122,0.366,475.519
104649,138128,5203,-0.035,1.01,0.292,-0.488,-0.122,0.366,475.523
104649,138118,8250,-0.033,0.994,0.292,-0.366,0.183,0.366,475.529
104662,138128,5203,-0.033,0.994,0.292,-0.366,0.183,0.366,475.533
104662,138125,8254,-0.037,0.999,0.294,-0.244,0.366,0.427,475.539
104670,138128,5203,-0.037,0.999,0.294,-0.244,0.366,0.427,475.543
104670,138130,8247,-0.034,1.005,0.294,-0.061,0.488,0.61,475.549
104660,138128,5203,-0.034,1.005,0.294,-0.061,0.488,0.61,475.552
104660,138114,8245,-0.035,1.007,0.301,-0.244,0.671,0.549,475.559
104682,138128,5203,-0.035,1.007,0.301,-0.244,0.671,0.549,475.562
104682,138151,8261,-0.033,1.008,0.285,-0.732,0.732,0.427,475.568
104687,138128,5203,-0.033,1.008,0.285,-0.732,0.732,0.427,475.572
104687,138125,8251,-0.038,1,0.274,-0.488,0.427,0.305,475.578
104705,138128,5203,-0.038,1,0.274,-0.488,0.427,0.305,475.582
104705,138134,8278,-0.032,1.007,0.294,-0.366,-0.061,0.488,475.588
104693,138128,5203,-0.032,1.007,0.294,-0.366,-0.061,0.488,475.592
104693,138129,8262,-0.033,1.008,0.297,-0.122,-0.122,0.549,475.598
104720,138128,5203,-0.033,1.008,0.297,-0.122,-0.122,0.549,475.602
104720,138144,8266,-0.032,1.02,0.293,0.061,0.366,0.305,475.608
104711,138128,5203,-0.032,1.02,0.293,0.061,0.366,0.305,475.612
104711,138122,8269,-0.033,1.01,0.291,0.061,0.305,0.061,475.618
104698,138128,5203,-0.033,1.01,0.291,0.061,0.305,0.061,475.622
104698,138120,8252,-0.034,0.997,0.3,-0.061,0.183,0.122,475.628
104702,138128,5203,-0.034,0.997,0.3,-0.061,0.183,0.122,475.632
104702,138127,8257,-0.029,0.997,0.296,0.122,0.427,0.244,475.638
104695,138128,5203,-0.029,0.997,0.296,0.122,0.427,0.244,475.641
104695,138124,8251,-0.032,1.002,0.292,0.122,0.427,0.244,475.648
104716,138128,5203,-0.034,1.002,0.293,0.122,0.61,0.305,475.651
104716,138127,8257,-0.037,0.999,0.289,0.122,0.61,0.305,475.658
104686,138128,5203,-0.037,1.002,0.289,-0.183,0.61,0.427,475.661
104686,138120,8260,-0.035,1.005,0.295,-0.183,0.61,0.427,475.667
104710,138128,5203,-0.03,1.005,0.297,-0.366,0.488,0.549,475.671
104710,138151,8249,-0.033,1.004,0.3,-0.366,0.488,0.549,475.677
104726,138128,5203,-0.034,1.006,0.291,-0.427,0.671,0.427,475.681
104726,138148,8267,-0.035,1.004,0.288,-0.427,0.671,0.427,475.687
104725,138128,5203,-0.037,1,0.279,-0.61,0.671,0.488,475.691
104725,138149,8270,-0.037,1.001,0.277,-0.61,0.671,0.488,475.697
104769,138128,5203,-0.036,1.005,0.284,-0.61,0.183,0.671,475.701
104769,138168,8266,-0.036,1.007,0.293,-0.61,0.183,0.671,475.707
104763,138128,5203,-0.033,1.007,0.291,-0.305,-0.122,0.671,475.711
104763,138193,8268,-0.034,1.007,0.288,-0.305,-0.122,0.671,475.717
104701,138128,5203,-0.035,1.012,0.288,-0.183,0,0.366,475.721
104701,138150,8275,-0.036,1.017,0.288,-0.183,0,0.366,475.727
104711,138128,5203,-0.036,1.011,0.287,-0.061,0,0.244,475.731
104711,138157,8266,-0.038,1.003,0.286,-0.061,0,0.244,475.737
104685,138128,5203,-0.033,1.002,0.295,-0.366,-0.122,0,475.74
104685,138128,8258,-0.032,1,0.303,-0.366,-0.122,0,475.747
104666,138128,5203,-0.031,0.998,0.303,0,0.061,0.061,475.75
104666,138113,8247,-0.033,1.002,0.3,0,0.061,0.061,475.757
104651,138128,5203,-0.033,1.009,0.295,0.366,0.244,0.183,475.76
104651,138093,8255,-0.033,1.009,0.294,0.366,0.244,0.183,475.766
104625,138128,5203,-0.029,1.008,0.301,0.427,0.427,0,475.77
104625,138099,8248,-0.033,1.006,0.297,0.427,0.427,0,475.776
104632,138128,5203,-0.035,1,0.284,-0.244,0.488,0.061,475.78
104632,138082,8253,-0.036,0.987,0.28,-0.244,0.488,0.061,475.786
104649,138128,5203,-0.035,0.995,0.283,-0.793,0.061,0.61,475.79
104649,138103,8255,-0.034,1.009,0.29,-0.793,0.061,0.61,475.796
104646,138128,5203,-0.032,1.009,0.294,-0.854,-0.122,0.793,475.8
104646,138098,8262,-0.032,1.009,0.291,-0.854,-0.122,0.793,475.806
104668,138128,5203,-0.034,1.01,0.287,-0.61,0,0.671,475.81
104668,138104,8268,-0.038,1.011,0.287,-0.61,0,0.671,475.816
104675,138128,5203,-0.036,1.013,0.291,-0.305,0.061,0.793,475.82
104675,138118,8254,-0.037,1.01,0.293,-0.305,0.061,0.793,475.826
104658,138128,5203,-0.037,1.007,0.301,0.122,0.244,0.671,475.83
104658,138113,8254,-0.033,1.003,0.307,0.122,0.244,0.671,475.836
104622,138128,5203,-0.033,1.003,0.297,0.183,0.61,0.427,475.839
104622,138073,8258,-0.033,1.013,0.295,0.183,0.61,0.427,475.846
104617,138128,5203,-0.034,1.022,0.289,0.366,0.732,0.122,475.849
104617,138101,8245,-0.032,1.018,0.289,0.366,0.732,0.122,475.856
104663,138128,5203,-0.035,1.007,0.294,0.122,0.793,-0.305,475.859
104663,138109,8254,-0.032,0.995,0.294,0.122,0.793,-0.305,475.865
104650,138128,5203,-0.03,0.989,0.291,-0.183,0.61,-0.427,475.869
104650,138107,8245,-0.03,0.984,0.297,-0.183,0.61,-0.427,475.875
104626,138128,5203,-0.03,0.985,0.292,-0.061,0.61,-0.122,475.879
104626,138113,8257,-0.03,0.989,0.288,-0.061,0.61,-0.122,475.885
104646,138128,5203,-0.033,0.997,0.289,0.122,0.366,0.488,475.889
104646,138126,8252,-0.029,1.013,0.294,0.122,0.366,0.488,475.895
104654,138128,5203,-0.027,1.018,0.292,0.061,0.122,0.549,475.899
104654,138133,8255,-0.032,1.014,0.291,0.061,0.122,0.549,475.905
104704,138128,5203,-0.034,1,0.276,-0.244,0,0.183,475.909
104704,138148,8258,-0.037,0.998,0.278,-0.244,0,0.183,475.915
104695,138128,5203,-0.035,1.006,0.292,-0.488,-0.305,0.488,475.919
104695,138139,8263,-0.035,0.994,0.293,-0.488,-0.305,0.488,475.925
104698,138128,5203,-0.037,0.995,0.287,-0.366,-0.427,0.793,475.929
104698,138153,8279,-0.036,1.006,0.291,-0.366,-0.427,0.793,475.935
104687,138128,5203,-0.034,1.015,0.3,-0.427,-0.244,1.098,475.938
104687,138132,8247,-0.033,1.027,0.308,-0.427,-0.244,1.098,475.945
104664,138128,5203,-0.035,1.032,0.303,-0.427,0.366,0.915,475.948
104664,138115,8254,-0.034,1.025,0.291,-0.427,0.366,0.915,475.954
104666,138128,5203,-0.035,1.012,0.29,-0.488,0.732,0.061,475.958
104666,138130,8253,-0.039,1.013,0.286,-0.488,0.732,0.061,475.964
104665,138128,5203,-0.035,1.007,0.286,-0.488,0.732,-0.488,475.968
104665,138110,8263,-0.034,0.994,0.283,-0.488,0.732,-0.488,475.974
104648,138128,5203,-0.035,0.985,0.28,0.244,0.671,-0.244,475.978
104648,138136,8260,-0.036,0.994,0.283,0.244,0.671,-0.244,475.984
104636,138128,5203,-0.037,1.005,0.287,0.793,0.366,0.183,475.988
104636,138106,8258,-0.037,1.008,0.288,0.793,0.366,0.183,475.994
104638,138128,5203,-0.035,1.006,0.287,0.671,0.305,0.244,475.998
104638,138093,8258,-0.035,1.003,0.288,0.671,0.305,0.244,476.004
104675,138128,5203,-0.034,1.004,0.285,0,0.061,0.122,476.008
104675,138117,8247,-0.033,1.004,0.295,0,0.061,0.122,476.014
104669,138128,5203,-0.03,0.997,0.3,-0.549,-0.061,0.122,476.018
104669,138148,8251,-0.031,0.993,0.297,-0.549,-0.061,0.122,476.024
104671,138128,5203,-0.033,0.994,0.298,-0.854,-0.183,0.427,476.028
104671,138139,8270,-0.034,0.997,0.294,-0.854,-0.183,0.427,476.034
104707,138128,5203,-0.033,0.995,0.295,-0.793,-0.061,0.732,476.037
104707,138156,8269,-0.034,0.996,0.295,-0.793,-0.061,0.732,476.044
104687,138128,5203,-0.031,1.009,0.295,-0.488,-0.183,0.915,476.047
104687,138140,8256,-0.031,1.011,0.298,-0.488,-0.183,0.915,476.054
104669,138128,5203,-0.034,1.005,0.298,-0.244,0,0.793,476.057
104669,138145,8255,-0.037,1.001,0.293,-0.244,0,0.793,476.063
104675,138128,5203,-0.036,1.004,0.29,-0.183,0.305,0.549,476.067
104675,138138,8279,-0.035,1.01,0.293,-0.183,0.305,0.549,476.073
104657,138128,5203,-0.035,1.009,0.294,-0.244,0.305,0.671,476.077
104657,138126,8261,-0.037,1.003,0.291,-0.244,0.305,0.671,476.083
104623,138128,5203,-0.037,1.003,0.291,-0.244,0.305,0.671,476.087
104623,138087,8260,-0.038,1.012,0.282,-0.061,0.366,0.427,476.093
104642,138128,5203,-0.038,1.012,0.282,-0.061,0.366,0.427,476.097
104642,138078,8253,-0.035,1.011,0.285,0.305,0.244,0.183,476.103
104618,138128,5203,-0.035,1.011,0.285,0.305,0.244,0.183,476.107
104618,138097,8250,-0.035,0.997,0.278,0.427,-0.061,-0.183,476.113
104644,138128,5203,-0.035,0.997,0.278,0.427,-0.061,-0.183,476.117
104644,138079,8248,-0.031,1,0.294,0.244,-1.28,0,476.123
104638,138128,5203,-0.031,1,0.294,0.244,-1.28,0,476.127
104638,138133,8267,-0.028,1.001,0.3,0.122,-1.341,0.427,476.133
104700,138128,5203,-0.028,1.001,0.3,0.122,-1.341,0.427,476.136
104700,138130,8265,-0.031,1,0.306,0,-0.793,0.488,476.143
104702,138128,5203,-0.031,1,0.306,0,-0.793,0.488,476.146
104702,138142,8258,-0.031,1.008,0.307,0.061,-0.671,0.732,476.152
104693,138128,5203,-0.031,1.008,0.307,0.061,-0.671,0.732,476.156
104693,138155,8269,-0.029,1.003,0.314,-0.305,-0.244,0.854,476.162
104700,138128,5203,-0.029,1.003,0.314,-0.305,-0.244,0.854,476.166
104700,138148,8264,-0.029,1.006,0.305,-0.549,0.427,0.854,476.172
104696,138128,5203,-0.029,1.006,0.305,-0.549,0.427,0.854,476.176
104696,138154,8270,-0.034,1.006,0.28,-0.61,1.28,0.671,476.182
104707,138128,5203,-0.034,1.006,0.28,-0.61,1.28,0.671,476.186
104707,138167,8258,-0.031,1.006,0.265,-0.488,1.341,0.427,476.192
104731,138128,5203,-0.031,1.006,0.265,-0.488,1.341,0.427,476.196
104731,138166,8278,-0.038,1.001,0.267,-0.183,0.793,0.488,476.202
104781,138128,5203,-0.038,1.001,0.267,-0.183,0.793,0.488,476.206
104781,138205,8266,-0.037,1.007,0.275,-0.061,0.122,0.671,476.212
104745,138128,5203,-0.037,1.007,0.275,-0.061,0.122,0.671,476.216
104745,138194,8273,-0.035,1.015,0.279,-0.183,-0.488,1.098,476.222
104746,138128,5203,-0.033,1.016,0.283,-0.183,-0.488,1.098,476.226
104746,138194,8270,-0.034,1.024,0.29,-0.122,-0.732,0.976,476.232
104769,138128,5203,-0.033,1.027,0.302,-0.122,-0.732,0.976,476.235
104769,138214,8281,-0.032,1.022,0.313,-0.122,-0.488,0.549,476.242
104789,138128,5203,-0.031,1.015,0.311,-0.122,-0.488,0.549,476.245
104789,138221,8275,-0.03,1.006,0.313,-0.366,0.122,0,476.251
104835,138128,5203,-0.033,1.002,0.314,-0.366,0.122,0,476.255
104835,138235,8290,-0.031,1.002,0.303,-0.305,0.793,-0.244,476.261
104862,138384,5203,-0.031,1.005,0.294,-0.305,0.793,-0.244,476.265
104862,138284,8291,-0.03,0.999,0.295,-0.061,1.22,-0.305,476.271
104885,138384,5203,-0.031,0.998,0.291,-0.061,1.22,-0.305,476.275
104885,138292,8309,-0.032,0.999,0.287,0.183,1.098,-0.427,476.281
104901,138384,5203,-0.03,0.996,0.284,0.183,1.098,-0.427,476.285
104901,138289,8280,-0.031,0.988,0.272,0.244,0.793,-0.366,476.291
104912,138384,5203,-0.031,0.988,0.272,0.244,0.793,-0.366,476.295
104912,138316,8299,-0.034,0.992,0.276,0.183,0.122,0.244,476.301
104945,138384,5203,-0.036,0.997,0.279,0.183,0.122,0.244,476.305
104945,138307,8291,-0.034,0.996,0.287,-0.305,-0.488,0.976,476.311
104901,138384,5203,-0.034,0.995,0.29,-0.305,-0.488,0.976,476.315
104901,138320,8307,-0.035,1,0.289,-0.427,-1.037,1.28,476.321
104917,138384,5203,-0.038,1.014,0.295,-0.427,-1.037,1.28,476.324
104917,138298,8288,-0.034,1.021,0.304,-0.061,-0.976,1.402,476.331
104901,138384,5203,-0.035,1.022,0.313,-0.061,-0.976,1.402,476.334
104901,138279,8290,-0.037,1.018,0.316,-0.183,-0.305,1.037,476.341
104905,138384,5203,-0.039,1.014,0.315,-0.183,-0.305,1.037,476.344
104905,138297,8298,-0.029,1.008,0.312,-0.61,0.366,0.549,476.35
104873,138384,5203,-0.03,1.002,0.318,-0.61,0.366,0.549,476.354
104873,138245,8291,-0.029,1.005,0.314,-0.183,1.22,0,476.36
104857,138128,5203,-0.027,1.009,0.304,-0.183,1.22,0,476.364
104857,138238,8287,-0.028,1.012,0.294,0.244,1.951,-0.122,476.37
104859,138384,5203,-0.029,1.01,0.297,0.244,1.951,-0.122,476.374
104859,138275,8299,-0.029,1.006,0.292,0.183,2.195,-0.305,476.38
104909,138384,5203,-0.032,1.003,0.282,0.183,2.195,-0.305,476.384
104909,138253,8306,-0.031,0.997,0.269,-0.183,1.829,-0.305,476.39
105101,138384,5203,-0.032,0.993,0.261,-0.183,1.829,-0.305,476.394
105101,138417,8332,-0.038,0.991,0.255,0,1.22,0,476.4
105246,138640,5203,-0.037,0.993,0.263,0,1.22,0,476.404
105246,138529,8327,-0.034,0.992,0.277,0.305,0.183,0.732,476.41
105304,138640,5203,-0.032,0.998,0.283,0.305,0.183,0.732,476.414
105304,138564,8366,-0.038,1.005,0.28,0.122,-0.61,0.915,476.42
105394,138640,5203,-0.041,1.013,0.281,0.122,-0.61,0.915,476.423
105394,138640,8363,-0.039,1.017,0.289,0.183,-0.915,1.28,476.43
105448,138640,5203,-0.034,1.019,0.308,0.183,-0.915,1.28,476.433
105448,138679,8371,-0.035,1.019,0.31,0,-0.671,1.037,476.44
105472,138640,5203,-0.036,1.012,0.312,0,-0.671,1.037,476.443
105472,138689,8387,-0.033,1.01,0.313,-0.366,0.061,0.427,476.449
105455,138640,5203,-0.034,1.012,0.312,-0.366,0.061,0.427,476.453
105455,138675,8362,-0.035,1.014,0.307,0,0.976,-0.122,476.459
105450,138640,5203,-0.031,1.009,0.3,0,0.976,-0.122,476.463
105450,138664,8370,-0.031,1.001,0.289,0.183,1.463,-0.488,476.469
105428,138640,5203,-0.031,0.994,0.285,0.183,1.463,-0.488,476.473
105428,138642,8369,-0.031,0.992,0.288,0.366,1.402,-0.366,476.479
105462,138640,5203,-0.027,0.995,0.286,0.366,1.402,-0.366,476.483
105462,138640,8380,-0.026,1.002,0.286,0.244,1.28,-0.183,476.489
105488,138640,5203,-0.027,0.999,0.286,0.244,1.28,-0.183,476.493
105488,138636,8374,-0.027,0.999,0.281,-0.183,0.854,0.244,476.499
105493,138640,5203,-0.028,0.999,0.279,-0.183,0.854,0.244,476.503
105493,138679,8400,-0.029,1.001,0.274,-0.427,0.305,0.549,476.509
105498,138640,5203,-0.029,1.003,0.281,-0.427,0.305,0.549,476.513
105498,138676,8361,-0.03,1.004,0.29,-0.427,-0.244,0.854,476.519
105501,138640,5203,-0.033,1.002,0.293,-0.427,-0.244,0.854,476.522
105501,138699,8388,-0.036,1.004,0.293,-0.244,-0.488,0.854,476.529
105511,138640,5203,-0.038,1.009,0.293,-0.244,-0.488,0.854,476.532
105511,138713,8383,-0.037,1.015,0.302,0.122,-0.305,0.732,476.539
105531,138640,5203,-0.037,1.012,0.309,0.122,-0.305,0.732,476.542
105531,138703,8392,-0.039,1.006,0.292,0.061,0,0.488,476.548
105498,138640,5203,-0.039,1.002,0.281,0.061,0,0.488,476.552
105498,138689,8384,-0.043,1.007,0.288,0,0.061,0.366,476.558
105491,138640,5203,-0.037,1.008,0.297,0,0.061,0.366,476.562
105491,138675,8395,-0.032,1.007,0.299,0.244,0.183,0.305,476.568
105526,138640,5203,-0.029,1.008,0.302,0.244,0.183,0.305,476.572
105526,138713,8406,-0.028,1.013,0.297,0.244,0.671,-0.122,476.578
105565,138640,5203,-0.028,1.009,0.29,0.244,0.671,-0.122,476.582
105565,138712,8385,-0.028,1.01,0.289,0.305,0.793,-0.061,476.588
105576,138896,5203,-0.029,1.011,0.287,0.305,0.793,-0.061,476.592
105576,138763,8409,-0.027,1.01,0.292,-0.061,0.671,0.183,476.598
105602,138896,5203,-0.026,1.005,0.293,-0.061,0.671,0.183,476.602
105602,138765,8382,-0.026,1.004,0.297,-0.122,0.671,0.122,476.608
105612,138640,5203,-0.031,1.004,0.294,-0.122,0.671,0.122,476.612
105612,138744,8391,-0.027,1.006,0.288,-0.061,0.854,0.305,476.618
105612,138640,5203,-0.031,1.008,0.291,-0.061,0.854,0.305,476.621
105612,138716,8392,-0.033,1.002,0.295,-0.061,0.915,0.427,476.628
105586,138640,5203,-0.037,0.997,0.294,-0.061,0.915,0.427,476.631
105586,138715,8385,-0.04,0.992,0.285,-0.061,0.793,0.61,476.638
105571,138640,5203,-0.04,0.992,0.282,-0.061,0.793,0.61,476.641
105571,138705,8398,-0.037,0.997,0.29,-0.183,0.305,0.915,476.647
105531,138640,5203,-0.033,1.003,0.297,-0.183,0.305,0.915,476.651
105531,138660,8385,-0.031,1.01,0.293,-0.122,0.061,0.793,476.657
105483,138640,5203,-0.031,1.01,0.293,-0.122,0.061,0.793,476.661
105483,138625,8379,-0.033,1.017,0.292,-0.061,0.183,0.366,476.667
105454,138640,5203,-0.033,1.017,0.292,-0.061,0.183,0.366,476.671
105454,138623,8378,-0.032,1.009,0.297,0,0.366,0.061,476.677
105461,138640,5203,-0.032,1.009,0.297,0,0.366,0.061,476.681
105461,138639,8384,-0.026,0.996,0.298,-0.305,0.549,0.183,476.687
105444,138640,5203,-0.026,0.996,0.298,-0.305,0.549,0.183,476.691
105444,138625,8372,-0.033,1.006,0.296,-0.061,0.854,0.427,476.697
105465,138640,5203,-0.033,1.006,0.296,-0.061,0.854,0.427,476.701
105465,138641,8381,-0.03,1.014,0.296,0,0.976,0.427,476.707
105477,138640,5203,-0.03,1.014,0.296,0,0.976,0.427,476.711
105477,138623,8381,-0.028,1.01,0.292,-0.122,1.22,0.061,476.717
105467,138640,5203,-0.028,1.01,0.292,-0.122,1.22,0.061,476.72
105467,138638,8382,-0.03,1.003,0.287,-0.183,1.22,-0.122,476.727
105460,138640,5203,-0.03,1.003,0.287,-0.183,1.22,-0.122,476.73
105460,138625,8387,-0.036,0.992,0.28,-0.183,1.098,0.122,476.736
105443,138640,5203,-0.036,0.992,0.28,-0.183,1.098,0.122,476.74
105443,138612,8374,-0.037,0.99,0.27,-0.305,0.427,0.549,476.746
105444,138640,5203,-0.037,0.99,0.27,-0.305,0.427,0.549,476.75
105444,138625,8370,-0.035,1.007,0.288,0,-0.122,1.098,476.756
105411,138640,5203,-0.035,1.007,0.288,0,-0.122,1.098,476.76
105411,138612,8375,-0.035,1.015,0.292,0.061,0,0.915,476.766
105390,138640,5203,-0.035,1.015,0.292,0.061,0,0.915,476.77
105390,138599,8377,-0.036,1.016,0.292,-0.244,0.122,0.61,476.776
105403,138640,5203,-0.036,1.016,0.292,-0.244,0.122,0.61,476.78
105403,138603,8369,-0.034,1.006,0.293,-0.549,0.122,0.427,476.786
105435,138640,5203,-0.034,1.006,0.293,-0.549,0.122,0.427,476.79
105435,138613,8376,-0.032,1.01,0.3,-0.183,0.366,0.305,476.796
105427,138640,5203,-0.032,1.01,0.3,-0.183,0.366,0.305,476.8
105427,138597,8379,-0.033,1.012,0.299,-0.183,0.366,0.305,476.806
105436,138640,5203,-0.031,1.006,0.299,0.305,0.793,-0.061,476.81
105436,138616,8395,-0.035,1.007,0.299,0.305,0.793,-0.061,476.816
105433,138640,5203,-0.033,1.009,0.289,0.061,1.098,-0.183,476.819
105433,138607,8383,-0.033,0.997,0.287,0.061,1.098,-0.183,476.826
105480,138640,5203,-0.031,0.987,0.288,-0.305,0.976,-0.183,476.829
105480,138659,8370,-0.03,0.987,0.29,-0.305,0.976,-0.183,476.835
105491,138640,5203,-0.029,0.996,0.295,-0.366,0.732,0,476.839
105491,138667,8377,-0.029,1.003,0.287,-0.366,0.732,0,476.845
105479,138640,5203,-0.031,1.003,0.271,-0.061,0.488,0.061,476.849
105479,138630,8386,-0.037,0.997,0.262,-0.061,0.488,0.061,476.855
105459,138640,5203,-0.039,0.998,0.27,-0.061,-0.366,0.366,476.859
105459,138651,8368,-0.037,1.002,0.281,-0.061,-0.366,0.366,476.865
105445,138640,5203,-0.033,0.999,0.289,-0.122,-0.976,0.976,476.869
105445,138627,8387,-0.034,0.997,0.298,-0.122,-0.976,0.976,476.875
105429,138640,5203,-0.034,1.003,0.298,0.122,-0.793,1.037,476.879
105429,138607,8380,-0.034,1.014,0.298,0.122,-0.793,1.037,476.885
105416,138640,5203,-0.037,1.018,0.3,0.427,-0.427,1.098,476.889
105416,138600,8388,-0.035,1.017,0.307,0.427,-0.427,1.098,476.895
105373,138640,5203,-0.033,1.014,0.319,0,-0.061,0.854,476.899
105373,138579,8377,-0.03,1.01,0.318,0,-0.061,0.854,476.905
105343,138640,5203,-0.027,1.008,0.312,-0.427,0.732,0.244,476.908
105343,138548,8377,-0.03,1.011,0.303,-0.427,0.732,0.244,476.915
105376,138640,5203,-0.033,1.016,0.297,-0.183,1.524,-0.183,476.918
105376,138587,8382,-0.033,1.013,0.289,-0.183,1.524,-0.183,476.925
105375,138640,5203,-0.03,1,0.286,-0.183,1.768,-0.549,476.928
105375,138556,8375,-0.031,0.992,0.279,-0.183,1.768,-0.549,476.934
105364,138640,5203,-0.029,0.992,0.276,0,1.28,-0.488,476.938
105364,138562,8368,-0.028,0.995,0.279,0,1.28,-0.488,476.944
105361,138640,5203,-0.028,0.994,0.279,0.305,0.793,-0.183,476.948
105361,138568,8366,-0.033,0.995,0.275,0.305,0.793,-0.183,476.954
105375,138640,5203,-0.035,0.997,0.281,0.244,0.244,0.427,476.958
105375,138545,8367,-0.031,1.001,0.29,0.244,0.244,0.427,476.964
105340,138640,5203,-0.028,1.004,0.3,0.061,0.122,0.671,476.968
105340,138528,8363,-0.031,1.001,0.297,0.061,0.122,0.671,476.974
105315,138640,5203,-0.036,1.002,0.285,-0.244,0.244,0.854,476.978
105315,138522,8355,-0.037,1.006,0.285,-0.244,0.244,0.854,476.984
105324,138640,5203,-0.039,1.011,0.288,-0.549,0.122,1.098,476.988
105324,138516,8367,-0.037,1.012,0.298,-0.549,0.122,1.098,476.994
105297,138640,5203,-0.034,1.011,0.303,-0.671,0.122,1.098,476.998
105297,138525,8358,-0.034,1.019,0.292,-0.671,0.122,1.098,477.004
105305,138640,5203,-0.034,1.017,0.281,-0.488,0.488,0.549,477.007
105305,138512,8348,-0.034,1.014,0.285,-0.488,0.488,0.549,477.014
105249,138640,5203,-0.039,1.021,0.284,0.061,0.732,0.122,477.017
105249,138510,8363,-0.034,1.016,0.282,0.061,0.732,0.122,477.024
105269,138384,5203,-0.031,1.001,0.292,0.183,0.732,-0.122,477.027
105269,138492,8347,-0.03,0.997,0.291,0.183,0.732,-0.122,477.033
105275,138640,5203,-0.031,0.996,0.293,0.488,0.732,-0.366,477.037
105275,138496,8352,-0.031,1.006,0.297,0.488,0.732,-0.366,477.043
105246,138384,5203,-0.03,1.006,0.3,0.732,0.793,0,477.047
105246,138493,8347,-0.028,1.002,0.297,0.732,0.793,0,477.053
105258,138384,5203,-0.032,0.996,0.298,0.488,0.793,-0.183,477.057
105258,138484,8350,-0.03,0.996,0.297,0.488,0.793,-0.183,477.063
105261,138640,5203,-0.03,0.999,0.293,-0.183,0.732,0,477.067
105261,138503,8343,-0.03,0.999,0.291,-0.183,0.732,0,477.073
105257,138384,5203,-0.033,0.992,0.286,-0.732,0.732,0.244,477.077
105257,138487,8354,-0.034,0.991,0.279,-0.732,0.732,0.244,477.083
105261,138384,5203,-0.034,0.997,0.287,-0.915,0.427,0.61,477.087
105261,138487,8341,-0.03,1.002,0.286,-0.915,0.427,0.61,477.093
105231,138384,5203,-0.032,1.004,0.284,-0.732,0.183,0.915,477.097
105231,138465,8348,-0.038,1.009,0.284,-0.732,0.183,0.915,477.103
105234,138384,5203,-0.038,1.015,0.283,-0.61,0,0.915,477.106
105234,138451,8341,-0.035,1.013,0.286,-0.61,0,0.915,477.113
105174,138384,5203,-0.036,1.012,0.292,-0.305,-0.061,0.793,477.116
105174,138424,8349,-0.037,1.011,0.293,-0.305,-0.061,0.793,477.122
105194,138384,5203,-0.036,1.009,0.288,-0.183,-0.061,0.732,477.126
105194,138455,8338,-0.034,1.006,0.29,-0.183,-0.061,0.732,477.132
105213,138384,5203,-0.037,1.01,0.297,-0.061,0.061,0.427,477.136
105213,138466,8345,-0.034,1.013,0.301,-0.061,0.061,0.427,477.142
105238,138384,5203,-0.034,1.015,0.295,-0.122,0.305,0.122,477.146
105238,138466,8345,-0.033,1.008,0.292,-0.122,0.305,0.122,477.152
105242,138384,5203,-0.032,1.005,0.292,0.061,0.488,-0.305,477.156
105242,138482,8358,-0.035,1.006,0.298,0.061,0.488,-0.305,477.162
105260,138640,5203,-0.027,1.005,0.304,0.366,0.488,-0.183,477.166
105260,138497,8344,-0.024,1,0.299,0.366,0.488,-0.183,477.172
105273,138384,5203,-0.029,0.998,0.297,0.183,0.915,-0.122,477.176
105273,138493,8338,-0.03,0.999,0.296,0.183,0.915,-0.122,477.182
105257,138640,5203,-0.03,1.001,0.296,0,1.098,0.122,477.186
105257,138503,8343,-0.028,0.999,0.293,0,1.098,0.122,477.192
105253,138384,5203,-0.032,0.997,0.288,-0.305,0.854,0.366,477.196
105253,138477,8348,-0.035,0.993,0.291,-0.305,0.854,0.366,477.202
105228,138384,5203,-0.034,0.995,0.294,-0.366,0.671,0.732,477.205
105228,138457,8347,-0.035,1.001,0.287,-0.366,0.671,0.732,477.212
105198,138384,5203,-0.035,1.005,0.281,-0.61,0.61,0.671,477.215
105198,138453,8346,-0.034,1.002,0.281,-0.61,0.61,0.671,477.221
105239,138384,5203,-0.039,1.009,0.281,-0.427,0.305,0.732,477.225
105239,138463,8355,-0.036,1.016,0.281,-0.427,0.305,0.732,477.231
105195,138384,5203,-0.036,1.016,0.281,-0.427,0.305,0.732,477.235
105195,138447,8346,-0.033,1.014,0.281,-0.305,0.061,0.793,477.241
105204,138384,5203,-0.033,1.014,0.281,-0.305,0.061,0.793,477.245
105204,138419,8335,-0.038,1.014,0.287,-0.244,0.122,0.549,477.251
105186,138384,5203,-0.038,1.014,0.287,-0.244,0.122,0.549,477.255
105186,138431,8352,-0.032,1.007,0.293,-0.305,0,0.427,477.261
105185,138384,5203,-0.032,1.007,0.293,-0.305,0,0.427,477.265
105185,138431,8338,-0.033,1.006,0.295,-0.061,0.183,0.244,477.271
105160,138384,5203,-0.033,1.006,0.295,-0.061,0.183,0.244,477.275
105160,138413,8347,-0.029,1.008,0.309,-0.061,0.305,0.305,477.281
105183,138384,5203,-0.029,1.008,0.309,-0.061,0.305,0.305,477.285
105183,138423,8332,-0.029,1.004,0.296,-0.305,0.488,0.183,477.291
105185,138384,5203,-0.029,1.004,0.296,-0.305,0.488,0.183,477.295
105185,138413,8345,-0.036,0.998,0.285,-0.488,0.549,-0.122,477.301
105180,138384,5203,-0.036,0.998,0.285,-0.488,0.549,-0.122,477.304
105180,138429,8355,-0.034,1.002,0.281,-0.061,0.61,-0.061,477.311
105146,138384,5203,-0.034,1.002,0.281,-0.061,0.61,-0.061,477.314
105146,138430,8332,-0.037,0.996,0.287,0.244,0.305,0.122,477.32
105173,138384,5203,-0.037,0.996,0.287,0.244,0.305,0.122,477.324
105173,138420,8337,-0.037,1.004,0.286,0.122,-0.183,0.427,477.33
105154,138384,5203,-0.037,1.004,0.286,0.122,-0.183,0.427,477.334
105154,138412,8336,-0.032,1.005,0.281,0,-0.366,0.671,477.34
105163,138384,5203,-0.032,1.005,0.281,0,-0.366,0.671,477.344
105163,138424,8332,-0.033,1.01,0.299,0.061,-0.549,0.793,477.35
105176,138384,5203,-0.033,1.01,0.299,0.061,-0.549,0.793,477.354
105176,138449,8349,-0.032,1.01,0.303,-0.061,-0.366,0.732,477.36
105168,138384,5203,-0.032,1.01,0.303,-0.061,-0.366,0.732,477.364
105168,138441,8325,-0.03,1.017,0.303,-0.183,-0.061,0.488,477.37
105156,138384,5203,-0.03,1.017,0.303,-0.183,-0.061,0.488,477.374
105156,138412,8338,-0.03,1.014,0.305,-0.244,0.427,0.488,477.38
105151,138384,5203,-0.03,1.008,0.301,-0.244,0.427,0.488,477.384
105151,138432,8340,-0.031,1.006,0.305,-0.488,0.976,0.366,477.39
105158,138384,5203,-0.027,1.008,0.303,-0.488,0.976,0.366,477.394
105158,138416,8338,-0.027,1.007,0.301,-0.305,1.402,0.305,477.4
105151,138384,5203,-0.029,1.006,0.291,-0.305,1.402,0.305,477.403
105151,138441,8341,-0.033,1.007,0.286,0.122,1.707,0.183,477.41
105166,138384,5203,-0.034,1.005,0.282,0.122,1.707,0.183,477.413
105166,138433,8332,-0.032,1.006,0.28,0,1.28,0.122,477.419
105144,138384,5203,-0.035,1.002,0.284,0,1.28,0.122,477.423
105144,138421,8325,-0.031,0.997,0.288,-0.244,0.793,0.061,477.429
105174,138384,5203,-0.034,0.996,0.283,-0.244,0.793,0.061,477.433
105174,138436,8331,-0.036,0.994,0.283,-0.244,0.305,0.244,477.439
105178,138384,5203,-0.035,0.995,0.283,-0.244,0.305,0.244,477.443
105178,138437,8334,-0.033,1.001,0.286,-0.427,-0.061,0.488,477.449
105193,138384,5203,-0.033,1.008,0.297,-0.427,-0.061,0.488,477.453
105193,138434,8336,-0.033,1.006,0.297,-0.427,-0.244,0.549,477.459
105180,138384,5203,-0.032,1.007,0.294,-0.427,-0.244,0.549,477.463
105180,138448,8330,-0.035,1.014,0.294,-0.366,-0.183,0.488,477.469
105175,138384,5203,-0.036,1.013,0.295,-0.366,-0.183,0.488,477.473
105175,138430,8331,-0.034,1.005,0.296,-0.427,0.183,0.366,477.479
105146,138384,5203,-0.033,1.001,0.299,-0.427,0.183,0.366,477.483
105146,138435,8325,-0.033,1.001,0.301,-0.671,0.427,0.549,477.489
105126,138384,5203,-0.032,1.004,0.3,-0.671,0.427,0.549,477.492
105126,138396,8330,-0.03,1.007,0.299,-0.549,0.793,0.61,477.499
105116,138384,5203,-0.032,1.012,0.294,-0.549,0.793,0.61,477.502
105116,138408,8331,-0.032,1.014,0.295,-0.305,1.159,0.366,477.509
105126,138384,5203,-0.03,1.015,0.289,-0.305,1.159,0.366,477.512
105126,138398,8327,-0.031,1.013,0.279,-0.244,1.28,0.061,477.518
105123,138384,5203,-0.036,1.006,0.272,-0.244,1.28,0.061,477.522
105123,138420,8327,-0.036,1,0.274,-0.366,0.732,-0.061,477.528
105141,138384,5203,-0.037,1.003,0.274,-0.366,0.732,-0.061,477.532
105141,138403,8329,-0.035,1.002,0.275,-0.488,0.122,0.122,477.538
105131,138384,5203,-0.037,0.999,0.272,-0.488,0.122,0.122,477.542
105131,138394,8331,-0.037,0.999,0.285,-0.122,-0.488,0.427,477.548
105137,138384,5203,-0.037,1.007,0.295,-0.122,-0.488,0.427,477.552
105137,138402,8313,-0.035,1.008,0.296,0.122,-0.488,0.549,477.558
105126,138384,5203,-0.034,1.004,0.293,0.122,-0.488,0.549,477.562
105126,138408,8334,-0.04,1.006,0.295,-0.061,-0.244,0.366,477.568
105121,138384,5203,-0.04,1.007,0.3,-0.061,-0.244,0.366,477.572
105121,138368,8337,-0.035,1.004,0.306,-0.427,-0.061,0.488,477.578
105123,138384,5203,-0.032,0.998,0.303,-0.427,-0.061,0.488,477.582
105123,138416,8335,-0.032,0.996,0.303,-0.671,0.244,0.305,477.588
105138,138384,5203,-0.031,0.999,0.302,-0.671,0.244,0.305,477.591
105138,138416,8329,-0.031,1.002,0.301,-0.488,0.488,0.244,477.598
105142,138384,5203,-0.03,1.004,0.295,-0.488,0.488,0.244,477.601
105142,138401,8335,-0.031,1.006,0.291,-0.61,0.732,0.183,477.608
105132,138384,5203,-0.029,0.997,0.291,-0.61,0.732,0.183,477.611
105132,138431,8331,-0.033,0.999,0.287,-0.671,0.671,0.061,477.617
105176,138384,5203,-0.034,1.005,0.283,-0.671,0.671,0.061,477.621
105176,138429,8339,-0.03,1.006,0.28,-0.427,0.244,0.366,477.627
105155,138384,5203,-0.032,1.004,0.281,-0.427,0.244,0.366,477.631
105155,138431,8334,-0.035,1.003,0.284,0,-0.183,0.61,477.637
105159,138384,5203,-0.035,1.006,0.286,0,-0.183,0.61,477.641
105159,138433,8344,-0.035,1.009,0.284,0.183,-0.427,0.793,477.647
105155,138384,5203,-0.039,1.009,0.284,0.183,-0.427,0.793,477.651
105155,138436,8340,-0.039,1.003,0.289,0.61,-0.488,0.61,477.657
105148,138384,5203,-0.04,1,0.291,0.61,-0.488,0.61,477.661
105148,138422,8350,-0.04,1.003,0.3,0.366,-0.732,0.549,477.667
105119,138384,5203,-0.035,1.005,0.308,0.366,-0.732,0.549,477.671
105119,138385,8330,-0.029,1.004,0.312,0.244,-0.366,0.427,477.677
105085,138384,5203,-0.03,1.006,0.31,0.244,-0.366,0.427,477.681
105085,138376,8337,-0.031,1.011,0.298,0,0.427,0.305,477.687
105073,138384,5203,-0.028,1.012,0.298,0,0.427,0.305,477.69
105073,138370,8327,-0.029,1.007,0.301,-0.305,0.671,0.244,477.697
105065,138384,5203,-0.028,1,0.295,-0.305,0.671,0.244,477.7
105065,138355,8308,-0.029,0.994,0.292,-0.854,0.976,0.244,477.707
105063,138384,5203,-0.024,0.994,0.292,-0.854,0.976,0.244,477.71
105063,138357,8344,-0.028,1.001,0.287,-0.244,1.098,0.244,477.716
105074,138384,5203,-0.03,1.001,0.285,-0.244,1.098,0.244,477.72
105074,138363,8327,-0.03,1.004,0.28,0.305,0.976,0.488,477.726
105064,138384,5203,-0.031,1.007,0.28,0.305,0.976,0.488,477.73
105064,138378,8328,-0.032,1.005,0.279,-0.183,0.61,0.61,477.736
105107,138384,5203,-0.033,1.003,0.282,-0.183,0.61,0.61,477.74
105107,138394,8323,-0.033,1,0.282,-0.244,0.244,0.61,477.746
105106,138384,5203,-0.037,1.005,0.281,-0.244,0.244,0.61,477.75
105106,138379,8343,-0.037,1.018,0.288,-0.244,-0.122,0.793,477.756
105102,138384,5203,-0.035,1.022,0.29,-0.244,-0.122,0.793,477.76
105102,138394,8335,-0.032,1.013,0.295,-0.366,-0.122,0.61,477.766
105086,138384,5203,-0.034,1.008,0.294,-0.366,-0.122,0.61,477.77
105086,138372,8324,-0.033,1.014,0.29,-0.244,0.122,0.244,477.776
105056,138384,5203,-0.034,1.015,0.29,-0.244,0.122,0.244,477.78
105056,138373,8330,-0.036,1.007,0.3,0.244,0.305,0.122,477.786
105037,138384,5203,-0.035,1.005,0.303,0.244,0.305,0.122,477.789
105037,138354,8326,-0.033,1.006,0.305,0.366,0.488,0,477.796
105046,138384,5203,-0.029,1.006,0.302,0.366,0.488,0,477.799
105046,138359,8318,-0.031,1.003,0.299,0.305,0.915,-0.122,477.805
105049,138384,5203,-0.031,1.003,0.299,0.305,0.915,-0.122,477.809
105049,138357,8339,-0.031,1,0.292,0.244,0.976,-0.244,477.815
105074,138384,5203,-0.031,1,0.292,0.244,0.976,-0.244,477.819
105074,138365,8331,-0.031,0.994,0.288,-0.244,0.793,-0.061,477.825
105079,138384,5203,-0.031,0.994,0.288,-0.244,0.793,-0.061,477.829
105079,138383,8318,-0.032,0.988,0.285,-0.305,0.61,0.183,477.835
105098,138384,5203,-0.032,0.988,0.285,-0.305,0.61,0.183,477.839
105098,138402,8341,-0.035,1.01,0.281,-0.305,0.244,0.671,477.845
105128,138384,5203,-0.035,1.01,0.281,-0.305,0.244,0.671,477.849
105128,138422,8322,-0.033,1.011,0.285,-0.488,-0.061,0.732,477.855
105139,138384,5203,-0.033,1.011,0.285,-0.488,-0.061,0.732,477.859
105139,138414,8337,-0.033,1.007,0.29,-0.549,-0.305,0.671,477.865
105130,138384,5203,-0.033,1.007,0.29,-0.549,-0.305,0.671,477.869
105130,138428,8338,-0.036,1.011,0.294,-0.488,-0.366,0.61,477.875
105113,138384,5203,-0.036,1.011,0.294,-0.488,-0.366,0.61,477.879
105113,138415,8337,-0.033,1.002,0.301,-0.305,-0.305,0.793,477.885
105116,138384,5203,-0.033,1.002,0.301,-0.305,-0.305,0.793,477.888
105116,138409,8340,-0.035,1.015,0.303,-0.183,-0.061,0.732,477.895
105125,138384,5203,-0.035,1.015,0.303,-0.183,-0.061,0.732,477.898
105125,138417,8341,-0.031,1.015,0.298,-0.061,0.244,0.244,477.904
105124,138384,5203,-0.031,1.015,0.298,-0.061,0.244,0.244,477.908
105124,138439,8336,-0.027,1.004,0.294,0,0.488,-0.183,477.914
105157,138384,5203,-0.027,1.004,0.294,0,0.488,-0.183,477.918
105157,138407,8328,-0.033,1,0.277,0.061,0.366,-0.183,477.924
105165,138384,5203,-0.033,1,0.277,0.061,0.366,-0.183,477.928
105165,138447,8347,-0.03,1.002,0.286,0.366,0,0,477.934
105198,138384,5203,-0.03,1.002,0.286,0.366,0,0,477.938
105198,138478,8353,-0.032,1.008,0.288,0.244,-0.122,0.061,477.944
105252,138640,5203,-0.032,1.008,0.288,0.244,-0.122,0.061,477.948
105252,138513,8340,-0.032,1.005,0.289,0.244,-0.122,0.061,477.954
105285,138640,5203,-0.032,1.005,0.294,0.122,-0.366,0.244,477.958
105285,138527,8359,-0.032,1,0.3,0.122,-0.366,0.244,477.964
105357,138640,5203,-0.035,0.995,0.301,-0.244,-0.244,0.427,477.968
105357,138596,8368,-0.036,0.992,0.304,-0.244,-0.244,0.427,477.974
105373,138640,5203,-0.036,0.993,0.308,-0.366,0,0.732,477.978
105373,138567,8365,-0.034,1.005,0.303,-0.366,0,0.732,477.984
105365,138640,5203,-0.032,1.013,0.298,-0.183,0.488,0.549,477.987
105365,138570,8373,-0.034,1.01,0.302,-0.183,0.488,0.549,477.994
105337,138640,5203,-0.033,1.005,0.295,-0.549,0.854,0.305,477.997
105337,138566,8369,-0.037,0.998,0.277,-0.549,0.854,0.305,478.003
105326,138640,5203,-0.039,0.995,0.273,-0.854,0.61,0.427,478.007
105326,138556,8354,-0.033,1.002,0.282,-0.854,0.61,0.427,478.013
105290,138640,5203,-0.027,1.006,0.288,-0.61,0.122,0.854,478.017
105290,138518,8353,-0.03,1.003,0.284,-0.61,0.122,0.854,478.023
105293,138640,5203,-0.032,1.007,0.284,-0.122,0.183,0.793,478.027
105293,138510,8356,-0.035,1.015,0.288,-0.122,0.183,0.793,478.033
105275,138640,5203,-0.035,1.019,0.291,0.366,-0.061,0.671,478.037
105275,138503,8365,-0.03,1.017,0.29,0.366,-0.061,0.671,478.043
105316,138640,5203,-0.029,1.017,0.3,0.549,0,0.549,478.047
105316,138536,8366,-0.027,1.014,0.31,0.549,0,0.549,478.053
105317,138640,5203,-0.032,1.016,0.309,0.244,0.366,0.122,478.057
105317,138549,8364,-0.035,1.01,0.303,0.244,0.366,0.122,478.063
105313,138640,5203,-0.031,1.007,0.3,-0.122,0.732,0.061,478.067
105313,138547,8373,-0.031,1.005,0.295,-0.122,0.732,0.061,478.073
105328,138640,5203,-0.034,1.001,0.289,-0.122,0.732,-0.183,478.076
105328,138558,8369,-0.033,0.991,0.291,-0.122,0.732,-0.183,478.083
105333,138640,5203,-0.034,0.99,0.293,0.122,0.549,-0.183,478.086
105333,138539,8357,-0.032,0.991,0.288,0.122,0.549,-0.183,478.093
105296,138640,5203,-0.033,0.994,0.282,0.122,0.427,0.061,478.096
105296,138538,8364,-0.036,1,0.283,0.122,0.427,0.061,478.102
105295,138640,5203,-0.035,1.008,0.288,-0.183,0.244,0.488,478.106
105295,138525,8360,-0.031,1.003,0.283,-0.183,0.244,0.488,478.112
105266,138640,5203,-0.034,0.997,0.286,-0.671,0.061,0.732,478.116
105266,138526,8352,-0.033,0.998,0.289,-0.671,0.061,0.732,478.122
105260,138640,5203,-0.03,1.002,0.287,-0.793,-0.061,0.732,478.126
105260,138499,8358,-0.033,1.003,0.281,-0.793,-0.061,0.732,478.132
105264,138640,5203,-0.034,1.006,0.284,-0.427,-0.305,0.915,478.136
105264,138512,8360,-0.036,1.014,0.288,-0.427,-0.305,0.915,478.142
105257,138640,5203,-0.031,1.02,0.296,-0.122,-0.427,1.098,478.146
105257,138497,8365,-0.03,1.022,0.298,-0.122,-0.427,1.098,478.152
105263,138640,5203,-0.03,1.027,0.299,-0.366,-0.061,0.549,478.156
105263,138508,8357,-0.031,1.029,0.298,-0.366,-0.061,0.549,478.162
105266,138640,5203,-0.031,1.023,0.293,-0.305,0.366,0.061,478.166
105266,138501,8372,-0.028,1.013,0.294,-0.305,0.366,0.061,478.172
105291,138640,5203,-0.034,1.006,0.299,0,0.793,-0.122,478.175
105291,138525,8354,-0.033,1,0.303,0,0.793,-0.122,478.182
105290,138640,5203,-0.03,0.998,0.303,0.183,0.976,0,478.185
105290,138527,8368,-0.031,0.997,0.299,0.183,0.976,0,478.191
105310,138640,5203,-0.031,1,0.289,0.427,1.159,0.061,478.195
105310,138544,8355,-0.035,1.006,0.288,0.427,1.159,0.061,478.201
105338,138640,5203,-0.031,1.005,0.293,0.244,1.159,0.061,478.205
105338,138539,8360,-0.029,1,0.29,0.244,1.159,0.061,478.211
105323,138640,5203,-0.029,0.992,0.286,-0.305,0.915,-0.183,478.215
105323,138528,8368,-0.032,0.988,0.287,-0.305,0.915,-0.183,478.221
105326,138640,5203,-0.032,0.987,0.284,-0.549,0.488,0.061,478.225
105326,138539,8366,-0.033,0.995,0.286,-0.549,0.488,0.061,478.231
105329,138640,5203,-0.03,0.996,0.286,-0.366,0.122,0.366,478.235
105329,138530,8355,-0.031,0.993,0.287,-0.366,0.122,0.366,478.241
105333,138640,5203,-0.036,0.99,0.281,-0.305,-0.183,0.915,478.245
105333,138557,8373,-0.037,1.003,0.286,-0.305,-0.183,0.915,478.251
105344,138640,5203,-0.033,1.014,0.303,-0.549,-0.427,1.341,478.255
105344,138572,8367,-0.033,1.015,0.3,-0.549,-0.427,1.341,478.261
105346,138640,5203,-0.035,1.017,0.302,-0.61,0,1.098,478.265
105346,138550,8364,-0.032,1.016,0.304,-0.61,0,1.098,478.271
105307,138640,5203,-0.035,1.014,0.3,-0.488,0.549,0.61,478.274
105307,138534,8374,-0.033,1.017,0.3,-0.488,0.549,0.61,478.281
105362,138640,5203,-0.03,1.015,0.299,-0.183,1.037,0.305,478.284
105362,138562,8384,-0.033,1.016,0.292,-0.183,1.037,0.305,478.29
105364,138640,5203,-0.034,1.013,0.288,-0.366,1.341,0.061,478.294
105364,138536,8371,-0.033,1.005,0.284,-0.366,1.341,0.061,478.3
105356,138640,5203,-0.029,1.001,0.277,-0.244,1.341,-0.122,478.304
105356,138568,8375,-0.032,1.005,0.272,-0.244,1.341,-0.122,478.31
105354,138640,5203,-0.034,1.008,0.273,0,0.854,-0.122,478.314
105354,138554,8372,-0.031,1.005,0.274,0,0.854,-0.122,478.32
105358,138640,5203,-0.032,0.999,0.273,0.122,0.244,-0.122,478.324
105358,138557,8366,-0.03,1.004,0.282,0.122,0.244,-0.122,478.33
105362,138640,5203,-0.031,1.011,0.29,-0.183,-0.244,0.122,478.334
105362,138565,8375,-0.031,1.01,0.293,-0.183,-0.244,0.122,478.34
105379,138640,5203,-0.03,1.003,0.297,-0.305,-0.244,0.488,478.344
105379,138607,8384,-0.033,1,0.293,-0.305,-0.244,0.488,478.35
105431,138640,5203,-0.037,1.005,0.294,-0.427,-0.183,0.549,478.354
105431,138600,8374,-0.035,1.004,0.298,-0.427,-0.183,0.549,478.36
105416,138640,5203,-0.033,0.997,0.296,-0.305,-0.183,0.488,478.364
105416,138592,8371,-0.039,0.996,0.295,-0.305,-0.183,0.488,478.37
105423,138640,5203,-0.037,1,0.301,-0.183,-0.122,0.366,478.373
105423,138594,8385,-0.033,1.004,0.3,-0.183,-0.122,0.366,478.38
105384,138640,5203,-0.033,1.004,0.3,-0.183,-0.122,0.366,478.383
105384,138587,8372,-0.034,0.997,0.296,-0.427,0.122,0.366,478.389
105378,138640,5203,-0.034,0.997,0.296,-0.427,0.122,0.366,478.393
105378,138575,8375,-0.035,0.997,0.288,-0.488,0.183,0.122,478.399
105358,138640,5203,-0.035,0.997,0.288,-0.488,0.183,0.122,478.403
105358,138546,8375,-0.025,1.006,0.296,-0.305,-0.122,0.305,478.409
105356,138640,5203,-0.025,1.006,0.296,-0.305,-0.122,0.305,478.413
105356,138560,8372,-0.029,1.01,0.298,-0.122,-0.061,0.488,478.419
105357,138640,5203,-0.029,1.01,0.298,-0.122,-0.061,0.488,478.423
105357,138545,8366,-0.031,1.01,0.3,-0.244,0.244,0.366,478.429
105338,138640,5203,-0.031,1.01,0.3,-0.244,0.244,0.366,478.433
105338,138549,8383,-0.03,1.011,0.3,-0.061,0.488,0.366,478.439
105346,138640,5203,-0.03,1.011,0.3,-0.061,0.488,0.366,478.443
105346,138548,8363,-0.037,0.997,0.286,0,0.671,0.488,478.449
105340,138640,5203,-0.037,0.997,0.286,0,0.671,0.488,478.453
105340,138525,8383,-0.034,1.007,0.29,0,0.488,0.488,478.459
105314,138640,5203,-0.034,1.007,0.29,0,0.488,0.488,478.462
105314,138522,8358,-0.031,1.006,0.292,-0.122,0.305,0.549,478.469
105326,138640,5203,-0.031,1.006,0.292,-0.122,0.305,0.549,478.472
105326,138512,8358,-0.035,1.017,0.297,0.122,0.366,0.183,478.479
105281,138640,5203,-0.035,1.017,0.297,0.122,0.366,0.183,478.482
105281,138534,8347,-0.029,1.011,0.304,0.183,0.366,0.122,478.488
105277,138640,5203,-0.029,1.011,0.304,0.183,0.366,0.122,478.492
105277,138522,8356,-0.029,0.993,0.302,-0.122,0.671,-0.061,478.498
105309,138640,5203,-0.029,0.993,0.302,-0.122,0.671,-0.061,478.502
105309,138516,8364,-0.033,0.997,0.283,-0.427,0.793,0.183,478.508
105316,138640,5203,-0.033,0.997,0.283,-0.427,0.793,0.183,478.512
105316,138510,8364,-0.032,1.002,0.284,0.061,0.488,0.61,478.518
105311,138640,5203,-0.032,1.002,0.284,0.061,0.488,0.61,478.522
105311,138545,8367,-0.034,1.003,0.284,0.244,0.244,0.61,478.528
105351,138640,5203,-0.031,1.011,0.283,0.244,0.244,0.61,478.532
105351,138554,8382,-0.033,1.012,0.284,-0.122,0.183,0.671,478.538
105353,138640,5203,-0.033,1.01,0.289,-0.122,0.183,0.671,478.542
105353,138564,8384,-0.03,1.008,0.288,-0.305,0.305,0.61,478.548
105356,138640,5203,-0.034,1.011,0.297,-0.305,0.305,0.61,478.552
105356,138539,8363,-0.033,1.014,0.295,-0.427,0.61,0.427,478.558
105334,138640,5203,-0.031,1.012,0.297,-0.427,0.61,0.427,478.561
105334,138546,8370,-0.031,1.01,0.294,-0.488,0.61,0.244,478.568
105330,138640,5203,-0.034,1.007,0.292,-0.488,0.61,0.244,478.571
105330,138525,8358,-0.036,0.997,0.289,-0.61,0.671,0.366,478.578
105337,138640,5203,-0.034,0.991,0.276,-0.61,0.671,0.366,478.581
105337,138529,8359,-0.037,0.988,0.275,-0.183,0.366,0.427,478.587
105318,138640,5203,-0.039,0.996,0.281,-0.183,0.366,0.427,478.591
105318,138528,8364,-0.033,1.009,0.289,0.61,0,0.488,478.597
105326,138640,5203,-0.028,1.01,0.294,0.61,0,0.488,478.601
105326,138536,8365,-0.032,1.009,0.296,0.549,0.061,0.366,478.607
105334,138640,5203,-0.032,1.01,0.295,0.549,0.061,0.366,478.611
105334,138559,8363,-0.033,1.011,0.286,-0.427,0.183,0.427,478.617
105327,138640,5203,-0.029,1.013,0.287,-0.427,0.183,0.427,478.621
105327,138538,8360,-0.032,1.01,0.293,-0.61,0.427,0.366,478.627
105360,138640,5203,-0.033,1.006,0.293,-0.61,0.427,0.366,478.631
105360,138551,8380,-0.033,1.004,0.294,-0.427,0.427,0.183,478.637
105378,138640,5203,-0.033,1.006,0.292,-0.427,0.427,0.183,478.641
105378,138593,8368,-0.035,1.001,0.292,-0.244,0.488,0.061,478.647
105409,138640,5203,-0.032,0.995,0.287,-0.244,0.488,0.061,478.651
105409,138595,8383,-0.035,1,0.278,0,0.122,0.366,478.657
105396,138640,5203,-0.035,1.006,0.279,0,0.122,0.366,478.66
105396,138598,8369,-0.033,0.999,0.292,0.061,-0.305,0.549,478.667
105390,138640,5203,-0.033,1.007,0.3,0.061,-0.305,0.549,478.67
105390,138595,8374,-0.033,1.018,0.303,-0.122,-0.183,0.488,478.677
105421,138640,5203,-0.028,1.017,0.295,-0.122,-0.183,0.488,478.68
105421,138594,8376,-0.032,1.01,0.295,-0.305,0.305,0.061,478.686
105407,138640,5203,-0.034,1.004,0.299,-0.305,0.305,0.061,478.69
105407,138599,8365,-0.031,1.002,0.294,-0.427,0.427,0,478.696
105424,138640,5203,-0.031,0.996,0.294,-0.427,0.427,0,478.7
105424,138595,8368,-0.031,0.993,0.3,-0.549,0.427,0.488,478.706
105400,138640,5203,-0.032,1,0.298,-0.549,0.427,0.488,478.71
105400,138590,8379,-0.034,1.008,0.294,-0.183,0.549,0.671,478.716
105376,138640,5203,-0.03,1.017,0.296,-0.183,0.549,0.671,478.72
105376,138565,8371,-0.029,1.021,0.295,0.061,0.793,0.366,478.726
105407,138640,5203,-0.033,1.015,0.284,0.061,0.793,0.366,478.73
105407,138605,8389,-0.036,1.003,0.282,-0.549,0.915,0,478.736
105405,138640,5203,-0.034,0.997,0.278,-0.549,0.915,0,478.74
105405,138594,8371,-0.032,0.995,0.285,-0.854,0.671,0.061,478.746
105379,138640,5203,-0.032,0.993,0.29,-0.854,0.671,0.061,478.75
105379,138575,8379,-0.033,0.993,0.284,-0.366,0.488,0.366,478.756
105369,138640,5203,-0.036,0.999,0.284,-0.366,0.488,0.366,478.759
105369,138537,8352,-0.035,1.01,0.289,0.244,0.244,0.732,478.766
105348,138640,5203,-0.034,1.014,0.298,0.244,0.244,0.732,478.769
105348,138534,8373,-0.031,1.014,0.305,0.427,0.061,0.549,478.776
105320,138640,5203,-0.031,1.01,0.306,0.427,0.061,0.549,478.779
105320,138545,8368,-0.031,1.01,0.296,0.061,0.366,0.366,478.785
105366,138640,5203,-0.033,1.011,0.301,0.061,0.366,0.366,478.789
105366,138535,8407,-0.032,1.007,0.302,-0.122,0.671,0.244,478.795
105376,138640,5203,-0.031,1.001,0.301,-0.122,0.671,0.244,478.799
105376,138570,8383,-0.031,0.999,0.296,-0.122,0.915,0.244,478.805
105392,138640,5203,-0.033,0.998,0.294,-0.122,0.915,0.244,478.809
105392,138604,8384,-0.033,0.999,0.287,-0.122,0.915,0.366,478.815
105410,138640,5203,-0.033,1.005,0.283,-0.122,0.915,0.366,478.819
105410,138602,8371,-0.034,1.005,0.282,0.061,0.915,0.427,478.825
105409,138640,5203,-0.036,1.005,0.282,0.061,0.915,0.427,478.829
105409,138571,8373,-0.036,1.007,0.287,-0.427,0.732,0.488,478.835
105392,138640,5203,-0.035,1.007,0.285,-0.427,0.732,0.488,478.839
105392,138573,8374,-0.033,1,0.282,-0.732,0.427,0.183,478.845
105394,138640,5203,-0.033,1.001,0.286,-0.732,0.427,0.183,478.849
105394,138581,8387,-0.032,1.01,0.292,-0.305,0.244,0.488,478.855
105417,138640,5203,-0.03,1.016,0.295,-0.305,0.244,0.488,478.858
105417,138591,8370,-0.03,1.014,0.29,-0.244,0.305,0.488,478.865
105401,138640,5203,-0.032,1.008,0.287,-0.244,0.305,0.488,478.868
