104277,137104,5203,-0.039,0.998,0.311,-0.183,0.061,0.488,433.497
104277,137199,8232,-0.037,1,0.323,-0.183,0.061,0.488,433.503
104207,137104,5203,-0.041,1.005,0.326,0.366,0.366,0.549,433.507
104207,137176,8246,-0.039,1.009,0.312,0.366,0.366,0.549,433.513
104182,137104,5203,-0.038,1.018,0.309,0.122,0.915,0.305,433.516
104182,137149,8234,-0.037,1.011,0.31,0.122,0.915,0.305,433.523
104232,137104,5203,-0.036,0.999,0.309,-0.427,0.854,-0.122,433.526
104232,137193,8233,-0.04,0.994,0.305,-0.427,0.854,-0.122,433.533
104238,137104,5203,-0.04,0.989,0.295,-0.61,0.915,0,433.536
104238,137184,8245,-0.04,0.984,0.283,-0.61,0.915,0,433.542
104231,137104,5203,-0.041,0.989,0.28,-0.122,0.61,0.244,433.546
104231,137187,8249,-0.041,1.001,0.286,-0.122,0.61,0.244,433.552
104197,137104,5203,-0.036,1.006,0.3,0.122,0,0.488,433.556
104197,137164,8231,-0.032,0.998,0.309,0.122,0,0.488,433.562
104156,137104,5203,-0.036,0.998,0.314,-0.122,-0.305,0.793,433.566
104156,137162,8230,-0.037,1.007,0.312,-0.122,-0.305,0.793,433.572
104282,137360,5203,-0.041,1.014,0.31,-0.061,-0.244,0.793,433.576
104282,137263,8234,-0.041,1.017,0.312,-0.061,-0.244,0.793,433.582
104383,137360,5203,-0.04,1.013,0.308,-0.183,0.061,0.549,433.586
104383,137357,8274,-0.04,1,0.307,-0.183,0.061,0.549,433.592
104449,137360,5203,-0.038,0.992,0.306,-0.915,0.061,0.122,433.596
104449,137364,8259,-0.036,0.993,0.299,-0.915,0.061,0.122,433.602
104488,137360,5203,-0.036,0.999,0.297,-0.671,0.122,0.061,433.606
104488,137395,8253,-0.039,1,0.298,-0.671,0.122,0.061,433.612
104470,137360,5203,-0.036,1.005,0.301,0.061,0.061,0.305,433.615
104470,137411,8271,-0.037,1.002,0.307,0.061,0.061,0.305,433.622
104469,137360,5203,-0.04,0.995,0.311,-0.122,-0.122,0.183,433.625
104469,137381,8272,-0.039,0.995,0.312,-0.122,-0.122,0.183,433.632
104467,137360,5203,-0.038,0.997,0.308,-0.427,-0.122,0.244,433.635
104467,137356,8272,-0.039,0.999,0.315,-0.427,-0.122,0.244,433.641
104458,137360,5203,-0.039,0.997,0.314,-0.183,0.122,0.366,433.645
104458,137383,8267,-0.037,1.001,0.312,-0.183,0.122,0.366,433.651
104482,137360,5203,-0.04,1.002,0.307,-0.061,0.122,0.488,433.655
104482,137379,8270,-0.041,1.002,0.298,-0.061,0.122,0.488,433.661
104488,137360,5203,-0.041,1.002,0.298,-0.061,0.122,0.488,433.665
104488,137366,8280,-0.04,0.996,0.305,-0.183,-0.122,0.61,433.671
104457,137360,5203,-0.04,0.996,0.305,-0.183,-0.122,0.61,433.675
104457,137377,8267,-0.036,1.001,0.309,0,-0.061,0.61,433.681
104445,137360,5203,-0.036,1.001,0.309,0,-0.061,0.61,433.685
104445,137347,8271,-0.037,1.006,0.314,0.366,0.122,0.61,433.691
104406,137360,5203,-0.037,1.006,0.314,0.366,0.122,0.61,433.695
104406,137330,8263,-0.039,1.016,0.305,0.427,0.549,0.366,433.701
104374,137360,5203,-0.039,1.016,0.305,0.427,0.549,0.366,433.705
104374,137298,8242,-0.029,1.007,0.317,-0.732,0.549,0.427,433.711
104345,137360,5203,-0.029,1.007,0.317,-0.732,0.549,0.427,433.714
104345,137250,8235,-0.038,0.997,0.304,-1.28,0.671,0.183,433.721
104309,137360,5203,-0.038,0.997,0.304,-1.28,0.671,0.183,433.724
104309,137239,8236,-0.034,0.999,0.303,-0.61,0.732,0.427,433.73
104270,137104,5203,-0.034,0.999,0.303,-0.61,0.732,0.427,433.734
104270,137200,8236,-0.041,1.01,0.301,0.244,0.854,0.488,433.74
104244,137360,5203,-0.041,1.01,0.301,0.244,0.854,0.488,433.744
104244,137219,8227,-0.035,1.002,0.305,0.122,0.671,0.427,433.75
104255,137360,5203,-0.035,1.002,0.305,0.122,0.671,0.427,433.754
104255,137219,8252,-0.037,0.995,0.304,-0.305,0.183,0.488,433.76
104250,137360,5203,-0.037,0.995,0.304,-0.305,0.183,0.488,433.764
104250,137221,8231,-0.04,0.998,0.304,-0.488,0.122,0.61,433.77
104281,137360,5203,-0.04,0.998,0.304,-0.488,0.122,0.61,433.774
104281,137239,8237,-0.037,1.001,0.308,0,0.244,0.366,433.78
104270,137360,5203,-0.037,1.001,0.308,0,0.244,0.366,433.784
104270,137231,8245,-0.035,0.996,0.316,0.305,0.305,0.061,433.79
104254,137360,5203,-0.035,0.996,0.316,0.305,0.305,0.061,433.794
104254,137241,8244,-0.036,0.997,0.314,0.122,0.366,0.061,433.8
104345,137360,5203,-0.037,0.998,0.314,0.122,0.366,0.061,433.803
104345,137279,8250,-0.036,1.002,0.312,0.122,0.732,0.061,433.81
104390,137360,5203,-0.035,0.998,0.313,0.122,0.732,0.061,433.813
104390,137325,8252,-0.036,0.993,0.307,-0.122,0.854,0.183,433.82
104450,137360,5203,-0.037,0.99,0.295,-0.122,0.854,0.183,433.823
104450,137391,8255,-0.04,0.993,0.287,-0.793,0.671,0.427,433.829
104473,137360,5203,-0.038,1,0.285,-0.793,0.671,0.427,433.833
104473,137380,8254,-0.037,0.999,0.293,-1.28,0.305,0.915,433.839
104483,137360,5203,-0.032,1.002,0.303,-1.28,0.305,0.915,433.843
104483,137405,8276,-0.033,1.009,0.301,-1.22,-0.061,1.098,433.849
104569,137360,5203,-0.034,1.005,0.303,-1.22,-0.061,1.098,433.853
104569,137467,8271,-0.038,1.002,0.303,-0.366,-0.061,0.854,433.859
104612,137616,5203,-0.042,1.019,0.299,-0.366,-0.061,0.854,433.863
104612,137507,8281,-0.039,1.024,0.309,-0.305,-0.305,0.915,433.869
104643,137616,5203,-0.035,1.016,0.313,-0.305,-0.305,0.915,433.873
104643,137524,8285,-0.035,1.004,0.313,-0.488,-0.122,0.488,433.879
104645,137616,5203,-0.039,0.999,0.31,-0.488,-0.122,0.488,433.883
104645,137517,8292,-0.043,1.002,0.315,-0.183,0.122,0.244,433.889
104653,137616,5203,-0.041,1.008,0.315,-0.183,0.122,0.244,433.893
104653,137530,8290,-0.04,1.007,0.309,0.793,0.732,0,433.899
104651,137616,5203,-0.041,1.006,0.301,0.793,0.732,0,433.902
104651,137524,8294,-0.038,0.998,0.304,0.061,0.915,-0.366,433.909
104653,137616,5203,-0.035,0.986,0.307,0.061,0.915,-0.366,433.912
104653,137512,8291,-0.035,0.985,0.302,-0.61,0.793,-0.366,433.919
104646,137616,5203,-0.038,0.993,0.294,-0.61,0.793,-0.366,433.922
104646,137502,8281,-0.041,0.991,0.291,-0.61,0.61,0.122,433.928
104652,137616,5203,-0.038,0.995,0.29,-0.61,0.61,0.122,433.932
104652,137525,8288,-0.04,0.998,0.296,-0.732,-0.244,0.488,433.938
104704,137616,5203,-0.036,0.998,0.31,-0.732,-0.244,0.488,433.942
104704,137567,8303,-0.033,0.995,0.317,-0.793,-0.671,0.671,433.948
104732,137616,5203,-0.035,0.996,0.32,-0.793,-0.671,0.671,433.952
104732,137575,8300,-0.037,1.004,0.315,-0.183,-0.671,0.854,433.958
104756,137616,5203,-0.04,1.014,0.311,-0.183,-0.671,0.854,433.962
104756,137598,8300,-0.042,1.017,0.316,0.244,-0.366,0.915,433.968
104741,137616,5203,-0.042,1.012,0.324,0.244,-0.366,0.915,433.972
104741,137583,8306,-0.038,0.999,0.328,0.122,0.244,0.427,433.978
104730,137616,5203,-0.039,0.987,0.321,0.122,0.244,0.427,433.982
104730,137576,8312,-0.042,0.99,0.306,0.305,0.61,0.244,433.988
104731,137616,5203,-0.042,1.009,0.3,0.305,0.61,0.244,433.992
104731,137548,8304,-0.04,1.007,0.303,0.488,0.671,0.488,433.998
104700,137616,5203,-0.035,0.998,0.301,0.488,0.671,0.488,434.001
104700,137531,8288,-0.038,0.994,0.298,0.671,0.854,0,434.008
104644,137616,5203,-0.042,0.993,0.296,0.671,0.854,0,434.011
104644,137481,8281,-0.037,0.994,0.287,0.366,0.488,0.305,434.018
104657,137616,5203,-0.036,0.998,0.287,0.366,0.488,0.305,434.021
104657,137519,8304,-0.036,1.01,0.293,0.061,0.244,0.488,434.027
104693,137616,5203,-0.034,1.013,0.3,0.061,0.244,0.488,434.031
104693,137548,8290,-0.03,1.006,0.302,-1.037,-0.183,0.793,434.037
104731,137616,5203,-0.031,0.999,0.297,-1.037,-0.183,0.793,434.041
104731,137585,8301,-0.034,1.001,0.299,-1.341,-0.244,0.549,434.047
104766,137616,5203,-0.035,1.007,0.316,-1.341,-0.244,0.549,434.051
104766,137602,8305,-0.032,1.018,0.324,-0.305,-0.061,0.549,434.057
104763,137616,5203,-0.034,1.017,0.329,-0.305,-0.061,0.549,434.061
104763,137617,8293,-0.036,1.01,0.32,-0.244,0.305,0.305,434.067
104785,137616,5203,-0.038,1.004,0.303,-0.244,0.305,0.305,434.071
104785,137615,8303,-0.04,0.996,0.299,-0.915,0.427,0,434.077
104785,137616,5203,-0.041,0.991,0.302,-0.915,0.427,0,434.081
104785,137611,8312,-0.044,0.989,0.299,-0.244,0.488,-0.061,434.087
104816,137616,5203,-0.045,0.988,0.293,-0.244,0.488,-0.061,434.091
104816,137620,8305,-0.045,0.983,0.296,0.305,0.366,0.061,434.097
104803,137616,5203,-0.042,0.982,0.297,0.305,0.366,0.061,434.1
104803,137618,8313,-0.042,0.989,0.299,0.244,-0.061,0.305,434.107
104797,137616,5203,-0.036,1.001,0.313,0.244,-0.061,0.305,434.11
104797,137615,8303,-0.036,1.005,0.315,-0.061,-0.122,0.61,434.117
104748,137616,5203,-0.035,1.006,0.317,-0.061,-0.122,0.61,434.12
104748,137567,8311,-0.032,1.013,0.315,-0.244,0.305,0.549,434.126
104735,137616,5203,-0.036,1.008,0.312,-0.244,0.305,0.549,434.13
104735,137604,8307,-0.036,1.001,0.306,-0.671,0.427,0.488,434.136
104802,137616,5203,-0.04,0.992,0.29,-0.671,0.427,0.488,434.14
104802,137602,8308,-0.041,0.998,0.284,-0.671,0.366,0.61,434.146
104800,137616,5203,-0.036,1.009,0.293,-0.671,0.366,0.61,434.15
104800,137618,8312,-0.03,1.009,0.306,-0.61,-0.122,0.793,434.156
104830,137616,5203,-0.028,1.005,0.311,-0.61,-0.122,0.793,434.16
104830,137627,8315,-0.034,1.002,0.308,-0.183,-0.244,0.732,434.166
104854,137616,5203,-0.037,1.009,0.315,-0.183,-0.244,0.732,434.17
104854,137638,8323,-0.036,1.018,0.32,0.305,0,0.549,434.176
104831,137616,5203,-0.034,1.019,0.32,0.305,0,0.549,434.18
104831,137657,8303,-0.035,1.016,0.319,0.061,0.549,-0.061,434.186
104821,137616,5203,-0.035,1.004,0.31,0.061,0.549,-0.061,434.19
104821,137617,8312,-0.037,0.992,0.306,-0.488,0.732,-0.305,434.196
104792,137616,5203,-0.039,0.984,0.297,-0.488,0.732,-0.305,434.199
104792,137598,8309,-0.041,0.99,0.293,-0.183,0.549,-0.122,434.206
104816,137616,5203,-0.042,0.998,0.293,-0.183,0.549,-0.122,434.209
104816,137603,8312,-0.042,1.002,0.296,0.244,0.183,0.366,434.215
104795,137616,5203,-0.038,0.996,0.301,0.244,0.183,0.366,434.219
104795,137617,8298,-0.037,0.994,0.304,0.122,0.061,0.427,434.225
104791,137616,5203,-0.039,1,0.31,0.122,0.061,0.427,434.229
104791,137600,8313,-0.039,1.004,0.313,-0.427,0.122,0.671,434.235
104806,137616,5203,-0.039,1.004,0.313,-0.427,0.122,0.671,434.239
104806,137601,8302,-0.036,1.003,0.312,-0.549,0.549,0.549,434.245
104792,137616,5203,-0.036,1.003,0.312,-0.549,0.549,0.549,434.249
104792,137594,8303,-0.04,0.998,0.312,-0.366,0.732,0.366,434.255
104792,137616,5203,-0.04,0.998,0.312,-0.366,0.732,0.366,434.259
104792,137627,8297,-0.036,0.999,0.315,-0.244,0.793,0.244,434.265
104812,137616,5203,-0.036,0.999,0.315,-0.244,0.793,0.244,434.269
104812,137661,8313,-0.037,1.004,0.304,-0.427,0.915,0.366,434.275
104793,137616,5203,-0.037,1.004,0.304,-0.427,0.915,0.366,434.279
104793,137616,8314,-0.036,1.01,0.297,-0.488,0.61,0.366,434.285
104779,137616,5203,-0.036,1.01,0.297,-0.488,0.61,0.366,434.289
104779,137601,8290,-0.041,0.983,0.288,-0.366,0.244,0.366,434.295
104760,137616,5203,-0.041,0.983,0.288,-0.366,0.244,0.366,434.298
104760,137578,8308,-0.038,0.999,0.295,-0.061,-0.061,0.488,434.305
104744,137616,5203,-0.038,0.999,0.295,-0.061,-0.061,0.488,434.308
104744,137590,8300,-0.036,1.016,0.307,0.061,-0.183,0.549,434.314
104775,137616,5203,-0.036,1.016,0.307,0.061,-0.183,0.549,434.318
104775,137594,8307,-0.035,1.003,0.305,-0.671,-0.305,0.549,434.324
104797,137616,5203,-0.035,1.003,0.305,-0.671,-0.305,0.549,434.328
104797,137614,8291,-0.036,1.004,0.317,-0.732,0,0.183,434.334
104789,137616,5203,-0.036,1.004,0.317,-0.732,0,0.183,434.338
104789,137616,8310,-0.035,1.004,0.317,-0.305,0.305,0.122,434.344
104796,137616,5203,-0.035,1.004,0.317,-0.305,0.305,0.122,434.348
104796,137637,8314,-0.038,0.998,0.314,-0.183,0.549,-0.122,434.354
104815,137616,5203,-0.038,0.998,0.314,-0.183,0.549,-0.122,434.358
104815,137630,8295,-0.034,0.987,0.307,-0.366,0.488,-0.122,434.364
104830,137616,5203,-0.034,0.987,0.307,-0.366,0.488,-0.122,434.368
104830,137627,8304,-0.036,0.986,0.301,-0.366,0.488,-0.122,434.374
104829,137616,5203,-0.037,0.989,0.301,-0.488,0.183,0.305,434.378
104829,137617,8305,-0.038,0.994,0.299,-0.488,0.183,0.305,434.384
104779,137616,5203,-0.038,0.993,0.302,-0.244,0,0.427,434.387
104779,137592,8301,-0.032,0.995,0.306,-0.244,0,0.427,434.394
104710,137616,5203,-0.031,1.003,0.308,-0.122,-0.244,0.671,434.397
104710,137545,8290,-0.032,1.005,0.319,-0.122,-0.244,0.671,434.404
104691,137616,5203,-0.037,1.008,0.313,-0.122,-0.244,0.732,434.407
104691,137518,8299,-0.037,1.011,0.304,-0.122,-0.244,0.732,434.413
104766,137616,5203,-0.036,1.015,0.308,-0.305,-0.244,0.61,434.417
104766,137587,8311,-0.034,1.011,0.308,-0.305,-0.244,0.61,434.423
104817,137616,5203,-0.034,1.004,0.312,-0.427,0,0.488,434.427
104817,137614,8308,-0.041,0.995,0.309,-0.427,0,0.488,434.433
104846,137616,5203,-0.043,0.994,0.3,-0.305,0.244,0.427,434.437
104846,137665,8297,-0.039,0.995,0.295,-0.305,0.244,0.427,434.443
104871,137616,5203,-0.036,1.002,0.298,0.061,0.305,0.61,434.447
104871,137638,8310,-0.039,1.002,0.304,0.061,0.305,0.61,434.453
104844,137616,5203,-0.038,1.001,0.308,0.671,0.488,0.549,434.457
104844,137646,8312,-0.038,0.999,0.308,0.671,0.488,0.549,434.463
104854,137616,5203,-0.037,0.994,0.302,0.061,0.61,0.427,434.467
104854,137662,8301,-0.034,0.991,0.304,0.061,0.61,0.427,434.473
104872,137616,5203,-0.032,1.001,0.302,-0.427,0.366,0.488,434.477
104872,137684,8325,-0.029,1,0.309,-0.427,0.366,0.488,434.483
104931,137872,5203,-0.03,0.989,0.31,-0.488,0.061,0.793,434.486
104931,137728,8324,-0.031,0.999,0.31,-0.488,0.061,0.793,434.493
104978,137872,5203,-0.033,1.009,0.312,-0.305,0.061,0.915,434.496
104978,137748,8340,-0.034,1.006,0.31,-0.305,0.061,0.915,434.503
104998,137872,5203,-0.034,1.011,0.317,-0.122,0.488,0.61,434.506
104998,137807,8328,-0.035,1.019,0.321,-0.122,0.488,0.61,434.512
105011,137872,5203,-0.037,1.011,0.31,-0.915,0.61,0.427,434.516
105011,137785,8339,-0.033,0.997,0.307,-0.915,0.61,0.427,434.522
105023,137872,5203,-0.036,0.994,0.31,-1.402,0.488,0.122,434.526
105023,137796,8332,-0.038,0.997,0.305,-1.402,0.488,0.122,434.532
105026,137872,5203,-0.037,1.002,0.302,-0.61,0.427,0.305,434.536
105026,137780,8340,-0.038,1.005,0.305,-0.61,0.427,0.305,434.542
104961,137872,5203,-0.036,1,0.301,0.183,0.61,0.122,434.546
104961,137736,8339,-0.036,1.001,0.302,0.183,0.61,0.122,434.552
104977,137872,5203,-0.041,1.003,0.305,0.549,0.549,0.305,434.556
104977,137733,8330,-0.041,1,0.31,0.549,0.549,0.305,434.562
104962,137872,5203,-0.036,1.003,0.309,0.305,0.549,0.366,434.566
104962,137743,8332,-0.035,1,0.31,0.305,0.549,0.366,434.572
104963,137872,5203,-0.036,0.995,0.314,-0.061,0.854,0.061,434.576
104963,137730,8322,-0.039,0.993,0.308,-0.061,0.854,0.061,434.582
104955,137872,5203,-0.041,0.995,0.302,-0.366,0.915,0.244,434.585
104955,137738,8330,-0.039,1.006,0.298,-0.366,0.915,0.244,434.592
104946,137616,5203,-0.038,1.005,0.303,-0.488,0.793,0.305,434.595
104946,137680,8317,-0.035,0.998,0.302,-0.488,0.793,0.305,434.601
104922,137616,5203,-0.038,0.996,0.3,-0.488,0.671,0.244,434.605
104922,137722,8331,-0.039,0.993,0.302,-0.488,0.671,0.244,434.611
104920,137616,5203,-0.035,0.999,0.301,-0.61,0.488,0.549,434.615
104920,137717,8315,-0.042,0.996,0.292,-0.61,0.488,0.549,434.621
104928,137616,5203,-0.047,1,0.274,-0.183,0.244,0.549,434.625
104928,137698,8319,-0.043,1.012,0.28,-0.183,0.244,0.549,434.631
104924,137616,5203,-0.035,1.007,0.3,-0.244,-0.671,0.61,434.635
104924,137688,8324,-0.033,0.996,0.313,-0.244,-0.671,0.61,434.641
104926,137616,5203,-0.033,0.999,0.314,0,-0.976,0.488,434.645
104926,137680,8327,-0.034,1.007,0.319,0,-0.976,0.488,434.651
104929,137616,5203,-0.033,1.012,0.323,0.549,-0.61,0.183,434.655
104929,137702,8336,-0.033,1.018,0.328,0.549,-0.61,0.183,434.661
104943,137616,5203,-0.032,1.015,0.323,0.61,-0.061,-0.183,434.665
104943,137719,8333,-0.033,1.003,0.321,0.61,-0.061,-0.183,434.671
104972,137616,5203,-0.036,0.987,0.328,-0.427,0.061,-0.427,434.675
104972,137718,8340,-0.032,0.976,0.323,-0.427,0.061,-0.427,434.681
104982,137872,5203,-0.034,0.986,0.307,-0.671,0.366,-0.244,434.684
104982,137771,8333,-0.038,0.997,0.297,-0.671,0.366,-0.244,434.691
105050,137872,5203,-0.037,0.996,0.301,0.061,0.488,0.305,434.694
105050,137812,8346,-0.038,0.997,0.305,0.061,0.488,0.305,434.7
105103,137872,5203,-0.04,1.001,0.312,0.122,0.366,0.427,434.704
105103,137866,8360,-0.038,0.992,0.315,0.122,0.366,0.427,434.71
105183,137872,5203,-0.039,0.989,0.311,-0.671,0.305,0.61,434.714
105183,137908,8353,-0.039,0.998,0.307,-0.671,0.305,0.61,434.72
105253,137872,5203,-0.04,1.004,0.305,-0.61,0.671,0.671,434.724
105253,137939,8359,-0.036,1.008,0.302,-0.61,0.671,0.671,434.73
105267,137872,5203,-0.037,1.007,0.307,-0.488,0.915,0.488,434.734
105267,137973,8376,-0.036,1,0.305,-0.488,0.915,0.488,434.74
105309,137872,5203,-0.036,0.998,0.303,-0.671,1.037,0.122,434.744
105309,137983,8375,-0.04,0.998,0.302,-0.671,1.037,0.122,434.75
105296,138128,5203,-0.039,1,0.296,-0.305,0.915,0.183,434.754
105296,137994,8379,-0.037,1.003,0.303,-0.305,0.915,0.183,434.76
105335,138128,5203,-0.035,1.006,0.309,0.427,0.671,0.427,434.764
105335,137985,8371,-0.035,1.011,0.3,0.427,0.671,0.427,434.77
105302,138128,5203,-0.037,1.006,0.287,0.183,0.549,0.305,434.773
105302,137992,8385,-0.039,1,0.291,0.183,0.549,0.305,434.78
105295,137872,5203,-0.038,1.005,0.304,0.488,0.122,0.366,434.783
105295,137949,8372,-0.035,1.01,0.317,0.488,0.122,0.366,434.79
105235,137872,5203,-0.032,1.008,0.321,0.366,-0.183,0.549,434.793
105235,137894,8367,-0.034,1.001,0.318,0.366,-0.183,0.549,434.799
105208,137872,5203,-0.032,1.001,0.318,0.183,0.183,0.122,434.803
105208,137897,8363,-0.034,1.009,0.319,0.183,0.183,0.122,434.809
105173,137872,5203,-0.034,1.009,0.319,0.183,0.183,0.122,434.813
105173,137873,8347,-0.032,1.018,0.309,0.488,0.61,0.122,434.819
105169,137872,5203,-0.032,1.018,0.309,0.488,0.61,0.122,434.823
105169,137847,8351,-0.037,0.987,0.309,-0.183,0.793,-0.122,434.829
105122,137872,5203,-0.037,0.987,0.309,-0.183,0.793,-0.122,434.833
105122,137844,8361,-0.042,0.989,0.301,-0.671,0.61,-0.061,434.839
105078,137872,5203,-0.042,0.989,0.301,-0.671,0.61,-0.061,434.843
105078,137797,8345,-0.037,0.994,0.3,-0.427,0.61,0.122,434.849
105014,137872,5203,-0.037,0.994,0.3,-0.427,0.61,0.122,434.853
105014,137765,8352,-0.039,0.997,0.296,0.183,0.671,0.183,434.859
104981,137872,5203,-0.039,0.997,0.296,0.183,0.671,0.183,434.863
104981,137744,8327,-0.042,0.995,0.296,-0.122,0.183,0.488,434.869
104942,137616,5203,-0.042,0.995,0.296,-0.122,0.183,0.488,434.872
104942,137707,8343,-0.037,1.003,0.305,-0.488,-0.366,0.793,434.879
104926,137616,5203,-0.037,1.003,0.305,-0.488,-0.366,0.793,434.882
104926,137668,8328,-0.035,1.002,0.325,-0.427,-0.549,1.037,434.889
104874,137616,5203,-0.035,1.002,0.325,-0.427,-0.549,1.037,434.892
104874,137677,8333,-0.036,1.014,0.319,0.244,-0.122,0.732,434.898
104936,137616,5203,-0.036,1.014,0.319,0.244,-0.122,0.732,434.902
104936,137721,8328,-0.034,1.01,0.311,0.488,0.244,0.488,434.908
104974,137872,5203,-0.034,1.01,0.311,0.488,0.244,0.488,434.912
104974,137760,8326,-0.035,0.996,0.312,-0.061,0.183,0.061,434.918
105002,137872,5203,-0.035,0.996,0.312,-0.061,0.183,0.061,434.922
105002,137759,8339,-0.031,0.99,0.297,-0.488,0.488,-0.122,434.928
105000,137872,5203,-0.031,0.99,0.297,-0.488,0.488,-0.122,434.932
105000,137774,8336,-0.039,0.996,0.294,0.183,0.61,0.061,434.938
105045,137872,5203,-0.039,0.996,0.294,0.183,0.61,0.061,434.942
105045,137790,8357,-0.042,1.004,0.288,0.305,0.122,0.732,434.948
105061,137872,5203,-0.042,1.006,0.29,0.305,0.122,0.732,434.952
105061,137792,8342,-0.034,1.007,0.3,-0.244,-0.305,1.037,434.958
105027,137872,5203,-0.033,1.002,0.303,-0.244,-0.305,1.037,434.962
105027,137766,8346,-0.036,0.998,0.31,-0.305,-0.549,0.854,434.968
105019,137872,5203,-0.04,1.004,0.314,-0.305,-0.549,0.854,434.971
105019,137758,8320,-0.038,1.009,0.316,0.366,-0.244,0.915,434.978
104970,137616,5203,-0.038,1.01,0.318,0.366,-0.244,0.915,434.981
104970,137706,8324,-0.041,1.012,0.32,0.854,0.305,0.549,434.987
104898,137616,5203,-0.038,1.007,0.324,0.854,0.305,0.549,434.991
104898,137661,8320,-0.038,1.005,0.319,0.427,0.854,0.061,434.997
104831,137616,5203,-0.036,1.002,0.315,0.427,0.854,0.061,435.001
104831,137634,8315,-0.035,1.002,0.311,-0.122,1.341,-0.183,435.007
104774,137616,5203,-0.034,0.998,0.314,-0.122,1.341,-0.183,435.011
104774,137592,8306,-0.035,0.993,0.311,-0.427,1.341,-0.183,435.017
104739,137616,5203,-0.037,0.989,0.304,-0.427,1.341,-0.183,435.021
104739,137551,8280,-0.032,0.99,0.295,-1.28,1.22,0.122,435.027
104706,137616,5203,-0.032,0.99,0.298,-1.28,1.22,0.122,435.031
104706,137548,8294,-0.034,0.996,0.299,-1.159,1.159,0.061,435.037
104703,137616,5203,-0.036,0.998,0.298,-1.159,1.159,0.061,435.041
104703,137524,8296,-0.041,0.995,0.287,-0.488,0.61,0.61,435.047
104725,137616,5203,-0.044,0.992,0.273,-0.488,0.61,0.61,435.051
104725,137568,8300,-0.043,1.004,0.277,-0.549,-0.427,0.976,435.057
104819,137616,5203,-0.038,1.015,0.297,-0.549,-0.427,0.976,435.061
104819,137615,8310,-0.032,1.013,0.317,-0.488,-1.037,1.037,435.067
104830,137616,5203,-0.035,1.011,0.314,-0.488,-1.037,1.037,435.07
104830,137648,8319,-0.038,1.01,0.312,0,-0.854,0.854,435.077
104852,137616,5203,-0.04,1.015,0.316,0,-0.854,0.854,435.08
104852,137646,8326,-0.04,1.018,0.329,0.671,-0.244,0.549,435.086
104862,137616,5203,-0.039,1.016,0.329,0.671,-0.244,0.549,435.09
104862,137647,8310,-0.042,1.008,0.316,0.793,0.732,-0.061,435.096
104888,137616,5203,-0.038,0.994,0.309,0.793,0.732,-0.061,435.1
104888,137664,8315,-0.036,0.988,0.309,0.244,0.854,-0.671,435.106
104886,137616,5203,-0.036,0.985,0.303,0.244,0.854,-0.671,435.11
104886,137651,8329,-0.036,0.989,0.303,0.732,0.854,-0.61,435.116
104864,137616,5203,-0.033,0.992,0.309,0.732,0.854,-0.61,435.12
104864,137654,8316,-0.034,0.99,0.318,0.732,1.098,-0.366,435.126
104833,137616,5203,-0.036,0.987,0.313,0.732,1.098,-0.366,435.13
104833,137657,8311,-0.037,0.987,0.3,0.122,0.915,0.183,435.136
104850,137616,5203,-0.036,0.992,0.3,0.122,0.915,0.183,435.14
104850,137636,8307,-0.031,1.002,0.298,-0.122,0.671,0.427,435.146
104874,137616,5203,-0.035,1.009,0.3,-0.122,0.671,0.427,435.15
104874,137676,8316,-0.033,1.004,0.3,-0.183,0.122,0.61,435.156
104913,137616,5203,-0.037,0.999,0.294,-0.183,0.122,0.61,435.159
104913,137669,8313,-0.042,1.002,0.292,-0.366,-0.244,0.854,435.166
104946,137616,5203,-0.042,1.008,0.296,-0.366,-0.244,0.854,435.169
104946,137699,8327,-0.041,1.014,0.303,0.061,-0.183,0.854,435.176
104945,137616,5203,-0.035,1.017,0.311,0.061,-0.183,0.854,435.179
104945,137716,8331,-0.036,1.018,0.318,0.244,0.122,0.61,435.185
105038,137872,5203,-0.035,1.016,0.313,0.244,0.122,0.61,435.189
105038,137788,8327,-0.041,1.017,0.309,0.183,0.488,0.549,435.195
105088,137872,5203,-0.038,1.015,0.307,0.183,0.488,0.549,435.199
105088,137833,8349,-0.031,1.001,0.311,0.122,0.793,0.366,435.205
105125,137872,5203,-0.033,0.992,0.315,0.122,0.793,0.366,435.209
105125,137864,8367,-0.036,0.995,0.312,0.305,1.159,0.122,435.215
105174,137872,5203,-0.034,0.991,0.312,0.305,1.159,0.122,435.219
105174,137880,8355,-0.033,0.991,0.309,0.61,1.28,0.061,435.225
105223,137872,5203,-0.036,0.997,0.317,0.61,1.28,0.061,435.229
105223,137905,8367,-0.032,0.999,0.325,0.244,1.28,0.061,435.235
105242,137872,5203,-0.031,1.001,0.31,0.244,1.28,0.061,435.239
105242,137930,8364,-0.033,0.994,0.297,-0.915,1.22,0.061,435.245
105257,137872,5203,-0.032,0.989,0.3,-0.915,1.22,0.061,435.249
105257,137956,8366,-0.036,0.989,0.299,-1.037,0.854,0.061,435.255
105275,137872,5203,-0.036,0.991,0.302,-1.037,0.854,0.061,435.258
105275,137944,8370,-0.033,0.992,0.293,-0.732,0.366,0.427,435.265
105277,137872,5203,-0.036,0.995,0.295,-0.732,0.366,0.427,435.268
105277,137936,8364,-0.036,1.003,0.303,-0.183,0.122,0.854,435.275
105251,137872,5203,-0.038,1.008,0.308,-0.183,0.122,0.854,435.278
105251,137931,8368,-0.036,1.008,0.312,0,0,1.159,435.284
105200,137872,5203,-0.038,1.009,0.316,0,0,1.159,435.288
105200,137873,8347,-0.039,1.006,0.314,-0.122,0.122,0.976,435.294
105086,137872,5203,-0.044,1.006,0.306,-0.122,0.122,0.976,435.298
105086,137840,8335,-0.045,1.008,0.298,-0.122,0.244,0.793,435.304
105029,137872,5203,-0.042,1.007,0.302,-0.122,0.244,0.793,435.308
105029,137745,8332,-0.044,1.005,0.302,-0.305,0.427,0.427,435.314
104936,137616,5203,-0.042,0.995,0.301,-0.305,0.427,0.427,435.318
104936,137712,8330,-0.042,0.992,0.303,-0.061,0.549,0.366,435.324
104985,137872,5203,-0.041,0.99,0.306,-0.061,0.549,0.366,435.328
104985,137747,8322,-0.039,0.996,0.302,0.854,0.61,0.488,435.334
105009,137872,5203,-0.037,1.001,0.303,0.854,0.61,0.488,435.338
105009,137753,8324,-0.042,0.994,0.3,1.646,0.854,0.549,435.344
105021,137872,5203,-0.041,0.996,0.296,1.646,0.854,0.549,435.348
105021,137770,8333,-0.037,1.005,0.299,1.28,0.61,0.61,435.354
105076,137872,5203,-0.032,1.009,0.31,1.28,0.61,0.61,435.357
105076,137789,8341,-0.031,1.003,0.309,0.366,0.671,0.732,435.364
105082,137872,5203,-0.031,0.995,0.302,0.366,0.671,0.732,435.367
105082,137813,8336,-0.034,0.999,0.304,0.061,0.793,0.61,435.374
105115,137872,5203,-0.034,0.999,0.304,0.061,0.793,0.61,435.377
105115,137865,8356,-0.036,1.018,0.305,0,0.671,0.732,435.383
105134,137872,5203,-0.036,1.018,0.305,0,0.671,0.732,435.387
105134,137840,8348,-0.037,1.004,0.298,-0.488,0.366,0.61,435.393
105106,137872,5203,-0.037,1.004,0.298,-0.488,0.366,0.61,435.397
105106,137799,8332,-0.042,1,0.297,-0.793,0,0.549,435.403
105009,137872,5203,-0.042,1,0.297,-0.793,0,0.549,435.407
105009,137776,8312,-0.036,1.001,0.309,-0.488,-0.244,0.549,435.413
104968,137872,5203,-0.036,1.001,0.309,-0.488,-0.244,0.549,435.417
104968,137728,8326,-0.042,1.009,0.311,0,0,0.183,435.423
104908,137616,5203,-0.042,1.009,0.311,0,0,0.183,435.427
104908,137676,8333,-0.042,1.004,0.296,0.183,0.244,0,435.433
104897,137616,5203,-0.042,1.004,0.296,0.183,0.244,0,435.437
104897,137679,8322,-0.037,1.005,0.313,0,-0.061,0.122,435.443
104891,137616,5203,-0.037,1.005,0.313,0,-0.061,0.122,435.447
104891,137673,8320,-0.036,0.989,0.302,0.183,0.244,-0.061,435.453
104877,137616,5203,-0.036,0.989,0.302,0.183,0.244,-0.061,435.456
104877,137683,8307,-0.035,1.003,0.311,0.732,0.305,0,435.463
104909,137616,5203,-0.035,1.003,0.311,0.732,0.305,0,435.466
104909,137687,8327,-0.034,0.998,0.312,0.61,0.549,0.061,435.473
104965,137872,5203,-0.034,0.998,0.312,0.61,0.549,0.061,435.476
104965,137742,8336,-0.034,0.998,0.309,-0.244,0.671,0,435.482
105004,137872,5203,-0.034,0.998,0.309,-0.244,0.671,0,435.486
105004,137761,8329,-0.029,0.999,0.308,-0.976,0.549,0.183,435.492
105017,137872,5203,-0.029,0.999,0.308,-0.976,0.549,0.183,435.496
105017,137742,8332,-0.034,0.999,0.303,-0.671,0.427,0.305,435.502
104983,137872,5203,-0.034,0.999,0.303,-0.671,0.427,0.305,435.506
104983,137733,8328,-0.039,0.995,0.296,-0.305,0.305,0.244,435.512
104901,137616,5203,-0.039,0.995,0.296,-0.305,0.305,0.244,435.516
104901,137643,8306,-0.039,0.994,0.298,-0.305,0.305,0.244,435.522
104877,137616,5203,-0.04,0.997,0.303,-0.122,0,0.488,435.526
104877,137642,8323,-0.037,1.003,0.305,-0.122,0,0.488,435.532
104827,137616,5203,-0.039,1.004,0.311,0,-0.061,0.732,435.536
104827,137635,8303,-0.036,1.001,0.311,0,-0.061,0.732,435.542
104857,137616,5203,-0.037,1.001,0.309,0.305,0.122,0.671,435.546
104857,137652,8315,-0.039,1.007,0.314,0.305,0.122,0.671,435.552
104875,137616,5203,-0.038,1.011,0.313,0.122,0.427,0.793,435.555
104875,137678,8308,-0.035,1.009,0.318,0.122,0.427,0.793,435.562
104906,137616,5203,-0.033,1,0.319,-0.305,0.854,0.61,435.565
104906,137677,8333,-0.031,0.989,0.32,-0.305,0.854,0.61,435.571
104937,137616,5203,-0.035,0.983,0.315,-0.61,0.976,0.671,435.575
104937,137703,8318,-0.039,0.99,0.313,-0.61,0.976,0.671,435.581
105006,137872,5203,-0.034,1.003,0.31,-0.488,1.037,1.037,435.585
105006,137787,8342,-0.032,1.014,0.306,-0.488,1.037,1.037,435.591
105069,137872,5203,-0.036,1.012,0.294,-0.549,1.28,0.366,435.595
105069,137814,8350,-0.034,1.008,0.289,-0.549,1.28,0.366,435.601
105050,137872,5203,-0.037,1.007,0.287,-0.427,0.732,-0.061,435.605
105050,137810,8337,-0.039,1,0.284,-0.427,0.732,-0.061,435.611
105094,137872,5203,-0.039,0.989,0.279,-0.427,-0.366,0.061,435.615
105094,137801,8336,-0.037,0.989,0.271,-0.427,-0.366,0.061,435.621
105130,137872,5203,-0.036,0.996,0.282,-0.732,-1.768,0.61,435.625
105130,137853,8357,-0.036,1,0.298,-0.732,-1.768,0.61,435.631
105139,137872,5203,-0.036,1.004,0.307,-0.061,-2.439,1.098,435.635
105139,137862,8355,-0.036,1.011,0.313,-0.061,-2.439,1.098,435.641
105153,137872,5203,-0.035,1.021,0.32,0.671,-1.646,1.037,435.645
105153,137872,8352,-0.03,1.024,0.333,0.671,-1.646,1.037,435.651
105155,137872,5203,-0.032,1.015,0.336,0.488,-0.671,0.366,435.654
105155,137841,8356,-0.035,1.005,0.333,0.488,-0.671,0.366,435.661
105132,137872,5203,-0.037,0.988,0.332,-0.793,0.244,-0.061,435.664
105132,137842,8346,-0.034,0.983,0.328,-0.793,0.244,-0.061,435.67
105144,137872,5203,-0.027,0.997,0.341,-1.402,0.976,-0.061,435.674
105144,137853,8357,-0.025,1.002,0.34,-1.402,0.976,-0.061,435.68
105152,137872,5203,-0.034,0.995,0.315,-0.244,1.829,-0.061,435.684
105152,137853,8346,-0.037,0.996,0.302,-0.244,1.829,-0.061,435.69
105112,137872,5203,-0.043,1.003,0.298,0.061,2.256,-0.366,435.694
105112,137825,8348,-0.043,1.004,0.283,0.061,2.256,-0.366,435.7
105096,137872,5203,-0.042,0.996,0.28,-0.61,2.012,-0.366,435.704
105096,137827,8354,-0.035,0.98,0.284,-0.61,2.012,-0.366,435.71
105143,137872,5203,-0.036,0.974,0.273,-0.793,1.098,0,435.714
105143,137802,8356,-0.04,0.978,0.263,-0.793,1.098,0,435.72
105113,137872,5203,-0.044,0.985,0.278,-0.183,-0.061,1.098,435.724
105113,137808,8348,-0.044,1.001,0.287,-0.183,-0.061,1.098,435.73
105110,137872,5203,-0.042,1.023,0.289,0.488,-0.854,1.768,435.734
105110,137827,8346,-0.043,1.031,0.3,0.488,-0.854,1.768,435.74
105115,137872,5203,-0.039,1.03,0.313,0.183,-1.037,1.463,435.743
105115,137832,8350,-0.039,1.029,0.325,0.183,-1.037,1.463,435.75
105116,137872,5203,-0.04,1.016,0.31,-0.488,-0.732,0.671,435.753
105116,137826,8349,-0.042,1.009,0.311,-0.488,-0.732,0.671,435.76
105068,137872,5203,-0.031,1.013,0.362,-0.854,-0.244,0.122,435.763
105068,137771,8335,-0.023,1.014,0.369,-0.854,-0.244,0.122,435.769
105022,137872,5203,-0.025,1.004,0.348,-0.305,1.28,-0.244,435.773
105022,137759,8334,-0.028,0.998,0.34,-0.305,1.28,-0.244,435.779
105007,137872,5203,-0.031,1.008,0.335,0.366,2.439,-0.976,435.783
105007,137736,8319,-0.027,1.011,0.339,0.366,2.439,-0.976,435.789
104976,137616,5203,-0.024,1.001,0.336,0.366,3.415,-1.28,435.793
104976,137726,8329,-0.029,0.984,0.319,0.366,3.415,-1.28,435.799
104954,137616,5203,-0.029,0.97,0.293,-0.488,3.902,-1.585,435.803
104954,137718,8322,-0.034,0.971,0.274,-0.488,3.902,-1.585,435.809
104959,137616,5203,-0.038,0.978,0.264,-0.366,2.988,-0.61,435.813
104959,137704,8324,-0.039,0.976,0.261,-0.366,2.988,-0.61,435.819
104988,137616,5203,-0.041,0.976,0.26,-0.061,1.463,0.61,435.823
104988,137721,8327,-0.043,0.979,0.267,-0.061,1.463,0.61,435.829
104995,137872,5203,-0.047,0.985,0.269,-0.366,-0.061,1.646,435.833
104995,137757,8326,-0.047,0.99,0.266,-0.366,-0.061,1.646,435.839
105010,137872,5203,-0.051,0.996,0.268,-0.305,-1.22,2.195,435.842
105010,137730,8300,-0.054,1.013,0.285,-0.305,-1.22,2.195,435.849
104991,137616,5203,-0.05,1.023,0.308,-0.61,-2.195,2.744,435.852
104991,137727,8313,-0.043,1.022,0.319,-0.61,-2.195,2.744,435.859
104927,137616,5203,-0.041,1.016,0.327,-1.159,-1.951,2.5,435.862
104927,137698,8310,-0.044,1.017,0.339,-1.159,-1.951,2.5,435.868
104909,137616,5203,-0.042,1.024,0.345,-0.427,-0.488,1.341,435.872
104909,137696,8326,-0.04,1.032,0.335,-0.427,-0.488,1.341,435.878
104921,137616,5203,-0.036,1.035,0.334,0.427,0.976,0.366,435.882
104921,137699,8327,-0.031,1.02,0.336,0.427,0.976,0.366,435.888
105031,137872,5203,-0.031,1.001,0.326,-0.305,2.012,-1.037,435.892
105031,137801,8325,-0.034,0.995,0.315,-0.305,2.012,-1.037,435.898
105199,137872,5203,-0.03,0.995,0.294,-1.037,2.378,-1.524,435.902
105199,137902,8350,-0.029,0.996,0.286,-1.037,2.378,-1.524,435.908
105295,137872,5203,-0.029,0.997,0.28,0,2.134,-1.646,435.912
105295,137960,8368,-0.03,0.999,0.275,0,2.134,-1.646,435.918
105321,137872,5203,-0.031,0.992,0.271,0.427,1.037,-1.341,435.922
105321,137972,8387,-0.03,0.98,0.269,0.427,1.037,-1.341,435.928
105275,137872,5203,-0.034,0.975,0.276,-0.122,-0.854,-0.305,435.932
105275,137943,8373,-0.031,0.984,0.295,-0.122,-0.854,-0.305,435.938
105302,137872,5203,-0.031,0.994,0.311,-0.061,-1.707,0.854,435.941
105302,137962,8368,-0.03,0.997,0.318,-0.061,-1.707,0.854,435.948
105269,137872,5203,-0.034,1.001,0.327,0.488,-1.585,1.402,435.951
105269,137908,8352,-0.042,1.003,0.33,0.488,-1.585,1.402,435.958
105203,137872,5203,-0.042,1.003,0.33,0.488,-1.585,1.402,435.961
105203,137848,8364,-0.039,0.993,0.343,-0.061,-1.159,1.768,435.967
105142,137872,5203,-0.039,0.993,0.343,-0.061,-1.159,1.768,435.971
105142,137801,8348,-0.038,0.993,0.338,-0.976,-0.183,1.524,435.977
105065,137872,5203,-0.038,0.993,0.338,-0.976,-0.183,1.524,435.981
105065,137759,8340,-0.04,1,0.326,-0.549,0.793,0.854,435.987
105017,137616,5203,-0.04,1,0.326,-0.549,0.793,0.854,435.991
105017,137703,8332,-0.044,1.006,0.3,0.305,1.89,0.305,435.997
105025,137872,5203,-0.044,1.006,0.3,0.305,1.89,0.305,436.001
105025,137746,8326,-0.04,0.996,0.272,0.488,2.195,-0.183,436.007
105040,137872,5203,-0.04,0.996,0.272,0.488,2.195,-0.183,436.011
105040,137732,8348,-0.038,0.996,0.259,-0.183,1.585,-0.122,436.017
105053,137872,5203,-0.038,0.996,0.259,-0.183,1.585,-0.122,436.021
105053,137738,8346,-0.033,1.007,0.281,-0.366,0.488,0.183,436.027
105077,137872,5203,-0.033,1.007,0.281,-0.366,0.488,0.183,436.031
105077,137773,8336,-0.034,1.017,0.289,-0.061,-0.427,0.854,436.037
105104,137872,5203,-0.034,1.017,0.289,-0.061,-0.427,0.854,436.04
105104,137780,8323,-0.033,1.021,0.308,0.061,-0.976,0.915,436.047
105031,137872,5203,-0.033,1.021,0.308,0.061,-0.976,0.915,436.05
105031,137741,8331,-0.034,1.017,0.35,0.244,-1.28,0.854,436.057
104996,137616,5203,-0.034,1.017,0.35,0.244,-1.28,0.854,436.06
104996,137725,8336,-0.028,1.008,0.348,-0.122,-0.61,0.549,436.066
104916,137616,5203,-0.028,1.008,0.348,-0.122,-0.61,0.549,436.07
104916,137644,8321,-0.033,1.006,0.336,-0.915,0.549,0.061,436.076
104864,137616,5203,-0.033,1.006,0.336,-0.915,0.549,0.061,436.08
104864,137604,8316,-0.036,0.995,0.325,-0.061,1.829,-0.488,436.086
104859,137616,5203,-0.036,0.995,0.325,-0.061,1.829,-0.488,436.09
104859,137647,8315,-0.035,0.984,0.304,0.305,2.561,-1.098,436.096
104872,137616,5203,-0.035,0.984,0.304,0.305,2.561,-1.098,436.1
104872,137622,8311,-0.037,0.974,0.284,0.183,2.805,-1.098,436.106
104876,137616,5203,-0.041,0.975,0.268,0.183,2.805,-1.098,436.11
104876,137634,8320,-0.044,0.979,0.266,0.427,2.012,-0.366,436.116
104929,137616,5203,-0.044,0.978,0.275,0.427,2.012,-0.366,436.12
104929,137691,8326,-0.04,0.979,0.279,0.122,0.732,0.488,436.126
104951,137616,5203,-0.04,0.982,0.287,0.122,0.732,0.488,436.13
104951,137707,8326,-0.04,0.99,0.286,-0.183,-0.122,1.159,436.136
104992,137616,5203,-0.043,0.996,0.282,-0.183,-0.122,1.159,436.139
104992,137716,8332,-0.043,1.006,0.291,-0.061,-0.854,1.829,436.146
105018,137616,5203,-0.041,1.021,0.307,-0.061,-0.854,1.829,436.149
105018,137724,8347,-0.036,1.018,0.322,-1.098,-1.037,2.195,436.156
105036,137872,5203,-0.034,1.013,0.32,-1.098,-1.037,2.195,436.159
105036,137749,8338,-0.038,1.013,0.316,-1.22,-0.976,1.585,436.165
104974,137616,5203,-0.04,1.023,0.316,-1.22,-0.976,1.585,436.169
104974,137726,8324,-0.04,1.032,0.32,0.183,-0.305,0.61,436.175
104946,137616,5203,-0.04,1.028,0.319,0.183,-0.305,0.61,436.179
104946,137657,8314,-0.042,1.015,0.315,0.671,0.427,-0.488,436.185
104889,137616,5203,-0.039,1.001,0.312,0.671,0.427,-0.488,436.189
104889,137657,8309,-0.042,0.996,0.305,0,0.61,-0.854,436.195
104870,137616,5203,-0.036,0.996,0.303,0,0.61,-0.854,436.199
104870,137621,8323,-0.032,1,0.305,0.366,0.732,-0.671,436.205
104878,137616,5203,-0.032,1,0.303,0.366,0.732,-0.671,436.209
104878,137635,8315,-0.032,0.995,0.307,0.793,0.854,-0.671,436.215
104851,137616,5203,-0.033,0.996,0.305,0.793,0.854,-0.671,436.219
104851,137607,8314,-0.033,0.988,0.3,0.183,0.671,-0.488,436.225
104824,137616,5203,-0.03,0.982,0.292,0.183,0.671,-0.488,436.229
104824,137584,8307,-0.037,0.981,0.289,-0.244,0.244,-0.122,436.235
104809,137616,5203,-0.037,0.979,0.297,-0.244,0.244,-0.122,436.238
104809,137577,8311,-0.037,0.984,0.3,-0.549,-0.549,0.671,436.245
104781,137616,5203,-0.032,0.99,0.306,-0.549,-0.549,0.671,436.248
104781,137589,8304,-0.034,0.995,0.315,-0.793,-0.549,0.793,436.254
104770,137616,5203,-0.036,1.006,0.317,-0.793,-0.549,0.793,436.258
104770,137551,8303,-0.036,1.012,0.313,-0.854,-0.488,1.098,436.264
104749,137616,5203,-0.035,1.012,0.312,-0.854,-0.488,1.098,436.268
104749,137533,8299,-0.038,1.01,0.297,-0.671,-0.305,0.976,436.274
104773,137616,5203,-0.045,0.996,0.283,-0.671,-0.305,0.976,436.278
104773,137580,8317,-0.048,0.996,0.285,-0.854,-0.61,0.915,436.284
104863,137616,5203,-0.045,1.003,0.302,-0.854,-0.61,0.915,436.288
104863,137607,8320,-0.035,1.005,0.315,-0.854,-0.976,1.28,436.294
104912,137616,5203,-0.033,1.014,0.312,-0.854,-0.976,1.28,436.298
104912,137652,8323,-0.036,1.026,0.313,0.244,-0.488,0.915,436.304
104913,137616,5203,-0.034,1.037,0.323,0.244,-0.488,0.915,436.308
104913,137644,8332,-0.029,1.032,0.328,0.915,0.427,0.183,436.314
105001,137616,5203,-0.036,1.017,0.317,0.915,0.427,0.183,436.318
105001,137695,8329,-0.034,1,0.307,0.061,0.915,-0.427,436.324
105049,137872,5203,-0.036,0.985,0.307,0.061,0.915,-0.427,436.328
105049,137738,8325,-0.034,0.981,0.309,-0.671,0.671,-0.61,436.334
105051,137872,5203,-0.032,0.988,0.313,-0.671,0.671,-0.61,436.337
105051,137738,8328,-0.03,0.994,0.315,0.366,0.854,-0.366,436.344
105003,137616,5203,-0.031,0.997,0.314,0.366,0.854,-0.366,436.347
105003,137725,8335,-0.032,0.999,0.308,0.915,1.098,-0.427,436.353
104970,137616,5203,-0.032,0.998,0.312,0.915,1.098,-0.427,436.357
104970,137695,8331,-0.032,0.996,0.321,0.549,1.22,-0.305,436.363
104966,137616,5203,-0.03,0.989,0.318,0.549,1.22,-0.305,436.367
104966,137675,8319,-0.032,0.982,0.311,-0.183,0.976,0.183,436.373
104925,137616,5203,-0.034,0.98,0.301,-0.183,0.976,0.183,436.377
104925,137679,8320,-0.038,0.983,0.297,-0.427,0.793,0.732,436.383
104916,137616,5203,-0.043,0.993,0.301,-0.427,0.793,0.732,436.387
104916,137687,8316,-0.042,0.996,0.297,-0.183,0.61,1.28,436.393
104919,137616,5203,-0.04,1,0.288,-0.183,0.61,1.28,436.397
104919,137652,8318,-0.04,1.001,0.284,-0.671,0.244,1.524,436.403
104851,137616,5203,-0.046,1.009,0.28,-0.671,0.244,1.524,436.407
104851,137590,8296,-0.046,1.015,0.28,-1.098,-0.305,1.463,436.413
104859,137616,5203,-0.043,1.015,0.283,-1.098,-0.305,1.463,436.417
104859,137610,8321,-0.043,1.015,0.285,-1.341,-0.732,1.159,436.423
104841,137616,5203,-0.039,1.014,0.294,-1.341,-0.732,1.159,436.426
104841,137613,8311,-0.037,1.009,0.312,-0.976,-0.854,0.976,436.433
104868,137616,5203,-0.038,1.014,0.312,-0.976,-0.854,0.976,436.436
104868,137612,8312,-0.037,1.022,0.323,0.061,-0.549,0.549,436.443
104906,137616,5203,-0.036,1.027,0.331,0.061,-0.549,0.549,436.446
104906,137656,8323,-0.033,1.023,0.347,1.28,0.366,-0.183,436.452
104937,137616,5203,-0.028,1.013,0.346,1.28,0.366,-0.183,436.456
104937,137663,8330,-0.028,1.002,0.335,1.098,1.22,-0.793,436.462
104941,137616,5203,-0.033,0.991,0.318,1.098,1.22,-0.793,436.466
104941,137681,8327,-0.038,0.985,0.306,0.183,1.524,-0.915,436.472
105002,137616,5203,-0.035,0.983,0.306,0.183,1.524,-0.915,436.476
105002,137704,8338,-0.033,0.979,0.313,0.061,1.463,-0.732,436.482
104957,137616,5203,-0.032,0.977,0.305,0.061,1.463,-0.732,436.486
104957,137703,8322,-0.032,0.98,0.295,0.488,1.22,-0.366,436.492
104948,137616,5203,-0.036,0.986,0.286,0.488,1.22,-0.366,436.496
104948,137674,8315,-0.038,0.996,0.286,0.61,0.915,0.122,436.502
104938,137616,5203,-0.039,1,0.291,0.61,0.915,0.122,436.506
104938,137673,8329,-0.037,0.994,0.3,-0.427,0.488,0.854,436.512
104934,137616,5203,-0.038,0.987,0.298,-0.427,0.488,0.854,436.516
104934,137660,8307,-0.038,0.988,0.3,-1.28,-0.183,1.402,436.522
104943,137616,5203,-0.04,0.995,0.301,-1.28,-0.183,1.402,436.525
104943,137648,8315,-0.043,1.005,0.294,-0.488,-0.488,1.707,436.532
104937,137616,5203,-0.043,1.005,0.294,-0.488,-0.488,1.707,436.535
104937,137633,8337,-0.043,1.015,0.306,-0.061,-0.488,1.585,436.542
104934,137616,5203,-0.043,1.015,0.306,-0.061,-0.488,1.585,436.545
104934,137661,8343,-0.038,1.004,0.322,-0.427,-0.366,1.159,436.551
105023,137616,5203,-0.038,1.004,0.322,-0.427,-0.366,1.159,436.555
105023,137725,8328,-0.037,1.014,0.308,0.244,0.244,0.488,436.561
105055,137872,5203,-0.037,1.014,0.308,0.244,0.244,0.488,436.565
105055,137747,8358,-0.037,1.02,0.314,0.976,0.976,-0.122,436.571
105084,137872,5203,-0.037,1.02,0.314,0.976,0.976,-0.122,436.575
105084,137734,8351,-0.03,0.996,0.313,0.976,1.22,-0.427,436.581
105075,137872,5203,-0.03,0.996,0.313,0.976,1.22,-0.427,436.585
105075,137741,8332,-0.034,0.99,0.302,1.098,1.037,-0.488,436.591
105055,137872,5203,-0.034,0.99,0.302,1.098,1.037,-0.488,436.595
105055,137745,8342,-0.033,1.003,0.293,1.829,0.976,-0.305,436.601
105097,137872,5203,-0.033,1.003,0.293,1.829,0.976,-0.305,436.605
105097,137772,8321,-0.034,0.991,0.309,1.89,0.671,-0.305,436.611
105099,137872,5203,-0.034,0.991,0.309,1.89,0.671,-0.305,436.615
105099,137775,8365,-0.038,0.995,0.3,1.341,0.122,0.183,436.621
105084,137872,5203,-0.038,0.995,0.3,1.341,0.122,0.183,436.624
105084,137779,8351,-0.04,1.004,0.304,1.159,-0.061,0.427,436.631
105082,137872,5203,-0.04,1.004,0.304,1.159,-0.061,0.427,436.634
105082,137770,8345,-0.04,0.992,0.303,0.549,-0.244,0.671,436.641
105049,137872,5203,-0.04,0.992,0.303,0.549,-0.244,0.671,436.644
105049,137734,8347,-0.035,0.993,0.301,-0.305,-0.305,0.793,436.65
105029,137616,5203,-0.035,0.993,0.301,-0.305,-0.305,0.793,436.654
105029,137709,8343,-0.047,0.999,0.304,-0.305,-0.366,0.976,436.66
105057,137872,5203,-0.047,0.999,0.304,-0.305,-0.366,0.976,436.664
105057,137745,8329,-0.029,1.02,0.292,-0.671,-0.244,0.976,436.67
105109,137872,5203,-0.029,1.02,0.292,-0.671,-0.244,0.976,436.674
105109,137763,8357,-0.034,1.004,0.304,-0.671,-0.244,0.976,436.68
105131,137872,5203,-0.042,0.998,0.31,-0.549,0,0.549,436.684
105131,137809,8350,-0.043,1.01,0.301,-0.549,0,0.549,436.69
105178,137872,5203,-0.035,1.016,0.306,-0.549,0,0.793,436.694
105178,137833,8364,-0.03,1.018,0.321,-0.549,0,0.793,436.7
105209,137872,5203,-0.03,1.024,0.32,0,0.732,0.366,436.704
105209,137864,8361,-0.03,1.023,0.32,0,0.732,0.366,436.71
105220,137872,5203,-0.032,1.02,0.32,0.244,1.159,0,436.714
105220,137863,8376,-0.031,1.012,0.315,0.244,1.159,0,436.72
105254,137872,5203,-0.029,0.998,0.314,0,1.585,-0.366,436.723
105254,137886,8366,-0.031,0.989,0.306,0,1.585,-0.366,436.73
105236,137872,5203,-0.035,0.988,0.3,-0.122,1.646,-0.549,436.733
105236,137874,8372,-0.035,0.988,0.296,-0.122,1.646,-0.549,436.74
105267,137872,5203,-0.035,0.988,0.296,-0.061,1.28,-0.305,436.743
105267,137915,8373,-0.037,0.99,0.296,-0.061,1.28,-0.305,436.749
105298,137872,5203,-0.038,0.989,0.293,0.183,0.915,-0.122,436.753
105298,137896,8387,-0.042,0.985,0.28,0.183,0.915,-0.122,436.759
105285,137872,5203,-0.043,0.987,0.268,-0.183,0.061,0.366,436.763
105285,137906,8366,-0.039,0.989,0.285,-0.183,0.061,0.366,436.769
105278,137872,5203,-0.037,0.985,0.3,-0.488,-0.793,0.915,436.773
105278,137877,8368,-0.038,0.991,0.302,-0.488,-0.793,0.915,436.779
105243,137872,5203,-0.041,1.003,0.303,-0.793,-1.159,1.463,436.783
105243,137876,8357,-0.039,1.014,0.312,-0.793,-1.159,1.463,436.789
105201,137872,5203,-0.036,1.022,0.324,-0.366,-0.793,1.22,436.793
105201,137862,8361,-0.036,1.024,0.335,-0.366,-0.793,1.22,436.799
105187,137872,5203,-0.037,1.011,0.328,-0.305,0.122,0.732,436.803
105187,137836,8355,-0.041,1.009,0.305,-0.305,0.122,0.732,436.809
105217,137872,5203,-0.042,1.007,0.303,-1.159,0.488,0.305,436.812
105217,137870,8363,-0.036,0.995,0.31,-1.159,0.488,0.305,436.819
105231,137872,5203,-0.037,0.996,0.305,-1.037,0.671,0.244,436.822
105231,137856,8358,-0.039,0.997,0.299,-1.037,0.671,0.244,436.829
105235,137872,5203,-0.042,0.997,0.287,-0.61,0.732,0.122,436.832
105235,137893,8359,-0.038,0.996,0.283,-0.61,0.732,0.122,436.838
105288,137872,5203,-0.037,1.001,0.289,0.427,0.549,-0.427,436.842
105288,137922,8391,-0.03,1.005,0.3,0.427,0.549,-0.427,436.848
105304,137872,5203,-0.031,1.002,0.304,1.159,0.061,-0.427,436.852
105304,137900,8378,-0.038,0.997,0.292,1.159,0.061,-0.427,436.858
105298,137872,5203,-0.036,0.998,0.288,1.585,-0.61,-0.305,436.862
105298,137905,8370,-0.032,1.006,0.296,1.585,-0.61,-0.305,436.868
105282,137872,5203,-0.03,1.009,0.302,2.012,-1.037,-0.549,436.872
105282,137938,8382,-0.029,1.011,0.301,2.012,-1.037,-0.549,436.878
105305,137872,5203,-0.034,1.012,0.301,2.073,-1.098,-0.488,436.882
105305,137943,8378,-0.036,1.009,0.307,2.073,-1.098,-0.488,436.888
105315,137872,5203,-0.034,1.013,0.31,1.951,-1.037,-0.305,436.892
105315,137941,8377,-0.035,1.01,0.312,1.951,-1.037,-0.305,436.898
105317,137872,5203,-0.039,0.994,0.315,1.402,-0.732,-0.305,436.902
105317,137937,8377,-0.038,0.998,0.322,1.402,-0.732,-0.305,436.908
105331,137872,5203,-0.039,1.007,0.324,0.244,-0.244,-0.366,436.911
105331,137944,8388,-0.035,1.002,0.327,0.244,-0.244,-0.366,436.918
105354,137872,5203,-0.031,0.99,0.33,-0.427,0.305,-0.671,436.921
105354,137969,8387,-0.031,0.998,0.335,-0.427,0.305,-0.671,436.928
105390,137872,5203,-0.032,0.999,0.328,-0.183,0.793,-0.366,436.931
105390,137952,8384,-0.034,0.99,0.323,-0.183,0.793,-0.366,436.937
105394,137872,5203,-0.038,0.981,0.318,-0.244,1.341,0.061,436.941
105394,137978,8385,-0.038,0.983,0.312,-0.244,1.341,0.061,436.947
105415,138128,5203,-0.039,0.984,0.297,-0.793,1.585,0.61,436.951
105415,137991,8398,-0.04,0.986,0.289,-0.793,1.585,0.61,436.957
105435,137872,5203,-0.045,0.986,0.285,-0.793,1.341,0.976,436.961
105435,137976,8408,-0.044,0.991,0.28,-0.793,1.341,0.976,436.967
105436,138128,5203,-0.04,1,0.281,-0.488,1.037,0.915,436.971
105436,138000,8387,-0.038,1.003,0.284,-0.488,1.037,0.915,436.977
105389,137872,5203,-0.037,1.005,0.29,-0.488,0.549,0.976,436.981
105389,137950,8383,-0.039,1.009,0.299,-0.488,0.549,0.976,436.987
105349,137872,5203,-0.037,1.01,0.301,-0.976,0.183,1.22,436.991
105349,137918,8381,-0.036,1.005,0.302,-0.976,0.183,1.22,436.997
105301,137872,5203,-0.034,1.006,0.302,-1.037,0.061,1.22,437.001
105301,137894,8370,-0.034,1.011,0.305,-1.037,0.061,1.22,437.007
105295,137872,5203,-0.036,1.016,0.312,-0.488,0.122,1.037,437.01
105295,137885,8380,-0.032,1.016,0.312,-0.488,0.122,1.037,437.017
105276,137872,5203,-0.034,1.017,0.318,-0.183,0.427,0.549,437.02
105276,137879,8376,-0.039,1.018,0.315,-0.183,0.427,0.549,437.027
105267,137872,5203,-0.036,1.011,0.314,-0.061,0.793,0.061,437.03
105267,137872,8378,-0.034,1.001,0.312,-0.061,0.793,0.061,437.036
105302,137872,5203,-0.036,0.997,0.297,-0.366,1.341,-0.305,437.04
105302,137877,8389,-0.038,0.997,0.29,-0.366,1.341,-0.305,437.046
105295,137872,5203,-0.04,0.993,0.286,-0.183,0.915,-0.244,437.05
105295,137904,8378,-0.043,0.989,0.277,-0.183,0.915,-0.244,437.056
105304,137872,5203,-0.047,0.987,0.266,-0.549,-0.061,0,437.06
105304,137932,8381,-0.048,0.982,0.26,-0.549,-0.061,0,437.066
105318,137872,5203,-0.047,0.981,0.258,-1.402,-1.829,0.549,437.07
105318,137899,8384,-0.043,0.987,0.26,-1.402,-1.829,0.549,437.076
105308,137872,5203,-0.044,0.991,0.274,-1.463,-3.415,1.22,437.08
105308,137900,8381,-0.041,0.998,0.289,-1.463,-3.415,1.22,437.086
105340,137872,5203,-0.034,1.009,0.307,-0.915,-3.963,1.646,437.09
105340,137942,8385,-0.03,1.02,0.33,-0.915,-3.963,1.646,437.096
105335,137872,5203,-0.03,1.025,0.34,-0.183,-3.11,1.463,437.1
105335,137908,8386,-0.033,1.021,0.33,-0.183,-3.11,1.463,437.106
105341,137872,5203,-0.033,1.021,0.33,-0.183,-3.11,1.463,437.109
105341,137913,8396,-0.027,1.015,0.367,0.122,-1.707,0.976,437.116
105296,137872,5203,-0.027,1.015,0.367,0.122,-1.707,0.976,437.119
105296,137905,8374,-0.022,0.996,0.368,-0.244,-0.427,0.793,437.126
105265,137872,5203,-0.022,0.996,0.368,-0.244,-0.427,0.793,437.129
105265,137853,8369,-0.032,0.997,0.334,-0.244,1.402,0.183,437.135
105311,137872,5203,-0.032,0.997,0.334,-0.244,1.402,0.183,437.139
105311,137896,8378,-0.032,1.015,0.314,0.488,3.049,-0.427,437.145
105292,137872,5203,-0.032,1.015,0.314,0.488,3.049,-0.427,437.149
105292,137884,8385,-0.036,0.988,0.288,0.366,3.78,-0.915,437.155
105308,137872,5203,-0.036,0.988,0.288,0.366,3.78,-0.915,437.159
105308,137895,8377,-0.041,0.976,0.25,-0.793,3.171,-0.854,437.165
105339,137872,5203,-0.041,0.976,0.25,-0.793,3.171,-0.854,437.169
105339,137900,8385,-0.049,0.977,0.234,-0.976,1.829,-0.061,437.175
105334,137872,5203,-0.049,0.977,0.234,-0.976,1.829,-0.061,437.179
105334,137937,8376,-0.039,1.007,0.265,-0.732,-0.244,1.159,437.185
105329,137872,5203,-0.039,1.007,0.265,-0.732,-0.244,1.159,437.189
105329,137898,8377,-0.039,1.018,0.294,-0.732,-1.89,2.012,437.195
105290,137872,5203,-0.039,1.018,0.294,-0.732,-1.89,2.012,437.199
105290,137862,8378,-0.036,1.032,0.332,-0.427,-2.5,2.195,437.205
105246,137872,5203,-0.036,1.032,0.332,-0.427,-2.5,2.195,437.208
105246,137852,8385,-0.039,1.034,0.347,-0.122,-1.951,1.646,437.215
105225,137872,5203,-0.039,1.034,0.347,-0.122,-1.951,1.646,437.218
105225,137806,8361,-0.037,1.012,0.35,-0.305,-0.488,0.427,437.224
105193,137872,5203,-0.037,1.012,0.35,-0.305,-0.488,0.427,437.228
105193,137807,8350,-0.035,0.995,0.333,-0.488,0.793,-0.366,437.234
105208,137872,5203,-0.035,0.995,0.333,-0.488,0.793,-0.366,437.238
105208,137832,8365,-0.034,0.993,0.32,0.183,2.012,-1.159,437.244
105200,137872,5203,-0.034,0.993,0.32,0.183,2.012,-1.159,437.248
105200,137788,8373,-0.034,0.992,0.311,1.463,3.049,-1.89,437.254
105202,137872,5203,-0.033,0.989,0.299,1.463,3.049,-1.89,437.258
105202,137803,8369,-0.031,0.983,0.292,1.585,3.049,-1.768,437.264
105201,137872,5203,-0.03,0.976,0.281,1.585,3.049,-1.768,437.268
105201,137832,8364,-0.031,0.972,0.281,0.854,2.378,-1.098,437.274
105208,137872,5203,-0.029,0.971,0.286,0.854,2.378,-1.098,437.278
105208,137854,8378,-0.035,0.97,0.289,0.061,1.098,0.366,437.284
105240,137872,5203,-0.033,0.98,0.29,0.061,1.098,0.366,437.288
105240,137854,8374,-0.035,0.987,0.29,-0.488,0.305,1.524,437.294
105233,137872,5203,-0.039,0.988,0.29,-0.488,0.305,1.524,437.298
105233,137846,8368,-0.042,0.998,0.293,-0.305,-0.427,2.195,437.304
105222,137872,5203,-0.04,1.022,0.297,-0.305,-0.427,2.195,437.307
105222,137836,8369,-0.037,1.025,0.311,-0.793,-0.976,2.5,437.314
105186,137872,5203,-0.039,1.019,0.316,-0.793,-0.976,2.5,437.317
105186,137839,8352,-0.041,1.021,0.312,-1.098,-0.61,2.317,437.323
105165,137872,5203,-0.044,1.024,0.317,-1.098,-0.61,2.317,437.327
105165,137787,8370,-0.041,1.022,0.318,-0.671,0.183,1.402,437.333
105230,137872,5203,-0.039,1.025,0.324,-0.671,0.183,1.402,437.337
105230,137859,8362,-0.037,1.021,0.332,0.549,1.341,0.244,437.343
105384,137872,5203,-0.034,1.015,0.329,0.549,1.341,0.244,437.347
105384,137951,8390,-0.035,1.01,0.323,0.61,2.134,-0.366,437.353
105550,138128,5203,-0.033,1.01,0.315,0.61,2.134,-0.366,437.357
105550,138083,8415,-0.031,1.005,0.308,0.549,2.927,-0.976,437.363
105628,138128,5203,-0.029,1.002,0.303,0.549,2.927,-0.976,437.367
105628,138135,8417,-0.029,0.999,0.294,0.732,3.232,-1.524,437.373
105615,138128,5203,-0.029,0.995,0.292,0.732,3.232,-1.524,437.377
105615,138107,8429,-0.034,0.986,0.284,0.549,2.683,-1.28,437.383
105618,138128,5203,-0.033,0.981,0.275,0.549,2.683,-1.28,437.387
105618,138087,8413,-0.033,0.983,0.271,0.305,1.646,-0.61,437.393
105490,138128,5203,-0.036,0.988,0.272,0.305,1.646,-0.61,437.396
105490,137993,8398,-0.038,0.986,0.285,-0.366,0.366,0.549,437.403
105374,137872,5203,-0.037,0.99,0.289,-0.366,0.366,0.549,437.406
105374,137926,8393,-0.04,0.991,0.285,-0.915,-0.366,1.22,437.413
105283,137872,5203,-0.043,0.991,0.287,-0.915,-0.366,1.22,437.416
105283,137869,8371,-0.044,0.996,0.295,-0.915,-0.854,1.707,437.422
105154,137872,5203,-0.046,0.999,0.301,-0.915,-0.854,1.707,437.426
105154,137779,8359,-0.046,0.995,0.305,-1.037,-1.159,1.829,437.432
105090,137616,5203,-0.045,0.997,0.313,-1.037,-1.159,1.829,437.436
105090,137705,8352,-0.044,1.007,0.323,-0.915,-1.037,1.585,437.442
105076,137616,5203,-0.043,1.014,0.333,-0.915,-1.037,1.585,437.446
105076,137710,8360,-0.041,1.017,0.324,-0.061,-0.366,0.976,437.452
105110,137872,5203,-0.041,1.018,0.306,-0.061,-0.366,0.976,437.456
105110,137732,8356,-0.041,1.017,0.302,0.305,0.305,0.122,437.462
105059,137616,5203,-0.037,1.015,0.301,0.305,0.305,0.122,437.466
105059,137686,8352,-0.038,1.013,0.301,0.061,0.488,-0.427,437.472
105064,137616,5203,-0.031,1.005,0.299,0.061,0.488,-0.427,437.476
105064,137689,8331,-0.03,0.997,0.291,-0.244,0.305,-0.549,437.482
105076,137616,5203,-0.031,1,0.285,-0.244,0.305,-0.549,437.486
105076,137681,8348,-0.032,1.008,0.289,0.549,0.122,-0.488,437.492
105115,137616,5203,-0.029,1.01,0.294,0.549,0.122,-0.488,437.495
105115,137725,8355,-0.031,1.001,0.3,1.159,-0.122,-0.366,437.502
105140,137872,5203,-0.031,0.991,0.307,1.159,-0.122,-0.366,437.505
105140,137770,8354,-0.034,0.998,0.312,0.61,-0.427,-0.061,437.512
105179,137872,5203,-0.032,1.011,0.313,0.61,-0.427,-0.061,437.515
105179,137785,8346,-0.028,1.012,0.318,0.427,-0.488,0.488,437.521
105161,137872,5203,-0.032,1.007,0.319,0.427,-0.488,0.488,437.525
105161,137776,8370,-0.036,1.003,0.322,0.671,0,0.366,437.531
105157,137872,5203,-0.036,1.003,0.317,0.671,0,0.366,437.535
105157,137740,8361,-0.036,0.998,0.314,0.061,0.244,0.305,437.541
105115,137872,5203,-0.033,0.984,0.309,0.061,0.244,0.305,437.545
105115,137744,8354,-0.037,0.979,0.309,-0.183,0.61,0.183,437.551
105101,137872,5203,-0.039,0.985,0.303,-0.183,0.61,0.183,437.555
105101,137739,8357,-0.036,0.989,0.305,0.183,0.671,0.305,437.561
105090,137616,5203,-0.036,0.993,0.314,0.183,0.671,0.305,437.565
105090,137697,8342,-0.033,0.998,0.321,0.427,0.793,0.244,437.571
105117,137872,5203,-0.031,1.004,0.32,0.427,0.793,0.244,437.575
105117,137747,8365,-0.032,1.002,0.306,0,1.159,0.427,437.581
105190,137872,5203,-0.033,1.003,0.298,0,1.159,0.427,437.585
105190,137812,8363,-0.033,1.005,0.302,0,1.341,0.671,437.591
105276,137872,5203,-0.032,1.007,0.311,0,1.341,0.671,437.594
105276,137854,8383,-0.033,1.003,0.307,-0.122,1.524,0.61,437.601
105332,137872,5203,-0.034,1.001,0.303,-0.122,1.524,0.61,437.604
105332,137922,8397,-0.036,1.003,0.299,0.061,1.463,0.61,437.611
105309,137872,5203,-0.035,1.008,0.302,0.061,1.463,0.61,437.614
105309,137903,8368,-0.038,1.015,0.299,0.244,1.524,0.549,437.62
105250,137872,5203,-0.04,1.017,0.295,0.244,1.524,0.549,437.624
105250,137836,8369,-0.041,1.008,0.292,0.244,1.402,0.244,437.63
105172,137872,5203,-0.04,1.002,0.293,0.244,1.402,0.244,437.634
105172,137793,8346,-0.039,1,0.289,-0.061,1.098,-0.122,437.64
105096,137872,5203,-0.04,0.998,0.288,-0.061,1.098,-0.122,437.644
105096,137729,8350,-0.038,0.998,0.286,-0.244,0.671,0.122,437.65
105022,137616,5203,-0.04,0.998,0.285,-0.244,0.671,0.122,437.654
105022,137685,8330,-0.043,1.001,0.287,0.122,0.366,0.244,437.66
105034,137616,5203,-0.04,1.013,0.286,0.122,0.366,0.244,437.664
105034,137684,8346,-0.037,1.011,0.296,0.671,0,0.122,437.67
105001,137616,5203,-0.037,1.009,0.303,0.671,0,0.122,437.674
105001,137696,8339,-0.039,1.013,0.305,0.549,-0.061,0,437.68
105019,137616,5203,-0.039,1.013,0.305,0.549,-0.061,0,437.684
105019,137693,8333,-0.038,0.996,0.302,-0.305,-0.183,-0.061,437.69
105047,137616,5203,-0.038,0.996,0.302,-0.305,-0.183,-0.061,437.693
105047,137707,8336,-0.038,0.988,0.29,-0.244,-0.366,0,437.7
105041,137616,5203,-0.038,0.988,0.29,-0.244,-0.366,0,437.703
105041,137705,8346,-0.033,0.999,0.306,0.244,-0.61,0.122,437.71
105051,137616,5203,-0.033,0.999,0.306,0.244,-0.61,0.122,437.713
105051,137714,8339,-0.036,1.01,0.308,0.305,-0.671,0.061,437.719
105042,137616,5203,-0.036,1.01,0.308,0.305,-0.671,0.061,437.723
105042,137705,8340,-0.039,1.006,0.302,-0.366,-0.732,-0.183,437.729
105034,137616,5203,-0.039,1.006,0.302,-0.366,-0.732,-0.183,437.733
105034,137695,8341,-0.044,0.991,0.298,-0.671,-0.732,-0.244,437.739
105029,137616,5203,-0.044,0.991,0.298,-0.671,-0.732,-0.244,437.743
105029,137699,8329,-0.039,0.987,0.289,-0.793,-1.159,0.122,437.749
105000,137616,5203,-0.039,0.987,0.289,-0.793,-1.159,0.122,437.753
105000,137677,8361,-0.039,1.009,0.304,-0.366,-1.585,0.427,437.759
105025,137616,5203,-0.039,1.009,0.304,-0.366,-1.585,0.427,437.763
105025,137701,8337,-0.036,1.02,0.312,0.305,-1.524,0.366,437.769
105033,137616,5203,-0.036,1.02,0.312,0.305,-1.524,0.366,437.773
105033,137677,8346,-0.036,1.02,0.313,0,-0.976,-0.122,437.779
105021,137616,5203,-0.036,1.02,0.313,0,-0.976,-0.122,437.783
105021,137664,8337,-0.035,1.003,0.322,-0.671,-0.305,-0.488,437.789
105022,137616,5203,-0.035,1.003,0.322,-0.671,-0.305,-0.488,437.792
105022,137684,8347,-0.034,0.986,0.333,-0.488,0.122,-0.427,437.799
105017,137616,5203,-0.034,0.986,0.333,-0.488,0.122,-0.427,437.802
105017,137693,8346,-0.035,1.001,0.309,0.244,0.427,-0.305,437.808
105045,137616,5203,-0.035,1.001,0.309,0.244,0.427,-0.305,437.812
105045,137686,8350,-0.032,1.011,0.295,0.488,0.366,-0.488,437.818
105039,137616,5203,-0.032,1.011,0.295,0.488,0.366,-0.488,437.822
105039,137695,8336,-0.033,0.998,0.301,0.488,0.366,-0.488,437.828
105039,137616,5203,-0.034,0.988,0.298,-0.183,0,-0.427,437.832
105039,137712,8363,-0.037,0.981,0.296,-0.183,0,-0.427,437.838
105053,137616,5203,-0.036,0.981,0.293,-0.671,-0.366,-0.122,437.842
105053,137707,8347,-0.036,0.99,0.296,-0.671,-0.366,-0.122,437.848
105019,137616,5203,-0.034,0.996,0.303,0.244,-0.366,0.183,437.852
105019,137677,8342,-0.037,0.999,0.313,0.244,-0.366,0.183,437.858
105022,137616,5203,-0.036,1,0.322,0.488,-0.183,0.671,437.862
105022,137687,8350,-0.034,1.002,0.328,0.488,-0.183,0.671,437.868
104990,137616,5203,-0.031,1.003,0.33,-0.427,0.427,0.671,437.872
104990,137645,8348,-0.032,1.004,0.336,-0.427,0.427,0.671,437.878
104973,137616,5203,-0.032,1.013,0.328,-0.61,1.28,0.61,437.882
104973,137659,8336,-0.031,1.011,0.315,-0.61,1.28,0.61,437.888
104978,137616,5203,-0.036,0.999,0.305,-0.366,2.012,0.366,437.891
104978,137681,8338,-0.039,0.993,0.292,-0.366,2.012,0.366,437.898
104961,137616,5203,-0.042,0.991,0.289,0.183,2.012,0.488,437.901
104961,137651,8336,-0.04,0.991,0.295,0.183,2.012,0.488,437.907
104999,137616,5203,-0.039,0.988,0.29,0.244,1.524,0.671,437.911
104999,137666,8339,-0.04,0.992,0.289,0.244,1.524,0.671,437.917
105016,137616,5203,-0.04,0.997,0.288,0.366,1.098,0.915,437.921
105016,137686,8346,-0.043,1.008,0.295,0.366,1.098,0.915,437.927
105028,137616,5203,-0.041,1.016,0.303,0.488,0.976,0.671,437.931
105028,137698,8345,-0.042,1.022,0.297,0.488,0.976,0.671,437.937
105020,137616,5203,-0.041,1.022,0.297,0.305,0.976,0.183,437.941
105020,137705,8333,-0.043,1.007,0.302,0.305,0.976,0.183,437.947
105038,137616,5203,-0.043,1.002,0.305,0.427,0.793,0,437.951
105038,137711,8344,-0.043,1.003,0.31,0.427,0.793,0,437.957
105038,137616,5203,-0.041,1.004,0.314,0.305,0.671,0.244,437.961
105038,137701,8364,-0.036,1.005,0.308,0.305,0.671,0.244,437.967
105081,137872,5203,-0.04,1.007,0.299,0.244,1.22,-0.061,437.971
105081,137760,8348,-0.041,1.009,0.297,0.244,1.22,-0.061,437.977
105091,137872,5203,-0.041,1.005,0.3,0.183,1.463,-0.122,437.98
105091,137765,8345,-0.04,1.003,0.297,0.183,1.463,-0.122,437.987
105105,137872,5203,-0.036,0.998,0.294,-0.244,1.22,-0.122,437.99
105105,137764,8344,-0.038,0.995,0.284,-0.244,1.22,-0.122,437.997
105112,137872,5203,-0.037,0.988,0.281,-0.61,0.915,-0.061,438
105112,137781,8347,-0.041,0.992,0.286,-0.61,0.915,-0.061,438.006
105132,137872,5203,-0.041,1,0.285,-0.244,0.305,0.305,438.01
105132,137767,8354,-0.038,0.999,0.283,-0.244,0.305,0.305,438.016
105150,137872,5203,-0.039,0.991,0.285,0.366,-0.122,0.488,438.02
105150,137811,8354,-0.041,0.998,0.29,0.366,-0.122,0.488,438.026
105170,137872,5203,-0.042,1.005,0.299,0.61,-0.793,0.671,438.03
105170,137799,8354,-0.04,1.009,0.313,0.61,-0.793,0.671,438.036
105168,137872,5203,-0.037,1.009,0.319,0.549,-0.793,0.854,438.04
105168,137793,8369,-0.039,1.003,0.316,0.549,-0.793,0.854,438.046
105182,137872,5203,-0.04,1.008,0.312,0.244,-0.427,0.488,438.05
105182,137815,8363,-0.041,1.015,0.312,0.244,-0.427,0.488,438.056
105166,137872,5203,-0.038,1.009,0.312,-0.549,-0.061,0.305,438.06
105166,137784,8347,-0.035,1,0.31,-0.549,-0.061,0.305,438.066
105144,137872,5203,-0.038,0.994,0.306,-0.793,0.183,-0.061,438.07
105144,137804,8349,-0.039,0.993,0.299,-0.793,0.183,-0.061,438.076
105125,137872,5203,-0.037,0.999,0.297,-0.122,0.122,-0.122,438.079
105125,137760,8354,-0.036,1,0.302,-0.122,0.122,-0.122,438.086
105151,137872,5203,-0.038,0.996,0.307,0.366,0.061,-0.183,438.089
105151,137793,8353,-0.036,0.994,0.301,0.366,0.061,-0.183,438.096
105215,137872,5203,-0.038,0.99,0.29,0.244,-0.122,-0.061,438.099
105215,137842,8357,-0.038,0.998,0.292,0.244,-0.122,-0.061,438.105
105241,137872,5203,-0.036,1.009,0.302,0.061,-0.488,0.244,438.109
105241,137870,8371,-0.034,1.007,0.303,0.061,-0.488,0.244,438.115
105292,137872,5203,-0.031,1.003,0.31,0.244,-0.61,0.244,438.119
105292,137897,8372,-0.036,1.007,0.312,0.244,-0.61,0.244,438.125
105293,137872,5203,-0.038,1.014,0.306,0.244,-0.488,0.427,438.129
105293,137897,8379,-0.036,1.014,0.309,0.244,-0.488,0.427,438.135
105273,137872,5203,-0.032,1.003,0.311,0.183,-0.061,0.183,438.139
105273,137880,8367,-0.037,0.998,0.309,0.183,-0.061,0.183,438.145
105193,137872,5203,-0.037,1.001,0.307,-0.061,0.061,0.122,438.149
105193,137824,8376,-0.037,0.997,0.307,-0.061,0.061,0.122,438.155
105154,137872,5203,-0.04,0.995,0.307,0.122,0.122,0.183,438.159
105154,137803,8360,-0.038,1.002,0.307,0.122,0.122,0.183,438.165
105171,137872,5203,-0.037,1.004,0.309,0.305,0.427,0.122,438.169
105171,137813,8354,-0.036,1.001,0.302,0.305,0.427,0.122,438.175
105187,137872,5203,-0.037,0.995,0.298,0.061,0.61,0.061,438.178
105187,137816,8343,-0.037,0.993,0.294,0.061,0.61,0.061,438.185
105169,137872,5203,-0.035,0.995,0.303,-0.244,0.305,0.244,438.188
105169,137848,8371,-0.032,1,0.307,-0.244,0.305,0.244,438.195
105193,137872,5203,-0.033,0.999,0.306,-0.244,0.549,0.549,438.198
105193,137827,8359,-0.033,1.007,0.31,-0.244,0.549,0.549,438.204
105169,137872,5203,-0.033,1.01,0.308,-0.183,0.671,0.671,438.208
105169,137801,8346,-0.032,1.012,0.308,-0.183,0.671,0.671,438.214
105143,137872,5203,-0.034,1.007,0.313,-0.488,0.793,0.549,438.218
105143,137804,8344,-0.034,1,0.312,-0.488,0.793,0.549,438.224
105143,137872,5203,-0.038,0.997,0.296,-0.732,1.037,0.488,438.228
105143,137786,8346,-0.044,0.992,0.281,-0.732,1.037,0.488,438.234
105097,137872,5203,-0.044,0.99,0.279,-1.037,0.549,0.61,438.238
105097,137763,8355,-0.043,0.986,0.285,-1.037,0.549,0.61,438.244
105109,137872,5203,-0.045,0.99,0.288,-0.793,-0.122,0.671,438.248
105109,137775,8342,-0.043,1.001,0.288,-0.793,-0.122,0.671,438.254
105063,137872,5203,-0.043,1.001,0.288,-0.793,-0.122,0.671,438.258
105063,137752,8350,-0.041,1.017,0.3,0.244,-0.549,0.732,438.264
105048,137616,5203,-0.041,1.017,0.3,0.244,-0.549,0.732,438.268
105048,137720,8339,-0.042,1.023,0.309,0.671,-0.488,0.366,438.274
105026,137872,5203,-0.042,1.023,0.309,0.671,-0.488,0.366,438.277
105026,137736,8344,-0.036,1.004,0.319,-0.122,-0.305,-0.122,438.284
105001,137616,5203,-0.036,1.004,0.319,-0.122,-0.305,-0.122,438.287
105001,137725,8341,-0.032,1.011,0.336,-0.671,0.061,-0.305,438.293
105021,137616,5203,-0.032,1.011,0.336,-0.671,0.061,-0.305,438.297
105021,137726,8327,-0.034,1.015,0.308,-0.305,0.732,-0.244,438.303
105065,137872,5203,-0.034,1.015,0.308,-0.305,0.732,-0.244,438.307
105065,137728,8326,-0.043,0.989,0.285,-0.671,1.22,-0.61,438.313
105056,137872,5203,-0.043,0.989,0.285,-0.671,1.22,-0.61,438.317
105056,137756,8336,-0.042,0.969,0.274,-1.402,0.732,-0.122,438.323
105071,137872,5203,-0.042,0.969,0.274,-1.402,0.732,-0.122,438.327
105071,137799,8334,-0.042,0.974,0.274,-1.463,-0.122,0.488,438.333
105093,137872,5203,-0.042,0.974,0.274,-1.463,-0.122,0.488,438.337
105093,137791,8343,-0.04,1.01,0.29,-0.366,-0.732,0.915,438.343
105104,137872,5203,-0.04,1.01,0.29,-0.366,-0.732,0.915,438.347
105104,137805,8351,-0.033,1.018,0.309,0.305,-0.976,1.037,438.353
105128,137872,5203,-0.033,1.018,0.309,0.305,-0.976,1.037,438.357
105128,137801,8344,-0.033,1,0.325,-0.427,-1.159,0.976,438.363
105100,137872,5203,-0.033,1,0.325,-0.427,-1.159,0.976,438.366
105100,137781,8360,-0.033,1.008,0.332,-0.976,-0.732,0.915,438.373
105096,137872,5203,-0.033,1.008,0.332,-0.976,-0.732,0.915,438.376
105096,137774,8346,-0.034,1.014,0.326,-0.427,0.244,0.793,438.383
105094,137872,5203,-0.034,1.014,0.326,-0.427,0.244,0.793,438.386
105094,137757,8332,-0.035,1.013,0.31,0.183,0.976,0.366,438.392
105070,137872,5203,-0.035,1.013,0.31,0.183,0.976,0.366,438.396
105070,137743,8347,-0.034,1.001,0.311,0,1.341,-0.305,438.402
105060,137872,5203,-0.036,0.992,0.302,0,1.341,-0.305,438.406
105060,137744,8355,-0.037,0.984,0.29,-0.183,1.28,-0.427,438.412
105078,137872,5203,-0.037,0.978,0.284,-0.183,1.28,-0.427,438.416
105078,137745,8362,-0.036,0.979,0.285,0.305,0.976,-0.244,438.422
105107,137872,5203,-0.037,0.993,0.29,0.305,0.976,-0.244,438.426
105107,137790,8343,-0.033,1.007,0.294,0.915,0.549,0.305,438.432
105099,137872,5203,-0.035,1.004,0.285,0.915,0.549,0.305,438.436
105099,137800,8357,-0.037,0.999,0.288,1.524,-0.061,0.366,438.442
