141443,155178,22412,0.025,-0.963,-0.05,-1.463,0.061,0.183,587.003
141443,155212,13410,0.023,-0.966,-0.048,-1.463,0.061,0.183,587.009
141428,155178,22412,0.026,-0.969,-0.049,-0.793,0.305,0.366,587.012
141428,155229,13419,0.027,-0.97,-0.047,-0.793,0.305,0.366,587.019
141426,155178,22412,0.024,-0.973,-0.046,-0.183,0.427,0.488,587.022
141426,155207,13417,0.026,-0.97,-0.043,-0.183,0.427,0.488,587.029
141391,155178,22412,0.023,-0.969,-0.039,0.366,0.427,0.61,587.032
141391,155201,13420,0.022,-0.967,-0.041,0.366,0.427,0.61,587.038
141399,155178,22412,0.023,-0.963,-0.044,-0.427,0.488,0.549,587.042
141399,155196,13407,0.025,-0.962,-0.042,-0.427,0.488,0.549,587.048
141379,155178,22412,0.024,-0.967,-0.045,-0.732,0.488,0.549,587.052
141379,155152,13392,0.023,-0.965,-0.039,-0.732,0.488,0.549,587.058
141334,154922,22412,0.024,-0.964,-0.04,-0.488,0.549,0.793,587.062
141334,155134,13418,0.022,-0.96,-0.049,-0.488,0.549,0.793,587.068
141356,155178,22412,0.023,-0.963,-0.047,-0.732,0.488,0.915,587.072
141356,155178,13400,0.024,-0.964,-0.04,-0.732,0.488,0.915,587.078
141361,155178,22412,0.024,-0.97,-0.038,-0.488,0.366,0.976,587.082
141361,155155,13404,0.021,-0.967,-0.038,-0.488,0.366,0.976,587.088
141337,155178,22412,0.02,-0.965,-0.049,-0.915,0.305,1.037,587.092
141337,155160,13398,0.021,-0.97,-0.049,-0.915,0.305,1.037,587.098
141343,155178,22412,0.022,-0.969,-0.046,-1.22,0.122,0.732,587.102
141343,155139,13403,0.023,-0.969,-0.051,-1.22,0.122,0.732,587.108
141328,154922,22412,0.025,-0.966,-0.048,-0.732,0.122,0.488,587.111
141328,155126,13394,0.022,-0.967,-0.049,-0.732,0.122,0.488,587.118
141297,154922,22412,0.02,-0.967,-0.047,0,0.427,0.488,587.121
141297,155105,13395,0.02,-0.969,-0.043,0,0.427,0.488,587.127
141272,154922,22412,0.022,-0.97,-0.041,0.305,0.427,0.427,587.131
141272,155107,13389,0.022,-0.964,-0.038,0.305,0.427,0.427,587.137
141261,154922,22412,0.025,-0.957,-0.035,0.061,0.183,0.305,587.141
141261,155075,13387,0.025,-0.957,-0.038,0.061,0.183,0.305,587.147
141213,154922,22412,0.022,-0.964,-0.038,-0.427,0.183,0.427,587.151
141213,155079,13382,0.02,-0.967,-0.041,-0.427,0.183,0.427,587.157
141214,154922,22412,0.021,-0.966,-0.044,-1.037,0.366,0.61,587.161
141214,155061,13379,0.02,-0.965,-0.045,-1.037,0.366,0.61,587.167
141225,154922,22412,0.02,-0.966,-0.046,-1.341,0.305,0.427,587.171
141225,155042,13374,0.02,-0.972,-0.048,-1.341,0.305,0.427,587.177
141214,154922,22412,0.022,-0.971,-0.052,-0.976,0.244,0.244,587.181
141214,155060,13381,0.021,-0.967,-0.051,-0.976,0.244,0.244,587.187
141224,154922,22412,0.022,-0.966,-0.051,-0.427,0.183,0.061,587.191
141224,155071,13373,0.021,-0.971,-0.047,-0.427,0.183,0.061,587.197
141225,154922,22412,0.02,-0.967,-0.047,0.427,0.244,-0.183,587.201
141225,155095,13388,0.022,-0.96,-0.038,0.427,0.244,-0.183,587.207
141237,154922,22412,0.023,-0.956,-0.036,0.427,0.122,-0.244,587.21
141237,155098,13394,0.026,-0.961,-0.04,0.427,0.122,-0.244,587.217
141234,154922,22412,0.024,-0.964,-0.034,-0.488,0.183,-0.061,587.22
141234,155096,13377,0.019,-0.964,-0.035,-0.488,0.183,-0.061,587.227
141250,154922,22412,0.021,-0.965,-0.041,-1.463,0.183,0.244,587.23
141250,155104,13395,0.022,-0.967,-0.048,-1.463,0.183,0.244,587.236
141250,154922,22412,0.023,-0.969,-0.052,-2.134,0.122,0.122,587.24
141250,155089,13382,0.024,-0.972,-0.049,-2.134,0.122,0.122,587.246
141231,154922,22412,0.027,-0.968,-0.05,-1.524,0.061,0.366,587.25
141231,155078,13398,0.028,-0.964,-0.056,-1.524,0.061,0.366,587.256
141267,154922,22412,0.025,-0.965,-0.054,-0.793,0.305,0.61,587.26
141267,155075,13388,0.026,-0.966,-0.052,-0.793,0.305,0.61,587.266
141226,154922,22412,0.022,-0.971,-0.045,0.183,0.427,0.915,587.27
141226,155064,13383,0.021,-0.968,-0.049,0.183,0.427,0.915,587.276
141234,154922,22412,0.022,-0.967,-0.047,0.366,0.488,0.854,587.28
141234,155080,13399,0.022,-0.964,-0.046,0.366,0.488,0.854,587.286
141216,154922,22412,0.023,-0.965,-0.047,0.488,0.671,0.61,587.29
141216,155054,13387,0.023,-0.964,-0.043,0.488,0.671,0.61,587.296
141236,154922,22412,0.025,-0.963,-0.042,0.61,0.549,0.671,587.299
141236,155052,13386,0.022,-0.958,-0.044,0.61,0.549,0.671,587.306
141196,154922,22412,0.02,-0.964,-0.04,0.305,0.61,0.732,587.309
141196,155060,13378,0.023,-0.965,-0.033,0.305,0.61,0.732,587.316
141218,154922,22412,0.021,-0.962,-0.036,-0.122,0.61,0.61,587.319
141218,155087,13367,0.022,-0.966,-0.047,-0.122,0.61,0.61,587.326
141206,154922,22412,0.023,-0.964,-0.047,-0.915,0.305,0.549,587.329
141206,155062,13378,0.022,-0.965,-0.046,-0.915,0.305,0.549,587.335
141233,154922,22412,0.019,-0.965,-0.048,-0.549,0.183,0.671,587.339
141233,155048,13370,0.021,-0.964,-0.047,-0.549,0.183,0.671,587.345
141193,154922,22412,0.02,-0.965,-0.04,-0.305,0.183,0.732,587.349
141193,155057,13370,0.021,-0.966,-0.039,-0.305,0.183,0.732,587.355
141191,154922,22412,0.019,-0.964,-0.044,-0.549,0.305,0.549,587.359
141191,155066,13391,0.02,-0.962,-0.045,-0.549,0.305,0.549,587.365
141204,154922,22412,0.021,-0.968,-0.051,-1.098,0.305,0.488,587.369
141204,155055,13359,0.018,-0.974,-0.05,-1.098,0.305,0.488,587.375
141182,154922,22412,0.02,-0.974,-0.048,-0.671,0.305,0.366,587.379
141182,155047,13382,0.021,-0.964,-0.044,-0.671,0.305,0.366,587.385
141196,154922,22412,0.021,-0.964,-0.044,-0.671,0.305,0.366,587.389
141196,155057,13361,0.025,-0.958,-0.046,-0.427,0.305,0.061,587.395
141191,154922,22412,0.025,-0.958,-0.046,-0.427,0.305,0.061,587.398
141191,155091,13383,0.017,-0.968,-0.044,-0.427,0.183,0,587.405
141196,154922,22412,0.017,-0.968,-0.044,-0.427,0.183,0,587.408
141196,155041,13374,0.02,-0.964,-0.062,-0.854,0.427,0.183,587.415
141168,154922,22412,0.02,-0.964,-0.062,-0.854,0.427,0.183,587.418
141168,155057,13384,0.028,-0.972,-0.067,-0.854,0.305,-0.061,587.424
141192,154922,22412,0.028,-0.972,-0.067,-0.854,0.305,-0.061,587.428
141192,155043,13367,0.023,-0.976,-0.057,1.159,0.488,-0.366,587.434
141153,154922,22412,0.023,-0.976,-0.057,1.159,0.488,-0.366,587.438
141153,155062,13361,0.022,-0.966,-0.055,2.927,0.854,0.061,587.444
141164,154922,22412,0.022,-0.966,-0.055,2.927,0.854,0.061,587.448
141164,155017,13377,0.026,-0.968,-0.049,3.72,0.793,-0.122,587.454
141139,154922,22412,0.026,-0.968,-0.049,3.72,0.793,-0.122,587.458
141139,155052,13382,0.029,-0.971,-0.052,4.451,0.732,-0.305,587.464
141139,154922,22412,0.029,-0.971,-0.052,4.451,0.732,-0.305,587.468
141139,155011,13368,0.025,-0.963,-0.041,4.878,0.732,0,587.474
141117,154922,22412,0.025,-0.963,-0.041,4.878,0.732,0,587.478
141117,155027,13362,0.017,-0.968,-0.041,5.549,0.915,0.61,587.484
141102,154922,22412,0.017,-0.968,-0.041,5.549,0.915,0.61,587.488
141102,154996,13352,0.021,-0.959,-0.036,5.366,1.098,0.854,587.494
141112,154922,22412,0.021,-0.959,-0.036,5.366,1.098,0.854,587.497
141112,155000,13367,0.027,-0.959,-0.035,5.061,0.915,0.793,587.504
141092,154922,22412,0.027,-0.959,-0.035,5.061,0.915,0.793,587.507
141092,154976,13373,0.021,-0.972,-0.047,4.634,1.402,1.098,587.514
141116,154922,22412,0.021,-0.972,-0.047,4.634,1.402,1.098,587.517
141116,155024,13380,0.019,-0.971,-0.028,4.817,2.256,1.463,587.523
141113,154922,22412,0.019,-0.971,-0.028,4.817,2.256,1.463,587.527
141113,155040,13365,0.021,-0.962,-0.023,5.366,2.134,1.159,587.533
141141,154922,22412,0.02,-0.956,-0.019,5.366,2.134,1.159,587.537
141141,155031,13377,0.018,-0.959,-0.022,4.451,1.707,0.671,587.543
141106,154922,22412,0.018,-0.964,-0.021,4.451,1.707,0.671,587.547
141106,155027,13382,0.02,-0.961,-0.016,2.927,1.463,0,587.553
141134,154922,22412,0.017,-0.955,-0.014,2.927,1.463,0,587.557
141134,155035,13386,0.017,-0.952,-0.017,0.976,0.793,-0.244,587.563
141129,154922,22412,0.021,-0.953,-0.019,0.976,0.793,-0.244,587.567
141129,155049,13377,0.022,-0.956,-0.027,-1.89,0.183,-0.488,587.573
141134,154922,22412,0.02,-0.961,-0.029,-1.89,0.183,-0.488,587.577
141134,155057,13391,0.023,-0.965,-0.029,-3.659,-0.122,-0.793,587.583
141153,154922,22412,0.025,-0.962,-0.032,-3.659,-0.122,-0.793,587.587
141153,155037,13372,0.027,-0.959,-0.039,-4.146,-0.366,-0.915,587.593
141154,154922,22412,0.028,-0.962,-0.037,-4.146,-0.366,-0.915,587.596
141154,155065,13354,0.023,-0.969,-0.036,-4.085,-0.488,-0.793,587.603
141206,154922,22412,0.024,-0.97,-0.041,-4.085,-0.488,-0.793,587.606
141206,155076,13383,0.026,-0.969,-0.047,-3.902,-0.488,-0.305,587.613
141207,154922,22412,0.026,-0.968,-0.043,-3.902,-0.488,-0.305,587.616
141207,155105,13402,0.023,-0.971,-0.046,-3.902,-0.549,0,587.622
141208,154922,22412,0.027,-0.969,-0.043,-3.902,-0.549,0,587.626
141208,155077,13380,0.028,-0.968,-0.043,-3.415,-0.427,0.244,587.632
141175,154922,22412,0.025,-0.966,-0.042,-3.415,-0.427,0.244,587.636
141175,155055,13389,0.025,-0.967,-0.048,-3.537,-0.183,0.671,587.642
141184,154922,22412,0.024,-0.965,-0.051,-3.537,-0.183,0.671,587.646
141184,155080,13390,0.027,-0.971,-0.055,-3.293,0.061,0.915,587.652
141190,154922,22412,0.027,-0.973,-0.053,-3.293,0.061,0.915,587.656
141190,155087,13399,0.026,-0.97,-0.049,-2.317,0.244,1.159,587.662
141164,154922,22412,0.025,-0.969,-0.043,-2.317,0.244,1.159,587.666
141164,155066,13376,0.023,-0.966,-0.042,-1.22,0.488,1.463,587.672
141145,154922,22412,0.023,-0.964,-0.045,-1.22,0.488,1.463,587.676
141145,155091,13388,0.023,-0.967,-0.047,-0.61,0.61,1.524,587.682
141161,154922,22412,0.022,-0.969,-0.047,-0.61,0.61,1.524,587.686
141161,155073,13378,0.024,-0.968,-0.046,-0.427,0.61,1.463,587.692
141192,154922,22412,0.022,-0.965,-0.039,-0.427,0.61,1.463,587.695
141192,155094,13394,0.019,-0.96,-0.043,-0.244,0.61,1.463,587.702
141186,154922,22412,0.016,-0.966,-0.051,-0.244,0.61,1.463,587.705
141186,155095,13399,0.018,-0.973,-0.047,0,0.671,1.22,587.712
141209,154922,22412,0.015,-0.972,-0.048,0,0.671,1.22,587.715
141209,155108,13402,0.016,-0.968,-0.046,0.427,0.671,0.732,587.721
141238,154922,22412,0.018,-0.968,-0.048,0.427,0.671,0.732,587.725
141238,155127,13401,0.02,-0.971,-0.044,0.854,0.488,0.122,587.731
141252,155178,22412,0.018,-0.968,-0.041,0.854,0.488,0.122,587.735
141252,155155,13413,0.021,-0.965,-0.037,1.341,0.427,-0.183,587.741
141319,155178,22412,0.022,-0.963,-0.043,1.341,0.427,-0.183,587.745
141319,155207,13422,0.02,-0.962,-0.042,1.28,0.305,-0.183,587.751
141359,155178,22412,0.021,-0.965,-0.041,1.28,0.305,-0.183,587.755
141359,155197,13436,0.019,-0.967,-0.036,1.585,0.366,-0.183,587.761
141402,155178,22412,0.021,-0.963,-0.039,1.585,0.366,-0.183,587.765
141402,155265,13438,0.023,-0.96,-0.034,1.524,0.244,-0.366,587.771
141430,155178,22412,0.024,-0.962,-0.028,1.524,0.244,-0.366,587.775
141430,155281,13431,0.02,-0.96,-0.034,0.854,0.122,-0.122,587.781
141480,155178,22412,0.019,-0.962,-0.041,0.854,0.122,-0.122,587.785
141480,155289,13438,0.02,-0.968,-0.044,-0.305,0.427,0,587.791
141547,155178,22412,0.021,-0.973,-0.041,-0.305,0.427,0,587.794
141547,155333,13468,0.02,-0.974,-0.039,-0.305,0.427,-0.183,587.801
141554,155178,22412,0.023,-0.967,-0.047,-0.305,0.427,-0.183,587.804
141554,155327,13461,0.025,-0.965,-0.047,0.061,0.244,-0.549,587.811
141555,155178,22412,0.026,-0.964,-0.044,0.061,0.244,-0.549,587.814
141555,155336,13463,0.025,-0.963,-0.041,0.732,0.427,-0.793,587.82
141566,155178,22412,0.024,-0.963,-0.033,0.732,0.427,-0.793,587.824
141566,155321,13469,0.023,-0.964,-0.035,0.671,0.427,-0.488,587.83
141574,155178,22412,0.022,-0.961,-0.032,0.671,0.427,-0.488,587.834
141574,155314,13458,0.023,-0.956,-0.028,-0.61,0.122,-0.305,587.84
141574,155178,22412,0.023,-0.961,-0.037,-0.61,0.122,-0.305,587.844
141574,155328,13481,0.024,-0.966,-0.039,-1.585,0,-0.244,587.85
141560,155178,22412,0.025,-0.969,-0.038,-1.585,0,-0.244,587.854
141560,155366,13474,0.028,-0.97,-0.04,-1.524,0,-0.183,587.86
141573,155178,22412,0.023,-0.971,-0.044,-1.524,0,-0.183,587.864
141573,155333,13462,0.025,-0.966,-0.043,-1.341,-0.061,0,587.87
141532,155178,22412,0.025,-0.968,-0.037,-1.341,-0.061,0,587.874
141532,155345,13453,0.028,-0.962,-0.035,-1.159,-0.122,0.183,587.88
141494,155178,22412,0.031,-0.96,-0.036,-1.159,-0.122,0.183,587.884
141494,155288,13461,0.028,-0.966,-0.042,-1.646,0,0.244,587.89
141488,155178,22412,0.023,-0.971,-0.041,-1.646,0,0.244,587.893
141488,155295,13447,0.02,-0.97,-0.039,-1.829,0.122,0.549,587.9
141434,155178,22412,0.021,-0.964,-0.043,-1.829,0.122,0.549,587.903
141434,155275,13435,0.025,-0.961,-0.051,-1.89,0.122,0.488,587.91
141418,155178,22412,0.029,-0.961,-0.058,-1.89,0.122,0.488,587.913
141418,155251,13438,0.028,-0.97,-0.048,-1.22,0.244,0.366,587.919
141369,155178,22412,0.026,-0.974,-0.044,-1.22,0.244,0.366,587.923
141369,155237,13446,0.022,-0.969,-0.045,0,0.915,1.037,587.929
141377,155178,22412,0.022,-0.96,-0.048,0,0.915,1.037,587.933
141377,155244,13440,0.024,-0.959,-0.044,-0.061,1.098,1.28,587.939
141349,155178,22412,0.025,-0.963,-0.039,-0.061,1.098,1.28,587.943
141349,155233,13444,0.027,-0.968,-0.044,0.122,0.976,1.22,587.949
141339,155178,22412,0.026,-0.971,-0.049,0.122,0.976,1.22,587.953
141339,155210,13440,0.021,-0.969,-0.047,0.488,1.28,1.402,587.959
141348,155178,22412,0.019,-0.97,-0.038,0.488,1.28,1.402,587.963
141348,155238,13449,0.018,-0.967,-0.037,1.341,1.159,1.707,587.969
141341,155178,22412,0.018,-0.967,-0.037,1.341,1.159,1.707,587.973
141341,155235,13426,0.016,-0.966,-0.032,1.037,0.854,1.341,587.979
141360,155178,22412,0.016,-0.966,-0.032,1.037,0.854,1.341,587.983
141360,155239,13429,0.019,-0.958,-0.03,-0.122,0.427,0.854,587.989
141377,155178,22412,0.019,-0.958,-0.03,-0.122,0.427,0.854,587.992
141377,155245,13434,0.021,-0.962,-0.041,-1.646,0.061,0.427,587.999
141431,155178,22412,0.021,-0.962,-0.041,-1.646,0.061,0.427,588.002
141431,155277,13456,0.018,-0.972,-0.053,-1.646,0.366,0.183,588.009
141434,155178,22412,0.018,-0.972,-0.053,-1.646,0.366,0.183,588.012
141434,155274,13460,0.019,-0.974,-0.045,-0.549,0.244,-0.183,588.018
141465,155178,22412,0.019,-0.974,-0.045,-0.549,0.244,-0.183,588.022
141465,155293,13447,0.025,-0.962,-0.046,-0.061,0.061,-0.61,588.028
141472,155178,22412,0.025,-0.962,-0.046,-0.061,0.061,-0.61,588.032
141472,155299,13467,0.024,-0.972,-0.049,0.305,0.305,-0.854,588.038
141466,155178,22412,0.024,-0.972,-0.049,0.305,0.305,-0.854,588.042
141466,155295,13460,0.027,-0.964,-0.048,0.854,0.305,-0.61,588.048
141441,155178,22412,0.027,-0.964,-0.048,0.854,0.305,-0.61,588.052
141441,155301,13452,0.026,-0.964,-0.04,1.22,0.366,-0.549,588.058
141444,155178,22412,0.026,-0.964,-0.04,1.22,0.366,-0.549,588.062
141444,155293,13456,0.027,-0.96,-0.034,1.098,0.305,-0.122,588.068
141462,155178,22412,0.027,-0.96,-0.034,1.098,0.305,-0.122,588.072
141462,155276,13445,0.028,-0.961,-0.037,-0.061,0.122,0.305,588.078
141472,155178,22412,0.028,-0.961,-0.037,-0.061,0.122,0.305,588.082
141472,155306,13446,0.024,-0.965,-0.04,-0.671,0.427,0.854,588.088
141490,155178,22412,0.024,-0.965,-0.04,-0.671,0.427,0.854,588.091
141490,155317,13453,0.023,-0.968,-0.043,-1.28,0.427,1.098,588.098
141491,155178,22412,0.023,-0.968,-0.043,-1.28,0.427,1.098,588.101
141491,155295,13475,0.023,-0.968,-0.041,-1.037,0.305,1.037,588.108
141502,155178,22412,0.023,-0.968,-0.041,-1.037,0.305,1.037,588.111
141502,155303,13453,0.021,-0.965,-0.039,-0.976,0.305,1.159,588.117
141494,155178,22412,0.021,-0.965,-0.039,-0.976,0.305,1.159,588.121
141494,155300,13456,0.02,-0.962,-0.051,-0.976,0.305,1.159,588.127
141497,155178,22412,0.021,-0.969,-0.054,-1.768,0.366,1.037,588.131
141497,155310,13460,0.02,-0.973,-0.051,-1.768,0.366,1.037,588.137
141488,155178,22412,0.019,-0.969,-0.051,-0.488,0.549,0.427,588.141
141488,155303,13454,0.019,-0.966,-0.047,-0.488,0.549,0.427,588.147
141465,155178,22412,0.022,-0.963,-0.042,0.671,0.366,0.061,588.151
141465,155303,13453,0.023,-0.962,-0.045,0.671,0.366,0.061,588.157
141453,155178,22412,0.021,-0.965,-0.048,0.793,0.427,-0.244,588.161
141453,155309,13445,0.022,-0.971,-0.045,0.793,0.427,-0.244,588.167
141482,155178,22412,0.022,-0.968,-0.035,1.341,0.671,-0.366,588.171
141482,155287,13450,0.022,-0.961,-0.03,1.341,0.671,-0.366,588.177
141450,155178,22412,0.026,-0.955,-0.027,1.159,0.427,-0.549,588.181
141450,155291,13456,0.025,-0.954,-0.031,1.159,0.427,-0.549,588.187
141485,155178,22412,0.023,-0.962,-0.035,-0.488,0.366,-0.427,588.19
141485,155312,13454,0.025,-0.971,-0.038,-0.488,0.366,-0.427,588.197
141482,155178,22412,0.026,-0.973,-0.04,-1.341,0.549,-0.122,588.2
141482,155311,13448,0.029,-0.97,-0.044,-1.341,0.549,-0.122,588.207
141500,155178,22412,0.026,-0.969,-0.043,-1.22,0.244,0.244,588.21
141500,155322,13446,0.026,-0.965,-0.041,-1.22,0.244,0.244,588.216
141483,155178,22412,0.025,-0.962,-0.036,-0.976,0.366,0.488,588.22
141483,155308,13440,0.027,-0.96,-0.04,-0.976,0.366,0.488,588.226
141506,155178,22412,0.029,-0.964,-0.045,-1.524,0.366,0.488,588.23
141506,155309,13468,0.028,-0.964,-0.047,-1.524,0.366,0.488,588.236
141513,155178,22412,0.025,-0.968,-0.048,-1.646,0.488,0.732,588.24
141513,155304,13447,0.023,-0.973,-0.046,-1.646,0.488,0.732,588.246
141470,155178,22412,0.026,-0.97,-0.038,-1.098,0.671,1.22,588.25
141470,155301,13469,0.022,-0.959,-0.035,-1.098,0.671,1.22,588.256
141465,155178,22412,0.02,-0.955,-0.033,-1.402,0.549,1.402,588.26
141465,155280,13446,0.02,-0.961,-0.038,-1.402,0.549,1.402,588.266
141455,155178,22412,0.025,-0.97,-0.052,-2.5,0.244,1.159,588.27
141455,155263,13442,0.025,-0.973,-0.053,-2.5,0.244,1.159,588.276
141449,155178,22412,0.023,-0.972,-0.051,-2.439,0.427,0.976,588.28
141449,155279,13458,0.02,-0.966,-0.05,-2.439,0.427,0.976,588.286
141489,155178,22412,0.021,-0.964,-0.046,-0.976,0.305,1.22,588.289
141489,155302,13453,0.018,-0.967,-0.047,-0.976,0.305,1.22,588.296
141479,155178,22412,0.021,-0.971,-0.047,-0.427,0.427,1.098,588.299
141479,155301,13462,0.02,-0.971,-0.043,-0.427,0.427,1.098,588.306
141483,155178,22412,0.018,-0.968,-0.045,-0.366,0.61,1.098,588.309
141483,155302,13464,0.019,-0.964,-0.038,-0.366,0.61,1.098,588.315
141505,155178,22412,0.018,-0.966,-0.036,-0.671,0.183,0.915,588.319
141505,155328,13472,0.018,-0.966,-0.04,-0.671,0.183,0.915,588.325
141509,155178,22412,0.016,-0.966,-0.047,-1.22,0.122,0.366,588.329
141509,155299,13454,0.019,-0.969,-0.05,-1.22,0.122,0.366,588.335
141488,155178,22412,0.022,-0.966,-0.047,-1.22,0,-0.122,588.339
141488,155309,13446,0.017,-0.964,-0.041,-1.22,0,-0.122,588.345
141495,155178,22412,0.02,-0.963,-0.042,-0.854,-0.366,-0.427,588.349
141495,155308,13452,0.024,-0.961,-0.048,-0.854,-0.366,-0.427,588.355
141479,155178,22412,0.024,-0.964,-0.054,-0.549,-0.061,-0.671,588.359
141479,155310,13460,0.028,-0.966,-0.05,-0.549,-0.061,-0.671,588.365
141494,155178,22412,0.026,-0.969,-0.043,0.549,0.488,-0.732,588.369
141494,155312,13452,0.025,-0.97,-0.043,0.549,0.488,-0.732,588.375
141479,155178,22412,0.026,-0.964,-0.046,1.098,0.732,-0.183,588.379
141479,155315,13456,0.025,-0.966,-0.049,1.098,0.732,-0.183,588.385
141477,155178,22412,0.024,-0.971,-0.039,1.22,0.976,0.061,588.389
141477,155299,13446,0.02,-0.972,-0.031,1.22,0.976,0.061,588.395
141445,155178,22412,0.02,-0.965,-0.037,0.976,0.915,0.183,588.398
141445,155262,13459,0.023,-0.963,-0.041,0.976,0.915,0.183,588.405
141463,155178,22412,0.024,-0.968,-0.047,-0.244,0.549,0.244,588.408
141463,155287,13434,0.023,-0.97,-0.05,-0.244,0.549,0.244,588.414
141464,155178,22412,0.025,-0.968,-0.049,0.061,0.671,0.183,588.418
141464,155288,13450,0.024,-0.963,-0.052,0.061,0.671,0.183,588.424
141442,155178,22412,0.026,-0.96,-0.048,1.037,0.61,0.244,588.428
141442,155279,13455,0.027,-0.964,-0.043,1.037,0.61,0.244,588.434
141470,155178,22412,0.023,-0.967,-0.041,1.89,0.61,0.366,588.438
141470,155270,13450,0.02,-0.962,-0.037,1.89,0.61,0.366,588.444
141466,155178,22412,0.021,-0.961,-0.037,1.463,0.61,0.549,588.448
141466,155281,13453,0.022,-0.959,-0.035,1.463,0.61,0.549,588.454
141470,155178,22412,0.024,-0.963,-0.038,0.427,0.183,0.366,588.458
141470,155293,13440,0.02,-0.972,-0.04,0.427,0.183,0.366,588.464
141479,155178,22412,0.019,-0.973,-0.036,-0.122,0.244,0.183,588.468
141479,155294,13451,0.021,-0.963,-0.038,-0.122,0.244,0.183,588.474
141505,155178,22412,0.024,-0.962,-0.04,-0.549,0,-0.183,588.478
141505,155314,13455,0.026,-0.963,-0.046,-0.549,0,-0.183,588.484
141497,155178,22412,0.028,-0.964,-0.043,-0.793,-0.183,-0.427,588.487
141497,155304,13457,0.027,-0.964,-0.044,-0.793,-0.183,-0.427,588.494
141487,155178,22412,0.03,-0.962,-0.047,-0.671,0.122,0,588.497
141487,155295,13457,0.028,-0.965,-0.047,-0.671,0.122,0,588.504
141467,155178,22412,0.023,-0.968,-0.041,-0.183,0.305,0.488,588.507
141467,155304,13453,0.023,-0.961,-0.039,-0.183,0.305,0.488,588.513
141464,155178,22412,0.025,-0.961,-0.045,-0.061,0.549,0.854,588.517
141464,155273,13452,0.026,-0.963,-0.045,-0.061,0.549,0.854,588.523
141439,155178,22412,0.027,-0.97,-0.043,-0.427,0.732,0.854,588.527
141439,155273,13448,0.024,-0.974,-0.042,-0.427,0.732,0.854,588.533
141407,155178,22412,0.019,-0.969,-0.039,-0.488,0.793,1.28,588.537
141407,155236,13444,0.019,-0.963,-0.04,-0.488,0.793,1.28,588.543
141411,155178,22412,0.021,-0.963,-0.039,-0.854,0.366,1.159,588.547
141411,155216,13442,0.024,-0.968,-0.045,-0.854,0.366,1.159,588.553
141374,155178,22412,0.022,-0.97,-0.049,-1.28,0.305,0.915,588.557
141374,155216,13432,0.021,-0.966,-0.054,-1.28,0.305,0.915,588.563
141377,155178,22412,0.021,-0.966,-0.054,-1.28,0.305,0.915,588.567
141377,155213,13444,0.021,-0.969,-0.049,-1.037,0.427,0.915,588.573
141351,155178,22412,0.021,-0.969,-0.049,-1.037,0.427,0.915,588.577
141351,155225,13446,0.021,-0.967,-0.049,0.061,0.305,0.854,588.583
141362,155178,22412,0.021,-0.967,-0.049,0.061,0.305,0.854,588.587
141362,155216,13425,0.027,-0.966,-0.055,0.61,0.549,0.366,588.593
141351,155178,22412,0.027,-0.966,-0.055,0.61,0.549,0.366,588.596
141351,155225,13451,0.026,-0.972,-0.046,1.28,0.732,0.183,588.603
141381,155178,22412,0.026,-0.972,-0.046,1.28,0.732,0.183,588.606
141381,155208,13424,0.021,-0.967,-0.042,2.134,0.732,0.366,588.612
141383,155178,22412,0.021,-0.967,-0.042,2.134,0.732,0.366,588.616
141383,155200,13435,0.021,-0.964,-0.034,2.012,0.793,0.366,588.622
141359,155178,22412,0.021,-0.964,-0.034,2.012,0.793,0.366,588.626
141359,155203,13444,0.024,-0.959,-0.037,1.341,0.549,0.244,588.632
141369,155178,22412,0.024,-0.959,-0.037,1.341,0.549,0.244,588.636
141369,155170,13434,0.022,-0.964,-0.031,0.549,0.427,0.122,588.642
141339,155178,22412,0.022,-0.964,-0.031,0.549,0.427,0.122,588.646
141339,155177,13442,0.021,-0.963,-0.048,0,0.549,0.366,588.652
141349,155178,22412,0.021,-0.963,-0.048,0,0.549,0.366,588.656
141349,155183,13432,0.02,-0.978,-0.052,-0.671,0.488,0.549,588.662
141342,155178,22412,0.02,-0.978,-0.052,-0.671,0.488,0.549,588.666
141342,155193,13439,0.021,-0.967,-0.043,0.671,0.61,0.488,588.672
141354,155178,22412,0.021,-0.967,-0.043,0.671,0.61,0.488,588.676
141354,155209,13443,0.022,-0.96,-0.04,1.28,0.488,0.366,588.682
141404,155178,22412,0.022,-0.96,-0.04,1.28,0.488,0.366,588.686
141404,155212,13446,0.025,-0.967,-0.033,1.28,0.427,0.183,588.692
141397,155178,22412,0.025,-0.967,-0.033,1.28,0.427,0.183,588.695
141397,155243,13442,0.022,-0.961,-0.036,1.22,0.488,0.244,588.702
141434,155178,22412,0.022,-0.961,-0.036,1.22,0.488,0.244,588.705
141434,155253,13431,0.025,-0.96,-0.034,0.366,0.305,0.305,588.711
141445,155178,22412,0.023,-0.96,-0.037,0.366,0.305,0.305,588.715
141445,155245,13445,0.024,-0.96,-0.038,0,0.244,0.122,588.721
141446,155178,22412,0.025,-0.967,-0.038,0,0.244,0.122,588.725
141446,155225,13441,0.022,-0.966,-0.037,-0.061,0.366,0.305,588.731
141426,155178,22412,0.021,-0.963,-0.033,-0.061,0.366,0.305,588.735
141426,155232,13441,0.021,-0.967,-0.036,-0.61,0.183,0.61,588.741
141455,155178,22412,0.017,-0.968,-0.035,-0.61,0.183,0.61,588.745
141455,155258,13451,0.021,-0.971,-0.04,-1.28,0.122,0.61,588.751
141450,155178,22412,0.022,-0.974,-0.047,-1.28,0.122,0.61,588.755
141450,155258,13438,0.018,-0.975,-0.051,-1.524,0.122,0.305,588.761
141443,155178,22412,0.02,-0.971,-0.05,-1.524,0.122,0.305,588.765
141443,155250,13448,0.023,-0.969,-0.044,-0.671,0,0,588.771
141434,155178,22412,0.022,-0.965,-0.041,-0.671,0,0,588.775
141434,155270,13440,0.028,-0.961,-0.036,0.183,0.122,-0.183,588.781
141450,155178,22412,0.029,-0.96,-0.036,0.183,0.122,-0.183,588.785
141450,155239,13429,0.024,-0.965,-0.038,0.183,0.427,-0.061,588.791
141411,155178,22412,0.022,-0.965,-0.038,0.183,0.427,-0.061,588.794
141411,155218,13447,0.021,-0.967,-0.041,-0.183,0.549,0.305,588.801
141422,155178,22412,0.026,-0.963,-0.041,-0.183,0.549,0.305,588.804
141422,155239,13428,0.024,-0.961,-0.04,-0.183,0.488,0.366,588.81
141432,155178,22412,0.025,-0.962,-0.039,-0.183,0.488,0.366,588.814
141432,155210,13437,0.025,-0.966,-0.037,-0.122,0.488,0.549,588.82
141407,155178,22412,0.024,-0.968,-0.036,-0.122,0.488,0.549,588.824
141407,155229,13446,0.021,-0.965,-0.038,-0.671,0.427,0.854,588.83
141431,155178,22412,0.019,-0.965,-0.04,-0.671,0.427,0.854,588.834
141431,155232,13436,0.02,-0.968,-0.043,-1.341,0.244,0.61,588.84
141423,155178,22412,0.02,-0.973,-0.05,-1.341,0.244,0.61,588.844
141423,155235,13449,0.021,-0.974,-0.053,-1.341,0.061,0.183,588.85
141432,155178,22412,0.021,-0.972,-0.051,-1.341,0.061,0.183,588.854
141432,155229,13429,0.023,-0.966,-0.047,-0.366,0.122,0.122,588.86
141430,155178,22412,0.027,-0.961,-0.042,-0.366,0.122,0.122,588.864
141430,155242,13426,0.025,-0.96,-0.044,0.549,0.305,0.244,588.87
141435,155178,22412,0.024,-0.96,-0.04,0.549,0.305,0.244,588.874
141435,155231,13449,0.024,-0.963,-0.045,0.732,0.61,0.488,588.88
141456,155178,22412,0.022,-0.965,-0.043,0.732,0.61,0.488,588.884
141456,155240,13432,0.021,-0.969,-0.037,0.915,0.732,0.671,588.89
141435,155178,22412,0.02,-0.965,-0.027,0.915,0.732,0.671,588.893
141435,155234,13445,0.021,-0.96,-0.029,0.488,0.488,0.793,588.9
141445,155178,22412,0.021,-0.961,-0.039,0.488,0.488,0.793,588.903
141445,155214,13453,0.021,-0.968,-0.047,-1.159,0.244,0.488,588.91
141446,155178,22412,0.02,-0.975,-0.044,-1.159,0.244,0.488,588.913
141446,155255,13447,0.019,-0.975,-0.047,-1.037,0.305,0.305,588.919
141452,155178,22412,0.02,-0.968,-0.041,-1.037,0.305,0.305,588.923
141452,155251,13449,0.023,-0.959,-0.038,-0.488,0.122,-0.061,588.929
141485,155178,22412,0.024,-0.958,-0.039,-0.488,0.122,-0.061,588.933
141485,155282,13465,0.023,-0.961,-0.041,-0.427,0,-0.305,588.939
141518,155178,22412,0.024,-0.967,-0.037,-0.427,0,-0.305,588.943
141518,155300,13457,0.021,-0.966,-0.035,-0.549,0.183,-0.244,588.949
141511,155178,22412,0.021,-0.96,-0.041,-0.549,0.183,-0.244,588.953
141511,155278,13454,0.023,-0.958,-0.045,-1.159,0.244,-0.183,588.959
141527,155178,22412,0.026,-0.965,-0.047,-1.159,0.244,-0.183,588.963
141527,155313,13444,0.025,-0.972,-0.047,-1.28,0.183,-0.122,588.969
141533,155178,22412,0.021,-0.975,-0.048,-1.28,0.183,-0.122,588.973
141533,155304,13450,0.023,-0.97,-0.041,-0.671,0.305,0.061,588.979
141525,155178,22412,0.025,-0.959,-0.036,-0.671,0.305,0.061,588.983
141525,155294,13448,0.025,-0.957,-0.034,-0.61,0.061,0.244,588.989
141528,155178,22412,0.029,-0.959,-0.043,-0.61,0.061,0.244,588.992
141528,155278,13465,0.028,-0.968,-0.049,-1.098,0.183,0.366,588.999
141521,155178,22412,0.025,-0.973,-0.049,-1.098,0.183,0.366,589.002
141521,155276,13444,0.021,-0.971,-0.045,-0.671,0.549,0.793,589.009
141517,155178,22412,0.026,-0.964,-0.048,-0.671,0.549,0.793,589.012
141517,155275,13457,0.026,-0.96,-0.038,-0.305,0.366,1.098,589.018
141499,155178,22412,0.026,-0.962,-0.034,-0.305,0.366,1.098,589.022
141499,155309,13455,0.025,-0.963,-0.039,-0.427,0.61,1.098,589.028
141511,155178,22412,0.026,-0.963,-0.044,-0.427,0.61,1.098,589.032
141511,155300,13451,0.021,-0.972,-0.045,-0.732,0.915,1.159,589.038
141498,155178,22412,0.02,-0.975,-0.045,-0.732,0.915,1.159,589.042
141498,155286,13453,0.023,-0.969,-0.042,-0.427,0.732,1.098,589.048
141515,155178,22412,0.026,-0.965,-0.041,-0.427,0.732,1.098,589.052
141515,155273,13451,0.024,-0.963,-0.042,-0.549,0.549,0.915,589.058
141508,155178,22412,0.02,-0.96,-0.044,-0.549,0.549,0.915,589.062
141508,155264,13458,0.02,-0.969,-0.041,-0.427,0.671,0.854,589.068
141499,155178,22412,0.018,-0.972,-0.038,-0.427,0.671,0.854,589.072
141499,155282,13441,0.019,-0.963,-0.042,-0.183,0.61,0.854,589.078
141507,155178,22412,0.021,-0.959,-0.046,-0.183,0.61,0.854,589.082
141507,155281,13451,0.024,-0.96,-0.045,-0.549,0.244,0.427,589.088
141500,155178,22412,0.023,-0.964,-0.038,-0.549,0.244,0.427,589.091
141500,155280,13447,0.021,-0.964,-0.039,-0.488,0.061,0.427,589.098
141475,155178,22412,0.019,-0.963,-0.042,-0.488,0.061,0.427,589.101
141475,155252,13453,0.019,-0.964,-0.045,-0.854,0,0.549,589.108
141477,155178,22412,0.02,-0.967,-0.045,-0.854,0,0.549,589.111
141477,155258,13436,0.019,-0.969,-0.038,-0.915,-0.122,0.427,589.117
141481,155178,22412,0.018,-0.964,-0.034,-0.915,-0.122,0.427,589.121
141481,155236,13445,0.023,-0.965,-0.042,-1.341,-0.366,0.366,589.127
141489,155178,22412,0.022,-0.969,-0.048,-1.341,-0.366,0.366,589.131
141489,155255,13442,0.021,-0.975,-0.047,-1.707,-0.305,0.244,589.137
141472,155178,22412,0.018,-0.977,-0.044,-1.707,-0.305,0.244,589.141
141472,155272,13445,0.019,-0.968,-0.043,-1.28,-0.366,0.183,589.147
141467,155178,22412,0.022,-0.958,-0.045,-1.28,-0.366,0.183,589.151
141467,155264,13441,0.024,-0.961,-0.047,-1.585,-0.488,-0.183,589.157
141478,155178,22412,0.024,-0.961,-0.047,-1.585,-0.488,-0.183,589.161
141478,155253,13445,0.023,-0.972,-0.047,-1.22,-0.122,-0.305,589.167
141459,155178,22412,0.023,-0.972,-0.047,-1.22,-0.122,-0.305,589.171
141459,155257,13433,0.025,-0.965,-0.058,-0.671,0.183,-0.061,589.177
141460,155178,22412,0.025,-0.965,-0.058,-0.671,0.183,-0.061,589.181
141460,155262,13433,0.023,-0.964,-0.028,0.366,0.244,0.122,589.187
141463,155178,22412,0.023,-0.964,-0.028,0.366,0.244,0.122,589.19
141463,155241,13444,0.023,-0.958,-0.055,-0.549,0.427,0.183,589.197
141480,155178,22412,0.023,-0.958,-0.055,-0.549,0.427,0.183,589.2
141480,155257,13445,0.022,-0.982,-0.048,-0.793,0.366,0,589.207
141463,155178,22412,0.022,-0.982,-0.048,-0.793,0.366,0,589.21
141463,155261,13430,0.021,-0.96,-0.04,0.122,0.244,-0.122,589.216
141457,155178,22412,0.021,-0.96,-0.04,0.122,0.244,-0.122,589.22
141457,155234,13443,0.026,-0.951,-0.031,-0.732,-0.122,-0.305,589.226
141437,155178,22412,0.026,-0.951,-0.031,-0.732,-0.122,-0.305,589.23
141437,155256,13431,0.03,-0.959,-0.036,-1.524,0.122,-0.061,589.236
141461,155178,22412,0.03,-0.959,-0.036,-1.524,0.122,-0.061,589.24
141461,155282,13453,0.025,-0.961,-0.042,-2.134,0.183,0.732,589.246
141478,155178,22412,0.025,-0.961,-0.042,-2.134,0.183,0.732,589.25
141478,155265,13441,0.024,-0.963,-0.049,-2.317,0.061,1.22,589.256
141445,155178,22412,0.024,-0.963,-0.049,-2.317,0.061,1.22,589.26
141445,155225,13452,0.023,-0.968,-0.037,-2.073,0.061,1.28,589.266
141451,155178,22412,0.023,-0.968,-0.037,-2.073,0.061,1.28,589.27
141451,155280,13445,0.021,-0.958,-0.037,-2.622,-0.183,1.585,589.276
141465,155178,22412,0.021,-0.958,-0.037,-2.622,-0.183,1.585,589.28
141465,155233,13466,0.02,-0.975,-0.058,-4.085,-0.122,1.463,589.286
141448,155178,22412,0.02,-0.975,-0.058,-4.085,-0.122,1.463,589.289
141448,155277,13437,0.015,-0.974,-0.054,-3.232,0.183,1.22,589.296
141416,155178,22412,0.015,-0.974,-0.054,-3.232,0.183,1.22,589.299
141416,155246,13440,0.016,-0.963,-0.05,-3.232,0.183,1.22,589.306
141434,155178,22412,0.02,-0.958,-0.053,-2.561,0,0.793,589.309
141434,155276,13453,0.023,-0.959,-0.05,-2.561,0,0.793,589.315
141446,155178,22412,0.026,-0.968,-0.05,-1.951,0.122,0.488,589.319
141446,155222,13436,0.024,-0.969,-0.051,-1.951,0.122,0.488,589.325
141447,155178,22412,0.02,-0.966,-0.051,-1.28,0.366,0.488,589.329
141447,155246,13444,0.02,-0.962,-0.052,-1.28,0.366,0.488,589.335
141417,155178,22412,0.023,-0.96,-0.053,-1.28,0.305,0.488,589.339
141417,155262,13441,0.024,-0.963,-0.047,-1.28,0.305,0.488,589.345
141420,155178,22412,0.024,-0.966,-0.049,-0.732,0.305,0.366,589.349
141420,155263,13439,0.024,-0.962,-0.05,-0.732,0.305,0.366,589.355
141431,155178,22412,0.022,-0.966,-0.05,-0.793,0.305,0.671,589.359
141431,155272,13438,0.02,-0.97,-0.052,-0.793,0.305,0.671,589.365
141439,155178,22412,0.018,-0.972,-0.05,-0.854,0.366,0.915,589.369
141439,155283,13449,0.02,-0.973,-0.049,-0.854,0.366,0.915,589.375
141443,155178,22412,0.021,-0.971,-0.043,-0.549,0.366,0.793,589.379
141443,155263,13447,0.019,-0.964,-0.04,-0.549,0.366,0.793,589.385
141413,155178,22412,0.021,-0.959,-0.037,-0.671,0,0.61,589.388
141413,155243,13445,0.022,-0.961,-0.048,-0.671,0,0.61,589.395
141378,155178,22412,0.023,-0.966,-0.06,-1.707,0.122,0.427,589.398
141378,155234,13444,0.021,-0.97,-0.064,-1.707,0.122,0.427,589.405
141381,155178,22412,0.016,-0.973,-0.061,-0.854,0.244,0.244,589.408
141381,155215,13442,0.021,-0.968,-0.056,-0.854,0.244,0.244,589.414
141388,155178,22412,0.025,-0.963,-0.052,0.793,0.488,-0.183,589.418
141388,155218,13439,0.027,-0.958,-0.047,0.793,0.488,-0.183,589.424
141348,155178,22412,0.028,-0.964,-0.049,1.098,0.61,-0.244,589.428
141348,155183,13432,0.026,-0.972,-0.048,1.098,0.61,-0.244,589.434
141357,155178,22412,0.021,-0.972,-0.046,1.28,0.732,0.183,589.438
141357,155193,13431,0.02,-0.968,-0.042,1.28,0.732,0.183,589.444
141348,155178,22412,0.023,-0.959,-0.041,0.915,0.549,0.305,589.448
141348,155194,13436,0.027,-0.956,-0.047,0.915,0.549,0.305,589.454
141311,155178,22412,0.026,-0.958,-0.044,0.183,0.244,0.183,589.458
141311,155176,13437,0.024,-0.963,-0.046,0.183,0.244,0.183,589.464
141316,155178,22412,0.021,-0.968,-0.05,-0.244,0.427,0.488,589.468
141316,155181,13436,0.023,-0.965,-0.051,-0.244,0.427,0.488,589.474
141333,155178,22412,0.021,-0.961,-0.046,-0.305,0.366,0.793,589.478
141333,155177,13436,0.021,-0.96,-0.043,-0.305,0.366,0.793,589.484
141361,155178,22412,0.023,-0.965,-0.043,-0.122,0.244,0.732,589.487
141361,155198,13444,0.02,-0.97,-0.039,-0.122,0.244,0.732,589.494
141345,155178,22412,0.018,-0.969,-0.046,-0.61,0.366,0.793,589.497
141345,155183,13434,0.02,-0.966,-0.059,-0.61,0.366,0.793,589.504
141352,155178,22412,0.021,-0.968,-0.061,-1.159,0.488,0.488,589.507
141352,155193,13437,0.019,-0.972,-0.056,-1.159,0.488,0.488,589.513
141334,155178,22412,0.024,-0.969,-0.054,0.122,0.427,0.122,589.517
141334,155217,13432,0.026,-0.96,-0.054,0.122,0.427,0.122,589.523
141336,155178,22412,0.024,-0.96,-0.055,0.976,0.61,0.244,589.527
141336,155206,13436,0.025,-0.964,-0.05,0.976,0.61,0.244,589.533
141325,155178,22412,0.022,-0.964,-0.05,1.646,0.854,0.61,589.537
141325,155192,13417,0.021,-0.961,-0.046,1.646,0.854,0.61,589.543
141295,155178,22412,0.02,-0.962,-0.047,1.524,0.793,0.671,589.547
141295,155182,13443,0.021,-0.969,-0.042,1.524,0.793,0.671,589.553
141259,155178,22412,0.02,-0.969,-0.047,1.159,0.671,0.61,589.557
141259,155165,13435,0.018,-0.968,-0.053,1.159,0.671,0.61,589.563
141258,155178,22412,0.02,-0.971,-0.05,1.037,0.732,0.427,589.567
141258,155176,13425,0.021,-0.97,-0.042,1.037,0.732,0.427,589.573
141249,155178,22412,0.022,-0.966,-0.042,1.402,0.488,0.305,589.577
141249,155165,13429,0.023,-0.961,-0.042,1.402,0.488,0.305,589.583
141244,155178,22412,0.021,-0.958,-0.046,0.915,0.488,0.366,589.586
141244,155165,13430,0.022,-0.961,-0.049,0.915,0.488,0.366,589.593
141265,155178,22412,0.025,-0.963,-0.044,0.671,0.732,0.488,589.596
141265,155177,13428,0.022,-0.962,-0.039,0.671,0.732,0.488,589.603
141253,155178,22412,0.021,-0.961,-0.041,0.793,0.549,0.732,589.606
141253,155156,13414,0.019,-0.96,-0.044,0.793,0.549,0.732,589.612
141253,155178,22412,0.023,-0.965,-0.051,-0.061,0.549,0.61,589.616
141253,155162,13418,0.024,-0.969,-0.05,-0.061,0.549,0.61,589.622
141237,155178,22412,0.022,-0.969,-0.055,0.366,0.549,0.549,589.626
141237,155170,13429,0.018,-0.969,-0.053,0.366,0.549,0.549,589.632
141254,154922,22412,0.02,-0.968,-0.05,1.22,0.732,0.549,589.636
141254,155131,13414,0.022,-0.967,-0.047,1.22,0.732,0.549,589.642
141215,155178,22412,0.021,-0.965,-0.044,1.524,0.854,0.366,589.646
141215,155167,13434,0.021,-0.959,-0.036,1.524,0.854,0.366,589.652
141229,155178,22412,0.019,-0.963,-0.042,1.28,0.671,0.305,589.656
141229,155168,13419,0.017,-0.967,-0.041,1.28,0.671,0.305,589.662
141214,155178,22412,0.015,-0.96,-0.037,0.671,0.427,0.244,589.666
141214,155169,13416,0.019,-0.961,-0.042,0.671,0.427,0.244,589.672
141238,155178,22412,0.025,-0.964,-0.046,-0.244,0.305,-0.061,589.676
141238,155168,13416,0.021,-0.966,-0.042,-0.244,0.305,-0.061,589.682
141260,155178,22412,0.018,-0.963,-0.044,-0.244,0.244,-0.183,589.685
141260,155158,13415,0.022,-0.96,-0.039,-0.244,0.244,-0.183,589.692
141247,155178,22412,0.027,-0.961,-0.044,-0.61,0.183,-0.061,589.695
141247,155148,13433,0.025,-0.961,-0.048,-0.61,0.183,-0.061,589.702
141274,155178,22412,0.024,-0.97,-0.051,-0.976,0.244,0,589.705
141274,155194,13430,0.021,-0.978,-0.051,-0.976,0.244,0,589.711
141288,155178,22412,0.021,-0.974,-0.052,-0.61,0.366,0.244,589.715
141288,155194,13432,0.023,-0.967,-0.052,-0.61,0.366,0.244,589.721
141295,155178,22412,0.023,-0.967,-0.044,-0.061,0.244,0.183,589.725
141295,155223,13432,0.023,-0.964,-0.041,-0.061,0.244,0.183,589.731
141287,155178,22412,0.025,-0.962,-0.046,0.122,0.366,0.244,589.735
141287,155191,13434,0.022,-0.96,-0.048,0.122,0.366,0.244,589.741
141315,155178,22412,0.023,-0.959,-0.038,-0.061,0.549,0.488,589.745
141315,155201,13421,0.024,-0.958,-0.04,-0.061,0.549,0.488,589.751
141283,155178,22412,0.024,-0.958,-0.04,-0.061,0.549,0.488,589.755
141283,155159,13441,0.021,-0.969,-0.048,-0.305,0.427,0.793,589.761
141274,155178,22412,0.021,-0.969,-0.048,-0.305,0.427,0.793,589.765
141274,155187,13424,0.018,-0.972,-0.046,-0.488,0.671,0.854,589.771
141282,155178,22412,0.018,-0.972,-0.046,-0.488,0.671,0.854,589.775
141282,155193,13445,0.02,-0.966,-0.044,-0.061,0.488,0.793,589.781
141319,155178,22412,0.02,-0.966,-0.044,-0.061,0.488,0.793,589.784
141319,155229,13442,0.023,-0.968,-0.048,-0.427,0.366,0.671,589.791
141317,155178,22412,0.023,-0.968,-0.048,-0.427,0.366,0.671,589.794
141317,155222,13434,0.023,-0.968,-0.043,-0.183,0.549,0.366,589.801
141320,155178,22412,0.023,-0.968,-0.043,-0.183,0.549,0.366,589.804
141320,155234,13447,0.019,-0.959,-0.045,0,0.488,0.305,589.81
141319,155178,22412,0.019,-0.959,-0.045,0,0.488,0.305,589.814
141319,155226,13425,0.023,-0.968,-0.052,-0.671,0.549,0.244,589.82
141318,155178,22412,0.023,-0.968,-0.052,-0.671,0.549,0.244,589.824
141318,155228,13445,0.024,-0.972,-0.059,-0.366,0.671,0.061,589.83
141333,155178,22412,0.024,-0.972,-0.059,-0.366,0.671,0.061,589.834
141333,155236,13441,0.024,-0.964,-0.045,0.671,0.732,0.061,589.84
141357,155178,22412,0.024,-0.964,-0.045,0.671,0.732,0.061,589.844
141357,155260,13456,0.023,-0.962,-0.039,1.768,0.488,0.488,589.85
141360,155178,22412,0.023,-0.962,-0.039,1.768,0.488,0.488,589.854
141360,155253,13446,0.019,-0.963,-0.036,1.463,0.488,0.915,589.86
141367,155178,22412,0.019,-0.963,-0.036,1.463,0.488,0.915,589.864
141367,155276,13446,0.022,-0.962,-0.042,0.305,0.488,1.037,589.87
141397,155178,22412,0.022,-0.962,-0.042,0.305,0.488,1.037,589.874
141397,155270,13460,0.021,-0.965,-0.046,-0.854,0.183,0.976,589.88
141372,155178,22412,0.021,-0.965,-0.046,-0.854,0.183,0.976,589.883
141372,155271,13454,0.017,-0.979,-0.053,-0.854,0.183,1.037,589.89
141409,155178,22412,0.017,-0.979,-0.053,-0.854,0.183,1.037,589.893
141409,155323,13459,0.016,-0.977,-0.054,-0.366,0.366,1.098,589.9
141419,155178,22412,0.017,-0.974,-0.049,-0.366,0.366,1.098,589.903
141419,155296,13460,0.019,-0.967,-0.052,-0.122,0.244,0.488,589.909
141444,155178,22412,0.018,-0.968,-0.05,-0.122,0.244,0.488,589.913
141444,155301,13468,0.021,-0.973,-0.05,0.793,0.305,-0.061,589.919
141423,155178,22412,0.018,-0.975,-0.044,0.793,0.305,-0.061,589.923
141423,155273,13469,0.016,-0.969,-0.037,1.951,0.549,-0.366,589.929
141439,155178,22412,0.02,-0.957,-0.037,1.951,0.549,-0.366,589.933
141439,155330,13470,0.022,-0.95,-0.041,1.159,0.305,-0.549,589.939
141443,155178,22412,0.021,-0.951,-0.04,1.159,0.305,-0.549,589.943
141443,155290,13464,0.025,-0.958,-0.037,0.366,0.244,-0.793,589.949
141423,155178,22412,0.025,-0.963,-0.036,0.366,0.244,-0.793,589.953
141423,155322,13470,0.022,-0.964,-0.04,0.244,0.427,-0.366,589.959
141451,155178,22412,0.021,-0.962,-0.038,0.244,0.427,-0.366,589.963
141451,155308,13464,0.022,-0.959,-0.037,-0.427,0.305,-0.122,589.969
141424,155178,22412,0.023,-0.961,-0.032,-0.427,0.305,-0.122,589.973
141424,155321,13455,0.025,-0.96,-0.037,-1.341,0.061,0.122,589.979
141438,155178,22412,0.024,-0.965,-0.057,-1.341,0.061,0.122,589.982
141438,155312,13471,0.022,-0.977,-0.063,-2.439,0.122,0.122,589.989
141455,155178,22412,0.021,-0.984,-0.062,-2.439,0.122,0.122,589.992
141455,155335,13451,0.017,-0.981,-0.057,-0.976,0.305,0.061,589.999
141444,155178,22412,0.021,-0.973,-0.052,-0.976,0.305,0.061,590.002
141444,155311,13492,0.025,-0.964,-0.047,0.793,0.061,-0.122,590.008
141454,155178,22412,0.024,-0.96,-0.043,0.793,0.061,-0.122,590.012
141454,155329,13492,0.027,-0.96,-0.041,1.22,0.122,-0.183,590.018
141476,155178,22412,0.027,-0.961,-0.041,1.22,0.122,-0.183,590.022
141476,155348,13460,0.024,-0.959,-0.038,1.098,0.366,0.427,590.028
141452,155178,22412,0.021,-0.958,-0.039,1.098,0.366,0.427,590.032
141452,155355,13492,0.021,-0.959,-0.04,0.61,0.427,0.976,590.038
141463,155178,22412,0.021,-0.964,-0.042,0.61,0.427,0.976,590.042
141463,155368,13463,0.024,-0.965,-0.042,0.183,0.488,0.854,590.048
141442,155178,22412,0.023,-0.964,-0.036,0.183,0.488,0.854,590.052
141442,155364,13477,0.024,-0.964,-0.034,-0.122,0.549,0.854,590.058
141471,155178,22412,0.022,-0.962,-0.042,-0.122,0.549,0.854,590.062
141471,155370,13464,0.021,-0.968,-0.047,-0.793,0.671,1.22,590.068
141482,155178,22412,0.022,-0.97,-0.047,-0.793,0.671,1.22,590.072
141482,155386,13491,0.019,-0.972,-0.046,-0.671,0.915,1.159,590.078
141502,155178,22412,0.019,-0.969,-0.045,-0.671,0.915,1.159,590.081
141502,155362,13476,0.021,-0.965,-0.047,-0.488,0.854,0.854,590.088
141470,155178,22412,0.022,-0.967,-0.054,-0.488,0.854,0.854,590.091
141470,155366,13494,0.021,-0.972,-0.054,-0.244,0.671,0.61,590.098
141505,155178,22412,0.019,-0.974,-0.043,-0.244,0.671,0.61,590.101
141505,155380,13477,0.019,-0.966,-0.04,0.488,0.671,0.61,590.107
141516,155178,22412,0.018,-0.961,-0.038,0.488,0.671,0.61,590.111
141516,155391,13504,0.02,-0.958,-0.036,0.305,0.366,0.366,590.117
141506,155434,22412,0.021,-0.962,-0.04,0.305,0.366,0.366,590.121
141506,155393,13496,0.023,-0.965,-0.045,-0.549,0.244,0.183,590.127
141500,155178,22412,0.021,-0.966,-0.047,-0.549,0.244,0.183,590.131
141500,155388,13487,0.021,-0.967,-0.047,-0.671,0.244,0.183,590.137
141498,155434,22412,0.025,-0.965,-0.047,-0.671,0.244,0.183,590.141
141498,155414,13482,0.021,-0.961,-0.042,-0.244,0.122,0.305,590.147
141504,155178,22412,0.022,-0.961,-0.036,-0.244,0.122,0.305,590.151
141504,155369,13488,0.023,-0.962,-0.035,-0.305,0.122,0.488,590.157
141495,155178,22412,0.024,-0.961,-0.039,-0.305,0.122,0.488,590.161
141495,155386,13493,0.025,-0.969,-0.045,-1.341,0.122,0.427,590.167
141499,155178,22412,0.021,-0.978,-0.045,-1.341,0.122,0.427,590.171
141499,155374,13498,0.02,-0.974,-0.052,-1.646,0.122,0.61,590.177
141493,155178,22412,0.017,-0.968,-0.053,-1.646,0.122,0.61,590.18
141493,155374,13494,0.022,-0.959,-0.053,-1.098,0.122,0.305,590.187
141506,155434,22412,0.026,-0.966,-0.057,-1.098,0.122,0.305,590.19
141506,155405,13491,0.024,-0.979,-0.056,0.183,0.366,0.122,590.197
141524,155178,22412,0.02,-0.983,-0.05,0.183,0.366,0.122,590.2
141524,155389,13497,0.017,-0.972,-0.047,1.646,0.854,0.427,590.206
141510,155178,22412,0.021,-0.957,-0.04,1.646,0.854,0.427,590.21
141510,155374,13496,0.024,-0.954,-0.038,1.524,0.549,0.427,590.216
141522,155178,22412,0.026,-0.958,-0.04,1.524,0.549,0.427,590.22
141522,155384,13498,0.021,-0.962,-0.035,1.22,0.549,0.244,590.226
141529,155434,22412,0.018,-0.965,-0.038,1.22,0.549,0.244,590.23
141529,155404,13513,0.018,-0.966,-0.04,0.671,0.61,0.427,590.236
141539,155178,22412,0.02,-0.961,-0.041,0.671,0.61,0.427,590.24
141539,155388,13495,0.019,-0.961,-0.039,0.183,0.305,0.427,590.246
141515,155178,22412,0.021,-0.965,-0.044,0.183,0.305,0.427,590.25
141515,155375,13506,0.021,-0.969,-0.042,0.244,0.366,0.427,590.256
141511,155434,22412,0.021,-0.971,-0.035,0.244,0.366,0.427,590.26
141511,155397,13504,0.018,-0.963,-0.033,0.122,0.366,0.732,590.266
141521,155434,22412,0.019,-0.962,-0.039,0.122,0.366,0.732,590.27
141521,155429,13505,0.018,-0.967,-0.043,-0.732,0.244,0.549,590.276
141535,155434,22412,0.022,-0.969,-0.045,-0.732,0.244,0.549,590.279
141535,155413,13503,0.021,-0.968,-0.045,-1.098,0.244,0.305,590.286
141504,155434,22412,0.021,-0.965,-0.045,-1.098,0.244,0.305,590.289
141504,155403,13511,0.021,-0.962,-0.046,-1.037,0.122,0.366,590.296
141522,155178,22412,0.021,-0.96,-0.042,-1.037,0.122,0.366,590.299
141522,155389,13494,0.022,-0.962,-0.042,-0.976,0.183,0.366,590.305
141537,155434,22412,0.023,-0.965,-0.044,-0.976,0.183,0.366,590.309
141537,155409,13504,0.021,-0.969,-0.045,-1.037,0.549,0.366,590.315
141523,155434,22412,0.019,-0.972,-0.04,-1.037,0.549,0.366,590.319
141523,155418,13497,0.02,-0.966,-0.043,-0.793,0.549,0.549,590.325
141527,155178,22412,0.022,-0.959,-0.047,-0.793,0.549,0.549,590.329
141527,155386,13509,0.023,-0.958,-0.048,-1.402,0.427,0.427,590.335
141533,155434,22412,0.023,-0.958,-0.048,-1.402,0.427,0.427,590.339
141533,155431,13496,0.02,-0.974,-0.049,-0.61,0.549,0.427,590.345
141536,155434,22412,0.02,-0.974,-0.049,-0.61,0.549,0.427,590.349
141536,155424,13496,0.021,-0.967,-0.044,0.061,0.549,0.549,590.355
141512,155434,22412,0.021,-0.967,-0.044,0.061,0.549,0.549,590.359
141512,155440,13523,0.024,-0.958,-0.042,-0.244,0.366,0.61,590.365
141552,155434,22412,0.024,-0.958,-0.042,-0.244,0.366,0.61,590.369
141552,155446,13503,0.019,-0.974,-0.049,-0.244,0.488,0.549,590.375
141547,155434,22412,0.019,-0.974,-0.049,-0.244,0.488,0.549,590.378
141547,155440,13505,0.016,-0.968,-0.048,-0.244,0.549,0.305,590.385
141528,155434,22412,0.016,-0.968,-0.048,-0.244,0.549,0.305,590.388
141528,155409,13513,0.021,-0.966,-0.048,0,0.244,0,590.395
141523,155434,22412,0.021,-0.966,-0.048,0,0.244,0,590.398
141523,155422,13510,0.019,-0.969,-0.041,0.305,0.244,-0.122,590.404
141527,155434,22412,0.019,-0.969,-0.041,0.305,0.244,-0.122,590.408
141527,155435,13491,0.022,-0.966,-0.041,0.427,0.244,-0.305,590.414
141515,155434,22412,0.022,-0.966,-0.041,0.427,0.244,-0.305,590.418
141515,155445,13503,0.024,-0.96,-0.045,0.183,0,-0.366,590.424
141510,155434,22412,0.024,-0.96,-0.045,0.183,0,-0.366,590.428
141510,155423,13508,0.026,-0.963,-0.043,0.183,0.183,-0.183,590.434
141487,155434,22412,0.026,-0.963,-0.043,0.183,0.183,-0.183,590.438
141487,155424,13524,0.027,-0.965,-0.044,0,0.427,0.244,590.444
141490,155178,22412,0.027,-0.965,-0.044,0,0.427,0.244,590.448
141490,155380,13505,0.022,-0.969,-0.046,-0.305,0.549,0.488,590.454
141478,155434,22412,0.022,-0.969,-0.046,-0.305,0.549,0.488,590.458
141478,155399,13504,0.022,-0.969,-0.044,-0.244,0.549,0.549,590.464
141526,155434,22412,0.022,-0.969,-0.044,-0.244,0.549,0.549,590.468
141526,155401,13510,0.023,-0.964,-0.05,-0.183,0.427,0.61,590.474
141526,155434,22412,0.023,-0.964,-0.05,-0.183,0.427,0.61,590.477
141526,155427,13499,0.022,-0.972,-0.049,-0.183,0.427,0.61,590.484
141524,155434,22412,0.018,-0.972,-0.046,0.305,0.488,0.549,590.487
141524,155413,13508,0.018,-0.967,-0.041,0.305,0.488,0.549,590.494
141530,155434,22412,0.018,-0.961,-0.039,0.61,0.244,0.549,590.497
141530,155429,13507,0.023,-0.959,-0.041,0.61,0.244,0.549,590.503
141548,155434,22412,0.024,-0.961,-0.041,-0.183,0.061,0.244,590.507
141548,155449,13512,0.024,-0.965,-0.045,-0.183,0.061,0.244,590.513
141577,155434,22412,0.022,-0.962,-0.044,-0.61,0.488,0.244,590.517
141577,155465,13519,0.024,-0.958,-0.041,-0.61,0.488,0.244,590.523
141571,155434,22412,0.022,-0.964,-0.047,-0.427,0.61,0.549,590.527
141571,155434,13530,0.018,-0.969,-0.044,-0.427,0.61,0.549,590.533
141558,155434,22412,0.017,-0.971,-0.044,-0.061,0.671,0.671,590.537
141558,155446,13525,0.019,-0.969,-0.046,-0.061,0.671,0.671,590.543
141569,155434,22412,0.022,-0.969,-0.045,-0.122,0.549,0.549,590.547
141569,155441,13520,0.024,-0.969,-0.044,-0.122,0.549,0.549,590.553
141552,155434,22412,0.021,-0.968,-0.044,-0.183,0.244,0.61,590.557
141552,155471,13531,0.019,-0.968,-0.05,-0.183,0.244,0.61,590.563
141564,155434,22412,0.02,-0.969,-0.049,-0.061,0.366,0.549,590.567
141564,155464,13517,0.022,-0.965,-0.043,-0.061,0.366,0.549,590.573
141585,155434,22412,0.025,-0.96,-0.041,0.366,0.366,0.427,590.576
141585,155442,13518,0.025,-0.961,-0.04,0.366,0.366,0.427,590.583
141569,155434,22412,0.022,-0.963,-0.04,0.305,0.427,0.488,590.586
141569,155459,13515,0.02,-0.966,-0.039,0.305,0.427,0.488,590.593
141555,155434,22412,0.014,-0.964,-0.031,0.183,0.488,0.671,590.596
141555,155423,13515,0.016,-0.957,-0.031,0.183,0.488,0.671,590.602
141558,155434,22412,0.022,-0.956,-0.039,-1.28,0.244,0.305,590.606
141558,155447,13519,0.022,-0.962,-0.046,-1.28,0.244,0.305,590.612
141544,155434,22412,0.024,-0.969,-0.052,-1.89,0.183,-0.061,590.616
141544,155430,13537,0.024,-0.969,-0.06,-1.89,0.183,-0.061,590.622
141515,155434,22412,0.025,-0.975,-0.062,-0.915,0.61,0.122,590.626
141515,155445,13525,0.022,-0.975,-0.057,-0.915,0.61,0.122,590.632
141526,155434,22412,0.02,-0.97,-0.044,0.854,0.61,0.488,590.636
141526,155409,13505,0.02,-0.965,-0.043,0.854,0.61,0.488,590.642
141515,155434,22412,0.021,-0.964,-0.041,1.402,0.61,0.61,590.646
141515,155427,13518,0.02,-0.967,-0.039,1.402,0.61,0.61,590.652
141525,155434,22412,0.019,-0.972,-0.04,0.732,0.61,0.61,590.656
141525,155441,13529,0.019,-0.967,-0.045,0.732,0.61,0.61,590.662
141535,155434,22412,0.018,-0.964,-0.051,-0.061,0.305,0.488,590.666
141535,155434,13521,0.022,-0.961,-0.044,-0.061,0.305,0.488,590.672
141531,155434,22412,0.019,-0.968,-0.036,0.244,0.122,0.549,590.675
141531,155423,13523,0.016,-0.965,-0.037,0.244,0.122,0.549,590.682
141563,155434,22412,0.017,-0.962,-0.041,-0.122,0.061,0.61,590.685
141563,155438,13523,0.019,-0.962,-0.046,-0.122,0.061,0.61,590.692
141563,155434,22412,0.022,-0.969,-0.043,-0.976,0,0.244,590.695
141563,155434,13520,0.02,-0.974,-0.037,-0.976,0,0.244,590.701
141547,155434,22412,0.018,-0.972,-0.044,-0.854,0.122,0,590.705
141547,155471,13520,0.02,-0.967,-0.047,-0.854,0.122,0,590.711
141565,155434,22412,0.019,-0.964,-0.049,-1.28,0.122,-0.183,590.715
141565,155458,13507,0.018,-0.964,-0.049,-1.28,0.122,-0.183,590.721
141544,155434,22412,0.021,-0.965,-0.049,-0.732,0.183,-0.549,590.725
141544,155458,13532,0.024,-0.963,-0.048,-0.732,0.183,-0.549,590.731
141545,155434,22412,0.026,-0.966,-0.048,-0.366,0.427,-0.549,590.735
141545,155439,13517,0.025,-0.965,-0.046,-0.366,0.427,-0.549,590.741
141542,155434,22412,0.024,-0.966,-0.041,0.244,0.366,-0.244,590.745
141542,155458,13530,0.025,-0.966,-0.042,0.244,0.366,-0.244,590.751
141550,155434,22412,0.026,-0.965,-0.044,0.122,0.488,0,590.755
141550,155454,13539,0.023,-0.966,-0.041,0.122,0.488,0,590.761
141567,155434,22412,0.027,-0.966,-0.043,-0.244,0.427,0.183,590.765
141567,155457,13519,0.025,-0.97,-0.053,-0.244,0.427,0.183,590.771
141546,155434,22412,0.024,-0.972,-0.06,-0.244,0.549,0.305,590.774
141546,155477,13525,0.021,-0.972,-0.06,-0.244,0.549,0.305,590.781
141572,155434,22412,0.023,-0.97,-0.053,0.549,0.671,0.549,590.784
141572,155467,13531,0.023,-0.969,-0.046,0.549,0.671,0.549,590.791
141562,155434,22412,0.026,-0.958,-0.044,1.402,0.61,0.671,590.794
141562,155462,13534,0.027,-0.957,-0.042,1.402,0.61,0.671,590.8
141577,155434,22412,0.025,-0.958,-0.041,1.159,0.61,0.915,590.804
141577,155453,13537,0.025,-0.963,-0.044,1.159,0.61,0.915,590.81
141572,155434,22412,0.025,-0.964,-0.04,1.098,0.854,1.22,590.814
141572,155485,13528,0.024,-0.96,-0.041,1.098,0.854,1.22,590.82
141596,155434,22412,0.028,-0.958,-0.045,1.28,1.037,1.585,590.824
141596,155492,13524,0.027,-0.96,-0.049,1.28,1.037,1.585,590.83
141581,155434,22412,0.023,-0.966,-0.045,1.341,1.28,2.195,590.834
141581,155482,13555,0.025,-0.973,-0.047,1.341,1.28,2.195,590.84
141570,155434,22412,0.023,-0.973,-0.045,1.585,1.463,2.561,590.844
141570,155474,13535,0.023,-0.97,-0.05,1.585,1.463,2.561,590.85
141533,155434,22412,0.023,-0.97,-0.05,1.707,1.524,2.744,590.854
141533,155472,13550,0.024,-0.975,-0.051,1.707,1.524,2.744,590.86
141533,155434,22412,0.021,-0.978,-0.046,2.5,1.646,2.805,590.864
141533,155464,13514,0.016,-0.975,-0.043,2.5,1.646,2.805,590.87
141545,155434,22412,0.014,-0.968,-0.042,3.232,1.829,2.744,590.873
141545,155451,13510,0.015,-0.959,-0.039,3.232,1.829,2.744,590.88
141528,155434,22412,0.018,-0.962,-0.037,2.988,1.585,2.256,590.883
141528,155453,13535,0.017,-0.965,-0.043,2.988,1.585,2.256,590.89
141548,155434,22412,0.015,-0.968,-0.045,3.049,1.646,1.707,590.893
141548,155457,13543,0.011,-0.97,-0.038,3.049,1.646,1.707,590.899
141569,155434,22412,0.008,-0.97,-0.029,3.476,1.524,1.402,590.903
141569,155481,13541,0.008,-0.959,-0.02,3.476,1.524,1.402,590.909
141571,155434,22412,0.004,-0.951,-0.019,2.317,0.976,0.976,590.913
141571,155491,13543,0.005,-0.951,-0.031,2.317,0.976,0.976,590.919
141575,155434,22412,0.012,-0.96,-0.035,0.427,0.488,-0.061,590.923
141575,155477,13552,0.011,-0.973,-0.035,0.427,0.488,-0.061,590.929
141549,155434,22412,0.011,-0.973,-0.035,0.427,0.488,-0.061,590.933
141549,155479,13533,0.013,-0.97,-0.041,0.061,0.305,-0.732,590.939
141548,155434,22412,0.013,-0.97,-0.041,0.061,0.305,-0.732,590.943
141548,155471,13542,0.015,-0.96,-0.032,-0.244,-0.244,-1.159,590.949
141539,155434,22412,0.015,-0.96,-0.032,-0.244,-0.244,-1.159,590.953
141539,155470,13537,0.017,-0.966,-0.04,-0.549,-0.549,-1.585,590.959
141521,155434,22412,0.017,-0.966,-0.04,-0.549,-0.549,-1.585,590.963
141521,155447,13530,0.014,-0.972,-0.032,-0.61,-0.427,-1.707,590.969
141529,155434,22412,0.014,-0.972,-0.032,-0.61,-0.427,-1.707,590.972
141529,155431,13518,0.017,-0.958,-0.024,-0.854,-0.488,-2.012,590.979
141481,155434,22412,0.017,-0.958,-0.024,-0.854,-0.488,-2.012,590.982
141481,155427,13535,0.019,-0.96,-0.028,-2.439,-1.159,-2.439,590.989
141516,155434,22412,0.019,-0.96,-0.028,-2.439,-1.159,-2.439,590.992
141516,155411,13522,0.021,-0.97,-0.032,-3.902,-1.22,-2.988,590.998
141494,155434,22412,0.021,-0.97,-0.032,-3.902,-1.22,-2.988,591.002
141494,155410,13532,0.026,-0.955,-0.038,-4.329,-1.098,-3.049,591.008
141493,155434,22412,0.026,-0.955,-0.038,-4.329,-1.098,-3.049,591.012
141493,155425,13524,0.033,-0.956,-0.035,-5,-1.22,-2.561,591.018
141510,155434,22412,0.033,-0.956,-0.035,-5,-1.22,-2.561,591.022
141510,155406,13532,0.032,-0.967,-0.047,-5.183,-0.915,-1.768,591.028
141509,155434,22412,0.032,-0.967,-0.047,-5.183,-0.915,-1.768,591.032
141509,155414,13535,0.027,-0.971,-0.053,-5.244,-0.305,-0.793,591.038
141507,155434,22412,0.027,-0.971,-0.053,-5.244,-0.305,-0.793,591.042
141507,155427,13530,0.03,-0.973,-0.053,-4.817,-0.183,0.244,591.048
141517,155434,22412,0.03,-0.973,-0.053,-4.817,-0.183,0.244,591.052
141517,155434,13549,0.029,-0.973,-0.054,-4.451,-0.183,0.671,591.058
141547,155434,22412,0.029,-0.973,-0.054,-4.451,-0.183,0.671,591.062
141547,155465,13528,0.025,-0.969,-0.047,-3.598,0.061,0.976,591.068
141530,155434,22412,0.025,-0.969,-0.047,-3.598,0.061,0.976,591.071
141530,155442,13540,0.026,-0.961,-0.046,-3.11,0.122,1.098,591.078
141561,155434,22412,0.025,-0.956,-0.05,-3.11,0.122,1.098,591.081
141561,155458,13521,0.028,-0.956,-0.059,-3.537,0.305,0.976,591.088
141547,155434,22412,0.029,-0.963,-0.061,-3.537,0.305,0.976,591.091
141547,155458,13533,0.024,-0.971,-0.063,-2.927,0.671,1.098,591.097
141578,155434,22412,0.022,-0.972,-0.064,-2.927,0.671,1.098,591.101
141578,155471,13531,0.025,-0.969,-0.059,-1.159,1.28,1.463,591.107
141598,155434,22412,0.027,-0.965,-0.055,-1.159,1.28,1.463,591.111
141598,155483,13541,0.028,-0.966,-0.056,0.793,1.402,1.646,591.117
141620,155434,22412,0.026,-0.966,-0.053,0.793,1.402,1.646,591.121
141620,155472,13541,0.025,-0.968,-0.056,1.585,1.768,1.951,591.127
141644,155434,22412,0.024,-0.971,-0.058,1.585,1.768,1.951,591.131
141644,155521,13552,0.021,-0.971,-0.054,2.317,2.134,2.378,591.137
141657,155434,22412,0.02,-0.973,-0.05,2.317,2.134,2.378,591.141
141657,155545,13559,0.019,-0.971,-0.042,2.744,2.195,2.561,591.147
141668,155434,22412,0.017,-0.964,-0.044,2.744,2.195,2.561,591.151
141668,155544,13546,0.013,-0.963,-0.043,2.683,2.012,2.439,591.157
141690,155434,22412,0.016,-0.965,-0.04,2.683,2.012,2.439,591.161
141690,155549,13558,0.014,-0.968,-0.043,2.256,1.585,1.951,591.167
141727,155434,22412,0.01,-0.964,-0.044,2.256,1.585,1.951,591.171
141727,155576,13569,0.011,-0.96,-0.042,1.707,1.159,1.341,591.177
141732,155434,22412,0.014,-0.957,-0.037,1.707,1.159,1.341,591.18
141732,155581,13563,0.016,-0.958,-0.042,1.402,0.61,0.671,591.187
141707,155434,22412,0.016,-0.964,-0.044,1.402,0.61,0.671,591.19
141707,155538,13571,0.017,-0.964,-0.037,0.976,0.427,0.183,591.196
141728,155434,22412,0.017,-0.965,-0.04,0.976,0.427,0.183,591.2
141728,155557,13559,0.016,-0.966,-0.043,0.671,0.366,-0.061,591.206
141738,155434,22412,0.02,-0.968,-0.044,0.671,0.366,-0.061,591.21
141738,155584,13570,0.019,-0.971,-0.05,0.366,0.244,-0.366,591.216
141733,155434,22412,0.019,-0.971,-0.048,0.366,0.244,-0.366,591.22
141733,155568,13569,0.019,-0.971,-0.046,0.671,0.305,-0.549,591.226
141709,155434,22412,0.023,-0.965,-0.047,0.671,0.305,-0.549,591.23
141709,155539,13575,0.026,-0.962,-0.048,0.793,0.061,-0.732,591.236
141664,155434,22412,0.028,-0.962,-0.046,0.793,0.061,-0.732,591.24
141664,155514,13573,0.025,-0.968,-0.042,1.28,0.244,-0.549,591.246
141644,155434,22412,0.021,-0.967,-0.039,1.28,0.244,-0.549,591.25
141644,155533,13578,0.022,-0.961,-0.045,1.402,0.244,-0.183,591.256
141646,155434,22412,0.022,-0.955,-0.045,1.402,0.244,-0.183,591.26
141646,155507,13550,0.024,-0.96,-0.041,1.22,0.244,0.061,591.266
141601,155434,22412,0.022,-0.963,-0.043,1.22,0.244,0.061,591.27
141601,155491,13546,0.024,-0.963,-0.045,1.159,0.549,0.366,591.276
141580,155434,22412,0.024,-0.968,-0.044,1.159,0.549,0.366,591.279
141580,155492,13538,0.023,-0.973,-0.034,0.976,0.488,0.61,591.286
141562,155434,22412,0.022,-0.967,-0.034,0.976,0.488,0.61,591.289
141562,155427,13539,0.024,-0.961,-0.042,0.488,0.427,0.854,591.295
141537,155434,22412,0.024,-0.964,-0.043,0.488,0.427,0.854,591.299
141537,155420,13527,0.024,-0.967,-0.045,-0.122,0.549,0.915,591.305
141491,155434,22412,0.021,-0.971,-0.044,-0.122,0.549,0.915,591.309
141491,155392,13519,0.019,-0.971,-0.037,0.427,0.671,1.037,591.315
141463,155178,22412,0.023,-0.961,-0.033,0.427,0.671,1.037,591.319
141463,155379,13533,0.023,-0.955,-0.038,0.122,0.61,1.159,591.325
141422,155178,22412,0.022,-0.955,-0.036,0.122,0.61,1.159,591.329
141422,155382,13522,0.023,-0.96,-0.036,-0.549,0.488,1.402,591.335
141395,155178,22412,0.024,-0.967,-0.045,-0.549,0.488,1.402,591.339
141395,155367,13515,0.02,-0.971,-0.051,-0.732,0.915,1.646,591.345
141365,155178,22412,0.016,-0.972,-0.046,-0.732,0.915,1.646,591.349
141365,155323,13502,0.015,-0.966,-0.042,-0.061,1.037,1.524,591.355
141363,155178,22412,0.017,-0.964,-0.044,-0.061,1.037,1.524,591.359
141363,155318,13513,0.018,-0.968,-0.041,0.305,0.976,1.098,591.365
141396,155178,22412,0.012,-0.974,-0.045,0.305,0.976,1.098,591.369
141396,155367,13508,0.014,-0.975,-0.047,0.793,1.22,0.61,591.375
141409,155178,22412,0.017,-0.971,-0.047,0.793,1.22,0.61,591.378
141409,155366,13525,0.018,-0.967,-0.044,0.976,1.098,0.244,591.385
141406,155434,22412,0.022,-0.962,-0.039,0.976,1.098,0.244,591.388
141406,155395,13523,0.023,-0.96,-0.034,1.28,0.976,0.061,591.394
141435,155178,22412,0.023,-0.961,-0.033,1.28,0.976,0.061,591.398
141435,155387,13523,0.023,-0.959,-0.036,0.732,0.976,0.183,591.404
141425,155434,22412,0.021,-0.963,-0.034,0.732,0.976,0.183,591.408
141425,155408,13521,0.02,-0.965,-0.036,0,0.854,0.61,591.414
141464,155434,22412,0.021,-0.967,-0.031,0,0.854,0.61,591.418
141464,155404,13523,0.018,-0.961,-0.036,-0.976,0.61,0.732,591.424
141478,155434,22412,0.018,-0.963,-0.035,-0.976,0.61,0.732,591.428
141478,155433,13526,0.019,-0.969,-0.039,-1.89,0.366,0.671,591.434
141501,155434,22412,0.022,-0.97,-0.047,-1.89,0.366,0.671,591.438
141501,155427,13538,0.022,-0.973,-0.051,-1.951,0.183,0.488,591.444
141498,155434,22412,0.021,-0.972,-0.053,-1.951,0.183,0.488,591.448
141498,155432,13527,0.019,-0.969,-0.049,-1.463,0.305,0.549,591.454
141514,155434,22412,0.02,-0.965,-0.051,-1.463,0.305,0.549,591.458
141514,155438,13524,0.018,-0.967,-0.05,-0.488,0.366,0.793,591.464
141520,155434,22412,0.019,-0.97,-0.043,-0.488,0.366,0.793,591.468
141520,155419,13527,0.021,-0.968,-0.045,0.427,0.366,0.732,591.474
141499,155434,22412,0.02,-0.964,-0.041,0.427,0.366,0.732,591.477
141499,155440,13532,0.02,-0.959,-0.035,0.549,0.427,0.671,591.484
141516,155434,22412,0.02,-0.964,-0.04,0.549,0.427,0.671,591.487
141516,155415,13516,0.016,-0.97,-0.04,0.366,0.366,0.915,591.493
141511,155434,22412,0.013,-0.972,-0.046,0.366,0.366,0.915,591.497
141511,155404,13539,0.012,-0.972,-0.049,0,0.366,0.671,591.503
141511,155434,22412,0.018,-0.968,-0.05,0,0.366,0.671,591.507
141511,155452,13537,0.019,-0.966,-0.047,0.183,0.122,-0.061,591.513
141539,155434,22412,0.021,-0.97,-0.045,0.183,0.122,-0.061,591.517
141539,155455,13529,0.019,-0.971,-0.043,1.159,0.183,-0.427,591.523
141531,155434,22412,0.019,-0.971,-0.043,1.159,0.183,-0.427,591.527
141531,155438,13537,0.016,-0.96,-0.03,1.768,0.244,-0.305,591.533
141554,155434,22412,0.016,-0.96,-0.03,1.768,0.244,-0.305,591.537
141554,155469,13524,0.023,-0.959,-0.043,0.549,0.061,-0.61,591.543
141546,155434,22412,0.023,-0.959,-0.043,0.549,0.061,-0.61,591.547
141546,155445,13539,0.023,-0.965,-0.049,-0.061,0.244,-0.671,591.553
141573,155434,22412,0.023,-0.965,-0.049,-0.061,0.244,-0.671,591.557
141573,155454,13549,0.021,-0.969,-0.049,0.793,0.427,-0.427,591.563
141564,155434,22412,0.021,-0.969,-0.049,0.793,0.427,-0.427,591.567
141564,155459,13548,0.021,-0.967,-0.04,1.524,0.427,-0.366,591.573
141561,155434,22412,0.021,-0.967,-0.04,1.524,0.427,-0.366,591.576
141561,155462,13545,0.02,-0.971,-0.036,1.402,0.427,-0.305,591.583
141577,155434,22412,0.02,-0.971,-0.036,1.402,0.427,-0.305,591.586
141577,155491,13554,0.021,-0.969,-0.043,0.671,0.366,-0.183,591.593
141596,155434,22412,0.021,-0.969,-0.043,0.671,0.366,-0.183,591.596
141596,155470,13553,0.019,-0.967,-0.039,0.671,0.244,-0.183,591.602
141568,155434,22412,0.019,-0.967,-0.039,0.671,0.244,-0.183,591.606
141568,155498,13542,0.016,-0.963,-0.031,1.098,0.061,-0.305,591.612
141601,155434,22412,0.016,-0.963,-0.031,1.098,0.061,-0.305,591.616
141601,155500,13550,0.024,-0.955,-0.027,0.122,-0.366,-0.366,591.622
141594,155434,22412,0.024,-0.955,-0.027,0.122,-0.366,-0.366,591.626
141594,155520,13562,0.021,-0.962,-0.034,-1.22,-0.671,-0.366,591.632
141582,155434,22412,0.021,-0.962,-0.034,-1.22,-0.671,-0.366,591.636
141582,155492,13560,0.017,-0.962,-0.033,-2.073,-0.549,-0.366,591.642
141604,155434,22412,0.017,-0.962,-0.033,-2.073,-0.549,-0.366,591.646
141604,155505,13547,0.023,-0.959,-0.036,-2.866,-0.549,-0.61,591.652
141616,155434,22412,0.023,-0.959,-0.036,-2.866,-0.549,-0.61,591.656
141616,155522,13547,0.024,-0.967,-0.041,-3.598,-0.793,-0.671,591.662
141628,155434,22412,0.024,-0.967,-0.041,-3.598,-0.793,-0.671,591.666
141628,155528,13563,0.024,-0.972,-0.05,-3.598,-0.793,-0.671,591.672
141633,155434,22412,0.023,-0.971,-0.048,-3.354,-0.549,-0.427,591.675
141633,155516,13541,0.024,-0.97,-0.05,-3.354,-0.549,-0.427,591.682
141624,155434,22412,0.026,-0.969,-0.054,-2.378,-0.122,-0.244,591.685
141624,155530,13562,0.025,-0.972,-0.047,-2.378,-0.122,-0.244,591.692
141624,155434,22412,0.025,-0.976,-0.04,-1.402,-0.061,-0.122,591.695
141624,155488,13555,0.022,-0.97,-0.044,-1.402,-0.061,-0.122,591.701
141624,155434,22412,0.022,-0.968,-0.048,-1.159,0.305,0.122,591.705
141624,155518,13563,0.02,-0.969,-0.047,-1.159,0.305,0.122,591.711
141616,155434,22412,0.023,-0.965,-0.043,-0.671,0.244,0.183,591.715
141616,155529,13556,0.026,-0.959,-0.042,-0.671,0.244,0.183,591.721
141629,155434,22412,0.027,-0.962,-0.047,-0.366,0.305,0.366,591.725
141629,155510,13556,0.026,-0.964,-0.048,-0.366,0.305,0.366,591.731
141620,155434,22412,0.022,-0.964,-0.044,0.122,0.732,0.732,591.735
141620,155528,13566,0.022,-0.962,-0.041,0.122,0.732,0.732,591.741
141627,155434,22412,0.023,-0.96,-0.042,0.671,1.037,1.037,591.745
141627,155538,13556,0.025,-0.964,-0.044,0.671,1.037,1.037,591.751
141617,155434,22412,0.022,-0.969,-0.042,0.61,1.098,1.22,591.755
141617,155520,13555,0.02,-0.969,-0.048,0.61,1.098,1.22,591.761
141611,155434,22412,0.018,-0.967,-0.048,0.549,1.22,1.22,591.765
141611,155520,13562,0.02,-0.966,-0.043,0.549,1.22,1.22,591.771
141626,155434,22412,0.017,-0.967,-0.041,0.671,1.037,0.976,591.774
141626,155518,13566,0.019,-0.965,-0.041,0.671,1.037,0.976,591.781
141642,155434,22412,0.016,-0.965,-0.042,0.488,1.037,0.61,591.784
141642,155498,13564,0.019,-0.962,-0.035,0.488,1.037,0.61,591.791
141619,155434,22412,0.024,-0.96,-0.043,0.122,0.732,0.122,591.794
141619,155532,13555,0.026,-0.959,-0.044,0.122,0.732,0.122,591.8
141634,155434,22412,0.026,-0.963,-0.047,-0.244,0.61,0.183,591.804
141634,155518,13556,0.026,-0.965,-0.046,-0.244,0.61,0.183,591.81
141622,155434,22412,0.021,-0.966,-0.037,0.244,0.732,0.671,591.814
141622,155497,13566,0.021,-0.962,-0.036,0.244,0.732,0.671,591.82
141634,155434,22412,0.022,-0.959,-0.033,0.061,0.427,1.22,591.824
141634,155510,13568,0.024,-0.961,-0.034,0.061,0.427,1.22,591.83
141652,155434,22412,0.024,-0.967,-0.038,-1.22,0.183,1.463,591.834
141652,155535,13567,0.021,-0.971,-0.045,-1.22,0.183,1.463,591.84
141652,155434,22412,0.018,-0.975,-0.059,-2.134,0.305,1.707,591.844
141652,155523,13584,0.021,-0.978,-0.057,-2.134,0.305,1.707,591.85
141693,155434,22412,0.02,-0.975,-0.056,-1.402,0.244,1.707,591.854
141693,155546,13554,0.02,-0.97,-0.056,-1.402,0.244,1.707,591.86
141677,155434,22412,0.02,-0.968,-0.056,0.061,0.183,1.402,591.864
141677,155559,13566,0.02,-0.969,-0.05,0.061,0.183,1.402,591.87
141698,155434,22412,0.019,-0.971,-0.048,1.585,0.488,0.854,591.873
141698,155556,13577,0.019,-0.971,-0.051,1.585,0.488,0.854,591.88
141687,155434,22412,0.016,-0.965,-0.05,2.683,0.671,0.61,591.883
141687,155552,13575,0.017,-0.965,-0.047,2.683,0.671,0.61,591.89
141703,155434,22412,0.016,-0.962,-0.043,3.354,0.854,0.244,591.893
141703,155547,13585,0.018,-0.961,-0.038,3.354,0.854,0.244,591.899
141681,155434,22412,0.018,-0.96,-0.032,3.476,0.793,-0.183,591.903
141681,155521,13573,0.016,-0.959,-0.03,3.476,0.793,-0.183,591.909
141647,155434,22412,0.016,-0.956,-0.029,2.5,0.549,-0.488,591.913
141647,155535,13577,0.021,-0.957,-0.035,2.5,0.549,-0.488,591.919
141624,155434,22412,0.022,-0.962,-0.037,1.341,0.366,-0.61,591.923
141624,155531,13562,0.021,-0.964,-0.034,1.341,0.366,-0.61,591.929
141623,155434,22412,0.019,-0.965,-0.028,1.037,0.366,-0.488,591.933
141623,155492,13559,0.021,-0.963,-0.029,1.037,0.366,-0.488,591.939
141612,155434,22412,0.023,-0.96,-0.03,0.122,0,-0.244,591.943
141612,155525,13561,0.023,-0.965,-0.036,0.122,0,-0.244,591.949
