140682,154666,22412,0.007,-0.962,-0.059,0.427,0.671,-0.183,643.92
140682,154729,13342,0.011,-0.96,-0.063,0.427,0.671,-0.183,643.926
140725,154666,22412,0.008,-0.962,-0.074,0.366,0.549,-0.183,643.93
140725,154731,13361,0.006,-0.966,-0.071,0.366,0.549,-0.183,643.936
140720,154666,22412,0.007,-0.969,-0.064,0.061,0.488,0,643.939
140720,154733,13362,0.008,-0.963,-0.069,0.061,0.488,0,643.946
140713,154666,22412,0.007,-0.962,-0.067,-0.366,0.549,-0.122,643.949
140713,154744,13368,0.007,-0.963,-0.072,-0.366,0.549,-0.122,643.956
140690,154666,22412,0.01,-0.964,-0.07,-0.488,0.549,0.183,643.959
140690,154704,13357,0.008,-0.963,-0.076,-0.488,0.549,0.183,643.965
140677,154666,22412,0.007,-0.964,-0.07,-0.244,0.305,0.427,643.969
140677,154705,13342,0.008,-0.966,-0.074,-0.244,0.305,0.427,643.975
140681,154666,22412,0.008,-0.966,-0.072,0.122,0.427,0.549,643.979
140681,154673,13345,0.008,-0.965,-0.07,0.122,0.427,0.549,643.985
140657,154666,22412,0.01,-0.962,-0.07,-0.122,0.427,0.549,643.989
140657,154671,13342,0.009,-0.964,-0.071,-0.122,0.427,0.549,643.995
140655,154666,22412,0.007,-0.967,-0.069,-0.244,0.305,0.732,643.999
140655,154735,13341,0.006,-0.965,-0.07,-0.244,0.305,0.732,644.005
140673,154666,22412,0.005,-0.963,-0.067,-0.366,0.244,0.976,644.009
140673,154695,13364,0.009,-0.961,-0.068,-0.366,0.244,0.976,644.015
140714,154666,22412,0.009,-0.961,-0.063,-0.427,0.183,0.976,644.019
140714,154720,13363,0.009,-0.963,-0.06,-0.427,0.183,0.976,644.025
140712,154666,22412,0.006,-0.964,-0.055,-0.915,0.122,1.28,644.029
140712,154743,13370,0.003,-0.963,-0.065,-0.915,0.122,1.28,644.035
140727,154666,22412,0.004,-0.965,-0.07,-2.134,0.122,1.341,644.038
140727,154725,13355,0.005,-0.968,-0.078,-2.134,0.122,1.341,644.045
140756,154666,22412,0.004,-0.97,-0.083,-2.561,0.183,0.915,644.048
140756,154746,13353,0.002,-0.967,-0.083,-2.561,0.183,0.915,644.055
140709,154666,22412,0.002,-0.964,-0.078,-1.037,0.305,0.549,644.058
140709,154744,13373,0.001,-0.963,-0.07,-1.037,0.305,0.549,644.064
140725,154666,22412,0.004,-0.963,-0.067,0.183,0.488,0,644.068
140725,154720,13357,0.005,-0.967,-0.072,0.183,0.488,0,644.074
140713,154666,22412,0.005,-0.966,-0.083,-0.061,0.671,-0.244,644.078
140713,154731,13366,0.006,-0.963,-0.083,-0.061,0.671,-0.244,644.084
140715,154666,22412,0.007,-0.964,-0.073,0.549,0.732,-0.244,644.088
140715,154726,13364,0.004,-0.963,-0.064,0.549,0.732,-0.244,644.094
140720,154666,22412,0.006,-0.959,-0.061,1.585,0.732,-0.61,644.098
140720,154745,13373,0.01,-0.961,-0.057,1.585,0.732,-0.61,644.104
140738,154666,22412,0.012,-0.961,-0.06,0.793,0.549,-0.549,644.108
140738,154724,13374,0.013,-0.963,-0.067,0.793,0.549,-0.549,644.114
140757,154666,22412,0.013,-0.963,-0.067,0.793,0.549,-0.549,644.118
140757,154768,13371,0.004,-0.964,-0.071,-0.732,0.183,0.183,644.124
140757,154666,22412,0.004,-0.964,-0.071,-0.732,0.183,0.183,644.128
140757,154744,13375,0.01,-0.964,-0.064,-1.037,0.061,0.549,644.134
140721,154666,22412,0.01,-0.964,-0.064,-1.037,0.061,0.549,644.137
140721,154741,13362,0.011,-0.965,-0.071,-0.976,0.122,0.61,644.144
140719,154666,22412,0.011,-0.965,-0.071,-0.976,0.122,0.61,644.147
140719,154749,13356,0.003,-0.975,-0.079,-1.585,0.122,0.854,644.154
140714,154666,22412,0.003,-0.975,-0.079,-1.585,0.122,0.854,644.157
140714,154744,13360,0.002,-0.962,-0.078,-1.28,0.244,0.793,644.163
140715,154666,22412,0.002,-0.962,-0.078,-1.28,0.244,0.793,644.167
140715,154729,13384,0.007,-0.966,-0.08,-0.549,0.427,0.061,644.173
140679,154666,22412,0.007,-0.966,-0.08,-0.549,0.427,0.061,644.177
140679,154702,13364,0.005,-0.961,-0.069,0.183,0.671,-0.244,644.183
140698,154666,22412,0.005,-0.961,-0.069,0.183,0.671,-0.244,644.187
140698,154723,13360,0.007,-0.96,-0.067,0.732,0.61,-0.183,644.193
140690,154666,22412,0.007,-0.96,-0.067,0.732,0.61,-0.183,644.197
140690,154722,13369,0.008,-0.967,-0.068,0.366,0.549,-0.122,644.203
140725,154666,22412,0.008,-0.967,-0.068,0.366,0.549,-0.122,644.207
140725,154710,13359,0.007,-0.966,-0.068,0.061,0.427,-0.061,644.213
140731,154666,22412,0.007,-0.966,-0.068,0.061,0.427,-0.061,644.217
140731,154723,13373,0.009,-0.967,-0.075,0,0.366,0.122,644.223
140714,154666,22412,0.009,-0.967,-0.075,0,0.366,0.122,644.227
140714,154719,13351,0.011,-0.967,-0.077,0,0.366,0.183,644.233
140701,154666,22412,0.011,-0.967,-0.077,0,0.366,0.183,644.236
140701,154714,13360,0.008,-0.962,-0.062,0.549,0.488,0.244,644.243
140716,154666,22412,0.008,-0.962,-0.062,0.549,0.488,0.244,644.246
140716,154695,13353,0.01,-0.966,-0.071,0.427,0.488,0.244,644.253
140713,154666,22412,0.01,-0.966,-0.071,0.427,0.488,0.244,644.256
140713,154686,13361,0.007,-0.966,-0.072,-0.671,0.366,0.427,644.262
140667,154666,22412,0.005,-0.966,-0.072,-0.671,0.366,0.427,644.266
140667,154701,13373,0.007,-0.96,-0.067,-0.854,0.305,0.61,644.272
140707,154666,22412,0.01,-0.963,-0.073,-0.854,0.305,0.61,644.276
140707,154691,13352,0.009,-0.966,-0.074,-0.732,0.366,0.549,644.282
140662,154666,22412,0.005,-0.962,-0.07,-0.732,0.366,0.549,644.286
140662,154701,13360,0.009,-0.961,-0.066,-0.244,0.305,0.671,644.292
140678,154666,22412,0.009,-0.964,-0.07,-0.244,0.305,0.671,644.296
140678,154716,13353,0.005,-0.967,-0.073,-0.549,0.366,0.915,644.302
140671,154666,22412,0.007,-0.97,-0.075,-0.549,0.366,0.915,644.306
140671,154673,13346,0.007,-0.964,-0.075,-0.671,0.305,0.732,644.312
140638,154666,22412,0.01,-0.964,-0.083,-0.671,0.305,0.732,644.316
140638,154684,13342,0.008,-0.968,-0.084,-0.122,0.366,0.671,644.322
140641,154666,22412,0.002,-0.969,-0.074,-0.122,0.366,0.671,644.326
140641,154673,13358,0.001,-0.967,-0.068,1.037,0.549,0.61,644.332
140627,154666,22412,0.004,-0.964,-0.064,1.037,0.549,0.61,644.335
140627,154689,13342,0.007,-0.96,-0.061,1.402,0.549,0.183,644.342
140622,154666,22412,0.007,-0.962,-0.059,1.402,0.549,0.183,644.345
140622,154665,13354,0.006,-0.962,-0.063,0.244,0.549,0.061,644.352
140625,154666,22412,0.008,-0.966,-0.078,0.244,0.549,0.061,644.355
140625,154691,13344,0.004,-0.967,-0.081,-0.549,0.427,0.244,644.361
140691,154666,22412,0.004,-0.966,-0.075,-0.549,0.427,0.244,644.365
140691,154721,13356,0.006,-0.963,-0.072,0.183,0.61,0,644.371
140687,154666,22412,0.01,-0.966,-0.067,0.183,0.61,0,644.375
140687,154697,13354,0.01,-0.964,-0.068,1.037,0.549,-0.061,644.381
140647,154666,22412,0.009,-0.966,-0.066,1.037,0.549,-0.061,644.385
140647,154680,13372,0.008,-0.965,-0.065,0.671,0.427,0.305,644.391
140654,154666,22412,0.004,-0.961,-0.073,0.671,0.427,0.305,644.395
140654,154662,13348,0.006,-0.963,-0.073,-0.122,0.427,0.427,644.401
140593,154666,22412,0.007,-0.965,-0.067,-0.122,0.427,0.427,644.405
140593,154655,13351,0.004,-0.962,-0.07,-0.061,0.427,0.366,644.411
140578,154666,22412,0.007,-0.961,-0.068,-0.061,0.427,0.366,644.415
140578,154661,13345,0.008,-0.96,-0.069,0.122,0.549,0.427,644.421
140574,154410,22412,0.006,-0.966,-0.073,0.122,0.549,0.427,644.425
140574,154617,13362,0.007,-0.965,-0.072,0.183,0.549,0.549,644.431
140591,154666,22412,0.007,-0.966,-0.065,0.183,0.549,0.549,644.434
140591,154629,13334,0.007,-0.964,-0.064,0.244,0.366,0.732,644.441
140582,154666,22412,0.009,-0.965,-0.069,0.244,0.366,0.732,644.444
140582,154637,13339,0.007,-0.963,-0.07,0.061,0.305,0.61,644.451
140585,154666,22412,0.004,-0.963,-0.065,0.061,0.305,0.61,644.454
140585,154641,13343,0.003,-0.967,-0.069,-0.183,0.244,0.549,644.46
140604,154666,22412,0.004,-0.966,-0.069,-0.183,0.244,0.549,644.464
140604,154674,13355,0.008,-0.964,-0.071,-0.427,0.366,0.305,644.47
140598,154666,22412,0.008,-0.965,-0.075,-0.427,0.366,0.305,644.474
140598,154668,13347,0.005,-0.966,-0.078,-0.549,0.488,0.122,644.48
140624,154666,22412,0.006,-0.965,-0.071,-0.549,0.488,0.122,644.484
140624,154682,13345,0.005,-0.964,-0.063,0,0.549,0.122,644.49
140622,154666,22412,0.012,-0.96,-0.066,0,0.549,0.122,644.494
140622,154673,13356,0.013,-0.963,-0.071,0,0.549,0.061,644.5
140619,154666,22412,0.007,-0.966,-0.074,0,0.549,0.061,644.504
140619,154704,13349,0.002,-0.966,-0.078,-0.61,0.366,0.488,644.51
140635,154666,22412,0.004,-0.964,-0.077,-0.61,0.366,0.488,644.514
140635,154666,13349,0.007,-0.965,-0.073,0.061,0.488,0.427,644.52
140643,154666,22412,0.007,-0.968,-0.065,0.061,0.488,0.427,644.524
140643,154658,13352,0.008,-0.967,-0.069,0.732,0.549,0.061,644.53
140643,154666,22412,0.012,-0.962,-0.073,0.732,0.549,0.061,644.533
140643,154693,13349,0.011,-0.963,-0.073,0.183,0.549,0.061,644.54
140638,154666,22412,0.008,-0.967,-0.072,0.183,0.549,0.061,644.543
140638,154676,13347,0.006,-0.968,-0.068,0.244,0.427,0.427,644.55
140647,154666,22412,0.007,-0.964,-0.063,0.244,0.427,0.427,644.553
140647,154702,13340,0.007,-0.958,-0.061,0.061,0.366,0.427,644.559
140628,154666,22412,0.009,-0.965,-0.066,0.061,0.366,0.427,644.563
140628,154680,13348,0.007,-0.97,-0.067,-0.915,0.244,0.488,644.569
140662,154666,22412,0.007,-0.967,-0.068,-0.915,0.244,0.488,644.573
140662,154679,13344,0.002,-0.961,-0.071,-1.463,0.183,0.732,644.579
140637,154666,22412,0.005,-0.962,-0.079,-1.463,0.183,0.732,644.583
140637,154667,13344,0.007,-0.961,-0.075,-1.341,0.305,0.427,644.589
140605,154666,22412,0.008,-0.963,-0.079,-1.341,0.305,0.427,644.593
140605,154673,13358,0.006,-0.969,-0.081,-0.366,0.488,0.305,644.599
140628,154666,22412,0.005,-0.971,-0.081,-0.366,0.488,0.305,644.603
140628,154713,13349,0.001,-0.969,-0.083,0.793,0.61,0.366,644.609
140666,154666,22412,0,-0.969,-0.071,0.793,0.61,0.366,644.613
140666,154696,13354,0.007,-0.965,-0.061,1.89,0.854,-0.305,644.619
140624,154666,22412,0.01,-0.957,-0.057,1.89,0.854,-0.305,644.623
140624,154704,13342,0.009,-0.959,-0.06,1.341,0.915,-0.732,644.629
140687,154666,22412,0.009,-0.966,-0.061,1.341,0.915,-0.732,644.632
140687,154698,13347,0.004,-0.962,-0.057,0.122,0.549,-0.061,644.639
140693,154666,22412,0.005,-0.959,-0.054,0.122,0.549,-0.061,644.642
140693,154733,13364,0.01,-0.959,-0.065,-1.402,0.305,0.183,644.649
140697,154666,22412,0.01,-0.962,-0.074,-1.402,0.305,0.183,644.652
140697,154745,13367,0.008,-0.965,-0.074,-1.951,0.122,0.183,644.658
140720,154666,22412,0.007,-0.962,-0.07,-1.951,0.122,0.183,644.662
140720,154725,13351,0.01,-0.961,-0.075,-1.524,0.183,0.549,644.668
140696,154666,22412,0.01,-0.964,-0.073,-1.524,0.183,0.549,644.672
140696,154731,13362,0.008,-0.967,-0.073,-0.976,0.366,0.61,644.678
140700,154666,22412,0.009,-0.97,-0.077,-0.976,0.366,0.61,644.682
140700,154739,13358,0.009,-0.969,-0.086,-0.793,0.427,0.671,644.688
140688,154666,22412,0.008,-0.969,-0.082,-0.793,0.427,0.671,644.692
140688,154740,13366,0.007,-0.968,-0.075,0,0.427,0.793,644.698
140737,154666,22412,0.007,-0.968,-0.075,0,0.427,0.793,644.702
140737,154749,13360,0.008,-0.961,-0.066,0.793,0.549,0.549,644.708
140715,154666,22412,0.008,-0.961,-0.066,0.793,0.549,0.549,644.712
140715,154729,13364,0.009,-0.965,-0.072,0.488,0.549,0.366,644.718
140694,154666,22412,0.009,-0.965,-0.072,0.488,0.549,0.366,644.722
140694,154760,13359,0.003,-0.96,-0.066,0.854,0.61,0.488,644.728
140722,154666,22412,0.003,-0.96,-0.066,0.854,0.61,0.488,644.732
140722,154742,13362,0.009,-0.96,-0.062,0.732,0.488,0.549,644.738
140685,154666,22412,0.009,-0.96,-0.062,0.732,0.488,0.549,644.741
140685,154722,13363,0.005,-0.967,-0.065,-0.183,0.305,0.671,644.748
140713,154666,22412,0.005,-0.967,-0.065,-0.183,0.305,0.671,644.751
140713,154730,13361,0.007,-0.97,-0.081,-1.28,0.183,0.61,644.757
140693,154666,22412,0.007,-0.97,-0.081,-1.28,0.183,0.61,644.761
140693,154735,13372,-0,-0.964,-0.068,-0.549,0.244,0.427,644.767
140705,154666,22412,-0,-0.964,-0.068,-0.549,0.244,0.427,644.771
140705,154743,13368,0.008,-0.964,-0.077,-0.061,0.427,0.061,644.777
140739,154666,22412,0.008,-0.964,-0.077,-0.061,0.427,0.061,644.781
140739,154779,13367,0.006,-0.961,-0.071,0.183,0.549,-0.061,644.787
140735,154666,22412,0.006,-0.961,-0.071,0.183,0.549,-0.061,644.791
140735,154769,13371,0.002,-0.965,-0.079,0.854,0.671,-0.061,644.797
140741,154666,22412,0.002,-0.965,-0.079,0.854,0.671,-0.061,644.801
140741,154786,13370,0.007,-0.968,-0.071,1.524,0.854,-0.305,644.807
140749,154666,22412,0.007,-0.968,-0.071,1.524,0.854,-0.305,644.811
140749,154772,13374,0.01,-0.959,-0.057,1.829,0.793,-0.366,644.817
140742,154666,22412,0.01,-0.959,-0.057,1.829,0.793,-0.366,644.821
140742,154777,13374,0.007,-0.961,-0.059,0.61,0.61,-0.122,644.827
140729,154666,22412,0.007,-0.961,-0.059,0.61,0.61,-0.122,644.83
140729,154770,13367,0.01,-0.966,-0.074,-0.305,0.427,0.061,644.837
140744,154666,22412,0.01,-0.966,-0.074,-0.305,0.427,0.061,644.84
140744,154787,13363,0.009,-0.965,-0.072,-0.305,0.427,0.061,644.847
140723,154666,22412,0.009,-0.966,-0.068,-0.549,0.366,0.244,644.85
140723,154749,13375,0.01,-0.962,-0.071,-0.549,0.366,0.244,644.856
140694,154666,22412,0.011,-0.964,-0.071,-0.122,0.427,0.122,644.86
140694,154737,13384,0.01,-0.967,-0.066,-0.122,0.427,0.122,644.866
140714,154666,22412,0.008,-0.965,-0.066,-0.061,0.305,0.305,644.87
140714,154753,13356,0.01,-0.964,-0.075,-0.061,0.305,0.305,644.876
140731,154666,22412,0.009,-0.965,-0.073,-0.549,0.183,0.549,644.88
140731,154768,13387,0.008,-0.967,-0.078,-0.549,0.183,0.549,644.886
140732,154666,22412,0.008,-0.966,-0.075,-0.122,0.244,0.61,644.89
140732,154792,13382,0.01,-0.966,-0.071,-0.122,0.244,0.61,644.896
140774,154666,22412,0.01,-0.966,-0.073,0.671,0.366,0.549,644.9
140774,154785,13375,0.01,-0.964,-0.069,0.671,0.366,0.549,644.906
140772,154666,22412,0.012,-0.962,-0.064,0.976,0.427,0.549,644.91
140772,154811,13379,0.009,-0.963,-0.061,0.976,0.427,0.549,644.916
140758,154666,22412,0.007,-0.962,-0.061,0.427,0.427,0.793,644.92
140758,154818,13390,0.005,-0.962,-0.068,0.427,0.427,0.793,644.926
140756,154666,22412,0.005,-0.962,-0.068,-0.244,0.427,0.976,644.93
140756,154802,13367,0.008,-0.964,-0.069,-0.244,0.427,0.976,644.936
140749,154666,22412,0.011,-0.963,-0.068,-0.671,0.305,0.854,644.939
140749,154767,13388,0.006,-0.963,-0.067,-0.671,0.305,0.854,644.946
140727,154666,22412,0.006,-0.965,-0.07,-0.61,0.427,0.915,644.949
140727,154785,13376,0.007,-0.966,-0.07,-0.61,0.427,0.915,644.955
140716,154666,22412,0.005,-0.967,-0.064,-0.366,0.427,0.854,644.959
140716,154772,13367,0.002,-0.967,-0.07,-0.366,0.427,0.854,644.965
140710,154666,22412,0.005,-0.965,-0.076,-0.671,0.488,0.61,644.969
140710,154778,13385,0.006,-0.968,-0.079,-0.671,0.488,0.61,644.975
140732,154666,22412,0.002,-0.966,-0.067,-0.366,0.549,0.183,644.979
140732,154799,13375,0.004,-0.963,-0.061,-0.366,0.549,0.183,644.985
140739,154666,22412,0.008,-0.962,-0.069,0.061,0.549,-0.183,644.989
140739,154786,13376,0.008,-0.966,-0.072,0.061,0.549,-0.183,644.995
140749,154666,22412,0.005,-0.965,-0.073,-0.488,0.488,-0.244,644.999
140749,154796,13380,0.007,-0.958,-0.064,-0.488,0.488,-0.244,645.005
140753,154666,22412,0.011,-0.959,-0.065,-0.427,0.244,-0.122,645.009
140753,154790,13383,0.009,-0.964,-0.069,-0.427,0.244,-0.122,645.015
140744,154666,22412,0.008,-0.965,-0.067,-0.671,0.183,0.244,645.019
140744,154787,13373,0.008,-0.964,-0.064,-0.671,0.183,0.244,645.025
140750,154666,22412,0.01,-0.968,-0.066,-0.854,0.122,0.549,645.029
140750,154774,13373,0.011,-0.968,-0.069,-0.854,0.122,0.549,645.035
140748,154666,22412,0.008,-0.967,-0.077,-1.463,0.183,0.61,645.038
140748,154828,13394,0.009,-0.968,-0.075,-1.463,0.183,0.61,645.045
140770,154666,22412,0.009,-0.968,-0.079,-1.159,0.183,0.793,645.048
140770,154787,13381,0.007,-0.966,-0.078,-1.159,0.183,0.793,645.055
140759,154666,22412,0.002,-0.966,-0.072,-0.366,0.244,0.793,645.058
140759,154799,13398,0.005,-0.965,-0.071,-0.366,0.244,0.793,645.064
140755,154666,22412,0.007,-0.968,-0.073,0.366,0.427,0.488,645.068
140755,154806,13381,0.006,-0.966,-0.073,0.366,0.427,0.488,645.074
140773,154666,22412,0.005,-0.961,-0.072,0.549,0.671,0.244,645.078
140773,154787,13396,0.006,-0.961,-0.071,0.549,0.671,0.244,645.084
140777,154666,22412,0.006,-0.964,-0.075,0.549,0.732,0.183,645.088
140777,154800,13388,0.007,-0.965,-0.073,0.549,0.732,0.183,645.094
140773,154666,22412,0.009,-0.962,-0.067,1.037,0.732,0.122,645.098
140773,154770,13375,0.009,-0.96,-0.064,1.037,0.732,0.122,645.104
140752,154666,22412,0.008,-0.96,-0.054,0.854,0.61,0.122,645.108
140752,154793,13402,0.01,-0.967,-0.056,0.854,0.61,0.122,645.114
140795,154666,22412,0.007,-0.965,-0.062,-0.244,0.427,0.488,645.118
140795,154801,13394,0.007,-0.965,-0.068,-0.244,0.427,0.488,645.124
140776,154666,22412,0.009,-0.964,-0.071,-1.463,0.244,0.732,645.128
140776,154797,13395,0.009,-0.964,-0.068,-1.463,0.244,0.732,645.134
140788,154666,22412,0.008,-0.963,-0.067,-1.646,0.183,0.732,645.137
140788,154815,13382,0.008,-0.962,-0.07,-1.646,0.183,0.732,645.144
140774,154666,22412,0.004,-0.964,-0.075,-1.585,0.183,0.732,645.147
140774,154810,13382,0.005,-0.964,-0.071,-1.585,0.183,0.732,645.153
140790,154666,22412,0.005,-0.968,-0.076,-1.341,0.244,0.854,645.157
140790,154816,13390,0.004,-0.969,-0.081,-1.341,0.244,0.854,645.163
140800,154666,22412,0.004,-0.969,-0.08,-0.915,0.366,0.549,645.167
140800,154824,13383,0.002,-0.964,-0.075,-0.915,0.366,0.549,645.173
140790,154666,22412,0.004,-0.962,-0.073,-0.061,0.549,0,645.177
140790,154812,13395,0.01,-0.965,-0.073,-0.061,0.549,0,645.183
140803,154666,22412,0.01,-0.966,-0.067,0.671,0.61,-0.183,645.187
140803,154833,13383,0.006,-0.961,-0.06,0.671,0.61,-0.183,645.193
140821,154666,22412,0.008,-0.959,-0.065,0.366,0.488,0,645.197
140821,154812,13370,0.01,-0.962,-0.073,0.366,0.488,0,645.203
140796,154666,22412,0.011,-0.966,-0.074,-0.122,0.488,0.061,645.207
140796,154811,13400,0.009,-0.968,-0.067,-0.122,0.488,0.061,645.213
140816,154666,22412,0.007,-0.964,-0.064,0.366,0.366,0.305,645.217
140816,154811,13380,0.009,-0.963,-0.057,0.366,0.366,0.305,645.223
140778,154666,22412,0.013,-0.961,-0.055,-0.305,0.244,0.488,645.227
140778,154800,13389,0.011,-0.962,-0.062,-0.305,0.244,0.488,645.233
140801,154666,22412,0.006,-0.967,-0.069,-1.89,0,0.854,645.236
140801,154799,13380,0.003,-0.968,-0.077,-1.89,0,0.854,645.243
140811,154666,22412,0.005,-0.969,-0.085,-2.5,-0.061,0.915,645.246
140811,154831,13380,0.006,-0.966,-0.083,-2.5,-0.061,0.915,645.253
140811,154666,22412,0.008,-0.967,-0.083,-0.915,0.244,0.427,645.256
140811,154826,13389,0.006,-0.973,-0.082,-0.915,0.244,0.427,645.262
140836,154666,22412,0.003,-0.967,-0.067,0.793,0.549,0.061,645.266
140836,154835,13404,0.005,-0.961,-0.061,0.793,0.549,0.061,645.272
140836,154666,22412,0.007,-0.964,-0.07,1.037,0.61,-0.061,645.276
140836,154814,13382,0.009,-0.967,-0.075,1.037,0.61,-0.061,645.282
140820,154666,22412,0.008,-0.966,-0.075,0.366,0.671,-0.122,645.286
140820,154834,13385,0.009,-0.962,-0.069,0.366,0.671,-0.122,645.292
140770,154666,22412,0.009,-0.962,-0.069,0.366,0.671,-0.122,645.296
140770,154808,13395,0.008,-0.961,-0.068,0.671,0.549,0.061,645.302
140765,154666,22412,0.008,-0.961,-0.068,0.671,0.549,0.061,645.306
140765,154763,13379,0.01,-0.966,-0.07,0.732,0.61,0.122,645.312
140761,154666,22412,0.01,-0.966,-0.07,0.732,0.61,0.122,645.316
140761,154767,13369,0.008,-0.963,-0.074,0.61,0.549,0.366,645.322
140748,154666,22412,0.008,-0.963,-0.074,0.61,0.549,0.366,645.326
140748,154796,13400,0.005,-0.967,-0.061,0.671,0.427,0.61,645.332
140747,154666,22412,0.005,-0.967,-0.061,0.671,0.427,0.61,645.335
140747,154800,13376,0.009,-0.959,-0.067,0.305,0.305,0.793,645.342
140753,154666,22412,0.009,-0.959,-0.067,0.305,0.305,0.793,645.345
140753,154789,13392,0.006,-0.966,-0.069,-0.671,0.244,0.854,645.351
140744,154666,22412,0.006,-0.966,-0.069,-0.671,0.244,0.854,645.355
140744,154815,13381,0.002,-0.964,-0.073,-1.28,0.183,0.915,645.361
140787,154666,22412,0.002,-0.964,-0.073,-1.28,0.183,0.915,645.365
140787,154809,13379,0.004,-0.967,-0.075,-1.646,0.244,0.854,645.371
140774,154666,22412,0.004,-0.967,-0.075,-1.646,0.244,0.854,645.375
140774,154804,13396,0.008,-0.966,-0.074,-0.854,0.366,0.244,645.381
140783,154666,22412,0.008,-0.966,-0.074,-0.854,0.366,0.244,645.385
140783,154811,13405,0.007,-0.965,-0.073,-0.244,0.549,0.061,645.391
140790,154666,22412,0.007,-0.965,-0.073,-0.244,0.549,0.061,645.395
140790,154805,13390,0.007,-0.961,-0.064,0.244,0.488,0.122,645.401
140781,154666,22412,0.007,-0.961,-0.064,0.244,0.488,0.122,645.405
140781,154799,13383,0.01,-0.963,-0.073,0.305,0.488,0.061,645.411
140761,154666,22412,0.01,-0.963,-0.073,0.305,0.488,0.061,645.415
140761,154788,13379,0.008,-0.963,-0.069,-0.183,0.427,0.244,645.421
140764,154666,22412,0.008,-0.963,-0.069,-0.183,0.427,0.244,645.424
140764,154794,13378,0.008,-0.962,-0.07,-0.244,0.366,0.549,645.431
140756,154666,22412,0.008,-0.962,-0.07,-0.244,0.366,0.549,645.434
140756,154788,13386,0.006,-0.964,-0.069,-0.244,0.366,0.671,645.441
140760,154666,22412,0.007,-0.97,-0.064,-0.244,0.366,0.671,645.444
140760,154803,13387,0.007,-0.967,-0.066,-0.244,0.183,0.854,645.451
140763,154666,22412,0.004,-0.967,-0.072,-0.244,0.183,0.854,645.454
140763,154776,13382,0.005,-0.967,-0.074,-0.488,0.305,0.671,645.46
140755,154666,22412,0.004,-0.968,-0.076,-0.488,0.305,0.671,645.464
140755,154773,13385,0.004,-0.965,-0.073,-0.305,0.366,0.488,645.47
140766,154666,22412,0.005,-0.965,-0.071,-0.305,0.366,0.488,645.474
140766,154808,13384,0.006,-0.964,-0.068,0.122,0.366,0.183,645.48
140766,154666,22412,0.008,-0.963,-0.07,0.122,0.366,0.183,645.484
140766,154809,13377,0.011,-0.96,-0.066,0.122,0.427,0.122,645.49
140776,154666,22412,0.012,-0.962,-0.07,0.122,0.427,0.122,645.494
140776,154792,13371,0.01,-0.965,-0.072,0.061,0.366,0.366,645.5
140747,154666,22412,0.009,-0.966,-0.074,0.061,0.366,0.366,645.504
140747,154782,13398,0.005,-0.967,-0.073,0.305,0.366,0.549,645.51
140741,154666,22412,0.006,-0.968,-0.068,0.305,0.366,0.549,645.514
140741,154765,13361,0.01,-0.965,-0.068,0.488,0.549,0.549,645.52
140723,154666,22412,0.006,-0.966,-0.069,0.488,0.549,0.549,645.523
140723,154796,13375,0.008,-0.964,-0.07,0.488,0.488,0.488,645.53
140749,154666,22412,0.005,-0.967,-0.064,0.488,0.488,0.488,645.533
140749,154778,13380,0.004,-0.966,-0.067,0.61,0.366,0.61,645.54
140723,154666,22412,0.005,-0.968,-0.069,0.61,0.366,0.61,645.543
140723,154789,13369,0.004,-0.968,-0.072,0.061,0.488,0.366,645.549
140734,154666,22412,0.005,-0.965,-0.072,0.061,0.488,0.366,645.553
140734,154772,13373,0.005,-0.966,-0.064,0.122,0.427,-0.061,645.559
140751,154666,22412,0.008,-0.964,-0.068,0.122,0.427,-0.061,645.563
140751,154812,13383,0.012,-0.958,-0.069,-0.183,0.427,-0.366,645.569
140768,154666,22412,0.008,-0.962,-0.065,-0.183,0.427,-0.366,645.573
140768,154796,13365,0.008,-0.963,-0.062,-0.488,0.366,-0.183,645.579
140756,154666,22412,0.008,-0.964,-0.068,-0.488,0.366,-0.183,645.583
140756,154790,13383,0.006,-0.966,-0.073,-1.22,0.122,0.244,645.589
140759,154666,22412,0.008,-0.966,-0.082,-1.22,0.122,0.244,645.593
140759,154794,13384,0.009,-0.965,-0.079,-1.22,0.305,0.488,645.599
140753,154666,22412,0.008,-0.964,-0.077,-1.22,0.305,0.488,645.603
140753,154784,13386,0.006,-0.968,-0.075,0.122,0.366,0.366,645.609
140742,154666,22412,0.007,-0.967,-0.071,0.122,0.366,0.366,645.613
140742,154782,13393,0.01,-0.965,-0.072,0.549,0.488,0.305,645.619
140745,154666,22412,0.01,-0.967,-0.078,0.549,0.488,0.305,645.622
140745,154763,13370,0.007,-0.97,-0.076,0.61,0.549,0.427,645.629
140730,154666,22412,0.005,-0.966,-0.067,0.61,0.549,0.427,645.632
140730,154786,13382,0.007,-0.961,-0.061,1.159,0.549,0.488,645.639
140732,154666,22412,0.008,-0.959,-0.067,1.159,0.549,0.488,645.642
140732,154795,13371,0.009,-0.965,-0.071,0.61,0.549,0.488,645.648
140712,154666,22412,0.004,-0.968,-0.07,0.61,0.549,0.488,645.652
140712,154768,13383,0.002,-0.967,-0.067,0.305,0.488,0.732,645.658
140721,154666,22412,0.006,-0.963,-0.06,0.305,0.488,0.732,645.662
140721,154795,13374,0.007,-0.961,-0.056,0.183,0.549,0.488,645.668
140731,154666,22412,0.007,-0.964,-0.061,0.183,0.549,0.488,645.672
140731,154780,13387,0.008,-0.965,-0.07,-1.22,0.183,0.427,645.678
140726,154666,22412,0.005,-0.964,-0.075,-1.22,0.183,0.427,645.682
140726,154773,13384,0.001,-0.963,-0.082,-1.951,0.122,0.549,645.688
140736,154666,22412,0.003,-0.965,-0.082,-1.951,0.122,0.549,645.692
140736,154778,13378,0.008,-0.969,-0.078,-0.793,0.366,0.122,645.698
140720,154666,22412,0.005,-0.966,-0.074,-0.793,0.366,0.122,645.702
140720,154763,13387,0.004,-0.962,-0.068,0.488,0.61,-0.244,645.708
140722,154666,22412,0.008,-0.966,-0.074,0.488,0.61,-0.244,645.712
140722,154766,13374,0.012,-0.968,-0.071,0.854,0.671,-0.183,645.718
140738,154666,22412,0.009,-0.967,-0.066,0.854,0.671,-0.183,645.721
140738,154759,13383,0.005,-0.964,-0.06,0.976,0.488,0,645.728
140732,154666,22412,0.008,-0.961,-0.065,0.976,0.488,0,645.731
140732,154780,13380,0.008,-0.963,-0.073,0.366,0.427,0.061,645.738
140735,154666,22412,0.006,-0.968,-0.07,0.366,0.427,0.061,645.741
140735,154783,13385,0.005,-0.966,-0.061,0.244,0.488,0.244,645.747
140725,154666,22412,0.009,-0.963,-0.058,0.244,0.488,0.244,645.751
140725,154780,13388,0.01,-0.961,-0.06,0.305,0.427,0.305,645.757
140733,154666,22412,0.012,-0.963,-0.071,0.305,0.427,0.305,645.761
140733,154787,13380,0.008,-0.967,-0.065,-0.976,0.366,0.549,645.767
140730,154666,22412,0.002,-0.964,-0.063,-0.976,0.366,0.549,645.771
140730,154808,13375,0.002,-0.964,-0.066,-0.793,0.244,0.61,645.777
140752,154666,22412,0.011,-0.966,-0.082,-0.793,0.244,0.61,645.781
140752,154770,13381,0.007,-0.969,-0.088,-0.732,0.305,0.244,645.787
140766,154666,22412,0.005,-0.966,-0.075,-0.732,0.305,0.244,645.791
140766,154815,13396,0.006,-0.965,-0.07,0.732,0.488,0,645.797
140784,154666,22412,0.006,-0.967,-0.069,0.732,0.488,0,645.801
140784,154801,13387,0.008,-0.965,-0.071,1.768,0.732,-0.183,645.807
140793,154666,22412,0.007,-0.963,-0.067,1.768,0.732,-0.183,645.811
140793,154844,13395,0.005,-0.962,-0.065,1.585,0.793,-0.122,645.817
140809,154666,22412,0.007,-0.96,-0.062,1.585,0.793,-0.122,645.82
140809,154818,13382,0.008,-0.964,-0.06,1.159,0.61,0.061,645.827
140818,154666,22412,0.007,-0.961,-0.057,1.159,0.61,0.061,645.83
140818,154836,13399,0.008,-0.962,-0.063,0.366,0.427,0.244,645.837
140822,154666,22412,0.01,-0.965,-0.066,0.366,0.427,0.244,645.84
140822,154833,13408,0.009,-0.969,-0.067,-0.732,0.305,0.488,645.846
140808,154666,22412,0.007,-0.966,-0.067,-0.732,0.305,0.488,645.85
140808,154788,13379,0.008,-0.964,-0.068,-0.854,0.183,0.549,645.856
140772,154666,22412,0.008,-0.964,-0.071,-0.854,0.183,0.549,645.86
140772,154792,13393,0.008,-0.966,-0.07,-0.61,0.244,0.488,645.866
140774,154666,22412,0.007,-0.965,-0.07,-0.61,0.244,0.488,645.87
140774,154794,13388,0.008,-0.965,-0.066,-0.366,0.305,0.549,645.876
140770,154666,22412,0.004,-0.963,-0.066,-0.366,0.305,0.549,645.88
140770,154802,13395,0.005,-0.964,-0.07,-0.671,0.366,0.549,645.886
140758,154666,22412,0.005,-0.964,-0.07,-0.671,0.366,0.549,645.89
140758,154810,13393,0.007,-0.962,-0.07,-0.854,0.366,0.366,645.896
140773,154666,22412,0.007,-0.962,-0.07,-0.854,0.366,0.366,645.9
140773,154815,13391,0.007,-0.964,-0.072,-0.793,0.305,0.244,645.906
140784,154666,22412,0.007,-0.964,-0.072,-0.793,0.305,0.244,645.91
140784,154809,13402,0.006,-0.963,-0.067,-0.305,0.366,0.305,645.916
140816,154666,22412,0.006,-0.963,-0.067,-0.305,0.366,0.305,645.92
140816,154869,13390,0.011,-0.961,-0.071,0.427,0.488,0.122,645.926
140813,154666,22412,0.011,-0.961,-0.071,0.427,0.488,0.122,645.929
140813,154847,13398,0.008,-0.965,-0.068,0.305,0.427,0.183,645.936
140823,154666,22412,0.008,-0.965,-0.068,0.305,0.427,0.183,645.939
140823,154841,13393,0.01,-0.962,-0.07,-0.122,0.305,0.366,645.945
140777,154666,22412,0.01,-0.962,-0.07,-0.122,0.305,0.366,645.949
140777,154831,13393,0.007,-0.965,-0.069,-0.427,0.244,0.549,645.955
140801,154666,22412,0.007,-0.965,-0.069,-0.427,0.244,0.549,645.959
140801,154810,13378,0.008,-0.965,-0.072,-0.244,0.183,0.732,645.965
140783,154666,22412,0.008,-0.965,-0.072,-0.244,0.183,0.732,645.969
140783,154787,13390,0.007,-0.966,-0.069,-0.366,0.305,0.61,645.975
140782,154666,22412,0.007,-0.966,-0.069,-0.366,0.305,0.61,645.979
140782,154800,13393,0.004,-0.965,-0.062,-0.305,0.305,0.61,645.985
140738,154666,22412,0.004,-0.965,-0.062,-0.305,0.305,0.61,645.989
140738,154789,13408,0.009,-0.967,-0.073,-1.098,0.183,0.488,645.995
140780,154666,22412,0.009,-0.967,-0.073,-1.098,0.183,0.488,645.999
140780,154811,13390,0.007,-0.964,-0.076,-0.854,0.366,0.366,646.005
140774,154666,22412,0.007,-0.964,-0.076,-0.854,0.366,0.366,646.009
140774,154797,13386,0.007,-0.964,-0.069,0,0.488,0.244,646.015
140792,154666,22412,0.007,-0.964,-0.069,0,0.488,0.244,646.018
140792,154826,13402,0.011,-0.963,-0.072,0.427,0.488,0,646.025
140788,154666,22412,0.011,-0.963,-0.072,0.427,0.488,0,646.028
140788,154821,13399,0.008,-0.964,-0.066,0.427,0.488,0,646.035
140775,154666,22412,0.007,-0.965,-0.067,0.61,0.61,0.183,646.038
140775,154811,13396,0.008,-0.965,-0.072,0.61,0.61,0.183,646.044
140782,154666,22412,0.007,-0.963,-0.063,0.244,0.549,0.183,646.048
140782,154823,13402,0.007,-0.965,-0.065,0.244,0.549,0.183,646.054
140775,154666,22412,0.006,-0.963,-0.066,-0.122,0.427,0.366,646.058
140775,154778,13374,0.009,-0.965,-0.074,-0.122,0.427,0.366,646.064
140792,154666,22412,0.006,-0.967,-0.073,-0.061,0.427,0.305,646.068
140792,154810,13385,0.008,-0.969,-0.065,-0.061,0.427,0.305,646.074
140810,154666,22412,0.008,-0.967,-0.066,0.244,0.427,0.183,646.078
140810,154820,13392,0.006,-0.964,-0.067,0.244,0.427,0.183,646.084
140812,154666,22412,0.007,-0.961,-0.068,-0.183,0.427,0.061,646.088
140812,154812,13395,0.008,-0.963,-0.069,-0.183,0.427,0.061,646.094
140846,154666,22412,0.009,-0.964,-0.065,-0.244,0.427,0.183,646.098
140846,154852,13402,0.011,-0.959,-0.066,-0.244,0.427,0.183,646.104
140848,154666,22412,0.007,-0.96,-0.067,-0.244,0.366,0.244,646.108
140848,154861,13411,0.006,-0.965,-0.066,-0.244,0.366,0.244,646.114
140830,154666,22412,0.009,-0.969,-0.065,-0.61,0.366,0.305,646.118
140830,154867,13409,0.007,-0.966,-0.068,-0.61,0.366,0.305,646.124
140825,154666,22412,0.007,-0.96,-0.067,-0.732,0.305,0.427,646.127
140825,154855,13408,0.012,-0.963,-0.07,-0.732,0.305,0.427,646.134
140817,154666,22412,0.011,-0.966,-0.072,-0.61,0.366,0.366,646.137
140817,154818,13397,0.005,-0.964,-0.071,-0.61,0.366,0.366,646.143
140792,154666,22412,0.004,-0.967,-0.072,-0.183,0.305,0.549,646.147
140792,154817,13398,0.004,-0.966,-0.073,-0.183,0.305,0.549,646.153
140794,154666,22412,0.008,-0.965,-0.068,0,0.366,0.488,646.157
140794,154806,13380,0.008,-0.964,-0.068,0,0.366,0.488,646.163
140799,154666,22412,0.007,-0.96,-0.067,-0.061,0.488,0.122,646.167
140799,154789,13397,0.008,-0.963,-0.074,-0.061,0.488,0.122,646.173
140791,154666,22412,0.006,-0.963,-0.074,-0.244,0.366,0.427,646.177
140791,154808,13384,0.008,-0.964,-0.071,-0.244,0.366,0.427,646.183
140797,154666,22412,0.009,-0.964,-0.062,0.305,0.427,0.488,646.187
140797,154800,13377,0.009,-0.964,-0.062,0.305,0.427,0.488,646.193
140792,154666,22412,0.008,-0.964,-0.063,0.488,0.366,0.488,646.197
140792,154805,13392,0.009,-0.965,-0.064,0.488,0.366,0.488,646.203
140826,154666,22412,0.007,-0.965,-0.066,-0.122,0.366,0.549,646.207
140826,154816,13393,0.005,-0.967,-0.072,-0.122,0.366,0.549,646.213
140811,154666,22412,0.006,-0.967,-0.074,-0.61,0.366,0.732,646.217
140811,154812,13399,0.005,-0.964,-0.066,-0.61,0.366,0.732,646.223
140793,154666,22412,0.007,-0.961,-0.07,-0.488,0.366,0.488,646.226
140793,154827,13386,0.009,-0.965,-0.07,-0.488,0.366,0.488,646.233
140792,154666,22412,0.008,-0.964,-0.067,-0.366,0.366,0.366,646.236
140792,154780,13389,0.005,-0.963,-0.071,-0.366,0.366,0.366,646.243
140779,154666,22412,0.003,-0.962,-0.073,-0.488,0.366,0.427,646.246
140779,154832,13398,0.003,-0.967,-0.072,-0.488,0.366,0.427,646.252
140786,154666,22412,0.004,-0.967,-0.076,-0.061,0.549,0.183,646.256
140786,154798,13404,0.005,-0.961,-0.078,-0.061,0.549,0.183,646.262
140754,154666,22412,0.008,-0.964,-0.07,0.61,0.671,-0.305,646.266
140754,154785,13381,0.009,-0.965,-0.057,0.61,0.671,-0.305,646.272
140774,154666,22412,0.009,-0.958,-0.051,0.854,0.549,-0.366,646.276
140774,154797,13376,0.011,-0.955,-0.06,0.854,0.549,-0.366,646.282
140754,154666,22412,0.013,-0.966,-0.069,-0.915,0.366,0.061,646.286
140754,154787,13384,0.009,-0.968,-0.075,-0.915,0.366,0.061,646.292
140765,154666,22412,0.005,-0.964,-0.07,-1.524,0.183,0.61,646.296
140765,154813,13388,0.003,-0.963,-0.065,-1.524,0.183,0.61,646.302
140804,154666,22412,0.008,-0.963,-0.071,-0.976,0.183,0.488,646.306
140804,154823,13393,0.011,-0.963,-0.072,-0.976,0.183,0.488,646.312
140812,154666,22412,0.011,-0.97,-0.073,-0.976,0.244,0.488,646.316
140812,154842,13388,0.006,-0.969,-0.075,-0.976,0.244,0.488,646.322
140820,154666,22412,0.003,-0.966,-0.073,-0.61,0.244,0.793,646.325
140820,154835,13392,0.005,-0.964,-0.072,-0.61,0.244,0.793,646.332
140816,154666,22412,0.013,-0.962,-0.071,-0.061,0.305,0.549,646.335
140816,154877,13398,0.011,-0.963,-0.072,-0.061,0.305,0.549,646.341
140827,154666,22412,0.008,-0.965,-0.073,0.122,0.366,0.305,646.345
140827,154831,13403,0.003,-0.965,-0.07,0.122,0.366,0.305,646.351
140817,154666,22412,0.002,-0.963,-0.065,0.305,0.427,0.549,646.355
140817,154830,13406,0.007,-0.967,-0.063,0.305,0.427,0.549,646.361
140819,154666,22412,0.004,-0.964,-0.065,-0.061,0.366,0.366,646.365
140819,154816,13395,0.007,-0.964,-0.069,-0.061,0.366,0.366,646.371
140793,154666,22412,0.007,-0.964,-0.076,-1.037,0.427,0.183,646.375
140793,154827,13395,0.008,-0.963,-0.074,-1.037,0.427,0.183,646.381
140809,154666,22412,0.007,-0.964,-0.073,-0.488,0.427,0.183,646.385
140809,154834,13399,0.004,-0.968,-0.074,-0.488,0.427,0.183,646.391
140810,154666,22412,0.01,-0.963,-0.073,0.122,0.488,0.244,646.395
140810,154838,13404,0.011,-0.96,-0.072,0.122,0.488,0.244,646.401
140798,154666,22412,0.01,-0.964,-0.069,0.427,0.366,0.122,646.405
140798,154823,13393,0.012,-0.965,-0.071,0.427,0.366,0.122,646.411
140810,154666,22412,0.011,-0.965,-0.075,0.183,0.427,0.427,646.415
140810,154835,13405,0.005,-0.967,-0.066,0.183,0.427,0.427,646.421
140808,154666,22412,0.006,-0.972,-0.063,0.366,0.305,0.793,646.424
140808,154833,13393,0.002,-0.966,-0.073,0.366,0.305,0.793,646.431
140810,154666,22412,0.003,-0.967,-0.071,0.183,0.488,0.549,646.434
140810,154802,13400,0.01,-0.971,-0.062,0.183,0.488,0.549,646.441
140830,154666,22412,0.01,-0.96,-0.069,0.427,0.61,0,646.444
140830,154836,13397,0.009,-0.958,-0.072,0.427,0.61,0,646.45
140823,154666,22412,0.008,-0.964,-0.066,0.305,0.671,0.183,646.454
140823,154863,13397,0.01,-0.965,-0.058,0.305,0.671,0.183,646.46
140857,154666,22412,0.008,-0.961,-0.06,0.549,0.488,0.488,646.464
140857,154855,13394,0.007,-0.959,-0.065,0.549,0.488,0.488,646.47
140830,154666,22412,0.01,-0.963,-0.07,-0.671,0.427,0.488,646.474
140830,154854,13395,0.006,-0.966,-0.071,-0.671,0.427,0.488,646.48
140847,154666,22412,0.006,-0.966,-0.071,-0.671,0.427,0.488,646.484
140847,154871,13410,0.004,-0.962,-0.068,-0.976,0.183,0.549,646.49
140834,154666,22412,0.004,-0.962,-0.068,-0.976,0.183,0.549,646.494
140834,154829,13400,0.008,-0.965,-0.083,-0.793,0.305,0.427,646.5
140819,154666,22412,0.008,-0.965,-0.083,-0.793,0.305,0.427,646.504
140819,154842,13398,0.006,-0.97,-0.068,-0.61,0.366,0.061,646.51
140841,154666,22412,0.006,-0.97,-0.068,-0.61,0.366,0.061,646.514
140841,154844,13396,0.011,-0.957,-0.072,0.366,0.549,-0.122,646.52
140827,154666,22412,0.011,-0.957,-0.072,0.366,0.549,-0.122,646.523
140827,154862,13414,0.007,-0.964,-0.068,0.244,0.549,-0.305,646.53
140835,154666,22412,0.007,-0.964,-0.068,0.244,0.549,-0.305,646.533
140835,154845,13408,0.01,-0.963,-0.064,0.61,0.488,0.061,646.54
140859,154666,22412,0.01,-0.963,-0.064,0.61,0.488,0.061,646.543
140859,154850,13394,0.009,-0.963,-0.069,0.61,0.488,0.305,646.549
140801,154666,22412,0.009,-0.963,-0.069,0.61,0.488,0.305,646.553
140801,154810,13403,0.007,-0.965,-0.073,0,0.488,0.122,646.559
140819,154666,22412,0.007,-0.965,-0.073,0,0.488,0.122,646.563
140819,154875,13397,0.008,-0.965,-0.059,0,0.366,0.244,646.569
140829,154666,22412,0.008,-0.965,-0.059,0,0.366,0.244,646.573
140829,154845,13393,0.01,-0.962,-0.063,0,0.366,0.183,646.579
140819,154666,22412,0.01,-0.962,-0.063,0,0.366,0.183,646.583
140819,154846,13394,0.011,-0.968,-0.076,-0.732,0.366,0.305,646.589
140818,154666,22412,0.011,-0.968,-0.076,-0.732,0.366,0.305,646.593
140818,154809,13394,0.006,-0.964,-0.069,-0.671,0.305,0.732,646.599
140813,154666,22412,0.006,-0.964,-0.069,-0.671,0.305,0.732,646.603
140813,154828,13401,0.009,-0.965,-0.075,-0.061,0.427,0.488,646.609
140812,154666,22412,0.009,-0.965,-0.075,-0.061,0.427,0.488,646.613
140812,154845,13399,0.005,-0.965,-0.069,0.305,0.549,0.244,646.619
140843,154666,22412,0.005,-0.965,-0.069,0.305,0.549,0.244,646.622
140843,154818,13401,0.01,-0.963,-0.07,0.366,0.549,0.244,646.629
140848,154666,22412,0.01,-0.964,-0.068,0.366,0.549,0.244,646.632
140848,154859,13410,0.01,-0.96,-0.061,0.61,0.549,0.183,646.638
140822,154666,22412,0.011,-0.961,-0.059,0.61,0.549,0.183,646.642
140822,154833,13400,0.009,-0.963,-0.071,0.061,0.488,0.488,646.648
140820,154666,22412,0.005,-0.966,-0.071,0.061,0.488,0.488,646.652
140820,154835,13406,0.006,-0.968,-0.069,-0.61,0.305,0.915,646.658
140851,154666,22412,0.002,-0.966,-0.07,-0.61,0.305,0.915,646.662
140851,154872,13400,0.004,-0.965,-0.07,-0.305,0.427,0.671,646.668
140840,154666,22412,0.008,-0.964,-0.072,-0.305,0.427,0.671,646.672
140840,154867,13387,0.008,-0.964,-0.071,0,0.427,0.122,646.678
140838,154922,22412,0.006,-0.963,-0.07,0,0.427,0.122,646.682
140838,154888,13419,0.009,-0.963,-0.073,0.061,0.366,0.122,646.688
140850,154666,22412,0.007,-0.964,-0.071,0.061,0.366,0.122,646.692
140850,154856,13401,0.005,-0.963,-0.069,0,0.366,0.183,646.698
140835,154666,22412,0.007,-0.963,-0.069,0,0.366,0.183,646.702
140835,154869,13421,0.005,-0.963,-0.072,0.183,0.366,0.061,646.708
140879,154666,22412,0.009,-0.966,-0.065,0.183,0.366,0.061,646.712
140879,154867,13400,0.008,-0.966,-0.061,0.305,0.366,0.061,646.718
140858,154922,22412,0.008,-0.963,-0.064,0.305,0.366,0.061,646.721
140858,154908,13414,0.008,-0.965,-0.068,-0.305,0.305,0.183,646.728
140887,154922,22412,0.006,-0.968,-0.071,-0.305,0.305,0.183,646.731
140887,154903,13402,0.005,-0.966,-0.068,-0.915,0.305,0.122,646.738
140884,154922,22412,0.007,-0.965,-0.067,-0.915,0.305,0.122,646.741
140884,154896,13420,0.009,-0.964,-0.072,-0.671,0.305,-0.183,646.747
140880,154666,22412,0.008,-0.966,-0.076,-0.671,0.305,-0.183,646.751
140880,154875,13406,0.009,-0.966,-0.071,-0.061,0.427,-0.366,646.757
140873,154922,22412,0.006,-0.967,-0.073,-0.061,0.427,-0.366,646.761
140873,154880,13432,0.01,-0.966,-0.071,0.671,0.549,-0.488,646.767
140873,154666,22412,0.013,-0.963,-0.064,0.671,0.549,-0.488,646.771
140873,154859,13413,0.012,-0.961,-0.065,0.732,0.488,-0.427,646.777
140870,154922,22412,0.013,-0.962,-0.073,0.732,0.488,-0.427,646.781
140870,154886,13416,0.009,-0.965,-0.07,0.549,0.61,0,646.787
140873,154922,22412,0.009,-0.964,-0.065,0.549,0.61,0,646.791
140873,154898,13405,0.007,-0.961,-0.064,0.854,0.61,0.305,646.797
140858,154666,22412,0.01,-0.962,-0.065,0.854,0.61,0.305,646.801
140858,154873,13410,0.015,-0.961,-0.07,0.366,0.427,0.244,646.807
140892,154922,22412,0.012,-0.965,-0.063,0.366,0.427,0.244,646.811
140892,154901,13425,0.009,-0.966,-0.064,0,0.305,0.427,646.817
140891,154666,22412,0.01,-0.964,-0.07,0,0.305,0.427,646.82
140891,154877,13417,0.007,-0.963,-0.066,-0.244,0.183,0.732,646.827
140890,154922,22412,0.009,-0.964,-0.067,-0.244,0.183,0.732,646.83
140890,154902,13404,0.011,-0.964,-0.064,-0.366,0.183,0.732,646.836
140892,154922,22412,0.008,-0.965,-0.058,-0.366,0.183,0.732,646.84
140892,154888,13422,0.006,-0.964,-0.057,-0.854,0.122,1.037,646.846
140882,154666,22412,0.003,-0.965,-0.065,-0.854,0.122,1.037,646.85
140882,154875,13423,0.007,-0.966,-0.075,-2.073,0.122,1.22,646.856
140886,154666,22412,0.003,-0.964,-0.079,-2.073,0.122,1.22,646.86
140886,154862,13407,0.006,-0.962,-0.076,-1.585,0.244,0.732,646.866
140885,154922,22412,0.01,-0.961,-0.072,-1.585,0.244,0.732,646.87
140885,154895,13412,0.011,-0.962,-0.068,-0.244,0.427,0.305,646.876
140886,154666,22412,0.01,-0.965,-0.069,-0.244,0.427,0.305,646.88
140886,154872,13427,0.009,-0.965,-0.068,0.183,0.427,0.488,646.886
140881,154922,22412,0.008,-0.967,-0.064,0.183,0.427,0.488,646.89
140881,154898,13429,0.005,-0.967,-0.063,0.061,0.488,0.549,646.896
140900,154922,22412,0.012,-0.963,-0.064,0.061,0.488,0.549,646.9
140900,154907,13416,0.011,-0.964,-0.071,-0.305,0.366,0.366,646.906
140918,154922,22412,0.01,-0.964,-0.072,-0.305,0.366,0.366,646.91
140918,154912,13414,0.009,-0.968,-0.066,-0.488,0.366,0.61,646.916
140893,154922,22412,0.005,-0.967,-0.069,-0.488,0.366,0.61,646.919
140893,154928,13438,0.006,-0.963,-0.068,-0.488,0.366,0.61,646.926
140923,154922,22412,0.008,-0.961,-0.066,-0.488,0.366,0.61,646.929
140923,154937,13422,0.009,-0.961,-0.065,-0.488,0.305,0.488,646.936
140900,154922,22412,0.013,-0.961,-0.068,-0.488,0.305,0.488,646.939
140900,154933,13422,0.011,-0.962,-0.073,-0.854,0.305,0.549,646.945
140908,154922,22412,0.006,-0.965,-0.076,-0.854,0.305,0.549,646.949
140908,154900,13415,0.004,-0.966,-0.072,-0.61,0.305,0.671,646.955
140883,154922,22412,0.005,-0.964,-0.071,-0.61,0.305,0.671,646.959
140883,154901,13429,0.008,-0.961,-0.065,-0.061,0.244,0.549,646.965
140892,154922,22412,0.01,-0.962,-0.068,-0.061,0.244,0.549,646.969
140892,154896,13417,0.009,-0.962,-0.065,-0.427,0.305,0.488,646.975
140886,154666,22412,0.009,-0.962,-0.065,-0.427,0.305,0.488,646.979
140886,154873,13431,0.008,-0.965,-0.07,-0.976,0.244,0.61,646.985
140887,154922,22412,0.007,-0.97,-0.074,-0.976,0.244,0.61,646.989
140887,154890,13427,0.009,-0.964,-0.069,-0.976,0.244,0.671,646.995
140861,154666,22412,0.006,-0.963,-0.067,-0.976,0.244,0.671,646.999
140861,154876,13420,0.008,-0.965,-0.066,-0.854,0.305,0.488,647.005
140868,154666,22412,0.005,-0.966,-0.068,-0.854,0.305,0.488,647.009
140868,154869,13405,0.004,-0.967,-0.068,-0.854,0.305,0.488,647.015
140838,154666,22412,0.005,-0.964,-0.071,-0.854,0.305,0.488,647.018
140838,154861,13424,0.011,-0.966,-0.071,-0.732,0.366,0.305,647.025
140865,154666,22412,0.007,-0.964,-0.068,-0.732,0.366,0.305,647.028
140865,154866,13418,0.005,-0.963,-0.07,-0.61,0.366,0.122,647.034
140859,154922,22412,0.009,-0.963,-0.074,-0.61,0.366,0.122,647.038
140859,154902,13412,0.01,-0.963,-0.071,-0.793,0.488,0,647.044
140852,154922,22412,0.009,-0.966,-0.07,-0.793,0.488,0,647.048
140852,154882,13428,0.009,-0.966,-0.07,-0.122,0.549,0.061,647.054
140883,154666,22412,0.009,-0.963,-0.069,-0.122,0.549,0.061,647.058
140883,154879,13427,0.01,-0.963,-0.068,0.183,0.488,0.183,647.064
140888,154666,22412,0.01,-0.963,-0.068,0.183,0.488,0.183,647.068
140888,154877,13424,0.009,-0.96,-0.057,-0.244,0.427,0.366,647.074
140896,154922,22412,0.009,-0.96,-0.057,-0.244,0.427,0.366,647.078
140896,154888,13410,0.007,-0.965,-0.08,-1.28,0.244,0.61,647.084
140888,154922,22412,0.007,-0.965,-0.08,-1.28,0.244,0.61,647.088
140888,154903,13401,0.01,-0.97,-0.079,-0.854,0.305,0.549,647.094
140894,154922,22412,0.01,-0.97,-0.079,-0.854,0.305,0.549,647.098
140894,154904,13410,0.01,-0.959,-0.067,0.183,0.366,0.183,647.104
140906,154922,22412,0.01,-0.959,-0.067,0.183,0.366,0.183,647.108
140906,154901,13421,0.011,-0.966,-0.075,0,0.427,0.183,647.114
140857,154922,22412,0.011,-0.966,-0.075,0,0.427,0.183,647.117
140857,154895,13417,0.005,-0.966,-0.068,0.549,0.549,0.61,647.124
140851,154922,22412,0.005,-0.966,-0.068,0.549,0.549,0.61,647.127
140851,154881,13405,0.011,-0.959,-0.066,0.549,0.549,0.488,647.134
140852,154922,22412,0.011,-0.959,-0.066,0.549,0.549,0.488,647.137
140852,154880,13418,0.01,-0.966,-0.076,0.122,0.427,0.549,647.143
140817,154922,22412,0.01,-0.966,-0.076,0.122,0.427,0.549,647.147
140817,154881,13428,0.004,-0.967,-0.07,0.488,0.366,0.915,647.153
140862,154666,22412,0.004,-0.967,-0.07,0.488,0.366,0.915,647.157
140862,154862,13406,0.009,-0.962,-0.062,0.488,0.427,0.61,647.163
140846,154666,22412,0.009,-0.962,-0.062,0.488,0.427,0.61,647.167
140846,154845,13421,0.007,-0.963,-0.071,-0.488,0.244,0.488,647.173
140853,154666,22412,0.007,-0.963,-0.071,-0.488,0.244,0.488,647.177
140853,154872,13419,0.007,-0.96,-0.067,-1.037,0.244,0.61,647.183
140857,154666,22412,0.007,-0.96,-0.067,-1.037,0.244,0.61,647.187
140857,154862,13414,0.008,-0.963,-0.075,-1.22,0.305,0.305,647.193
140860,154922,22412,0.008,-0.963,-0.075,-1.22,0.305,0.305,647.197
140860,154896,13412,0.008,-0.966,-0.067,-0.793,0.244,0.305,647.203
140859,154922,22412,0.008,-0.966,-0.067,-0.793,0.244,0.305,647.207
140859,154903,13418,0.007,-0.967,-0.067,-0.793,0.244,0.305,647.213
140864,154666,22412,0.006,-0.962,-0.067,-0.854,0.122,0.305,647.216
140864,154878,13402,0.004,-0.964,-0.069,-0.854,0.122,0.305,647.223
140880,154922,22412,0.007,-0.964,-0.077,-1.28,0.122,0.244,647.226
140880,154921,13425,0.004,-0.97,-0.082,-1.28,0.122,0.244,647.232
140889,154666,22412,0.004,-0.969,-0.085,-0.854,0.244,0.061,647.236
140889,154879,13414,0.007,-0.965,-0.08,-0.854,0.244,0.061,647.242
140849,154666,22412,0.01,-0.961,-0.071,0.549,0.61,-0.183,647.246
140849,154867,13406,0.016,-0.96,-0.068,0.549,0.61,-0.183,647.252
140857,154666,22412,0.012,-0.962,-0.068,1.28,0.671,0,647.256
140857,154840,13409,0.012,-0.964,-0.069,1.28,0.671,0,647.262
140824,154666,22412,0.008,-0.964,-0.066,1.037,0.488,0.793,647.266
140824,154847,13426,0.005,-0.965,-0.06,1.037,0.488,0.793,647.272
140825,154666,22412,0.007,-0.962,-0.063,0.61,0.366,0.915,647.276
140825,154833,13406,0.005,-0.964,-0.065,0.61,0.366,0.915,647.282
140808,154666,22412,0.007,-0.97,-0.071,-0.488,0.366,0.732,647.286
140808,154827,13416,0.005,-0.969,-0.076,-0.488,0.366,0.732,647.292
140797,154666,22412,0.004,-0.964,-0.068,-0.427,0.305,0.671,647.296
140797,154812,13391,0.005,-0.963,-0.06,-0.427,0.305,0.671,647.302
140784,154666,22412,0.008,-0.961,-0.064,0.122,0.427,0.305,647.306
140784,154823,13421,0.014,-0.964,-0.077,0.122,0.427,0.305,647.312
140807,154666,22412,0.013,-0.967,-0.077,-0.305,0.488,0.244,647.315
140807,154815,13393,0.005,-0.963,-0.07,-0.305,0.488,0.244,647.322
140802,154666,22412,0.008,-0.964,-0.063,0.183,0.549,0.61,647.325
140802,154854,13412,0.01,-0.964,-0.066,0.183,0.549,0.61,647.332
140827,154666,22412,0.008,-0.965,-0.07,0.061,0.488,0.671,647.335
140827,154858,13415,0.008,-0.965,-0.067,0.061,0.488,0.671,647.341
140828,154666,22412,0.006,-0.965,-0.071,-0.366,0.366,0.671,647.345
140828,154846,13424,0.004,-0.964,-0.067,-0.366,0.366,0.671,647.351
140806,154666,22412,0.005,-0.961,-0.068,-0.183,0.305,0.854,647.355
140806,154873,13409,0.008,-0.962,-0.069,-0.183,0.305,0.854,647.361
140818,154666,22412,0.01,-0.961,-0.071,-0.183,0.244,0.854,647.365
140818,154845,13404,0.006,-0.966,-0.067,-0.183,0.244,0.854,647.371
140824,154666,22412,0.006,-0.965,-0.06,-0.366,0.183,0.793,647.375
140824,154836,13407,0.007,-0.967,-0.061,-0.366,0.183,0.793,647.381
140797,154666,22412,0.007,-0.963,-0.073,-1.037,0.061,0.793,647.385
140797,154827,13408,0.006,-0.964,-0.08,-1.037,0.061,0.793,647.391
140823,154666,22412,0.004,-0.967,-0.075,-1.524,0.183,0.61,647.395
140823,154850,13413,0.003,-0.965,-0.074,-1.524,0.183,0.61,647.401
140821,154666,22412,0.006,-0.966,-0.078,-0.366,0.366,0.305,647.405
140821,154821,13418,0.006,-0.966,-0.084,-0.366,0.366,0.305,647.411
140816,154666,22412,0.006,-0.969,-0.078,0.366,0.671,0.244,647.414
140816,154835,13409,0.007,-0.961,-0.071,0.366,0.671,0.244,647.421
140846,154666,22412,0.008,-0.961,-0.071,1.159,0.732,-0.061,647.424
140846,154853,13417,0.01,-0.965,-0.072,1.159,0.732,-0.061,647.431
140830,154666,22412,0.01,-0.965,-0.072,1.28,0.915,-0.061,647.434
140830,154858,13403,0.007,-0.964,-0.07,1.28,0.915,-0.061,647.44
140831,154666,22412,0.008,-0.965,-0.067,1.585,0.915,0.183,647.444
140831,154835,13419,0.008,-0.963,-0.06,1.585,0.915,0.183,647.45
140834,154666,22412,0.007,-0.961,-0.057,1.402,0.61,0.305,647.454
140834,154874,13405,0.009,-0.961,-0.051,1.402,0.61,0.305,647.46
140827,154666,22412,0.01,-0.962,-0.06,0.061,0.305,0.488,647.464
140827,154857,13401,0.011,-0.964,-0.065,0.061,0.305,0.488,647.47
140829,154666,22412,0.01,-0.963,-0.067,-1.402,0.183,0.793,647.474
140829,154866,13416,0.009,-0.967,-0.072,-1.402,0.183,0.793,647.48
140808,154666,22412,0.003,-0.968,-0.072,-1.524,0.061,1.037,647.484
140808,154832,13412,0.003,-0.969,-0.073,-1.524,0.061,1.037,647.49
140799,154666,22412,0.008,-0.967,-0.069,-1.037,0.305,0.854,647.494
140799,154834,13411,0.01,-0.964,-0.074,-1.037,0.305,0.854,647.5
140781,154666,22412,0.01,-0.964,-0.078,-0.488,0.427,0.427,647.504
140781,154793,13417,0.009,-0.963,-0.082,-0.488,0.427,0.427,647.51
140800,154666,22412,0.005,-0.968,-0.079,0.122,0.549,0.305,647.513
140800,154849,13404,0.005,-0.969,-0.068,0.122,0.549,0.305,647.52
140775,154666,22412,0.006,-0.964,-0.062,1.341,0.61,0.366,647.523
140775,154844,13405,0.01,-0.959,-0.066,1.341,0.61,0.366,647.529
140804,154666,22412,0.009,-0.967,-0.074,0.793,0.671,0.183,647.533
140804,154830,13400,0.009,-0.971,-0.075,0.793,0.671,0.183,647.539
140811,154666,22412,0.006,-0.97,-0.076,0.549,0.549,0.427,647.543
140811,154822,13412,0.004,-0.964,-0.075,0.549,0.549,0.427,647.549
140820,154666,22412,0.006,-0.965,-0.07,1.22,0.549,0.427,647.553
140820,154873,13406,0.004,-0.963,-0.064,1.22,0.549,0.427,647.559
140804,154666,22412,0.006,-0.96,-0.061,1.402,0.671,0.305,647.563
140804,154875,13422,0.005,-0.96,-0.06,1.402,0.671,0.305,647.569
140827,154666,22412,0.001,-0.966,-0.065,0.671,0.427,0.427,647.573
140827,154853,13418,0.003,-0.966,-0.064,0.671,0.427,0.427,647.579
140811,154666,22412,0.001,-0.967,-0.065,0.061,0.305,0.061,647.583
140811,154858,13425,0.002,-0.965,-0.074,0.061,0.305,0.061,647.589
140845,154666,22412,0.003,-0.963,-0.072,0.061,0.427,-0.732,647.593
140845,154877,13396,0.008,-0.962,-0.065,0.061,0.427,-0.732,647.599
140843,154922,22412,0.008,-0.965,-0.068,0.366,0.427,-1.098,647.603
140843,154881,13417,0.008,-0.964,-0.071,0.366,0.427,-1.098,647.609
140852,154666,22412,0.008,-0.96,-0.068,0.488,0.366,-0.854,647.612
140852,154868,13410,0.01,-0.96,-0.066,0.488,0.366,-0.854,647.619
140869,154666,22412,0.011,-0.965,-0.066,0.61,0.305,-0.793,647.622
140869,154872,13424,0.012,-0.962,-0.07,0.61,0.305,-0.793,647.629
140861,154666,22412,0.007,-0.965,-0.072,0.61,0.305,-0.61,647.632
140861,154875,13423,0.007,-0.967,-0.076,0.61,0.305,-0.61,647.638
140875,154666,22412,0.009,-0.964,-0.072,1.037,0.549,-0.366,647.642
140875,154869,13409,0.012,-0.963,-0.066,1.037,0.549,-0.366,647.648
140848,154666,22412,0.012,-0.963,-0.066,1.037,0.549,-0.366,647.652
140848,154850,13409,0.014,-0.963,-0.07,1.463,0.549,-0.366,647.658
140820,154922,22412,0.014,-0.963,-0.07,1.463,0.549,-0.366,647.662
140820,154890,13425,0.011,-0.969,-0.066,1.585,0.732,0.183,647.668
140824,154666,22412,0.011,-0.969,-0.066,1.585,0.732,0.183,647.672
140824,154861,13405,0.012,-0.961,-0.058,1.89,0.732,0.793,647.678
140804,154666,22412,0.012,-0.961,-0.058,1.89,0.732,0.793,647.682
140804,154874,13430,0.01,-0.963,-0.064,1.402,0.732,1.037,647.688
140821,154922,22412,0.01,-0.963,-0.064,1.402,0.732,1.037,647.692
140821,154881,13413,0.008,-0.964,-0.067,0.976,0.732,1.402,647.698
140852,154922,22412,0.008,-0.964,-0.067,0.976,0.732,1.402,647.702
140852,154898,13425,0.009,-0.959,-0.062,1.098,0.854,1.524,647.708
140882,154922,22412,0.009,-0.959,-0.062,1.098,0.854,1.524,647.711
140882,154909,13433,0.007,-0.962,-0.056,0.976,0.732,1.22,647.718
140909,154922,22412,0.007,-0.962,-0.056,0.976,0.732,1.22,647.721
140909,154894,13422,0.005,-0.963,-0.062,0.061,0.549,1.28,647.727
140884,154922,22412,0.005,-0.963,-0.062,0.061,0.549,1.28,647.731
140884,154907,13442,0.004,-0.964,-0.063,-0.854,0.305,1.402,647.737
140888,154922,22412,0.004,-0.964,-0.063,-0.854,0.305,1.402,647.741
140888,154921,13432,0.002,-0.968,-0.062,-1.037,0.183,1.037,647.747
140909,154922,22412,0.002,-0.968,-0.062,-1.037,0.183,1.037,647.751
140909,154904,13418,0.004,-0.97,-0.077,-1.463,0.122,0.793,647.757
140873,154922,22412,0.004,-0.97,-0.077,-1.463,0.122,0.793,647.761
140873,154928,13439,0.004,-0.962,-0.07,-1.402,0.305,0.61,647.767
140915,154922,22412,0.004,-0.962,-0.07,-1.402,0.305,0.61,647.771
140915,154902,13424,0.012,-0.961,-0.06,-0.366,0.366,0.183,647.777
140866,154922,22412,0.012,-0.961,-0.06,-0.366,0.366,0.183,647.781
140866,154894,13422,0.01,-0.965,-0.063,-0.183,0.427,0.061,647.787
140870,154922,22412,0.01,-0.965,-0.063,-0.183,0.427,0.061,647.791
140870,154931,13440,0.009,-0.961,-0.063,-0.61,0.305,0.305,647.797
140911,154922,22412,0.007,-0.963,-0.066,-0.61,0.305,0.305,647.801
140911,154920,13416,0.006,-0.965,-0.068,-0.915,0.183,0.488,647.807
140890,154922,22412,0.005,-0.964,-0.069,-0.915,0.183,0.488,647.81
140890,154903,13442,0.008,-0.965,-0.073,-0.671,0.244,0.427,647.817
140944,154922,22412,0.006,-0.968,-0.068,-0.671,0.244,0.427,647.82
140944,154937,13422,0.004,-0.967,-0.058,-0.183,0.366,0.366,647.826
140946,154922,22412,0.007,-0.964,-0.061,-0.183,0.366,0.366,647.83
140946,154959,13439,0.006,-0.964,-0.065,-0.549,0.366,0.122,647.836
140945,154922,22412,0.008,-0.963,-0.063,-0.549,0.366,0.122,647.84
140945,154948,13445,0.007,-0.961,-0.069,-1.037,0.305,0.061,647.846
140940,154922,22412,0.006,-0.964,-0.075,-1.037,0.305,0.061,647.85
140940,154959,13445,0.005,-0.966,-0.071,-0.976,0.305,0,647.856
140970,154922,22412,0.01,-0.961,-0.07,-0.976,0.305,0,647.86
140970,154951,13440,0.011,-0.961,-0.065,-0.671,0.427,0,647.866
140943,154922,22412,0.013,-0.963,-0.068,-0.671,0.427,0,647.87
140943,154974,13445,0.013,-0.962,-0.07,-0.671,0.488,0.366,647.876
140976,154922,22412,0.008,-0.97,-0.075,-0.671,0.488,0.366,647.88
140976,154963,13441,0.005,-0.97,-0.072,-0.366,0.488,0.732,647.886
140940,154922,22412,0.006,-0.964,-0.073,-0.366,0.488,0.732,647.89
140940,154939,13436,0.009,-0.962,-0.072,0.122,0.488,0.488,647.896
140967,154922,22412,0.012,-0.963,-0.069,0.122,0.488,0.488,647.9
140967,154958,13431,0.013,-0.965,-0.065,0.427,0.488,0.366,647.906
140940,154922,22412,0.009,-0.965,-0.068,0.427,0.488,0.366,647.909
140940,154949,13445,0.006,-0.965,-0.062,0.427,0.427,0.854,647.916
140946,154922,22412,0.007,-0.963,-0.065,0.427,0.427,0.854,647.919
140946,154951,13448,0.007,-0.961,-0.065,0.305,0.427,0.854,647.925
140964,154922,22412,0.005,-0.961,-0.068,0.305,0.427,0.854,647.929
140964,154925,13435,0.005,-0.965,-0.063,0,0.366,0.732,647.935
140987,154922,22412,0.005,-0.964,-0.063,0,0.366,0.732,647.939
140987,154963,13453,0.002,-0.963,-0.062,0.061,0.305,0.793,647.945
141024,154922,22412,0.004,-0.963,-0.067,0.061,0.305,0.793,647.949
141024,154994,13434,0.009,-0.965,-0.068,-0.427,0.305,0.732,647.955
141045,154922,22412,0.009,-0.967,-0.069,-0.427,0.305,0.732,647.959
141045,154990,13449,0.006,-0.964,-0.073,-0.366,0.366,0.732,647.965
141073,154922,22412,0.005,-0.966,-0.073,-0.366,0.366,0.732,647.969
141073,155052,13459,0.003,-0.968,-0.07,0.061,0.427,0.732,647.975
141103,154922,22412,0.004,-0.967,-0.067,0.061,0.427,0.732,647.979
141103,155040,13473,0.005,-0.964,-0.069,0.549,0.61,0.183,647.985
141101,154922,22412,0.004,-0.966,-0.068,0.549,0.61,0.183,647.989
141101,155056,13462,0.004,-0.967,-0.067,0.732,0.671,-0.305,647.995
141108,154922,22412,0.006,-0.962,-0.063,0.732,0.671,-0.305,647.999
141108,155061,13473,0.003,-0.959,-0.064,0.671,0.549,-0.244,648.005
141091,154922,22412,0.005,-0.959,-0.064,0.671,0.549,-0.244,648.008
141091,155021,13459,0.009,-0.961,-0.066,0.305,0.427,-0.366,648.015
141089,154922,22412,0.009,-0.966,-0.066,0.305,0.427,-0.366,648.018
141089,155018,13465,0.006,-0.966,-0.063,0.183,0.488,-0.305,648.024
141063,154922,22412,0.008,-0.964,-0.063,0.183,0.488,-0.305,648.028
141063,154993,13460,0.008,-0.965,-0.061,0,0.427,-0.183,648.034
141061,154922,22412,0.009,-0.963,-0.065,0,0.427,-0.183,648.038
141061,155026,13451,0.01,-0.964,-0.073,-0.305,0.366,-0.305,648.044
141019,154922,22412,0.006,-0.968,-0.068,-0.305,0.366,-0.305,648.048
141019,155011,13457,0.006,-0.969,-0.061,0.122,0.366,-0.366,648.054
141032,154922,22412,0.009,-0.966,-0.062,0.122,0.366,-0.366,648.058
141032,155026,13449,0.007,-0.965,-0.067,0.244,0.427,-0.488,648.064
141042,154922,22412,0.007,-0.968,-0.064,0.244,0.427,-0.488,648.068
141042,155007,13445,0.009,-0.966,-0.067,-0.061,0.427,-0.732,648.074
141021,154922,22412,0.007,-0.968,-0.074,-0.061,0.427,-0.732,648.078
141021,155015,13455,0.007,-0.966,-0.068,0.305,0.488,-0.671,648.084
141030,154922,22412,0.008,-0.96,-0.064,0.305,0.488,-0.671,648.088
141030,155012,13454,0.011,-0.96,-0.061,0.854,0.732,-0.854,648.094
141006,154922,22412,0.016,-0.964,-0.06,0.854,0.732,-0.854,648.098
141006,155026,13458,0.015,-0.963,-0.057,0.915,0.671,-0.61,648.104
141003,154922,22412,0.011,-0.962,-0.058,0.915,0.671,-0.61,648.107
141003,154977,13441,0.01,-0.963,-0.056,0.244,0.549,0.183,648.114
140977,154922,22412,0.011,-0.965,-0.06,0.244,0.549,0.183,648.117
140977,154972,13434,0.011,-0.963,-0.068,-0.61,0.366,0.61,648.124
140986,154922,22412,0.006,-0.962,-0.069,-0.61,0.366,0.61,648.127
140986,154990,13444,0.008,-0.965,-0.067,-0.915,0.244,0.732,648.133
141003,154922,22412,0.01,-0.966,-0.064,-0.915,0.244,0.732,648.137
141003,155008,13449,0.008,-0.964,-0.067,-0.732,0.122,0.854,648.143
140990,154922,22412,0.009,-0.965,-0.071,-0.732,0.122,0.854,648.147
140990,155010,13448,0.008,-0.97,-0.07,-0.549,0.122,1.098,648.153
141002,154922,22412,0.006,-0.968,-0.063,-0.549,0.122,1.098,648.157
141002,154963,13445,0.006,-0.967,-0.058,-0.183,0.122,1.28,648.163
141020,154922,22412,0.006,-0.966,-0.064,-0.183,0.122,1.28,648.167
141020,155027,13438,0.002,-0.964,-0.073,-1.037,0.122,1.098,648.173
141033,154922,22412,0.003,-0.967,-0.081,-1.037,0.122,1.098,648.177
141033,155011,13452,0.003,-0.969,-0.069,-1.037,0.305,0.732,648.183
141024,154922,22412,0.004,-0.965,-0.072,-1.037,0.305,0.732,648.187
141024,155022,13470,0.006,-0.964,-0.07,0.427,0.427,0.305,648.193
141033,154922,22412,0.007,-0.964,-0.062,0.427,0.427,0.305,648.197
141033,155008,13454,0.007,-0.963,-0.062,0.976,0.488,0.122,648.203
141039,154922,22412,0.01,-0.964,-0.069,0.976,0.488,0.122,648.206
141039,155026,13435,0.01,-0.965,-0.071,0.793,0.488,0.305,648.213
141047,154922,22412,0.006,-0.966,-0.074,0.793,0.488,0.305,648.216
141047,155026,13459,0.007,-0.969,-0.074,1.341,0.671,0.305,648.222
141055,154922,22412,0.007,-0.966,-0.063,1.341,0.671,0.305,648.226
141055,155025,13473,0.007,-0.964,-0.064,2.073,0.793,0.183,648.232
141050,154922,22412,0.007,-0.964,-0.064,2.073,0.793,0.183,648.236
141050,155019,13464,0.009,-0.964,-0.065,1.768,0.793,-0.244,648.242
141059,154922,22412,0.009,-0.964,-0.065,1.768,0.793,-0.244,648.246
141059,155053,13458,0.006,-0.964,-0.064,1.646,0.854,-0.244,648.252
141071,154922,22412,0.006,-0.964,-0.064,1.646,0.854,-0.244,648.256
141071,155067,13470,0.005,-0.962,-0.053,1.707,0.793,-0.122,648.262
141125,154922,22412,0.005,-0.962,-0.053,1.707,0.793,-0.122,648.266
141125,155067,13472,0.009,-0.959,-0.054,1.037,0.61,-0.366,648.272
141093,154922,22412,0.009,-0.959,-0.054,1.037,0.61,-0.366,648.276
141093,155056,13466,0.012,-0.962,-0.058,0.183,0.549,-0.366,648.282
141083,154922,22412,0.012,-0.962,-0.058,0.183,0.549,-0.366,648.286
141083,155088,13482,0.011,-0.966,-0.064,0,0.488,0.183,648.292
141106,154922,22412,0.011,-0.966,-0.064,0,0.488,0.183,648.295
141106,155064,13475,0.014,-0.964,-0.059,0.061,0.488,0.549,648.302
141089,154922,22412,0.014,-0.964,-0.059,0.061,0.488,0.549,648.305
141089,155062,13465,0.009,-0.967,-0.059,-0.549,0.305,0.976,648.312
141097,154922,22412,0.009,-0.967,-0.059,-0.549,0.305,0.976,648.315
141097,155080,13463,0.011,-0.965,-0.065,-1.22,0.183,1.463,648.321
141095,154922,22412,0.011,-0.965,-0.065,-1.22,0.183,1.463,648.325
141095,155074,13473,0.004,-0.968,-0.061,-1.098,0.366,1.646,648.331
141079,154922,22412,0.004,-0.968,-0.061,-1.098,0.366,1.646,648.335
141079,155047,13477,0.007,-0.96,-0.071,-0.976,0.366,1.585,648.341
141102,154922,22412,0.007,-0.96,-0.071,-0.976,0.366,1.585,648.345
141102,155050,13463,0.005,-0.966,-0.066,-0.732,0.427,1.28,648.351
141100,154922,22412,0.005,-0.966,-0.066,-0.732,0.427,1.28,648.355
141100,155058,13478,0.002,-0.96,-0.057,0,0.366,0.854,648.361
141128,154922,22412,0.002,-0.96,-0.057,0,0.366,0.854,648.365
141128,155086,13468,0.006,-0.961,-0.062,-0.366,0.305,0.122,648.371
141116,154922,22412,0.006,-0.961,-0.062,-0.366,0.305,0.122,648.375
141116,155074,13470,0.009,-0.966,-0.061,-0.366,0.305,0.122,648.381
141127,154922,22412,0.007,-0.969,-0.066,-0.915,0.244,-0.122,648.385
141127,155079,13465,0.006,-0.968,-0.071,-0.915,0.244,-0.122,648.391
141100,154922,22412,0.006,-0.967,-0.066,-0.671,0.305,-0.183,648.395
141100,155056,13471,0.009,-0.965,-0.062,-0.671,0.305,-0.183,648.401
141105,154922,22412,0.012,-0.961,-0.061,-0.244,0.488,-0.488,648.404
141105,155062,13478,0.011,-0.96,-0.062,-0.244,0.488,-0.488,648.411
141100,154922,22412,0.011,-0.964,-0.063,-0.366,0.488,-0.305,648.414
141100,155028,13470,0.013,-0.964,-0.061,-0.366,0.488,-0.305,648.42
141068,154922,22412,0.009,-0.965,-0.061,-0.976,0.305,0.61,648.424
141068,155039,13475,0.007,-0.965,-0.064,-0.976,0.305,0.61,648.43
141080,154922,22412,0.008,-0.964,-0.065,-1.524,0.122,0.915,648.434
141080,155052,13485,0.009,-0.968,-0.073,-1.524,0.122,0.915,648.44
141069,154922,22412,0.007,-0.969,-0.067,-1.402,0.122,0.915,648.444
141069,155014,13455,0.008,-0.965,-0.071,-1.402,0.122,0.915,648.45
141059,154922,22412,0.007,-0.965,-0.072,-0.915,0.122,1.037,648.454
141059,155029,13485,0.005,-0.968,-0.068,-0.915,0.122,1.037,648.46
141100,154922,22412,0.006,-0.964,-0.069,-0.427,0.244,0.976,648.464
141100,155066,13462,0.006,-0.966,-0.07,-0.427,0.244,0.976,648.47
141108,154922,22412,0.007,-0.966,-0.06,-0.061,0.305,0.549,648.474
141108,155056,13481,0.007,-0.965,-0.062,-0.061,0.305,0.549,648.48
141104,154922,22412,0.007,-0.965,-0.067,0.183,0.427,0.183,648.484
141104,155100,13488,0.008,-0.965,-0.075,0.183,0.427,0.183,648.49
141130,154922,22412,0.008,-0.965,-0.077,0.305,0.549,0.061,648.493
141130,155119,13477,0.007,-0.967,-0.072,0.305,0.549,0.061,648.5
141158,154922,22412,0.006,-0.965,-0.065,1.402,0.732,0.061,648.503
141158,155120,13494,0.005,-0.966,-0.062,1.402,0.732,0.061,648.51
141183,154922,22412,0.003,-0.965,-0.059,2.073,0.915,-0.183,648.513
141183,155120,13480,0.007,-0.964,-0.055,2.073,0.915,-0.183,648.519
141186,154922,22412,0.012,-0.959,-0.052,1.768,0.854,-0.549,648.523
141186,155133,13495,0.01,-0.958,-0.056,1.768,0.854,-0.549,648.529
141214,155178,22412,0.005,-0.963,-0.065,0.915,0.671,-0.305,648.533
141214,155138,13494,0.005,-0.965,-0.066,0.915,0.671,-0.305,648.539
141234,155178,22412,0.007,-0.967,-0.059,0.671,0.671,-0.305,648.543
141234,155154,13480,0.01,-0.962,-0.053,0.671,0.671,-0.305,648.549
141210,155178,22412,0.011,-0.955,-0.055,0.61,0.427,-0.61,648.553
141210,155172,13496,0.013,-0.96,-0.059,0.61,0.427,-0.61,648.559
141243,155178,22412,0.01,-0.966,-0.064,-0.671,0.305,-0.305,648.563
141243,155143,13491,0.011,-0.968,-0.068,-0.671,0.305,-0.305,648.569
141226,155178,22412,0.011,-0.968,-0.063,-0.793,0.244,0.122,648.573
141226,155167,13491,0.006,-0.966,-0.058,-0.793,0.244,0.122,648.579
141229,155178,22412,0.008,-0.964,-0.061,-0.671,0.183,0,648.583
141229,155140,13498,0.011,-0.964,-0.065,-0.671,0.183,0,648.589
141194,155178,22412,0.013,-0.967,-0.068,-0.915,0.122,0,648.593
141194,155149,13481,0.009,-0.968,-0.069,-0.915,0.122,0,648.599
141189,155178,22412,0.004,-0.961,-0.066,-0.427,0.122,0.183,648.602
141189,155141,13505,0.008,-0.961,-0.066,-0.427,0.122,0.183,648.609
141215,154922,22412,0.01,-0.965,-0.067,-0.244,0.183,0.122,648.612
141215,155106,13485,0.01,-0.968,-0.066,-0.244,0.183,0.122,648.618
141189,154922,22412,0.006,-0.968,-0.063,-0.122,0.366,0.244,648.622
141189,155125,13491,0.008,-0.965,-0.064,-0.122,0.366,0.244,648.628
141215,154922,22412,0.008,-0.965,-0.065,-0.366,0.488,0.122,648.632
141215,155128,13487,0.013,-0.966,-0.066,-0.366,0.488,0.122,648.638
141203,154922,22412,0.012,-0.963,-0.056,-0.061,0.549,-0.061,648.642
141203,155119,13494,0.012,-0.959,-0.056,-0.061,0.549,-0.061,648.648
141199,154922,22412,0.013,-0.959,-0.058,-0.305,0.427,0.305,648.652
141199,155113,13487,0.013,-0.962,-0.067,-0.305,0.427,0.305,648.658
141192,154922,22412,0.007,-0.967,-0.07,-1.463,0.305,0.671,648.662
141192,155106,13485,0.01,-0.97,-0.071,-1.463,0.305,0.671,648.668
141185,154922,22412,0.009,-0.966,-0.069,-1.22,0.427,0.793,648.672
141185,155115,13498,0.012,-0.963,-0.063,-1.22,0.427,0.793,648.678
141177,154922,22412,0.013,-0.966,-0.064,-0.61,0.427,0.671,648.682
141177,155121,13481,0.008,-0.965,-0.07,-0.61,0.427,0.671,648.688
141165,154922,22412,0.008,-0.964,-0.069,-0.793,0.366,0.61,648.692
141165,155101,13477,0.009,-0.965,-0.068,-0.793,0.366,0.61,648.698
141120,154922,22412,0.007,-0.965,-0.068,-0.671,0.366,0.549,648.701
141120,155093,13491,0.01,-0.964,-0.064,-0.671,0.366,0.549,648.708
141121,154922,22412,0.01,-0.965,-0.062,0,0.427,0.61,648.711
141121,155070,13482,0.009,-0.964,-0.062,0,0.427,0.61,648.717
141108,154922,22412,0.004,-0.963,-0.055,-0.061,0.305,0.915,648.721
141108,155044,13472,0.004,-0.96,-0.058,-0.061,0.305,0.915,648.727
141084,154922,22412,0.008,-0.964,-0.065,-0.976,0.183,0.854,648.731
141084,155080,13480,0.008,-0.97,-0.074,-0.976,0.183,0.854,648.737
141079,154922,22412,0.009,-0.971,-0.076,-1.098,0.305,0.61,648.741
141079,155048,13475,0.002,-0.969,-0.07,-1.098,0.305,0.61,648.747
141097,154922,22412,-0.001,-0.966,-0.07,0.183,0.488,0.61,648.751
141097,155050,13471,0.004,-0.965,-0.069,0.183,0.488,0.61,648.757
141106,154922,22412,0.007,-0.964,-0.068,0.427,0.549,0,648.761
141106,155061,13470,0.009,-0.966,-0.062,0.427,0.549,0,648.767
141110,154922,22412,0.011,-0.963,-0.063,0.793,0.488,-0.183,648.771
141110,155057,13502,0.012,-0.96,-0.066,0.793,0.488,-0.183,648.777
141141,154922,22412,0.01,-0.962,-0.073,0.61,0.549,0.122,648.781
141141,155088,13477,0.01,-0.965,-0.072,0.61,0.549,0.122,648.787
141162,154922,22412,0.011,-0.968,-0.068,0.793,0.61,0.366,648.791
141162,155083,13467,0.01,-0.965,-0.066,0.793,0.61,0.366,648.797
141173,154922,22412,0.009,-0.964,-0.065,1.402,0.671,0.488,648.8
141173,155096,13491,0.008,-0.966,-0.067,1.402,0.671,0.488,648.807
141209,154922,22412,0.009,-0.967,-0.069,1.768,0.854,0.549,648.81
141209,155121,13493,0.01,-0.973,-0.064,1.768,0.854,0.549,648.816
141219,154922,22412,0.006,-0.969,-0.059,2.073,0.915,0.427,648.82
141219,155119,13485,0.007,-0.963,-0.054,2.073,0.915,0.427,648.826
141214,154922,22412,0.007,-0.963,-0.054,2.073,0.915,0.427,648.83
141214,155127,13480,0.004,-0.963,-0.054,1.89,0.854,0.305,648.836
141205,154922,22412,0.004,-0.963,-0.054,1.89,0.854,0.305,648.84
141205,155097,13491,0.006,-0.961,-0.056,0.671,0.427,0.183,648.846
141206,154922,22412,0.006,-0.961,-0.056,0.671,0.427,0.183,648.85
141206,155121,13485,0.007,-0.964,-0.061,-0.244,0.366,0,648.856
141175,154922,22412,0.007,-0.964,-0.061,-0.244,0.366,0,648.86
141175,155081,13476,0.012,-0.958,-0.062,-0.183,0.427,-0.244,648.866
