141673,155178,22412,0.034,-0.962,-0.038,2.012,0.488,-0.305,577.657
141673,155244,13456,0.03,-0.963,-0.036,2.012,0.488,-0.305,577.663
141674,155178,22412,0.028,-0.963,-0.028,2.378,0.488,0,577.667
141674,155235,13451,0.028,-0.958,-0.019,2.378,0.488,0,577.673
141691,155178,22412,0.027,-0.953,-0.022,1.463,0.61,0.671,577.677
141691,155247,13434,0.029,-0.948,-0.031,1.463,0.61,0.671,577.683
141699,155178,22412,0.028,-0.956,-0.032,-0.305,0.61,0.732,577.686
141699,155265,13449,0.029,-0.964,-0.029,-0.305,0.61,0.732,577.693
141682,155178,22412,0.028,-0.963,-0.029,-0.976,0.305,0.915,577.696
141682,155261,13448,0.027,-0.957,-0.033,-0.976,0.305,0.915,577.703
141673,155178,22412,0.026,-0.959,-0.042,-2.073,0.244,1.22,577.706
141673,155254,13443,0.028,-0.964,-0.045,-2.073,0.244,1.22,577.712
141681,155178,22412,0.025,-0.973,-0.049,-2.256,0.427,1.28,577.716
141681,155248,13438,0.022,-0.981,-0.05,-2.256,0.427,1.28,577.722
141688,155178,22412,0.022,-0.988,-0.046,-0.732,0.61,1.159,577.726
141688,155254,13442,0.02,-0.988,-0.044,-0.732,0.61,1.159,577.732
141707,155178,22412,0.017,-0.973,-0.041,0.244,0.61,0.915,577.736
141707,155258,13431,0.021,-0.962,-0.039,0.244,0.61,0.915,577.742
141700,155178,22412,0.021,-0.963,-0.041,0.305,0.366,0.183,577.746
141700,155254,13446,0.025,-0.97,-0.036,0.305,0.366,0.183,577.752
141720,155178,22412,0.027,-0.968,-0.035,0.366,0.305,-0.549,577.756
141720,155265,13449,0.028,-0.961,-0.032,0.366,0.305,-0.549,577.762
141723,155178,22412,0.03,-0.951,-0.033,0.122,0.305,-0.366,577.766
141723,155268,13466,0.023,-0.944,-0.033,0.122,0.305,-0.366,577.772
141729,155178,22412,0.029,-0.947,-0.029,-0.366,0.122,0,577.776
141729,155290,13450,0.03,-0.955,-0.031,-0.366,0.122,0,577.782
141732,155178,22412,0.032,-0.961,-0.038,-1.037,0.244,0.244,577.785
141732,155283,13453,0.029,-0.966,-0.041,-1.037,0.244,0.244,577.792
141725,155178,22412,0.025,-0.968,-0.04,-1.524,0.427,0.671,577.795
141725,155292,13451,0.025,-0.974,-0.049,-1.524,0.427,0.671,577.802
141712,155178,22412,0.025,-0.978,-0.047,-1.341,0.427,0.915,577.805
141712,155287,13449,0.023,-0.98,-0.045,-1.341,0.427,0.915,577.811
141699,155178,22412,0.024,-0.974,-0.045,-0.305,0.427,0.732,577.815
141699,155267,13430,0.025,-0.971,-0.045,-0.305,0.427,0.732,577.821
141696,155178,22412,0.029,-0.969,-0.041,0.549,0.488,0.488,577.825
141696,155270,13451,0.026,-0.969,-0.035,0.549,0.488,0.488,577.831
141655,155178,22412,0.021,-0.969,-0.028,0.915,0.671,0.427,577.835
141655,155254,13465,0.023,-0.963,-0.03,0.915,0.671,0.427,577.841
141634,155178,22412,0.024,-0.959,-0.037,0.061,0.549,0.366,577.845
141634,155209,13430,0.023,-0.959,-0.039,0.061,0.549,0.366,577.851
141591,155178,22412,0.025,-0.958,-0.032,-0.305,0.305,0.183,577.855
141591,155211,13438,0.026,-0.962,-0.033,-0.305,0.305,0.183,577.861
141571,155178,22412,0.024,-0.963,-0.037,-0.366,0.366,0.244,577.865
141571,155211,13427,0.021,-0.963,-0.036,-0.366,0.366,0.244,577.871
141570,155178,22412,0.022,-0.964,-0.036,-0.854,0.366,0.183,577.875
141570,155202,13428,0.024,-0.968,-0.036,-0.854,0.366,0.183,577.881
141570,155178,22412,0.027,-0.964,-0.039,-1.098,0.122,0.061,577.884
141570,155222,13407,0.027,-0.965,-0.046,-1.098,0.122,0.061,577.891
141584,155178,22412,0.028,-0.968,-0.045,-0.61,0.305,0.061,577.894
141584,155190,13425,0.023,-0.976,-0.046,-0.61,0.305,0.061,577.901
141603,155178,22412,0.023,-0.976,-0.042,0.427,0.427,0.244,577.904
141603,155221,13438,0.024,-0.968,-0.042,0.427,0.427,0.244,577.91
141599,155178,22412,0.026,-0.966,-0.044,1.037,0.427,0.183,577.914
141599,155237,13429,0.028,-0.966,-0.038,1.037,0.427,0.183,577.92
141593,155178,22412,0.027,-0.965,-0.034,1.402,0.671,0.183,577.924
141593,155208,13427,0.025,-0.966,-0.035,1.402,0.671,0.183,577.93
141571,155178,22412,0.025,-0.96,-0.031,0.915,0.61,0.305,577.934
141571,155219,13436,0.028,-0.961,-0.026,0.915,0.61,0.305,577.94
141587,155178,22412,0.026,-0.961,-0.027,0.366,0.305,0.549,577.944
141587,155207,13442,0.021,-0.964,-0.03,0.366,0.305,0.549,577.95
141564,155178,22412,0.019,-0.967,-0.034,-0.732,0.244,0.549,577.954
141564,155210,13426,0.024,-0.966,-0.036,-0.732,0.244,0.549,577.96
141564,155178,22412,0.024,-0.966,-0.036,-0.732,0.244,0.549,577.964
141564,155223,13432,0.031,-0.959,-0.042,-1.341,0.122,0,577.97
141605,155178,22412,0.031,-0.959,-0.042,-1.341,0.122,0,577.974
141605,155219,13421,0.03,-0.963,-0.044,-1.037,0.061,-0.244,577.98
141573,155178,22412,0.03,-0.963,-0.044,-1.037,0.061,-0.244,577.984
141573,155208,13442,0.031,-0.965,-0.048,-0.061,0.488,0,577.99
141594,155178,22412,0.031,-0.965,-0.048,-0.061,0.488,0,577.993
141594,155207,13446,0.024,-0.965,-0.033,1.28,0.976,0.427,578
141579,155178,22412,0.024,-0.965,-0.033,1.28,0.976,0.427,578.003
141579,155206,13440,0.025,-0.967,-0.039,2.012,0.915,0.671,578.009
141562,155178,22412,0.025,-0.967,-0.039,2.012,0.915,0.671,578.013
141562,155195,13413,0.028,-0.977,-0.036,1.22,0.793,0.366,578.019
141573,155178,22412,0.028,-0.977,-0.036,1.22,0.793,0.366,578.023
141573,155224,13449,0.022,-0.964,-0.039,1.037,0.854,0.366,578.029
141589,155178,22412,0.022,-0.964,-0.039,1.037,0.854,0.366,578.033
141589,155208,13430,0.026,-0.969,-0.026,0.732,0.671,0.427,578.039
141582,155178,22412,0.026,-0.969,-0.026,0.732,0.671,0.427,578.043
141582,155197,13430,0.029,-0.96,-0.03,0.549,0.488,0.244,578.049
141597,155178,22412,0.029,-0.96,-0.03,0.549,0.488,0.244,578.053
141597,155222,13442,0.027,-0.954,-0.027,-0.488,0.366,0.183,578.059
141613,155178,22412,0.027,-0.954,-0.027,-0.488,0.366,0.183,578.063
141613,155217,13433,0.022,-0.962,-0.026,-1.098,0.122,0.427,578.069
141601,155178,22412,0.022,-0.962,-0.026,-1.098,0.122,0.427,578.073
141601,155242,13430,0.025,-0.96,-0.047,-2.012,0.061,0.671,578.079
141598,155178,22412,0.025,-0.96,-0.047,-2.012,0.061,0.671,578.082
141598,155213,13433,0.029,-0.973,-0.061,-2.866,0.061,0.366,578.089
141576,155178,22412,0.029,-0.973,-0.061,-2.866,0.061,0.366,578.092
141576,155238,13446,0.029,-0.98,-0.059,-1.098,0.366,0.183,578.099
141577,155178,22412,0.029,-0.98,-0.059,-1.098,0.366,0.183,578.102
141577,155233,13430,0.023,-0.988,-0.05,2.134,0.976,0.488,578.108
141580,155178,22412,0.018,-0.986,-0.044,2.134,0.976,0.488,578.112
141580,155231,13432,0.021,-0.977,-0.043,4.024,1.22,0.366,578.118
141578,155178,22412,0.026,-0.969,-0.031,4.024,1.22,0.366,578.122
141578,155233,13445,0.03,-0.963,-0.023,4.085,1.037,-0.488,578.128
141588,155178,22412,0.03,-0.96,-0.021,4.085,1.037,-0.488,578.132
141588,155238,13433,0.029,-0.949,-0.02,2.805,1.037,-0.305,578.138
141598,155178,22412,0.029,-0.948,-0.025,2.805,1.037,-0.305,578.142
141598,155238,13435,0.026,-0.95,-0.027,1.037,0.915,0.305,578.148
141608,155178,22412,0.023,-0.947,-0.024,1.037,0.915,0.305,578.152
141608,155262,13449,0.024,-0.948,-0.021,0,0.793,0.549,578.158
141629,155178,22412,0.029,-0.943,-0.02,0,0.793,0.549,578.162
141629,155239,13453,0.03,-0.948,-0.019,-1.22,0.305,0.61,578.168
141623,155178,22412,0.033,-0.951,-0.025,-1.22,0.305,0.61,578.172
141623,155242,13445,0.03,-0.958,-0.037,-2.988,0.061,0.854,578.178
141595,155178,22412,0.028,-0.968,-0.046,-2.988,0.061,0.854,578.182
141595,155264,13445,0.028,-0.978,-0.054,-3.537,0.366,1.22,578.188
141617,155178,22412,0.023,-0.985,-0.052,-3.537,0.366,1.22,578.191
141617,155254,13445,0.026,-0.991,-0.051,-1.768,0.549,1.22,578.198
141608,155178,22412,0.023,-0.995,-0.053,-1.768,0.549,1.22,578.201
141608,155258,13446,0.023,-0.985,-0.048,-0.244,0.671,1.098,578.207
141629,155178,22412,0.023,-0.976,-0.045,-0.244,0.671,1.098,578.211
141629,155253,13449,0.026,-0.967,-0.042,0.732,0.793,0.549,578.217
141606,155178,22412,0.028,-0.966,-0.036,0.732,0.793,0.549,578.221
141606,155246,13452,0.029,-0.963,-0.036,1.646,0.671,0.183,578.227
141618,155178,22412,0.025,-0.96,-0.033,1.646,0.671,0.183,578.231
141618,155290,13443,0.019,-0.961,-0.035,1.463,0.732,0.366,578.237
141638,155178,22412,0.022,-0.958,-0.032,1.463,0.732,0.366,578.241
141638,155272,13450,0.023,-0.957,-0.029,1.159,0.549,0.244,578.247
141636,155178,22412,0.022,-0.954,-0.027,1.159,0.549,0.244,578.251
141636,155295,13455,0.025,-0.953,-0.032,0.305,0.122,0.061,578.257
141619,155178,22412,0.027,-0.957,-0.035,0.305,0.122,0.061,578.261
141619,155282,13453,0.029,-0.964,-0.035,-0.427,-0.183,0.122,578.267
141634,155178,22412,0.026,-0.97,-0.035,-0.427,-0.183,0.122,578.271
141634,155287,13460,0.022,-0.972,-0.039,-0.427,0.366,0.183,578.277
141644,155178,22412,0.022,-0.974,-0.045,-0.427,0.366,0.183,578.28
141644,155287,13452,0.023,-0.969,-0.043,-0.183,0.549,-0.061,578.287
141650,155178,22412,0.025,-0.971,-0.04,-0.183,0.549,-0.061,578.29
141650,155309,13463,0.023,-0.974,-0.036,0.793,0.244,-0.488,578.297
141645,155178,22412,0.028,-0.971,-0.039,0.793,0.244,-0.488,578.3
141645,155317,13459,0.028,-0.967,-0.038,1.22,0.549,-0.671,578.306
141660,155178,22412,0.028,-0.963,-0.036,1.22,0.549,-0.671,578.31
141660,155305,13455,0.028,-0.959,-0.03,1.28,0.61,-0.549,578.316
141691,155178,22412,0.029,-0.956,-0.031,1.28,0.61,-0.549,578.32
141691,155321,13475,0.031,-0.955,-0.032,0.976,0.488,-0.427,578.326
141666,155178,22412,0.032,-0.955,-0.032,0.976,0.488,-0.427,578.33
141666,155298,13481,0.033,-0.958,-0.029,0.366,0.549,0,578.336
141673,155178,22412,0.028,-0.964,-0.026,0.366,0.549,0,578.34
141673,155327,13472,0.022,-0.967,-0.026,-0.122,0.366,0.793,578.346
141679,155178,22412,0.025,-0.967,-0.03,-0.122,0.366,0.793,578.35
141679,155366,13460,0.025,-0.964,-0.033,-1.22,0.305,0.793,578.356
141715,155178,22412,0.026,-0.969,-0.032,-1.22,0.305,0.793,578.36
141715,155346,13469,0.028,-0.973,-0.036,-1.524,0.183,0.549,578.366
141725,155178,22412,0.027,-0.972,-0.037,-1.524,0.183,0.549,578.37
141725,155375,13484,0.028,-0.97,-0.042,-1.768,0,0.671,578.376
141723,155178,22412,0.028,-0.966,-0.036,-1.768,0,0.671,578.379
141723,155335,13479,0.026,-0.961,-0.032,-1.402,0.366,0.854,578.386
141720,155178,22412,0.027,-0.953,-0.042,-1.402,0.366,0.854,578.389
141720,155356,13478,0.029,-0.962,-0.054,-1.341,0.549,0.854,578.396
141742,155178,22412,0.028,-0.981,-0.048,-1.341,0.549,0.854,578.399
141742,155352,13467,0.024,-0.983,-0.045,0,0.976,0.732,578.405
141729,155178,22412,0.021,-0.967,-0.048,0,0.976,0.732,578.409
141729,155358,13492,0.026,-0.96,-0.041,1.037,0.854,0.671,578.415
141773,155178,22412,0.029,-0.957,-0.029,1.037,0.854,0.671,578.419
141773,155378,13490,0.028,-0.961,-0.023,1.646,0.732,0.61,578.425
141760,155178,22412,0.025,-0.967,-0.027,1.646,0.732,0.61,578.429
141760,155389,13497,0.025,-0.964,-0.033,0.488,0.976,0.61,578.435
141772,155178,22412,0.023,-0.964,-0.031,0.488,0.976,0.61,578.439
141772,155381,13470,0.023,-0.965,-0.028,-0.488,0.671,0.61,578.445
141757,155178,22412,0.025,-0.965,-0.033,-0.488,0.671,0.61,578.449
141757,155376,13493,0.025,-0.967,-0.033,-1.037,0.183,0.427,578.455
141739,155178,22412,0.025,-0.969,-0.031,-1.037,0.183,0.427,578.459
141739,155355,13481,0.026,-0.962,-0.032,-1.646,0.305,0.366,578.465
141738,155434,22412,0.025,-0.958,-0.033,-1.646,0.305,0.366,578.469
141738,155394,13477,0.026,-0.956,-0.031,-2.073,0.183,0.488,578.475
141726,155178,22412,0.028,-0.96,-0.036,-2.073,0.183,0.488,578.478
141726,155382,13487,0.025,-0.968,-0.047,-2.134,0.183,0.427,578.485
141711,155178,22412,0.026,-0.977,-0.051,-2.134,0.183,0.427,578.488
141711,155373,13486,0.025,-0.977,-0.051,-1.22,0.427,0.366,578.495
141731,155178,22412,0.022,-0.977,-0.048,-1.22,0.427,0.366,578.498
141731,155335,13474,0.024,-0.974,-0.036,0.549,0.244,0.244,578.504
141714,155178,22412,0.027,-0.966,-0.034,0.549,0.244,0.244,578.508
141714,155387,13487,0.027,-0.963,-0.038,0.793,0.061,-0.061,578.514
141738,155178,22412,0.028,-0.966,-0.033,0.793,0.061,-0.061,578.518
141738,155381,13500,0.027,-0.968,-0.038,0.549,0.366,-0.122,578.524
141732,155178,22412,0.026,-0.962,-0.032,0.549,0.366,-0.122,578.528
141732,155388,13483,0.027,-0.961,-0.029,0.488,0.488,0.244,578.534
141730,155178,22412,0.028,-0.957,-0.024,0.488,0.488,0.244,578.538
141730,155383,13485,0.027,-0.953,-0.024,-0.244,0.427,0.732,578.544
141753,155178,22412,0.027,-0.953,-0.024,-0.244,0.427,0.732,578.548
141753,155371,13493,0.024,-0.959,-0.039,-1.707,0.244,0.915,578.554
141738,155178,22412,0.024,-0.959,-0.039,-1.707,0.244,0.915,578.558
141738,155389,13501,0.026,-0.974,-0.046,-2.073,0.244,0.793,578.564
141739,155178,22412,0.026,-0.974,-0.046,-2.073,0.244,0.793,578.568
141739,155352,13477,0.023,-0.969,-0.029,-0.854,0.427,0.671,578.574
141736,155178,22412,0.023,-0.969,-0.029,-0.854,0.427,0.671,578.577
141736,155371,13482,0.023,-0.956,-0.04,-1.037,0.244,0.732,578.584
141757,155178,22412,0.023,-0.956,-0.04,-1.037,0.244,0.732,578.587
141757,155369,13491,0.019,-0.972,-0.037,-0.976,0.366,0.549,578.594
141769,155178,22412,0.019,-0.972,-0.037,-0.976,0.366,0.549,578.597
141769,155376,13482,0.024,-0.966,-0.035,-1.098,0.488,0.244,578.603
141780,155178,22412,0.024,-0.966,-0.035,-1.098,0.488,0.244,578.607
141780,155362,13498,0.023,-0.962,-0.034,-1.159,0.427,0,578.613
141750,155178,22412,0.023,-0.962,-0.034,-1.159,0.427,0,578.617
141750,155377,13486,0.026,-0.973,-0.044,-1.037,0.366,-0.122,578.623
141745,155178,22412,0.026,-0.973,-0.044,-1.037,0.366,-0.122,578.627
141745,155366,13494,0.027,-0.968,-0.038,-0.427,0.305,-0.122,578.633
141778,155178,22412,0.027,-0.968,-0.038,-0.427,0.305,-0.122,578.637
141778,155386,13486,0.026,-0.953,-0.032,-0.305,0.122,0.061,578.643
141739,155434,22412,0.026,-0.953,-0.032,-0.305,0.122,0.061,578.647
141739,155392,13478,0.028,-0.965,-0.029,-0.854,-0.122,0.122,578.653
141749,155178,22412,0.028,-0.965,-0.029,-0.854,-0.122,0.122,578.657
141749,155387,13498,0.024,-0.971,-0.046,-1.707,0.183,0.244,578.663
141739,155178,22412,0.024,-0.971,-0.046,-1.707,0.183,0.244,578.667
141739,155370,13507,0.029,-0.965,-0.044,-1.22,0.061,0.305,578.673
141783,155434,22412,0.029,-0.965,-0.044,-1.22,0.061,0.305,578.676
141783,155407,13489,0.027,-0.965,-0.037,-0.305,0.244,0.427,578.683
141770,155434,22412,0.027,-0.965,-0.037,-0.305,0.244,0.427,578.686
141770,155400,13495,0.026,-0.97,-0.037,-0.305,0.244,0.427,578.693
141760,155434,22412,0.025,-0.978,-0.041,0.244,0.732,0.61,578.696
141760,155398,13486,0.024,-0.976,-0.042,0.244,0.732,0.61,578.702
141724,155434,22412,0.025,-0.976,-0.042,0.488,0.732,0.427,578.706
141724,155396,13506,0.024,-0.978,-0.044,0.488,0.732,0.427,578.712
141788,155178,22412,0.025,-0.973,-0.041,0.793,0.366,0.244,578.716
141788,155387,13489,0.022,-0.963,-0.034,0.793,0.366,0.244,578.722
141774,155178,22412,0.023,-0.957,-0.032,1.037,0.366,0.183,578.726
141774,155377,13500,0.026,-0.954,-0.027,1.037,0.366,0.183,578.732
141768,155434,22412,0.026,-0.952,-0.023,0.549,0.305,-0.061,578.736
141768,155416,13496,0.027,-0.949,-0.024,0.549,0.305,-0.061,578.742
141771,155434,22412,0.028,-0.951,-0.032,-0.854,0.122,0.061,578.746
141771,155414,13490,0.029,-0.953,-0.038,-0.854,0.122,0.061,578.752
141747,155434,22412,0.025,-0.96,-0.035,-1.951,0.305,0.305,578.756
141747,155399,13498,0.024,-0.966,-0.033,-1.951,0.305,0.305,578.762
141770,155434,22412,0.023,-0.964,-0.034,-1.707,0.244,0.366,578.766
141770,155397,13479,0.025,-0.958,-0.043,-1.707,0.244,0.366,578.772
141766,155434,22412,0.027,-0.965,-0.046,-2.317,0.061,0,578.775
141766,155400,13490,0.028,-0.975,-0.049,-2.317,0.061,0,578.782
141726,155178,22412,0.028,-0.984,-0.054,-1.768,0.061,-0.122,578.785
141726,155358,13506,0.025,-0.983,-0.054,-1.768,0.061,-0.122,578.792
141735,155178,22412,0.028,-0.973,-0.052,-0.305,0.183,-0.122,578.795
141735,155380,13481,0.031,-0.966,-0.044,-0.305,0.183,-0.122,578.801
141734,155178,22412,0.031,-0.962,-0.033,1.037,0.305,-0.183,578.805
141734,155366,13500,0.034,-0.966,-0.039,1.037,0.305,-0.183,578.811
141731,155178,22412,0.034,-0.964,-0.041,1.402,0.793,0.183,578.815
141731,155352,13485,0.031,-0.965,-0.036,1.402,0.793,0.183,578.821
141716,155178,22412,0.028,-0.968,-0.031,1.159,1.098,0.732,578.825
141716,155352,13484,0.028,-0.964,-0.034,1.159,1.098,0.732,578.831
141733,155178,22412,0.03,-0.959,-0.037,0.671,0.915,1.22,578.835
141733,155374,13489,0.029,-0.96,-0.032,0.671,0.915,1.22,578.841
141742,155178,22412,0.026,-0.962,-0.03,0.488,0.732,1.402,578.845
141742,155387,13488,0.023,-0.962,-0.034,0.488,0.732,1.402,578.851
141716,155178,22412,0.023,-0.966,-0.035,-0.061,0.915,1.402,578.855
141716,155366,13496,0.022,-0.973,-0.039,-0.061,0.915,1.402,578.861
141736,155178,22412,0.021,-0.974,-0.038,-0.366,0.671,1.22,578.865
141736,155390,13499,0.022,-0.967,-0.041,-0.366,0.671,1.22,578.871
141731,155434,22412,0.023,-0.965,-0.034,-0.427,0.366,0.976,578.875
141731,155419,13484,0.021,-0.96,-0.036,-0.427,0.366,0.976,578.881
141712,155434,22412,0.021,-0.965,-0.045,-0.732,0.305,0.671,578.884
141712,155406,13504,0.021,-0.967,-0.047,-0.732,0.305,0.671,578.891
141737,155178,22412,0.028,-0.966,-0.046,-0.549,0.488,0.122,578.894
141737,155378,13475,0.028,-0.967,-0.037,-0.549,0.488,0.122,578.9
141760,155434,22412,0.026,-0.97,-0.035,0.61,0.488,0,578.904
141760,155399,13480,0.022,-0.965,-0.039,0.61,0.488,0,578.91
141755,155178,22412,0.023,-0.964,-0.039,0.61,0.366,0.122,578.914
141755,155377,13492,0.025,-0.965,-0.036,0.61,0.366,0.122,578.92
141722,155434,22412,0.026,-0.966,-0.036,0.732,0.549,-0.061,578.924
141722,155399,13493,0.027,-0.967,-0.037,0.732,0.549,-0.061,578.93
141737,155178,22412,0.025,-0.962,-0.041,0.488,0.427,-0.061,578.934
141737,155389,13489,0.027,-0.96,-0.038,0.488,0.427,-0.061,578.94
141743,155434,22412,0.029,-0.961,-0.04,0.427,0.244,0.244,578.944
141743,155396,13491,0.027,-0.964,-0.036,0.427,0.244,0.244,578.95
141738,155178,22412,0.027,-0.965,-0.04,0.488,0,0.244,578.954
141738,155384,13493,0.027,-0.965,-0.033,0.488,0,0.244,578.96
141727,155434,22412,0.025,-0.963,-0.031,0.244,0.122,0.427,578.964
141727,155393,13502,0.026,-0.964,-0.041,0.244,0.122,0.427,578.97
141748,155178,22412,0.027,-0.966,-0.052,-0.427,0.183,0.549,578.973
141748,155391,13509,0.026,-0.969,-0.045,-0.427,0.183,0.549,578.98
141751,155178,22412,0.025,-0.978,-0.036,0.061,0.366,0.366,578.983
141751,155390,13503,0.022,-0.977,-0.035,0.061,0.366,0.366,578.99
141761,155434,22412,0.021,-0.972,-0.039,0.915,0.305,0.488,578.993
141761,155396,13495,0.024,-0.967,-0.046,0.915,0.305,0.488,578.999
141740,155434,22412,0.025,-0.963,-0.043,0.427,-0.061,0.366,579.003
141740,155393,13505,0.027,-0.966,-0.04,0.427,-0.061,0.366,579.009
141769,155434,22412,0.03,-0.97,-0.039,0.854,0,0.122,579.013
141769,155415,13496,0.027,-0.967,-0.039,0.854,0,0.122,579.019
141744,155434,22412,0.021,-0.965,-0.038,1.829,0.366,0.183,579.023
141744,155433,13500,0.021,-0.957,-0.034,1.829,0.366,0.183,579.029
141765,155434,22412,0.023,-0.958,-0.031,2.195,0.244,-0.244,579.033
141765,155406,13502,0.024,-0.965,-0.03,2.195,0.244,-0.244,579.039
141768,155434,22412,0.025,-0.963,-0.027,1.829,-0.061,-0.61,579.043
141768,155399,13499,0.026,-0.959,-0.036,1.829,-0.061,-0.61,579.049
141720,155178,22412,0.026,-0.963,-0.035,0.732,0.183,-0.61,579.053
141720,155382,13503,0.028,-0.966,-0.035,0.732,0.183,-0.61,579.059
141762,155434,22412,0.028,-0.968,-0.03,0.671,0.427,-0.488,579.063
141762,155405,13498,0.027,-0.962,-0.035,0.671,0.427,-0.488,579.069
141735,155434,22412,0.031,-0.96,-0.034,0.427,0.671,-0.427,579.073
141735,155409,13482,0.034,-0.957,-0.029,0.427,0.671,-0.427,579.079
141737,155178,22412,0.031,-0.962,-0.03,0.366,0.976,0.061,579.082
141737,155387,13504,0.03,-0.966,-0.031,0.366,0.976,0.061,579.089
141709,155434,22412,0.027,-0.971,-0.032,-0.244,1.22,0.732,579.092
141709,155399,13503,0.031,-0.97,-0.033,-0.244,1.22,0.732,579.098
141758,155434,22412,0.032,-0.97,-0.036,-0.854,0.976,1.159,579.102
141758,155403,13494,0.032,-0.966,-0.042,-0.854,0.976,1.159,579.108
141723,155178,22412,0.029,-0.965,-0.042,-0.793,0.976,1.341,579.112
141723,155368,13493,0.027,-0.971,-0.037,-0.793,0.976,1.341,579.118
141721,155434,22412,0.025,-0.965,-0.034,-0.122,1.22,1.707,579.122
141721,155404,13496,0.026,-0.96,-0.031,-0.122,1.22,1.707,579.128
141726,155178,22412,0.026,-0.96,-0.031,-0.122,1.22,1.707,579.132
141726,155380,13502,0.024,-0.967,-0.044,-0.366,1.28,1.829,579.138
141717,155434,22412,0.024,-0.967,-0.044,-0.366,1.28,1.829,579.142
141717,155406,13488,0.023,-0.982,-0.042,-0.366,1.22,1.524,579.148
141745,155178,22412,0.023,-0.982,-0.042,-0.366,1.22,1.524,579.152
141745,155375,13491,0.022,-0.967,-0.039,0.976,1.098,1.341,579.158
141723,155178,22412,0.022,-0.967,-0.039,0.976,1.098,1.341,579.162
141723,155375,13492,0.021,-0.965,-0.027,1.951,0.732,0.976,579.168
141752,155434,22412,0.021,-0.965,-0.027,1.951,0.732,0.976,579.171
141752,155414,13500,0.022,-0.956,-0.03,1.951,0.488,0.366,579.178
141733,155434,22412,0.022,-0.956,-0.03,1.951,0.488,0.366,579.181
141733,155429,13497,0.023,-0.962,-0.03,0.671,0.183,0.061,579.188
141739,155434,22412,0.023,-0.962,-0.03,0.671,0.183,0.061,579.191
141739,155434,13522,0.02,-0.964,-0.034,0.366,0.122,-0.244,579.197
141741,155434,22412,0.02,-0.964,-0.034,0.366,0.122,-0.244,579.201
141741,155409,13504,0.029,-0.96,-0.04,0.366,0.122,-0.427,579.207
141783,155434,22412,0.029,-0.96,-0.04,0.366,0.122,-0.427,579.211
141783,155434,13513,0.03,-0.974,-0.045,0.366,0.122,-0.61,579.217
141799,155434,22412,0.03,-0.974,-0.045,0.366,0.122,-0.61,579.221
141799,155421,13509,0.027,-0.973,-0.033,1.402,0.366,-0.244,579.227
141772,155434,22412,0.027,-0.973,-0.033,1.402,0.366,-0.244,579.231
141772,155430,13509,0.027,-0.958,-0.026,1.707,0.366,0.122,579.237
141770,155434,22412,0.027,-0.958,-0.026,1.707,0.366,0.122,579.241
141770,155426,13510,0.026,-0.965,-0.035,1.341,0.244,0.366,579.247
141778,155434,22412,0.026,-0.965,-0.035,1.341,0.244,0.366,579.251
141778,155428,13503,0.02,-0.974,-0.028,0.732,0.549,0.793,579.257
141771,155434,22412,0.02,-0.974,-0.028,0.732,0.549,0.793,579.261
141771,155433,13522,0.024,-0.967,-0.03,0.793,0.793,1.22,579.267
141795,155434,22412,0.024,-0.967,-0.03,0.793,0.793,1.22,579.27
141795,155435,13493,0.027,-0.973,-0.026,0.427,0.793,0.793,579.277
141772,155434,22412,0.027,-0.973,-0.026,0.427,0.793,0.793,579.28
141772,155451,13514,0.02,-0.967,-0.032,0.488,0.549,0.061,579.287
141808,155434,22412,0.019,-0.965,-0.031,0.488,0.549,0.061,579.29
141808,155442,13502,0.019,-0.958,-0.03,0.183,0.122,-0.305,579.296
141818,155434,22412,0.018,-0.954,-0.029,0.183,0.122,-0.305,579.3
141818,155440,13511,0.024,-0.954,-0.027,-0.122,-0.61,-0.915,579.306
141816,155434,22412,0.029,-0.951,-0.028,-0.122,-0.61,-0.915,579.31
141816,155448,13506,0.032,-0.95,-0.03,-1.037,-0.793,-1.585,579.316
141829,155434,22412,0.035,-0.954,-0.027,-1.037,-0.793,-1.585,579.32
141829,155485,13524,0.034,-0.963,-0.029,-1.585,-0.549,-1.159,579.326
141846,155434,22412,0.031,-0.969,-0.035,-1.585,-0.549,-1.159,579.33
141846,155476,13525,0.028,-0.973,-0.04,-1.585,-0.183,-0.366,579.336
141864,155434,22412,0.029,-0.972,-0.04,-1.585,-0.183,-0.366,579.34
141864,155460,13518,0.032,-0.97,-0.035,-1.341,-0.183,-0.305,579.346
141870,155434,22412,0.035,-0.969,-0.03,-1.341,-0.183,-0.305,579.35
141870,155530,13527,0.035,-0.969,-0.026,-1.037,-0.305,-0.061,579.356
141891,155434,22412,0.034,-0.971,-0.027,-1.037,-0.305,-0.061,579.36
141891,155491,13529,0.034,-0.968,-0.03,-1.585,-0.061,0.732,579.366
141875,155434,22412,0.033,-0.966,-0.034,-1.585,-0.061,0.732,579.369
141875,155508,13539,0.032,-0.964,-0.037,-2.195,0.427,1.524,579.376
141886,155434,22412,0.031,-0.965,-0.039,-2.195,0.427,1.524,579.379
141886,155524,13524,0.029,-0.965,-0.041,-2.134,0.854,1.951,579.386
141862,155434,22412,0.03,-0.967,-0.045,-2.134,0.854,1.951,579.389
141862,155508,13532,0.029,-0.967,-0.046,-1.463,1.159,2.134,579.395
141874,155434,22412,0.026,-0.971,-0.044,-1.463,1.159,2.134,579.399
141874,155504,13526,0.027,-0.971,-0.039,-0.183,1.22,2.378,579.405
141859,155434,22412,0.026,-0.967,-0.028,-0.183,1.22,2.378,579.409
141859,155486,13523,0.023,-0.965,-0.028,0.183,1.341,2.378,579.415
141877,155434,22412,0.018,-0.967,-0.029,0.183,1.341,2.378,579.419
141877,155489,13534,0.014,-0.965,-0.027,-0.732,1.402,2.256,579.425
141885,155434,22412,0.017,-0.966,-0.038,-0.732,1.402,2.256,579.429
141885,155502,13526,0.017,-0.969,-0.046,-1.829,1.159,1.585,579.435
141886,155434,22412,0.02,-0.972,-0.043,-1.829,1.159,1.585,579.439
141886,155509,13536,0.022,-0.968,-0.041,-1.22,0.732,0.854,579.445
141886,155434,22412,0.022,-0.963,-0.04,-1.22,0.732,0.854,579.449
141886,155496,13523,0.026,-0.963,-0.042,-0.549,0.427,0.427,579.455
141894,155434,22412,0.026,-0.961,-0.042,-0.549,0.427,0.427,579.459
141894,155535,13545,0.024,-0.967,-0.041,0.061,0.549,0.122,579.465
141931,155434,22412,0.02,-0.973,-0.042,0.061,0.549,0.122,579.468
141931,155511,13531,0.023,-0.971,-0.039,1.22,0.549,0,579.475
141912,155434,22412,0.021,-0.969,-0.038,1.22,0.549,0,579.478
141912,155520,13551,0.023,-0.969,-0.036,1.402,0.305,-0.061,579.485
141944,155434,22412,0.023,-0.971,-0.034,1.402,0.305,-0.061,579.488
141944,155515,13534,0.023,-0.97,-0.035,1.707,0.183,-0.183,579.494
141910,155434,22412,0.023,-0.968,-0.034,1.707,0.183,-0.183,579.498
141910,155521,13537,0.026,-0.964,-0.033,1.585,-0.061,-0.366,579.504
141894,155434,22412,0.024,-0.958,-0.032,1.585,-0.061,-0.366,579.508
141894,155524,13535,0.025,-0.961,-0.031,1.037,-0.061,-0.305,579.514
141876,155434,22412,0.029,-0.96,-0.03,1.037,-0.061,-0.305,579.518
141876,155508,13541,0.026,-0.963,-0.025,0.732,0.244,-0.183,579.524
141913,155434,22412,0.021,-0.962,-0.027,0.732,0.244,-0.183,579.528
141913,155514,13523,0.019,-0.966,-0.031,0.427,0.366,-0.061,579.534
141885,155434,22412,0.023,-0.968,-0.038,0.427,0.366,-0.061,579.538
141885,155498,13535,0.027,-0.965,-0.034,-0.061,0.183,-0.488,579.544
141874,155434,22412,0.027,-0.964,-0.028,-0.061,0.183,-0.488,579.548
141874,155501,13522,0.028,-0.963,-0.031,-0.305,-0.122,-0.488,579.554
141877,155434,22412,0.026,-0.964,-0.044,-0.305,-0.122,-0.488,579.558
141877,155481,13528,0.024,-0.969,-0.047,-0.366,0.122,-0.427,579.564
141887,155434,22412,0.024,-0.974,-0.047,-0.366,0.122,-0.427,579.568
141887,155493,13527,0.024,-0.974,-0.041,0.793,0.244,-0.793,579.574
141863,155434,22412,0.026,-0.973,-0.035,0.793,0.244,-0.793,579.577
141863,155475,13522,0.029,-0.966,-0.036,2.012,0,-0.854,579.584
141853,155434,22412,0.029,-0.959,-0.033,2.012,0,-0.854,579.587
141853,155473,13536,0.028,-0.962,-0.026,2.073,0.061,-0.61,579.593
141882,155434,22412,0.03,-0.963,-0.02,2.073,0.061,-0.61,579.597
141882,155474,13520,0.026,-0.959,-0.023,1.28,0,-0.366,579.603
141867,155434,22412,0.027,-0.955,-0.029,1.28,0,-0.366,579.607
141867,155493,13525,0.027,-0.958,-0.035,-0.061,-0.122,-0.427,579.613
141868,155434,22412,0.028,-0.962,-0.033,-0.061,-0.122,-0.427,579.617
141868,155485,13530,0.028,-0.97,-0.032,-0.244,-0.122,-0.488,579.623
141846,155434,22412,0.027,-0.964,-0.03,-0.244,-0.122,-0.488,579.627
141846,155462,13543,0.029,-0.955,-0.027,-0.183,-0.122,-0.305,579.633
141819,155434,22412,0.03,-0.956,-0.022,-0.183,-0.122,-0.305,579.637
141819,155443,13513,0.027,-0.957,-0.029,-0.854,-0.183,-0.061,579.643
141805,155434,22412,0.026,-0.963,-0.034,-0.854,-0.183,-0.061,579.647
141805,155420,13514,0.026,-0.969,-0.043,-1.463,0,0.183,579.653
141785,155434,22412,0.025,-0.977,-0.043,-1.463,0,0.183,579.657
141785,155409,13515,0.03,-0.974,-0.04,-0.793,0,0.122,579.663
141794,155434,22412,0.032,-0.966,-0.036,-0.793,0,0.122,579.666
141794,155451,13504,0.032,-0.964,-0.034,0.244,0,0.183,579.673
141766,155434,22412,0.03,-0.962,-0.026,0.244,0,0.183,579.676
141766,155444,13504,0.027,-0.968,-0.029,0.366,0.366,0.427,579.682
141773,155434,22412,0.029,-0.969,-0.028,0.366,0.366,0.427,579.686
141773,155430,13506,0.025,-0.972,-0.023,-0.122,0.732,0.61,579.692
141761,155434,22412,0.023,-0.965,-0.023,-0.122,0.732,0.61,579.696
141761,155394,13507,0.026,-0.955,-0.026,-1.159,0.488,0.61,579.702
141794,155434,22412,0.031,-0.953,-0.028,-1.159,0.488,0.61,579.706
141794,155433,13502,0.03,-0.958,-0.033,-2.378,0.427,0.671,579.712
141802,155434,22412,0.032,-0.968,-0.035,-2.378,0.427,0.671,579.716
141802,155453,13524,0.03,-0.969,-0.036,-2.5,0.671,1.098,579.722
141813,155434,22412,0.03,-0.969,-0.036,-2.5,0.671,1.098,579.726
141813,155467,13502,0.028,-0.961,-0.033,-2.195,0.671,1.524,579.732
141827,155434,22412,0.028,-0.961,-0.033,-2.195,0.671,1.524,579.736
141827,155470,13529,0.026,-0.964,-0.036,-2.195,0.366,1.646,579.742
141838,155434,22412,0.026,-0.964,-0.036,-2.195,0.366,1.646,579.746
141838,155462,13517,0.026,-0.969,-0.039,-2.317,0.366,1.646,579.752
141833,155434,22412,0.026,-0.969,-0.039,-2.317,0.366,1.646,579.756
141833,155468,13506,0.026,-0.969,-0.05,-2.256,0.671,1.402,579.762
141831,155434,22412,0.026,-0.969,-0.05,-2.256,0.671,1.402,579.766
141831,155482,13510,0.023,-0.98,-0.038,-1.159,0.61,1.28,579.772
141805,155434,22412,0.023,-0.98,-0.038,-1.159,0.61,1.28,579.775
141805,155427,13520,0.019,-0.968,-0.03,-0.183,0.61,1.28,579.782
141816,155434,22412,0.019,-0.968,-0.03,-0.183,0.61,1.28,579.785
141816,155449,13511,0.022,-0.958,-0.033,-1.402,0.366,0.854,579.791
141810,155434,22412,0.022,-0.958,-0.033,-1.402,0.366,0.854,579.795
141810,155417,13534,0.026,-0.963,-0.034,-2.195,0,0.549,579.801
141827,155434,22412,0.026,-0.963,-0.034,-2.195,0,0.549,579.805
141827,155449,13526,0.022,-0.963,-0.041,-2.561,0.183,0.488,579.811
141834,155434,22412,0.022,-0.963,-0.041,-2.561,0.183,0.488,579.815
141834,155462,13520,0.027,-0.963,-0.031,-2.012,0.183,0.488,579.821
141850,155434,22412,0.027,-0.963,-0.031,-2.012,0.183,0.488,579.825
141850,155468,13518,0.03,-0.958,-0.037,-2.073,0,0.427,579.831
141860,155434,22412,0.03,-0.958,-0.037,-2.073,0,0.427,579.835
141860,155482,13535,0.026,-0.965,-0.036,-2.195,0.183,0.732,579.841
141883,155434,22412,0.026,-0.965,-0.036,-2.195,0.183,0.732,579.845
141883,155502,13523,0.023,-0.969,-0.037,-2.378,0.183,0.976,579.851
141876,155434,22412,0.023,-0.969,-0.037,-2.378,0.183,0.976,579.855
141876,155468,13528,0.025,-0.974,-0.053,-2.866,0,0.671,579.861
141871,155434,22412,0.025,-0.974,-0.053,-2.866,0,0.671,579.864
141871,155487,13526,0.024,-0.979,-0.056,-2.866,0,0.671,579.871
141860,155434,22412,0.023,-0.989,-0.056,-1.646,0.183,0.244,579.874
141860,155466,13501,0.02,-0.985,-0.05,-1.646,0.183,0.244,579.881
141865,155434,22412,0.016,-0.977,-0.042,0.122,0.183,-0.122,579.884
141865,155482,13537,0.02,-0.965,-0.037,0.122,0.183,-0.122,579.89
141865,155434,22412,0.026,-0.957,-0.04,0.549,-0.122,-0.854,579.894
141865,155491,13519,0.029,-0.957,-0.041,0.549,-0.122,-0.854,579.9
141884,155434,22412,0.031,-0.958,-0.04,0.61,0,-1.28,579.904
141884,155493,13517,0.029,-0.959,-0.037,0.61,0,-1.28,579.91
141833,155434,22412,0.03,-0.954,-0.041,0.915,0.061,-0.976,579.914
141833,155464,13508,0.031,-0.949,-0.039,0.915,0.061,-0.976,579.92
141848,155434,22412,0.031,-0.952,-0.035,0.915,0.122,-0.488,579.924
141848,155493,13530,0.03,-0.962,-0.035,0.915,0.122,-0.488,579.93
141871,155434,22412,0.028,-0.972,-0.04,0.976,0.366,-0.061,579.934
141871,155486,13513,0.027,-0.971,-0.045,0.976,0.366,-0.061,579.94
141854,155434,22412,0.031,-0.97,-0.045,1.28,0.366,0.366,579.944
141854,155497,13541,0.031,-0.975,-0.042,1.28,0.366,0.366,579.95
141831,155434,22412,0.026,-0.982,-0.039,1.707,0.427,0.61,579.954
141831,155450,13502,0.025,-0.979,-0.034,1.707,0.427,0.61,579.96
141819,155434,22412,0.023,-0.968,-0.035,2.012,0.488,0.854,579.963
141819,155456,13533,0.023,-0.956,-0.026,2.012,0.488,0.854,579.97
141835,155434,22412,0.027,-0.953,-0.025,1.28,0.427,0.854,579.973
141835,155447,13511,0.027,-0.958,-0.032,1.28,0.427,0.854,579.979
141807,155434,22412,0.027,-0.964,-0.038,-0.061,0.549,0.732,579.983
141807,155431,13526,0.029,-0.967,-0.039,-0.061,0.549,0.732,579.989
141794,155434,22412,0.026,-0.966,-0.033,0.061,0.854,0.854,579.993
141794,155456,13511,0.026,-0.954,-0.031,0.061,0.854,0.854,579.999
141788,155434,22412,0.027,-0.948,-0.028,0.183,0.732,0.915,580.003
141788,155425,13499,0.029,-0.952,-0.03,0.183,0.732,0.915,580.009
141763,155434,22412,0.026,-0.963,-0.035,-0.122,0.915,0.976,580.013
141763,155443,13487,0.024,-0.968,-0.038,-0.122,0.915,0.976,580.019
141746,155434,22412,0.024,-0.978,-0.042,-0.366,1.159,1.037,580.023
141746,155416,13502,0.023,-0.98,-0.039,-0.366,1.159,1.037,580.029
141742,155434,22412,0.021,-0.98,-0.037,-0.183,0.793,0.793,580.033
141742,155422,13504,0.021,-0.973,-0.033,-0.183,0.793,0.793,580.039
141730,155178,22412,0.019,-0.962,-0.032,0,0.366,0.549,580.043
141730,155382,13506,0.022,-0.959,-0.035,0,0.366,0.549,580.049
141721,155434,22412,0.022,-0.961,-0.035,-0.793,0.061,0.122,580.053
141721,155425,13488,0.023,-0.968,-0.038,-0.793,0.061,0.122,580.059
141694,155178,22412,0.022,-0.968,-0.037,-0.793,0,-0.305,580.062
141694,155373,13507,0.023,-0.965,-0.038,-0.793,0,-0.305,580.069
141677,155178,22412,0.027,-0.961,-0.036,-0.793,-0.122,-0.61,580.072
141677,155371,13493,0.027,-0.959,-0.036,-0.793,-0.122,-0.61,580.079
141673,155178,22412,0.03,-0.957,-0.031,-0.915,-0.244,-0.732,580.082
141673,155374,13494,0.03,-0.952,-0.031,-0.915,-0.244,-0.732,580.088
141643,155178,22412,0.029,-0.956,-0.028,-1.402,-0.183,-0.305,580.092
141643,155370,13495,0.026,-0.965,-0.034,-1.402,-0.183,-0.305,580.098
141651,155178,22412,0.023,-0.973,-0.037,-2.378,0,0.183,580.102
141651,155318,13488,0.024,-0.977,-0.039,-2.378,0,0.183,580.108
141625,155178,22412,0.024,-0.97,-0.041,-2.683,-0.122,0.183,580.112
141625,155357,13485,0.028,-0.966,-0.043,-2.683,-0.122,0.183,580.118
141594,155178,22412,0.029,-0.964,-0.043,-2.683,-0.244,0.061,580.122
141594,155342,13488,0.029,-0.967,-0.047,-2.683,-0.244,0.061,580.128
141596,155178,22412,0.026,-0.969,-0.047,-1.585,0,0.122,580.132
141596,155325,13484,0.029,-0.974,-0.05,-1.585,0,0.122,580.138
141624,155178,22412,0.025,-0.969,-0.046,-0.549,0.366,0.122,580.142
141624,155366,13478,0.023,-0.967,-0.042,-0.549,0.366,0.122,580.148
141606,155178,22412,0.024,-0.968,-0.041,0.122,0.549,0.061,580.152
141606,155328,13486,0.026,-0.966,-0.045,0.122,0.549,0.061,580.158
141592,155178,22412,0.028,-0.965,-0.043,0.061,0.427,-0.061,580.161
141592,155328,13472,0.027,-0.962,-0.039,0.061,0.427,-0.061,580.168
141601,155178,22412,0.029,-0.96,-0.041,0.244,0.549,-0.183,580.171
141601,155312,13488,0.029,-0.963,-0.043,0.244,0.549,-0.183,580.177
141594,155178,22412,0.028,-0.966,-0.037,0.854,0.549,-0.122,580.181
141594,155350,13502,0.028,-0.963,-0.037,0.854,0.549,-0.122,580.187
141613,155178,22412,0.028,-0.96,-0.046,0.915,0.732,0.183,580.191
141613,155339,13490,0.031,-0.966,-0.047,0.915,0.732,0.183,580.197
141618,155178,22412,0.031,-0.969,-0.039,1.098,0.793,0.61,580.201
141618,155334,13485,0.029,-0.969,-0.037,1.098,0.793,0.61,580.207
141617,155178,22412,0.027,-0.969,-0.04,1.646,0.793,1.098,580.211
141617,155345,13507,0.026,-0.967,-0.042,1.646,0.793,1.098,580.217
141626,155178,22412,0.027,-0.966,-0.038,1.524,1.037,1.098,580.221
141626,155340,13493,0.025,-0.971,-0.035,1.524,1.037,1.098,580.227
141617,155178,22412,0.023,-0.972,-0.033,1.768,0.854,0.976,580.231
141617,155357,13492,0.019,-0.968,-0.041,1.768,0.854,0.976,580.237
141621,155178,22412,0.021,-0.964,-0.043,1.463,0.915,0.671,580.241
141621,155348,13493,0.022,-0.964,-0.037,1.463,0.915,0.671,580.247
141616,155178,22412,0.026,-0.958,-0.023,1.768,0.61,0.061,580.251
141616,155350,13506,0.028,-0.951,-0.018,1.768,0.61,0.061,580.257
141657,155178,22412,0.028,-0.952,-0.022,1.341,0.366,0.061,580.26
141657,155369,13490,0.028,-0.955,-0.031,1.341,0.366,0.061,580.267
141651,155178,22412,0.026,-0.966,-0.035,-0.122,0.61,0.244,580.27
141651,155381,13502,0.025,-0.97,-0.035,-0.122,0.61,0.244,580.277
141643,155178,22412,0.028,-0.969,-0.026,-0.549,0.61,0.244,580.28
141643,155368,13493,0.03,-0.964,-0.018,-0.549,0.61,0.244,580.286
141663,155434,22412,0.031,-0.956,-0.024,-1.463,0.061,0.366,580.29
141663,155397,13507,0.029,-0.959,-0.031,-1.463,0.061,0.366,580.296
141673,155178,22412,0.026,-0.967,-0.036,-3.293,-0.061,0.549,580.3
141673,155389,13498,0.025,-0.971,-0.042,-3.293,-0.061,0.549,580.306
141660,155434,22412,0.025,-0.971,-0.042,-3.293,-0.061,0.549,580.31
141660,155410,13505,0.029,-0.965,-0.039,-3.537,0,0.549,580.316
141653,155178,22412,0.029,-0.965,-0.039,-3.537,0,0.549,580.32
141653,155359,13499,0.033,-0.961,-0.039,-2.805,-0.244,0.488,580.326
141632,155178,22412,0.033,-0.961,-0.039,-2.805,-0.244,0.488,580.33
141632,155374,13502,0.026,-0.969,-0.046,-2.622,-0.061,0.854,580.336
141662,155178,22412,0.026,-0.969,-0.046,-2.622,-0.061,0.854,580.34
141662,155347,13515,0.028,-0.967,-0.046,-2.622,0.244,1.159,580.346
141625,155178,22412,0.028,-0.967,-0.046,-2.622,0.244,1.159,580.35
141625,155340,13506,0.026,-0.972,-0.048,-2.012,0.305,0.915,580.356
141625,155178,22412,0.026,-0.972,-0.048,-2.012,0.305,0.915,580.359
141625,155314,13496,0.024,-0.981,-0.045,-1.098,0.305,0.915,580.366
141614,155178,22412,0.024,-0.981,-0.045,-1.098,0.305,0.915,580.369
141614,155327,13501,0.022,-0.964,-0.04,-0.366,0.549,0.915,580.375
141637,155178,22412,0.022,-0.964,-0.04,-0.366,0.549,0.915,580.379
141637,155327,13470,0.03,-0.964,-0.04,0.061,0.305,0.488,580.385
141605,155178,22412,0.03,-0.964,-0.04,0.061,0.305,0.488,580.389
141605,155340,13491,0.024,-0.966,-0.045,-0.122,0.183,0.305,580.395
141585,155178,22412,0.024,-0.966,-0.045,-0.122,0.183,0.305,580.399
141585,155337,13499,0.025,-0.961,-0.038,0,0.549,0.549,580.405
141584,155178,22412,0.025,-0.961,-0.038,0,0.549,0.549,580.409
141584,155328,13478,0.025,-0.962,-0.047,0.183,0.549,0.732,580.415
141590,155178,22412,0.025,-0.962,-0.047,0.183,0.549,0.732,580.419
141590,155309,13492,0.022,-0.979,-0.047,0.183,0.732,0.427,580.425
141555,155178,22412,0.022,-0.979,-0.047,0.183,0.732,0.427,580.429
141555,155301,13474,0.02,-0.972,-0.043,1.28,1.037,0.366,580.435
141570,155178,22412,0.02,-0.972,-0.043,1.28,1.037,0.366,580.439
141570,155291,13478,0.022,-0.965,-0.038,1.89,0.732,0.122,580.445
141574,155178,22412,0.022,-0.965,-0.038,1.89,0.732,0.122,580.449
141574,155324,13472,0.026,-0.964,-0.03,2.073,0.427,-0.305,580.455
141575,155178,22412,0.025,-0.963,-0.025,2.073,0.427,-0.305,580.458
141575,155290,13460,0.026,-0.958,-0.027,1.341,0.488,-0.244,580.465
141571,155178,22412,0.027,-0.956,-0.03,1.341,0.488,-0.244,580.468
141571,155318,13495,0.027,-0.96,-0.037,0.183,0.427,-0.122,580.474
141581,155178,22412,0.027,-0.963,-0.042,0.183,0.427,-0.122,580.478
141581,155322,13477,0.028,-0.965,-0.035,-0.244,0.61,-0.244,580.484
141579,155178,22412,0.028,-0.965,-0.034,-0.244,0.61,-0.244,580.488
141579,155326,13479,0.027,-0.964,-0.038,-0.244,0.427,0.061,580.494
141604,155178,22412,0.025,-0.959,-0.036,-0.244,0.427,0.061,580.498
141604,155348,13490,0.028,-0.964,-0.036,-0.488,0.244,0.305,580.504
141612,155178,22412,0.025,-0.972,-0.033,-0.488,0.244,0.305,580.508
141612,155321,13493,0.024,-0.97,-0.032,-0.793,0.183,0.366,580.514
141644,155178,22412,0.025,-0.964,-0.04,-0.793,0.183,0.366,580.518
141644,155376,13506,0.027,-0.966,-0.041,-1.585,0.122,0.122,580.524
141643,155178,22412,0.028,-0.969,-0.04,-1.585,0.122,0.122,580.528
141643,155348,13489,0.024,-0.969,-0.041,-1.463,-0.061,0,580.534
141640,155178,22412,0.025,-0.968,-0.041,-1.463,-0.061,0,580.538
141640,155333,13480,0.026,-0.96,-0.039,-1.098,0,0,580.544
141630,155178,22412,0.029,-0.959,-0.038,-1.098,0,0,580.548
141630,155362,13507,0.031,-0.965,-0.038,-1.037,0,0,580.554
141621,155178,22412,0.03,-0.966,-0.039,-1.037,0,0,580.557
141621,155341,13479,0.031,-0.966,-0.041,-1.098,0,0.305,580.564
141593,155178,22412,0.031,-0.965,-0.04,-1.098,0,0.305,580.567
141593,155328,13474,0.028,-0.966,-0.037,-1.341,0.244,0.671,580.574
141578,155178,22412,0.029,-0.964,-0.036,-1.341,0.244,0.671,580.577
141578,155311,13491,0.028,-0.964,-0.043,-1.707,0.305,1.159,580.583
141577,155178,22412,0.027,-0.969,-0.049,-1.707,0.305,1.159,580.587
141577,155306,13476,0.026,-0.976,-0.048,-1.585,0.488,1.22,580.593
141555,155178,22412,0.024,-0.977,-0.046,-1.585,0.488,1.22,580.597
141555,155283,13482,0.025,-0.974,-0.046,-0.549,0.732,1.159,580.603
141526,155178,22412,0.025,-0.966,-0.05,-0.549,0.732,1.159,580.607
141526,155282,13470,0.027,-0.966,-0.047,0.366,0.61,1.159,580.613
141513,155178,22412,0.023,-0.969,-0.042,0.366,0.61,1.159,580.617
141513,155270,13479,0.021,-0.967,-0.038,1.28,0.793,0.976,580.623
141500,155178,22412,0.023,-0.962,-0.037,1.28,0.793,0.976,580.627
141500,155250,13477,0.023,-0.963,-0.036,1.098,0.732,0.671,580.633
141513,155178,22412,0.025,-0.96,-0.034,1.098,0.732,0.671,580.637
141513,155292,13477,0.026,-0.958,-0.039,0.549,0.671,0.427,580.643
141512,155178,22412,0.026,-0.961,-0.039,0.549,0.671,0.427,580.647
141512,155296,13462,0.023,-0.968,-0.039,0.305,0.61,0.488,580.653
141515,155178,22412,0.021,-0.973,-0.038,0.305,0.61,0.488,580.656
141515,155268,13458,0.018,-0.968,-0.038,0.366,0.488,0.366,580.663
141527,155178,22412,0.02,-0.958,-0.042,0.366,0.488,0.366,580.666
141527,155298,13480,0.028,-0.961,-0.041,0.122,0.122,-0.183,580.672
141553,155178,22412,0.03,-0.964,-0.041,0.122,0.122,-0.183,580.676
141553,155306,13462,0.029,-0.966,-0.042,0.366,-0.122,-0.366,580.682
141535,155178,22412,0.03,-0.968,-0.04,0.366,-0.122,-0.366,580.686
141535,155291,13481,0.024,-0.968,-0.033,0.549,0.183,-0.122,580.692
141538,155178,22412,0.022,-0.965,-0.027,0.549,0.183,-0.122,580.696
141538,155316,13478,0.026,-0.957,-0.034,0,0.061,0,580.702
141574,155178,22412,0.027,-0.965,-0.04,0,0.061,0,580.706
141574,155338,13484,0.027,-0.978,-0.043,-0.732,0,-0.183,580.712
141572,155178,22412,0.026,-0.979,-0.042,-0.732,0,-0.183,580.716
141572,155297,13490,0.028,-0.971,-0.045,-0.305,0.244,-0.183,580.722
141568,155178,22412,0.029,-0.964,-0.047,-0.305,0.244,-0.183,580.726
141568,155288,13477,0.031,-0.961,-0.047,0.183,0.244,-0.061,580.732
141571,155178,22412,0.032,-0.962,-0.044,0.183,0.244,-0.061,580.736
141571,155320,13494,0.029,-0.965,-0.038,1.159,0.671,0.183,580.742
141601,155178,22412,0.027,-0.962,-0.031,1.159,0.671,0.183,580.746
141601,155325,13489,0.027,-0.959,-0.03,1.89,0.915,0.61,580.752
141628,155178,22412,0.031,-0.96,-0.038,1.89,0.915,0.61,580.755
141628,155336,13487,0.028,-0.964,-0.038,1.22,0.915,0.854,580.762
141613,155178,22412,0.027,-0.977,-0.032,1.22,0.915,0.854,580.765
141613,155363,13475,0.024,-0.976,-0.033,0.976,0.915,0.915,580.772
141642,155178,22412,0.025,-0.968,-0.035,0.976,0.915,0.915,580.775
141642,155361,13484,0.025,-0.959,-0.03,0.122,0.427,0.854,580.781
141598,155178,22412,0.022,-0.959,-0.027,0.122,0.427,0.854,580.785
141598,155333,13493,0.027,-0.963,-0.035,-0.793,0.061,0.61,580.791
141604,155178,22412,0.031,-0.968,-0.041,-0.793,0.061,0.61,580.795
141604,155342,13489,0.03,-0.971,-0.038,-1.402,0.122,0.671,580.801
141589,155178,22412,0.028,-0.972,-0.037,-1.402,0.122,0.671,580.805
141589,155313,13480,0.024,-0.966,-0.04,-0.793,0.183,1.098,580.811
141545,155178,22412,0.027,-0.957,-0.041,-0.793,0.183,1.098,580.815
141545,155335,13487,0.027,-0.959,-0.04,-0.61,0.122,1.22,580.821
141571,155178,22412,0.023,-0.966,-0.039,-0.61,0.122,1.22,580.825
141571,155301,13483,0.022,-0.974,-0.041,-0.061,0.305,1.159,580.831
141543,155178,22412,0.021,-0.976,-0.046,-0.061,0.305,1.159,580.835
141543,155312,13469,0.017,-0.971,-0.043,0.366,0.488,0.854,580.841
141556,155178,22412,0.02,-0.968,-0.041,0.366,0.488,0.854,580.845
141556,155292,13473,0.022,-0.963,-0.036,0.793,0.122,0.305,580.851
141546,155178,22412,0.023,-0.96,-0.028,0.793,0.122,0.305,580.854
141546,155303,13480,0.024,-0.962,-0.031,1.037,0.122,-0.122,580.861
141560,155178,22412,0.024,-0.962,-0.035,1.037,0.122,-0.122,580.864
141560,155342,13481,0.023,-0.962,-0.034,0.305,0.549,-0.183,580.87
141560,155178,22412,0.025,-0.963,-0.027,0.305,0.549,-0.183,580.874
141560,155339,13482,0.026,-0.958,-0.026,0,0.61,-0.183,580.88
141595,155178,22412,0.026,-0.961,-0.032,0,0.61,-0.183,580.884
141595,155368,13476,0.024,-0.962,-0.033,-0.732,0.427,-0.183,580.89
141594,155178,22412,0.024,-0.962,-0.033,-0.732,0.427,-0.183,580.894
141594,155350,13492,0.025,-0.969,-0.041,-1.28,0.488,-0.183,580.9
141600,155178,22412,0.025,-0.969,-0.041,-1.28,0.488,-0.183,580.904
141600,155370,13476,0.029,-0.962,-0.04,-1.28,0.244,-0.061,580.91
141613,155178,22412,0.029,-0.962,-0.04,-1.28,0.244,-0.061,580.914
141613,155335,13472,0.028,-0.967,-0.041,-1.524,0.366,0.122,580.92
141610,155178,22412,0.028,-0.967,-0.041,-1.524,0.366,0.122,580.924
141610,155361,13481,0.026,-0.976,-0.051,-1.524,0.427,0.244,580.93
141650,155178,22412,0.026,-0.976,-0.051,-1.524,0.427,0.244,580.934
141650,155340,13485,0.027,-0.977,-0.045,-0.427,0.366,0.244,580.94
141606,155178,22412,0.027,-0.977,-0.045,-0.427,0.366,0.244,580.944
141606,155319,13491,0.028,-0.964,-0.04,0.61,0.122,0.183,580.95
141586,155178,22412,0.028,-0.964,-0.04,0.61,0.122,0.183,580.953
141586,155316,13481,0.025,-0.966,-0.029,1.28,0.122,0.488,580.96
141562,155178,22412,0.025,-0.966,-0.029,1.28,0.122,0.488,580.963
141562,155309,13483,0.021,-0.96,-0.032,0.488,0.183,0.549,580.97
141548,155178,22412,0.021,-0.96,-0.032,0.488,0.183,0.549,580.973
141548,155292,13485,0.028,-0.961,-0.041,-0.793,0.122,0.183,580.979
141558,155178,22412,0.028,-0.961,-0.041,-0.793,0.122,0.183,580.983
141558,155306,13492,0.03,-0.968,-0.039,-0.122,0.244,0.122,580.989
141554,155178,22412,0.03,-0.968,-0.039,-0.122,0.244,0.122,580.993
141554,155316,13486,0.022,-0.968,-0.042,0.305,0.549,0.305,580.999
141568,155178,22412,0.022,-0.968,-0.042,0.305,0.549,0.305,581.003
141568,155302,13472,0.028,-0.966,-0.042,0.793,0.488,0.366,581.009
141565,155178,22412,0.028,-0.966,-0.042,0.793,0.488,0.366,581.013
141565,155327,13487,0.026,-0.971,-0.038,1.402,0.732,0.427,581.019
141580,155178,22412,0.026,-0.971,-0.038,1.402,0.732,0.427,581.023
141580,155341,13488,0.026,-0.967,-0.04,1.402,0.976,0.549,581.029
141590,155178,22412,0.026,-0.967,-0.04,1.402,0.976,0.549,581.033
141590,155332,13495,0.027,-0.967,-0.034,1.402,0.976,0.549,581.039
141617,155178,22412,0.029,-0.966,-0.034,1.463,0.976,0.671,581.043
141617,155344,13482,0.026,-0.967,-0.036,1.463,0.976,0.671,581.049
141590,155178,22412,0.026,-0.967,-0.032,1.098,1.037,0.915,581.052
141590,155367,13492,0.024,-0.963,-0.03,1.098,1.037,0.915,581.059
141596,155178,22412,0.021,-0.96,-0.032,0.732,0.732,1.037,581.062
141596,155338,13487,0.023,-0.959,-0.03,0.732,0.732,1.037,581.068
141633,155178,22412,0.021,-0.958,-0.032,0.244,0.244,0.793,581.072
141633,155376,13499,0.021,-0.954,-0.037,0.244,0.244,0.793,581.078
141657,155434,22412,0.024,-0.957,-0.046,-0.427,0.061,0.366,581.082
141657,155398,13489,0.025,-0.966,-0.047,-0.427,0.061,0.366,581.088
141654,155178,22412,0.025,-0.975,-0.043,0.183,0.183,-0.061,581.092
141654,155356,13494,0.022,-0.974,-0.038,0.183,0.183,-0.061,581.098
141638,155178,22412,0.024,-0.968,-0.032,0.915,0.305,-0.244,581.102
141638,155389,13494,0.026,-0.96,-0.032,0.915,0.305,-0.244,581.108
141647,155178,22412,0.027,-0.961,-0.037,0.671,0.183,-0.427,581.112
141647,155356,13486,0.029,-0.969,-0.032,0.671,0.183,-0.427,581.118
141622,155178,22412,0.028,-0.972,-0.032,0.488,0.244,-0.488,581.122
141622,155362,13488,0.024,-0.967,-0.029,0.488,0.244,-0.488,581.128
141616,155178,22412,0.028,-0.954,-0.028,-0.183,0.122,-0.366,581.132
141616,155323,13492,0.03,-0.949,-0.026,-0.183,0.122,-0.366,581.138
141592,155178,22412,0.033,-0.95,-0.03,-1.646,-0.183,-0.183,581.142
141592,155339,13481,0.034,-0.959,-0.035,-1.646,-0.183,-0.183,581.148
141586,155178,22412,0.032,-0.971,-0.038,-2.5,0.183,0.183,581.151
141586,155319,13487,0.028,-0.974,-0.038,-2.5,0.183,0.183,581.158
141594,155178,22412,0.022,-0.969,-0.031,-2.5,0.427,0.61,581.161
141594,155339,13487,0.028,-0.965,-0.034,-2.5,0.427,0.61,581.168
141594,155178,22412,0.032,-0.962,-0.041,-2.805,0.122,0.793,581.171
141594,155328,13483,0.027,-0.967,-0.044,-2.805,0.122,0.793,581.177
141576,155178,22412,0.026,-0.975,-0.045,-2.561,0.244,0.671,581.181
141576,155368,13496,0.027,-0.973,-0.045,-2.561,0.244,0.671,581.187
141589,155178,22412,0.028,-0.971,-0.046,-1.768,0.427,0.854,581.191
141589,155343,13481,0.026,-0.97,-0.046,-1.768,0.427,0.854,581.197
141585,155178,22412,0.026,-0.969,-0.041,-1.037,0.427,0.854,581.201
141585,155344,13489,0.025,-0.967,-0.034,-1.037,0.427,0.854,581.207
141600,155178,22412,0.027,-0.965,-0.034,-0.366,0.488,0.671,581.211
141600,155377,13475,0.028,-0.957,-0.037,-0.366,0.488,0.671,581.217
141586,155178,22412,0.028,-0.956,-0.033,-0.976,0.427,0.61,581.221
141586,155343,13502,0.027,-0.961,-0.033,-0.976,0.427,0.61,581.227
141597,155178,22412,0.025,-0.965,-0.033,-1.341,0.671,0.915,581.231
141597,155357,13499,0.022,-0.966,-0.031,-1.341,0.671,0.915,581.237
141568,155178,22412,0.022,-0.963,-0.033,-2.012,0.366,1.037,581.241
141568,155322,13470,0.025,-0.962,-0.041,-2.012,0.366,1.037,581.247
141559,155178,22412,0.028,-0.964,-0.047,-2.866,-0.061,0.671,581.25
141559,155341,13494,0.027,-0.966,-0.047,-2.866,-0.061,0.671,581.257
141597,155178,22412,0.03,-0.968,-0.048,-2.5,0,0.549,581.26
141597,155320,13491,0.025,-0.971,-0.05,-2.5,0,0.549,581.266
141580,155178,22412,0.023,-0.973,-0.046,-1.22,0.244,0.732,581.27
141580,155305,13492,0.026,-0.975,-0.051,-1.22,0.244,0.732,581.276
141561,155178,22412,0.028,-0.972,-0.055,-0.244,0.427,0.732,581.28
141561,155295,13487,0.027,-0.967,-0.057,-0.244,0.427,0.732,581.286
141565,155178,22412,0.029,-0.973,-0.056,0.549,0.732,0.427,581.29
141565,155295,13494,0.028,-0.978,-0.055,0.549,0.732,0.427,581.296
141557,155178,22412,0.026,-0.978,-0.048,2.073,0.976,0.488,581.3
141557,155352,13483,0.02,-0.974,-0.04,2.073,0.976,0.488,581.306
141591,155178,22412,0.019,-0.964,-0.034,3.537,0.976,0.671,581.31
141591,155346,13479,0.022,-0.957,-0.029,3.537,0.976,0.671,581.316
141610,155178,22412,0.024,-0.957,-0.022,2.988,0.854,0.244,581.32
141610,155352,13488,0.024,-0.964,-0.031,2.988,0.854,0.244,581.326
141627,155178,22412,0.025,-0.968,-0.036,1.402,0.671,-0.061,581.33
141627,155363,13489,0.024,-0.967,-0.036,1.402,0.671,-0.061,581.336
141637,155178,22412,0.022,-0.964,-0.035,0.732,0.61,-0.183,581.34
141637,155361,13483,0.024,-0.959,-0.032,0.732,0.61,-0.183,581.346
141646,155178,22412,0.023,-0.955,-0.034,0.549,0.244,-0.305,581.349
141646,155358,13482,0.027,-0.958,-0.039,0.549,0.244,-0.305,581.356
141650,155178,22412,0.028,-0.961,-0.043,0.244,-0.122,-0.427,581.359
141650,155382,13492,0.029,-0.968,-0.046,0.244,-0.122,-0.427,581.366
141653,155178,22412,0.029,-0.97,-0.047,0.732,0.061,-0.305,581.369
141653,155350,13479,0.026,-0.971,-0.042,0.732,0.061,-0.305,581.375
141643,155178,22412,0.026,-0.97,-0.042,1.89,0.549,0,581.379
141643,155360,13493,0.026,-0.973,-0.046,1.89,0.549,0,581.385
141624,155178,22412,0.025,-0.977,-0.044,2.683,0.854,-0.183,581.389
141624,155347,13480,0.024,-0.977,-0.033,2.683,0.854,-0.183,581.395
141626,155178,22412,0.025,-0.968,-0.028,3.049,0.854,-0.488,581.399
141626,155333,13480,0.026,-0.962,-0.028,3.049,0.854,-0.488,581.405
141587,155178,22412,0.029,-0.957,-0.027,2.317,0.61,-0.671,581.409
141587,155352,13474,0.026,-0.959,-0.028,2.317,0.61,-0.671,581.415
141600,155178,22412,0.026,-0.959,-0.029,1.463,0.488,-0.488,581.419
141600,155325,13483,0.03,-0.96,-0.029,1.463,0.488,-0.488,581.425
141597,155178,22412,0.033,-0.955,-0.027,0.549,0.427,-0.488,581.429
141597,155346,13499,0.036,-0.95,-0.023,0.549,0.427,-0.488,581.435
141593,155178,22412,0.036,-0.95,-0.027,-0.061,0.183,-0.061,581.439
141593,155339,13492,0.034,-0.954,-0.028,-0.061,0.183,-0.061,581.445
141572,155178,22412,0.031,-0.964,-0.032,-0.671,0.427,0.793,581.448
141572,155307,13470,0.029,-0.969,-0.032,-0.671,0.427,0.793,581.455
141553,155178,22412,0.028,-0.971,-0.031,-1.28,0.549,1.341,581.458
141553,155311,13494,0.026,-0.966,-0.034,-1.28,0.549,1.341,581.465
141555,155178,22412,0.028,-0.965,-0.038,-2.012,0.366,1.524,581.468
141555,155299,13469,0.029,-0.969,-0.04,-2.012,0.366,1.524,581.474
141563,155178,22412,0.023,-0.981,-0.034,-1.768,0.488,1.646,581.478
141563,155318,13482,0.019,-0.982,-0.036,-1.768,0.488,1.646,581.484
141512,155178,22412,0.019,-0.982,-0.036,-1.768,0.488,1.646,581.488
141512,155286,13482,0.024,-0.963,-0.036,-1.28,0.671,1.646,581.494
141509,155178,22412,0.024,-0.963,-0.036,-1.28,0.671,1.646,581.498
141509,155277,13457,0.026,-0.956,-0.026,-1.159,0.549,1.098,581.504
141510,155178,22412,0.026,-0.956,-0.026,-1.159,0.549,1.098,581.508
141510,155270,13463,0.023,-0.96,-0.04,-1.341,0.549,0.854,581.514
141481,155178,22412,0.023,-0.96,-0.04,-1.341,0.549,0.854,581.518
141481,155279,13479,0.019,-0.965,-0.04,-2.256,0.793,1.037,581.524
141501,155178,22412,0.019,-0.965,-0.04,-2.256,0.793,1.037,581.528
141501,155257,13473,0.027,-0.961,-0.039,-2.012,0.61,0.732,581.534
141499,155178,22412,0.027,-0.961,-0.039,-2.012,0.61,0.732,581.538
141499,155278,13465,0.026,-0.962,-0.036,-1.646,0.183,0.366,581.544
141511,155178,22412,0.026,-0.962,-0.036,-1.646,0.183,0.366,581.547
141511,155256,13461,0.025,-0.962,-0.033,-1.28,0,0.366,581.554
141518,155178,22412,0.025,-0.962,-0.033,-1.28,0,0.366,581.557
141518,155279,13461,0.025,-0.969,-0.043,-1.768,-0.244,0.427,581.563
141526,155178,22412,0.025,-0.969,-0.043,-1.768,-0.244,0.427,581.567
141526,155285,13480,0.027,-0.979,-0.049,-2.134,-0.366,0.305,581.573
141545,155178,22412,0.027,-0.979,-0.049,-2.134,-0.366,0.305,581.577
141545,155322,13471,0.024,-0.974,-0.041,-1.28,0,0,581.583
141537,155178,22412,0.024,-0.974,-0.041,-1.28,0,0,581.587
141537,155284,13471,0.024,-0.971,-0.051,-0.61,0.061,0,581.593
141530,155178,22412,0.024,-0.971,-0.051,-0.61,0.061,0,581.597
141530,155307,13474,0.026,-0.969,-0.045,-0.244,0.122,-0.244,581.603
141565,155178,22412,0.026,-0.969,-0.045,-0.244,0.122,-0.244,581.607
141565,155290,13471,0.032,-0.956,-0.033,0.915,0.244,-0.549,581.613
141580,155178,22412,0.032,-0.956,-0.033,0.915,0.244,-0.549,581.617
141580,155334,13485,0.032,-0.957,-0.038,1.341,0.366,-0.305,581.623
141617,155178,22412,0.032,-0.957,-0.038,1.341,0.366,-0.305,581.627
141617,155328,13492,0.031,-0.966,-0.042,1.098,0.854,0.183,581.633
141617,155178,22412,0.028,-0.975,-0.045,1.098,0.854,0.183,581.637
141617,155343,13495,0.023,-0.974,-0.044,1.524,1.22,0.549,581.643
141646,155178,22412,0.029,-0.968,-0.043,1.524,1.22,0.549,581.646
141646,155366,13479,0.027,-0.962,-0.038,2.073,1.098,0.671,581.653
141643,155178,22412,0.026,-0.965,-0.033,2.073,1.098,0.671,581.656
141643,155361,13483,0.026,-0.97,-0.033,2.744,1.159,0.671,581.663
141678,155178,22412,0.021,-0.971,-0.035,2.744,1.159,0.671,581.666
141678,155385,13491,0.022,-0.971,-0.037,2.256,1.159,0.488,581.672
141663,155178,22412,0.022,-0.965,-0.034,2.256,1.159,0.488,581.676
141663,155387,13501,0.023,-0.961,-0.029,1.585,0.61,0.305,581.682
141680,155178,22412,0.026,-0.954,-0.032,1.585,0.61,0.305,581.686
141680,155391,13489,0.027,-0.948,-0.035,1.098,0.305,0.244,581.692
141696,155178,22412,0.027,-0.955,-0.035,1.098,0.305,0.244,581.696
141696,155386,13492,0.028,-0.962,-0.03,0.854,0.61,0.366,581.702
141724,155434,22412,0.026,-0.966,-0.03,0.854,0.61,0.366,581.706
141724,155406,13496,0.024,-0.965,-0.029,0.488,0.671,0.793,581.712
141705,155434,22412,0.024,-0.96,-0.027,0.488,0.671,0.793,581.716
141705,155421,13500,0.028,-0.965,-0.027,-0.244,0.366,0.732,581.722
141701,155178,22412,0.028,-0.971,-0.029,-0.244,0.366,0.732,581.726
141701,155384,13501,0.02,-0.971,-0.032,-0.976,0.183,0.488,581.732
141685,155434,22412,0.022,-0.97,-0.032,-0.976,0.183,0.488,581.736
141685,155400,13487,0.021,-0.97,-0.032,-1.951,-0.183,0,581.742
141672,155178,22412,0.025,-0.965,-0.032,-1.951,-0.183,0,581.745
141672,155375,13489,0.027,-0.962,-0.037,-2.378,-0.671,-0.488,581.752
141641,155178,22412,0.029,-0.965,-0.045,-2.378,-0.671,-0.488,581.755
141641,155359,13479,0.03,-0.971,-0.046,-2.073,-0.488,-0.976,581.761
141640,155178,22412,0.027,-0.971,-0.04,-2.073,-0.488,-0.976,581.765
141640,155368,13491,0.026,-0.965,-0.038,-0.793,-0.244,-0.976,581.771
141628,155178,22412,0.023,-0.962,-0.04,-0.793,-0.244,-0.976,581.775
141628,155338,13481,0.026,-0.964,-0.038,-0.549,-0.122,-0.793,581.781
141600,155178,22412,0.026,-0.967,-0.036,-0.549,-0.122,-0.793,581.785
141600,155356,13486,0.024,-0.966,-0.036,-0.671,-0.244,-0.915,581.791
141640,155178,22412,0.029,-0.965,-0.038,-0.671,-0.244,-0.915,581.795
141640,155354,13465,0.03,-0.965,-0.038,-0.732,-0.305,-0.732,581.801
141645,155178,22412,0.031,-0.965,-0.035,-0.732,-0.305,-0.732,581.805
141645,155369,13483,0.034,-0.959,-0.033,-0.671,-0.183,-0.305,581.811
141615,155178,22412,0.034,-0.959,-0.031,-0.671,-0.183,-0.305,581.815
141615,155365,13500,0.034,-0.959,-0.036,-1.098,0.061,0.366,581.821
141605,155178,22412,0.034,-0.965,-0.041,-1.098,0.061,0.366,581.825
141605,155338,13484,0.03,-0.97,-0.047,-1.707,0.366,1.037,581.831
141594,155178,22412,0.03,-0.976,-0.047,-1.707,0.366,1.037,581.835
141594,155310,13475,0.029,-0.976,-0.05,-0.671,0.793,1.829,581.841
141562,155178,22412,0.028,-0.971,-0.051,-0.671,0.793,1.829,581.844
141562,155341,13484,0.028,-0.968,-0.046,0.549,1.098,2.073,581.851
141545,155178,22412,0.027,-0.971,-0.046,0.549,1.098,2.073,581.854
141545,155333,13466,0.026,-0.973,-0.041,1.768,1.402,1.951,581.86
141535,155178,22412,0.025,-0.968,-0.045,1.768,1.402,1.951,581.864
141535,155300,13467,0.024,-0.966,-0.047,2.5,1.524,1.463,581.87
141531,155178,22412,0.022,-0.964,-0.04,2.5,1.524,1.463,581.874
141531,155314,13483,0.023,-0.964,-0.029,3.049,1.463,1.037,581.88
141530,155178,22412,0.017,-0.96,-0.027,3.049,1.463,1.037,581.884
141530,155300,13480,0.019,-0.96,-0.029,2.744,1.28,0.671,581.89
141547,155178,22412,0.024,-0.958,-0.03,2.744,1.28,0.671,581.894
141547,155302,13468,0.024,-0.958,-0.023,1.707,0.915,0.122,581.9
141577,155178,22412,0.024,-0.959,-0.021,1.707,0.915,0.122,581.904
141577,155340,13472,0.024,-0.962,-0.026,0.793,0.427,0.061,581.91
141584,155178,22412,0.023,-0.967,-0.024,0.793,0.427,0.061,581.914
141584,155331,13474,0.02,-0.968,-0.03,-0.61,0.122,-0.061,581.92
141607,155178,22412,0.021,-0.968,-0.035,-0.61,0.122,-0.061,581.924
141607,155339,13483,0.025,-0.967,-0.036,-1.646,-0.122,-0.549,581.93
141638,155178,22412,0.029,-0.968,-0.037,-1.646,-0.122,-0.549,581.934
141638,155348,13482,0.028,-0.972,-0.039,-1.585,-0.183,-0.854,581.94
141627,155178,22412,0.027,-0.968,-0.042,-1.585,-0.183,-0.854,581.943
141627,155354,13483,0.028,-0.965,-0.041,-1.098,0.061,-0.61,581.95
141616,155178,22412,0.029,-0.966,-0.04,-1.098,0.061,-0.61,581.953
141616,155359,13486,0.03,-0.966,-0.042,-0.183,0.244,-0.488,581.959
141632,155178,22412,0.031,-0.966,-0.039,-0.183,0.244,-0.488,581.963
141632,155383,13496,0.03,-0.966,-0.038,0.122,0.244,-0.488,581.969
141658,155434,22412,0.028,-0.962,-0.036,0.122,0.244,-0.488,581.973
141658,155414,13488,0.027,-0.958,-0.029,0.183,0.244,-0.061,581.979
141666,155178,22412,0.032,-0.956,-0.03,0.183,0.244,-0.061,581.983
141666,155355,13487,0.03,-0.954,-0.036,-0.427,0.183,0.183,581.989
141638,155178,22412,0.031,-0.961,-0.036,-0.427,0.183,0.183,581.993
141638,155383,13487,0.029,-0.964,-0.037,-0.976,0.244,0.427,581.999
141651,155178,22412,0.031,-0.964,-0.036,-0.976,0.244,0.427,582.003
141651,155383,13488,0.03,-0.968,-0.032,-0.671,0.305,0.732,582.009
141622,155178,22412,0.027,-0.962,-0.033,-0.671,0.305,0.732,582.013
141622,155342,13493,0.026,-0.96,-0.035,-1.159,0.183,0.976,582.019
141613,155178,22412,0.026,-0.966,-0.032,-1.159,0.183,0.976,582.023
141613,155356,13501,0.024,-0.968,-0.03,-1.524,0.122,1.098,582.029
141604,155178,22412,0.022,-0.967,-0.032,-1.524,0.122,1.098,582.033
141604,155349,13494,0.023,-0.963,-0.041,-2.012,0.183,0.854,582.039
141608,155178,22412,0.022,-0.969,-0.048,-2.012,0.183,0.854,582.042
141608,155355,13494,0.022,-0.976,-0.049,-2.317,0.244,0.305,582.049
141594,155178,22412,0.026,-0.978,-0.047,-2.317,0.244,0.305,582.052
141594,155341,13478,0.027,-0.974,-0.043,-0.915,0.427,0,582.058
141585,155178,22412,0.029,-0.964,-0.04,-0.915,0.427,0,582.062
141585,155316,13476,0.028,-0.958,-0.038,0.061,0.427,0.061,582.068
141583,155178,22412,0.028,-0.958,-0.038,0.061,0.427,0.061,582.072
141583,155349,13483,0.031,-0.957,-0.041,0.122,0.488,0.122,582.078
141586,155178,22412,0.031,-0.957,-0.041,0.122,0.488,0.122,582.082
141586,155357,13497,0.03,-0.968,-0.037,0.122,0.732,0.183,582.088
141591,155178,22412,0.03,-0.968,-0.037,0.122,0.732,0.183,582.092
141591,155324,13487,0.026,-0.967,-0.041,0.366,0.732,0.488,582.098
141597,155178,22412,0.026,-0.967,-0.041,0.366,0.732,0.488,582.102
141597,155335,13479,0.026,-0.965,-0.038,0.671,0.488,0.732,582.108
141597,155178,22412,0.026,-0.965,-0.038,0.671,0.488,0.732,582.112
141597,155351,13491,0.026,-0.967,-0.039,1.037,0.366,0.732,582.118
141595,155178,22412,0.026,-0.967,-0.039,1.037,0.366,0.732,582.122
141595,155341,13485,0.027,-0.965,-0.038,0.976,0.549,0.427,582.128
141592,155178,22412,0.027,-0.965,-0.038,0.976,0.549,0.427,582.131
141592,155353,13484,0.026,-0.974,-0.03,1.463,0.549,0.427,582.138
141608,155178,22412,0.026,-0.974,-0.03,1.463,0.549,0.427,582.141
141608,155355,13488,0.026,-0.959,-0.033,1.22,0.366,0.427,582.148
141621,155178,22412,0.026,-0.959,-0.033,1.22,0.366,0.427,582.151
141621,155345,13491,0.029,-0.958,-0.027,0.427,0.366,0.305,582.157
141637,155178,22412,0.029,-0.958,-0.027,0.427,0.366,0.305,582.161
141637,155349,13487,0.029,-0.959,-0.033,-0.427,0.427,0.305,582.167
141634,155178,22412,0.029,-0.959,-0.033,-0.427,0.427,0.305,582.171
141634,155369,13482,0.024,-0.964,-0.037,-0.915,0.427,0.549,582.177
141643,155178,22412,0.024,-0.964,-0.037,-0.915,0.427,0.549,582.181
141643,155359,13473,0.027,-0.964,-0.039,-0.793,0.122,0.549,582.187
141645,155178,22412,0.027,-0.964,-0.039,-0.793,0.122,0.549,582.191
141645,155355,13493,0.028,-0.967,-0.037,-0.854,0.061,0.488,582.197
141646,155178,22412,0.028,-0.967,-0.037,-0.854,0.061,0.488,582.201
141646,155376,13495,0.027,-0.973,-0.039,-0.671,0.305,0.549,582.207
141676,155178,22412,0.027,-0.973,-0.039,-0.671,0.305,0.549,582.211
141676,155367,13504,0.026,-0.972,-0.037,-0.671,0.305,0.549,582.217
141657,155178,22412,0.028,-0.97,-0.039,-0.366,0.122,0.549,582.221
141657,155361,13472,0.026,-0.969,-0.036,-0.366,0.122,0.549,582.227
141636,155178,22412,0.022,-0.967,-0.032,-0.366,0.183,0.427,582.231
141636,155373,13499,0.025,-0.962,-0.034,-0.366,0.183,0.427,582.237
141651,155178,22412,0.028,-0.962,-0.031,-0.793,0.061,0.366,582.24
141651,155376,13479,0.026,-0.964,-0.028,-0.793,0.061,0.366,582.247
141634,155178,22412,0.027,-0.961,-0.033,-1.646,-0.061,0.183,582.25
141634,155374,13491,0.024,-0.962,-0.035,-1.646,-0.061,0.183,582.256
141615,155178,22412,0.025,-0.962,-0.039,-2.439,-0.244,0.244,582.26
141615,155335,13466,0.027,-0.957,-0.038,-2.439,-0.244,0.244,582.266
141604,155178,22412,0.028,-0.958,-0.039,-2.5,-0.366,0.366,582.27
141604,155371,13477,0.031,-0.964,-0.041,-2.5,-0.366,0.366,582.276
141587,155178,22412,0.027,-0.968,-0.037,-2.378,-0.122,0.427,582.28
141587,155331,13483,0.025,-0.966,-0.039,-2.378,-0.122,0.427,582.286
141555,155178,22412,0.025,-0.969,-0.047,-2.195,0,0.671,582.29
141555,155291,13486,0.026,-0.972,-0.05,-2.195,0,0.671,582.296
141556,155178,22412,0.028,-0.974,-0.047,-1.89,-0.061,0.366,582.3
141556,155308,13472,0.026,-0.975,-0.044,-1.89,-0.061,0.366,582.306
141502,155178,22412,0.025,-0.97,-0.043,-1.098,0.061,0.305,582.31
141502,155274,13462,0.029,-0.969,-0.047,-1.098,0.061,0.305,582.316
141512,155178,22412,0.028,-0.967,-0.044,-0.427,0.061,0.366,582.32
141512,155276,13477,0.025,-0.968,-0.035,-0.427,0.061,0.366,582.326
141513,155178,22412,0.023,-0.966,-0.031,0.366,0.244,0.366,582.329
141513,155293,13457,0.023,-0.963,-0.036,0.366,0.244,0.366,582.336
141536,155178,22412,0.028,-0.963,-0.042,-0.183,0.183,0.061,582.339
141536,155288,13483,0.029,-0.965,-0.043,-0.183,0.183,0.061,582.346
141528,155178,22412,0.029,-0.969,-0.033,-0.122,0.122,-0.061,582.349
141528,155332,13468,0.028,-0.964,-0.033,-0.122,0.122,-0.061,582.355
141561,155178,22412,0.026,-0.96,-0.031,-0.061,0.366,0.183,582.359
141561,155296,13474,0.029,-0.962,-0.031,-0.061,0.366,0.183,582.365
141550,155178,22412,0.03,-0.962,-0.033,-0.854,0.366,0.366,582.369
141550,155308,13472,0.026,-0.965,-0.037,-0.854,0.366,0.366,582.375
141566,155178,22412,0.026,-0.968,-0.039,-1.28,0.305,0.61,582.379
141566,155337,13486,0.028,-0.967,-0.038,-1.28,0.305,0.61,582.385
141559,155178,22412,0.026,-0.964,-0.041,-1.585,0.122,0.549,582.389
141559,155312,13464,0.024,-0.964,-0.038,-1.585,0.122,0.549,582.395
141547,155178,22412,0.025,-0.965,-0.032,-1.524,0,0.488,582.399
141547,155335,13469,0.025,-0.963,-0.035,-1.524,0,0.488,582.405
141562,155178,22412,0.028,-0.961,-0.042,-2.012,0.122,0.427,582.409
141562,155321,13468,0.027,-0.963,-0.044,-2.012,0.122,0.427,582.415
141554,155178,22412,0.029,-0.965,-0.044,-2.378,0.122,0.244,582.419
141554,155299,13465,0.029,-0.968,-0.043,-2.378,0.122,0.244,582.425
141560,155178,22412,0.029,-0.963,-0.045,-1.829,0.183,0.366,582.429
141560,155289,13470,0.028,-0.963,-0.046,-1.829,0.183,0.366,582.435
141530,155178,22412,0.025,-0.96,-0.043,-1.402,0.244,0.732,582.438
141530,155290,13488,0.023,-0.963,-0.039,-1.402,0.244,0.732,582.445
141546,155178,22412,0.024,-0.967,-0.039,-0.915,0.183,0.854,582.448
141546,155316,13473,0.026,-0.968,-0.041,-0.915,0.183,0.854,582.454
141551,155178,22412,0.024,-0.966,-0.042,-1.159,0.244,0.793,582.458
141551,155314,13462,0.023,-0.968,-0.046,-1.159,0.244,0.793,582.464
141528,155178,22412,0.024,-0.969,-0.047,-0.976,0.183,0.488,582.468
141528,155295,13477,0.024,-0.976,-0.049,-0.976,0.183,0.488,582.474
141516,155178,22412,0.024,-0.976,-0.049,-0.488,0.305,0.183,582.478
141516,155249,13483,0.025,-0.968,-0.053,-0.488,0.305,0.183,582.484
141500,155178,22412,0.024,-0.968,-0.05,0.061,0.488,0.061,582.488
141500,155266,13471,0.026,-0.968,-0.039,0.061,0.488,0.061,582.494
141518,155178,22412,0.026,-0.968,-0.024,1.098,0.183,-0.061,582.498
141518,155269,13471,0.025,-0.958,-0.018,1.098,0.183,-0.061,582.504
141500,155178,22412,0.025,-0.946,-0.026,-0.122,-0.183,0.061,582.508
141500,155257,13470,0.026,-0.949,-0.035,-0.122,-0.183,0.061,582.514
141489,155178,22412,0.026,-0.962,-0.04,-2.622,-0.305,-0.061,582.518
141489,155247,13447,0.028,-0.966,-0.041,-2.622,-0.305,-0.061,582.524
141474,155178,22412,0.029,-0.963,-0.05,-2.866,-0.305,0,582.528
141474,155268,13453,0.03,-0.961,-0.061,-2.866,-0.305,0,582.534
141478,155178,22412,0.035,-0.964,-0.058,-2.195,-0.305,0.122,582.537
141478,155246,13464,0.031,-0.974,-0.05,-2.195,-0.305,0.122,582.544
141476,155178,22412,0.027,-0.976,-0.049,-0.366,0.122,0.549,582.547
141476,155255,13468,0.026,-0.975,-0.051,-0.366,0.122,0.549,582.553
141474,155178,22412,0.028,-0.97,-0.054,0.427,0.61,0.671,582.557
141474,155220,13451,0.027,-0.974,-0.047,0.427,0.61,0.671,582.563
141451,155178,22412,0.028,-0.976,-0.041,1.341,0.793,0.549,582.567
141451,155234,13464,0.025,-0.974,-0.039,1.341,0.793,0.549,582.573
141451,155178,22412,0.026,-0.964,-0.039,1.707,0.915,0.61,582.577
141451,155228,13450,0.027,-0.958,-0.037,1.707,0.915,0.61,582.583
141460,155178,22412,0.026,-0.957,-0.036,1.28,0.915,0.488,582.587
141460,155221,13445,0.028,-0.96,-0.03,1.28,0.915,0.488,582.593
141445,155178,22412,0.027,-0.957,-0.034,0.671,0.915,0.366,582.597
141445,155240,13474,0.025,-0.956,-0.033,0.671,0.915,0.366,582.603
