133542,150826,22412,-0.001,-0.966,-0.059,1.22,0.488,0,579.56
133542,151039,12209,-0.004,-0.964,-0.062,0.915,0.488,-0.061,579.566
133572,150826,22412,-0.003,-0.967,-0.058,0.915,0.488,-0.061,579.57
133572,151029,12206,-0.001,-0.965,-0.057,0.549,0.549,0,579.576
133539,150826,22412,-0,-0.963,-0.057,0.549,0.549,0,579.579
133539,151003,12209,0.003,-0.964,-0.061,0,0.549,-0.183,579.586
133504,150826,22412,0.005,-0.962,-0.063,0,0.549,-0.183,579.589
133504,150986,12202,0.003,-0.963,-0.064,-0.183,0.488,0.122,579.596
133497,150826,22412,0.001,-0.967,-0.059,-0.183,0.488,0.122,579.599
133497,150975,12197,-0.001,-0.967,-0.057,-0.122,0.366,0.427,579.605
133500,150826,22412,0.004,-0.964,-0.057,-0.122,0.366,0.427,579.609
133500,150969,12195,0.006,-0.961,-0.058,-0.549,0.305,0.427,579.615
133506,150826,22412,0.004,-0.966,-0.054,-0.549,0.305,0.427,579.619
133506,151021,12187,-0.003,-0.969,-0.057,-1.341,0.122,0.854,579.625
133540,150826,22412,-0,-0.964,-0.063,-1.341,0.122,0.854,579.629
133540,151015,12194,0,-0.966,-0.071,-1.829,0.183,0.793,579.635
133494,150826,22412,-0.002,-0.97,-0.069,-1.829,0.183,0.793,579.639
133494,150969,12204,-0.002,-0.967,-0.07,-0.488,0.305,0.549,579.645
133495,150826,22412,-0.003,-0.965,-0.065,-0.488,0.305,0.549,579.649
133495,150962,12190,-0.003,-0.966,-0.059,0.915,0.366,0.427,579.655
133473,150826,22412,-0.004,-0.963,-0.058,0.915,0.366,0.427,579.659
133473,150939,12189,0,-0.959,-0.057,0.793,0.488,0.366,579.665
133443,150826,22412,-0.004,-0.966,-0.054,0.793,0.488,0.366,579.669
133443,150922,12180,-0,-0.965,-0.061,0.122,0.305,0.671,579.675
133451,150826,22412,-0.002,-0.966,-0.058,0.122,0.305,0.671,579.678
133451,150976,12200,-0.005,-0.964,-0.059,-0.244,0.061,1.037,579.685
133513,150826,22412,-0.002,-0.966,-0.062,-0.244,0.061,1.037,579.688
133513,150948,12190,-0.005,-0.969,-0.061,-0.61,0.244,0.915,579.695
133493,150826,22412,-0.002,-0.968,-0.063,-0.61,0.244,0.915,579.698
133493,150959,12203,-0.001,-0.964,-0.067,-0.488,0.305,0.61,579.704
133502,150826,22412,-0.001,-0.964,-0.063,-0.488,0.305,0.61,579.708
133502,150975,12198,-0.001,-0.967,-0.063,-0.549,0.366,0.427,579.714
133512,150826,22412,-0.003,-0.962,-0.061,-0.549,0.366,0.427,579.718
133512,150960,12192,0.001,-0.961,-0.061,-0.488,0.427,0.305,579.724
133459,150826,22412,0.002,-0.962,-0.062,-0.488,0.427,0.305,579.728
133459,150954,12203,0.001,-0.967,-0.055,-0.488,0.366,0.305,579.734
133451,150826,22412,0.001,-0.967,-0.05,-0.488,0.366,0.305,579.738
133451,150959,12197,-0.004,-0.962,-0.058,-0.61,0.366,0.488,579.744
133477,150826,22412,-0,-0.962,-0.065,-0.61,0.366,0.488,579.748
133477,150945,12182,-0.002,-0.965,-0.066,-0.976,0.366,0.488,579.754
133473,150826,22412,0,-0.97,-0.062,-0.976,0.366,0.488,579.758
133473,150966,12194,-0.002,-0.968,-0.059,-0.305,0.305,0.488,579.764
133452,150826,22412,-0.002,-0.962,-0.058,-0.305,0.305,0.488,579.768
133452,150942,12188,-0.002,-0.965,-0.06,-0.427,0.305,0.305,579.774
133467,150826,22412,-0.003,-0.968,-0.069,-0.427,0.305,0.305,579.777
133467,150926,12183,-0.005,-0.966,-0.067,-0.305,0.305,0.366,579.784
133448,150826,22412,-0.001,-0.963,-0.064,-0.305,0.305,0.366,579.787
133448,150923,12195,-0,-0.96,-0.056,0.366,0.366,0.244,579.794
133420,150826,22412,0,-0.961,-0.05,0.366,0.366,0.244,579.797
133420,150924,12183,0.001,-0.964,-0.054,-0.244,0.366,0.244,579.803
133398,150826,22412,-0.001,-0.966,-0.065,-0.244,0.366,0.244,579.807
133398,150890,12192,-0.006,-0.965,-0.069,-1.402,0.244,0.671,579.813
133381,150826,22412,-0.003,-0.967,-0.066,-1.402,0.244,0.671,579.817
133381,150913,12193,-0.004,-0.973,-0.07,-1.037,0.366,0.488,579.823
133415,150826,22412,-0.002,-0.969,-0.068,-1.037,0.366,0.488,579.827
133415,150905,12185,0,-0.964,-0.063,0,0.549,-0.061,579.833
133398,150826,22412,0.002,-0.963,-0.067,0,0.549,-0.061,579.837
133398,150907,12196,-0,-0.964,-0.062,0.488,0.671,-0.183,579.843
133394,150826,22412,-0.002,-0.962,-0.061,0.488,0.671,-0.183,579.847
133394,150907,12185,-0.003,-0.962,-0.058,0.671,0.671,0.122,579.853
133391,150826,22412,-0,-0.96,-0.054,0.671,0.671,0.122,579.857
133391,150892,12183,0.001,-0.962,-0.047,0.488,0.549,0.061,579.863
133377,150826,22412,0,-0.967,-0.054,0.488,0.549,0.061,579.867
133377,150878,12183,0.001,-0.967,-0.064,-0.61,0.305,0.366,579.873
133379,150826,22412,-0,-0.964,-0.062,-0.61,0.305,0.366,579.877
133379,150908,12185,-0.002,-0.962,-0.059,-1.341,0.305,0.671,579.883
133376,150826,22412,-0,-0.969,-0.062,-1.341,0.305,0.671,579.886
133376,150875,12181,-0,-0.969,-0.071,-1.037,0.305,0.549,579.893
133349,150826,22412,-0.002,-0.968,-0.074,-1.037,0.305,0.549,579.896
133349,150874,12176,-0.007,-0.966,-0.069,-0.366,0.366,0.488,579.902
133333,150826,22412,-0.005,-0.966,-0.065,-0.366,0.366,0.488,579.906
133333,150863,12169,0,-0.961,-0.061,0.732,0.488,0.122,579.912
133334,150826,22412,0.003,-0.96,-0.058,0.732,0.488,0.122,579.916
133334,150850,12188,0.001,-0.96,-0.058,0.671,0.549,0.122,579.922
133340,150826,22412,0,-0.963,-0.06,0.671,0.549,0.122,579.926
133340,150856,12173,-0,-0.964,-0.059,0.366,0.366,0.549,579.932
133349,150826,22412,0,-0.963,-0.063,0.366,0.366,0.549,579.936
133349,150869,12183,0.001,-0.964,-0.068,0.122,0.488,0.671,579.942
133350,150826,22412,0.001,-0.967,-0.057,0.122,0.488,0.671,579.946
133350,150864,12173,-0.002,-0.967,-0.057,0,0.427,0.671,579.952
133339,150826,22412,0,-0.969,-0.064,0,0.427,0.671,579.956
133339,150887,12184,-0.001,-0.969,-0.063,-0.549,0.427,0.61,579.962
133347,150826,22412,-0.002,-0.968,-0.057,-0.549,0.427,0.61,579.966
133347,150873,12171,-0.003,-0.963,-0.052,-0.793,0.366,0.488,579.972
133334,150826,22412,-0.003,-0.963,-0.052,-0.793,0.366,0.488,579.975
133334,150834,12182,-0.001,-0.959,-0.064,-2.012,0.305,0.427,579.982
133324,150826,22412,-0.001,-0.959,-0.064,-2.012,0.305,0.427,579.985
133324,150890,12178,-0.004,-0.971,-0.076,-2.256,0.244,0.549,579.992
133383,150826,22412,-0.004,-0.971,-0.076,-2.256,0.244,0.549,579.995
133383,150891,12183,-0.001,-0.963,-0.078,-0.488,0.366,0.488,580.001
133411,150826,22412,-0.001,-0.963,-0.078,-0.488,0.366,0.488,580.005
133411,150898,12198,-0.001,-0.966,-0.063,1.463,0.61,0.183,580.011
133399,150826,22412,-0.001,-0.966,-0.063,1.463,0.61,0.183,580.015
133399,150905,12186,0,-0.965,-0.051,2.012,0.549,0.183,580.021
133393,150826,22412,0,-0.965,-0.051,2.012,0.549,0.183,580.025
133393,150897,12188,-0.001,-0.963,-0.056,0.976,0.549,0.366,580.031
133381,150826,22412,-0.001,-0.963,-0.056,0.976,0.549,0.366,580.035
133381,150906,12185,-0.002,-0.963,-0.059,-0.183,0.488,0.244,580.041
133375,150826,22412,-0.002,-0.963,-0.059,-0.183,0.488,0.244,580.045
133375,150868,12177,0.001,-0.964,-0.052,-0.732,0.427,0.183,580.051
133362,150826,22412,0.001,-0.964,-0.052,-0.732,0.427,0.183,580.055
133362,150860,12189,-0,-0.963,-0.054,-1.524,0.305,0.183,580.061
133374,150826,22412,-0,-0.963,-0.054,-1.524,0.305,0.183,580.065
133374,150879,12192,-0.002,-0.965,-0.059,-2.256,0,0.61,580.071
133344,150826,22412,-0.002,-0.965,-0.059,-2.256,0,0.61,580.075
133344,150874,12181,-0.003,-0.968,-0.068,-2.683,0,0.671,580.081
133324,150826,22412,-0.003,-0.968,-0.068,-2.683,0,0.671,580.084
133324,150866,12176,0,-0.965,-0.078,-1.951,0.244,0.61,580.091
133291,150826,22412,0,-0.965,-0.078,-1.951,0.244,0.61,580.094
133291,150825,12171,-0.002,-0.966,-0.073,-0.488,0.366,0.488,580.1
133314,150826,22412,-0.002,-0.966,-0.073,-0.488,0.366,0.488,580.104
133314,150831,12179,-0.001,-0.965,-0.07,0.61,0.488,0.488,580.11
133314,150826,22412,-0.001,-0.965,-0.07,0.61,0.488,0.488,580.114
133314,150869,12177,-0.004,-0.965,-0.067,0.854,0.549,0.366,580.12
133321,150826,22412,-0.004,-0.965,-0.067,0.854,0.549,0.366,580.124
133321,150871,12179,-0.002,-0.964,-0.066,0.854,0.549,0.366,580.13
133339,150826,22412,-0.002,-0.964,-0.057,0.915,0.61,0.244,580.134
133339,150890,12181,-0.004,-0.966,-0.051,0.915,0.61,0.244,580.14
133306,150826,22412,-0.002,-0.964,-0.053,0.183,0.549,0.183,580.144
133306,150834,12174,-0.002,-0.964,-0.054,0.183,0.549,0.183,580.15
133260,150826,22412,-0.005,-0.964,-0.062,-0.976,0.427,0.366,580.154
133260,150831,12174,-0.002,-0.97,-0.074,-0.976,0.427,0.366,580.16
133267,150826,22412,-0.005,-0.97,-0.077,-0.793,0.366,0.488,580.164
133267,150792,12166,-0.007,-0.966,-0.069,-0.793,0.366,0.488,580.17
133252,150826,22412,-0.004,-0.967,-0.059,0.671,0.427,0.244,580.174
133252,150790,12167,0.002,-0.966,-0.059,0.671,0.427,0.244,580.18
133259,150826,22412,0.005,-0.962,-0.061,0.549,0.549,-0.061,580.183
133259,150795,12166,0.002,-0.959,-0.065,0.549,0.549,-0.061,580.19
133277,150570,22412,0.001,-0.963,-0.07,-0.366,0.427,0.244,580.193
133277,150779,12174,-0,-0.963,-0.061,-0.366,0.427,0.244,580.2
133269,150826,22412,-0,-0.962,-0.06,-0.427,0.305,0.61,580.203
133269,150824,12175,-0.001,-0.96,-0.068,-0.427,0.305,0.61,580.209
133275,150826,22412,-0,-0.968,-0.076,-0.671,0.244,0.427,580.213
133275,150803,12168,-0.001,-0.966,-0.075,-0.671,0.244,0.427,580.219
133254,150826,22412,-0.002,-0.962,-0.075,0.366,0.366,0.427,580.223
133254,150799,12175,-0.001,-0.969,-0.061,0.366,0.366,0.427,580.229
133256,150826,22412,-0.001,-0.966,-0.057,1.951,0.488,0.305,580.233
133256,150796,12175,-0.002,-0.963,-0.062,1.951,0.488,0.305,580.239
133224,150826,22412,-0.001,-0.968,-0.056,1.829,0.671,0.183,580.243
133224,150791,12176,-0.001,-0.963,-0.047,1.829,0.671,0.183,580.249
133186,150570,22412,-0.004,-0.958,-0.048,0.915,0.549,0.183,580.253
133186,150748,12171,-0.002,-0.962,-0.055,0.915,0.549,0.183,580.259
133142,150570,22412,-0.003,-0.968,-0.06,-0.671,0.427,0.183,580.263
133142,150686,12146,-0.008,-0.964,-0.056,-0.671,0.427,0.183,580.269
133099,150570,22412,-0.002,-0.962,-0.058,-1.402,0.305,0.427,580.273
133099,150646,12145,0,-0.964,-0.067,-1.402,0.305,0.427,580.279
133089,150570,22412,0.001,-0.967,-0.069,-1.524,0.366,0.427,580.282
133089,150669,12136,-0.001,-0.966,-0.071,-1.524,0.366,0.427,580.289
133101,150570,22412,-0.004,-0.967,-0.068,-0.976,0.305,0.61,580.292
133101,150660,12145,-0.001,-0.965,-0.069,-0.976,0.305,0.61,580.298
133090,150570,22412,0,-0.963,-0.062,0.061,0.366,0.61,580.302
133090,150665,12152,0.004,-0.959,-0.058,0.061,0.366,0.61,580.308
133096,150570,22412,0.002,-0.963,-0.066,0.061,0.305,0.671,580.312
133096,150674,12133,-0.001,-0.97,-0.073,0.061,0.305,0.671,580.318
133081,150570,22412,-0.005,-0.972,-0.068,0.122,0.305,0.854,580.322
133081,150665,12146,-0.002,-0.966,-0.062,0.122,0.305,0.854,580.328
133075,150570,22412,0,-0.961,-0.057,0.671,0.366,0.549,580.332
133075,150654,12151,0.001,-0.961,-0.056,0.671,0.366,0.549,580.338
133054,150570,22412,0,-0.966,-0.057,0.183,0.427,0.244,580.342
133054,150644,12134,-0.003,-0.967,-0.062,0.183,0.427,0.244,580.348
132988,150570,22412,-0.005,-0.966,-0.066,-0.793,0.305,0.61,580.352
132988,150610,12132,-0.005,-0.963,-0.062,-0.793,0.305,0.61,580.358
132979,150570,22412,-0.003,-0.963,-0.051,-0.488,0.244,0.61,580.362
132979,150570,12134,-0.001,-0.965,-0.05,-0.488,0.244,0.61,580.368
132940,150570,22412,-0.002,-0.961,-0.062,-0.793,0.244,0.549,580.372
132940,150578,12132,-0.005,-0.964,-0.072,-0.793,0.244,0.549,580.378
132950,150570,22412,-0.005,-0.967,-0.075,-1.646,0.305,0.549,580.381
132950,150529,12124,-0.009,-0.967,-0.076,-1.646,0.305,0.549,580.388
132964,150570,22412,-0.005,-0.964,-0.067,0,0.488,0.305,580.391
132964,150590,12138,0.001,-0.962,-0.064,0,0.488,0.305,580.398
132993,150570,22412,0.002,-0.962,-0.069,1.098,0.61,-0.183,580.401
132993,150571,12135,0.001,-0.964,-0.067,1.098,0.61,-0.183,580.407
132972,150570,22412,-0.002,-0.968,-0.057,1.22,0.61,0,580.411
132972,150583,12140,-0.001,-0.959,-0.057,1.22,0.61,0,580.417
132969,150570,22412,0.002,-0.963,-0.062,0.793,0.488,0.122,580.421
132969,150586,12136,0.002,-0.969,-0.06,0.793,0.488,0.122,580.427
132934,150570,22412,-0.003,-0.968,-0.057,0.244,0.427,0.183,580.431
132934,150573,12116,-0.001,-0.967,-0.058,0.244,0.427,0.183,580.437
132944,150570,22412,-0,-0.962,-0.061,-0.366,0.305,0.305,580.441
132944,150582,12133,0.001,-0.962,-0.065,-0.366,0.305,0.305,580.447
132946,150570,22412,0,-0.967,-0.063,-0.793,0.305,0.488,580.451
132946,150565,12131,-0.002,-0.966,-0.069,-0.793,0.305,0.488,580.457
132946,150570,22412,-0.002,-0.968,-0.07,-0.427,0.305,0.61,580.461
132946,150545,12134,-0.001,-0.965,-0.072,-0.427,0.305,0.61,580.467
132945,150570,22412,0.002,-0.961,-0.066,0.305,0.305,0.488,580.471
132945,150552,12140,-0.001,-0.965,-0.062,0.305,0.305,0.488,580.477
132944,150314,22412,0.002,-0.964,-0.071,0.915,0.427,0.488,580.48
132944,150522,12124,-0.004,-0.968,-0.074,0.915,0.427,0.488,580.487
132922,150314,22412,-0.004,-0.974,-0.065,1.463,0.427,0.61,580.49
132922,150513,12120,-0.002,-0.966,-0.051,1.463,0.427,0.61,580.497
132930,150570,22412,-0.002,-0.959,-0.047,1.22,0.61,0.244,580.5
132930,150549,12138,0.002,-0.958,-0.06,1.22,0.61,0.244,580.506
132935,150570,22412,0,-0.964,-0.067,-0.732,0.549,0.244,580.51
132935,150554,12146,-0.005,-0.965,-0.062,-0.732,0.549,0.244,580.516
132995,150570,22412,-0.007,-0.967,-0.06,-0.732,0.305,0.549,580.52
132995,150556,12141,-0.004,-0.963,-0.055,-0.732,0.305,0.549,580.526
132964,150570,22412,-0,-0.962,-0.058,-0.61,0.366,0.183,580.53
132964,150574,12135,0.001,-0.962,-0.065,-0.61,0.366,0.183,580.536
132961,150570,22412,-0.004,-0.967,-0.068,-0.915,0.305,0.488,580.54
132961,150548,12135,-0.009,-0.969,-0.064,-0.915,0.305,0.488,580.546
132939,150570,22412,-0.002,-0.964,-0.065,-0.305,0.305,0.671,580.55
132939,150536,12117,-0,-0.964,-0.063,-0.305,0.305,0.671,580.556
132887,150314,22412,0.001,-0.965,-0.063,0.061,0.366,0.183,580.56
132887,150506,12133,0,-0.963,-0.058,0.061,0.366,0.183,580.566
132888,150570,22412,0,-0.963,-0.058,0.061,0.366,0.183,580.57
132888,150542,12132,-0.001,-0.961,-0.068,-0.122,0.366,0.244,580.576
132896,150314,22412,-0.001,-0.961,-0.068,-0.122,0.366,0.244,580.579
132896,150496,12125,-0.004,-0.97,-0.07,-0.488,0.366,0.366,580.586
132870,150314,22412,-0.004,-0.97,-0.07,-0.488,0.366,0.366,580.589
132870,150487,12121,-0,-0.963,-0.062,0.305,0.488,0.488,580.596
132913,150314,22412,-0,-0.963,-0.062,0.305,0.488,0.488,580.599
132913,150510,12127,0.003,-0.967,-0.059,0.488,0.427,0.244,580.605
132918,150314,22412,0.003,-0.967,-0.059,0.488,0.427,0.244,580.609
132918,150510,12119,-0.003,-0.964,-0.053,0.061,0.366,0.305,580.615
132921,150314,22412,-0.003,-0.964,-0.053,0.061,0.366,0.305,580.619
132921,150516,12121,-0.003,-0.967,-0.063,-0.305,0.366,0.305,580.625
132910,150314,22412,-0.003,-0.967,-0.063,-0.305,0.366,0.305,580.629
132910,150498,12134,-0.005,-0.966,-0.06,-0.244,0.427,0.244,580.635
132885,150314,22412,-0.005,-0.966,-0.06,-0.244,0.427,0.244,580.639
132885,150484,12126,-0.004,-0.964,-0.061,0.305,0.305,0.122,580.645
132840,150314,22412,-0.004,-0.964,-0.061,0.305,0.305,0.122,580.649
132840,150442,12116,0,-0.962,-0.059,0.122,0.427,0.122,580.655
132855,150314,22412,0,-0.962,-0.059,0.122,0.427,0.122,580.659
132855,150454,12114,-0,-0.967,-0.067,-0.305,0.366,0.488,580.665
132826,150314,22412,-0,-0.967,-0.067,-0.305,0.366,0.488,580.669
132826,150450,12122,-0.005,-0.972,-0.064,-0.732,0.183,0.732,580.675
132866,150314,22412,-0.005,-0.972,-0.064,-0.732,0.183,0.732,580.678
132866,150516,12120,-0,-0.96,-0.061,-0.244,0.244,0.61,580.685
132885,150314,22412,-0,-0.96,-0.061,-0.244,0.244,0.61,580.688
132885,150488,12118,-0.002,-0.965,-0.063,0,0.427,0.061,580.695
132882,150314,22412,-0.002,-0.965,-0.063,0,0.427,0.061,580.698
132882,150502,12140,-0.002,-0.967,-0.069,0,0.427,0.122,580.704
132896,150314,22412,-0.002,-0.967,-0.069,0,0.427,0.122,580.708
132896,150493,12107,-0.003,-0.964,-0.064,0.671,0.427,0.061,580.714
132872,150314,22412,0,-0.962,-0.058,0.671,0.427,0.061,580.718
132872,150498,12114,0,-0.967,-0.054,0.732,0.488,-0.061,580.724
132882,150314,22412,-0.002,-0.966,-0.053,0.732,0.488,-0.061,580.728
132882,150492,12122,-0.003,-0.963,-0.059,0.122,0.427,0.305,580.734
132876,150314,22412,-0.001,-0.961,-0.065,0.122,0.427,0.305,580.738
132876,150485,12120,-0.002,-0.964,-0.065,-0.366,0.427,0.427,580.744
132894,150314,22412,-0.001,-0.969,-0.06,-0.366,0.427,0.427,580.748
132894,150486,12124,-0,-0.968,-0.057,0.183,0.366,0.488,580.754
132900,150314,22412,0.002,-0.965,-0.055,0.183,0.366,0.488,580.758
132900,150527,12130,0.001,-0.963,-0.054,-0.122,0.427,0.305,580.764
132975,150570,22412,0.002,-0.963,-0.068,-0.122,0.427,0.305,580.768
132975,150555,12128,-0.001,-0.966,-0.075,-0.854,0.366,0.366,580.774
132952,150570,22412,-0.006,-0.969,-0.069,-0.854,0.366,0.366,580.777
132952,150578,12126,-0.001,-0.965,-0.06,0.061,0.366,0.488,580.784
132949,150570,22412,0.001,-0.965,-0.058,0.061,0.366,0.488,580.787
132949,150596,12138,0.001,-0.962,-0.061,0.488,0.427,0.061,580.794
132984,150570,22412,-0.004,-0.962,-0.06,0.488,0.427,0.061,580.797
132984,150564,12129,-0.006,-0.966,-0.061,-0.061,0.427,0.305,580.803
132963,150570,22412,-0.003,-0.968,-0.066,-0.061,0.427,0.305,580.807
132963,150566,12132,-0.002,-0.964,-0.064,-0.244,0.366,0.427,580.813
132980,150570,22412,0.001,-0.961,-0.059,-0.244,0.366,0.427,580.817
132980,150577,12129,0.001,-0.961,-0.056,-0.183,0.366,0.305,580.823
132961,150570,22412,0.001,-0.963,-0.063,-0.183,0.366,0.305,580.827
132961,150551,12130,-0.002,-0.968,-0.064,-0.61,0.427,0.671,580.833
132943,150570,22412,-0.007,-0.969,-0.059,-0.61,0.427,0.671,580.837
132943,150567,12146,-0,-0.961,-0.062,-0.61,0.305,0.671,580.843
132974,150570,22412,0,-0.964,-0.069,-0.61,0.305,0.671,580.847
132974,150576,12138,-0.001,-0.967,-0.062,0,0.366,0.305,580.853
132968,150570,22412,0,-0.961,-0.054,0,0.366,0.305,580.857
132968,150576,12123,-0.004,-0.962,-0.063,0.122,0.366,0.366,580.863
132977,150570,22412,-0.007,-0.969,-0.076,0.122,0.366,0.366,580.867
132977,150576,12139,-0.007,-0.971,-0.074,-0.183,0.427,0.305,580.873
132969,150570,22412,-0.001,-0.968,-0.062,-0.183,0.427,0.305,580.876
132969,150591,12133,0,-0.959,-0.058,0.671,0.61,0,580.883
132979,150570,22412,0.004,-0.958,-0.061,0.671,0.61,0,580.886
132979,150569,12130,0.002,-0.963,-0.061,0.366,0.549,0,580.893
132969,150570,22412,-0.003,-0.967,-0.056,0.366,0.549,0,580.896
132969,150564,12120,-0,-0.967,-0.058,-0.061,0.427,0.488,580.902
132956,150570,22412,0,-0.966,-0.057,-0.061,0.427,0.488,580.906
132956,150562,12141,-0.003,-0.96,-0.057,-0.732,0.366,0.488,580.912
132947,150570,22412,-0.001,-0.96,-0.054,-0.732,0.366,0.488,580.916
132947,150533,12134,0.002,-0.965,-0.059,-1.159,0.244,0.549,580.922
132954,150570,22412,-0.003,-0.969,-0.065,-1.159,0.244,0.549,580.926
132954,150573,12128,-0.006,-0.966,-0.067,-1.098,0.122,0.671,580.932
132934,150570,22412,-0.005,-0.967,-0.069,-1.098,0.122,0.671,580.936
132934,150571,12132,-0.004,-0.968,-0.067,-0.61,0.183,0.427,580.942
132933,150570,22412,-0.002,-0.963,-0.065,-0.61,0.183,0.427,580.946
132933,150551,12133,0.001,-0.96,-0.062,0.122,0.427,0.061,580.952
132918,150570,22412,0.001,-0.963,-0.066,0.122,0.427,0.061,580.956
132918,150529,12132,-0.003,-0.962,-0.072,0.061,0.549,0.244,580.962
132926,150314,22412,-0,-0.965,-0.064,0.061,0.549,0.244,580.966
132926,150525,12125,-0.005,-0.967,-0.054,0.427,0.488,0.427,580.972
132899,150570,22412,-0.001,-0.967,-0.057,0.427,0.488,0.427,580.975
132899,150529,12140,0.002,-0.964,-0.057,-0.061,0.427,0.305,580.982
132905,150314,22412,-0,-0.961,-0.062,-0.061,0.427,0.305,580.985
132905,150521,12132,-0.002,-0.96,-0.057,-0.793,0.305,0.366,580.992
132887,150314,22412,-0.001,-0.962,-0.065,-0.793,0.305,0.366,580.995
132887,150525,12118,0.001,-0.966,-0.071,-0.671,0.244,0.488,581.001
132879,150314,22412,-0.001,-0.967,-0.064,-0.671,0.244,0.488,581.005
132879,150523,12108,-0.005,-0.965,-0.061,0.122,0.366,0.366,581.011
132886,150314,22412,0,-0.965,-0.053,0.122,0.366,0.366,581.015
132886,150492,12127,0,-0.966,-0.054,0.427,0.427,0.427,581.021
132867,150314,22412,-0.002,-0.962,-0.057,0.427,0.427,0.427,581.025
132867,150510,12139,-0.004,-0.962,-0.07,-0.366,0.366,0.61,581.031
132856,150314,22412,-0.002,-0.965,-0.073,-0.366,0.366,0.61,581.035
132856,150492,12121,-0.003,-0.969,-0.063,-0.427,0.366,0.671,581.041
132856,150314,22412,-0.003,-0.963,-0.064,-0.427,0.366,0.671,581.045
132856,150480,12121,0.002,-0.961,-0.065,0,0.427,0.366,581.051
132847,150314,22412,0.001,-0.968,-0.062,0,0.427,0.366,581.055
132847,150490,12132,-0.002,-0.966,-0.055,0.183,0.488,0.305,581.061
132866,150314,22412,-0.004,-0.962,-0.055,0.183,0.488,0.305,581.065
132866,150503,12127,-0.002,-0.963,-0.06,-0.122,0.488,0.427,581.071
132868,150314,22412,0.001,-0.969,-0.063,-0.122,0.488,0.427,581.074
132868,150492,12129,-0.001,-0.966,-0.064,-1.159,0.427,0.305,581.081
132879,150314,22412,-0.004,-0.961,-0.064,-1.159,0.427,0.305,581.084
132879,150503,12142,-0.001,-0.961,-0.065,-0.976,0.366,0.183,581.091
132888,150570,22412,-0.002,-0.965,-0.068,-0.976,0.366,0.183,581.094
132888,150539,12132,-0.001,-0.966,-0.069,-0.122,0.366,0.183,581.1
132898,150314,22412,-0.003,-0.966,-0.066,-0.122,0.366,0.183,581.104
132898,150523,12132,-0.004,-0.965,-0.057,0.549,0.427,0.183,581.11
132873,150314,22412,0.001,-0.963,-0.057,0.549,0.427,0.183,581.114
132873,150498,12129,0.001,-0.966,-0.06,0.549,0.427,0.183,581.12
132887,150570,22412,-0.004,-0.97,-0.056,0.549,0.427,0.183,581.124
132887,150529,12128,-0.002,-0.965,-0.049,0.305,0.488,0.183,581.13
132872,150314,22412,0.001,-0.963,-0.057,0.305,0.488,0.183,581.134
132872,150515,12128,-0,-0.967,-0.07,-0.61,0.427,0.122,581.14
132844,150314,22412,-0.002,-0.968,-0.07,-0.61,0.427,0.122,581.144
132844,150496,12115,-0.003,-0.963,-0.057,-0.549,0.488,0.183,581.15
132843,150314,22412,0.001,-0.96,-0.057,-0.549,0.488,0.183,581.154
132843,150500,12121,-0,-0.96,-0.066,-0.427,0.488,0.183,581.16
132846,150314,22412,-0,-0.96,-0.066,-0.427,0.488,0.183,581.164
132846,150479,12115,-0.001,-0.964,-0.065,-0.732,0.366,0.488,581.17
132836,150314,22412,-0.001,-0.964,-0.065,-0.732,0.366,0.488,581.173
132836,150468,12115,0.001,-0.966,-0.071,-0.427,0.305,0.549,581.18
132826,150314,22412,0.001,-0.966,-0.071,-0.427,0.305,0.549,581.183
132826,150457,12109,-0,-0.966,-0.059,0.122,0.488,0.366,581.19
132792,150314,22412,-0,-0.966,-0.059,0.122,0.488,0.366,581.193
132792,150434,12124,0,-0.964,-0.064,0.305,0.427,0.427,581.199
132752,150314,22412,0,-0.964,-0.064,0.305,0.427,0.427,581.203
132752,150431,12125,-0.003,-0.971,-0.068,0.183,0.366,0.549,581.209
132759,150314,22412,-0.003,-0.971,-0.068,0.183,0.366,0.549,581.213
132759,150407,12110,0.002,-0.961,-0.05,0.671,0.366,0.488,581.219
132766,150314,22412,0.002,-0.961,-0.05,0.671,0.366,0.488,581.223
132766,150419,12088,-0.002,-0.964,-0.064,-0.305,0.366,0.366,581.229
132770,150314,22412,-0.002,-0.964,-0.064,-0.305,0.366,0.366,581.233
132770,150425,12117,-0.006,-0.964,-0.063,-0.671,0.366,0.488,581.239
132780,150314,22412,-0.006,-0.964,-0.063,-0.671,0.366,0.488,581.243
132780,150453,12118,-0.001,-0.966,-0.063,-0.122,0.427,0.366,581.249
132809,150314,22412,-0.001,-0.966,-0.063,-0.122,0.427,0.366,581.253
132809,150442,12132,-0.005,-0.965,-0.061,-0.122,0.427,0.427,581.259
132785,150314,22412,-0.005,-0.965,-0.061,-0.122,0.427,0.427,581.263
132785,150437,12127,-0.004,-0.964,-0.061,-0.244,0.427,0.427,581.269
132780,150314,22412,-0.004,-0.964,-0.061,-0.244,0.427,0.427,581.272
132780,150454,12124,-0.002,-0.966,-0.061,-0.671,0.427,0.366,581.279
132773,150314,22412,-0.002,-0.966,-0.061,-0.671,0.427,0.366,581.282
132773,150461,12110,0.001,-0.961,-0.055,-1.22,0.488,0.305,581.289
132784,150314,22412,0.001,-0.961,-0.055,-1.22,0.488,0.305,581.292
132784,150440,12105,-0.001,-0.961,-0.063,-1.768,0.488,0.366,581.298
132760,150314,22412,-0.001,-0.961,-0.063,-1.768,0.488,0.366,581.302
132760,150436,12117,-0.002,-0.965,-0.067,-1.768,0.488,0.366,581.308
132764,150314,22412,-0,-0.971,-0.071,-2.256,0.366,0.488,581.312
132764,150412,12104,-0.002,-0.967,-0.075,-2.256,0.366,0.488,581.318
132741,150314,22412,0.002,-0.963,-0.069,-1.768,0.305,0.366,581.322
132741,150441,12112,0,-0.966,-0.065,-1.768,0.305,0.366,581.328
132760,150314,22412,-0.001,-0.968,-0.064,-0.793,0.427,0.305,581.332
132760,150420,12135,-0.002,-0.965,-0.073,-0.793,0.427,0.305,581.338
132782,150314,22412,0.001,-0.965,-0.078,-0.427,0.488,0.427,581.342
132782,150434,12120,-0.005,-0.968,-0.071,-0.427,0.488,0.427,581.348
132780,150314,22412,-0.003,-0.964,-0.07,0.732,0.549,0.305,581.352
132780,150442,12103,0.002,-0.963,-0.067,0.732,0.549,0.305,581.358
132771,150314,22412,-0.001,-0.968,-0.062,1.402,0.61,0.244,581.362
132771,150425,12128,0.002,-0.962,-0.057,1.402,0.61,0.244,581.368
132772,150314,22412,0.001,-0.961,-0.051,0.976,0.488,0.305,581.372
132772,150430,12123,-0.002,-0.965,-0.056,0.976,0.488,0.305,581.378
132787,150314,22412,-0.003,-0.967,-0.062,0,0.366,0.549,581.381
132787,150443,12121,-0.002,-0.969,-0.058,0,0.366,0.549,581.388
132809,150314,22412,-0.003,-0.962,-0.054,-0.61,0.366,0.488,581.391
132809,150462,12118,-0.003,-0.966,-0.057,-0.61,0.366,0.488,581.397
132818,150314,22412,-0.003,-0.964,-0.056,-0.976,0.366,0.427,581.401
132818,150477,12127,-0.004,-0.962,-0.063,-0.976,0.366,0.427,581.407
132804,150314,22412,-0.002,-0.965,-0.071,-1.28,0.366,0.427,581.411
132804,150474,12129,-0.004,-0.969,-0.069,-1.28,0.366,0.427,581.417
132822,150314,22412,-0.004,-0.964,-0.067,-0.915,0.366,0.427,581.421
132822,150454,12116,-0.001,-0.963,-0.068,-0.915,0.366,0.427,581.427
132798,150314,22412,0.001,-0.963,-0.07,-0.061,0.427,0.305,581.431
132798,150443,12120,-0.003,-0.966,-0.063,-0.061,0.427,0.305,581.437
132788,150314,22412,-0.002,-0.963,-0.059,0.488,0.366,0.366,581.441
132788,150454,12130,0.001,-0.961,-0.062,0.488,0.366,0.366,581.447
132787,150314,22412,0.005,-0.967,-0.068,0.427,0.305,0.427,581.451
132787,150416,12091,0.003,-0.968,-0.066,0.427,0.305,0.427,581.457
132781,150314,22412,-0.002,-0.968,-0.061,0.122,0.366,0.427,581.461
132781,150439,12103,-0,-0.961,-0.06,0.122,0.366,0.427,581.467
132798,150314,22412,0.001,-0.959,-0.062,-0.244,0.366,0.366,581.47
132798,150428,12136,-0.001,-0.964,-0.055,-0.244,0.366,0.366,581.477
132817,150314,22412,-0.003,-0.968,-0.056,-0.61,0.366,0.305,581.48
132817,150460,12123,-0.003,-0.967,-0.068,-0.61,0.366,0.305,581.487
132841,150314,22412,-0.001,-0.963,-0.071,-1.22,0.305,0.366,581.49
132841,150497,12126,-0.004,-0.966,-0.075,-1.22,0.305,0.366,581.496
132839,150314,22412,-0.007,-0.97,-0.072,-0.305,0.427,0.183,581.5
132839,150493,12125,-0.001,-0.965,-0.068,-0.305,0.427,0.183,581.506
132839,150314,22412,-0.002,-0.959,-0.066,1.098,0.61,0,581.51
132839,150488,12130,-0.003,-0.962,-0.059,1.098,0.61,0,581.516
132827,150314,22412,-0.001,-0.962,-0.059,1.524,0.732,0.122,581.52
132827,150462,12124,-0.002,-0.968,-0.065,1.524,0.732,0.122,581.526
132816,150314,22412,-0.004,-0.972,-0.062,1.341,0.549,0.366,581.53
132816,150488,12133,-0,-0.965,-0.06,1.341,0.549,0.366,581.536
132836,150314,22412,0.001,-0.961,-0.058,0.854,0.61,0.183,581.54
132836,150468,12124,0,-0.962,-0.058,0.854,0.61,0.183,581.546
132820,150314,22412,-0.001,-0.965,-0.063,0.671,0.549,0.061,581.55
132820,150490,12116,-0.002,-0.969,-0.059,0.671,0.549,0.061,581.556
132805,150314,22412,-0.003,-0.968,-0.053,0.488,0.488,0.244,581.56
132805,150463,12110,-0.001,-0.967,-0.059,0.488,0.488,0.244,581.566
132775,150314,22412,0,-0.968,-0.068,0.183,0.427,0.061,581.57
132775,150455,12107,0,-0.966,-0.065,0.183,0.427,0.061,581.576
132747,150314,22412,-0.002,-0.962,-0.059,0.305,0.427,0.122,581.579
132747,150416,12116,-0,-0.962,-0.054,0.305,0.427,0.122,581.586
132723,150314,22412,0.003,-0.962,-0.056,0.366,0.366,0.366,581.589
132723,150422,12107,-0,-0.965,-0.064,0.366,0.366,0.366,581.595
132739,150314,22412,-0.005,-0.969,-0.066,-0.305,0.305,0.549,581.599
132739,150440,12098,-0,-0.967,-0.064,-0.305,0.305,0.549,581.605
132711,150314,22412,-0.001,-0.965,-0.055,-0.183,0.305,0.61,581.609
132711,150443,12116,-0.003,-0.962,-0.054,-0.183,0.305,0.61,581.615
132777,150314,22412,0.002,-0.961,-0.06,-0.305,0.366,0.671,581.619
132777,150460,12100,-0.001,-0.966,-0.068,-0.305,0.366,0.671,581.625
132789,150314,22412,-0.002,-0.965,-0.071,-0.976,0.305,0.671,581.629
132789,150481,12134,-0.002,-0.962,-0.075,-0.976,0.305,0.671,581.635
132848,150570,22412,0,-0.968,-0.071,-0.183,0.427,0.488,581.639
132848,150534,12123,-0.001,-0.969,-0.059,-0.183,0.427,0.488,581.645
132874,150570,22412,-0.001,-0.961,-0.053,0.854,0.549,0.305,581.649
132874,150547,12128,-0.001,-0.962,-0.057,0.854,0.549,0.305,581.655
132880,150570,22412,0.001,-0.969,-0.064,-0.061,0.488,0.183,581.659
132880,150530,12130,-0.002,-0.966,-0.066,-0.061,0.488,0.183,581.665
132860,150570,22412,-0.005,-0.964,-0.061,-0.427,0.488,0.366,581.669
132860,150552,12141,-0.001,-0.963,-0.057,-0.427,0.488,0.366,581.675
132876,150314,22412,0.003,-0.962,-0.062,-0.061,0.488,0.122,581.678
132876,150516,12108,0,-0.963,-0.058,-0.061,0.488,0.122,581.685
132854,150314,22412,-0.001,-0.964,-0.057,0.061,0.366,0.427,581.688
132854,150524,12119,-0.003,-0.969,-0.058,0.061,0.366,0.427,581.695
132833,150570,22412,-0,-0.964,-0.063,-0.366,0.366,0.61,581.698
132833,150541,12114,-0.001,-0.962,-0.065,-0.366,0.366,0.61,581.704
132845,150314,22412,0,-0.965,-0.064,-0.854,0.366,0.427,581.708
132845,150515,12125,-0.004,-0.965,-0.069,-0.854,0.366,0.427,581.714
132830,150314,22412,-0.001,-0.964,-0.066,-0.305,0.366,0.549,581.718
132830,150520,12126,0.002,-0.961,-0.058,-0.305,0.366,0.549,581.724
132850,150570,22412,-0.002,-0.96,-0.061,0.183,0.427,0.427,581.728
132850,150531,12119,-0,-0.965,-0.069,0.183,0.427,0.427,581.734
132830,150570,22412,-0.005,-0.971,-0.074,-0.122,0.366,0.488,581.738
132830,150534,12126,-0.005,-0.968,-0.07,-0.122,0.366,0.488,581.744
132840,150314,22412,-0.001,-0.966,-0.065,0.488,0.488,0.183,581.748
132840,150503,12137,-0,-0.969,-0.068,0.488,0.488,0.183,581.754
132826,150314,22412,-0,-0.969,-0.068,0.488,0.488,0.183,581.758
132826,150479,12119,0,-0.964,-0.056,1.22,0.732,-0.244,581.764
132806,150314,22412,0,-0.964,-0.056,1.22,0.732,-0.244,581.768
132806,150511,12131,0,-0.965,-0.064,0.976,0.671,-0.061,581.774
132799,150314,22412,0,-0.965,-0.064,0.976,0.671,-0.061,581.777
132799,150502,12115,-0.004,-0.968,-0.055,0.671,0.549,0.061,581.784
132817,150314,22412,-0.004,-0.968,-0.055,0.671,0.549,0.061,581.787
132817,150499,12131,-0.001,-0.96,-0.057,0.793,0.427,0.061,581.793
132828,150314,22412,-0.001,-0.96,-0.057,0.793,0.427,0.061,581.797
132828,150520,12135,0.002,-0.965,-0.044,0.427,0.427,0,581.803
132851,150314,22412,0.002,-0.965,-0.044,0.427,0.427,0,581.807
132851,150520,12128,0.001,-0.96,-0.065,-0.915,0.305,0.305,581.813
132858,150314,22412,0.001,-0.96,-0.065,-0.915,0.305,0.305,581.817
132858,150522,12134,-0.004,-0.97,-0.071,-2.256,0.061,0.61,581.823
132878,150570,22412,-0.004,-0.97,-0.071,-2.256,0.061,0.61,581.827
132878,150576,12135,-0.001,-0.97,-0.078,-1.463,0.244,0.61,581.833
132912,150570,22412,-0.001,-0.97,-0.078,-1.463,0.244,0.61,581.837
132912,150566,12119,-0.002,-0.969,-0.062,0.488,0.61,0.244,581.843
132926,150570,22412,-0.002,-0.969,-0.062,0.488,0.61,0.244,581.847
132926,150576,12129,0.003,-0.963,-0.056,1.951,0.61,0.122,581.853
132927,150570,22412,0.003,-0.963,-0.056,1.951,0.61,0.122,581.857
132927,150636,12155,0.004,-0.963,-0.052,1.707,0.61,0.183,581.863
132938,150570,22412,0.004,-0.963,-0.052,1.707,0.61,0.183,581.867
132938,150618,12152,0.002,-0.963,-0.051,0.671,0.488,0.427,581.873
132937,150570,22412,0.002,-0.963,-0.051,0.671,0.488,0.427,581.876
132937,150580,12128,-0,-0.966,-0.058,-0.305,0.366,0.671,581.883
132876,150570,22412,-0,-0.966,-0.058,-0.305,0.366,0.671,581.886
132876,150569,12133,0.002,-0.965,-0.055,-1.037,0.183,0.793,581.893
132846,150570,22412,0.002,-0.965,-0.055,-1.037,0.183,0.793,581.896
132846,150530,12135,-0.001,-0.964,-0.069,-1.829,0.061,0.854,581.902
132847,150314,22412,-0.002,-0.967,-0.07,-1.829,0.061,0.854,581.906
132847,150525,12137,-0.008,-0.97,-0.066,-1.768,0.183,1.098,581.912
132881,150570,22412,-0.004,-0.966,-0.069,-1.768,0.183,1.098,581.916
132881,150534,12133,-0.005,-0.965,-0.075,-0.671,0.305,0.732,581.922
132879,150570,22412,-0.006,-0.967,-0.074,-0.671,0.305,0.732,581.926
132879,150570,12136,-0.003,-0.967,-0.072,0.488,0.488,0.305,581.932
132908,150570,22412,-0.005,-0.964,-0.061,0.488,0.488,0.305,581.936
132908,150606,12130,-0.004,-0.966,-0.061,1.28,0.488,0,581.942
132958,150570,22412,0.001,-0.965,-0.061,1.28,0.488,0,581.946
132958,150596,12135,0.001,-0.963,-0.06,0.854,0.671,-0.366,581.952
132930,150570,22412,0.001,-0.961,-0.059,0.854,0.671,-0.366,581.956
132930,150597,12138,0,-0.966,-0.06,0.183,0.549,-0.305,581.962
132929,150570,22412,-0.001,-0.966,-0.059,0.183,0.549,-0.305,581.966
132929,150576,12149,-0.001,-0.966,-0.058,-0.183,0.305,0.061,581.972
132929,150570,22412,-0.001,-0.967,-0.06,-0.183,0.305,0.061,581.975
132929,150585,12152,-0.003,-0.965,-0.062,-0.244,0.427,-0.061,581.982
132906,150570,22412,-0,-0.962,-0.064,-0.244,0.427,-0.061,581.985
132906,150581,12142,-0,-0.963,-0.058,-0.244,0.427,0,581.991
132938,150570,22412,-0.002,-0.965,-0.063,-0.244,0.427,0,581.995
132938,150612,12155,0.001,-0.967,-0.064,0.305,0.305,0.244,582.001
132910,150570,22412,-0.001,-0.969,-0.053,0.305,0.305,0.244,582.005
132910,150600,12139,0.001,-0.963,-0.05,0.915,0.427,0.122,582.011
132905,150570,22412,0.005,-0.958,-0.059,0.915,0.427,0.122,582.015
132905,150578,12150,0.005,-0.963,-0.066,0.061,0.366,0,582.021
132933,150570,22412,-0.001,-0.968,-0.069,0.061,0.366,0,582.025
132933,150630,12149,0,-0.966,-0.066,-0.244,0.366,0.488,582.031
132981,150570,22412,0.002,-0.964,-0.06,-0.244,0.366,0.488,582.035
132981,150676,12164,0.001,-0.966,-0.055,0.488,0.305,0.427,582.041
133022,150570,22412,0.005,-0.962,-0.062,0.488,0.305,0.427,582.045
133022,150681,12157,0.002,-0.963,-0.061,0,0.366,0.427,582.051
133046,150570,22412,-0.001,-0.969,-0.061,0,0.366,0.427,582.055
133046,150695,12164,-0.004,-0.966,-0.059,-0.366,0.305,0.854,582.061
133056,150570,22412,0.001,-0.96,-0.056,-0.366,0.305,0.854,582.065
133056,150727,12149,0.002,-0.964,-0.058,-0.671,0.244,0.549,582.071
133064,150570,22412,-0.003,-0.966,-0.057,-0.671,0.244,0.549,582.074
133064,150693,12160,-0.004,-0.961,-0.057,-1.22,0.183,0.671,582.081
133012,150570,22412,-0,-0.963,-0.059,-1.22,0.183,0.671,582.084
133012,150656,12150,-0.004,-0.964,-0.062,-1.402,0.122,0.915,582.091
132976,150570,22412,-0.002,-0.966,-0.066,-1.402,0.122,0.915,582.094
132976,150630,12150,-0,-0.967,-0.066,-0.915,0.061,0.915,582.1
132946,150570,22412,-0.002,-0.967,-0.071,-0.915,0.061,0.915,582.104
132946,150619,12143,-0.005,-0.966,-0.071,-0.061,0.122,0.976,582.11
132967,150570,22412,-0.004,-0.967,-0.06,-0.061,0.122,0.976,582.114
132967,150613,12153,-0.002,-0.963,-0.052,0.793,0.244,0.427,582.12
133000,150570,22412,-0.002,-0.965,-0.058,0.793,0.244,0.427,582.124
133000,150653,12149,-0.001,-0.966,-0.062,0.183,0.305,0.244,582.13
133027,150570,22412,-0.001,-0.964,-0.064,0.183,0.305,0.244,582.134
133027,150689,12169,-0.002,-0.963,-0.068,-0.671,0.366,0.488,582.14
133029,150570,22412,-0.003,-0.963,-0.069,-0.671,0.366,0.488,582.144
133029,150714,12159,-0.003,-0.963,-0.058,0,0.366,0.427,582.15
133054,150570,22412,-0,-0.962,-0.055,0,0.366,0.427,582.154
133054,150694,12155,0,-0.963,-0.059,0.549,0.427,0.366,582.16
133018,150570,22412,-0.003,-0.966,-0.067,0.549,0.427,0.366,582.164
133018,150670,12167,-0.002,-0.967,-0.064,0.122,0.488,0.549,582.17
132995,150570,22412,0,-0.965,-0.058,0.122,0.488,0.549,582.173
132995,150651,12171,0.002,-0.966,-0.05,0.488,0.488,0.305,582.18
132973,150570,22412,0.002,-0.964,-0.042,0.488,0.488,0.305,582.183
132973,150632,12148,0.001,-0.961,-0.045,-0.183,0.427,0.122,582.19
132964,150570,22412,0.001,-0.965,-0.066,-0.183,0.427,0.122,582.193
132964,150657,12163,-0.001,-0.972,-0.078,-1.89,0.305,0.427,582.199
132979,150570,22412,-0.006,-0.969,-0.074,-1.89,0.305,0.427,582.203
132979,150667,12155,-0.007,-0.964,-0.063,-0.549,0.366,0.244,582.209
133034,150570,22412,0,-0.96,-0.057,-0.549,0.366,0.244,582.213
133034,150702,12176,0.007,-0.959,-0.06,0.549,0.549,-0.122,582.219
133092,150570,22412,0.001,-0.963,-0.064,0.549,0.549,-0.122,582.223
133092,150730,12163,-0.002,-0.969,-0.068,0,0.366,0.427,582.229
133091,150570,22412,-0.004,-0.968,-0.067,0,0.366,0.427,582.233
133091,150737,12174,0,-0.963,-0.065,0.305,0.244,0.671,582.239
133063,150570,22412,0.002,-0.965,-0.064,0.305,0.244,0.671,582.243
133063,150739,12184,-0,-0.966,-0.061,0.915,0.427,0.427,582.249
133067,150570,22412,0,-0.965,-0.056,0.915,0.427,0.427,582.253
133067,150687,12164,0.001,-0.966,-0.055,0.915,0.366,0.61,582.259
133055,150570,22412,0.001,-0.965,-0.056,0.915,0.366,0.61,582.263
133055,150688,12167,0.001,-0.965,-0.06,0.366,0.366,0.61,582.269
133052,150570,22412,-0.002,-0.965,-0.058,0.366,0.366,0.61,582.272
133052,150694,12172,-0,-0.965,-0.055,0.122,0.488,0.427,582.279
133049,150570,22412,-0.001,-0.961,-0.051,0.122,0.488,0.427,582.282
133049,150737,12174,-0.003,-0.965,-0.054,-0.488,0.427,0.427,582.289
133080,150570,22412,-0.001,-0.966,-0.058,-0.488,0.427,0.427,582.292
133080,150703,12171,-0.003,-0.96,-0.062,-1.341,0.305,0.61,582.298
133080,150570,22412,-0.001,-0.96,-0.058,-1.341,0.305,0.61,582.302
133080,150721,12166,-0,-0.965,-0.061,-2.073,0.244,0.793,582.308
133082,150570,22412,-0.004,-0.964,-0.063,-2.073,0.244,0.793,582.312
133082,150692,12170,-0.003,-0.964,-0.065,-2.134,0.244,0.732,582.318
133058,150570,22412,-0.002,-0.963,-0.061,-2.134,0.244,0.732,582.322
133058,150724,12174,-0.002,-0.965,-0.065,-1.829,0.244,0.793,582.328
133085,150570,22412,-0.003,-0.967,-0.068,-1.829,0.244,0.793,582.332
133085,150696,12165,0.001,-0.967,-0.069,-1.707,0.305,0.732,582.338
133074,150570,22412,-0,-0.969,-0.067,-1.707,0.305,0.732,582.342
133074,150714,12171,-0.001,-0.969,-0.064,-0.976,0.366,0.427,582.348
133075,150570,22412,-0.001,-0.969,-0.064,-0.976,0.366,0.427,582.352
133075,150740,12172,-0.002,-0.964,-0.063,-0.732,0.244,0.427,582.358
133060,150570,22412,-0.002,-0.964,-0.063,-0.732,0.244,0.427,582.362
133060,150711,12142,-0.003,-0.964,-0.065,-0.854,0.183,0.366,582.368
133046,150570,22412,-0.003,-0.964,-0.065,-0.854,0.183,0.366,582.371
133046,150739,12154,-0.002,-0.966,-0.071,0.061,0.366,0.183,582.378
133057,150570,22412,-0.002,-0.966,-0.071,0.061,0.366,0.183,582.381
133057,150720,12157,-0.004,-0.964,-0.064,0.732,0.61,0.122,582.388
133103,150570,22412,-0.004,-0.964,-0.064,0.732,0.61,0.122,582.391
133103,150725,12166,0,-0.966,-0.063,0.793,0.427,0.366,582.397
133080,150570,22412,0,-0.966,-0.063,0.793,0.427,0.366,582.401
133080,150730,12159,-0.003,-0.969,-0.062,0.488,0.366,0.488,582.407
133077,150570,22412,-0.003,-0.969,-0.062,0.488,0.366,0.488,582.411
133077,150717,12169,0.002,-0.966,-0.062,0.671,0.366,0.427,582.417
133092,150570,22412,0.002,-0.966,-0.062,0.671,0.366,0.427,582.421
133092,150694,12163,-0.001,-0.96,-0.057,0.244,0.305,0.305,582.427
133049,150570,22412,-0.001,-0.96,-0.057,0.244,0.305,0.305,582.431
133049,150709,12172,-0.001,-0.966,-0.063,-0.366,0.183,0.366,582.437
133048,150570,22412,-0.001,-0.966,-0.063,-0.366,0.183,0.366,582.441
133048,150719,12171,-0.002,-0.965,-0.061,-0.427,0.244,0.244,582.447
133067,150570,22412,-0.002,-0.965,-0.061,-0.427,0.244,0.244,582.451
133067,150716,12152,-0.002,-0.964,-0.068,-0.305,0.244,0.244,582.457
133063,150570,22412,-0.002,-0.964,-0.068,-0.305,0.244,0.244,582.461
133063,150697,12151,-0.003,-0.967,-0.062,-0.061,0.244,0.427,582.467
133044,150570,22412,-0.003,-0.967,-0.062,-0.061,0.244,0.427,582.47
133044,150739,12147,-0.004,-0.963,-0.066,0.061,0.366,0.427,582.477
133055,150570,22412,-0.004,-0.963,-0.066,0.061,0.366,0.427,582.48
133055,150712,12151,-0.003,-0.966,-0.067,0.305,0.549,0.427,582.487
133045,150570,22412,-0.003,-0.966,-0.067,0.305,0.549,0.427,582.49
133045,150709,12165,-0.003,-0.966,-0.064,0.305,0.549,0.427,582.496
133064,150570,22412,-0.003,-0.964,-0.06,1.037,0.61,0.366,582.5
133064,150737,12165,-0.002,-0.963,-0.058,1.037,0.61,0.366,582.506
133082,150570,22412,-0.002,-0.966,-0.057,0.976,0.549,0.183,582.51
133082,150724,12169,-0.003,-0.969,-0.067,0.976,0.549,0.183,582.516
133077,150570,22412,-0.002,-0.966,-0.06,0.61,0.549,0,582.52
133077,150735,12173,-0.003,-0.962,-0.057,0.61,0.549,0,582.526
133090,150570,22412,0,-0.964,-0.057,0.61,0.549,-0.122,582.53
133090,150735,12170,0.001,-0.964,-0.054,0.61,0.549,-0.122,582.536
133079,150570,22412,-0,-0.964,-0.059,-0.061,0.549,0,582.54
133079,150725,12155,0,-0.961,-0.059,-0.061,0.549,0,582.546
133063,150570,22412,0,-0.966,-0.058,-0.671,0.305,0.427,582.55
133063,150726,12158,-0.002,-0.967,-0.056,-0.671,0.305,0.427,582.556
133065,150570,22412,-0.003,-0.964,-0.061,-1.037,0.244,0.671,582.56
133065,150717,12171,-0.003,-0.965,-0.065,-1.037,0.244,0.671,582.566
133039,150570,22412,-0.002,-0.967,-0.068,-0.915,0.305,0.61,582.569
133039,150732,12157,0.001,-0.964,-0.066,-0.915,0.305,0.61,582.576
133015,150570,22412,-0.001,-0.968,-0.071,-0.549,0.305,0.671,582.579
133015,150711,12159,-0.004,-0.967,-0.07,-0.549,0.305,0.671,582.586
132977,150570,22412,-0.005,-0.968,-0.073,0.244,0.427,0.427,582.589
132977,150681,12147,-0.004,-0.967,-0.07,0.244,0.427,0.427,582.595
132934,150570,22412,-0.005,-0.964,-0.066,1.402,0.61,0.122,582.599
132934,150655,12152,-0,-0.966,-0.059,1.402,0.61,0.122,582.605
132928,150570,22412,-0,-0.966,-0.05,2.012,0.732,-0.122,582.609
132928,150600,12132,-0.002,-0.958,-0.048,2.012,0.732,-0.122,582.615
132891,150570,22412,0,-0.956,-0.049,0.793,0.61,0.122,582.619
132891,150603,12138,0,-0.963,-0.056,0.793,0.61,0.122,582.625
132854,150570,22412,-0.003,-0.966,-0.057,-0.793,0.366,0.366,582.629
132854,150553,12120,-0.004,-0.966,-0.056,-0.793,0.366,0.366,582.635
132849,150314,22412,-0.003,-0.964,-0.059,-1.22,0.305,0.366,582.639
132849,150526,12133,-0.002,-0.965,-0.058,-1.22,0.305,0.366,582.645
132798,150570,22412,-0.003,-0.964,-0.053,-1.402,0.305,0.427,582.649
132798,150546,12111,-0.001,-0.966,-0.054,-1.402,0.305,0.427,582.655
132849,150570,22412,-0.001,-0.965,-0.063,-1.707,0.244,0.61,582.659
132849,150539,12131,-0.003,-0.967,-0.065,-1.707,0.244,0.61,582.665
132825,150570,22412,0.003,-0.964,-0.069,-1.768,0.244,0.549,582.668
132825,150542,12131,0.001,-0.965,-0.075,-1.768,0.244,0.549,582.675
132829,150314,22412,-0.002,-0.97,-0.072,-0.732,0.305,0.61,582.678
132829,150523,12131,-0.004,-0.964,-0.061,-0.732,0.305,0.61,582.685
132850,150570,22412,-0.004,-0.962,-0.056,0.122,0.366,0.427,582.688
132850,150562,12114,0.002,-0.962,-0.059,0.122,0.366,0.427,582.694
132855,150570,22412,-0.001,-0.967,-0.065,-0.305,0.427,0.488,582.698
132855,150581,12130,-0.003,-0.969,-0.062,-0.305,0.427,0.488,582.704
132870,150570,22412,-0.002,-0.964,-0.068,-0.366,0.427,0.61,582.708
132870,150571,12136,0.001,-0.964,-0.065,-0.366,0.427,0.61,582.714
132886,150570,22412,-0.004,-0.963,-0.059,0.183,0.366,0.549,582.718
132886,150551,12121,-0.002,-0.965,-0.052,0.183,0.366,0.549,582.724
132840,150570,22412,-0.001,-0.964,-0.044,0.061,0.366,0.366,582.728
132840,150538,12131,-0.001,-0.962,-0.051,0.061,0.366,0.366,582.734
132836,150570,22412,-0.001,-0.965,-0.065,-1.707,0.183,0.427,582.738
132836,150568,12133,-0.004,-0.971,-0.07,-1.707,0.183,0.427,582.744
132840,150570,22412,-0.004,-0.97,-0.067,-1.585,0.122,0.549,582.748
132840,150552,12114,-0.004,-0.957,-0.062,-1.585,0.122,0.549,582.754
132838,150570,22412,-0.003,-0.96,-0.061,-0.854,0.122,0.488,582.758
132838,150561,12130,-0.001,-0.966,-0.071,-0.854,0.122,0.488,582.764
132837,150570,22412,-0.004,-0.971,-0.074,-0.305,0.305,0.61,582.767
132837,150579,12134,-0.009,-0.971,-0.07,-0.305,0.305,0.61,582.774
132866,150570,22412,-0.007,-0.967,-0.064,1.098,0.488,0.549,582.777
132866,150578,12129,-0.004,-0.965,-0.056,1.098,0.488,0.549,582.784
132872,150570,22412,0.003,-0.961,-0.052,1.585,0.671,-0.122,582.787
132872,150614,12120,0.003,-0.962,-0.058,1.585,0.671,-0.122,582.793
132890,150570,22412,-0.001,-0.967,-0.055,0.183,0.671,-0.061,582.797
132890,150621,12137,-0.005,-0.963,-0.06,0.183,0.671,-0.061,582.803
132919,150570,22412,-0.002,-0.961,-0.059,-0.427,0.549,0.122,582.807
132919,150628,12150,-0,-0.962,-0.061,-0.427,0.549,0.122,582.813
132912,150570,22412,0.001,-0.963,-0.061,-0.427,0.488,-0.183,582.817
132912,150652,12125,-0.003,-0.965,-0.061,-0.427,0.488,-0.183,582.823
132913,150570,22412,-0.001,-0.964,-0.059,0,0.366,0.122,582.827
132913,150649,12121,-0.003,-0.964,-0.058,0,0.366,0.122,582.833
132909,150570,22412,0.001,-0.962,-0.054,-0.122,0.305,0.366,582.837
132909,150626,12128,-0.001,-0.963,-0.066,-0.122,0.305,0.366,582.843
132909,150570,22412,-0,-0.969,-0.079,-0.793,0.366,0.61,582.847
132909,150619,12133,-0.005,-0.973,-0.076,-0.793,0.366,0.61,582.853
132891,150570,22412,-0.005,-0.968,-0.063,0.366,0.366,0.671,582.857
132891,150611,12133,0.002,-0.961,-0.054,0.366,0.366,0.671,582.863
132904,150570,22412,0.005,-0.958,-0.058,0.915,0.488,0.183,582.866
132904,150620,12135,0.003,-0.962,-0.064,0.915,0.488,0.183,582.873
132928,150570,22412,-0.001,-0.965,-0.063,0.183,0.427,0.549,582.876
132928,150632,12147,-0.002,-0.964,-0.063,0.183,0.427,0.549,582.883
132966,150570,22412,-0.005,-0.965,-0.064,0.061,0.427,0.549,582.886
132966,150701,12143,-0,-0.963,-0.059,0.061,0.427,0.549,582.892
132973,150570,22412,0,-0.964,-0.061,0.061,0.366,0.305,582.896
132973,150698,12148,0.003,-0.966,-0.06,0.061,0.366,0.305,582.902
132981,150570,22412,-0.004,-0.966,-0.055,-0.122,0.305,0.61,582.906
132981,150654,12135,-0.003,-0.966,-0.053,-0.122,0.305,0.61,582.912
132927,150570,22412,-0.001,-0.962,-0.056,-0.671,0.122,0.854,582.916
132927,150644,12136,-0.001,-0.966,-0.06,-0.671,0.122,0.854,582.922
132910,150570,22412,-0.003,-0.966,-0.068,-1.098,0.061,0.915,582.926
132910,150634,12129,-0.005,-0.968,-0.076,-1.098,0.061,0.915,582.932
132860,150570,22412,-0.005,-0.968,-0.076,-1.098,0.061,0.915,582.936
132860,150605,12134,-0.007,-0.963,-0.062,-0.244,0.183,0.732,582.942
132857,150570,22412,-0.007,-0.963,-0.062,-0.244,0.183,0.732,582.946
132857,150610,12114,-0.001,-0.964,-0.052,0.915,0.488,0.366,582.952
132855,150570,22412,-0.001,-0.964,-0.052,0.915,0.488,0.366,582.956
132855,150595,12130,-0.003,-0.967,-0.068,0.183,0.427,0.061,582.962
132868,150570,22412,-0.003,-0.967,-0.068,0.183,0.427,0.061,582.965
132868,150607,12132,0,-0.959,-0.057,-0.427,0.366,0.183,582.972
132892,150570,22412,0,-0.959,-0.057,-0.427,0.366,0.183,582.975
132892,150659,12145,-0,-0.966,-0.057,-0.122,0.427,0.061,582.982
132887,150570,22412,-0,-0.966,-0.057,-0.122,0.427,0.061,582.985
132887,150649,12133,-0,-0.961,-0.059,-0.427,0.427,0.122,582.991
132903,150570,22412,-0,-0.961,-0.059,-0.427,0.427,0.122,582.995
132903,150644,12130,-0.001,-0.964,-0.068,-0.976,0.366,0.183,583.001
132876,150570,22412,-0.001,-0.964,-0.068,-0.976,0.366,0.183,583.005
132876,150631,12130,0,-0.966,-0.063,-0.976,0.305,0.427,583.011
132830,150570,22412,0,-0.966,-0.063,-0.976,0.305,0.427,583.015
132830,150625,12130,0.002,-0.963,-0.066,-0.244,0.366,0.549,583.021
132829,150570,22412,0.002,-0.963,-0.066,-0.244,0.366,0.549,583.025
132829,150579,12111,-0.001,-0.966,-0.065,-0.244,0.427,0.366,583.031
132783,150570,22412,-0.001,-0.966,-0.065,-0.244,0.427,0.366,583.035
132783,150549,12102,0.003,-0.966,-0.066,-0.305,0.427,0.427,583.041
132795,150570,22412,0.003,-0.966,-0.066,-0.305,0.427,0.427,583.045
132795,150564,12139,0.002,-0.965,-0.059,-0.061,0.427,0.366,583.051
132838,150570,22412,0.002,-0.965,-0.059,-0.061,0.427,0.366,583.055
132838,150602,12116,0.001,-0.964,-0.056,-0.061,0.366,0.366,583.061
132880,150570,22412,0.001,-0.964,-0.056,-0.061,0.366,0.366,583.064
132880,150634,12115,-0.003,-0.965,-0.059,-0.549,0.305,0.671,583.071
132887,150570,22412,-0.003,-0.965,-0.059,-0.549,0.305,0.671,583.074
132887,150639,12133,0,-0.966,-0.063,-0.732,0.427,0.793,583.081
132896,150570,22412,-0.001,-0.963,-0.057,-0.732,0.427,0.793,583.084
132896,150650,12115,-0.001,-0.963,-0.057,-0.671,0.305,0.793,583.09
132921,150570,22412,-0.001,-0.966,-0.061,-0.671,0.305,0.793,583.094
132921,150643,12137,-0.004,-0.966,-0.056,-1.098,0.305,0.915,583.1
132881,150570,22412,-0.003,-0.96,-0.056,-1.098,0.305,0.915,583.104
132881,150624,12121,-0.005,-0.958,-0.063,-1.646,0.244,0.915,583.11
132846,150570,22412,-0.004,-0.969,-0.076,-1.646,0.244,0.915,583.114
132846,150628,12122,-0.005,-0.973,-0.082,-1.159,0.305,0.793,583.12
132856,150570,22412,-0.005,-0.971,-0.073,-1.159,0.305,0.793,583.124
132856,150622,12118,-0.004,-0.963,-0.06,0.427,0.488,0.305,583.13
132905,150570,22412,0,-0.961,-0.053,0.427,0.488,0.305,583.134
132905,150664,12120,0,-0.959,-0.054,0.915,0.549,-0.305,583.14
132876,150570,22412,-0.002,-0.961,-0.064,0.915,0.549,-0.305,583.144
132876,150663,12127,-0.003,-0.97,-0.07,-0.061,0.427,0,583.15
132909,150570,22412,-0.005,-0.965,-0.069,-0.061,0.427,0,583.154
132909,150673,12116,-0.003,-0.961,-0.064,-0.122,0.427,0.244,583.16
132907,150570,22412,0.002,-0.964,-0.064,-0.122,0.427,0.244,583.163
132907,150668,12133,-0,-0.963,-0.057,0.122,0.488,0.061,583.17
132892,150570,22412,0.003,-0.963,-0.057,0.122,0.488,0.061,583.173
132892,150675,12124,0.001,-0.963,-0.061,0,0.427,0.305,583.18
132891,150570,22412,-0,-0.968,-0.073,0,0.427,0.305,583.183
132891,150650,12130,-0.005,-0.968,-0.068,-0.061,0.366,0.427,583.189
132860,150570,22412,-0.002,-0.964,-0.063,-0.061,0.366,0.427,583.193
132860,150616,12111,-0,-0.964,-0.063,0.61,0.427,0.244,583.199
132815,150570,22412,-0.002,-0.963,-0.065,0.61,0.427,0.244,583.203
132815,150638,12118,0,-0.964,-0.059,0.671,0.488,0.183,583.209
132842,150570,22412,-0.002,-0.966,-0.054,0.671,0.488,0.183,583.213
132842,150613,12112,-0.002,-0.964,-0.056,0.244,0.366,0.305,583.219
132835,150570,22412,-0.003,-0.963,-0.053,0.244,0.366,0.305,583.223
132835,150611,12125,-0,-0.962,-0.059,-0.854,0.366,0.366,583.229
132821,150570,22412,-0,-0.964,-0.065,-0.854,0.366,0.366,583.233
132821,150632,12127,-0.002,-0.966,-0.065,-1.22,0.427,0.244,583.239
132845,150570,22412,-0.004,-0.964,-0.065,-1.22,0.427,0.244,583.243
132845,150637,12135,-0.003,-0.965,-0.057,-0.488,0.366,0.183,583.249
132853,150570,22412,0,-0.966,-0.057,-0.488,0.366,0.183,583.253
132853,150628,12120,0.001,-0.966,-0.058,-0.488,0.305,0.244,583.259
132856,150570,22412,0.001,-0.961,-0.057,-0.488,0.305,0.244,583.263
132856,150633,12121,-0,-0.961,-0.061,-1.402,0.244,0.488,583.269
132841,150570,22412,-0.002,-0.968,-0.063,-1.402,0.244,0.488,583.272
132841,150629,12125,-0.002,-0.969,-0.074,-1.768,0.122,0.793,583.279
132821,150570,22412,-0.003,-0.968,-0.083,-1.768,0.122,0.793,583.282
132821,150608,12119,-0.002,-0.969,-0.073,-0.915,0.366,0.549,583.288
132820,150570,22412,-0.005,-0.966,-0.061,-0.915,0.366,0.549,583.292
132820,150626,12122,-0.001,-0.965,-0.06,0.915,0.61,0.122,583.298
132821,150570,22412,-0.001,-0.966,-0.064,0.915,0.61,0.122,583.302
132821,150629,12122,-0.001,-0.966,-0.065,0.976,0.549,0.061,583.308
132819,150570,22412,-0.001,-0.963,-0.055,0.976,0.549,0.061,583.312
132819,150642,12113,0.002,-0.964,-0.051,0.671,0.366,0.305,583.318
132819,150570,22412,-0.001,-0.96,-0.051,0.671,0.366,0.305,583.322
132819,150628,12121,0.001,-0.961,-0.061,-0.244,0.366,0.427,583.328
132850,150570,22412,-0,-0.968,-0.069,-0.244,0.366,0.427,583.332
132850,150648,12114,-0.007,-0.969,-0.065,-0.793,0.244,0.793,583.338
132822,150570,22412,-0.006,-0.967,-0.053,-0.793,0.244,0.793,583.342
132822,150637,12120,-0.004,-0.964,-0.059,0,0.244,0.671,583.348
132822,150570,22412,0,-0.965,-0.067,0,0.244,0.671,583.352
132822,150624,12103,0.001,-0.963,-0.065,-0.732,0.427,0.305,583.358
132783,150570,22412,-0.002,-0.963,-0.065,-0.732,0.427,0.305,583.362
132783,150645,12103,-0.005,-0.966,-0.06,-0.549,0.305,0.549,583.368
132810,150570,22412,-0.005,-0.961,-0.063,-0.549,0.305,0.549,583.371
132810,150611,12109,-0.003,-0.964,-0.071,-0.549,0.366,0.488,583.378
132763,150570,22412,0.004,-0.962,-0.069,-0.549,0.366,0.488,583.381
132763,150590,12100,0,-0.963,-0.069,-0.427,0.427,0.305,583.388
132761,150570,22412,-0.002,-0.969,-0.067,-0.427,0.427,0.305,583.391
132761,150596,12099,-0.003,-0.97,-0.061,0.183,0.305,0.549,583.397
132786,150570,22412,-0,-0.964,-0.062,0.183,0.305,0.549,583.401
132786,150629,12117,-0.001,-0.962,-0.058,0.244,0.427,0.366,583.407
132798,150570,22412,0,-0.963,-0.058,0.244,0.427,0.366,583.411
132798,150612,12094,-0.001,-0.966,-0.062,-0.122,0.366,0.488,583.417
132787,150570,22412,-0.005,-0.969,-0.064,-0.122,0.366,0.488,583.421
132787,150607,12120,-0.005,-0.965,-0.06,-0.244,0.244,0.61,583.427
132802,150570,22412,-0.001,-0.963,-0.059,-0.244,0.244,0.61,583.431
132802,150633,12110,-0,-0.959,-0.066,-0.366,0.366,0.305,583.437
132768,150570,22412,-0.001,-0.962,-0.071,-0.366,0.366,0.305,583.441
132768,150638,12118,-0.003,-0.969,-0.062,-0.183,0.366,0.427,583.447
132783,150570,22412,-0.007,-0.971,-0.063,-0.183,0.366,0.427,583.451
132783,150619,12104,-0.006,-0.969,-0.07,0.244,0.305,0.427,583.457
132772,150570,22412,-0.003,-0.967,-0.062,0.244,0.305,0.427,583.461
132772,150617,12112,0.002,-0.964,-0.062,0.183,0.549,-0.061,583.467
132792,150570,22412,0.001,-0.963,-0.063,0.183,0.549,-0.061,583.47
132792,150620,12095,-0.006,-0.96,-0.058,0.061,0.488,0,583.477
132816,150570,22412,-0.003,-0.96,-0.058,0.061,0.488,0,583.48
132816,150653,12122,-0.001,-0.963,-0.061,-0.549,0.305,0.183,583.487
132824,150570,22412,0.001,-0.965,-0.056,-0.549,0.305,0.183,583.49
132824,150655,12113,0.001,-0.962,-0.055,-1.037,0.305,0.427,583.496
132821,150570,22412,-0.001,-0.962,-0.063,-1.037,0.305,0.427,583.5
132821,150650,12121,-0.003,-0.967,-0.067,-1.341,0.183,0.671,583.506
132808,150570,22412,0,-0.969,-0.072,-1.341,0.183,0.671,583.51
132808,150682,12111,0.002,-0.966,-0.079,-0.61,0.305,0.671,583.516
132809,150570,22412,-0.004,-0.969,-0.075,-0.61,0.305,0.671,583.52
132809,150633,12092,-0.005,-0.969,-0.067,1.098,0.427,0.488,583.526
132769,150570,22412,-0.005,-0.969,-0.067,1.098,0.427,0.488,583.53
132769,150633,12104,0.004,-0.96,-0.056,1.829,0.61,0.061,583.536
132744,150570,22412,0.004,-0.96,-0.056,1.829,0.61,0.061,583.54
132744,150606,12108,-0.004,-0.968,-0.063,0.854,0.549,0.244,583.546
132714,150570,22412,-0.004,-0.968,-0.063,0.854,0.549,0.244,583.55
132714,150591,12103,-0.001,-0.958,-0.049,-0.061,0.427,0.366,583.556
132707,150570,22412,-0.001,-0.958,-0.049,-0.061,0.427,0.366,583.56
132707,150598,12099,-0.002,-0.968,-0.061,-1.402,0.366,0.427,583.566
132719,150570,22412,-0.002,-0.968,-0.061,-1.402,0.366,0.427,583.569
132719,150594,12088,-0.004,-0.965,-0.064,-2.134,0.183,0.793,583.576
132752,150570,22412,-0.004,-0.965,-0.064,-2.134,0.183,0.793,583.579
132752,150603,12115,-0.003,-0.964,-0.066,-1.707,0.183,0.793,583.586
132755,150570,22412,-0.003,-0.964,-0.066,-1.707,0.183,0.793,583.589
132755,150616,12104,-0.001,-0.971,-0.079,-0.854,0.366,0.549,583.595
132752,150570,22412,-0.001,-0.971,-0.079,-0.854,0.366,0.549,583.599
132752,150621,12102,-0.006,-0.966,-0.065,0.488,0.488,0.427,583.605
132758,150570,22412,-0.006,-0.966,-0.065,0.488,0.488,0.427,583.609
132758,150610,12102,0,-0.962,-0.063,1.159,0.488,-0.061,583.615
132738,150570,22412,0,-0.962,-0.063,1.159,0.488,-0.061,583.619
132738,150621,12116,-0.003,-0.961,-0.057,0.671,0.549,0.183,583.625
132741,150570,22412,-0.003,-0.961,-0.057,0.671,0.549,0.183,583.629
132741,150611,12102,-0.001,-0.962,-0.046,-0.183,0.488,0.305,583.635
132732,150570,22412,-0.001,-0.962,-0.046,-0.183,0.488,0.305,583.639
132732,150616,12099,0,-0.965,-0.069,-1.524,0.244,0.427,583.645
132729,150570,22412,0,-0.965,-0.069,-1.524,0.244,0.427,583.649
132729,150622,12109,-0.006,-0.967,-0.077,-1.22,0.305,0.488,583.655
132729,150570,22412,-0.006,-0.967,-0.077,-1.22,0.305,0.488,583.659
132729,150616,12095,-0.005,-0.967,-0.06,0.549,0.427,0.122,583.665
132729,150570,22412,-0.005,-0.967,-0.06,0.549,0.427,0.122,583.668
132729,150600,12096,0.001,-0.962,-0.058,1.037,0.549,-0.061,583.675
132741,150570,22412,0.001,-0.962,-0.058,1.037,0.549,-0.061,583.678
132741,150622,12093,-0.002,-0.966,-0.059,1.037,0.549,-0.061,583.685
132734,150570,22412,-0.006,-0.962,-0.061,0.122,0.427,0.183,583.688
132734,150610,12109,-0.002,-0.964,-0.064,0.122,0.427,0.183,583.694
132735,150570,22412,-0.002,-0.962,-0.06,-0.427,0.488,0.305,583.698
132735,150614,12105,0.001,-0.959,-0.061,-0.427,0.488,0.305,583.704
132723,150570,22412,0.001,-0.963,-0.063,-0.61,0.427,0.366,583.708
132723,150596,12101,-0.002,-0.964,-0.057,-0.61,0.427,0.366,583.714
132710,150570,22412,-0.002,-0.961,-0.06,-1.037,0.244,0.61,583.718
132710,150636,12092,-0.001,-0.962,-0.067,-1.037,0.244,0.61,583.724
132702,150570,22412,0.001,-0.968,-0.076,-1.646,0.122,0.671,583.728
132702,150631,12095,-0.003,-0.977,-0.078,-1.646,0.122,0.671,583.734
132729,150570,22412,0,-0.972,-0.066,-0.915,0.305,0.671,583.738
132729,150627,12090,-0.006,-0.963,-0.063,-0.915,0.305,0.671,583.744
132733,150570,22412,-0.001,-0.963,-0.06,-0.122,0.366,0.549,583.748
132733,150621,12076,-0.001,-0.967,-0.063,-0.122,0.366,0.549,583.754
132718,150570,22412,-0.003,-0.964,-0.066,-0.122,0.366,0.549,583.758
132718,150655,12088,-0.001,-0.964,-0.067,-0.122,0.366,0.549,583.764
132698,150570,22412,-0.002,-0.965,-0.065,0.244,0.366,0.61,583.767
132698,150626,12103,-0.001,-0.961,-0.053,0.244,0.366,0.61,583.774
132660,150570,22412,-0.003,-0.96,-0.062,0.488,0.244,0.488,583.777
132660,150597,12107,0.001,-0.963,-0.069,0.488,0.244,0.488,583.784
132648,150570,22412,-0.004,-0.969,-0.07,0.061,0.244,0.671,583.787
132648,150605,12079,-0.006,-0.97,-0.066,0.061,0.244,0.671,583.793
132670,150570,22412,-0.003,-0.964,-0.061,0.183,0.305,0.61,583.797
132670,150627,12095,-0.002,-0.963,-0.065,0.183,0.305,0.61,583.803
132725,150570,22412,-0.005,-0.965,-0.065,0,0.427,0.183,583.807
132725,150640,12097,-0.005,-0.967,-0.06,0,0.427,0.183,583.813
132729,150570,22412,-0.004,-0.966,-0.061,0,0.488,0.244,583.817
132729,150669,12105,-0.003,-0.963,-0.063,0,0.488,0.244,583.823
132745,150570,22412,-0,-0.962,-0.06,-0.122,0.427,0,583.827
132745,150657,12100,0,-0.963,-0.058,-0.122,0.427,0,583.833
132705,150570,22412,0.002,-0.964,-0.062,-0.244,0.549,0,583.837
132705,150652,12092,0.002,-0.967,-0.062,-0.244,0.549,0,583.843
132693,150570,22412,-0.001,-0.964,-0.057,-0.732,0.305,0.427,583.847
132693,150609,12082,-0.002,-0.961,-0.055,-0.732,0.305,0.427,583.853
132642,150570,22412,-0.002,-0.964,-0.058,-1.341,0.183,0.793,583.857
132642,150591,12101,-0.003,-0.97,-0.066,-1.341,0.183,0.793,583.863
132634,150570,22412,-0.002,-0.969,-0.078,-2.012,0.183,0.793,583.866
132634,150585,12083,-0.004,-0.972,-0.086,-2.012,0.183,0.793,583.873
132664,150570,22412,-0.005,-0.972,-0.072,-0.732,0.427,0.427,583.876
132664,150579,12091,-0.004,-0.963,-0.067,-0.732,0.427,0.427,583.883
132678,150570,22412,0.001,-0.963,-0.066,0.976,0.549,-0.183,583.886
132678,150636,12092,-0,-0.96,-0.066,0.976,0.549,-0.183,583.892
132731,150570,22412,-0.002,-0.957,-0.062,0.854,0.61,-0.183,583.896
132731,150641,12085,-0.001,-0.96,-0.062,0.854,0.61,-0.183,583.902
132723,150570,22412,0.002,-0.963,-0.061,0.61,0.549,0.244,583.906
132723,150676,12104,-0.001,-0.967,-0.059,0.61,0.549,0.244,583.912
132698,150570,22412,0.002,-0.966,-0.055,0.488,0.427,0.488,583.916
132698,150648,12101,0.003,-0.968,-0.055,0.488,0.427,0.488,583.922
132655,150570,22412,0.001,-0.967,-0.057,-0.183,0.305,0.671,583.926
132655,150615,12093,0,-0.964,-0.056,-0.183,0.305,0.671,583.932
132656,150570,22412,-0,-0.962,-0.051,-1.098,0.183,0.976,583.936
132656,150619,12092,0.002,-0.964,-0.059,-1.098,0.183,0.976,583.942
132668,150570,22412,-0.005,-0.968,-0.071,-1.829,0.183,1.098,583.946
132668,150609,12091,-0.009,-0.973,-0.073,-1.829,0.183,1.098,583.952
132670,150570,22412,-0.008,-0.97,-0.074,-1.098,0.122,0.854,583.956
132670,150626,12080,-0.003,-0.966,-0.068,-1.098,0.122,0.854,583.962
132669,150570,22412,-0.002,-0.964,-0.062,0.305,0.488,0.244,583.966
132669,150626,12086,-0.001,-0.961,-0.066,0.305,0.488,0.244,583.972
132709,150570,22412,-0.003,-0.961,-0.069,0.732,0.61,0.061,583.975
132709,150604,12086,-0.005,-0.963,-0.068,0.732,0.61,0.061,583.982
132689,150570,22412,-0.005,-0.968,-0.062,0.732,0.488,0.305,583.985
132689,150643,12085,-0.002,-0.961,-0.065,0.732,0.488,0.305,583.991
132662,150570,22412,-0,-0.964,-0.06,0.305,0.488,0.305,583.995
132662,150631,12086,-0.001,-0.963,-0.056,0.305,0.488,0.305,584.001
132656,150570,22412,-0.001,-0.965,-0.061,-0.488,0.366,0.427,584.005
132656,150624,12101,0.002,-0.966,-0.059,-0.488,0.366,0.427,584.011
132657,150570,22412,-0.001,-0.966,-0.062,-1.402,0.183,0.671,584.015
132657,150627,12086,-0.003,-0.966,-0.061,-1.402,0.183,0.671,584.021
132662,150570,22412,-0.007,-0.965,-0.065,-1.707,0.183,0.793,584.025
132662,150609,12078,-0.005,-0.967,-0.071,-1.707,0.183,0.793,584.031
132657,150570,22412,-0.001,-0.965,-0.074,-1.341,0.244,0.427,584.035
132657,150641,12087,-0.001,-0.969,-0.075,-1.341,0.244,0.427,584.041
132653,150570,22412,-0.006,-0.969,-0.074,0,0.305,0.305,584.045
132653,150629,12079,-0.006,-0.964,-0.067,0,0.305,0.305,584.051
132652,150570,22412,-0.004,-0.965,-0.059,1.463,0.488,0.183,584.055
132652,150638,12101,-0.005,-0.967,-0.06,1.463,0.488,0.183,584.061
132675,150570,22412,-0.003,-0.967,-0.066,1.22,0.549,-0.122,584.065
132675,150643,12078,-0.004,-0.963,-0.062,1.22,0.549,-0.122,584.071
132653,150570,22412,-0,-0.96,-0.055,0.427,0.549,0,584.074
132653,150616,12089,-0.003,-0.961,-0.057,0.427,0.549,0,584.081
132669,150570,22412,-0.003,-0.966,-0.063,-0.427,0.549,0.244,584.084
132669,150644,12074,-0.002,-0.964,-0.059,-0.427,0.549,0.244,584.091
132679,150570,22412,-0.001,-0.961,-0.057,-1.22,0.305,0.366,584.094
132679,150613,12085,-0.002,-0.965,-0.067,-1.22,0.305,0.366,584.1
132654,150570,22412,-0.002,-0.967,-0.067,-1.646,0.244,0.427,584.104
132654,150630,12096,-0.003,-0.965,-0.066,-1.646,0.244,0.427,584.11
132664,150570,22412,-0.004,-0.969,-0.069,-1.037,0.183,0.61,584.114
132664,150643,12082,-0.001,-0.966,-0.074,-1.037,0.183,0.61,584.12
132646,150570,22412,-0,-0.967,-0.072,-0.183,0.366,0.366,584.124
132646,150599,12085,-0.005,-0.966,-0.054,-0.183,0.366,0.366,584.13
132615,150570,22412,-0.005,-0.966,-0.054,-0.183,0.366,0.366,584.134
132615,150592,12087,-0.001,-0.963,-0.062,0.61,0.366,0.305,584.14
132572,150570,22412,-0.001,-0.963,-0.062,0.61,0.366,0.305,584.144
132572,150601,12080,-0.004,-0.965,-0.066,-0.427,0.305,0.427,584.15
132637,150570,22412,-0.004,-0.965,-0.066,-0.427,0.305,0.427,584.154
132637,150608,12067,-0.006,-0.964,-0.066,-0.671,0.305,0.549,584.16
132631,150570,22412,-0.006,-0.964,-0.066,-0.671,0.305,0.549,584.164
132631,150615,12074,-0,-0.963,-0.06,0,0.366,0.549,584.17
132652,150570,22412,-0,-0.963,-0.06,0,0.366,0.549,584.173
132652,150628,12071,-0.003,-0.967,-0.065,0.061,0.305,0.549,584.18
132646,150570,22412,-0.003,-0.967,-0.065,0.061,0.305,0.549,584.183
132646,150647,12097,-0.003,-0.963,-0.059,-0.183,0.183,0.732,584.189
132669,150570,22412,-0.003,-0.963,-0.059,-0.183,0.183,0.732,584.193
132669,150650,12080,-0.004,-0.965,-0.067,-0.488,0.244,0.732,584.199
132663,150570,22412,-0.004,-0.965,-0.067,-0.488,0.244,0.732,584.203
132663,150654,12070,-0.004,-0.964,-0.068,-0.366,0.366,0.549,584.209
132638,150570,22412,-0.004,-0.964,-0.068,-0.366,0.366,0.549,584.213
132638,150595,12087,-0.003,-0.964,-0.063,0.244,0.488,0.366,584.219
132601,150570,22412,-0.003,-0.964,-0.063,0.244,0.488,0.366,584.223
132601,150592,12087,-0.002,-0.964,-0.058,0.122,0.427,0.122,584.229
132619,150570,22412,-0.002,-0.964,-0.058,0.122,0.427,0.122,584.233
132619,150592,12081,-0,-0.963,-0.053,-0.305,0.366,0.244,584.239
132626,150570,22412,-0,-0.963,-0.053,-0.305,0.366,0.244,584.243
132626,150605,12069,-0.003,-0.965,-0.073,-1.098,0.305,0.549,584.249
132645,150570,22412,-0.003,-0.965,-0.073,-1.098,0.305,0.549,584.253
132645,150628,12100,-0.005,-0.968,-0.074,-1.463,0.183,0.732,584.259
132680,150570,22412,-0.005,-0.968,-0.074,-1.463,0.183,0.732,584.263
132680,150666,12085,-0.005,-0.966,-0.072,-0.732,0.244,0.61,584.269
132685,150570,22412,-0.005,-0.966,-0.072,-0.732,0.244,0.61,584.272
132685,150665,12080,-0.003,-0.969,-0.07,0.488,0.488,0.305,584.279
132678,150570,22412,-0.003,-0.963,-0.063,0.488,0.488,0.305,584.282
132678,150640,12076,-0.001,-0.96,-0.063,0.976,0.549,0.183,584.289
132631,150570,22412,-0.001,-0.959,-0.063,0.976,0.549,0.183,584.292
132631,150611,12096,-0.004,-0.966,-0.063,0.305,0.427,0.244,584.298
132618,150570,22412,-0.003,-0.965,-0.064,0.305,0.427,0.244,584.302
132618,150619,12077,0.001,-0.962,-0.069,-0.244,0.366,0.549,584.308
132587,150570,22412,-0.003,-0.966,-0.067,-0.244,0.366,0.549,584.312
132587,150593,12066,-0.002,-0.969,-0.069,-0.366,0.488,0.61,584.318
132583,150570,22412,-0.004,-0.967,-0.068,-0.366,0.488,0.61,584.322
132583,150615,12073,-0.006,-0.966,-0.053,0.244,0.427,0.488,584.328
132617,150570,22412,-0.002,-0.963,-0.051,0.244,0.427,0.488,584.332
132617,150628,12078,0.001,-0.963,-0.059,-0.122,0.305,0.366,584.338
132640,150570,22412,0.001,-0.965,-0.069,-0.122,0.305,0.366,584.342
132640,150651,12073,-0.003,-0.966,-0.07,-0.854,0.366,0.366,584.348
132644,150570,22412,-0.004,-0.964,-0.061,-0.854,0.366,0.366,584.352
132644,150634,12083,-0.004,-0.959,-0.05,-0.305,0.366,0.427,584.358
132629,150570,22412,0,-0.965,-0.055,-0.305,0.366,0.427,584.362
132629,150629,12075,0,-0.963,-0.065,-0.854,0.244,0.366,584.368
132608,150570,22412,-0.006,-0.965,-0.073,-0.854,0.244,0.366,584.371
132608,150587,12089,-0.005,-0.967,-0.077,-1.098,0.244,0.488,584.378
132545,150570,22412,-0.005,-0.965,-0.072,-1.098,0.244,0.488,584.381
132545,150593,12072,-0,-0.966,-0.068,0,0.427,0.244,584.388
132543,150570,22412,0,-0.967,-0.07,0,0.427,0.244,584.391
132543,150566,12062,-0.001,-0.967,-0.068,0.671,0.61,0.183,584.397
132545,150570,22412,-0.007,-0.968,-0.06,0.671,0.61,0.183,584.401
132545,150586,12072,-0.002,-0.965,-0.06,0.671,0.427,0.366,584.407
132556,150570,22412,0.003,-0.963,-0.058,0.671,0.427,0.366,584.411
132556,150572,12078,0.005,-0.965,-0.066,0,0.427,0.305,584.417
132554,150570,22412,0,-0.964,-0.075,0,0.427,0.305,584.421
132554,150574,12068,-0.006,-0.964,-0.069,-0.183,0.488,0.366,584.427
132537,150570,22412,-0.005,-0.963,-0.059,-0.183,0.488,0.366,584.431
132537,150550,12069,-0.002,-0.96,-0.058,0.488,0.427,0.366,584.437
132510,150570,22412,-0.002,-0.963,-0.059,0.488,0.427,0.366,584.441
132510,150571,12069,-0.002,-0.964,-0.062,-0.183,0.366,0.244,584.447
132525,150570,22412,-0.006,-0.962,-0.065,-0.183,0.366,0.244,584.451
132525,150553,12078,-0.005,-0.966,-0.064,-0.793,0.427,0.488,584.457
132500,150314,22412,-0.004,-0.969,-0.063,-0.793,0.427,0.488,584.461
132500,150521,12067,-0.004,-0.965,-0.066,-0.671,0.305,0.671,584.467
132496,150570,22412,0.001,-0.965,-0.066,-0.671,0.305,0.671,584.47
132496,150567,12055,-0.001,-0.965,-0.063,-0.61,0.305,0.549,584.477
132505,150570,22412,-0.002,-0.962,-0.062,-0.61,0.305,0.549,584.48
132505,150580,12047,-0.001,-0.96,-0.07,-1.037,0.305,0.549,584.487
132520,150570,22412,-0.001,-0.964,-0.08,-1.037,0.305,0.549,584.49
132520,150585,12060,-0.007,-0.969,-0.077,-0.488,0.305,0.61,584.496
132535,150570,22412,-0.005,-0.968,-0.063,-0.488,0.305,0.61,584.5
132535,150567,12063,-0.003,-0.965,-0.062,0.793,0.427,0.305,584.506
