137257,153898,22412,-0.008,-0.953,-0.06,0.732,0.61,0.732,236.912
137257,154015,12789,-0.01,-0.961,-0.062,0.732,0.61,0.732,236.918
137224,153898,22412,-0.008,-0.959,-0.07,0.183,0.549,1.159,236.922
137224,153982,12786,-0.005,-0.96,-0.079,0.183,0.549,1.159,236.928
137219,153898,22412,-0.006,-0.971,-0.074,-0.549,0.366,1.037,236.932
137219,153976,12779,-0.006,-0.975,-0.057,-0.549,0.366,1.037,236.938
137222,153898,22412,-0.004,-0.962,-0.057,-0.549,0.183,0.854,236.942
137222,153990,12791,-0.002,-0.958,-0.068,-0.549,0.183,0.854,236.948
137170,153898,22412,-0.011,-0.971,-0.066,-1.585,0.183,0.976,236.952
137170,153957,12782,-0.016,-0.985,-0.059,-1.585,0.183,0.976,236.958
137152,153898,22412,-0.014,-0.982,-0.072,-1.646,0.183,0.732,236.962
137152,153940,12782,-0.011,-0.976,-0.087,-1.646,0.183,0.732,236.968
137187,153898,22412,-0.006,-0.973,-0.086,-2.073,-0.122,0.061,236.971
137187,153961,12770,-0.001,-0.972,-0.074,-2.073,-0.122,0.061,236.978
137169,153898,22412,-0.003,-0.971,-0.069,-0.183,0,-0.061,236.981
137169,153943,12784,-0.002,-0.961,-0.074,-0.183,0,-0.061,236.988
137161,153898,22412,-0.004,-0.956,-0.069,0.549,0.427,0.427,236.991
137161,153950,12787,-0.006,-0.953,-0.064,0.549,0.427,0.427,236.997
137189,153898,22412,-0.006,-0.951,-0.068,0.732,0.671,0.976,237.001
137189,153964,12764,-0.003,-0.95,-0.064,0.732,0.671,0.976,237.007
137206,153898,22412,-0.006,-0.95,-0.06,0.366,0.732,1.098,237.011
137206,153988,12799,-0.01,-0.955,-0.064,0.366,0.732,1.098,237.017
137202,153898,22412,-0.009,-0.964,-0.064,-0.305,0.671,1.341,237.021
137202,154011,12783,-0.016,-0.974,-0.057,-0.305,0.671,1.341,237.027
137202,153898,22412,-0.018,-0.97,-0.057,-1.098,0.488,1.037,237.031
137202,153985,12777,-0.013,-0.965,-0.071,-1.098,0.488,1.037,237.037
137184,153898,22412,-0.012,-0.968,-0.076,-2.378,-0.061,0.488,237.041
137184,153946,12787,-0.014,-0.98,-0.069,-2.378,-0.061,0.488,237.047
137170,153898,22412,-0.013,-0.982,-0.073,-2.134,-0.183,0,237.051
137170,153958,12790,-0.009,-0.974,-0.088,-2.134,-0.183,0,237.057
137181,153898,22412,-0.006,-0.965,-0.087,-2.134,0,-0.488,237.061
137181,153946,12770,-0.006,-0.964,-0.086,-2.134,0,-0.488,237.067
137184,153898,22412,-0.006,-0.975,-0.082,-0.549,0.061,-0.61,237.07
137184,153948,12791,-0.01,-0.976,-0.077,-0.549,0.061,-0.61,237.077
137145,153898,22412,-0.009,-0.964,-0.074,1.037,0.244,-0.305,237.08
137145,153943,12777,-0.004,-0.953,-0.065,1.037,0.244,-0.305,237.087
137151,153898,22412,-0.005,-0.952,-0.054,0.793,0.244,0.061,237.09
137151,153942,12770,-0.005,-0.944,-0.051,0.793,0.244,0.061,237.096
137154,153898,22412,-0.008,-0.948,-0.059,-0.488,0.244,0.305,237.1
137154,153957,12772,-0.009,-0.957,-0.069,-0.488,0.244,0.305,237.106
137153,153898,22412,-0.005,-0.967,-0.077,-1.707,0.122,0.366,237.11
137153,153971,12774,-0.001,-0.968,-0.078,-1.707,0.122,0.366,237.116
137187,153898,22412,-0.002,-0.97,-0.073,-1.524,0.305,0.244,237.12
137187,153955,12774,-0.002,-0.964,-0.073,-1.524,0.305,0.244,237.126
137178,153898,22412,-0.002,-0.964,-0.073,-1.524,0.305,0.244,237.13
137178,153958,12782,-0.009,-0.977,-0.074,-0.671,0.366,0.488,237.136
137160,153898,22412,-0.009,-0.977,-0.074,-0.671,0.366,0.488,237.14
137160,153910,12772,-0.007,-0.973,-0.072,-0.488,0.61,0.61,237.146
137075,153898,22412,-0.007,-0.973,-0.072,-0.488,0.61,0.61,237.15
137075,153870,12768,-0.006,-0.969,-0.067,-0.488,0.488,0.549,237.156
137073,153898,22412,-0.006,-0.969,-0.067,-0.488,0.488,0.549,237.16
137073,153881,12765,-0.013,-0.971,-0.079,-0.305,0.549,0.61,237.166
137086,153642,22412,-0.013,-0.971,-0.079,-0.305,0.549,0.61,237.17
137086,153850,12761,-0.007,-0.973,-0.072,-0.244,0.793,0.488,237.176
137068,153642,22412,-0.007,-0.973,-0.072,-0.244,0.793,0.488,237.179
137068,153849,12755,-0.005,-0.949,-0.065,0.488,0.61,0.244,237.186
137044,153642,22412,-0.005,-0.949,-0.065,0.488,0.61,0.244,237.189
137044,153850,12757,-0.007,-0.958,-0.078,0.244,0.488,0.244,237.195
137062,153898,22412,-0.007,-0.958,-0.078,0.244,0.488,0.244,237.199
137062,153902,12757,-0.006,-0.965,-0.074,0.305,0.671,0.305,237.205
137072,153898,22412,-0.006,-0.965,-0.074,0.305,0.671,0.305,237.209
137072,153898,12764,-0.005,-0.948,-0.067,0.732,0.488,0.427,237.215
137040,153642,22412,-0.005,-0.948,-0.067,0.732,0.488,0.427,237.219
137040,153851,12760,-0.005,-0.961,-0.072,0.427,0.549,0.793,237.225
137022,153898,22412,-0.005,-0.961,-0.072,0.427,0.549,0.793,237.229
137022,153861,12758,-0.01,-0.971,-0.069,0.427,0.488,1.159,237.235
137030,153642,22412,-0.01,-0.971,-0.069,0.427,0.488,1.159,237.239
137030,153837,12769,-0.01,-0.979,-0.077,0.427,0.549,1.098,237.245
137048,153642,22412,-0.01,-0.979,-0.077,0.427,0.549,1.098,237.249
137048,153851,12770,-0.013,-0.974,-0.059,0.427,0.549,0.549,237.255
137044,153642,22412,-0.013,-0.974,-0.059,0.427,0.549,0.549,237.259
137044,153838,12768,-0.008,-0.97,-0.075,0.122,0.427,0.122,237.265
137058,153642,22412,-0.008,-0.97,-0.075,0.122,0.427,0.122,237.269
137058,153833,12738,-0.008,-0.973,-0.077,-0.183,0.549,-0.122,237.275
137036,153642,22412,-0.008,-0.969,-0.084,-0.183,0.549,-0.122,237.278
137036,153847,12768,0,-0.966,-0.087,0.549,0.732,-0.488,237.285
137022,153642,22412,-0.002,-0.963,-0.08,0.549,0.732,-0.488,237.288
137022,153841,12749,-0.006,-0.956,-0.065,1.768,0.976,-0.122,237.294
137003,153642,22412,-0.008,-0.95,-0.056,1.768,0.976,-0.122,237.298
137003,153806,12741,-0.008,-0.944,-0.066,2.134,0.976,0.488,237.304
136983,153642,22412,-0.01,-0.942,-0.067,2.134,0.976,0.488,237.308
136983,153824,12752,-0.007,-0.951,-0.057,1.22,0.793,0.671,237.314
136976,153642,22412,-0.007,-0.953,-0.056,1.22,0.793,0.671,237.318
136976,153790,12746,-0.005,-0.951,-0.064,0.305,0.732,0.61,237.324
136947,153642,22412,-0.008,-0.957,-0.065,0.305,0.732,0.61,237.328
136947,153804,12753,-0.012,-0.967,-0.062,-0.854,0.366,0.488,237.334
136955,153642,22412,-0.011,-0.972,-0.062,-0.854,0.366,0.488,237.338
136955,153798,12751,-0.01,-0.968,-0.067,-1.28,0.183,0.305,237.344
136968,153642,22412,-0.006,-0.963,-0.071,-1.28,0.183,0.305,237.348
136968,153817,12765,-0.002,-0.968,-0.075,-1.89,-0.122,0.183,237.354
136991,153642,22412,-0.006,-0.977,-0.07,-1.89,-0.122,0.183,237.358
136991,153820,12749,-0.01,-0.987,-0.066,-1.463,-0.061,0.183,237.364
136984,153642,22412,-0.007,-0.98,-0.068,-1.463,-0.061,0.183,237.368
136984,153822,12752,-0.007,-0.964,-0.064,-1.463,0.183,0.244,237.374
136981,153642,22412,-0.008,-0.958,-0.063,-1.463,0.183,0.244,237.377
136981,153818,12757,-0.01,-0.965,-0.075,-2.195,0.183,0.366,237.384
136978,153642,22412,-0.013,-0.981,-0.083,-2.195,0.183,0.366,237.387
136978,153843,12739,-0.01,-0.98,-0.084,-1.89,0.305,0.061,237.393
136991,153642,22412,-0.005,-0.975,-0.08,-1.89,0.305,0.061,237.397
136991,153823,12757,-0.003,-0.963,-0.068,-0.61,0.183,0,237.403
136975,153642,22412,-0.006,-0.951,-0.063,-0.61,0.183,0,237.407
136975,153806,12756,-0.007,-0.945,-0.068,-0.244,0.183,0.366,237.413
136980,153642,22412,-0.008,-0.955,-0.071,-0.244,0.183,0.366,237.417
136980,153816,12754,-0.004,-0.962,-0.073,0,0.366,0.488,237.423
136980,153642,22412,-0.002,-0.955,-0.072,0,0.366,0.488,237.427
136980,153822,12761,-0.001,-0.954,-0.075,-0.061,0.427,0.854,237.433
136961,153642,22412,-0.007,-0.957,-0.068,-0.061,0.427,0.854,237.437
136961,153828,12739,-0.009,-0.96,-0.062,-0.061,0.671,1.159,237.443
137006,153642,22412,-0.007,-0.95,-0.069,-0.061,0.671,1.159,237.447
137006,153826,12747,-0.008,-0.961,-0.078,-0.732,0.61,1.28,237.453
136996,153642,22412,-0.008,-0.975,-0.078,-0.732,0.61,1.28,237.457
136996,153816,12749,-0.01,-0.984,-0.069,-0.244,0.61,0.976,237.463
136984,153642,22412,-0.009,-0.978,-0.068,-0.244,0.61,0.976,237.467
136984,153784,12761,-0.01,-0.965,-0.07,-0.183,0.732,0.793,237.473
136999,153642,22412,-0.015,-0.964,-0.064,-0.183,0.732,0.793,237.476
136999,153826,12755,-0.014,-0.976,-0.058,-0.793,0.488,0.61,237.483
137009,153642,22412,-0.016,-0.984,-0.063,-0.793,0.488,0.61,237.486
137009,153829,12760,-0.014,-0.977,-0.073,-1.707,0.183,0.122,237.492
137006,153642,22412,-0.01,-0.973,-0.078,-1.707,0.183,0.122,237.496
137006,153848,12762,-0.006,-0.969,-0.08,-2.378,-0.061,-0.427,237.502
137046,153898,22412,-0.002,-0.957,-0.087,-2.378,-0.061,-0.427,237.506
137046,153876,12758,0,-0.952,-0.085,-1.037,0.122,-0.366,237.512
137094,153898,22412,-0.005,-0.953,-0.082,-1.037,0.122,-0.366,237.516
137094,153907,12770,-0.005,-0.955,-0.074,0.793,0.488,0.183,237.522
137131,153898,22412,-0.008,-0.949,-0.079,0.793,0.488,0.183,237.526
137131,153949,12791,-0.007,-0.954,-0.078,1.524,0.732,0.549,237.532
137123,153898,22412,-0.012,-0.962,-0.066,1.524,0.732,0.549,237.536
137123,153925,12779,-0.012,-0.963,-0.061,1.524,0.549,0.671,237.542
137107,153898,22412,-0.012,-0.955,-0.066,1.524,0.549,0.671,237.546
137107,153898,12758,-0.012,-0.959,-0.072,0.305,-0.061,0.549,237.552
137111,153898,22412,-0.011,-0.974,-0.07,0.305,-0.061,0.549,237.556
137111,153911,12763,-0.009,-0.985,-0.065,0.122,-0.183,0.061,237.562
137125,153898,22412,-0.008,-0.982,-0.052,0.122,-0.183,0.061,237.566
137125,153944,12763,-0.004,-0.967,-0.057,-0.671,-0.305,-0.305,237.572
137120,153898,22412,-0.005,-0.956,-0.074,-0.671,-0.305,-0.305,237.575
137120,153932,12765,-0.007,-0.968,-0.081,-2.622,0,-0.427,237.582
137160,153898,22412,-0.007,-0.98,-0.076,-2.622,0,-0.427,237.585
137160,153959,12764,-0,-0.979,-0.076,-1.524,0,-0.366,237.592
137149,153898,22412,0.004,-0.965,-0.074,-1.524,0,-0.366,237.595
137149,153929,12782,-0.003,-0.954,-0.073,-1.037,0.061,0.122,237.601
137153,153898,22412,-0.004,-0.953,-0.08,-1.037,0.061,0.122,237.605
137153,153972,12769,-0.005,-0.958,-0.084,-0.793,0.366,0.61,237.611
137141,153898,22412,-0.001,-0.961,-0.084,-0.793,0.366,0.61,237.615
137141,153947,12790,-0.003,-0.964,-0.082,0.671,0.671,0.671,237.621
137123,153898,22412,-0.009,-0.966,-0.08,0.671,0.671,0.671,237.625
137123,153944,12765,-0.01,-0.963,-0.075,2.256,0.915,0.793,237.631
137140,153898,22412,-0.01,-0.959,-0.067,2.256,0.915,0.793,237.635
137140,153949,12762,-0.008,-0.954,-0.069,2.134,0.732,0.732,237.641
137121,153898,22412,-0.004,-0.958,-0.068,2.134,0.732,0.732,237.645
137121,153929,12761,-0.006,-0.964,-0.053,1.524,0.671,0.732,237.651
137052,153898,22412,-0.007,-0.964,-0.047,1.524,0.671,0.732,237.655
137052,153901,12762,-0.008,-0.956,-0.054,0.305,0.732,0.976,237.661
137080,153898,22412,-0.013,-0.954,-0.065,0.305,0.732,0.976,237.665
137080,153908,12765,-0.014,-0.962,-0.073,-2.073,0.549,0.976,237.671
137080,153898,22412,-0.007,-0.973,-0.074,-2.073,0.549,0.976,237.674
137080,153891,12759,-0.008,-0.976,-0.085,-2.256,0.061,0.549,237.681
137081,153898,22412,-0.002,-0.975,-0.096,-2.256,0.061,0.549,237.684
137081,153897,12759,-0.006,-0.979,-0.087,-1.28,0.122,0.244,237.69
137068,153898,22412,-0.007,-0.984,-0.085,-1.28,0.122,0.244,237.694
137068,153916,12758,-0.006,-0.98,-0.082,0.976,0.549,0.244,237.7
137080,153898,22412,-0.009,-0.971,-0.074,0.976,0.549,0.244,237.704
137080,153937,12753,-0.01,-0.968,-0.072,2.134,0.61,0.366,237.71
137087,153898,22412,-0.008,-0.963,-0.066,2.134,0.61,0.366,237.714
137087,153933,12761,-0.005,-0.953,-0.062,2.195,0.732,0.305,237.72
137059,153898,22412,-0.005,-0.953,-0.062,2.195,0.732,0.305,237.724
137059,153940,12779,-0.006,-0.944,-0.057,1.098,0.854,0.732,237.73
137100,153898,22412,-0.006,-0.944,-0.057,1.098,0.854,0.732,237.734
137100,153950,12766,-0.013,-0.956,-0.047,0,0.793,1.098,237.74
137106,153898,22412,-0.013,-0.956,-0.047,0,0.793,1.098,237.744
137106,153935,12754,-0.012,-0.955,-0.056,-1.951,0.488,0.976,237.75
137090,153898,22412,-0.012,-0.955,-0.056,-1.951,0.488,0.976,237.754
137090,153912,12759,-0.008,-0.962,-0.077,-3.72,0.061,0.671,237.76
137068,153898,22412,-0.008,-0.962,-0.077,-3.72,0.061,0.671,237.764
137068,153904,12758,-0.012,-0.982,-0.088,-3.598,-0.061,0.366,237.77
137050,153898,22412,-0.012,-0.982,-0.088,-3.598,-0.061,0.366,237.773
137050,153876,12764,-0.013,-0.981,-0.085,-1.646,0,0.122,237.78
137011,153898,22412,-0.013,-0.981,-0.085,-1.646,0,0.122,237.783
137011,153871,12766,-0.009,-0.965,-0.079,-0.305,-0.122,-0.183,237.79
137031,153898,22412,-0.009,-0.965,-0.079,-0.305,-0.122,-0.183,237.793
137031,153861,12769,-0.005,-0.959,-0.077,0.427,0.122,-0.183,237.799
137065,153898,22412,-0.005,-0.959,-0.077,0.427,0.122,-0.183,237.803
137065,153896,12755,-0.003,-0.96,-0.07,0.244,0.61,0.244,237.809
137056,153898,22412,-0.003,-0.96,-0.07,0.244,0.61,0.244,237.813
137056,153883,12764,-0.012,-0.97,-0.081,0.732,1.159,0.61,237.819
137044,153898,22412,-0.012,-0.97,-0.081,0.732,1.159,0.61,237.823
137044,153924,12771,-0.006,-0.96,-0.064,1.037,0.793,0.488,237.829
137065,153898,22412,-0.006,-0.96,-0.064,1.037,0.793,0.488,237.833
137065,153924,12770,-0.002,-0.951,-0.06,0.671,0.427,0.671,237.839
137090,153898,22412,-0.002,-0.951,-0.06,0.671,0.427,0.671,237.843
137090,153922,12760,-0.01,-0.96,-0.07,-0.427,0.61,0.854,237.849
137025,153898,22412,-0.01,-0.96,-0.07,-0.427,0.61,0.854,237.853
137025,153901,12764,-0.005,-0.972,-0.08,-0.366,0.427,0.854,237.859
137070,153898,22412,-0.005,-0.972,-0.08,-0.366,0.427,0.854,237.863
137070,153905,12755,-0.005,-0.971,-0.083,-0.366,0.427,0.854,237.869
137049,153898,22412,-0.01,-0.971,-0.083,0,0.61,0.793,237.872
137049,153909,12770,-0.011,-0.973,-0.085,0,0.61,0.793,237.879
137035,153898,22412,-0.01,-0.974,-0.091,0.61,0.854,0.793,237.882
137035,153894,12759,-0.01,-0.979,-0.089,0.61,0.854,0.793,237.888
137056,153898,22412,-0.013,-0.978,-0.073,2.012,1.037,0.549,237.892
137056,153890,12768,-0.014,-0.969,-0.063,2.012,1.037,0.549,237.898
137074,153898,22412,-0.011,-0.958,-0.057,2.622,1.037,0.488,237.902
137074,153906,12760,-0.007,-0.95,-0.051,2.622,1.037,0.488,237.908
137063,153898,22412,-0.012,-0.949,-0.044,1.159,0.61,0.793,237.912
137063,153910,12767,-0.014,-0.951,-0.053,1.159,0.61,0.793,237.918
137092,153898,22412,-0.015,-0.957,-0.065,-1.341,0.427,0.732,237.922
137092,153910,12767,-0.013,-0.965,-0.073,-1.341,0.427,0.732,237.928
137077,153898,22412,-0.009,-0.967,-0.072,-2.5,0.122,0.244,237.932
137077,153901,12748,-0.007,-0.961,-0.073,-2.5,0.122,0.244,237.938
136989,153642,22412,-0.007,-0.956,-0.078,-2.683,-0.183,0.122,237.942
136989,153847,12754,-0.01,-0.961,-0.082,-2.683,-0.183,0.122,237.948
136978,153898,22412,-0.007,-0.966,-0.09,-2.073,0.061,0.183,237.952
136978,153858,12748,-0.006,-0.976,-0.095,-2.073,0.061,0.183,237.958
136967,153642,22412,-0.008,-0.985,-0.091,0.183,0.305,0.061,237.962
136967,153818,12741,-0.006,-0.981,-0.09,0.183,0.305,0.061,237.968
136973,153898,22412,-0.006,-0.978,-0.075,2.378,0.427,0.061,237.971
136973,153857,12746,-0.007,-0.972,-0.067,2.378,0.427,0.061,237.978
137011,153898,22412,-0.007,-0.964,-0.06,3.049,0.61,0.244,237.981
137011,153882,12744,-0.006,-0.951,-0.049,3.049,0.61,0.244,237.988
137010,153898,22412,-0.007,-0.952,-0.039,1.585,0.671,0.61,237.991
137010,153875,12754,-0.011,-0.958,-0.047,1.585,0.671,0.61,237.997
137019,153898,22412,-0.017,-0.965,-0.056,-1.037,0.671,0.732,238.001
137019,153886,12748,-0.015,-0.969,-0.081,-1.037,0.671,0.732,238.007
137037,153898,22412,-0.008,-0.968,-0.086,-3.171,0.183,0.183,238.011
137037,153867,12755,-0.004,-0.963,-0.083,-3.171,0.183,0.183,238.017
137035,153898,22412,-0.003,-0.958,-0.079,-2.012,-0.366,-0.366,238.021
137035,153886,12747,-0.004,-0.959,-0.072,-2.012,-0.366,-0.366,238.027
137019,153642,22412,-0.003,-0.954,-0.067,-0.915,-0.061,-0.122,238.031
137019,153852,12753,-0.005,-0.949,-0.065,-0.915,-0.061,-0.122,238.037
136981,153898,22412,-0.008,-0.958,-0.076,-1.585,0.183,0.366,238.041
136981,153870,12747,-0.012,-0.973,-0.083,-1.585,0.183,0.366,238.047
137005,153898,22412,-0.013,-0.982,-0.076,-1.524,0.122,0.427,238.051
137005,153872,12756,-0.009,-0.977,-0.08,-1.524,0.122,0.427,238.057
136983,153642,22412,-0.01,-0.968,-0.083,-0.915,0.183,0.366,238.061
136983,153852,12746,-0.01,-0.967,-0.077,-0.915,0.183,0.366,238.067
136953,153642,22412,-0.005,-0.964,-0.074,0.122,0.061,0.488,238.07
136953,153836,12747,-0.006,-0.959,-0.075,0.122,0.061,0.488,238.077
136950,153898,22412,-0.007,-0.962,-0.076,0.976,0.061,0.61,238.08
136950,153862,12748,-0.007,-0.965,-0.07,0.976,0.061,0.61,238.087
136975,153898,22412,-0.006,-0.959,-0.064,1.524,0.427,0.61,238.09
136975,153859,12732,-0.006,-0.949,-0.059,1.524,0.427,0.61,238.096
136977,153642,22412,-0.007,-0.95,-0.06,0.61,0.549,0.732,238.1
136977,153853,12742,-0.012,-0.966,-0.074,0.61,0.549,0.732,238.106
136981,153898,22412,-0.016,-0.978,-0.08,-0.427,0.793,0.732,238.11
136981,153856,12747,-0.015,-0.979,-0.072,-0.427,0.793,0.732,238.116
136973,153642,22412,-0.005,-0.965,-0.07,-0.427,0.244,0.244,238.12
136973,153821,12740,0.002,-0.954,-0.072,-0.427,0.244,0.244,238.126
136949,153642,22412,-0.003,-0.957,-0.073,-0.488,-0.061,0.183,238.13
136949,153828,12734,-0.007,-0.965,-0.082,-0.488,-0.061,0.183,238.136
136960,153642,22412,-0.009,-0.971,-0.086,0.122,0.549,0.549,238.14
136960,153848,12747,-0.01,-0.974,-0.081,0.122,0.549,0.549,238.146
136936,153642,22412,-0.01,-0.97,-0.068,1.28,0.671,0.671,238.15
136936,153830,12746,-0.012,-0.961,-0.058,1.28,0.671,0.671,238.156
136957,153642,22412,-0.008,-0.957,-0.059,1.341,0.549,0.671,238.16
136957,153848,12751,-0.007,-0.961,-0.055,1.341,0.549,0.671,238.166
136982,153898,22412,-0.012,-0.967,-0.05,-0.061,0.549,0.549,238.169
136982,153869,12729,-0.012,-0.968,-0.066,-0.061,0.549,0.549,238.176
136968,153642,22412,-0.013,-0.969,-0.073,-1.707,0.427,0.549,238.179
136968,153847,12742,-0.01,-0.972,-0.071,-1.707,0.427,0.549,238.186
136972,153898,22412,-0.011,-0.965,-0.076,-1.707,0.183,0.122,238.189
136972,153857,12750,-0.003,-0.958,-0.084,-1.707,0.183,0.122,238.195
136951,153642,22412,-0.001,-0.954,-0.076,-1.098,0,0,238.199
136951,153831,12735,-0.003,-0.95,-0.062,-1.098,0,0,238.205
136947,153642,22412,-0.006,-0.951,-0.05,-0.366,0.183,0.549,238.209
136947,153850,12756,-0.01,-0.95,-0.062,-0.366,0.183,0.549,238.215
136943,153642,22412,-0.013,-0.958,-0.079,-1.646,0.183,1.098,238.219
136943,153846,12733,-0.009,-0.967,-0.083,-1.646,0.183,1.098,238.225
136946,153642,22412,-0.005,-0.974,-0.079,-2.378,0.122,0.732,238.229
136946,153826,12752,-0.006,-0.974,-0.081,-2.378,0.122,0.732,238.235
136999,153898,22412,-0.008,-0.972,-0.084,-1.159,0.305,0.671,238.239
136999,153877,12748,-0.009,-0.973,-0.083,-1.159,0.305,0.671,238.245
136995,153898,22412,-0.012,-0.971,-0.072,0.061,0.427,0.732,238.249
136995,153887,12751,-0.015,-0.974,-0.067,0.061,0.427,0.732,238.255
136985,153898,22412,-0.013,-0.98,-0.069,0.732,0.427,0.549,238.259
136985,153883,12755,-0.015,-0.972,-0.073,0.732,0.427,0.549,238.265
136967,153898,22412,-0.013,-0.968,-0.074,0,0.488,0.305,238.268
136967,153870,12736,-0.012,-0.968,-0.07,0,0.488,0.305,238.275
136932,153642,22412,-0.012,-0.964,-0.066,-0.549,0.244,0.061,238.278
136932,153815,12735,-0.009,-0.957,-0.074,-0.549,0.244,0.061,238.285
136922,153642,22412,-0.01,-0.958,-0.077,-1.098,0,0.061,238.288
136922,153829,12752,-0.013,-0.959,-0.072,-1.098,0,0.061,238.294
136897,153642,22412,-0.01,-0.954,-0.068,-0.854,-0.061,-0.122,238.298
136897,153805,12741,-0.003,-0.948,-0.076,-0.854,-0.061,-0.122,238.304
136885,153642,22412,-0.003,-0.948,-0.076,-0.854,-0.061,-0.122,238.308
136885,153803,12752,-0.002,-0.958,-0.08,-0.915,-0.305,-0.183,238.314
136908,153642,22412,-0.002,-0.958,-0.08,-0.915,-0.305,-0.183,238.318
136908,153819,12730,-0.007,-0.967,-0.072,-0.427,-0.061,0.183,238.324
136918,153642,22412,-0.007,-0.967,-0.072,-0.427,-0.061,0.183,238.328
136918,153831,12740,-0.01,-0.96,-0.064,-0.061,0.244,0.732,238.334
136905,153642,22412,-0.01,-0.96,-0.064,-0.061,0.244,0.732,238.338
136905,153823,12748,-0.012,-0.971,-0.067,-0.671,0.244,0.915,238.344
136912,153642,22412,-0.012,-0.971,-0.067,-0.671,0.244,0.915,238.348
136912,153812,12746,-0.01,-0.969,-0.069,-1.159,0.427,0.671,238.354
136915,153642,22412,-0.01,-0.969,-0.069,-1.159,0.427,0.671,238.358
136915,153819,12735,-0.013,-0.966,-0.072,-1.768,0.305,0.61,238.364
136951,153642,22412,-0.013,-0.966,-0.072,-1.768,0.305,0.61,238.367
136951,153839,12749,-0.007,-0.958,-0.089,-1.707,0.122,0.427,238.374
136912,153642,22412,-0.007,-0.958,-0.089,-1.707,0.122,0.427,238.377
136912,153802,12752,-0.015,-0.98,-0.073,-0.854,0.366,0.427,238.384
136905,153898,22412,-0.015,-0.98,-0.073,-0.854,0.366,0.427,238.387
136905,153882,12755,-0.007,-0.963,-0.087,0.488,0.488,0.488,238.393
136914,153642,22412,-0.007,-0.963,-0.087,0.488,0.488,0.488,238.397
136914,153838,12731,-0.013,-0.968,-0.053,0.671,0.488,0.488,238.403
136917,153898,22412,-0.013,-0.968,-0.053,0.671,0.488,0.488,238.407
136917,153861,12749,-0.012,-0.951,-0.081,0.915,0.793,0.732,238.413
136968,153898,22412,-0.012,-0.951,-0.081,0.915,0.793,0.732,238.417
136968,153882,12745,-0.01,-0.972,-0.082,-0.976,0.732,0.427,238.423
137002,153898,22412,-0.01,-0.972,-0.082,-0.976,0.732,0.427,238.427
137002,153889,12767,-0.007,-0.967,-0.068,-0.305,0.61,0.183,238.433
136977,153898,22412,-0.007,-0.967,-0.068,-0.305,0.61,0.183,238.437
136977,153904,12750,-0.007,-0.945,-0.07,-0.183,0.305,0.366,238.443
136963,153898,22412,-0.007,-0.945,-0.07,-0.183,0.305,0.366,238.447
136963,153910,12751,-0.007,-0.957,-0.081,-1.22,0.061,0.549,238.453
136979,153898,22412,-0.005,-0.969,-0.085,-1.22,0.061,0.549,238.457
136979,153906,12759,-0.009,-0.977,-0.077,-0.61,0.305,0.549,238.463
136993,153898,22412,-0.007,-0.971,-0.072,-0.61,0.305,0.549,238.466
136993,153899,12755,-0.009,-0.961,-0.071,-0.061,0.122,0.671,238.473
136972,153898,22412,-0.008,-0.956,-0.056,-0.061,0.122,0.671,238.476
136972,153883,12762,-0.013,-0.961,-0.057,-0.488,0.244,0.793,238.483
136942,153642,22412,-0.014,-0.968,-0.071,-0.488,0.244,0.793,238.486
136942,153852,12741,-0.011,-0.974,-0.076,-1.524,0.183,0.732,238.492
136930,153898,22412,-0.006,-0.968,-0.076,-1.524,0.183,0.732,238.496
136930,153865,12762,-0.005,-0.958,-0.074,-1.829,-0.061,0.488,238.502
136933,153642,22412,-0.008,-0.963,-0.073,-1.829,-0.061,0.488,238.506
136933,153848,12745,-0.012,-0.971,-0.073,-1.22,0.366,0.61,238.512
136943,153898,22412,-0.016,-0.967,-0.08,-1.22,0.366,0.61,238.516
136943,153887,12751,-0.012,-0.968,-0.083,-1.098,0.549,0.549,238.522
136952,153898,22412,-0.013,-0.967,-0.073,-1.098,0.549,0.549,238.526
136952,153888,12754,-0.01,-0.967,-0.075,-0.976,0.427,0.122,238.532
136977,153898,22412,-0.01,-0.961,-0.081,-0.976,0.427,0.122,238.536
136977,153919,12770,-0.006,-0.96,-0.085,-1.159,0.427,0.061,238.542
136979,153898,22412,-0.009,-0.967,-0.077,-1.159,0.427,0.061,238.546
136979,153908,12762,-0.01,-0.964,-0.071,-0.244,0.305,0.244,238.552
136978,153898,22412,-0.011,-0.958,-0.065,-0.244,0.305,0.244,238.556
136978,153899,12749,-0.012,-0.951,-0.064,-0.732,0.122,0.305,238.562
136949,153898,22412,-0.012,-0.956,-0.07,-0.732,0.122,0.305,238.565
136949,153887,12755,-0.007,-0.963,-0.081,-1.768,0.061,0.305,238.572
136907,153642,22412,-0.004,-0.965,-0.082,-1.768,0.061,0.305,238.575
136907,153850,12747,-0.002,-0.962,-0.078,-1.89,0.183,0.244,238.582
136909,153642,22412,-0.005,-0.965,-0.078,-1.89,0.183,0.244,238.585
136909,153822,12743,-0.011,-0.971,-0.086,-1.28,0.427,0.427,238.591
136907,153898,22412,-0.01,-0.979,-0.093,-1.28,0.427,0.427,238.595
136907,153858,12756,-0.01,-0.984,-0.091,-0.366,0.61,0.305,238.601
136888,153642,22412,-0.009,-0.977,-0.088,-0.366,0.61,0.305,238.605
136888,153847,12746,-0.007,-0.969,-0.087,1.037,0.305,0.305,238.611
136895,153642,22412,-0.004,-0.97,-0.086,1.037,0.305,0.305,238.615
136895,153826,12740,-0.005,-0.966,-0.081,2.5,0.854,0.366,238.621
136885,153642,22412,-0.006,-0.958,-0.072,2.5,0.854,0.366,238.625
136885,153835,12750,-0.006,-0.954,-0.062,3.171,0.976,0.61,238.631
136854,153642,22412,-0.005,-0.948,-0.06,3.171,0.976,0.61,238.635
136854,153841,12740,-0.01,-0.947,-0.067,2.195,1.098,0.976,238.641
136850,153642,22412,-0.008,-0.956,-0.059,2.195,1.098,0.976,238.645
136850,153800,12732,-0.008,-0.962,-0.046,0.793,1.037,1.098,238.651
136865,153642,22412,-0.013,-0.958,-0.051,0.793,1.037,1.098,238.655
136865,153828,12734,-0.017,-0.957,-0.073,-1.585,0.549,1.28,238.661
136875,153642,22412,-0.016,-0.969,-0.075,-1.585,0.549,1.28,238.664
136875,153842,12751,-0.014,-0.974,-0.073,-2.866,0.549,0.793,238.671
136896,153642,22412,-0.013,-0.97,-0.081,-2.866,0.549,0.793,238.674
136896,153826,12738,-0.011,-0.975,-0.089,-2.561,0.061,0.305,238.681
136839,153642,22412,-0.008,-0.973,-0.094,-2.561,0.061,0.305,238.684
136839,153786,12726,-0.006,-0.969,-0.093,-1.402,-0.061,-0.061,238.69
136835,153642,22412,-0.006,-0.974,-0.085,-1.402,-0.061,-0.061,238.694
136835,153807,12738,-0.009,-0.969,-0.084,0.793,0.183,-0.061,238.7
136897,153642,22412,-0.01,-0.96,-0.084,0.793,0.183,-0.061,238.704
136897,153797,12742,-0.012,-0.962,-0.082,1.951,0.671,0.183,238.71
136859,153642,22412,-0.012,-0.969,-0.079,1.951,0.671,0.183,238.714
136859,153798,12730,-0.009,-0.971,-0.079,2.622,0.976,0.183,238.72
136840,153642,22412,-0.009,-0.964,-0.068,2.622,0.976,0.183,238.724
136840,153789,12735,-0.008,-0.958,-0.066,2.5,0.854,0.183,238.73
136872,153642,22412,-0.01,-0.958,-0.073,2.5,0.854,0.183,238.734
136872,153816,12734,-0.008,-0.964,-0.064,1.951,0.732,0.366,238.74
136868,153642,22412,-0.01,-0.96,-0.057,1.951,0.732,0.366,238.744
136868,153821,12748,-0.007,-0.953,-0.057,1.22,0.549,0.427,238.75
136866,153642,22412,-0.011,-0.957,-0.058,1.22,0.549,0.427,238.754
136866,153790,12730,-0.013,-0.964,-0.063,-0.366,0.427,0.427,238.76
136854,153642,22412,-0.01,-0.964,-0.074,-0.366,0.427,0.427,238.763
136854,153814,12743,-0.007,-0.959,-0.082,-1.463,0.305,0.183,238.77
136867,153642,22412,-0.009,-0.966,-0.084,-1.463,0.305,0.183,238.773
136867,153819,12734,-0.009,-0.973,-0.076,-1.037,0.427,-0.061,238.78
136856,153642,22412,-0.013,-0.968,-0.075,-1.037,0.427,-0.061,238.783
136856,153780,12732,-0.012,-0.963,-0.079,-0.488,0.488,-0.061,238.789
136851,153642,22412,-0.014,-0.969,-0.08,-0.488,0.488,-0.061,238.793
136851,153823,12737,-0.015,-0.974,-0.077,-0.549,0.305,-0.183,238.799
136838,153642,22412,-0.01,-0.971,-0.073,-0.549,0.305,-0.183,238.803
136838,153793,12715,-0.005,-0.957,-0.071,-0.244,0.061,-0.122,238.809
136831,153642,22412,-0.001,-0.945,-0.071,-0.244,0.061,-0.122,238.813
136831,153784,12730,-0.005,-0.946,-0.073,-0.061,0.122,0.305,238.819
136823,153642,22412,-0.006,-0.952,-0.064,-0.061,0.122,0.305,238.823
136823,153804,12735,-0.001,-0.955,-0.051,0.305,0.305,0.915,238.829
136809,153642,22412,-0.002,-0.95,-0.051,0.305,0.305,0.915,238.833
136809,153754,12707,-0.009,-0.955,-0.076,-1.585,0.671,1.402,238.839
136803,153642,22412,-0.02,-0.984,-0.098,-1.585,0.671,1.402,238.843
136803,153761,12718,-0.021,-1.003,-0.1,-2.012,1.159,1.037,238.849
136783,153642,22412,-0.011,-1.005,-0.094,-2.012,1.159,1.037,238.853
136783,153787,12732,-0.006,-0.988,-0.082,0.854,0.488,0.183,238.859
136801,153642,22412,-0.006,-0.966,-0.075,0.854,0.488,0.183,238.862
136801,153756,12710,-0.009,-0.958,-0.076,1.89,0.549,-0.061,238.869
136811,153642,22412,-0.009,-0.958,-0.071,1.89,0.549,-0.061,238.872
136811,153812,12729,-0.009,-0.965,-0.066,2.012,0.793,0.244,238.879
136846,153642,22412,-0.007,-0.963,-0.062,2.012,0.793,0.244,238.882
136846,153800,12732,-0.009,-0.948,-0.065,1.463,0.793,0.366,238.888
136849,153642,22412,-0.009,-0.94,-0.068,1.463,0.793,0.366,238.892
136849,153814,12721,-0.011,-0.941,-0.065,0.061,0.488,0.793,238.898
136847,153642,22412,-0.011,-0.941,-0.065,0.061,0.488,0.793,238.902
136847,153837,12733,-0.012,-0.953,-0.074,-0.305,0.427,0.915,238.908
136878,153642,22412,-0.012,-0.953,-0.074,-0.305,0.427,0.915,238.912
136878,153826,12728,-0.009,-0.973,-0.084,-0.732,0.488,0.61,238.918
136890,153642,22412,-0.009,-0.973,-0.084,-0.732,0.488,0.61,238.922
136890,153833,12728,-0.011,-0.979,-0.075,0.183,0.427,0.488,238.928
136877,153642,22412,-0.011,-0.979,-0.075,0.183,0.427,0.488,238.932
136877,153844,12720,-0.01,-0.967,-0.063,0.488,0.244,0.549,238.938
136859,153642,22412,-0.01,-0.967,-0.063,0.488,0.244,0.549,238.942
136859,153807,12741,-0.009,-0.959,-0.067,-0.488,0.305,0.671,238.948
136828,153642,22412,-0.009,-0.959,-0.067,-0.488,0.305,0.671,238.952
136828,153798,12720,-0.013,-0.971,-0.062,-1.707,0.366,0.549,238.958
136821,153642,22412,-0.013,-0.971,-0.062,-1.707,0.366,0.549,238.961
136821,153801,12715,-0.013,-0.971,-0.082,-2.317,0.183,0.427,238.968
136816,153642,22412,-0.013,-0.971,-0.082,-2.317,0.183,0.427,238.971
136816,153782,12712,-0.012,-0.967,-0.084,-2.134,0.183,0,238.978
136829,153642,22412,-0.012,-0.967,-0.084,-2.134,0.183,0,238.981
136829,153801,12714,-0.003,-0.958,-0.082,-1.037,0.122,-0.244,238.987
136868,153642,22412,-0.003,-0.958,-0.082,-1.037,0.122,-0.244,238.991
136868,153831,12724,-0.003,-0.953,-0.08,-0.061,0.366,-0.122,238.997
136867,153642,22412,-0.003,-0.953,-0.08,-0.061,0.366,-0.122,239.001
136867,153849,12720,-0.007,-0.964,-0.068,0.427,0.671,0.305,239.007
136881,153642,22412,-0.007,-0.964,-0.068,0.427,0.671,0.305,239.011
136881,153828,12721,-0.013,-0.96,-0.07,0.305,0.854,0.915,239.017
136849,153642,22412,-0.013,-0.96,-0.07,0.305,0.854,0.915,239.021
136849,153820,12738,-0.012,-0.962,-0.059,-1.22,0.488,1.037,239.027
136838,153642,22412,-0.012,-0.962,-0.059,-1.22,0.488,1.037,239.031
136838,153824,12737,-0.012,-0.965,-0.07,-2.5,0.244,0.671,239.037
136844,153642,22412,-0.012,-0.965,-0.07,-2.5,0.244,0.671,239.041
136844,153821,12730,-0.014,-0.967,-0.081,-2.5,0.244,0.671,239.047
136855,153642,22412,-0.011,-0.973,-0.088,-2.927,0.061,0.366,239.051
136855,153838,12714,-0.009,-0.982,-0.088,-2.927,0.061,0.366,239.057
136860,153898,22412,-0.012,-0.98,-0.084,-1.28,0,0.122,239.06
136860,153858,12731,-0.013,-0.969,-0.089,-1.28,0,0.122,239.067
136902,153898,22412,-0.007,-0.961,-0.09,-0.549,0,-0.122,239.07
136902,153862,12725,-0.006,-0.961,-0.09,-0.549,0,-0.122,239.077
136906,153898,22412,-0.004,-0.969,-0.085,0.61,0.061,-0.061,239.08
136906,153888,12736,-0.01,-0.978,-0.082,0.61,0.061,-0.061,239.086
136914,153898,22412,-0.012,-0.974,-0.08,2.378,0.427,0.183,239.09
136914,153878,12738,-0.01,-0.963,-0.079,2.378,0.427,0.183,239.096
136899,153898,22412,-0.008,-0.957,-0.073,2.439,0.549,0.183,239.1
136899,153865,12736,-0.002,-0.958,-0.06,2.439,0.549,0.183,239.106
136864,153642,22412,-0.005,-0.958,-0.052,2.439,0.549,0.244,239.11
136864,153847,12730,-0.008,-0.95,-0.055,2.439,0.549,0.244,239.116
136861,153898,22412,-0.006,-0.946,-0.057,0.732,0.61,0.61,239.12
136861,153857,12724,-0.011,-0.956,-0.058,0.732,0.61,0.61,239.126
136922,153898,22412,-0.012,-0.964,-0.058,-0.854,0.366,0.793,239.13
136922,153882,12738,-0.007,-0.957,-0.06,-0.854,0.366,0.793,239.136
136880,153898,22412,-0.011,-0.961,-0.074,-2.439,0.305,0.549,239.14
136880,153863,12733,-0.018,-0.969,-0.085,-2.439,0.305,0.549,239.146
136877,153898,22412,-0.017,-0.978,-0.09,-2.866,0.305,0.366,239.15
136877,153871,12731,-0.01,-0.983,-0.095,-2.866,0.305,0.366,239.156
136888,153898,22412,-0.011,-0.981,-0.096,-1.159,0.122,-0.183,239.16
136888,153868,12739,-0.012,-0.972,-0.086,-1.159,0.122,-0.183,239.166
136884,153642,22412,-0.01,-0.967,-0.083,0.854,0.244,-0.305,239.169
136884,153852,12728,-0.011,-0.966,-0.083,0.854,0.244,-0.305,239.176
136893,153898,22412,-0.009,-0.971,-0.078,1.951,0.427,-0.061,239.179
136893,153879,12721,-0.009,-0.966,-0.075,1.951,0.427,-0.061,239.185
136943,153898,22412,-0.008,-0.957,-0.072,2.256,0.61,0.122,239.189
136943,153895,12736,-0.004,-0.952,-0.064,2.256,0.61,0.122,239.195
136969,153898,22412,-0.007,-0.952,-0.065,1.646,0.488,0.549,239.199
136969,153929,12757,-0.009,-0.955,-0.064,1.646,0.488,0.549,239.205
136975,153898,22412,-0.011,-0.96,-0.059,0.549,0.61,0.671,239.209
136975,153947,12754,-0.01,-0.962,-0.067,0.549,0.61,0.671,239.215
136938,153898,22412,-0.011,-0.961,-0.075,-0.244,0.366,0.549,239.219
136938,153891,12730,-0.005,-0.963,-0.078,-0.244,0.366,0.549,239.225
136921,153898,22412,-0.005,-0.966,-0.076,-0.488,0.122,0.183,239.229
136921,153887,12747,-0.008,-0.966,-0.068,-0.488,0.122,0.183,239.235
136899,153898,22412,-0.01,-0.969,-0.083,0.183,0.366,0.244,239.239
136899,153883,12739,-0.013,-0.976,-0.092,0.183,0.366,0.244,239.245
136899,153642,22412,-0.015,-0.98,-0.082,0.976,0.61,0.244,239.249
136899,153853,12724,-0.007,-0.971,-0.071,0.976,0.61,0.244,239.255
136863,153642,22412,-0.002,-0.957,-0.068,1.768,0.366,0,239.259
136863,153838,12730,-0.004,-0.957,-0.068,1.768,0.366,0,239.265
136862,153898,22412,-0.012,-0.967,-0.06,1.524,0.793,0.366,239.268
136862,153858,12734,-0.016,-0.974,-0.053,1.524,0.793,0.366,239.275
136890,153898,22412,-0.016,-0.963,-0.054,0.854,0.976,0.732,239.278
136890,153878,12724,-0.012,-0.95,-0.065,0.854,0.976,0.732,239.284
136883,153898,22412,-0.01,-0.963,-0.071,-1.402,0.549,0.549,239.288
136883,153861,12733,-0.011,-0.967,-0.061,-1.402,0.549,0.549,239.294
136857,153898,22412,-0.009,-0.956,-0.06,-2.012,0.122,0.305,239.298
136857,153872,12721,-0.004,-0.942,-0.072,-2.012,0.122,0.305,239.304
136816,153642,22412,-0.002,-0.946,-0.084,-2.866,-0.183,0.427,239.308
136816,153831,12710,-0.008,-0.963,-0.086,-2.866,-0.183,0.427,239.314
136781,153642,22412,-0.011,-0.976,-0.083,-2.012,0.244,0.549,239.318
136781,153809,12723,-0.012,-0.981,-0.087,-2.012,0.244,0.549,239.324
136811,153642,22412,-0.013,-0.977,-0.092,-0.976,0.488,0.305,239.328
136811,153802,12722,-0.013,-0.971,-0.093,-0.976,0.488,0.305,239.334
136773,153642,22412,-0.012,-0.972,-0.082,0.183,0.305,-0.122,239.338
136773,153788,12718,-0.01,-0.971,-0.075,0.183,0.305,-0.122,239.344
136786,153642,22412,-0.004,-0.965,-0.082,1.707,0.427,-0.305,239.348
136786,153804,12727,-0.007,-0.963,-0.087,1.707,0.427,-0.305,239.354
136806,153642,22412,-0.004,-0.969,-0.08,2.012,0.732,-0.183,239.357
136806,153817,12720,-0.004,-0.965,-0.063,2.012,0.732,-0.183,239.364
136866,153898,22412,-0.002,-0.951,-0.056,2.866,0.854,0.244,239.367
136866,153872,12704,-0.005,-0.952,-0.059,2.866,0.854,0.244,239.374
136901,153898,22412,-0.012,-0.958,-0.057,1.768,0.793,0.976,239.377
136901,153881,12727,-0.014,-0.965,-0.06,1.768,0.793,0.976,239.384
136855,153898,22412,-0.009,-0.968,-0.062,0.427,0.732,0.915,239.387
136855,153864,12734,-0.009,-0.958,-0.06,0.427,0.732,0.915,239.393
136856,153642,22412,-0.007,-0.96,-0.066,-0.854,0.305,0.549,239.397
136856,153837,12721,-0.011,-0.963,-0.075,-0.854,0.305,0.549,239.403
136849,153642,22412,-0.011,-0.973,-0.08,-1.28,0.671,0.549,239.407
136849,153824,12728,-0.009,-0.977,-0.075,-1.28,0.671,0.549,239.413
136798,153642,22412,-0.006,-0.969,-0.08,-0.549,0.549,0.488,239.417
136798,153807,12726,-0.006,-0.964,-0.078,-0.549,0.549,0.488,239.423
136803,153642,22412,-0.013,-0.969,-0.082,0.061,0.854,0.427,239.427
136803,153840,12723,-0.013,-0.973,-0.086,0.061,0.854,0.427,239.433
136839,153642,22412,-0.012,-0.973,-0.085,0.793,1.28,0.244,239.437
136839,153853,12707,-0.008,-0.968,-0.079,0.793,1.28,0.244,239.443
136817,153642,22412,-0.008,-0.963,-0.075,1.951,0.915,0.122,239.447
136817,153828,12730,-0.012,-0.96,-0.068,1.951,0.915,0.122,239.453
136849,153898,22412,-0.012,-0.957,-0.062,2.439,0.976,0.366,239.457
136849,153863,12717,-0.016,-0.954,-0.059,2.439,0.976,0.366,239.463
136845,153642,22412,-0.014,-0.954,-0.059,1.707,0.732,0.488,239.466
136845,153851,12725,-0.012,-0.959,-0.066,1.707,0.732,0.488,239.473
136863,153898,22412,-0.008,-0.963,-0.068,0.305,0.305,0.366,239.476
136863,153889,12745,-0.009,-0.958,-0.068,0.305,0.305,0.366,239.482
136895,153898,22412,-0.005,-0.959,-0.067,-0.61,-0.061,0.183,239.486
136895,153889,12733,-0.009,-0.962,-0.062,-0.61,-0.061,0.183,239.492
136885,153898,22412,-0.009,-0.962,-0.062,-0.61,-0.061,0.183,239.496
136885,153905,12716,-0.01,-0.96,-0.071,-0.854,0,0.305,239.502
136900,153898,22412,-0.01,-0.96,-0.071,-0.854,0,0.305,239.506
136900,153888,12712,-0.004,-0.972,-0.078,-1.463,0,0.305,239.512
136909,153898,22412,-0.004,-0.972,-0.078,-1.463,0,0.305,239.516
136909,153922,12740,-0.007,-0.971,-0.071,-0.793,0.183,0.061,239.522
136957,153898,22412,-0.007,-0.971,-0.071,-0.793,0.183,0.061,239.526
136957,153953,12728,-0.009,-0.965,-0.063,-0.61,0.366,0.244,239.532
136949,153898,22412,-0.009,-0.965,-0.063,-0.61,0.366,0.244,239.536
136949,153933,12736,-0.013,-0.969,-0.083,-1.159,0.305,0.427,239.542
136974,153898,22412,-0.013,-0.969,-0.083,-1.159,0.305,0.427,239.546
136974,153977,12741,-0.004,-0.963,-0.083,-1.159,0.183,0.183,239.552
136926,153898,22412,-0.004,-0.963,-0.083,-1.159,0.183,0.183,239.556
136926,153929,12728,-0.006,-0.959,-0.079,0.183,0,0.122,239.562
136917,153898,22412,-0.006,-0.959,-0.079,0.183,0,0.122,239.565
136917,153914,12723,-0.008,-0.958,-0.067,1.037,0.366,0.366,239.572
136856,153642,22412,-0.008,-0.958,-0.067,1.037,0.366,0.366,239.575
136856,153853,12724,-0.006,-0.955,-0.059,1.037,0.488,0.61,239.582
136847,153898,22412,-0.006,-0.955,-0.059,1.037,0.488,0.61,239.585
136847,153871,12721,-0.014,-0.964,-0.065,-0.122,0.488,0.854,239.591
136846,153898,22412,-0.014,-0.964,-0.065,-0.122,0.488,0.854,239.595
136846,153892,12731,-0.014,-0.969,-0.071,-1.402,0.549,0.976,239.601
136877,153898,22412,-0.014,-0.969,-0.071,-1.402,0.549,0.976,239.605
136877,153901,12725,-0.014,-0.97,-0.057,-1.89,0.244,0.671,239.611
136865,153898,22412,-0.014,-0.97,-0.057,-1.89,0.244,0.671,239.615
136865,153897,12711,-0.008,-0.953,-0.082,-2.622,-0.366,0.366,239.621
136902,153898,22412,-0.008,-0.953,-0.082,-2.622,-0.366,0.366,239.625
136902,153933,12722,-0.007,-0.976,-0.089,-3.293,-0.549,0.183,239.631
136941,153898,22412,-0.007,-0.976,-0.089,-3.293,-0.549,0.183,239.635
136941,153966,12740,-0.005,-0.977,-0.088,-1.22,0,0.183,239.641
136960,153898,22412,-0.004,-0.967,-0.092,-1.22,0,0.183,239.645
136960,153942,12726,-0.007,-0.965,-0.087,0.61,0.488,0.366,239.651
136966,153898,22412,-0.014,-0.971,-0.08,0.61,0.488,0.366,239.655
136966,153947,12741,-0.017,-0.968,-0.075,2.134,0.854,0.61,239.661
136989,153898,22412,-0.014,-0.964,-0.07,2.134,0.854,0.61,239.664
136989,153927,12713,-0.01,-0.963,-0.064,1.829,0.549,0.366,239.671
136931,153898,22412,-0.008,-0.96,-0.059,1.829,0.549,0.366,239.674
136931,153905,12740,-0.008,-0.955,-0.065,0.854,0.549,0.061,239.681
136909,153898,22412,-0.01,-0.963,-0.072,0.854,0.549,0.061,239.684
136909,153919,12720,-0.013,-0.97,-0.056,0.305,0.61,0.244,239.69
136904,153898,22412,-0.009,-0.959,-0.046,0.305,0.61,0.244,239.694
136904,153886,12712,-0.008,-0.939,-0.06,-1.098,0.183,0.488,239.7
136891,153898,22412,-0.007,-0.945,-0.07,-1.098,0.183,0.488,239.704
136891,153916,12712,-0.009,-0.965,-0.074,-2.866,-0.061,0.366,239.71
136920,153898,22412,-0.005,-0.975,-0.078,-2.866,-0.061,0.366,239.714
136920,153914,12722,-0.003,-0.972,-0.081,-2.012,0.122,0.305,239.72
136935,153898,22412,-0.006,-0.965,-0.082,-2.012,0.122,0.305,239.724
136935,153928,12728,-0.008,-0.963,-0.088,-1.89,0.305,0.488,239.73
136953,153898,22412,-0.007,-0.971,-0.092,-1.89,0.305,0.488,239.734
136953,153914,12716,-0.006,-0.985,-0.085,-0.305,0.427,0.427,239.74
136921,153898,22412,-0.01,-0.983,-0.074,-0.305,0.427,0.427,239.744
136921,153900,12733,-0.012,-0.971,-0.073,1.402,0.549,0.427,239.75
136917,153898,22412,-0.014,-0.968,-0.076,1.402,0.549,0.427,239.754
136917,153908,12724,-0.02,-0.975,-0.072,1.159,0.488,0.427,239.76
136935,153898,22412,-0.014,-0.97,-0.073,1.159,0.488,0.427,239.763
136935,153935,12713,-0.008,-0.966,-0.073,1.159,0.244,-0.183,239.77
136913,153898,22412,-0.003,-0.964,-0.073,1.159,0.244,-0.183,239.773
136913,153936,12713,-0.004,-0.956,-0.07,1.341,0.061,-0.305,239.78
136927,153898,22412,-0.007,-0.948,-0.064,1.341,0.061,-0.305,239.783
136927,153922,12723,-0.007,-0.944,-0.058,1.098,-0.061,0.183,239.789
136935,153898,22412,-0.007,-0.937,-0.059,1.098,-0.061,0.183,239.793
136935,153928,12718,-0.007,-0.936,-0.067,-0.366,0.061,0.488,239.799
136922,153898,22412,-0.004,-0.943,-0.069,-0.366,0.061,0.488,239.803
136922,153916,12720,-0.012,-0.968,-0.066,-1.22,0.488,0.549,239.809
136891,153898,22412,-0.012,-0.973,-0.07,-1.22,0.488,0.549,239.813
136891,153957,12721,-0.012,-0.973,-0.084,-1.829,0.488,0.732,239.819
136916,153898,22412,-0.014,-0.981,-0.086,-1.829,0.488,0.732,239.823
136916,153944,12718,-0.013,-0.99,-0.077,-1.89,0.427,0.366,239.829
136908,153898,22412,-0.017,-0.991,-0.075,-1.89,0.427,0.366,239.833
136908,153954,12728,-0.013,-0.987,-0.089,-1.098,0.366,-0.061,239.839
136932,153898,22412,-0.008,-0.98,-0.087,-1.098,0.366,-0.061,239.843
136932,153937,12718,-0.008,-0.974,-0.08,-0.244,0.244,-0.122,239.849
136910,153898,22412,-0.008,-0.962,-0.068,-0.244,0.244,-0.122,239.853
136910,153929,12711,-0.007,-0.951,-0.066,1.28,0.122,0.061,239.859
136880,153898,22412,-0.008,-0.94,-0.067,1.28,0.122,0.061,239.862
136880,153929,12713,-0.007,-0.933,-0.067,0.488,0.122,0.305,239.869
136885,153898,22412,-0.006,-0.936,-0.058,0.488,0.122,0.305,239.872
136885,153928,12712,-0.007,-0.941,-0.067,-0.732,-0.061,0.549,239.879
136919,153898,22412,-0.007,-0.949,-0.084,-0.732,-0.061,0.549,239.882
136919,153918,12705,-0.009,-0.962,-0.092,-1.829,0.244,0.488,239.888
136849,153898,22412,-0.008,-0.976,-0.086,-1.829,0.244,0.488,239.892
136849,153872,12705,-0.008,-0.984,-0.087,-0.549,0.488,0.244,239.898
136835,153898,22412,-0.009,-0.984,-0.078,-0.549,0.488,0.244,239.902
136835,153894,12703,-0.013,-0.979,-0.076,0.671,0.488,0.366,239.908
136863,153898,22412,-0.012,-0.974,-0.066,0.671,0.488,0.366,239.912
136863,153919,12702,-0.012,-0.971,-0.063,0.61,0.488,0.305,239.918
136851,153898,22412,-0.012,-0.973,-0.067,0.61,0.488,0.305,239.922
136851,153897,12721,-0.009,-0.97,-0.07,0.183,0.366,0,239.928
136872,153898,22412,-0.009,-0.964,-0.068,0.183,0.366,0,239.932
136872,153895,12707,-0.009,-0.959,-0.069,-0.244,0.427,0.183,239.938
136892,153898,22412,-0.01,-0.957,-0.07,-0.244,0.427,0.183,239.942
136892,153905,12722,-0.008,-0.952,-0.065,-0.427,0.183,0.305,239.948
136885,153898,22412,-0.005,-0.94,-0.069,-0.427,0.183,0.305,239.952
136885,153941,12712,-0.008,-0.936,-0.073,-0.793,0.244,0.244,239.958
136906,153898,22412,-0.005,-0.949,-0.075,-0.793,0.244,0.244,239.961
136906,153955,12723,-0.007,-0.961,-0.082,-0.915,0.305,0.488,239.968
136874,153898,22412,-0.012,-0.969,-0.086,-0.915,0.305,0.488,239.971
136874,153904,12710,-0.013,-0.975,-0.082,-0.244,0.549,0.61,239.978
136850,153898,22412,-0.013,-0.982,-0.074,-0.244,0.549,0.61,239.981
136850,153880,12719,-0.012,-0.981,-0.074,0.183,0.366,0.427,239.987
136856,153898,22412,-0.011,-0.974,-0.08,0.183,0.366,0.427,239.991
136856,153895,12720,-0.008,-0.97,-0.081,-0.061,0.244,0.061,239.997
136823,153898,22412,-0.007,-0.981,-0.081,-0.061,0.244,0.061,240.001
136823,153915,12714,-0.008,-0.982,-0.074,0.915,0.366,0,240.007
136877,153898,22412,-0.008,-0.973,-0.071,0.915,0.366,0,240.011
136877,153906,12715,-0.008,-0.957,-0.072,1.463,0.366,0.122,240.017
136854,153898,22412,-0.006,-0.95,-0.061,1.463,0.366,0.122,240.021
136854,153942,12720,-0.007,-0.948,-0.051,0.976,0.183,0.427,240.027
136902,153898,22412,-0.007,-0.943,-0.067,0.976,0.183,0.427,240.031
136902,153941,12709,-0.007,-0.947,-0.078,-0.122,0.305,0.732,240.037
136909,153898,22412,-0.01,-0.962,-0.071,-0.122,0.305,0.732,240.041
136909,153932,12708,-0.01,-0.972,-0.064,-0.244,0.183,0.854,240.047
136924,153898,22412,-0.009,-0.965,-0.068,-0.244,0.183,0.854,240.051
136924,153950,12718,-0.008,-0.952,-0.074,-0.976,0.122,0.793,240.057
136908,153898,22412,-0.007,-0.956,-0.082,-0.976,0.122,0.793,240.061
136908,153973,12725,-0.012,-0.972,-0.079,-1.22,0.244,0.488,240.067
136875,153898,22412,-0.013,-0.986,-0.073,-1.22,0.244,0.488,240.07
136875,153928,12715,-0.015,-0.981,-0.076,-0.122,0.549,0.427,240.077
136910,153898,22412,-0.014,-0.969,-0.074,-0.122,0.549,0.427,240.08
136910,153940,12722,-0.009,-0.962,-0.072,-0.061,0.427,0.183,240.086
136891,153898,22412,-0.009,-0.962,-0.072,-0.061,0.427,0.183,240.09
136891,153941,12717,-0.009,-0.963,-0.078,0,0.305,0.183,240.096
136924,153898,22412,-0.009,-0.963,-0.078,0,0.305,0.183,240.1
136924,153990,12735,-0.01,-0.959,-0.074,0.305,0.427,0.305,240.106
136952,153898,22412,-0.01,-0.959,-0.074,0.305,0.427,0.305,240.11
136952,153971,12721,-0.008,-0.947,-0.056,0.122,0.305,0.671,240.116
136964,153898,22412,-0.008,-0.947,-0.056,0.122,0.305,0.671,240.12
136964,153998,12723,-0.01,-0.946,-0.065,-1.341,0.244,0.793,240.126
136998,153898,22412,-0.01,-0.946,-0.065,-1.341,0.244,0.793,240.13
136998,153976,12727,-0.013,-0.97,-0.063,-2.378,-0.061,0.732,240.136
136941,153898,22412,-0.013,-0.97,-0.063,-2.378,-0.061,0.732,240.14
136941,153987,12730,-0.006,-0.974,-0.095,-3.598,-0.061,0.549,240.146
136911,153898,22412,-0.006,-0.974,-0.095,-3.598,-0.061,0.549,240.15
136911,153959,12727,-0.01,-0.99,-0.089,-2.195,0.122,0.122,240.156
136916,153898,22412,-0.01,-0.99,-0.089,-2.195,0.122,0.122,240.16
136916,153947,12722,-0.012,-0.981,-0.078,-0.61,0.366,-0.122,240.166
136935,153898,22412,-0.012,-0.981,-0.078,-0.61,0.366,-0.122,240.169
136935,153987,12730,-0.006,-0.961,-0.076,0.061,0.305,-0.183,240.176
136965,153898,22412,-0.006,-0.961,-0.076,0.061,0.305,-0.183,240.179
136965,153982,12714,-0.01,-0.969,-0.081,0.183,0.549,-0.061,240.185
136929,153898,22412,-0.01,-0.969,-0.081,0.183,0.549,-0.061,240.189
136929,153950,12711,-0.007,-0.95,-0.068,1.037,0.854,0.305,240.195
136944,153898,22412,-0.007,-0.95,-0.068,1.037,0.854,0.305,240.199
136944,153977,12721,-0.006,-0.934,-0.072,0.427,0.61,0.61,240.205
136942,153898,22412,-0.006,-0.934,-0.072,0.427,0.61,0.61,240.209
136942,153968,12729,-0.006,-0.954,-0.068,0.549,0.61,0.793,240.215
136953,153898,22412,-0.006,-0.954,-0.068,0.549,0.61,0.793,240.219
136953,153965,12718,-0.007,-0.958,-0.068,-0.244,0.732,1.037,240.225
136915,153898,22412,-0.007,-0.958,-0.068,-0.244,0.732,1.037,240.229
136915,153939,12727,-0.011,-0.97,-0.058,-0.244,0.732,1.037,240.235
136924,153898,22412,-0.015,-0.975,-0.073,-1.037,0.61,1.28,240.239
136924,153945,12711,-0.02,-0.983,-0.087,-1.037,0.61,1.28,240.245
136955,153898,22412,-0.018,-0.997,-0.079,-1.707,0.488,0.793,240.249
136955,153974,12722,-0.013,-0.991,-0.08,-1.707,0.488,0.793,240.255
136988,153898,22412,-0.006,-0.981,-0.091,-1.28,0.183,0.122,240.259
136988,153982,12722,-0.008,-0.976,-0.096,-1.28,0.183,0.122,240.265
136988,153898,22412,-0.009,-0.979,-0.088,0.122,0.488,-0.183,240.268
136988,153988,12716,-0.014,-0.98,-0.079,0.122,0.488,-0.183,240.275
136995,153898,22412,-0.013,-0.972,-0.08,2.561,0.854,-0.244,240.278
136995,154002,12728,-0.005,-0.954,-0.081,2.561,0.854,-0.244,240.284
137005,153898,22412,-0.003,-0.942,-0.077,2.683,0.915,-0.305,240.288
137005,154002,12726,-0.006,-0.943,-0.072,2.683,0.915,-0.305,240.294
137006,153898,22412,-0.008,-0.95,-0.068,3.11,1.098,-0.061,240.298
137006,154036,12728,-0.009,-0.95,-0.068,3.11,1.098,-0.061,240.304
136994,153898,22412,-0.009,-0.952,-0.069,2.866,1.037,0.427,240.308
136994,154007,12732,-0.008,-0.947,-0.06,2.866,1.037,0.427,240.314
137015,153898,22412,-0.005,-0.939,-0.062,1.707,0.854,0.549,240.318
137015,154060,12725,-0.006,-0.947,-0.054,1.707,0.854,0.549,240.324
137059,153898,22412,-0.008,-0.956,-0.044,0.488,0.61,0.793,240.328
137059,154027,12724,-0.012,-0.964,-0.058,0.488,0.61,0.793,240.334
136983,153898,22412,-0.011,-0.971,-0.065,-1.707,0.366,0.854,240.338
136983,154018,12731,-0.011,-0.974,-0.071,-1.707,0.366,0.854,240.344
137012,153898,22412,-0.012,-0.98,-0.083,-2.927,-0.061,0.427,240.348
137012,154016,12739,-0.011,-0.989,-0.085,-2.927,-0.061,0.427,240.354
137027,153898,22412,-0.015,-0.989,-0.096,-2.134,-0.061,-0.061,240.358
137027,154019,12721,-0.014,-0.983,-0.096,-2.134,-0.061,-0.061,240.364
136991,153898,22412,-0.005,-0.981,-0.087,0.244,0.122,-0.427,240.367
136991,154029,12723,-0.004,-0.976,-0.082,0.244,0.122,-0.427,240.374
137019,153898,22412,-0.002,-0.964,-0.075,2.195,0.061,-0.183,240.377
137019,154053,12733,-0.003,-0.96,-0.075,2.195,0.061,-0.183,240.384
137048,153898,22412,-0.006,-0.959,-0.068,2.988,0.488,0.366,240.387
137048,154083,12743,-0.008,-0.958,-0.06,2.988,0.488,0.366,240.393
137025,153898,22412,-0.009,-0.948,-0.051,2.622,0.732,0.793,240.397
137025,154025,12749,-0.007,-0.935,-0.049,2.622,0.732,0.793,240.403
137028,153898,22412,-0.011,-0.93,-0.055,0.366,0.427,1.037,240.407
137028,154021,12728,-0.009,-0.941,-0.057,0.366,0.427,1.037,240.413
136984,153898,22412,-0.014,-0.957,-0.061,-1.585,0.183,0.854,240.417
136984,153983,12736,-0.013,-0.969,-0.07,-1.585,0.183,0.854,240.423
137004,153898,22412,-0.011,-0.972,-0.085,-2.378,0,0.488,240.427
137004,154001,12733,-0.012,-0.98,-0.088,-2.378,0,0.488,240.433
136993,153898,22412,-0.009,-0.983,-0.08,-2.073,-0.183,0.183,240.437
136993,153989,12721,-0.004,-0.971,-0.082,-2.073,-0.183,0.183,240.443
136980,153898,22412,-0.004,-0.965,-0.086,-0.854,0.305,0.122,240.447
136980,153985,12726,-0.009,-0.969,-0.085,-0.854,0.305,0.122,240.453
136966,153898,22412,-0.01,-0.983,-0.086,0.549,0.732,0.366,240.457
136966,154025,12723,-0.009,-0.986,-0.092,0.549,0.732,0.366,240.463
136993,153898,22412,-0.009,-0.977,-0.085,2.317,0.976,0.549,240.466
136993,154026,12713,-0.006,-0.967,-0.074,2.317,0.976,0.549,240.473
136975,153898,22412,-0.011,-0.952,-0.073,3.659,1.098,0.61,240.476
136975,154030,12709,-0.011,-0.945,-0.057,3.659,1.098,0.61,240.482
136995,153898,22412,-0.011,-0.941,-0.042,3.78,1.037,0.793,240.486
136995,154020,12730,-0.012,-0.938,-0.04,3.78,1.037,0.793,240.492
137009,153898,22412,-0.009,-0.94,-0.059,1.341,0.793,0.793,240.496
137009,154017,12725,-0.008,-0.96,-0.069,1.341,0.793,0.793,240.502
136998,153898,22412,-0.014,-0.975,-0.062,-0.976,0.671,0.61,240.506
136998,154005,12724,-0.014,-0.969,-0.062,-0.976,0.671,0.61,240.512
136972,153898,22412,-0.009,-0.958,-0.063,-1.951,0.122,0.366,240.516
136972,153988,12719,-0.01,-0.951,-0.063,-1.951,0.122,0.366,240.522
136962,153898,22412,-0.008,-0.958,-0.063,-3.049,-0.183,0.244,240.526
136962,153988,12718,-0.012,-0.975,-0.075,-3.049,-0.183,0.244,240.532
136935,153898,22412,-0.015,-0.99,-0.088,-3.049,0.183,0,240.536
136935,153994,12724,-0.011,-0.992,-0.089,-3.049,0.183,0,240.542
136974,153898,22412,-0.007,-0.979,-0.091,-2.561,-0.061,-0.244,240.546
136974,154023,12727,-0.005,-0.97,-0.088,-2.561,-0.061,-0.244,240.552
136991,153898,22412,-0.005,-0.964,-0.077,-0.671,0,-0.183,240.556
136991,154042,12724,-0.011,-0.959,-0.073,-0.671,0,-0.183,240.562
137020,153898,22412,-0.01,-0.958,-0.077,0.976,0.61,0.122,240.565
137020,154056,12742,-0.008,-0.957,-0.067,0.976,0.61,0.122,240.572
137057,153898,22412,-0.008,-0.955,-0.058,1.159,0.671,0.244,240.575
137057,154078,12742,-0.009,-0.953,-0.063,1.159,0.671,0.244,240.582
137080,153898,22412,-0.007,-0.955,-0.07,0.061,0.549,0.366,240.585
137080,154076,12740,-0.012,-0.963,-0.07,0.061,0.549,0.366,240.591
137075,153898,22412,-0.011,-0.968,-0.056,-0.854,0.549,0.305,240.595
137075,154090,12727,-0.009,-0.964,-0.054,-0.854,0.549,0.305,240.601
137039,153898,22412,-0.009,-0.958,-0.067,-2.317,0.061,0.244,240.605
137039,154101,12730,-0.008,-0.96,-0.077,-2.317,0.061,0.244,240.611
137060,153898,22412,-0.008,-0.97,-0.082,-3.598,-0.183,-0.061,240.615
137060,154094,12729,-0.005,-0.972,-0.085,-3.598,-0.183,-0.061,240.621
137061,153898,22412,-0.002,-0.971,-0.091,-2.561,-0.244,-0.183,240.625
137061,154071,12726,-0,-0.97,-0.096,-2.561,-0.244,-0.183,240.631
137056,153898,22412,-0.006,-0.977,-0.097,-0.366,0.122,0.244,240.635
137056,154100,12726,-0.014,-0.985,-0.085,-0.366,0.122,0.244,240.641
137046,153898,22412,-0.016,-0.973,-0.069,2.256,0.61,0.488,240.645
137046,154095,12726,-0.01,-0.95,-0.07,2.256,0.61,0.488,240.651
137070,153898,22412,-0.001,-0.94,-0.06,2.195,0.427,0.366,240.655
137070,154080,12733,0.001,-0.944,-0.057,2.195,0.427,0.366,240.661
137085,153898,22412,-0.005,-0.96,-0.058,1.341,0.976,0.732,240.664
137085,154090,12743,-0.011,-0.97,-0.06,1.341,0.976,0.732,240.671
137077,153898,22412,-0.015,-0.969,-0.067,0.122,1.098,1.402,240.674
137077,154103,12739,-0.012,-0.964,-0.078,0.122,1.098,1.402,240.681
137044,153898,22412,-0.012,-0.964,-0.078,0.122,1.098,1.402,240.684
137044,154049,12719,-0.013,-0.977,-0.081,-0.976,0.671,1.098,240.69
137020,153898,22412,-0.013,-0.977,-0.081,-0.976,0.671,1.098,240.694
137020,154055,12728,-0.01,-0.97,-0.08,-0.183,0.671,0.305,240.7
137038,153898,22412,-0.01,-0.97,-0.08,-0.183,0.671,0.305,240.704
137038,154069,12726,-0.009,-0.966,-0.074,0.549,0.427,0.061,240.71
137044,153898,22412,-0.009,-0.966,-0.074,0.549,0.427,0.061,240.714
137044,154065,12732,-0.014,-0.962,-0.074,0.976,0.488,0.183,240.72
137010,153898,22412,-0.014,-0.962,-0.074,0.976,0.488,0.183,240.724
137010,154069,12720,-0.013,-0.965,-0.073,0.854,0.427,0.122,240.73
137061,153898,22412,-0.013,-0.965,-0.073,0.854,0.427,0.122,240.734
137061,154090,12728,-0.008,-0.959,-0.068,0.793,0.122,0,240.74
137101,154154,22412,-0.008,-0.959,-0.068,0.793,0.122,0,240.744
137101,154147,12751,-0.011,-0.972,-0.076,0.427,0,0.122,240.75
137106,154154,22412,-0.011,-0.972,-0.076,0.427,0,0.122,240.754
137106,154129,12739,-0.001,-0.957,-0.074,0.793,0.61,0.061,240.76
137094,153898,22412,-0.001,-0.957,-0.074,0.793,0.61,0.061,240.763
137094,154102,12744,-0.006,-0.965,-0.061,1.341,0.732,0.122,240.77
137099,154154,22412,-0.006,-0.965,-0.061,1.341,0.732,0.122,240.773
137099,154117,12740,-0.013,-0.97,-0.06,1.463,1.098,0.427,240.78
137119,154154,22412,-0.013,-0.97,-0.06,1.463,1.098,0.427,240.783
137119,154148,12763,-0.008,-0.956,-0.061,0.488,0.732,0.427,240.789
137130,154154,22412,-0.008,-0.956,-0.061,0.488,0.732,0.427,240.793
137130,154135,12737,-0.003,-0.946,-0.074,-0.915,0.183,0.427,240.799
137074,153898,22412,-0.003,-0.946,-0.074,-0.915,0.183,0.427,240.803
137074,154093,12743,-0.008,-0.969,-0.08,-1.707,0.183,0.305,240.809
137063,154154,22412,-0.008,-0.969,-0.08,-1.707,0.183,0.305,240.813
137063,154127,12745,-0.012,-0.969,-0.081,-0.732,0.366,0.427,240.819
137033,153898,22412,-0.012,-0.969,-0.081,-0.732,0.366,0.427,240.823
137033,154088,12730,-0.014,-0.974,-0.081,0.122,0.427,0.305,240.829
136990,153898,22412,-0.014,-0.974,-0.081,0.122,0.427,0.305,240.833
136990,154071,12730,-0.012,-0.979,-0.077,1.098,0.549,0.122,240.839
137014,153898,22412,-0.008,-0.976,-0.072,1.098,0.549,0.122,240.843
137014,154054,12727,-0.008,-0.972,-0.067,1.89,0.732,0.061,240.849
136977,153898,22412,-0.007,-0.966,-0.069,1.89,0.732,0.061,240.853
136977,154043,12720,-0.013,-0.967,-0.071,1.707,0.732,0.305,240.859
136983,153898,22412,-0.01,-0.969,-0.057,1.707,0.732,0.305,240.862
136983,154055,12737,-0.007,-0.969,-0.057,1.585,0.549,0.427,240.869
136984,153898,22412,-0.006,-0.957,-0.057,1.585,0.549,0.427,240.872
136984,154050,12743,-0.006,-0.945,-0.056,0.305,0.244,0.488,240.879
136953,153898,22412,-0.007,-0.945,-0.062,0.305,0.244,0.488,240.882
136953,154030,12714,-0.007,-0.951,-0.074,-0.976,0.305,0.427,240.888
136907,153898,22412,-0.012,-0.963,-0.076,-0.976,0.305,0.427,240.892
136907,154006,12717,-0.006,-0.965,-0.075,-1.037,0.183,0.244,240.898
136903,153898,22412,-0.007,-0.958,-0.067,-1.037,0.183,0.244,240.902
136903,154012,12708,-0.006,-0.958,-0.074,-0.915,0.122,0.244,240.908
136937,153898,22412,-0.009,-0.965,-0.082,-0.915,0.122,0.244,240.912
136937,154037,12717,-0.01,-0.978,-0.082,-0.793,0.427,0.427,240.918
136943,153898,22412,-0.009,-0.986,-0.076,-0.793,0.427,0.427,240.922
136943,154039,12723,-0.01,-0.981,-0.07,0.427,0.671,0.427,240.928
136925,153898,22412,-0.01,-0.972,-0.071,0.427,0.671,0.427,240.932
136925,154033,12715,-0.01,-0.967,-0.072,0.671,0.61,0.549,240.938
136913,153898,22412,-0.012,-0.963,-0.065,0.671,0.61,0.549,240.942
136913,153990,12721,-0.008,-0.962,-0.059,1.037,0.671,0.671,240.948
136946,153898,22412,-0.007,-0.951,-0.052,1.037,0.671,0.671,240.952
136946,154025,12717,-0.009,-0.946,-0.058,0.061,0.732,0.976,240.958
136972,153898,22412,-0.014,-0.955,-0.066,0.061,0.732,0.976,240.961
136972,154008,12718,-0.019,-0.973,-0.065,-1.402,0.671,1.098,240.968
136934,153898,22412,-0.016,-0.971,-0.067,-1.402,0.671,1.098,240.971
136934,154048,12718,-0.011,-0.959,-0.071,-1.646,0.061,0.61,240.978
136953,153898,22412,-0.006,-0.956,-0.077,-1.646,0.061,0.61,240.981
136953,154028,12716,-0.005,-0.963,-0.076,-2.134,-0.244,0.244,240.987
136929,153898,22412,-0.009,-0.968,-0.076,-2.134,-0.244,0.244,240.991
136929,154011,12731,-0.013,-0.968,-0.081,-1.463,0.061,0.366,240.997
136956,153898,22412,-0.013,-0.979,-0.082,-1.463,0.061,0.366,241.001
136956,154036,12734,-0.013,-0.978,-0.078,-0.61,0.305,0.244,241.007
136942,153898,22412,-0.01,-0.975,-0.086,-0.61,0.305,0.244,241.011
136942,154044,12731,-0.01,-0.973,-0.083,0.122,0.427,-0.183,241.017
136934,153898,22412,-0.005,-0.968,-0.072,0.122,0.427,-0.183,241.021
136934,154053,12728,-0.004,-0.957,-0.071,0.976,0.488,-0.122,241.027
136952,153898,22412,-0.011,-0.956,-0.072,0.976,0.488,-0.122,241.031
136952,154031,12717,-0.016,-0.964,-0.075,1.159,0.793,0.244,241.037
136930,153898,22412,-0.013,-0.971,-0.08,1.159,0.793,0.244,241.041
136930,153998,12735,-0.013,-0.966,-0.078,1.402,0.793,0.183,241.047
136912,153898,22412,-0.004,-0.954,-0.069,1.402,0.793,0.183,241.051
136912,154004,12729,-0.001,-0.949,-0.066,1.402,0.61,0,241.057
136937,153898,22412,-0.003,-0.954,-0.067,1.402,0.61,0,241.061
136937,154009,12713,-0.008,-0.958,-0.064,1.768,0.732,0.671,241.067
136890,153898,22412,-0.01,-0.959,-0.058,1.768,0.732,0.671,241.07
136890,153979,12718,-0.01,-0.955,-0.05,1.037,0.488,1.159,241.077
136912,153898,22412,-0.013,-0.956,-0.053,1.037,0.488,1.159,241.08
136912,154014,12719,-0.01,-0.965,-0.071,-1.037,0.305,0.976,241.086
136956,153898,22412,-0.008,-0.97,-0.079,-1.037,0.305,0.976,241.09
136956,154044,12718,-0.012,-0.977,-0.072,-1.829,0.305,0.61,241.096
136952,153898,22412,-0.011,-0.98,-0.078,-1.829,0.305,0.61,241.1
136952,154029,12740,-0.01,-0.975,-0.087,-1.159,0.549,0.427,241.106
136985,153898,22412,-0.016,-0.976,-0.091,-1.159,0.549,0.427,241.11
136985,154056,12719,-0.013,-0.982,-0.078,0.183,0.671,0.061,241.116
137003,153898,22412,-0.01,-0.975,-0.066,0.183,0.671,0.061,241.12
137003,154068,12732,-0.008,-0.959,-0.06,0.915,0.488,-0.244,241.126
137027,153898,22412,-0.008,-0.953,-0.059,0.915,0.488,-0.244,241.13
137027,154100,12736,-0.011,-0.958,-0.067,-0.244,0.549,0.122,241.136
137049,153898,22412,-0.013,-0.965,-0.075,-0.244,0.549,0.122,241.14
137049,154095,12740,-0.014,-0.968,-0.074,-0.61,0.732,0.244,241.146
137019,153898,22412,-0.012,-0.962,-0.062,-0.61,0.732,0.244,241.15
137019,154096,12734,-0.007,-0.946,-0.051,-0.732,0.366,0.305,241.156
137021,153898,22412,-0.004,-0.936,-0.058,-0.732,0.366,0.305,241.16
137021,154082,12743,-0.012,-0.946,-0.077,-1.951,0.244,0.549,241.166
137037,153898,22412,-0.013,-0.967,-0.085,-1.951,0.244,0.549,241.169
137037,154085,12728,-0.011,-0.981,-0.079,-1.524,0.427,0.427,241.176
137004,153898,22412,-0.005,-0.984,-0.073,-1.524,0.427,0.427,241.179
137004,154076,12731,-0.006,-0.976,-0.074,-0.244,0.061,0.366,241.186
137021,153898,22412,-0.008,-0.966,-0.078,-0.244,0.061,0.366,241.189
137021,154075,12736,-0.009,-0.966,-0.078,0.122,0.183,0.183,241.195
137001,153898,22412,-0.008,-0.975,-0.069,0.122,0.183,0.183,241.199
137001,154069,12732,-0.004,-0.973,-0.072,0.976,0.061,0.366,241.205
136986,153898,22412,-0.007,-0.966,-0.074,0.976,0.061,0.366,241.209
136986,154076,12742,-0.005,-0.956,-0.061,0.854,0.122,0.671,241.215
136985,153898,22412,-0.006,-0.944,-0.052,0.854,0.122,0.671,241.219
136985,154044,12720,-0.007,-0.941,-0.049,0.183,0.244,0.793,241.225
136914,153898,22412,-0.009,-0.946,-0.058,0.183,0.244,0.793,241.229
136914,154006,12723,-0.011,-0.951,-0.056,-1.585,0.305,0.854,241.235
136936,153898,22412,-0.006,-0.953,-0.054,-1.585,0.305,0.854,241.239
136936,154027,12724,-0.006,-0.953,-0.064,-3.293,0.061,1.037,241.245
136910,153898,22412,-0.013,-0.97,-0.081,-3.293,0.061,1.037,241.249
136910,154006,12722,-0.019,-0.992,-0.093,-4.085,0.061,0.915,241.255
136888,153898,22412,-0.019,-1,-0.092,-4.085,0.061,0.915,241.259
136888,154015,12729,-0.015,-0.988,-0.086,-2.256,-0.122,0.305,241.265
136886,153898,22412,-0.004,-0.97,-0.083,-2.256,-0.122,0.305,241.268
136886,153987,12697,-0.002,-0.961,-0.079,-0.976,-0.366,-0.366,241.275
136886,153898,22412,-0.008,-0.962,-0.075,-0.976,-0.366,-0.366,241.278
136886,154023,12723,-0.01,-0.968,-0.08,0.244,0.183,0,241.285
136905,153898,22412,-0.01,-0.968,-0.08,0.244,0.183,0,241.288
136905,154006,12711,-0.006,-0.958,-0.064,1.037,0.305,0.366,241.294
136902,153898,22412,-0.006,-0.958,-0.064,1.037,0.305,0.366,241.298
136902,154020,12724,-0.01,-0.952,-0.065,0.488,0.305,0.549,241.304
136901,153898,22412,-0.01,-0.952,-0.065,0.488,0.305,0.549,241.308
136901,153994,12717,-0.006,-0.955,-0.064,-0.122,0.488,0.854,241.314
136925,153898,22412,-0.006,-0.955,-0.064,-0.122,0.488,0.854,241.318
136925,154024,12720,-0.009,-0.957,-0.071,-0.915,0.488,0.915,241.324
136913,153898,22412,-0.009,-0.957,-0.071,-0.915,0.488,0.915,241.328
136913,154040,12715,-0.01,-0.961,-0.076,-0.976,0.549,0.915,241.334
136921,153898,22412,-0.01,-0.961,-0.076,-0.976,0.549,0.915,241.338
136921,154033,12720,-0.012,-0.986,-0.08,-0.61,0.488,0.732,241.344
136934,153898,22412,-0.012,-0.986,-0.08,-0.61,0.488,0.732,241.348
136934,154020,12726,-0.013,-0.986,-0.079,0.183,0.305,0.488,241.354
136847,153898,22412,-0.013,-0.986,-0.079,0.183,0.305,0.488,241.358
136847,153987,12724,-0.013,-0.966,-0.08,0,0.122,0.366,241.364
136907,153898,22412,-0.013,-0.966,-0.08,0,0.122,0.366,241.367
136907,153998,12722,-0.008,-0.976,-0.075,0.488,0.183,0,241.374
136898,153898,22412,-0.008,-0.976,-0.075,0.488,0.183,0,241.377
136898,154014,12722,-0.004,-0.962,-0.066,1.098,0.366,0.061,241.384
136902,153898,22412,-0.004,-0.962,-0.066,1.098,0.366,0.061,241.387
136902,154022,12716,-0.012,-0.947,-0.06,0.549,0.61,0.488,241.393
136929,153898,22412,-0.012,-0.947,-0.06,0.549,0.61,0.488,241.397
136929,154019,12724,-0.012,-0.955,-0.077,-0.671,0.366,0.427,241.403
136908,153898,22412,-0.012,-0.955,-0.077,-0.671,0.366,0.427,241.407
136908,154038,12716,-0.007,-0.964,-0.066,-0.732,0.183,0.244,241.413
136931,153898,22412,-0.007,-0.964,-0.066,-0.732,0.183,0.244,241.417
136931,154039,12716,-0.008,-0.955,-0.08,-1.098,0.244,0.366,241.423
136919,153898,22412,-0.008,-0.955,-0.08,-1.098,0.244,0.366,241.427
136919,154044,12716,-0.01,-0.972,-0.092,-1.098,0.244,0.366,241.433
136889,153898,22412,-0.012,-0.992,-0.083,-0.671,0.671,0.427,241.437
136889,154002,12724,-0.013,-0.992,-0.08,-0.671,0.671,0.427,241.443
136936,153898,22412,-0.011,-0.977,-0.086,1.098,0.549,0.061,241.447
136936,154044,12729,-0.008,-0.967,-0.088,1.098,0.549,0.061,241.453
136973,153898,22412,-0.008,-0.976,-0.079,1.951,0.427,-0.366,241.457
136973,154046,12724,-0.006,-0.975,-0.073,1.951,0.427,-0.366,241.463
136961,153898,22412,-0.002,-0.957,-0.068,3.293,0.671,-0.305,241.466
136961,154045,12732,-0.004,-0.948,-0.064,3.293,0.671,-0.305,241.473
136925,153898,22412,-0.007,-0.951,-0.061,2.805,0.854,0.305,241.476
136925,154036,12727,-0.012,-0.956,-0.055,2.805,0.854,0.305,241.483
136920,153898,22412,-0.01,-0.947,-0.057,2.073,0.915,0.854,241.486
136920,154057,12737,-0.006,-0.942,-0.052,2.073,0.915,0.854,241.492
136906,153898,22412,-0.008,-0.945,-0.053,0.122,0.671,0.976,241.496
136906,154020,12725,-0.01,-0.956,-0.061,0.122,0.671,0.976,241.502
136848,153898,22412,-0.015,-0.971,-0.056,-1.159,0.671,0.854,241.506
136848,154005,12722,-0.016,-0.979,-0.06,-1.159,0.671,0.854,241.512
136840,153898,22412,-0.014,-0.974,-0.076,-2.622,0.061,0.671,241.516
136840,153965,12712,-0.011,-0.974,-0.085,-2.622,0.061,0.671,241.522
136806,153898,22412,-0.009,-0.979,-0.07,-3.049,-0.122,0.183,241.526
136806,153964,12716,-0.011,-0.974,-0.074,-3.049,-0.122,0.183,241.532
136829,153898,22412,-0.012,-0.973,-0.086,-1.89,0.061,0.061,241.536
136829,153972,12712,-0.011,-0.978,-0.087,-1.89,0.061,0.061,241.542
136815,153898,22412,-0.01,-0.979,-0.087,-0.854,0.305,0.122,241.546
136815,153921,12702,-0.005,-0.971,-0.079,-0.854,0.305,0.122,241.552
136751,153898,22412,-0.007,-0.953,-0.073,0.793,0.549,0.183,241.556
136751,153946,12705,-0.007,-0.941,-0.074,0.793,0.549,0.183,241.562
136793,153898,22412,-0.005,-0.947,-0.075,1.28,0.671,0.671,241.565
136793,153935,12704,-0.01,-0.96,-0.074,1.28,0.671,0.671,241.572
136798,153898,22412,-0.012,-0.968,-0.076,1.89,0.976,0.793,241.575
136798,153937,12704,-0.013,-0.97,-0.082,1.89,0.976,0.793,241.582
136770,153898,22412,-0.01,-0.97,-0.084,1.707,0.976,0.488,241.585
136770,153923,12702,-0.01,-0.978,-0.071,1.707,0.976,0.488,241.591
136753,153898,22412,-0.011,-0.973,-0.063,2.012,0.854,0.183,241.595
136753,153941,12714,-0.01,-0.962,-0.059,2.012,0.854,0.183,241.601
136776,153898,22412,-0.006,-0.959,-0.055,1.28,0.488,0.122,241.605
136776,153918,12711,-0.009,-0.965,-0.058,1.28,0.488,0.122,241.611
136786,153898,22412,-0.011,-0.972,-0.071,-0.183,0.183,0.366,241.615
136786,153977,12721,-0.01,-0.979,-0.073,-0.183,0.183,0.366,241.621
136847,153898,22412,-0.011,-0.97,-0.064,-0.732,0.122,0.244,241.625
136847,154001,12715,-0.005,-0.954,-0.065,-0.732,0.122,0.244,241.631
136831,153898,22412,-0.006,-0.944,-0.068,-0.854,0,0.305,241.635
136831,153978,12719,-0.007,-0.947,-0.076,-0.854,0,0.305,241.641
136827,153898,22412,-0.009,-0.962,-0.081,-0.671,0.427,0.488,241.645
136827,153996,12725,-0.009,-0.972,-0.071,-0.671,0.427,0.488,241.651
136856,153898,22412,-0.008,-0.963,-0.077,0.61,0.61,0.671,241.655
136856,154001,12717,-0.012,-0.961,-0.083,0.61,0.61,0.671,241.661
136828,153898,22412,-0.015,-0.97,-0.074,0.976,0.854,0.732,241.665
136828,153980,12711,-0.014,-0.975,-0.068,0.976,0.854,0.732,241.671
136795,153898,22412,-0.008,-0.97,-0.074,2.073,0.854,0.549,241.674
136795,153966,12733,-0.009,-0.972,-0.064,2.073,0.854,0.549,241.681
136805,153898,22412,-0.011,-0.974,-0.045,2.134,0.793,0.488,241.684
136805,153981,12710,-0.014,-0.966,-0.052,2.134,0.793,0.488,241.69
136782,153898,22412,-0.016,-0.961,-0.065,0.61,0.793,0.61,241.694
136782,153932,12712,-0.015,-0.966,-0.067,0.61,0.793,0.61,241.7
136791,153898,22412,-0.008,-0.966,-0.075,-0.549,0.427,0.488,241.704
136791,153968,12720,-0.005,-0.964,-0.082,-0.549,0.427,0.488,241.71
136800,153898,22412,-0.002,-0.959,-0.068,-0.488,0.122,0,241.714
136800,153972,12724,-0.005,-0.95,-0.055,-0.488,0.122,0,241.72
136860,153898,22412,-0.006,-0.945,-0.059,-0.549,0.244,0.366,241.724
136860,153980,12722,-0.011,-0.95,-0.062,-0.549,0.244,0.366,241.73
136875,153898,22412,-0.01,-0.953,-0.074,-1.524,0.122,0.793,241.734
136875,154010,12735,-0.008,-0.963,-0.081,-1.524,0.122,0.793,241.74
136896,153898,22412,-0.003,-0.975,-0.08,-1.463,0.122,0.549,241.744
136896,154059,12719,-0.01,-0.979,-0.079,-1.463,0.122,0.549,241.75
136931,153898,22412,-0.013,-0.983,-0.069,-0.366,0.488,0.61,241.754
136931,154056,12732,-0.011,-0.976,-0.059,-0.366,0.488,0.61,241.76
136924,153898,22412,-0.013,-0.968,-0.066,-0.244,0.732,0.732,241.763
136924,154081,12747,-0.015,-0.968,-0.072,-0.244,0.732,0.732,241.77
136912,153898,22412,-0.014,-0.974,-0.078,-0.915,0.61,0.488,241.773
136912,154036,12722,-0.014,-0.98,-0.08,-0.915,0.61,0.488,241.78
136898,153898,22412,-0.012,-0.974,-0.071,-0.061,0.488,0.244,241.783
136898,154021,12730,-0.008,-0.955,-0.064,-0.061,0.488,0.244,241.789
136870,153898,22412,-0.006,-0.942,-0.06,0.244,0.122,0.244,241.793
136870,154052,12742,-0.008,-0.941,-0.062,0.244,0.122,0.244,241.799
136864,153898,22412,-0.009,-0.945,-0.062,-0.61,0.183,0.61,241.803
136864,154002,12704,-0.005,-0.949,-0.064,-0.61,0.183,0.61,241.809
136856,153898,22412,-0.009,-0.955,-0.066,-1.037,0,0.976,241.813
136856,153981,12747,-0.01,-0.956,-0.065,-1.037,0,0.976,241.819
136836,153898,22412,-0.013,-0.958,-0.071,-1.768,0.183,1.159,241.823
136836,154017,12738,-0.012,-0.961,-0.074,-1.768,0.183,1.159,241.829
136831,153898,22412,-0.01,-0.97,-0.073,-2.195,0.244,1.098,241.833
136831,154002,12721,-0.012,-0.975,-0.072,-2.195,0.244,1.098,241.839
136836,153898,22412,-0.01,-0.98,-0.079,-2.012,0.183,0.854,241.843
136836,154003,12734,-0.016,-0.984,-0.088,-2.012,0.183,0.854,241.849
136896,153898,22412,-0.015,-0.985,-0.085,-1.707,0.183,0.427,241.853
136896,154045,12733,-0.011,-0.985,-0.085,-1.707,0.183,0.427,241.859
