134394,151594,22412,0.005,-0.943,-0.151,1.098,1.098,-1.524,63.93
134394,151669,12344,0.01,-0.948,-0.161,1.098,1.098,-1.524,63.936
134381,151594,22412,0.002,-0.951,-0.179,-1.28,0.305,-0.183,63.94
134381,151666,12339,-0.001,-0.947,-0.183,-1.28,0.305,-0.183,63.946
134422,151594,22412,-0.001,-0.942,-0.179,-1.829,-0.061,0.549,63.95
134422,151688,12326,0.009,-0.942,-0.183,-1.829,-0.061,0.549,63.956
134431,151594,22412,0.005,-0.947,-0.182,-0.366,0.183,0.305,63.96
134431,151700,12348,0.002,-0.95,-0.18,-0.366,0.183,0.305,63.966
134428,151594,22412,-0,-0.954,-0.18,1.037,0.305,0.671,63.97
134428,151693,12330,-0.002,-0.952,-0.181,1.037,0.305,0.671,63.976
134398,151594,22412,-0.003,-0.952,-0.177,1.768,0.671,0.427,63.98
134398,151684,12335,0.002,-0.948,-0.163,1.768,0.671,0.427,63.986
134389,151594,22412,0.01,-0.95,-0.158,1.951,0.854,-0.183,63.99
134389,151660,12340,0.006,-0.955,-0.165,1.951,0.854,-0.183,63.996
134323,151594,22412,-0.002,-0.953,-0.169,0.183,0.671,0.061,63.999
134323,151639,12329,0.001,-0.945,-0.162,0.183,0.671,0.061,64.006
134343,151594,22412,0.01,-0.946,-0.169,-1.159,0.427,0.183,64.009
134343,151637,12324,0.008,-0.949,-0.177,-1.159,0.427,0.183,64.016
134322,151594,22412,0.003,-0.95,-0.171,-1.463,0.427,0.122,64.019
134322,151604,12317,0.006,-0.951,-0.173,-1.463,0.427,0.122,64.025
134307,151594,22412,0.002,-0.953,-0.189,-1.28,0.244,0.61,64.029
134307,151626,12327,-0.003,-0.95,-0.186,-1.28,0.244,0.61,64.035
134328,151594,22412,0,-0.945,-0.167,-0.244,0.305,0.671,64.039
134328,151660,12326,0.012,-0.948,-0.172,-0.244,0.305,0.671,64.045
134362,151594,22412,0.005,-0.954,-0.193,0.183,0.549,0.366,64.049
134362,151649,12334,-0.005,-0.956,-0.181,0.183,0.549,0.366,64.055
134361,151594,22412,-0.002,-0.948,-0.164,0.976,0.427,0.732,64.059
134361,151666,12334,0.009,-0.94,-0.165,0.976,0.427,0.732,64.065
134395,151594,22412,0.011,-0.943,-0.17,1.037,0.549,0.183,64.069
134395,151706,12340,0.002,-0.952,-0.176,1.037,0.549,0.183,64.075
134384,151594,22412,0,-0.952,-0.177,0.305,0.427,0.915,64.079
134384,151677,12324,-0.003,-0.949,-0.178,0.305,0.427,0.915,64.085
134374,151594,22412,-0.004,-0.951,-0.17,0.915,0.366,1.098,64.089
134374,151675,12348,-0.001,-0.958,-0.168,0.915,0.366,1.098,64.095
134414,151594,22412,0.003,-0.954,-0.162,1.159,0.549,0.427,64.098
134414,151720,12336,0.004,-0.952,-0.157,1.159,0.549,0.427,64.105
134453,151594,22412,0.002,-0.955,-0.176,-0.183,0.305,0.244,64.108
134453,151724,12338,-0.005,-0.957,-0.185,-0.183,0.305,0.244,64.115
134454,151594,22412,-0.009,-0.954,-0.173,-0.915,0.183,0.366,64.118
134454,151761,12346,-0,-0.951,-0.16,-0.915,0.183,0.366,64.124
134473,151594,22412,0.006,-0.944,-0.163,-0.366,0.427,-0.854,64.128
134473,151739,12346,0.01,-0.945,-0.176,-0.366,0.427,-0.854,64.134
134442,151594,22412,0.003,-0.948,-0.179,-1.341,0.732,-0.732,64.138
134442,151737,12355,-0,-0.946,-0.175,-1.341,0.732,-0.732,64.144
134403,151594,22412,0.002,-0.947,-0.176,-0.671,0.549,0.061,64.148
134403,151718,12337,0.005,-0.948,-0.174,-0.671,0.549,0.061,64.154
134376,151594,22412,0.004,-0.949,-0.176,-0.183,0.549,0,64.158
134376,151675,12339,0.007,-0.949,-0.182,-0.183,0.549,0,64.164
134376,151594,22412,0.004,-0.948,-0.188,0.061,0.549,0.183,64.168
134376,151673,12332,0.004,-0.943,-0.173,0.061,0.549,0.183,64.174
134361,151594,22412,0.005,-0.951,-0.17,1.159,0.427,0.488,64.178
134361,151673,12349,0.004,-0.956,-0.18,1.159,0.427,0.488,64.184
134411,151594,22412,-0.003,-0.956,-0.186,1.22,0.61,0.671,64.188
134411,151708,12330,-0.002,-0.953,-0.176,1.22,0.61,0.671,64.194
134414,151594,22412,0,-0.948,-0.163,1.768,0.793,0.366,64.198
134414,151694,12331,0.006,-0.948,-0.155,1.768,0.793,0.366,64.204
134412,151594,22412,0.006,-0.955,-0.159,1.402,0.732,0.061,64.207
134412,151698,12334,-0.001,-0.956,-0.165,1.402,0.732,0.061,64.214
134429,151594,22412,-0.003,-0.956,-0.174,-0.793,0.305,0.366,64.217
134429,151675,12334,-0.003,-0.952,-0.177,-0.793,0.305,0.366,64.223
134400,151594,22412,0.003,-0.947,-0.166,-1.341,0.305,-0.244,64.227
134400,151676,12339,0.008,-0.948,-0.158,-1.341,0.305,-0.244,64.233
134384,151594,22412,0.009,-0.952,-0.169,-1.037,0.427,-0.488,64.237
134384,151657,12345,0.006,-0.951,-0.174,-1.037,0.427,-0.488,64.243
134393,151594,22412,0.006,-0.951,-0.174,-1.037,0.427,-0.488,64.247
134393,151672,12325,0.003,-0.945,-0.185,-1.89,0.244,0.427,64.253
134382,151594,22412,0.003,-0.945,-0.185,-1.89,0.244,0.427,64.257
134382,151690,12350,0.005,-0.949,-0.178,-0.976,0.305,0.671,64.263
134394,151594,22412,0.005,-0.949,-0.178,-0.976,0.305,0.671,64.267
134394,151690,12329,0.006,-0.943,-0.172,0.915,0.488,0.549,64.273
134388,151594,22412,0.006,-0.943,-0.172,0.915,0.488,0.549,64.277
134388,151674,12337,0.001,-0.951,-0.17,1.341,0.549,1.28,64.283
134387,151594,22412,0.001,-0.951,-0.17,1.341,0.549,1.28,64.287
134387,151680,12347,0.002,-0.953,-0.175,1.159,0.488,1.585,64.293
134387,151594,22412,0.002,-0.953,-0.175,1.159,0.488,1.585,64.297
134387,151690,12329,-0.005,-0.954,-0.175,0.732,0.305,1.28,64.303
134393,151594,22412,-0.005,-0.954,-0.175,0.732,0.305,1.28,64.306
134393,151698,12347,0.008,-0.949,-0.176,0.122,0.427,0.671,64.313
134400,151594,22412,0.008,-0.949,-0.176,0.122,0.427,0.671,64.316
134400,151704,12329,0.006,-0.948,-0.149,0.427,0.61,0.061,64.323
134452,151594,22412,0.006,-0.948,-0.149,0.427,0.61,0.061,64.326
134452,151742,12350,0.003,-0.951,-0.178,-0.183,0.305,0.488,64.332
134471,151594,22412,0.003,-0.951,-0.178,-0.183,0.305,0.488,64.336
134471,151737,12346,-0.003,-0.951,-0.181,-2.378,-0.061,0.976,64.342
134482,151594,22412,-0.003,-0.951,-0.181,-2.378,-0.061,0.976,64.346
134482,151755,12339,0,-0.948,-0.183,-0.976,0.183,0.854,64.352
134470,151594,22412,0,-0.948,-0.183,-0.976,0.183,0.854,64.356
134470,151736,12346,-0.002,-0.957,-0.171,1.22,0.671,0.244,64.362
134493,151594,22412,-0.002,-0.957,-0.171,1.22,0.671,0.244,64.366
134493,151750,12343,0.001,-0.95,-0.184,2.378,0.976,0.061,64.372
134468,151594,22412,0.001,-0.95,-0.184,2.378,0.976,0.061,64.376
134468,151754,12348,-0.001,-0.952,-0.159,1.951,1.22,-0.488,64.382
134478,151594,22412,-0.001,-0.952,-0.159,1.951,1.22,-0.488,64.386
134478,151764,12362,0.011,-0.946,-0.162,2.195,1.22,-0.671,64.392
134512,151594,22412,0.011,-0.946,-0.162,2.195,1.22,-0.671,64.396
134512,151779,12345,0.004,-0.954,-0.176,0.366,0.793,-0.122,64.402
134511,151594,22412,-0.001,-0.954,-0.168,0.366,0.793,-0.122,64.405
134511,151752,12346,0.002,-0.949,-0.158,-0.549,0.183,0.427,64.412
134533,151594,22412,0.009,-0.946,-0.167,-0.549,0.183,0.427,64.415
134533,151789,12355,0.005,-0.949,-0.176,-1.22,0.061,0.305,64.422
134551,151850,22412,0.004,-0.953,-0.172,-1.22,0.061,0.305,64.425
134551,151809,12358,0.002,-0.951,-0.177,-1.402,-0.061,0.854,64.431
134558,151594,22412,0.002,-0.953,-0.186,-1.402,-0.061,0.854,64.435
134558,151785,12352,-0.006,-0.955,-0.181,-0.549,0.122,0.854,64.441
134548,151594,22412,-0.007,-0.952,-0.179,-0.549,0.122,0.854,64.445
134548,151797,12364,0.002,-0.955,-0.175,0.915,0.671,0,64.451
134516,151594,22412,0.003,-0.951,-0.172,0.915,0.671,0,64.455
134516,151807,12356,0.005,-0.95,-0.176,1.28,0.976,-0.427,64.461
134533,151594,22412,0.002,-0.952,-0.175,1.28,0.976,-0.427,64.465
134533,151777,12358,0.002,-0.95,-0.174,1.341,1.098,-0.061,64.471
134525,151594,22412,0.005,-0.952,-0.171,1.341,1.098,-0.061,64.475
134525,151765,12366,0.004,-0.948,-0.155,1.89,0.915,0.122,64.481
134509,151594,22412,0.002,-0.942,-0.147,1.89,0.915,0.122,64.485
134509,151775,12373,0.007,-0.945,-0.163,0.915,0.549,0.366,64.491
134557,151850,22412,0.006,-0.954,-0.17,0.915,0.549,0.366,64.495
134557,151820,12361,0.004,-0.953,-0.168,-0.732,0.061,0.793,64.501
134568,151850,22412,0.004,-0.951,-0.171,-0.732,0.061,0.793,64.504
134568,151814,12363,0.005,-0.948,-0.175,-0.793,-0.122,0.854,64.511
134552,151850,22412,0,-0.951,-0.173,-0.793,-0.122,0.854,64.514
134552,151840,12355,-0.002,-0.952,-0.179,-0.549,0.061,0.854,64.521
134571,151850,22412,-0.001,-0.951,-0.178,-0.549,0.061,0.854,64.524
134571,151819,12362,-0.002,-0.954,-0.176,0.183,0.427,0.671,64.53
134548,151850,22412,-0.002,-0.952,-0.17,0.183,0.427,0.671,64.534
134548,151816,12363,0.003,-0.953,-0.169,0.793,0.732,0.305,64.54
134551,151594,22412,0.008,-0.948,-0.171,0.793,0.732,0.305,64.544
134551,151797,12371,0.004,-0.948,-0.17,0.671,0.793,0.183,64.55
134531,151594,22412,0.003,-0.953,-0.175,0.671,0.793,0.183,64.554
134531,151790,12363,-0,-0.956,-0.179,0.549,0.671,0.549,64.56
134523,151594,22412,0.001,-0.948,-0.175,0.549,0.671,0.549,64.564
134523,151784,12348,0.006,-0.942,-0.164,1.463,0.732,0.427,64.57
134505,151594,22412,0.008,-0.945,-0.161,1.463,0.732,0.427,64.574
134505,151777,12362,0.01,-0.949,-0.153,1.402,0.61,0.61,64.58
134530,151594,22412,0.01,-0.951,-0.154,1.402,0.61,0.61,64.584
134530,151783,12362,0.004,-0.953,-0.164,-0.305,0,1.646,64.59
134535,151850,22412,-0.002,-0.961,-0.168,-0.305,0,1.646,64.594
134535,151810,12358,-0.006,-0.957,-0.167,-1.89,-0.427,2.073,64.6
134534,151594,22412,-0.002,-0.95,-0.163,-1.89,-0.427,2.073,64.603
134534,151793,12339,0.004,-0.952,-0.165,-2.378,-0.244,1.098,64.61
134559,151594,22412,0.004,-0.953,-0.183,-2.378,-0.244,1.098,64.613
134559,151793,12360,-0.001,-0.951,-0.195,-2.317,0.061,0.671,64.62
134560,151850,22412,-0.005,-0.952,-0.19,-2.317,0.061,0.671,64.623
134560,151823,12376,-0,-0.954,-0.179,0.122,0.366,0.366,64.629
134564,151850,22412,-0.001,-0.955,-0.174,0.122,0.366,0.366,64.633
134564,151831,12380,0.002,-0.949,-0.175,1.829,0.976,-0.488,64.639
134557,151594,22412,0.009,-0.943,-0.17,1.829,0.976,-0.488,64.643
134557,151803,12375,0.006,-0.946,-0.165,1.585,1.341,-0.61,64.649
134598,151850,22412,0.006,-0.944,-0.166,1.585,1.341,-0.61,64.653
134598,151823,12369,0.003,-0.948,-0.163,1.098,0.976,0.366,64.659
134605,151850,22412,-0.002,-0.949,-0.16,1.098,0.976,0.366,64.663
134605,151830,12357,0.002,-0.944,-0.152,0.244,0.427,0.976,64.669
134587,151850,22412,0.006,-0.945,-0.143,0.244,0.427,0.976,64.673
134587,151865,12379,0.006,-0.947,-0.154,-1.646,-0.122,0.854,64.679
134578,151850,22412,0.006,-0.951,-0.176,-1.646,-0.122,0.854,64.683
134578,151834,12364,0.001,-0.958,-0.191,-3.841,-0.61,1.463,64.689
134577,151850,22412,-0.006,-0.96,-0.195,-3.841,-0.61,1.463,64.693
134577,151831,12370,-0.008,-0.953,-0.182,-2.134,-0.427,1.463,64.699
134575,151850,22412,-0.003,-0.947,-0.175,-2.134,-0.427,1.463,64.702
134575,151822,12363,0.004,-0.955,-0.178,0.244,0.244,0.244,64.709
134562,151594,22412,-0.002,-0.959,-0.191,0.244,0.244,0.244,64.712
134562,151793,12364,-0.009,-0.958,-0.182,1.159,0.732,-0.061,64.719
134596,151850,22412,-0.006,-0.95,-0.161,1.159,0.732,-0.061,64.722
134596,151848,12385,0.007,-0.943,-0.155,2.134,0.854,-0.671,64.728
134593,151850,22412,0.012,-0.944,-0.165,2.134,0.854,-0.671,64.732
134593,151858,12365,0.002,-0.95,-0.168,0.854,1.037,-0.915,64.738
134676,151850,22412,-0.001,-0.948,-0.15,0.854,1.037,-0.915,64.742
134676,151892,12388,0.005,-0.943,-0.14,0.061,0.427,0.061,64.748
134692,151850,22412,0.009,-0.948,-0.16,0.061,0.427,0.061,64.752
134692,151910,12380,0.007,-0.955,-0.181,-2.5,0,0.427,64.758
134663,151850,22412,-0.003,-0.955,-0.172,-2.5,0,0.427,64.762
134663,151879,12383,-0.002,-0.949,-0.155,-2.561,-0.427,0.854,64.768
134681,151850,22412,0.006,-0.944,-0.156,-2.561,-0.427,0.854,64.772
134681,151921,12380,0.006,-0.948,-0.178,-2.5,-0.793,0.61,64.778
134655,151850,22412,0.003,-0.952,-0.19,-2.5,-0.793,0.61,64.782
134655,151888,12370,0.003,-0.954,-0.192,-2.317,-0.61,0.976,64.788
134653,151850,22412,-0,-0.954,-0.184,-2.317,-0.61,0.976,64.792
134653,151906,12380,-0.002,-0.951,-0.172,-0.061,-0.183,0.915,64.798
134642,151850,22412,0.004,-0.949,-0.177,-0.061,-0.183,0.915,64.801
134642,151897,12366,0.006,-0.954,-0.181,0.854,0.488,0.488,64.808
134674,151850,22412,0.001,-0.954,-0.182,0.854,0.488,0.488,64.811
134674,151891,12366,-0.002,-0.949,-0.173,1.159,0.549,0.61,64.818
134698,151850,22412,0.002,-0.945,-0.169,1.159,0.549,0.61,64.821
134698,151920,12390,0.002,-0.947,-0.159,1.585,0.61,0.427,64.827
134733,151850,22412,0.005,-0.948,-0.152,1.585,0.61,0.427,64.831
134733,151957,12392,0.009,-0.947,-0.159,0.305,0.305,0.549,64.837
134749,151850,22412,0.005,-0.952,-0.172,0.305,0.305,0.549,64.841
134749,151971,12395,-0.003,-0.952,-0.178,-1.585,-0.061,1.402,64.847
134745,151850,22412,-0.003,-0.952,-0.178,-1.585,-0.061,1.402,64.851
134745,151958,12392,0.005,-0.945,-0.165,-1.159,-0.183,1.28,64.857
134706,151850,22412,0.005,-0.945,-0.165,-1.159,-0.183,1.28,64.861
134706,151926,12384,0.004,-0.95,-0.175,-0.671,-0.183,1.341,64.867
134687,151850,22412,0.004,-0.95,-0.175,-0.671,-0.183,1.341,64.871
134687,151916,12380,-0.009,-0.959,-0.178,-0.488,-0.366,2.195,64.877
134632,151850,22412,-0.009,-0.959,-0.178,-0.488,-0.366,2.195,64.881
134632,151879,12379,-0.005,-0.952,-0.172,0.122,0,1.22,64.887
134615,151850,22412,-0.005,-0.952,-0.172,0.122,0,1.22,64.891
134615,151868,12379,-0.001,-0.955,-0.171,0.305,0.549,0.122,64.897
134646,151850,22412,-0.001,-0.955,-0.171,0.305,0.549,0.122,64.901
134646,151864,12373,0.001,-0.949,-0.176,0.183,0.61,-0.122,64.907
134652,151850,22412,0.001,-0.949,-0.176,0.183,0.61,-0.122,64.91
134652,151903,12377,0.004,-0.947,-0.165,0,0.854,-0.183,64.917
134692,151850,22412,0.004,-0.947,-0.165,0,0.854,-0.183,64.92
134692,151954,12388,0,-0.951,-0.171,0,0.793,0.244,64.926
134699,151850,22412,0,-0.951,-0.171,0,0.793,0.244,64.93
134699,151926,12390,0.002,-0.946,-0.158,-0.793,0.305,0.732,64.936
134693,151850,22412,0.002,-0.946,-0.158,-0.793,0.305,0.732,64.94
134693,151955,12375,0.004,-0.952,-0.175,-1.951,-0.061,0.793,64.946
134647,151850,22412,0.004,-0.952,-0.175,-1.951,-0.061,0.793,64.95
134647,151877,12375,-0.005,-0.955,-0.183,-2.134,-0.366,1.22,64.956
134590,151850,22412,-0.005,-0.955,-0.183,-2.134,-0.366,1.22,64.96
134590,151837,12370,-0.005,-0.956,-0.176,-1.037,-0.122,0.61,64.966
134546,151850,22412,-0.005,-0.956,-0.176,-1.037,-0.122,0.61,64.97
134546,151825,12374,0.006,-0.95,-0.172,-0.183,0.244,-0.183,64.976
134522,151594,22412,0.006,-0.95,-0.172,-0.183,0.244,-0.183,64.98
134522,151782,12347,-0.003,-0.953,-0.185,-0.305,0.549,0,64.986
134537,151850,22412,-0.003,-0.953,-0.185,-0.305,0.549,0,64.99
134537,151815,12377,-0.005,-0.951,-0.168,-0.305,0.549,0,64.996
134549,151594,22412,0.006,-0.939,-0.165,0.61,0.549,0.122,65
134549,151805,12359,0.008,-0.941,-0.168,0.61,0.549,0.122,65.006
134561,151850,22412,0.006,-0.946,-0.163,-0.183,0.427,0.244,65.009
134561,151849,12353,0.005,-0.952,-0.16,-0.183,0.427,0.244,65.016
134555,151850,22412,0.001,-0.949,-0.174,-1.28,-0.122,1.524,65.019
134555,151815,12369,-0.004,-0.951,-0.182,-1.28,-0.122,1.524,65.026
134516,151594,22412,-0.001,-0.95,-0.174,-1.707,-0.427,1.89,65.029
134516,151794,12353,-0.001,-0.948,-0.167,-1.707,-0.427,1.89,65.035
134481,151594,22412,-0.001,-0.953,-0.173,-0.732,-0.366,1.585,65.039
134481,151747,12348,-0.01,-0.96,-0.177,-0.732,-0.366,1.585,65.045
134418,151594,22412,-0.007,-0.957,-0.183,-0.671,-0.122,1.341,65.049
134418,151702,12343,-0.009,-0.958,-0.183,-0.671,-0.122,1.341,65.055
134374,151594,22412,-0.009,-0.957,-0.177,0.122,0.427,0.366,65.059
134374,151685,12340,-0.006,-0.949,-0.167,0.122,0.427,0.366,65.065
134371,151594,22412,0.002,-0.943,-0.155,0.915,0.976,-0.549,65.069
134371,151678,12337,0.005,-0.946,-0.151,0.915,0.976,-0.549,65.075
134362,151594,22412,0.003,-0.953,-0.169,-1.098,0.488,-0.366,65.079
134362,151659,12333,-0,-0.952,-0.182,-1.098,0.488,-0.366,65.085
134377,151594,22412,-0.003,-0.944,-0.174,-2.683,-0.122,0.61,65.089
134377,151679,12353,0.002,-0.943,-0.162,-2.683,-0.122,0.61,65.095
134408,151594,22412,0.009,-0.945,-0.165,-1.829,-0.122,0.488,65.099
134408,151694,12320,0.005,-0.948,-0.182,-1.829,-0.122,0.488,65.105
134407,151594,22412,-0.002,-0.948,-0.192,-2.683,-0.122,0.915,65.108
134407,151702,12357,-0.006,-0.954,-0.188,-2.683,-0.122,0.915,65.115
134436,151594,22412,-0.008,-0.955,-0.18,-1.341,-0.183,1.22,65.118
134436,151714,12328,-0,-0.946,-0.176,-1.341,-0.183,1.22,65.125
134413,151594,22412,0.002,-0.953,-0.181,0.061,0.183,0.427,65.128
134413,151704,12338,-0.004,-0.96,-0.186,0.061,0.183,0.427,65.134
134402,151594,22412,-0.01,-0.954,-0.18,0.488,0.427,0.244,65.138
134402,151687,12358,-0.01,-0.95,-0.172,0.488,0.427,0.244,65.144
134373,151594,22412,-0.001,-0.946,-0.164,0.976,0.549,-0.305,65.148
134373,151704,12330,0.007,-0.945,-0.171,0.976,0.549,-0.305,65.154
134390,151594,22412,0.003,-0.952,-0.178,0.122,0.671,-0.732,65.158
134390,151702,12344,-0.004,-0.952,-0.178,0.122,0.671,-0.732,65.164
134383,151594,22412,-0.002,-0.948,-0.174,0,0.549,0,65.168
134383,151722,12346,0.002,-0.944,-0.165,0,0.549,0,65.174
134410,151594,22412,0.003,-0.945,-0.158,0.244,0.61,0.122,65.178
134410,151720,12338,0.011,-0.948,-0.166,0.244,0.61,0.122,65.184
134415,151594,22412,0.005,-0.949,-0.174,-1.159,0.366,0.427,65.188
134415,151731,12353,-0.004,-0.956,-0.175,-1.159,0.366,0.427,65.194
134431,151594,22412,-0.005,-0.952,-0.177,-1.829,-0.061,1.159,65.198
134431,151714,12343,-0.001,-0.947,-0.183,-1.829,-0.061,1.159,65.204
134420,151594,22412,-0.001,-0.949,-0.179,-0.976,0,0.671,65.207
134420,151704,12324,-0.004,-0.959,-0.172,-0.976,0,0.671,65.214
134354,151594,22412,-0.008,-0.956,-0.174,0.244,0.244,0.244,65.217
134354,151691,12331,-0.004,-0.95,-0.182,0.244,0.244,0.244,65.224
134334,151594,22412,-0.002,-0.948,-0.178,-0.122,0.549,-0.549,65.227
134334,151656,12311,0.001,-0.949,-0.173,-0.122,0.549,-0.549,65.233
134299,151594,22412,0.007,-0.948,-0.178,0.61,0.732,-1.037,65.237
134299,151635,12298,0.006,-0.944,-0.181,0.61,0.732,-1.037,65.243
134268,151594,22412,0.006,-0.944,-0.167,0.793,0.549,-0.366,65.247
134268,151623,12322,0.003,-0.946,-0.159,0.793,0.549,-0.366,65.253
134293,151594,22412,0.002,-0.949,-0.163,0.427,0.366,0.549,65.257
134293,151628,12309,0.005,-0.952,-0.178,0.427,0.366,0.549,65.263
134342,151594,22412,-0.004,-0.95,-0.193,-1.098,0.122,1.159,65.267
134342,151647,12323,-0.007,-0.951,-0.185,-1.098,0.122,1.159,65.273
134348,151594,22412,0.002,-0.948,-0.175,0.427,0.244,1.037,65.277
134348,151672,12326,0.006,-0.948,-0.174,0.427,0.244,1.037,65.283
134325,151594,22412,-0,-0.951,-0.174,1.829,0.732,0.61,65.287
134325,151667,12330,-0.007,-0.958,-0.169,1.829,0.732,0.61,65.293
134336,151594,22412,-0.009,-0.955,-0.171,1.28,0.671,0.793,65.297
134336,151658,12316,-0.003,-0.957,-0.173,1.28,0.671,0.793,65.303
134272,151594,22412,-0.002,-0.954,-0.17,0.549,0.793,-0.183,65.307
134272,151628,12316,-0,-0.948,-0.17,0.549,0.793,-0.183,65.313
134263,151594,22412,0.003,-0.947,-0.165,0.366,0.976,-0.915,65.316
134263,151635,12313,0.007,-0.941,-0.161,0.366,0.976,-0.915,65.323
134272,151594,22412,0.007,-0.941,-0.163,-0.183,0.732,-0.671,65.326
134272,151615,12325,0.006,-0.946,-0.171,-0.183,0.732,-0.671,65.332
134294,151594,22412,0.006,-0.946,-0.177,-0.915,0.427,0.244,65.336
134294,151644,12324,0.006,-0.947,-0.164,-0.915,0.427,0.244,65.342
134292,151594,22412,0.011,-0.944,-0.156,-0.976,0.122,0.915,65.346
134292,151626,12317,0.006,-0.948,-0.168,-0.976,0.122,0.915,65.352
134309,151594,22412,-0,-0.953,-0.182,-2.195,-0.305,1.829,65.356
134309,151652,12310,-0.01,-0.957,-0.185,-2.195,-0.305,1.829,65.362
134299,151594,22412,-0.006,-0.955,-0.183,-2.256,-0.488,2.134,65.366
134299,151635,12328,-0.002,-0.952,-0.191,-2.256,-0.488,2.134,65.372
134281,151594,22412,-0.006,-0.956,-0.193,-0.61,0.122,1.098,65.376
134281,151634,12317,-0.011,-0.959,-0.184,-0.61,0.122,1.098,65.382
134265,151594,22412,-0.01,-0.955,-0.179,1.585,0.854,0.244,65.386
134265,151599,12311,-0.004,-0.953,-0.18,1.585,0.854,0.244,65.392
134241,151594,22412,0.001,-0.946,-0.175,2.378,1.22,-0.854,65.396
134241,151603,12311,0.005,-0.949,-0.167,2.378,1.22,-0.854,65.402
134237,151594,22412,0.007,-0.946,-0.165,2.195,1.22,-0.976,65.405
134237,151586,12318,0.005,-0.943,-0.162,2.195,1.22,-0.976,65.412
134270,151594,22412,0.005,-0.941,-0.16,0.976,0.793,-0.122,65.415
134270,151609,12300,0.006,-0.944,-0.163,0.976,0.793,-0.122,65.422
134256,151594,22412,0.005,-0.948,-0.164,-0.305,0.244,0.732,65.425
134256,151636,12327,0.003,-0.945,-0.165,-0.305,0.244,0.732,65.431
134315,151594,22412,0.001,-0.948,-0.175,-1.585,-0.122,1.28,65.435
134315,151647,12343,-0.004,-0.957,-0.185,-1.585,-0.122,1.28,65.441
134356,151594,22412,-0.013,-0.961,-0.177,-1.646,-0.244,1.707,65.445
134356,151725,12335,-0.015,-0.961,-0.166,-1.646,-0.244,1.707,65.451
134335,151594,22412,-0.015,-0.961,-0.166,-1.646,-0.244,1.707,65.455
134335,151696,12331,-0.001,-0.949,-0.181,-1.22,-0.061,0.671,65.461
134334,151594,22412,-0.001,-0.949,-0.181,-1.22,-0.061,0.671,65.465
134334,151674,12322,-0.004,-0.952,-0.186,-1.951,0.366,-0.793,65.471
134323,151594,22412,-0.004,-0.952,-0.186,-1.951,0.366,-0.793,65.475
134323,151673,12328,0.003,-0.944,-0.177,-0.793,0.732,-1.037,65.481
134319,151594,22412,0.003,-0.944,-0.177,-0.793,0.732,-1.037,65.485
134319,151679,12330,0.006,-0.943,-0.172,1.159,1.037,-0.915,65.491
134312,151594,22412,0.006,-0.943,-0.172,1.159,1.037,-0.915,65.495
134312,151676,12333,0.005,-0.946,-0.174,1.098,0.854,-0.244,65.501
134376,151594,22412,0.005,-0.946,-0.174,1.098,0.854,-0.244,65.505
134376,151701,12364,0.003,-0.942,-0.17,1.037,0.61,0.854,65.511
134375,151594,22412,0.003,-0.942,-0.17,1.037,0.61,0.854,65.514
134375,151695,12330,0.005,-0.952,-0.166,1.22,0.488,1.463,65.521
134375,151594,22412,0.005,-0.952,-0.166,1.22,0.488,1.463,65.524
134375,151703,12339,-0.006,-0.959,-0.171,0.915,0.427,1.768,65.53
134377,151594,22412,-0.006,-0.959,-0.171,0.915,0.427,1.768,65.534
134377,151718,12339,-0.007,-0.954,-0.173,0.427,0.183,1.707,65.54
134389,151594,22412,-0.007,-0.954,-0.173,0.427,0.183,1.707,65.544
134389,151723,12335,-0.001,-0.958,-0.176,0.61,0.366,0.549,65.55
134402,151594,22412,-0.001,-0.958,-0.176,0.61,0.366,0.549,65.554
134402,151739,12345,-0.003,-0.955,-0.181,0.915,0.793,-0.427,65.56
134433,151594,22412,-0.003,-0.955,-0.181,0.915,0.793,-0.427,65.564
134433,151772,12348,0.001,-0.943,-0.158,1.707,1.037,-0.671,65.57
134440,151594,22412,0.001,-0.943,-0.158,1.707,1.037,-0.671,65.574
134440,151765,12341,0.01,-0.942,-0.17,1.524,1.159,-1.037,65.58
134470,151594,22412,0.01,-0.942,-0.17,1.524,1.159,-1.037,65.584
134470,151780,12362,0.001,-0.945,-0.169,-0.305,0.732,-0.244,65.59
134510,151594,22412,0.001,-0.945,-0.169,-0.305,0.732,-0.244,65.594
134510,151799,12365,0.001,-0.943,-0.171,-0.427,0.366,0.61,65.6
134484,151850,22412,0.001,-0.945,-0.17,-0.427,0.366,0.61,65.604
134484,151808,12352,-0.001,-0.946,-0.164,-0.122,0.244,0.854,65.61
134480,151594,22412,0.002,-0.948,-0.164,-0.122,0.244,0.854,65.613
134480,151806,12363,0.006,-0.948,-0.172,-0.427,0.061,0.854,65.62
134438,151594,22412,0.001,-0.954,-0.183,-0.427,0.061,0.854,65.623
134438,151761,12349,-0.005,-0.955,-0.187,-0.427,0.122,1.098,65.63
134403,151594,22412,-0.01,-0.955,-0.178,-0.427,0.122,1.098,65.633
134403,151750,12339,-0.005,-0.953,-0.172,1.28,0.549,0.793,65.639
134371,151594,22412,-0.002,-0.951,-0.174,1.28,0.549,0.793,65.643
134371,151746,12349,-0.003,-0.953,-0.176,1.524,0.976,-0.122,65.649
134384,151594,22412,-0.001,-0.95,-0.166,1.524,0.976,-0.122,65.653
134384,151720,12340,0.006,-0.944,-0.155,1.524,0.854,-0.488,65.659
134390,151594,22412,0.01,-0.945,-0.156,1.524,0.854,-0.488,65.663
134390,151722,12344,0.002,-0.949,-0.171,0.244,0.427,0.244,65.669
134433,151594,22412,-0.004,-0.951,-0.173,0.244,0.427,0.244,65.673
134433,151766,12357,-0.005,-0.95,-0.162,-0.793,0.183,0.915,65.679
134454,151594,22412,0.002,-0.951,-0.163,-0.793,0.183,0.915,65.683
134454,151759,12345,0.002,-0.95,-0.17,-1.159,0,0.488,65.689
134449,151850,22412,-0,-0.953,-0.185,-1.159,0,0.488,65.693
134449,151814,12354,-0.003,-0.953,-0.176,-1.402,0.183,0.488,65.699
134460,151594,22412,-0.001,-0.949,-0.162,-1.402,0.183,0.488,65.703
134460,151785,12357,0.003,-0.946,-0.167,-0.366,0.366,0.183,65.709
134425,151594,22412,0.006,-0.949,-0.181,-0.366,0.366,0.183,65.712
134425,151785,12362,0.001,-0.951,-0.18,-0.793,0.366,0.244,65.719
134410,151594,22412,-0.004,-0.95,-0.178,-0.793,0.366,0.244,65.722
134410,151759,12351,-0.003,-0.948,-0.175,-0.122,0.366,0.488,65.729
134396,151594,22412,0.002,-0.946,-0.173,-0.122,0.366,0.488,65.732
134396,151723,12349,0.004,-0.951,-0.173,0.732,0.549,0.427,65.738
134372,151594,22412,0.001,-0.954,-0.177,0.732,0.549,0.427,65.742
134372,151727,12348,0,-0.95,-0.179,0.854,0.549,0.671,65.748
134395,151594,22412,-0.001,-0.952,-0.17,0.854,0.549,0.671,65.752
134395,151755,12339,-0,-0.956,-0.159,0.793,0.488,0.671,65.758
134383,151594,22412,0.001,-0.951,-0.153,0.793,0.488,0.671,65.762
134383,151746,12357,-0.001,-0.95,-0.152,-0.183,0.061,0.671,65.768
134393,151594,22412,0.001,-0.953,-0.172,-0.183,0.061,0.671,65.772
134393,151727,12360,-0.005,-0.96,-0.181,-2.439,-0.305,0.976,65.778
134364,151594,22412,-0.012,-0.958,-0.171,-2.439,-0.305,0.976,65.782
134364,151741,12345,-0,-0.947,-0.163,-2.256,-0.427,0.61,65.788
134347,151594,22412,0.007,-0.944,-0.17,-2.256,-0.427,0.61,65.792
134347,151700,12342,0.009,-0.948,-0.181,-1.829,0,0,65.798
134312,151594,22412,0.002,-0.953,-0.185,-1.829,0,0,65.802
134312,151687,12338,-0.008,-0.953,-0.187,-0.915,0.183,0.915,65.808
134292,151594,22412,-0.011,-0.954,-0.18,-0.915,0.183,0.915,65.811
134292,151660,12321,-0.007,-0.951,-0.166,0.976,0.427,0.915,65.818
134301,151594,22412,-0.001,-0.948,-0.166,0.976,0.427,0.915,65.821
134301,151664,12330,0.006,-0.951,-0.174,1.037,0.732,0.183,65.828
134331,151594,22412,-0.002,-0.953,-0.17,1.037,0.732,0.183,65.831
134331,151710,12342,0.002,-0.949,-0.162,0.183,0.549,0.427,65.837
134388,151594,22412,0.004,-0.946,-0.158,0.183,0.549,0.427,65.841
134388,151717,12339,0.004,-0.947,-0.162,-0.915,0.244,0.732,65.847
134396,151594,22412,-0.001,-0.95,-0.168,-0.915,0.244,0.732,65.851
134396,151738,12354,-0.005,-0.955,-0.178,-2.561,-0.183,1.098,65.857
134439,151594,22412,-0.007,-0.956,-0.183,-2.561,-0.183,1.098,65.861
134439,151783,12344,-0.003,-0.95,-0.18,-2.866,-0.244,0.793,65.867
134474,151594,22412,-0.002,-0.952,-0.176,-2.866,-0.244,0.793,65.871
134474,151789,12354,-0.001,-0.952,-0.182,-1.524,0.183,0,65.877
134474,151594,22412,-0.002,-0.949,-0.183,-1.524,0.183,0,65.881
134474,151793,12354,-0.005,-0.95,-0.186,-0.488,0.427,-0.183,65.887
134466,151594,22412,-0.007,-0.95,-0.182,-0.488,0.427,-0.183,65.891
134466,151792,12350,-0.002,-0.947,-0.177,0.427,0.732,-0.427,65.897
134487,151594,22412,0.004,-0.944,-0.169,0.427,0.732,-0.427,65.901
134487,151802,12357,0.006,-0.944,-0.169,1.22,0.976,-0.61,65.907
134474,151594,22412,0.002,-0.949,-0.169,1.22,0.976,-0.61,65.911
134474,151802,12361,-0,-0.948,-0.167,0.915,0.549,0.244,65.917
134512,151850,22412,0,-0.948,-0.167,0.915,0.549,0.244,65.92
134512,151833,12356,0.003,-0.946,-0.165,0,0.305,0.671,65.927
134527,151850,22412,-0,-0.948,-0.152,0,0.305,0.671,65.93
134527,151824,12360,0.003,-0.95,-0.157,-1.159,0.061,0.61,65.936
134490,151850,22412,0,-0.951,-0.177,-1.159,0.061,0.61,65.94
134490,151832,12369,-0.005,-0.953,-0.192,-3.049,-0.305,0.976,65.946
134512,151850,22412,-0.009,-0.959,-0.185,-3.049,-0.305,0.976,65.95
134512,151815,12358,-0.004,-0.955,-0.179,-1.951,-0.244,0.549,65.956
134475,151594,22412,0.004,-0.946,-0.192,-1.951,-0.244,0.549,65.96
134475,151800,12352,-0.001,-0.955,-0.188,-0.427,0.549,-0.305,65.966
134496,151850,22412,-0.006,-0.958,-0.174,-0.427,0.549,-0.305,65.97
134496,151812,12355,-0.003,-0.947,-0.168,1.098,0.793,-0.427,65.976
134454,151594,22412,0.006,-0.944,-0.171,1.098,0.793,-0.427,65.98
134454,151790,12365,0.007,-0.948,-0.178,1.159,0.915,-0.488,65.986
134448,151594,22412,0.006,-0.952,-0.183,1.159,0.915,-0.488,65.99
134448,151799,12329,0,-0.947,-0.179,1.28,0.854,0.183,65.996
134452,151594,22412,-0,-0.946,-0.172,1.28,0.854,0.183,66
134452,151797,12351,0.003,-0.948,-0.173,2.073,0.732,0.488,66.006
134443,151594,22412,0,-0.947,-0.173,2.073,0.732,0.488,66.009
134443,151765,12340,0.004,-0.948,-0.176,2.134,0.854,0.549,66.016
134422,151594,22412,-0.002,-0.957,-0.173,2.134,0.854,0.549,66.019
134422,151783,12356,-0.002,-0.955,-0.177,2.256,0.854,0.793,66.026
134438,151594,22412,-0.003,-0.951,-0.179,2.256,0.854,0.793,66.029
134438,151788,12344,-0.004,-0.957,-0.173,2.622,1.159,0.488,66.035
134407,151594,22412,-0.005,-0.96,-0.167,2.622,1.159,0.488,66.039
134407,151756,12327,-0.005,-0.956,-0.162,3.049,1.402,-0.305,66.045
134400,151594,22412,-0.005,-0.956,-0.162,3.049,1.402,-0.305,66.049
134400,151778,12348,-0.003,-0.951,-0.173,1.89,1.402,-1.037,66.055
134401,151594,22412,-0.003,-0.951,-0.173,1.89,1.402,-1.037,66.059
134401,151730,12354,-0.003,-0.947,-0.161,1.037,1.463,-1.037,66.065
134380,151594,22412,-0.003,-0.947,-0.161,1.037,1.463,-1.037,66.069
134380,151735,12344,0.008,-0.942,-0.162,0.488,1.28,-0.732,66.075
134403,151594,22412,0.008,-0.942,-0.162,0.488,1.28,-0.732,66.079
134403,151743,12340,0.005,-0.941,-0.158,-0.61,0.793,-0.122,66.085
134419,151594,22412,0.005,-0.941,-0.158,-0.61,0.793,-0.122,66.089
134419,151757,12345,0.005,-0.946,-0.16,-1.402,0.122,0.915,66.095
134417,151594,22412,0.005,-0.946,-0.16,-1.402,0.122,0.915,66.099
134417,151770,12351,0.001,-0.948,-0.168,-2.317,-0.427,1.951,66.105
134434,151594,22412,0.001,-0.948,-0.168,-2.317,-0.427,1.951,66.109
134434,151768,12344,-0.001,-0.957,-0.181,-2.378,-0.671,2.073,66.115
134419,151594,22412,-0.001,-0.957,-0.181,-2.378,-0.671,2.073,66.118
134419,151764,12328,-0.012,-0.967,-0.188,-1.585,-0.427,1.463,66.125
134389,151594,22412,-0.012,-0.967,-0.188,-1.585,-0.427,1.463,66.128
134389,151715,12342,-0.008,-0.955,-0.178,-0.244,0.366,0,66.134
134369,151594,22412,-0.008,-0.955,-0.178,-0.244,0.366,0,66.138
134369,151723,12340,0.006,-0.95,-0.176,0.61,1.098,-1.463,66.144
134348,151594,22412,0.006,-0.95,-0.176,0.61,1.098,-1.463,66.148
134348,151740,12334,0.005,-0.939,-0.169,1.037,1.037,-1.22,66.154
134361,151594,22412,0.005,-0.939,-0.169,1.037,1.037,-1.22,66.158
134361,151744,12335,0.008,-0.943,-0.165,0.671,0.793,-0.061,66.164
134371,151594,22412,0.008,-0.943,-0.165,0.671,0.793,-0.061,66.168
134371,151772,12346,0.001,-0.945,-0.151,-0.244,0.244,1.037,66.174
134373,151594,22412,0.001,-0.945,-0.151,-0.244,0.244,1.037,66.178
134373,151766,12352,0.01,-0.946,-0.172,-1.768,-0.427,1.463,66.184
134387,151594,22412,0.01,-0.946,-0.172,-1.768,-0.427,1.463,66.188
134387,151760,12344,0.002,-0.954,-0.188,-1.768,-0.427,1.463,66.194
134386,151594,22412,-0.011,-0.961,-0.181,-2.805,-0.732,2.195,66.198
134386,151752,12354,-0.008,-0.956,-0.174,-2.805,-0.732,2.195,66.204
134330,151594,22412,-0.004,-0.951,-0.18,-1.037,-0.488,1.585,66.208
134330,151720,12331,-0.004,-0.955,-0.187,-1.037,-0.488,1.585,66.214
134273,151594,22412,-0.005,-0.957,-0.18,-0.183,0.305,0.427,66.217
134273,151709,12336,-0.001,-0.952,-0.178,-0.183,0.305,0.427,66.224
134284,151594,22412,-0.003,-0.956,-0.18,0.671,0.671,-0.061,66.227
134284,151693,12318,-0.01,-0.957,-0.171,0.671,0.671,-0.061,66.234
134283,151594,22412,-0.006,-0.944,-0.157,1.159,0.732,-0.427,66.237
134283,151671,12329,0.006,-0.936,-0.155,1.159,0.732,-0.427,66.243
134321,151594,22412,0.011,-0.939,-0.168,-0.366,0.671,-0.793,66.247
134321,151724,12329,0.005,-0.945,-0.171,-0.366,0.671,-0.793,66.253
134350,151594,22412,0.002,-0.947,-0.165,-2.012,0.244,0.366,66.257
134350,151734,12337,-0.003,-0.948,-0.17,-2.012,0.244,0.366,66.263
134417,151594,22412,-0.006,-0.951,-0.173,-2.256,-0.122,1.22,66.267
134417,151788,12347,-0.005,-0.954,-0.177,-2.256,-0.122,1.22,66.273
134462,151850,22412,-0.002,-0.953,-0.179,-1.89,-0.061,0.732,66.277
134462,151808,12353,-0.002,-0.952,-0.174,-1.89,-0.061,0.732,66.283
134466,151850,22412,-0.001,-0.954,-0.169,-0.732,0.061,0.183,66.287
134466,151842,12372,0.001,-0.951,-0.178,-0.732,0.061,0.183,66.293
134503,151850,22412,-0.005,-0.957,-0.197,-0.488,0.244,0.244,66.297
134503,151853,12371,-0.011,-0.956,-0.194,-0.488,0.244,0.244,66.303
134497,151850,22412,-0.008,-0.951,-0.175,1.463,0.793,-0.244,66.307
134497,151865,12354,0.007,-0.945,-0.162,1.463,0.793,-0.244,66.313
134553,151850,22412,0.012,-0.942,-0.169,3.11,1.22,-1.341,66.316
134553,151906,12368,0.01,-0.949,-0.173,3.11,1.22,-1.341,66.323
134567,151850,22412,0.002,-0.951,-0.172,1.951,1.28,-0.488,66.326
134567,151878,12385,0.001,-0.949,-0.167,1.951,1.28,-0.488,66.333
134584,151850,22412,-0.004,-0.948,-0.162,1.524,0.915,0.427,66.336
134584,151929,12392,-0.002,-0.949,-0.16,1.524,0.915,0.427,66.342
134616,151850,22412,0.006,-0.947,-0.161,1.28,0.854,0.183,66.346
134616,151930,12366,0.01,-0.947,-0.159,1.28,0.854,0.183,66.352
134592,151850,22412,0.005,-0.951,-0.163,-0.427,0.244,0.61,66.356
134592,151925,12380,-0.004,-0.955,-0.169,-0.427,0.244,0.61,66.362
134568,151850,22412,-0.011,-0.953,-0.159,-1.829,-0.305,1.524,66.366
134568,151905,12356,-0.004,-0.952,-0.161,-1.829,-0.305,1.524,66.372
134507,151850,22412,0.005,-0.952,-0.186,-2.744,-0.366,0.671,66.376
134507,151838,12361,-0.001,-0.955,-0.196,-2.744,-0.366,0.671,66.382
134448,151594,22412,-0.003,-0.952,-0.189,-1.646,-0.122,0.122,66.386
134448,151806,12361,-0.001,-0.948,-0.18,-1.646,-0.122,0.122,66.392
134436,151850,22412,0.002,-0.949,-0.177,1.22,0.427,-0.122,66.396
134436,151818,12363,-0.001,-0.948,-0.175,1.22,0.427,-0.122,66.402
134431,151850,22412,0.003,-0.947,-0.176,2.5,0.915,-0.488,66.406
134431,151817,12345,0,-0.952,-0.172,2.5,0.915,-0.488,66.412
134461,151850,22412,0.001,-0.949,-0.168,2.561,0.976,-0.122,66.415
134461,151839,12382,-0,-0.948,-0.168,2.561,0.976,-0.122,66.422
134553,151850,22412,-0.001,-0.947,-0.163,2.073,0.915,0.244,66.425
134553,151908,12360,0.004,-0.945,-0.152,2.073,0.915,0.244,66.432
134571,151850,22412,0.007,-0.947,-0.151,0.915,0.671,0.488,66.435
134571,151914,12378,0.004,-0.951,-0.161,0.915,0.671,0.488,66.441
134577,151850,22412,-0.007,-0.956,-0.157,-1.341,0.122,1.159,66.445
134577,151933,12371,-0.007,-0.956,-0.153,-1.341,0.122,1.159,66.451
134530,151850,22412,-0.002,-0.949,-0.169,-3.11,-0.305,1.037,66.455
134530,151849,12373,-0.003,-0.954,-0.187,-3.11,-0.305,1.037,66.461
134453,151850,22412,-0.006,-0.958,-0.19,-3.659,-0.244,0.305,66.465
134453,151826,12363,-0.003,-0.951,-0.178,-3.659,-0.244,0.305,66.471
134427,151594,22412,0.004,-0.943,-0.172,-1.402,0.061,-0.305,66.475
134427,151795,12357,0.007,-0.948,-0.175,-1.402,0.061,-0.305,66.481
134406,151594,22412,0.003,-0.952,-0.17,-0.366,0.427,-0.366,66.485
134406,151773,12345,0.003,-0.949,-0.174,-0.366,0.427,-0.366,66.491
134399,151594,22412,0.004,-0.945,-0.182,-0.61,0.427,0.366,66.495
134399,151774,12343,0.001,-0.948,-0.178,-0.61,0.427,0.366,66.501
134424,151850,22412,0,-0.948,-0.178,-0.305,0.427,0.793,66.505
134424,151821,12373,0,-0.944,-0.179,-0.305,0.427,0.793,66.511
134460,151850,22412,0.005,-0.943,-0.169,0.488,0.488,0.915,66.514
134460,151842,12361,0.006,-0.946,-0.152,0.488,0.488,0.915,66.521
134495,151850,22412,0.004,-0.946,-0.156,0.244,0.061,1.524,66.524
134495,151843,12364,-0.002,-0.948,-0.172,0.244,0.061,1.524,66.531
134465,151850,22412,-0.005,-0.96,-0.174,-1.89,-0.305,2.073,66.534
134465,151836,12356,-0.008,-0.957,-0.178,-1.89,-0.305,2.073,66.54
134476,151850,22412,-0.009,-0.957,-0.183,-1.829,-0.305,1.402,66.544
134476,151814,12351,-0.009,-0.955,-0.175,-1.829,-0.305,1.402,66.55
134433,151594,22412,0.001,-0.947,-0.166,-0.732,0.183,-0.061,66.554
134433,151797,12340,0.007,-0.951,-0.175,-0.732,0.183,-0.061,66.56
134402,151594,22412,0.001,-0.956,-0.183,-0.549,0.61,-0.366,66.564
134402,151793,12359,-0.006,-0.951,-0.178,-0.549,0.61,-0.366,66.57
134444,151850,22412,-0.001,-0.944,-0.17,0,0.671,0.244,66.574
134444,151809,12351,0.005,-0.947,-0.162,0,0.671,0.244,66.58
134447,151850,22412,0.007,-0.948,-0.158,0.061,0.61,0.183,66.584
134447,151824,12371,0.004,-0.946,-0.165,0.061,0.61,0.183,66.59
134472,151850,22412,0.002,-0.946,-0.173,-1.585,0.183,0.854,66.594
134472,151858,12361,0.001,-0.948,-0.173,-1.585,0.183,0.854,66.6
134522,151850,22412,0.003,-0.943,-0.171,-2.073,-0.305,1.463,66.604
134522,151890,12379,0.004,-0.949,-0.18,-2.073,-0.305,1.463,66.61
134567,151850,22412,-0.004,-0.96,-0.189,-1.402,-0.305,1.585,66.613
134567,151903,12355,-0.007,-0.962,-0.198,-1.402,-0.305,1.585,66.62
134573,151850,22412,-0.012,-0.961,-0.192,0.244,0.305,1.28,66.623
134573,151913,12368,-0.01,-0.958,-0.176,0.244,0.305,1.28,66.63
134572,151850,22412,-0.003,-0.951,-0.167,2.683,1.098,-0.244,66.633
134572,151942,12377,0.005,-0.948,-0.168,2.683,1.098,-0.244,66.639
134551,151850,22412,0.005,-0.95,-0.169,2.134,1.341,-1.037,66.643
134551,151873,12360,0,-0.948,-0.169,2.134,1.341,-1.037,66.649
134538,151850,22412,0,-0.948,-0.169,2.134,1.341,-1.037,66.653
134538,151856,12357,0.002,-0.946,-0.17,0.732,0.854,-0.427,66.659
134539,151850,22412,0.002,-0.946,-0.17,0.732,0.854,-0.427,66.663
134539,151864,12378,0.007,-0.941,-0.142,0.244,0.488,0.061,66.669
134565,151850,22412,0.007,-0.941,-0.142,0.244,0.488,0.061,66.673
134565,151886,12371,0.003,-0.949,-0.174,-1.22,0,0.61,66.679
134579,151850,22412,0.003,-0.949,-0.174,-1.22,0,0.61,66.683
134579,151913,12366,-0.013,-0.959,-0.189,-3.841,-0.488,2.073,66.689
134607,151850,22412,-0.013,-0.959,-0.189,-3.841,-0.488,2.073,66.693
134607,151931,12361,-0.002,-0.952,-0.181,-2.805,-0.427,1.707,66.699
134601,151850,22412,-0.002,-0.952,-0.181,-2.805,-0.427,1.707,66.703
134601,151899,12356,-0.006,-0.954,-0.178,-0.854,0.305,0.061,66.709
134572,151850,22412,-0.006,-0.954,-0.178,-0.854,0.305,0.061,66.713
134572,151928,12368,-0.006,-0.953,-0.184,0.549,0.854,-0.427,66.719
134593,151850,22412,-0.006,-0.953,-0.184,0.549,0.854,-0.427,66.722
134593,151901,12345,-0.001,-0.945,-0.163,1.89,1.098,-0.915,66.729
134540,151850,22412,-0.001,-0.945,-0.163,1.89,1.098,-0.915,66.732
134540,151887,12370,0.014,-0.939,-0.175,2.256,1.28,-1.585,66.738
134554,151850,22412,0.014,-0.939,-0.175,2.256,1.28,-1.585,66.742
134554,151898,12370,0.005,-0.947,-0.162,1.402,1.037,-0.61,66.748
134558,151850,22412,0.005,-0.947,-0.162,1.402,1.037,-0.61,66.752
134558,151878,12369,0.003,-0.949,-0.157,1.28,0.427,0.976,66.758
134552,151850,22412,0.003,-0.949,-0.157,1.28,0.427,0.976,66.762
134552,151879,12347,-0.005,-0.957,-0.171,-0.671,0.061,1.524,66.768
134515,151850,22412,-0.005,-0.957,-0.171,-0.671,0.061,1.524,66.772
134515,151898,12370,-0.005,-0.956,-0.175,-2.073,-0.305,1.707,66.778
134532,151850,22412,-0.005,-0.956,-0.175,-2.073,-0.305,1.707,66.782
134532,151909,12368,-0.006,-0.957,-0.186,-2.073,-0.183,0.915,66.788
134528,151850,22412,-0.006,-0.957,-0.186,-2.073,-0.183,0.915,66.792
134528,151863,12360,-0.004,-0.954,-0.177,-1.098,0.183,0,66.798
134465,151850,22412,-0.002,-0.948,-0.174,-1.098,0.183,0,66.802
134465,151866,12352,-0.002,-0.945,-0.176,0.244,0.427,-0.488,66.808
134476,151850,22412,-0.005,-0.951,-0.181,0.244,0.427,-0.488,66.812
134476,151832,12358,-0.003,-0.954,-0.192,0.671,0.793,-0.427,66.818
134470,151850,22412,-0.001,-0.948,-0.188,0.671,0.793,-0.427,66.821
134470,151812,12350,0.003,-0.945,-0.18,2.195,0.976,-0.61,66.828
134460,151850,22412,0.005,-0.945,-0.18,2.195,0.976,-0.61,66.831
134460,151820,12355,0.005,-0.946,-0.181,3.963,1.463,-0.488,66.837
134491,151850,22412,-0.001,-0.956,-0.178,3.963,1.463,-0.488,66.841
134491,151839,12351,-0.004,-0.951,-0.15,4.878,1.829,0.244,66.847
134503,151850,22412,0.003,-0.944,-0.135,4.878,1.829,0.244,66.851
134503,151848,12364,0.001,-0.957,-0.145,3.11,1.402,0.305,66.857
134467,151850,22412,0,-0.961,-0.169,3.11,1.402,0.305,66.861
134467,151861,12341,-0.003,-0.957,-0.178,-0.671,0.854,0.244,66.867
134462,151850,22412,-0.006,-0.956,-0.175,-0.671,0.854,0.244,66.871
134462,151833,12344,-0.004,-0.952,-0.159,-1.159,0.671,-0.488,66.877
134412,151594,22412,0.005,-0.945,-0.153,-1.159,0.671,-0.488,66.881
134412,151778,12366,0.009,-0.942,-0.161,-1.22,0.61,-1.22,66.887
134411,151594,22412,0.009,-0.944,-0.175,-1.22,0.61,-1.22,66.891
134411,151797,12351,0.002,-0.95,-0.193,-2.195,0.122,-0.427,66.897
134461,151850,22412,-0.006,-0.954,-0.189,-2.195,0.122,-0.427,66.901
134461,151821,12345,-0.007,-0.948,-0.174,-0.549,0.183,0.122,66.907
134458,151850,22412,0.001,-0.938,-0.163,-0.549,0.183,0.122,66.911
134458,151833,12374,0.011,-0.941,-0.173,0.793,0.793,-0.732,66.917
134499,151850,22412,0.009,-0.949,-0.179,0.793,0.793,-0.732,66.92
134499,151864,12371,0.002,-0.951,-0.166,0.732,0.976,0,66.927
134528,151850,22412,0,-0.945,-0.159,0.732,0.976,0,66.93
134528,151903,12371,0.008,-0.94,-0.144,0.732,0.366,1.037,66.937
134514,151850,22412,0.01,-0.945,-0.132,0.732,0.366,1.037,66.94
134514,151873,12362,0.009,-0.947,-0.16,-2.317,-0.366,1.585,66.946
134463,151850,22412,-0.002,-0.957,-0.19,-2.317,-0.366,1.585,66.95
134463,151830,12356,-0.013,-0.967,-0.188,-5,-0.854,2.439,66.956
134432,151850,22412,-0.009,-0.958,-0.18,-5,-0.854,2.439,66.96
134432,151826,12340,-0.003,-0.95,-0.179,-2.744,-0.549,1.159,66.966
134431,151594,22412,0.005,-0.946,-0.185,-2.744,-0.549,1.159,66.97
134431,151790,12344,0.004,-0.951,-0.193,-0.854,0.183,-0.183,66.976
134402,151850,22412,-0.002,-0.955,-0.195,-0.854,0.183,-0.183,66.98
134402,151813,12334,-0.008,-0.956,-0.183,1.646,0.61,0.183,66.986
134417,151850,22412,-0.001,-0.95,-0.178,1.646,0.61,0.183,66.99
134417,151828,12350,0.005,-0.94,-0.173,3.659,1.28,-0.061,66.996
134474,151850,22412,0.004,-0.947,-0.17,3.659,1.28,-0.061,67
134474,151904,12361,0.003,-0.951,-0.166,3.537,1.829,-0.061,67.006
134497,151850,22412,-0.002,-0.952,-0.159,3.537,1.829,-0.061,67.01
134497,151896,12371,-0.002,-0.949,-0.152,2.5,1.524,0.732,67.016
134568,151850,22412,-0.002,-0.952,-0.153,2.5,1.524,0.732,67.019
134568,151914,12368,-0.004,-0.951,-0.149,0.183,0.793,0.793,67.026
134553,151850,22412,0.001,-0.949,-0.141,0.183,0.793,0.793,67.029
134553,151888,12365,0.003,-0.949,-0.154,-2.5,-0.183,0.61,67.036
134510,151850,22412,-0.001,-0.953,-0.175,-2.5,-0.183,0.61,67.039
134510,151887,12366,-0.004,-0.955,-0.179,-4.939,-0.732,0.793,67.045
134474,151850,22412,-0.002,-0.953,-0.176,-4.939,-0.732,0.793,67.049
134474,151825,12343,0,-0.952,-0.177,-3.78,-0.854,0.488,67.055
134467,151850,22412,0.001,-0.945,-0.189,-3.78,-0.854,0.488,67.059
134467,151815,12360,0.003,-0.945,-0.191,-2.134,-0.244,0.061,67.065
134435,151850,22412,0.002,-0.953,-0.194,-2.134,-0.244,0.061,67.069
134435,151841,12343,-0.007,-0.96,-0.189,0.244,0.488,0.244,67.075
134439,151850,22412,-0.008,-0.953,-0.179,0.244,0.488,0.244,67.079
134439,151825,12346,-0.001,-0.948,-0.17,2.378,0.976,0,67.085
134478,151850,22412,0.006,-0.942,-0.167,2.378,0.976,0,67.089
134478,151837,12374,0.012,-0.949,-0.167,2.195,1.341,-0.671,67.095
134517,151850,22412,0.006,-0.95,-0.164,2.195,1.341,-0.671,67.099
134517,151884,12373,0.001,-0.948,-0.161,1.341,0.915,0.305,67.105
134560,151850,22412,0.001,-0.953,-0.168,1.341,0.915,0.305,67.109
134560,151916,12375,-0.003,-0.957,-0.176,0.549,0.488,1.037,67.115
134576,151850,22412,-0.003,-0.952,-0.172,0.549,0.488,1.037,67.118
134576,151942,12372,0,-0.952,-0.165,0.427,0.549,0.61,67.125
134557,151850,22412,0.004,-0.951,-0.172,0.427,0.549,0.61,67.128
134557,151909,12367,0.003,-0.949,-0.175,0.244,0.427,0.122,67.135
134574,151850,22412,0.002,-0.951,-0.17,0.244,0.427,0.122,67.138
134574,151924,12374,-0,-0.954,-0.174,0.061,0.427,0.427,67.144
134598,151850,22412,-0.003,-0.953,-0.176,0.061,0.427,0.427,67.148
134598,151942,12372,-0.002,-0.948,-0.169,0.122,0.427,0.244,67.154
134568,151850,22412,0.003,-0.949,-0.172,0.122,0.427,0.244,67.158
134568,151907,12371,0,-0.954,-0.177,0.183,0.61,-0.305,67.164
134566,151850,22412,-0.002,-0.949,-0.167,0.183,0.61,-0.305,67.168
134566,151917,12383,0.003,-0.946,-0.156,0.366,0.793,-0.427,67.174
134595,151850,22412,0.006,-0.944,-0.168,0.366,0.793,-0.427,67.178
134595,151931,12367,0.005,-0.945,-0.178,-0.549,0.427,-0.244,67.184
134576,151850,22412,0.002,-0.949,-0.174,-0.549,0.427,-0.244,67.188
134576,151937,12388,0.002,-0.947,-0.166,-0.427,0.305,0.549,67.194
134619,151850,22412,0.008,-0.944,-0.169,-0.427,0.305,0.549,67.198
134619,151960,12381,0.006,-0.948,-0.18,0.183,0.183,1.037,67.204
134583,151850,22412,0,-0.953,-0.177,0.183,0.183,1.037,67.208
134583,151937,12386,-0.003,-0.953,-0.174,0.854,0.366,1.585,67.214
134531,151850,22412,-0.004,-0.951,-0.172,0.854,0.366,1.585,67.218
134531,151904,12379,-0.007,-0.958,-0.165,1.829,0.732,1.28,67.224
134525,151850,22412,-0.007,-0.958,-0.159,1.829,0.732,1.28,67.227
134525,151909,12371,-0.004,-0.949,-0.149,1.341,0.793,0.366,67.234
134507,151850,22412,0.004,-0.953,-0.147,1.341,0.793,0.366,67.237
134507,151880,12370,0.002,-0.955,-0.161,-1.28,0.305,0,67.243
134501,151850,22412,0.002,-0.955,-0.161,-1.28,0.305,0,67.247
134501,151876,12360,-0.003,-0.949,-0.173,-3.476,-0.122,0.183,67.253
134517,151850,22412,-0.003,-0.949,-0.173,-3.476,-0.122,0.183,67.257
134517,151915,12380,0.013,-0.94,-0.177,-2.927,-0.122,-0.488,67.263
134551,151850,22412,0.013,-0.94,-0.177,-2.927,-0.122,-0.488,67.267
134551,151938,12365,-0.002,-0.954,-0.194,-1.341,0.183,0.305,67.273
134621,151850,22412,-0.002,-0.954,-0.194,-1.341,0.183,0.305,67.277
134621,151942,12381,-0.005,-0.946,-0.181,1.28,0.427,0.976,67.283
134613,151850,22412,-0.005,-0.946,-0.181,1.28,0.427,0.976,67.287
134613,151991,12396,-0.002,-0.954,-0.173,2.134,1.037,0,67.293
134606,151850,22412,-0.002,-0.954,-0.173,2.134,1.037,0,67.297
134606,151961,12383,0.005,-0.95,-0.172,2.195,1.28,-0.427,67.303
134555,151850,22412,0.005,-0.95,-0.172,2.195,1.28,-0.427,67.307
134555,151893,12367,-0,-0.949,-0.156,1.707,0.915,-0.122,67.313
134495,151850,22412,-0,-0.949,-0.156,1.707,0.915,-0.122,67.316
134495,151898,12366,0.004,-0.952,-0.17,0.488,0.549,0,67.323
134473,151850,22412,0.004,-0.952,-0.17,0.488,0.549,0,67.326
134473,151868,12356,0,-0.945,-0.167,-0.427,0.366,0.183,67.333
134447,151850,22412,0,-0.945,-0.167,-0.427,0.366,0.183,67.336
134447,151813,12360,0.01,-0.947,-0.166,-0.549,0.183,0.427,67.343
134477,151850,22412,0.01,-0.947,-0.166,-0.549,0.183,0.427,67.346
134477,151865,12361,-0.001,-0.955,-0.162,-0.976,-0.183,1.463,67.352
134488,151850,22412,-0.001,-0.955,-0.162,-0.976,-0.183,1.463,67.356
134488,151873,12368,-0.002,-0.957,-0.18,-1.463,-0.183,1.585,67.362
134493,151850,22412,-0.002,-0.957,-0.18,-1.463,-0.183,1.585,67.366
134493,151871,12375,0.006,-0.949,-0.171,-0.244,0.122,0.671,67.372
134518,151850,22412,0.006,-0.949,-0.171,-0.244,0.122,0.671,67.376
134518,151904,12370,0,-0.951,-0.159,0.244,0.549,0.488,67.382
134532,151850,22412,0,-0.951,-0.159,0.244,0.549,0.488,67.386
134532,151879,12379,-0.001,-0.951,-0.169,-0.671,0.366,0.976,67.392
134511,151850,22412,-0.001,-0.951,-0.169,-0.671,0.366,0.976,67.396
134511,151902,12375,-0.004,-0.948,-0.179,-0.671,0.366,0.976,67.402
134523,151850,22412,-0.006,-0.952,-0.171,-1.22,0.244,0.671,67.406
134523,151898,12368,0.001,-0.95,-0.162,-1.22,0.244,0.671,67.412
134554,151850,22412,0.009,-0.944,-0.168,-0.793,0.366,0.061,67.416
134554,151909,12368,0.009,-0.942,-0.168,-0.793,0.366,0.061,67.422
134553,151850,22412,0.004,-0.943,-0.166,-1.28,0.122,0.61,67.425
134553,151932,12370,0,-0.949,-0.171,-1.28,0.122,0.61,67.432
134585,151850,22412,-0.005,-0.95,-0.179,-1.585,-0.366,1.829,67.435
134585,151927,12377,-0,-0.949,-0.18,-1.585,-0.366,1.829,67.441
134600,151850,22412,0.001,-0.954,-0.179,-1.159,-0.244,1.707,67.445
134600,151946,12367,-0.003,-0.954,-0.181,-1.159,-0.244,1.707,67.451
134577,151850,22412,-0.005,-0.955,-0.177,-0.061,0.061,1.28,67.455
134577,151926,12389,-0.006,-0.959,-0.173,-0.061,0.061,1.28,67.461
134604,151850,22412,-0.01,-0.961,-0.181,0.488,0.183,0.793,67.465
134604,151951,12381,-0.012,-0.957,-0.174,0.488,0.183,0.793,67.471
134609,151850,22412,-0.005,-0.948,-0.165,0.915,0.732,-0.366,67.475
134609,151928,12366,0.006,-0.952,-0.17,0.915,0.732,-0.366,67.481
134587,151850,22412,0.001,-0.953,-0.177,0.854,1.098,-1.341,67.485
134587,151946,12368,-0.004,-0.949,-0.163,0.854,1.098,-1.341,67.491
134580,151850,22412,0,-0.946,-0.151,0.671,0.976,-0.915,67.495
134580,151954,12381,0.009,-0.941,-0.155,0.671,0.976,-0.915,67.501
134599,151850,22412,0.011,-0.945,-0.165,-0.549,0.61,-0.427,67.505
134599,151956,12384,0.003,-0.944,-0.165,-0.549,0.61,-0.427,67.511
134600,151850,22412,0,-0.946,-0.17,-1.829,0.061,0.732,67.515
134600,151927,12357,0.004,-0.949,-0.175,-1.829,0.061,0.732,67.521
134572,151850,22412,-0.001,-0.951,-0.171,-1.646,-0.244,1.341,67.524
134572,151919,12365,-0.001,-0.947,-0.17,-1.646,-0.244,1.341,67.531
134564,151850,22412,0,-0.952,-0.176,-0.915,-0.244,1.402,67.534
134564,151910,12378,-0.006,-0.963,-0.179,-0.915,-0.244,1.402,67.541
134543,151850,22412,-0.01,-0.964,-0.176,-0.427,0.061,1.098,67.544
134543,151930,12375,-0.008,-0.951,-0.162,-0.427,0.061,1.098,67.55
134561,151850,22412,0.002,-0.952,-0.171,-0.122,0.366,0,67.554
134561,151928,12370,0.002,-0.959,-0.184,-0.122,0.366,0,67.56
134594,151850,22412,-0.003,-0.954,-0.189,-1.159,0.549,-0.549,67.564
134594,151959,12375,-0.001,-0.947,-0.178,-1.159,0.549,-0.549,67.57
134608,151850,22412,0,-0.947,-0.166,0.183,0.732,-0.671,67.574
134608,151968,12395,0.002,-0.946,-0.162,0.183,0.732,-0.671,67.58
134646,151850,22412,0.006,-0.942,-0.155,0.427,0.793,-0.793,67.584
134646,151995,12401,0.006,-0.943,-0.156,0.427,0.793,-0.793,67.59
134672,151850,22412,0.004,-0.939,-0.16,-1.159,0.183,0,67.594
134672,151985,12391,0.007,-0.94,-0.17,-1.159,0.183,0,67.6
134697,151850,22412,0.005,-0.945,-0.19,-2.439,-0.305,1.159,67.604
134697,152033,12388,-0.005,-0.953,-0.198,-2.439,-0.305,1.159,67.61
134700,151850,22412,-0.009,-0.955,-0.192,-0.732,-0.061,1.646,67.614
134700,152026,12387,-0.007,-0.953,-0.181,-0.732,-0.061,1.646,67.62
134680,151850,22412,-0.002,-0.955,-0.178,2.744,0.732,0.793,67.623
134680,151994,12375,-0.003,-0.958,-0.172,2.744,0.732,0.793,67.63
134658,151850,22412,-0.003,-0.958,-0.164,3.659,1.341,0,67.633
134658,152006,12380,-0.004,-0.955,-0.16,3.659,1.341,0,67.64
134665,151850,22412,-0.001,-0.95,-0.172,2.073,1.159,-0.427,67.643
134665,151981,12412,0.005,-0.948,-0.176,2.073,1.159,-0.427,67.649
134636,151850,22412,0.004,-0.947,-0.16,0.915,1.098,-0.488,67.653
134636,151960,12384,0.005,-0.943,-0.15,0.915,1.098,-0.488,67.659
134638,151850,22412,0.009,-0.941,-0.156,0.671,0.61,-0.061,67.663
134638,151987,12371,0.002,-0.946,-0.165,0.671,0.61,-0.061,67.669
134633,151850,22412,-0.003,-0.949,-0.162,-1.341,0.061,0.854,67.673
134633,151962,12372,-0.004,-0.946,-0.153,-1.341,0.061,0.854,67.679
134616,151850,22412,0.002,-0.948,-0.159,-2.622,-0.305,1.159,67.683
134616,151982,12371,0.002,-0.954,-0.18,-2.622,-0.305,1.159,67.689
134631,151850,22412,-0.008,-0.958,-0.193,-3.537,-0.427,1.402,67.693
134631,151954,12387,-0.013,-0.955,-0.188,-3.537,-0.427,1.402,67.699
134588,151850,22412,-0.005,-0.952,-0.184,-1.463,-0.244,0.976,67.703
134588,151948,12381,0.002,-0.954,-0.179,-1.463,-0.244,0.976,67.709
134563,151850,22412,-0.001,-0.954,-0.182,0.793,0.427,-0.122,67.713
134563,151942,12368,-0.004,-0.954,-0.175,0.793,0.427,-0.122,67.719
134543,151850,22412,-0.001,-0.945,-0.167,2.195,0.793,-0.427,67.722
134543,151939,12370,0.006,-0.945,-0.158,2.195,0.793,-0.427,67.729
134519,151850,22412,0.007,-0.949,-0.153,2.073,0.915,-0.488,67.732
134519,151893,12379,0.006,-0.948,-0.163,2.073,0.915,-0.488,67.739
134521,151850,22412,0.005,-0.949,-0.177,-0.183,0.61,0.183,67.742
134521,151902,12370,-0.001,-0.946,-0.179,-0.183,0.61,0.183,67.748
134533,151850,22412,-0.001,-0.946,-0.168,-0.793,0.366,0.854,67.752
134533,151891,12375,0.004,-0.95,-0.16,-0.793,0.366,0.854,67.758
134552,151850,22412,0.004,-0.952,-0.159,-0.244,0.366,0.915,67.762
134552,151928,12363,0.003,-0.952,-0.172,-0.244,0.366,0.915,67.768
134533,151850,22412,-0.003,-0.953,-0.172,-1.28,0.183,1.159,67.772
134533,151903,12386,-0.004,-0.952,-0.173,-1.28,0.183,1.159,67.778
134505,151850,22412,0.001,-0.949,-0.17,-1.037,0.122,1.098,67.782
134505,151904,12367,0.003,-0.949,-0.168,-1.037,0.122,1.098,67.788
134495,151850,22412,-0,-0.951,-0.163,-0.793,0.183,0.915,67.792
134495,151876,12360,-0.004,-0.951,-0.155,-0.793,0.183,0.915,67.798
134444,151850,22412,-0.002,-0.956,-0.161,-1.585,0,0.915,67.802
134444,151858,12369,-0.008,-0.956,-0.185,-1.585,0,0.915,67.808
134429,151850,22412,-0.009,-0.953,-0.194,-2.683,-0.061,0.61,67.812
134429,151864,12357,-0.004,-0.948,-0.185,-2.683,-0.061,0.61,67.818
134424,151850,22412,0.004,-0.946,-0.179,-0.732,0.366,-0.427,67.821
134424,151827,12363,0.006,-0.947,-0.175,-0.732,0.366,-0.427,67.828
134395,151850,22412,0.003,-0.948,-0.176,0.976,0.671,-0.549,67.831
134395,151816,12364,0,-0.949,-0.177,0.976,0.671,-0.549,67.838
134438,151850,22412,-0.004,-0.954,-0.182,1.463,0.61,0.183,67.841
134438,151888,12365,-0.005,-0.951,-0.178,1.463,0.61,0.183,67.847
134468,151850,22412,-0.005,-0.951,-0.178,1.463,0.61,0.183,67.851
134468,151886,12366,0.004,-0.947,-0.164,1.829,0.793,0.061,67.857
134506,151850,22412,0.004,-0.947,-0.164,1.829,0.793,0.061,67.861
134506,151906,12364,0.005,-0.95,-0.152,2.073,0.976,-0.366,67.867
134490,151850,22412,0.005,-0.95,-0.152,2.073,0.976,-0.366,67.871
134490,151885,12364,0.001,-0.954,-0.157,0.854,0.61,0.366,67.877
134466,151850,22412,0.001,-0.954,-0.157,0.854,0.61,0.366,67.881
134466,151882,12365,-0.005,-0.956,-0.162,-1.829,0,1.159,67.887
134466,151850,22412,-0.005,-0.956,-0.162,-1.829,0,1.159,67.891
134466,151907,12369,0.001,-0.948,-0.178,-3.171,-0.183,0.732,67.897
134496,151850,22412,0.001,-0.948,-0.178,-3.171,-0.183,0.732,67.901
134496,151892,12366,0.004,-0.952,-0.177,-2.988,-0.061,0.183,67.907
134517,151850,22412,0.004,-0.952,-0.177,-2.988,-0.061,0.183,67.911
134517,151912,12381,-0.005,-0.956,-0.182,-2.378,0.183,0.366,67.917
134570,151850,22412,-0.005,-0.956,-0.182,-2.378,0.183,0.366,67.92
134570,151963,12386,0.002,-0.945,-0.173,-1.098,0.366,0.549,67.927
134616,151850,22412,0.002,-0.945,-0.173,-1.098,0.366,0.549,67.93
134616,151986,12382,0.002,-0.947,-0.173,-0.122,0.549,0.061,67.937
134584,151850,22412,0.002,-0.947,-0.173,-0.122,0.549,0.061,67.94
134584,151989,12383,0.002,-0.942,-0.174,-0.061,0.427,0.671,67.946
134573,151850,22412,0.002,-0.942,-0.174,-0.061,0.427,0.671,67.95
134573,151972,12381,0.003,-0.948,-0.153,0.061,0,1.22,67.956
134516,151850,22412,0.003,-0.948,-0.153,0.061,0,1.22,67.96
134516,151930,12379,-0.003,-0.954,-0.19,-1.159,-0.488,1.707,67.966
134516,151850,22412,-0.003,-0.954,-0.19,-1.159,-0.488,1.707,67.97
134516,151886,12364,-0.009,-0.956,-0.19,-2.378,-0.671,2.012,67.976
134455,151850,22412,-0.009,-0.956,-0.19,-2.378,-0.671,2.012,67.98
134455,151874,12378,-0.002,-0.954,-0.172,0.183,-0.061,1.098,67.986
134493,151850,22412,-0.002,-0.954,-0.172,0.183,-0.061,1.098,67.99
134493,151900,12369,-0.001,-0.952,-0.176,1.829,0.671,-0.061,67.996
134526,151850,22412,0.003,-0.952,-0.181,1.829,0.671,-0.061,68
134526,151949,12370,-0.003,-0.954,-0.178,1.402,0.976,0,68.006
134531,151850,22412,-0.006,-0.95,-0.168,1.402,0.976,0,68.01
134531,151937,12373,-0.001,-0.945,-0.16,1.829,1.159,-0.061,68.016
134563,151850,22412,0.003,-0.94,-0.157,1.829,1.159,-0.061,68.02
134563,151959,12393,0.006,-0.946,-0.161,0.793,1.037,-0.122,68.026
134550,151850,22412,0.003,-0.945,-0.165,0.793,1.037,-0.122,68.029
134550,151947,12394,0,-0.944,-0.158,-0.549,0.427,0.671,68.036
134527,151850,22412,-0.002,-0.947,-0.149,-0.549,0.427,0.671,68.039
134527,151949,12370,-0,-0.946,-0.14,-1.951,-0.305,1.402,68.045
134530,151850,22412,0.002,-0.948,-0.163,-1.951,-0.305,1.402,68.049
134530,151957,12375,0,-0.957,-0.192,-5.061,-0.793,1.707,68.055
134524,151850,22412,-0.007,-0.961,-0.2,-5.061,-0.793,1.707,68.059
134524,151937,12390,-0.005,-0.954,-0.194,-3.902,-0.793,1.585,68.065
134518,151850,22412,-0.004,-0.951,-0.192,-3.902,-0.793,1.585,68.069
134518,151908,12380,-0.002,-0.958,-0.188,-0.366,-0.061,0.549,68.075
134460,151850,22412,-0.011,-0.957,-0.186,-0.366,-0.061,0.549,68.079
134460,151875,12377,-0.01,-0.954,-0.185,1.646,0.671,-0.061,68.085
134477,151850,22412,-0.005,-0.953,-0.183,1.646,0.671,-0.061,68.089
134477,151903,12381,-0.001,-0.95,-0.186,2.805,1.22,-1.037,68.095
134474,151850,22412,0.003,-0.947,-0.173,2.805,1.22,-1.037,68.099
134474,151888,12365,0.003,-0.941,-0.172,3.537,1.463,-1.22,68.105
134468,151850,22412,0.006,-0.938,-0.155,3.537,1.463,-1.22,68.109
134468,151899,12366,0.004,-0.938,-0.142,3.598,1.28,-0.305,68.115
134486,151850,22412,0.006,-0.947,-0.165,3.598,1.28,-0.305,68.119
134486,151904,12365,0.001,-0.957,-0.183,1.341,0.854,0.732,68.125
134488,151850,22412,-0.009,-0.956,-0.17,1.341,0.854,0.732,68.128
134488,151908,12376,-0.003,-0.949,-0.16,0.854,0.488,1.037,68.135
134503,151850,22412,0.004,-0.947,-0.158,0.854,0.488,1.037,68.138
134503,151911,12385,0.005,-0.955,-0.162,0.244,0.427,0.427,68.145
134493,151850,22412,-0.002,-0.955,-0.174,0.244,0.427,0.427,68.148
134493,151873,12383,-0.007,-0.956,-0.175,-0.732,0.244,0.915,68.154
134461,151850,22412,-0.004,-0.954,-0.17,-0.732,0.244,0.915,68.158
134461,151878,12387,0,-0.951,-0.173,-0.305,0.183,0.61,68.164
134428,151850,22412,0.005,-0.946,-0.176,-0.305,0.183,0.61,68.168
134428,151852,12366,0.01,-0.945,-0.173,0.305,0.427,0.061,68.174
134410,151850,22412,0.008,-0.946,-0.169,0.305,0.427,0.061,68.178
134410,151827,12371,0.002,-0.947,-0.171,0.854,0.366,0.671,68.184
134395,151850,22412,-0.006,-0.95,-0.167,0.854,0.366,0.671,68.188
134395,151848,12364,-0.002,-0.951,-0.167,0.854,0.183,1.22,68.194
134419,151850,22412,-0,-0.949,-0.162,0.854,0.183,1.22,68.198
134419,151843,12350,0,-0.951,-0.164,0,0.244,0.976,68.204
134431,151850,22412,-0.003,-0.951,-0.169,0,0.244,0.976,68.208
134431,151856,12357,-0.002,-0.954,-0.177,-1.159,0.122,1.098,68.214
134450,151850,22412,-0.007,-0.958,-0.178,-1.159,0.122,1.098,68.218
134450,151840,12362,-0.016,-0.957,-0.17,-0.915,0.244,1.341,68.224
134415,151850,22412,-0.012,-0.952,-0.166,-0.915,0.244,1.341,68.227
134415,151864,12365,-0.005,-0.955,-0.17,-0.61,0.366,0.305,68.234
134386,151594,22412,-0.007,-0.952,-0.177,-0.61,0.366,0.305,68.237
134386,151798,12364,-0.002,-0.953,-0.173,-0.854,0.488,-0.671,68.244
134362,151594,22412,0.001,-0.949,-0.173,-0.854,0.488,-0.671,68.247
134362,151804,12370,0,-0.949,-0.173,-0.122,0.61,-0.915,68.253
134413,151850,22412,-0.002,-0.948,-0.171,-0.122,0.61,-0.915,68.257
134413,151828,12341,0.003,-0.943,-0.171,0.488,0.549,-0.61,68.263
134415,151850,22412,0.005,-0.942,-0.18,0.488,0.549,-0.61,68.267
134415,151815,12349,0.004,-0.945,-0.175,1.28,0.549,-0.366,68.273
134477,151850,22412,0.005,-0.945,-0.168,1.28,0.549,-0.366,68.277
134477,151890,12393,0.011,-0.94,-0.16,1.829,0.488,0.366,68.283
134506,151850,22412,0.005,-0.945,-0.164,1.829,0.488,0.366,68.287
134506,151898,12370,0.004,-0.953,-0.162,0.732,0.366,1.402,68.293
134505,151850,22412,-0.003,-0.957,-0.165,0.732,0.366,1.402,68.297
134505,151936,12361,-0.009,-0.96,-0.169,-0.488,0,2.256,68.303
134495,151850,22412,-0.008,-0.957,-0.169,-0.488,0,2.256,68.307
134495,151906,12374,-0.005,-0.954,-0.172,-1.22,-0.061,1.402,68.313
134431,151850,22412,-0.006,-0.956,-0.175,-1.22,-0.061,1.402,68.317
134431,151831,12347,-0.002,-0.954,-0.175,-1.037,0.305,0.183,68.323
134353,151850,22412,0.001,-0.947,-0.171,-1.037,0.305,0.183,68.326
134353,151808,12343,0.001,-0.945,-0.177,-0.244,0.427,-0.305,68.333
134323,151594,22412,-0.004,-0.954,-0.179,-0.244,0.427,-0.305,68.336
134323,151772,12334,-0.005,-0.949,-0.175,0.549,0.61,-0.122,68.343
134305,151594,22412,0.006,-0.941,-0.173,0.549,0.61,-0.122,68.346
134305,151759,12335,0.008,-0.94,-0.172,0.915,0.732,-0.122,68.352
134304,151594,22412,0.001,-0.945,-0.173,0.915,0.732,-0.122,68.356
134304,151765,12342,-0.005,-0.947,-0.173,1.341,0.732,0.793,68.362
134333,151594,22412,-0.003,-0.95,-0.172,1.341,0.732,0.793,68.366
134333,151779,12344,-0.002,-0.95,-0.172,1.829,0.61,1.341,68.372
134406,151850,22412,-0.005,-0.948,-0.164,1.829,0.61,1.341,68.376
134406,151852,12368,-0.006,-0.953,-0.16,1.585,0.793,0.976,68.382
134421,151850,22412,-0.001,-0.954,-0.167,1.585,0.793,0.976,68.386
134421,151872,12357,-0,-0.955,-0.173,0.793,0.549,0.61,68.392
134473,151850,22412,-0.005,-0.955,-0.175,0.793,0.549,0.61,68.396
134473,151902,12375,-0.005,-0.955,-0.171,0.61,0.427,0.61,68.402
134495,151850,22412,-0.003,-0.952,-0.165,0.61,0.427,0.61,68.406
134495,151904,12347,-0,-0.948,-0.164,0.793,0.61,0.061,68.412
134466,151850,22412,0.002,-0.947,-0.159,0.793,0.61,0.061,68.416
134466,151884,12370,0.004,-0.947,-0.159,0.122,0.549,0.061,68.422
134503,151850,22412,0.003,-0.951,-0.163,0.122,0.549,0.061,68.425
134503,151894,12366,-0.003,-0.953,-0.157,-1.28,0.183,0.793,68.432
134496,151850,22412,0.001,-0.946,-0.152,-1.28,0.183,0.793,68.435
134496,151888,12352,0.005,-0.945,-0.156,-2.439,-0.305,1.037,68.442
134511,151850,22412,-0.001,-0.956,-0.174,-2.439,-0.305,1.037,68.445
134511,151946,12357,-0.011,-0.956,-0.193,-3.537,-0.366,1.28,68.451
134537,151850,22412,-0.011,-0.956,-0.193,-3.537,-0.366,1.28,68.455
134537,151921,12370,-0.006,-0.951,-0.174,-1.829,-0.061,0.793,68.461
134517,151850,22412,-0.006,-0.951,-0.174,-1.829,-0.061,0.793,68.465
134517,151941,12375,0.002,-0.949,-0.176,0.122,0.549,-0.366,68.471
134524,151850,22412,0.002,-0.949,-0.176,0.122,0.549,-0.366,68.475
134524,151924,12374,-0.005,-0.954,-0.175,0.549,0.61,-0.061,68.481
134492,151850,22412,-0.005,-0.954,-0.175,0.549,0.61,-0.061,68.485
134492,151913,12361,0.001,-0.945,-0.171,1.22,0.549,0.183,68.491
134511,151850,22412,0.001,-0.945,-0.171,1.22,0.549,0.183,68.495
134511,151916,12367,0.002,-0.948,-0.173,1.22,0.61,0.183,68.501
134499,151850,22412,0.002,-0.948,-0.173,1.22,0.61,0.183,68.505
134499,151912,12380,0.006,-0.943,-0.157,1.585,0.488,0.793,68.511
134505,151850,22412,0.006,-0.943,-0.157,1.585,0.488,0.793,68.515
134505,151938,12377,-0.003,-0.955,-0.162,0.488,0.183,1.646,68.521
134527,151850,22412,-0.003,-0.955,-0.162,0.488,0.183,1.646,68.525
134527,151954,12377,-0.01,-0.96,-0.185,-1.159,-0.183,1.585,68.531
134559,151850,22412,-0.01,-0.96,-0.185,-1.159,-0.183,1.585,68.534
134559,151946,12380,-0.008,-0.953,-0.167,0.122,0.244,0.671,68.541
134573,151850,22412,-0.008,-0.953,-0.167,0.122,0.244,0.671,68.544
134573,151989,12382,0.001,-0.949,-0.165,0.793,0.854,-0.61,68.55
134585,151850,22412,0.001,-0.949,-0.165,0.793,0.854,-0.61,68.554
134585,152012,12387,-0.003,-0.952,-0.165,-0.061,0.61,-0.122,68.56
134590,151850,22412,-0.003,-0.952,-0.165,-0.061,0.61,-0.122,68.564
134590,151983,12392,0,-0.946,-0.174,-0.671,0.427,0.183,68.57
134586,151850,22412,0,-0.946,-0.174,-0.671,0.427,0.183,68.574
134586,151968,12386,0.002,-0.947,-0.161,-0.488,0.366,0.244,68.58
134565,151850,22412,0.002,-0.947,-0.161,-0.488,0.366,0.244,68.584
134565,151961,12388,0.002,-0.947,-0.173,-0.976,0.061,0.854,68.59
134560,151850,22412,0.002,-0.947,-0.173,-0.976,0.061,0.854,68.594
134560,151987,12379,-0.006,-0.95,-0.168,-0.976,0.061,0.854,68.6
134628,151850,22412,-0.009,-0.962,-0.168,-0.915,0,0.976,68.604
134628,152024,12396,-0.007,-0.96,-0.179,-0.915,0,0.976,68.61
134699,151850,22412,-0.008,-0.961,-0.188,-0.854,0.244,0.305,68.614
134699,152063,12387,-0.016,-0.96,-0.173,-0.854,0.244,0.305,68.62
134715,152106,22412,-0.007,-0.951,-0.162,0.366,0.793,-0.976,68.624
134715,152070,12392,0.008,-0.948,-0.172,0.366,0.793,-0.976,68.63
134728,152106,22412,0.005,-0.947,-0.17,0.427,1.22,-2.012,68.633
134728,152103,12418,0.001,-0.95,-0.162,0.427,1.22,-2.012,68.64
134761,152106,22412,0.007,-0.944,-0.159,0.244,1.098,-1.341,68.643
134761,152077,12391,0.005,-0.939,-0.156,0.244,1.098,-1.341,68.65
134728,152106,22412,0.005,-0.945,-0.156,-0.671,0.488,-0.244,68.653
134728,152075,12383,0.004,-0.946,-0.161,-0.671,0.488,-0.244,68.659
134715,151850,22412,0.003,-0.943,-0.165,-2.012,0,0.915,68.663
134715,152060,12398,0.003,-0.946,-0.166,-2.012,0,0.915,68.669
134729,152106,22412,0,-0.951,-0.173,-2.5,-0.488,1.524,68.673
134729,152081,12404,-0.002,-0.953,-0.173,-2.5,-0.488,1.524,68.679
134735,152106,22412,-0.001,-0.956,-0.177,-2.256,-0.488,1.707,68.683
134735,152085,12396,-0.006,-0.961,-0.189,-2.256,-0.488,1.707,68.689
134724,152106,22412,-0.008,-0.964,-0.187,-0.976,-0.244,1.402,68.693
134724,152079,12412,-0.007,-0.955,-0.18,-0.976,-0.244,1.402,68.699
134724,151850,22412,-0.003,-0.951,-0.173,0.488,0.305,0.366,68.703
134724,152043,12405,0,-0.952,-0.173,0.488,0.305,0.366,68.709
134673,151850,22412,0,-0.949,-0.177,0.915,0.549,-0.183,68.713
134673,152030,12398,0,-0.949,-0.17,0.915,0.549,-0.183,68.719
134622,151850,22412,-0,-0.947,-0.159,0.488,0.427,0.122,68.723
134622,151981,12373,-0,-0.94,-0.155,0.488,0.427,0.122,68.729
134590,151850,22412,0.009,-0.943,-0.157,-0.427,0.244,0.366,68.732
134590,151985,12375,0.008,-0.951,-0.171,-0.427,0.244,0.366,68.739
134558,151850,22412,-0.003,-0.95,-0.179,-2.012,-0.122,1.28,68.742
134558,151954,12389,-0.007,-0.952,-0.174,-2.012,-0.122,1.28,68.749
134574,151850,22412,-0.004,-0.948,-0.168,-1.22,-0.244,1.951,68.752
134574,152005,12377,0,-0.953,-0.17,-1.22,-0.244,1.951,68.758
134598,151850,22412,-0.003,-0.955,-0.175,-0.732,-0.061,1.341,68.762
134598,151992,12394,-0.003,-0.954,-0.178,-0.732,-0.061,1.341,68.768
134608,151850,22412,-0.007,-0.955,-0.181,-0.549,0.122,1.28,68.772
134608,152023,12396,-0.012,-0.957,-0.179,-0.549,0.122,1.28,68.778
134649,151850,22412,-0.014,-0.954,-0.173,0.793,0.305,0.915,68.782
134649,152021,12379,-0.005,-0.949,-0.163,0.793,0.305,0.915,68.788
134634,151850,22412,0.001,-0.948,-0.159,1.524,0.671,-0.305,68.792
134634,151986,12386,0.006,-0.949,-0.16,1.524,0.671,-0.305,68.798
134618,151850,22412,0,-0.95,-0.171,0.366,0.671,-0.427,68.802
134618,151995,12391,-0.006,-0.95,-0.168,0.366,0.671,-0.427,68.808
134639,151850,22412,-0.002,-0.944,-0.166,-0.305,0.549,0.183,68.812
134639,151995,12397,0.002,-0.949,-0.168,-0.305,0.549,0.183,68.818
134644,151850,22412,0.002,-0.949,-0.17,-0.305,0.427,0.305,68.822
134644,152028,12396,-0,-0.952,-0.172,-0.305,0.427,0.305,68.828
134681,151850,22412,-0.001,-0.95,-0.168,-0.549,0.244,0.61,68.831
134681,152037,12402,0.001,-0.949,-0.163,-0.549,0.244,0.61,68.838
134674,151850,22412,-0.003,-0.951,-0.166,-0.854,0,0.854,68.841
134674,152038,12388,-0.001,-0.951,-0.173,-0.854,0,0.854,68.848
134653,151850,22412,-0.004,-0.954,-0.179,-1.585,0.061,0.61,68.851
134653,152021,12397,-0.003,-0.951,-0.178,-1.585,0.061,0.61,68.857
134625,151850,22412,-0.001,-0.948,-0.173,-0.915,0.183,0.366,68.861
134625,152001,12384,0.002,-0.948,-0.167,-0.915,0.183,0.366,68.867
134577,151850,22412,-0,-0.947,-0.156,-0.61,0.305,0.122,68.871
134577,151974,12384,0,-0.95,-0.163,-0.61,0.305,0.122,68.877
