137520,153331,13019,0.033,-0.969,0.076,0.061,0.427,0.183,475.807
137544,153386,22412,0.033,-0.973,0.081,0.915,0.732,0.122,475.81
137544,153377,13017,0.029,-0.976,0.083,0.915,0.732,0.122,475.817
137561,153386,22412,0.03,-0.968,0.084,1.28,0.61,0.305,475.82
137561,153391,13022,0.032,-0.96,0.089,1.28,0.61,0.305,475.826
137572,153386,22412,0.034,-0.956,0.083,0.732,0.488,0.427,475.83
137572,153403,13012,0.03,-0.961,0.082,0.732,0.488,0.427,475.836
137595,153386,22412,0.031,-0.97,0.082,0.488,0.61,0.366,475.84
137595,153385,13025,0.031,-0.969,0.087,0.488,0.61,0.366,475.846
137587,153386,22412,0.034,-0.964,0.09,0.793,0.244,0.366,475.85
137587,153408,13027,0.035,-0.956,0.086,0.793,0.244,0.366,475.856
137630,153386,22412,0.033,-0.945,0.09,0.244,0.366,0.427,475.86
137630,153445,13032,0.032,-0.947,0.091,0.244,0.366,0.427,475.866
137660,153386,22412,0.029,-0.95,0.093,-0.976,0.549,0.488,475.87
137660,153448,13037,0.028,-0.96,0.078,-0.976,0.549,0.488,475.876
137721,153386,22412,0.028,-0.967,0.07,-1.951,0.244,0.61,475.88
137721,153490,13056,0.028,-0.975,0.077,-1.951,0.244,0.61,475.886
137763,153386,22412,0.029,-0.974,0.082,-1.098,0.427,0.305,475.89
137763,153509,13048,0.031,-0.969,0.072,-1.098,0.427,0.305,475.896
137763,153386,22412,0.03,-0.965,0.075,-0.427,0.671,0.183,475.899
137763,153526,13057,0.031,-0.972,0.081,-0.427,0.671,0.183,475.906
137779,153386,22412,0.029,-0.981,0.08,0.183,0.793,0.305,475.909
137779,153538,13058,0.025,-0.979,0.082,0.183,0.793,0.305,475.916
137794,153386,22412,0.029,-0.974,0.083,0.671,0.854,0.183,475.919
137794,153529,13051,0.027,-0.97,0.083,0.671,0.854,0.183,475.925
137747,153386,22412,0.028,-0.962,0.084,0.305,0.61,0.122,475.929
137747,153529,13066,0.035,-0.956,0.085,0.305,0.61,0.122,475.935
137713,153386,22412,0.032,-0.956,0.089,0,0.488,0,475.939
137713,153506,13067,0.03,-0.958,0.088,0,0.488,0,475.945
137730,153386,22412,0.033,-0.962,0.086,-0.488,0.244,0,475.949
137730,153507,13044,0.036,-0.96,0.084,-0.488,0.244,0,475.955
137703,153386,22412,0.035,-0.958,0.083,-1.22,0.122,0.061,475.959
137703,153490,13046,0.033,-0.957,0.078,-1.22,0.122,0.061,475.965
137685,153386,22412,0.032,-0.952,0.077,-1.341,-0.244,0.427,475.969
137685,153456,13050,0.034,-0.953,0.074,-1.341,-0.244,0.427,475.975
137649,153386,22412,0.037,-0.957,0.07,-1.098,-0.183,0.61,475.979
137649,153445,13034,0.035,-0.963,0.061,-1.098,-0.183,0.61,475.985
137664,153386,22412,0.032,-0.97,0.073,0.061,0.305,0.732,475.989
137664,153425,13045,0.03,-0.971,0.084,0.061,0.305,0.732,475.995
137675,153386,22412,0.03,-0.966,0.088,1.646,0.427,0.976,475.999
137675,153462,13048,0.03,-0.962,0.096,1.646,0.427,0.976,476.005
137674,153386,22412,0.031,-0.958,0.104,1.037,0.244,1.098,476.008
137674,153432,13044,0.027,-0.96,0.105,1.037,0.244,1.098,476.015
137665,153386,22412,0.023,-0.971,0.102,-1.159,0.427,0.915,476.018
137665,153483,13048,0.023,-0.981,0.085,-1.159,0.427,0.915,476.024
137656,153386,22412,0.025,-0.985,0.077,-3.293,0.549,0.427,476.028
137656,153455,13038,0.024,-0.984,0.076,-3.293,0.549,0.427,476.034
137627,153386,22412,0.026,-0.978,0.074,-3.293,0.122,-0.183,476.038
137627,153426,13048,0.03,-0.974,0.073,-3.293,0.122,-0.183,476.044
137616,153386,22412,0.03,-0.971,0.07,-1.646,-0.183,-0.732,476.048
137616,153403,13029,0.033,-0.966,0.076,-1.646,-0.183,-0.732,476.054
137574,153130,22412,0.034,-0.963,0.072,-0.366,-0.061,-0.854,476.058
137574,153343,13037,0.032,-0.958,0.066,-0.366,-0.061,-0.854,476.064
137529,153130,22412,0.031,-0.961,0.073,0.244,0.244,-0.732,476.068
137529,153327,13024,0.034,-0.958,0.08,0.244,0.244,-0.732,476.074
137536,153386,22412,0.034,-0.948,0.082,0.915,0.183,-0.488,476.078
137536,153346,13028,0.038,-0.939,0.073,0.915,0.183,-0.488,476.084
137551,153386,22412,0.037,-0.941,0.073,0.732,0.244,-0.122,476.088
137551,153380,13017,0.035,-0.949,0.081,0.732,0.244,-0.122,476.094
137551,153386,22412,0.033,-0.957,0.088,0.671,0.427,0.183,476.097
137551,153349,13031,0.034,-0.958,0.093,0.671,0.427,0.183,476.104
137559,153386,22412,0.035,-0.957,0.089,0.061,0.122,0.549,476.107
137559,153376,13033,0.035,-0.958,0.086,0.061,0.122,0.549,476.114
137605,153386,22412,0.031,-0.971,0.085,-1.159,0.183,0.854,476.117
137605,153378,13027,0.031,-0.979,0.093,-1.159,0.183,0.854,476.123
137559,153386,22412,0.032,-0.972,0.092,-1.89,0.244,0.854,476.127
137559,153354,13036,0.033,-0.965,0.083,-1.89,0.244,0.854,476.133
137518,153130,22412,0.029,-0.961,0.073,-3.11,0.244,0.915,476.137
137518,153331,13032,0.032,-0.964,0.066,-3.11,0.244,0.915,476.143
137512,153130,22412,0.034,-0.968,0.061,-2.866,0.366,0.732,476.147
137512,153341,13002,0.035,-0.976,0.059,-2.866,0.366,0.732,476.153
137523,153130,22412,0.035,-0.976,0.059,-2.866,0.366,0.732,476.157
137523,153332,13017,0.027,-0.996,0.067,-0.976,0.671,0.549,476.163
137487,153130,22412,0.027,-0.996,0.067,-0.976,0.671,0.549,476.167
137487,153311,13037,0.029,-0.969,0.081,1.341,1.037,0.305,476.173
137484,153130,22412,0.029,-0.969,0.081,1.341,1.037,0.305,476.177
137484,153309,13008,0.033,-0.953,0.097,1.951,0.732,0.244,476.183
137500,153130,22412,0.033,-0.953,0.097,1.951,0.732,0.244,476.187
137500,153305,13015,0.031,-0.953,0.086,1.22,0.549,0.183,476.193
137505,153130,22412,0.031,-0.953,0.086,1.22,0.549,0.183,476.197
137505,153310,13010,0.028,-0.956,0.081,-0.183,0.671,0.244,476.203
137498,153130,22412,0.028,-0.956,0.081,-0.183,0.671,0.244,476.206
137498,153303,13002,0.033,-0.951,0.083,-0.671,0.366,0.366,476.213
137457,153130,22412,0.033,-0.951,0.083,-0.671,0.366,0.366,476.216
137457,153279,13016,0.034,-0.951,0.077,-0.793,0.061,0.366,476.222
137439,153130,22412,0.034,-0.951,0.077,-0.793,0.061,0.366,476.226
137439,153267,13011,0.032,-0.964,0.075,-0.732,0,0.305,476.232
137417,153130,22412,0.032,-0.964,0.075,-0.732,0,0.305,476.236
137417,153231,12993,0.036,-0.961,0.066,-0.732,0.183,0.427,476.242
137379,153130,22412,0.036,-0.961,0.066,-0.732,0.183,0.427,476.246
137379,153244,12995,0.033,-0.982,0.069,-0.122,0.427,0.61,476.252
137362,153130,22412,0.033,-0.982,0.069,-0.122,0.427,0.61,476.256
137362,153217,12990,0.033,-0.984,0.078,1.28,0.732,0.671,476.262
137367,153130,22412,0.033,-0.984,0.078,1.28,0.732,0.671,476.266
137367,153228,13004,0.028,-0.972,0.092,2.073,0.915,0.671,476.272
137368,153130,22412,0.028,-0.972,0.092,2.073,0.915,0.671,476.276
137368,153215,12991,0.031,-0.965,0.1,1.951,0.915,0.488,476.282
137372,153130,22412,0.031,-0.965,0.1,1.951,0.915,0.488,476.286
137372,153226,12986,0.033,-0.968,0.085,0.488,0.427,0.366,476.292
137340,153130,22412,0.033,-0.968,0.085,0.488,0.427,0.366,476.296
137340,153201,12983,0.027,-0.967,0.08,-0.854,0.61,0,476.302
137319,153130,22412,0.027,-0.967,0.08,-0.854,0.61,0,476.305
137319,153203,12990,0.029,-0.961,0.085,-1.28,0.549,-0.305,476.312
137332,153130,22412,0.031,-0.953,0.082,-1.28,0.549,-0.305,476.315
137332,153207,12988,0.034,-0.946,0.082,-1.402,0.183,-0.366,476.322
137276,153130,22412,0.035,-0.947,0.073,-1.402,0.183,-0.366,476.325
137276,153140,12971,0.036,-0.955,0.065,-1.402,0.427,-0.244,476.331
137229,153130,22412,0.036,-0.962,0.065,-1.402,0.427,-0.244,476.335
137229,153138,12979,0.034,-0.964,0.07,-0.305,0.671,0.122,476.341
137205,153130,22412,0.031,-0.964,0.072,-0.305,0.671,0.122,476.345
137205,153100,12968,0.03,-0.963,0.073,1.037,0.549,0.732,476.351
137149,152874,22412,0.033,-0.959,0.073,1.037,0.549,0.732,476.355
137149,153063,12957,0.029,-0.968,0.078,1.341,0.671,0.732,476.361
137145,152874,22412,0.025,-0.976,0.084,1.341,0.671,0.732,476.365
137145,153065,12973,0.027,-0.979,0.09,2.134,0.671,0.549,476.371
137166,152874,22412,0.03,-0.966,0.086,2.134,0.671,0.549,476.375
137166,153077,12958,0.031,-0.956,0.09,1.28,0.305,0.305,476.381
137169,152874,22412,0.032,-0.958,0.096,1.28,0.305,0.305,476.385
137169,153065,12964,0.035,-0.968,0.1,0.183,0.061,0.244,476.391
137172,153130,22412,0.031,-0.969,0.092,0.183,0.061,0.244,476.395
137172,153097,12971,0.031,-0.966,0.084,-1.402,0.183,0.366,476.401
137166,152874,22412,0.031,-0.968,0.076,-1.402,0.183,0.366,476.404
137166,153070,12958,0.031,-0.972,0.075,-2.073,0.488,0.305,476.411
137115,152874,22412,0.031,-0.97,0.073,-2.073,0.488,0.305,476.414
137115,153036,12944,0.03,-0.973,0.074,-1.341,0.488,0,476.42
137084,152874,22412,0.032,-0.972,0.077,-1.341,0.488,0,476.424
137084,153032,12956,0.037,-0.968,0.068,0.061,0.793,-0.244,476.43
137141,152874,22412,0.033,-0.97,0.072,0.061,0.793,-0.244,476.434
137141,153073,12967,0.03,-0.969,0.079,1.037,1.098,-0.183,476.44
137176,153130,22412,0.031,-0.961,0.079,1.037,1.098,-0.183,476.444
137176,153094,12970,0.03,-0.963,0.077,1.524,0.915,0.122,476.45
137209,153130,22412,0.031,-0.965,0.084,1.524,0.915,0.122,476.454
137209,153105,12960,0.029,-0.962,0.089,1.707,0.549,0.183,476.46
137187,153130,22412,0.032,-0.956,0.09,1.707,0.549,0.183,476.464
137187,153088,12969,0.034,-0.944,0.086,0.793,0.488,0.427,476.47
137188,153130,22412,0.036,-0.938,0.081,0.793,0.488,0.427,476.474
137188,153103,12973,0.035,-0.946,0.081,-0.183,0.305,0.732,476.48
137191,153130,22412,0.03,-0.958,0.091,-0.183,0.305,0.732,476.484
137191,153102,12979,0.027,-0.964,0.085,-0.244,0.366,0.793,476.49
137173,153130,22412,0.028,-0.965,0.085,-0.244,0.366,0.793,476.494
137173,153090,12972,0.031,-0.966,0.091,-0.671,0.305,0.854,476.5
137194,153130,22412,0.029,-0.965,0.099,-0.671,0.305,0.854,476.503
137194,153123,12977,0.032,-0.963,0.098,-1.951,0,0.732,476.51
137197,153130,22412,0.031,-0.971,0.082,-1.951,0,0.732,476.513
137197,153118,12962,0.031,-0.982,0.069,-3.659,0.427,0.427,476.52
137210,153130,22412,0.026,-0.987,0.065,-3.659,0.427,0.427,476.523
137210,153163,12979,0.029,-0.981,0.06,-2.866,0.671,-0.061,476.529
137256,153130,22412,0.031,-0.974,0.065,-2.866,0.671,-0.061,476.533
137256,153166,12980,0.034,-0.973,0.071,-0.488,0.305,-0.061,476.539
137298,153130,22412,0.032,-0.976,0.071,-0.488,0.305,-0.061,476.543
137298,153195,12999,0.034,-0.976,0.061,1.28,0.671,-0.305,476.549
137336,153130,22412,0.033,-0.98,0.065,1.28,0.671,-0.305,476.553
137336,153195,12990,0.031,-0.973,0.074,2.378,1.159,-0.366,476.559
137319,153130,22412,0.031,-0.961,0.084,2.378,1.159,-0.366,476.563
137319,153217,12986,0.032,-0.949,0.085,3.232,0.793,-0.183,476.569
137318,153130,22412,0.034,-0.941,0.086,3.232,0.793,-0.183,476.573
137318,153192,12985,0.036,-0.94,0.092,2.256,0.305,-0.061,476.579
137267,153130,22412,0.038,-0.949,0.09,2.256,0.305,-0.061,476.583
137267,153172,12991,0.035,-0.959,0.087,0.793,0.427,0.122,476.589
137231,153130,22412,0.035,-0.96,0.089,0.793,0.427,0.122,476.592
137231,153111,12974,0.036,-0.958,0.089,-0.366,0.244,0.549,476.599
137168,153130,22412,0.035,-0.958,0.096,-0.366,0.244,0.549,476.602
137168,153121,12973,0.033,-0.958,0.1,-1.22,-0.061,0.915,476.609
137187,153130,22412,0.033,-0.959,0.093,-1.22,-0.061,0.915,476.612
137187,153098,12980,0.031,-0.958,0.083,-2.378,-0.061,0.915,476.618
137181,153130,22412,0.031,-0.966,0.079,-2.378,-0.061,0.915,476.622
137181,153091,12984,0.035,-0.972,0.073,-2.744,0,0.732,476.628
137172,153130,22412,0.033,-0.974,0.073,-2.744,0,0.732,476.632
137172,153097,12976,0.03,-0.971,0.076,-1.707,0.183,0.61,476.638
137182,153130,22412,0.032,-0.967,0.068,-1.707,0.183,0.61,476.642
137182,153112,12966,0.032,-0.968,0.069,-0.488,0.671,0.366,476.648
137181,153130,22412,0.026,-0.976,0.075,-0.488,0.671,0.366,476.652
137181,153099,12984,0.026,-0.984,0.083,0.854,1.037,0.183,476.658
137173,153130,22412,0.025,-0.984,0.084,0.854,1.037,0.183,476.662
137173,153105,12986,0.027,-0.971,0.078,1.159,0.732,0.061,476.668
137150,153130,22412,0.033,-0.967,0.078,1.159,0.732,0.061,476.672
137150,153101,12983,0.032,-0.971,0.079,0.793,0.427,-0.061,476.678
137143,152874,22412,0.031,-0.969,0.073,0.793,0.427,-0.061,476.682
137143,153084,12958,0.032,-0.962,0.083,1.22,0.549,-0.244,476.688
137125,152874,22412,0.037,-0.953,0.093,1.22,0.549,-0.244,476.691
137125,153065,12968,0.035,-0.94,0.088,1.159,0.366,-0.122,476.698
137126,152874,22412,0.036,-0.937,0.085,1.159,0.366,-0.122,476.701
137126,153033,12966,0.038,-0.945,0.082,0.244,0.244,0.183,476.708
137083,152874,22412,0.034,-0.957,0.082,0.244,0.244,0.183,476.711
137083,153041,12978,0.033,-0.957,0.074,-0.427,0.366,0.366,476.717
137088,152874,22412,0.036,-0.957,0.068,-0.427,0.366,0.366,476.721
137088,153063,12951,0.039,-0.964,0.071,-0.183,0.427,0.366,476.727
137100,152874,22412,0.036,-0.971,0.069,-0.183,0.427,0.366,476.731
137100,153050,12964,0.034,-0.979,0.076,1.159,0.732,0.488,476.737
137070,152874,22412,0.03,-0.981,0.089,1.159,0.732,0.488,476.741
137070,153035,12965,0.032,-0.985,0.091,2.073,0.915,0.61,476.747
137115,152874,22412,0.032,-0.985,0.091,2.073,0.915,0.61,476.751
137115,153045,12968,0.034,-0.968,0.097,1.402,0.549,0.915,476.757
137122,152874,22412,0.034,-0.968,0.097,1.402,0.549,0.915,476.761
137122,153071,12979,0.029,-0.96,0.099,0.122,0.488,0.915,476.767
137091,152874,22412,0.029,-0.96,0.099,0.122,0.488,0.915,476.771
137091,153055,12975,0.029,-0.964,0.077,-0.854,0.488,0.61,476.777
137080,152874,22412,0.029,-0.964,0.077,-0.854,0.488,0.61,476.781
137080,153026,12961,0.026,-0.979,0.075,-0.488,0.549,0.122,476.787
137045,152874,22412,0.026,-0.979,0.075,-0.488,0.549,0.122,476.79
137045,153013,12971,0.031,-0.967,0.071,0.488,0.671,-0.244,476.797
137037,152874,22412,0.031,-0.967,0.071,0.488,0.671,-0.244,476.8
137037,153016,12957,0.032,-0.958,0.085,1.037,0.732,-0.427,476.807
137053,152874,22412,0.032,-0.958,0.085,1.037,0.732,-0.427,476.81
137053,152994,12957,0.03,-0.951,0.08,0.854,0.549,-0.244,476.816
137066,152874,22412,0.03,-0.951,0.08,0.854,0.549,-0.244,476.82
137066,152995,12976,0.029,-0.957,0.076,0.488,0.244,0.244,476.826
137107,152874,22412,0.029,-0.957,0.076,0.488,0.244,0.244,476.83
137107,153065,12974,0.033,-0.959,0.082,0.793,0.183,0.366,476.836
137107,152874,22412,0.033,-0.959,0.082,0.793,0.183,0.366,476.84
137107,153071,12971,0.033,-0.958,0.088,1.037,-0.061,0.549,476.846
137112,152874,22412,0.033,-0.958,0.088,1.037,-0.061,0.549,476.85
137112,153066,12956,0.034,-0.953,0.103,0.122,-0.061,0.549,476.856
137156,153130,22412,0.034,-0.953,0.103,0.122,-0.061,0.549,476.86
137156,153088,12979,0.032,-0.959,0.093,-1.768,-0.061,0.671,476.866
137185,153130,22412,0.032,-0.959,0.093,-1.768,-0.061,0.671,476.87
137185,153103,12969,0.035,-0.973,0.082,-2.805,-0.305,0.915,476.876
137170,152874,22412,0.035,-0.973,0.082,-2.805,-0.305,0.915,476.88
137170,153086,12981,0.03,-0.977,0.082,-2.927,-0.427,0.976,476.886
137114,152874,22412,0.03,-0.977,0.082,-2.927,-0.427,0.976,476.89
137114,153069,12979,0.031,-0.975,0.085,-2.927,-0.427,0.976,476.896
137113,152874,22412,0.032,-0.97,0.085,-2.439,-0.244,0.854,476.899
137113,153065,12959,0.033,-0.969,0.081,-2.439,-0.244,0.854,476.906
137067,152874,22412,0.036,-0.968,0.067,-2.622,0,0.488,476.909
137067,153012,12968,0.037,-0.973,0.049,-2.622,0,0.488,476.915
137072,152874,22412,0.033,-0.988,0.053,-1.524,0.488,0.366,476.919
137072,153056,12968,0.03,-0.997,0.062,-1.524,0.488,0.366,476.925
137123,152874,22412,0.024,-0.992,0.069,2.439,1.22,0.244,476.929
137123,153058,12977,0.03,-0.971,0.078,2.439,1.22,0.244,476.935
137140,152874,22412,0.031,-0.955,0.088,3.902,1.159,0.183,476.939
137140,153086,12974,0.034,-0.952,0.091,3.902,1.159,0.183,476.945
137204,153130,22412,0.032,-0.952,0.094,3.476,1.037,0.122,476.949
137204,153108,12989,0.031,-0.953,0.091,3.476,1.037,0.122,476.955
137263,153130,22412,0.025,-0.957,0.089,1.89,0.976,0.366,476.959
137263,153142,12996,0.029,-0.954,0.091,1.89,0.976,0.366,476.965
137269,153130,22412,0.03,-0.949,0.09,0.488,0.854,0.427,476.969
137269,153173,12998,0.028,-0.953,0.086,0.488,0.854,0.427,476.975
137275,153130,22412,0.03,-0.958,0.082,0,0.793,0.244,476.979
137275,153158,12999,0.032,-0.956,0.079,0,0.793,0.244,476.985
137253,153130,22412,0.033,-0.955,0.077,-0.244,0.305,0.183,476.988
137253,153139,12995,0.032,-0.964,0.08,-0.244,0.305,0.183,476.995
137243,153130,22412,0.033,-0.97,0.085,0.427,0.183,0.305,476.998
137243,153153,12993,0.03,-0.969,0.086,0.427,0.183,0.305,477.005
137270,153130,22412,0.031,-0.963,0.083,0.366,0.305,0.549,477.008
137270,153156,12989,0.032,-0.955,0.085,0.366,0.305,0.549,477.014
137238,153130,22412,0.031,-0.956,0.089,-0.244,0.122,0.671,477.018
137238,153122,12995,0.032,-0.958,0.087,-0.244,0.122,0.671,477.024
137187,153130,22412,0.031,-0.966,0.082,-1.037,0.244,0.549,477.028
137187,153088,12986,0.03,-0.974,0.076,-1.037,0.244,0.549,477.034
137152,152874,22412,0.027,-0.984,0.08,-1.22,0.366,0.305,477.038
137152,153065,12958,0.027,-0.984,0.088,-1.22,0.366,0.305,477.044
137089,152874,22412,0.03,-0.981,0.089,-0.61,0.061,0.061,477.048
137089,153015,12966,0.032,-0.972,0.087,-0.61,0.061,0.061,477.054
137064,152874,22412,0.032,-0.962,0.087,-0.915,-0.122,0,477.058
137064,152998,12969,0.031,-0.959,0.082,-0.915,-0.122,0,477.064
137053,152874,22412,0.035,-0.956,0.083,-0.976,-0.122,0.061,477.068
137053,153001,12965,0.033,-0.954,0.082,-0.976,-0.122,0.061,477.074
137015,152874,22412,0.035,-0.949,0.078,-1.037,-0.183,0.122,477.078
137015,152974,12951,0.04,-0.94,0.069,-1.037,-0.183,0.122,477.084
136980,152874,22412,0.041,-0.944,0.072,-0.854,0.122,0.549,477.088
136980,152921,12934,0.034,-0.957,0.071,-0.854,0.122,0.549,477.094
136904,152874,22412,0.032,-0.968,0.074,0.305,0.549,0.61,477.097
136904,152924,12941,0.031,-0.966,0.073,0.305,0.549,0.61,477.104
136917,152874,22412,0.032,-0.961,0.078,1.037,0.732,0.793,477.107
136917,152904,12929,0.03,-0.962,0.086,1.037,0.732,0.793,477.113
136887,152874,22412,0.032,-0.964,0.093,1.524,0.549,0.976,477.117
136887,152879,12946,0.036,-0.966,0.094,1.524,0.549,0.976,477.123
136898,152874,22412,0.033,-0.964,0.093,0.915,0.61,1.098,477.127
136898,152889,12936,0.031,-0.971,0.088,0.915,0.61,1.098,477.133
136890,152874,22412,0.028,-0.977,0.087,0,0.793,1.037,477.137
136890,152877,12915,0.03,-0.975,0.083,0,0.793,1.037,477.143
136879,152874,22412,0.03,-0.974,0.079,0,0.671,0.854,477.147
136879,152855,12926,0.03,-0.976,0.088,0,0.671,0.854,477.153
136872,152874,22412,0.027,-0.978,0.098,0.671,0.366,0.732,477.157
136872,152862,12939,0.031,-0.969,0.094,0.671,0.366,0.732,477.163
136852,152874,22412,0.03,-0.962,0.084,-0.061,0.427,0.366,477.167
136852,152843,12926,0.031,-0.964,0.087,-0.061,0.427,0.366,477.173
136827,152874,22412,0.033,-0.968,0.086,-0.915,0.305,0.183,477.177
136827,152834,12936,0.032,-0.962,0.079,-0.915,0.305,0.183,477.183
136841,152618,22412,0.036,-0.958,0.072,-1.098,0.427,0.122,477.187
136841,152813,12913,0.035,-0.957,0.078,-1.098,0.427,0.122,477.193
136819,152874,22412,0.033,-0.958,0.08,-0.427,0.61,0.244,477.196
136819,152833,12924,0.033,-0.959,0.077,-0.427,0.61,0.244,477.203
136824,152874,22412,0.033,-0.961,0.078,0.061,0.427,0.427,477.206
136824,152849,12924,0.031,-0.964,0.088,0.061,0.427,0.427,477.212
136791,152618,22412,0.028,-0.969,0.09,0.305,0.183,0.61,477.216
136791,152790,12932,0.028,-0.963,0.083,0.305,0.183,0.61,477.222
136775,152618,22412,0.029,-0.961,0.081,0.061,0.305,0.488,477.226
136775,152788,12911,0.031,-0.959,0.079,0.061,0.305,0.488,477.232
136782,152618,22412,0.031,-0.961,0.081,-0.305,0.122,0.427,477.236
136782,152810,12914,0.033,-0.964,0.087,-0.305,0.122,0.427,477.242
136787,152618,22412,0.031,-0.964,0.088,0,0.183,0.488,477.246
136787,152798,12915,0.028,-0.967,0.086,0,0.183,0.488,477.252
136788,152618,22412,0.027,-0.969,0.099,-0.183,0.122,0.549,477.256
136788,152801,12928,0.03,-0.963,0.098,-0.183,0.122,0.549,477.262
136812,152618,22412,0.03,-0.962,0.085,-1.159,0.122,0.305,477.266
136812,152822,12907,0.031,-0.964,0.078,-1.159,0.122,0.305,477.272
136821,152618,22412,0.035,-0.975,0.07,-1.89,0.244,0.183,477.276
136821,152828,12926,0.033,-0.977,0.064,-1.89,0.244,0.183,477.282
136840,152874,22412,0.032,-0.977,0.055,-0.61,0.732,-0.061,477.286
136840,152854,12932,0.029,-0.981,0.057,-0.61,0.732,-0.061,477.292
136872,152874,22412,0.029,-0.981,0.075,2.256,1.037,-0.366,477.295
136872,152858,12939,0.031,-0.972,0.091,2.256,1.037,-0.366,477.302
136906,152874,22412,0.032,-0.961,0.095,3.72,0.915,-0.366,477.305
136906,152920,12952,0.032,-0.953,0.098,3.72,0.915,-0.366,477.311
136949,152874,22412,0.033,-0.947,0.095,2.256,0.854,0,477.315
136949,152931,12957,0.031,-0.954,0.087,2.256,0.854,0,477.321
136908,152874,22412,0.03,-0.959,0.091,0.427,0.854,0.183,477.325
136908,152911,12925,0.032,-0.957,0.091,0.427,0.854,0.183,477.331
136907,152874,22412,0.034,-0.952,0.09,-0.305,0.549,0.366,477.335
136907,152879,12934,0.035,-0.949,0.088,-0.305,0.549,0.366,477.341
136864,152874,22412,0.035,-0.949,0.088,-0.305,0.549,0.366,477.345
136864,152839,12936,0.034,-0.955,0.09,-1.28,0.183,0.427,477.351
136831,152874,22412,0.034,-0.955,0.09,-1.28,0.183,0.427,477.355
136831,152840,12939,0.034,-0.958,0.078,-1.89,-0.061,0.427,477.361
136831,152874,22412,0.034,-0.958,0.078,-1.89,-0.061,0.427,477.365
136831,152849,12923,0.032,-0.971,0.068,-2.256,-0.061,0.61,477.371
136843,152874,22412,0.032,-0.971,0.068,-2.256,-0.061,0.61,477.375
136843,152846,12944,0.034,-0.979,0.068,-1.585,0.183,0.61,477.381
136859,152874,22412,0.034,-0.979,0.068,-1.585,0.183,0.61,477.385
136859,152864,12932,0.026,-0.978,0.085,0.488,0.427,0.427,477.391
136869,152874,22412,0.026,-0.978,0.085,0.488,0.427,0.427,477.394
136869,152867,12925,0.034,-0.953,0.088,1.89,0.427,0.549,477.401
136874,152874,22412,0.034,-0.953,0.088,1.89,0.427,0.549,477.404
136874,152855,12938,0.031,-0.967,0.098,1.22,0.427,0.61,477.41
136874,152874,22412,0.031,-0.967,0.098,1.22,0.427,0.61,477.414
136874,152896,12940,0.025,-0.969,0.097,0.427,0.671,0.732,477.42
136895,152874,22412,0.025,-0.969,0.097,0.427,0.671,0.732,477.424
136895,152871,12932,0.03,-0.952,0.089,-1.037,0.366,0.732,477.43
136843,152874,22412,0.03,-0.952,0.089,-1.037,0.366,0.732,477.434
136843,152856,12933,0.033,-0.962,0.074,-2.561,0.061,0.366,477.44
136799,152618,22412,0.033,-0.962,0.074,-2.561,0.061,0.366,477.444
136799,152822,12924,0.03,-0.968,0.077,-2.805,0,-0.061,477.45
136761,152618,22412,0.03,-0.968,0.077,-2.805,0,-0.061,477.454
136761,152781,12917,0.033,-0.953,0.067,-1.89,-0.244,0.061,477.46
136706,152618,22412,0.033,-0.953,0.067,-1.89,-0.244,0.061,477.464
136706,152748,12913,0.035,-0.976,0.067,-1.159,-0.183,0.061,477.47
136706,152618,22412,0.035,-0.976,0.067,-1.159,-0.183,0.061,477.474
136706,152783,12901,0.034,-0.98,0.073,0.549,0.488,-0.061,477.48
136713,152618,22412,0.034,-0.98,0.073,0.549,0.488,-0.061,477.484
136713,152787,12907,0.033,-0.972,0.076,2.256,0.732,0,477.49
136745,152618,22412,0.032,-0.964,0.078,2.256,0.732,0,477.493
136745,152811,12925,0.034,-0.966,0.094,3.415,0.854,0.183,477.5
136749,152618,22412,0.03,-0.971,0.104,3.415,0.854,0.183,477.503
136749,152787,12911,0.033,-0.968,0.101,3.049,0.854,0.549,477.51
136757,152618,22412,0.033,-0.959,0.097,3.049,0.854,0.549,477.513
136757,152829,12930,0.03,-0.96,0.094,1.22,0.915,0.671,477.519
136764,152618,22412,0.03,-0.964,0.095,1.22,0.915,0.671,477.523
136764,152794,12916,0.024,-0.966,0.095,0.488,0.854,0.488,477.529
136711,152618,22412,0.026,-0.965,0.098,0.488,0.854,0.488,477.533
136711,152754,12919,0.031,-0.958,0.091,-0.427,0.427,0.183,477.539
136656,152618,22412,0.035,-0.957,0.086,-0.427,0.427,0.183,477.543
136656,152729,12913,0.033,-0.957,0.08,-1.585,0.183,-0.061,477.549
136640,152618,22412,0.035,-0.952,0.073,-1.585,0.183,-0.061,477.553
136640,152724,12895,0.037,-0.953,0.073,-1.768,0.244,-0.061,477.559
136626,152618,22412,0.035,-0.955,0.07,-1.768,0.244,-0.061,477.563
136626,152725,12904,0.031,-0.958,0.062,-0.976,0.427,0.183,477.569
136669,152618,22412,0.034,-0.962,0.064,-0.976,0.427,0.183,477.573
136669,152748,12914,0.036,-0.964,0.068,0.305,0.793,0.305,477.579
136700,152618,22412,0.034,-0.97,0.074,0.305,0.793,0.305,477.583
136700,152747,12904,0.029,-0.977,0.09,2.012,0.915,0.427,477.589
136727,152618,22412,0.03,-0.974,0.093,2.012,0.915,0.427,477.592
136727,152786,12925,0.03,-0.969,0.088,2.317,0.915,0.793,477.599
136749,152618,22412,0.033,-0.964,0.089,2.317,0.915,0.793,477.602
136749,152786,12912,0.034,-0.966,0.096,1.646,0.488,1.159,477.608
136745,152618,22412,0.034,-0.966,0.102,1.646,0.488,1.159,477.612
136745,152809,12926,0.033,-0.962,0.099,0.61,0.366,1.22,477.618
136754,152618,22412,0.032,-0.958,0.101,0.61,0.366,1.22,477.622
136754,152803,12923,0.028,-0.949,0.105,-0.61,0.366,1.159,477.628
136764,152618,22412,0.027,-0.95,0.102,-0.61,0.366,1.159,477.632
136764,152816,12908,0.03,-0.957,0.092,-1.951,0.183,0.793,477.638
136759,152618,22412,0.033,-0.968,0.087,-1.951,0.183,0.793,477.642
136759,152775,12911,0.03,-0.972,0.079,-3.354,0,0.488,477.648
136769,152618,22412,0.029,-0.978,0.074,-3.354,0,0.488,477.652
136769,152807,12935,0.027,-0.977,0.068,-2.866,0.183,0.549,477.658
136791,152874,22412,0.033,-0.966,0.056,-2.866,0.183,0.549,477.662
136791,152835,12930,0.034,-0.964,0.051,-1.22,0.549,0.366,477.668
136812,152618,22412,0.031,-0.974,0.066,-1.22,0.549,0.366,477.672
136812,152822,12923,0.031,-0.986,0.083,1.829,1.098,0.061,477.678
136807,152874,22412,0.026,-0.978,0.083,1.829,1.098,0.061,477.682
136807,152877,12949,0.03,-0.962,0.085,3.049,1.22,0.244,477.688
136854,152874,22412,0.029,-0.951,0.092,3.049,1.22,0.244,477.691
136854,152867,12937,0.027,-0.95,0.1,2.134,1.037,0.305,477.698
136828,152874,22412,0.029,-0.959,0.103,2.134,1.037,0.305,477.701
136828,152893,12931,0.031,-0.965,0.093,0.61,0.549,0.305,477.708
136839,152874,22412,0.03,-0.969,0.087,0.61,0.549,0.305,477.711
136839,152880,12939,0.029,-0.967,0.089,-0.915,0,0.366,477.717
136825,152874,22412,0.03,-0.959,0.088,-0.915,0,0.366,477.721
136825,152849,12923,0.031,-0.949,0.089,-1.22,-0.244,0.122,477.727
136856,152874,22412,0.034,-0.947,0.086,-1.22,-0.244,0.122,477.731
136856,152880,12938,0.037,-0.948,0.085,-1.89,-0.732,0.244,477.737
136850,152874,22412,0.039,-0.947,0.075,-1.89,-0.732,0.244,477.741
136850,152896,12934,0.041,-0.951,0.068,-2.561,-0.549,0.366,477.747
136895,152874,22412,0.038,-0.963,0.075,-2.561,-0.549,0.366,477.751
136895,152928,12945,0.034,-0.969,0.079,-1.341,-0.061,0.671,477.757
136945,152874,22412,0.034,-0.97,0.076,-1.341,-0.061,0.671,477.761
136945,152935,12941,0.032,-0.976,0.073,-0.305,0.244,0.976,477.767
136952,152874,22412,0.027,-0.984,0.081,-0.305,0.244,0.976,477.771
136952,152979,12951,0.027,-0.988,0.082,0.549,0.671,0.671,477.777
136974,152874,22412,0.027,-0.984,0.084,0.549,0.671,0.671,477.781
136974,152964,12951,0.031,-0.976,0.091,1.037,0.671,0.427,477.787
136982,152874,22412,0.032,-0.966,0.095,1.037,0.671,0.427,477.79
136982,152960,12949,0.034,-0.962,0.099,0.854,0.671,0.427,477.797
136964,152874,22412,0.031,-0.962,0.101,0.854,0.671,0.427,477.8
136964,152937,12949,0.03,-0.963,0.098,-0.366,1.037,0.549,477.806
136896,152874,22412,0.027,-0.961,0.094,-0.366,1.037,0.549,477.81
136896,152927,12947,0.03,-0.958,0.084,-1.829,0.793,0.61,477.816
136834,152874,22412,0.029,-0.955,0.079,-1.829,0.793,0.61,477.82
136834,152861,12939,0.03,-0.958,0.083,-2.439,0.305,0.427,477.826
136809,152874,22412,0.029,-0.957,0.078,-2.439,0.305,0.427,477.83
136809,152839,12925,0.03,-0.958,0.076,-1.829,0,0.366,477.836
136799,152618,22412,0.032,-0.962,0.074,-1.829,0,0.366,477.84
136799,152830,12924,0.035,-0.962,0.075,-0.976,0.061,0.244,477.846
136814,152874,22412,0.035,-0.955,0.079,-0.976,0.061,0.244,477.85
136814,152847,12926,0.033,-0.952,0.087,-0.122,0.427,0.549,477.856
136845,152874,22412,0.033,-0.95,0.088,-0.122,0.427,0.549,477.86
136845,152862,12931,0.033,-0.956,0.08,-0.183,0.366,1.037,477.866
136897,152874,22412,0.031,-0.968,0.078,-0.183,0.366,1.037,477.87
136897,152873,12926,0.03,-0.978,0.075,-0.549,0.488,1.098,477.876
136898,152874,22412,0.029,-0.983,0.079,-0.549,0.488,1.098,477.88
136898,152893,12948,0.025,-0.985,0.083,0.061,0.732,0.854,477.886
136912,152874,22412,0.024,-0.983,0.084,0.061,0.732,0.854,477.889
136912,152938,12936,0.025,-0.98,0.087,0.427,0.305,0.732,477.896
136910,152874,22412,0.029,-0.971,0.089,0.427,0.305,0.732,477.899
136910,152899,12923,0.034,-0.967,0.089,-0.061,0.061,0.366,477.906
136852,152874,22412,0.032,-0.97,0.089,-0.061,0.061,0.366,477.909
136852,152868,12932,0.03,-0.971,0.09,-0.427,0.366,0.244,477.915
136813,152618,22412,0.027,-0.967,0.087,-0.427,0.366,0.244,477.919
136813,152831,12920,0.03,-0.966,0.081,-1.159,0.366,0.244,477.925
136797,152618,22412,0.03,-0.966,0.081,-1.159,0.366,0.244,477.929
136797,152803,12928,0.034,-0.959,0.073,-1.646,0.427,-0.122,477.935
136757,152618,22412,0.034,-0.959,0.073,-1.646,0.427,-0.122,477.939
136757,152782,12912,0.032,-0.964,0.071,-0.854,0.488,-0.427,477.945
136760,152618,22412,0.032,-0.964,0.071,-0.854,0.488,-0.427,477.949
136760,152782,12916,0.033,-0.963,0.082,0.549,0.549,-0.183,477.955
136775,152618,22412,0.033,-0.963,0.082,0.549,0.549,-0.183,477.959
136775,152809,12911,0.034,-0.948,0.084,1.341,0.793,0.244,477.965
136777,152618,22412,0.034,-0.948,0.084,1.341,0.793,0.244,477.969
136777,152809,12909,0.031,-0.953,0.085,1.037,0.915,0.549,477.975
136804,152618,22412,0.031,-0.953,0.085,1.037,0.915,0.549,477.979
136804,152824,12913,0.031,-0.965,0.085,1.159,0.671,0.549,477.985
136835,152874,22412,0.031,-0.965,0.085,1.159,0.671,0.549,477.988
136835,152862,12940,0.027,-0.96,0.086,1.098,0.488,0.671,477.995
136826,152874,22412,0.027,-0.96,0.086,1.098,0.488,0.671,477.998
136826,152848,12900,0.026,-0.963,0.095,0.732,0.183,0.488,478.004
136791,152874,22412,0.026,-0.963,0.095,0.732,0.183,0.488,478.008
136791,152851,12929,0.032,-0.967,0.089,-0.427,-0.244,0.244,478.014
136798,152874,22412,0.032,-0.967,0.089,-0.427,-0.244,0.244,478.018
136798,152843,12914,0.032,-0.973,0.091,-1.585,-0.061,0.122,478.024
136839,152874,22412,0.032,-0.973,0.091,-1.585,-0.061,0.122,478.028
136839,152866,12909,0.029,-0.963,0.078,-2.195,0.061,0.183,478.034
136871,152874,22412,0.029,-0.963,0.078,-2.195,0.061,0.183,478.038
136871,152907,12946,0.034,-0.969,0.07,-2.195,0.183,0.122,478.044
136952,152874,22412,0.034,-0.969,0.07,-2.195,0.183,0.122,478.048
136952,152936,12950,0.036,-0.972,0.068,-1.037,0.427,-0.183,478.054
137026,152874,22412,0.036,-0.972,0.068,-1.037,0.427,-0.183,478.058
137026,153035,12956,0.037,-0.969,0.079,0.61,0.61,-0.122,478.064
137092,152874,22412,0.037,-0.969,0.079,0.61,0.61,-0.122,478.068
137092,153048,12951,0.037,-0.962,0.075,0.61,0.61,-0.122,478.074
137129,152874,22412,0.038,-0.953,0.085,1.463,0.61,0.366,478.078
137129,153083,12973,0.031,-0.956,0.091,1.463,0.61,0.366,478.084
137156,153130,22412,0.028,-0.957,0.096,1.524,0.793,0.671,478.087
137156,153098,12974,0.029,-0.958,0.092,1.524,0.793,0.671,478.094
137146,152874,22412,0.029,-0.966,0.093,0.549,0.61,0.854,478.097
137146,153075,12974,0.026,-0.963,0.093,0.549,0.61,0.854,478.104
137153,153130,22412,0.028,-0.955,0.097,-0.305,0.244,0.793,478.107
137153,153100,12971,0.03,-0.957,0.096,-0.305,0.244,0.793,478.113
137158,153130,22412,0.029,-0.961,0.092,-1.646,-0.305,0.671,478.117
137158,153101,12984,0.029,-0.966,0.089,-1.646,-0.305,0.671,478.123
137131,152874,22412,0.031,-0.963,0.086,-2.439,-0.244,0.488,478.127
137131,153082,12966,0.031,-0.96,0.083,-2.439,-0.244,0.488,478.133
137116,152874,22412,0.033,-0.963,0.074,-2.927,-0.061,0.366,478.137
137116,153062,12953,0.034,-0.963,0.064,-2.927,-0.061,0.366,478.143
137100,152874,22412,0.035,-0.972,0.062,-2.256,0.183,0.366,478.147
137100,153068,12980,0.03,-0.987,0.065,-2.256,0.183,0.366,478.153
137128,153130,22412,0.029,-0.987,0.062,-0.305,0.915,0.122,478.157
137128,153111,12964,0.029,-0.972,0.064,-0.305,0.915,0.122,478.163
137141,152874,22412,0.031,-0.962,0.071,1.585,1.037,0.122,478.167
137141,153067,12963,0.034,-0.965,0.085,1.585,1.037,0.122,478.173
137130,152874,22412,0.032,-0.971,0.088,3.049,0.976,0.122,478.177
137130,153055,12974,0.03,-0.97,0.087,3.049,0.976,0.122,478.183
137137,153130,22412,0.03,-0.968,0.084,2.866,1.159,0.305,478.186
137137,153091,12960,0.03,-0.96,0.09,2.866,1.159,0.305,478.193
137153,153130,22412,0.028,-0.953,0.096,2.195,0.854,0.427,478.196
137153,153094,12967,0.029,-0.947,0.094,2.195,0.854,0.427,478.203
137159,152874,22412,0.032,-0.948,0.095,1.159,0.305,0.549,478.206
137159,153068,12958,0.036,-0.95,0.094,1.159,0.305,0.549,478.212
137120,152874,22412,0.033,-0.95,0.09,-0.244,0.122,0.427,478.216
137120,153048,12968,0.034,-0.951,0.099,-0.244,0.122,0.427,478.222
137108,152874,22412,0.031,-0.956,0.09,-1.098,0.244,0.671,478.226
137108,153039,12966,0.03,-0.959,0.081,-1.098,0.244,0.671,478.232
137071,152874,22412,0.03,-0.963,0.075,-2.073,0.305,0.732,478.236
137071,153021,12952,0.03,-0.966,0.071,-2.073,0.305,0.732,478.242
137036,152874,22412,0.033,-0.967,0.073,-1.768,0.366,0.549,478.246
137036,152993,12942,0.031,-0.973,0.072,-1.768,0.366,0.549,478.252
137008,152874,22412,0.031,-0.982,0.074,-0.305,0.549,0.305,478.256
137008,152950,12945,0.028,-0.984,0.081,-0.305,0.549,0.305,478.262
136985,152874,22412,0.03,-0.978,0.088,0.976,0.793,0.366,478.266
136985,152983,12955,0.031,-0.972,0.09,0.976,0.793,0.366,478.272
137005,152874,22412,0.029,-0.966,0.093,0.549,0.671,0.366,478.276
137005,152975,12947,0.027,-0.969,0.091,0.549,0.671,0.366,478.282
136979,152874,22412,0.028,-0.97,0.084,-0.122,0.427,0.305,478.285
136979,152959,12940,0.03,-0.965,0.083,-0.122,0.427,0.305,478.292
137002,152874,22412,0.028,-0.958,0.086,-0.61,0.366,0.183,478.295
137002,152966,12947,0.028,-0.949,0.085,-0.61,0.366,0.183,478.302
136967,152874,22412,0.036,-0.947,0.083,-1.098,-0.061,0.183,478.305
136967,152957,12945,0.034,-0.951,0.076,-1.098,-0.061,0.183,478.311
136943,152874,22412,0.037,-0.958,0.081,-1.341,-0.061,0.244,478.315
136943,152934,12933,0.036,-0.963,0.083,-1.341,-0.061,0.244,478.321
136958,152874,22412,0.034,-0.963,0.08,-0.915,0.122,0.488,478.325
136958,152949,12934,0.035,-0.961,0.08,-0.915,0.122,0.488,478.331
136993,152874,22412,0.034,-0.963,0.081,-0.671,0.061,1.037,478.335
136993,152971,12944,0.031,-0.963,0.078,-0.671,0.061,1.037,478.341
137012,152874,22412,0.032,-0.963,0.077,-0.244,0.488,1.098,478.345
137012,152998,12937,0.033,-0.967,0.075,-0.244,0.488,1.098,478.351
137042,152874,22412,0.031,-0.972,0.081,-0.061,0.732,0.854,478.355
137042,152995,12967,0.029,-0.972,0.089,-0.061,0.732,0.854,478.361
137080,152874,22412,0.027,-0.967,0.088,-0.061,0.488,1.098,478.365
137080,153014,12955,0.025,-0.963,0.087,-0.061,0.488,1.098,478.371
137066,152874,22412,0.025,-0.967,0.085,-1.037,0.366,0.793,478.375
137066,153013,12951,0.028,-0.978,0.082,-1.037,0.366,0.793,478.381
137058,152874,22412,0.027,-0.976,0.076,-1.463,0.366,0.244,478.384
137058,153008,12960,0.028,-0.976,0.074,-1.463,0.366,0.244,478.391
137026,152874,22412,0.03,-0.971,0.076,-1.22,0.244,-0.122,478.394
137026,152963,12953,0.035,-0.969,0.067,-1.22,0.244,-0.122,478.401
136929,152874,22412,0.035,-0.974,0.07,-0.305,0.427,-0.244,478.404
136929,152917,12938,0.033,-0.983,0.079,-0.305,0.427,-0.244,478.41
136903,152874,22412,0.026,-0.983,0.083,1.098,0.793,-0.366,478.414
136903,152904,12935,0.029,-0.975,0.086,1.098,0.793,-0.366,478.42
136906,152874,22412,0.029,-0.964,0.09,1.707,0.671,-0.122,478.424
136906,152878,12927,0.032,-0.959,0.09,1.707,0.671,-0.122,478.43
136910,152874,22412,0.032,-0.959,0.096,1.585,0.488,0,478.434
136910,152901,12941,0.033,-0.955,0.096,1.585,0.488,0,478.44
136921,152874,22412,0.033,-0.956,0.089,1.037,0.488,0.183,478.444
136921,152944,12945,0.034,-0.956,0.088,1.037,0.488,0.183,478.45
136985,152874,22412,0.032,-0.951,0.09,0.427,0.671,0.183,478.454
136985,152988,12939,0.03,-0.949,0.086,0.427,0.671,0.183,478.46
137027,152874,22412,0.031,-0.945,0.084,-0.183,0.488,0.244,478.464
137027,152990,12954,0.032,-0.94,0.086,-0.183,0.488,0.244,478.47
137044,152874,22412,0.031,-0.945,0.086,-0.732,0.488,0.427,478.474
137044,153000,12976,0.03,-0.951,0.078,-0.732,0.488,0.427,478.48
137064,152874,22412,0.035,-0.967,0.073,-0.976,0.61,0.427,478.483
137064,153009,12958,0.033,-0.975,0.056,-0.976,0.61,0.427,478.49
137054,152874,22412,0.032,-0.984,0.059,-0.427,0.732,0.549,478.493
137054,153020,12954,0.028,-0.991,0.074,-0.427,0.732,0.549,478.5
137033,152874,22412,0.03,-0.987,0.081,1.89,0.854,0.549,478.503
137033,153019,12959,0.033,-0.977,0.081,1.89,0.854,0.549,478.509
137017,152874,22412,0.032,-0.968,0.086,2.683,0.854,0.488,478.513
137017,152981,12954,0.032,-0.964,0.093,2.683,0.854,0.488,478.519
137015,152874,22412,0.032,-0.964,0.093,2.683,0.854,0.488,478.523
137015,152958,12945,0.036,-0.971,0.098,2.256,0.732,0.427,478.529
136985,152874,22412,0.036,-0.971,0.098,2.256,0.732,0.427,478.533
136985,152975,12961,0.031,-0.963,0.085,0.732,0.305,0.671,478.539
136981,152874,22412,0.031,-0.963,0.085,0.732,0.305,0.671,478.543
136981,152970,12937,0.03,-0.96,0.084,-0.183,0.427,0.61,478.549
136968,152874,22412,0.03,-0.96,0.084,-0.183,0.427,0.61,478.553
136968,152948,12950,0.034,-0.953,0.082,-0.305,0.305,0.305,478.559
136961,152874,22412,0.034,-0.953,0.082,-0.305,0.305,0.305,478.563
136961,152958,12937,0.035,-0.952,0.096,-0.366,-0.122,0.488,478.569
136952,152874,22412,0.035,-0.952,0.096,-0.366,-0.122,0.488,478.573
136952,152964,12956,0.031,-0.948,0.083,-0.61,0.122,0.793,478.579
136961,152874,22412,0.031,-0.948,0.083,-0.61,0.122,0.793,478.582
136961,152969,12942,0.029,-0.961,0.074,-1.646,0.549,1.22,478.589
136976,152874,22412,0.029,-0.961,0.074,-1.646,0.549,1.22,478.592
136976,152950,12953,0.027,-0.967,0.08,-1.707,0.427,1.22,478.599
136996,152874,22412,0.027,-0.967,0.08,-1.707,0.427,1.22,478.602
136996,152974,12951,0.023,-0.978,0.081,-0.915,0.488,0.915,478.608
136970,152874,22412,0.023,-0.978,0.081,-0.915,0.488,0.915,478.612
136970,152958,12935,0.025,-0.969,0.086,-0.793,0.427,0.671,478.618
136926,152874,22412,0.025,-0.969,0.086,-0.793,0.427,0.671,478.622
136926,152912,12939,0.033,-0.964,0.09,-0.976,0.244,0.244,478.628
136886,152874,22412,0.033,-0.964,0.09,-0.976,0.244,0.244,478.632
136886,152898,12930,0.029,-0.97,0.083,-1.22,0.061,0.366,478.638
136844,152874,22412,0.029,-0.97,0.083,-1.22,0.061,0.366,478.642
136844,152872,12926,0.026,-0.971,0.083,-1.707,0.122,0.549,478.648
136832,152874,22412,0.026,-0.971,0.083,-1.707,0.122,0.549,478.652
136832,152844,12910,0.033,-0.962,0.079,-1.524,0,0.427,478.658
136791,152874,22412,0.033,-0.962,0.079,-1.524,0,0.427,478.662
136791,152833,12928,0.036,-0.962,0.083,-1.341,-0.305,0.244,478.668
136788,152618,22412,0.034,-0.967,0.082,-1.341,-0.305,0.244,478.672
136788,152806,12923,0.035,-0.966,0.084,-1.098,0,0.244,478.678
136794,152618,22412,0.033,-0.964,0.077,-1.098,0,0.244,478.681
136794,152821,12941,0.032,-0.959,0.07,-1.22,0.427,0.305,478.688
136807,152618,22412,0.032,-0.964,0.063,-1.22,0.427,0.305,478.691
136807,152830,12941,0.03,-0.975,0.067,-0.366,0.61,0.183,478.698
136810,152874,22412,0.032,-0.98,0.07,-0.366,0.61,0.183,478.701
136810,152858,12904,0.034,-0.972,0.074,1.707,0.793,0.183,478.707
136789,152618,22412,0.036,-0.959,0.071,1.707,0.793,0.183,478.711
136789,152825,12924,0.035,-0.953,0.081,2.5,1.037,0.61,478.717
136726,152618,22412,0.033,-0.959,0.094,2.5,1.037,0.61,478.721
136726,152765,12905,0.03,-0.963,0.09,2.683,1.585,0.854,478.727
136659,152618,22412,0.026,-0.965,0.088,2.683,1.585,0.854,478.731
136659,152726,12907,0.027,-0.969,0.09,1.524,1.585,1.037,478.737
136610,152618,22412,0.025,-0.972,0.092,1.524,1.585,1.037,478.741
136610,152682,12890,0.025,-0.972,0.093,1.037,1.037,0.976,478.747
136565,152618,22412,0.023,-0.969,0.093,1.037,1.037,0.976,478.751
136565,152657,12889,0.024,-0.961,0.094,0.732,0.61,0.732,478.757
136549,152618,22412,0.026,-0.957,0.095,0.732,0.61,0.732,478.761
136549,152662,12873,0.025,-0.95,0.092,-0.305,0.061,0.549,478.767
136566,152618,22412,0.029,-0.949,0.087,-0.305,0.061,0.549,478.771
136566,152657,12885,0.033,-0.958,0.081,-1.28,-0.183,0.305,478.777
136614,152618,22412,0.031,-0.964,0.083,-1.28,-0.183,0.305,478.78
136614,152678,12909,0.028,-0.97,0.079,-1.707,0,0.183,478.787
136629,152618,22412,0.029,-0.968,0.08,-1.707,0,0.183,478.79
136629,152687,12897,0.029,-0.957,0.082,-1.463,0.122,0.366,478.797
136652,152618,22412,0.028,-0.957,0.081,-1.463,0.122,0.366,478.8
136652,152723,12901,0.027,-0.964,0.073,-1.524,0.183,0.244,478.806
136655,152618,22412,0.028,-0.974,0.072,-1.524,0.183,0.244,478.81
136655,152737,12893,0.028,-0.983,0.076,-0.854,0.549,0,478.816
136701,152618,22412,0.03,-0.982,0.08,-0.854,0.549,0,478.82
136701,152730,12899,0.029,-0.971,0.08,0.244,0.61,0,478.826
136702,152618,22412,0.029,-0.959,0.087,0.244,0.61,0,478.83
136702,152749,12909,0.033,-0.957,0.089,0.427,0.488,0.122,478.836
136744,152618,22412,0.03,-0.963,0.092,0.427,0.488,0.122,478.84
136744,152771,12916,0.031,-0.966,0.091,0.122,0.305,0.244,478.846
136753,152618,22412,0.031,-0.965,0.082,0.122,0.305,0.244,478.85
136753,152775,12914,0.031,-0.957,0.079,-0.61,0.183,0.183,478.856
136763,152618,22412,0.034,-0.953,0.081,-0.61,0.183,0.183,478.86
136763,152770,12900,0.035,-0.955,0.08,-0.61,0.061,0.122,478.866
136791,152618,22412,0.035,-0.961,0.074,-0.61,0.061,0.122,478.87
136791,152831,12915,0.033,-0.962,0.073,0,0.183,0.305,478.876
136798,152874,22412,0.034,-0.968,0.08,0,0.183,0.305,478.879
136798,152835,12914,0.034,-0.97,0.077,0.793,0.549,0.488,478.886
136841,152874,22412,0.03,-0.973,0.078,0.793,0.549,0.488,478.889
136841,152872,12929,0.029,-0.98,0.084,1.28,0.854,0.488,478.896
136850,152874,22412,0.027,-0.984,0.085,1.28,0.854,0.488,478.899
136850,152866,12924,0.026,-0.978,0.09,1.768,0.854,0.488,478.905
136884,152874,22412,0.028,-0.97,0.102,1.768,0.854,0.488,478.909
136884,152893,12929,0.026,-0.962,0.105,1.646,0.793,0.427,478.915
136908,152874,22412,0.026,-0.958,0.097,1.646,0.793,0.427,478.919
136908,152924,12946,0.028,-0.961,0.096,0,0.732,0,478.925
136902,152874,22412,0.026,-0.97,0.098,0,0.732,0,478.929
136902,152898,12928,0.026,-0.969,0.09,-1.28,0.427,-0.183,478.935
136874,152874,22412,0.027,-0.965,0.084,-1.28,0.427,-0.183,478.939
136874,152883,12937,0.025,-0.958,0.079,-1.829,0.061,-0.488,478.945
136856,152874,22412,0.029,-0.953,0.081,-1.829,0.061,-0.488,478.949
136856,152847,12926,0.037,-0.943,0.075,-1.707,-0.305,-0.671,478.955
136822,152618,22412,0.038,-0.944,0.061,-1.707,-0.305,-0.671,478.959
136822,152826,12902,0.035,-0.957,0.067,-0.976,0.183,-0.61,478.965
136810,152618,22412,0.032,-0.978,0.066,-0.976,0.183,-0.61,478.969
136810,152800,12909,0.029,-0.986,0.062,0.488,0.915,-0.549,478.975
136795,152874,22412,0.028,-0.988,0.071,0.488,0.915,-0.549,478.978
136795,152834,12926,0.03,-0.976,0.087,2.134,1.098,-0.305,478.985
136862,152874,22412,0.036,-0.953,0.09,2.134,1.098,-0.305,478.988
136862,152854,12918,0.035,-0.942,0.093,2.439,0.793,-0.183,478.995
136853,152874,22412,0.035,-0.953,0.095,2.439,0.793,-0.183,478.998
136853,152886,12937,0.032,-0.962,0.089,1.402,0.793,-0.061,479.004
136894,152874,22412,0.032,-0.967,0.082,1.402,0.793,-0.061,479.008
136894,152891,12943,0.034,-0.963,0.081,0.549,0.915,0.122,479.014
136923,152874,22412,0.031,-0.959,0.082,0.549,0.915,0.122,479.018
136923,152894,12934,0.033,-0.96,0.088,0.488,0.427,0.488,479.024
136933,152874,22412,0.035,-0.956,0.094,0.488,0.427,0.488,479.028
136933,152911,12949,0.033,-0.952,0.095,0,0.122,0.671,479.034
136924,152874,22412,0.035,-0.948,0.093,0,0.122,0.671,479.038
136924,152947,12935,0.035,-0.956,0.106,-1.098,-0.183,1.098,479.044
136920,152874,22412,0.035,-0.959,0.107,-1.098,-0.183,1.098,479.048
136920,152894,12939,0.029,-0.954,0.084,-2.866,-0.183,1.524,479.054
136915,152874,22412,0.031,-0.957,0.066,-2.866,-0.183,1.524,479.058
136915,152916,12934,0.029,-0.974,0.072,-4.268,-0.061,1.28,479.064
136879,152874,22412,0.027,-0.983,0.073,-4.268,-0.061,1.28,479.068
136879,152874,12915,0.031,-0.978,0.059,-2.744,0.244,0.61,479.074
136850,152874,22412,0.033,-0.977,0.058,-2.744,0.244,0.61,479.077
136850,152887,12933,0.032,-0.981,0.074,-0.427,0.549,0.305,479.084
136876,152874,22412,0.031,-0.977,0.089,-0.427,0.549,0.305,479.087
136876,152859,12912,0.027,-0.963,0.094,1.585,0.976,0.305,479.094
136859,152874,22412,0.027,-0.962,0.094,1.585,0.976,0.305,479.097
136859,152863,12923,0.03,-0.965,0.087,0.732,0.854,0.732,479.103
136837,152874,22412,0.027,-0.969,0.084,0.732,0.854,0.732,479.107
136837,152853,12921,0.025,-0.969,0.08,0.122,0.793,0.671,479.113
136826,152874,22412,0.025,-0.969,0.08,0.122,0.793,0.671,479.117
136826,152837,12918,0.027,-0.963,0.07,0.549,0.732,0.305,479.123
136797,152618,22412,0.027,-0.963,0.07,0.549,0.732,0.305,479.127
136797,152786,12913,0.034,-0.961,0.09,1.463,0.305,0,479.133
136765,152618,22412,0.034,-0.961,0.09,1.463,0.305,0,479.137
136765,152785,12914,0.04,-0.949,0.091,1.585,0.183,0.061,479.143
136777,152618,22412,0.04,-0.949,0.091,1.585,0.183,0.061,479.147
136777,152811,12901,0.037,-0.949,0.095,0.366,0.244,0.488,479.153
136822,152618,22412,0.037,-0.949,0.095,0.366,0.244,0.488,479.157
136822,152817,12925,0.032,-0.958,0.078,-1.037,0.61,0.854,479.163
136827,152874,22412,0.032,-0.958,0.078,-1.037,0.61,0.854,479.167
136827,152842,12925,0.027,-0.979,0.083,-0.793,0.854,0.915,479.173
136831,152874,22412,0.027,-0.979,0.083,-0.793,0.854,0.915,479.176
136831,152850,12914,0.026,-0.972,0.078,-0.244,0.793,0.732,479.183
136797,152874,22412,0.026,-0.972,0.078,-0.244,0.793,0.732,479.186
136797,152842,12914,0.029,-0.983,0.085,0.122,0.61,0.244,479.193
136707,152618,22412,0.029,-0.983,0.085,0.122,0.61,0.244,479.196
136707,152734,12895,0.029,-0.981,0.081,0.732,0.732,-0.061,479.202
136596,152618,22412,0.029,-0.981,0.081,0.732,0.732,-0.061,479.206
136596,152663,12898,0.03,-0.967,0.092,0.854,0.488,-0.061,479.212
136496,152362,22412,0.03,-0.967,0.092,0.854,0.488,-0.061,479.216
136496,152573,12859,0.033,-0.952,0.089,0.488,0.244,0.122,479.222
136367,152362,22412,0.033,-0.952,0.089,0.488,0.244,0.122,479.226
136367,152516,12858,0.036,-0.95,0.087,-0.061,0.122,0.366,479.232
136302,152362,22412,0.036,-0.95,0.087,-0.061,0.122,0.366,479.236
136302,152454,12833,0.032,-0.948,0.082,-0.488,0.122,0.549,479.242
136227,152362,22412,0.032,-0.948,0.082,-0.488,0.122,0.549,479.246
136227,152396,12843,0.032,-0.948,0.084,-0.793,-0.183,0.671,479.252
136244,152362,22412,0.032,-0.948,0.084,-0.793,-0.183,0.671,479.256
136244,152415,12830,0.034,-0.948,0.077,-0.793,-0.183,0.671,479.262
136185,152362,22412,0.037,-0.951,0.08,-1.098,-0.183,0.61,479.266
136185,152388,12835,0.037,-0.957,0.081,-1.098,-0.183,0.61,479.272
136167,152362,22412,0.033,-0.966,0.084,-0.854,0,0.976,479.276
136167,152368,12825,0.033,-0.964,0.086,-0.854,0,0.976,479.282
136192,152362,22412,0.033,-0.963,0.086,-0.732,0.366,1.402,479.285
136192,152427,12838,0.026,-0.971,0.08,-0.732,0.366,1.402,479.292
136266,152362,22412,0.025,-0.978,0.075,-1.037,0.732,1.585,479.295
136266,152448,12843,0.024,-0.987,0.076,-1.037,0.732,1.585,479.301
136276,152362,22412,0.022,-0.996,0.088,-0.305,0.915,1.159,479.305
136276,152460,12850,0.02,-0.999,0.081,-0.305,0.915,1.159,479.311
136267,152362,22412,0.023,-0.994,0.077,0.671,0.854,0.427,479.315
136267,152456,12835,0.028,-0.98,0.08,0.671,0.854,0.427,479.321
136205,152362,22412,0.027,-0.971,0.09,1.159,0.671,-0.305,479.325
136205,152393,12835,0.028,-0.967,0.099,1.159,0.671,-0.305,479.331
136179,152362,22412,0.032,-0.967,0.091,0.976,0.244,-0.366,479.335
136179,152375,12836,0.038,-0.968,0.08,0.976,0.244,-0.366,479.341
136155,152362,22412,0.033,-0.966,0.082,0.183,0.488,-0.366,479.345
136155,152379,12811,0.031,-0.958,0.086,0.183,0.488,-0.366,479.351
136158,152362,22412,0.031,-0.95,0.087,0,0.61,-0.244,479.355
136158,152393,12821,0.034,-0.943,0.08,0,0.61,-0.244,479.361
136166,152362,22412,0.036,-0.943,0.079,-0.061,0.244,-0.061,479.365
136166,152401,12831,0.034,-0.948,0.082,-0.061,0.244,-0.061,479.371
136145,152362,22412,0.034,-0.948,0.073,-0.061,0.305,0.244,479.375
136145,152365,12825,0.035,-0.955,0.071,-0.061,0.305,0.244,479.381
136143,152362,22412,0.034,-0.968,0.078,0.732,0.732,0.549,479.384
136143,152364,12825,0.031,-0.973,0.08,0.732,0.732,0.549,479.391
136143,152362,22412,0.03,-0.967,0.082,1.951,0.488,0.854,479.394
136143,152359,12829,0.029,-0.961,0.09,1.951,0.488,0.854,479.401
136119,152362,22412,0.03,-0.957,0.097,1.951,0.488,0.915,479.404
136119,152326,12817,0.029,-0.954,0.097,1.951,0.488,0.915,479.41
136055,152106,22412,0.031,-0.962,0.1,1.098,0.427,0.915,479.414
136055,152299,12813,0.029,-0.972,0.104,1.098,0.427,0.915,479.42
136063,152106,22412,0.023,-0.982,0.104,-0.305,0.427,1.098,479.424
136063,152259,12802,0.023,-0.971,0.099,-0.305,0.427,1.098,479.43
136007,152106,22412,0.023,-0.964,0.083,-1.707,0.488,0.854,479.434
136007,152237,12806,0.025,-0.97,0.085,-1.707,0.488,0.854,479.44
136002,152106,22412,0.026,-0.979,0.08,-2.5,0.305,0.122,479.444
136002,152243,12809,0.028,-0.987,0.071,-2.5,0.305,0.122,479.45
136011,152106,22412,0.029,-0.986,0.07,-1.646,0.427,-0.488,479.454
136011,152276,12803,0.032,-0.979,0.065,-1.646,0.427,-0.488,479.46
136057,152106,22412,0.032,-0.967,0.068,0.244,0.488,-0.793,479.464
136057,152291,12804,0.031,-0.967,0.081,0.244,0.488,-0.793,479.47
136103,152362,22412,0.03,-0.963,0.082,1.829,0.488,-0.854,479.474
136103,152325,12831,0.035,-0.958,0.084,1.829,0.488,-0.854,479.48
136146,152362,22412,0.036,-0.951,0.082,2.073,0.671,-0.549,479.483
136146,152368,12825,0.038,-0.949,0.088,2.073,0.671,-0.549,479.49
136188,152362,22412,0.037,-0.954,0.089,1.89,0.671,0,479.493
136188,152402,12824,0.035,-0.952,0.089,1.89,0.671,0,479.499
136219,152362,22412,0.032,-0.954,0.088,1.28,0.61,0.549,479.503
136219,152430,12833,0.034,-0.955,0.09,1.28,0.61,0.549,479.509
136238,152362,22412,0.035,-0.951,0.085,0.61,0.549,0.915,479.513
136238,152442,12842,0.036,-0.95,0.083,0.61,0.549,0.915,479.519
136239,152362,22412,0.035,-0.956,0.092,0.549,0.549,1.037,479.523
136239,152422,12836,0.033,-0.961,0.092,0.549,0.549,1.037,479.529
136258,152362,22412,0.033,-0.965,0.098,0.488,0.671,1.159,479.533
136258,152456,12844,0.03,-0.969,0.099,0.488,0.671,1.159,479.539
136287,152362,22412,0.024,-0.973,0.096,-0.366,0.793,1.28,479.543
136287,152474,12853,0.026,-0.977,0.088,-0.366,0.793,1.28,479.549
136286,152362,22412,0.025,-0.981,0.091,-1.098,0.793,0.976,479.553
136286,152471,12852,0.023,-0.984,0.096,-1.098,0.793,0.976,479.559
136273,152362,22412,0.024,-0.98,0.092,-1.341,0.549,0.732,479.563
136273,152459,12855,0.024,-0.98,0.084,-1.341,0.549,0.732,479.569
136286,152362,22412,0.025,-0.978,0.076,-1.524,0.61,0.183,479.573
136286,152459,12847,0.026,-0.974,0.075,-1.524,0.61,0.183,479.579
136290,152362,22412,0.029,-0.966,0.078,-0.732,0.732,-0.366,479.582
136290,152476,12860,0.031,-0.958,0.075,-0.732,0.732,-0.366,479.589
136317,152362,22412,0.032,-0.952,0.074,0.427,0.61,-0.427,479.592
136317,152484,12857,0.032,-0.95,0.079,0.427,0.61,-0.427,479.599
136301,152362,22412,0.034,-0.947,0.078,0.976,0.61,-0.305,479.602
136301,152487,12855,0.035,-0.945,0.074,0.976,0.61,-0.305,479.608
136329,152362,22412,0.033,-0.954,0.073,1.159,0.854,0.061,479.612
136329,152489,12834,0.031,-0.967,0.08,1.159,0.854,0.061,479.618
136326,152362,22412,0.029,-0.971,0.084,2.256,0.854,0.366,479.622
136326,152498,12859,0.031,-0.966,0.086,2.256,0.854,0.366,479.628
136337,152362,22412,0.029,-0.961,0.087,2.5,0.732,0.366,479.632
136337,152507,12860,0.028,-0.96,0.098,2.5,0.732,0.366,479.638
136346,152362,22412,0.032,-0.962,0.109,2.256,0.427,0.488,479.642
136346,152519,12860,0.033,-0.961,0.106,2.256,0.427,0.488,479.648
136389,152362,22412,0.029,-0.959,0.102,0.732,0.305,0.549,479.652
136389,152563,12867,0.027,-0.96,0.096,0.732,0.305,0.549,479.658
136421,152618,22412,0.03,-0.964,0.091,-1.098,0.305,0.427,479.662
136421,152598,12879,0.031,-0.964,0.093,-1.098,0.305,0.427,479.668
136466,152618,22412,0.03,-0.961,0.091,-2.012,0.061,0.366,479.672
136466,152619,12882,0.032,-0.96,0.086,-2.012,0.061,0.366,479.678
136513,152618,22412,0.031,-0.96,0.078,-2.317,-0.061,0.549,479.681
136513,152645,12875,0.034,-0.964,0.078,-2.317,-0.061,0.549,479.688
136540,152618,22412,0.031,-0.967,0.082,-1.89,0.183,0.549,479.691
136540,152665,12895,0.028,-0.969,0.078,-1.89,0.183,0.549,479.698
136550,152618,22412,0.031,-0.969,0.074,-1.22,0.366,0.61,479.701
136550,152676,12894,0.032,-0.967,0.077,-1.22,0.366,0.61,479.707
136523,152618,22412,0.032,-0.967,0.077,-1.22,0.366,0.61,479.711
136523,152605,12880,0.032,-0.963,0.084,0,0.366,0.671,479.717
136444,152362,22412,0.032,-0.963,0.084,0,0.366,0.671,479.721
136444,152573,12874,0.031,-0.955,0.082,0.488,0.244,0.732,479.727
136468,152618,22412,0.031,-0.955,0.082,0.488,0.244,0.732,479.731
136468,152576,12874,0.029,-0.968,0.09,0.244,0.366,0.732,479.737
136459,152618,22412,0.029,-0.968,0.09,0.244,0.366,0.732,479.741
136459,152586,12878,0.025,-0.973,0.1,0.61,0.488,0.793,479.747
136448,152618,22412,0.025,-0.973,0.1,0.61,0.488,0.793,479.751
136448,152595,12877,0.027,-0.96,0.096,0.244,0.305,0.671,479.757
136487,152618,22412,0.027,-0.96,0.096,0.244,0.305,0.671,479.761
136487,152650,12882,0.025,-0.97,0.094,-0.854,0.244,0.366,479.767
136498,152618,22412,0.025,-0.97,0.094,-0.854,0.244,0.366,479.771
136498,152634,12879,0.027,-0.971,0.077,-1.829,0.366,-0.122,479.777
136523,152618,22412,0.027,-0.971,0.077,-1.829,0.366,-0.122,479.78
136523,152638,12888,0.034,-0.962,0.078,-1.951,0.305,-0.366,479.787
136548,152618,22412,0.034,-0.962,0.078,-1.951,0.305,-0.366,479.79
136548,152653,12884,0.036,-0.961,0.076,-0.732,0.183,-0.427,479.797
136565,152618,22412,0.036,-0.961,0.076,-0.732,0.183,-0.427,479.8
136565,152645,12894,0.037,-0.962,0.074,0.244,0.427,-0.061,479.806
136595,152618,22412,0.037,-0.962,0.074,0.244,0.427,-0.061,479.81
136595,152696,12878,0.031,-0.972,0.089,1.463,0.671,0.427,479.816
136596,152618,22412,0.031,-0.972,0.089,1.463,0.671,0.427,479.82
136596,152708,12893,0.027,-0.96,0.093,2.378,0.671,0.915,479.826
136574,152618,22412,0.027,-0.96,0.093,2.378,0.671,0.915,479.83
136574,152664,12888,0.026,-0.952,0.096,1.768,0.488,1.098,479.836
136564,152618,22412,0.026,-0.952,0.096,1.768,0.488,1.098,479.84
136564,152649,12882,0.029,-0.955,0.103,0.549,0.122,0.732,479.846
136531,152618,22412,0.029,-0.955,0.103,0.549,0.122,0.732,479.85
136531,152640,12883,0.03,-0.953,0.097,-1.037,-0.244,0.732,479.856
136512,152618,22412,0.028,-0.956,0.089,-1.037,-0.244,0.732,479.86
136512,152630,12885,0.026,-0.969,0.096,-2.378,-0.183,0.61,479.866
136490,152618,22412,0.024,-0.979,0.096,-2.378,-0.183,0.61,479.87
136490,152644,12881,0.026,-0.986,0.082,-2.439,-0.061,0.305,479.876
136507,152618,22412,0.028,-0.986,0.076,-2.439,-0.061,0.305,479.879
136507,152620,12871,0.029,-0.978,0.075,-2.683,0.061,-0.061,479.886
136510,152618,22412,0.031,-0.98,0.078,-2.683,0.061,-0.061,479.889
136510,152619,12891,0.032,-0.982,0.078,-0.976,0.305,-0.244,479.896
136552,152618,22412,0.029,-0.979,0.077,-0.976,0.305,-0.244,479.899
136552,152651,12885,0.029,-0.968,0.081,0.366,0.488,-0.183,479.905
136576,152618,22412,0.029,-0.956,0.083,0.366,0.488,-0.183,479.909
136576,152679,12892,0.031,-0.953,0.087,0.976,0.793,-0.427,479.915
136598,152618,22412,0.034,-0.955,0.08,0.976,0.793,-0.427,479.919
136598,152687,12884,0.035,-0.959,0.081,1.098,0.793,-0.244,479.925
136587,152618,22412,0.032,-0.961,0.086,1.098,0.793,-0.244,479.929
136587,152677,12891,0.031,-0.957,0.084,1.28,0.671,0.122,479.935
136592,152618,22412,0.028,-0.953,0.083,1.28,0.671,0.122,479.939
136592,152680,12899,0.028,-0.948,0.084,1.037,0.61,0.305,479.945
136561,152618,22412,0.03,-0.946,0.086,1.037,0.61,0.305,479.949
136561,152669,12894,0.032,-0.947,0.086,0.549,0.061,0.427,479.955
136588,152618,22412,0.036,-0.947,0.085,0.549,0.061,0.427,479.959
136588,152663,12893,0.038,-0.953,0.087,0.305,0,0.61,479.965
136582,152618,22412,0.036,-0.956,0.084,0.305,0,0.61,479.969
136582,152674,12896,0.032,-0.962,0.083,0.183,0.183,0.976,479.975
136608,152618,22412,0.03,-0.971,0.086,0.183,0.183,0.976,479.978
136608,152685,12894,0.028,-0.976,0.085,0.183,0.549,1.22,479.985
136659,152618,22412,0.026,-0.982,0.092,0.183,0.549,1.22,479.988
136659,152703,12901,0.026,-0.981,0.099,0.549,0.732,0.976,479.995
136708,152618,22412,0.025,-0.979,0.095,0.549,0.732,0.976,479.998
136708,152762,12906,0.025,-0.977,0.094,-0.305,0.793,0.732,480.004
136780,152618,22412,0.025,-0.972,0.094,-0.305,0.793,0.732,480.008
136780,152804,12915,0.026,-0.972,0.098,-1.037,0.549,0.305,480.014
136809,152618,22412,0.025,-0.969,0.097,-1.037,0.549,0.305,480.018
136809,152831,12926,0.028,-0.967,0.087,-1.463,0.305,0.061,480.024
136834,152874,22412,0.028,-0.967,0.084,-1.463,0.305,0.061,480.028
136834,152879,12920,0.03,-0.961,0.08,-1.951,0.183,-0.305,480.034
136832,152874,22412,0.033,-0.957,0.071,-1.951,0.183,-0.305,480.038
136832,152846,12933,0.032,-0.958,0.079,-1.341,0.244,-0.183,480.044
136800,152618,22412,0.029,-0.958,0.08,-1.341,0.244,-0.183,480.048
136800,152815,12908,0.031,-0.955,0.076,-0.488,0.183,0.122,480.054
136777,152874,22412,0.031,-0.95,0.076,-0.488,0.183,0.122,480.058
136777,152836,12930,0.037,-0.948,0.07,0.122,0.183,0.244,480.064
136773,152618,22412,0.036,-0.952,0.065,0.122,0.183,0.244,480.068
136773,152826,12930,0.037,-0.964,0.074,1.28,0.427,0.488,480.074
136800,152874,22412,0.033,-0.97,0.088,1.28,0.427,0.488,480.077
136800,152867,12917,0.031,-0.972,0.089,2.622,0.61,0.976,480.084
136819,152874,22412,0.028,-0.965,0.089,2.622,0.61,0.976,480.087
136819,152879,12917,0.03,-0.957,0.099,2.439,0.61,1.159,480.094
136847,152874,22412,0.028,-0.949,0.108,2.439,0.61,1.159,480.097
136847,152892,12920,0.029,-0.955,0.105,1.28,0.549,1.098,480.103
136870,152874,22412,0.031,-0.966,0.099,1.28,0.549,1.098,480.107
136870,152905,12941,0.028,-0.974,0.104,-0.915,0.549,1.037,480.113
136889,152874,22412,0.026,-0.974,0.102,-0.915,0.549,1.037,480.117
136889,152898,12916,0.025,-0.971,0.09,-2.561,0.488,1.037,480.123
136880,152874,22412,0.024,-0.969,0.082,-2.561,0.488,1.037,480.127
136880,152914,12947,0.03,-0.971,0.079,-3.232,0.244,0.61,480.133
136898,152874,22412,0.028,-0.975,0.074,-3.232,0.244,0.61,480.137
136898,152917,12933,0.03,-0.981,0.08,-2.256,0,0.061,480.143
136929,152874,22412,0.032,-0.976,0.073,-2.256,0,0.061,480.147
136929,152904,12950,0.032,-0.97,0.068,-0.793,0.244,0.122,480.153
136864,152874,22412,0.031,-0.971,0.077,-0.793,0.244,0.122,480.157
136864,152895,12923,0.029,-0.971,0.084,0.732,0.793,0,480.163
136808,152874,22412,0.029,-0.96,0.077,0.732,0.793,0,480.167
136808,152848,12926,0.029,-0.958,0.08,1.463,0.915,-0.183,480.173
136813,152874,22412,0.034,-0.96,0.087,1.463,0.915,-0.183,480.176
136813,152846,12947,0.032,-0.958,0.092,1.707,0.793,-0.122,480.183
136770,152874,22412,0.034,-0.953,0.097,1.707,0.793,-0.122,480.186
136770,152848,12921,0.032,-0.954,0.094,1.159,0.793,0.366,480.193
136744,152618,22412,0.032,-0.957,0.093,1.159,0.793,0.366,480.196
136744,152807,12922,0.03,-0.959,0.099,0.244,0.671,0.732,480.202
136759,152618,22412,0.029,-0.96,0.099,0.244,0.671,0.732,480.206
136759,152829,12920,0.029,-0.957,0.089,-0.671,0.305,0.793,480.212
136731,152618,22412,0.032,-0.957,0.09,-0.671,0.305,0.793,480.216
136731,152809,12902,0.032,-0.956,0.089,-1.22,0.061,0.732,480.222
136710,152618,22412,0.032,-0.955,0.091,-1.22,0.061,0.732,480.226
136710,152761,12916,0.031,-0.963,0.092,-1.585,0,0.854,480.232
136728,152618,22412,0.031,-0.966,0.087,-1.585,0,0.854,480.236
136728,152785,12926,0.032,-0.967,0.079,-2.073,0.244,0.976,480.242
136780,152618,22412,0.032,-0.965,0.065,-2.073,0.244,0.976,480.246
136780,152821,12917,0.031,-0.973,0.064,-2.012,0.549,0.732,480.252
136797,152874,22412,0.025,-0.989,0.08,-2.012,0.549,0.732,480.256
136797,152855,12914,0.024,-0.992,0.085,0,0.671,0.488,480.262
136858,152874,22412,0.023,-0.981,0.081,0,0.671,0.488,480.266
136858,152901,12941,0.028,-0.967,0.08,1.159,0.61,0.488,480.272
136854,152874,22412,0.03,-0.965,0.086,1.159,0.61,0.488,480.276
136854,152907,12932,0.028,-0.967,0.091,1.341,0.549,0.061,480.282
136850,152874,22412,0.029,-0.967,0.091,1.341,0.549,0.061,480.285
136850,152886,12923,0.028,-0.962,0.087,1.037,0.183,0.305,480.292
136833,152874,22412,0.031,-0.958,0.087,1.037,0.183,0.305,480.295
136833,152860,12936,0.029,-0.954,0.082,0.488,0.244,0.305,480.301
136819,152874,22412,0.029,-0.954,0.082,0.488,0.244,0.305,480.305
136819,152836,12930,0.028,-0.947,0.088,0.244,0.366,0.122,480.311
136792,152874,22412,0.028,-0.947,0.088,0.244,0.366,0.122,480.315
136792,152837,12915,0.035,-0.952,0.088,-0.061,0.183,0.427,480.321
136760,152874,22412,0.035,-0.952,0.088,-0.061,0.183,0.427,480.325
136760,152855,12928,0.031,-0.966,0.081,-0.244,0.366,0.427,480.331
136763,152874,22412,0.031,-0.966,0.081,-0.244,0.366,0.427,480.335
136763,152833,12926,0.028,-0.972,0.083,0,0.671,0.549,480.341
136791,152874,22412,0.028,-0.972,0.083,0,0.671,0.549,480.345
136791,152847,12916,0.026,-0.978,0.088,1.037,0.61,0.488,480.351
136826,152874,22412,0.026,-0.978,0.088,1.037,0.61,0.488,480.355
136826,152883,12943,0.03,-0.966,0.092,0.976,0.61,0.305,480.361
136862,152874,22412,0.03,-0.966,0.092,0.976,0.61,0.305,480.365
136862,152919,12937,0.03,-0.963,0.086,0.671,0.732,0.183,480.371
136878,152874,22412,0.03,-0.963,0.086,0.671,0.732,0.183,480.374
136878,152920,12936,0.031,-0.97,0.09,0.732,0.793,0.122,480.381
136912,152874,22412,0.031,-0.97,0.09,0.732,0.793,0.122,480.384
136912,152951,12934,0.027,-0.968,0.08,1.098,0.671,0.183,480.391
136908,152874,22412,0.027,-0.968,0.08,1.098,0.671,0.183,480.394
136908,152930,12951,0.029,-0.963,0.09,1.585,0.732,0,480.4
136865,152874,22412,0.029,-0.963,0.09,1.585,0.732,0,480.404
136865,152921,12955,0.031,-0.951,0.094,1.28,0.427,0.061,480.41
136866,152874,22412,0.031,-0.951,0.094,1.28,0.427,0.061,480.414
136866,152904,12925,0.034,-0.951,0.09,0,0.061,0.244,480.42
136826,152874,22412,0.034,-0.951,0.09,0,0.061,0.244,480.424
136826,152914,12938,0.031,-0.962,0.091,-0.61,0.061,0.366,480.43
136838,152874,22412,0.031,-0.962,0.091,-0.61,0.061,0.366,480.434
136838,152904,12939,0.031,-0.954,0.081,-0.854,0.061,0.549,480.44
136872,152874,22412,0.031,-0.954,0.081,-0.854,0.061,0.549,480.444
136872,152901,12942,0.031,-0.956,0.084,-0.854,0.061,0.549,480.45
136891,152874,22412,0.03,-0.966,0.086,-0.427,-0.122,0.488,480.454
136891,152955,12941,0.029,-0.974,0.09,-0.427,-0.122,0.488,480.46
136937,152874,22412,0.028,-0.976,0.09,-0.305,-0.183,0.427,480.464
136937,152991,12956,0.028,-0.969,0.088,-0.305,-0.183,0.427,480.47
136949,152874,22412,0.028,-0.963,0.09,-0.793,-0.061,0.427,480.474
136949,153006,12946,0.028,-0.962,0.093,-0.793,-0.061,0.427,480.48
136963,152874,22412,0.034,-0.962,0.087,-1.159,-0.061,0.366,480.483
136963,153000,12948,0.035,-0.963,0.086,-1.159,-0.061,0.366,480.49
136946,152874,22412,0.032,-0.968,0.088,-1.707,0.183,0.488,480.493
136946,153006,12968,0.028,-0.97,0.089,-1.707,0.183,0.488,480.499
136937,152874,22412,0.028,-0.967,0.085,-1.098,0.549,0.793,480.503
136937,152966,12950,0.031,-0.964,0.074,-1.098,0.549,0.793,480.509
136891,152874,22412,0.032,-0.966,0.073,-0.488,0.671,0.671,480.513
136891,152950,12950,0.031,-0.97,0.084,-0.488,0.671,0.671,480.519
136912,152874,22412,0.028,-0.974,0.083,0.427,0.854,0.366,480.523
136912,152953,12948,0.025,-0.972,0.075,0.427,0.854,0.366,480.529
136924,152874,22412,0.029,-0.965,0.079,1.22,0.976,0.305,480.533
136924,152953,12934,0.032,-0.963,0.084,1.22,0.976,0.305,480.539
136929,152874,22412,0.031,-0.959,0.093,2.012,0.976,0.244,480.543
136929,152977,12949,0.029,-0.958,0.098,2.012,0.976,0.244,480.549
136944,152874,22412,0.034,-0.951,0.094,1.646,0.793,0.427,480.553
136944,153016,12947,0.033,-0.951,0.093,1.646,0.793,0.427,480.559
136951,152874,22412,0.029,-0.955,0.092,0.244,0.915,0.732,480.563
136951,152999,12948,0.027,-0.959,0.089,0.244,0.915,0.732,480.569
136971,152874,22412,0.027,-0.972,0.094,-0.488,0.732,0.854,480.573
136971,152991,12947,0.024,-0.977,0.1,-0.488,0.732,0.854,480.579
136944,152874,22412,0.026,-0.968,0.099,-1.098,0.061,0.915,480.582
136944,152989,12960,0.031,-0.963,0.1,-1.098,0.061,0.915,480.589
136948,152874,22412,0.029,-0.966,0.096,-2.195,-0.244,0.549,480.592
136948,152990,12947,0.032,-0.965,0.095,-2.195,-0.244,0.549,480.599
136941,152874,22412,0.034,-0.963,0.084,-2.683,-0.305,0.366,480.602
136941,152965,12953,0.028,-0.963,0.076,-2.683,-0.305,0.366,480.608
136924,152874,22412,0.029,-0.967,0.077,-2.317,-0.244,0.488,480.612
136924,153000,12954,0.028,-0.968,0.081,-2.317,-0.244,0.488,480.618
136939,152874,22412,0.032,-0.964,0.082,-0.793,0.061,0.366,480.622
136939,152971,12958,0.034,-0.955,0.076,-0.793,0.061,0.366,480.628
136944,152874,22412,0.036,-0.952,0.07,-0.244,0.244,0.549,480.632
136944,152977,12962,0.034,-0.963,0.079,-0.244,0.244,0.549,480.638
136941,152874,22412,0.03,-0.977,0.088,0.793,1.22,0.488,480.642
136941,152982,12946,0.026,-0.975,0.085,0.793,1.22,0.488,480.648
136966,152874,22412,0.027,-0.965,0.076,0.976,1.524,0.61,480.652
136966,152978,12935,0.028,-0.964,0.083,0.976,1.524,0.61,480.658
136969,152874,22412,0.029,-0.969,0.094,0.976,0.976,0.61,480.662
136969,152982,12959,0.027,-0.973,0.101,0.976,0.976,0.61,480.668
137030,152874,22412,0.026,-0.975,0.1,0.976,0.549,0.61,480.672
137030,153023,12958,0.027,-0.972,0.099,0.976,0.549,0.61,480.678
137006,152874,22412,0.026,-0.97,0.1,-0.244,0.244,0.61,480.681
137006,153040,12970,0.025,-0.968,0.098,-0.244,0.244,0.61,480.688
137011,152874,22412,0.025,-0.965,0.087,-1.585,0,0,480.691
137011,153029,12966,0.03,-0.965,0.084,-1.585,0,0,480.698
137019,152874,22412,0.03,-0.964,0.081,-2.134,-0.183,-0.305,480.701
137019,153087,12975,0.03,-0.96,0.089,-2.134,-0.183,-0.305,480.707
137031,152874,22412,0.029,-0.948,0.086,-1.524,-0.244,-0.427,480.711
137031,153041,12966,0.032,-0.94,0.083,-1.524,-0.244,-0.427,480.717
137061,152874,22412,0.034,-0.942,0.078,-1.585,-0.244,0,480.721
137061,153066,12955,0.033,-0.949,0.075,-1.585,-0.244,0,480.727
137031,152874,22412,0.037,-0.957,0.08,-1.463,0.183,0.183,480.731
137031,153073,12971,0.039,-0.956,0.071,-1.463,0.183,0.183,480.737
137062,152874,22412,0.041,-0.957,0.064,-0.793,0.732,0.61,480.741
137062,153081,12975,0.031,-0.972,0.078,-0.793,0.732,0.61,480.747
137026,152874,22412,0.022,-0.985,0.086,1.037,1.098,1.159,480.751
