137927,154922,22412,0.046,-0.967,0.06,-0.976,0.732,1.037,435.974
137927,154925,12710,0.048,-0.958,0.06,-0.976,0.732,1.037,435.981
137937,154922,22412,0.053,-0.954,0.059,-1.89,-0.183,0.915,435.984
137937,154933,12704,0.054,-0.959,0.053,-1.89,-0.183,0.915,435.99
137938,154922,22412,0.052,-0.97,0.038,-2.683,0.122,0.854,435.994
137938,154942,12712,0.046,-0.98,0.029,-2.683,0.122,0.854,436
137935,154922,22412,0.047,-0.984,0.026,-2.012,0.915,0.61,436.004
137935,154926,12706,0.053,-0.978,0.028,-2.012,0.915,0.61,436.01
137955,154922,22412,0.057,-0.977,0.034,0.61,0.854,0.488,436.014
137955,154961,12710,0.051,-0.979,0.043,0.61,0.854,0.488,436.02
137955,154922,22412,0.051,-0.968,0.038,2.866,1.159,0.671,436.024
137955,154952,12712,0.052,-0.959,0.031,2.866,1.159,0.671,436.03
137958,154922,22412,0.046,-0.97,0.055,3.902,1.707,0.915,436.034
137958,154951,12709,0.043,-0.971,0.073,3.902,1.707,0.915,436.04
137954,154922,22412,0.044,-0.956,0.071,4.329,1.524,1.159,436.044
137954,154945,12721,0.045,-0.948,0.065,4.329,1.524,1.159,436.05
137950,154922,22412,0.041,-0.951,0.066,1.768,1.098,0.854,436.054
137950,154917,12693,0.045,-0.96,0.066,1.768,1.098,0.854,436.06
137896,154922,22412,0.047,-0.961,0.061,-0.549,0.671,0.183,436.063
137896,154902,12695,0.047,-0.963,0.053,-0.549,0.671,0.183,436.07
137883,154922,22412,0.047,-0.968,0.053,-2.134,0.305,-0.183,436.073
137883,154885,12691,0.046,-0.971,0.047,-2.134,0.305,-0.183,436.08
137860,154922,22412,0.047,-0.972,0.047,-2.744,-0.122,-0.427,436.083
137860,154886,12693,0.05,-0.972,0.055,-2.744,-0.122,-0.427,436.089
137860,154922,22412,0.053,-0.965,0.058,-1.829,-0.671,-0.488,436.093
137860,154910,12710,0.055,-0.962,0.051,-1.829,-0.671,-0.488,436.099
137844,154922,22412,0.052,-0.967,0.035,-1.951,-0.549,-0.122,436.103
137844,154893,12700,0.046,-0.982,0.033,-1.951,-0.549,-0.122,436.109
137853,154922,22412,0.045,-0.988,0.036,-0.793,0.244,-0.183,436.113
137853,154889,12697,0.054,-0.973,0.037,-0.793,0.244,-0.183,436.119
137908,154922,22412,0.059,-0.955,0.038,1.463,0.183,-0.244,436.123
137908,154930,12704,0.062,-0.955,0.042,1.463,0.183,-0.244,436.129
137937,154922,22412,0.055,-0.963,0.041,3.049,0.488,0.183,436.133
137937,154964,12716,0.052,-0.968,0.044,3.049,0.488,0.183,436.139
137960,154922,22412,0.05,-0.967,0.057,3.902,1.341,0.488,436.143
137960,154959,12713,0.051,-0.96,0.073,3.902,1.341,0.488,436.149
137973,154922,22412,0.051,-0.952,0.076,3.476,1.159,0.915,436.153
137973,154959,12705,0.05,-0.95,0.064,3.476,1.159,0.915,436.159
137953,154922,22412,0.049,-0.965,0.056,1.28,1.341,0.61,436.162
137953,154960,12714,0.049,-0.968,0.053,1.28,1.341,0.61,436.169
138005,154922,22412,0.055,-0.969,0.051,0.061,1.341,0.183,436.172
138005,154990,12721,0.059,-0.955,0.046,0.061,1.341,0.183,436.179
137996,154922,22412,0.065,-0.948,0.041,0.061,1.22,0.305,436.182
137996,154971,12701,0.061,-0.956,0.042,0.061,1.22,0.305,436.188
137955,154922,22412,0.052,-0.966,0.038,0.854,1.829,0.976,436.192
137955,154952,12728,0.047,-0.981,0.045,0.854,1.829,0.976,436.198
137980,154922,22412,0.048,-0.988,0.049,2.012,2.073,1.159,436.202
137980,154976,12734,0.045,-0.981,0.054,2.012,2.073,1.159,436.208
138013,154922,22412,0.047,-0.972,0.057,2.256,2.073,0.793,436.212
138013,155009,12711,0.049,-0.964,0.059,2.256,2.073,0.793,436.218
137997,154922,22412,0.047,-0.961,0.059,1.829,2.012,0.793,436.222
137997,154995,12734,0.043,-0.96,0.058,1.829,2.012,0.793,436.228
137996,154922,22412,0.045,-0.957,0.056,1.402,1.646,0.793,436.232
137996,155029,12728,0.046,-0.952,0.068,1.402,1.646,0.793,436.238
138030,154922,22412,0.044,-0.948,0.073,0.793,1.037,0.671,436.242
138030,155000,12712,0.045,-0.946,0.07,0.793,1.037,0.671,436.248
138001,154922,22412,0.046,-0.941,0.067,-0.488,0.549,0.854,436.252
138001,154989,12728,0.045,-0.946,0.058,-0.488,0.549,0.854,436.258
137976,154922,22412,0.041,-0.958,0.054,-1.951,0.427,0.854,436.261
137976,155001,12718,0.039,-0.965,0.05,-1.951,0.427,0.854,436.268
137980,154922,22412,0.041,-0.97,0.05,-2.317,0.244,0.305,436.271
137980,154997,12704,0.042,-0.974,0.067,-2.317,0.244,0.305,436.278
137958,154922,22412,0.047,-0.97,0.078,-2.683,-0.732,-0.244,436.281
137958,154961,12725,0.052,-0.959,0.074,-2.683,-0.732,-0.244,436.287
137988,154922,22412,0.049,-0.966,0.061,-4.512,-1.159,-0.183,436.291
137988,154989,12728,0.047,-0.982,0.052,-4.512,-1.159,-0.183,436.297
138013,154922,22412,0.047,-0.987,0.042,-5.854,-0.732,-0.366,436.301
138013,155004,12711,0.05,-0.984,0.04,-5.854,-0.732,-0.366,436.307
138067,154922,22412,0.054,-0.973,0.048,-5.122,-1.098,-0.488,436.311
138067,155014,12731,0.057,-0.955,0.046,-5.122,-1.098,-0.488,436.317
138059,154922,22412,0.062,-0.946,0.046,-4.146,-1.341,-0.061,436.321
138059,155039,12732,0.061,-0.95,0.044,-4.146,-1.341,-0.061,436.327
138066,154922,22412,0.058,-0.955,0.038,-3.659,-0.915,0.427,436.331
138066,155056,12732,0.055,-0.958,0.041,-3.659,-0.915,0.427,436.337
138087,154922,22412,0.055,-0.958,0.041,-3.659,-0.915,0.427,436.341
138087,155062,12734,0.056,-0.958,0.041,-2.744,-0.671,1.098,436.347
138077,154922,22412,0.056,-0.958,0.041,-2.744,-0.671,1.098,436.351
138077,155045,12740,0.053,-0.957,0.044,-1.585,-0.366,1.341,436.357
138065,154922,22412,0.053,-0.957,0.044,-1.585,-0.366,1.341,436.361
138065,155034,12737,0.052,-0.969,0.047,-1.098,0.122,1.402,436.367
138034,154922,22412,0.052,-0.969,0.047,-1.098,0.122,1.402,436.37
138034,154993,12724,0.049,-0.988,0.042,-1.22,0.427,1.463,436.377
138017,154922,22412,0.049,-0.988,0.042,-1.22,0.427,1.463,436.38
138017,155001,12733,0.05,-0.974,0.056,-1.159,0.427,1.341,436.386
138008,154922,22412,0.05,-0.974,0.056,-1.159,0.427,1.341,436.39
138008,154979,12722,0.055,-0.958,0.042,-0.793,0.366,1.159,436.396
138001,154922,22412,0.055,-0.958,0.042,-0.793,0.366,1.159,436.4
138001,154972,12721,0.042,-0.996,0.026,-1.28,0.915,1.463,436.406
138013,154922,22412,0.042,-0.996,0.026,-1.28,0.915,1.463,436.41
138013,155011,12736,0.049,-0.979,0.052,0.488,1.585,1.22,436.416
138076,154922,22412,0.049,-0.979,0.052,0.488,1.585,1.22,436.42
138076,155037,12732,0.052,-0.953,0.045,2.622,1.098,1.098,436.426
138040,154922,22412,0.052,-0.953,0.045,2.622,1.098,1.098,436.43
138040,155010,12729,0.045,-0.972,0.047,2.439,1.524,1.22,436.436
138041,154922,22412,0.045,-0.972,0.047,2.439,1.524,1.22,436.44
138041,155045,12736,0.053,-0.951,0.051,3.11,2.073,1.159,436.446
138049,154922,22412,0.053,-0.951,0.051,3.11,2.073,1.159,436.45
138049,155029,12726,0.047,-0.944,0.053,3.171,1.463,1.463,436.456
138065,154922,22412,0.047,-0.944,0.053,3.171,1.463,1.463,436.46
138065,155037,12729,0.039,-0.958,0.053,2.378,1.585,1.707,436.466
138102,154922,22412,0.039,-0.958,0.053,2.378,1.585,1.707,436.469
138102,155061,12743,0.044,-0.952,0.047,1.585,1.159,1.524,436.476
138151,154922,22412,0.044,-0.952,0.047,1.585,1.159,1.524,436.479
138151,155097,12741,0.04,-0.983,0.044,0.915,0.305,1.22,436.486
138200,154922,22412,0.04,-0.983,0.044,0.915,0.305,1.22,436.489
138200,155103,12734,0.039,-0.991,0.057,1.341,0.305,0.671,436.495
138151,154922,22412,0.039,-0.985,0.068,1.341,0.305,0.671,436.499
138151,155108,12743,0.045,-0.973,0.076,1.646,0,0.244,436.505
138188,154922,22412,0.046,-0.959,0.064,1.646,0,0.244,436.509
138188,155098,12739,0.044,-0.96,0.044,-0.122,0.122,0,436.515
138178,154922,22412,0.038,-0.979,0.034,-0.122,0.122,0,436.519
138178,155101,12724,0.038,-0.992,0.037,-0.61,0.915,-0.61,436.525
138148,154922,22412,0.044,-0.989,0.047,-0.61,0.915,-0.61,436.529
138148,155091,12747,0.05,-0.975,0.057,1.402,0.549,-1.341,436.535
138135,154922,22412,0.053,-0.958,0.062,1.402,0.549,-1.341,436.539
138135,155057,12726,0.053,-0.947,0.069,1.585,0.244,-1.098,436.545
138145,154922,22412,0.046,-0.945,0.065,1.585,0.244,-1.098,436.549
138145,155071,12753,0.046,-0.951,0.065,0.244,0.427,-0.549,436.555
138102,154922,22412,0.044,-0.953,0.067,0.244,0.427,-0.549,436.559
138102,155050,12740,0.05,-0.952,0.068,-1.098,0,-0.427,436.565
138102,154922,22412,0.051,-0.949,0.056,-1.098,0,-0.427,436.568
138102,155034,12719,0.049,-0.949,0.049,-2.561,-0.549,-0.488,436.575
138059,154922,22412,0.05,-0.961,0.049,-2.561,-0.549,-0.488,436.578
138059,155005,12729,0.049,-0.966,0.047,-2.805,-0.671,-0.427,436.585
138025,154922,22412,0.051,-0.961,0.049,-2.805,-0.671,-0.427,436.588
138025,154990,12736,0.052,-0.962,0.053,-2.5,-0.61,-0.305,436.594
138008,154922,22412,0.053,-0.966,0.06,-2.5,-0.61,-0.305,436.598
138008,154973,12719,0.054,-0.965,0.06,-2.378,-0.671,-0.061,436.604
137973,154922,22412,0.052,-0.969,0.047,-2.378,-0.671,-0.061,436.608
137973,154944,12705,0.048,-0.974,0.037,-3.232,-0.305,0.305,436.614
137954,154922,22412,0.047,-0.977,0.038,-3.232,-0.305,0.305,436.618
137954,154946,12719,0.052,-0.976,0.043,-2.5,-0.061,0.305,436.624
137971,154922,22412,0.054,-0.972,0.044,-2.5,-0.061,0.305,436.628
137971,154960,12704,0.051,-0.969,0.043,-1.037,0.183,0.183,436.634
137947,154922,22412,0.048,-0.968,0.051,-1.037,0.183,0.183,436.638
137947,154968,12706,0.048,-0.958,0.064,-0.366,0.305,0.427,436.644
137964,154922,22412,0.054,-0.947,0.043,-0.366,0.305,0.427,436.648
137964,154987,12716,0.053,-0.953,0.038,-1.159,0.244,0.732,436.654
137991,154922,22412,0.047,-0.966,0.042,-1.159,0.244,0.732,436.658
137991,154984,12729,0.047,-0.97,0.043,-0.976,0.732,0.61,436.664
137947,154922,22412,0.052,-0.962,0.026,-0.976,0.732,0.61,436.667
137947,154957,12722,0.052,-0.966,0.033,-0.183,0.915,0.549,436.674
137967,154922,22412,0.048,-0.972,0.044,-0.183,0.915,0.549,436.677
137967,154989,12723,0.049,-0.967,0.036,1.463,0.976,0.671,436.684
138000,154922,22412,0.05,-0.971,0.044,1.463,0.976,0.671,436.687
138000,154992,12720,0.045,-0.978,0.053,1.951,1.22,0.671,436.693
137988,154922,22412,0.047,-0.972,0.047,1.951,1.22,0.671,436.697
137988,154977,12724,0.052,-0.967,0.052,1.89,1.28,0.61,436.703
138007,154922,22412,0.048,-0.967,0.059,1.89,1.28,0.61,436.707
138007,154980,12728,0.047,-0.972,0.052,1.646,1.098,0.793,436.713
138000,154922,22412,0.044,-0.979,0.058,1.646,1.098,0.793,436.717
138000,154985,12738,0.047,-0.974,0.066,1.22,0.976,0.549,436.723
138027,154922,22412,0.051,-0.96,0.055,1.22,0.976,0.549,436.727
138027,155013,12720,0.053,-0.953,0.049,0.305,0.854,0.488,436.733
138042,154922,22412,0.047,-0.96,0.049,0.305,0.854,0.488,436.737
138042,154992,12715,0.049,-0.958,0.053,0,0.915,0.488,436.743
138026,154922,22412,0.054,-0.951,0.045,0,0.915,0.488,436.747
138026,155005,12717,0.052,-0.957,0.041,0.122,0.671,0.671,436.753
138037,154922,22412,0.048,-0.966,0.043,0.122,0.671,0.671,436.757
138037,155056,12738,0.043,-0.972,0.045,0.793,0.854,0.732,436.763
138113,154922,22412,0.044,-0.969,0.046,0.793,0.854,0.732,436.766
138113,155096,12730,0.047,-0.966,0.051,1.402,0.915,0.61,436.773
138112,154922,22412,0.047,-0.959,0.062,1.402,0.915,0.61,436.776
138112,155073,12722,0.047,-0.958,0.06,1.463,0.61,0.671,436.783
138092,154922,22412,0.045,-0.961,0.049,1.463,0.61,0.671,436.786
138092,155023,12732,0.041,-0.968,0.047,0.488,0.854,0.427,436.792
138109,154922,22412,0.038,-0.982,0.047,0.488,0.854,0.427,436.796
138109,155064,12731,0.039,-0.984,0.049,0.854,0.793,-0.122,436.802
138155,154922,22412,0.047,-0.972,0.052,0.854,0.793,-0.122,436.806
138155,155086,12741,0.048,-0.961,0.059,1.22,0.122,-0.549,436.812
138128,154922,22412,0.048,-0.963,0.069,1.22,0.122,-0.549,436.816
138128,155073,12749,0.049,-0.958,0.07,0.854,0.061,-0.549,436.822
138124,154922,22412,0.048,-0.955,0.071,0.854,0.061,-0.549,436.826
138124,155092,12733,0.044,-0.953,0.071,-0.976,-0.183,-0.427,436.832
138113,154922,22412,0.044,-0.956,0.063,-0.976,-0.183,-0.427,436.836
138113,155070,12744,0.044,-0.964,0.048,-2.927,-0.671,-0.549,436.842
138113,154922,22412,0.039,-0.969,0.033,-2.927,-0.671,-0.549,436.846
138113,155063,12745,0.044,-0.972,0.029,-3.171,-0.671,-1.341,436.852
138085,154922,22412,0.053,-0.966,0.026,-3.171,-0.671,-1.341,436.856
138085,155075,12745,0.06,-0.964,0.022,-0.793,-0.305,-1.951,436.862
138066,154922,22412,0.06,-0.976,0.04,-0.793,-0.305,-1.951,436.865
138066,155043,12734,0.057,-0.976,0.052,2.256,0.61,-1.951,436.872
138033,154922,22412,0.06,-0.957,0.059,2.256,0.61,-1.951,436.875
138033,155022,12740,0.059,-0.951,0.063,2.561,1.098,-1.159,436.882
138004,154922,22412,0.059,-0.959,0.067,2.561,1.098,-1.159,436.885
138004,154984,12727,0.057,-0.965,0.059,1.524,1.463,-0.061,436.891
137989,154922,22412,0.053,-0.97,0.061,1.524,1.463,-0.061,436.895
137989,154972,12724,0.056,-0.964,0.066,0.549,1.402,0.793,436.901
137960,154922,22412,0.061,-0.946,0.065,0.549,1.402,0.793,436.905
137960,154973,12719,0.06,-0.935,0.064,-0.488,0.732,1.463,436.911
137935,154922,22412,0.06,-0.935,0.062,-0.488,0.732,1.463,436.915
137935,154931,12718,0.055,-0.944,0.054,-2.073,0.488,2.195,436.921
137895,154922,22412,0.052,-0.956,0.048,-2.073,0.488,2.195,436.925
137895,154938,12716,0.053,-0.968,0.053,-3.049,0.122,2.378,436.931
137894,154922,22412,0.053,-0.968,0.053,-3.049,0.122,2.378,436.935
137894,154930,12704,0.049,-0.972,0.042,-2.988,-0.305,2.5,436.941
137901,154922,22412,0.049,-0.972,0.042,-2.988,-0.305,2.5,436.945
137901,154942,12729,0.044,-0.977,0.043,-2.744,-0.122,2.317,436.951
137928,154922,22412,0.044,-0.977,0.043,-2.744,-0.122,2.317,436.955
137928,154944,12706,0.043,-0.978,0.028,-2.256,0.183,1.768,436.961
137957,154922,22412,0.043,-0.978,0.028,-2.256,0.183,1.768,436.964
137957,154969,12718,0.039,-1.004,0.035,-0.732,0.61,1.098,436.971
137971,154922,22412,0.039,-1.004,0.035,-0.732,0.61,1.098,436.974
137971,154968,12718,0.042,-0.984,0.043,1.28,0.915,0.549,436.981
137997,154922,22412,0.042,-0.984,0.043,1.28,0.915,0.549,436.984
137997,154990,12723,0.043,-0.955,0.054,2.256,0.976,0.305,436.99
138024,154922,22412,0.043,-0.955,0.054,2.256,0.976,0.305,436.994
138024,155008,12728,0.042,-0.949,0.058,2.073,1.037,0.183,437
138035,154922,22412,0.042,-0.949,0.058,2.073,1.037,0.183,437.004
138035,155005,12728,0.042,-0.949,0.05,1.159,0.793,-0.061,437.01
137985,154922,22412,0.042,-0.949,0.05,1.159,0.793,-0.061,437.014
137985,154983,12732,0.043,-0.949,0.053,0.915,0.366,-0.305,437.02
137984,154922,22412,0.043,-0.949,0.053,0.915,0.366,-0.305,437.024
137984,155031,12713,0.044,-0.954,0.052,0.549,0.244,-0.732,437.03
137990,154922,22412,0.044,-0.954,0.052,0.549,0.244,-0.732,437.034
137990,155026,12724,0.044,-0.966,0.047,0.61,0.122,-0.854,437.04
138027,154922,22412,0.044,-0.966,0.047,0.61,0.122,-0.854,437.044
138027,155041,12724,0.039,-0.992,0.052,0.976,0,-1.159,437.05
138043,154922,22412,0.039,-0.992,0.052,0.976,0,-1.159,437.054
138043,155031,12741,0.047,-0.98,0.066,1.646,-0.183,-1.768,437.06
138059,154922,22412,0.047,-0.98,0.066,1.646,-0.183,-1.768,437.063
138059,155033,12737,0.051,-0.967,0.062,0.61,-0.366,-1.89,437.07
138101,154922,22412,0.051,-0.967,0.062,0.61,-0.366,-1.89,437.073
138101,155074,12747,0.052,-0.967,0.053,-0.366,-0.061,-1.707,437.08
138149,154922,22412,0.052,-0.967,0.053,-0.366,-0.061,-1.707,437.083
138149,155131,12752,0.052,-0.965,0.053,-0.366,-0.061,-1.707,437.089
138184,154922,22412,0.055,-0.963,0.057,-0.366,0.061,-1.707,437.093
138184,155128,12735,0.061,-0.95,0.053,-0.366,0.061,-1.707,437.099
138173,155178,22412,0.061,-0.941,0.044,-0.61,0.061,-1.28,437.103
138173,155155,12757,0.061,-0.95,0.049,-0.61,0.061,-1.28,437.109
138134,154922,22412,0.06,-0.953,0.051,-0.61,0.244,-0.549,437.113
138134,155127,12754,0.062,-0.943,0.05,-0.61,0.244,-0.549,437.119
138125,154922,22412,0.06,-0.944,0.052,-0.61,0,0.183,437.123
138125,155090,12729,0.059,-0.953,0.048,-0.61,0,0.183,437.129
138108,154922,22412,0.061,-0.959,0.044,-0.671,-0.061,0.976,437.133
138108,155063,12743,0.06,-0.959,0.045,-0.671,-0.061,0.976,437.139
138139,154922,22412,0.056,-0.96,0.043,-0.61,0.366,1.28,437.143
138139,155117,12739,0.057,-0.964,0.046,-0.61,0.366,1.28,437.149
138124,154922,22412,0.055,-0.968,0.045,-0.061,0.793,1.585,437.153
138124,155107,12748,0.052,-0.978,0.045,-0.061,0.793,1.585,437.159
138146,154922,22412,0.047,-0.99,0.059,0.671,0.915,1.707,437.162
138146,155104,12744,0.051,-0.984,0.068,0.671,0.915,1.707,437.169
138162,154922,22412,0.052,-0.973,0.072,0.671,0.732,1.646,437.172
138162,155101,12739,0.05,-0.97,0.064,0.671,0.732,1.646,437.179
138145,154922,22412,0.047,-0.978,0.053,-0.61,0.671,1.646,437.182
138145,155090,12757,0.039,-0.987,0.052,-0.61,0.671,1.646,437.188
138109,154922,22412,0.041,-0.976,0.047,-1.402,0.976,1.28,437.192
138109,155065,12739,0.046,-0.965,0.049,-1.402,0.976,1.28,437.198
138098,154922,22412,0.05,-0.962,0.055,-0.793,0.305,0.61,437.202
138098,155052,12738,0.049,-0.955,0.052,-0.793,0.305,0.61,437.208
138086,154922,22412,0.048,-0.952,0.048,-0.854,0.122,0.61,437.212
138086,155073,12747,0.047,-0.956,0.038,-0.854,0.122,0.61,437.218
138090,154922,22412,0.042,-0.966,0.035,-0.854,0.366,0.732,437.222
138090,155064,12730,0.042,-0.973,0.039,-0.854,0.366,0.732,437.228
138039,154922,22412,0.045,-0.967,0.042,0.61,0.122,0.488,437.232
138039,155038,12727,0.048,-0.96,0.053,0.61,0.122,0.488,437.238
138054,154922,22412,0.048,-0.958,0.056,1.341,-0.549,0.366,437.242
138054,155072,12724,0.046,-0.959,0.057,1.341,-0.549,0.366,437.248
138090,154922,22412,0.045,-0.964,0.054,1.037,-0.366,0.366,437.252
138090,155042,12735,0.045,-0.97,0.059,1.037,-0.366,0.366,437.258
138069,154922,22412,0.051,-0.963,0.062,0.671,-0.244,0.244,437.261
138069,155049,12740,0.052,-0.961,0.061,0.671,-0.244,0.244,437.268
138057,154922,22412,0.049,-0.963,0.053,0.183,-0.366,0.366,437.271
138057,155025,12735,0.052,-0.964,0.053,0.183,-0.366,0.366,437.278
138082,154922,22412,0.049,-0.963,0.055,-0.061,0.061,0.244,437.281
138082,155044,12732,0.05,-0.959,0.045,-0.061,0.061,0.244,437.287
138100,154922,22412,0.05,-0.968,0.043,0.183,0.366,0.305,437.291
138100,155072,12726,0.048,-0.985,0.041,0.183,0.366,0.305,437.297
138093,154922,22412,0.044,-0.993,0.034,1.341,0.793,0.061,437.301
138093,155088,12733,0.047,-0.988,0.035,1.341,0.793,0.061,437.307
138122,154922,22412,0.045,-0.99,0.051,3.171,1.037,-0.427,437.311
138122,155067,12743,0.045,-0.989,0.063,3.171,1.037,-0.427,437.317
138115,154922,22412,0.056,-0.963,0.054,4.329,0.671,-0.61,437.321
138115,155069,12732,0.06,-0.94,0.058,4.329,0.671,-0.61,437.327
138144,154922,22412,0.057,-0.938,0.064,2.744,0.793,-0.488,437.331
138144,155071,12728,0.053,-0.951,0.058,2.744,0.793,-0.488,437.337
138111,154922,22412,0.05,-0.969,0.055,2.012,1.463,-0.183,437.341
138111,155068,12741,0.052,-0.97,0.069,2.012,1.463,-0.183,437.347
138085,154922,22412,0.058,-0.952,0.075,1.098,0.976,0.061,437.351
138085,155052,12720,0.059,-0.932,0.072,1.098,0.976,0.061,437.357
138072,154922,22412,0.056,-0.933,0.064,-0.671,0.305,0.61,437.361
138072,155029,12719,0.052,-0.948,0.055,-0.671,0.305,0.61,437.367
138041,154922,22412,0.048,-0.96,0.049,-2.073,0.549,0.732,437.37
138041,155029,12729,0.05,-0.967,0.048,-2.073,0.549,0.732,437.377
138074,154922,22412,0.052,-0.96,0.035,-1.768,0.366,0.61,437.38
138074,155050,12726,0.051,-0.966,0.028,-1.768,0.366,0.61,437.386
138102,154922,22412,0.05,-0.981,0.042,-0.366,0.549,0.305,437.39
138102,155050,12733,0.055,-0.986,0.051,-0.366,0.549,0.305,437.396
138094,154922,22412,0.055,-0.978,0.052,1.524,0.671,0.488,437.4
138094,155041,12733,0.053,-0.968,0.061,1.524,0.671,0.488,437.406
138077,154922,22412,0.054,-0.967,0.062,1.646,0.732,1.037,437.41
138077,155034,12731,0.051,-0.963,0.058,1.646,0.732,1.037,437.416
138062,154922,22412,0.048,-0.965,0.054,0.976,1.28,1.28,437.42
138062,155050,12725,0.044,-0.973,0.053,0.976,1.28,1.28,437.426
138099,154922,22412,0.048,-0.971,0.057,0.915,1.524,1.037,437.43
138099,155056,12731,0.047,-0.962,0.073,0.915,1.524,1.037,437.436
138110,154922,22412,0.048,-0.95,0.08,0.61,0.671,1.037,437.44
138110,155082,12736,0.047,-0.944,0.072,0.61,0.671,1.037,437.446
138113,154922,22412,0.046,-0.948,0.063,-1.829,0.183,1.159,437.45
138113,155068,12720,0.04,-0.965,0.064,-1.829,0.183,1.159,437.456
138115,154922,22412,0.039,-0.98,0.061,-3.11,-0.061,0.793,437.46
138115,155062,12734,0.042,-0.975,0.06,-3.11,-0.061,0.793,437.466
138090,154922,22412,0.046,-0.956,0.053,-3.476,-0.854,0.122,437.469
138090,155041,12741,0.046,-0.957,0.042,-3.476,-0.854,0.122,437.476
138083,154922,22412,0.042,-0.97,0.044,-3.232,-0.732,-0.549,437.479
138083,155018,12723,0.041,-0.979,0.047,-3.232,-0.732,-0.549,437.485
138055,154922,22412,0.046,-0.978,0.047,-2.134,-0.427,-1.037,437.489
138055,155017,12735,0.052,-0.974,0.046,-2.134,-0.427,-1.037,437.495
138057,154922,22412,0.057,-0.969,0.046,-1.402,-0.427,-1.341,437.499
138057,155069,12731,0.057,-0.962,0.041,-1.402,-0.427,-1.341,437.505
138059,154922,22412,0.054,-0.958,0.038,-0.61,0.183,-0.732,437.509
138059,155012,12715,0.052,-0.964,0.046,-0.61,0.183,-0.732,437.515
138011,154922,22412,0.053,-0.963,0.053,0.793,0.549,-0.061,437.519
138011,154959,12716,0.057,-0.956,0.048,0.793,0.549,-0.061,437.525
138030,154922,22412,0.057,-0.956,0.048,0.793,0.549,-0.061,437.529
138030,154990,12718,0.06,-0.956,0.071,1.463,0.366,0.488,437.535
137993,154922,22412,0.06,-0.956,0.071,1.463,0.366,0.488,437.539
137993,154987,12709,0.057,-0.945,0.078,1.037,0.244,0.915,437.545
138016,154922,22412,0.057,-0.945,0.078,1.037,0.244,0.915,437.549
138016,154970,12696,0.043,-0.969,0.047,-1.524,0.305,1.402,437.555
138002,154922,22412,0.043,-0.969,0.047,-1.524,0.305,1.402,437.559
138002,154977,12713,0.045,-0.997,0.048,-3.354,0.61,1.037,437.565
138042,154922,22412,0.045,-0.997,0.048,-3.354,0.61,1.037,437.568
138042,154986,12719,0.056,-0.969,0.054,-2.256,-0.122,0.061,437.575
138045,154922,22412,0.056,-0.969,0.054,-2.256,-0.122,0.061,437.578
138045,154987,12719,0.05,-0.97,0.045,-1.646,-0.793,-0.061,437.584
138039,154922,22412,0.05,-0.97,0.045,-1.646,-0.793,-0.061,437.588
138039,155012,12728,0.049,-0.973,0.02,-1.341,0.061,0.366,437.594
138016,154922,22412,0.049,-0.973,0.02,-1.341,0.061,0.366,437.598
138016,154988,12726,0.048,-0.981,0.044,0.366,0.793,0.061,437.604
137975,154922,22412,0.048,-0.981,0.044,0.366,0.793,0.061,437.608
137975,154977,12702,0.062,-0.938,0.056,3.354,0.732,0.061,437.614
137987,154922,22412,0.062,-0.938,0.056,3.354,0.732,0.061,437.618
137987,154987,12712,0.048,-0.952,0.065,3.902,0.671,0.549,437.624
137969,154922,22412,0.048,-0.952,0.065,3.902,0.671,0.549,437.628
137969,154954,12695,0.043,-0.96,0.06,2.805,1.098,0.976,437.634
137940,154922,22412,0.043,-0.96,0.06,2.805,1.098,0.976,437.638
137940,154947,12690,0.055,-0.937,0.079,1.341,0.854,0.976,437.644
137942,154922,22412,0.055,-0.937,0.079,1.341,0.854,0.976,437.648
137942,154930,12713,0.047,-0.945,0.063,-0.305,-0.122,1.037,437.654
137958,154922,22412,0.047,-0.945,0.063,-0.305,-0.122,1.037,437.658
137958,154930,12698,0.04,-0.991,0.049,-3.049,0.122,1.098,437.664
137974,154922,22412,0.04,-0.991,0.049,-3.049,0.122,1.098,437.667
137974,154961,12713,0.047,-0.994,0.038,-3.537,0.366,0.366,437.674
138014,154922,22412,0.047,-0.994,0.038,-3.537,0.366,0.366,437.677
138014,155009,12714,0.05,-0.992,0.048,-2.134,-0.183,-0.488,437.684
137991,154922,22412,0.052,-0.985,0.054,-2.134,-0.183,-0.488,437.687
137991,154980,12702,0.051,-0.979,0.051,-0.671,-0.061,-0.671,437.693
137988,154922,22412,0.052,-0.974,0.048,-0.671,-0.061,-0.671,437.697
137988,154989,12716,0.052,-0.975,0.046,0,0.732,-0.366,437.703
138022,154922,22412,0.053,-0.969,0.049,0,0.732,-0.366,437.707
138022,154995,12715,0.055,-0.957,0.05,0.854,1.037,0,437.713
138016,154922,22412,0.056,-0.945,0.051,0.854,1.037,0,437.717
138016,154975,12711,0.057,-0.938,0.054,1.098,1.098,0.549,437.723
137976,154922,22412,0.055,-0.937,0.057,1.098,1.098,0.549,437.727
137976,154957,12703,0.051,-0.936,0.052,0.915,1.22,1.098,437.733
137963,154922,22412,0.048,-0.949,0.051,0.915,1.22,1.098,437.737
137963,154963,12706,0.046,-0.97,0.059,0.488,0.915,1.159,437.743
137907,154922,22412,0.049,-0.969,0.068,0.488,0.915,1.159,437.747
137907,154905,12699,0.054,-0.949,0.07,-0.427,0.244,0.915,437.753
137883,154922,22412,0.051,-0.953,0.064,-0.427,0.244,0.915,437.757
137883,154896,12707,0.044,-0.973,0.047,-2.317,0.183,0.732,437.763
137887,154922,22412,0.04,-0.987,0.045,-2.317,0.183,0.732,437.766
137887,154908,12702,0.045,-0.993,0.048,-2.683,0.183,0.183,437.773
137894,154922,22412,0.049,-0.982,0.062,-2.683,0.183,0.183,437.776
137894,154891,12690,0.054,-0.97,0.06,-2.073,-0.793,-0.244,437.782
137886,154922,22412,0.055,-0.97,0.052,-2.073,-0.793,-0.244,437.786
137886,154886,12691,0.051,-0.979,0.037,-2.378,-0.488,0,437.792
137897,154922,22412,0.045,-0.99,0.031,-2.378,-0.488,0,437.796
137897,154895,12683,0.047,-0.99,0.038,-1.159,0.427,0,437.802
137936,154922,22412,0.051,-0.977,0.047,-1.159,0.427,0,437.806
137936,154941,12698,0.056,-0.956,0.054,1.22,0.366,-0.305,437.812
137927,154922,22412,0.057,-0.948,0.055,1.22,0.366,-0.305,437.816
137927,154941,12694,0.05,-0.952,0.048,1.585,0.549,-0.183,437.822
137906,154922,22412,0.046,-0.964,0.046,1.585,0.549,-0.183,437.826
137906,154925,12697,0.046,-0.964,0.046,1.524,1.28,-0.061,437.832
137910,154922,22412,0.051,-0.952,0.058,1.524,1.28,-0.061,437.836
137910,154920,12698,0.054,-0.94,0.059,1.646,0.976,0.061,437.842
137878,154922,22412,0.055,-0.933,0.051,1.646,0.976,0.061,437.846
137878,154896,12687,0.052,-0.941,0.05,1.037,0.732,0.427,437.852
137818,154666,22412,0.049,-0.954,0.052,1.037,0.732,0.427,437.856
137818,154843,12692,0.044,-0.965,0.056,0.671,0.793,0.549,437.862
137807,154666,22412,0.048,-0.968,0.063,0.671,0.793,0.549,437.865
137807,154843,12680,0.053,-0.961,0.06,0.122,0.183,0.61,437.872
137824,154666,22412,0.052,-0.962,0.058,0.122,0.183,0.61,437.875
137824,154852,12676,0.048,-0.971,0.062,-1.098,0,0.488,437.882
137836,154666,22412,0.05,-0.976,0.062,-1.098,0,0.488,437.885
137836,154874,12700,0.052,-0.978,0.063,-1.707,0.244,0.366,437.891
137839,154922,22412,0.054,-0.985,0.052,-1.707,0.244,0.366,437.895
137839,154880,12677,0.051,-0.991,0.049,-2.256,0.305,0.122,437.901
137887,154922,22412,0.049,-0.987,0.044,-2.256,0.305,0.122,437.905
137887,154906,12682,0.053,-0.976,0.042,-1.707,0.488,0,437.911
137893,154922,22412,0.057,-0.965,0.05,-1.707,0.488,0,437.915
137893,154920,12677,0.057,-0.962,0.051,-0.244,0.427,0.061,437.921
137859,154922,22412,0.052,-0.958,0.052,-0.244,0.427,0.061,437.925
137859,154899,12702,0.049,-0.95,0.051,0.488,0.427,0.488,437.931
137855,154922,22412,0.048,-0.947,0.05,0.488,0.427,0.488,437.935
137855,154890,12680,0.048,-0.948,0.049,0.244,0.549,0.671,437.941
137867,154922,22412,0.048,-0.952,0.047,0.244,0.549,0.671,437.945
137867,154892,12694,0.05,-0.953,0.048,0.244,0.122,0.61,437.951
137864,154922,22412,0.05,-0.948,0.055,0.244,0.122,0.61,437.955
137864,154898,12698,0.048,-0.945,0.051,0,-0.305,0.732,437.961
137853,154922,22412,0.049,-0.952,0.049,0,-0.305,0.732,437.964
137853,154903,12703,0.047,-0.965,0.05,-0.427,-0.061,0.671,437.971
137881,154922,22412,0.048,-0.968,0.053,-0.427,-0.061,0.671,437.974
137881,154886,12683,0.053,-0.97,0.063,-0.549,-0.183,0.488,437.981
137876,154922,22412,0.053,-0.974,0.07,-0.549,-0.183,0.488,437.984
137876,154888,12688,0.05,-0.975,0.071,-0.793,-0.366,0.671,437.99
137881,154922,22412,0.047,-0.973,0.056,-0.793,-0.366,0.671,437.994
137881,154900,12682,0.047,-0.979,0.044,-2.439,0.183,0.61,438
137876,154922,22412,0.045,-0.992,0.039,-2.439,0.183,0.61,438.004
137876,154899,12692,0.049,-0.99,0.033,-1.951,0.671,0.061,438.01
137921,154922,22412,0.052,-0.976,0.04,-1.951,0.671,0.061,438.014
137921,154932,12701,0.054,-0.969,0.045,0.549,0.305,-0.305,438.02
137936,154922,22412,0.054,-0.969,0.048,0.549,0.305,-0.305,438.024
137936,154951,12697,0.052,-0.97,0.046,2.256,0.61,-0.122,438.03
137884,154922,22412,0.049,-0.968,0.04,2.256,0.61,-0.122,438.034
137884,154936,12704,0.047,-0.964,0.038,3.171,1.159,0.061,438.04
137899,154922,22412,0.049,-0.953,0.039,3.171,1.159,0.061,438.044
137899,154929,12688,0.045,-0.952,0.051,4.268,0.854,0.244,438.05
137892,154666,22412,0.047,-0.955,0.063,4.268,0.854,0.244,438.054
137892,154872,12690,0.051,-0.945,0.06,4.329,0.732,0,438.06
137865,154666,22412,0.053,-0.936,0.062,4.329,0.732,0,438.063
137865,154862,12694,0.05,-0.953,0.075,2.622,0.61,0,438.07
137836,154666,22412,0.049,-0.963,0.067,2.622,0.61,0,438.073
137836,154865,12688,0.051,-0.963,0.056,0.671,0.366,0.061,438.079
137847,154666,22412,0.055,-0.968,0.062,0.671,0.366,0.061,438.083
137847,154857,12673,0.057,-0.967,0.074,-0.671,0.122,0.244,438.089
137814,154666,22412,0.054,-0.954,0.082,-0.671,0.122,0.244,438.093
137814,154836,12676,0.052,-0.948,0.068,-2.073,-0.305,0.793,438.099
137852,154922,22412,0.055,-0.955,0.059,-2.073,-0.305,0.793,438.103
137852,154904,12688,0.055,-0.967,0.056,-4.146,-0.122,1.22,438.109
137848,154922,22412,0.051,-0.967,0.041,-4.146,-0.122,1.22,438.113
137848,154895,12686,0.045,-0.977,0.05,-4.085,0.244,1.037,438.119
137895,154922,22412,0.045,-0.977,0.05,-4.085,0.244,1.037,438.123
137895,154896,12689,0.053,-0.967,0.058,-2.744,-0.305,1.098,438.129
137917,154922,22412,0.053,-0.967,0.058,-2.744,-0.305,1.098,438.133
137917,154930,12709,0.056,-0.97,0.053,-3.293,-0.549,1.22,438.139
137937,154922,22412,0.056,-0.97,0.053,-3.293,-0.549,1.22,438.143
137937,154954,12706,0.05,-0.976,0.029,-3.232,0.366,1.098,438.149
137961,154922,22412,0.05,-0.976,0.029,-3.232,0.366,1.098,438.153
137961,154935,12699,0.048,-0.977,0.036,-1.341,0.976,1.402,438.159
137936,154922,22412,0.048,-0.977,0.036,-1.341,0.976,1.402,438.162
137936,154911,12698,0.048,-0.959,0.057,0.488,0.732,1.22,438.169
137905,154922,22412,0.048,-0.959,0.057,0.488,0.732,1.22,438.172
137905,154900,12695,0.047,-0.954,0.053,0.244,0.854,0.976,438.179
137919,154922,22412,0.047,-0.954,0.053,0.244,0.854,0.976,438.182
137919,154907,12686,0.043,-0.966,0.057,-0.732,0.976,0.915,438.188
137884,154922,22412,0.043,-0.966,0.057,-0.732,0.976,0.915,438.192
137884,154894,12682,0.046,-0.951,0.057,-1.098,0.183,0.793,438.198
137912,154922,22412,0.046,-0.951,0.057,-1.098,0.183,0.793,438.202
137912,154893,12693,0.049,-0.96,0.045,-2.561,-0.244,0.427,438.208
137909,154922,22412,0.049,-0.96,0.045,-2.561,-0.244,0.427,438.212
137909,154902,12693,0.047,-0.982,0.042,-2.683,0.122,0.061,438.218
137930,154922,22412,0.047,-0.982,0.042,-2.683,0.122,0.061,438.222
137930,154916,12695,0.052,-0.973,0.051,-1.463,-0.244,-0.061,438.228
137931,154922,22412,0.052,-0.973,0.051,-1.463,-0.244,-0.061,438.232
137931,154902,12695,0.05,-0.968,0.037,-0.793,-0.122,0.061,438.238
137922,154922,22412,0.05,-0.968,0.037,-0.793,-0.122,0.061,438.242
137922,154889,12684,0.055,-0.971,0.047,0.61,0.549,-0.183,438.248
137931,154922,22412,0.055,-0.971,0.047,0.61,0.549,-0.183,438.252
137931,154925,12692,0.056,-0.968,0.041,1.829,0.976,0.183,438.258
137934,154922,22412,0.056,-0.968,0.041,1.829,0.976,0.183,438.261
137934,154908,12680,0.051,-0.976,0.038,1.829,0.976,0.183,438.268
137892,154922,22412,0.046,-0.978,0.041,2.805,1.524,0.427,438.271
137892,154896,12672,0.047,-0.972,0.055,2.805,1.524,0.427,438.277
137889,154666,22412,0.053,-0.957,0.068,3.72,1.646,0.305,438.281
137889,154877,12685,0.054,-0.941,0.077,3.72,1.646,0.305,438.287
137891,154922,22412,0.05,-0.94,0.07,2.561,1.037,0.549,438.291
137891,154902,12670,0.042,-0.949,0.062,2.561,1.037,0.549,438.297
137908,154922,22412,0.038,-0.967,0.055,0,0.976,0.61,438.301
137908,154907,12683,0.037,-0.972,0.045,0,0.976,0.61,438.307
137953,154922,22412,0.043,-0.965,0.047,-1.341,0.549,-0.122,438.311
137953,154943,12696,0.054,-0.958,0.052,-1.341,0.549,-0.122,438.317
137983,154922,22412,0.056,-0.952,0.049,-1.524,-0.488,-0.549,438.321
137983,154941,12691,0.056,-0.955,0.046,-1.524,-0.488,-0.549,438.327
137983,154922,22412,0.05,-0.964,0.045,-1.22,-0.549,-0.305,438.331
137983,154943,12692,0.05,-0.97,0.044,-1.22,-0.549,-0.305,438.337
138035,154922,22412,0.049,-0.971,0.046,-0.671,0,0,438.341
138035,154987,12695,0.048,-0.98,0.05,-0.671,0,0,438.347
138045,154922,22412,0.053,-0.978,0.051,0.427,0.305,0,438.351
138045,155002,12702,0.054,-0.969,0.054,0.427,0.305,0,438.357
138107,154922,22412,0.052,-0.969,0.054,0.732,0.549,0,438.36
138107,155056,12699,0.054,-0.969,0.048,0.732,0.549,0,438.367
138084,154922,22412,0.052,-0.972,0.049,0.793,0.854,0.305,438.37
138084,155011,12698,0.049,-0.972,0.057,0.793,0.854,0.305,438.377
138060,154922,22412,0.053,-0.959,0.069,1.28,0.854,0.671,438.38
138060,155022,12676,0.059,-0.944,0.072,1.28,0.854,0.671,438.386
138044,154922,22412,0.054,-0.935,0.076,0.122,0.427,0.915,438.39
138044,154999,12698,0.046,-0.942,0.064,0.122,0.427,0.915,438.396
138000,154922,22412,0.042,-0.957,0.047,-2.134,0.366,1.098,438.4
138000,154995,12701,0.04,-0.971,0.035,-2.134,0.366,1.098,438.406
137977,154922,22412,0.045,-0.98,0.034,-2.744,0.366,0.549,438.41
137977,154931,12683,0.047,-0.982,0.032,-2.744,0.366,0.549,438.416
137940,154922,22412,0.05,-0.979,0.039,-0.732,-0.183,-0.305,438.42
137940,154914,12690,0.054,-0.972,0.042,-0.732,-0.183,-0.305,438.426
137959,154922,22412,0.055,-0.96,0.042,0.549,-0.427,-0.244,438.43
137959,154919,12684,0.051,-0.965,0.043,0.549,-0.427,-0.244,438.436
137942,154922,22412,0.048,-0.973,0.048,1.037,0.183,0.122,438.44
137942,154913,12681,0.052,-0.968,0.049,1.037,0.183,0.122,438.446
137938,154922,22412,0.05,-0.962,0.044,1.28,0.854,0.244,438.45
137938,154905,12671,0.05,-0.964,0.039,1.28,0.854,0.244,438.456
137938,154922,22412,0.05,-0.975,0.049,2.012,1.159,0.305,438.459
137938,154904,12697,0.052,-0.972,0.062,2.012,1.159,0.305,438.466
137955,154922,22412,0.055,-0.958,0.059,2.683,1.159,0.366,438.469
137955,154936,12682,0.054,-0.953,0.063,2.683,1.159,0.366,438.476
137950,154922,22412,0.052,-0.946,0.075,1.646,0.976,0.671,438.479
137950,154924,12683,0.047,-0.955,0.074,1.646,0.976,0.671,438.485
137936,154922,22412,0.045,-0.962,0.065,0.244,0.671,0.732,438.489
137936,154918,12685,0.046,-0.969,0.062,0.244,0.671,0.732,438.495
137937,154922,22412,0.046,-0.968,0.069,-1.037,0,0.366,438.499
137937,154919,12677,0.049,-0.964,0.06,-1.037,0,0.366,438.505
137921,154922,22412,0.046,-0.974,0.044,-2.256,-0.061,-0.305,438.509
137921,154913,12678,0.043,-0.982,0.037,-2.256,-0.061,-0.305,438.515
137920,154922,22412,0.046,-0.987,0.037,-2.073,0.183,-1.037,438.519
137920,154890,12673,0.05,-0.982,0.044,-2.073,0.183,-1.037,438.525
137919,154922,22412,0.058,-0.97,0.057,-0.366,-0.183,-1.22,438.529
137919,154931,12677,0.058,-0.964,0.055,-0.366,-0.183,-1.22,438.535
137975,154922,22412,0.056,-0.962,0.057,0.244,-0.061,-0.549,438.539
137975,154949,12681,0.054,-0.958,0.054,0.244,-0.061,-0.549,438.545
138021,154922,22412,0.051,-0.952,0.05,-0.427,0.305,0.122,438.549
138021,154984,12692,0.052,-0.951,0.058,-0.427,0.305,0.122,438.555
138037,154922,22412,0.055,-0.945,0.06,-0.671,0.183,0.366,438.558
138037,154989,12691,0.055,-0.938,0.055,-0.671,0.183,0.366,438.565
138046,154922,22412,0.054,-0.94,0.045,-1.402,-0.061,0.793,438.568
138046,154981,12701,0.054,-0.948,0.043,-1.402,-0.061,0.793,438.575
138062,154922,22412,0.051,-0.96,0.046,-1.463,0.244,0.915,438.578
138062,155009,12703,0.047,-0.974,0.042,-1.463,0.244,0.915,438.584
138049,154922,22412,0.05,-0.977,0.051,-0.671,0.366,0.793,438.588
138049,154994,12696,0.051,-0.967,0.058,-0.671,0.366,0.793,438.594
138014,154922,22412,0.053,-0.961,0.054,-0.671,-0.244,0.793,438.598
138014,154957,12677,0.048,-0.972,0.041,-0.671,-0.244,0.793,438.604
137979,154922,22412,0.044,-0.994,0.036,-1.28,0.305,0.549,438.608
137979,154946,12693,0.042,-1.006,0.037,-1.28,0.305,0.549,438.614
137999,154922,22412,0.051,-0.99,0.038,0.061,0.671,0,438.618
137999,154965,12689,0.057,-0.972,0.049,0.061,0.671,0,438.624
138010,154922,22412,0.06,-0.969,0.063,1.524,0.488,0.122,438.628
138010,154974,12694,0.058,-0.964,0.055,1.524,0.488,0.122,438.634
138033,154922,22412,0.049,-0.973,0.049,1.524,1.22,0.549,438.638
138033,154984,12699,0.045,-0.987,0.045,1.524,1.22,0.549,438.644
138055,154922,22412,0.046,-0.988,0.044,1.585,2.073,0.244,438.648
138055,155004,12711,0.054,-0.973,0.044,1.585,2.073,0.244,438.654
138069,154922,22412,0.057,-0.957,0.053,2.561,1.89,0,438.657
138069,155002,12700,0.057,-0.942,0.064,2.561,1.89,0,438.664
138042,154922,22412,0.057,-0.937,0.064,2.988,1.341,0.488,438.667
138042,154977,12693,0.054,-0.935,0.057,2.988,1.341,0.488,438.674
138057,154922,22412,0.047,-0.948,0.048,1.829,1.463,1.098,438.677
138057,155006,12706,0.039,-0.966,0.047,1.829,1.463,1.098,438.683
138065,154922,22412,0.039,-0.973,0.042,1.89,1.768,0.732,438.687
138065,155024,12702,0.045,-0.97,0.048,1.89,1.768,0.732,438.693
138063,154922,22412,0.052,-0.959,0.058,2.561,1.037,0.122,438.697
138063,155019,12697,0.051,-0.946,0.058,2.561,1.037,0.122,438.703
138055,154922,22412,0.049,-0.955,0.061,2.378,0.61,0.061,438.707
138055,155004,12699,0.044,-0.968,0.073,2.378,0.61,0.061,438.713
138031,154922,22412,0.044,-0.968,0.073,2.378,0.61,0.061,438.717
138031,154999,12703,0.048,-0.957,0.075,1.402,0.488,0.061,438.723
138085,154922,22412,0.048,-0.957,0.075,1.402,0.488,0.061,438.727
138085,155062,12705,0.043,-0.955,0.063,-0.854,-0.122,0.061,438.733
138127,154922,22412,0.043,-0.955,0.063,-0.854,-0.122,0.061,438.737
138127,155055,12713,0.044,-0.961,0.053,-2.805,-0.183,0,438.743
138133,154922,22412,0.044,-0.961,0.053,-2.805,-0.183,0,438.747
138133,155078,12712,0.056,-0.957,0.048,-3.232,-0.549,-0.427,438.753
138133,154922,22412,0.056,-0.957,0.048,-3.232,-0.549,-0.427,438.757
138133,155047,12703,0.057,-0.969,0.043,-3.11,-0.854,-0.549,438.763
138110,154922,22412,0.057,-0.969,0.043,-3.11,-0.854,-0.549,438.766
138110,155061,12728,0.051,-0.979,0.054,-2.256,-0.305,-0.122,438.773
138123,154922,22412,0.051,-0.979,0.054,-2.256,-0.305,-0.122,438.776
138123,155020,12712,0.057,-0.962,0.055,-0.854,-0.061,0.183,438.782
138075,154922,22412,0.057,-0.962,0.055,-0.854,-0.061,0.183,438.786
138075,155022,12710,0.057,-0.961,0.052,-0.61,-0.244,0.549,438.792
138072,154922,22412,0.057,-0.961,0.052,-0.61,-0.244,0.549,438.796
138072,155031,12698,0.056,-0.965,0.047,-0.854,0.183,0.854,438.802
138059,154922,22412,0.056,-0.965,0.047,-0.854,0.183,0.854,438.806
138059,155005,12702,0.061,-0.957,0.049,-0.976,0.488,1.037,438.812
138021,154922,22412,0.061,-0.957,0.049,-0.976,0.488,1.037,438.816
138021,154979,12697,0.052,-0.955,0.061,-0.732,0.366,1.402,438.822
138006,154922,22412,0.052,-0.955,0.061,-0.732,0.366,1.402,438.826
138006,154956,12701,0.043,-0.968,0.046,-1.037,0.549,1.768,438.832
138001,154922,22412,0.043,-0.968,0.046,-1.037,0.549,1.768,438.836
138001,154953,12690,0.042,-0.978,0.042,-1.707,0.488,1.524,438.842
137996,154922,22412,0.042,-0.978,0.042,-1.707,0.488,1.524,438.846
137996,154948,12707,0.052,-0.979,0.039,-1.646,0.427,0.61,438.852
137997,154922,22412,0.052,-0.979,0.039,-1.646,0.427,0.61,438.855
137997,154967,12713,0.048,-0.979,0.048,-0.305,0.427,0.366,438.862
138009,154922,22412,0.049,-0.973,0.054,-0.305,0.427,0.366,438.865
138009,154957,12690,0.048,-0.964,0.056,0.671,0.488,0.61,438.872
137976,154922,22412,0.047,-0.966,0.057,0.671,0.488,0.61,438.875
137976,154955,12693,0.047,-0.971,0.055,0.305,0.854,0.732,438.881
137986,154922,22412,0.047,-0.972,0.052,0.305,0.854,0.732,438.885
137986,154967,12692,0.05,-0.969,0.05,0.122,1.098,0.61,438.891
138024,154922,22412,0.051,-0.959,0.055,0.122,1.098,0.61,438.895
138024,154984,12694,0.053,-0.952,0.06,0.122,0.61,0.61,438.901
138001,154922,22412,0.052,-0.953,0.062,0.122,0.61,0.61,438.905
138001,154955,12693,0.048,-0.952,0.061,-0.244,0.305,0.915,438.911
138000,154922,22412,0.049,-0.951,0.046,-0.244,0.305,0.915,438.915
138000,154971,12707,0.046,-0.965,0.033,-1.28,0.671,0.793,438.921
138042,154922,22412,0.043,-0.987,0.034,-1.28,0.671,0.793,438.925
138042,155009,12708,0.045,-0.989,0.042,-0.305,0.793,0,438.931
138093,154922,22412,0.049,-0.974,0.049,-0.305,0.793,0,438.935
138093,155031,12705,0.056,-0.964,0.057,1.22,0.183,-0.305,438.941
138041,154922,22412,0.055,-0.958,0.062,1.22,0.183,-0.305,438.945
138041,155000,12712,0.052,-0.962,0.056,1.159,0.305,0,438.951
138074,154922,22412,0.049,-0.968,0.05,1.159,0.305,0,438.954
138074,155012,12715,0.05,-0.963,0.053,0.488,0.915,0.183,438.961
138106,154922,22412,0.054,-0.959,0.06,0.488,0.915,0.183,438.964
138106,155015,12716,0.054,-0.95,0.061,0.488,0.549,0.488,438.971
138086,154922,22412,0.052,-0.947,0.06,0.488,0.549,0.488,438.974
138086,155036,12710,0.05,-0.952,0.051,-0.488,0.305,1.037,438.98
138096,154922,22412,0.045,-0.962,0.042,-0.488,0.305,1.037,438.984
138096,155036,12703,0.044,-0.973,0.037,-0.793,0.549,1.037,438.99
138091,154922,22412,0.046,-0.983,0.04,-0.793,0.549,1.037,438.994
138091,155005,12703,0.053,-0.975,0.049,0.488,0.305,0.305,439
138052,154922,22412,0.049,-0.964,0.055,0.488,0.305,0.305,439.004
138052,154990,12717,0.051,-0.961,0.06,0.854,0.061,0.366,439.01
138031,154922,22412,0.047,-0.966,0.063,0.854,0.061,0.366,439.014
138031,154984,12715,0.047,-0.97,0.067,0.183,0.366,0.427,439.02
138035,154922,22412,0.048,-0.969,0.059,0.183,0.366,0.427,439.024
138035,154977,12706,0.047,-0.967,0.052,-1.159,0.244,0.244,439.03
138026,154922,22412,0.045,-0.966,0.044,-1.159,0.244,0.244,439.034
138026,154964,12702,0.049,-0.967,0.045,-1.646,0.183,-0.061,439.04
138040,154922,22412,0.051,-0.964,0.048,-1.646,0.183,-0.061,439.044
138040,155018,12691,0.055,-0.958,0.048,-1.037,0.061,-0.244,439.05
138025,154922,22412,0.056,-0.957,0.042,-1.037,0.061,-0.244,439.054
138025,154975,12697,0.054,-0.964,0.045,-0.305,0.122,0,439.06
137985,154922,22412,0.052,-0.965,0.049,-0.305,0.122,0,439.063
137985,154949,12689,0.056,-0.962,0.051,0.549,0.305,0.488,439.07
137965,154922,22412,0.052,-0.953,0.064,0.549,0.305,0.488,439.073
137965,154945,12699,0.051,-0.944,0.069,0.305,-0.183,0.976,439.079
137938,154922,22412,0.055,-0.948,0.067,0.305,-0.183,0.976,439.083
137938,154959,12688,0.051,-0.954,0.063,-1.28,-0.427,1.524,439.089
137915,154922,22412,0.048,-0.959,0.063,-1.28,-0.427,1.524,439.093
137915,154902,12695,0.049,-0.96,0.062,-3.049,-0.183,1.585,439.099
137894,154922,22412,0.05,-0.959,0.062,-3.049,-0.183,1.585,439.103
137894,154887,12676,0.048,-0.968,0.055,-4.024,-0.183,1.28,439.109
137881,154922,22412,0.044,-0.987,0.055,-4.024,-0.183,1.28,439.113
137881,154880,12674,0.041,-0.997,0.059,-4.329,-0.183,0.976,439.119
137863,154666,22412,0.043,-0.984,0.052,-4.329,-0.183,0.976,439.123
137863,154874,12688,0.045,-0.97,0.031,-4.634,-0.366,0.549,439.129
137883,154922,22412,0.047,-0.975,0.017,-4.634,-0.366,0.549,439.133
137883,154890,12679,0.044,-0.992,0.009,-3.293,0.122,-0.244,439.139
137895,154922,22412,0.044,-1.003,0.015,-3.293,0.122,-0.244,439.143
137895,154897,12680,0.047,-0.998,0.028,1.28,0.732,-0.976,439.149
137905,154922,22412,0.056,-0.971,0.046,1.28,0.732,-0.976,439.152
137905,154912,12695,0.062,-0.942,0.054,4.085,0.793,-0.732,439.159
137948,154922,22412,0.057,-0.935,0.056,4.085,0.793,-0.732,439.162
137948,154933,12700,0.051,-0.945,0.052,3.841,1.463,0.183,439.169
137939,154922,22412,0.046,-0.953,0.052,3.841,1.463,0.183,439.172
137939,154940,12694,0.048,-0.95,0.052,3.293,2.012,0.427,439.178
137927,154922,22412,0.053,-0.942,0.057,3.293,2.012,0.427,439.182
137927,154906,12673,0.057,-0.932,0.062,2.439,1.28,0.61,439.188
137911,154922,22412,0.055,-0.934,0.056,2.439,1.28,0.61,439.192
137911,154942,12699,0.049,-0.948,0.064,0.976,0.732,1.159,439.198
137911,154922,22412,0.047,-0.957,0.064,0.976,0.732,1.159,439.202
137911,154939,12686,0.046,-0.957,0.063,-0.61,0.305,1.28,439.208
137928,154922,22412,0.05,-0.955,0.061,-0.61,0.305,1.28,439.212
137928,154923,12697,0.048,-0.962,0.062,-1.951,-0.366,1.098,439.218
137896,154922,22412,0.047,-0.974,0.063,-1.951,-0.366,1.098,439.222
137896,154907,12713,0.047,-0.985,0.051,-3.049,-0.61,0.854,439.228
137916,154922,22412,0.045,-0.993,0.035,-3.049,-0.61,0.854,439.232
137916,154927,12686,0.046,-1.01,0.028,-3.232,-0.122,0.244,439.238
137895,154922,22412,0.047,-1.012,0.039,-3.232,-0.122,0.244,439.242
137895,154929,12692,0.047,-0.996,0.043,-0.61,0.183,-0.305,439.248
137906,154922,22412,0.05,-0.98,0.047,-0.61,0.183,-0.305,439.252
137906,154927,12692,0.055,-0.968,0.046,1.524,0.305,-0.427,439.258
137918,154922,22412,0.05,-0.967,0.043,1.524,0.305,-0.427,439.261
137918,154920,12690,0.049,-0.969,0.048,2.378,1.037,-0.122,439.268
137972,154922,22412,0.052,-0.965,0.049,2.378,1.037,-0.122,439.271
137972,154961,12700,0.05,-0.949,0.049,2.988,1.341,0.244,439.277
137989,154922,22412,0.053,-0.937,0.056,2.988,1.341,0.244,439.281
137989,154982,12710,0.05,-0.932,0.06,2.927,1.098,0.671,439.287
137986,154922,22412,0.048,-0.929,0.063,2.927,1.098,0.671,439.291
137986,154983,12707,0.047,-0.934,0.063,1.768,0.488,0.854,439.297
137973,154922,22412,0.046,-0.94,0.056,1.768,0.488,0.854,439.301
137973,154965,12689,0.048,-0.95,0.056,-0.366,0.183,0.732,439.307
137937,154922,22412,0.048,-0.95,0.056,-0.366,0.183,0.732,439.311
137937,154947,12707,0.046,-0.966,0.05,-1.707,-0.183,0.549,439.317
137927,154922,22412,0.046,-0.966,0.05,-1.707,-0.183,0.549,439.321
137927,154943,12688,0.049,-0.966,0.062,-2.317,-0.671,0.427,439.327
137936,154922,22412,0.049,-0.966,0.062,-2.317,-0.671,0.427,439.331
137936,154942,12685,0.05,-0.976,0.062,-2.927,-0.793,0.488,439.337
137916,154922,22412,0.05,-0.976,0.062,-2.927,-0.793,0.488,439.341
137916,154941,12693,0.048,-0.984,0.037,-3.598,-0.122,0.427,439.347
137909,154922,22412,0.048,-0.984,0.037,-3.598,-0.122,0.427,439.35
137909,154949,12691,0.05,-0.99,0.036,-2.378,0.244,0.244,439.357
137895,154922,22412,0.05,-0.99,0.036,-2.378,0.244,0.244,439.36
137895,154918,12690,0.06,-0.969,0.035,0.305,0.427,0.183,439.367
137886,154922,22412,0.06,-0.969,0.035,0.305,0.427,0.183,439.37
137886,154911,12701,0.054,-0.972,0.037,2.256,1.22,0.549,439.376
137870,154922,22412,0.054,-0.972,0.037,2.256,1.22,0.549,439.38
137870,154908,12696,0.051,-0.964,0.056,3.841,1.707,0.915,439.386
137878,154922,22412,0.051,-0.964,0.056,3.841,1.707,0.915,439.39
137878,154889,12687,0.055,-0.946,0.067,3.659,1.707,1.22,439.396
137811,154666,22412,0.055,-0.946,0.067,3.659,1.707,1.22,439.4
137811,154859,12688,0.042,-0.957,0.057,1.829,1.768,1.28,439.406
137796,154666,22412,0.042,-0.957,0.057,1.829,1.768,1.28,439.41
137796,154861,12675,0.048,-0.954,0.062,0.488,1.22,1.037,439.416
137851,154666,22412,0.048,-0.954,0.062,0.488,1.22,1.037,439.42
137851,154873,12687,0.049,-0.946,0.073,-0.488,0.122,1.098,439.426
137837,154922,22412,0.049,-0.946,0.073,-0.488,0.122,1.098,439.43
137837,154881,12687,0.043,-0.961,0.056,-2.927,-0.183,1.098,439.436
137854,154922,22412,0.043,-0.961,0.056,-2.927,-0.183,1.098,439.44
137854,154904,12684,0.046,-0.968,0.039,-4.451,-0.427,0.671,439.446
137898,154922,22412,0.046,-0.968,0.039,-4.451,-0.427,0.671,439.45
137898,154940,12699,0.051,-0.971,0.033,-4.451,-0.427,0.671,439.456
137933,154922,22412,0.051,-0.979,0.036,-2.866,-0.549,0.305,439.459
137933,154928,12691,0.046,-0.992,0.043,-2.866,-0.549,0.305,439.466
137939,154922,22412,0.049,-0.997,0.042,-0.549,0,0.061,439.469
137939,154974,12693,0.051,-0.984,0.044,-0.549,0,0.061,439.475
137974,154922,22412,0.05,-0.975,0.047,0.549,0.488,0.244,439.479
137974,154979,12713,0.049,-0.979,0.047,0.549,0.488,0.244,439.485
137962,154922,22412,0.046,-0.977,0.052,1.585,0.915,0.427,439.489
137962,154978,12699,0.047,-0.972,0.048,1.585,0.915,0.427,439.495
137922,154922,22412,0.048,-0.972,0.062,2.439,1.098,0.305,439.499
137922,154970,12704,0.053,-0.96,0.074,2.439,1.098,0.305,439.505
137931,154922,22412,0.051,-0.946,0.078,1.951,0.915,0.366,439.509
137931,154978,12699,0.048,-0.939,0.075,1.951,0.915,0.366,439.515
137958,154922,22412,0.043,-0.944,0.068,-0.549,0.732,0.549,439.519
137958,154973,12708,0.038,-0.951,0.051,-0.549,0.732,0.549,439.525
137913,154922,22412,0.04,-0.961,0.036,-2.805,0.61,0.122,439.529
137913,154942,12701,0.046,-0.966,0.033,-2.805,0.61,0.122,439.535
137917,154922,22412,0.051,-0.97,0.047,-1.951,0,-0.488,439.539
137917,154930,12713,0.054,-0.965,0.057,-1.951,0,-0.488,439.545
137929,154922,22412,0.054,-0.953,0.059,-1.098,-0.671,-0.305,439.549
137929,154978,12704,0.048,-0.953,0.048,-1.098,-0.671,-0.305,439.555
137950,154922,22412,0.044,-0.963,0.042,-2.134,-0.427,0.366,439.558
137950,154965,12703,0.042,-0.976,0.039,-2.134,-0.427,0.366,439.565
137928,154922,22412,0.045,-0.978,0.03,-1.768,0.122,-0.061,439.568
137928,154954,12700,0.049,-0.98,0.038,-1.768,0.122,-0.061,439.575
137949,154922,22412,0.054,-0.982,0.049,0.183,0.122,-0.427,439.578
137949,154980,12722,0.058,-0.971,0.053,0.183,0.122,-0.427,439.584
137962,154922,22412,0.056,-0.965,0.056,1.463,0.244,0,439.588
137962,154971,12710,0.052,-0.964,0.063,1.463,0.244,0,439.594
137982,154922,22412,0.05,-0.957,0.06,0.976,0.488,0.671,439.598
137982,154969,12702,0.052,-0.96,0.046,0.976,0.488,0.671,439.604
137935,154922,22412,0.047,-0.968,0.046,0.183,0.915,0.793,439.608
137935,154933,12692,0.046,-0.973,0.055,0.183,0.915,0.793,439.614
137899,154922,22412,0.048,-0.966,0.062,0.732,0.732,0.366,439.618
137899,154944,12705,0.054,-0.952,0.065,0.732,0.732,0.366,439.624
137911,154922,22412,0.055,-0.945,0.054,-0.061,0.061,0.488,439.628
137911,154938,12690,0.051,-0.958,0.044,-0.061,0.061,0.488,439.634
137896,154922,22412,0.047,-0.976,0.042,-1.098,0.671,0.488,439.638
137896,154934,12703,0.042,-0.98,0.043,-1.098,0.671,0.488,439.644
137915,154922,22412,0.046,-0.975,0.045,-0.061,0.915,0.366,439.648
137915,154953,12688,0.053,-0.971,0.052,-0.061,0.915,0.366,439.654
137963,154922,22412,0.054,-0.964,0.061,0.976,0.366,0.488,439.657
137963,154962,12705,0.05,-0.956,0.057,0.976,0.366,0.488,439.664
137969,154922,22412,0.046,-0.958,0.043,0.244,0.549,0.854,439.667
137969,154990,12704,0.044,-0.968,0.044,0.244,0.549,0.854,439.674
137976,154922,22412,0.043,-0.973,0.051,0.427,0.854,0.549,439.677
137976,154983,12710,0.047,-0.963,0.057,0.427,0.854,0.549,439.683
137985,154922,22412,0.054,-0.944,0.06,0.549,0.183,0.488,439.687
137985,155010,12706,0.055,-0.944,0.066,0.549,0.183,0.488,439.693
137976,154922,22412,0.053,-0.95,0.068,-0.854,-0.122,0.793,439.697
137976,154958,12708,0.05,-0.957,0.072,-0.854,-0.122,0.793,439.703
137923,154922,22412,0.047,-0.958,0.074,-3.049,-0.427,1.341,439.707
137923,154913,12711,0.047,-0.953,0.066,-3.049,-0.427,1.341,439.713
137863,154922,22412,0.047,-0.959,0.053,-5.793,-0.61,1.341,439.717
137863,154881,12692,0.043,-0.974,0.033,-5.793,-0.61,1.341,439.723
137859,154922,22412,0.039,-0.999,0.026,-6.341,-0.244,0.671,439.727
137859,154880,12690,0.036,-1.007,0.024,-6.341,-0.244,0.671,439.733
137857,154922,22412,0.044,-0.992,0.031,-3.78,-0.244,-0.244,439.737
137857,154892,12699,0.051,-0.973,0.036,-3.78,-0.244,-0.244,439.743
137877,154666,22412,0.051,-0.971,0.036,-1.524,-0.427,-0.671,439.747
137877,154864,12689,0.049,-0.981,0.035,-1.524,-0.427,-0.671,439.753
137868,154922,22412,0.049,-0.975,0.02,0.549,0.671,-0.671,439.756
137868,154897,12696,0.046,-0.981,0.034,0.549,0.671,-0.671,439.763
137886,154922,22412,0.051,-0.975,0.026,2.805,1.463,-0.671,439.766
137886,154916,12698,0.058,-0.963,0.031,2.805,1.463,-0.671,439.773
137928,154922,22412,0.049,-0.967,0.057,5.061,1.585,-0.427,439.776
137928,154949,12708,0.053,-0.954,0.058,5.061,1.585,-0.427,439.782
137900,154922,22412,0.058,-0.94,0.066,5.61,1.768,0.244,439.786
137900,154938,12699,0.053,-0.936,0.081,5.61,1.768,0.244,439.792
137880,154922,22412,0.05,-0.933,0.084,4.085,1.463,0.976,439.796
137880,154920,12688,0.046,-0.93,0.075,4.085,1.463,0.976,439.802
137902,154922,22412,0.043,-0.94,0.069,0.671,0.976,1.341,439.806
137902,154926,12700,0.039,-0.959,0.06,0.671,0.976,1.341,439.812
137894,154922,22412,0.038,-0.976,0.05,-1.89,0.488,0.732,439.816
137894,154914,12701,0.045,-0.975,0.039,-1.89,0.488,0.732,439.822
137863,154666,22412,0.051,-0.977,0.045,-1.89,-0.122,-0.244,439.826
137863,154872,12691,0.048,-0.98,0.056,-1.89,-0.122,-0.244,439.832
137826,154666,22412,0.05,-0.972,0.051,-0.854,-0.61,-0.366,439.836
137826,154833,12697,0.05,-0.965,0.048,-0.854,-0.61,-0.366,439.842
137851,154666,22412,0.044,-0.975,0.053,-0.976,-0.183,-0.244,439.846
137851,154876,12695,0.046,-0.979,0.05,-0.976,-0.183,-0.244,439.852
137846,154922,22412,0.05,-0.974,0.047,-0.61,0.366,-0.305,439.855
137846,154903,12684,0.047,-0.973,0.049,-0.61,0.366,-0.305,439.862
137864,154922,22412,0.05,-0.967,0.047,-0.183,0.61,-0.244,439.865
137864,154891,12700,0.052,-0.961,0.046,-0.183,0.61,-0.244,439.872
137865,154922,22412,0.053,-0.954,0.056,0.549,0.549,0.122,439.875
137865,154907,12684,0.053,-0.95,0.064,0.549,0.549,0.122,439.881
137898,154922,22412,0.05,-0.941,0.072,0.427,0.244,0.61,439.885
137898,154913,12691,0.05,-0.931,0.062,0.427,0.244,0.61,439.891
137896,154922,22412,0.049,-0.939,0.048,-1.402,0.183,0.793,439.895
137896,154915,12684,0.046,-0.957,0.047,-1.402,0.183,0.793,439.901
137880,154922,22412,0.046,-0.957,0.047,-1.402,0.183,0.793,439.905
137880,154899,12689,0.047,-0.974,0.053,-2.378,0.427,0.488,439.911
137881,154922,22412,0.047,-0.974,0.053,-2.378,0.427,0.488,439.915
137881,154893,12695,0.055,-0.961,0.04,-2.134,-0.061,0.366,439.921
137902,154922,22412,0.055,-0.961,0.04,-2.134,-0.061,0.366,439.925
137902,154929,12687,0.049,-0.99,0.03,-2.561,-0.244,0.488,439.931
137898,154922,22412,0.049,-0.99,0.03,-2.561,-0.244,0.488,439.935
137898,154899,12702,0.05,-0.998,0.029,-1.22,0.427,0.427,439.941
137915,154922,22412,0.05,-0.998,0.029,-1.22,0.427,0.427,439.945
137915,154914,12692,0.057,-0.978,0.05,1.402,0.854,0.366,439.951
137906,154922,22412,0.057,-0.978,0.05,1.402,0.854,0.366,439.954
137906,154932,12694,0.054,-0.963,0.044,3.232,1.28,0.549,439.961
137912,154922,22412,0.054,-0.963,0.044,3.232,1.28,0.549,439.964
137912,154913,12681,0.047,-0.974,0.051,3.415,1.951,0.915,439.971
137884,154922,22412,0.047,-0.974,0.051,3.415,1.951,0.915,439.974
137884,154886,12681,0.051,-0.945,0.073,4.024,2.012,1.037,439.98
137798,154666,22412,0.051,-0.945,0.073,4.024,2.012,1.037,439.984
137798,154846,12703,0.046,-0.939,0.065,2.744,1.159,1.159,439.99
137761,154666,22412,0.046,-0.939,0.065,2.744,1.159,1.159,439.994
137761,154786,12680,0.037,-0.958,0.049,0.427,1.037,1.22,440
137720,154666,22412,0.037,-0.958,0.049,0.427,1.037,1.22,440.004
137720,154792,12679,0.044,-0.963,0.051,-1.159,0.61,0.671,440.01
137685,154666,22412,0.044,-0.963,0.051,-1.159,0.61,0.671,440.014
137685,154789,12655,0.05,-0.97,0.047,-0.854,-0.427,-0.183,440.02
137683,154666,22412,0.05,-0.97,0.047,-0.854,-0.427,-0.183,440.024
137683,154746,12664,0.049,-0.978,0.056,-0.549,-0.427,-0.427,440.03
137723,154666,22412,0.049,-0.978,0.056,-0.549,-0.427,-0.427,440.034
137723,154796,12672,0.047,-0.977,0.047,-0.854,-0.244,-0.305,440.04
137798,154666,22412,0.047,-0.977,0.047,-0.854,-0.244,-0.305,440.044
137798,154845,12677,0.045,-0.991,0.047,-0.854,0,-0.244,440.05
137833,154666,22412,0.048,-0.985,0.05,-0.854,0,-0.244,440.053
137833,154856,12701,0.053,-0.97,0.052,0.244,0.061,-0.488,440.06
137895,154922,22412,0.053,-0.964,0.056,0.244,0.061,-0.488,440.063
137895,154905,12680,0.054,-0.955,0.054,0.732,0.122,-0.183,440.07
137859,154666,22412,0.054,-0.946,0.046,0.732,0.122,-0.183,440.073
137859,154868,12680,0.05,-0.955,0.045,0.549,0.549,0,440.079
137836,154666,22412,0.048,-0.966,0.052,0.549,0.549,0,440.083
137836,154862,12669,0.049,-0.961,0.055,1.585,0.732,0.061,440.089
137857,154666,22412,0.049,-0.949,0.065,1.585,0.732,0.061,440.093
137857,154873,12696,0.055,-0.941,0.065,1.098,0.122,0.366,440.099
137888,154666,22412,0.055,-0.949,0.044,1.098,0.122,0.366,440.103
137888,154872,12665,0.047,-0.969,0.032,-0.305,0.488,0.366,440.109
137869,154666,22412,0.041,-0.99,0.035,-0.305,0.488,0.366,440.113
137869,154855,12664,0.048,-0.986,0.057,0.793,0.976,-0.122,440.119
137848,154666,22412,0.056,-0.963,0.073,0.793,0.976,-0.122,440.123
137848,154878,12688,0.058,-0.951,0.068,1.402,0,0.061,440.129
137885,154666,22412,0.057,-0.959,0.053,1.402,0,0.061,440.133
137885,154878,12689,0.043,-0.98,0.04,-0.488,0.793,0.305,440.139
137872,154922,22412,0.041,-0.991,0.041,-0.488,0.793,0.305,440.143
137872,154880,12689,0.049,-0.981,0.055,0.366,1.22,0.061,440.149
137895,154922,22412,0.055,-0.955,0.07,0.366,1.22,0.061,440.152
137895,154895,12693,0.057,-0.935,0.063,0.854,-0.122,0.427,440.159
137861,154666,22412,0.052,-0.942,0.055,0.854,-0.122,0.427,440.162
137861,154865,12687,0.043,-0.962,0.055,-0.549,0.305,0.793,440.169
137825,154666,22412,0.042,-0.965,0.052,-0.549,0.305,0.793,440.172
137825,154870,12664,0.048,-0.957,0.058,-0.61,0.366,0.61,440.178
137831,154666,22412,0.055,-0.946,0.057,-0.61,0.366,0.61,440.182
137831,154879,12684,0.055,-0.948,0.049,-0.976,-0.427,0.732,440.188
137826,154666,22412,0.048,-0.968,0.047,-0.976,-0.427,0.732,440.192
137826,154848,12674,0.041,-0.987,0.047,-0.854,0.305,0.549,440.198
137822,154666,22412,0.042,-0.982,0.053,-0.854,0.305,0.549,440.202
137822,154854,12681,0.051,-0.966,0.057,-0.305,0.183,0.366,440.208
137819,154666,22412,0.054,-0.958,0.056,-0.305,0.183,0.366,440.212
137819,154858,12692,0.052,-0.963,0.047,-0.671,0,0.305,440.218
137830,154922,22412,0.047,-0.973,0.041,-0.671,0,0.305,440.222
137830,154883,12674,0.046,-0.979,0.053,-0.488,0.793,0.366,440.228
137875,154666,22412,0.05,-0.974,0.061,-0.488,0.793,0.366,440.232
137875,154874,12682,0.057,-0.964,0.063,0.427,0.549,0.549,440.238
137897,154922,22412,0.057,-0.958,0.064,0.427,0.549,0.549,440.242
137897,154904,12703,0.051,-0.961,0.069,-0.305,0.183,1.22,440.248
137933,154922,22412,0.046,-0.958,0.064,-0.305,0.183,1.22,440.251
137933,154943,12679,0.044,-0.953,0.057,-1.768,0.366,1.28,440.258
137914,154922,22412,0.046,-0.958,0.047,-1.768,0.366,1.28,440.261
137914,154938,12704,0.043,-0.975,0.042,-2.744,0.183,0.915,440.268
137904,154922,22412,0.043,-0.983,0.041,-2.744,0.183,0.915,440.271
137904,154937,12693,0.046,-0.976,0.039,-1.768,0,0.244,440.277
137915,154922,22412,0.05,-0.971,0.051,-1.768,0,0.244,440.281
137915,154928,12697,0.05,-0.967,0.059,-0.671,-0.305,0,440.287
137898,154922,22412,0.049,-0.961,0.059,-0.671,-0.305,0,440.291
137898,154925,12687,0.046,-0.958,0.051,-0.732,-0.244,0.183,440.297
137914,154922,22412,0.045,-0.962,0.041,-0.732,-0.244,0.183,440.301
137914,154941,12686,0.044,-0.973,0.032,-1.524,0.244,0,440.307
137921,154922,22412,0.043,-0.986,0.034,-1.524,0.244,0,440.311
137921,154915,12700,0.047,-0.98,0.042,0.244,0.61,-0.549,440.317
137911,154922,22412,0.053,-0.961,0.048,0.244,0.61,-0.549,440.321
137911,154948,12703,0.055,-0.947,0.053,1.585,0.244,-0.549,440.327
137935,154922,22412,0.057,-0.947,0.059,1.585,0.244,-0.549,440.331
137935,154948,12692,0.055,-0.954,0.054,1.524,0.366,-0.061,440.337
137914,154922,22412,0.049,-0.959,0.053,1.524,0.366,-0.061,440.341
137914,154943,12709,0.046,-0.961,0.058,0.793,0.732,0.366,440.347
137935,154922,22412,0.05,-0.959,0.064,0.793,0.732,0.366,440.35
137935,154958,12704,0.052,-0.948,0.054,0,0.122,0.671,440.357
138000,154922,22412,0.051,-0.953,0.051,0,0.122,0.671,440.36
138000,154972,12703,0.048,-0.973,0.058,-1.22,-0.122,0.549,440.367
137952,154922,22412,0.049,-0.973,0.053,-1.22,-0.122,0.549,440.37
137952,154941,12691,0.045,-0.976,0.052,-1.646,0,0.061,440.376
137927,154922,22412,0.048,-0.991,0.049,-1.646,0,0.061,440.38
137927,154952,12709,0.047,-0.987,0.049,-1.402,0.122,-0.366,440.386
137969,154922,22412,0.05,-0.98,0.045,-1.402,0.122,-0.366,440.39
137969,154976,12718,0.051,-0.974,0.046,-0.854,0.244,-0.427,440.396
137934,154922,22412,0.054,-0.967,0.047,-0.854,0.244,-0.427,440.4
137934,154948,12701,0.055,-0.964,0.051,0.183,0.488,-0.366,440.406
137921,154922,22412,0.054,-0.96,0.047,0.183,0.488,-0.366,440.41
137921,154950,12709,0.052,-0.959,0.042,0.915,0.976,0.061,440.416
137959,154922,22412,0.051,-0.958,0.04,0.915,0.976,0.061,440.42
137959,154992,12727,0.05,-0.958,0.051,2.012,0.915,0.549,440.426
137958,154922,22412,0.049,-0.951,0.054,2.012,0.915,0.549,440.43
137958,154954,12686,0.05,-0.939,0.057,2.317,0.671,0.732,440.436
137937,154922,22412,0.051,-0.937,0.064,2.317,0.671,0.732,440.44
137937,154965,12700,0.05,-0.939,0.063,1.159,0.427,0.915,440.446
137938,154922,22412,0.046,-0.95,0.057,1.159,0.427,0.915,440.449
137938,154970,12712,0.046,-0.961,0.056,-0.244,0.427,1.037,440.456
137908,154922,22412,0.049,-0.96,0.068,-0.244,0.427,1.037,440.459
137908,154918,12693,0.052,-0.958,0.06,-1.585,-0.305,0.976,440.466
137909,154922,22412,0.051,-0.969,0.042,-1.585,-0.305,0.976,440.469
137909,154961,12710,0.046,-0.987,0.044,-2.744,-0.244,0.61,440.475
137929,154922,22412,0.047,-0.992,0.046,-2.744,-0.244,0.61,440.479
137929,154939,12710,0.053,-0.981,0.053,-1.829,0.183,0.366,440.485
137864,154922,22412,0.057,-0.971,0.064,-1.829,0.183,0.366,440.489
137864,154909,12700,0.056,-0.964,0.061,-1.524,-0.122,0.549,440.495
137872,154922,22412,0.056,-0.964,0.061,-1.524,-0.122,0.549,440.499
137872,154921,12700,0.043,-0.973,0.035,-2.5,0.366,0.732,440.505
137889,154922,22412,0.043,-0.973,0.035,-2.5,0.366,0.732,440.509
137889,154928,12701,0.05,-0.98,0.037,-1.402,0.793,0.549,440.515
137862,154922,22412,0.05,-0.98,0.037,-1.402,0.793,0.549,440.519
137862,154911,12688,0.057,-0.954,0.038,0.915,0.671,0.61,440.525
137848,154922,22412,0.057,-0.954,0.038,0.915,0.671,0.61,440.529
137848,154907,12701,0.044,-0.96,0.061,2.622,1.037,0.976,440.535
137829,154922,22412,0.044,-0.96,0.061,2.622,1.037,0.976,440.539
137829,154895,12682,0.048,-0.962,0.056,2.134,1.037,0.915,440.545
137836,154922,22412,0.048,-0.962,0.056,2.134,1.037,0.915,440.548
137836,154898,12693,0.044,-0.973,0.062,1.098,0.549,0.793,440.555
137832,154666,22412,0.044,-0.973,0.062,1.098,0.549,0.793,440.558
137832,154878,12698,0.042,-0.965,0.066,0,0.305,0.61,440.565
137805,154666,22412,0.042,-0.965,0.066,0,0.305,0.61,440.568
137805,154840,12693,0.047,-0.957,0.045,-1.585,0,0.061,440.574
137785,154666,22412,0.047,-0.957,0.045,-1.585,0,0.061,440.578
137785,154872,12673,0.047,-0.967,0.042,-1.829,-0.122,-0.366,440.584
137835,154922,22412,0.047,-0.967,0.042,-1.829,-0.122,-0.366,440.588
137835,154883,12689,0.056,-0.964,0.041,-0.915,-0.183,-0.427,440.594
137823,154922,22412,0.056,-0.964,0.041,-0.915,-0.183,-0.427,440.598
137823,154882,12697,0.057,-0.962,0.033,0.061,0.122,-0.061,440.604
137812,154922,22412,0.057,-0.962,0.033,0.061,0.122,-0.061,440.608
137812,154897,12682,0.046,-0.98,0.049,1.89,0.793,0.183,440.614
137836,154922,22412,0.046,-0.98,0.049,1.89,0.793,0.183,440.618
137836,154905,12705,0.049,-0.967,0.059,2.561,0.793,0.366,440.624
137831,154922,22412,0.049,-0.967,0.059,2.561,0.793,0.366,440.628
137831,154919,12701,0.047,-0.959,0.083,1.951,0.305,0.427,440.634
137845,154922,22412,0.047,-0.959,0.083,1.951,0.305,0.427,440.638
137845,154922,12713,0.051,-0.955,0.076,1.951,0.305,0.427,440.644
137855,154922,22412,0.046,-0.968,0.056,-0.61,0.183,0.427,440.647
137855,154888,12697,0.041,-0.982,0.045,-0.61,0.183,0.427,440.654
137820,154666,22412,0.043,-0.981,0.044,-1.768,0.61,-0.122,440.657
137820,154867,12708,0.052,-0.967,0.045,-1.768,0.61,-0.122,440.664
137812,154666,22412,0.065,-0.947,0.043,-0.793,0.061,-0.488,440.667
137812,154867,12696,0.057,-0.948,0.064,-0.793,0.061,-0.488,440.673
137822,154922,22412,0.044,-0.956,0.071,0.061,-0.122,0.244,440.677
137822,154882,12684,0.047,-0.956,0.052,0.061,-0.122,0.244,440.683
137814,154922,22412,0.055,-0.949,0.026,-1.22,0.061,0.61,440.687
137814,154881,12701,0.05,-0.959,0.042,-1.22,0.061,0.61,440.693
137829,154922,22412,0.048,-0.966,0.045,-0.915,0.122,0.427,440.697
137829,154880,12696,0.053,-0.959,0.032,-0.915,0.122,0.427,440.703
137847,154922,22412,0.052,-0.957,0.04,0.488,0.305,0.61,440.707
137847,154911,12702,0.049,-0.964,0.054,0.488,0.305,0.61,440.713
137858,154666,22412,0.047,-0.97,0.055,1.463,0.366,0.793,440.717
137858,154875,12698,0.047,-0.975,0.058,1.463,0.366,0.793,440.723
137866,154922,22412,0.047,-0.976,0.062,1.037,0.61,0.671,440.727
137866,154917,12719,0.049,-0.979,0.061,1.037,0.61,0.671,440.733
137878,154922,22412,0.052,-0.979,0.064,0.122,0.366,0.488,440.737
137878,154950,12706,0.051,-0.966,0.064,0.122,0.366,0.488,440.743
137925,154922,22412,0.051,-0.959,0.058,-0.915,0.305,0.488,440.746
137925,154948,12706,0.054,-0.964,0.051,-0.915,0.305,0.488,440.753
137943,154922,22412,0.049,-0.97,0.052,-1.646,0.427,0.549,440.756
137943,154966,12711,0.047,-0.97,0.044,-1.646,0.427,0.549,440.763
137931,154922,22412,0.049,-0.968,0.044,-1.524,0.61,0.61,440.766
137931,154972,12697,0.05,-0.959,0.047,-1.524,0.61,0.61,440.772
137937,154922,22412,0.054,-0.953,0.037,-0.671,0.488,0.549,440.776
137937,154928,12709,0.049,-0.956,0.032,-0.671,0.488,0.549,440.782
137908,154922,22412,0.045,-0.974,0.04,0.732,0.854,0.549,440.786
137908,154951,12704,0.042,-0.978,0.046,0.732,0.854,0.549,440.792
137914,154922,22412,0.049,-0.967,0.048,2.805,0.854,0.427,440.796
137914,154932,12715,0.05,-0.959,0.051,2.805,0.854,0.427,440.802
137920,154922,22412,0.047,-0.956,0.05,2.805,0.732,0.549,440.806
137920,154944,12720,0.044,-0.966,0.056,2.805,0.732,0.549,440.812
137938,154922,22412,0.046,-0.967,0.061,2.622,0.915,0.488,440.816
137938,154987,12707,0.047,-0.96,0.065,2.622,0.915,0.488,440.822
137947,154922,22412,0.044,-0.956,0.069,1.951,0.549,0.488,440.826
137947,154992,12710,0.046,-0.958,0.069,1.951,0.549,0.488,440.832
137949,154922,22412,0.043,-0.964,0.068,0.244,0.183,0.427,440.836
137949,154949,12716,0.041,-0.966,0.069,0.244,0.183,0.427,440.842
137957,154922,22412,0.045,-0.968,0.069,-1.89,-0.122,0.122,440.845
137957,154973,12716,0.049,-0.969,0.064,-1.89,-0.122,0.122,440.852
137961,154922,22412,0.05,-0.966,0.056,-3.537,-0.427,-0.366,440.855
137961,154984,12720,0.049,-0.965,0.045,-3.537,-0.427,-0.366,440.862
137942,154922,22412,0.051,-0.967,0.034,-4.207,-0.244,-0.488,440.865
137942,154989,12714,0.051,-0.976,0.026,-4.207,-0.244,-0.488,440.871
137968,154922,22412,0.048,-0.981,0.024,-2.5,0.305,-0.61,440.875
137968,155020,12719,0.05,-0.982,0.037,-2.5,0.305,-0.61,440.881
137984,154922,22412,0.059,-0.968,0.046,0.61,0.488,-0.549,440.885
137984,155004,12717,0.056,-0.963,0.042,0.61,0.488,-0.549,440.891
138019,154922,22412,0.053,-0.969,0.044,2.5,0.793,0,440.895
138019,155050,12738,0.048,-0.968,0.051,2.5,0.793,0,440.901
138005,154922,22412,0.045,-0.961,0.053,3.171,1.22,0.305,440.905
138005,155067,12737,0.052,-0.953,0.055,3.171,1.22,0.305,440.911
138005,154922,22412,0.056,-0.948,0.058,2.866,0.854,0.305,440.915
138005,155009,12709,0.057,-0.947,0.061,2.866,0.854,0.305,440.921
