128902,150495,12445,0.071,-0.916,-0.284,-0.366,0.122,0.671,584.111
128910,150361,38140,0.069,-0.915,-0.28,-0.061,-0.061,0.671,584.115
128910,150502,12466,0.074,-0.918,-0.277,-0.061,-0.061,0.671,584.121
128908,150361,38140,0.074,-0.917,-0.283,-0.427,-0.244,0.61,584.125
128908,150519,12459,0.072,-0.923,-0.282,-0.427,-0.244,0.61,584.131
128920,150361,38140,0.071,-0.919,-0.282,-0.793,0.366,0.549,584.135
128920,150500,12446,0.069,-0.918,-0.29,-0.793,0.366,0.549,584.141
128895,150361,38140,0.069,-0.92,-0.287,-0.549,0.793,0.488,584.145
128895,150502,12447,0.071,-0.92,-0.286,-0.549,0.793,0.488,584.151
128876,150361,38140,0.069,-0.915,-0.288,-0.122,0.854,0.488,584.154
128876,150515,12452,0.071,-0.909,-0.278,-0.122,0.854,0.488,584.161
128897,150361,38140,0.071,-0.909,-0.278,0.244,0.732,0.549,584.164
128897,150492,12447,0.071,-0.911,-0.277,0.244,0.732,0.549,584.171
128879,150361,38140,0.071,-0.919,-0.277,0.305,0.793,0.549,584.174
128879,150493,12456,0.068,-0.924,-0.281,0.305,0.793,0.549,584.18
128906,150361,38140,0.066,-0.923,-0.28,0.061,1.037,0.488,584.184
128906,150487,12444,0.067,-0.912,-0.284,0.061,1.037,0.488,584.19
128886,150361,38140,0.07,-0.909,-0.278,0.183,0.549,0.366,584.194
128886,150460,12463,0.067,-0.911,-0.269,0.183,0.549,0.366,584.2
128904,150361,38140,0.072,-0.915,-0.274,0.122,0,0.366,584.204
128904,150493,12441,0.072,-0.921,-0.275,0.122,0,0.366,584.21
128890,150361,38140,0.064,-0.922,-0.279,-0.427,0.305,0.427,584.214
128890,150461,12444,0.065,-0.92,-0.283,-0.427,0.305,0.427,584.22
128872,150361,38140,0.071,-0.917,-0.284,-0.671,0.427,0.427,584.224
128872,150488,12460,0.069,-0.919,-0.284,-0.671,0.427,0.427,584.23
128882,150361,38140,0.066,-0.92,-0.279,-0.427,0.183,0.244,584.234
128882,150495,12444,0.069,-0.916,-0.279,-0.427,0.183,0.244,584.24
128863,150361,38140,0.069,-0.916,-0.279,-0.427,0.183,0.244,584.244
128863,150484,12451,0.07,-0.916,-0.279,-0.427,0,0.183,584.25
128891,150361,38140,0.07,-0.916,-0.279,-0.427,0,0.183,584.254
128891,150464,12436,0.073,-0.91,-0.276,-0.549,-0.122,0.183,584.26
128881,150361,38140,0.073,-0.91,-0.276,-0.549,-0.122,0.183,584.263
128881,150477,12450,0.074,-0.922,-0.283,-0.671,-0.122,0.305,584.27
128893,150361,38140,0.074,-0.922,-0.283,-0.671,-0.122,0.305,584.273
128893,150484,12438,0.07,-0.921,-0.284,-0.61,0,0.366,584.279
128882,150361,38140,0.07,-0.921,-0.284,-0.61,0,0.366,584.283
128882,150472,12457,0.07,-0.916,-0.287,-0.366,-0.122,0.549,584.289
128865,150361,38140,0.07,-0.916,-0.287,-0.366,-0.122,0.549,584.293
128865,150493,12437,0.068,-0.916,-0.289,-0.305,0.183,0.671,584.299
128853,150361,38140,0.068,-0.916,-0.289,-0.305,0.183,0.671,584.303
128853,150483,12438,0.067,-0.917,-0.278,-0.366,0.488,0.488,584.309
128896,150361,38140,0.067,-0.917,-0.278,-0.366,0.488,0.488,584.313
128896,150468,12443,0.072,-0.918,-0.277,-0.244,0.305,0.183,584.319
128879,150361,38140,0.072,-0.918,-0.277,-0.244,0.305,0.183,584.323
128879,150495,12457,0.069,-0.916,-0.278,-0.183,0.305,0.244,584.329
128865,150361,38140,0.069,-0.916,-0.278,-0.183,0.305,0.244,584.333
128865,150506,12457,0.065,-0.919,-0.276,-0.183,0.305,0.366,584.339
128889,150361,38140,0.065,-0.919,-0.276,-0.183,0.305,0.366,584.343
128889,150467,12451,0.066,-0.916,-0.279,-0.183,-0.122,0.305,584.349
128883,150361,38140,0.066,-0.916,-0.279,-0.183,-0.122,0.305,584.352
128883,150476,12445,0.068,-0.918,-0.281,-0.305,-0.488,0.183,584.359
128892,150361,38140,0.068,-0.918,-0.281,-0.305,-0.488,0.183,584.362
128892,150485,12450,0.071,-0.914,-0.287,-0.488,-0.366,0,584.369
128881,150361,38140,0.071,-0.914,-0.287,-0.488,-0.366,0,584.372
128881,150486,12446,0.076,-0.914,-0.283,-0.793,-0.244,0.061,584.378
128869,150361,38140,0.076,-0.914,-0.283,-0.793,-0.244,0.061,584.382
128869,150486,12449,0.077,-0.912,-0.279,-0.427,0.183,-0.061,584.388
128879,150361,38140,0.075,-0.916,-0.278,-0.427,0.183,-0.061,584.392
128879,150453,12439,0.072,-0.918,-0.28,-0.366,0.671,0.183,584.398
128860,150361,38140,0.069,-0.922,-0.285,-0.366,0.671,0.183,584.402
128860,150490,12442,0.068,-0.924,-0.281,-0.366,1.159,0.305,584.408
128868,150361,38140,0.067,-0.92,-0.276,-0.366,1.159,0.305,584.412
128868,150475,12440,0.07,-0.911,-0.281,-0.122,0.976,0.305,584.418
128870,150361,38140,0.073,-0.904,-0.277,-0.122,0.976,0.305,584.422
128870,150445,12433,0.074,-0.907,-0.278,-0.061,0.488,0.671,584.428
128867,150361,38140,0.073,-0.917,-0.286,-0.061,0.488,0.671,584.432
128867,150495,12442,0.068,-0.926,-0.284,-0.183,0.732,0.793,584.438
128870,150361,38140,0.065,-0.92,-0.28,-0.183,0.732,0.793,584.442
128870,150486,12439,0.068,-0.913,-0.283,-0.244,0.549,0.671,584.448
128860,150361,38140,0.072,-0.911,-0.279,-0.244,0.549,0.671,584.451
128860,150490,12441,0.075,-0.917,-0.274,-0.366,0,0.732,584.458
128876,150361,38140,0.07,-0.917,-0.286,-0.366,0,0.732,584.461
128876,150469,12448,0.067,-0.918,-0.289,-0.61,0.244,0.61,584.468
128853,150361,38140,0.066,-0.923,-0.283,-0.61,0.244,0.61,584.471
128853,150497,12449,0.065,-0.921,-0.288,-0.549,0.488,0.549,584.477
128837,150361,38140,0.068,-0.917,-0.285,-0.549,0.488,0.549,584.481
128837,150454,12440,0.069,-0.917,-0.281,-0.427,0.488,0.366,584.487
128858,150361,38140,0.067,-0.914,-0.278,-0.427,0.488,0.366,584.491
128858,150466,12453,0.066,-0.914,-0.282,-0.183,0.793,0.122,584.497
128867,150361,38140,0.068,-0.913,-0.281,-0.183,0.793,0.122,584.501
128867,150466,12456,0.07,-0.915,-0.28,0.061,0.854,0,584.507
128857,150361,38140,0.072,-0.912,-0.277,0.061,0.854,0,584.511
128857,150464,12464,0.071,-0.91,-0.275,0.122,0.671,0.061,584.517
128874,150361,38140,0.072,-0.911,-0.28,0.122,0.671,0.061,584.521
128874,150464,12438,0.072,-0.919,-0.283,-0.122,0.793,0.122,584.527
128860,150361,38140,0.071,-0.92,-0.284,-0.122,0.793,0.122,584.531
128860,150471,12456,0.068,-0.921,-0.278,0,0.671,0.244,584.537
128863,150361,38140,0.07,-0.916,-0.281,0,0.671,0.244,584.541
128863,150472,12432,0.072,-0.915,-0.28,0.122,0.183,0.366,584.547
128868,150361,38140,0.068,-0.917,-0.277,0.122,0.183,0.366,584.55
128868,150456,12456,0.067,-0.922,-0.28,-0.244,0.122,0.427,584.557
128867,150361,38140,0.068,-0.923,-0.285,-0.244,0.122,0.427,584.56
128867,150488,12441,0.069,-0.919,-0.289,-0.305,0.488,0.244,584.567
128853,150361,38140,0.069,-0.918,-0.285,-0.305,0.488,0.244,584.57
128853,150477,12456,0.067,-0.915,-0.282,-0.061,0.61,0.061,584.576
128875,150361,38140,0.068,-0.913,-0.281,-0.061,0.61,0.061,584.58
128875,150480,12449,0.07,-0.913,-0.283,0,0.61,0.061,584.586
128843,150361,38140,0.069,-0.917,-0.282,0,0.61,0.061,584.59
128843,150488,12454,0.069,-0.917,-0.279,-0.061,0.61,-0.122,584.596
128836,150361,38140,0.071,-0.913,-0.281,-0.061,0.61,-0.122,584.6
128836,150463,12446,0.068,-0.913,-0.281,0,0.427,-0.061,584.606
128823,150361,38140,0.069,-0.913,-0.271,0,0.427,-0.061,584.61
128823,150461,12447,0.071,-0.912,-0.268,-0.122,0.183,0,584.616
128836,150361,38140,0.07,-0.914,-0.272,-0.122,0.183,0,584.62
128836,150490,12451,0.07,-0.92,-0.279,-0.976,-0.122,0,584.626
128833,150361,38140,0.067,-0.924,-0.284,-0.976,-0.122,0,584.63
128833,150458,12440,0.067,-0.926,-0.286,-0.976,0.244,-0.122,584.636
128822,150361,38140,0.067,-0.924,-0.285,-0.976,0.244,-0.122,584.64
128822,150439,12446,0.069,-0.918,-0.288,-0.366,0.244,-0.183,584.646
128843,150361,38140,0.072,-0.91,-0.285,-0.366,0.244,-0.183,584.649
128843,150463,12437,0.076,-0.906,-0.288,-0.427,-0.061,-0.122,584.656
128825,150361,38140,0.076,-0.907,-0.288,-0.427,-0.061,-0.122,584.659
128825,150455,12443,0.076,-0.912,-0.283,-0.488,0.244,0,584.666
128817,150361,38140,0.077,-0.918,-0.28,-0.488,0.244,0,584.669
128817,150430,12445,0.08,-0.918,-0.285,-0.305,0.244,0.305,584.675
128825,150361,38140,0.078,-0.917,-0.28,-0.305,0.244,0.305,584.679
128825,150466,12461,0.073,-0.916,-0.272,0.122,0.061,0.61,584.685
128823,150361,38140,0.074,-0.917,-0.277,0.122,0.061,0.61,584.689
128823,150470,12452,0.071,-0.921,-0.282,0,0.061,0.854,584.695
128837,150361,38140,0.07,-0.921,-0.278,0,0.061,0.854,584.699
128837,150466,12448,0.069,-0.917,-0.284,-0.061,0.366,0.915,584.705
128841,150361,38140,0.068,-0.914,-0.286,-0.061,0.366,0.915,584.709
128841,150488,12457,0.071,-0.911,-0.284,-0.305,0.366,0.732,584.715
128846,150361,38140,0.068,-0.914,-0.284,-0.305,0.366,0.732,584.719
128846,150481,12450,0.068,-0.913,-0.287,-0.427,0.549,0.61,584.725
128821,150361,38140,0.069,-0.915,-0.281,-0.427,0.549,0.61,584.729
128821,150455,12445,0.071,-0.918,-0.278,-0.305,0.732,0.488,584.735
128834,150361,38140,0.073,-0.914,-0.278,-0.305,0.732,0.488,584.739
128834,150440,12427,0.07,-0.914,-0.275,-0.366,0.61,0.61,584.745
128814,150361,38140,0.066,-0.916,-0.275,-0.366,0.61,0.61,584.748
128814,150470,12439,0.068,-0.914,-0.274,-0.427,0.793,0.61,584.755
128813,150361,38140,0.07,-0.915,-0.274,-0.427,0.793,0.61,584.758
128813,150449,12451,0.072,-0.918,-0.268,-0.366,0.366,0.488,584.765
128818,150361,38140,0.073,-0.911,-0.272,-0.366,0.366,0.488,584.768
128818,150423,12475,0.072,-0.912,-0.278,-0.427,0.122,0.61,584.774
128815,150361,38140,0.071,-0.913,-0.284,-0.427,0.122,0.61,584.778
128815,150462,12434,0.072,-0.913,-0.287,-0.61,0.305,0.854,584.784
128806,150361,38140,0.068,-0.917,-0.283,-0.61,0.305,0.854,584.788
128806,150428,12445,0.072,-0.917,-0.283,-0.305,0.061,0.732,584.794
128810,150361,38140,0.075,-0.918,-0.281,-0.305,0.061,0.732,584.798
128810,150449,12462,0.075,-0.92,-0.283,-0.244,-0.244,0.793,584.804
128839,150361,38140,0.074,-0.925,-0.285,-0.244,-0.244,0.793,584.808
128839,150448,12446,0.071,-0.921,-0.29,-0.488,0.488,0.976,584.814
128811,150361,38140,0.071,-0.921,-0.29,-0.488,0.488,0.976,584.818
128811,150491,12458,0.066,-0.918,-0.287,-0.366,1.037,1.098,584.824
128817,150361,38140,0.066,-0.918,-0.287,-0.366,1.037,1.098,584.828
128817,150456,12448,0.071,-0.917,-0.281,-0.183,0.915,0.915,584.834
128817,150361,38140,0.071,-0.917,-0.281,-0.183,0.915,0.915,584.838
128817,150455,12452,0.064,-0.915,-0.287,-0.122,1.098,0.854,584.844
128817,150361,38140,0.064,-0.915,-0.287,-0.122,1.098,0.854,584.847
128817,150442,12457,0.065,-0.911,-0.275,-0.122,1.098,0.915,584.854
128829,150361,38140,0.065,-0.911,-0.275,-0.122,1.098,0.915,584.857
128829,150452,12433,0.072,-0.919,-0.273,-0.244,0.61,0.793,584.863
128820,150361,38140,0.072,-0.919,-0.273,-0.244,0.61,0.793,584.867
128820,150442,12456,0.068,-0.915,-0.276,-0.366,0.305,0.732,584.873
128838,150361,38140,0.068,-0.915,-0.276,-0.366,0.305,0.732,584.877
128838,150436,12439,0.067,-0.917,-0.267,-0.61,0,0.732,584.883
128809,150361,38140,0.067,-0.917,-0.267,-0.61,0,0.732,584.887
128809,150461,12450,0.07,-0.915,-0.278,-0.976,-0.366,0.671,584.893
128838,150361,38140,0.07,-0.915,-0.278,-0.976,-0.366,0.671,584.897
128838,150478,12437,0.069,-0.916,-0.282,-0.793,-0.488,0.61,584.903
128822,150361,38140,0.069,-0.916,-0.282,-0.793,-0.488,0.61,584.907
128822,150442,12432,0.068,-0.914,-0.285,-1.098,-0.427,0.732,584.913
128795,150361,38140,0.068,-0.914,-0.285,-1.098,-0.427,0.732,584.917
128795,150442,12454,0.067,-0.92,-0.29,-1.037,0,0.61,584.923
128816,150361,38140,0.067,-0.92,-0.29,-1.037,0,0.61,584.927
128816,150435,12446,0.067,-0.921,-0.292,-0.732,0.366,0.549,584.933
128809,150361,38140,0.067,-0.921,-0.292,-0.732,0.366,0.549,584.937
128809,150446,12452,0.067,-0.917,-0.292,-0.366,0.488,0.488,584.943
128828,150361,38140,0.067,-0.917,-0.292,-0.366,0.488,0.488,584.946
128828,150454,12456,0.067,-0.915,-0.283,0.183,0.61,0.244,584.953
128806,150361,38140,0.067,-0.915,-0.283,0.183,0.61,0.244,584.956
128806,150451,12452,0.069,-0.915,-0.28,0.183,0.61,0.244,584.962
128796,150361,38140,0.07,-0.913,-0.278,0.183,0.61,0.183,584.966
128796,150442,12448,0.067,-0.914,-0.281,0.183,0.61,0.183,584.972
128800,150361,38140,0.067,-0.915,-0.279,-0.305,0.793,0.244,584.976
128800,150434,12445,0.068,-0.918,-0.275,-0.305,0.793,0.244,584.982
128793,150361,38140,0.069,-0.918,-0.272,-0.549,0.244,0.061,584.986
128793,150455,12450,0.07,-0.913,-0.271,-0.549,0.244,0.061,584.992
128804,150361,38140,0.069,-0.909,-0.274,-0.671,-0.244,0.122,584.996
128804,150437,12449,0.068,-0.914,-0.273,-0.671,-0.244,0.122,585.002
128787,150361,38140,0.065,-0.916,-0.278,-1.037,-0.366,0.305,585.006
128787,150450,12447,0.069,-0.918,-0.28,-1.037,-0.366,0.305,585.012
128800,150361,38140,0.072,-0.918,-0.287,-1.28,-0.549,0.183,585.016
128800,150422,12474,0.071,-0.913,-0.29,-1.28,-0.549,0.183,585.022
128796,150361,38140,0.072,-0.911,-0.288,-1.159,-0.549,0.183,585.026
128796,150465,12455,0.073,-0.916,-0.284,-1.159,-0.549,0.183,585.032
128813,150361,38140,0.076,-0.918,-0.29,-0.915,-0.427,0.305,585.035
128813,150449,12446,0.073,-0.92,-0.288,-0.915,-0.427,0.305,585.042
128804,150361,38140,0.072,-0.919,-0.289,-0.671,0.061,0.366,585.045
128804,150448,12442,0.069,-0.916,-0.29,-0.671,0.061,0.366,585.052
128827,150361,38140,0.071,-0.919,-0.29,-0.488,0.366,0.366,585.055
128827,150443,12438,0.072,-0.919,-0.292,-0.488,0.366,0.366,585.061
128823,150361,38140,0.071,-0.918,-0.293,-0.244,0.732,0.427,585.065
128823,150460,12471,0.071,-0.916,-0.293,-0.244,0.732,0.427,585.071
128826,150361,38140,0.065,-0.911,-0.29,-0.183,1.159,0.61,585.075
128826,150466,12445,0.067,-0.91,-0.288,-0.183,1.159,0.61,585.081
128805,150361,38140,0.072,-0.916,-0.281,-0.305,1.098,0.793,585.085
128805,150465,12446,0.071,-0.919,-0.282,-0.305,1.098,0.793,585.091
128814,150361,38140,0.068,-0.918,-0.283,-0.061,1.341,0.793,585.095
128814,150480,12445,0.068,-0.92,-0.278,-0.061,1.341,0.793,585.101
128813,150361,38140,0.065,-0.916,-0.275,0.244,1.402,0.793,585.105
128813,150430,12451,0.068,-0.912,-0.276,0.244,1.402,0.793,585.111
128829,150361,38140,0.068,-0.914,-0.275,0.488,0.793,0.549,585.115
128829,150483,12454,0.069,-0.914,-0.278,0.488,0.793,0.549,585.121
128815,150361,38140,0.071,-0.914,-0.275,-0.061,0.305,0.61,585.125
128815,150485,12455,0.069,-0.913,-0.278,-0.061,0.305,0.61,585.131
128820,150361,38140,0.067,-0.913,-0.282,-0.549,0.183,0.732,585.134
128820,150461,12458,0.066,-0.916,-0.281,-0.549,0.183,0.732,585.141
128833,150361,38140,0.069,-0.913,-0.284,-0.61,-0.061,0.549,585.144
128833,150483,12437,0.073,-0.915,-0.28,-0.61,-0.061,0.549,585.151
128830,150361,38140,0.074,-0.919,-0.284,-0.732,-0.305,0.244,585.154
128830,150458,12452,0.072,-0.924,-0.29,-0.732,-0.305,0.244,585.16
128811,150361,38140,0.07,-0.919,-0.291,-0.854,0.061,0.183,585.164
128811,150482,12434,0.07,-0.919,-0.293,-0.854,0.061,0.183,585.17
128809,150361,38140,0.072,-0.917,-0.292,-0.488,0.61,0.427,585.174
128809,150455,12448,0.07,-0.92,-0.29,-0.488,0.61,0.427,585.18
128816,150361,38140,0.069,-0.918,-0.292,0.122,0.854,0.488,585.184
128816,150450,12441,0.068,-0.913,-0.291,0.122,0.854,0.488,585.19
128804,150361,38140,0.068,-0.908,-0.283,0.427,0.915,0.488,585.194
128804,150462,12448,0.068,-0.911,-0.277,0.427,0.915,0.488,585.2
128814,150361,38140,0.067,-0.914,-0.277,0.488,0.671,0.549,585.204
128814,150474,12445,0.067,-0.918,-0.28,0.488,0.671,0.549,585.21
128800,150361,38140,0.064,-0.919,-0.277,0.305,0.61,0.427,585.214
128800,150459,12461,0.063,-0.919,-0.279,0.305,0.61,0.427,585.22
128814,150361,38140,0.061,-0.922,-0.276,-0.061,0.671,0.427,585.224
128814,150490,12447,0.064,-0.92,-0.277,-0.061,0.671,0.427,585.23
128809,150361,38140,0.065,-0.917,-0.278,-0.366,0.122,0.244,585.233
128809,150453,12453,0.063,-0.917,-0.277,-0.366,0.122,0.244,585.24
128828,150361,38140,0.062,-0.912,-0.277,-0.671,-0.244,-0.061,585.243
128828,150485,12443,0.065,-0.909,-0.277,-0.671,-0.244,-0.061,585.25
128809,150361,38140,0.064,-0.91,-0.278,-0.915,-0.244,-0.061,585.253
128809,150463,12464,0.066,-0.913,-0.284,-0.915,-0.244,-0.061,585.259
128797,150361,38140,0.071,-0.914,-0.282,-0.915,-0.488,-0.305,585.263
128797,150491,12464,0.07,-0.916,-0.284,-0.915,-0.488,-0.305,585.269
128825,150361,38140,0.07,-0.915,-0.284,-0.793,-0.427,-0.244,585.273
128825,150469,12469,0.069,-0.912,-0.289,-0.793,-0.427,-0.244,585.279
128809,150361,38140,0.072,-0.911,-0.289,-0.61,-0.183,0,585.283
128809,150473,12468,0.068,-0.909,-0.284,-0.61,-0.183,0,585.289
128822,150361,38140,0.07,-0.915,-0.285,-0.427,-0.122,0.122,585.293
128822,150521,12455,0.073,-0.92,-0.286,-0.427,-0.122,0.122,585.299
128844,150361,38140,0.073,-0.918,-0.288,-0.732,-0.061,0.061,585.303
128844,150469,12456,0.073,-0.918,-0.29,-0.732,-0.061,0.061,585.309
128818,150361,38140,0.07,-0.922,-0.288,-0.854,0.244,0.122,585.313
128818,150467,12446,0.074,-0.924,-0.286,-0.854,0.244,0.122,585.319
128829,150361,38140,0.074,-0.923,-0.287,-0.549,0.427,0.183,585.323
128829,150480,12458,0.071,-0.911,-0.283,-0.549,0.427,0.183,585.329
128822,150361,38140,0.073,-0.909,-0.283,-0.305,0.244,0.183,585.332
128822,150494,12442,0.072,-0.913,-0.282,-0.305,0.244,0.183,585.339
128792,150361,38140,0.073,-0.915,-0.283,-0.244,0.061,0.305,585.342
128792,150475,12458,0.072,-0.918,-0.279,-0.244,0.061,0.305,585.349
128789,150361,38140,0.07,-0.916,-0.287,-0.366,0.366,0.488,585.352
128789,150483,12453,0.069,-0.913,-0.283,-0.366,0.366,0.488,585.358
128788,150361,38140,0.071,-0.91,-0.286,-0.366,0.305,0.854,585.362
128788,150481,12454,0.07,-0.908,-0.285,-0.366,0.305,0.854,585.368
128815,150361,38140,0.069,-0.916,-0.286,-0.427,0.183,0.915,585.372
128815,150450,12452,0.069,-0.921,-0.281,-0.427,0.183,0.915,585.378
128819,150361,38140,0.07,-0.918,-0.283,-0.427,0.366,0.915,585.382
128819,150485,12453,0.068,-0.918,-0.285,-0.427,0.366,0.915,585.388
128802,150361,38140,0.068,-0.918,-0.285,-0.427,0.366,0.915,585.392
128802,150474,12465,0.068,-0.911,-0.282,0.122,0.244,0.976,585.398
128823,150361,38140,0.068,-0.911,-0.282,0.122,0.244,0.976,585.402
128823,150484,12461,0.071,-0.915,-0.28,0.244,-0.061,1.037,585.408
128826,150361,38140,0.071,-0.915,-0.28,0.244,-0.061,1.037,585.412
128826,150460,12468,0.067,-0.924,-0.284,0.183,0.244,0.915,585.418
128826,150361,38140,0.067,-0.924,-0.284,0.183,0.244,0.915,585.422
128826,150498,12457,0.068,-0.918,-0.286,0.427,0.61,0.671,585.428
128821,150361,38140,0.068,-0.918,-0.286,0.427,0.61,0.671,585.431
128821,150469,12468,0.066,-0.916,-0.284,0.366,0.732,0.549,585.438
128811,150361,38140,0.066,-0.916,-0.284,0.366,0.732,0.549,585.441
128811,150497,12489,0.061,-0.911,-0.282,0.549,0.915,0.305,585.447
128807,150361,38140,0.061,-0.911,-0.282,0.549,0.915,0.305,585.451
128807,150453,12447,0.068,-0.916,-0.279,0.793,0.976,0.305,585.457
128807,150361,38140,0.068,-0.916,-0.279,0.793,0.976,0.305,585.461
128807,150483,12459,0.067,-0.914,-0.286,0.915,0.671,0.183,585.467
128807,150361,38140,0.067,-0.914,-0.286,0.915,0.671,0.183,585.471
128807,150438,12457,0.065,-0.919,-0.283,0.854,0.671,0.305,585.477
128772,150361,38140,0.065,-0.919,-0.283,0.854,0.671,0.305,585.481
128772,150452,12457,0.068,-0.914,-0.276,0.915,0.366,0.488,585.487
128781,150361,38140,0.068,-0.914,-0.276,0.915,0.366,0.488,585.491
128781,150446,12457,0.07,-0.907,-0.274,0.366,0.061,0.427,585.497
128775,150361,38140,0.07,-0.907,-0.274,0.366,0.061,0.427,585.501
128775,150457,12444,0.07,-0.909,-0.286,-0.427,0.183,0.488,585.507
128763,150361,38140,0.07,-0.909,-0.286,-0.427,0.183,0.488,585.511
128763,150476,12454,0.068,-0.924,-0.281,-1.28,0.305,0.549,585.517
128783,150361,38140,0.068,-0.924,-0.281,-1.28,0.305,0.549,585.52
128783,150455,12455,0.068,-0.922,-0.282,-0.854,0.122,0.366,585.527
128798,150361,38140,0.068,-0.922,-0.282,-0.854,0.122,0.366,585.53
128798,150461,12443,0.067,-0.919,-0.279,-0.61,-0.061,0.427,585.537
128794,150361,38140,0.065,-0.916,-0.282,-0.61,-0.061,0.427,585.54
128794,150467,12454,0.066,-0.923,-0.287,-0.61,0.061,0.244,585.546
128795,150361,38140,0.066,-0.923,-0.285,-0.61,0.061,0.244,585.55
128795,150476,12436,0.065,-0.917,-0.289,-0.488,0.183,0.061,585.556
128792,150361,38140,0.067,-0.909,-0.283,-0.488,0.183,0.061,585.56
128792,150487,12458,0.07,-0.907,-0.281,-0.183,-0.244,0.061,585.566
128801,150361,38140,0.071,-0.912,-0.285,-0.183,-0.244,0.061,585.57
128801,150450,12452,0.066,-0.918,-0.281,-0.61,-0.122,0.183,585.576
128787,150361,38140,0.065,-0.921,-0.284,-0.61,-0.122,0.183,585.58
128787,150463,12460,0.068,-0.922,-0.286,-0.976,0.122,0.122,585.586
128800,150361,38140,0.068,-0.919,-0.286,-0.976,0.122,0.122,585.59
128800,150469,12454,0.07,-0.919,-0.286,-0.915,0.183,0,585.596
128787,150361,38140,0.071,-0.918,-0.283,-0.915,0.183,0,585.6
128787,150458,12471,0.066,-0.916,-0.281,-0.488,0.305,0.061,585.606
128800,150361,38140,0.064,-0.91,-0.282,-0.488,0.305,0.061,585.61
128800,150466,12468,0.063,-0.911,-0.283,-0.427,0.305,0.122,585.616
128794,150361,38140,0.066,-0.918,-0.287,-0.427,0.305,0.122,585.619
128794,150461,12468,0.068,-0.924,-0.285,-0.488,0.183,-0.183,585.626
128793,150361,38140,0.066,-0.925,-0.287,-0.488,0.183,-0.183,585.629
128793,150488,12468,0.069,-0.918,-0.287,-0.366,0.061,-0.366,585.635
128810,150361,38140,0.071,-0.909,-0.281,-0.366,0.061,-0.366,585.639
128810,150458,12461,0.074,-0.907,-0.278,-0.244,-0.244,-0.183,585.645
128805,150361,38140,0.074,-0.915,-0.278,-0.244,-0.244,-0.183,585.649
128805,150468,12444,0.073,-0.917,-0.28,-0.305,0,-0.183,585.655
128794,150361,38140,0.071,-0.918,-0.282,-0.305,0,-0.183,585.659
128794,150489,12454,0.071,-0.92,-0.285,-0.488,0.427,-0.183,585.665
128800,150361,38140,0.071,-0.919,-0.287,-0.488,0.427,-0.183,585.669
128800,150479,12458,0.074,-0.917,-0.291,-0.671,0.244,0,585.675
128785,150361,38140,0.071,-0.914,-0.29,-0.671,0.244,0,585.679
128785,150443,12470,0.067,-0.914,-0.292,-0.427,0.427,0.183,585.685
128771,150361,38140,0.07,-0.915,-0.295,-0.427,0.427,0.183,585.689
128771,150463,12455,0.072,-0.914,-0.291,-0.305,0.671,0.488,585.695
128778,150361,38140,0.069,-0.91,-0.291,-0.305,0.671,0.488,585.699
128778,150443,12449,0.072,-0.913,-0.289,-0.122,0.854,0.549,585.705
128754,150361,38140,0.069,-0.913,-0.285,-0.122,0.854,0.549,585.709
128754,150434,12459,0.071,-0.919,-0.286,0.244,1.037,0.549,585.715
128750,150361,38140,0.069,-0.92,-0.285,0.244,1.037,0.549,585.718
128750,150456,12453,0.068,-0.917,-0.28,0.305,0.793,0.488,585.725
128742,150361,38140,0.072,-0.917,-0.279,0.305,0.793,0.488,585.728
128742,150436,12464,0.073,-0.913,-0.276,0.549,0.549,0.61,585.734
128749,150361,38140,0.074,-0.914,-0.279,0.549,0.549,0.61,585.738
128749,150450,12456,0.067,-0.918,-0.28,0.549,0.61,0.793,585.744
128750,150361,38140,0.065,-0.916,-0.281,0.549,0.61,0.793,585.748
128750,150455,12456,0.067,-0.916,-0.283,0.183,0.793,0.671,585.754
128733,150361,38140,0.067,-0.912,-0.279,0.183,0.793,0.671,585.758
128733,150432,12449,0.072,-0.915,-0.279,0.244,0.488,0.61,585.764
128742,150361,38140,0.07,-0.918,-0.283,0.244,0.488,0.61,585.768
128742,150417,12449,0.066,-0.916,-0.284,0.122,0.549,0.427,585.774
128725,150361,38140,0.066,-0.917,-0.286,0.122,0.549,0.427,585.778
128725,150456,12454,0.066,-0.917,-0.287,0.183,0.549,0.366,585.784
128738,150361,38140,0.072,-0.916,-0.285,0.183,0.549,0.366,585.788
128738,150446,12432,0.069,-0.916,-0.289,0.183,0.61,0.305,585.794
128729,150361,38140,0.067,-0.914,-0.288,0.183,0.61,0.305,585.798
128729,150440,12478,0.066,-0.912,-0.289,0.427,0.915,0.366,585.804
128727,150361,38140,0.068,-0.914,-0.285,0.427,0.915,0.366,585.808
128727,150442,12460,0.067,-0.914,-0.285,0.427,0.854,0.488,585.814
128736,150361,38140,0.069,-0.917,-0.286,0.427,0.854,0.488,585.817
128736,150445,12487,0.07,-0.922,-0.276,0.427,0.854,0.427,585.824
128745,150361,38140,0.065,-0.917,-0.276,0.427,0.854,0.427,585.827
128745,150438,12456,0.063,-0.916,-0.275,0.366,0.915,0.549,585.834
128744,150361,38140,0.067,-0.919,-0.265,0.366,0.915,0.549,585.837
128744,150436,12458,0.068,-0.918,-0.269,0.122,0.549,0.793,585.843
128729,150361,38140,0.063,-0.915,-0.276,0.122,0.549,0.793,585.847
128729,150455,12465,0.065,-0.914,-0.28,-0.183,0.366,0.549,585.853
128749,150361,38140,0.064,-0.917,-0.287,-0.183,0.366,0.549,585.857
128749,150459,12444,0.065,-0.92,-0.281,-0.366,0.183,0.244,585.863
128731,150361,38140,0.064,-0.916,-0.281,-0.366,0.183,0.244,585.867
128731,150450,12467,0.066,-0.913,-0.288,-0.061,-0.122,0.061,585.873
128762,150361,38140,0.067,-0.911,-0.284,-0.061,-0.122,0.061,585.877
128762,150457,12460,0.066,-0.914,-0.286,0,-0.183,0.061,585.883
128727,150361,38140,0.069,-0.914,-0.283,0,-0.183,0.061,585.887
128727,150441,12469,0.067,-0.92,-0.282,0.122,-0.183,-0.061,585.893
128755,150361,38140,0.069,-0.922,-0.287,0.122,-0.183,-0.061,585.897
128755,150467,12477,0.07,-0.921,-0.286,0.061,0.183,-0.366,585.903
128766,150361,38140,0.065,-0.92,-0.285,0.061,0.183,-0.366,585.907
128766,150449,12463,0.066,-0.918,-0.287,0.122,0.671,-0.61,585.913
128745,150361,38140,0.07,-0.914,-0.286,0.122,0.671,-0.61,585.916
128745,150457,12475,0.071,-0.911,-0.278,0,0.793,-0.732,585.923
128765,150361,38140,0.071,-0.91,-0.274,0,0.793,-0.732,585.926
128765,150446,12460,0.073,-0.907,-0.276,-0.061,0.793,-0.488,585.932
128746,150361,38140,0.075,-0.908,-0.276,-0.061,0.793,-0.488,585.936
128746,150478,12457,0.074,-0.913,-0.274,-0.305,0.671,-0.122,585.942
128765,150361,38140,0.074,-0.916,-0.273,-0.305,0.671,-0.122,585.946
128765,150473,12474,0.073,-0.916,-0.279,-0.427,0.427,0.122,585.952
128775,150361,38140,0.071,-0.917,-0.275,-0.427,0.427,0.122,585.956
128775,150479,12460,0.072,-0.917,-0.277,-0.305,0.061,0.488,585.962
128764,150361,38140,0.072,-0.917,-0.277,-0.305,0.061,0.488,585.966
128764,150478,12476,0.071,-0.912,-0.284,-0.244,-0.122,0.549,585.972
128790,150361,38140,0.071,-0.912,-0.284,-0.244,-0.122,0.549,585.976
128790,150454,12475,0.073,-0.916,-0.288,-0.061,-0.244,0.549,585.982
128764,150361,38140,0.073,-0.916,-0.288,-0.061,-0.244,0.549,585.986
128764,150490,12468,0.073,-0.922,-0.293,-0.366,0,0.488,585.992
128751,150361,38140,0.073,-0.922,-0.293,-0.366,0,0.488,585.996
128751,150480,12462,0.071,-0.923,-0.289,-0.244,0.549,0.305,586.002
128771,150361,38140,0.071,-0.923,-0.289,-0.244,0.549,0.305,586.005
128771,150491,12479,0.073,-0.91,-0.278,0,0.854,0.305,586.012
128789,150361,38140,0.073,-0.91,-0.278,0,0.854,0.305,586.015
128789,150472,12460,0.072,-0.92,-0.284,0,0.915,0.366,586.022
128786,150361,38140,0.072,-0.92,-0.284,0,0.915,0.366,586.025
128786,150496,12476,0.068,-0.917,-0.281,0.305,1.159,0.305,586.031
128809,150361,38140,0.068,-0.917,-0.281,0.305,1.159,0.305,586.035
128809,150486,12476,0.07,-0.91,-0.278,0.549,0.976,0.427,586.041
128793,150361,38140,0.07,-0.91,-0.278,0.549,0.976,0.427,586.045
128793,150473,12477,0.066,-0.915,-0.28,0.305,0.793,0.427,586.051
128784,150361,38140,0.066,-0.915,-0.28,0.305,0.793,0.427,586.055
128784,150483,12486,0.07,-0.915,-0.275,0.244,0.732,0.366,586.061
128797,150361,38140,0.07,-0.915,-0.275,0.244,0.732,0.366,586.065
128797,150483,12455,0.072,-0.91,-0.275,0.183,0.366,0.366,586.071
128803,150361,38140,0.072,-0.91,-0.275,0.183,0.366,0.366,586.075
128803,150480,12479,0.072,-0.918,-0.283,-0.549,0.305,0.488,586.081
128803,150361,38140,0.072,-0.918,-0.283,-0.549,0.305,0.488,586.085
128803,150474,12483,0.067,-0.923,-0.284,-0.61,0.244,0.61,586.091
128808,150361,38140,0.067,-0.923,-0.284,-0.61,0.244,0.61,586.095
128808,150497,12462,0.075,-0.918,-0.283,-0.305,0,0.732,586.101
128825,150361,38140,0.075,-0.918,-0.283,-0.305,0,0.732,586.104
128825,150500,12479,0.075,-0.916,-0.279,-0.305,0,0.732,586.111
128812,150361,38140,0.07,-0.912,-0.286,-0.305,0.244,0.793,586.114
128812,150506,12490,0.067,-0.913,-0.285,-0.305,0.244,0.793,586.121
128817,150361,38140,0.068,-0.917,-0.282,-0.61,0.549,0.854,586.124
128817,150515,12470,0.068,-0.919,-0.282,-0.61,0.549,0.854,586.13
128823,150361,38140,0.068,-0.917,-0.286,-0.427,0.549,0.854,586.134
128823,150506,12488,0.069,-0.918,-0.287,-0.427,0.549,0.854,586.14
128839,150361,38140,0.069,-0.917,-0.282,-0.122,0.793,0.793,586.144
128839,150527,12480,0.065,-0.917,-0.281,-0.122,0.793,0.793,586.15
128858,150617,38140,0.064,-0.916,-0.281,-0.122,0.915,0.61,586.154
128858,150528,12490,0.067,-0.914,-0.278,-0.122,0.915,0.61,586.16
128820,150361,38140,0.066,-0.909,-0.278,-0.061,0.488,0.305,586.164
128820,150516,12476,0.068,-0.918,-0.276,-0.061,0.488,0.305,586.17
128817,150361,38140,0.067,-0.925,-0.272,-0.427,0.366,0.183,586.174
128817,150503,12487,0.065,-0.921,-0.28,-0.427,0.366,0.183,586.18
128829,150361,38140,0.067,-0.919,-0.279,-0.488,0.427,0.122,586.184
128829,150526,12484,0.069,-0.915,-0.275,-0.488,0.427,0.122,586.19
128831,150361,38140,0.07,-0.916,-0.276,-0.366,0,0.122,586.194
128831,150517,12477,0.073,-0.918,-0.28,-0.366,0,0.122,586.2
128824,150361,38140,0.068,-0.919,-0.284,-0.488,0,0.183,586.203
128824,150518,12467,0.064,-0.917,-0.282,-0.488,0,0.183,586.21
128844,150617,38140,0.068,-0.912,-0.282,-0.427,0.061,0.427,586.213
128844,150534,12494,0.071,-0.91,-0.287,-0.427,0.061,0.427,586.22
128844,150617,38140,0.07,-0.914,-0.292,-0.61,-0.061,0.488,586.223
128844,150549,12495,0.068,-0.913,-0.288,-0.61,-0.061,0.488,586.229
128879,150361,38140,0.065,-0.917,-0.284,-0.61,0.183,0.366,586.233
128879,150525,12487,0.067,-0.922,-0.286,-0.61,0.183,0.366,586.239
128856,150617,38140,0.07,-0.916,-0.287,-0.549,0.305,0.305,586.243
128856,150555,12494,0.07,-0.915,-0.29,-0.549,0.305,0.305,586.249
128867,150617,38140,0.069,-0.915,-0.287,-0.305,0.244,0.122,586.253
128867,150552,12490,0.071,-0.91,-0.284,-0.305,0.244,0.122,586.259
128859,150617,38140,0.076,-0.914,-0.285,0.122,0.122,0.183,586.263
128859,150532,12489,0.074,-0.923,-0.281,0.122,0.122,0.183,586.269
128858,150361,38140,0.073,-0.925,-0.282,0.061,0.549,0.061,586.273
128858,150521,12493,0.073,-0.92,-0.283,0.061,0.549,0.061,586.279
128846,150617,38140,0.068,-0.915,-0.281,0.183,0.976,0,586.283
128846,150548,12490,0.068,-0.915,-0.281,0.183,0.976,0,586.289
128871,150617,38140,0.069,-0.912,-0.281,0.122,0.915,0.183,586.293
128871,150529,12484,0.068,-0.915,-0.279,0.122,0.915,0.183,586.299
128848,150361,38140,0.067,-0.91,-0.277,-0.183,0.915,0.366,586.302
128848,150518,12500,0.067,-0.909,-0.275,-0.183,0.915,0.366,586.309
128852,150617,38140,0.067,-0.907,-0.273,-0.427,0.732,0.488,586.312
128852,150545,12502,0.07,-0.912,-0.278,-0.427,0.732,0.488,586.319
128864,150361,38140,0.067,-0.918,-0.279,-0.488,0.427,0.61,586.322
128864,150527,12499,0.065,-0.916,-0.282,-0.488,0.427,0.61,586.328
128837,150617,38140,0.065,-0.916,-0.286,-0.549,0.427,0.61,586.332
128837,150541,12496,0.069,-0.914,-0.28,-0.549,0.427,0.61,586.338
128875,150617,38140,0.068,-0.914,-0.283,-0.427,0.122,0.671,586.342
128875,150569,12485,0.066,-0.916,-0.289,-0.427,0.122,0.671,586.348
128843,150361,38140,0.068,-0.917,-0.283,-0.488,0.183,0.488,586.352
128843,150527,12495,0.072,-0.916,-0.284,-0.488,0.183,0.488,586.358
128857,150617,38140,0.072,-0.918,-0.288,-0.488,0.305,0.244,586.362
128857,150539,12496,0.07,-0.921,-0.286,-0.488,0.305,0.244,586.368
128874,150617,38140,0.071,-0.922,-0.287,-0.366,0.61,0.244,586.372
128874,150543,12486,0.07,-0.922,-0.29,-0.366,0.61,0.244,586.378
128857,150617,38140,0.072,-0.917,-0.285,-0.183,0.854,0.061,586.382
128857,150565,12494,0.072,-0.917,-0.281,-0.183,0.854,0.061,586.388
128867,150617,38140,0.069,-0.916,-0.279,0.061,0.671,-0.122,586.392
128867,150535,12497,0.071,-0.915,-0.28,0.061,0.671,-0.122,586.398
128862,150617,38140,0.077,-0.912,-0.283,-0.061,0.671,-0.183,586.401
128862,150538,12498,0.07,-0.914,-0.287,-0.061,0.671,-0.183,586.408
128847,150617,38140,0.071,-0.918,-0.284,0.061,0.671,0,586.411
128847,150581,12489,0.071,-0.919,-0.28,0.061,0.671,0,586.418
128851,150361,38140,0.071,-0.914,-0.281,0.244,0.549,0.305,586.421
128851,150524,12490,0.071,-0.908,-0.281,0.244,0.549,0.305,586.427
128873,150617,38140,0.07,-0.908,-0.281,-0.183,0.427,0.61,586.431
128873,150541,12500,0.07,-0.914,-0.28,-0.183,0.427,0.61,586.437
128862,150617,38140,0.066,-0.922,-0.292,-0.488,0.427,0.793,586.441
128862,150551,12495,0.063,-0.922,-0.287,-0.488,0.427,0.793,586.447
128870,150617,38140,0.064,-0.92,-0.281,-0.305,0.427,0.549,586.451
128870,150563,12503,0.069,-0.917,-0.287,-0.305,0.427,0.549,586.457
128857,150617,38140,0.069,-0.916,-0.284,0,0,0.427,586.461
128857,150544,12497,0.068,-0.92,-0.282,0,0,0.427,586.467
128865,150617,38140,0.068,-0.918,-0.284,0.122,0,0.305,586.471
128865,150549,12496,0.067,-0.916,-0.284,0.122,0,0.305,586.477
128875,150617,38140,0.063,-0.917,-0.279,0.122,0.244,0.305,586.481
128875,150567,12508,0.066,-0.917,-0.281,0.122,0.244,0.305,586.487
128888,150617,38140,0.066,-0.921,-0.285,-0.122,0.244,0.122,586.491
128888,150556,12491,0.067,-0.918,-0.284,-0.122,0.244,0.122,586.497
128884,150617,38140,0.067,-0.914,-0.289,-0.122,0.305,-0.122,586.5
128884,150580,12502,0.068,-0.914,-0.288,-0.122,0.305,-0.122,586.507
128882,150617,38140,0.071,-0.911,-0.286,-0.183,0.305,0,586.51
128882,150568,12514,0.073,-0.91,-0.29,-0.183,0.305,0,586.516
128895,150617,38140,0.074,-0.915,-0.286,0.122,0.244,0,586.52
128895,150592,12509,0.072,-0.916,-0.283,0.122,0.244,0,586.526
128879,150617,38140,0.067,-0.912,-0.28,0.61,0.366,0.183,586.53
128879,150567,12494,0.07,-0.909,-0.278,0.61,0.366,0.183,586.536
128882,150617,38140,0.071,-0.909,-0.281,0.366,0.183,0.427,586.54
128882,150556,12502,0.069,-0.913,-0.276,0.366,0.183,0.427,586.546
128882,150617,38140,0.069,-0.913,-0.276,0.366,0.183,0.427,586.55
128882,150592,12518,0.074,-0.918,-0.277,-0.061,-0.122,0.305,586.556
128866,150617,38140,0.074,-0.918,-0.277,-0.061,-0.122,0.305,586.56
128866,150562,12508,0.072,-0.922,-0.279,-0.061,-0.183,0.244,586.566
128889,150617,38140,0.072,-0.922,-0.279,-0.061,-0.183,0.244,586.57
128889,150572,12509,0.067,-0.918,-0.288,-0.244,0.061,0.488,586.576
128910,150617,38140,0.067,-0.918,-0.288,-0.244,0.061,0.488,586.58
128910,150578,12516,0.067,-0.919,-0.291,-0.183,0.549,0.305,586.586
128890,150617,38140,0.067,-0.919,-0.291,-0.183,0.549,0.305,586.589
128890,150598,12526,0.071,-0.915,-0.294,0.122,0.549,0.061,586.596
128920,150617,38140,0.071,-0.915,-0.294,0.122,0.549,0.061,586.599
128920,150591,12514,0.066,-0.915,-0.281,0.427,0.854,0.061,586.606
128914,150617,38140,0.066,-0.915,-0.281,0.427,0.854,0.061,586.609
128914,150590,12530,0.07,-0.909,-0.276,0.671,1.098,0.244,586.615
128916,150617,38140,0.07,-0.909,-0.276,0.671,1.098,0.244,586.619
128916,150589,12495,0.073,-0.911,-0.272,0.488,0.793,0.427,586.625
128911,150617,38140,0.073,-0.911,-0.272,0.488,0.793,0.427,586.629
128911,150579,12501,0.07,-0.915,-0.273,0.244,0.671,0.488,586.635
128892,150617,38140,0.07,-0.915,-0.273,0.244,0.671,0.488,586.639
128892,150588,12524,0.072,-0.912,-0.27,-0.061,0.366,0.61,586.645
128911,150617,38140,0.072,-0.912,-0.27,-0.061,0.366,0.61,586.649
128911,150552,12511,0.072,-0.918,-0.28,-0.183,-0.183,0.61,586.655
128903,150617,38140,0.072,-0.918,-0.28,-0.183,-0.183,0.61,586.659
128903,150576,12517,0.068,-0.923,-0.283,-0.549,-0.122,0.549,586.665
128891,150617,38140,0.068,-0.923,-0.283,-0.549,-0.122,0.549,586.669
128891,150588,12526,0.067,-0.92,-0.286,-0.793,0.366,0.549,586.675
128906,150617,38140,0.067,-0.92,-0.286,-0.793,0.366,0.549,586.679
128906,150568,12506,0.071,-0.921,-0.284,-0.488,0.305,0.427,586.685
128901,150617,38140,0.071,-0.915,-0.293,-0.488,0.305,0.427,586.688
128901,150577,12514,0.07,-0.91,-0.291,0.122,0.61,0.366,586.695
128906,150617,38140,0.068,-0.913,-0.286,0.122,0.61,0.366,586.698
128906,150578,12524,0.068,-0.91,-0.282,0.549,0.976,0.366,586.705
128905,150617,38140,0.071,-0.912,-0.28,0.549,0.976,0.366,586.708
128905,150587,12528,0.071,-0.915,-0.282,0.488,0.854,0.366,586.714
128938,150617,38140,0.071,-0.915,-0.283,0.488,0.854,0.366,586.718
128938,150591,12501,0.068,-0.916,-0.279,0.549,0.976,0.549,586.724
128911,150617,38140,0.068,-0.919,-0.275,0.549,0.976,0.549,586.728
128911,150576,12496,0.068,-0.919,-0.274,0.61,0.671,0.793,586.734
128922,150617,38140,0.066,-0.916,-0.278,0.61,0.671,0.793,586.738
128922,150568,12522,0.068,-0.917,-0.276,0.244,0.366,0.671,586.744
128926,150617,38140,0.069,-0.92,-0.276,0.244,0.366,0.671,586.748
128926,150556,12513,0.07,-0.922,-0.282,-0.244,0.488,0.427,586.754
128874,150617,38140,0.066,-0.921,-0.284,-0.244,0.488,0.427,586.758
128874,150582,12505,0.066,-0.922,-0.28,-0.244,0.732,0.366,586.764
128886,150617,38140,0.068,-0.921,-0.277,-0.244,0.732,0.366,586.768
128886,150565,12513,0.068,-0.918,-0.277,0.061,0.366,0.183,586.774
128875,150617,38140,0.068,-0.911,-0.273,0.061,0.366,0.183,586.778
128875,150550,12495,0.069,-0.911,-0.279,0,0.244,0,586.784
128910,150617,38140,0.068,-0.912,-0.27,0,0.244,0,586.787
128910,150578,12517,0.068,-0.91,-0.269,-0.183,0.183,0,586.794
128921,150617,38140,0.071,-0.909,-0.275,-0.183,0.183,0,586.797
128921,150584,12514,0.075,-0.916,-0.274,-0.488,0,0.183,586.804
128912,150617,38140,0.071,-0.917,-0.279,-0.488,0,0.183,586.807
128912,150610,12513,0.067,-0.918,-0.28,-0.61,0.122,0.427,586.813
128916,150617,38140,0.067,-0.92,-0.284,-0.61,0.122,0.427,586.817
128916,150576,12512,0.07,-0.916,-0.284,-0.427,0,0.427,586.823
128890,150617,38140,0.073,-0.913,-0.284,-0.427,0,0.427,586.827
128890,150587,12514,0.072,-0.915,-0.286,-0.305,-0.427,0.488,586.833
128879,150617,38140,0.068,-0.919,-0.282,-0.305,-0.427,0.488,586.837
128879,150554,12525,0.071,-0.921,-0.28,-0.183,-0.305,0.366,586.843
128859,150617,38140,0.073,-0.923,-0.285,-0.183,-0.305,0.366,586.847
128859,150555,12506,0.072,-0.925,-0.289,-0.61,0.122,0.305,586.853
128858,150617,38140,0.067,-0.923,-0.288,-0.61,0.122,0.305,586.857
128858,150536,12517,0.067,-0.921,-0.287,-0.61,0.549,0.122,586.863
128870,150617,38140,0.07,-0.919,-0.286,-0.61,0.549,0.122,586.867
128870,150545,12507,0.068,-0.915,-0.282,0,0.61,0,586.873
128868,150617,38140,0.067,-0.91,-0.278,0,0.61,0,586.877
128868,150568,12498,0.066,-0.905,-0.275,0.366,0.488,0,586.883
128888,150617,38140,0.07,-0.907,-0.278,0.366,0.488,0,586.886
128888,150543,12509,0.069,-0.912,-0.276,0,0.427,0.061,586.893
128871,150617,38140,0.068,-0.918,-0.278,0,0.427,0.061,586.896
128871,150590,12504,0.067,-0.922,-0.279,-0.427,0.122,0.061,586.903
128902,150617,38140,0.069,-0.921,-0.284,-0.427,0.122,0.061,586.906
128902,150569,12501,0.072,-0.918,-0.281,-0.732,0.122,0.061,586.912
128878,150617,38140,0.076,-0.914,-0.278,-0.732,0.122,0.061,586.916
128878,150580,12517,0.077,-0.914,-0.279,-0.244,0,-0.061,586.922
128871,150617,38140,0.077,-0.915,-0.282,-0.244,0,-0.061,586.926
128871,150552,12513,0.072,-0.914,-0.286,-0.122,0.244,0.244,586.932
128865,150617,38140,0.069,-0.913,-0.286,-0.122,0.244,0.244,586.936
128865,150555,12483,0.069,-0.916,-0.288,-0.305,0.427,0.549,586.942
128870,150617,38140,0.071,-0.915,-0.288,-0.305,0.427,0.549,586.946
128870,150541,12495,0.072,-0.917,-0.282,-0.122,0.488,0.61,586.952
128861,150617,38140,0.072,-0.916,-0.282,-0.122,0.488,0.61,586.956
128861,150532,12513,0.07,-0.916,-0.284,0.183,0.549,0.976,586.962
128859,150617,38140,0.07,-0.919,-0.286,0.183,0.549,0.976,586.966
128859,150560,12513,0.067,-0.92,-0.285,0.671,0.976,1.159,586.972
128863,150617,38140,0.065,-0.917,-0.282,0.671,0.976,1.159,586.976
128863,150554,12504,0.063,-0.916,-0.278,0.854,1.037,0.854,586.982
128868,150617,38140,0.064,-0.916,-0.277,0.854,1.037,0.854,586.985
128868,150534,12512,0.073,-0.915,-0.277,0.732,0.549,0.549,586.992
128849,150617,38140,0.07,-0.918,-0.277,0.732,0.549,0.549,586.995
128849,150541,12510,0.067,-0.916,-0.283,0.427,0.732,0.366,587.002
128854,150617,38140,0.066,-0.916,-0.279,0.427,0.732,0.366,587.005
128854,150549,12503,0.069,-0.917,-0.278,0.122,0.793,0.427,587.011
128852,150617,38140,0.067,-0.919,-0.278,0.122,0.793,0.427,587.015
128852,150557,12517,0.066,-0.917,-0.278,-0.183,0.732,0.244,587.021
128844,150617,38140,0.065,-0.917,-0.282,-0.183,0.732,0.244,587.025
128844,150540,12515,0.067,-0.92,-0.284,-0.366,0.854,-0.061,587.031
128846,150617,38140,0.067,-0.915,-0.286,-0.366,0.854,-0.061,587.035
128846,150559,12503,0.069,-0.911,-0.282,-0.305,0.488,-0.061,587.041
128857,150617,38140,0.071,-0.914,-0.276,-0.305,0.488,-0.061,587.045
128857,150550,12493,0.069,-0.918,-0.278,-0.061,0.244,0,587.051
128837,150617,38140,0.069,-0.917,-0.281,-0.061,0.244,0,587.055
128837,150544,12509,0.068,-0.919,-0.285,0,0.427,0.122,587.061
128848,150617,38140,0.066,-0.921,-0.286,0,0.427,0.122,587.065
128848,150556,12514,0.069,-0.918,-0.279,0.366,0.427,0.244,587.071
128841,150361,38140,0.069,-0.912,-0.281,0.366,0.427,0.244,587.075
128841,150526,12509,0.07,-0.912,-0.281,0.549,0.183,0.305,587.081
128836,150617,38140,0.072,-0.913,-0.279,0.549,0.183,0.305,587.084
128836,150546,12508,0.073,-0.917,-0.284,0.427,0.183,0.427,587.091
128843,150617,38140,0.07,-0.92,-0.286,0.427,0.183,0.427,587.094
128843,150542,12509,0.068,-0.922,-0.287,0.366,0.427,0.549,587.1
128822,150617,38140,0.069,-0.92,-0.277,0.366,0.427,0.549,587.104
128822,150538,12511,0.072,-0.916,-0.273,0.427,0.122,0.549,587.11
128840,150617,38140,0.073,-0.911,-0.274,0.427,0.122,0.549,587.114
128840,150545,12495,0.068,-0.911,-0.285,-0.122,0.244,0.671,587.12
128809,150617,38140,0.068,-0.911,-0.285,-0.122,0.244,0.671,587.124
128809,150541,12509,0.064,-0.921,-0.28,-0.305,0.549,0.61,587.13
128814,150361,38140,0.064,-0.921,-0.28,-0.305,0.549,0.61,587.134
128814,150513,12497,0.068,-0.921,-0.286,0,0.549,0.244,587.14
128816,150617,38140,0.068,-0.921,-0.286,0,0.549,0.244,587.144
128816,150540,12495,0.067,-0.914,-0.285,0.549,0.427,0.061,587.15
128828,150361,38140,0.067,-0.914,-0.285,0.549,0.427,0.061,587.154
128828,150519,12494,0.069,-0.919,-0.286,0.915,0.793,0.061,587.16
128816,150361,38140,0.069,-0.919,-0.286,0.915,0.793,0.061,587.164
128816,150515,12508,0.07,-0.916,-0.278,1.037,0.915,-0.061,587.17
128804,150617,38140,0.07,-0.916,-0.278,1.037,0.915,-0.061,587.173
128804,150546,12500,0.07,-0.911,-0.27,0.793,0.549,-0.061,587.18
128832,150617,38140,0.07,-0.911,-0.27,0.793,0.549,-0.061,587.183
128832,150540,12521,0.073,-0.909,-0.271,-0.305,0.427,0.122,587.19
128819,150361,38140,0.073,-0.909,-0.271,-0.305,0.427,0.122,587.193
128819,150526,12482,0.073,-0.917,-0.275,-0.976,0.305,0.183,587.199
128817,150617,38140,0.073,-0.917,-0.275,-0.976,0.305,0.183,587.203
128817,150531,12516,0.074,-0.916,-0.276,-0.488,-0.244,0.549,587.209
128813,150617,38140,0.074,-0.916,-0.276,-0.488,-0.244,0.549,587.213
128813,150550,12491,0.072,-0.918,-0.282,-0.244,-0.366,0.793,587.219
128808,150617,38140,0.072,-0.918,-0.282,-0.244,-0.366,0.793,587.223
128808,150537,12497,0.069,-0.922,-0.284,-0.244,0,0.793,587.229
128785,150617,38140,0.069,-0.922,-0.284,-0.244,0,0.793,587.233
128785,150542,12504,0.071,-0.92,-0.285,-0.427,0.305,0.732,587.239
128817,150361,38140,0.071,-0.92,-0.285,-0.427,0.305,0.732,587.243
128817,150525,12493,0.068,-0.925,-0.282,-0.122,0.427,0.549,587.249
128809,150617,38140,0.068,-0.925,-0.282,-0.122,0.427,0.549,587.253
128809,150536,12506,0.072,-0.914,-0.274,0,0.549,0.488,587.259
128777,150617,38140,0.072,-0.914,-0.274,0,0.549,0.488,587.263
128777,150534,12508,0.071,-0.909,-0.278,0,0.549,0.488,587.269
128816,150361,38140,0.07,-0.909,-0.283,-0.305,0.427,0.549,587.272
128816,150527,12485,0.07,-0.913,-0.283,-0.305,0.427,0.549,587.279
128787,150361,38140,0.068,-0.919,-0.28,-0.366,0.793,0.305,587.282
128787,150522,12505,0.066,-0.918,-0.276,-0.366,0.793,0.305,587.289
128804,150361,38140,0.068,-0.912,-0.274,-0.183,0.671,0.305,587.292
128804,150522,12507,0.07,-0.901,-0.268,-0.183,0.671,0.305,587.298
128789,150361,38140,0.073,-0.902,-0.264,0.122,-0.061,0.488,587.302
128789,150511,12499,0.07,-0.917,-0.271,0.122,-0.061,0.488,587.308
128810,150361,38140,0.068,-0.927,-0.276,-0.427,-0.061,0.549,587.312
128810,150485,12503,0.066,-0.933,-0.274,-0.427,-0.061,0.549,587.318
128775,150361,38140,0.068,-0.925,-0.285,-0.793,0.61,0.366,587.322
128775,150512,12478,0.071,-0.919,-0.29,-0.793,0.61,0.366,587.328
128760,150361,38140,0.072,-0.911,-0.283,-0.61,0.366,0.244,587.332
128760,150482,12495,0.071,-0.91,-0.284,-0.61,0.366,0.244,587.338
128780,150361,38140,0.068,-0.917,-0.281,-0.305,0.549,0.122,587.342
128780,150487,12491,0.069,-0.92,-0.276,-0.305,0.549,0.122,587.348
128759,150361,38140,0.071,-0.918,-0.279,-0.366,0.976,0.122,587.352
128759,150512,12494,0.071,-0.914,-0.279,-0.366,0.976,0.122,587.358
128760,150361,38140,0.074,-0.911,-0.281,-0.305,0.793,0.305,587.362
128760,150482,12485,0.074,-0.911,-0.277,-0.305,0.793,0.305,587.368
128772,150361,38140,0.071,-0.909,-0.275,-0.122,0.549,0.549,587.371
128772,150493,12489,0.068,-0.913,-0.277,-0.122,0.549,0.549,587.378
128764,150361,38140,0.069,-0.921,-0.276,-0.305,0.305,0.671,587.381
128764,150495,12485,0.07,-0.924,-0.276,-0.305,0.305,0.671,587.388
128748,150361,38140,0.069,-0.926,-0.281,-0.244,0.549,0.488,587.391
128748,150481,12492,0.067,-0.921,-0.283,-0.244,0.549,0.488,587.397
128768,150361,38140,0.068,-0.917,-0.284,-0.305,0.488,0.244,587.401
128768,150483,12478,0.071,-0.914,-0.286,-0.305,0.488,0.244,587.407
128752,150361,38140,0.073,-0.913,-0.281,-0.427,0.183,0.061,587.411
128752,150486,12499,0.073,-0.914,-0.274,-0.427,0.183,0.061,587.417
128761,150361,38140,0.074,-0.912,-0.278,-0.366,0,0.061,587.421
128761,150508,12486,0.075,-0.915,-0.277,-0.366,0,0.061,587.427
128765,150361,38140,0.072,-0.916,-0.279,-0.671,0.183,0.366,587.431
128765,150486,12486,0.07,-0.918,-0.282,-0.671,0.183,0.366,587.437
128770,150361,38140,0.069,-0.916,-0.279,-0.793,0.427,0.305,587.441
128770,150488,12499,0.072,-0.912,-0.277,-0.793,0.427,0.305,587.447
128769,150361,38140,0.069,-0.91,-0.273,-0.61,-0.122,0.366,587.451
128769,150480,12497,0.071,-0.909,-0.272,-0.61,-0.122,0.366,587.457
128766,150361,38140,0.072,-0.913,-0.273,-0.732,-0.366,0.549,587.461
128766,150496,12501,0.068,-0.918,-0.274,-0.732,-0.366,0.549,587.467
128784,150361,38140,0.064,-0.924,-0.28,-0.915,0,0.61,587.47
128784,150521,12489,0.065,-0.924,-0.285,-0.915,0,0.61,587.477
128801,150617,38140,0.067,-0.925,-0.284,-1.037,0.366,0.366,587.48
128801,150528,12487,0.066,-0.926,-0.286,-1.037,0.366,0.366,587.487
128784,150361,38140,0.067,-0.922,-0.286,-0.671,0.427,0.183,587.49
128784,150504,12499,0.072,-0.919,-0.286,-0.671,0.427,0.183,587.496
128792,150361,38140,0.074,-0.911,-0.284,-0.183,0.549,0.122,587.5
128792,150508,12498,0.073,-0.904,-0.286,-0.183,0.549,0.122,587.506
128794,150361,38140,0.072,-0.907,-0.281,0.183,0.427,0.244,587.51
128794,150515,12495,0.072,-0.914,-0.276,0.183,0.427,0.244,587.516
128776,150361,38140,0.074,-0.919,-0.276,-0.122,0.244,0.366,587.52
128776,150516,12503,0.068,-0.92,-0.279,-0.122,0.244,0.366,587.526
128766,150361,38140,0.071,-0.913,-0.278,-0.366,0.488,0.549,587.53
128766,150486,12487,0.068,-0.907,-0.276,-0.366,0.488,0.549,587.536
128777,150361,38140,0.064,-0.908,-0.27,-0.61,0,0.732,587.54
128777,150511,12502,0.068,-0.921,-0.275,-0.61,0,0.732,587.546
128785,150361,38140,0.067,-0.933,-0.288,-0.976,-0.244,0.671,587.55
128785,150500,12508,0.067,-0.931,-0.286,-0.976,-0.244,0.671,587.556
128804,150361,38140,0.067,-0.92,-0.288,-1.037,0.183,0.183,587.56
128804,150526,12491,0.068,-0.911,-0.29,-1.037,0.183,0.183,587.566
128809,150361,38140,0.073,-0.912,-0.283,-1.037,0,0.122,587.569
128809,150500,12492,0.069,-0.915,-0.283,-1.037,0,0.122,587.576
128783,150361,38140,0.071,-0.916,-0.286,-0.976,0.305,0,587.579
128783,150498,12493,0.072,-0.92,-0.283,-0.976,0.305,0,587.586
128811,150361,38140,0.07,-0.917,-0.281,-0.549,0.793,0.061,587.589
128811,150515,12479,0.073,-0.915,-0.283,-0.549,0.793,0.061,587.595
128771,150361,38140,0.073,-0.913,-0.277,-0.366,0.671,0.488,587.599
128771,150503,12486,0.072,-0.913,-0.28,-0.366,0.671,0.488,587.605
128798,150361,38140,0.069,-0.915,-0.28,-0.366,0.671,0.793,587.609
128798,150504,12492,0.068,-0.912,-0.278,-0.366,0.671,0.793,587.615
128785,150361,38140,0.07,-0.91,-0.283,-0.854,0.549,0.976,587.619
128785,150491,12496,0.067,-0.913,-0.283,-0.854,0.549,0.976,587.625
128783,150617,38140,0.068,-0.916,-0.279,-0.915,0.183,0.976,587.629
128783,150530,12507,0.067,-0.919,-0.283,-0.915,0.183,0.976,587.635
128778,150361,38140,0.064,-0.916,-0.288,-0.427,0.244,0.671,587.639
128778,150484,12491,0.068,-0.917,-0.283,-0.427,0.244,0.671,587.645
128781,150361,38140,0.071,-0.916,-0.281,-0.244,0.244,0.305,587.649
128781,150488,12487,0.072,-0.92,-0.283,-0.244,0.244,0.305,587.655
128775,150361,38140,0.069,-0.926,-0.284,-0.793,0.549,0.061,587.659
128775,150516,12493,0.066,-0.926,-0.283,-0.793,0.549,0.061,587.665
128776,150361,38140,0.065,-0.923,-0.286,-0.549,0.854,0,587.668
128776,150496,12485,0.068,-0.918,-0.287,-0.549,0.854,0,587.675
128779,150361,38140,0.068,-0.915,-0.285,-0.122,0.671,0,587.678
128779,150509,12511,0.069,-0.912,-0.276,-0.122,0.671,0,587.685
128780,150361,38140,0.071,-0.907,-0.273,-0.061,0.366,-0.061,587.688
128780,150513,12481,0.075,-0.9,-0.276,-0.061,0.366,-0.061,587.694
128765,150361,38140,0.075,-0.9,-0.276,-0.061,0.366,-0.061,587.698
128765,150500,12493,0.072,-0.913,-0.273,-0.488,0.122,0,587.704
128761,150361,38140,0.072,-0.913,-0.273,-0.488,0.122,0,587.708
128761,150483,12497,0.072,-0.919,-0.282,-0.793,0.061,0.183,587.714
128767,150617,38140,0.072,-0.919,-0.282,-0.793,0.061,0.183,587.718
128767,150531,12482,0.07,-0.918,-0.29,-0.854,0.061,0.488,587.724
128755,150361,38140,0.07,-0.918,-0.29,-0.854,0.061,0.488,587.728
128755,150499,12497,0.067,-0.919,-0.288,-0.549,-0.061,0.549,587.734
128763,150361,38140,0.067,-0.919,-0.288,-0.549,-0.061,0.549,587.738
128763,150501,12478,0.065,-0.921,-0.289,-0.305,0.122,0.549,587.744
128752,150361,38140,0.065,-0.921,-0.289,-0.305,0.122,0.549,587.748
128752,150500,12506,0.07,-0.92,-0.291,-0.061,0.61,0.244,587.754
128785,150361,38140,0.07,-0.92,-0.291,-0.061,0.61,0.244,587.758
128785,150519,12500,0.07,-0.919,-0.283,-0.183,0.854,0.122,587.764
128784,150361,38140,0.07,-0.919,-0.283,-0.183,0.854,0.122,587.767
128784,150489,12490,0.065,-0.918,-0.274,0.244,0.915,0.244,587.774
128767,150361,38140,0.065,-0.918,-0.274,0.244,0.915,0.244,587.777
128767,150520,12490,0.07,-0.911,-0.271,0.244,0.793,0.244,587.784
128795,150361,38140,0.07,-0.911,-0.271,0.244,0.793,0.244,587.787
128795,150521,12498,0.068,-0.905,-0.278,-0.122,0.488,0.244,587.793
128756,150361,38140,0.068,-0.905,-0.278,-0.122,0.488,0.244,587.797
128756,150509,12504,0.069,-0.912,-0.277,-0.427,0.244,0.427,587.803
128792,150617,38140,0.069,-0.912,-0.277,-0.427,0.244,0.427,587.807
128792,150540,12506,0.07,-0.922,-0.282,-0.427,-0.061,0.549,587.813
128756,150361,38140,0.07,-0.922,-0.282,-0.427,-0.061,0.549,587.817
128756,150487,12486,0.073,-0.915,-0.29,-0.488,-0.366,0.671,587.823
128760,150361,38140,0.073,-0.915,-0.29,-0.488,-0.366,0.671,587.827
128760,150484,12494,0.067,-0.917,-0.285,-0.488,-0.488,0.671,587.833
128744,150361,38140,0.067,-0.917,-0.285,-0.488,-0.488,0.671,587.837
128744,150483,12496,0.07,-0.923,-0.284,-0.549,-0.244,0.549,587.843
128752,150361,38140,0.069,-0.924,-0.281,-0.549,-0.244,0.549,587.847
128752,150521,12495,0.072,-0.921,-0.286,-0.549,0.183,0.427,587.853
128747,150361,38140,0.072,-0.915,-0.288,-0.549,0.183,0.427,587.857
128747,150468,12484,0.073,-0.912,-0.283,-0.244,0.427,0.61,587.863
128756,150361,38140,0.071,-0.908,-0.286,-0.244,0.427,0.61,587.866
128756,150498,12496,0.069,-0.912,-0.279,-0.366,0.671,0.61,587.873
128745,150361,38140,0.068,-0.921,-0.28,-0.366,0.671,0.61,587.876
128745,150514,12482,0.066,-0.924,-0.282,0,0.915,0.366,587.882
128776,150361,38140,0.068,-0.922,-0.284,0,0.915,0.366,587.886
128776,150513,12482,0.068,-0.916,-0.281,0.061,1.098,0.427,587.892
128765,150361,38140,0.065,-0.913,-0.277,0.061,1.098,0.427,587.896
128765,150486,12498,0.067,-0.91,-0.277,-0.061,0.976,0.549,587.902
128745,150617,38140,0.066,-0.907,-0.279,-0.061,0.976,0.549,587.906
128745,150528,12487,0.068,-0.907,-0.276,-0.244,0.854,0.366,587.912
128759,150361,38140,0.068,-0.908,-0.277,-0.244,0.854,0.366,587.916
128759,150506,12493,0.07,-0.914,-0.277,-0.183,0.183,0.366,587.922
128731,150361,38140,0.073,-0.918,-0.269,-0.183,0.183,0.366,587.926
128731,150485,12497,0.072,-0.918,-0.272,-0.183,-0.366,0.427,587.932
128750,150361,38140,0.071,-0.914,-0.276,-0.183,-0.366,0.427,587.936
128750,150502,12504,0.072,-0.908,-0.278,-0.671,-0.305,0.732,587.942
128761,150361,38140,0.071,-0.91,-0.282,-0.671,-0.305,0.732,587.946
128761,150490,12501,0.07,-0.915,-0.283,-1.037,-0.61,0.732,587.952
128759,150361,38140,0.074,-0.922,-0.285,-1.037,-0.61,0.732,587.956
128759,150477,12484,0.072,-0.928,-0.285,-1.098,-0.427,0.427,587.962
128754,150361,38140,0.067,-0.926,-0.286,-1.098,-0.427,0.427,587.965
128754,150511,12510,0.069,-0.918,-0.292,-0.854,0,0.488,587.972
128755,150361,38140,0.07,-0.912,-0.292,-0.854,0,0.488,587.975
128755,150516,12499,0.069,-0.916,-0.283,-0.366,0.366,0.671,587.981
128768,150361,38140,0.064,-0.921,-0.284,-0.366,0.366,0.671,587.985
128768,150518,12499,0.066,-0.924,-0.285,-0.244,0.61,0.427,587.991
128777,150361,38140,0.064,-0.924,-0.287,-0.244,0.61,0.427,587.995
128777,150486,12493,0.069,-0.916,-0.289,-0.122,1.037,0.244,588.001
128774,150361,38140,0.07,-0.911,-0.285,-0.122,1.037,0.244,588.005
128774,150520,12495,0.07,-0.903,-0.283,0.122,1.159,0.488,588.011
128787,150361,38140,0.068,-0.899,-0.279,0.122,1.159,0.488,588.015
128787,150526,12503,0.069,-0.907,-0.273,-0.122,0.854,0.61,588.021
128780,150361,38140,0.069,-0.916,-0.273,-0.122,0.854,0.61,588.025
128780,150515,12505,0.068,-0.923,-0.28,-0.427,0.549,0.61,588.031
128776,150361,38140,0.068,-0.92,-0.284,-0.427,0.549,0.61,588.035
128776,150527,12500,0.068,-0.916,-0.285,-0.793,0.427,0.61,588.041
128778,150361,38140,0.067,-0.917,-0.284,-0.793,0.427,0.61,588.045
128778,150493,12503,0.066,-0.911,-0.284,-0.732,0.183,0.732,588.051
128795,150617,38140,0.067,-0.911,-0.275,-0.732,0.183,0.732,588.054
128795,150528,12495,0.073,-0.914,-0.272,-0.61,-0.488,0.854,588.061
128782,150617,38140,0.072,-0.919,-0.278,-0.61,-0.488,0.854,588.064
128782,150533,12508,0.071,-0.925,-0.279,-0.854,-0.549,0.732,588.071
128801,150617,38140,0.068,-0.927,-0.281,-0.854,-0.549,0.732,588.074
128801,150543,12507,0.068,-0.923,-0.29,-0.915,-0.061,0.732,588.08
128815,150361,38140,0.066,-0.923,-0.291,-0.915,-0.061,0.732,588.084
128815,150525,12499,0.068,-0.917,-0.285,-0.793,-0.122,0.427,588.09
128801,150617,38140,0.067,-0.91,-0.292,-0.793,-0.122,0.427,588.094
128801,150541,12493,0.07,-0.912,-0.279,-0.61,0.061,0.305,588.1
128831,150361,38140,0.071,-0.914,-0.285,-0.61,0.061,0.305,588.104
128831,150521,12494,0.068,-0.915,-0.29,-0.549,0.366,0.305,588.11
128772,150361,38140,0.066,-0.915,-0.288,-0.549,0.366,0.305,588.114
128772,150499,12495,0.064,-0.912,-0.291,-0.549,0.61,0.183,588.12
128778,150361,38140,0.066,-0.912,-0.287,-0.549,0.61,0.183,588.124
128778,150527,12480,0.069,-0.915,-0.284,-0.488,0.488,0.061,588.13
128779,150361,38140,0.068,-0.917,-0.287,-0.488,0.488,0.061,588.134
128779,150508,12504,0.067,-0.919,-0.283,-0.366,0.305,0.183,588.14
128757,150361,38140,0.068,-0.92,-0.28,-0.366,0.305,0.183,588.144
128757,150515,12490,0.069,-0.913,-0.28,-0.427,0.366,0.122,588.15
128762,150361,38140,0.071,-0.91,-0.283,-0.427,0.366,0.122,588.153
128762,150504,12492,0.07,-0.912,-0.278,-0.671,0.183,0.305,588.16
128752,150361,38140,0.07,-0.916,-0.278,-0.671,0.183,0.305,588.163
128752,150512,12492,0.069,-0.917,-0.281,-0.61,-0.244,0.366,588.169
128783,150361,38140,0.068,-0.917,-0.279,-0.61,-0.244,0.366,588.173
128783,150504,12492,0.068,-0.917,-0.278,-0.732,-0.305,0.427,588.179
128783,150361,38140,0.068,-0.916,-0.279,-0.732,-0.305,0.427,588.183
128783,150513,12491,0.07,-0.919,-0.282,-0.61,-0.366,0.305,588.189
128798,150617,38140,0.07,-0.925,-0.28,-0.61,-0.366,0.305,588.193
128798,150552,12508,0.068,-0.921,-0.286,-0.671,-0.183,-0.061,588.199
128756,150361,38140,0.071,-0.914,-0.29,-0.671,-0.183,-0.061,588.203
128756,150507,12494,0.072,-0.91,-0.288,-0.976,0.122,0.061,588.209
128793,150361,38140,0.072,-0.908,-0.287,-0.976,0.122,0.061,588.213
128793,150504,12491,0.072,-0.914,-0.286,-0.732,0.305,0.061,588.219
128761,150361,38140,0.07,-0.914,-0.29,-0.732,0.305,0.061,588.223
128761,150499,12495,0.071,-0.912,-0.281,-0.61,0.549,0.183,588.229
128752,150361,38140,0.072,-0.906,-0.284,-0.61,0.549,0.183,588.233
128752,150514,12496,0.073,-0.904,-0.288,-0.915,0.244,0.549,588.239
128784,150361,38140,0.071,-0.911,-0.286,-0.915,0.244,0.549,588.243
128784,150516,12493,0.065,-0.921,-0.289,-1.037,0.366,0.793,588.249
128770,150361,38140,0.065,-0.924,-0.292,-1.037,0.366,0.793,588.252
128770,150499,12476,0.062,-0.92,-0.289,-0.915,0.671,0.976,588.259
128740,150361,38140,0.068,-0.917,-0.286,-0.915,0.671,0.976,588.262
128740,150502,12506,0.069,-0.91,-0.288,-0.427,0.366,0.976,588.269
128756,150361,38140,0.068,-0.913,-0.287,-0.427,0.366,0.976,588.272
128756,150499,12486,0.067,-0.914,-0.287,-0.061,0.671,0.732,588.278
128761,150361,38140,0.067,-0.914,-0.287,-0.061,0.671,0.732,588.282
128761,150474,12481,0.064,-0.919,-0.294,0.061,0.915,0.427,588.288
128766,150361,38140,0.064,-0.919,-0.294,0.061,0.915,0.427,588.292
128766,150499,12506,0.073,-0.918,-0.284,0.488,0.366,0.244,588.298
128784,150361,38140,0.073,-0.918,-0.284,0.488,0.366,0.244,588.302
128784,150522,12495,0.067,-0.911,-0.276,0.183,0.366,0.61,588.308
128771,150361,38140,0.067,-0.911,-0.276,0.183,0.366,0.61,588.312
128771,150510,12500,0.065,-0.91,-0.281,-0.122,0.244,0.793,588.318
128814,150361,38140,0.065,-0.91,-0.281,-0.122,0.244,0.793,588.322
128814,150526,12507,0.065,-0.923,-0.284,-0.183,0.305,0.488,588.328
128794,150617,38140,0.065,-0.923,-0.284,-0.183,0.305,0.488,588.332
128794,150552,12499,0.066,-0.919,-0.291,0,0.61,0.122,588.338
128777,150617,38140,0.066,-0.919,-0.291,0,0.61,0.122,588.342
128777,150539,12501,0.072,-0.908,-0.282,0.427,0.427,-0.061,588.348
128779,150361,38140,0.072,-0.908,-0.282,0.427,0.427,-0.061,588.351
128779,150518,12503,0.069,-0.919,-0.285,0.427,0.427,0,588.358
128780,150361,38140,0.069,-0.919,-0.285,0.427,0.427,0,588.361
128780,150526,12499,0.067,-0.922,-0.29,-0.061,0.915,0,588.367
128792,150361,38140,0.067,-0.922,-0.29,-0.061,0.915,0,588.371
128792,150517,12500,0.065,-0.911,-0.285,0.122,0.854,0,588.377
128779,150361,38140,0.065,-0.911,-0.285,0.122,0.854,0,588.381
128779,150524,12504,0.068,-0.909,-0.275,0.244,0.366,-0.061,588.387
128755,150617,38140,0.068,-0.909,-0.275,0.244,0.366,-0.061,588.391
128755,150535,12496,0.066,-0.914,-0.277,-0.122,0.244,0,588.397
128782,150361,38140,0.066,-0.914,-0.277,-0.122,0.244,0,588.401
128782,150524,12497,0.065,-0.919,-0.283,-0.427,0.183,0,588.407
128767,150361,38140,0.065,-0.919,-0.283,-0.427,0.183,0,588.411
128767,150500,12499,0.068,-0.915,-0.282,-0.671,-0.183,-0.122,588.417
128760,150361,38140,0.068,-0.915,-0.282,-0.671,-0.183,-0.122,588.421
128760,150504,12501,0.069,-0.916,-0.286,-0.671,-0.183,-0.122,588.427
128757,150361,38140,0.067,-0.914,-0.282,-0.61,-0.488,-0.122,588.431
128757,150520,12496,0.065,-0.91,-0.28,-0.61,-0.488,-0.122,588.437
128769,150617,38140,0.071,-0.914,-0.287,-0.488,-0.488,-0.061,588.44
128769,150533,12497,0.07,-0.918,-0.291,-0.488,-0.488,-0.061,588.447
128771,150361,38140,0.069,-0.922,-0.292,-0.549,-0.366,-0.244,588.45
128771,150509,12508,0.07,-0.923,-0.291,-0.549,-0.366,-0.244,588.457
128772,150617,38140,0.073,-0.921,-0.288,-0.122,-0.244,-0.427,588.46
128772,150538,12487,0.073,-0.921,-0.289,-0.122,-0.244,-0.427,588.466
128770,150617,38140,0.072,-0.922,-0.288,0.244,0,-0.488,588.47
128770,150529,12481,0.073,-0.92,-0.288,0.244,0,-0.488,588.476
128794,150361,38140,0.073,-0.91,-0.291,0.183,0.61,-0.366,588.48
128794,150521,12509,0.071,-0.912,-0.291,0.183,0.61,-0.366,588.486
128779,150617,38140,0.072,-0.912,-0.284,-0.061,0.915,-0.366,588.49
128779,150564,12493,0.074,-0.913,-0.287,-0.061,0.915,-0.366,588.496
128814,150617,38140,0.076,-0.914,-0.286,-0.183,1.098,-0.305,588.5
128814,150553,12508,0.072,-0.915,-0.283,-0.183,1.098,-0.305,588.506
128794,150617,38140,0.072,-0.912,-0.282,0.061,1.341,0,588.51
128794,150543,12489,0.075,-0.914,-0.283,0.061,1.341,0,588.516
128785,150361,38140,0.075,-0.912,-0.282,0.488,1.159,0.244,588.52
128785,150516,12492,0.074,-0.91,-0.281,0.488,1.159,0.244,588.526
128761,150361,38140,0.07,-0.913,-0.282,0.671,0.915,0.488,588.53
128761,150516,12516,0.071,-0.913,-0.282,0.671,0.915,0.488,588.536
128773,150361,38140,0.07,-0.915,-0.273,0.793,0.732,0.793,588.539
128773,150523,12503,0.068,-0.919,-0.275,0.793,0.732,0.793,588.546
128767,150617,38140,0.073,-0.918,-0.282,0.61,0.427,0.976,588.549
128767,150538,12505,0.072,-0.917,-0.285,0.61,0.427,0.976,588.556
128765,150361,38140,0.069,-0.918,-0.28,0.366,0.305,1.037,588.559
128765,150509,12502,0.072,-0.918,-0.281,0.366,0.305,1.037,588.565
128776,150361,38140,0.072,-0.918,-0.284,0.183,0.305,1.098,588.569
128776,150522,12523,0.068,-0.913,-0.283,0.183,0.305,1.098,588.575
128784,150617,38140,0.071,-0.91,-0.283,-0.183,0.305,0.976,588.579
128784,150528,12493,0.071,-0.908,-0.288,-0.183,0.305,0.976,588.585
128753,150617,38140,0.069,-0.912,-0.286,-0.488,0.244,0.793,588.589
128753,150543,12493,0.067,-0.921,-0.288,-0.488,0.244,0.793,588.595
128767,150361,38140,0.065,-0.924,-0.288,-0.244,0.793,0.732,588.599
128767,150497,12520,0.066,-0.922,-0.287,-0.244,0.793,0.732,588.605
128766,150617,38140,0.067,-0.92,-0.287,0.366,1.037,0.61,588.609
128766,150540,12490,0.069,-0.916,-0.286,0.366,1.037,0.61,588.615
128768,150617,38140,0.068,-0.91,-0.282,0.671,1.159,0.427,588.619
128768,150534,12501,0.062,-0.912,-0.277,0.671,1.159,0.427,588.625
128777,150361,38140,0.064,-0.914,-0.276,0.732,1.159,0.305,588.629
128777,150512,12510,0.067,-0.911,-0.275,0.732,1.159,0.305,588.635
128777,150361,38140,0.068,-0.913,-0.276,0.366,0.854,0.183,588.638
128777,150511,12487,0.065,-0.913,-0.273,0.366,0.854,0.183,588.645
128764,150361,38140,0.067,-0.916,-0.271,-0.183,0.549,0.183,588.648
128764,150520,12494,0.069,-0.919,-0.276,-0.183,0.549,0.183,588.655
128764,150361,38140,0.07,-0.919,-0.278,-0.915,0.366,0.183,588.658
128764,150507,12486,0.069,-0.919,-0.28,-0.915,0.366,0.183,588.664
128755,150361,38140,0.068,-0.916,-0.286,-0.976,0.183,0.366,588.668
128755,150473,12496,0.069,-0.912,-0.279,-0.976,0.183,0.366,588.674
128775,150361,38140,0.069,-0.914,-0.28,-0.671,-0.427,0.427,588.678
128775,150521,12502,0.073,-0.918,-0.288,-0.671,-0.427,0.427,588.684
128773,150361,38140,0.068,-0.92,-0.29,-0.915,-0.366,0.427,588.688
128773,150519,12492,0.066,-0.92,-0.291,-0.915,-0.366,0.427,588.694
128775,150361,38140,0.066,-0.915,-0.289,-0.671,-0.183,0.244,588.698
128775,150519,12494,0.069,-0.912,-0.288,-0.671,-0.183,0.244,588.704
128791,150617,38140,0.071,-0.913,-0.29,-0.427,-0.122,0.061,588.708
128791,150545,12503,0.07,-0.914,-0.285,-0.427,-0.122,0.061,588.714
128795,150361,38140,0.071,-0.918,-0.272,-0.305,-0.183,0.183,588.718
128795,150519,12492,0.068,-0.919,-0.276,-0.305,-0.183,0.183,588.724
128780,150361,38140,0.069,-0.92,-0.279,-0.671,-0.061,0.244,588.728
128780,150517,12515,0.068,-0.921,-0.286,-0.671,-0.061,0.244,588.734
128775,150617,38140,0.066,-0.919,-0.29,-0.732,0.244,0.183,588.737
128775,150539,12501,0.065,-0.918,-0.287,-0.732,0.244,0.183,588.744
128767,150361,38140,0.068,-0.916,-0.286,-0.244,0.305,0,588.747
128767,150508,12490,0.069,-0.914,-0.286,-0.244,0.305,0,588.754
128767,150361,38140,0.068,-0.913,-0.284,-0.244,0.305,-0.122,588.757
128767,150512,12495,0.066,-0.914,-0.282,-0.244,0.305,-0.122,588.763
128780,150361,38140,0.069,-0.915,-0.283,-0.244,0.549,-0.122,588.767
128780,150511,12511,0.07,-0.913,-0.286,-0.244,0.549,-0.122,588.773
128772,150617,38140,0.073,-0.917,-0.288,-0.183,0.549,0,588.777
128772,150529,12501,0.073,-0.916,-0.286,-0.183,0.549,0,588.783
128813,150361,38140,0.074,-0.917,-0.277,-0.244,0.366,0.061,588.787
128813,150524,12486,0.074,-0.914,-0.279,-0.244,0.366,0.061,588.793
128803,150361,38140,0.073,-0.911,-0.285,-0.061,0.183,0.366,588.797
128803,150527,12513,0.07,-0.911,-0.285,-0.061,0.183,0.366,588.803
128802,150617,38140,0.067,-0.91,-0.285,-0.061,0.122,0.732,588.807
128802,150554,12504,0.066,-0.917,-0.285,-0.061,0.122,0.732,588.813
128817,150361,38140,0.069,-0.924,-0.283,0.061,-0.183,0.549,588.817
128817,150521,12493,0.073,-0.928,-0.285,0.061,-0.183,0.549,588.823
128803,150617,38140,0.072,-0.926,-0.288,0,0,0.183,588.827
128803,150559,12510,0.074,-0.922,-0.288,0,0,0.183,588.833
128812,150617,38140,0.072,-0.921,-0.288,0.061,0.549,0.305,588.836
128812,150538,12500,0.073,-0.918,-0.286,0.061,0.549,0.305,588.843
128821,150617,38140,0.073,-0.917,-0.286,0.549,0.976,0.305,588.846
128821,150559,12509,0.075,-0.914,-0.288,0.549,0.976,0.305,588.853
128801,150617,38140,0.075,-0.914,-0.288,0.549,0.976,0.305,588.856
128801,150548,12506,0.071,-0.908,-0.284,0.61,1.341,0.305,588.862
128815,150361,38140,0.071,-0.908,-0.284,0.61,1.341,0.305,588.866
128815,150520,12505,0.072,-0.908,-0.282,0.427,1.463,0.549,588.872
128788,150617,38140,0.072,-0.908,-0.282,0.427,1.463,0.549,588.876
128788,150542,12492,0.071,-0.913,-0.277,0.305,1.22,0.976,588.882
128822,150617,38140,0.071,-0.913,-0.277,0.305,1.22,0.976,588.886
128822,150550,12493,0.062,-0.917,-0.277,0,1.098,1.22,588.892
128825,150361,38140,0.062,-0.917,-0.277,0,1.098,1.22,588.896
128825,150521,12499,0.066,-0.92,-0.281,0.244,0.854,1.037,588.902
128788,150617,38140,0.066,-0.92,-0.281,0.244,0.854,1.037,588.906
128788,150542,12499,0.065,-0.917,-0.284,0.244,0.549,0.61,588.912
128804,150617,38140,0.065,-0.917,-0.284,0.244,0.549,0.61,588.916
128804,150551,12516,0.069,-0.915,-0.286,0,0.549,0.183,588.922
128826,150617,38140,0.069,-0.915,-0.286,0,0.549,0.183,588.926
128826,150560,12482,0.07,-0.911,-0.285,-0.183,0.61,-0.183,588.932
128843,150617,38140,0.07,-0.911,-0.285,-0.183,0.61,-0.183,588.935
128843,150535,12509,0.072,-0.914,-0.283,-0.244,0.488,0.061,588.942
128826,150617,38140,0.072,-0.914,-0.283,-0.244,0.488,0.061,588.945
128826,150556,12507,0.069,-0.914,-0.284,-0.244,0.488,0.305,588.952
128844,150617,38140,0.069,-0.914,-0.284,-0.244,0.488,0.305,588.955
128844,150587,12515,0.071,-0.921,-0.284,-0.183,0.549,0.427,588.961
128851,150617,38140,0.071,-0.921,-0.284,-0.183,0.549,0.427,588.965
128851,150570,12508,0.071,-0.915,-0.283,-0.061,0.488,0.244,588.971
128834,150617,38140,0.071,-0.915,-0.283,-0.061,0.488,0.244,588.975
128834,150562,12505,0.069,-0.914,-0.282,0.122,0.732,0.244,588.981
128840,150617,38140,0.069,-0.914,-0.282,0.122,0.732,0.244,588.985
128840,150562,12498,0.07,-0.914,-0.276,0.183,0.549,0.183,588.991
128807,150617,38140,0.07,-0.914,-0.276,0.183,0.549,0.183,588.995
128807,150568,12511,0.07,-0.914,-0.278,-0.183,0.549,0.305,589.001
128818,150617,38140,0.069,-0.919,-0.277,-0.183,0.549,0.305,589.005
128818,150552,12513,0.065,-0.922,-0.281,-0.488,0.488,0.366,589.011
128827,150617,38140,0.066,-0.914,-0.284,-0.488,0.488,0.366,589.015
128827,150539,12512,0.065,-0.911,-0.283,-0.427,0.244,0.427,589.021
128833,150617,38140,0.065,-0.913,-0.281,-0.427,0.244,0.427,589.025
128833,150569,12511,0.066,-0.916,-0.276,-0.488,0,0.305,589.031
128829,150617,38140,0.07,-0.916,-0.283,-0.488,0,0.305,589.034
128829,150537,12507,0.068,-0.919,-0.284,-0.793,-0.122,0.122,589.041
128828,150617,38140,0.067,-0.92,-0.281,-0.793,-0.122,0.122,589.044
128828,150546,12517,0.066,-0.92,-0.288,-0.549,0.061,0,589.051
128839,150617,38140,0.065,-0.922,-0.287,-0.549,0.061,0,589.054
