129168,150244,12479,0.181,-0.91,-0.231,0.427,0.61,0.366,40.323
129189,150105,38140,0.176,-0.914,-0.237,0.244,0.549,0.488,40.327
129189,150190,12474,0.173,-0.917,-0.238,0.244,0.549,0.488,40.333
129170,150105,38140,0.174,-0.921,-0.238,0.244,0.854,0.488,40.337
129170,150211,12460,0.171,-0.913,-0.235,0.244,0.854,0.488,40.343
129156,150105,38140,0.169,-0.91,-0.235,0.488,0.793,0.61,40.347
129156,150207,12464,0.169,-0.911,-0.23,0.488,0.793,0.61,40.353
129153,150105,38140,0.17,-0.907,-0.224,0.244,0.549,0.549,40.357
129153,150207,12463,0.174,-0.905,-0.226,0.244,0.549,0.549,40.363
129164,150105,38140,0.176,-0.906,-0.228,-0.61,0.427,0.244,40.367
129164,150207,12461,0.178,-0.908,-0.233,-0.61,0.427,0.244,40.373
129166,150105,38140,0.179,-0.914,-0.241,-1.341,0.549,0.305,40.377
129166,150214,12467,0.176,-0.918,-0.237,-1.341,0.549,0.305,40.383
129142,150105,38140,0.175,-0.921,-0.234,-1.22,0.61,0.122,40.387
129142,150185,12477,0.178,-0.913,-0.232,-1.22,0.61,0.122,40.393
129162,150105,38140,0.18,-0.902,-0.235,-1.037,0.305,0.061,40.396
129162,150191,12456,0.181,-0.903,-0.236,-1.037,0.305,0.061,40.403
129116,150105,38140,0.181,-0.913,-0.237,-1.585,0.244,0.427,40.406
129116,150199,12476,0.18,-0.923,-0.245,-1.585,0.244,0.427,40.413
129136,150105,38140,0.179,-0.929,-0.246,-1.89,0.671,0.671,40.416
129136,150193,12456,0.175,-0.926,-0.243,-1.89,0.671,0.671,40.422
129145,150105,38140,0.178,-0.922,-0.239,-0.915,0.61,0.793,40.426
129145,150180,12463,0.175,-0.916,-0.235,-0.915,0.61,0.793,40.432
129130,150105,38140,0.176,-0.913,-0.238,-0.061,0.488,0.732,40.436
129130,150210,12458,0.178,-0.915,-0.243,-0.061,0.488,0.732,40.442
129130,150105,38140,0.176,-0.914,-0.239,0.305,0.671,0.61,40.446
129130,150218,12465,0.173,-0.919,-0.243,0.305,0.671,0.61,40.452
129127,150105,38140,0.171,-0.917,-0.236,0.61,0.732,0.305,40.456
129127,150196,12455,0.172,-0.912,-0.233,0.61,0.732,0.305,40.462
129123,150105,38140,0.175,-0.905,-0.233,0.61,0.305,0.122,40.466
129123,150211,12453,0.174,-0.903,-0.226,0.61,0.305,0.122,40.472
129146,150105,38140,0.175,-0.904,-0.23,0.183,-0.061,0.183,40.476
129146,150190,12465,0.172,-0.91,-0.231,0.183,-0.061,0.183,40.482
129101,150105,38140,0.172,-0.911,-0.229,-0.366,0,0.244,40.486
129101,150186,12473,0.176,-0.905,-0.239,-0.366,0,0.244,40.492
129106,150105,38140,0.181,-0.906,-0.239,-0.793,0,0.366,40.495
129106,150178,12474,0.173,-0.911,-0.237,-0.793,0,0.366,40.502
129141,150105,38140,0.172,-0.919,-0.238,-0.671,0,0.305,40.505
129141,150208,12464,0.175,-0.92,-0.241,-0.671,0,0.305,40.512
129125,150105,38140,0.176,-0.918,-0.239,-0.549,0.122,0,40.515
129125,150219,12465,0.179,-0.92,-0.237,-0.549,0.122,0,40.521
129146,150105,38140,0.177,-0.921,-0.232,-0.183,0.183,0,40.525
129146,150202,12462,0.177,-0.919,-0.234,-0.183,0.183,0,40.531
129132,150105,38140,0.179,-0.917,-0.234,0,0.183,0,40.535
129132,150191,12476,0.18,-0.919,-0.236,0,0.183,0,40.541
129143,150105,38140,0.18,-0.919,-0.236,0,0.183,0,40.545
129143,150226,12460,0.175,-0.913,-0.229,0.122,0.244,0.061,40.551
129133,150105,38140,0.175,-0.913,-0.229,0.122,0.244,0.061,40.555
129133,150199,12484,0.181,-0.904,-0.231,0.183,0.122,-0.061,40.561
129137,150105,38140,0.181,-0.904,-0.231,0.183,0.122,-0.061,40.565
129137,150218,12461,0.179,-0.911,-0.228,-0.366,-0.122,0.183,40.571
129135,150105,38140,0.179,-0.911,-0.228,-0.366,-0.122,0.183,40.575
129135,150184,12469,0.178,-0.909,-0.241,-0.732,-0.061,0.183,40.581
129140,150105,38140,0.178,-0.909,-0.241,-0.732,-0.061,0.183,40.585
129140,150242,12477,0.176,-0.911,-0.244,-0.854,0.061,0.366,40.591
129135,150105,38140,0.176,-0.911,-0.244,-0.854,0.061,0.366,40.594
129135,150192,12469,0.178,-0.913,-0.247,-0.61,0.183,0.427,40.601
129139,150105,38140,0.178,-0.913,-0.247,-0.61,0.183,0.427,40.604
129139,150213,12477,0.176,-0.915,-0.239,-0.366,0.305,0.61,40.611
129142,150105,38140,0.176,-0.915,-0.239,-0.366,0.305,0.61,40.614
129142,150223,12475,0.176,-0.913,-0.237,-0.183,0.366,0.671,40.62
129137,150105,38140,0.176,-0.913,-0.237,-0.183,0.366,0.671,40.624
129137,150234,12479,0.179,-0.922,-0.237,-0.122,0.244,0.732,40.63
129121,150105,38140,0.179,-0.922,-0.237,-0.122,0.244,0.732,40.634
129121,150203,12478,0.174,-0.918,-0.235,0.061,0.427,0.488,40.64
129132,150105,38140,0.174,-0.918,-0.235,0.061,0.427,0.488,40.644
129132,150230,12483,0.18,-0.912,-0.24,0.122,0.549,0.305,40.65
129169,150105,38140,0.18,-0.912,-0.24,0.122,0.549,0.305,40.654
129169,150220,12496,0.178,-0.919,-0.238,0.183,0.549,0.366,40.66
129196,150105,38140,0.178,-0.919,-0.238,0.183,0.549,0.366,40.664
129196,150256,12477,0.178,-0.919,-0.241,0.427,0.915,0.488,40.67
129198,150105,38140,0.178,-0.919,-0.241,0.427,0.915,0.488,40.674
129198,150235,12486,0.179,-0.899,-0.22,1.159,0.976,0.549,40.68
129187,150105,38140,0.179,-0.899,-0.22,1.159,0.976,0.549,40.684
129187,150253,12506,0.18,-0.899,-0.222,1.159,0.366,0.732,40.69
129196,150105,38140,0.178,-0.906,-0.226,1.159,0.366,0.732,40.693
129196,150254,12493,0.175,-0.911,-0.233,0.061,0.549,1.098,40.7
129181,150105,38140,0.169,-0.918,-0.231,0.061,0.549,1.098,40.703
129181,150265,12493,0.169,-0.919,-0.229,-0.305,0.671,0.915,40.71
129171,150105,38140,0.172,-0.913,-0.231,-0.305,0.671,0.915,40.713
129171,150236,12489,0.173,-0.91,-0.229,-0.488,0.183,0.793,40.719
129163,150105,38140,0.177,-0.909,-0.237,-0.488,0.183,0.793,40.723
129163,150223,12486,0.175,-0.914,-0.241,-0.61,0.183,0.854,40.729
129172,150105,38140,0.172,-0.918,-0.236,-0.61,0.183,0.854,40.733
129172,150229,12483,0.171,-0.916,-0.239,-0.488,0.366,0.61,40.739
129159,150105,38140,0.175,-0.912,-0.236,-0.488,0.366,0.61,40.743
129159,150215,12486,0.178,-0.91,-0.236,-0.488,0.244,0.61,40.749
129150,150105,38140,0.18,-0.913,-0.23,-0.488,0.244,0.61,40.753
129150,150228,12477,0.175,-0.919,-0.231,-0.61,0.244,0.427,40.759
129158,150105,38140,0.178,-0.918,-0.235,-0.61,0.244,0.427,40.763
129158,150207,12477,0.181,-0.919,-0.242,-0.61,0.305,0.244,40.769
129136,150105,38140,0.179,-0.918,-0.238,-0.61,0.305,0.244,40.773
129136,150234,12489,0.177,-0.917,-0.238,-0.305,0.366,0.183,40.779
129157,150105,38140,0.174,-0.914,-0.238,-0.305,0.366,0.183,40.783
129157,150250,12476,0.174,-0.917,-0.234,0,0.366,0.244,40.789
129152,150105,38140,0.175,-0.916,-0.235,0,0.366,0.244,40.792
129152,150217,12495,0.176,-0.909,-0.234,0.061,0.427,0,40.799
129162,150105,38140,0.175,-0.903,-0.228,0.061,0.427,0,40.802
129162,150224,12483,0.174,-0.906,-0.228,-0.122,0.244,0.122,40.809
129143,150105,38140,0.176,-0.91,-0.231,-0.122,0.244,0.122,40.812
129143,150197,12490,0.176,-0.911,-0.228,-0.427,0.244,0.305,40.818
129145,150105,38140,0.174,-0.909,-0.23,-0.427,0.244,0.305,40.822
129145,150206,12481,0.177,-0.903,-0.234,-0.854,0,0.427,40.828
129148,150105,38140,0.178,-0.904,-0.237,-0.854,0,0.427,40.832
129148,150214,12478,0.174,-0.912,-0.239,-1.341,-0.061,0.488,40.838
129149,150105,38140,0.173,-0.915,-0.237,-1.341,-0.061,0.488,40.842
129149,150216,12484,0.175,-0.915,-0.238,-1.585,0.122,0.427,40.848
129144,150105,38140,0.177,-0.914,-0.239,-1.585,0.122,0.427,40.852
129144,150191,12488,0.177,-0.916,-0.236,-1.585,-0.122,0.427,40.858
129128,150105,38140,0.174,-0.916,-0.238,-1.585,-0.122,0.427,40.862
129128,150227,12491,0.175,-0.919,-0.238,-1.341,-0.122,0.427,40.868
129175,150105,38140,0.176,-0.92,-0.241,-1.341,-0.122,0.427,40.872
129175,150230,12482,0.175,-0.921,-0.242,-1.037,0,0.427,40.878
129176,150105,38140,0.178,-0.918,-0.242,-1.037,0,0.427,40.882
129176,150228,12510,0.18,-0.913,-0.24,-0.488,0.183,0.366,40.888
129181,150105,38140,0.181,-0.91,-0.242,-0.488,0.183,0.366,40.891
129181,150238,12505,0.182,-0.909,-0.242,-0.061,0.061,0.427,40.898
129178,150105,38140,0.181,-0.912,-0.245,-0.061,0.061,0.427,40.901
129178,150248,12493,0.179,-0.91,-0.243,0.244,0.366,0.488,40.908
129190,150105,38140,0.176,-0.912,-0.238,0.244,0.366,0.488,40.911
129190,150229,12510,0.178,-0.91,-0.237,0.183,0.488,0.549,40.917
129206,150105,38140,0.177,-0.908,-0.234,0.183,0.488,0.549,40.921
129206,150241,12501,0.179,-0.907,-0.235,-0.061,0.549,0.61,40.927
129225,150105,38140,0.176,-0.911,-0.236,-0.061,0.549,0.61,40.931
129225,150247,12496,0.171,-0.917,-0.235,-0.122,0.671,0.732,40.937
129198,150105,38140,0.173,-0.917,-0.232,-0.122,0.671,0.732,40.941
129198,150266,12508,0.177,-0.911,-0.237,-0.244,0.549,0.854,40.947
129205,150105,38140,0.175,-0.912,-0.23,-0.244,0.549,0.854,40.951
129205,150263,12496,0.173,-0.911,-0.224,-0.61,0.305,0.793,40.957
129150,150105,38140,0.175,-0.91,-0.229,-0.61,0.305,0.793,40.961
129150,150239,12490,0.173,-0.909,-0.236,-1.341,0.183,0.61,40.967
129167,150105,38140,0.173,-0.91,-0.239,-1.341,0.183,0.61,40.971
129167,150238,12497,0.174,-0.915,-0.244,-1.646,0.305,0.549,40.977
129157,150105,38140,0.173,-0.918,-0.247,-1.646,0.305,0.549,40.981
129157,150257,12498,0.173,-0.921,-0.245,-1.159,0.305,0.305,40.987
129162,150105,38140,0.175,-0.92,-0.241,-1.159,0.305,0.305,40.99
129162,150232,12488,0.175,-0.912,-0.237,-0.549,0.244,0.183,40.997
129177,150105,38140,0.176,-0.909,-0.237,-0.549,0.244,0.183,41
129177,150234,12490,0.176,-0.911,-0.239,-0.61,0.366,0.366,41.007
129160,150105,38140,0.176,-0.913,-0.241,-0.61,0.366,0.366,41.01
129160,150230,12494,0.178,-0.915,-0.236,-0.549,0.61,0.366,41.016
129146,150105,38140,0.177,-0.91,-0.235,-0.549,0.61,0.366,41.02
129146,150222,12496,0.175,-0.904,-0.229,-0.61,0.427,0.305,41.026
129150,150105,38140,0.175,-0.903,-0.231,-0.61,0.427,0.305,41.03
129150,150230,12478,0.177,-0.907,-0.235,-1.341,0.183,0.305,41.036
129134,150105,38140,0.174,-0.913,-0.24,-1.341,0.183,0.305,41.04
129134,150229,12490,0.175,-0.919,-0.242,-1.463,0.366,0.305,41.046
129135,150105,38140,0.175,-0.92,-0.242,-1.463,0.366,0.305,41.05
129135,150207,12498,0.177,-0.914,-0.243,-1.22,0.427,0.366,41.056
129127,150105,38140,0.175,-0.91,-0.24,-1.22,0.427,0.366,41.06
129127,150210,12491,0.176,-0.906,-0.237,-1.22,0.427,0.61,41.066
129137,150105,38140,0.178,-0.907,-0.239,-1.22,0.427,0.61,41.07
129137,150214,12494,0.175,-0.91,-0.241,-1.585,0.366,0.549,41.076
129133,150105,38140,0.178,-0.915,-0.244,-1.585,0.366,0.549,41.08
129133,150218,12481,0.172,-0.918,-0.242,-1.829,0.61,0.671,41.086
129137,150105,38140,0.171,-0.921,-0.238,-1.829,0.61,0.671,41.089
129137,150214,12494,0.17,-0.914,-0.241,-1.22,0.488,0.671,41.096
129137,150105,38140,0.174,-0.912,-0.244,-1.22,0.488,0.671,41.099
129137,150214,12489,0.171,-0.909,-0.238,-0.976,0.183,0.671,41.106
129125,150105,38140,0.172,-0.911,-0.236,-0.976,0.183,0.671,41.109
129125,150221,12492,0.176,-0.918,-0.243,-0.976,-0.061,0.305,41.115
129130,150105,38140,0.174,-0.919,-0.246,-0.976,-0.061,0.305,41.119
129130,150247,12489,0.176,-0.92,-0.242,-0.854,-0.244,0.122,41.125
129126,150105,38140,0.176,-0.92,-0.242,-0.854,-0.244,0.122,41.129
129126,150241,12512,0.177,-0.913,-0.247,-0.61,-0.061,0.183,41.135
129164,150105,38140,0.177,-0.913,-0.247,-0.61,-0.061,0.183,41.139
129164,150220,12495,0.176,-0.916,-0.242,-0.305,0.061,0.122,41.145
129117,150105,38140,0.176,-0.916,-0.242,-0.305,0.061,0.122,41.149
129117,150219,12508,0.178,-0.912,-0.245,-0.061,0.122,-0.061,41.155
129138,150105,38140,0.178,-0.912,-0.245,-0.061,0.122,-0.061,41.159
129138,150216,12491,0.18,-0.916,-0.247,0,0.366,0,41.165
129132,150105,38140,0.18,-0.916,-0.247,0,0.366,0,41.169
129132,150222,12481,0.179,-0.915,-0.24,0.183,0.549,0.122,41.175
129139,150105,38140,0.179,-0.915,-0.24,0.183,0.549,0.122,41.179
129139,150215,12491,0.176,-0.908,-0.234,0.244,0.427,0.305,41.185
129121,150105,38140,0.176,-0.908,-0.234,0.244,0.427,0.305,41.188
129121,150227,12491,0.176,-0.909,-0.233,-0.061,0.183,0.488,41.195
129142,150105,38140,0.176,-0.909,-0.233,-0.061,0.183,0.488,41.198
129142,150233,12494,0.174,-0.918,-0.235,-0.549,0.244,0.61,41.205
129147,150105,38140,0.174,-0.918,-0.235,-0.549,0.244,0.61,41.208
129147,150216,12497,0.173,-0.911,-0.24,-0.427,0.183,0.488,41.214
129138,150105,38140,0.173,-0.911,-0.24,-0.427,0.183,0.488,41.218
129138,150237,12501,0.171,-0.906,-0.239,-0.549,-0.183,0.366,41.224
129110,150105,38140,0.171,-0.906,-0.239,-0.549,-0.183,0.366,41.228
129110,150230,12484,0.171,-0.916,-0.243,-0.732,0.122,0.305,41.234
129153,150105,38140,0.171,-0.916,-0.243,-0.732,0.122,0.305,41.238
129153,150233,12491,0.174,-0.911,-0.235,-0.549,0.183,0.183,41.244
129128,150105,38140,0.174,-0.911,-0.235,-0.549,0.183,0.183,41.248
129128,150219,12496,0.176,-0.905,-0.243,-0.793,-0.061,0.244,41.254
129144,150105,38140,0.176,-0.905,-0.243,-0.793,-0.061,0.244,41.258
129144,150239,12501,0.176,-0.92,-0.246,-1.037,0.305,0.183,41.264
129122,150105,38140,0.176,-0.92,-0.246,-1.037,0.305,0.183,41.268
129122,150231,12498,0.174,-0.923,-0.247,-1.037,0.305,0.183,41.274
129145,150105,38140,0.175,-0.92,-0.245,-0.488,0.427,0.183,41.278
129145,150239,12498,0.177,-0.914,-0.244,-0.488,0.427,0.183,41.284
129171,150105,38140,0.177,-0.911,-0.243,-0.061,0.183,0.305,41.287
129171,150241,12501,0.178,-0.912,-0.244,-0.061,0.183,0.305,41.294
129125,150105,38140,0.177,-0.912,-0.242,0,0.305,0.244,41.297
129125,150236,12502,0.177,-0.907,-0.235,0,0.305,0.244,41.303
129113,150105,38140,0.181,-0.908,-0.231,-0.244,0.183,0.183,41.307
129113,150222,12510,0.185,-0.911,-0.234,-0.244,0.183,0.183,41.313
129136,150105,38140,0.184,-0.906,-0.24,-0.732,0.061,0.183,41.317
129136,150250,12501,0.179,-0.909,-0.244,-0.732,0.061,0.183,41.323
129130,150105,38140,0.179,-0.914,-0.245,-0.671,0.488,0.61,41.327
129130,150241,12499,0.174,-0.912,-0.247,-0.671,0.488,0.61,41.333
129115,150105,38140,0.175,-0.91,-0.248,-0.183,0.671,0.732,41.337
129115,150234,12493,0.176,-0.91,-0.246,-0.183,0.671,0.732,41.343
129134,150105,38140,0.177,-0.909,-0.244,-0.061,0.427,0.671,41.347
129134,150243,12497,0.175,-0.91,-0.241,-0.061,0.427,0.671,41.353
129145,150105,38140,0.174,-0.917,-0.24,-0.122,0.61,0.854,41.357
129145,150251,12506,0.174,-0.919,-0.241,-0.122,0.61,0.854,41.363
129153,150105,38140,0.174,-0.913,-0.241,0.183,0.793,0.793,41.367
129153,150245,12491,0.176,-0.909,-0.238,0.183,0.793,0.793,41.373
129149,150105,38140,0.172,-0.914,-0.232,0.183,0.549,0.793,41.377
129149,150266,12508,0.172,-0.914,-0.236,0.183,0.549,0.793,41.383
129127,150105,38140,0.174,-0.917,-0.238,-0.183,0.488,0.488,41.386
129127,150200,12515,0.17,-0.916,-0.243,-0.183,0.488,0.488,41.393
129126,150105,38140,0.172,-0.916,-0.24,-0.366,0.488,0.488,41.396
129126,150250,12510,0.172,-0.914,-0.234,-0.366,0.488,0.488,41.402
129141,150105,38140,0.173,-0.911,-0.24,0,0.366,0.366,41.406
129141,150223,12495,0.174,-0.911,-0.245,0,0.366,0.366,41.412
129098,150105,38140,0.175,-0.909,-0.238,0.183,0.488,0.244,41.416
129098,150227,12514,0.174,-0.908,-0.234,0.183,0.488,0.244,41.422
129127,150105,38140,0.173,-0.906,-0.231,-0.061,0.427,0.244,41.426
129127,150228,12514,0.176,-0.904,-0.231,-0.061,0.427,0.244,41.432
129098,150105,38140,0.177,-0.906,-0.236,-0.793,0.488,0.183,41.436
129098,150226,12499,0.174,-0.912,-0.242,-0.793,0.488,0.183,41.442
129129,150105,38140,0.175,-0.915,-0.239,-0.976,0.61,0.244,41.446
129129,150230,12500,0.173,-0.913,-0.24,-0.976,0.61,0.244,41.452
129097,150105,38140,0.176,-0.907,-0.248,-0.732,0.366,0.366,41.456
129097,150234,12503,0.178,-0.909,-0.249,-0.732,0.366,0.366,41.462
129118,150105,38140,0.176,-0.913,-0.241,-0.549,0.305,0.488,41.466
129118,150218,12507,0.174,-0.916,-0.239,-0.549,0.305,0.488,41.472
129111,150105,38140,0.176,-0.919,-0.233,-0.671,0.366,0.488,41.475
129111,150209,12500,0.177,-0.912,-0.237,-0.671,0.366,0.488,41.482
129140,150105,38140,0.179,-0.911,-0.237,-0.915,0.305,0.488,41.485
129140,150266,12504,0.177,-0.912,-0.234,-0.915,0.305,0.488,41.492
129145,150105,38140,0.171,-0.916,-0.238,-0.976,0.305,0.488,41.495
129145,150249,12501,0.175,-0.917,-0.241,-0.976,0.305,0.488,41.501
129120,150105,38140,0.177,-0.915,-0.245,-0.915,0.305,0.244,41.505
129120,150213,12521,0.177,-0.908,-0.244,-0.915,0.305,0.244,41.511
129118,150105,38140,0.175,-0.908,-0.24,-0.671,0.061,0.183,41.515
129118,150255,12519,0.176,-0.911,-0.239,-0.671,0.061,0.183,41.521
129117,150105,38140,0.174,-0.913,-0.242,-0.61,0.122,0.305,41.525
129117,150232,12519,0.172,-0.917,-0.236,-0.61,0.122,0.305,41.531
129126,150105,38140,0.173,-0.91,-0.236,-0.732,0.122,0.183,41.535
129126,150246,12521,0.176,-0.904,-0.241,-0.732,0.122,0.183,41.541
129120,150105,38140,0.176,-0.91,-0.24,-1.159,-0.061,0.305,41.545
129120,150239,12516,0.177,-0.917,-0.243,-1.159,-0.061,0.305,41.551
129124,150105,38140,0.177,-0.919,-0.245,-1.098,0,0.305,41.555
129124,150240,12520,0.176,-0.921,-0.249,-1.098,0,0.305,41.561
129122,150105,38140,0.174,-0.916,-0.252,-0.732,0.183,0.305,41.565
129122,150227,12500,0.173,-0.911,-0.247,-0.732,0.183,0.305,41.571
129111,150105,38140,0.176,-0.908,-0.238,-0.244,0.244,0.427,41.575
129111,150270,12516,0.177,-0.912,-0.239,-0.244,0.244,0.427,41.581
129107,150105,38140,0.18,-0.911,-0.246,-0.183,0.305,0.305,41.584
129107,150238,12501,0.176,-0.916,-0.246,-0.183,0.305,0.305,41.591
129111,150105,38140,0.172,-0.916,-0.244,-0.122,0.61,0.244,41.594
129111,150239,12501,0.174,-0.911,-0.245,-0.122,0.61,0.244,41.6
129118,150105,38140,0.176,-0.909,-0.241,0.122,0.488,0.305,41.604
129118,150246,12510,0.179,-0.908,-0.24,0.122,0.488,0.305,41.61
129111,150105,38140,0.176,-0.907,-0.244,0,0.549,0.549,41.614
129111,150251,12512,0.172,-0.913,-0.24,0,0.549,0.549,41.62
129128,150105,38140,0.171,-0.915,-0.24,0.305,0.793,0.549,41.624
129128,150239,12511,0.169,-0.91,-0.236,0.305,0.793,0.549,41.63
129118,150105,38140,0.172,-0.908,-0.237,0.488,0.427,0.427,41.634
129118,150221,12520,0.171,-0.912,-0.237,0.488,0.427,0.427,41.64
129104,150105,38140,0.17,-0.915,-0.24,0,0.366,0.366,41.644
129104,150248,12501,0.174,-0.916,-0.241,0,0.366,0.366,41.65
129114,150105,38140,0.174,-0.914,-0.239,-0.183,0.549,0.183,41.654
129114,150227,12514,0.172,-0.905,-0.24,-0.183,0.549,0.183,41.66
129136,150105,38140,0.178,-0.901,-0.236,-0.305,0.244,0.122,41.664
129136,150223,12510,0.177,-0.909,-0.234,-0.305,0.244,0.122,41.67
129131,150105,38140,0.175,-0.912,-0.235,-0.732,0.183,0.122,41.673
129131,150239,12523,0.174,-0.912,-0.234,-0.732,0.183,0.122,41.68
129126,150105,38140,0.174,-0.91,-0.241,-1.159,0.366,0.183,41.683
129126,150253,12506,0.175,-0.915,-0.245,-1.159,0.366,0.183,41.69
129122,150105,38140,0.173,-0.921,-0.245,-1.159,0.366,0.183,41.693
129122,150223,12499,0.172,-0.918,-0.248,-1.159,0.366,0.183,41.699
129131,150105,38140,0.173,-0.917,-0.248,-1.037,0.549,0.061,41.703
129131,150239,12509,0.177,-0.911,-0.248,-1.037,0.549,0.061,41.709
129104,150361,38140,0.177,-0.911,-0.248,-1.037,0.549,0.061,41.713
129104,150274,12527,0.176,-0.919,-0.249,-0.732,0.427,0.122,41.719
129125,150105,38140,0.176,-0.919,-0.249,-0.732,0.427,0.122,41.723
129125,150258,12505,0.17,-0.911,-0.233,-0.183,0.488,0.061,41.729
129125,150105,38140,0.17,-0.911,-0.233,-0.183,0.488,0.061,41.733
129125,150244,12509,0.178,-0.905,-0.236,0.244,0.244,0.061,41.739
129110,150105,38140,0.178,-0.905,-0.236,0.244,0.244,0.061,41.743
129110,150268,12522,0.175,-0.921,-0.245,-0.427,0,0,41.749
129125,150105,38140,0.175,-0.921,-0.245,-0.427,0,0,41.753
129125,150252,12520,0.171,-0.922,-0.247,-0.488,0.244,-0.183,41.759
129099,150105,38140,0.171,-0.922,-0.247,-0.488,0.244,-0.183,41.763
129099,150251,12510,0.177,-0.906,-0.246,0.122,0.183,-0.305,41.769
129115,150105,38140,0.177,-0.906,-0.246,0.122,0.183,-0.305,41.772
129115,150219,12510,0.177,-0.913,-0.24,0.427,-0.122,-0.183,41.779
129102,150105,38140,0.177,-0.913,-0.24,0.427,-0.122,-0.183,41.782
129102,150240,12518,0.18,-0.912,-0.244,0.366,0.183,-0.305,41.789
129113,150105,38140,0.18,-0.912,-0.244,0.366,0.183,-0.305,41.792
129113,150225,12513,0.176,-0.912,-0.237,0.366,0.122,-0.366,41.798
129148,150105,38140,0.176,-0.912,-0.237,0.366,0.122,-0.366,41.802
129148,150271,12527,0.179,-0.908,-0.239,0.427,0.122,-0.122,41.808
129143,150105,38140,0.179,-0.908,-0.239,0.427,0.122,-0.122,41.812
129143,150266,12517,0.177,-0.914,-0.245,0.122,0.244,0.061,41.818
129135,150361,38140,0.177,-0.914,-0.245,0.122,0.244,0.061,41.822
129135,150272,12523,0.172,-0.919,-0.25,-0.061,0.488,0,41.828
129149,150361,38140,0.172,-0.919,-0.25,-0.061,0.488,0,41.832
129149,150272,12520,0.176,-0.911,-0.243,0.427,0.549,0,41.838
129153,150105,38140,0.176,-0.911,-0.243,0.427,0.549,0,41.842
129153,150255,12526,0.18,-0.906,-0.231,0.793,0.244,0,41.848
129096,150361,38140,0.18,-0.906,-0.231,0.793,0.244,0,41.852
129096,150273,12523,0.18,-0.91,-0.238,0.427,0,0,41.858
129134,150105,38140,0.177,-0.913,-0.246,0.427,0,0,41.862
129134,150250,12529,0.175,-0.914,-0.245,0.244,0.366,0.061,41.868
129152,150105,38140,0.173,-0.911,-0.241,0.244,0.366,0.061,41.871
129152,150261,12529,0.175,-0.904,-0.245,0.305,0.488,-0.061,41.878
129131,150105,38140,0.177,-0.902,-0.243,0.305,0.488,-0.061,41.881
129131,150265,12525,0.177,-0.905,-0.241,0.366,0.427,0.122,41.888
129143,150105,38140,0.177,-0.911,-0.24,0.366,0.427,0.122,41.891
129143,150247,12521,0.175,-0.909,-0.24,0.305,0.427,0.061,41.897
129131,150105,38140,0.178,-0.907,-0.239,0.305,0.427,0.061,41.901
129131,150257,12528,0.178,-0.906,-0.243,-0.183,0.244,0.183,41.907
129131,150361,38140,0.179,-0.912,-0.246,-0.183,0.244,0.183,41.911
129131,150279,12515,0.177,-0.913,-0.247,-0.549,0.305,0.366,41.917
129128,150361,38140,0.177,-0.906,-0.253,-0.549,0.305,0.366,41.921
129128,150290,12524,0.179,-0.903,-0.245,-1.098,0.366,0.305,41.927
129144,150105,38140,0.18,-0.909,-0.245,-1.098,0.366,0.305,41.931
129144,150259,12515,0.177,-0.911,-0.246,-1.22,0.671,0.61,41.937
129142,150105,38140,0.177,-0.908,-0.253,-1.22,0.671,0.61,41.941
129142,150265,12523,0.179,-0.915,-0.247,-2.195,0.976,0.427,41.947
129132,150105,38140,0.178,-0.922,-0.245,-2.195,0.976,0.427,41.951
129132,150270,12533,0.179,-0.923,-0.239,-1.037,1.159,0.305,41.957
129129,150105,38140,0.179,-0.916,-0.234,-1.037,1.159,0.305,41.961
129129,150270,12529,0.18,-0.909,-0.234,-0.854,0.915,0.061,41.967
129121,150105,38140,0.179,-0.912,-0.229,-0.854,0.915,0.061,41.97
129121,150258,12525,0.179,-0.912,-0.229,-0.976,0.549,0.122,41.977
129141,150361,38140,0.18,-0.911,-0.238,-0.976,0.549,0.122,41.98
129141,150280,12537,0.178,-0.914,-0.236,-1.22,0.427,0.061,41.987
129125,150105,38140,0.175,-0.913,-0.242,-1.22,0.427,0.061,41.99
129125,150263,12525,0.172,-0.91,-0.247,-0.671,0.61,0.305,41.996
129131,150361,38140,0.17,-0.912,-0.245,-0.671,0.61,0.305,42
129131,150286,12535,0.166,-0.915,-0.244,-0.183,0.61,0.305,42.006
129118,150361,38140,0.172,-0.909,-0.241,-0.183,0.61,0.305,42.01
129118,150274,12527,0.173,-0.907,-0.238,-0.244,0.305,0.183,42.016
129130,150105,38140,0.174,-0.906,-0.235,-0.244,0.305,0.183,42.02
129130,150253,12545,0.174,-0.907,-0.235,-0.366,0.183,0.244,42.026
129140,150361,38140,0.177,-0.908,-0.235,-0.366,0.183,0.244,42.03
129140,150280,12533,0.176,-0.908,-0.242,-0.549,0.244,0.122,42.036
129152,150361,38140,0.175,-0.91,-0.245,-0.549,0.244,0.122,42.04
129152,150282,12538,0.176,-0.912,-0.243,-0.793,0.244,0.122,42.046
129139,150361,38140,0.176,-0.915,-0.246,-0.793,0.244,0.122,42.05
129139,150286,12540,0.178,-0.914,-0.249,-0.427,0.305,0,42.056
129156,150105,38140,0.182,-0.913,-0.247,-0.427,0.305,0,42.06
129156,150270,12533,0.177,-0.915,-0.244,0,0.366,0,42.066
129161,150361,38140,0.179,-0.915,-0.241,0,0.366,0,42.069
129161,150297,12530,0.18,-0.915,-0.237,0.305,0.305,0.122,42.076
129146,150105,38140,0.18,-0.911,-0.235,0.305,0.305,0.122,42.079
129146,150271,12545,0.18,-0.908,-0.238,0.183,0.427,0.244,42.086
129144,150361,38140,0.179,-0.909,-0.237,0.183,0.427,0.244,42.089
129144,150291,12539,0.18,-0.913,-0.237,0.061,0.427,0.244,42.095
129178,150361,38140,0.178,-0.914,-0.243,0.061,0.427,0.244,42.099
129178,150279,12535,0.18,-0.91,-0.248,0.061,0.488,0.244,42.105
129186,150361,38140,0.177,-0.903,-0.245,0.061,0.488,0.244,42.109
129186,150301,12552,0.177,-0.899,-0.242,0.122,0.183,0.488,42.115
129181,150361,38140,0.179,-0.902,-0.245,0.122,0.183,0.488,42.119
129181,150306,12539,0.179,-0.909,-0.248,-0.305,0.061,0.671,42.125
129161,150361,38140,0.175,-0.915,-0.247,-0.305,0.061,0.671,42.129
129161,150293,12536,0.176,-0.919,-0.249,-0.488,0.305,0.549,42.135
129165,150361,38140,0.177,-0.916,-0.246,-0.488,0.305,0.549,42.139
129165,150290,12552,0.176,-0.911,-0.241,0,0.183,0.671,42.145
129167,150361,38140,0.176,-0.911,-0.243,0,0.183,0.671,42.149
129167,150296,12554,0.175,-0.913,-0.242,0.366,0.122,0.671,42.155
129192,150361,38140,0.174,-0.909,-0.24,0.366,0.122,0.671,42.159
129192,150277,12546,0.175,-0.913,-0.24,0.061,0.366,0.549,42.165
129183,150361,38140,0.176,-0.917,-0.241,0.061,0.366,0.549,42.168
129183,150315,12555,0.174,-0.919,-0.24,0.122,0.549,0.427,42.175
129178,150361,38140,0.176,-0.917,-0.25,0.122,0.549,0.427,42.178
129178,150300,12559,0.174,-0.913,-0.247,0.427,0.549,0.122,42.185
129173,150361,38140,0.175,-0.912,-0.241,0.427,0.549,0.122,42.188
129173,150296,12533,0.175,-0.909,-0.24,0.549,0.183,0.122,42.194
129150,150361,38140,0.176,-0.904,-0.244,0.549,0.183,0.122,42.198
129150,150301,12548,0.179,-0.905,-0.238,0.305,0.305,0.244,42.204
129173,150361,38140,0.178,-0.908,-0.242,0.305,0.305,0.244,42.208
129173,150277,12555,0.179,-0.909,-0.244,0,0.549,0.366,42.214
129171,150361,38140,0.173,-0.911,-0.241,0,0.549,0.366,42.218
129171,150314,12537,0.173,-0.91,-0.238,-0.122,0.61,0.488,42.224
129189,150361,38140,0.178,-0.913,-0.236,-0.122,0.61,0.488,42.228
129189,150328,12538,0.18,-0.914,-0.235,-0.061,0.427,0.427,42.234
129183,150361,38140,0.179,-0.911,-0.242,-0.061,0.427,0.427,42.238
129183,150298,12545,0.176,-0.914,-0.242,-0.244,0.549,0.549,42.244
129162,150361,38140,0.172,-0.92,-0.24,-0.244,0.549,0.549,42.248
129162,150292,12532,0.17,-0.918,-0.239,-0.061,0.854,0.488,42.254
129148,150361,38140,0.173,-0.913,-0.243,-0.061,0.854,0.488,42.258
129148,150311,12546,0.176,-0.909,-0.243,0.061,0.671,0.366,42.264
129158,150361,38140,0.177,-0.909,-0.244,0.061,0.671,0.366,42.267
129158,150278,12551,0.177,-0.912,-0.246,0.244,0.427,0.122,42.274
129153,150361,38140,0.18,-0.915,-0.242,0.244,0.427,0.122,42.277
129153,150319,12559,0.179,-0.91,-0.244,0.244,0.549,0.122,42.283
129172,150361,38140,0.176,-0.909,-0.239,0.244,0.549,0.122,42.287
129172,150317,12548,0.176,-0.91,-0.233,0.427,0.671,0.305,42.293
129167,150361,38140,0.176,-0.91,-0.233,0.427,0.671,0.305,42.297
129167,150323,12561,0.176,-0.909,-0.231,0.122,0.61,0.305,42.303
129159,150361,38140,0.176,-0.909,-0.231,0.122,0.61,0.305,42.307
129159,150289,12542,0.177,-0.909,-0.235,-0.488,0.549,0.305,42.313
129180,150361,38140,0.177,-0.909,-0.235,-0.488,0.549,0.305,42.317
129180,150320,12540,0.175,-0.908,-0.244,-0.976,0.549,0.366,42.323
129197,150361,38140,0.175,-0.908,-0.244,-0.976,0.549,0.366,42.327
129197,150300,12549,0.176,-0.917,-0.251,-0.732,0.671,0.61,42.333
129178,150361,38140,0.176,-0.917,-0.251,-0.732,0.671,0.61,42.337
129178,150328,12560,0.171,-0.914,-0.244,-0.183,0.61,0.549,42.343
129190,150361,38140,0.171,-0.914,-0.244,-0.183,0.61,0.549,42.347
129190,150319,12554,0.175,-0.906,-0.234,0,0.427,0.427,42.353
129157,150361,38140,0.175,-0.906,-0.234,0,0.427,0.427,42.356
129157,150321,12571,0.179,-0.916,-0.241,-0.488,0.305,0.305,42.363
129160,150361,38140,0.179,-0.916,-0.241,-0.488,0.305,0.305,42.366
129160,150326,12561,0.184,-0.913,-0.253,-0.732,0.244,0.183,42.373
129186,150361,38140,0.184,-0.913,-0.253,-0.732,0.244,0.183,42.376
129186,150304,12554,0.174,-0.917,-0.237,-0.305,0.305,0.488,42.382
129189,150361,38140,0.174,-0.917,-0.237,-0.305,0.305,0.488,42.386
129189,150332,12559,0.171,-0.917,-0.246,0.305,0.793,0.427,42.392
129195,150361,38140,0.171,-0.917,-0.246,0.305,0.793,0.427,42.396
129195,150327,12556,0.179,-0.921,-0.246,0.915,0.427,0,42.402
129184,150361,38140,0.179,-0.921,-0.246,0.915,0.427,0,42.406
129184,150314,12558,0.181,-0.914,-0.245,1.341,0.488,-0.183,42.412
129191,150361,38140,0.181,-0.914,-0.245,1.341,0.488,-0.183,42.416
129191,150322,12555,0.182,-0.908,-0.238,1.22,0.488,0.183,42.422
129167,150361,38140,0.182,-0.908,-0.238,1.22,0.488,0.183,42.426
129167,150311,12559,0.178,-0.912,-0.237,1.22,0.488,0.183,42.432
129180,150361,38140,0.18,-0.92,-0.241,1.159,0.671,0,42.436
129180,150332,12557,0.18,-0.917,-0.24,1.159,0.671,0,42.442
129187,150361,38140,0.18,-0.907,-0.245,1.159,0.915,0.061,42.446
129187,150353,12552,0.18,-0.903,-0.243,1.159,0.915,0.061,42.452
129196,150361,38140,0.177,-0.908,-0.239,0.854,0.671,0.427,42.456
129196,150336,12554,0.177,-0.914,-0.24,0.854,0.671,0.427,42.462
129196,150361,38140,0.176,-0.915,-0.24,0.671,0.732,0.244,42.465
129196,150330,12566,0.179,-0.91,-0.237,0.671,0.732,0.244,42.472
129212,150361,38140,0.178,-0.906,-0.233,0.488,0.427,0.244,42.475
129212,150329,12564,0.18,-0.908,-0.23,0.488,0.427,0.244,42.481
129200,150361,38140,0.177,-0.916,-0.235,0.061,0.183,0.488,42.485
129200,150331,12563,0.172,-0.92,-0.239,0.061,0.183,0.488,42.491
129186,150361,38140,0.172,-0.92,-0.239,-0.061,0.488,0.488,42.495
129186,150342,12563,0.175,-0.915,-0.238,-0.061,0.488,0.488,42.501
129205,150361,38140,0.177,-0.909,-0.24,0,0.122,0.305,42.505
129205,150330,12559,0.18,-0.908,-0.243,0,0.122,0.305,42.511
129183,150361,38140,0.175,-0.907,-0.246,0.061,0.366,0.244,42.515
129183,150355,12568,0.176,-0.908,-0.245,0.061,0.366,0.244,42.521
129207,150361,38140,0.176,-0.911,-0.243,0.061,0.549,0.183,42.525
129207,150352,12559,0.175,-0.913,-0.247,0.061,0.549,0.183,42.531
129196,150361,38140,0.174,-0.915,-0.236,0.061,0.427,0.244,42.535
129196,150342,12571,0.175,-0.917,-0.238,0.061,0.427,0.244,42.541
129218,150361,38140,0.177,-0.912,-0.238,0.244,0.366,0.183,42.545
129218,150377,12581,0.178,-0.908,-0.238,0.244,0.366,0.183,42.551
129211,150361,38140,0.178,-0.911,-0.239,0.061,0.366,0.244,42.554
129211,150361,12562,0.177,-0.916,-0.243,0.061,0.366,0.244,42.561
129205,150361,38140,0.179,-0.921,-0.243,0.061,0.549,0.122,42.564
129205,150371,12575,0.181,-0.918,-0.242,0.061,0.549,0.122,42.571
129215,150361,38140,0.181,-0.914,-0.238,0.488,0.427,0,42.574
129215,150347,12566,0.185,-0.912,-0.241,0.488,0.427,0,42.58
129205,150361,38140,0.184,-0.906,-0.242,0.732,0.671,0.366,42.584
129205,150339,12564,0.182,-0.911,-0.238,0.732,0.671,0.366,42.59
129205,150361,38140,0.18,-0.916,-0.234,0.732,0.793,0.427,42.594
129205,150355,12569,0.178,-0.914,-0.236,0.732,0.793,0.427,42.6
129227,150361,38140,0.18,-0.911,-0.232,0.427,0.671,0.488,42.604
129227,150369,12570,0.18,-0.908,-0.229,0.427,0.671,0.488,42.61
129229,150361,38140,0.179,-0.911,-0.235,0.122,0.427,0.61,42.614
129229,150375,12587,0.176,-0.911,-0.237,0.122,0.427,0.61,42.62
129239,150361,38140,0.176,-0.913,-0.242,-0.183,0.488,0.671,42.624
129239,150365,12566,0.176,-0.914,-0.245,-0.183,0.488,0.671,42.63
129209,150361,38140,0.176,-0.915,-0.248,0.122,0.549,0.671,42.634
129209,150357,12572,0.177,-0.916,-0.248,0.122,0.549,0.671,42.64
129197,150361,38140,0.176,-0.914,-0.242,0.732,0.732,0.549,42.644
129197,150358,12579,0.177,-0.91,-0.235,0.732,0.732,0.549,42.65
129185,150361,38140,0.176,-0.908,-0.233,0.732,0.671,0.549,42.653
129185,150332,12573,0.177,-0.906,-0.236,0.732,0.671,0.549,42.66
129182,150361,38140,0.179,-0.913,-0.238,0.305,0.793,0.61,42.663
129182,150328,12580,0.176,-0.917,-0.238,0.305,0.793,0.61,42.67
129184,150361,38140,0.177,-0.918,-0.231,0.244,0.915,0.366,42.673
129184,150345,12564,0.174,-0.914,-0.226,0.244,0.915,0.366,42.679
129203,150361,38140,0.178,-0.911,-0.229,0.244,0.671,0.427,42.683
129203,150335,12564,0.182,-0.912,-0.236,0.244,0.671,0.427,42.689
129178,150361,38140,0.177,-0.91,-0.232,0.122,0.671,0.549,42.693
129178,150355,12575,0.175,-0.913,-0.232,0.122,0.671,0.549,42.699
129182,150361,38140,0.176,-0.91,-0.237,0.061,0.732,0.427,42.703
129182,150356,12577,0.175,-0.906,-0.235,0.061,0.732,0.427,42.709
129188,150361,38140,0.175,-0.905,-0.231,-0.305,0.366,0.427,42.713
129188,150346,12576,0.176,-0.907,-0.236,-0.305,0.366,0.427,42.719
129200,150361,38140,0.176,-0.91,-0.238,-0.671,0.305,0.366,42.723
129200,150344,12554,0.179,-0.913,-0.239,-0.671,0.305,0.366,42.729
129179,150361,38140,0.175,-0.916,-0.24,-0.854,0.427,0.61,42.733
129179,150331,12579,0.172,-0.913,-0.236,-0.854,0.427,0.61,42.739
129231,150361,38140,0.175,-0.908,-0.234,-0.854,0.183,0.671,42.743
129231,150368,12572,0.177,-0.912,-0.231,-0.854,0.183,0.671,42.749
129198,150361,38140,0.177,-0.91,-0.24,-1.037,0.061,0.549,42.752
129198,150348,12581,0.176,-0.913,-0.243,-1.037,0.061,0.549,42.759
129200,150361,38140,0.173,-0.919,-0.244,-1.28,0.244,0.488,42.762
129200,150336,12569,0.174,-0.922,-0.245,-1.28,0.244,0.488,42.769
129196,150361,38140,0.174,-0.924,-0.242,-0.793,0.183,0.366,42.772
129196,150344,12568,0.177,-0.912,-0.24,-0.793,0.183,0.366,42.778
129188,150361,38140,0.176,-0.905,-0.232,-0.305,-0.122,0.305,42.782
129188,150343,12569,0.18,-0.91,-0.233,-0.305,-0.122,0.305,42.788
129189,150361,38140,0.18,-0.917,-0.236,-0.366,-0.122,0.244,42.792
129189,150302,12574,0.178,-0.917,-0.239,-0.366,-0.122,0.244,42.798
129187,150361,38140,0.18,-0.913,-0.245,-0.793,0.183,0.244,42.802
129187,150311,12580,0.182,-0.909,-0.24,-0.793,0.183,0.244,42.808
129161,150361,38140,0.179,-0.909,-0.233,-0.671,0.061,0.366,42.812
129161,150329,12583,0.18,-0.909,-0.235,-0.671,0.061,0.366,42.818
129178,150361,38140,0.18,-0.906,-0.236,-0.732,0.061,0.427,42.822
129178,150310,12573,0.176,-0.907,-0.235,-0.732,0.061,0.427,42.828
129158,150361,38140,0.176,-0.909,-0.235,-1.098,0.122,0.61,42.832
129158,150312,12574,0.179,-0.909,-0.236,-1.098,0.122,0.61,42.838
129170,150361,38140,0.178,-0.91,-0.241,-1.585,-0.122,0.671,42.842
129170,150308,12574,0.179,-0.915,-0.244,-1.585,-0.122,0.671,42.848
129173,150361,38140,0.181,-0.914,-0.244,-1.646,-0.122,0.671,42.851
129173,150308,12584,0.179,-0.915,-0.245,-1.646,-0.122,0.671,42.858
129153,150361,38140,0.179,-0.92,-0.245,-1.28,-0.183,0.488,42.861
129153,150314,12582,0.18,-0.918,-0.255,-1.28,-0.183,0.488,42.868
129176,150361,38140,0.18,-0.918,-0.255,-1.28,-0.183,0.488,42.871
129176,150330,12569,0.173,-0.922,-0.243,-0.671,0.244,0.549,42.877
129160,150361,38140,0.173,-0.922,-0.243,-0.671,0.244,0.549,42.881
129160,150315,12570,0.178,-0.907,-0.236,0.122,0.427,0.549,42.887
129184,150361,38140,0.178,-0.907,-0.236,0.122,0.427,0.549,42.891
129184,150322,12568,0.182,-0.911,-0.238,0.244,0.305,0.305,42.897
129174,150361,38140,0.182,-0.911,-0.238,0.244,0.305,0.305,42.901
129174,150333,12576,0.18,-0.917,-0.239,-0.183,0.61,0.183,42.907
129178,150361,38140,0.18,-0.917,-0.239,-0.183,0.61,0.183,42.911
129178,150353,12573,0.179,-0.91,-0.232,0,0.671,0.244,42.917
129178,150361,38140,0.179,-0.91,-0.232,0,0.671,0.244,42.921
129178,150304,12574,0.177,-0.902,-0.234,-0.122,0.305,0.244,42.927
129162,150361,38140,0.177,-0.902,-0.234,-0.122,0.305,0.244,42.931
129162,150308,12577,0.177,-0.911,-0.248,-0.854,0.488,0.549,42.937
129143,150361,38140,0.177,-0.911,-0.248,-0.854,0.488,0.549,42.941
129143,150339,12571,0.178,-0.915,-0.24,-1.22,0.732,0.732,42.947
129171,150361,38140,0.178,-0.915,-0.24,-1.22,0.732,0.732,42.95
129171,150335,12560,0.176,-0.908,-0.239,-0.854,0.427,0.976,42.957
129164,150361,38140,0.176,-0.908,-0.239,-0.854,0.427,0.976,42.96
129164,150313,12569,0.173,-0.907,-0.241,-0.671,0.427,1.28,42.967
129161,150361,38140,0.173,-0.907,-0.241,-0.671,0.427,1.28,42.97
129161,150323,12580,0.174,-0.915,-0.238,-0.976,0.488,1.159,42.976
129160,150361,38140,0.174,-0.915,-0.238,-0.976,0.488,1.159,42.98
129160,150320,12569,0.176,-0.921,-0.246,-1.402,0.366,0.793,42.986
129142,150361,38140,0.176,-0.921,-0.246,-1.402,0.366,0.793,42.99
129142,150295,12576,0.173,-0.918,-0.246,-1.037,0.305,0.671,42.996
129168,150361,38140,0.173,-0.918,-0.246,-1.037,0.305,0.671,43
129168,150322,12563,0.175,-0.909,-0.244,-0.366,0.183,0.488,43.006
129156,150361,38140,0.175,-0.909,-0.244,-0.366,0.183,0.488,43.01
129156,150357,12573,0.175,-0.91,-0.245,-0.061,0.183,0.488,43.016
129164,150361,38140,0.172,-0.912,-0.242,-0.061,0.183,0.488,43.02
129164,150316,12576,0.176,-0.915,-0.243,-0.061,0.244,0.366,43.026
129164,150361,38140,0.177,-0.914,-0.237,-0.061,0.244,0.366,43.03
129164,150307,12559,0.177,-0.911,-0.233,-0.061,0.244,0.183,43.036
129188,150361,38140,0.177,-0.912,-0.235,-0.061,0.244,0.183,43.04
129188,150326,12587,0.176,-0.914,-0.236,-0.122,0.244,0.122,43.046
129188,150361,38140,0.174,-0.911,-0.238,-0.122,0.244,0.122,43.049
129188,150334,12573,0.18,-0.912,-0.243,-0.183,0.305,0.244,43.056
129163,150361,38140,0.179,-0.915,-0.245,-0.183,0.305,0.244,43.059
129163,150326,12578,0.173,-0.912,-0.243,0,0.427,0.305,43.066
129186,150361,38140,0.174,-0.908,-0.233,0,0.427,0.305,43.069
129186,150329,12582,0.173,-0.91,-0.238,-0.061,0.183,0.488,43.075
129189,150361,38140,0.173,-0.91,-0.234,-0.061,0.183,0.488,43.079
129189,150351,12581,0.176,-0.911,-0.233,-0.366,0,0.488,43.085
129205,150361,38140,0.175,-0.906,-0.237,-0.366,0,0.488,43.089
129205,150337,12571,0.172,-0.907,-0.236,-0.976,-0.183,0.427,43.095
129196,150361,38140,0.172,-0.907,-0.235,-0.976,-0.183,0.427,43.099
129196,150344,12580,0.172,-0.909,-0.235,-1.585,-0.244,0.427,43.105
129191,150361,38140,0.173,-0.916,-0.236,-1.585,-0.244,0.427,43.109
129191,150372,12581,0.174,-0.916,-0.236,-2.012,-0.244,0.244,43.115
129196,150361,38140,0.173,-0.916,-0.241,-2.012,-0.244,0.244,43.119
129196,150351,12572,0.177,-0.915,-0.245,-2.195,-0.183,0.061,43.125
129184,150361,38140,0.176,-0.917,-0.244,-2.195,-0.183,0.061,43.129
129184,150344,12589,0.176,-0.92,-0.25,-2.012,-0.061,0.061,43.135
129199,150361,38140,0.175,-0.917,-0.251,-2.012,-0.061,0.061,43.139
129199,150350,12575,0.174,-0.917,-0.253,-1.159,0,0.061,43.145
129199,150361,38140,0.173,-0.91,-0.248,-1.159,0,0.061,43.148
129199,150343,12578,0.177,-0.905,-0.243,-0.427,-0.183,0.183,43.155
129186,150361,38140,0.177,-0.906,-0.243,-0.427,-0.183,0.183,43.158
129186,150339,12573,0.176,-0.909,-0.248,-0.427,-0.183,0.061,43.164
129175,150361,38140,0.177,-0.911,-0.247,-0.427,-0.183,0.061,43.168
129175,150337,12579,0.177,-0.906,-0.245,-0.671,0.183,-0.061,43.174
129164,150361,38140,0.177,-0.908,-0.239,-0.671,0.183,-0.061,43.178
129164,150347,12575,0.178,-0.909,-0.237,-0.976,0.122,0.061,43.184
129159,150361,38140,0.181,-0.91,-0.24,-0.976,0.122,0.061,43.188
129159,150323,12587,0.185,-0.912,-0.236,-1.22,0.183,0.122,43.194
129145,150361,38140,0.184,-0.911,-0.243,-1.22,0.183,0.122,43.198
129145,150327,12581,0.178,-0.912,-0.246,-1.098,0.549,0.305,43.204
129141,150361,38140,0.179,-0.915,-0.243,-1.098,0.549,0.305,43.208
129141,150326,12574,0.178,-0.908,-0.242,-0.488,0.61,0.61,43.214
129179,150361,38140,0.172,-0.905,-0.248,-0.488,0.61,0.61,43.218
129179,150319,12579,0.176,-0.905,-0.245,-0.366,0.305,0.854,43.224
129139,150361,38140,0.175,-0.908,-0.242,-0.366,0.305,0.854,43.228
129139,150309,12581,0.179,-0.91,-0.246,-0.549,0.183,0.793,43.234
129154,150361,38140,0.177,-0.913,-0.245,-0.549,0.183,0.793,43.238
129154,150333,12578,0.178,-0.916,-0.243,-0.671,0.305,0.915,43.244
129152,150361,38140,0.174,-0.917,-0.244,-0.671,0.305,0.915,43.247
129152,150328,12582,0.176,-0.915,-0.245,-0.488,0.488,0.854,43.254
129144,150361,38140,0.176,-0.912,-0.238,-0.488,0.488,0.854,43.257
129144,150344,12578,0.179,-0.911,-0.24,-0.427,0.305,0.793,43.263
129175,150361,38140,0.182,-0.911,-0.246,-0.427,0.305,0.793,43.267
129175,150321,12580,0.173,-0.921,-0.249,-0.671,0.427,0.61,43.273
129134,150361,38140,0.172,-0.925,-0.25,-0.671,0.427,0.61,43.277
129134,150334,12577,0.171,-0.923,-0.244,-0.122,0.732,0.305,43.283
129125,150361,38140,0.172,-0.917,-0.235,-0.122,0.732,0.305,43.287
129125,150295,12569,0.178,-0.904,-0.236,0.488,0.427,0.366,43.293
129126,150361,38140,0.178,-0.9,-0.236,0.488,0.427,0.366,43.297
129126,150281,12581,0.176,-0.905,-0.235,0.305,0.244,0.366,43.303
129117,150361,38140,0.173,-0.916,-0.242,0.305,0.244,0.366,43.307
129117,150296,12564,0.172,-0.914,-0.248,-0.183,0.732,0.366,43.313
129116,150361,38140,0.175,-0.91,-0.252,-0.183,0.732,0.366,43.317
129116,150310,12578,0.178,-0.902,-0.25,-0.305,0.793,0.61,43.323
129111,150361,38140,0.176,-0.907,-0.244,-0.305,0.793,0.61,43.327
129111,150287,12569,0.178,-0.908,-0.241,0,0.488,0.671,43.333
129114,150361,38140,0.175,-0.91,-0.243,0,0.488,0.671,43.337
129114,150287,12579,0.173,-0.911,-0.243,-0.427,0.61,0.732,43.343
129120,150361,38140,0.175,-0.914,-0.242,-0.427,0.61,0.732,43.346
129120,150318,12571,0.173,-0.916,-0.243,-0.61,0.671,0.793,43.353
129123,150361,38140,0.172,-0.918,-0.24,-0.61,0.671,0.793,43.356
129123,150305,12586,0.172,-0.913,-0.232,-0.427,0.305,0.671,43.362
129122,150361,38140,0.175,-0.904,-0.232,-0.427,0.305,0.671,43.366
129122,150289,12573,0.177,-0.902,-0.232,-1.098,0,0.671,43.372
129099,150361,38140,0.174,-0.909,-0.242,-1.098,0,0.671,43.376
129099,150293,12572,0.173,-0.92,-0.251,-1.646,0.183,0.549,43.382
129097,150105,38140,0.17,-0.92,-0.252,-1.646,0.183,0.549,43.386
129097,150270,12593,0.172,-0.921,-0.252,-1.646,0.305,0.305,43.392
129104,150361,38140,0.173,-0.914,-0.25,-1.646,0.305,0.305,43.396
129104,150289,12578,0.176,-0.909,-0.244,-0.976,0,0.183,43.402
129115,150361,38140,0.178,-0.907,-0.242,-0.976,0,0.183,43.406
129115,150294,12577,0.175,-0.911,-0.239,-0.671,-0.061,0.305,43.412
129130,150361,38140,0.174,-0.914,-0.241,-0.671,-0.061,0.305,43.416
129130,150308,12559,0.174,-0.917,-0.242,-0.793,0.122,0.183,43.422
129145,150361,38140,0.175,-0.914,-0.25,-0.793,0.122,0.183,43.426
129145,150276,12582,0.173,-0.91,-0.254,-0.549,0.244,0.305,43.432
129111,150361,38140,0.174,-0.904,-0.239,-0.549,0.244,0.305,43.436
129111,150294,12593,0.177,-0.906,-0.236,-0.427,-0.244,0.305,43.442
129096,150361,38140,0.179,-0.91,-0.243,-0.427,-0.244,0.305,43.445
129096,150301,12568,0.177,-0.911,-0.248,-0.671,-0.122,0.305,43.452
129124,150361,38140,0.177,-0.911,-0.248,-0.671,-0.122,0.305,43.455
129124,150287,12576,0.175,-0.917,-0.252,-0.427,0.244,0.305,43.461
129093,150105,38140,0.175,-0.917,-0.252,-0.427,0.244,0.305,43.465
129093,150269,12574,0.172,-0.909,-0.247,-0.061,0.183,0.305,43.471
129101,150361,38140,0.172,-0.909,-0.247,-0.061,0.183,0.305,43.475
129101,150299,12571,0.179,-0.911,-0.242,-0.122,0.244,0.244,43.481
129105,150361,38140,0.179,-0.911,-0.242,-0.122,0.244,0.244,43.485
129105,150302,12590,0.176,-0.912,-0.236,-0.122,0.549,0.061,43.491
129114,150361,38140,0.176,-0.912,-0.236,-0.122,0.549,0.061,43.495
129114,150273,12564,0.177,-0.908,-0.238,-0.427,0.427,0.061,43.501
129112,150361,38140,0.177,-0.908,-0.238,-0.427,0.427,0.061,43.505
129112,150299,12572,0.179,-0.908,-0.245,-0.671,0.366,0.183,43.511
129114,150361,38140,0.179,-0.908,-0.245,-0.671,0.366,0.183,43.515
129114,150315,12573,0.176,-0.91,-0.24,-0.732,0.305,0.183,43.521
129117,150361,38140,0.176,-0.91,-0.24,-0.732,0.305,0.183,43.525
129117,150296,12573,0.179,-0.905,-0.246,-1.159,0.305,0.427,43.531
129124,150361,38140,0.179,-0.905,-0.246,-1.159,0.305,0.427,43.534
129124,150292,12568,0.18,-0.912,-0.253,-1.341,0.488,0.671,43.541
129120,150361,38140,0.18,-0.912,-0.253,-1.341,0.488,0.671,43.544
129120,150306,12560,0.172,-0.914,-0.246,-1.22,0.488,0.854,43.551
129131,150361,38140,0.172,-0.914,-0.246,-1.22,0.488,0.854,43.554
129131,150330,12593,0.173,-0.913,-0.25,-0.732,0.61,0.976,43.56
129112,150361,38140,0.173,-0.913,-0.25,-0.732,0.61,0.976,43.564
129112,150284,12582,0.167,-0.914,-0.249,-0.305,0.732,0.732,43.57
129093,150361,38140,0.167,-0.914,-0.249,-0.305,0.732,0.732,43.574
129093,150310,12576,0.173,-0.908,-0.241,-0.183,0.488,0.488,43.58
129123,150361,38140,0.173,-0.908,-0.241,-0.183,0.488,0.488,43.584
129123,150303,12580,0.172,-0.915,-0.244,-0.793,0.183,0.305,43.59
129146,150361,38140,0.172,-0.915,-0.244,-0.793,0.183,0.305,43.594
129146,150306,12571,0.172,-0.923,-0.25,-0.793,0.183,0.305,43.6
129119,150361,38140,0.172,-0.924,-0.251,-0.61,0.244,0.122,43.604
129119,150300,12587,0.173,-0.915,-0.258,-0.61,0.244,0.122,43.61
129124,150361,38140,0.176,-0.905,-0.252,0.244,0.183,0.122,43.614
129124,150324,12574,0.176,-0.905,-0.251,0.244,0.183,0.122,43.62
129116,150361,38140,0.175,-0.907,-0.253,0.488,0.244,0.244,43.624
129116,150302,12580,0.174,-0.911,-0.251,0.488,0.244,0.244,43.63
129132,150361,38140,0.176,-0.912,-0.249,0.549,0.61,0.061,43.633
129132,150334,12582,0.177,-0.911,-0.24,0.549,0.61,0.061,43.64
129119,150361,38140,0.176,-0.909,-0.238,0.549,0.61,0.061,43.643
129119,150303,12574,0.179,-0.911,-0.235,0.549,0.61,0.061,43.65
129120,150361,38140,0.177,-0.908,-0.234,0.183,0.366,0.122,43.653
129120,150305,12567,0.175,-0.906,-0.239,0.183,0.366,0.122,43.659
129130,150361,38140,0.17,-0.912,-0.239,-0.305,0.427,0.183,43.663
129130,150302,12579,0.171,-0.919,-0.244,-0.305,0.427,0.183,43.669
129126,150361,38140,0.167,-0.918,-0.244,-0.549,0.488,0.061,43.673
129126,150330,12585,0.169,-0.912,-0.247,-0.549,0.488,0.061,43.679
129129,150361,38140,0.174,-0.911,-0.243,-0.427,0.244,-0.183,43.683
129129,150329,12582,0.174,-0.913,-0.245,-0.427,0.244,-0.183,43.689
129155,150361,38140,0.175,-0.914,-0.247,-0.061,-0.061,-0.305,43.693
129155,150350,12573,0.176,-0.912,-0.246,-0.061,-0.061,-0.305,43.699
129145,150361,38140,0.173,-0.911,-0.249,0.061,0.061,-0.183,43.703
129145,150340,12578,0.178,-0.906,-0.251,0.061,0.061,-0.183,43.709
129160,150361,38140,0.178,-0.903,-0.248,0.244,0.061,-0.183,43.713
129160,150357,12584,0.174,-0.906,-0.245,0.244,0.061,-0.183,43.719
129140,150361,38140,0.173,-0.912,-0.241,0.183,0,0,43.723
129140,150310,12582,0.173,-0.907,-0.24,0.183,0,0,43.729
129136,150361,38140,0.178,-0.906,-0.243,-0.305,0,-0.244,43.732
129136,150326,12602,0.178,-0.91,-0.243,-0.305,0,-0.244,43.739
129181,150361,38140,0.175,-0.92,-0.247,-0.915,-0.061,-0.305,43.742
129181,150334,12588,0.175,-0.926,-0.255,-0.915,-0.061,-0.305,43.749
129147,150361,38140,0.177,-0.922,-0.257,-0.61,0.305,-0.366,43.752
129147,150324,12597,0.175,-0.912,-0.255,-0.61,0.305,-0.366,43.758
129145,150361,38140,0.177,-0.907,-0.249,0.061,0.122,-0.366,43.762
129145,150330,12589,0.181,-0.911,-0.247,0.061,0.122,-0.366,43.768
129154,150361,38140,0.182,-0.909,-0.251,0.366,0.122,-0.366,43.772
129154,150353,12583,0.183,-0.911,-0.247,0.366,0.122,-0.366,43.778
129160,150361,38140,0.185,-0.911,-0.242,0.732,0.366,-0.305,43.782
129160,150331,12589,0.181,-0.908,-0.241,0.732,0.366,-0.305,43.788
129165,150361,38140,0.181,-0.906,-0.233,0.976,0.366,0.122,43.792
129165,150336,12587,0.182,-0.904,-0.238,0.976,0.366,0.122,43.798
129166,150361,38140,0.179,-0.906,-0.239,0.488,0.427,0.183,43.802
129166,150348,12574,0.177,-0.91,-0.239,0.488,0.427,0.183,43.808
129153,150361,38140,0.181,-0.911,-0.248,0.183,0.549,0.305,43.812
129153,150319,12611,0.179,-0.911,-0.249,0.183,0.549,0.305,43.818
129180,150361,38140,0.176,-0.912,-0.249,0.061,0.671,0.488,43.822
129180,150344,12574,0.174,-0.911,-0.25,0.061,0.671,0.488,43.828
129177,150361,38140,0.173,-0.909,-0.243,0.366,0.61,0.488,43.831
129177,150355,12598,0.177,-0.908,-0.24,0.366,0.61,0.488,43.838
129202,150361,38140,0.178,-0.906,-0.24,0.427,0.488,0.549,43.841
129202,150368,12604,0.18,-0.908,-0.239,0.427,0.488,0.549,43.848
129193,150361,38140,0.178,-0.908,-0.238,0.061,0.366,0.488,43.851
129193,150364,12589,0.178,-0.914,-0.244,0.061,0.366,0.488,43.857
129178,150361,38140,0.176,-0.917,-0.249,-0.183,0.427,0.488,43.861
129178,150364,12597,0.177,-0.911,-0.242,-0.183,0.427,0.488,43.867
129212,150361,38140,0.18,-0.909,-0.245,0.122,0.427,0.427,43.871
129212,150364,12598,0.181,-0.907,-0.242,0.122,0.427,0.427,43.877
129194,150361,38140,0.18,-0.911,-0.244,0.122,0.427,0.427,43.881
129194,150350,12580,0.175,-0.917,-0.243,0.122,0.427,0.427,43.887
129178,150361,38140,0.174,-0.919,-0.245,0.061,0.854,0.244,43.891
129178,150370,12594,0.174,-0.92,-0.244,0.061,0.854,0.244,43.897
129167,150361,38140,0.176,-0.912,-0.24,0.549,0.732,0.244,43.901
129167,150352,12587,0.175,-0.908,-0.236,0.549,0.732,0.244,43.907
129182,150361,38140,0.175,-0.908,-0.247,0.488,0.366,0.305,43.911
129182,150345,12575,0.179,-0.909,-0.251,0.488,0.366,0.305,43.917
129157,150361,38140,0.176,-0.914,-0.248,0,0.671,0.183,43.921
129157,150350,12594,0.173,-0.918,-0.25,0,0.671,0.183,43.927
129176,150361,38140,0.177,-0.913,-0.251,0.061,0.671,0.244,43.93
129176,150358,12590,0.176,-0.909,-0.245,0.061,0.671,0.244,43.937
129195,150361,38140,0.177,-0.908,-0.235,0.366,0.427,0.305,43.94
129195,150336,12609,0.178,-0.905,-0.234,0.366,0.427,0.305,43.947
129205,150361,38140,0.174,-0.904,-0.234,-0.122,0.366,0.305,43.95
129205,150369,12598,0.176,-0.909,-0.24,-0.122,0.366,0.305,43.956
129195,150361,38140,0.174,-0.915,-0.245,-0.732,0.671,0.305,43.96
129195,150368,12597,0.174,-0.918,-0.247,-0.732,0.671,0.305,43.966
129204,150361,38140,0.175,-0.917,-0.245,-0.732,0.488,0.122,43.97
129204,150371,12596,0.177,-0.916,-0.241,-0.732,0.488,0.122,43.976
129199,150361,38140,0.18,-0.908,-0.244,-0.427,0.183,0.244,43.98
129199,150343,12602,0.18,-0.909,-0.24,-0.427,0.183,0.244,43.986
129186,150361,38140,0.177,-0.909,-0.239,-0.366,0.122,0.244,43.99
129186,150350,12594,0.178,-0.913,-0.244,-0.366,0.122,0.244,43.996
129197,150361,38140,0.179,-0.917,-0.245,-0.488,0.183,0,44
129197,150337,12604,0.176,-0.919,-0.247,-0.488,0.183,0,44.006
129208,150361,38140,0.175,-0.914,-0.249,-0.305,0.122,-0.061,44.01
129208,150347,12591,0.177,-0.905,-0.248,-0.305,0.122,-0.061,44.016
129194,150361,38140,0.178,-0.906,-0.238,-0.061,0.061,0.183,44.02
129194,150358,12596,0.178,-0.909,-0.244,-0.061,0.061,0.183,44.026
129176,150361,38140,0.176,-0.91,-0.244,0,0.122,0.183,44.029
129176,150397,12602,0.175,-0.908,-0.243,0,0.122,0.183,44.036
129195,150361,38140,0.175,-0.908,-0.243,0,0.122,0.183,44.039
129195,150366,12586,0.178,-0.913,-0.245,-0.183,0.305,0.244,44.046
129221,150361,38140,0.178,-0.913,-0.245,-0.183,0.305,0.244,44.049
129221,150358,12609,0.178,-0.911,-0.246,-0.061,0.305,0.305,44.055
129209,150361,38140,0.178,-0.911,-0.246,-0.061,0.305,0.305,44.059
129209,150362,12591,0.174,-0.911,-0.247,0.183,0.427,0.427,44.065
129208,150361,38140,0.174,-0.911,-0.247,0.183,0.427,0.427,44.069
129208,150385,12601,0.176,-0.913,-0.25,0.366,0.549,0.427,44.075
129206,150361,38140,0.176,-0.913,-0.25,0.366,0.549,0.427,44.079
129206,150365,12596,0.179,-0.908,-0.24,0.61,0.61,0.366,44.085
129193,150361,38140,0.179,-0.908,-0.24,0.61,0.61,0.366,44.089
129193,150363,12607,0.18,-0.913,-0.239,0.732,0.366,0.427,44.095
129201,150361,38140,0.18,-0.913,-0.239,0.732,0.366,0.427,44.099
129201,150369,12598,0.177,-0.916,-0.236,0.488,0.671,0.366,44.105
129202,150361,38140,0.177,-0.916,-0.236,0.488,0.671,0.366,44.109
129202,150367,12585,0.181,-0.912,-0.237,0.549,0.915,0,44.115
129218,150361,38140,0.181,-0.912,-0.237,0.549,0.915,0,44.119
129218,150337,12601,0.179,-0.903,-0.24,0.488,0.793,0.061,44.125
129185,150361,38140,0.179,-0.903,-0.24,0.488,0.793,0.061,44.128
129185,150362,12596,0.177,-0.91,-0.246,-0.183,0.671,0.305,44.135
129189,150361,38140,0.177,-0.91,-0.246,-0.183,0.671,0.305,44.138
129189,150362,12601,0.179,-0.916,-0.243,-0.61,0.854,0.427,44.144
129202,150361,38140,0.179,-0.916,-0.243,-0.61,0.854,0.427,44.148
129202,150360,12583,0.174,-0.911,-0.248,-0.305,0.793,0.488,44.154
129196,150361,38140,0.174,-0.911,-0.248,-0.305,0.793,0.488,44.158
129196,150367,12594,0.176,-0.903,-0.244,0.244,0.732,0.732,44.164
129187,150361,38140,0.176,-0.903,-0.244,0.244,0.732,0.732,44.168
129187,150344,12606,0.174,-0.907,-0.24,0.183,0.671,0.671,44.174
129178,150361,38140,0.172,-0.913,-0.238,0.183,0.671,0.671,44.178
129178,150343,12608,0.179,-0.916,-0.24,-0.305,0.549,0.366,44.184
129170,150361,38140,0.18,-0.921,-0.242,-0.305,0.549,0.366,44.188
129170,150365,12594,0.177,-0.922,-0.242,-0.305,0.427,0.122,44.194
129196,150361,38140,0.179,-0.919,-0.243,-0.305,0.427,0.122,44.198
129196,150342,12595,0.177,-0.915,-0.246,0.183,0.488,0.183,44.204
129201,150361,38140,0.174,-0.914,-0.249,0.183,0.488,0.183,44.208
129201,150384,12598,0.178,-0.908,-0.251,0.732,0.61,0.183,44.214
129194,150361,38140,0.178,-0.907,-0.251,0.732,0.61,0.183,44.217
129194,150347,12591,0.179,-0.912,-0.247,0.976,0.671,0.061,44.224
129182,150361,38140,0.179,-0.913,-0.243,0.976,0.671,0.061,44.227
129182,150360,12600,0.179,-0.908,-0.241,1.159,0.732,0.122,44.234
129176,150361,38140,0.179,-0.903,-0.237,1.159,0.732,0.122,44.237
129176,150378,12596,0.18,-0.902,-0.239,1.098,0.671,0.244,44.243
129215,150361,38140,0.179,-0.905,-0.235,1.098,0.671,0.244,44.247
129215,150370,12607,0.178,-0.909,-0.239,0.732,0.793,0.366,44.253
129211,150361,38140,0.177,-0.914,-0.236,0.732,0.793,0.366,44.257
129211,150390,12598,0.174,-0.911,-0.231,0.366,0.793,0.366,44.263
129217,150361,38140,0.178,-0.908,-0.237,0.366,0.793,0.366,44.267
129217,150401,12597,0.18,-0.907,-0.242,-0.061,0.488,0.366,44.273
129225,150361,38140,0.176,-0.91,-0.24,-0.061,0.488,0.366,44.277
129225,150406,12611,0.174,-0.917,-0.246,-0.244,0.366,0.305,44.283
129231,150361,38140,0.175,-0.919,-0.249,-0.244,0.366,0.305,44.287
129231,150398,12600,0.177,-0.917,-0.24,-0.061,0.488,0.183,44.293
129239,150361,38140,0.177,-0.913,-0.244,-0.061,0.488,0.183,44.297
129239,150382,12613,0.178,-0.91,-0.245,0.305,0.244,0.122,44.303
129250,150361,38140,0.179,-0.91,-0.238,0.305,0.244,0.122,44.307
129250,150397,12604,0.181,-0.908,-0.239,0.061,0.244,0.305,44.313
129228,150361,38140,0.178,-0.911,-0.239,0.061,0.244,0.305,44.316
129228,150395,12609,0.176,-0.911,-0.238,-0.183,0.305,0.183,44.323
129216,150361,38140,0.177,-0.914,-0.245,-0.183,0.305,0.183,44.326
129216,150395,12593,0.175,-0.913,-0.242,-0.305,0.244,0.305,44.333
129234,150361,38140,0.176,-0.916,-0.241,-0.305,0.244,0.305,44.336
129234,150388,12603,0.177,-0.913,-0.243,-0.183,0.122,0.183,44.342
129226,150361,38140,0.176,-0.912,-0.245,-0.183,0.122,0.183,44.346
129226,150386,12603,0.176,-0.911,-0.242,0,0.244,0.183,44.352
129251,150361,38140,0.172,-0.909,-0.239,0,0.244,0.183,44.356
129251,150392,12605,0.174,-0.91,-0.234,0.061,0.183,0.122,44.362
129209,150361,38140,0.177,-0.909,-0.235,0.061,0.183,0.122,44.366
129209,150393,12606,0.18,-0.91,-0.237,-0.366,0.061,0,44.372
129230,150361,38140,0.18,-0.913,-0.24,-0.366,0.061,0,44.376
129230,150391,12617,0.178,-0.914,-0.242,-0.671,0.366,0.061,44.382
129222,150361,38140,0.179,-0.913,-0.243,-0.671,0.366,0.061,44.386
129222,150380,12618,0.182,-0.908,-0.245,-0.366,0.488,0.183,44.392
129233,150361,38140,0.18,-0.907,-0.25,-0.366,0.488,0.183,44.396
129233,150400,12616,0.178,-0.912,-0.247,-0.061,0.488,0.305,44.402
129251,150361,38140,0.18,-0.911,-0.24,-0.061,0.488,0.305,44.406
129251,150402,12598,0.178,-0.912,-0.24,0.183,0.549,0.366,44.412
129257,150361,38140,0.179,-0.912,-0.243,0.183,0.549,0.366,44.415
129257,150427,12616,0.178,-0.911,-0.243,-0.122,0.427,0.366,44.422
129274,150361,38140,0.177,-0.919,-0.238,-0.122,0.427,0.366,44.425
129274,150422,12616,0.179,-0.922,-0.238,-0.183,0.244,0.427,44.432
129285,150361,38140,0.18,-0.918,-0.24,-0.183,0.244,0.427,44.435
129285,150422,12611,0.18,-0.914,-0.241,-0.061,0.244,0.366,44.441
129277,150361,38140,0.182,-0.912,-0.238,-0.061,0.244,0.366,44.445
129277,150430,12616,0.18,-0.911,-0.238,0.122,0.244,0.305,44.451
129275,150361,38140,0.18,-0.909,-0.236,0.122,0.244,0.305,44.455
129275,150392,12624,0.18,-0.906,-0.239,0.061,0.366,0.427,44.461
129262,150361,38140,0.181,-0.906,-0.24,0.061,0.366,0.427,44.465
129262,150407,12610,0.181,-0.907,-0.243,-0.244,0.366,0.366,44.471
129250,150361,38140,0.178,-0.909,-0.241,-0.244,0.366,0.366,44.475
129250,150412,12616,0.175,-0.911,-0.242,-0.183,0.549,0.305,44.481
129264,150361,38140,0.175,-0.913,-0.241,-0.183,0.549,0.305,44.485
129264,150412,12616,0.177,-0.912,-0.241,0,0.732,0.305,44.491
129235,150361,38140,0.18,-0.911,-0.235,0,0.732,0.305,44.495
129235,150408,12623,0.181,-0.91,-0.235,-0.061,0.549,0.305,44.501
129245,150361,38140,0.182,-0.913,-0.243,-0.061,0.549,0.305,44.505
129245,150399,12613,0.179,-0.914,-0.238,-0.122,0.671,0.427,44.511
129231,150361,38140,0.175,-0.913,-0.241,-0.122,0.671,0.427,44.514
129231,150413,12602,0.178,-0.912,-0.239,-0.244,0.488,0.488,44.521
129225,150361,38140,0.178,-0.909,-0.241,-0.244,0.488,0.488,44.524
129225,150397,12626,0.181,-0.905,-0.239,-0.366,0.305,0.366,44.531
129248,150361,38140,0.18,-0.905,-0.237,-0.366,0.305,0.366,44.534
129248,150392,12620,0.178,-0.908,-0.241,-0.549,0.244,0.488,44.54
129235,150361,38140,0.175,-0.917,-0.245,-0.549,0.244,0.488,44.544
129235,150415,12602,0.178,-0.915,-0.24,-0.854,0.366,0.549,44.55
129250,150361,38140,0.179,-0.91,-0.238,-0.854,0.366,0.549,44.554
129250,150406,12625,0.178,-0.91,-0.242,-0.976,0.183,0.549,44.56
129275,150361,38140,0.178,-0.916,-0.244,-0.976,0.183,0.549,44.564
129275,150412,12610,0.177,-0.923,-0.244,-0.793,0.244,0.549,44.57
129245,150361,38140,0.179,-0.918,-0.25,-0.793,0.244,0.549,44.574
129245,150391,12617,0.179,-0.918,-0.248,-0.305,0.427,0.549,44.58
129246,150361,38140,0.179,-0.915,-0.246,-0.305,0.427,0.549,44.584
129246,150377,12607,0.175,-0.909,-0.24,0.366,0.305,0.61,44.59
129232,150361,38140,0.178,-0.906,-0.244,0.366,0.305,0.61,44.594
129232,150383,12603,0.18,-0.904,-0.242,0.61,0.549,0.61,44.6
129231,150361,38140,0.177,-0.906,-0.24,0.61,0.549,0.61,44.604
129231,150410,12602,0.178,-0.906,-0.24,0.427,0.732,0.671,44.61
129227,150361,38140,0.178,-0.906,-0.24,0.427,0.732,0.671,44.613
129227,150369,12613,0.172,-0.903,-0.235,0,0.732,0.854,44.62
129229,150361,38140,0.172,-0.903,-0.235,0,0.732,0.854,44.623
129229,150389,12615,0.178,-0.896,-0.229,-0.488,0.305,0.915,44.63
129222,150361,38140,0.178,-0.896,-0.229,-0.488,0.305,0.915,44.633
129222,150383,12611,0.176,-0.914,-0.239,-1.524,0.122,0.793,44.639
129220,150361,38140,0.176,-0.914,-0.239,-1.524,0.122,0.793,44.643
129220,150380,12602,0.174,-0.923,-0.243,-1.585,0.305,0.549,44.649
129222,150361,38140,0.174,-0.923,-0.243,-1.585,0.305,0.549,44.653
129222,150391,12608,0.18,-0.923,-0.249,-1.402,0.061,0.366,44.659
129237,150361,38140,0.18,-0.923,-0.249,-1.402,0.061,0.366,44.663
129237,150379,12608,0.176,-0.92,-0.255,-0.61,0.366,0.061,44.669
129239,150361,38140,0.176,-0.92,-0.255,-0.61,0.366,0.061,44.673
129239,150422,12614,0.179,-0.92,-0.247,0.488,0.732,0.061,44.679
129247,150361,38140,0.179,-0.92,-0.247,0.488,0.732,0.061,44.683
129247,150381,12606,0.173,-0.912,-0.241,1.098,0.732,0.183,44.689
129236,150361,38140,0.173,-0.912,-0.241,1.098,0.732,0.183,44.693
129236,150381,12609,0.179,-0.904,-0.236,1.28,0.488,0.122,44.699
129199,150361,38140,0.179,-0.904,-0.236,1.28,0.488,0.122,44.703
129199,150354,12605,0.178,-0.913,-0.239,0.976,0.61,0.183,44.709
129229,150361,38140,0.178,-0.913,-0.239,0.976,0.61,0.183,44.712
129229,150385,12602,0.176,-0.909,-0.239,0.854,0.793,0.122,44.719
129191,150361,38140,0.176,-0.909,-0.239,0.854,0.793,0.122,44.722
129191,150374,12604,0.178,-0.897,-0.232,0.732,0.488,0.305,44.729
129185,150361,38140,0.178,-0.897,-0.232,0.732,0.488,0.305,44.732
129185,150394,12615,0.175,-0.902,-0.236,0,0.61,0.549,44.738
129194,150361,38140,0.175,-0.902,-0.236,0,0.61,0.549,44.742
129194,150350,12607,0.173,-0.913,-0.236,-0.793,0.671,0.549,44.748
129187,150361,38140,0.173,-0.913,-0.236,-0.793,0.671,0.549,44.752
129187,150374,12607,0.176,-0.912,-0.233,-0.793,0.671,0.549,44.758
129205,150361,38140,0.172,-0.914,-0.236,-1.098,0.305,0.549,44.762
129205,150344,12600,0.174,-0.915,-0.24,-1.098,0.305,0.549,44.768
129194,150361,38140,0.172,-0.913,-0.24,-1.28,0.122,0.488,44.772
129194,150363,12598,0.173,-0.914,-0.245,-1.28,0.122,0.488,44.778
129176,150361,38140,0.174,-0.916,-0.243,-1.22,0.244,0.366,44.782
129176,150322,12600,0.175,-0.915,-0.246,-1.22,0.244,0.366,44.788
129185,150361,38140,0.178,-0.917,-0.248,-1.037,0.061,0.122,44.792
129185,150366,12611,0.178,-0.912,-0.248,-1.037,0.061,0.122,44.798
129189,150361,38140,0.18,-0.909,-0.245,-0.854,-0.061,0,44.802
129189,150344,12591,0.178,-0.912,-0.246,-0.854,-0.061,0,44.808
129157,150361,38140,0.177,-0.913,-0.245,-0.488,0,-0.122,44.811
129157,150341,12609,0.176,-0.91,-0.248,-0.488,0,-0.122,44.818
129186,150361,38140,0.177,-0.914,-0.242,-0.305,0.061,-0.122,44.821
129186,150340,12590,0.179,-0.914,-0.239,-0.305,0.061,-0.122,44.827
129167,150361,38140,0.183,-0.908,-0.242,0.122,-0.122,-0.061,44.831
129167,150328,12594,0.182,-0.906,-0.241,0.122,-0.122,-0.061,44.837
129163,150361,38140,0.182,-0.908,-0.239,-0.061,-0.061,0,44.841
129163,150335,12589,0.182,-0.91,-0.241,-0.061,-0.061,0,44.847
129163,150361,38140,0.177,-0.911,-0.245,-0.305,0.305,0.061,44.851
129163,150337,12600,0.177,-0.914,-0.246,-0.305,0.305,0.061,44.857
129181,150361,38140,0.18,-0.916,-0.25,-0.061,0.488,0.122,44.861
129181,150342,12594,0.18,-0.916,-0.25,-0.061,0.488,0.122,44.867
129173,150361,38140,0.182,-0.916,-0.248,0.488,0.427,0.244,44.871
129173,150356,12595,0.179,-0.919,-0.25,0.488,0.427,0.244,44.877
129174,150361,38140,0.179,-0.921,-0.247,0.854,0.61,0.244,44.881
129174,150355,12591,0.177,-0.923,-0.243,0.854,0.61,0.244,44.887
129191,150361,38140,0.175,-0.919,-0.241,1.402,0.61,0.244,44.891
129191,150373,12607,0.177,-0.909,-0.237,1.402,0.61,0.244,44.897
129219,150361,38140,0.181,-0.908,-0.238,1.402,0.549,0.244,44.901
129219,150371,12604,0.181,-0.906,-0.243,1.402,0.549,0.244,44.907
129216,150361,38140,0.176,-0.905,-0.238,1.098,0.793,0.305,44.91
129216,150398,12610,0.174,-0.912,-0.236,1.098,0.793,0.305,44.917
129256,150361,38140,0.175,-0.909,-0.237,0.61,0.671,0.183,44.92
129256,150405,12605,0.176,-0.907,-0.239,0.61,0.671,0.183,44.926
129255,150361,38140,0.177,-0.906,-0.241,0.122,0.488,0.366,44.93
129255,150387,12624,0.174,-0.908,-0.242,0.122,0.488,0.366,44.936
129288,150361,38140,0.175,-0.914,-0.242,0,0.427,0.427,44.94
129288,150439,12617,0.174,-0.912,-0.244,0,0.427,0.427,44.946
129299,150361,38140,0.176,-0.911,-0.242,-0.244,0.244,0.366,44.95
129299,150421,12599,0.18,-0.914,-0.248,-0.244,0.244,0.366,44.956
129282,150361,38140,0.176,-0.915,-0.243,0.061,0.244,0.427,44.96
129282,150403,12644,0.175,-0.915,-0.24,0.061,0.244,0.427,44.966
129246,150361,38140,0.174,-0.915,-0.238,0.305,0.244,0.244,44.97
129246,150415,12610,0.177,-0.912,-0.236,0.305,0.244,0.244,44.976
129239,150361,38140,0.179,-0.909,-0.237,0.061,0.061,0.122,44.98
129239,150368,12586,0.181,-0.907,-0.24,0.061,0.061,0.122,44.986
129212,150361,38140,0.181,-0.911,-0.241,-0.366,0.122,-0.122,44.99
129212,150380,12588,0.18,-0.915,-0.248,-0.366,0.122,-0.122,44.996
129214,150361,38140,0.178,-0.915,-0.25,-0.122,0.366,-0.183,44.999
129214,150379,12594,0.178,-0.913,-0.249,-0.122,0.366,-0.183,45.006
129164,150361,38140,0.182,-0.91,-0.247,0.549,0.427,-0.061,45.009
129164,150346,12596,0.183,-0.908,-0.243,0.549,0.427,-0.061,45.016
129188,150361,38140,0.185,-0.908,-0.243,1.098,0.305,0.122,45.019
129188,150347,12599,0.182,-0.913,-0.241,1.098,0.305,0.122,45.025
129154,150361,38140,0.178,-0.914,-0.234,1.098,0.427,0.366,45.029
129154,150355,12595,0.176,-0.91,-0.231,1.098,0.427,0.366,45.035
129191,150361,38140,0.176,-0.903,-0.227,0.732,0.244,0.549,45.039
129191,150331,12602,0.181,-0.9,-0.236,0.732,0.244,0.549,45.045
129180,150361,38140,0.181,-0.906,-0.241,0.122,0.061,0.61,45.049
129180,150344,12602,0.176,-0.916,-0.239,0.122,0.061,0.61,45.055
129148,150361,38140,0.176,-0.918,-0.246,-0.427,0.366,0.305,45.059
129148,150330,12598,0.173,-0.915,-0.247,-0.427,0.366,0.305,45.065
129113,150361,38140,0.177,-0.915,-0.245,-0.183,0.488,0.244,45.069
129113,150331,12586,0.178,-0.915,-0.239,-0.183,0.488,0.244,45.075
129132,150361,38140,0.178,-0.912,-0.235,0.244,0.244,0.183,45.079
129132,150284,12590,0.179,-0.91,-0.235,0.244,0.244,0.183,45.085
129094,150361,38140,0.182,-0.907,-0.239,0.244,0.244,0.305,45.089
129094,150280,12596,0.178,-0.913,-0.24,0.244,0.244,0.305,45.095
129091,150361,38140,0.176,-0.914,-0.238,0.244,0.427,0.305,45.098
129091,150311,12579,0.178,-0.911,-0.239,0.244,0.427,0.305,45.105
129076,150361,38140,0.18,-0.911,-0.242,0.366,0.244,0.305,45.108
129076,150275,12583,0.18,-0.911,-0.241,0.366,0.244,0.305,45.115
129097,150361,38140,0.178,-0.914,-0.231,0.488,0.183,0.427,45.118
129097,150283,12591,0.18,-0.916,-0.23,0.488,0.183,0.427,45.124
129122,150361,38140,0.179,-0.912,-0.234,0.488,0.366,0.366,45.128
129122,150305,12589,0.181,-0.906,-0.237,0.488,0.366,0.366,45.134
129112,150361,38140,0.18,-0.906,-0.24,-0.061,0.427,0.427,45.138
129112,150287,12594,0.179,-0.911,-0.244,-0.061,0.427,0.427,45.144
129124,150361,38140,0.176,-0.919,-0.245,-0.427,0.732,0.305,45.148
129124,150308,12589,0.175,-0.918,-0.244,-0.427,0.732,0.305,45.154
129104,150105,38140,0.175,-0.914,-0.241,-0.061,0.854,0.244,45.158
129104,150270,12576,0.178,-0.904,-0.239,-0.061,0.854,0.244,45.164
129098,150105,38140,0.182,-0.904,-0.235,0.244,0.427,0.427,45.168
129098,150264,12571,0.179,-0.905,-0.238,0.244,0.427,0.427,45.174
129062,150361,38140,0.18,-0.91,-0.234,0,0.488,0.61,45.178
129062,150274,12576,0.178,-0.911,-0.236,0,0.488,0.61,45.184
129066,150105,38140,0.178,-0.911,-0.236,0,0.488,0.61,45.188
129066,150260,12585,0.178,-0.914,-0.244,-0.244,0.488,0.549,45.194
129048,150105,38140,0.178,-0.914,-0.244,-0.244,0.488,0.549,45.197
129048,150244,12578,0.182,-0.92,-0.242,-0.061,0.427,0.549,45.204
129064,150361,38140,0.182,-0.92,-0.242,-0.061,0.427,0.549,45.207
129064,150287,12578,0.178,-0.915,-0.234,0.244,0.671,0.427,45.214
129088,150105,38140,0.178,-0.915,-0.234,0.244,0.671,0.427,45.217
129088,150258,12572,0.178,-0.908,-0.23,0.366,0.671,0.366,45.223
129060,150105,38140,0.178,-0.908,-0.23,0.366,0.671,0.366,45.227
129060,150239,12568,0.178,-0.909,-0.233,-0.183,0.61,0.244,45.233
129037,150105,38140,0.178,-0.909,-0.233,-0.183,0.61,0.244,45.237
129037,150246,12562,0.176,-0.914,-0.234,-1.037,0.549,0.122,45.243
129038,150105,38140,0.176,-0.914,-0.234,-1.037,0.549,0.122,45.247
129038,150267,12569,0.177,-0.91,-0.24,-1.159,0.244,0.183,45.253
129022,150105,38140,0.177,-0.91,-0.24,-1.159,0.244,0.183,45.257
129022,150232,12578,0.177,-0.909,-0.238,-1.037,0.061,0.183,45.263
129026,150105,38140,0.177,-0.909,-0.238,-1.037,0.061,0.183,45.267
