128787,150422,12379,0.07,-0.917,-0.291,-0.427,-0.305,-0.305,592.347
128786,150361,38140,0.07,-0.917,-0.291,-0.427,-0.305,-0.305,592.351
128786,150406,12379,0.067,-0.914,-0.286,-0.427,-0.366,-0.305,592.357
128806,150361,38140,0.067,-0.914,-0.286,-0.427,-0.366,-0.305,592.36
128806,150444,12382,0.071,-0.922,-0.294,-0.549,-0.183,-0.305,592.367
128784,150361,38140,0.071,-0.922,-0.294,-0.549,-0.183,-0.305,592.37
128784,150451,12387,0.066,-0.92,-0.286,-0.549,0.244,-0.366,592.377
128795,150361,38140,0.066,-0.92,-0.286,-0.549,0.244,-0.366,592.38
128795,150440,12375,0.076,-0.91,-0.293,-0.305,0.366,-0.244,592.386
128812,150361,38140,0.076,-0.91,-0.293,-0.305,0.366,-0.244,592.39
128812,150405,12396,0.073,-0.911,-0.283,-0.366,0.427,-0.061,592.396
128802,150361,38140,0.073,-0.911,-0.283,-0.366,0.427,-0.061,592.4
128802,150432,12391,0.073,-0.917,-0.284,-0.061,0.61,0.183,592.406
128782,150361,38140,0.073,-0.917,-0.284,-0.061,0.61,0.183,592.41
128782,150447,12389,0.071,-0.911,-0.288,0.061,0.61,0.427,592.416
128799,150361,38140,0.071,-0.911,-0.288,0.061,0.61,0.427,592.42
128799,150434,12378,0.068,-0.913,-0.282,0,0.61,0.488,592.426
128791,150361,38140,0.068,-0.913,-0.282,0,0.61,0.488,592.43
128791,150436,12396,0.071,-0.922,-0.282,0.122,0.244,0.549,592.436
128824,150361,38140,0.071,-0.922,-0.282,0.122,0.244,0.549,592.44
128824,150450,12393,0.067,-0.914,-0.286,0.061,0.183,0.671,592.446
128811,150361,38140,0.067,-0.914,-0.286,0.061,0.183,0.671,592.45
128811,150457,12385,0.069,-0.917,-0.287,-0.183,0.122,0.854,592.456
128805,150361,38140,0.069,-0.917,-0.287,-0.183,0.122,0.854,592.459
128805,150412,12388,0.064,-0.921,-0.282,-0.244,0,0.732,592.466
128809,150361,38140,0.064,-0.921,-0.282,-0.244,0,0.732,592.469
128809,150456,12376,0.067,-0.91,-0.285,-0.061,0.183,0.427,592.476
128825,150361,38140,0.067,-0.91,-0.285,-0.061,0.183,0.427,592.479
128825,150437,12389,0.071,-0.913,-0.289,-0.366,0.122,0.122,592.485
128812,150361,38140,0.071,-0.914,-0.289,-0.366,0.122,0.122,592.489
128812,150439,12394,0.068,-0.919,-0.29,-0.366,0.488,0.122,592.495
128823,150361,38140,0.068,-0.919,-0.288,-0.366,0.488,0.122,592.499
128823,150440,12374,0.068,-0.92,-0.291,-0.122,0.915,0,592.505
128811,150361,38140,0.07,-0.92,-0.288,-0.122,0.915,0,592.509
128811,150424,12388,0.068,-0.912,-0.289,0.366,1.037,-0.061,592.515
128810,150361,38140,0.068,-0.91,-0.287,0.366,1.037,-0.061,592.519
128810,150420,12379,0.068,-0.91,-0.278,0.671,0.793,0.061,592.525
128799,150361,38140,0.069,-0.912,-0.276,0.671,0.793,0.061,592.529
128799,150447,12389,0.069,-0.914,-0.276,0.244,0.549,0.183,592.535
128797,150361,38140,0.071,-0.916,-0.277,0.244,0.549,0.183,592.539
128797,150437,12391,0.07,-0.916,-0.276,-0.366,0.549,0.366,592.545
128816,150361,38140,0.066,-0.913,-0.284,-0.366,0.549,0.366,592.549
128816,150427,12372,0.068,-0.915,-0.287,-0.61,0.427,0.61,592.555
128810,150361,38140,0.067,-0.918,-0.284,-0.61,0.427,0.61,592.558
128810,150434,12390,0.069,-0.918,-0.288,-0.488,0.183,0.549,592.565
128812,150361,38140,0.069,-0.912,-0.291,-0.488,0.183,0.549,592.568
128812,150421,12377,0.075,-0.911,-0.286,-0.061,-0.122,0.61,592.575
128815,150361,38140,0.072,-0.909,-0.286,-0.061,-0.122,0.61,592.578
128815,150427,12384,0.068,-0.914,-0.287,0,-0.244,0.793,592.584
128838,150361,38140,0.068,-0.917,-0.289,0,-0.244,0.793,592.588
128838,150453,12371,0.067,-0.922,-0.292,-0.244,0.244,0.793,592.594
128826,150361,38140,0.066,-0.923,-0.29,-0.244,0.244,0.793,592.598
128826,150434,12391,0.064,-0.921,-0.282,-0.183,0.366,0.549,592.604
128835,150361,38140,0.067,-0.917,-0.285,-0.183,0.366,0.549,592.608
128835,150441,12375,0.068,-0.916,-0.29,-0.061,0.366,0.305,592.614
128832,150361,38140,0.068,-0.919,-0.284,-0.061,0.366,0.305,592.618
128832,150435,12373,0.06,-0.919,-0.288,-0.061,0.488,0.061,592.624
128819,150361,38140,0.066,-0.918,-0.283,-0.061,0.488,0.061,592.628
128819,150451,12374,0.069,-0.919,-0.276,-0.122,0.427,-0.061,592.634
128808,150361,38140,0.07,-0.914,-0.278,-0.122,0.427,-0.061,592.638
128808,150433,12382,0.07,-0.914,-0.281,-0.183,0.305,-0.061,592.644
128822,150361,38140,0.066,-0.912,-0.284,-0.183,0.305,-0.061,592.648
128822,150437,12371,0.065,-0.918,-0.278,-0.305,0.366,-0.061,592.654
128815,150361,38140,0.067,-0.916,-0.284,-0.305,0.366,-0.061,592.657
128815,150446,12376,0.07,-0.915,-0.285,-0.305,0.244,-0.061,592.664
128805,150361,38140,0.072,-0.91,-0.282,-0.305,0.244,-0.061,592.667
128805,150428,12378,0.071,-0.908,-0.286,-0.244,0,0.061,592.674
128840,150361,38140,0.072,-0.913,-0.291,-0.244,0,0.061,592.677
128840,150434,12375,0.069,-0.916,-0.291,-0.183,0,0.183,592.683
128847,150361,38140,0.068,-0.918,-0.293,-0.183,0,0.183,592.687
128847,150440,12362,0.068,-0.916,-0.29,-0.122,0.183,0.427,592.693
128862,150361,38140,0.068,-0.916,-0.284,-0.122,0.183,0.427,592.697
128862,150447,12387,0.068,-0.917,-0.285,0.122,0,0.488,592.703
128853,150361,38140,0.066,-0.919,-0.286,0.122,0,0.488,592.707
128853,150454,12381,0.067,-0.918,-0.285,0.183,0.061,0.305,592.713
128860,150361,38140,0.07,-0.921,-0.287,0.183,0.061,0.305,592.717
128860,150421,12382,0.069,-0.92,-0.289,-0.061,0.366,0,592.723
128867,150361,38140,0.071,-0.918,-0.287,-0.061,0.366,0,592.727
128867,150449,12367,0.073,-0.915,-0.288,-0.244,0.427,-0.061,592.733
128844,150361,38140,0.075,-0.918,-0.283,-0.244,0.427,-0.061,592.737
128844,150447,12371,0.072,-0.918,-0.284,-0.183,0.671,-0.061,592.743
128842,150361,38140,0.071,-0.916,-0.28,-0.183,0.671,-0.061,592.747
128842,150432,12368,0.069,-0.918,-0.279,-0.061,1.098,-0.122,592.753
128845,150361,38140,0.068,-0.914,-0.281,-0.061,1.098,-0.122,592.756
128845,150459,12391,0.068,-0.909,-0.283,0,0.793,0.061,592.763
128826,150361,38140,0.073,-0.903,-0.283,0,0.793,0.061,592.766
128826,150448,12366,0.07,-0.905,-0.279,-0.122,0.488,0.427,592.772
128866,150361,38140,0.072,-0.91,-0.285,-0.122,0.488,0.427,592.776
128866,150461,12357,0.07,-0.914,-0.283,-0.305,0.488,0.976,592.782
128865,150361,38140,0.068,-0.913,-0.286,-0.305,0.488,0.976,592.786
128865,150443,12383,0.065,-0.916,-0.29,-0.244,0.488,1.28,592.792
128839,150361,38140,0.064,-0.919,-0.287,-0.244,0.488,1.28,592.796
128839,150451,12367,0.064,-0.923,-0.29,0.305,0.183,1.098,592.802
128863,150361,38140,0.07,-0.923,-0.291,0.305,0.183,1.098,592.806
128863,150441,12369,0.069,-0.924,-0.292,0.732,0.244,0.61,592.812
128828,150361,38140,0.069,-0.923,-0.29,0.732,0.244,0.61,592.816
128828,150445,12368,0.068,-0.92,-0.289,0.854,0.732,0.305,592.822
128860,150361,38140,0.07,-0.918,-0.287,0.854,0.732,0.305,592.826
128860,150459,12380,0.068,-0.914,-0.283,0.671,1.037,0.122,592.832
128885,150361,38140,0.065,-0.914,-0.282,0.671,1.037,0.122,592.836
128885,150463,12349,0.065,-0.913,-0.28,0.427,1.159,-0.122,592.842
128884,150361,38140,0.069,-0.914,-0.278,0.427,1.159,-0.122,592.846
128884,150464,12370,0.07,-0.916,-0.275,0.061,0.854,-0.244,592.852
128883,150361,38140,0.068,-0.917,-0.275,0.061,0.854,-0.244,592.855
128883,150464,12377,0.073,-0.916,-0.277,0,0.671,-0.305,592.862
128868,150361,38140,0.073,-0.914,-0.277,0,0.671,-0.305,592.865
128868,150468,12377,0.069,-0.912,-0.281,0.305,0.61,-0.183,592.872
128888,150361,38140,0.071,-0.908,-0.283,0.305,0.61,-0.183,592.875
128888,150480,12371,0.073,-0.908,-0.281,0.244,0.305,0.122,592.881
128878,150361,38140,0.073,-0.911,-0.283,0.244,0.305,0.122,592.885
128878,150478,12351,0.074,-0.912,-0.284,0,0.183,0.488,592.891
128863,150361,38140,0.073,-0.913,-0.286,0,0.183,0.488,592.895
128863,150446,12383,0.071,-0.917,-0.289,-0.183,0.183,0.854,592.901
128882,150361,38140,0.068,-0.915,-0.289,-0.183,0.183,0.854,592.905
128882,150443,12382,0.07,-0.917,-0.286,-0.427,0.183,0.915,592.911
128875,150361,38140,0.071,-0.923,-0.287,-0.427,0.183,0.915,592.915
128875,150462,12380,0.072,-0.92,-0.288,-0.488,0.305,0.793,592.921
128894,150361,38140,0.072,-0.92,-0.288,-0.488,0.305,0.793,592.925
128894,150461,12378,0.068,-0.917,-0.291,-0.244,0.488,0.549,592.931
128918,150361,38140,0.068,-0.917,-0.291,-0.244,0.488,0.549,592.935
128918,150468,12385,0.068,-0.915,-0.284,0.061,0.61,0.427,592.941
128895,150361,38140,0.068,-0.915,-0.284,0.061,0.61,0.427,592.945
128895,150477,12393,0.065,-0.914,-0.286,0.183,0.793,0.305,592.951
128900,150361,38140,0.065,-0.914,-0.286,0.183,0.793,0.305,592.954
128900,150505,12387,0.07,-0.914,-0.282,0.244,0.793,0.366,592.961
128921,150361,38140,0.07,-0.914,-0.282,0.244,0.793,0.366,592.964
128921,150478,12370,0.07,-0.916,-0.281,0.122,0.915,0.305,592.97
128891,150361,38140,0.07,-0.916,-0.281,0.122,0.915,0.305,592.974
128891,150497,12391,0.068,-0.913,-0.283,-0.122,0.854,0.305,592.98
128899,150361,38140,0.068,-0.913,-0.283,-0.122,0.854,0.305,592.984
128899,150488,12381,0.068,-0.92,-0.281,0,0.61,0.244,592.99
128892,150361,38140,0.068,-0.92,-0.281,0,0.61,0.244,592.994
128892,150482,12374,0.066,-0.922,-0.281,-0.549,0.671,0.122,593
128880,150361,38140,0.066,-0.922,-0.281,-0.549,0.671,0.122,593.004
128880,150469,12374,0.07,-0.904,-0.292,-1.707,0.61,0.061,593.01
128883,150361,38140,0.07,-0.904,-0.292,-1.707,0.61,0.061,593.014
128883,150472,12371,0.069,-0.924,-0.284,-1.524,0.732,0.183,593.02
128885,150361,38140,0.069,-0.924,-0.284,-1.524,0.732,0.183,593.024
128885,150467,12390,0.074,-0.918,-0.28,-0.793,0.671,0.244,593.03
128887,150361,38140,0.074,-0.918,-0.28,-0.793,0.671,0.244,593.034
128887,150470,12390,0.075,-0.909,-0.278,-0.305,0.122,0.488,593.04
128893,150361,38140,0.075,-0.909,-0.278,-0.305,0.122,0.488,593.044
128893,150488,12369,0.071,-0.913,-0.286,-0.915,0.122,0.671,593.05
128908,150361,38140,0.071,-0.913,-0.286,-0.915,0.122,0.671,593.053
128908,150490,12392,0.07,-0.921,-0.285,-0.366,0.61,0.61,593.06
128929,150361,38140,0.07,-0.921,-0.285,-0.366,0.61,0.61,593.063
128929,150488,12385,0.065,-0.918,-0.282,-0.366,0.61,0.61,593.069
128920,150361,38140,0.069,-0.917,-0.287,-0.427,0.488,0.488,593.073
128920,150515,12387,0.071,-0.913,-0.284,-0.427,0.488,0.488,593.079
128921,150361,38140,0.072,-0.917,-0.284,-0.732,0.244,0.427,593.083
128921,150490,12380,0.068,-0.918,-0.286,-0.732,0.244,0.427,593.089
128912,150361,38140,0.068,-0.924,-0.283,-1.037,0.488,0.061,593.093
128912,150475,12391,0.064,-0.915,-0.281,-1.037,0.488,0.061,593.099
128875,150361,38140,0.07,-0.906,-0.283,-1.89,0,0,593.103
128875,150480,12386,0.073,-0.911,-0.282,-1.89,0,0,593.109
128893,150361,38140,0.072,-0.915,-0.28,-1.585,-0.061,-0.244,593.113
128893,150458,12374,0.068,-0.91,-0.287,-1.585,-0.061,-0.244,593.119
128874,150361,38140,0.069,-0.911,-0.289,-2.378,0.61,-0.305,593.123
128874,150463,12398,0.07,-0.919,-0.282,-2.378,0.61,-0.305,593.129
128910,150361,38140,0.068,-0.921,-0.289,-1.585,0.305,0,593.133
128910,150470,12387,0.07,-0.917,-0.282,-1.585,0.305,0,593.139
128900,150361,38140,0.074,-0.913,-0.281,-0.915,0,0.061,593.142
128900,150485,12385,0.075,-0.91,-0.281,-0.915,0,0.061,593.149
128911,150361,38140,0.076,-0.914,-0.281,-0.732,-0.122,0.244,593.152
128911,150482,12376,0.076,-0.917,-0.287,-0.732,-0.122,0.244,593.159
128907,150361,38140,0.072,-0.919,-0.292,-0.732,0.183,0.305,593.162
128907,150457,12393,0.071,-0.922,-0.295,-0.732,0.183,0.305,593.168
128935,150361,38140,0.072,-0.92,-0.291,-0.488,0.427,0.305,593.172
128935,150497,12388,0.071,-0.921,-0.292,-0.488,0.427,0.305,593.178
128925,150361,38140,0.071,-0.914,-0.294,-0.488,0.427,0.549,593.182
128925,150506,12378,0.071,-0.911,-0.297,-0.488,0.427,0.549,593.188
128927,150361,38140,0.069,-0.915,-0.296,-0.305,0.549,0.61,593.192
128927,150500,12376,0.068,-0.919,-0.294,-0.305,0.549,0.61,593.198
128935,150361,38140,0.067,-0.919,-0.294,-0.061,0.671,0.61,593.202
128935,150464,12385,0.072,-0.915,-0.296,-0.061,0.671,0.61,593.208
128924,150361,38140,0.071,-0.914,-0.293,0.122,0.854,0.61,593.212
128924,150499,12384,0.069,-0.915,-0.29,0.122,0.854,0.61,593.218
128919,150361,38140,0.066,-0.915,-0.281,0.305,1.098,0.61,593.222
128919,150480,12358,0.069,-0.913,-0.281,0.305,1.098,0.61,593.228
128916,150361,38140,0.07,-0.91,-0.276,0.244,1.098,0.671,593.232
128916,150452,12382,0.071,-0.909,-0.274,0.244,1.098,0.671,593.238
128902,150361,38140,0.07,-0.91,-0.274,0.183,0.732,0.549,593.241
128902,150461,12366,0.069,-0.907,-0.279,0.183,0.732,0.549,593.248
128903,150361,38140,0.068,-0.911,-0.276,0.061,0.366,0.488,593.251
128903,150462,12374,0.068,-0.919,-0.276,0.061,0.366,0.488,593.258
128902,150361,38140,0.072,-0.918,-0.285,-0.183,0,0.488,593.261
128902,150470,12365,0.072,-0.917,-0.28,-0.183,0,0.488,593.267
128909,150361,38140,0.07,-0.921,-0.286,-0.244,-0.061,0.488,593.271
128909,150488,12380,0.069,-0.921,-0.285,-0.244,-0.061,0.488,593.277
128954,150361,38140,0.069,-0.919,-0.285,-0.305,-0.061,0.488,593.281
128954,150469,12371,0.071,-0.916,-0.29,-0.305,-0.061,0.488,593.287
128922,150361,38140,0.068,-0.915,-0.29,-0.061,0,0.488,593.291
128922,150483,12384,0.067,-0.914,-0.289,-0.061,0,0.488,593.297
128964,150361,38140,0.071,-0.91,-0.29,0.305,0,0.488,593.301
128964,150518,12369,0.071,-0.911,-0.286,0.305,0,0.488,593.307
128964,150361,38140,0.069,-0.912,-0.286,0.427,0.061,0.61,593.311
128964,150484,12375,0.07,-0.911,-0.293,0.427,0.061,0.61,593.317
128965,150361,38140,0.069,-0.91,-0.289,-0.061,0.305,0.61,593.321
128965,150497,12366,0.068,-0.912,-0.283,-0.061,0.305,0.61,593.327
128954,150361,38140,0.07,-0.915,-0.282,-0.122,0.366,0.549,593.331
128954,150491,12380,0.066,-0.918,-0.283,-0.122,0.366,0.549,593.337
128947,150361,38140,0.065,-0.922,-0.286,-0.427,0.305,0.488,593.34
128947,150499,12380,0.064,-0.923,-0.289,-0.427,0.305,0.488,593.347
128955,150361,38140,0.069,-0.919,-0.285,-0.366,0.366,0.183,593.35
128955,150482,12400,0.071,-0.915,-0.284,-0.366,0.366,0.183,593.357
128946,150361,38140,0.07,-0.915,-0.286,-0.183,0.122,0.061,593.36
128946,150497,12372,0.072,-0.915,-0.282,-0.183,0.122,0.061,593.366
128945,150361,38140,0.074,-0.917,-0.281,0,0.122,-0.061,593.37
128945,150478,12375,0.071,-0.917,-0.282,0,0.122,-0.061,593.376
128956,150361,38140,0.07,-0.913,-0.283,0.061,0.366,0,593.38
128956,150469,12368,0.071,-0.916,-0.287,0.061,0.366,0,593.386
128949,150361,38140,0.068,-0.915,-0.285,0,0.244,0.183,593.39
128949,150469,12371,0.069,-0.913,-0.29,0,0.244,0.183,593.396
128940,150361,38140,0.072,-0.913,-0.294,-0.122,0.366,0.366,593.4
128940,150501,12365,0.072,-0.908,-0.289,-0.122,0.366,0.366,593.406
128960,150361,38140,0.069,-0.906,-0.293,-0.183,0.427,0.61,593.41
128960,150498,12368,0.069,-0.912,-0.292,-0.183,0.427,0.61,593.416
128955,150361,38140,0.068,-0.914,-0.286,-0.122,0.61,0.671,593.42
128955,150497,12373,0.07,-0.916,-0.287,-0.122,0.61,0.671,593.426
128961,150361,38140,0.068,-0.915,-0.287,0.305,0.915,0.671,593.43
128961,150474,12369,0.069,-0.916,-0.284,0.305,0.915,0.671,593.436
128964,150361,38140,0.067,-0.917,-0.283,0.427,0.793,0.488,593.439
128964,150491,12379,0.069,-0.918,-0.28,0.427,0.793,0.488,593.446
128959,150361,38140,0.071,-0.916,-0.283,0.305,0.793,0.183,593.449
128959,150496,12368,0.068,-0.914,-0.286,0.305,0.793,0.183,593.456
128954,150361,38140,0.071,-0.919,-0.288,0.183,0.854,0.061,593.459
128954,150504,12366,0.068,-0.924,-0.289,0.183,0.854,0.061,593.465
128957,150361,38140,0.069,-0.921,-0.286,0.366,0.793,0.122,593.469
128957,150500,12383,0.07,-0.914,-0.285,0.366,0.793,0.122,593.475
128951,150361,38140,0.074,-0.91,-0.288,0.305,0.671,0.305,593.479
128951,150500,12372,0.073,-0.909,-0.283,0.305,0.671,0.305,593.485
128938,150361,38140,0.067,-0.91,-0.284,0.183,0.732,0.366,593.489
128938,150479,12372,0.067,-0.914,-0.283,0.183,0.732,0.366,593.495
128956,150361,38140,0.067,-0.914,-0.283,0.183,0.732,0.366,593.499
128956,150451,12371,0.074,-0.914,-0.279,0.305,0.427,0.366,593.505
128942,150361,38140,0.074,-0.914,-0.279,0.305,0.427,0.366,593.509
128942,150511,12361,0.072,-0.912,-0.285,0.427,0,0.549,593.515
128942,150361,38140,0.072,-0.912,-0.285,0.427,0,0.549,593.519
128942,150502,12376,0.067,-0.919,-0.283,0.427,0.244,0.976,593.525
128971,150361,38140,0.067,-0.919,-0.283,0.427,0.244,0.976,593.529
128971,150480,12362,0.062,-0.917,-0.29,0.305,0.488,0.915,593.535
128936,150361,38140,0.062,-0.917,-0.29,0.305,0.488,0.915,593.538
128936,150487,12369,0.067,-0.921,-0.285,-0.183,0.488,0.671,593.545
128955,150361,38140,0.067,-0.921,-0.285,-0.183,0.488,0.671,593.548
128955,150506,12364,0.065,-0.918,-0.28,0.122,0.549,0.183,593.555
128955,150361,38140,0.065,-0.918,-0.28,0.122,0.549,0.183,593.558
128955,150495,12381,0.068,-0.909,-0.282,0.061,0.732,0,593.564
128971,150361,38140,0.068,-0.909,-0.282,0.061,0.732,0,593.568
128971,150496,12368,0.067,-0.911,-0.284,-0.183,0.976,-0.122,593.574
128969,150361,38140,0.067,-0.911,-0.284,-0.183,0.976,-0.122,593.578
128969,150486,12367,0.069,-0.92,-0.286,-0.427,0.976,-0.183,593.584
128968,150361,38140,0.069,-0.92,-0.286,-0.427,0.976,-0.183,593.588
128968,150512,12382,0.072,-0.911,-0.28,0.061,0.488,-0.183,593.594
128971,150361,38140,0.072,-0.911,-0.28,0.061,0.488,-0.183,593.598
128971,150498,12363,0.07,-0.905,-0.278,0.305,0,0,593.604
128972,150361,38140,0.07,-0.905,-0.278,0.305,0,0,593.608
128972,150502,12361,0.075,-0.923,-0.282,0.061,-0.183,0.244,593.614
128976,150361,38140,0.075,-0.923,-0.282,0.061,-0.183,0.244,593.618
128976,150487,12361,0.07,-0.923,-0.288,-0.244,-0.244,0.183,593.624
128968,150361,38140,0.07,-0.923,-0.288,-0.244,-0.244,0.183,593.628
128968,150509,12368,0.072,-0.916,-0.285,-0.183,-0.183,0.122,593.634
128933,150361,38140,0.072,-0.916,-0.285,-0.183,-0.183,0.122,593.637
128933,150490,12361,0.073,-0.916,-0.287,-0.305,-0.244,0.183,593.644
128943,150361,38140,0.073,-0.915,-0.29,-0.305,-0.244,0.183,593.647
128943,150468,12378,0.074,-0.915,-0.292,-0.488,0.366,0.061,593.654
128955,150361,38140,0.071,-0.916,-0.29,-0.488,0.366,0.061,593.657
128955,150496,12373,0.075,-0.916,-0.285,-0.366,0.671,0.061,593.663
128937,150361,38140,0.073,-0.917,-0.29,-0.366,0.671,0.061,593.667
128937,150464,12379,0.07,-0.917,-0.288,0.122,0.915,0.305,593.673
128933,150361,38140,0.07,-0.916,-0.285,0.122,0.915,0.305,593.677
128933,150480,12366,0.067,-0.916,-0.283,0.61,1.037,0.488,593.683
128952,150361,38140,0.07,-0.913,-0.284,0.61,1.037,0.488,593.687
128952,150490,12377,0.072,-0.913,-0.284,0.732,0.915,0.488,593.693
128941,150361,38140,0.072,-0.909,-0.284,0.732,0.915,0.488,593.697
128941,150467,12375,0.07,-0.907,-0.284,0.61,0.793,0.671,593.703
128943,150361,38140,0.069,-0.913,-0.28,0.61,0.793,0.671,593.707
128943,150467,12359,0.071,-0.914,-0.275,0.488,0.671,0.854,593.713
128942,150361,38140,0.072,-0.911,-0.279,0.488,0.671,0.854,593.717
128942,150481,12370,0.076,-0.914,-0.282,0.061,0.366,0.854,593.723
128910,150361,38140,0.073,-0.921,-0.281,0.061,0.366,0.854,593.727
128910,150488,12374,0.071,-0.919,-0.286,-0.488,0.427,0.793,593.733
128940,150361,38140,0.068,-0.925,-0.289,-0.488,0.427,0.793,593.736
128940,150461,12355,0.068,-0.92,-0.286,-0.549,0.671,0.793,593.743
128916,150361,38140,0.069,-0.913,-0.289,-0.549,0.671,0.793,593.746
128916,150453,12369,0.069,-0.912,-0.287,-0.183,0.549,0.61,593.753
128926,150361,38140,0.072,-0.916,-0.276,-0.183,0.549,0.61,593.756
128926,150460,12356,0.069,-0.92,-0.287,0.183,0.488,0.549,593.762
128900,150361,38140,0.065,-0.921,-0.287,0.183,0.488,0.549,593.766
128900,150464,12365,0.066,-0.925,-0.281,0.305,0.976,0.549,593.772
128917,150361,38140,0.069,-0.919,-0.284,0.305,0.976,0.549,593.776
128917,150466,12373,0.069,-0.913,-0.283,0.549,1.037,0.488,593.782
128927,150361,38140,0.07,-0.905,-0.281,0.549,1.037,0.488,593.786
128927,150439,12357,0.069,-0.907,-0.282,0.854,1.037,0.427,593.792
128925,150361,38140,0.068,-0.91,-0.282,0.854,1.037,0.427,593.796
128925,150463,12357,0.066,-0.915,-0.282,0.793,1.098,0.427,593.802
128938,150361,38140,0.066,-0.92,-0.278,0.793,1.098,0.427,593.806
128938,150487,12357,0.066,-0.917,-0.278,0.488,1.159,0.305,593.812
128929,150361,38140,0.067,-0.912,-0.281,0.488,1.159,0.305,593.816
128929,150441,12362,0.069,-0.914,-0.277,0.305,0.854,0.305,593.822
128925,150361,38140,0.069,-0.915,-0.272,0.305,0.854,0.305,593.826
128925,150448,12363,0.069,-0.916,-0.275,-0.061,0.488,0.305,593.832
128914,150361,38140,0.069,-0.913,-0.28,-0.061,0.488,0.305,593.835
128914,150459,12351,0.073,-0.914,-0.281,-0.732,0.183,0.305,593.842
128928,150361,38140,0.073,-0.916,-0.283,-0.732,0.183,0.305,593.845
128928,150437,12342,0.071,-0.917,-0.287,-0.854,0.061,0.366,593.851
128928,150361,38140,0.071,-0.92,-0.285,-0.854,0.061,0.366,593.855
128928,150459,12363,0.07,-0.922,-0.282,-0.427,-0.122,0.671,593.861
128949,150361,38140,0.072,-0.914,-0.282,-0.427,-0.122,0.671,593.865
128949,150444,12355,0.07,-0.915,-0.286,-0.427,-0.122,0.793,593.871
128943,150361,38140,0.067,-0.914,-0.287,-0.427,-0.122,0.793,593.875
128943,150445,12351,0.062,-0.914,-0.286,-0.244,0.427,0.732,593.881
128906,150361,38140,0.062,-0.918,-0.281,-0.244,0.427,0.732,593.885
128906,150452,12353,0.068,-0.92,-0.283,0,0.549,0.427,593.891
128935,150361,38140,0.068,-0.917,-0.286,0,0.549,0.427,593.895
128935,150442,12338,0.069,-0.914,-0.283,0.061,0.549,0.061,593.901
128913,150361,38140,0.069,-0.912,-0.28,0.061,0.549,0.061,593.905
128913,150422,12348,0.071,-0.914,-0.277,-0.122,0.366,0,593.911
128916,150361,38140,0.071,-0.918,-0.273,-0.122,0.366,0,593.915
128916,150442,12338,0.07,-0.923,-0.276,-0.366,0.305,-0.244,593.921
128929,150361,38140,0.069,-0.925,-0.279,-0.366,0.305,-0.244,593.924
128929,150427,12343,0.068,-0.923,-0.281,-0.549,0.427,-0.305,593.931
128934,150361,38140,0.068,-0.917,-0.282,-0.549,0.427,-0.305,593.934
128934,150438,12359,0.072,-0.913,-0.286,-0.854,0.122,-0.183,593.941
128956,150361,38140,0.071,-0.912,-0.283,-0.854,0.122,-0.183,593.944
128956,150482,12336,0.07,-0.911,-0.28,-0.549,-0.183,-0.122,593.951
128957,150361,38140,0.071,-0.916,-0.282,-0.549,-0.183,-0.122,593.954
128957,150466,12343,0.07,-0.916,-0.281,-0.427,0,0.061,593.96
128945,150361,38140,0.071,-0.918,-0.288,-0.427,0,0.061,593.964
128945,150469,12364,0.07,-0.918,-0.29,-0.427,0.244,0.183,593.97
128956,150361,38140,0.071,-0.916,-0.289,-0.427,0.244,0.183,593.974
128956,150469,12342,0.073,-0.915,-0.289,-0.244,0,0.061,593.98
128976,150361,38140,0.073,-0.919,-0.286,-0.244,0,0.061,593.984
128976,150483,12344,0.078,-0.917,-0.286,0.183,0.061,0,593.99
128972,150361,38140,0.076,-0.912,-0.283,0.183,0.061,0,593.994
128972,150460,12348,0.074,-0.911,-0.283,0.488,0.549,0,594
128985,150361,38140,0.074,-0.917,-0.282,0.488,0.549,0,594.004
128985,150487,12362,0.073,-0.918,-0.283,0.366,0.915,0.183,594.01
129001,150361,38140,0.073,-0.919,-0.285,0.366,0.915,0.183,594.014
129001,150492,12343,0.072,-0.918,-0.285,0.183,1.159,0.366,594.02
128991,150361,38140,0.071,-0.916,-0.282,0.183,1.159,0.366,594.023
128991,150514,12366,0.07,-0.912,-0.276,-0.061,0.976,0.61,594.03
128983,150361,38140,0.07,-0.909,-0.28,-0.061,0.976,0.61,594.033
128983,150452,12333,0.068,-0.91,-0.282,-0.183,0.976,0.854,594.04
128971,150361,38140,0.065,-0.908,-0.282,-0.183,0.976,0.854,594.043
128971,150480,12336,0.066,-0.908,-0.279,-0.122,0.854,0.915,594.049
128972,150361,38140,0.067,-0.912,-0.28,-0.122,0.854,0.915,594.053
128972,150474,12344,0.067,-0.919,-0.278,-0.183,0.427,0.854,594.059
128971,150361,38140,0.068,-0.923,-0.284,-0.183,0.427,0.854,594.063
128971,150466,12335,0.068,-0.921,-0.29,-0.305,0.305,0.61,594.069
128958,150361,38140,0.072,-0.919,-0.287,-0.305,0.305,0.61,594.073
128958,150435,12357,0.07,-0.918,-0.286,-0.122,0.244,0.427,594.079
128969,150361,38140,0.07,-0.918,-0.286,-0.122,0.244,0.427,594.083
128969,150467,12343,0.071,-0.916,-0.29,0.061,0.305,0.488,594.089
128975,150361,38140,0.071,-0.916,-0.29,0.061,0.305,0.488,594.093
128975,150435,12339,0.072,-0.917,-0.278,0,0.427,0.549,594.099
128952,150361,38140,0.072,-0.917,-0.278,0,0.427,0.549,594.103
128952,150445,12327,0.072,-0.918,-0.284,-0.122,0.488,0.427,594.109
128937,150361,38140,0.072,-0.918,-0.284,-0.122,0.488,0.427,594.113
128937,150440,12338,0.072,-0.915,-0.286,-0.427,0.61,0.366,594.119
128943,150361,38140,0.072,-0.915,-0.286,-0.427,0.61,0.366,594.122
128943,150423,12330,0.07,-0.91,-0.288,-0.183,0.793,0.366,594.129
128932,150361,38140,0.07,-0.91,-0.288,-0.183,0.793,0.366,594.132
128932,150470,12348,0.067,-0.911,-0.282,0.183,0.732,0.549,594.139
128943,150361,38140,0.067,-0.911,-0.282,0.183,0.732,0.549,594.142
128943,150456,12335,0.068,-0.916,-0.282,0.061,0.427,0.549,594.148
128949,150361,38140,0.068,-0.916,-0.282,0.061,0.427,0.549,594.152
128949,150442,12335,0.069,-0.923,-0.281,-0.061,0.244,0.488,594.158
128964,150361,38140,0.069,-0.923,-0.281,-0.061,0.244,0.488,594.162
128964,150433,12350,0.067,-0.914,-0.282,-0.244,0.183,0.549,594.168
128960,150361,38140,0.067,-0.914,-0.282,-0.244,0.183,0.549,594.172
128960,150467,12333,0.069,-0.921,-0.284,-0.488,0.061,0.427,594.178
128944,150361,38140,0.069,-0.921,-0.284,-0.488,0.061,0.427,594.182
128944,150439,12341,0.07,-0.92,-0.284,-0.427,0.183,0.183,594.188
128930,150361,38140,0.07,-0.92,-0.284,-0.427,0.183,0.183,594.192
128930,150444,12336,0.068,-0.913,-0.281,-0.244,0.244,0.244,594.198
128936,150361,38140,0.068,-0.913,-0.281,-0.244,0.244,0.244,594.202
128936,150428,12329,0.068,-0.909,-0.279,-0.122,0.305,0.183,594.208
128948,150361,38140,0.068,-0.909,-0.279,-0.122,0.305,0.183,594.212
128948,150460,12337,0.07,-0.911,-0.285,-0.366,0.305,0.183,594.218
128954,150361,38140,0.07,-0.911,-0.285,-0.366,0.305,0.183,594.221
128954,150447,12342,0.067,-0.914,-0.285,-0.366,0.305,0.183,594.228
128932,150361,38140,0.067,-0.917,-0.287,-0.305,0.305,0.183,594.231
128932,150442,12328,0.067,-0.92,-0.282,-0.305,0.305,0.183,594.238
128946,150361,38140,0.068,-0.919,-0.282,-0.122,0.183,0.122,594.241
128946,150463,12335,0.068,-0.911,-0.282,-0.122,0.183,0.122,594.247
128964,150361,38140,0.071,-0.91,-0.28,-0.305,0,0.183,594.251
128964,150456,12352,0.07,-0.911,-0.281,-0.305,0,0.183,594.257
128984,150361,38140,0.072,-0.911,-0.281,-0.549,-0.122,0.183,594.261
128984,150468,12330,0.07,-0.917,-0.281,-0.549,-0.122,0.183,594.267
128966,150361,38140,0.073,-0.921,-0.284,-0.732,-0.244,0.122,594.271
128966,150467,12346,0.077,-0.92,-0.29,-0.732,-0.244,0.122,594.277
128969,150361,38140,0.074,-0.92,-0.29,-0.915,0,0.183,594.281
128969,150473,12347,0.073,-0.922,-0.289,-0.915,0,0.183,594.287
128970,150361,38140,0.073,-0.923,-0.285,-0.427,0.183,0.183,594.291
128970,150458,12325,0.071,-0.925,-0.286,-0.427,0.183,0.183,594.297
128967,150361,38140,0.072,-0.92,-0.286,-0.061,0.488,0.183,594.301
128967,150478,12352,0.074,-0.915,-0.282,-0.061,0.488,0.183,594.307
128980,150361,38140,0.072,-0.915,-0.286,0.061,0.732,0.366,594.311
128980,150469,12353,0.068,-0.914,-0.29,0.061,0.732,0.366,594.317
128973,150361,38140,0.066,-0.914,-0.286,0.183,0.976,0.427,594.32
128973,150468,12353,0.069,-0.915,-0.283,0.183,0.976,0.427,594.327
128970,150361,38140,0.069,-0.912,-0.282,0.854,0.976,0.488,594.33
128970,150466,12333,0.074,-0.906,-0.279,0.854,0.976,0.488,594.337
128973,150361,38140,0.073,-0.906,-0.271,1.159,0.488,0.671,594.34
128973,150469,12338,0.073,-0.913,-0.273,1.159,0.488,0.671,594.346
128960,150361,38140,0.071,-0.918,-0.278,0.61,0.427,0.854,594.35
128960,150454,12333,0.069,-0.922,-0.276,0.61,0.427,0.854,594.356
128954,150361,38140,0.069,-0.92,-0.278,0.061,0.549,0.915,594.36
128954,150457,12336,0.07,-0.917,-0.28,0.061,0.549,0.915,594.366
128944,150361,38140,0.071,-0.914,-0.279,-0.61,0.305,0.732,594.37
128944,150445,12331,0.071,-0.913,-0.284,-0.61,0.305,0.732,594.376
128952,150361,38140,0.069,-0.916,-0.283,-0.732,0.427,0.488,594.38
128952,150451,12338,0.068,-0.92,-0.281,-0.732,0.427,0.488,594.386
128952,150361,38140,0.071,-0.92,-0.279,-0.427,0.488,0.427,594.39
128952,150451,12331,0.07,-0.922,-0.288,-0.427,0.488,0.427,594.396
128953,150361,38140,0.069,-0.926,-0.288,-0.488,0.366,0.305,594.4
128953,150456,12337,0.067,-0.925,-0.286,-0.488,0.366,0.305,594.406
128958,150361,38140,0.066,-0.92,-0.286,-0.061,0.671,0.244,594.41
128958,150453,12354,0.068,-0.913,-0.288,-0.061,0.671,0.244,594.416
128978,150361,38140,0.071,-0.911,-0.286,0.366,0.61,0.244,594.419
128978,150440,12348,0.073,-0.91,-0.285,0.366,0.61,0.244,594.426
128964,150361,38140,0.072,-0.912,-0.281,0.183,0.61,0.305,594.429
128964,150460,12337,0.071,-0.915,-0.282,0.183,0.61,0.305,594.436
128927,150361,38140,0.07,-0.914,-0.281,-0.183,0.793,0.549,594.439
128927,150427,12341,0.07,-0.914,-0.278,-0.183,0.793,0.549,594.445
128954,150361,38140,0.069,-0.913,-0.272,-0.427,0.671,0.793,594.449
128954,150425,12318,0.071,-0.914,-0.278,-0.427,0.671,0.793,594.455
128932,150361,38140,0.068,-0.914,-0.277,-0.549,0.427,0.793,594.459
128932,150410,12334,0.068,-0.914,-0.277,-0.549,0.427,0.793,594.465
128935,150361,38140,0.068,-0.916,-0.281,-0.671,0.122,0.793,594.469
128935,150426,12315,0.072,-0.921,-0.285,-0.671,0.122,0.793,594.475
128933,150361,38140,0.069,-0.919,-0.289,-0.671,0.061,0.732,594.479
128933,150420,12333,0.064,-0.913,-0.285,-0.671,0.061,0.732,594.485
128910,150361,38140,0.069,-0.913,-0.284,-0.183,-0.183,0.671,594.489
128910,150414,12310,0.071,-0.918,-0.284,-0.183,-0.183,0.671,594.495
128939,150361,38140,0.071,-0.922,-0.283,-0.122,-0.366,0.61,594.499
128939,150438,12312,0.067,-0.922,-0.284,-0.122,-0.366,0.61,594.505
128925,150361,38140,0.067,-0.927,-0.285,-0.305,0.183,0.427,594.509
128925,150430,12315,0.068,-0.921,-0.281,-0.305,0.183,0.427,594.515
128941,150361,38140,0.066,-0.916,-0.28,-0.366,0.366,0.183,594.518
128941,150426,12316,0.068,-0.917,-0.281,-0.366,0.366,0.183,594.525
128951,150361,38140,0.068,-0.916,-0.282,-0.549,0.305,0.061,594.528
128951,150424,12346,0.069,-0.914,-0.287,-0.549,0.305,0.061,594.535
128949,150361,38140,0.069,-0.914,-0.288,-0.732,0.671,0.061,594.538
128949,150446,12327,0.068,-0.914,-0.286,-0.732,0.671,0.061,594.544
128955,150361,38140,0.068,-0.912,-0.284,-0.366,0.854,0.061,594.548
128955,150418,12324,0.07,-0.914,-0.282,-0.366,0.854,0.061,594.554
128926,150361,38140,0.074,-0.914,-0.285,0.122,0.793,0.122,594.558
128926,150397,12321,0.072,-0.913,-0.288,0.122,0.793,0.122,594.564
128912,150361,38140,0.072,-0.915,-0.28,0.183,0.671,0.305,594.568
128912,150411,12319,0.068,-0.918,-0.279,0.183,0.671,0.305,594.574
128888,150361,38140,0.066,-0.918,-0.279,0.244,0.549,0.366,594.578
128888,150414,12310,0.07,-0.911,-0.276,0.244,0.549,0.366,594.584
128910,150361,38140,0.068,-0.91,-0.274,0.122,0.305,0.427,594.588
128910,150404,12309,0.069,-0.911,-0.279,0.122,0.305,0.427,594.594
128911,150361,38140,0.067,-0.916,-0.284,-0.488,0,0.366,594.598
128911,150405,12322,0.068,-0.923,-0.281,-0.488,0,0.366,594.604
128916,150361,38140,0.068,-0.926,-0.279,-0.671,0,0.122,594.608
128916,150419,12312,0.07,-0.92,-0.28,-0.671,0,0.122,594.614
128936,150361,38140,0.074,-0.916,-0.28,-0.915,-0.305,0.183,594.617
128936,150413,12309,0.075,-0.917,-0.285,-0.915,-0.305,0.183,594.624
128920,150361,38140,0.073,-0.915,-0.284,-0.976,-0.122,0.122,594.627
128920,150386,12317,0.069,-0.922,-0.288,-0.976,-0.122,0.122,594.634
128910,150361,38140,0.069,-0.919,-0.291,-0.366,0.427,0.061,594.637
128910,150407,12323,0.068,-0.911,-0.287,-0.366,0.427,0.061,594.643
128921,150361,38140,0.072,-0.909,-0.282,0.122,0.122,0.183,594.647
128921,150389,12311,0.076,-0.91,-0.28,0.122,0.122,0.183,594.653
128926,150361,38140,0.071,-0.912,-0.281,-0.244,0.305,0.488,594.657
128926,150416,12305,0.067,-0.919,-0.284,-0.244,0.305,0.488,594.663
128918,150361,38140,0.067,-0.919,-0.284,-0.244,0.305,0.488,594.667
128918,150377,12314,0.066,-0.911,-0.289,-0.61,0.732,0.732,594.673
128907,150361,38140,0.066,-0.911,-0.289,-0.61,0.732,0.732,594.677
128907,150389,12325,0.07,-0.917,-0.285,-0.488,0.549,0.732,594.683
128911,150361,38140,0.07,-0.917,-0.285,-0.488,0.549,0.732,594.687
128911,150392,12304,0.068,-0.922,-0.284,-0.183,0.61,0.61,594.693
128885,150361,38140,0.068,-0.922,-0.284,-0.183,0.61,0.61,594.697
128885,150367,12301,0.067,-0.912,-0.285,-0.244,0.793,0.305,594.703
128899,150361,38140,0.067,-0.912,-0.285,-0.244,0.793,0.305,594.707
128899,150416,12308,0.072,-0.915,-0.281,-0.061,0.488,0.122,594.713
128919,150361,38140,0.072,-0.915,-0.281,-0.061,0.488,0.122,594.716
128919,150393,12307,0.066,-0.918,-0.287,-0.488,0.366,0.061,594.723
128929,150361,38140,0.066,-0.918,-0.287,-0.488,0.366,0.061,594.726
128929,150414,12309,0.07,-0.912,-0.283,-0.488,0.671,-0.061,594.733
128939,150361,38140,0.07,-0.912,-0.283,-0.488,0.671,-0.061,594.736
128939,150413,12324,0.073,-0.911,-0.278,0.122,0.244,-0.061,594.742
128934,150361,38140,0.073,-0.911,-0.278,0.122,0.244,-0.061,594.746
128934,150430,12313,0.071,-0.912,-0.284,0,0.183,0.183,594.752
128944,150361,38140,0.071,-0.912,-0.284,0,0.183,0.183,594.756
128944,150424,12314,0.074,-0.918,-0.288,-0.549,0.427,0.488,594.762
128930,150361,38140,0.074,-0.918,-0.288,-0.549,0.427,0.488,594.766
128930,150413,12298,0.071,-0.917,-0.289,-0.488,0.427,0.671,594.772
128905,150361,38140,0.071,-0.917,-0.289,-0.488,0.427,0.671,594.776
128905,150409,12307,0.068,-0.915,-0.285,-0.244,0.488,0.793,594.782
128919,150361,38140,0.068,-0.915,-0.285,-0.244,0.488,0.793,594.786
128919,150394,12291,0.066,-0.916,-0.284,-0.061,0.366,0.976,594.792
128899,150361,38140,0.066,-0.916,-0.284,-0.061,0.366,0.976,594.796
128899,150377,12307,0.065,-0.917,-0.285,-0.061,0.427,0.854,594.802
128884,150361,38140,0.065,-0.917,-0.285,-0.061,0.427,0.854,594.806
128884,150371,12317,0.064,-0.918,-0.281,0.122,0.488,0.488,594.812
128907,150361,38140,0.065,-0.918,-0.279,0.122,0.488,0.488,594.815
128907,150407,12285,0.064,-0.917,-0.284,-0.061,0.427,0.183,594.822
128924,150361,38140,0.066,-0.913,-0.283,-0.061,0.427,0.183,594.825
128924,150402,12292,0.067,-0.915,-0.279,-0.488,0.305,0,594.832
128938,150361,38140,0.068,-0.915,-0.284,-0.488,0.305,0,594.835
128938,150422,12302,0.068,-0.915,-0.285,-0.61,0.183,-0.122,594.841
128931,150361,38140,0.068,-0.919,-0.284,-0.61,0.183,-0.122,594.845
128931,150419,12317,0.065,-0.914,-0.287,-0.549,0.183,-0.122,594.851
128956,150361,38140,0.069,-0.915,-0.286,-0.549,0.183,-0.122,594.855
128956,150420,12328,0.069,-0.915,-0.287,-0.427,0,-0.244,594.861
128923,150361,38140,0.068,-0.92,-0.283,-0.427,0,-0.244,594.865
128923,150427,12305,0.07,-0.92,-0.287,-0.183,-0.061,-0.183,594.871
128939,150361,38140,0.072,-0.922,-0.286,-0.183,-0.061,-0.183,594.875
128939,150419,12299,0.071,-0.92,-0.29,0.122,0.244,-0.122,594.881
128944,150361,38140,0.069,-0.912,-0.287,0.122,0.244,-0.122,594.885
128944,150412,12308,0.071,-0.911,-0.284,0.061,0.427,-0.061,594.891
128928,150361,38140,0.071,-0.912,-0.283,0.061,0.427,-0.061,594.895
128928,150404,12303,0.076,-0.915,-0.278,-0.366,0.427,-0.061,594.901
128930,150361,38140,0.079,-0.917,-0.284,-0.366,0.427,-0.061,594.905
128930,150419,12303,0.076,-0.915,-0.285,-0.61,0.61,0.122,594.911
128923,150361,38140,0.075,-0.917,-0.277,-0.61,0.61,0.122,594.914
128923,150435,12295,0.072,-0.917,-0.278,-0.244,0.488,0.427,594.921
128914,150361,38140,0.075,-0.915,-0.281,-0.244,0.488,0.427,594.924
128914,150416,12298,0.073,-0.915,-0.282,-0.305,0.366,0.61,594.931
128924,150361,38140,0.07,-0.916,-0.284,-0.305,0.366,0.61,594.934
128924,150425,12310,0.068,-0.915,-0.285,-0.244,0.427,0.61,594.94
128962,150361,38140,0.067,-0.919,-0.287,-0.244,0.427,0.61,594.944
128962,150429,12298,0.067,-0.92,-0.29,-0.122,0.427,0.671,594.95
128947,150361,38140,0.069,-0.919,-0.288,-0.122,0.427,0.671,594.954
128947,150444,12311,0.07,-0.916,-0.286,0.122,0.427,0.61,594.96
128946,150361,38140,0.072,-0.915,-0.291,0.122,0.427,0.61,594.964
128946,150441,12311,0.071,-0.915,-0.282,0.305,0.427,0.793,594.97
128939,150361,38140,0.072,-0.916,-0.279,0.305,0.427,0.793,594.974
128939,150428,12311,0.072,-0.913,-0.279,0.183,0.366,0.854,594.98
128941,150361,38140,0.072,-0.911,-0.281,0.183,0.366,0.854,594.984
128941,150419,12314,0.07,-0.912,-0.278,0,0.366,0.915,594.99
128933,150361,38140,0.07,-0.915,-0.283,0,0.366,0.915,594.994
128933,150436,12304,0.067,-0.915,-0.285,-0.061,0.549,0.915,595
128937,150361,38140,0.065,-0.916,-0.286,-0.061,0.549,0.915,595.004
128937,150408,12303,0.066,-0.917,-0.284,-0.305,0.671,0.793,595.01
128926,150361,38140,0.069,-0.919,-0.279,-0.305,0.671,0.793,595.013
128926,150412,12300,0.07,-0.916,-0.284,-0.305,0.61,0.488,595.02
128926,150361,38140,0.071,-0.913,-0.281,-0.305,0.61,0.488,595.023
128926,150406,12318,0.072,-0.913,-0.273,0,0.366,0.488,595.03
128928,150361,38140,0.073,-0.919,-0.279,0,0.366,0.488,595.033
128928,150389,12292,0.072,-0.922,-0.275,-0.061,0.244,0.488,595.039
128919,150361,38140,0.069,-0.921,-0.276,-0.061,0.244,0.488,595.043
128919,150379,12300,0.068,-0.918,-0.282,-0.427,0.488,0.427,595.049
128939,150361,38140,0.07,-0.917,-0.284,-0.427,0.488,0.427,595.053
128939,150405,12298,0.069,-0.917,-0.283,-0.61,0.366,0.427,595.059
128931,150361,38140,0.066,-0.909,-0.288,-0.61,0.366,0.427,595.063
128931,150394,12309,0.065,-0.916,-0.284,-0.61,0.488,0.305,595.069
128923,150361,38140,0.066,-0.92,-0.28,-0.61,0.488,0.305,595.073
128923,150386,12299,0.072,-0.914,-0.281,-0.427,0.122,0.244,595.079
128929,150361,38140,0.072,-0.913,-0.279,-0.427,0.122,0.244,595.083
128929,150396,12298,0.072,-0.912,-0.286,-0.793,0.183,0.549,595.089
128920,150361,38140,0.063,-0.915,-0.288,-0.793,0.183,0.549,595.093
128920,150403,12300,0.063,-0.917,-0.285,-0.793,0.427,0.793,595.099
128907,150361,38140,0.066,-0.92,-0.28,-0.793,0.427,0.793,595.103
128907,150379,12280,0.07,-0.92,-0.284,-0.366,-0.122,0.732,595.109
128911,150361,38140,0.071,-0.917,-0.285,-0.366,-0.122,0.732,595.112
128911,150372,12286,0.07,-0.917,-0.284,-0.061,-0.366,0.732,595.119
128908,150361,38140,0.065,-0.916,-0.279,-0.061,-0.366,0.732,595.122
128908,150392,12289,0.065,-0.918,-0.28,-0.122,-0.244,0.732,595.129
128924,150361,38140,0.066,-0.918,-0.283,-0.122,-0.244,0.732,595.132
128924,150386,12290,0.067,-0.918,-0.282,-0.549,-0.183,0.427,595.138
128893,150361,38140,0.064,-0.917,-0.28,-0.549,-0.183,0.427,595.142
128893,150362,12313,0.067,-0.917,-0.288,-0.915,0.061,0.183,595.148
128905,150361,38140,0.069,-0.919,-0.288,-0.915,0.061,0.183,595.152
128905,150407,12278,0.064,-0.919,-0.288,-0.915,0.305,0,595.158
128896,150361,38140,0.066,-0.918,-0.282,-0.915,0.305,0,595.162
128896,150407,12288,0.068,-0.916,-0.284,-0.732,0.244,-0.061,595.168
128939,150361,38140,0.07,-0.909,-0.282,-0.732,0.244,-0.061,595.172
128939,150398,12285,0.067,-0.907,-0.282,-0.61,0.244,0,595.178
128919,150361,38140,0.07,-0.913,-0.286,-0.61,0.244,0,595.182
128919,150382,12297,0.069,-0.916,-0.281,-0.61,0.366,0.061,595.188
128940,150361,38140,0.068,-0.915,-0.28,-0.61,0.366,0.061,595.192
128940,150403,12296,0.072,-0.913,-0.283,-0.61,0.244,0.061,595.198
128927,150361,38140,0.074,-0.912,-0.284,-0.61,0.244,0.061,595.202
128927,150412,12297,0.074,-0.914,-0.281,-0.427,-0.061,0.183,595.208
128951,150361,38140,0.074,-0.913,-0.289,-0.427,-0.061,0.183,595.211
128951,150406,12309,0.073,-0.914,-0.282,-0.549,0,0.427,595.218
128942,150361,38140,0.075,-0.921,-0.288,-0.549,0,0.427,595.221
128942,150408,12279,0.075,-0.923,-0.293,-0.793,0.122,0.427,595.228
128935,150361,38140,0.069,-0.92,-0.295,-0.793,0.122,0.427,595.231
128935,150396,12292,0.069,-0.922,-0.289,-0.427,0.427,0.488,595.237
128931,150361,38140,0.066,-0.924,-0.289,-0.427,0.427,0.488,595.241
128931,150383,12284,0.067,-0.923,-0.288,-0.244,0.427,0.488,595.247
128929,150361,38140,0.069,-0.919,-0.285,-0.244,0.427,0.488,595.251
128929,150404,12299,0.069,-0.913,-0.281,0,0.305,0.244,595.257
128910,150361,38140,0.069,-0.913,-0.281,0,0.305,0.244,595.261
128910,150396,12279,0.068,-0.905,-0.279,0,0.305,0.366,595.267
128943,150361,38140,0.068,-0.905,-0.279,0,0.305,0.366,595.271
128943,150376,12285,0.073,-0.917,-0.28,-0.244,0.427,0.427,595.277
128904,150361,38140,0.073,-0.917,-0.28,-0.244,0.427,0.427,595.281
128904,150387,12290,0.068,-0.915,-0.286,-0.427,0.976,0.366,595.287
128936,150361,38140,0.068,-0.915,-0.286,-0.427,0.976,0.366,595.291
128936,150383,12276,0.065,-0.917,-0.288,-0.366,1.037,0.427,595.297
128913,150361,38140,0.065,-0.917,-0.288,-0.366,1.037,0.427,595.301
128913,150384,12303,0.071,-0.912,-0.284,-0.366,0.793,0.366,595.307
128926,150361,38140,0.071,-0.912,-0.284,-0.366,0.793,0.366,595.31
128926,150375,12281,0.069,-0.917,-0.286,-0.427,0.793,0.549,595.317
128881,150361,38140,0.069,-0.917,-0.286,-0.427,0.793,0.549,595.32
128881,150369,12286,0.07,-0.919,-0.289,-0.244,0.976,0.732,595.327
128905,150361,38140,0.07,-0.919,-0.289,-0.244,0.976,0.732,595.33
128905,150377,12270,0.069,-0.914,-0.285,-0.061,0.915,0.793,595.336
128898,150361,38140,0.069,-0.914,-0.285,-0.061,0.915,0.793,595.34
128898,150374,12285,0.07,-0.915,-0.288,-0.122,0.671,0.549,595.346
128893,150361,38140,0.07,-0.915,-0.288,-0.122,0.671,0.549,595.35
128893,150367,12281,0.071,-0.917,-0.283,-0.183,0.793,0.488,595.356
128888,150361,38140,0.071,-0.917,-0.283,-0.183,0.793,0.488,595.36
128888,150366,12272,0.066,-0.921,-0.281,-0.183,0.549,0.488,595.366
128903,150361,38140,0.066,-0.921,-0.281,-0.183,0.549,0.488,595.37
128903,150370,12258,0.064,-0.917,-0.285,-0.183,0.61,0.549,595.376
128885,150361,38140,0.064,-0.917,-0.285,-0.183,0.61,0.549,595.38
128885,150349,12284,0.069,-0.911,-0.281,-0.244,0.305,0.366,595.386
128893,150361,38140,0.069,-0.911,-0.281,-0.244,0.305,0.366,595.39
128893,150365,12280,0.074,-0.916,-0.281,-0.122,0,0.183,595.396
128880,150361,38140,0.074,-0.916,-0.281,-0.122,0,0.183,595.4
128880,150370,12288,0.073,-0.916,-0.285,-0.122,0,0.183,595.406
128872,150361,38140,0.07,-0.917,-0.282,-0.183,0.366,0.122,595.409
128872,150362,12283,0.069,-0.918,-0.281,-0.183,0.366,0.122,595.416
128895,150361,38140,0.072,-0.915,-0.283,-0.305,0.305,0.244,595.419
128895,150387,12286,0.07,-0.912,-0.28,-0.305,0.305,0.244,595.425
128890,150361,38140,0.073,-0.908,-0.284,-0.366,0,0.427,595.429
128890,150369,12271,0.074,-0.905,-0.287,-0.366,0,0.427,595.435
128876,150361,38140,0.07,-0.91,-0.286,-0.549,-0.122,0.793,595.439
128876,150370,12283,0.065,-0.919,-0.279,-0.549,-0.122,0.793,595.445
128896,150361,38140,0.064,-0.925,-0.284,-0.732,-0.183,0.915,595.449
128896,150362,12273,0.067,-0.926,-0.288,-0.732,-0.183,0.915,595.455
128875,150361,38140,0.069,-0.913,-0.293,-0.671,0.061,0.671,595.459
128875,150364,12269,0.067,-0.911,-0.285,-0.671,0.061,0.671,595.465
128890,150361,38140,0.065,-0.913,-0.283,-0.427,0,0.61,595.469
128890,150368,12280,0.065,-0.917,-0.288,-0.427,0,0.61,595.475
128895,150361,38140,0.062,-0.921,-0.284,-0.427,0.122,0.366,595.479
128895,150385,12299,0.064,-0.916,-0.289,-0.427,0.122,0.366,595.485
128910,150361,38140,0.066,-0.917,-0.286,-0.488,0.244,0.122,595.489
128910,150374,12281,0.069,-0.915,-0.282,-0.488,0.244,0.122,595.495
128899,150361,38140,0.065,-0.914,-0.281,-0.244,0,0.061,595.499
128899,150383,12296,0.068,-0.913,-0.283,-0.244,0,0.061,595.505
128895,150361,38140,0.068,-0.914,-0.292,-0.427,0,0.061,595.508
128895,150366,12292,0.072,-0.917,-0.288,-0.427,0,0.061,595.515
128900,150361,38140,0.068,-0.917,-0.283,-0.305,0,0.061,595.518
128900,150369,12280,0.067,-0.915,-0.286,-0.305,0,0.061,595.525
128892,150361,38140,0.067,-0.912,-0.287,-0.122,0.061,0.122,595.528
128892,150384,12276,0.069,-0.908,-0.284,-0.122,0.061,0.122,595.534
128873,150361,38140,0.071,-0.909,-0.284,-0.488,0,0.183,595.538
128873,150382,12301,0.072,-0.911,-0.286,-0.488,0,0.183,595.544
128884,150361,38140,0.069,-0.916,-0.288,-0.854,0.122,0.305,595.548
128884,150367,12279,0.069,-0.917,-0.286,-0.854,0.122,0.305,595.554
128885,150361,38140,0.07,-0.913,-0.283,-0.915,-0.061,0.366,595.558
128885,150376,12282,0.073,-0.908,-0.282,-0.915,-0.061,0.366,595.564
128899,150361,38140,0.071,-0.91,-0.287,-0.793,-0.244,0.61,595.568
128899,150399,12292,0.07,-0.917,-0.286,-0.793,-0.244,0.61,595.574
128925,150361,38140,0.068,-0.92,-0.292,-0.671,0.061,0.549,595.578
128925,150402,12273,0.068,-0.921,-0.294,-0.671,0.061,0.549,595.584
128917,150361,38140,0.069,-0.921,-0.29,-0.427,0.305,0.488,595.588
128917,150405,12293,0.068,-0.918,-0.29,-0.427,0.305,0.488,595.594
128950,150361,38140,0.07,-0.914,-0.286,-0.244,0.366,0.549,595.598
128950,150424,12295,0.068,-0.914,-0.285,-0.244,0.366,0.549,595.604
128966,150361,38140,0.067,-0.914,-0.289,-0.305,0.488,0.793,595.607
128966,150442,12293,0.065,-0.916,-0.286,-0.305,0.488,0.793,595.614
128979,150361,38140,0.067,-0.917,-0.278,-0.366,0.488,0.732,595.617
128979,150420,12299,0.068,-0.914,-0.278,-0.366,0.488,0.732,595.623
128976,150361,38140,0.068,-0.912,-0.288,-0.671,0.61,0.549,595.627
128976,150456,12295,0.065,-0.916,-0.29,-0.671,0.61,0.549,595.633
128968,150361,38140,0.067,-0.916,-0.287,-0.671,0.793,0.366,595.637
128968,150442,12283,0.066,-0.918,-0.283,-0.671,0.793,0.366,595.643
128958,150361,38140,0.07,-0.916,-0.286,-0.305,0.305,0.122,595.647
128958,150407,12286,0.068,-0.916,-0.282,-0.305,0.305,0.122,595.653
128950,150361,38140,0.071,-0.918,-0.282,-0.183,0.183,0.183,595.657
128950,150445,12305,0.068,-0.917,-0.283,-0.183,0.183,0.183,595.663
128942,150361,38140,0.069,-0.914,-0.283,-0.183,0.244,0.183,595.667
128942,150438,12286,0.071,-0.912,-0.28,-0.183,0.244,0.183,595.673
128970,150361,38140,0.073,-0.914,-0.282,-0.244,0,0.122,595.677
128970,150422,12281,0.074,-0.914,-0.28,-0.244,0,0.122,595.683
128930,150361,38140,0.073,-0.915,-0.285,-0.305,0,0.122,595.687
128930,150399,12295,0.072,-0.916,-0.287,-0.305,0,0.122,595.693
128962,150361,38140,0.072,-0.913,-0.289,-0.732,0.366,0.244,595.697
128962,150403,12292,0.064,-0.912,-0.287,-0.732,0.366,0.244,595.703
128939,150361,38140,0.069,-0.914,-0.291,-0.61,0.488,0.244,595.706
128939,150406,12303,0.074,-0.919,-0.291,-0.61,0.488,0.244,595.713
128943,150361,38140,0.07,-0.917,-0.289,-0.244,0.427,0.305,595.716
128943,150416,12283,0.07,-0.916,-0.29,-0.244,0.427,0.305,595.722
128926,150361,38140,0.071,-0.909,-0.292,-0.305,0.61,0.488,595.726
128926,150438,12296,0.07,-0.908,-0.291,-0.305,0.61,0.488,595.732
128934,150361,38140,0.07,-0.91,-0.286,-0.061,0.549,0.732,595.736
128934,150392,12297,0.068,-0.912,-0.281,-0.061,0.549,0.732,595.742
128929,150361,38140,0.069,-0.917,-0.278,0,0.366,0.793,595.746
128929,150405,12287,0.071,-0.92,-0.275,0,0.366,0.793,595.752
128941,150361,38140,0.068,-0.915,-0.277,-0.488,0.488,0.854,595.756
128941,150378,12296,0.068,-0.917,-0.285,-0.488,0.488,0.854,595.762
128918,150361,38140,0.065,-0.918,-0.287,-0.732,0.549,0.854,595.766
128918,150408,12286,0.065,-0.916,-0.287,-0.732,0.549,0.854,595.772
128894,150361,38140,0.064,-0.915,-0.285,-0.732,0.244,0.61,595.776
128894,150382,12287,0.067,-0.915,-0.283,-0.732,0.244,0.61,595.782
128915,150361,38140,0.071,-0.911,-0.283,-0.549,-0.244,0.427,595.786
128915,150397,12286,0.07,-0.911,-0.286,-0.549,-0.244,0.427,595.792
128931,150361,38140,0.07,-0.913,-0.288,-0.671,-0.122,0.488,595.795
128931,150390,12298,0.068,-0.914,-0.291,-0.671,-0.122,0.488,595.802
128936,150361,38140,0.065,-0.92,-0.289,-0.976,0.061,0.488,595.805
128936,150361,12282,0.066,-0.918,-0.286,-0.976,0.061,0.488,595.812
128921,150361,38140,0.068,-0.914,-0.291,-0.854,0.122,0.549,595.815
128921,150397,12291,0.071,-0.908,-0.294,-0.854,0.122,0.549,595.821
128927,150361,38140,0.073,-0.909,-0.286,-0.793,0.061,0.488,595.825
128927,150403,12283,0.069,-0.912,-0.289,-0.793,0.061,0.488,595.831
128932,150361,38140,0.069,-0.912,-0.289,-0.793,0.061,0.488,595.835
128932,150382,12291,0.067,-0.92,-0.286,-0.549,0.061,0.427,595.841
128926,150361,38140,0.067,-0.92,-0.286,-0.549,0.061,0.427,595.845
128926,150394,12271,0.064,-0.922,-0.287,-0.183,0.305,0.488,595.851
128907,150361,38140,0.064,-0.922,-0.287,-0.183,0.305,0.488,595.855
128907,150367,12285,0.064,-0.92,-0.293,-0.244,0.671,0.305,595.861
128921,150361,38140,0.064,-0.92,-0.293,-0.244,0.671,0.305,595.865
128921,150401,12274,0.062,-0.917,-0.29,0,0.915,0.061,595.871
128892,150361,38140,0.062,-0.917,-0.29,0,0.915,0.061,595.875
128892,150381,12278,0.07,-0.913,-0.281,0.305,0.671,-0.122,595.881
128911,150361,38140,0.07,-0.913,-0.281,0.305,0.671,-0.122,595.885
128911,150400,12272,0.069,-0.913,-0.277,0.366,0.427,-0.305,595.891
128926,150361,38140,0.069,-0.913,-0.277,0.366,0.427,-0.305,595.894
128926,150376,12264,0.074,-0.916,-0.275,0,0.305,-0.122,595.901
128900,150361,38140,0.074,-0.916,-0.275,0,0.305,-0.122,595.904
128900,150388,12288,0.071,-0.911,-0.276,-0.488,0.061,0.061,595.911
128914,150361,38140,0.071,-0.911,-0.276,-0.488,0.061,0.061,595.914
128914,150405,12294,0.068,-0.91,-0.286,-0.976,0.061,0.183,595.92
128932,150361,38140,0.068,-0.91,-0.286,-0.976,0.061,0.183,595.924
128932,150385,12269,0.068,-0.917,-0.29,-1.159,0,0.488,595.93
128928,150361,38140,0.068,-0.917,-0.29,-1.159,0,0.488,595.934
128928,150379,12283,0.068,-0.914,-0.302,-1.28,-0.061,0.61,595.94
128930,150361,38140,0.068,-0.914,-0.302,-1.28,-0.061,0.61,595.944
128930,150413,12286,0.067,-0.91,-0.3,-1.402,0.183,0.732,595.95
128945,150361,38140,0.067,-0.91,-0.3,-1.402,0.183,0.732,595.954
128945,150381,12287,0.068,-0.92,-0.291,-0.915,0.427,0.61,595.96
128916,150361,38140,0.068,-0.92,-0.291,-0.915,0.427,0.61,595.964
128916,150378,12273,0.067,-0.916,-0.284,-0.122,0.488,0.305,595.97
128935,150361,38140,0.067,-0.916,-0.284,-0.122,0.488,0.305,595.974
128935,150392,12282,0.068,-0.915,-0.286,-0.061,0.61,0.122,595.98
128917,150361,38140,0.067,-0.912,-0.29,-0.061,0.61,0.122,595.984
128917,150383,12273,0.062,-0.921,-0.292,-0.366,1.159,-0.122,595.99
128924,150361,38140,0.064,-0.924,-0.286,-0.366,1.159,-0.122,595.993
128924,150400,12280,0.07,-0.918,-0.285,-0.122,1.28,-0.366,596
128932,150361,38140,0.072,-0.916,-0.284,-0.122,1.28,-0.366,596.003
128932,150390,12281,0.071,-0.912,-0.278,0.122,0.671,-0.244,596.01
128917,150361,38140,0.071,-0.909,-0.276,0.122,0.671,-0.244,596.013
128917,150385,12280,0.066,-0.906,-0.281,0.061,0.488,0.061,596.019
128917,150361,38140,0.064,-0.907,-0.284,0.061,0.488,0.061,596.023
128917,150401,12283,0.069,-0.908,-0.281,-0.427,0.122,0.183,596.029
128910,150361,38140,0.075,-0.913,-0.279,-0.427,0.122,0.183,596.033
128910,150374,12286,0.075,-0.913,-0.281,-0.549,-0.427,0.244,596.039
128904,150361,38140,0.077,-0.914,-0.285,-0.549,-0.427,0.244,596.043
128904,150389,12275,0.076,-0.911,-0.288,-0.671,-0.427,0.671,596.049
128902,150361,38140,0.072,-0.913,-0.292,-0.671,-0.427,0.671,596.053
128902,150377,12273,0.069,-0.917,-0.293,-0.488,-0.183,1.098,596.059
128912,150361,38140,0.065,-0.921,-0.295,-0.488,-0.183,1.098,596.063
128912,150391,12272,0.066,-0.924,-0.296,-0.122,0.122,1.037,596.069
128911,150361,38140,0.069,-0.917,-0.299,-0.122,0.122,1.037,596.073
128911,150401,12297,0.07,-0.916,-0.3,0.183,0.366,0.793,596.079
128930,150361,38140,0.068,-0.915,-0.296,0.183,0.366,0.793,596.083
128930,150385,12298,0.066,-0.919,-0.294,0.549,0.793,0.671,596.089
128932,150361,38140,0.066,-0.922,-0.296,0.549,0.793,0.671,596.092
128932,150400,12277,0.067,-0.922,-0.288,0.915,1.341,0.427,596.099
128932,150361,38140,0.07,-0.917,-0.283,0.915,1.341,0.427,596.102
128932,150399,12282,0.068,-0.912,-0.279,1.22,1.22,0.305,596.109
128916,150361,38140,0.067,-0.91,-0.276,1.22,1.22,0.305,596.112
128916,150405,12275,0.066,-0.913,-0.272,0.976,1.159,0.244,596.118
128901,150361,38140,0.064,-0.91,-0.28,0.976,1.159,0.244,596.122
128901,150383,12277,0.061,-0.904,-0.28,0.366,0.976,0.244,596.128
128911,150361,38140,0.062,-0.907,-0.279,0.366,0.976,0.244,596.132
128911,150398,12292,0.068,-0.913,-0.284,-0.244,0.305,0.061,596.138
128923,150361,38140,0.069,-0.919,-0.286,-0.244,0.305,0.061,596.142
128923,150371,12277,0.067,-0.918,-0.284,-0.305,0.061,0,596.148
128925,150361,38140,0.067,-0.915,-0.283,-0.305,0.061,0,596.152
128925,150393,12281,0.073,-0.916,-0.28,-0.488,-0.183,0,596.158
128913,150361,38140,0.072,-0.916,-0.283,-0.488,-0.183,0,596.162
128913,150403,12278,0.07,-0.912,-0.289,-0.549,-0.427,0,596.168
128926,150361,38140,0.073,-0.914,-0.294,-0.549,-0.427,0,596.172
128926,150379,12290,0.077,-0.918,-0.286,-0.671,-0.366,0.244,596.178
128897,150361,38140,0.077,-0.918,-0.293,-0.671,-0.366,0.244,596.182
128897,150410,12283,0.074,-0.914,-0.293,-0.61,-0.244,0.549,596.188
128931,150361,38140,0.075,-0.909,-0.286,-0.61,-0.244,0.549,596.191
128931,150399,12279,0.075,-0.914,-0.292,-0.427,0,0.915,596.198
128945,150361,38140,0.072,-0.915,-0.294,-0.427,0,0.915,596.201
128945,150404,12282,0.068,-0.923,-0.294,-0.183,0.732,0.793,596.208
128940,150361,38140,0.065,-0.922,-0.295,-0.183,0.732,0.793,596.211
128940,150422,12299,0.067,-0.92,-0.29,0.183,0.915,0.671,596.217
128969,150361,38140,0.066,-0.917,-0.286,0.183,0.915,0.671,596.221
128969,150426,12290,0.064,-0.912,-0.285,0.305,0.671,0.549,596.227
128965,150361,38140,0.064,-0.909,-0.282,0.305,0.671,0.549,596.231
128965,150449,12310,0.063,-0.911,-0.281,-0.061,0.854,0.61,596.237
128974,150361,38140,0.061,-0.914,-0.28,-0.061,0.854,0.61,596.241
128974,150438,12289,0.061,-0.914,-0.281,-0.549,0.732,0.427,596.247
128948,150361,38140,0.061,-0.916,-0.281,-0.549,0.732,0.427,596.251
128948,150411,12292,0.068,-0.915,-0.281,-0.671,0.244,0.061,596.257
128932,150361,38140,0.07,-0.91,-0.277,-0.671,0.244,0.061,596.261
128932,150423,12295,0.068,-0.911,-0.279,-0.671,-0.122,0,596.267
128924,150361,38140,0.07,-0.911,-0.284,-0.671,-0.122,0,596.271
128924,150396,12273,0.068,-0.912,-0.278,-0.732,-0.366,0.061,596.277
128934,150361,38140,0.07,-0.913,-0.283,-0.732,-0.366,0.061,596.281
128934,150389,12272,0.072,-0.913,-0.292,-0.915,-0.366,0.244,596.287
128927,150361,38140,0.071,-0.913,-0.295,-0.915,-0.366,0.244,596.29
128927,150422,12286,0.072,-0.912,-0.291,-0.61,-0.183,0.183,596.297
128939,150361,38140,0.069,-0.914,-0.29,-0.61,-0.183,0.183,596.3
128939,150399,12280,0.075,-0.922,-0.288,-0.244,-0.366,0.183,596.307
128941,150361,38140,0.074,-0.924,-0.295,-0.244,-0.366,0.183,596.31
128941,150396,12285,0.07,-0.924,-0.295,-0.122,0.366,0.366,596.316
128940,150361,38140,0.067,-0.918,-0.294,-0.122,0.366,0.366,596.32
128940,150407,12287,0.066,-0.916,-0.293,0.183,0.915,0.366,596.326
128959,150361,38140,0.068,-0.917,-0.288,0.183,0.915,0.366,596.33
128959,150412,12285,0.067,-0.918,-0.283,0.183,0.854,0.061,596.336
128949,150361,38140,0.069,-0.916,-0.286,0.183,0.854,0.061,596.34
128949,150397,12288,0.072,-0.912,-0.286,0.061,1.037,-0.061,596.346
128933,150361,38140,0.071,-0.908,-0.287,0.061,1.037,-0.061,596.35
128933,150418,12289,0.065,-0.91,-0.284,-0.183,1.159,0.183,596.356
128950,150361,38140,0.068,-0.915,-0.286,-0.183,1.159,0.183,596.36
128950,150404,12284,0.071,-0.916,-0.285,-0.122,0.915,0.366,596.366
128917,150361,38140,0.069,-0.916,-0.286,-0.122,0.915,0.366,596.37
128917,150362,12299,0.071,-0.916,-0.285,0.122,0.671,0.549,596.376
128922,150361,38140,0.073,-0.914,-0.287,0.122,0.671,0.549,596.38
128922,150395,12288,0.071,-0.91,-0.285,0.427,0.366,0.793,596.386
128903,150361,38140,0.065,-0.91,-0.281,0.427,0.366,0.793,596.389
128903,150386,12282,0.069,-0.91,-0.281,0.427,-0.061,0.854,596.396
128921,150361,38140,0.07,-0.914,-0.28,0.427,-0.061,0.854,596.399
128921,150401,12285,0.073,-0.914,-0.283,-0.183,-0.366,0.732,596.406
128918,150361,38140,0.071,-0.918,-0.286,-0.183,-0.366,0.732,596.409
128918,150378,12266,0.064,-0.919,-0.29,-0.732,0,0.61,596.415
128929,150361,38140,0.064,-0.919,-0.29,-0.732,0,0.61,596.419
128929,150401,12282,0.066,-0.921,-0.293,-0.854,0.244,0.427,596.425
128950,150361,38140,0.066,-0.921,-0.293,-0.854,0.244,0.427,596.429
128950,150422,12283,0.067,-0.919,-0.295,-0.488,0.366,0.183,596.435
128940,150361,38140,0.067,-0.919,-0.295,-0.488,0.366,0.183,596.439
128940,150412,12281,0.068,-0.912,-0.291,0,0.671,0,596.445
128949,150361,38140,0.068,-0.912,-0.291,0,0.671,0,596.449
128949,150397,12291,0.07,-0.911,-0.288,0.183,0.732,0.061,596.455
128947,150361,38140,0.07,-0.911,-0.288,0.183,0.732,0.061,596.459
128947,150417,12298,0.073,-0.91,-0.285,0.244,0.671,0.122,596.465
128959,150361,38140,0.073,-0.91,-0.285,0.244,0.671,0.122,596.469
128959,150412,12285,0.07,-0.907,-0.279,0.305,0.732,0.366,596.475
128944,150361,38140,0.07,-0.907,-0.279,0.305,0.732,0.366,596.479
128944,150399,12278,0.068,-0.915,-0.281,-0.061,0.366,0.671,596.485
128936,150361,38140,0.068,-0.915,-0.281,-0.061,0.366,0.671,596.488
128936,150416,12293,0.067,-0.922,-0.285,-0.305,0,0.61,596.495
128915,150361,38140,0.067,-0.922,-0.285,-0.305,0,0.61,596.498
128915,150414,12275,0.066,-0.919,-0.286,-0.427,-0.244,0.61,596.504
128927,150361,38140,0.066,-0.919,-0.286,-0.427,-0.244,0.61,596.508
128927,150406,12278,0.073,-0.915,-0.286,-0.549,-0.305,0.427,596.514
128943,150361,38140,0.073,-0.915,-0.286,-0.549,-0.305,0.427,596.518
128943,150384,12278,0.072,-0.916,-0.285,-0.488,0,0.061,596.524
128934,150361,38140,0.072,-0.916,-0.285,-0.488,0,0.061,596.528
128934,150435,12289,0.072,-0.914,-0.289,-0.305,0.244,0,596.534
128977,150361,38140,0.072,-0.914,-0.289,-0.305,0.244,0,596.538
128977,150421,12278,0.07,-0.912,-0.29,-0.183,0.61,0.305,596.544
128956,150361,38140,0.07,-0.912,-0.29,-0.183,0.61,0.305,596.548
128956,150414,12288,0.065,-0.908,-0.296,-0.305,0.793,0.61,596.554
128993,150361,38140,0.065,-0.908,-0.296,-0.305,0.793,0.61,596.558
128993,150418,12293,0.066,-0.911,-0.292,-0.305,0.793,0.61,596.564
128974,150361,38140,0.068,-0.917,-0.295,-0.183,0.854,0.671,596.568
128974,150428,12306,0.065,-0.925,-0.295,-0.183,0.854,0.671,596.574
128970,150361,38140,0.065,-0.919,-0.286,0.061,0.976,0.793,596.578
128970,150438,12290,0.067,-0.914,-0.281,0.061,0.976,0.793,596.584
128968,150361,38140,0.063,-0.913,-0.28,0.244,0.976,0.732,596.587
128968,150416,12285,0.064,-0.915,-0.28,0.244,0.976,0.732,596.594
128955,150361,38140,0.07,-0.916,-0.284,0.122,0.671,0.427,596.597
128955,150438,12289,0.068,-0.911,-0.286,0.122,0.671,0.427,596.603
128957,150361,38140,0.065,-0.911,-0.283,0.061,0.427,0.244,596.607
128957,150442,12292,0.064,-0.914,-0.286,0.061,0.427,0.244,596.613
128975,150361,38140,0.071,-0.914,-0.287,0,0.122,0.305,596.617
128975,150409,12283,0.067,-0.91,-0.286,0,0.122,0.305,596.623
128962,150361,38140,0.066,-0.911,-0.281,-0.061,0,0.366,596.627
128962,150436,12291,0.068,-0.916,-0.284,-0.061,0,0.366,596.633
128984,150361,38140,0.068,-0.918,-0.285,-0.244,-0.061,0.122,596.637
128984,150441,12292,0.068,-0.914,-0.289,-0.244,-0.061,0.122,596.643
128994,150361,38140,0.069,-0.913,-0.282,-0.366,0.183,0.061,596.647
128994,150469,12285,0.072,-0.916,-0.289,-0.366,0.183,0.061,596.653
129039,150361,38140,0.07,-0.917,-0.295,-0.366,0.366,0.061,596.657
129039,150498,12296,0.07,-0.918,-0.294,-0.366,0.366,0.061,596.663
129027,150361,38140,0.07,-0.919,-0.293,-0.122,0.732,0,596.667
129027,150467,12317,0.068,-0.92,-0.296,-0.122,0.732,0,596.673
129020,150361,38140,0.07,-0.914,-0.289,0.427,0.854,0.183,596.677
129020,150489,12292,0.069,-0.911,-0.283,0.427,0.854,0.183,596.683
129050,150361,38140,0.071,-0.908,-0.284,0.244,0.793,0.488,596.686
129050,150464,12294,0.069,-0.915,-0.285,0.244,0.793,0.488,596.693
129023,150361,38140,0.064,-0.922,-0.288,-0.183,0.732,0.549,596.696
129023,150458,12307,0.063,-0.918,-0.285,-0.183,0.732,0.549,596.702
129017,150361,38140,0.064,-0.911,-0.283,0.183,0.427,0.488,596.706
129017,150443,12299,0.069,-0.906,-0.284,0.183,0.427,0.488,596.712
128998,150361,38140,0.068,-0.903,-0.285,0,-0.244,0.488,596.716
128998,150464,12298,0.067,-0.908,-0.284,0,-0.244,0.488,596.722
129009,150361,38140,0.063,-0.914,-0.286,-0.488,-0.122,0.427,596.726
129009,150460,12312,0.062,-0.92,-0.289,-0.488,-0.122,0.427,596.732
128994,150361,38140,0.066,-0.922,-0.288,-0.427,-0.183,0.122,596.736
128994,150445,12294,0.066,-0.922,-0.289,-0.427,-0.183,0.122,596.742
129005,150361,38140,0.068,-0.918,-0.288,-0.061,-0.244,0.122,596.746
129005,150453,12308,0.069,-0.913,-0.293,-0.061,-0.244,0.122,596.752
129007,150361,38140,0.07,-0.916,-0.3,-0.061,0.244,0.061,596.756
129007,150469,12305,0.069,-0.919,-0.298,-0.061,0.244,0.061,596.762
129030,150361,38140,0.065,-0.914,-0.292,0.183,0.61,-0.183,596.766
129030,150494,12304,0.071,-0.91,-0.288,0.183,0.61,-0.183,596.772
129044,150361,38140,0.073,-0.909,-0.285,0.183,0.427,-0.305,596.776
129044,150471,12310,0.073,-0.913,-0.283,0.183,0.427,-0.305,596.782
129032,150361,38140,0.072,-0.915,-0.283,0.122,0.549,-0.183,596.785
129032,150466,12296,0.067,-0.916,-0.286,0.122,0.549,-0.183,596.792
129029,150361,38140,0.065,-0.917,-0.284,0.183,1.037,0.061,596.795
129029,150477,12297,0.071,-0.915,-0.283,0.183,1.037,0.061,596.801
129018,150361,38140,0.074,-0.914,-0.278,0.427,0.671,-0.061,596.805
129018,150466,12309,0.073,-0.908,-0.282,0.427,0.671,-0.061,596.811
129011,150361,38140,0.069,-0.907,-0.284,0.488,0.61,0.061,596.815
129011,150470,12305,0.069,-0.911,-0.28,0.488,0.61,0.061,596.821
129020,150361,38140,0.07,-0.916,-0.285,0.427,0.61,0.305,596.825
129020,150451,12297,0.066,-0.922,-0.286,0.427,0.61,0.305,596.831
129003,150361,38140,0.07,-0.919,-0.287,0.549,0.549,0.366,596.835
129003,150473,12311,0.07,-0.911,-0.294,0.549,0.549,0.366,596.841
128997,150361,38140,0.071,-0.904,-0.3,0.427,0.427,0.427,596.845
128997,150459,12311,0.07,-0.903,-0.286,0.427,0.427,0.427,596.851
129022,150361,38140,0.072,-0.908,-0.275,0.366,0,0.61,596.855
129022,150468,12322,0.071,-0.917,-0.276,0.366,0,0.61,596.861
129024,150361,38140,0.073,-0.917,-0.28,-0.488,-0.427,0.793,596.865
129024,150473,12309,0.076,-0.92,-0.291,-0.488,-0.427,0.793,596.871
129051,150361,38140,0.066,-0.921,-0.292,-0.976,0.244,0.976,596.874
129051,150481,12310,0.06,-0.927,-0.291,-0.976,0.244,0.976,596.881
129034,150361,38140,0.06,-0.927,-0.29,-0.671,0.61,0.549,596.884
129034,150471,12312,0.065,-0.923,-0.29,-0.671,0.61,0.549,596.891
129044,150361,38140,0.07,-0.914,-0.291,0,0.488,0,596.894
129044,150464,12296,0.067,-0.909,-0.292,0,0.488,0,596.9
129021,150361,38140,0.066,-0.905,-0.293,0.366,0.915,-0.183,596.904
129021,150454,12319,0.064,-0.908,-0.281,0.366,0.915,-0.183,596.91
128998,150361,38140,0.068,-0.909,-0.28,0.549,1.037,-0.061,596.914
128998,150470,12321,0.07,-0.912,-0.279,0.549,1.037,-0.061,596.92
129002,150361,38140,0.071,-0.916,-0.274,0.366,0.793,-0.244,596.924
129002,150446,12305,0.072,-0.917,-0.272,0.366,0.793,-0.244,596.93
129009,150361,38140,0.069,-0.917,-0.281,0.305,0.976,0,596.934
129009,150438,12285,0.068,-0.915,-0.283,0.305,0.976,0,596.94
128997,150361,38140,0.066,-0.912,-0.277,0.244,0.854,0.244,596.944
128997,150442,12308,0.069,-0.908,-0.274,0.244,0.854,0.244,596.95
128997,150361,38140,0.068,-0.908,-0.281,-0.122,0.244,0.183,596.954
128997,150476,12314,0.073,-0.912,-0.284,-0.122,0.244,0.183,596.96
129024,150361,38140,0.072,-0.916,-0.292,-0.793,0.183,0.305,596.964
129024,150456,12328,0.068,-0.923,-0.293,-0.793,0.183,0.305,596.97
129025,150361,38140,0.069,-0.922,-0.289,-0.671,0.305,0.305,596.973
129025,150477,12314,0.07,-0.92,-0.29,-0.671,0.305,0.305,596.98
129033,150361,38140,0.073,-0.915,-0.295,-0.305,0.122,0.488,596.983
129033,150487,12315,0.074,-0.91,-0.297,-0.305,0.122,0.488,596.99
129030,150361,38140,0.07,-0.908,-0.291,-0.061,0.244,0.61,596.993
129030,150455,12320,0.071,-0.909,-0.287,-0.061,0.244,0.61,596.999
129032,150361,38140,0.071,-0.909,-0.287,-0.061,0.244,0.61,597.003
129032,150485,12324,0.074,-0.916,-0.282,0.305,-0.061,0.732,597.009
129015,150361,38140,0.074,-0.916,-0.282,0.305,-0.061,0.732,597.013
129015,150460,12304,0.066,-0.921,-0.286,0,0.183,0.793,597.019
129011,150361,38140,0.066,-0.921,-0.286,0,0.183,0.793,597.023
129011,150449,12297,0.064,-0.922,-0.279,-0.183,0.915,0.732,597.029
129016,150361,38140,0.064,-0.922,-0.279,-0.183,0.915,0.732,597.033
129016,150458,12306,0.065,-0.912,-0.283,0.061,0.915,0.488,597.039
129022,150361,38140,0.065,-0.912,-0.283,0.061,0.915,0.488,597.043
129022,150452,12317,0.069,-0.901,-0.274,0.305,0.793,0.122,597.049
128998,150361,38140,0.069,-0.901,-0.274,0.305,0.793,0.122,597.053
128998,150451,12298,0.066,-0.912,-0.279,0.061,0.732,0.244,597.059
129020,150361,38140,0.066,-0.912,-0.279,0.061,0.732,0.244,597.063
129020,150456,12312,0.065,-0.916,-0.286,-0.427,0.549,0.427,597.069
129012,150361,38140,0.065,-0.916,-0.286,-0.427,0.549,0.427,597.072
129012,150465,12317,0.07,-0.918,-0.276,-0.366,0.183,0.427,597.079
129036,150361,38140,0.07,-0.918,-0.276,-0.366,0.183,0.427,597.082
129036,150459,12311,0.069,-0.918,-0.28,-0.183,-0.366,0.427,597.089
129025,150361,38140,0.069,-0.918,-0.28,-0.183,-0.366,0.427,597.092
129025,150476,12301,0.07,-0.917,-0.291,-0.488,-0.366,0.488,597.098
129024,150361,38140,0.07,-0.917,-0.291,-0.488,-0.366,0.488,597.102
129024,150494,12318,0.067,-0.921,-0.292,-0.732,-0.122,0.427,597.108
129026,150361,38140,0.067,-0.921,-0.292,-0.732,-0.122,0.427,597.112
129026,150457,12307,0.071,-0.918,-0.292,-0.671,0.061,0.183,597.118
129038,150361,38140,0.071,-0.918,-0.292,-0.671,0.061,0.183,597.122
129038,150477,12301,0.07,-0.907,-0.293,-0.549,0.366,0.061,597.128
129019,150361,38140,0.07,-0.907,-0.293,-0.549,0.366,0.061,597.132
129019,150442,12306,0.073,-0.915,-0.288,-0.366,0.549,0.122,597.138
129005,150361,38140,0.073,-0.915,-0.288,-0.366,0.549,0.122,597.142
129005,150477,12319,0.072,-0.916,-0.281,-0.183,0.671,0.244,597.148
129007,150361,38140,0.075,-0.918,-0.277,-0.183,0.671,0.244,597.152
129007,150454,12317,0.073,-0.92,-0.276,0.122,0.549,0.244,597.158
129008,150361,38140,0.069,-0.916,-0.28,0.122,0.549,0.244,597.162
129008,150444,12315,0.068,-0.913,-0.276,0.061,0.549,0.427,597.168
129000,150361,38140,0.063,-0.913,-0.275,0.061,0.549,0.427,597.171
129000,150466,12292,0.068,-0.912,-0.285,-0.244,0.549,0.427,597.178
129001,150361,38140,0.069,-0.912,-0.293,-0.244,0.549,0.427,597.181
129001,150454,12303,0.066,-0.915,-0.289,-0.427,0.427,0.427,597.188
129008,150361,38140,0.069,-0.917,-0.291,-0.427,0.427,0.427,597.191
129008,150455,12306,0.07,-0.92,-0.292,-0.366,0.244,0.61,597.197
129000,150361,38140,0.071,-0.92,-0.29,-0.366,0.244,0.61,597.201
129000,150449,12296,0.068,-0.913,-0.292,-0.244,0.732,0.61,597.207
129009,150361,38140,0.067,-0.91,-0.29,-0.244,0.732,0.61,597.211
129009,150481,12295,0.072,-0.912,-0.29,-0.061,1.037,0.488,597.217
129018,150361,38140,0.071,-0.913,-0.287,-0.061,1.037,0.488,597.221
129018,150489,12310,0.069,-0.913,-0.285,0.122,0.854,0.488,597.227
129035,150361,38140,0.068,-0.913,-0.283,0.122,0.854,0.488,597.231
129035,150451,12308,0.072,-0.916,-0.28,0.183,0.61,0.427,597.237
129026,150361,38140,0.072,-0.917,-0.278,0.183,0.61,0.427,597.241
129026,150465,12311,0.068,-0.918,-0.282,-0.061,0.427,0.61,597.247
129040,150361,38140,0.067,-0.917,-0.29,-0.061,0.427,0.61,597.251
129040,150474,12319,0.066,-0.917,-0.288,-0.244,0.732,0.732,597.257
129058,150361,38140,0.063,-0.919,-0.29,-0.244,0.732,0.732,597.261
129058,150469,12314,0.063,-0.916,-0.285,-0.122,0.671,0.244,597.267
129032,150361,38140,0.065,-0.914,-0.282,-0.122,0.671,0.244,597.27
129032,150457,12329,0.069,-0.915,-0.281,0,0.305,-0.061,597.277
129026,150361,38140,0.07,-0.911,-0.281,0,0.305,-0.061,597.28
129026,150463,12307,0.068,-0.914,-0.282,-0.183,0.488,0.061,597.287
129008,150361,38140,0.067,-0.914,-0.287,-0.183,0.488,0.061,597.29
