134927,152409,38140,0.136,-0.925,-0.215,0.305,0.549,0.427,416.996
134927,152439,13656,0.134,-0.918,-0.216,-0.061,0.305,0.366,417.003
134923,152409,38140,0.134,-0.918,-0.216,-0.061,0.305,0.366,417.006
134923,152458,13666,0.135,-0.915,-0.22,-0.488,0,0.183,417.013
134936,152409,38140,0.135,-0.915,-0.22,-0.488,0,0.183,417.016
134936,152454,13665,0.139,-0.921,-0.217,-0.793,-0.183,0.061,417.022
134931,152409,38140,0.139,-0.921,-0.217,-0.793,-0.183,0.061,417.026
134931,152444,13651,0.14,-0.922,-0.227,-1.28,-0.122,0.122,417.032
134909,152409,38140,0.14,-0.922,-0.227,-1.28,-0.122,0.122,417.036
134909,152438,13670,0.139,-0.927,-0.222,-1.585,-0.427,0.183,417.042
134922,152409,38140,0.139,-0.927,-0.222,-1.585,-0.427,0.183,417.046
134922,152445,13667,0.14,-0.93,-0.225,-1.341,-0.244,0.183,417.052
134929,152409,38140,0.14,-0.93,-0.225,-1.341,-0.244,0.183,417.056
134929,152457,13653,0.14,-0.931,-0.222,-0.793,0.061,0.122,417.062
134911,152409,38140,0.14,-0.931,-0.222,-0.793,0.061,0.122,417.066
134911,152453,13661,0.137,-0.928,-0.225,-0.122,0.305,0.061,417.072
134937,152409,38140,0.137,-0.928,-0.225,-0.122,0.305,0.061,417.076
134937,152418,13663,0.14,-0.927,-0.222,0.061,0.488,-0.061,417.082
134897,152409,38140,0.14,-0.927,-0.222,0.061,0.488,-0.061,417.086
134897,152433,13659,0.142,-0.923,-0.224,0.549,0.488,-0.061,417.092
134902,152409,38140,0.142,-0.923,-0.224,0.549,0.488,-0.061,417.096
134902,152428,13655,0.144,-0.916,-0.219,0.549,0.671,0.305,417.102
134904,152409,38140,0.144,-0.916,-0.219,0.549,0.671,0.305,417.105
134904,152422,13642,0.139,-0.922,-0.225,0.122,0.854,0.427,417.112
134898,152409,38140,0.139,-0.922,-0.225,0.122,0.854,0.427,417.115
134898,152462,13667,0.14,-0.932,-0.225,0.122,0.854,0.427,417.121
134907,152409,38140,0.139,-0.931,-0.224,0.427,0.793,0.427,417.125
134907,152439,13657,0.138,-0.922,-0.225,0.427,0.793,0.427,417.131
134916,152409,38140,0.141,-0.917,-0.224,0.671,0.732,0.549,417.135
134916,152420,13657,0.14,-0.917,-0.22,0.671,0.732,0.549,417.141
134902,152409,38140,0.138,-0.918,-0.222,0.488,0.732,0.732,417.145
134902,152438,13653,0.138,-0.925,-0.221,0.488,0.732,0.732,417.151
134913,152409,38140,0.137,-0.928,-0.219,0.549,0.793,0.61,417.155
134913,152448,13657,0.141,-0.926,-0.215,0.549,0.793,0.61,417.161
134917,152409,38140,0.142,-0.92,-0.212,0.488,0.549,0.61,417.165
134917,152444,13641,0.141,-0.922,-0.211,0.488,0.549,0.61,417.171
134915,152409,38140,0.139,-0.923,-0.212,0.366,0.488,0.732,417.175
134915,152415,13659,0.138,-0.925,-0.212,0.366,0.488,0.732,417.181
134910,152409,38140,0.136,-0.922,-0.214,-0.061,0.61,0.61,417.185
134910,152417,13654,0.137,-0.924,-0.218,-0.061,0.61,0.61,417.191
134903,152409,38140,0.141,-0.928,-0.224,-0.732,0.488,0.549,417.194
134903,152435,13657,0.138,-0.934,-0.225,-0.732,0.488,0.549,417.201
134905,152409,38140,0.14,-0.931,-0.227,-0.427,0.488,0.488,417.204
134905,152418,13660,0.141,-0.924,-0.228,-0.427,0.488,0.488,417.211
134898,152409,38140,0.14,-0.924,-0.227,0.305,0.671,0.488,417.214
134898,152421,13652,0.136,-0.927,-0.224,0.305,0.671,0.488,417.22
134909,152409,38140,0.136,-0.93,-0.222,0.976,0.793,0.366,417.224
134909,152395,13661,0.135,-0.928,-0.219,0.976,0.793,0.366,417.23
134895,152409,38140,0.136,-0.923,-0.222,1.341,0.976,0.244,417.234
134895,152436,13651,0.14,-0.925,-0.217,1.341,0.976,0.244,417.24
134913,152409,38140,0.138,-0.923,-0.207,1.28,0.732,0.244,417.244
134913,152399,13649,0.138,-0.92,-0.203,1.28,0.732,0.244,417.25
134924,152409,38140,0.139,-0.914,-0.213,0.61,0.366,0.488,417.254
134924,152401,13651,0.136,-0.913,-0.213,0.61,0.366,0.488,417.26
134912,152409,38140,0.137,-0.917,-0.217,-0.427,0.183,0.671,417.264
134912,152438,13650,0.141,-0.921,-0.224,-0.427,0.183,0.671,417.27
134904,152409,38140,0.137,-0.924,-0.226,-1.037,0.061,0.488,417.274
134904,152411,13646,0.137,-0.924,-0.222,-1.037,0.061,0.488,417.28
134910,152409,38140,0.137,-0.92,-0.226,-1.037,0.366,0.549,417.284
134910,152421,13641,0.138,-0.921,-0.226,-1.037,0.366,0.549,417.29
134902,152409,38140,0.136,-0.927,-0.224,-0.915,0.305,0.488,417.293
134902,152417,13660,0.132,-0.929,-0.223,-0.915,0.305,0.488,417.3
134923,152409,38140,0.139,-0.926,-0.222,-0.427,0.244,0.244,417.303
134923,152420,13642,0.139,-0.922,-0.221,-0.427,0.244,0.244,417.31
134894,152409,38140,0.14,-0.927,-0.215,-0.366,0.244,0.122,417.313
134894,152422,13649,0.14,-0.928,-0.22,-0.366,0.244,0.122,417.319
134918,152409,38140,0.142,-0.927,-0.22,-0.183,0.183,0.061,417.323
134918,152416,13642,0.14,-0.923,-0.212,-0.183,0.183,0.061,417.329
134899,152409,38140,0.138,-0.922,-0.217,0,0.244,0.183,417.333
134899,152419,13639,0.139,-0.922,-0.219,0,0.244,0.183,417.339
134892,152409,38140,0.141,-0.924,-0.217,-0.122,0.183,0.244,417.343
134892,152412,13633,0.141,-0.923,-0.213,-0.122,0.183,0.244,417.349
134877,152409,38140,0.139,-0.923,-0.215,-0.244,0.183,0.244,417.353
134877,152403,13646,0.138,-0.923,-0.224,-0.244,0.183,0.244,417.359
134905,152409,38140,0.136,-0.918,-0.222,-0.488,0.244,0.366,417.363
134905,152389,13630,0.139,-0.918,-0.221,-0.488,0.244,0.366,417.369
134900,152409,38140,0.14,-0.92,-0.224,-0.671,0.183,0.488,417.373
134900,152400,13634,0.14,-0.921,-0.229,-0.671,0.183,0.488,417.379
134927,152409,38140,0.139,-0.924,-0.23,-0.61,0.244,0.488,417.383
134927,152423,13636,0.137,-0.935,-0.225,-0.61,0.244,0.488,417.389
134897,152409,38140,0.137,-0.935,-0.223,0.061,0.366,0.61,417.392
134897,152427,13640,0.135,-0.928,-0.219,0.061,0.366,0.61,417.399
134932,152409,38140,0.139,-0.925,-0.219,0.488,0.488,0.488,417.402
134932,152407,13638,0.139,-0.927,-0.215,0.488,0.488,0.488,417.409
134904,152409,38140,0.138,-0.924,-0.222,0.427,0.61,0.488,417.412
134904,152409,13651,0.139,-0.926,-0.224,0.427,0.61,0.488,417.418
134931,152409,38140,0.139,-0.931,-0.219,0.183,0.671,0.366,417.422
134931,152418,13636,0.138,-0.929,-0.215,0.183,0.671,0.366,417.428
134891,152409,38140,0.14,-0.923,-0.215,0.366,0.671,0.244,417.432
134891,152407,13642,0.135,-0.916,-0.218,0.366,0.671,0.244,417.438
134893,152409,38140,0.138,-0.917,-0.214,0.122,0.427,0.366,417.442
134893,152407,13649,0.141,-0.917,-0.216,0.122,0.427,0.366,417.448
134897,152409,38140,0.141,-0.917,-0.221,-0.366,0.366,0.427,417.452
134897,152404,13633,0.143,-0.917,-0.222,-0.366,0.366,0.427,417.458
134906,152409,38140,0.14,-0.925,-0.221,-0.61,0.732,0.427,417.462
134906,152399,13626,0.14,-0.928,-0.227,-0.61,0.732,0.427,417.468
134907,152409,38140,0.14,-0.927,-0.227,-0.122,0.915,0.549,417.472
134907,152416,13641,0.138,-0.923,-0.224,-0.122,0.915,0.549,417.478
134890,152409,38140,0.136,-0.927,-0.223,0.122,0.915,0.732,417.482
134890,152395,13646,0.139,-0.928,-0.222,0.122,0.915,0.732,417.488
134909,152409,38140,0.138,-0.928,-0.221,0.427,0.793,0.793,417.491
134909,152407,13647,0.134,-0.922,-0.214,0.427,0.793,0.793,417.498
134903,152409,38140,0.138,-0.922,-0.217,0.183,0.671,0.793,417.501
134903,152397,13644,0.135,-0.926,-0.213,0.183,0.671,0.793,417.508
134925,152409,38140,0.138,-0.927,-0.212,-0.061,0.427,0.671,417.511
134925,152422,13629,0.139,-0.926,-0.222,-0.061,0.427,0.671,417.517
134890,152409,38140,0.139,-0.924,-0.22,-0.305,0.366,0.305,417.521
134890,152388,13632,0.14,-0.925,-0.218,-0.305,0.366,0.305,417.527
134894,152409,38140,0.137,-0.922,-0.219,-0.427,0.183,0.183,417.531
134894,152388,13620,0.135,-0.924,-0.22,-0.427,0.183,0.183,417.537
134910,152409,38140,0.137,-0.922,-0.22,-0.61,0.244,0.122,417.541
134910,152371,13634,0.136,-0.923,-0.212,-0.61,0.244,0.122,417.547
134910,152409,38140,0.136,-0.923,-0.212,-0.61,0.244,0.122,417.551
134910,152431,13628,0.136,-0.926,-0.21,-0.671,0.366,0.122,417.557
134904,152409,38140,0.136,-0.926,-0.21,-0.671,0.366,0.122,417.561
134904,152411,13624,0.138,-0.913,-0.226,-0.732,0.244,0.244,417.567
134906,152409,38140,0.138,-0.913,-0.226,-0.732,0.244,0.244,417.571
134906,152406,13638,0.138,-0.931,-0.229,-1.159,0.122,0.366,417.577
134921,152409,38140,0.138,-0.931,-0.229,-1.159,0.122,0.366,417.581
134921,152391,13622,0.139,-0.928,-0.222,-0.61,0.427,0,417.587
134894,152409,38140,0.139,-0.928,-0.222,-0.61,0.427,0,417.59
134894,152404,13634,0.139,-0.931,-0.22,0.061,0.671,0,417.597
134898,152409,38140,0.139,-0.931,-0.22,0.061,0.671,0,417.6
134898,152403,13626,0.14,-0.93,-0.216,0.488,0.549,0.061,417.606
134897,152409,38140,0.14,-0.93,-0.216,0.488,0.549,0.061,417.61
134897,152411,13635,0.138,-0.921,-0.219,0.488,0.427,0.122,417.616
134884,152409,38140,0.138,-0.921,-0.219,0.488,0.427,0.122,417.62
134884,152409,13626,0.138,-0.923,-0.209,0.366,0.183,0.244,417.626
134896,152409,38140,0.138,-0.923,-0.209,0.366,0.183,0.244,417.63
134896,152404,13628,0.136,-0.918,-0.213,0.183,0.183,0.305,417.636
134902,152409,38140,0.136,-0.918,-0.213,0.183,0.183,0.305,417.64
134902,152387,13621,0.137,-0.924,-0.22,-0.366,0.183,0.549,417.646
134908,152409,38140,0.137,-0.924,-0.22,-0.366,0.183,0.549,417.65
134908,152377,13630,0.134,-0.92,-0.23,-0.671,0.122,0.61,417.656
134896,152409,38140,0.134,-0.92,-0.23,-0.671,0.122,0.61,417.66
134896,152394,13643,0.136,-0.926,-0.232,-0.915,0.427,0.427,417.666
134900,152409,38140,0.136,-0.926,-0.232,-0.915,0.427,0.427,417.67
134900,152382,13629,0.138,-0.929,-0.23,-0.61,0.549,0.366,417.676
134883,152409,38140,0.138,-0.929,-0.23,-0.61,0.549,0.366,417.68
134883,152392,13632,0.137,-0.927,-0.228,0.061,0.488,0.305,417.686
134906,152409,38140,0.137,-0.927,-0.228,0.061,0.488,0.305,417.689
134906,152387,13622,0.137,-0.927,-0.227,0.549,0.488,0.183,417.696
134904,152409,38140,0.138,-0.926,-0.216,0.549,0.488,0.183,417.699
134904,152401,13637,0.139,-0.922,-0.211,0.671,0.549,0.061,417.705
134905,152409,38140,0.137,-0.922,-0.212,0.671,0.549,0.061,417.709
134905,152384,13628,0.137,-0.923,-0.21,0.427,0.549,0.122,417.715
134908,152409,38140,0.138,-0.922,-0.214,0.427,0.549,0.122,417.719
134908,152386,13618,0.142,-0.922,-0.214,-0.061,0.305,0.305,417.725
134887,152409,38140,0.14,-0.926,-0.218,-0.061,0.305,0.305,417.729
134887,152409,13628,0.141,-0.926,-0.221,-0.305,0.244,0.366,417.735
134920,152409,38140,0.144,-0.922,-0.228,-0.305,0.244,0.366,417.739
134920,152430,13631,0.141,-0.927,-0.23,-0.183,0.427,0.549,417.745
134901,152409,38140,0.14,-0.93,-0.229,-0.183,0.427,0.549,417.749
134901,152421,13619,0.136,-0.928,-0.228,0.671,0.793,0.549,417.755
134936,152409,38140,0.138,-0.924,-0.227,0.671,0.793,0.549,417.759
134936,152401,13620,0.137,-0.925,-0.217,1.098,0.793,0.488,417.765
134928,152409,38140,0.138,-0.924,-0.213,1.098,0.793,0.488,417.769
134928,152406,13639,0.139,-0.921,-0.211,1.098,0.671,0.549,417.775
134920,152409,38140,0.138,-0.918,-0.216,1.098,0.671,0.549,417.778
134920,152407,13634,0.139,-0.916,-0.211,0.549,0.549,0.61,417.785
134920,152409,38140,0.138,-0.917,-0.216,0.549,0.549,0.61,417.788
134920,152411,13639,0.138,-0.923,-0.225,-0.061,0.488,0.61,417.795
134924,152409,38140,0.138,-0.925,-0.219,-0.061,0.488,0.61,417.798
134924,152406,13644,0.136,-0.927,-0.218,0.061,0.61,0.488,417.804
134898,152409,38140,0.135,-0.924,-0.218,0.061,0.61,0.488,417.808
134898,152381,13630,0.137,-0.925,-0.215,0.122,0.671,0.427,417.814
134899,152409,38140,0.14,-0.924,-0.21,0.122,0.671,0.427,417.818
134899,152404,13619,0.137,-0.927,-0.215,-0.122,0.549,0.305,417.824
134878,152409,38140,0.139,-0.931,-0.218,-0.122,0.549,0.305,417.828
134878,152382,13639,0.138,-0.928,-0.219,-0.244,0.427,0.366,417.834
134894,152409,38140,0.138,-0.924,-0.218,-0.244,0.427,0.366,417.838
134894,152383,13609,0.141,-0.92,-0.219,-0.061,0.427,0.427,417.844
134901,152409,38140,0.141,-0.923,-0.22,-0.061,0.427,0.427,417.848
134901,152376,13629,0.14,-0.927,-0.214,0.122,0.488,0.427,417.854
134926,152409,38140,0.138,-0.93,-0.212,0.122,0.488,0.427,417.858
134926,152389,13621,0.14,-0.925,-0.215,0.427,0.488,0.427,417.864
134895,152409,38140,0.141,-0.925,-0.216,0.427,0.488,0.427,417.868
134895,152374,13642,0.138,-0.921,-0.214,0.061,0.427,0.61,417.874
134877,152409,38140,0.137,-0.921,-0.219,0.061,0.427,0.61,417.877
134877,152384,13633,0.137,-0.921,-0.223,-0.305,0.366,0.61,417.884
134877,152409,38140,0.138,-0.922,-0.22,-0.305,0.366,0.61,417.887
134877,152379,13619,0.135,-0.924,-0.219,-0.549,0.366,0.549,417.894
134876,152409,38140,0.138,-0.925,-0.223,-0.549,0.366,0.549,417.897
134876,152351,13622,0.137,-0.925,-0.223,-0.427,0.488,0.549,417.903
134863,152409,38140,0.138,-0.926,-0.223,-0.427,0.488,0.549,417.907
134863,152377,13618,0.137,-0.925,-0.225,-0.305,0.366,0.488,417.913
134874,152409,38140,0.138,-0.932,-0.222,-0.305,0.366,0.488,417.917
134874,152351,13619,0.137,-0.933,-0.215,0.305,0.488,0.427,417.923
134896,152409,38140,0.138,-0.924,-0.212,0.305,0.488,0.427,417.927
134896,152383,13615,0.136,-0.918,-0.21,0.427,0.488,0.366,417.933
134891,152409,38140,0.138,-0.921,-0.211,0.427,0.488,0.366,417.937
134891,152362,13620,0.137,-0.926,-0.207,0,0.122,0.244,417.943
134882,152409,38140,0.139,-0.925,-0.209,0,0.122,0.244,417.947
134882,152380,13619,0.139,-0.923,-0.216,-0.427,0.122,0.244,417.953
134880,152409,38140,0.139,-0.923,-0.215,-0.427,0.122,0.244,417.957
134880,152366,13596,0.141,-0.925,-0.215,-0.915,0.061,0.305,417.963
134873,152409,38140,0.139,-0.926,-0.219,-0.915,0.061,0.305,417.967
134873,152369,13627,0.138,-0.927,-0.226,-1.037,0.122,0.427,417.973
134872,152409,38140,0.136,-0.923,-0.234,-1.037,0.122,0.427,417.976
134872,152355,13606,0.14,-0.928,-0.226,-0.854,0.305,0.427,417.983
134880,152409,38140,0.135,-0.931,-0.226,-0.854,0.305,0.427,417.986
134880,152366,13598,0.135,-0.935,-0.22,0.244,0.305,0.244,417.993
134873,152409,38140,0.134,-0.927,-0.214,0.244,0.305,0.244,417.996
134873,152362,13601,0.138,-0.919,-0.21,0.549,0.305,0.366,418.002
134881,152409,38140,0.137,-0.914,-0.211,0.549,0.305,0.366,418.006
134881,152340,13602,0.139,-0.916,-0.212,-0.061,0.122,0.427,418.012
134880,152409,38140,0.14,-0.922,-0.21,-0.061,0.122,0.427,418.016
134880,152392,13591,0.139,-0.922,-0.213,-0.488,0.122,0.244,418.022
134875,152409,38140,0.137,-0.922,-0.214,-0.488,0.122,0.244,418.026
134875,152370,13609,0.135,-0.922,-0.219,-1.037,0.122,0.366,418.032
134877,152409,38140,0.137,-0.925,-0.223,-1.037,0.122,0.366,418.036
134877,152360,13598,0.138,-0.926,-0.224,-1.463,0,0.427,418.042
134876,152409,38140,0.139,-0.928,-0.227,-1.463,0,0.427,418.046
134876,152342,13604,0.138,-0.931,-0.226,-1.22,0.183,0.244,418.052
134867,152409,38140,0.135,-0.933,-0.228,-1.22,0.183,0.244,418.056
134867,152353,13606,0.134,-0.933,-0.223,-0.366,0.549,0.183,418.062
134881,152409,38140,0.136,-0.929,-0.225,-0.366,0.549,0.183,418.066
134881,152349,13595,0.137,-0.926,-0.219,0.366,0.61,0.183,418.072
134891,152409,38140,0.137,-0.928,-0.217,0.366,0.61,0.183,418.075
134891,152356,13593,0.138,-0.928,-0.209,0.732,0.549,0,418.082
134869,152409,38140,0.139,-0.922,-0.205,0.732,0.549,0,418.085
134869,152337,13597,0.139,-0.918,-0.209,0.244,0.366,0.061,418.091
134872,152409,38140,0.145,-0.92,-0.213,0.244,0.366,0.061,418.095
134872,152389,13606,0.145,-0.921,-0.213,-0.427,0,0.061,418.101
134877,152409,38140,0.144,-0.921,-0.218,-0.427,0,0.061,418.105
134877,152354,13593,0.139,-0.922,-0.217,-0.732,0.244,0.305,418.111
134883,152409,38140,0.139,-0.92,-0.217,-0.732,0.244,0.305,418.115
134883,152358,13588,0.14,-0.921,-0.225,-0.854,0.366,0.549,418.121
134876,152409,38140,0.14,-0.92,-0.231,-0.854,0.366,0.549,418.125
134876,152339,13597,0.142,-0.93,-0.229,-0.793,0.488,0.61,418.131
134876,152409,38140,0.142,-0.93,-0.229,-0.793,0.488,0.61,418.135
134876,152333,13609,0.135,-0.933,-0.22,0.122,0.61,0.549,418.141
134876,152409,38140,0.135,-0.933,-0.22,0.122,0.61,0.549,418.145
134876,152346,13596,0.139,-0.913,-0.217,0.305,0.61,0.854,418.151
134876,152153,38140,0.139,-0.913,-0.217,0.305,0.61,0.854,418.155
134876,152314,13599,0.136,-0.934,-0.21,0.366,0.427,0.671,418.161
134877,152409,38140,0.136,-0.934,-0.21,0.366,0.427,0.671,418.164
134877,152326,13614,0.138,-0.92,-0.211,-0.244,0.305,0.366,418.171
134885,152409,38140,0.138,-0.92,-0.211,-0.244,0.305,0.366,418.174
134885,152374,13595,0.141,-0.924,-0.218,-0.915,0.244,0.244,418.181
134860,152409,38140,0.141,-0.924,-0.218,-0.915,0.244,0.244,418.184
134860,152346,13597,0.138,-0.931,-0.225,-0.793,0.427,0.061,418.19
134884,152409,38140,0.138,-0.931,-0.225,-0.793,0.427,0.061,418.194
134884,152336,13598,0.135,-0.921,-0.222,-0.549,0.61,0.122,418.2
134859,152409,38140,0.135,-0.921,-0.222,-0.549,0.61,0.122,418.204
134859,152346,13594,0.139,-0.92,-0.232,-0.366,0.549,0.122,418.21
134852,152409,38140,0.139,-0.92,-0.232,-0.366,0.549,0.122,418.214
134852,152337,13571,0.14,-0.926,-0.22,0.183,0.671,-0.122,418.22
134870,152409,38140,0.14,-0.926,-0.22,0.183,0.671,-0.122,418.224
134870,152333,13591,0.139,-0.919,-0.216,0.732,0.671,-0.183,418.23
134864,152409,38140,0.139,-0.919,-0.216,0.732,0.671,-0.183,418.234
134864,152372,13596,0.142,-0.919,-0.215,0.549,0.427,0.122,418.24
134887,152409,38140,0.142,-0.919,-0.215,0.549,0.427,0.122,418.244
134887,152351,13579,0.141,-0.93,-0.208,0.122,0.244,0.366,418.25
134869,152409,38140,0.141,-0.93,-0.208,0.122,0.244,0.366,418.254
134869,152346,13602,0.141,-0.927,-0.222,-0.244,0.305,0.732,418.26
134889,152409,38140,0.141,-0.927,-0.222,-0.244,0.305,0.732,418.263
134889,152343,13583,0.139,-0.926,-0.221,-0.244,0.305,0.732,418.27
134860,152409,38140,0.135,-0.932,-0.219,-0.244,0.183,0.854,418.273
134860,152362,13580,0.134,-0.927,-0.225,-0.244,0.183,0.854,418.28
134881,152409,38140,0.136,-0.923,-0.228,-0.305,0.366,0.732,418.283
134881,152326,13575,0.137,-0.923,-0.229,-0.305,0.366,0.732,418.289
134856,152409,38140,0.135,-0.929,-0.225,-0.183,0.427,0.549,418.293
134856,152358,13589,0.137,-0.932,-0.223,-0.183,0.427,0.549,418.299
134879,152409,38140,0.136,-0.927,-0.221,0.366,0.488,0.366,418.303
134879,152338,13585,0.134,-0.927,-0.215,0.366,0.488,0.366,418.309
134868,152409,38140,0.136,-0.923,-0.213,0.488,0.488,0.427,418.313
134868,152355,13593,0.138,-0.92,-0.216,0.488,0.488,0.427,418.319
134881,152409,38140,0.137,-0.918,-0.211,0.183,0.244,0.366,418.323
134881,152348,13595,0.135,-0.922,-0.214,0.183,0.244,0.366,418.329
134879,152409,38140,0.135,-0.921,-0.221,-0.183,0.183,0.305,418.333
134879,152351,13593,0.139,-0.92,-0.219,-0.183,0.183,0.305,418.339
134865,152409,38140,0.136,-0.923,-0.215,-0.732,0.305,0.244,418.343
134865,152364,13581,0.134,-0.928,-0.221,-0.732,0.305,0.244,418.349
134876,152409,38140,0.137,-0.929,-0.229,-0.854,0.488,0,418.353
134876,152341,13595,0.135,-0.928,-0.223,-0.854,0.488,0,418.359
134863,152409,38140,0.138,-0.927,-0.222,-0.488,0.61,-0.122,418.362
134863,152339,13594,0.141,-0.924,-0.227,-0.488,0.61,-0.122,418.369
134859,152409,38140,0.143,-0.924,-0.222,-0.244,0.427,-0.122,418.372
134859,152340,13589,0.14,-0.923,-0.22,-0.244,0.427,-0.122,418.379
134880,152409,38140,0.143,-0.923,-0.22,0,0.427,0.061,418.382
134880,152325,13598,0.145,-0.926,-0.216,0,0.427,0.061,418.388
134868,152409,38140,0.143,-0.921,-0.217,0.244,0.488,0.488,418.392
134868,152370,13586,0.143,-0.92,-0.214,0.244,0.488,0.488,418.398
134884,152409,38140,0.138,-0.924,-0.216,0.244,0.488,0.854,418.402
134884,152341,13597,0.14,-0.926,-0.219,0.244,0.488,0.854,418.408
134895,152409,38140,0.142,-0.925,-0.226,0.244,0.488,0.976,418.412
134895,152360,13611,0.141,-0.926,-0.229,0.244,0.488,0.976,418.418
134890,152409,38140,0.138,-0.93,-0.223,0.366,0.61,0.854,418.422
134890,152365,13575,0.135,-0.934,-0.217,0.366,0.61,0.854,418.428
134888,152409,38140,0.133,-0.927,-0.211,0.854,0.732,0.793,418.432
134888,152337,13597,0.134,-0.92,-0.215,0.854,0.732,0.793,418.438
134855,152409,38140,0.138,-0.92,-0.215,0.671,0.732,0.732,418.442
134855,152350,13594,0.139,-0.923,-0.217,0.671,0.732,0.732,418.448
134861,152409,38140,0.141,-0.926,-0.217,0.549,0.427,0.549,418.452
134861,152359,13585,0.139,-0.924,-0.214,0.549,0.427,0.549,418.458
134864,152409,38140,0.139,-0.921,-0.209,0.427,0.488,0.488,418.461
134864,152329,13595,0.136,-0.92,-0.214,0.427,0.488,0.488,418.468
134858,152409,38140,0.137,-0.922,-0.213,-0.122,0.427,0.549,418.471
134858,152348,13603,0.138,-0.921,-0.217,-0.122,0.427,0.549,418.478
134859,152153,38140,0.134,-0.924,-0.218,-0.549,0.305,0.366,418.481
134859,152315,13577,0.136,-0.927,-0.219,-0.549,0.305,0.366,418.487
134878,152409,38140,0.139,-0.923,-0.224,-0.61,0.366,0.366,418.491
134878,152353,13602,0.14,-0.923,-0.228,-0.61,0.366,0.366,418.497
134863,152409,38140,0.137,-0.929,-0.22,-0.244,0.488,0.366,418.501
134863,152354,13583,0.14,-0.928,-0.218,-0.244,0.488,0.366,418.507
134858,152409,38140,0.136,-0.925,-0.218,0.122,0.61,0.183,418.511
134858,152333,13596,0.135,-0.926,-0.215,0.122,0.61,0.183,418.517
134851,152409,38140,0.14,-0.929,-0.209,-0.061,0.427,0.122,418.521
134851,152328,13590,0.139,-0.928,-0.211,-0.061,0.427,0.122,418.527
134843,152409,38140,0.141,-0.924,-0.212,-0.305,0,0.244,418.531
134843,152340,13593,0.139,-0.927,-0.208,-0.305,0,0.244,418.537
134865,152409,38140,0.14,-0.924,-0.21,-0.488,0.061,0.427,418.541
134865,152343,13591,0.139,-0.923,-0.218,-0.488,0.061,0.427,418.547
134878,152153,38140,0.136,-0.924,-0.218,-0.976,0.305,0.549,418.551
134878,152317,13592,0.134,-0.923,-0.223,-0.976,0.305,0.549,418.557
134866,152409,38140,0.137,-0.926,-0.221,-0.976,0.183,0.549,418.56
134866,152350,13575,0.136,-0.93,-0.224,-0.976,0.183,0.549,418.567
134852,152409,38140,0.136,-0.927,-0.221,-0.671,0.366,0.366,418.57
134852,152342,13573,0.138,-0.921,-0.224,-0.671,0.366,0.366,418.577
134867,152409,38140,0.136,-0.918,-0.223,-0.366,0.305,0.427,418.58
134867,152346,13578,0.137,-0.925,-0.217,-0.366,0.305,0.427,418.586
134853,152153,38140,0.137,-0.927,-0.217,0.061,0.061,0.366,418.59
134853,152292,13575,0.139,-0.925,-0.22,0.061,0.061,0.366,418.596
134866,152409,38140,0.138,-0.923,-0.212,0.183,0.061,0.305,418.6
134866,152324,13586,0.139,-0.923,-0.209,0.183,0.061,0.305,418.606
134858,152153,38140,0.141,-0.921,-0.214,-0.061,0.122,0.488,418.61
134858,152316,13567,0.139,-0.925,-0.214,-0.061,0.122,0.488,418.616
134852,152153,38140,0.14,-0.927,-0.214,-0.549,0.305,0.427,418.62
134852,152300,13562,0.138,-0.925,-0.221,-0.549,0.305,0.427,418.626
134862,152409,38140,0.138,-0.924,-0.222,-0.732,0.366,0.427,418.63
134862,152325,13574,0.138,-0.929,-0.226,-0.732,0.366,0.427,418.636
134876,152409,38140,0.141,-0.927,-0.228,-0.427,0.366,0.427,418.64
134876,152320,13582,0.138,-0.927,-0.219,-0.427,0.366,0.427,418.646
134846,152153,38140,0.138,-0.933,-0.213,-0.061,0.488,0.244,418.65
134846,152306,13566,0.136,-0.932,-0.208,-0.061,0.488,0.244,418.656
134869,152153,38140,0.136,-0.924,-0.211,0,0.427,0.244,418.659
134869,152313,13586,0.137,-0.919,-0.209,0,0.427,0.244,418.666
134854,152409,38140,0.138,-0.92,-0.216,-0.61,0.183,0.427,418.669
134854,152338,13564,0.138,-0.919,-0.222,-0.61,0.183,0.427,418.676
134842,152409,38140,0.137,-0.923,-0.219,-1.037,-0.061,0.244,418.679
134842,152324,13596,0.136,-0.921,-0.219,-1.037,-0.061,0.244,418.685
134858,152153,38140,0.137,-0.92,-0.219,-1.22,0.183,0.244,418.689
134858,152311,13556,0.137,-0.925,-0.225,-1.22,0.183,0.244,418.695
134855,152409,38140,0.14,-0.929,-0.225,-1.098,0.366,0.183,418.699
134855,152324,13577,0.139,-0.932,-0.222,-1.098,0.366,0.183,418.705
134847,152409,38140,0.139,-0.932,-0.222,-1.098,0.366,0.183,418.709
134847,152324,13556,0.137,-0.928,-0.225,-0.244,0.549,0.122,418.715
134843,152153,38140,0.137,-0.928,-0.225,-0.244,0.549,0.122,418.719
134843,152304,13573,0.136,-0.932,-0.216,0.183,0.61,0.061,418.725
134858,152153,38140,0.136,-0.932,-0.216,0.183,0.61,0.061,418.729
134858,152307,13574,0.14,-0.923,-0.216,0.549,0.549,-0.122,418.735
134834,152153,38140,0.14,-0.923,-0.216,0.549,0.549,-0.122,418.739
134834,152311,13565,0.142,-0.914,-0.218,0.366,0.427,-0.061,418.745
134876,152153,38140,0.142,-0.914,-0.218,0.366,0.427,-0.061,418.749
134876,152302,13563,0.142,-0.921,-0.217,-0.183,0.427,0,418.755
134861,152153,38140,0.142,-0.921,-0.217,-0.183,0.427,0,418.758
134861,152304,13571,0.14,-0.922,-0.213,-0.244,0.244,0,418.765
134871,152409,38140,0.14,-0.922,-0.213,-0.244,0.244,0,418.768
134871,152332,13568,0.142,-0.916,-0.216,-0.427,0.427,0.366,418.775
134856,152409,38140,0.142,-0.916,-0.216,-0.427,0.427,0.366,418.778
134856,152327,13560,0.14,-0.925,-0.222,-0.915,0.305,0.61,418.784
134841,152409,38140,0.14,-0.925,-0.222,-0.915,0.305,0.61,418.788
134841,152338,13570,0.136,-0.928,-0.223,-0.915,0.183,0.854,418.794
134855,152409,38140,0.136,-0.928,-0.223,-0.915,0.183,0.854,418.798
134855,152331,13579,0.136,-0.923,-0.216,-0.854,0.305,0.976,418.804
134840,152153,38140,0.136,-0.923,-0.216,-0.854,0.305,0.976,418.808
134840,152319,13556,0.137,-0.923,-0.223,-0.732,0.183,0.915,418.814
134870,152409,38140,0.137,-0.923,-0.223,-0.732,0.183,0.915,418.818
134870,152322,13571,0.137,-0.927,-0.224,-0.671,0.244,0.671,418.824
134879,152153,38140,0.137,-0.927,-0.224,-0.671,0.244,0.671,418.828
134879,152309,13555,0.138,-0.928,-0.224,-0.488,0.305,0.366,418.834
134858,152153,38140,0.138,-0.928,-0.224,-0.488,0.305,0.366,418.838
134858,152308,13579,0.138,-0.925,-0.224,-0.244,0.488,0.366,418.844
134884,152409,38140,0.138,-0.925,-0.224,-0.244,0.488,0.366,418.848
134884,152329,13566,0.139,-0.927,-0.225,0.244,0.671,0.244,418.854
134878,152153,38140,0.136,-0.927,-0.224,0.244,0.671,0.244,418.857
134878,152319,13555,0.137,-0.923,-0.221,0.549,0.732,0.244,418.864
134860,152409,38140,0.138,-0.923,-0.224,0.549,0.732,0.244,418.867
134860,152346,13575,0.14,-0.927,-0.222,0.732,0.671,0.183,418.873
134863,152153,38140,0.138,-0.926,-0.216,0.732,0.671,0.183,418.877
134863,152305,13567,0.138,-0.925,-0.219,0.732,0.671,0.183,418.883
134853,152153,38140,0.14,-0.927,-0.217,0.732,0.671,0.183,418.887
134853,152309,13558,0.14,-0.928,-0.211,0.671,0.732,0.183,418.893
134853,152409,38140,0.14,-0.925,-0.215,0.671,0.732,0.183,418.897
134853,152335,13562,0.14,-0.922,-0.218,0.732,0.671,0.305,418.903
134847,152409,38140,0.139,-0.92,-0.218,0.732,0.671,0.305,418.907
134847,152336,13564,0.137,-0.924,-0.215,0.549,0.427,0.61,418.913
134857,152153,38140,0.142,-0.925,-0.22,0.549,0.427,0.61,418.917
134857,152295,13575,0.14,-0.925,-0.219,0.427,0.427,0.61,418.923
134878,152409,38140,0.138,-0.93,-0.215,0.427,0.427,0.61,418.927
134878,152339,13568,0.132,-0.929,-0.214,0.671,0.488,0.61,418.933
134871,152409,38140,0.135,-0.927,-0.212,0.671,0.488,0.61,418.937
134871,152325,13569,0.133,-0.925,-0.211,0.427,0.488,0.488,418.943
134867,152409,38140,0.134,-0.922,-0.211,0.427,0.488,0.488,418.947
134867,152337,13564,0.139,-0.92,-0.212,0,0.244,0.366,418.953
134873,152153,38140,0.139,-0.921,-0.215,0,0.244,0.366,418.956
134873,152317,13588,0.138,-0.919,-0.216,-0.549,0,0.305,418.963
134850,152153,38140,0.136,-0.922,-0.218,-0.549,0,0.305,418.966
134850,152317,13572,0.138,-0.92,-0.215,-0.854,0.122,0.305,418.972
134875,152409,38140,0.136,-0.92,-0.217,-0.854,0.122,0.305,418.976
134875,152328,13562,0.134,-0.921,-0.219,-1.159,0.122,0.366,418.982
134888,152409,38140,0.136,-0.926,-0.22,-1.159,0.122,0.366,418.986
134888,152331,13569,0.138,-0.925,-0.218,-1.037,0.122,0.183,418.992
134873,152409,38140,0.14,-0.921,-0.217,-1.037,0.122,0.183,418.996
134873,152336,13573,0.139,-0.921,-0.224,-1.159,0.183,0.183,419.002
134866,152409,38140,0.141,-0.928,-0.226,-1.159,0.183,0.183,419.006
134866,152338,13589,0.139,-0.932,-0.223,-1.098,0.244,0.305,419.012
134864,152409,38140,0.142,-0.931,-0.223,-1.098,0.244,0.305,419.016
134864,152338,13562,0.143,-0.932,-0.219,-0.427,0.366,0.183,419.022
134868,152409,38140,0.141,-0.927,-0.218,-0.427,0.366,0.183,419.026
134868,152324,13582,0.142,-0.924,-0.224,0.061,0.427,0.366,419.032
134889,152409,38140,0.142,-0.925,-0.226,0.061,0.427,0.366,419.036
134889,152326,13572,0.142,-0.932,-0.216,0.549,0.488,0.427,419.042
134859,152409,38140,0.141,-0.933,-0.219,0.549,0.488,0.427,419.045
134859,152342,13566,0.141,-0.927,-0.22,1.098,0.793,0.366,419.052
134853,152409,38140,0.138,-0.921,-0.219,1.098,0.793,0.366,419.055
134853,152336,13568,0.137,-0.921,-0.216,1.159,0.854,0.61,419.062
134880,152409,38140,0.14,-0.921,-0.212,1.159,0.854,0.61,419.065
134880,152327,13556,0.139,-0.92,-0.213,0.854,0.732,0.671,419.071
134886,152409,38140,0.137,-0.918,-0.214,0.854,0.732,0.671,419.075
134886,152353,13581,0.138,-0.921,-0.209,0.488,0.671,0.976,419.081
134870,152409,38140,0.138,-0.921,-0.209,0.488,0.671,0.976,419.085
134870,152338,13563,0.14,-0.92,-0.212,0,0.549,1.037,419.091
134880,152409,38140,0.137,-0.918,-0.219,0,0.549,1.037,419.095
134880,152329,13559,0.136,-0.922,-0.219,-0.549,0.488,1.037,419.101
134879,152153,38140,0.134,-0.924,-0.22,-0.549,0.488,1.037,419.105
134879,152314,13565,0.131,-0.925,-0.224,-0.427,0.488,0.854,419.111
134860,152409,38140,0.134,-0.928,-0.224,-0.427,0.488,0.854,419.115
134860,152327,13568,0.136,-0.929,-0.217,-0.244,0.366,0.61,419.121
134853,152409,38140,0.136,-0.928,-0.211,-0.244,0.366,0.61,419.125
134853,152336,13573,0.137,-0.926,-0.205,-0.183,0.122,0.488,419.131
134854,152153,38140,0.141,-0.922,-0.207,-0.183,0.122,0.488,419.135
134854,152312,13582,0.137,-0.92,-0.21,-0.671,0,0.427,419.141
134847,152409,38140,0.139,-0.927,-0.215,-0.671,0,0.427,419.144
134847,152330,13577,0.138,-0.927,-0.219,-1.159,-0.122,0.366,419.151
134841,152409,38140,0.137,-0.93,-0.217,-1.159,-0.122,0.366,419.154
134841,152325,13558,0.139,-0.933,-0.212,-1.098,0,0.366,419.161
134858,152153,38140,0.141,-0.928,-0.21,-1.098,0,0.366,419.164
134858,152296,13546,0.138,-0.923,-0.217,-0.976,-0.061,0.488,419.17
134826,152153,38140,0.134,-0.92,-0.219,-0.976,-0.061,0.488,419.174
134826,152313,13549,0.136,-0.925,-0.223,-1.28,0.122,0.61,419.18
134863,152153,38140,0.137,-0.928,-0.226,-1.28,0.122,0.61,419.184
134863,152314,13559,0.137,-0.932,-0.224,-1.402,0.183,0.488,419.19
134828,152153,38140,0.138,-0.931,-0.217,-1.402,0.183,0.488,419.194
134828,152289,13552,0.135,-0.923,-0.224,-0.915,0.183,0.549,419.2
134835,152153,38140,0.134,-0.919,-0.225,-0.915,0.183,0.549,419.204
134835,152315,13541,0.135,-0.918,-0.221,-0.732,0.183,0.61,419.21
134823,152153,38140,0.131,-0.923,-0.222,-0.732,0.183,0.61,419.214
134823,152287,13533,0.133,-0.924,-0.224,-0.732,0.183,0.488,419.22
134820,152153,38140,0.138,-0.928,-0.217,-0.732,0.183,0.488,419.224
134820,152294,13550,0.137,-0.93,-0.209,-0.305,0.061,0.305,419.23
134823,152153,38140,0.137,-0.926,-0.21,-0.305,0.061,0.305,419.234
134823,152304,13554,0.137,-0.923,-0.21,-0.305,0,0.244,419.24
134817,152153,38140,0.137,-0.922,-0.207,-0.305,0,0.244,419.243
134817,152289,13555,0.138,-0.925,-0.208,-0.732,-0.305,0.305,419.25
134834,152153,38140,0.137,-0.922,-0.212,-0.732,-0.305,0.305,419.253
134834,152268,13554,0.137,-0.923,-0.218,-1.463,-0.427,0.305,419.259
134832,152153,38140,0.139,-0.923,-0.221,-1.463,-0.427,0.305,419.263
134832,152311,13557,0.138,-0.926,-0.222,-1.524,-0.183,0.305,419.269
134825,152153,38140,0.137,-0.92,-0.229,-1.524,-0.183,0.305,419.273
134825,152282,13541,0.137,-0.918,-0.238,-1.463,0,0.366,419.279
134815,152153,38140,0.137,-0.918,-0.238,-1.463,0,0.366,419.283
134815,152284,13556,0.137,-0.935,-0.229,-1.037,-0.061,0.366,419.289
134844,152153,38140,0.137,-0.935,-0.229,-1.037,-0.061,0.366,419.293
134844,152278,13532,0.137,-0.934,-0.219,0.183,0.183,0.061,419.299
134810,152153,38140,0.137,-0.934,-0.219,0.183,0.183,0.061,419.303
134810,152282,13559,0.139,-0.916,-0.223,0.305,0.305,0.305,419.309
134812,152153,38140,0.139,-0.916,-0.223,0.305,0.305,0.305,419.313
134812,152305,13546,0.139,-0.926,-0.212,0.122,0.183,0.366,419.319
134832,152153,38140,0.139,-0.926,-0.212,0.122,0.183,0.366,419.323
134832,152271,13556,0.139,-0.917,-0.22,-0.305,0.305,0.488,419.329
134818,152153,38140,0.139,-0.917,-0.22,-0.305,0.305,0.488,419.333
134818,152284,13558,0.139,-0.927,-0.217,-0.732,0.427,0.488,419.339
134821,152153,38140,0.139,-0.927,-0.217,-0.732,0.427,0.488,419.342
134821,152272,13552,0.135,-0.93,-0.224,-0.671,0.488,0.427,419.349
134824,152153,38140,0.135,-0.93,-0.224,-0.671,0.488,0.427,419.352
134824,152276,13551,0.136,-0.919,-0.227,-0.671,0.183,0.427,419.358
134827,152153,38140,0.136,-0.919,-0.227,-0.671,0.183,0.427,419.362
134827,152276,13527,0.136,-0.928,-0.224,-0.122,0.183,0.183,419.368
134808,152153,38140,0.136,-0.928,-0.224,-0.122,0.183,0.183,419.372
134808,152283,13541,0.138,-0.92,-0.217,-0.122,0.183,0.122,419.378
134836,152153,38140,0.138,-0.92,-0.217,-0.122,0.183,0.122,419.382
134836,152275,13543,0.139,-0.92,-0.209,-0.305,-0.061,0.183,419.388
134822,152153,38140,0.139,-0.92,-0.209,-0.305,-0.061,0.183,419.392
134822,152271,13549,0.141,-0.918,-0.208,-0.671,0.061,0.244,419.398
134842,152153,38140,0.141,-0.918,-0.208,-0.671,0.061,0.244,419.402
134842,152288,13545,0.137,-0.919,-0.225,-1.585,0.122,0.61,419.408
134829,152153,38140,0.137,-0.919,-0.225,-1.585,0.122,0.61,419.412
134829,152267,13537,0.135,-0.935,-0.226,-1.585,0.244,0.671,419.418
134796,152153,38140,0.135,-0.935,-0.226,-1.585,0.244,0.671,419.422
134796,152291,13552,0.137,-0.933,-0.221,-1.585,0.244,0.671,419.428
134836,152153,38140,0.132,-0.923,-0.222,-1.159,0.366,0.671,419.431
134836,152261,13548,0.135,-0.912,-0.227,-1.159,0.366,0.671,419.438
134827,152153,38140,0.135,-0.92,-0.224,-1.22,0,0.915,419.441
134827,152280,13539,0.134,-0.928,-0.217,-1.22,0,0.915,419.448
134822,152153,38140,0.137,-0.929,-0.218,-1.159,-0.122,0.366,419.451
134822,152314,13545,0.138,-0.921,-0.225,-1.159,-0.122,0.366,419.457
134836,152153,38140,0.137,-0.92,-0.23,-1.524,0.122,0.122,419.461
134836,152301,13539,0.137,-0.93,-0.222,-1.524,0.122,0.122,419.467
134827,152153,38140,0.14,-0.938,-0.217,-0.976,0.061,0,419.471
134827,152286,13555,0.141,-0.933,-0.215,-0.976,0.061,0,419.477
134834,152153,38140,0.14,-0.922,-0.224,-0.488,0.488,0.122,419.481
134834,152314,13547,0.138,-0.92,-0.223,-0.488,0.488,0.122,419.487
134832,152153,38140,0.135,-0.925,-0.216,-0.793,0.488,0.427,419.491
134832,152298,13544,0.135,-0.927,-0.22,-0.793,0.488,0.427,419.497
134860,152153,38140,0.142,-0.92,-0.227,-0.671,0,0.244,419.501
134860,152274,13531,0.139,-0.919,-0.228,-0.671,0,0.244,419.507
134826,152153,38140,0.135,-0.924,-0.228,-0.671,0.244,0.183,419.511
134826,152315,13547,0.137,-0.933,-0.222,-0.671,0.244,0.183,419.517
134819,152153,38140,0.14,-0.93,-0.221,-0.244,0.366,0,419.521
134819,152287,13551,0.137,-0.923,-0.222,-0.244,0.366,0,419.527
134812,152153,38140,0.14,-0.923,-0.218,-0.305,0.183,0.244,419.53
134812,152285,13549,0.141,-0.924,-0.221,-0.305,0.183,0.244,419.537
134851,152153,38140,0.141,-0.924,-0.225,-0.305,0.061,0.549,419.54
134851,152281,13547,0.139,-0.926,-0.218,-0.305,0.061,0.549,419.547
134833,152409,38140,0.134,-0.925,-0.215,-0.122,0.244,0.732,419.55
134833,152336,13544,0.138,-0.922,-0.224,-0.122,0.244,0.732,419.556
134854,152409,38140,0.139,-0.926,-0.229,-0.366,0.305,0.793,419.56
134854,152326,13560,0.134,-0.934,-0.224,-0.366,0.305,0.793,419.566
134849,152153,38140,0.135,-0.935,-0.225,0.244,0.549,0.732,419.57
134849,152272,13556,0.137,-0.927,-0.231,0.244,0.549,0.732,419.576
134864,152153,38140,0.137,-0.922,-0.223,0.61,0.732,0.671,419.58
134864,152304,13546,0.134,-0.92,-0.222,0.61,0.732,0.671,419.586
134838,152153,38140,0.138,-0.92,-0.223,0.671,0.549,0.61,419.59
134838,152303,13532,0.14,-0.927,-0.219,0.671,0.549,0.61,419.596
134839,152153,38140,0.135,-0.925,-0.218,0.732,0.488,0.305,419.6
134839,152291,13552,0.133,-0.922,-0.216,0.732,0.488,0.305,419.606
134845,152153,38140,0.135,-0.92,-0.224,0.427,0.61,0.366,419.61
134845,152305,13546,0.134,-0.918,-0.22,0.427,0.61,0.366,419.616
134863,152153,38140,0.137,-0.92,-0.217,0.244,0.61,0.427,419.62
134863,152319,13540,0.138,-0.922,-0.219,0.244,0.61,0.427,419.626
134841,152153,38140,0.137,-0.92,-0.224,0.061,0.61,0.244,419.629
134841,152300,13540,0.136,-0.924,-0.223,0.061,0.61,0.244,419.636
134874,152153,38140,0.135,-0.928,-0.22,-0.244,0.549,0.244,419.639
134874,152316,13545,0.14,-0.931,-0.219,-0.244,0.549,0.244,419.646
134852,152153,38140,0.137,-0.929,-0.214,-0.061,0.244,0.366,419.649
134852,152315,13566,0.136,-0.921,-0.209,-0.061,0.244,0.366,419.655
134861,152409,38140,0.136,-0.917,-0.214,-0.305,0.122,0.549,419.659
134861,152323,13551,0.138,-0.915,-0.228,-0.305,0.122,0.549,419.665
134883,152153,38140,0.136,-0.924,-0.228,-1.098,0.122,0.61,419.669
134883,152305,13555,0.137,-0.937,-0.226,-1.098,0.122,0.61,419.675
134839,152409,38140,0.139,-0.935,-0.223,-0.366,0.366,0.305,419.679
134839,152331,13554,0.141,-0.924,-0.221,-0.366,0.366,0.305,419.685
134859,152409,38140,0.14,-0.915,-0.223,-0.122,0.61,0.549,419.689
134859,152324,13555,0.139,-0.916,-0.229,-0.122,0.61,0.549,419.695
134879,152153,38140,0.136,-0.925,-0.228,-0.061,0.549,0.671,419.699
134879,152306,13561,0.135,-0.936,-0.218,-0.061,0.549,0.671,419.705
134865,152153,38140,0.136,-0.931,-0.215,0.61,0.488,0.366,419.709
134865,152316,13557,0.134,-0.919,-0.217,0.61,0.488,0.366,419.715
134859,152409,38140,0.134,-0.908,-0.214,0.244,0.427,0.488,419.719
134859,152328,13548,0.138,-0.912,-0.22,0.244,0.427,0.488,419.725
134835,152153,38140,0.138,-0.924,-0.212,-0.183,0.183,0.488,419.728
134835,152295,13537,0.136,-0.929,-0.216,-0.183,0.183,0.488,419.735
134869,152153,38140,0.138,-0.927,-0.226,-0.366,0.427,0.183,419.738
134869,152299,13551,0.139,-0.923,-0.224,-0.366,0.427,0.183,419.745
134838,152153,38140,0.137,-0.927,-0.224,-0.61,0.549,0.183,419.748
134838,152309,13552,0.135,-0.935,-0.22,-0.61,0.549,0.183,419.754
134828,152409,38140,0.136,-0.932,-0.222,0.244,0.61,-0.061,419.758
134828,152322,13550,0.136,-0.924,-0.226,0.244,0.61,-0.061,419.764
134842,152153,38140,0.137,-0.92,-0.222,0.366,0.793,0,419.768
134842,152288,13555,0.139,-0.923,-0.22,0.366,0.793,0,419.774
134844,152153,38140,0.14,-0.924,-0.223,0.244,0.549,0,419.778
134844,152319,13556,0.14,-0.932,-0.22,0.244,0.549,0,419.784
134835,152153,38140,0.14,-0.933,-0.217,0.671,0.61,-0.244,419.788
134835,152303,13559,0.138,-0.923,-0.222,0.671,0.61,-0.244,419.794
134839,152153,38140,0.134,-0.92,-0.216,0.549,0.732,0.061,419.798
134839,152312,13552,0.134,-0.924,-0.215,0.549,0.732,0.061,419.804
134841,152153,38140,0.135,-0.926,-0.213,0.488,0.244,0.305,419.808
134841,152293,13561,0.138,-0.924,-0.215,0.488,0.244,0.305,419.814
134849,152153,38140,0.138,-0.92,-0.217,0.183,0.122,0.244,419.818
134849,152298,13549,0.139,-0.919,-0.222,0.183,0.122,0.244,419.824
134840,152153,38140,0.137,-0.923,-0.223,-0.488,0.122,0.244,419.827
134840,152290,13554,0.137,-0.923,-0.224,-0.488,0.122,0.244,419.834
134843,152409,38140,0.136,-0.922,-0.218,-0.488,0.183,0.244,419.837
134843,152323,13554,0.14,-0.919,-0.221,-0.488,0.183,0.244,419.843
134875,152153,38140,0.14,-0.917,-0.228,-0.671,0.122,0.244,419.847
134875,152313,13552,0.141,-0.915,-0.219,-0.671,0.122,0.244,419.853
134852,152153,38140,0.141,-0.915,-0.219,-0.671,0.122,0.244,419.857
134852,152305,13560,0.138,-0.925,-0.224,-0.854,0,0.366,419.863
134863,152153,38140,0.138,-0.925,-0.224,-0.854,0,0.366,419.867
134863,152319,13557,0.136,-0.924,-0.226,-0.671,0.122,0.488,419.873
134863,152409,38140,0.136,-0.924,-0.226,-0.671,0.122,0.488,419.877
134863,152336,13526,0.139,-0.933,-0.215,-0.549,0.244,0.488,419.883
134875,152153,38140,0.139,-0.933,-0.215,-0.549,0.244,0.488,419.887
134875,152319,13540,0.139,-0.928,-0.225,-0.183,0.244,0.366,419.893
134852,152153,38140,0.139,-0.928,-0.225,-0.183,0.244,0.366,419.897
134852,152307,13541,0.139,-0.924,-0.229,0.061,0.305,0.549,419.903
134862,152153,38140,0.139,-0.924,-0.229,0.061,0.305,0.549,419.907
134862,152316,13545,0.138,-0.927,-0.222,0.305,0.244,0.427,419.913
134867,152153,38140,0.138,-0.927,-0.222,0.305,0.244,0.427,419.917
134867,152307,13538,0.138,-0.924,-0.214,0.671,0.488,0.305,419.923
134851,152153,38140,0.138,-0.924,-0.214,0.671,0.488,0.305,419.926
134851,152317,13550,0.136,-0.921,-0.214,0.61,0.488,0.305,419.933
134856,152153,38140,0.136,-0.921,-0.214,0.61,0.488,0.305,419.936
134856,152307,13542,0.137,-0.913,-0.219,0.122,0.366,0.427,419.942
134876,152409,38140,0.137,-0.913,-0.219,0.122,0.366,0.427,419.946
134876,152326,13555,0.136,-0.923,-0.222,-0.488,0.122,0.427,419.952
134899,152409,38140,0.136,-0.923,-0.222,-0.488,0.122,0.427,419.956
134899,152325,13556,0.134,-0.927,-0.233,-0.488,0.366,0.488,419.962
134873,152409,38140,0.134,-0.927,-0.233,-0.488,0.366,0.488,419.966
134873,152337,13547,0.138,-0.93,-0.23,-0.061,0.732,0.427,419.972
134868,152153,38140,0.138,-0.93,-0.23,-0.061,0.732,0.427,419.976
134868,152313,13540,0.135,-0.932,-0.214,0.793,0.671,0.305,419.982
134871,152153,38140,0.135,-0.932,-0.214,0.793,0.671,0.305,419.986
134871,152318,13552,0.14,-0.918,-0.21,1.22,0.793,0.122,419.992
134879,152153,38140,0.14,-0.918,-0.21,1.22,0.793,0.122,419.996
134879,152315,13537,0.14,-0.919,-0.209,0.61,0.61,0.122,420.002
134877,152409,38140,0.139,-0.92,-0.211,0.61,0.61,0.122,420.006
134877,152325,13537,0.138,-0.92,-0.212,-0.061,0.549,0.122,420.012
134864,152409,38140,0.138,-0.921,-0.218,-0.061,0.549,0.122,420.015
134864,152328,13553,0.138,-0.918,-0.222,-0.671,0.854,0.183,420.022
134892,152153,38140,0.137,-0.92,-0.223,-0.671,0.854,0.183,420.025
134892,152317,13552,0.138,-0.923,-0.226,-1.037,0.793,0.427,420.032
134881,152409,38140,0.138,-0.931,-0.227,-1.037,0.793,0.427,420.035
134881,152323,13532,0.136,-0.932,-0.227,-0.549,0.671,0.671,420.041
134879,152153,38140,0.133,-0.925,-0.225,-0.549,0.671,0.671,420.045
134879,152317,13543,0.135,-0.92,-0.222,0.305,0.61,0.915,420.051
134890,152409,38140,0.136,-0.917,-0.224,0.305,0.61,0.915,420.055
134890,152376,13546,0.135,-0.919,-0.221,0.305,0.427,0.793,420.061
134871,152409,38140,0.135,-0.923,-0.22,0.305,0.427,0.793,420.065
134871,152340,13555,0.135,-0.927,-0.22,-0.122,0.488,0.427,420.071
134888,152409,38140,0.138,-0.924,-0.219,-0.122,0.488,0.427,420.075
134888,152338,13534,0.143,-0.925,-0.218,-0.488,0.488,0.244,420.081
134887,152153,38140,0.136,-0.927,-0.227,-0.488,0.488,0.244,420.085
134887,152317,13540,0.136,-0.928,-0.231,-0.427,0.427,0.366,420.091
134891,152409,38140,0.135,-0.935,-0.224,-0.427,0.427,0.366,420.095
134891,152353,13550,0.136,-0.939,-0.222,0.427,0.549,0.305,420.101
134897,152409,38140,0.138,-0.932,-0.221,0.427,0.549,0.305,420.105
134897,152347,13559,0.138,-0.923,-0.214,1.037,0.732,0.305,420.111
134909,152409,38140,0.139,-0.92,-0.211,1.037,0.732,0.305,420.114
134909,152326,13546,0.14,-0.921,-0.213,0.732,0.488,0.183,420.121
134887,152409,38140,0.14,-0.923,-0.209,0.732,0.488,0.183,420.124
134887,152358,13562,0.138,-0.921,-0.212,0.305,0.427,-0.061,420.131
134919,152409,38140,0.139,-0.917,-0.222,0.305,0.427,-0.061,420.134
134919,152332,13542,0.141,-0.923,-0.221,-0.122,0.366,0.122,420.14
134899,152409,38140,0.139,-0.927,-0.214,-0.122,0.366,0.122,420.144
134899,152340,13566,0.139,-0.928,-0.22,0.183,0.305,0.244,420.15
134902,152409,38140,0.137,-0.924,-0.221,0.183,0.305,0.244,420.154
134902,152366,13547,0.133,-0.924,-0.218,0.366,0.366,0.366,420.16
134901,152409,38140,0.135,-0.927,-0.217,0.366,0.366,0.366,420.164
134901,152339,13557,0.136,-0.926,-0.215,0.671,0.366,0.427,420.17
134897,152409,38140,0.134,-0.922,-0.214,0.671,0.366,0.427,420.174
134897,152325,13551,0.138,-0.918,-0.212,0.488,0.244,0.305,420.18
134906,152409,38140,0.138,-0.916,-0.214,0.488,0.244,0.305,420.184
134906,152348,13550,0.138,-0.918,-0.211,-0.305,0,0.244,420.19
134922,152409,38140,0.136,-0.918,-0.219,-0.305,0,0.244,420.194
134922,152354,13551,0.138,-0.927,-0.221,-0.793,-0.122,0.183,420.2
134899,152409,38140,0.135,-0.932,-0.216,-0.793,-0.122,0.183,420.204
134899,152368,13556,0.136,-0.928,-0.216,-0.976,0.061,0.061,420.21
134911,152409,38140,0.135,-0.923,-0.224,-0.976,0.061,0.061,420.213
134911,152342,13543,0.136,-0.922,-0.223,-0.915,0.183,0.122,420.22
134919,152409,38140,0.138,-0.928,-0.224,-0.915,0.183,0.122,420.223
134919,152348,13553,0.137,-0.928,-0.227,-0.671,0.305,0.183,420.23
134914,152409,38140,0.14,-0.93,-0.228,-0.671,0.305,0.183,420.233
134914,152358,13553,0.141,-0.926,-0.224,-0.183,0.549,-0.061,420.239
134939,152409,38140,0.14,-0.926,-0.223,-0.183,0.549,-0.061,420.243
134939,152358,13542,0.136,-0.923,-0.228,0.305,0.61,-0.061,420.249
134944,152409,38140,0.134,-0.926,-0.223,0.305,0.61,-0.061,420.253
134944,152370,13574,0.139,-0.927,-0.217,0.732,0.732,0.061,420.259
134945,152409,38140,0.138,-0.928,-0.217,0.732,0.732,0.061,420.263
134945,152370,13547,0.14,-0.921,-0.214,0.915,0.793,0.122,420.269
134910,152409,38140,0.143,-0.915,-0.214,0.915,0.793,0.122,420.273
134910,152361,13542,0.143,-0.922,-0.219,0.549,0.671,0.427,420.279
134908,152409,38140,0.142,-0.926,-0.216,0.549,0.671,0.427,420.283
134908,152369,13557,0.14,-0.927,-0.217,0.671,0.671,0.61,420.289
134924,152409,38140,0.139,-0.925,-0.22,0.671,0.671,0.61,420.293
134924,152396,13570,0.138,-0.919,-0.219,0.549,0.976,0.793,420.299
134956,152409,38140,0.137,-0.919,-0.216,0.549,0.976,0.793,420.303
134956,152360,13552,0.139,-0.922,-0.215,0.122,0.61,0.732,420.309
134925,152409,38140,0.139,-0.923,-0.22,0.122,0.61,0.732,420.312
134925,152352,13564,0.137,-0.922,-0.221,-0.183,0.61,0.854,420.319
134949,152409,38140,0.137,-0.925,-0.225,-0.183,0.61,0.854,420.322
134949,152409,13551,0.135,-0.927,-0.227,-0.122,0.549,0.915,420.328
134931,152409,38140,0.135,-0.927,-0.223,-0.122,0.549,0.915,420.332
134931,152364,13555,0.138,-0.93,-0.219,0.305,0.488,0.671,420.338
134930,152409,38140,0.139,-0.932,-0.212,0.305,0.488,0.671,420.342
134930,152371,13563,0.138,-0.933,-0.214,0.61,0.732,0.549,420.348
134928,152409,38140,0.137,-0.931,-0.212,0.61,0.732,0.549,420.352
134928,152381,13553,0.137,-0.927,-0.209,0.671,0.732,0.61,420.358
134918,152409,38140,0.137,-0.923,-0.213,0.671,0.732,0.61,420.362
134918,152371,13572,0.137,-0.924,-0.214,0.427,0.732,0.427,420.368
134938,152409,38140,0.136,-0.927,-0.213,0.427,0.732,0.427,420.372
134938,152355,13565,0.138,-0.928,-0.213,0.244,0.793,0.244,420.378
134922,152409,38140,0.139,-0.923,-0.222,0.244,0.793,0.244,420.382
134922,152371,13564,0.136,-0.922,-0.22,0.183,0.854,0.305,420.388
134924,152409,38140,0.136,-0.926,-0.216,0.183,0.854,0.305,420.392
134924,152350,13560,0.134,-0.926,-0.213,0.427,0.671,0.183,420.398
134925,152409,38140,0.137,-0.919,-0.213,0.427,0.671,0.183,420.401
134925,152335,13562,0.135,-0.913,-0.216,0.122,0.61,0.183,420.408
134927,152409,38140,0.139,-0.922,-0.215,0.122,0.61,0.183,420.411
134927,152364,13560,0.14,-0.928,-0.213,-0.122,0.366,0.244,420.418
134916,152409,38140,0.139,-0.932,-0.208,-0.122,0.366,0.244,420.421
134916,152364,13559,0.137,-0.926,-0.213,-0.305,0.366,0.244,420.427
134933,152409,38140,0.139,-0.919,-0.22,-0.305,0.366,0.244,420.431
134933,152359,13561,0.139,-0.918,-0.225,-0.793,0.305,0.366,420.437
134938,152409,38140,0.139,-0.918,-0.225,-0.793,0.305,0.366,420.441
134938,152352,13554,0.137,-0.936,-0.216,-0.427,0.366,0.244,420.447
134914,152409,38140,0.137,-0.936,-0.216,-0.427,0.366,0.244,420.451
134914,152337,13567,0.138,-0.923,-0.217,0.061,0.61,0.183,420.457
134929,152409,38140,0.138,-0.923,-0.217,0.061,0.61,0.183,420.461
134929,152354,13536,0.139,-0.922,-0.218,0,0.305,0.244,420.467
134930,152409,38140,0.139,-0.922,-0.218,0,0.305,0.244,420.471
134930,152355,13566,0.141,-0.927,-0.214,0,0.122,0.305,420.477
134938,152409,38140,0.141,-0.927,-0.214,0,0.122,0.305,420.481
134938,152332,13551,0.139,-0.924,-0.21,0.061,0.061,0.305,420.487
134932,152409,38140,0.139,-0.924,-0.21,0.061,0.061,0.305,420.491
134932,152372,13557,0.14,-0.92,-0.224,0,0.122,0.488,420.497
134927,152409,38140,0.14,-0.92,-0.224,0,0.122,0.488,420.501
134927,152355,13557,0.136,-0.927,-0.219,0.183,0.305,0.549,420.507
134951,152409,38140,0.136,-0.927,-0.219,0.183,0.305,0.549,420.51
134951,152342,13553,0.135,-0.922,-0.22,0.122,0.427,0.305,420.517
134942,152409,38140,0.135,-0.922,-0.22,0.122,0.427,0.305,420.52
134942,152367,13544,0.138,-0.93,-0.217,0.122,0.427,0.305,420.526
134942,152409,38140,0.138,-0.93,-0.217,0.122,0.427,0.305,420.53
134942,152375,13541,0.137,-0.929,-0.211,0.61,0.427,0.183,420.536
134912,152409,38140,0.137,-0.929,-0.211,0.61,0.427,0.183,420.54
134912,152345,13542,0.14,-0.914,-0.211,0.305,0.305,0.122,420.546
134964,152409,38140,0.14,-0.914,-0.211,0.305,0.305,0.122,420.55
134964,152373,13527,0.135,-0.921,-0.207,-0.366,0.122,0.244,420.556
134932,152409,38140,0.135,-0.921,-0.207,-0.366,0.122,0.244,420.56
134932,152350,13554,0.139,-0.921,-0.214,-1.22,0.122,0.305,420.566
134937,152409,38140,0.139,-0.921,-0.214,-1.22,0.122,0.305,420.57
134937,152349,13538,0.139,-0.927,-0.214,-1.22,0.122,0.305,420.576
134939,152409,38140,0.136,-0.93,-0.219,-1.524,0.244,0.305,420.58
134939,152359,13548,0.136,-0.929,-0.226,-1.524,0.244,0.305,420.586
134938,152409,38140,0.136,-0.936,-0.224,-1.22,0.366,0.366,420.59
134938,152374,13554,0.134,-0.937,-0.217,-1.22,0.366,0.366,420.596
134951,152409,38140,0.133,-0.926,-0.217,-0.549,0.366,0.244,420.599
134951,152351,13560,0.136,-0.917,-0.223,-0.549,0.366,0.244,420.606
134956,152409,38140,0.136,-0.923,-0.218,-0.366,0.366,0.122,420.609
134956,152369,13548,0.142,-0.926,-0.219,-0.366,0.366,0.122,420.616
134941,152409,38140,0.143,-0.929,-0.222,0.061,0.122,-0.061,420.619
134941,152359,13552,0.142,-0.925,-0.215,0.061,0.122,-0.061,420.625
134934,152409,38140,0.141,-0.923,-0.217,0.122,0.305,-0.061,420.629
134934,152382,13551,0.14,-0.92,-0.212,0.122,0.305,-0.061,420.635
134967,152409,38140,0.139,-0.927,-0.209,0.061,0.488,0.183,420.639
134967,152367,13560,0.139,-0.925,-0.212,0.061,0.488,0.183,420.645
134953,152409,38140,0.14,-0.922,-0.209,-0.122,0.61,0.366,420.649
134953,152348,13562,0.137,-0.919,-0.216,-0.122,0.61,0.366,420.655
134942,152409,38140,0.141,-0.922,-0.223,-0.549,0.488,0.732,420.659
134942,152352,13538,0.139,-0.922,-0.22,-0.549,0.488,0.732,420.665
134958,152409,38140,0.136,-0.924,-0.219,-0.793,0.305,1.037,420.669
134958,152370,13557,0.134,-0.924,-0.231,-0.793,0.305,1.037,420.675
134935,152409,38140,0.135,-0.929,-0.227,-0.61,0.549,0.976,420.679
134935,152361,13548,0.134,-0.931,-0.221,-0.61,0.549,0.976,420.685
134952,152409,38140,0.135,-0.928,-0.22,0,0.671,0.671,420.689
134952,152372,13559,0.136,-0.924,-0.221,0,0.671,0.671,420.695
134949,152409,38140,0.136,-0.923,-0.223,0,0.732,0.305,420.698
134949,152366,13528,0.135,-0.932,-0.221,0,0.732,0.305,420.705
134942,152409,38140,0.135,-0.933,-0.217,0.305,0.793,-0.122,420.708
134942,152385,13565,0.137,-0.927,-0.213,0.305,0.793,-0.122,420.715
134975,152409,38140,0.136,-0.922,-0.209,0.305,0.671,-0.122,420.718
134975,152353,13549,0.138,-0.918,-0.21,0.305,0.671,-0.122,420.724
134947,152409,38140,0.141,-0.924,-0.217,-0.122,0.244,0.122,420.728
134947,152339,13554,0.14,-0.929,-0.216,-0.122,0.244,0.122,420.734
134950,152409,38140,0.138,-0.929,-0.219,-0.244,0.183,0,420.738
134950,152351,13549,0.14,-0.927,-0.22,-0.244,0.183,0,420.744
134953,152409,38140,0.14,-0.921,-0.219,-0.061,0.366,-0.061,420.748
134953,152360,13556,0.136,-0.92,-0.219,-0.061,0.366,-0.061,420.754
134949,152409,38140,0.14,-0.924,-0.217,0.244,0.366,0,420.758
134949,152363,13548,0.143,-0.927,-0.217,0.244,0.366,0,420.764
134955,152409,38140,0.141,-0.928,-0.212,0.427,0.366,0.183,420.768
134955,152338,13555,0.139,-0.927,-0.212,0.427,0.366,0.183,420.774
134956,152409,38140,0.139,-0.927,-0.212,0.549,0.305,0.488,420.778
134956,152355,13551,0.139,-0.918,-0.213,0.549,0.305,0.488,420.784
134984,152409,38140,0.137,-0.915,-0.219,-0.061,0.122,0.732,420.788
134984,152379,13546,0.134,-0.925,-0.223,-0.061,0.122,0.732,420.794
134961,152409,38140,0.135,-0.932,-0.224,-0.305,0.183,0.61,420.797
134961,152370,13559,0.136,-0.933,-0.224,-0.305,0.183,0.61,420.804
134966,152409,38140,0.136,-0.93,-0.217,0.305,0.427,0.305,420.807
134966,152399,13546,0.135,-0.922,-0.215,0.305,0.427,0.305,420.814
134956,152409,38140,0.138,-0.919,-0.217,0.427,0.427,0.244,420.817
134956,152361,13556,0.136,-0.922,-0.216,0.427,0.427,0.244,420.823
134959,152409,38140,0.135,-0.928,-0.214,0.061,0.366,0.183,420.827
134959,152351,13555,0.135,-0.927,-0.217,0.061,0.366,0.183,420.833
134930,152409,38140,0.138,-0.924,-0.215,-0.122,0.305,0.061,420.837
134930,152349,13549,0.138,-0.923,-0.219,-0.122,0.305,0.061,420.843
134944,152409,38140,0.138,-0.929,-0.216,-0.366,0.427,0.061,420.847
134944,152359,13555,0.136,-0.934,-0.221,-0.366,0.427,0.061,420.853
134966,152409,38140,0.137,-0.931,-0.217,-0.183,0.366,0,420.857
134966,152377,13552,0.137,-0.926,-0.209,-0.183,0.366,0,420.863
134966,152409,38140,0.142,-0.918,-0.217,0,0.427,0,420.867
134966,152377,13538,0.141,-0.917,-0.22,0,0.427,0,420.873
134968,152409,38140,0.141,-0.921,-0.221,-0.244,0.427,0.122,420.877
134968,152349,13560,0.14,-0.925,-0.224,-0.244,0.427,0.122,420.883
134960,152409,38140,0.142,-0.925,-0.221,-0.122,0.61,0.122,420.887
134960,152366,13555,0.144,-0.919,-0.22,-0.122,0.61,0.122,420.893
134955,152409,38140,0.146,-0.918,-0.219,0,0.671,0.366,420.896
134955,152361,13560,0.145,-0.923,-0.218,0,0.671,0.366,420.903
134986,152409,38140,0.143,-0.928,-0.221,0.061,0.61,0.61,420.906
134986,152348,13567,0.142,-0.931,-0.219,0.061,0.61,0.61,420.913
134942,152409,38140,0.139,-0.93,-0.216,0.488,0.793,0.732,420.916
134942,152377,13544,0.139,-0.929,-0.214,0.488,0.793,0.732,420.922
134959,152409,38140,0.138,-0.927,-0.211,0.854,0.793,0.854,420.926
134959,152361,13549,0.135,-0.926,-0.214,0.854,0.793,0.854,420.932
134965,152409,38140,0.137,-0.928,-0.212,0.915,0.671,0.915,420.936
134965,152334,13557,0.137,-0.927,-0.211,0.915,0.671,0.915,420.942
134953,152409,38140,0.134,-0.929,-0.211,0.671,0.549,0.793,420.946
134953,152395,13554,0.135,-0.923,-0.215,0.671,0.549,0.793,420.952
134985,152409,38140,0.135,-0.925,-0.213,0.305,0.61,0.671,420.956
134985,152357,13563,0.135,-0.924,-0.214,0.305,0.61,0.671,420.962
134962,152409,38140,0.137,-0.923,-0.218,0.244,0.488,0.427,420.966
134962,152347,13551,0.133,-0.922,-0.215,0.244,0.488,0.427,420.972
134959,152409,38140,0.138,-0.919,-0.214,0.122,0.427,0.305,420.976
134959,152347,13560,0.139,-0.917,-0.21,0.122,0.427,0.305,420.982
134942,152409,38140,0.138,-0.917,-0.215,-0.366,0.366,0.366,420.986
134942,152349,13564,0.136,-0.928,-0.212,-0.366,0.366,0.366,420.992
134930,152409,38140,0.136,-0.936,-0.212,-0.61,0.427,0.244,420.995
134930,152348,13559,0.138,-0.935,-0.219,-0.61,0.427,0.244,421.002
134945,152409,38140,0.141,-0.929,-0.219,-0.244,0.61,0.122,421.005
134945,152352,13567,0.137,-0.926,-0.216,-0.244,0.61,0.122,421.012
134952,152153,38140,0.137,-0.926,-0.216,-0.244,0.61,0.122,421.015
134952,152319,13565,0.138,-0.928,-0.219,0.183,0.488,0.305,421.021
134954,152409,38140,0.138,-0.928,-0.219,0.183,0.488,0.305,421.025
134954,152369,13565,0.137,-0.923,-0.213,0.488,0.61,0.061,421.031
134955,152409,38140,0.137,-0.923,-0.213,0.488,0.61,0.061,421.035
134955,152347,13555,0.141,-0.918,-0.216,0.244,0.671,0.122,421.041
134939,152409,38140,0.141,-0.918,-0.216,0.244,0.671,0.122,421.045
134939,152350,13534,0.141,-0.922,-0.209,0,0.549,0.244,421.051
134937,152409,38140,0.141,-0.922,-0.209,0,0.549,0.244,421.055
134937,152337,13550,0.139,-0.919,-0.22,-0.244,0.427,0.488,421.061
134920,152409,38140,0.139,-0.919,-0.22,-0.244,0.427,0.488,421.065
134920,152352,13546,0.141,-0.933,-0.219,-0.732,0.244,0.732,421.071
134939,152409,38140,0.141,-0.933,-0.219,-0.732,0.244,0.732,421.075
134939,152324,13555,0.137,-0.932,-0.221,-0.61,0.305,0.671,421.081
134956,152409,38140,0.137,-0.932,-0.221,-0.61,0.305,0.671,421.085
134956,152366,13544,0.137,-0.929,-0.211,0,0.366,0.488,421.091
134940,152409,38140,0.137,-0.929,-0.211,0,0.366,0.488,421.094
134940,152322,13542,0.138,-0.924,-0.213,0.366,0.366,0.488,421.101
134935,152409,38140,0.138,-0.924,-0.213,0.366,0.366,0.488,421.104
134935,152351,13542,0.139,-0.922,-0.212,0.366,0.244,0.427,421.11
134946,152409,38140,0.139,-0.922,-0.212,0.366,0.244,0.427,421.114
134946,152330,13526,0.137,-0.922,-0.217,0,0.122,0.305,421.12
134925,152409,38140,0.137,-0.922,-0.217,0,0.122,0.305,421.124
134925,152332,13558,0.139,-0.927,-0.216,-0.61,0.122,0.427,421.13
134943,152409,38140,0.139,-0.927,-0.216,-0.61,0.122,0.427,421.134
134943,152329,13528,0.137,-0.927,-0.215,-0.488,0.122,0.305,421.14
134942,152153,38140,0.137,-0.927,-0.215,-0.488,0.122,0.305,421.144
134942,152305,13545,0.138,-0.921,-0.214,-0.366,0.244,0.366,421.15
134936,152153,38140,0.138,-0.921,-0.214,-0.366,0.244,0.366,421.154
134936,152318,13534,0.141,-0.922,-0.216,-0.549,0.244,0.366,421.16
134947,152409,38140,0.141,-0.924,-0.217,-0.549,0.244,0.366,421.164
134947,152350,13536,0.138,-0.925,-0.222,-0.671,0.122,0.427,421.17
134939,152409,38140,0.14,-0.924,-0.229,-0.671,0.122,0.427,421.174
134939,152321,13543,0.135,-0.929,-0.226,-0.488,0.549,0.427,421.18
134944,152409,38140,0.133,-0.934,-0.223,-0.488,0.549,0.427,421.184
134944,152321,13545,0.136,-0.933,-0.22,0.427,0.671,0.183,421.19
134933,152409,38140,0.135,-0.925,-0.216,0.427,0.671,0.183,421.193
134933,152334,13545,0.138,-0.921,-0.212,0.732,0.549,0.183,421.2
134940,152409,38140,0.142,-0.92,-0.206,0.732,0.549,0.183,421.203
134940,152325,13550,0.141,-0.918,-0.208,0.488,0.427,0.122,421.21
134936,152409,38140,0.14,-0.917,-0.208,0.488,0.427,0.122,421.213
134936,152320,13525,0.14,-0.917,-0.211,-0.061,0.488,0.244,421.219
134928,152409,38140,0.139,-0.92,-0.212,-0.061,0.488,0.244,421.223
134928,152347,13547,0.134,-0.927,-0.212,-0.915,0.366,0.305,421.229
134924,152409,38140,0.135,-0.931,-0.216,-0.915,0.366,0.305,421.233
134924,152323,13536,0.136,-0.929,-0.22,-0.976,0.305,0.305,421.239
134949,152409,38140,0.135,-0.923,-0.221,-0.976,0.305,0.305,421.243
134949,152338,13545,0.138,-0.929,-0.22,-0.671,0.244,0.305,421.249
134921,152409,38140,0.142,-0.932,-0.22,-0.671,0.244,0.305,421.253
134921,152323,13550,0.143,-0.926,-0.221,-0.061,0.305,0.244,421.259
134929,152409,38140,0.143,-0.927,-0.216,-0.061,0.305,0.244,421.263
134929,152321,13540,0.142,-0.928,-0.213,0.549,0.61,0.305,421.269
134931,152409,38140,0.14,-0.926,-0.211,0.549,0.61,0.305,421.273
134931,152324,13529,0.14,-0.922,-0.207,0.549,0.671,0.427,421.279
134933,152153,38140,0.14,-0.917,-0.208,0.549,0.671,0.427,421.283
134933,152314,13527,0.137,-0.919,-0.209,0.061,0.61,0.671,421.289
134942,152153,38140,0.139,-0.922,-0.212,0.061,0.61,0.671,421.292
134942,152318,13528,0.14,-0.924,-0.212,-0.549,0.488,1.037,421.299
134921,152409,38140,0.136,-0.921,-0.216,-0.549,0.488,1.037,421.302
134921,152330,13530,0.134,-0.923,-0.222,-0.854,0.549,1.098,421.308
134927,152409,38140,0.132,-0.927,-0.22,-0.854,0.549,1.098,421.312
134927,152331,13539,0.135,-0.931,-0.226,-0.671,0.427,1.037,421.318
134945,152409,38140,0.136,-0.934,-0.231,-0.671,0.427,1.037,421.322
134945,152336,13518,0.136,-0.936,-0.221,0.061,0.671,0.549,421.328
134934,152409,38140,0.135,-0.933,-0.215,0.061,0.671,0.549,421.332
134934,152340,13543,0.138,-0.926,-0.213,0.732,0.793,0.122,421.338
134942,152153,38140,0.136,-0.919,-0.212,0.732,0.793,0.122,421.342
134942,152314,13533,0.136,-0.924,-0.21,0.427,0.671,0.061,421.348
134930,152409,38140,0.139,-0.927,-0.212,0.427,0.671,0.061,421.352
134930,152341,13544,0.136,-0.93,-0.214,0.488,0.549,0.122,421.358
134947,152153,38140,0.133,-0.925,-0.216,0.488,0.549,0.122,421.362
134947,152304,13535,0.137,-0.922,-0.219,0.244,0.488,0.122,421.368
134926,152409,38140,0.14,-0.918,-0.221,0.244,0.488,0.122,421.372
134926,152328,13532,0.137,-0.922,-0.219,0.061,0.366,0,421.378
134932,152409,38140,0.137,-0.928,-0.215,0.061,0.366,0,421.382
134932,152326,13540,0.139,-0.927,-0.219,0.305,0.427,-0.244,421.388
134931,152153,38140,0.142,-0.921,-0.216,0.305,0.427,-0.244,421.391
134931,152307,13534,0.142,-0.921,-0.209,0.122,0.488,-0.061,421.398
134928,152409,38140,0.142,-0.927,-0.219,0.122,0.488,-0.061,421.401
134928,152343,13521,0.142,-0.931,-0.216,0.122,0.305,0.183,421.407
134933,152153,38140,0.14,-0.933,-0.21,0.122,0.305,0.183,421.411
134933,152307,13532,0.14,-0.929,-0.209,0.488,0.305,0.305,421.417
134923,152153,38140,0.139,-0.922,-0.209,0.488,0.305,0.305,421.421
134923,152314,13545,0.138,-0.922,-0.208,0.183,0.366,0.671,421.427
134941,152409,38140,0.135,-0.923,-0.207,0.183,0.366,0.671,421.431
134941,152325,13521,0.136,-0.924,-0.213,-0.427,0.122,0.732,421.437
134918,152409,38140,0.137,-0.92,-0.218,-0.427,0.122,0.732,421.441
134918,152326,13542,0.137,-0.923,-0.218,-1.098,0.061,0.549,421.447
134944,152153,38140,0.133,-0.929,-0.215,-1.098,0.061,0.549,421.451
134944,152312,13524,0.133,-0.925,-0.218,-0.854,0.244,0.427,421.457
134944,152153,38140,0.137,-0.921,-0.219,-0.854,0.244,0.427,421.461
134944,152313,13537,0.136,-0.924,-0.218,-0.793,0.122,0.427,421.467
134930,152409,38140,0.135,-0.931,-0.208,-0.793,0.122,0.427,421.471
134930,152340,13541,0.135,-0.931,-0.209,-0.427,0.061,0.305,421.477
134958,152153,38140,0.136,-0.923,-0.213,-0.427,0.061,0.305,421.48
134958,152306,13525,0.138,-0.918,-0.219,-0.793,0,0.305,421.487
134918,152409,38140,0.141,-0.919,-0.218,-0.793,0,0.305,421.49
134918,152331,13531,0.137,-0.935,-0.223,-1.098,-0.122,0.244,421.497
134938,152153,38140,0.137,-0.941,-0.221,-1.098,-0.122,0.244,421.5
134938,152311,13526,0.138,-0.937,-0.222,-0.427,0.183,-0.122,421.506
134936,152409,38140,0.135,-0.928,-0.222,-0.427,0.183,-0.122,421.51
134936,152338,13523,0.136,-0.927,-0.219,0,0.61,-0.122,421.516
134941,152153,38140,0.138,-0.928,-0.215,0,0.61,-0.122,421.52
134941,152318,13516,0.14,-0.929,-0.213,0.61,0.488,-0.061,421.526
134935,152409,38140,0.144,-0.923,-0.214,0.61,0.488,-0.061,421.53
134935,152350,13527,0.144,-0.921,-0.214,0.427,0.61,-0.061,421.536
134927,152409,38140,0.142,-0.922,-0.217,0.427,0.61,-0.061,421.54
134927,152326,13546,0.143,-0.924,-0.215,0.366,0.61,0.305,421.546
134942,152409,38140,0.14,-0.926,-0.211,0.366,0.61,0.305,421.55
134942,152329,13538,0.138,-0.924,-0.214,0.427,0.732,0.671,421.556
134951,152153,38140,0.138,-0.918,-0.219,0.427,0.732,0.671,421.56
134951,152317,13529,0.139,-0.918,-0.221,0.244,0.793,0.854,421.566
134923,152153,38140,0.139,-0.927,-0.217,0.244,0.793,0.854,421.57
134923,152317,13542,0.138,-0.932,-0.218,0.305,0.671,0.793,421.576
134947,152409,38140,0.137,-0.931,-0.221,0.305,0.671,0.793,421.579
134947,152326,13522,0.136,-0.928,-0.218,0.488,0.793,0.793,421.586
134929,152409,38140,0.132,-0.927,-0.212,0.488,0.793,0.793,421.589
134929,152334,13522,0.134,-0.927,-0.214,0.732,0.732,0.671,421.596
134936,152153,38140,0.134,-0.927,-0.214,0.732,0.732,0.671,421.599
134936,152318,13528,0.137,-0.93,-0.203,0.732,0.61,0.488,421.605
134918,152409,38140,0.137,-0.93,-0.203,0.732,0.61,0.488,421.609
134918,152335,13523,0.14,-0.922,-0.204,0.366,0.427,0.427,421.615
134922,152153,38140,0.14,-0.922,-0.204,0.366,0.427,0.427,421.619
134922,152301,13509,0.136,-0.923,-0.211,-0.244,0.244,0.549,421.625
134910,152409,38140,0.136,-0.923,-0.211,-0.244,0.244,0.549,421.629
134910,152323,13546,0.137,-0.926,-0.218,-0.61,0.305,0.366,421.635
134923,152153,38140,0.137,-0.926,-0.218,-0.61,0.305,0.366,421.639
134923,152296,13520,0.136,-0.929,-0.223,-0.183,0.366,0.244,421.645
134914,152153,38140,0.136,-0.929,-0.223,-0.183,0.366,0.244,421.649
134914,152305,13538,0.139,-0.925,-0.216,0.244,0.61,0.366,421.655
134919,152153,38140,0.139,-0.925,-0.216,0.244,0.61,0.366,421.659
134919,152317,13511,0.138,-0.922,-0.215,0.61,0.854,0.488,421.665
134922,152153,38140,0.138,-0.922,-0.215,0.61,0.854,0.488,421.669
134922,152292,13508,0.139,-0.921,-0.217,0.366,0.854,0.427,421.675
134915,152153,38140,0.139,-0.921,-0.217,0.366,0.854,0.427,421.678
134915,152305,13522,0.135,-0.932,-0.221,0.488,0.793,0.305,421.685
134902,152153,38140,0.135,-0.932,-0.221,0.488,0.793,0.305,421.688
134902,152301,13521,0.14,-0.925,-0.21,0.427,0.732,0.305,421.695
134884,152153,38140,0.14,-0.925,-0.21,0.427,0.732,0.305,421.698
134884,152296,13512,0.138,-0.922,-0.216,0.122,0.549,0.366,421.704
134924,152153,38140,0.138,-0.922,-0.216,0.122,0.549,0.366,421.708
134924,152282,13509,0.138,-0.927,-0.208,-0.244,0.244,0.366,421.714
134919,152153,38140,0.138,-0.927,-0.208,-0.244,0.244,0.366,421.718
134919,152291,13525,0.137,-0.922,-0.213,-0.366,0.183,0.366,421.724
134924,152153,38140,0.137,-0.922,-0.213,-0.366,0.183,0.366,421.728
134924,152302,13507,0.138,-0.923,-0.214,-0.366,0.183,0.366,421.734
134912,152153,38140,0.136,-0.924,-0.211,-0.427,0.244,0.366,421.738
134912,152273,13525,0.14,-0.925,-0.212,-0.427,0.244,0.366,421.744
134910,152153,38140,0.14,-0.924,-0.218,-0.427,0.244,0.305,421.748
134910,152304,13517,0.137,-0.926,-0.217,-0.427,0.244,0.305,421.754
134899,152153,38140,0.137,-0.93,-0.219,-0.305,0.183,0.488,421.758
134899,152268,13530,0.137,-0.929,-0.219,-0.305,0.183,0.488,421.764
134925,152153,38140,0.139,-0.926,-0.217,-0.122,0.244,0.549,421.768
134925,152269,13518,0.139,-0.926,-0.219,-0.122,0.244,0.549,421.774
134894,152153,38140,0.138,-0.926,-0.22,0.122,0.488,0.61,421.777
134894,152283,13507,0.14,-0.932,-0.212,0.122,0.488,0.61,421.784
134916,152153,38140,0.135,-0.931,-0.212,0.549,0.671,0.549,421.787
134916,152289,13505,0.136,-0.925,-0.217,0.549,0.671,0.549,421.793
134883,152153,38140,0.137,-0.924,-0.212,0.488,0.61,0.427,421.797
134883,152272,13511,0.137,-0.924,-0.21,0.488,0.61,0.427,421.803
134897,152153,38140,0.137,-0.923,-0.213,0.366,0.549,0.427,421.807
134897,152283,13504,0.139,-0.921,-0.212,0.366,0.549,0.427,421.813
134895,152153,38140,0.135,-0.923,-0.21,0.061,0.549,0.366,421.817
134895,152269,13512,0.137,-0.927,-0.208,0.061,0.549,0.366,421.823
134898,152153,38140,0.137,-0.924,-0.21,-0.061,0.366,0.366,421.827
134898,152272,13516,0.138,-0.921,-0.214,-0.061,0.366,0.366,421.833
134894,152153,38140,0.139,-0.918,-0.221,-0.366,0.366,0.366,421.837
134894,152284,13518,0.139,-0.928,-0.212,-0.366,0.366,0.366,421.843
134910,152153,38140,0.139,-0.935,-0.197,-0.061,0.488,0.305,421.847
134910,152263,13501,0.136,-0.933,-0.202,-0.061,0.488,0.305,421.853
134909,152153,38140,0.138,-0.922,-0.212,-0.244,0.61,0.488,421.857
134909,152279,13506,0.136,-0.922,-0.212,-0.244,0.61,0.488,421.863
134913,152153,38140,0.136,-0.927,-0.212,-0.671,0.427,0.671,421.867
134913,152286,13490,0.137,-0.925,-0.22,-0.671,0.427,0.671,421.873
134898,152153,38140,0.137,-0.928,-0.224,-0.854,0.305,0.488,421.876
134898,152290,13521,0.138,-0.931,-0.219,-0.854,0.305,0.488,421.883
134886,152153,38140,0.141,-0.93,-0.218,-0.671,0.366,0.366,421.886
134886,152259,13490,0.141,-0.928,-0.217,-0.671,0.366,0.366,421.893
134901,152153,38140,0.141,-0.929,-0.217,-0.122,0.427,0.244,421.896
134901,152260,13503,0.139,-0.928,-0.217,-0.122,0.427,0.244,421.902
134900,152153,38140,0.138,-0.93,-0.215,0.183,0.61,0.244,421.906
134900,152272,13521,0.139,-0.926,-0.215,0.183,0.61,0.244,421.912
134878,152153,38140,0.141,-0.923,-0.222,0.549,0.671,0.244,421.916
134878,152290,13498,0.14,-0.925,-0.224,0.549,0.671,0.244,421.922
134926,152153,38140,0.14,-0.93,-0.223,0.854,0.793,0.366,421.926
134926,152261,13510,0.138,-0.934,-0.215,0.854,0.793,0.366,421.932
134890,152153,38140,0.137,-0.934,-0.207,1.341,0.793,0.366,421.936
134890,152269,13517,0.138,-0.928,-0.209,1.341,0.793,0.366,421.942
