136307,152395,14172,0.148,-0.946,-0.122,-1.098,0.061,0.366,239.844
136345,152409,38140,0.149,-0.945,-0.119,-0.488,0.183,0.427,239.848
136345,152385,14170,0.146,-0.942,-0.117,-0.488,0.183,0.427,239.854
136297,152409,38140,0.148,-0.939,-0.121,-0.183,0.183,0.366,239.858
136297,152377,14175,0.147,-0.938,-0.127,-0.183,0.183,0.366,239.864
136319,152409,38140,0.144,-0.938,-0.128,-0.122,0.244,0.427,239.867
136319,152367,14181,0.145,-0.941,-0.124,-0.122,0.244,0.427,239.874
136297,152409,38140,0.144,-0.935,-0.119,0.122,0.366,0.488,239.877
136297,152372,14172,0.143,-0.932,-0.122,0.122,0.366,0.488,239.883
136298,152409,38140,0.145,-0.929,-0.128,-0.366,0.427,0.549,239.887
136298,152351,14165,0.146,-0.934,-0.127,-0.366,0.427,0.549,239.893
136305,152409,38140,0.145,-0.937,-0.126,-0.427,0.366,0.732,239.897
136305,152379,14170,0.149,-0.935,-0.123,-0.427,0.366,0.732,239.903
136314,152409,38140,0.145,-0.944,-0.118,-0.427,0.549,0.61,239.907
136314,152378,14173,0.147,-0.947,-0.108,-0.427,0.549,0.61,239.913
136287,152409,38140,0.15,-0.946,-0.106,-0.671,0.427,0.427,239.917
136287,152358,14166,0.147,-0.946,-0.113,-0.671,0.427,0.427,239.923
136286,152409,38140,0.149,-0.952,-0.121,-1.28,0.183,0.549,239.927
136286,152352,14181,0.151,-0.959,-0.112,-1.28,0.183,0.549,239.933
136282,152409,38140,0.151,-0.955,-0.117,-0.732,0.122,0.427,239.937
136282,152346,14175,0.151,-0.951,-0.122,-0.732,0.122,0.427,239.943
136285,152409,38140,0.145,-0.948,-0.118,-0.732,0.183,0.244,239.947
136285,152345,14155,0.145,-0.948,-0.12,-0.732,0.183,0.244,239.953
136304,152409,38140,0.147,-0.942,-0.128,-0.183,0.366,0,239.956
136304,152387,14163,0.147,-0.936,-0.132,-0.183,0.366,0,239.963
136302,152409,38140,0.145,-0.935,-0.128,-0.366,0.305,-0.183,239.966
136302,152348,14173,0.144,-0.937,-0.124,-0.366,0.305,-0.183,239.973
136287,152409,38140,0.142,-0.931,-0.122,-0.122,0.122,0,239.976
136287,152330,14158,0.14,-0.929,-0.118,-0.122,0.122,0,239.982
136277,152409,38140,0.144,-0.931,-0.117,-0.427,0,0.305,239.986
136277,152327,14169,0.145,-0.933,-0.114,-0.427,0,0.305,239.992
136278,152409,38140,0.145,-0.939,-0.118,-0.976,-0.183,0.305,239.996
136278,152353,14167,0.147,-0.939,-0.124,-0.976,-0.183,0.305,240.002
136280,152409,38140,0.15,-0.947,-0.126,-1.28,-0.183,0.488,240.006
136280,152337,14163,0.149,-0.955,-0.116,-1.28,-0.183,0.488,240.012
136287,152409,38140,0.145,-0.95,-0.113,-0.915,0,0.671,240.016
136287,152352,14169,0.141,-0.942,-0.115,-0.915,0,0.671,240.022
136279,152409,38140,0.14,-0.95,-0.112,-0.976,0.061,0.671,240.026
136279,152372,14178,0.147,-0.956,-0.114,-0.976,0.061,0.671,240.032
136294,152409,38140,0.15,-0.959,-0.112,-0.244,-0.183,0.183,240.036
136294,152353,14146,0.148,-0.951,-0.12,-0.244,-0.183,0.183,240.042
136282,152409,38140,0.15,-0.942,-0.132,-0.244,-0.366,-0.061,240.046
136282,152342,14156,0.147,-0.945,-0.128,-0.244,-0.366,-0.061,240.052
136292,152409,38140,0.146,-0.939,-0.124,0.366,-0.183,0,240.055
136292,152376,14158,0.148,-0.931,-0.129,0.366,-0.183,0,240.062
136305,152409,38140,0.146,-0.926,-0.13,0,-0.183,-0.061,240.065
136305,152356,14146,0.143,-0.925,-0.131,0,-0.183,-0.061,240.072
136273,152409,38140,0.141,-0.937,-0.129,-0.915,-0.244,0.244,240.075
136273,152342,14166,0.141,-0.944,-0.131,-0.915,-0.244,0.244,240.081
136289,152409,38140,0.141,-0.944,-0.131,-0.915,-0.244,0.244,240.085
136289,152360,14175,0.141,-0.942,-0.117,-1.159,-0.122,0,240.091
136298,152409,38140,0.141,-0.942,-0.117,-1.159,-0.122,0,240.095
136298,152353,14145,0.147,-0.942,-0.112,-1.159,-0.183,0.244,240.101
136303,152409,38140,0.147,-0.942,-0.112,-1.159,-0.183,0.244,240.105
136303,152348,14154,0.15,-0.952,-0.11,-1.159,-0.427,0.366,240.111
136286,152409,38140,0.15,-0.952,-0.11,-1.159,-0.427,0.366,240.115
136286,152365,14161,0.15,-0.948,-0.124,-1.341,-0.244,0.244,240.121
136277,152409,38140,0.15,-0.948,-0.124,-1.341,-0.244,0.244,240.125
136277,152342,14161,0.144,-0.953,-0.12,-1.28,0.122,0.305,240.131
136292,152409,38140,0.144,-0.953,-0.12,-1.28,0.122,0.305,240.135
136292,152329,14157,0.151,-0.939,-0.129,-0.488,0,0.061,240.141
136277,152409,38140,0.151,-0.939,-0.129,-0.488,0,0.061,240.145
136277,152348,14156,0.151,-0.938,-0.141,-0.305,-0.061,-0.183,240.151
136273,152409,38140,0.151,-0.938,-0.141,-0.305,-0.061,-0.183,240.154
136273,152341,14159,0.148,-0.937,-0.13,0.61,0.305,0.061,240.161
136260,152409,38140,0.148,-0.937,-0.13,0.61,0.305,0.061,240.164
136260,152347,14165,0.145,-0.926,-0.122,0.427,0.549,-0.183,240.171
136255,152409,38140,0.145,-0.926,-0.122,0.427,0.549,-0.183,240.174
136255,152331,14147,0.149,-0.936,-0.12,-0.366,0.61,0.488,240.18
136268,152409,38140,0.149,-0.936,-0.12,-0.366,0.61,0.488,240.184
136268,152345,14158,0.15,-0.941,-0.116,-1.037,0.61,0.427,240.19
136246,152153,38140,0.15,-0.941,-0.116,-1.037,0.61,0.427,240.194
136246,152305,14165,0.145,-0.942,-0.127,-1.28,0.793,0.61,240.2
136258,152409,38140,0.145,-0.942,-0.127,-1.28,0.793,0.61,240.204
136258,152346,14163,0.142,-0.947,-0.115,-0.427,0.854,1.159,240.21
136232,152409,38140,0.142,-0.947,-0.115,-0.427,0.854,1.159,240.214
136232,152329,14155,0.142,-0.944,-0.118,0.061,0.854,0.854,240.22
136256,152409,38140,0.142,-0.944,-0.118,0.061,0.854,0.854,240.224
136256,152332,14146,0.143,-0.948,-0.117,-0.366,0.61,0.732,240.23
136266,152409,38140,0.145,-0.942,-0.115,-0.366,0.61,0.732,240.234
136266,152326,14160,0.15,-0.944,-0.114,-0.61,0.305,0.793,240.24
136262,152409,38140,0.149,-0.945,-0.119,-0.61,0.305,0.793,240.244
136262,152353,14163,0.144,-0.938,-0.138,-0.61,0.305,0.549,240.25
136258,152409,38140,0.145,-0.941,-0.139,-0.61,0.305,0.549,240.253
136258,152343,14149,0.144,-0.948,-0.125,-0.732,0.488,0.305,240.26
136255,152409,38140,0.143,-0.947,-0.121,-0.732,0.488,0.305,240.263
136255,152347,14153,0.143,-0.944,-0.121,-0.793,0.305,0,240.27
136254,152409,38140,0.146,-0.946,-0.119,-0.793,0.305,0,240.273
136254,152336,14154,0.147,-0.944,-0.119,-1.341,0.061,0,240.279
136267,152409,38140,0.15,-0.942,-0.127,-1.341,0.061,0,240.283
136267,152345,14171,0.15,-0.938,-0.133,-1.28,0.061,0.122,240.289
136259,152409,38140,0.149,-0.946,-0.124,-1.28,0.061,0.122,240.293
136259,152351,14149,0.149,-0.946,-0.124,-0.305,0.244,0.061,240.299
136252,152409,38140,0.15,-0.94,-0.127,-0.305,0.244,0.061,240.303
136252,152336,14148,0.144,-0.935,-0.121,-0.488,0.305,-0.122,240.309
136256,152409,38140,0.148,-0.935,-0.125,-0.488,0.305,-0.122,240.313
136256,152325,14156,0.147,-0.936,-0.13,-0.122,0.305,0.122,240.319
136254,152409,38140,0.145,-0.939,-0.116,-0.122,0.305,0.122,240.323
136254,152349,14161,0.145,-0.937,-0.118,-0.366,0,0,240.329
136250,152409,38140,0.148,-0.937,-0.121,-0.366,0,0,240.333
136250,152338,14139,0.143,-0.94,-0.117,-1.159,-0.061,0.061,240.339
136239,152409,38140,0.143,-0.943,-0.116,-1.159,-0.061,0.061,240.343
136239,152344,14168,0.148,-0.947,-0.12,-1.159,-0.183,0.305,240.349
136234,152409,38140,0.147,-0.949,-0.122,-1.159,-0.183,0.305,240.352
136234,152320,14156,0.148,-0.95,-0.123,-1.159,0,0.305,240.359
136242,152409,38140,0.143,-0.955,-0.131,-1.159,0,0.305,240.362
136242,152337,14156,0.143,-0.955,-0.127,0.244,0.061,0.427,240.368
136230,152409,38140,0.15,-0.939,-0.127,0.244,0.061,0.427,240.372
136230,152332,14147,0.146,-0.932,-0.122,0.732,0.183,0.427,240.378
136236,152409,38140,0.142,-0.936,-0.125,0.732,0.183,0.427,240.382
136236,152342,14137,0.146,-0.935,-0.124,0.976,0.183,0.671,240.388
136206,152409,38140,0.144,-0.934,-0.123,0.976,0.183,0.671,240.392
136206,152338,14147,0.142,-0.938,-0.122,-0.549,-0.183,0.244,240.398
136218,152409,38140,0.146,-0.943,-0.127,-0.549,-0.183,0.244,240.402
136218,152337,14144,0.147,-0.947,-0.125,-1.646,-0.305,0.305,240.408
136222,152153,38140,0.147,-0.946,-0.131,-1.646,-0.305,0.305,240.412
136222,152308,14159,0.151,-0.943,-0.127,-1.098,-0.244,0.244,240.418
136219,152409,38140,0.152,-0.943,-0.123,-1.098,-0.244,0.244,240.422
136219,152329,14148,0.151,-0.942,-0.122,-0.549,0,0.183,240.428
136225,152409,38140,0.154,-0.941,-0.121,-0.549,0,0.183,240.432
136225,152351,14157,0.149,-0.94,-0.116,0.61,0.183,0.427,240.438
136231,152153,38140,0.15,-0.939,-0.113,0.61,0.183,0.427,240.441
136231,152315,14154,0.151,-0.935,-0.117,0.732,0.244,0.366,240.448
136203,152153,38140,0.149,-0.938,-0.114,0.732,0.244,0.366,240.451
136203,152281,14157,0.15,-0.94,-0.116,-0.183,0.122,0.427,240.458
136196,152409,38140,0.151,-0.941,-0.132,-0.183,0.122,0.427,240.461
136196,152347,14144,0.151,-0.943,-0.136,-0.976,0.061,0.549,240.467
136210,152153,38140,0.149,-0.947,-0.125,-0.976,0.061,0.549,240.471
136210,152309,14153,0.148,-0.948,-0.12,-0.671,0.183,0.488,240.477
136222,152409,38140,0.15,-0.943,-0.131,-0.671,0.183,0.488,240.481
136222,152331,14148,0.149,-0.938,-0.14,-0.671,0.183,0.427,240.487
136219,152153,38140,0.146,-0.944,-0.13,-0.671,0.183,0.427,240.491
136219,152311,14150,0.148,-0.946,-0.125,-0.305,0.244,0.549,240.497
136181,152153,38140,0.148,-0.94,-0.122,-0.305,0.244,0.549,240.501
136181,152286,14151,0.147,-0.942,-0.116,-0.61,0.305,0.366,240.507
136198,152153,38140,0.144,-0.942,-0.117,-0.61,0.305,0.366,240.511
136198,152291,14151,0.146,-0.943,-0.122,-0.549,0.183,0.366,240.517
136185,152153,38140,0.148,-0.941,-0.125,-0.549,0.183,0.366,240.521
136185,152291,14142,0.149,-0.941,-0.128,-0.732,0.122,0.305,240.527
136188,152153,38140,0.151,-0.94,-0.124,-0.732,0.122,0.305,240.531
136188,152295,14136,0.151,-0.942,-0.118,-0.366,0.122,0.122,240.537
136181,152153,38140,0.151,-0.939,-0.129,-0.366,0.122,0.122,240.54
136181,152303,14157,0.149,-0.938,-0.137,-0.366,0.183,0.061,240.547
136175,152153,38140,0.149,-0.943,-0.134,-0.366,0.183,0.061,240.55
136175,152295,14129,0.147,-0.945,-0.127,0.305,0.427,0.122,240.557
136172,152153,38140,0.147,-0.94,-0.121,0.305,0.427,0.122,240.56
136172,152276,14147,0.147,-0.938,-0.121,-0.061,0.427,0,240.566
136174,152153,38140,0.145,-0.936,-0.118,-0.061,0.427,0,240.57
136174,152266,14149,0.146,-0.938,-0.122,-0.061,0.183,0.427,240.576
136152,152153,38140,0.144,-0.94,-0.122,-0.061,0.183,0.427,240.58
136152,152290,14143,0.146,-0.939,-0.12,-0.427,0.183,0.305,240.586
136165,152153,38140,0.146,-0.939,-0.121,-0.427,0.183,0.305,240.59
136165,152263,14145,0.143,-0.939,-0.12,-0.854,0.122,0.61,240.596
136137,152153,38140,0.142,-0.941,-0.124,-0.854,0.122,0.61,240.6
136137,152261,14152,0.146,-0.943,-0.127,-0.366,0,0.793,240.606
136165,152153,38140,0.147,-0.943,-0.13,-0.366,0,0.793,240.61
136165,152284,14134,0.148,-0.946,-0.129,-0.305,-0.061,0.488,240.616
136185,152153,38140,0.142,-0.953,-0.119,-0.305,-0.061,0.488,240.62
136185,152275,14135,0.144,-0.953,-0.112,-0.366,0,0.488,240.626
136160,152153,38140,0.149,-0.946,-0.118,-0.366,0,0.488,240.63
136160,152265,14152,0.147,-0.947,-0.123,-0.61,0.122,0.427,240.636
136181,152153,38140,0.148,-0.952,-0.125,-0.61,0.122,0.427,240.639
136181,152278,14146,0.147,-0.95,-0.129,0.305,0.244,0.305,240.646
136171,152153,38140,0.147,-0.942,-0.126,0.305,0.244,0.305,240.649
136171,152289,14141,0.147,-0.942,-0.124,0.793,0.183,0.183,240.656
136173,152153,38140,0.147,-0.942,-0.124,0.793,0.183,0.183,240.659
136173,152277,14148,0.143,-0.927,-0.131,0.732,0.061,0.366,240.665
136156,152153,38140,0.143,-0.927,-0.131,0.732,0.061,0.366,240.669
136156,152309,14141,0.145,-0.935,-0.128,0.061,0.061,0.183,240.675
136170,152153,38140,0.145,-0.935,-0.128,0.061,0.061,0.183,240.679
136170,152288,14145,0.148,-0.933,-0.13,-1.037,0,0.183,240.685
136168,152153,38140,0.148,-0.933,-0.13,-1.037,0,0.183,240.689
136168,152272,14143,0.145,-0.945,-0.126,-0.976,-0.061,0.671,240.695
136159,152153,38140,0.145,-0.945,-0.126,-0.976,-0.061,0.671,240.699
136159,152279,14152,0.151,-0.948,-0.135,-0.305,0.244,0.671,240.705
136157,152153,38140,0.151,-0.948,-0.135,-0.305,0.244,0.671,240.709
136157,152275,14134,0.146,-0.952,-0.121,-0.061,0.549,0.61,240.715
136138,152153,38140,0.146,-0.952,-0.121,-0.061,0.549,0.61,240.719
136138,152262,14151,0.146,-0.949,-0.128,-0.061,0.549,0.488,240.725
136160,152153,38140,0.146,-0.949,-0.128,-0.061,0.549,0.488,240.729
136160,152262,14127,0.147,-0.947,-0.122,-0.183,0.427,0.122,240.735
136144,152153,38140,0.147,-0.947,-0.122,-0.183,0.427,0.122,240.738
136144,152273,14140,0.152,-0.948,-0.122,0.061,0.366,-0.122,240.745
136141,152153,38140,0.152,-0.948,-0.122,0.061,0.366,-0.122,240.748
136141,152283,14130,0.153,-0.937,-0.11,0.549,0.427,-0.122,240.755
136158,152153,38140,0.153,-0.937,-0.11,0.549,0.427,-0.122,240.758
136158,152283,14128,0.153,-0.932,-0.123,0.854,0.61,0.061,240.764
136161,152153,38140,0.153,-0.932,-0.123,0.854,0.61,0.061,240.768
136161,152265,14133,0.15,-0.931,-0.122,0.732,0.549,0.488,240.774
136140,152153,38140,0.15,-0.931,-0.122,0.732,0.549,0.488,240.778
136140,152270,14138,0.15,-0.93,-0.139,0.122,0.61,0.732,240.784
136119,152153,38140,0.15,-0.93,-0.139,0.122,0.61,0.732,240.788
136119,152245,14130,0.139,-0.942,-0.126,-0.366,0.793,0.854,240.794
136128,152153,38140,0.139,-0.942,-0.126,-0.366,0.793,0.854,240.798
136128,152230,14148,0.14,-0.945,-0.136,-0.366,0.793,0.854,240.804
136111,152153,38140,0.138,-0.95,-0.13,-0.854,0.854,0.793,240.808
136111,152229,14140,0.137,-0.953,-0.12,-0.854,0.854,0.793,240.814
136107,152153,38140,0.142,-0.95,-0.12,-0.305,0.732,0.793,240.818
136107,152244,14131,0.145,-0.95,-0.12,-0.305,0.732,0.793,240.824
136123,152153,38140,0.145,-0.948,-0.117,0,0.488,0.488,240.828
136123,152242,14149,0.146,-0.945,-0.114,0,0.488,0.488,240.834
136132,152153,38140,0.146,-0.942,-0.115,0.549,0.305,0.427,240.837
136132,152263,14154,0.148,-0.938,-0.117,0.549,0.305,0.427,240.844
136130,152153,38140,0.15,-0.935,-0.127,-0.183,0.183,0.305,240.847
136130,152257,14145,0.148,-0.935,-0.134,-0.183,0.183,0.305,240.854
136152,152153,38140,0.149,-0.942,-0.131,-0.854,0.122,0.183,240.857
136152,152288,14134,0.151,-0.945,-0.135,-0.854,0.122,0.183,240.863
136138,152153,38140,0.151,-0.946,-0.133,-1.28,0.061,-0.305,240.867
136138,152279,14159,0.146,-0.944,-0.124,-1.28,0.061,-0.305,240.873
136151,152153,38140,0.148,-0.941,-0.123,-1.463,0.122,-0.305,240.877
136151,152248,14149,0.148,-0.943,-0.123,-1.463,0.122,-0.305,240.883
136160,152153,38140,0.149,-0.945,-0.127,-0.488,0.183,0.061,240.887
136160,152282,14155,0.149,-0.949,-0.123,-0.488,0.183,0.061,240.893
136155,152153,38140,0.147,-0.948,-0.118,0.244,0.244,-0.122,240.897
136155,152300,14163,0.15,-0.942,-0.122,0.244,0.244,-0.122,240.903
136164,152153,38140,0.15,-0.937,-0.134,0.427,0.549,0.183,240.907
136164,152278,14146,0.146,-0.938,-0.132,0.427,0.549,0.183,240.913
136166,152153,38140,0.145,-0.942,-0.121,1.159,0.854,0.366,240.917
136166,152298,14152,0.146,-0.934,-0.12,1.159,0.854,0.366,240.923
136179,152153,38140,0.147,-0.927,-0.121,0.549,0.732,0,240.927
136179,152289,14142,0.143,-0.928,-0.12,0.549,0.732,0,240.933
136163,152153,38140,0.145,-0.935,-0.115,-0.61,0.305,0.488,240.936
136163,152275,14154,0.148,-0.941,-0.114,-0.61,0.305,0.488,240.943
136179,152153,38140,0.147,-0.947,-0.12,-0.793,0.183,0.61,240.946
136179,152296,14162,0.146,-0.946,-0.126,-0.793,0.183,0.61,240.952
136174,152153,38140,0.148,-0.946,-0.129,-0.305,0.244,0.732,240.956
136174,152302,14147,0.147,-0.942,-0.13,-0.305,0.244,0.732,240.962
136157,152153,38140,0.146,-0.941,-0.13,0.915,0.488,0.915,240.966
136157,152307,14160,0.147,-0.938,-0.136,0.915,0.488,0.915,240.972
136180,152153,38140,0.142,-0.939,-0.137,0.976,0.671,0.671,240.976
136180,152287,14143,0.143,-0.942,-0.135,0.976,0.671,0.671,240.982
136174,152153,38140,0.148,-0.946,-0.132,-0.061,0.549,0.61,240.986
136174,152318,14158,0.145,-0.948,-0.128,-0.061,0.549,0.61,240.992
136186,152409,38140,0.146,-0.949,-0.123,-0.976,0.305,0.366,240.996
136186,152328,14166,0.148,-0.955,-0.122,-0.976,0.305,0.366,241.002
136189,152409,38140,0.144,-0.959,-0.116,-0.976,0.244,-0.061,241.006
136189,152328,14156,0.146,-0.954,-0.12,-0.976,0.244,-0.061,241.012
136185,152153,38140,0.152,-0.95,-0.123,-0.732,0.488,-0.366,241.016
136185,152315,14169,0.154,-0.944,-0.123,-0.732,0.488,-0.366,241.022
136170,152153,38140,0.156,-0.94,-0.12,0.061,0.549,-0.305,241.025
136170,152308,14168,0.151,-0.937,-0.12,0.061,0.549,-0.305,241.032
136162,152153,38140,0.152,-0.935,-0.122,0.671,0.671,-0.244,241.035
136162,152287,14159,0.148,-0.929,-0.117,0.671,0.671,-0.244,241.042
136160,152153,38140,0.144,-0.927,-0.115,0.427,0.61,-0.061,241.045
136160,152303,14147,0.143,-0.931,-0.115,0.427,0.61,-0.061,241.051
136177,152153,38140,0.145,-0.931,-0.112,-0.122,0.488,0.122,241.055
136177,152308,14161,0.145,-0.932,-0.118,-0.122,0.488,0.122,241.061
136158,152153,38140,0.145,-0.934,-0.127,-0.854,0.061,0.305,241.065
136158,152315,14176,0.144,-0.934,-0.132,-0.854,0.061,0.305,241.071
136159,152153,38140,0.147,-0.939,-0.131,-0.366,0.183,0.732,241.075
136159,152281,14144,0.146,-0.943,-0.131,-0.366,0.183,0.732,241.081
136145,152153,38140,0.139,-0.94,-0.124,0.305,0.61,0.854,241.085
136145,152248,14167,0.139,-0.937,-0.126,0.305,0.61,0.854,241.091
136136,152153,38140,0.141,-0.943,-0.125,0,0.732,0.915,241.095
136136,152287,14155,0.144,-0.945,-0.122,0,0.732,0.915,241.101
136125,152153,38140,0.148,-0.947,-0.12,-0.183,0.488,1.037,241.105
136125,152283,14159,0.149,-0.947,-0.126,-0.183,0.488,1.037,241.111
136121,152153,38140,0.152,-0.95,-0.127,-0.183,0.305,0.732,241.115
136121,152273,14162,0.15,-0.949,-0.12,-0.183,0.305,0.732,241.121
136133,152153,38140,0.151,-0.947,-0.116,0.366,0.488,0.61,241.124
136133,152288,14160,0.152,-0.943,-0.117,0.366,0.488,0.61,241.131
136173,152153,38140,0.151,-0.939,-0.122,0.671,0.671,0.549,241.134
136173,152291,14157,0.148,-0.939,-0.123,0.671,0.671,0.549,241.141
136178,152153,38140,0.148,-0.942,-0.121,0.732,0.671,0.488,241.144
136178,152276,14168,0.15,-0.936,-0.126,0.732,0.671,0.488,241.15
136156,152153,38140,0.152,-0.939,-0.13,-0.244,0.366,0.305,241.154
136156,152297,14165,0.147,-0.946,-0.126,-0.244,0.366,0.305,241.16
136186,152153,38140,0.146,-0.951,-0.124,-0.488,0.305,0.183,241.164
136186,152302,14166,0.148,-0.948,-0.129,-0.488,0.305,0.183,241.17
136158,152153,38140,0.148,-0.942,-0.133,-0.793,0.61,0,241.174
136158,152282,14159,0.148,-0.946,-0.127,-0.793,0.61,0,241.18
136178,152153,38140,0.148,-0.948,-0.127,0.061,0.488,0,241.184
136178,152315,14157,0.148,-0.945,-0.123,0.061,0.488,0,241.19
136176,152153,38140,0.15,-0.937,-0.118,0.366,0.427,0.061,241.194
136176,152267,14156,0.147,-0.933,-0.118,0.366,0.427,0.061,241.2
136154,152153,38140,0.146,-0.933,-0.11,0.427,0.366,0.488,241.204
136154,152283,14161,0.148,-0.934,-0.112,0.427,0.366,0.488,241.21
136145,152153,38140,0.145,-0.932,-0.126,-0.061,0.122,0.488,241.214
136145,152276,14145,0.146,-0.936,-0.131,-0.061,0.122,0.488,241.22
136131,152153,38140,0.145,-0.941,-0.13,-0.61,0.061,0.61,241.223
136131,152269,14153,0.144,-0.939,-0.12,-0.61,0.061,0.61,241.23
136162,152153,38140,0.144,-0.939,-0.12,-0.61,0.061,0.61,241.233
136162,152288,14158,0.143,-0.938,-0.128,-0.366,0,0.854,241.24
136170,152153,38140,0.143,-0.938,-0.128,-0.366,0,0.854,241.243
136170,152304,14174,0.142,-0.95,-0.123,-0.366,0.061,0.976,241.249
136165,152153,38140,0.142,-0.95,-0.123,-0.366,0.061,0.976,241.253
136165,152265,14175,0.145,-0.945,-0.134,-0.244,0.305,0.732,241.259
136160,152153,38140,0.145,-0.945,-0.134,-0.244,0.305,0.732,241.263
136160,152280,14170,0.144,-0.948,-0.126,-0.366,0.549,0.671,241.269
136147,152153,38140,0.144,-0.948,-0.126,-0.366,0.549,0.671,241.273
136147,152301,14163,0.145,-0.952,-0.125,0.122,0.793,0.671,241.279
136155,152153,38140,0.145,-0.952,-0.125,0.122,0.793,0.671,241.283
136155,152276,14165,0.147,-0.947,-0.122,-0.183,0.854,0.305,241.289
136163,152153,38140,0.147,-0.947,-0.122,-0.183,0.854,0.305,241.293
136163,152280,14160,0.149,-0.95,-0.124,-0.305,0.915,0.427,241.299
136129,152153,38140,0.149,-0.95,-0.124,-0.305,0.915,0.427,241.303
136129,152270,14154,0.147,-0.944,-0.11,0.305,0.915,0.183,241.309
136149,152153,38140,0.147,-0.944,-0.11,0.305,0.915,0.183,241.313
136149,152274,14151,0.148,-0.929,-0.118,0.671,0.793,0.305,241.319
136124,152153,38140,0.148,-0.929,-0.118,0.671,0.793,0.305,241.322
136124,152255,14162,0.148,-0.932,-0.115,0.61,0.549,0.671,241.329
136123,152153,38140,0.148,-0.932,-0.115,0.61,0.549,0.671,241.332
136123,152256,14151,0.149,-0.927,-0.131,0.427,0.183,0.305,241.339
136117,152153,38140,0.149,-0.927,-0.131,0.427,0.183,0.305,241.342
136117,152261,14156,0.146,-0.937,-0.122,-0.305,0.244,0.61,241.348
136146,152153,38140,0.146,-0.937,-0.122,-0.305,0.244,0.61,241.352
136146,152280,14159,0.144,-0.942,-0.132,-0.61,0.61,0.732,241.358
136148,152153,38140,0.144,-0.942,-0.132,-0.61,0.61,0.732,241.362
136148,152279,14165,0.145,-0.958,-0.122,-1.463,0.732,0.549,241.368
136171,152153,38140,0.145,-0.958,-0.122,-1.463,0.732,0.549,241.372
136171,152309,14160,0.146,-0.959,-0.117,-1.524,0.61,0.549,241.378
136175,152153,38140,0.143,-0.958,-0.119,-1.524,0.61,0.549,241.382
136175,152306,14174,0.142,-0.955,-0.123,-1.402,0.915,0.427,241.388
136181,152153,38140,0.141,-0.957,-0.123,-1.402,0.915,0.427,241.392
136181,152303,14156,0.142,-0.95,-0.12,-0.305,1.28,0.122,241.398
136146,152153,38140,0.145,-0.943,-0.123,-0.305,1.28,0.122,241.402
136146,152292,14166,0.151,-0.936,-0.13,-0.244,1.159,-0.061,241.408
136154,152153,38140,0.146,-0.938,-0.121,-0.244,1.159,-0.061,241.412
136154,152293,14159,0.149,-0.945,-0.114,0.244,0.854,0.122,241.418
136158,152153,38140,0.15,-0.946,-0.119,0.244,0.854,0.122,241.421
136158,152315,14164,0.146,-0.942,-0.12,-0.549,0.915,-0.244,241.428
136186,152153,38140,0.148,-0.94,-0.135,-0.549,0.915,-0.244,241.431
136186,152313,14151,0.15,-0.943,-0.134,-0.915,0.976,0.244,241.437
136195,152153,38140,0.148,-0.948,-0.132,-0.915,0.976,0.244,241.441
136195,152316,14176,0.148,-0.946,-0.123,0.854,0.732,0.183,241.447
136183,152409,38140,0.148,-0.936,-0.118,0.854,0.732,0.183,241.451
136183,152337,14175,0.145,-0.931,-0.13,0.854,0.732,0,241.457
136188,152409,38140,0.144,-0.937,-0.127,0.854,0.732,0,241.461
136188,152332,14167,0.149,-0.941,-0.113,0.549,0.488,0.244,241.467
136194,152153,38140,0.15,-0.937,-0.109,0.549,0.488,0.244,241.471
136194,152319,14175,0.15,-0.939,-0.115,-0.488,0.122,-0.122,241.477
136199,152409,38140,0.15,-0.94,-0.119,-0.488,0.122,-0.122,241.481
136199,152352,14166,0.15,-0.942,-0.119,-0.549,0.183,0.183,241.487
136195,152409,38140,0.148,-0.945,-0.119,-0.549,0.183,0.183,241.491
136195,152331,14172,0.151,-0.946,-0.118,0.427,0.244,0.305,241.497
136203,152409,38140,0.147,-0.945,-0.122,0.427,0.244,0.305,241.501
136203,152326,14188,0.144,-0.936,-0.132,0.61,0.366,0.244,241.507
136179,152153,38140,0.144,-0.936,-0.124,0.61,0.366,0.244,241.51
136179,152303,14167,0.145,-0.936,-0.122,0.061,0.366,0.366,241.517
136183,152153,38140,0.145,-0.938,-0.127,0.061,0.366,0.366,241.52
136183,152317,14168,0.144,-0.94,-0.128,-0.183,0.183,0.244,241.527
136204,152409,38140,0.141,-0.94,-0.128,-0.183,0.183,0.244,241.53
136204,152338,14176,0.139,-0.937,-0.127,-0.305,0.366,0.366,241.536
136213,152409,38140,0.144,-0.934,-0.123,-0.305,0.366,0.366,241.54
136213,152340,14182,0.145,-0.936,-0.117,0.061,0.305,0.732,241.546
136214,152409,38140,0.147,-0.936,-0.126,0.061,0.305,0.732,241.55
136214,152336,14170,0.147,-0.94,-0.126,-0.122,0.183,0.793,241.556
136204,152409,38140,0.144,-0.944,-0.124,-0.122,0.183,0.793,241.56
136204,152352,14181,0.144,-0.95,-0.125,-0.366,0.305,0.793,241.566
136202,152409,38140,0.143,-0.948,-0.125,-0.366,0.305,0.793,241.57
136202,152358,14178,0.143,-0.949,-0.123,-0.488,0.305,0.732,241.576
136220,152409,38140,0.145,-0.948,-0.125,-0.488,0.305,0.732,241.58
136220,152331,14179,0.146,-0.955,-0.128,-0.366,0.244,0.305,241.586
136209,152409,38140,0.146,-0.957,-0.123,-0.366,0.244,0.305,241.59
136209,152355,14173,0.152,-0.951,-0.119,-0.061,0.183,-0.122,241.596
136179,152409,38140,0.151,-0.948,-0.122,-0.061,0.183,-0.122,241.6
136179,152320,14176,0.152,-0.948,-0.115,-0.244,0.183,-0.244,241.606
136214,152409,38140,0.151,-0.945,-0.114,-0.244,0.183,-0.244,241.609
136214,152331,14157,0.154,-0.94,-0.12,0.366,0.244,-0.061,241.616
136203,152409,38140,0.155,-0.936,-0.126,0.366,0.244,-0.061,241.619
136203,152330,14180,0.153,-0.935,-0.122,0.732,0.366,0.061,241.626
136224,152409,38140,0.149,-0.932,-0.125,0.732,0.366,0.061,241.629
136224,152331,14178,0.15,-0.925,-0.126,0.915,0.366,0.366,241.635
136222,152409,38140,0.149,-0.923,-0.126,0.915,0.366,0.366,241.639
136222,152340,14181,0.145,-0.927,-0.122,0.427,0.366,0.671,241.645
136239,152409,38140,0.142,-0.936,-0.116,0.427,0.366,0.671,241.649
136239,152370,14164,0.146,-0.936,-0.12,0.061,0.244,0.732,241.655
136238,152409,38140,0.147,-0.939,-0.12,0.061,0.244,0.732,241.659
136238,152366,14181,0.146,-0.948,-0.121,-1.22,0.183,0.732,241.665
136260,152409,38140,0.146,-0.953,-0.123,-1.22,0.183,0.732,241.669
136260,152393,14177,0.145,-0.955,-0.124,-1.524,0.305,0.732,241.675
136267,152409,38140,0.146,-0.959,-0.124,-1.524,0.305,0.732,241.679
136267,152395,14187,0.147,-0.953,-0.129,-0.732,0.549,0.61,241.685
136282,152409,38140,0.146,-0.944,-0.125,-0.732,0.549,0.61,241.689
136282,152400,14202,0.145,-0.946,-0.123,0.793,0.793,0.732,241.695
136280,152409,38140,0.147,-0.937,-0.119,0.793,0.793,0.732,241.699
136280,152371,14189,0.145,-0.929,-0.114,0.915,0.549,0.427,241.705
136251,152409,38140,0.143,-0.931,-0.122,0.915,0.549,0.427,241.708
136251,152398,14184,0.148,-0.936,-0.131,0.061,0.366,0.305,241.715
136262,152409,38140,0.147,-0.939,-0.129,0.061,0.366,0.305,241.718
136262,152358,14195,0.147,-0.942,-0.126,-0.244,0.366,0.244,241.725
136227,152409,38140,0.15,-0.943,-0.125,-0.244,0.366,0.244,241.728
136227,152353,14195,0.149,-0.942,-0.124,-0.549,0.549,0.305,241.734
136228,152409,38140,0.145,-0.945,-0.126,-0.549,0.549,0.305,241.738
136228,152334,14185,0.147,-0.947,-0.12,-0.732,0.488,0.366,241.744
136196,152153,38140,0.147,-0.953,-0.116,-0.732,0.488,0.366,241.748
136196,152316,14178,0.146,-0.951,-0.12,-0.488,0.427,0.366,241.754
136151,152153,38140,0.147,-0.947,-0.12,-0.488,0.427,0.366,241.758
136151,152319,14171,0.151,-0.949,-0.116,-0.122,0.366,0.366,241.764
136157,152409,38140,0.15,-0.944,-0.115,-0.122,0.366,0.366,241.768
136157,152321,14171,0.149,-0.944,-0.116,0.366,0.244,0.305,241.774
136159,152153,38140,0.147,-0.939,-0.117,0.366,0.244,0.305,241.778
136159,152303,14165,0.147,-0.936,-0.119,0.183,0.061,0.183,241.784
136157,152153,38140,0.147,-0.937,-0.125,0.183,0.061,0.183,241.788
136157,152270,14177,0.147,-0.934,-0.135,0,0.122,0.488,241.794
136141,152153,38140,0.146,-0.938,-0.132,0,0.122,0.488,241.798
136141,152296,14182,0.145,-0.94,-0.13,-0.183,0.061,0.427,241.804
136138,152153,38140,0.146,-0.938,-0.131,-0.183,0.061,0.427,241.807
136138,152274,14182,0.143,-0.937,-0.132,-0.793,0.183,0.366,241.814
136115,152153,38140,0.143,-0.937,-0.132,-0.793,0.183,0.366,241.817
136115,152285,14176,0.141,-0.945,-0.124,-0.427,0.366,0.61,241.824
136120,152153,38140,0.141,-0.945,-0.124,-0.427,0.366,0.61,241.827
136120,152261,14178,0.144,-0.952,-0.123,-0.061,0.427,0.244,241.833
136099,152153,38140,0.144,-0.952,-0.123,-0.061,0.427,0.244,241.837
136099,152272,14170,0.144,-0.943,-0.114,-0.122,0.366,0.61,241.843
136130,152153,38140,0.144,-0.943,-0.114,-0.122,0.366,0.61,241.847
136130,152267,14167,0.148,-0.943,-0.111,0.671,0.244,0.671,241.853
136113,152153,38140,0.148,-0.943,-0.111,0.671,0.244,0.671,241.857
136113,152284,14174,0.149,-0.936,-0.128,0.366,0.305,0.366,241.863
136135,152153,38140,0.149,-0.936,-0.128,0.366,0.305,0.366,241.867
136135,152299,14170,0.146,-0.932,-0.123,0.427,0.305,0.732,241.873
136123,152153,38140,0.146,-0.932,-0.123,0.427,0.305,0.732,241.877
136123,152257,14173,0.145,-0.934,-0.139,-0.244,0.305,0.61,241.883
136120,152153,38140,0.145,-0.934,-0.139,-0.244,0.305,0.61,241.887
136120,152290,14164,0.144,-0.947,-0.131,-0.488,0.427,0.366,241.893
136106,152153,38140,0.144,-0.947,-0.131,-0.488,0.427,0.366,241.897
136106,152268,14155,0.142,-0.95,-0.126,-0.61,0.549,0.427,241.903
136099,152153,38140,0.142,-0.95,-0.126,-0.61,0.549,0.427,241.906
136099,152258,14163,0.145,-0.95,-0.115,0.366,0.61,0.427,241.913
136090,152153,38140,0.145,-0.95,-0.115,0.366,0.61,0.427,241.916
136090,152289,14173,0.151,-0.944,-0.112,0.488,0.488,0.183,241.923
136093,152153,38140,0.151,-0.944,-0.112,0.488,0.488,0.183,241.926
136093,152269,14157,0.153,-0.935,-0.12,-0.122,0.488,0.305,241.932
136084,152153,38140,0.153,-0.935,-0.12,-0.122,0.488,0.305,241.936
136084,152271,14177,0.153,-0.939,-0.122,-0.183,0.671,0.061,241.942
136108,152153,38140,0.153,-0.939,-0.122,-0.183,0.671,0.061,241.946
136108,152283,14159,0.15,-0.94,-0.124,-0.183,0.671,0.061,241.952
136105,152153,38140,0.15,-0.941,-0.119,-0.61,0.671,0.122,241.956
136105,152262,14172,0.151,-0.94,-0.121,-0.61,0.671,0.122,241.962
136110,152153,38140,0.15,-0.946,-0.121,-0.976,0.488,0.366,241.966
136110,152277,14157,0.149,-0.946,-0.122,-0.976,0.488,0.366,241.972
136088,152153,38140,0.151,-0.945,-0.126,-0.122,0.61,0.488,241.976
136088,152256,14162,0.148,-0.943,-0.129,-0.122,0.61,0.488,241.982
136098,152153,38140,0.143,-0.939,-0.127,0.366,0.976,0.549,241.986
136098,152258,14176,0.14,-0.941,-0.127,0.366,0.976,0.549,241.992
136103,152153,38140,0.138,-0.944,-0.119,0.305,0.976,0.671,241.996
136103,152262,14157,0.14,-0.945,-0.12,0.305,0.976,0.671,242.002
136098,152153,38140,0.145,-0.946,-0.123,-0.427,0.488,0.427,242.005
136098,152258,14158,0.145,-0.945,-0.122,-0.427,0.488,0.427,242.012
136086,152153,38140,0.146,-0.949,-0.119,-0.61,0.305,0.366,242.015
136086,152251,14166,0.146,-0.953,-0.118,-0.61,0.305,0.366,242.022
136109,152153,38140,0.147,-0.946,-0.118,0.183,0.488,0.244,242.025
136109,152266,14164,0.145,-0.938,-0.12,0.183,0.488,0.244,242.031
136098,152153,38140,0.146,-0.936,-0.12,0.427,0.488,0.244,242.035
136098,152262,14164,0.146,-0.939,-0.115,0.427,0.488,0.244,242.041
136098,152153,38140,0.147,-0.935,-0.116,0.549,0.366,0.244,242.045
136098,152252,14160,0.147,-0.932,-0.118,0.549,0.366,0.244,242.051
136076,152153,38140,0.145,-0.934,-0.119,-0.244,0.122,0.183,242.055
136076,152264,14153,0.148,-0.941,-0.124,-0.244,0.122,0.183,242.061
136127,152153,38140,0.146,-0.946,-0.132,-0.549,-0.061,0.305,242.065
136127,152270,14149,0.147,-0.95,-0.136,-0.549,-0.061,0.305,242.071
136099,152153,38140,0.146,-0.952,-0.133,-0.122,0.061,0.244,242.075
136099,152246,14174,0.146,-0.946,-0.134,-0.122,0.061,0.244,242.081
136092,152153,38140,0.142,-0.942,-0.13,0.122,0.427,0.366,242.085
136092,152274,14166,0.143,-0.944,-0.12,0.122,0.427,0.366,242.091
136058,152153,38140,0.145,-0.945,-0.114,0.366,0.366,0.366,242.095
136058,152254,14180,0.147,-0.942,-0.117,0.366,0.366,0.366,242.101
136067,152153,38140,0.145,-0.94,-0.116,0,0.366,0.183,242.104
136067,152260,14164,0.147,-0.942,-0.116,0,0.366,0.183,242.111
136093,152153,38140,0.148,-0.947,-0.11,-0.244,0.488,0.427,242.114
136093,152236,14167,0.148,-0.945,-0.111,-0.244,0.488,0.427,242.12
136054,152153,38140,0.148,-0.939,-0.116,-0.183,0.671,0.488,242.124
136054,152240,14182,0.145,-0.935,-0.122,-0.183,0.671,0.488,242.13
136049,152153,38140,0.146,-0.935,-0.128,-0.061,0.549,0.854,242.134
136049,152261,14170,0.15,-0.941,-0.12,-0.061,0.549,0.854,242.14
136073,152153,38140,0.149,-0.943,-0.115,0.366,0.244,0.671,242.144
136073,152236,14167,0.146,-0.939,-0.13,0.366,0.244,0.671,242.15
136100,152153,38140,0.145,-0.938,-0.136,-0.671,0.122,0.549,242.154
136100,152277,14172,0.146,-0.941,-0.139,-0.671,0.122,0.549,242.16
136109,152153,38140,0.149,-0.948,-0.142,-0.854,0.122,0.488,242.164
136109,152279,14173,0.15,-0.955,-0.139,-0.854,0.122,0.488,242.17
136099,152153,38140,0.146,-0.952,-0.131,-0.427,0.366,0.122,242.174
136099,152298,14177,0.145,-0.953,-0.123,-0.427,0.366,0.122,242.18
136110,152153,38140,0.147,-0.944,-0.126,-0.122,0.488,0.061,242.184
136110,152291,14162,0.149,-0.942,-0.123,-0.122,0.488,0.061,242.19
136114,152153,38140,0.149,-0.944,-0.116,0.732,0.427,0.244,242.193
136114,152259,14179,0.153,-0.945,-0.107,0.732,0.427,0.244,242.2
136088,152153,38140,0.156,-0.934,-0.11,0.671,0.549,0.122,242.203
136088,152281,14200,0.155,-0.932,-0.119,0.671,0.549,0.122,242.21
136110,152153,38140,0.155,-0.939,-0.122,-0.061,0.671,0.366,242.213
136110,152292,14184,0.15,-0.944,-0.119,-0.061,0.671,0.366,242.219
136118,152153,38140,0.147,-0.943,-0.115,0.366,0.732,0.427,242.223
136118,152287,14173,0.148,-0.937,-0.12,0.366,0.732,0.427,242.229
136120,152153,38140,0.146,-0.938,-0.118,-0.244,0.61,0.549,242.233
136120,152301,14189,0.146,-0.938,-0.122,-0.244,0.61,0.549,242.239
136144,152153,38140,0.143,-0.936,-0.127,0.366,0.427,0.793,242.243
136144,152305,14173,0.141,-0.94,-0.123,0.366,0.427,0.793,242.249
136128,152153,38140,0.142,-0.939,-0.125,0.366,0.549,0.61,242.253
136128,152297,14183,0.142,-0.936,-0.122,0.366,0.549,0.61,242.259
136131,152153,38140,0.138,-0.935,-0.122,0.061,0.488,0.793,242.263
136131,152309,14180,0.14,-0.939,-0.123,0.061,0.488,0.793,242.269
136143,152153,38140,0.141,-0.944,-0.118,-0.183,0.488,0.732,242.273
136143,152285,14187,0.141,-0.949,-0.114,-0.183,0.488,0.732,242.279
136093,152153,38140,0.145,-0.952,-0.112,-0.366,0.488,0.488,242.283
136093,152270,14183,0.146,-0.954,-0.115,-0.366,0.488,0.488,242.289
136100,152153,38140,0.148,-0.95,-0.124,-0.732,0.488,0.488,242.292
136100,152255,14181,0.151,-0.947,-0.127,-0.732,0.488,0.488,242.299
136091,152153,38140,0.15,-0.95,-0.125,-0.183,0.61,0.549,242.302
136091,152235,14157,0.149,-0.948,-0.12,-0.183,0.61,0.549,242.309
136070,152153,38140,0.147,-0.94,-0.125,0.549,0.793,0.244,242.312
136070,152252,14175,0.146,-0.937,-0.12,0.549,0.793,0.244,242.318
136080,152153,38140,0.147,-0.941,-0.115,0.305,0.61,0.183,242.322
136080,152281,14162,0.147,-0.943,-0.112,0.305,0.61,0.183,242.328
136080,152153,38140,0.148,-0.939,-0.116,-0.671,0.427,0.061,242.332
136080,152273,14176,0.146,-0.94,-0.12,-0.671,0.427,0.061,242.338
136097,152153,38140,0.15,-0.943,-0.122,-0.793,0.183,0.183,242.342
136097,152268,14176,0.151,-0.941,-0.121,-0.793,0.183,0.183,242.348
136106,152153,38140,0.15,-0.941,-0.113,0.122,0.244,0.244,242.352
136106,152287,14189,0.15,-0.935,-0.116,0.122,0.244,0.244,242.358
136116,152153,38140,0.148,-0.932,-0.117,0.305,0.061,0.61,242.362
136116,152258,14181,0.147,-0.932,-0.125,0.305,0.061,0.61,242.368
136085,152153,38140,0.149,-0.939,-0.131,0.732,0,0.854,242.372
136085,152276,14169,0.146,-0.942,-0.13,0.732,0,0.854,242.378
136107,152153,38140,0.142,-0.938,-0.131,0.427,0.305,0.732,242.382
136107,152263,14183,0.142,-0.938,-0.133,0.427,0.305,0.732,242.388
136079,152153,38140,0.142,-0.938,-0.133,0.427,0.305,0.732,242.391
136079,152281,14165,0.144,-0.95,-0.119,-0.793,0.244,0.793,242.398
136066,152153,38140,0.144,-0.95,-0.119,-0.793,0.244,0.793,242.401
136066,152212,14176,0.147,-0.954,-0.113,-1.037,-0.061,0.61,242.408
136052,152153,38140,0.147,-0.954,-0.113,-1.037,-0.061,0.61,242.411
136052,152245,14172,0.146,-0.957,-0.116,-0.915,0.122,0.305,242.417
136069,152153,38140,0.146,-0.957,-0.116,-0.915,0.122,0.305,242.421
136069,152261,14174,0.147,-0.949,-0.127,0.244,0.366,0.488,242.427
136076,152153,38140,0.147,-0.949,-0.127,0.244,0.366,0.488,242.431
136076,152248,14179,0.147,-0.941,-0.118,0.793,0.427,0.427,242.437
136077,152153,38140,0.147,-0.941,-0.118,0.793,0.427,0.427,242.441
136077,152242,14189,0.144,-0.931,-0.12,1.463,0.549,0.366,242.447
136080,152153,38140,0.144,-0.931,-0.12,1.463,0.549,0.366,242.451
136080,152275,14175,0.146,-0.939,-0.119,0,0.61,0.122,242.457
136078,152153,38140,0.146,-0.939,-0.119,0,0.61,0.122,242.461
136078,152250,14169,0.149,-0.939,-0.127,-1.098,0.244,0.183,242.467
136089,152153,38140,0.149,-0.939,-0.127,-1.098,0.244,0.183,242.471
136089,152226,14169,0.146,-0.943,-0.123,-1.341,0,0.244,242.477
136051,152153,38140,0.146,-0.943,-0.123,-1.341,0,0.244,242.481
136051,152244,14160,0.143,-0.945,-0.12,-0.427,0.183,0.305,242.487
136044,152153,38140,0.143,-0.945,-0.12,-0.427,0.183,0.305,242.49
136044,152258,14172,0.142,-0.939,-0.114,0.183,0.366,0.183,242.497
136072,152153,38140,0.142,-0.939,-0.114,0.183,0.366,0.183,242.5
136072,152234,14172,0.151,-0.937,-0.117,0.244,0.183,0.427,242.507
136057,152153,38140,0.151,-0.937,-0.117,0.244,0.183,0.427,242.51
136057,152241,14165,0.153,-0.948,-0.12,-0.488,-0.183,0.488,242.516
136067,152153,38140,0.153,-0.948,-0.12,-0.488,-0.183,0.488,242.52
136067,152264,14175,0.149,-0.953,-0.118,-0.183,0.244,0.488,242.526
136078,152153,38140,0.149,-0.953,-0.118,-0.183,0.244,0.488,242.53
136078,152259,14179,0.149,-0.941,-0.123,0.183,0.732,0.366,242.536
136093,152153,38140,0.143,-0.939,-0.126,0.183,0.732,0.366,242.54
136093,152270,14169,0.143,-0.945,-0.122,0.305,0.61,0.488,242.546
136082,152153,38140,0.147,-0.947,-0.122,0.305,0.61,0.488,242.55
136082,152225,14182,0.145,-0.943,-0.127,0.183,0.488,0.183,242.556
136073,152153,38140,0.145,-0.94,-0.129,0.183,0.488,0.183,242.56
136073,152260,14163,0.142,-0.941,-0.132,0.244,0.61,0.366,242.566
136059,152153,38140,0.141,-0.94,-0.127,0.244,0.61,0.366,242.57
136059,152231,14166,0.142,-0.933,-0.124,0.915,0.793,0.244,242.576
136075,152153,38140,0.141,-0.931,-0.12,0.915,0.793,0.244,242.58
136075,152236,14170,0.142,-0.933,-0.119,0.61,0.732,0.305,242.586
136044,152153,38140,0.142,-0.934,-0.118,0.61,0.732,0.305,242.589
136044,152222,14175,0.146,-0.937,-0.12,-0.305,0.549,0.488,242.596
136043,152153,38140,0.148,-0.946,-0.114,-0.305,0.549,0.488,242.599
136043,152236,14180,0.146,-0.95,-0.108,-0.915,0.549,0.549,242.605
136022,152153,38140,0.147,-0.949,-0.108,-0.915,0.549,0.549,242.609
136022,152212,14168,0.149,-0.947,-0.116,-1.707,0.427,0.915,242.615
136019,152153,38140,0.15,-0.95,-0.12,-1.707,0.427,0.915,242.619
136019,152182,14154,0.153,-0.956,-0.123,-1.037,0.183,0.915,242.625
135990,152153,38140,0.154,-0.953,-0.128,-1.037,0.183,0.915,242.629
135990,152200,14155,0.151,-0.948,-0.128,0,0.366,0.549,242.635
136019,152153,38140,0.149,-0.948,-0.129,0,0.366,0.549,242.639
136019,152210,14169,0.143,-0.948,-0.127,0.732,0.732,0.61,242.645
136055,152153,38140,0.141,-0.944,-0.124,0.732,0.732,0.61,242.649
136055,152216,14185,0.144,-0.941,-0.125,0.793,0.549,0.244,242.655
136048,152153,38140,0.143,-0.937,-0.119,0.793,0.549,0.244,242.659
136048,152239,14174,0.145,-0.936,-0.108,-0.061,0.305,-0.061,242.665
136064,152153,38140,0.146,-0.935,-0.104,-0.061,0.305,-0.061,242.669
136064,152234,14164,0.145,-0.938,-0.116,-0.915,0.305,0.061,242.675
136031,152153,38140,0.145,-0.943,-0.131,-0.915,0.305,0.061,242.679
136031,152231,14190,0.144,-0.948,-0.128,-0.793,0.427,0.305,242.685
136031,152153,38140,0.144,-0.951,-0.123,-0.793,0.427,0.305,242.688
136031,152228,14177,0.144,-0.95,-0.121,0.122,0.671,0.122,242.695
136044,152153,38140,0.141,-0.943,-0.119,0.122,0.671,0.122,242.698
136044,152230,14171,0.144,-0.941,-0.126,0,0.793,0.427,242.704
136043,152153,38140,0.144,-0.944,-0.125,0,0.793,0.427,242.708
136043,152244,14164,0.146,-0.944,-0.118,0.488,0.732,0.488,242.714
136042,152153,38140,0.147,-0.94,-0.12,0.488,0.732,0.488,242.718
136042,152239,14176,0.146,-0.935,-0.117,0.488,0.61,0.305,242.724
136045,152153,38140,0.147,-0.938,-0.115,0.488,0.61,0.305,242.728
136045,152203,14163,0.149,-0.937,-0.12,0.61,0.366,0.61,242.734
136039,152153,38140,0.148,-0.937,-0.129,0.61,0.366,0.61,242.738
136039,152228,14173,0.147,-0.941,-0.13,0.549,0.244,0.488,242.744
136036,152153,38140,0.144,-0.942,-0.122,0.549,0.244,0.488,242.748
136036,152241,14181,0.144,-0.939,-0.118,0.061,0.366,0.427,242.754
136032,152153,38140,0.142,-0.936,-0.121,0.061,0.366,0.427,242.758
136032,152210,14176,0.142,-0.942,-0.119,-0.732,0.305,0.427,242.764
136042,152153,38140,0.141,-0.947,-0.117,-0.732,0.305,0.427,242.768
136042,152245,14175,0.145,-0.95,-0.113,-1.402,0.122,0.244,242.774
136023,152153,38140,0.151,-0.952,-0.117,-1.402,0.122,0.244,242.777
136023,152229,14167,0.153,-0.955,-0.121,-1.829,0.061,0.122,242.784
136045,152153,38140,0.151,-0.961,-0.126,-1.829,0.061,0.122,242.787
136045,152199,14170,0.152,-0.953,-0.125,-0.427,0.488,0.244,242.794
136043,152153,38140,0.151,-0.947,-0.124,-0.427,0.488,0.244,242.797
136043,152222,14178,0.149,-0.942,-0.116,0.854,0.671,0.122,242.803
136043,152153,38140,0.147,-0.94,-0.11,0.854,0.671,0.122,242.807
136043,152252,14175,0.149,-0.937,-0.109,0.976,0.488,0,242.813
136042,152153,38140,0.15,-0.935,-0.118,0.976,0.488,0,242.817
136042,152231,14176,0.15,-0.933,-0.123,0.244,0.183,0.183,242.823
136045,152153,38140,0.149,-0.937,-0.114,0.244,0.183,0.183,242.827
136045,152208,14179,0.152,-0.939,-0.117,0.122,0.061,0.427,242.833
136039,152153,38140,0.152,-0.934,-0.12,0.122,0.061,0.427,242.837
136039,152235,14177,0.147,-0.933,-0.123,0.061,0.183,0.61,242.843
136030,152153,38140,0.142,-0.937,-0.124,0.061,0.183,0.61,242.847
136030,152244,14189,0.139,-0.939,-0.122,0.671,0.488,0.976,242.853
136040,152153,38140,0.142,-0.939,-0.129,0.671,0.488,0.976,242.857
136040,152219,14178,0.143,-0.938,-0.124,0.244,0.61,0.915,242.863
136047,152153,38140,0.141,-0.943,-0.111,0.244,0.61,0.915,242.867
136047,152226,14187,0.142,-0.947,-0.113,-0.61,0.366,0.793,242.873
136071,152153,38140,0.15,-0.948,-0.115,-0.61,0.366,0.793,242.876
136071,152258,14196,0.15,-0.957,-0.119,-1.707,0.122,0.427,242.883
136070,152153,38140,0.148,-0.962,-0.123,-1.707,0.122,0.427,242.886
136070,152254,14181,0.146,-0.96,-0.118,-1.28,0.366,0.244,242.893
136087,152153,38140,0.147,-0.958,-0.116,-1.28,0.366,0.244,242.896
136087,152253,14171,0.147,-0.953,-0.121,-0.732,0.61,-0.122,242.902
136074,152153,38140,0.148,-0.945,-0.122,-0.732,0.61,-0.122,242.906
136074,152228,14190,0.148,-0.944,-0.12,-0.122,0.61,-0.061,242.912
136077,152153,38140,0.15,-0.942,-0.124,-0.122,0.61,-0.061,242.916
136077,152257,14173,0.151,-0.942,-0.121,0.061,0.732,-0.366,242.922
136053,152153,38140,0.147,-0.937,-0.114,0.061,0.732,-0.366,242.926
136053,152231,14171,0.145,-0.935,-0.115,0,0.793,-0.244,242.932
136015,152153,38140,0.145,-0.934,-0.114,0,0.793,-0.244,242.936
136015,152216,14170,0.144,-0.93,-0.122,0,0.61,0.061,242.942
136003,152153,38140,0.149,-0.925,-0.133,0,0.61,0.061,242.946
136003,152203,14174,0.145,-0.932,-0.125,0.183,0.488,0.427,242.952
136033,152153,38140,0.144,-0.933,-0.121,0.183,0.488,0.427,242.956
136033,152229,14163,0.146,-0.93,-0.123,0.305,0.427,0.488,242.962
136045,152153,38140,0.146,-0.93,-0.123,0.305,0.427,0.488,242.966
136045,152218,14173,0.148,-0.937,-0.126,-0.488,0.305,0.732,242.972
136030,152153,38140,0.148,-0.937,-0.126,-0.488,0.305,0.732,242.975
136030,152210,14177,0.142,-0.955,-0.107,-0.488,0.183,0.61,242.982
136009,152153,38140,0.142,-0.955,-0.107,-0.488,0.183,0.61,242.985
136009,152212,14170,0.147,-0.955,-0.102,-1.22,-0.061,0.488,242.992
136012,152153,38140,0.147,-0.955,-0.102,-1.22,-0.061,0.488,242.995
136012,152187,14170,0.147,-0.958,-0.117,-0.915,-0.122,0.732,243.001
136012,152153,38140,0.147,-0.958,-0.117,-0.915,-0.122,0.732,243.005
136012,152197,14166,0.145,-0.952,-0.119,0.061,0.244,0.427,243.011
136009,152153,38140,0.145,-0.952,-0.119,0.061,0.244,0.427,243.015
136009,152206,14178,0.144,-0.936,-0.137,0.244,0.305,0,243.021
136016,152153,38140,0.144,-0.936,-0.137,0.244,0.305,0,243.025
136016,152239,14161,0.143,-0.936,-0.125,0.549,0.305,-0.061,243.031
136036,152153,38140,0.143,-0.936,-0.125,0.549,0.305,-0.061,243.035
136036,152246,14177,0.142,-0.932,-0.118,-0.244,0.366,-0.366,243.041
136051,152153,38140,0.142,-0.932,-0.118,-0.244,0.366,-0.366,243.045
136051,152218,14174,0.145,-0.936,-0.12,-0.915,0.366,0.061,243.051
136070,152153,38140,0.145,-0.936,-0.12,-0.915,0.366,0.061,243.055
136070,152237,14180,0.145,-0.948,-0.111,-0.671,0.305,0.366,243.061
136084,152153,38140,0.145,-0.948,-0.111,-0.671,0.305,0.366,243.065
136084,152282,14178,0.145,-0.944,-0.116,-0.305,0.305,0.427,243.071
136089,152153,38140,0.145,-0.944,-0.116,-0.305,0.305,0.427,243.074
136089,152268,14186,0.144,-0.944,-0.127,0.549,0.305,0.671,243.081
136091,152153,38140,0.144,-0.944,-0.127,0.549,0.305,0.671,243.084
136091,152252,14175,0.144,-0.936,-0.123,0.732,0.366,0.488,243.09
136083,152153,38140,0.144,-0.936,-0.123,0.732,0.366,0.488,243.094
136083,152263,14184,0.147,-0.941,-0.119,-0.488,-0.122,0.366,243.1
136076,152153,38140,0.147,-0.941,-0.119,-0.488,-0.122,0.366,243.104
136076,152248,14181,0.146,-0.946,-0.123,-0.488,-0.122,0.366,243.11
136068,152153,38140,0.151,-0.953,-0.124,-1.28,-0.244,0,243.114
136068,152232,14182,0.149,-0.953,-0.12,-1.28,-0.244,0,243.12
136052,152153,38140,0.148,-0.95,-0.121,-0.854,0.305,-0.305,243.124
136052,152249,14179,0.152,-0.948,-0.12,-0.854,0.305,-0.305,243.13
136058,152153,38140,0.153,-0.944,-0.112,0.305,0.793,0.061,243.134
136058,152264,14176,0.151,-0.937,-0.113,0.305,0.793,0.061,243.14
136073,152153,38140,0.151,-0.932,-0.112,1.037,0.732,0.427,243.144
136073,152254,14171,0.152,-0.933,-0.116,1.037,0.732,0.427,243.15
136049,152153,38140,0.151,-0.932,-0.121,1.037,0.732,0.549,243.154
136049,152262,14176,0.151,-0.935,-0.126,1.037,0.732,0.549,243.16
136048,152153,38140,0.144,-0.934,-0.12,0.061,0.854,0.793,243.164
136048,152248,14174,0.141,-0.934,-0.121,0.061,0.854,0.793,243.17
136083,152153,38140,0.141,-0.936,-0.126,-1.22,0.488,0.732,243.173
136083,152250,14170,0.143,-0.946,-0.122,-1.22,0.488,0.732,243.18
136089,152153,38140,0.143,-0.952,-0.125,-2.012,0.061,0.366,243.183
136089,152286,14177,0.144,-0.955,-0.124,-2.012,0.061,0.366,243.189
136069,152153,38140,0.149,-0.957,-0.129,-1.524,0,0.061,243.193
136069,152250,14192,0.148,-0.957,-0.127,-1.524,0,0.061,243.199
136049,152153,38140,0.148,-0.947,-0.124,-0.305,0.427,0.366,243.203
136049,152243,14185,0.148,-0.941,-0.13,-0.305,0.427,0.366,243.209
136066,152153,38140,0.147,-0.941,-0.12,0.915,0.549,0.427,243.213
136066,152231,14161,0.147,-0.938,-0.113,0.915,0.549,0.427,243.219
136029,152153,38140,0.148,-0.935,-0.113,0.793,0.427,0.305,243.223
136029,152228,14173,0.147,-0.935,-0.119,0.793,0.427,0.305,243.229
136049,152153,38140,0.145,-0.938,-0.122,-0.488,0.427,0.366,243.233
136049,152246,14179,0.15,-0.942,-0.126,-0.488,0.427,0.366,243.239
136071,152153,38140,0.152,-0.949,-0.122,-0.488,0.488,0.549,243.243
136071,152228,14193,0.152,-0.944,-0.122,-0.488,0.488,0.549,243.249
136085,152153,38140,0.151,-0.943,-0.12,-0.122,0.671,0.366,243.253
136085,152277,14176,0.145,-0.943,-0.118,-0.122,0.671,0.366,243.259
136076,152153,38140,0.143,-0.942,-0.119,0,0.61,0.61,243.262
136076,152255,14180,0.147,-0.937,-0.116,0,0.61,0.61,243.269
136069,152153,38140,0.147,-0.939,-0.118,0,0.366,0.366,243.272
136069,152226,14178,0.143,-0.944,-0.115,0,0.366,0.366,243.279
136068,152153,38140,0.145,-0.946,-0.115,-0.061,0.305,0.244,243.282
136068,152248,14175,0.144,-0.945,-0.111,-0.061,0.305,0.244,243.288
136070,152153,38140,0.14,-0.944,-0.112,-0.488,0.305,0.305,243.292
136070,152240,14177,0.144,-0.944,-0.122,-0.488,0.305,0.305,243.298
136084,152153,38140,0.149,-0.94,-0.129,-0.488,0.305,0.549,243.302
136084,152244,14175,0.145,-0.942,-0.126,-0.488,0.305,0.549,243.308
136060,152153,38140,0.142,-0.948,-0.12,0.305,0.427,0.549,243.312
136060,152266,14183,0.145,-0.946,-0.12,0.305,0.427,0.549,243.318
136044,152153,38140,0.145,-0.934,-0.122,0.61,0.305,0.427,243.322
136044,152250,14159,0.146,-0.933,-0.129,0.61,0.305,0.427,243.328
136051,152153,38140,0.144,-0.937,-0.126,-0.061,0.122,0.793,243.332
136051,152221,14182,0.149,-0.943,-0.127,-0.061,0.122,0.793,243.338
136039,152153,38140,0.149,-0.945,-0.117,-0.183,0,0.244,243.342
136039,152237,14161,0.143,-0.943,-0.12,-0.183,0,0.244,243.348
136018,152153,38140,0.138,-0.94,-0.123,-1.159,0,0.122,243.352
136018,152230,14176,0.141,-0.945,-0.115,-1.159,0,0.122,243.358
136023,152153,38140,0.146,-0.948,-0.116,-0.915,-0.183,0.488,243.361
136023,152215,14166,0.151,-0.948,-0.124,-0.915,-0.183,0.488,243.368
136035,152153,38140,0.15,-0.948,-0.121,-0.732,-0.244,-0.122,243.371
136035,152233,14179,0.15,-0.943,-0.118,-0.732,-0.244,-0.122,243.378
136032,152153,38140,0.149,-0.939,-0.122,-0.061,0.183,0.183,243.381
136032,152221,14169,0.146,-0.939,-0.123,-0.061,0.183,0.183,243.387
136048,152153,38140,0.148,-0.939,-0.118,0.183,0.305,0.366,243.391
136048,152240,14173,0.147,-0.941,-0.115,0.183,0.305,0.366,243.397
136045,152153,38140,0.147,-0.939,-0.117,-0.183,0.122,0.427,243.401
136045,152225,14167,0.147,-0.94,-0.121,-0.183,0.122,0.427,243.407
136025,152153,38140,0.146,-0.943,-0.12,-0.183,0,0.549,243.411
136025,152229,14183,0.147,-0.946,-0.118,-0.183,0,0.549,243.417
136015,152153,38140,0.148,-0.944,-0.114,0.61,0.244,0.671,243.421
136015,152247,14167,0.147,-0.937,-0.127,0.61,0.244,0.671,243.427
136024,152153,38140,0.146,-0.938,-0.131,0.488,0.488,0.854,243.431
136024,152224,14172,0.143,-0.941,-0.123,0.488,0.488,0.854,243.437
136018,152153,38140,0.146,-0.944,-0.122,0.366,0.366,0.793,243.441
136018,152234,14174,0.146,-0.942,-0.125,0.366,0.366,0.793,243.447
136046,152153,38140,0.147,-0.944,-0.122,-0.671,0.427,0.366,243.451
136046,152242,14150,0.144,-0.948,-0.123,-0.671,0.427,0.366,243.457
136041,152153,38140,0.142,-0.95,-0.12,-1.037,0.366,0.61,243.46
136041,152239,14185,0.144,-0.955,-0.116,-1.037,0.366,0.61,243.467
136058,152153,38140,0.147,-0.95,-0.116,-0.549,0.244,0.122,243.47
136058,152266,14156,0.149,-0.948,-0.115,-0.549,0.244,0.122,243.477
136048,152153,38140,0.151,-0.943,-0.113,-0.061,0.183,0,243.48
136048,152264,14186,0.151,-0.941,-0.114,-0.061,0.183,0,243.486
136059,152153,38140,0.149,-0.939,-0.119,0.427,0.305,0.122,243.49
136059,152262,14175,0.15,-0.936,-0.121,0.427,0.305,0.122,243.496
136041,152153,38140,0.147,-0.933,-0.124,0.183,0.366,0.122,243.5
136041,152265,14199,0.147,-0.934,-0.122,0.183,0.366,0.122,243.506
136040,152153,38140,0.147,-0.942,-0.117,-0.549,0.244,0.061,243.51
136040,152232,14151,0.146,-0.945,-0.118,-0.549,0.244,0.061,243.516
136035,152153,38140,0.148,-0.942,-0.117,-1.646,0,-0.122,243.52
136035,152215,14178,0.147,-0.944,-0.121,-1.646,0,-0.122,243.526
136025,152153,38140,0.148,-0.947,-0.121,-1.768,-0.061,0,243.53
136025,152197,14157,0.15,-0.948,-0.118,-1.768,-0.061,0,243.536
135988,152153,38140,0.15,-0.948,-0.118,-1.768,-0.061,0,243.54
135988,152193,14187,0.149,-0.947,-0.123,-0.793,0,0.183,243.546
136019,152153,38140,0.149,-0.947,-0.123,-0.793,0,0.183,243.55
136019,152215,14160,0.146,-0.938,-0.128,0.183,0.305,0.488,243.556
135981,152153,38140,0.146,-0.938,-0.128,0.183,0.305,0.488,243.559
135981,152201,14164,0.147,-0.939,-0.118,0.671,0.488,0.732,243.566
135979,152153,38140,0.147,-0.939,-0.118,0.671,0.488,0.732,243.569
135979,152215,14156,0.142,-0.94,-0.124,0.122,0.366,0.488,243.576
135980,152153,38140,0.142,-0.94,-0.124,0.122,0.366,0.488,243.579
135980,152214,14167,0.138,-0.951,-0.119,-0.976,0.366,0.305,243.585
136014,152153,38140,0.138,-0.951,-0.119,-0.976,0.366,0.305,243.589
136014,152202,14152,0.144,-0.949,-0.124,-1.22,0.122,0,243.595
135984,152153,38140,0.144,-0.949,-0.124,-1.22,0.122,0,243.599
135984,152187,14180,0.144,-0.943,-0.116,-0.732,0.183,0.061,243.605
135999,152153,38140,0.144,-0.943,-0.116,-0.732,0.183,0.061,243.609
135999,152219,14167,0.144,-0.936,-0.108,0.366,0.366,0.305,243.615
135994,152153,38140,0.144,-0.936,-0.108,0.366,0.366,0.305,243.619
135994,152226,14172,0.145,-0.939,-0.107,0.549,0.305,0.305,243.625
136001,152153,38140,0.145,-0.939,-0.107,0.549,0.305,0.305,243.629
136001,152214,14156,0.146,-0.934,-0.121,-0.183,0,0.427,243.635
136016,152153,38140,0.146,-0.934,-0.121,-0.183,0,0.427,243.639
136016,152212,14169,0.148,-0.941,-0.128,-1.22,-0.244,0.61,243.645
136002,152153,38140,0.148,-0.941,-0.128,-1.22,-0.244,0.61,243.649
136002,152212,14171,0.146,-0.945,-0.129,-1.037,-0.305,0.549,243.655
136025,152153,38140,0.146,-0.945,-0.129,-1.037,-0.305,0.549,243.658
136025,152217,14171,0.142,-0.941,-0.118,-0.61,-0.061,0.427,243.665
136020,152153,38140,0.142,-0.941,-0.118,-0.61,-0.061,0.427,243.668
136020,152206,14161,0.14,-0.95,-0.125,-0.549,0,0.732,243.674
136007,152153,38140,0.14,-0.95,-0.125,-0.549,0,0.732,243.678
136007,152213,14170,0.145,-0.948,-0.127,-0.488,-0.183,0.488,243.684
135999,152153,38140,0.15,-0.946,-0.132,-0.488,-0.183,0.488,243.688
135999,152227,14152,0.15,-0.945,-0.126,-0.366,-0.122,0.305,243.694
135989,152153,38140,0.148,-0.946,-0.12,-0.366,-0.122,0.305,243.698
135989,152173,14161,0.149,-0.944,-0.117,0.061,0.061,0.183,243.704
135988,152153,38140,0.151,-0.939,-0.121,0.061,0.061,0.183,243.708
135988,152209,14163,0.15,-0.942,-0.118,-0.061,0.244,0,243.714
136001,152153,38140,0.152,-0.94,-0.114,-0.061,0.244,0,243.718
136001,152202,14166,0.151,-0.938,-0.12,-0.305,0.488,0.061,243.724
135999,152153,38140,0.152,-0.936,-0.124,-0.305,0.488,0.061,243.728
135999,152210,14158,0.15,-0.937,-0.124,-0.793,0.366,0.305,243.734
135982,152153,38140,0.149,-0.941,-0.12,-0.793,0.366,0.305,243.738
135982,152186,14172,0.145,-0.937,-0.121,-0.427,0.305,0.427,243.744
135990,152153,38140,0.142,-0.937,-0.133,-0.427,0.305,0.427,243.747
135990,152226,14162,0.141,-0.939,-0.138,-0.61,0.427,0.671,243.754
135994,152153,38140,0.137,-0.944,-0.134,-0.61,0.427,0.671,243.757
135994,152209,14158,0.137,-0.945,-0.121,-0.427,0.488,0.61,243.764
135991,152153,38140,0.139,-0.946,-0.116,-0.427,0.488,0.61,243.767
135991,152193,14178,0.143,-0.943,-0.116,-0.915,0.183,0.305,243.773
136003,152153,38140,0.144,-0.944,-0.117,-0.915,0.183,0.305,243.777
136003,152207,14146,0.148,-0.948,-0.112,-0.976,0,0.366,243.783
135994,152153,38140,0.147,-0.947,-0.109,-0.976,0,0.366,243.787
135994,152217,14166,0.149,-0.945,-0.113,-0.61,0.122,0.305,243.793
135998,152153,38140,0.149,-0.936,-0.12,-0.61,0.122,0.305,243.797
135998,152213,14167,0.148,-0.936,-0.125,-0.488,0.244,0.427,243.803
136021,152153,38140,0.146,-0.939,-0.129,-0.488,0.244,0.427,243.807
136021,152222,14161,0.15,-0.941,-0.133,-0.183,0.183,0.488,243.813
136019,152153,38140,0.148,-0.943,-0.124,-0.183,0.183,0.488,243.817
136019,152220,14157,0.148,-0.943,-0.115,-0.61,0.122,0.244,243.823
136017,152153,38140,0.145,-0.943,-0.119,-0.61,0.122,0.244,243.827
136017,152224,14166,0.146,-0.948,-0.121,-1.768,0.061,0.244,243.833
136017,152153,38140,0.145,-0.95,-0.126,-1.768,0.061,0.244,243.837
136017,152247,14158,0.146,-0.95,-0.133,-1.463,-0.122,0.122,243.843
136007,152153,38140,0.149,-0.953,-0.129,-1.463,-0.122,0.122,243.846
136007,152228,14165,0.152,-0.95,-0.128,0.183,0,-0.122,243.853
136000,152153,38140,0.15,-0.939,-0.127,0.183,0,-0.122,243.856
136000,152251,14175,0.146,-0.932,-0.121,0.732,0.244,-0.061,243.863
136009,152153,38140,0.146,-0.933,-0.124,0.732,0.244,-0.061,243.866
136009,152229,14173,0.146,-0.934,-0.124,0.366,0.305,0.061,243.872
136002,152153,38140,0.144,-0.938,-0.127,0.366,0.305,0.061,243.876
136002,152240,14170,0.147,-0.936,-0.127,-0.854,0.061,0.122,243.882
136005,152153,38140,0.148,-0.94,-0.124,-0.854,0.061,0.122,243.886
136005,152261,14161,0.147,-0.946,-0.117,-0.793,-0.122,0.61,243.892
136011,152153,38140,0.144,-0.941,-0.108,-0.793,-0.122,0.61,243.896
136011,152233,14172,0.143,-0.94,-0.114,-0.61,-0.061,0.671,243.902
136017,152153,38140,0.141,-0.942,-0.127,-0.61,-0.061,0.671,243.906
136017,152230,14161,0.145,-0.948,-0.13,-0.854,0,0.732,243.912
136000,152153,38140,0.145,-0.953,-0.129,-0.854,0,0.732,243.916
136000,152242,14167,0.147,-0.951,-0.129,-0.122,-0.244,0.488,243.922
136012,152153,38140,0.146,-0.944,-0.135,-0.122,-0.244,0.488,243.926
136012,152225,14159,0.143,-0.944,-0.131,-0.244,-0.244,0.427,243.932
135980,152153,38140,0.142,-0.945,-0.125,-0.244,-0.244,0.427,243.936
135980,152210,14180,0.146,-0.943,-0.137,0.061,0,0.305,243.942
136012,152153,38140,0.145,-0.946,-0.132,0.061,0,0.305,243.945
136012,152218,14162,0.142,-0.947,-0.121,-0.366,0.183,0,243.952
135993,152153,38140,0.144,-0.948,-0.112,-0.366,0.183,0,243.955
135993,152226,14167,0.146,-0.944,-0.111,-0.732,0.061,-0.244,243.962
136015,152153,38140,0.148,-0.942,-0.118,-0.732,0.061,-0.244,243.965
136015,152247,14160,0.149,-0.948,-0.12,-1.037,0.061,-0.183,243.971
136000,152153,38140,0.152,-0.945,-0.124,-1.037,0.061,-0.183,243.975
136000,152222,14167,0.154,-0.943,-0.125,-0.183,0.305,-0.244,243.981
135984,152153,38140,0.151,-0.941,-0.119,-0.183,0.305,-0.244,243.985
135984,152217,14162,0.15,-0.938,-0.112,0.61,0.366,-0.122,243.991
136020,152153,38140,0.15,-0.929,-0.115,0.61,0.366,-0.122,243.995
136020,152235,14176,0.148,-0.926,-0.115,0.488,0.122,0.427,244.001
136015,152153,38140,0.148,-0.925,-0.118,0.488,0.122,0.427,244.005
136015,152240,14177,0.15,-0.925,-0.13,-0.183,-0.183,0.793,244.011
136008,152153,38140,0.149,-0.93,-0.138,-0.183,-0.183,0.793,244.015
136008,152213,14168,0.143,-0.934,-0.133,-0.976,-0.061,0.915,244.021
136018,152153,38140,0.14,-0.935,-0.13,-0.976,-0.061,0.915,244.025
136018,152244,14166,0.138,-0.938,-0.135,-1.28,-0.061,0.915,244.031
136011,152153,38140,0.136,-0.939,-0.136,-1.28,-0.061,0.915,244.035
136011,152259,14165,0.14,-0.943,-0.131,-1.402,-0.061,0.793,244.041
136027,152153,38140,0.145,-0.951,-0.128,-1.402,-0.061,0.793,244.044
136027,152231,14181,0.144,-0.956,-0.121,-1.22,0,0.732,244.051
135971,152153,38140,0.143,-0.957,-0.115,-1.22,0,0.732,244.054
135971,152224,14178,0.145,-0.954,-0.116,-1.28,0.183,0.549,244.061
135991,152153,38140,0.148,-0.958,-0.124,-1.28,0.183,0.549,244.064
135991,152185,14151,0.15,-0.958,-0.123,-0.732,0.305,0.244,244.07
135982,152153,38140,0.151,-0.957,-0.117,-0.732,0.305,0.244,244.074
135982,152204,14179,0.148,-0.951,-0.114,0.061,0.366,0,244.08
135973,152153,38140,0.149,-0.942,-0.118,0.061,0.366,0,244.084
135973,152227,14180,0.148,-0.936,-0.129,-0.183,0.305,0.122,244.09
136003,152153,38140,0.153,-0.936,-0.136,-0.183,0.305,0.122,244.094
136003,152221,14155,0.155,-0.94,-0.133,0.244,0.244,0,244.1
135978,152153,38140,0.151,-0.939,-0.13,0.244,0.244,0,244.104
135978,152205,14161,0.149,-0.933,-0.132,0.366,0.244,-0.366,244.11
135990,152153,38140,0.149,-0.933,-0.132,0.366,0.244,-0.366,244.114
135990,152222,14179,0.149,-0.934,-0.133,-0.183,0.427,0.061,244.12
136001,152153,38140,0.149,-0.934,-0.133,-0.183,0.427,0.061,244.124
136001,152214,14176,0.146,-0.941,-0.11,-0.366,0.366,0.183,244.13
136003,152153,38140,0.146,-0.941,-0.11,-0.366,0.366,0.183,244.134
136003,152223,14171,0.145,-0.938,-0.115,-1.098,0.183,0.366,244.14
135999,152153,38140,0.145,-0.938,-0.115,-1.098,0.183,0.366,244.143
135999,152233,14157,0.145,-0.946,-0.116,-0.915,-0.061,0.488,244.15
135986,152153,38140,0.145,-0.946,-0.116,-0.915,-0.061,0.488,244.153
135986,152204,14162,0.149,-0.948,-0.125,-0.61,-0.122,0.183,244.16
136003,152153,38140,0.149,-0.948,-0.125,-0.61,-0.122,0.183,244.163
136003,152199,14165,0.148,-0.939,-0.126,-0.549,-0.122,0.244,244.169
135975,152153,38140,0.148,-0.939,-0.126,-0.549,-0.122,0.244,244.173
135975,152222,14177,0.143,-0.943,-0.122,-0.915,-0.305,0.183,244.179
135982,152153,38140,0.143,-0.943,-0.122,-0.915,-0.305,0.183,244.183
135982,152228,14163,0.148,-0.95,-0.116,-0.854,-0.305,-0.183,244.189
136007,152153,38140,0.148,-0.95,-0.116,-0.854,-0.305,-0.183,244.193
136007,152201,14172,0.146,-0.944,-0.129,-0.915,-0.061,0,244.199
136007,152153,38140,0.146,-0.944,-0.129,-0.915,-0.061,0,244.203
136007,152260,14178,0.147,-0.938,-0.137,-0.061,0.183,0.183,244.209
136024,152153,38140,0.147,-0.938,-0.137,-0.061,0.183,0.183,244.213
136024,152247,14162,0.15,-0.937,-0.136,0.793,0.305,0.061,244.219
136013,152153,38140,0.15,-0.937,-0.136,0.793,0.305,0.061,244.223
136013,152227,14179,0.145,-0.932,-0.138,0.61,0.549,0.183,244.229
136013,152153,38140,0.145,-0.932,-0.138,0.61,0.549,0.183,244.233
136013,152237,14180,0.14,-0.937,-0.127,-0.427,0.549,0.244,244.239
136013,152153,38140,0.14,-0.937,-0.127,-0.427,0.549,0.244,244.242
136013,152226,14160,0.146,-0.944,-0.119,-1.402,0.183,0.122,244.249
136024,152153,38140,0.146,-0.944,-0.119,-1.402,0.183,0.122,244.252
136024,152205,14179,0.149,-0.949,-0.125,-1.402,0.183,0.122,244.259
136025,152153,38140,0.152,-0.95,-0.13,-0.915,0.183,0.488,244.262
136025,152236,14169,0.153,-0.947,-0.127,-0.915,0.183,0.488,244.268
135996,152153,38140,0.15,-0.945,-0.127,0.488,0.61,0.61,244.272
135996,152205,14173,0.149,-0.944,-0.129,0.488,0.61,0.61,244.278
135994,152153,38140,0.152,-0.945,-0.132,1.28,1.037,0.427,244.282
135994,152224,14170,0.146,-0.942,-0.13,1.28,1.037,0.427,244.288
135982,152153,38140,0.144,-0.941,-0.107,1.098,1.341,0.427,244.292
135982,152252,14168,0.145,-0.934,-0.109,1.098,1.341,0.427,244.298
136000,152153,38140,0.149,-0.932,-0.117,0.061,0.915,0.488,244.302
136000,152212,14152,0.149,-0.939,-0.124,0.061,0.915,0.488,244.308
136000,152153,38140,0.149,-0.951,-0.123,-0.183,0.793,0.366,244.312
136000,152236,14175,0.146,-0.951,-0.121,-0.183,0.793,0.366,244.318
136008,152153,38140,0.145,-0.945,-0.119,-0.366,1.159,0.061,244.322
136008,152210,14168,0.139,-0.936,-0.117,-0.366,1.159,0.061,244.328
135987,152153,38140,0.138,-0.931,-0.127,-0.183,1.098,0.732,244.332
135987,152243,14177,0.14,-0.932,-0.129,-0.183,1.098,0.732,244.338
136008,152153,38140,0.14,-0.936,-0.127,0.488,0.976,0.793,244.341
136008,152232,14163,0.142,-0.932,-0.138,0.488,0.976,0.793,244.348
136005,152153,38140,0.144,-0.939,-0.134,-0.366,0.732,0.366,244.351
136005,152198,14163,0.139,-0.948,-0.123,-0.366,0.732,0.366,244.357
135999,152153,38140,0.142,-0.948,-0.12,-0.61,0.61,0.61,244.361
135999,152240,14164,0.142,-0.948,-0.125,-0.61,0.61,0.61,244.367
136003,152153,38140,0.144,-0.951,-0.121,-1.037,0.549,0.61,244.371
136003,152244,14181,0.146,-0.959,-0.12,-1.037,0.549,0.61,244.377
136028,152153,38140,0.148,-0.955,-0.123,-0.61,0.61,0.427,244.381
136028,152242,14169,0.148,-0.954,-0.129,-0.61,0.61,0.427,244.387
136024,152153,38140,0.149,-0.951,-0.126,0.183,0.488,0.122,244.391
136024,152248,14174,0.153,-0.953,-0.116,0.183,0.488,0.122,244.397
136035,152153,38140,0.152,-0.945,-0.11,1.524,0.305,-0.244,244.401
136035,152262,14171,0.153,-0.93,-0.112,1.524,0.305,-0.244,244.407
136013,152153,38140,0.153,-0.93,-0.114,0.61,0,-0.122,244.411
136013,152244,14189,0.154,-0.934,-0.121,0.61,0,-0.122,244.417
136020,152153,38140,0.155,-0.94,-0.121,0,-0.122,0,244.421
136020,152250,14174,0.154,-0.941,-0.121,0,-0.122,0,244.427
135998,152153,38140,0.148,-0.939,-0.125,-0.671,0,-0.122,244.43
135998,152251,14178,0.149,-0.934,-0.133,-0.671,0,-0.122,244.437
136020,152153,38140,0.15,-0.936,-0.138,-0.61,0,0.305,244.44
136020,152235,14166,0.149,-0.941,-0.14,-0.61,0,0.305,244.447
136015,152153,38140,0.147,-0.943,-0.14,0.244,0.244,0.305,244.45
136015,152275,14178,0.147,-0.942,-0.127,0.244,0.244,0.305,244.456
136011,152153,38140,0.143,-0.936,-0.123,0.488,0.549,0.183,244.46
136011,152237,14176,0.144,-0.935,-0.129,0.488,0.549,0.183,244.466
136019,152153,38140,0.147,-0.936,-0.124,-0.061,0.549,0.366,244.47
136019,152238,14172,0.148,-0.94,-0.12,-0.061,0.549,0.366,244.476
136015,152153,38140,0.147,-0.949,-0.123,-0.549,0.427,0.427,244.48
136015,152279,14181,0.147,-0.955,-0.117,-0.549,0.427,0.427,244.486
136040,152153,38140,0.149,-0.947,-0.112,-0.366,0.366,0.427,244.49
136040,152252,14167,0.149,-0.945,-0.115,-0.366,0.366,0.427,244.496
136038,152153,38140,0.149,-0.946,-0.117,-0.244,0.427,0.732,244.5
136038,152282,14181,0.146,-0.948,-0.128,-0.244,0.427,0.732,244.506
136053,152153,38140,0.147,-0.95,-0.131,0.427,0.61,0.549,244.51
136053,152269,14190,0.148,-0.945,-0.127,0.427,0.61,0.549,244.516
136050,152153,38140,0.147,-0.939,-0.127,0.671,0.671,0.305,244.52
136050,152269,14164,0.147,-0.937,-0.128,0.671,0.671,0.305,244.526
136030,152153,38140,0.148,-0.932,-0.131,0.244,0.305,0.305,244.529
136030,152268,14169,0.149,-0.935,-0.125,0.244,0.305,0.305,244.536
136046,152153,38140,0.152,-0.94,-0.118,0,0.244,0.305,244.539
136046,152285,14177,0.15,-0.936,-0.129,0,0.244,0.305,244.546
136044,152153,38140,0.145,-0.937,-0.125,-0.427,0.61,0.549,244.549
136044,152279,14181,0.147,-0.942,-0.123,-0.427,0.61,0.549,244.555
136074,152153,38140,0.15,-0.943,-0.126,0.244,0.732,0.671,244.559
136074,152287,14181,0.147,-0.942,-0.124,0.244,0.732,0.671,244.565
136027,152153,38140,0.146,-0.942,-0.115,0.488,0.915,0.732,244.569
136027,152257,14188,0.147,-0.944,-0.117,0.488,0.915,0.732,244.575
136049,152153,38140,0.146,-0.942,-0.12,0.244,0.854,0.793,244.579
136049,152277,14171,0.141,-0.945,-0.13,0.244,0.854,0.793,244.585
136038,152153,38140,0.145,-0.949,-0.126,-0.366,0.61,0.549,244.589
136038,152267,14174,0.145,-0.95,-0.126,-0.366,0.61,0.549,244.595
136021,152153,38140,0.145,-0.947,-0.116,-0.488,0.549,0.244,244.599
136021,152258,14161,0.144,-0.944,-0.115,-0.488,0.549,0.244,244.605
136014,152153,38140,0.143,-0.944,-0.121,-0.366,0.427,0.427,244.609
136014,152259,14184,0.143,-0.947,-0.118,-0.366,0.427,0.427,244.615
136028,152153,38140,0.143,-0.941,-0.117,0.549,0.61,0.488,244.619
136028,152275,14191,0.146,-0.936,-0.118,0.549,0.61,0.488,244.625
136048,152153,38140,0.145,-0.931,-0.114,0.488,0.61,0.549,244.628
136048,152259,14189,0.143,-0.933,-0.12,0.488,0.61,0.549,244.635
136014,152153,38140,0.146,-0.935,-0.133,0.183,0.488,0.671,244.638
136014,152259,14163,0.146,-0.942,-0.123,0.183,0.488,0.671,244.645
136023,152153,38140,0.144,-0.94,-0.135,-0.183,0.305,0.61,244.648
136023,152224,14183,0.145,-0.944,-0.14,-0.183,0.305,0.61,244.654
135982,152153,38140,0.146,-0.948,-0.13,-0.671,0.244,0.549,244.658
135982,152222,14181,0.149,-0.953,-0.133,-0.671,0.244,0.549,244.664
136008,152153,38140,0.148,-0.951,-0.125,0,0.488,0.427,244.668
136008,152239,14164,0.145,-0.953,-0.117,0,0.488,0.427,244.674
136030,152153,38140,0.146,-0.954,-0.117,0.61,0.549,0.244,244.678
136030,152228,14179,0.147,-0.953,-0.121,0.61,0.549,0.244,244.684
136012,152153,38140,0.147,-0.953,-0.121,0.61,0.549,0.244,244.688
136012,152247,14188,0.146,-0.939,-0.111,0.793,0.488,0.122,244.694
136041,152153,38140,0.146,-0.939,-0.111,0.793,0.488,0.122,244.698
136041,152273,14171,0.149,-0.935,-0.116,0.671,0.427,0.305,244.704
136030,152153,38140,0.149,-0.935,-0.116,0.671,0.427,0.305,244.708
136030,152281,14183,0.148,-0.936,-0.124,0.366,0.244,0.122,244.714
136033,152153,38140,0.148,-0.936,-0.124,0.366,0.244,0.122,244.718
136033,152272,14175,0.149,-0.933,-0.129,0.122,0.122,0.183,244.724
136023,152153,38140,0.149,-0.933,-0.129,0.122,0.122,0.183,244.727
136023,152244,14186,0.145,-0.938,-0.13,-0.549,0.244,0.244,244.734
136016,152153,38140,0.145,-0.938,-0.13,-0.549,0.244,0.244,244.737
136016,152262,14176,0.143,-0.942,-0.114,-0.427,0.183,0.549,244.744
136034,152153,38140,0.143,-0.942,-0.114,-0.427,0.183,0.549,244.747
136034,152234,14170,0.142,-0.944,-0.119,-0.915,0.183,0.305,244.753
136003,152153,38140,0.142,-0.944,-0.119,-0.915,0.183,0.305,244.757
136003,152256,14183,0.151,-0.951,-0.125,-0.61,0.366,0.793,244.763
136008,152153,38140,0.151,-0.951,-0.125,-0.61,0.366,0.793,244.767
136008,152243,14169,0.149,-0.952,-0.129,-0.183,0.305,0.61,244.773
135986,152153,38140,0.149,-0.952,-0.129,-0.183,0.305,0.61,244.777
135986,152235,14176,0.148,-0.94,-0.118,1.28,0.305,0.488,244.783
136002,152153,38140,0.148,-0.94,-0.118,1.28,0.305,0.488,244.787
