136856,151889,14208,0.143,-0.945,0.006,1.951,0.854,0.122,320.318
136852,151897,38140,0.142,-0.939,0.009,1.951,0.854,0.122,320.322
136852,151926,14235,0.143,-0.937,0.011,1.22,0.488,0.305,320.328
136871,151897,38140,0.143,-0.937,0.011,1.22,0.488,0.305,320.332
136871,151919,14218,0.144,-0.936,0.007,-0.427,0,0.549,320.338
136849,151897,38140,0.144,-0.936,0.007,-0.427,0,0.549,320.341
136849,151886,14214,0.141,-0.949,0.002,-1.585,-0.244,0.854,320.348
136863,151897,38140,0.141,-0.949,0.002,-1.585,-0.244,0.854,320.351
136863,151902,14213,0.139,-0.95,-0.006,-2.5,-0.244,0.976,320.358
136845,151897,38140,0.139,-0.95,-0.006,-2.5,-0.244,0.976,320.361
136845,151921,14221,0.14,-0.96,-0.012,-2.683,-0.427,0.671,320.367
136869,151897,38140,0.14,-0.96,-0.012,-2.683,-0.427,0.671,320.371
136869,151915,14228,0.146,-0.965,-0.012,-1.768,-0.244,0.244,320.377
136848,151897,38140,0.146,-0.965,-0.012,-1.768,-0.244,0.244,320.381
136848,151870,14244,0.145,-0.962,-0.009,-0.915,0.244,0.244,320.387
136845,151897,38140,0.145,-0.962,-0.009,-0.915,0.244,0.244,320.391
136845,151906,14212,0.143,-0.965,-0.007,0.183,0.61,0.061,320.397
136851,151897,38140,0.143,-0.965,-0.007,0.183,0.61,0.061,320.401
136851,151870,14209,0.148,-0.948,0.003,0.976,0.732,-0.061,320.407
136836,151897,38140,0.148,-0.948,0.003,0.976,0.732,-0.061,320.411
136836,151868,14213,0.15,-0.947,-0.001,0.915,0.671,0.061,320.417
136848,151897,38140,0.15,-0.947,-0.001,0.915,0.671,0.061,320.421
136848,151878,14213,0.142,-0.955,-0.003,0.61,0.915,0.366,320.427
136825,151897,38140,0.142,-0.955,-0.003,0.61,0.915,0.366,320.431
136825,151891,14217,0.145,-0.948,0.002,0.488,0.915,0.671,320.437
136857,151897,38140,0.145,-0.948,0.002,0.488,0.915,0.671,320.44
136857,151871,14220,0.144,-0.946,-0.007,0.122,0.488,0.854,320.447
136846,151897,38140,0.144,-0.946,-0.007,0.122,0.488,0.854,320.45
136846,151888,14213,0.143,-0.953,0.002,-0.122,0.305,0.854,320.456
136873,151897,38140,0.143,-0.953,0.002,-0.122,0.305,0.854,320.46
136873,151895,14221,0.142,-0.952,-0.006,-0.122,0.305,0.854,320.466
136865,151897,38140,0.142,-0.952,-0.018,-0.549,0.427,0.732,320.47
136865,151877,14225,0.142,-0.96,-0.009,-0.549,0.427,0.732,320.476
136850,151897,38140,0.139,-0.966,-0.006,0,0.488,0.732,320.48
136850,151867,14201,0.143,-0.964,-0.008,0,0.488,0.732,320.486
136850,151897,38140,0.146,-0.959,0.002,1.098,0.61,0.488,320.49
136850,151859,14207,0.142,-0.953,0.008,1.098,0.61,0.488,320.496
136822,151897,38140,0.141,-0.955,-0.001,1.037,0.549,0.427,320.5
136822,151881,14202,0.142,-0.957,-0.005,1.037,0.549,0.427,320.506
136853,151897,38140,0.141,-0.954,-0.004,0.915,0.549,0.183,320.51
136853,151866,14210,0.139,-0.948,-0.007,0.915,0.549,0.183,320.516
136834,151897,38140,0.14,-0.942,-0.006,0.671,0.793,0.061,320.52
136834,151866,14213,0.143,-0.945,-0.006,0.671,0.793,0.061,320.526
136843,151897,38140,0.141,-0.946,-0.001,0.549,0.61,0.061,320.529
136843,151860,14207,0.143,-0.948,0.002,0.549,0.61,0.061,320.536
136852,151897,38140,0.145,-0.948,0.004,0.549,0.671,0.183,320.539
136852,151877,14213,0.144,-0.947,0.006,0.549,0.671,0.183,320.546
136853,151897,38140,0.14,-0.943,0.004,0.061,0.732,0.61,320.549
136853,151874,14207,0.14,-0.945,0.005,0.061,0.732,0.61,320.555
136838,151897,38140,0.142,-0.95,0.006,-0.793,0.366,0.793,320.559
136838,151869,14216,0.143,-0.95,-0.005,-0.793,0.366,0.793,320.565
136873,151897,38140,0.143,-0.953,0.002,-1.463,-0.061,0.732,320.569
136873,151885,14202,0.144,-0.954,-0.007,-1.463,-0.061,0.732,320.575
136850,151897,38140,0.146,-0.956,-0.022,-1.463,-0.183,0.793,320.579
136850,151884,14211,0.145,-0.963,-0.014,-1.463,-0.183,0.793,320.585
136844,151897,38140,0.143,-0.971,-0.014,-0.793,0,0.61,320.589
136844,151889,14211,0.143,-0.973,-0.011,-0.793,0,0.61,320.595
136841,151897,38140,0.141,-0.975,0.005,0.671,0.61,0.305,320.599
136841,151874,14217,0.141,-0.966,0.011,0.671,0.61,0.305,320.605
136830,151897,38140,0.145,-0.96,0.003,1.524,0.61,0,320.609
136830,151890,14205,0.148,-0.956,0.006,1.524,0.61,0,320.615
136833,151897,38140,0.145,-0.956,0.012,1.768,0.671,-0.244,320.619
136833,151906,14220,0.147,-0.952,0.01,1.768,0.671,-0.244,320.625
136865,151897,38140,0.144,-0.948,0.007,1.159,0.976,-0.183,320.628
136865,151866,14216,0.139,-0.947,0.007,1.159,0.976,-0.183,320.635
136867,151897,38140,0.144,-0.942,0.003,0.427,0.793,0.061,320.638
136867,151915,14210,0.146,-0.943,-0,0.427,0.793,0.061,320.645
136869,151897,38140,0.147,-0.942,-0.005,-0.244,0.122,0.244,320.648
136869,151899,14218,0.144,-0.942,-0.005,-0.244,0.122,0.244,320.654
136862,151897,38140,0.142,-0.941,-0.013,-0.61,0.366,0.732,320.658
136862,151897,14201,0.142,-0.948,0,-0.61,0.366,0.732,320.664
136859,151897,38140,0.139,-0.953,-0.003,-0.549,0.61,0.793,320.668
136859,151876,14218,0.138,-0.95,-0.007,-0.549,0.61,0.793,320.674
136855,151897,38140,0.14,-0.948,-0.001,-0.549,0.61,0.671,320.678
136855,151903,14214,0.142,-0.952,-0.002,-0.549,0.61,0.671,320.684
136839,151897,38140,0.141,-0.956,-0.003,-0.488,0.244,0.488,320.688
136839,151906,14217,0.143,-0.957,-0.005,-0.488,0.244,0.488,320.694
136877,151897,38140,0.143,-0.957,-0.004,-0.61,0.427,0.427,320.698
136877,151888,14213,0.141,-0.96,-0.006,-0.61,0.427,0.427,320.704
136852,151897,38140,0.144,-0.96,-0.003,-0.488,0.549,0.366,320.708
136852,151890,14210,0.146,-0.964,-0.005,-0.488,0.549,0.366,320.714
136876,151897,38140,0.148,-0.967,-0.004,-0.183,0.427,0,320.718
136876,151899,14212,0.147,-0.966,-0.01,-0.183,0.427,0,320.724
136865,151897,38140,0.142,-0.962,-0.004,0.305,0.854,-0.183,320.727
136865,151923,14220,0.14,-0.955,0.003,0.305,0.854,-0.183,320.734
136876,151897,38140,0.142,-0.95,0.002,0.793,1.098,0.061,320.737
136876,151934,14221,0.142,-0.947,-0,0.793,1.098,0.061,320.744
136879,151897,38140,0.142,-0.954,-0,0.427,0.549,-0.061,320.747
136879,151888,14218,0.145,-0.959,-0.004,0.427,0.549,-0.061,320.753
136874,151897,38140,0.147,-0.959,-0.004,0.671,0.305,-0.122,320.757
136874,151927,14233,0.144,-0.952,0,0.671,0.305,-0.122,320.763
136900,151897,38140,0.146,-0.939,-0.002,1.22,0.366,0.305,320.767
136900,151913,14212,0.148,-0.938,-0.007,1.22,0.366,0.305,320.773
136878,151897,38140,0.143,-0.942,-0.003,1.159,0.427,0.61,320.777
136878,151927,14226,0.144,-0.952,-0.001,1.159,0.427,0.61,320.783
136899,151897,38140,0.145,-0.958,-0,1.037,0.488,0.488,320.787
136899,151925,14220,0.14,-0.956,0.008,1.037,0.488,0.488,320.793
136880,151897,38140,0.14,-0.949,0.011,1.037,0.488,0.549,320.797
136880,151946,14228,0.14,-0.945,0.007,1.037,0.488,0.549,320.803
136890,151897,38140,0.138,-0.944,0.002,0.183,0.244,0.61,320.807
136890,151954,14231,0.143,-0.951,-0.001,0.183,0.244,0.61,320.813
136877,151897,38140,0.142,-0.958,0.001,-0.61,0.244,0.427,320.817
136877,151947,14221,0.142,-0.955,-0.007,-0.61,0.244,0.427,320.823
136885,151897,38140,0.141,-0.951,-0.012,-0.549,0.488,0.244,320.826
136885,151916,14241,0.141,-0.956,-0.006,-0.549,0.488,0.244,320.833
136882,151897,38140,0.143,-0.961,-0,-0.366,0.549,0.244,320.836
136882,151933,14218,0.142,-0.961,0.002,-0.366,0.549,0.244,320.842
136868,151897,38140,0.139,-0.956,0.007,0.183,0.793,0.244,320.846
136868,151978,14246,0.141,-0.951,0.009,0.183,0.793,0.244,320.852
136888,151897,38140,0.142,-0.951,0.011,-0.183,0.488,0.244,320.856
136888,151937,14241,0.144,-0.953,0.009,-0.183,0.488,0.244,320.862
136896,151897,38140,0.144,-0.957,0.006,-0.732,0.061,0,320.866
136896,151956,14240,0.146,-0.958,0.011,-0.732,0.061,0,320.872
136873,151897,38140,0.148,-0.955,0.004,-1.098,-0.061,-0.122,320.876
136873,151953,14232,0.148,-0.956,-0.002,-1.098,-0.061,-0.122,320.882
136863,151897,38140,0.148,-0.953,-0.004,-1.28,-0.061,-0.122,320.886
136863,151962,14228,0.146,-0.952,-0.013,-1.28,-0.061,-0.122,320.892
136858,151897,38140,0.146,-0.952,-0.013,-1.28,-0.061,-0.122,320.896
136858,151934,14232,0.143,-0.953,-0.01,-0.915,0.122,0,320.902
136892,151897,38140,0.143,-0.953,-0.01,-0.915,0.122,0,320.906
136892,151955,14242,0.144,-0.95,-0.002,-0.061,0.305,0.122,320.912
136898,151897,38140,0.144,-0.95,-0.002,-0.061,0.305,0.122,320.915
136898,151963,14251,0.147,-0.951,-0.009,0.366,0.305,0.122,320.922
136932,151897,38140,0.147,-0.951,-0.009,0.366,0.305,0.122,320.925
136932,151979,14249,0.145,-0.954,-0.005,0.488,0.488,0.183,320.932
136910,151897,38140,0.145,-0.954,-0.005,0.488,0.488,0.183,320.935
136910,151968,14244,0.145,-0.957,0.011,0.976,0.732,0.305,320.941
136909,151897,38140,0.145,-0.957,0.011,0.976,0.732,0.305,320.945
136909,151972,14254,0.148,-0.946,0.004,1.28,0.61,0.244,320.951
136892,151897,38140,0.148,-0.946,0.004,1.28,0.61,0.244,320.955
136892,151955,14236,0.145,-0.962,0.007,0.427,0.366,0.244,320.961
136892,151897,38140,0.145,-0.962,0.007,0.427,0.366,0.244,320.965
136892,151954,14247,0.146,-0.952,0.011,0,0.427,0.061,320.971
136871,151897,38140,0.146,-0.952,0.011,0,0.427,0.061,320.975
136871,151951,14248,0.149,-0.951,0.006,-0.488,0.366,-0.061,320.981
136879,151897,38140,0.149,-0.951,0.006,-0.488,0.366,-0.061,320.985
136879,151941,14266,0.15,-0.957,-0.006,-0.61,-0.183,0,320.991
136876,151897,38140,0.15,-0.957,-0.006,-0.61,-0.183,0,320.995
136876,151933,14243,0.147,-0.951,-0.002,-0.244,0.061,0.061,321.001
136878,151897,38140,0.147,-0.951,-0.002,-0.244,0.061,0.061,321.005
136878,151967,14251,0.143,-0.942,-0.005,0.122,0.488,0.305,321.011
136879,151897,38140,0.143,-0.942,-0.005,0.122,0.488,0.305,321.014
136879,151937,14237,0.145,-0.958,-0.004,0.061,0.488,0.488,321.021
136877,151897,38140,0.145,-0.958,-0.004,0.061,0.488,0.488,321.024
136877,151919,14240,0.148,-0.958,0.004,0.488,0.549,0.427,321.031
136867,151897,38140,0.148,-0.958,0.004,0.488,0.549,0.427,321.034
136867,151944,14233,0.141,-0.951,0.002,0.61,0.732,0.61,321.04
136887,151897,38140,0.14,-0.946,0.002,0.61,0.732,0.61,321.044
136887,151944,14248,0.141,-0.954,0.003,0.061,0.61,0.61,321.05
136880,151897,38140,0.141,-0.959,-0.001,0.061,0.61,0.61,321.054
136880,151961,14249,0.142,-0.961,-0.003,0,0.549,0.427,321.06
136896,151897,38140,0.142,-0.959,-0.004,0,0.549,0.427,321.064
136896,151917,14225,0.141,-0.957,-0.008,0.183,0.793,0.183,321.07
136869,151897,38140,0.143,-0.958,-0.005,0.183,0.793,0.183,321.074
136869,151958,14233,0.141,-0.955,-0.003,0.732,0.793,0,321.08
136889,151897,38140,0.142,-0.952,0.001,0.732,0.793,0,321.084
136889,151931,14233,0.143,-0.946,0.005,1.037,0.732,0.061,321.09
136867,151897,38140,0.142,-0.938,0.011,1.037,0.732,0.061,321.094
136867,151926,14241,0.143,-0.934,0.008,0.427,0.488,0.244,321.1
136892,151897,38140,0.148,-0.944,0.01,0.427,0.488,0.244,321.104
136892,151941,14241,0.143,-0.948,0.009,-0.488,0.122,0.427,321.11
136874,151897,38140,0.145,-0.946,-0.002,-0.488,0.122,0.427,321.113
136874,151920,14235,0.149,-0.949,-0.01,-1.037,0,0.549,321.12
136882,151897,38140,0.148,-0.956,-0.009,-1.037,0,0.549,321.123
136882,151944,14230,0.147,-0.961,-0.01,-0.915,0.122,0.549,321.129
136864,151897,38140,0.142,-0.962,-0.008,-0.915,0.122,0.549,321.133
136864,151903,14217,0.143,-0.959,-0.009,-0.122,0.671,0.549,321.139
136878,151897,38140,0.143,-0.965,-0.005,-0.122,0.671,0.549,321.143
136878,151925,14230,0.143,-0.964,0.002,0.61,0.793,0.427,321.149
136871,151897,38140,0.144,-0.959,0.001,0.61,0.793,0.427,321.153
136871,151911,14232,0.141,-0.952,0.007,0.732,0.671,0.305,321.159
136879,151897,38140,0.145,-0.954,0.014,0.732,0.671,0.305,321.163
136879,151915,14238,0.145,-0.955,0.009,0.488,0.488,0.122,321.169
136881,151897,38140,0.142,-0.953,0.01,0.488,0.488,0.122,321.173
136881,151948,14239,0.146,-0.95,0.015,0,0.244,0.061,321.179
136878,151897,38140,0.147,-0.944,0.008,0,0.244,0.061,321.183
136878,151921,14241,0.144,-0.952,0.005,-1.037,0.061,0.122,321.189
136878,151897,38140,0.146,-0.959,-0.002,-1.037,0.061,0.122,321.193
136878,151933,14243,0.146,-0.958,-0.014,-1.22,0,0.244,321.199
136893,151897,38140,0.146,-0.951,-0.021,-1.22,0,0.244,321.203
136893,151944,14240,0.145,-0.949,-0.021,-0.793,0.183,0.427,321.209
136873,151897,38140,0.144,-0.95,-0.019,-0.793,0.183,0.427,321.212
136873,151947,14230,0.141,-0.953,-0.013,0.183,0.488,0.427,321.219
136872,151897,38140,0.141,-0.954,-0.012,0.183,0.488,0.427,321.222
136872,151927,14229,0.142,-0.954,-0.013,0.915,0.732,0.244,321.228
136850,151897,38140,0.145,-0.953,-0.007,0.915,0.732,0.244,321.232
136850,151943,14238,0.147,-0.95,0.002,1.646,0.732,0.122,321.238
136853,151897,38140,0.146,-0.948,0.009,1.646,0.732,0.122,321.242
136853,151962,14245,0.147,-0.949,0.016,1.707,0.976,0.183,321.248
136876,151897,38140,0.142,-0.953,0.025,1.707,0.976,0.183,321.252
136876,151926,14240,0.142,-0.955,0.026,1.037,1.037,0.366,321.258
136874,151897,38140,0.145,-0.953,0.022,1.037,1.037,0.366,321.262
136874,151931,14247,0.15,-0.953,0.012,-0.122,0.427,0.366,321.268
136889,151897,38140,0.153,-0.96,0.003,-0.122,0.427,0.366,321.272
136889,151958,14238,0.149,-0.961,-0.006,-0.549,0.305,0.427,321.278
136894,151897,38140,0.148,-0.953,-0.014,-0.549,0.305,0.427,321.282
136894,151952,14252,0.144,-0.947,-0.021,-0.549,0.854,0.61,321.288
136900,151897,38140,0.141,-0.96,-0.017,-0.549,0.854,0.61,321.292
136900,151964,14243,0.14,-0.967,-0.008,0.244,1.037,0.427,321.298
136919,151897,38140,0.141,-0.963,-0.002,0.244,1.037,0.427,321.301
136919,151955,14261,0.141,-0.947,-0.004,1.22,1.341,0.061,321.308
136883,151897,38140,0.141,-0.942,-0.003,1.22,1.341,0.061,321.311
136883,151998,14263,0.143,-0.947,0.003,1.402,1.28,0.122,321.318
136889,151897,38140,0.145,-0.952,0.011,1.402,1.28,0.122,321.321
136889,151962,14246,0.147,-0.949,0.008,1.646,1.159,0.122,321.327
136913,151897,38140,0.145,-0.94,0.003,1.646,1.159,0.122,321.331
136913,151994,14244,0.143,-0.946,0,1.159,1.402,0.305,321.337
136919,151897,38140,0.142,-0.95,0.006,1.159,1.402,0.305,321.341
136919,151976,14253,0.145,-0.954,0.013,1.28,1.098,0.366,321.347
136919,151897,38140,0.146,-0.951,0.017,1.28,1.098,0.366,321.351
136919,151991,14253,0.146,-0.943,0.008,0.671,0.793,0.366,321.357
136927,151897,38140,0.147,-0.95,0.008,0.671,0.793,0.366,321.361
136927,151991,14271,0.144,-0.96,0.01,-0.305,0.366,0.488,321.367
136894,151897,38140,0.146,-0.969,0.008,-0.305,0.366,0.488,321.371
136894,151995,14261,0.146,-0.964,0.006,-0.488,0.183,0.305,321.377
136902,151897,38140,0.148,-0.955,0.002,-0.488,0.183,0.305,321.381
136902,152014,14244,0.148,-0.957,-0.001,-0.549,-0.061,0.427,321.387
136911,151897,38140,0.146,-0.964,-0.004,-0.549,-0.061,0.427,321.391
136911,151981,14265,0.145,-0.962,-0.006,0.183,0,0.366,321.397
136929,151897,38140,0.145,-0.957,-0.01,0.183,0,0.366,321.4
136929,152020,14257,0.145,-0.961,-0.013,0.915,0.854,0.305,321.407
136923,151897,38140,0.143,-0.96,-0.01,0.915,0.854,0.305,321.41
136923,152001,14270,0.142,-0.953,-0.002,2.378,1.159,0.305,321.417
136922,151897,38140,0.142,-0.946,0.005,2.378,1.159,0.305,321.42
136922,152013,14244,0.138,-0.945,0.009,2.805,1.463,0.183,321.426
136910,151897,38140,0.14,-0.945,0.013,2.805,1.463,0.183,321.43
136910,151999,14254,0.142,-0.939,0.02,2.317,1.402,0.244,321.436
136917,151897,38140,0.144,-0.935,0.022,2.317,1.402,0.244,321.44
136917,151977,14257,0.142,-0.934,0.017,0.793,0.854,0.427,321.446
136897,151897,38140,0.142,-0.942,0.008,0.793,0.854,0.427,321.45
136897,152003,14249,0.145,-0.952,0.009,-0.793,0.427,0.549,321.456
136915,151897,38140,0.144,-0.955,0.006,-0.793,0.427,0.549,321.46
136915,152012,14261,0.145,-0.958,0.002,-1.28,0.183,0.671,321.466
136919,151897,38140,0.145,-0.958,0.002,-1.28,0.183,0.671,321.47
136919,152003,14258,0.141,-0.963,0.003,-1.159,0.122,0.488,321.476
136944,151897,38140,0.141,-0.963,0.003,-1.159,0.122,0.488,321.48
136944,152014,14265,0.144,-0.963,-0.004,-0.976,0.305,0.427,321.486
136955,151897,38140,0.144,-0.963,-0.004,-0.976,0.305,0.427,321.49
136955,152022,14276,0.145,-0.963,-0,-0.122,0.488,0.122,321.496
136950,151897,38140,0.145,-0.963,-0,-0.122,0.488,0.122,321.499
136950,152044,14279,0.147,-0.96,0.004,0.671,0.732,-0.122,321.506
136941,151897,38140,0.147,-0.96,0.004,0.671,0.732,-0.122,321.509
136941,152022,14270,0.147,-0.95,0.011,1.037,0.671,0.061,321.516
136920,151897,38140,0.147,-0.95,0.011,1.037,0.671,0.061,321.519
136920,152018,14278,0.15,-0.951,0.005,1.098,0.488,0.244,321.525
136899,151897,38140,0.15,-0.951,0.005,1.098,0.488,0.244,321.529
136899,152016,14261,0.146,-0.952,0.006,0.854,0.61,0.366,321.535
136915,151897,38140,0.146,-0.952,0.006,0.854,0.61,0.366,321.539
136915,151989,14279,0.145,-0.958,0.009,0.976,0.549,0.244,321.545
136920,151897,38140,0.145,-0.958,0.009,0.976,0.549,0.244,321.549
136920,152038,14270,0.141,-0.945,0.008,0.915,0.732,0.305,321.555
136950,151897,38140,0.141,-0.945,0.008,0.915,0.732,0.305,321.559
136950,152038,14277,0.149,-0.943,0.006,0.183,0.427,0.61,321.565
136946,151897,38140,0.149,-0.943,0.006,0.183,0.427,0.61,321.569
136946,152048,14283,0.143,-0.951,0.009,0,0.244,0.549,321.575
136946,151897,38140,0.143,-0.951,0.009,0,0.244,0.549,321.579
136946,152032,14274,0.145,-0.942,0.007,-0.427,0.427,0.488,321.585
136950,151897,38140,0.145,-0.942,0.007,-0.427,0.427,0.488,321.589
136950,152028,14266,0.143,-0.948,0.002,-1.22,-0.183,0.549,321.595
136922,151897,38140,0.143,-0.948,0.002,-1.22,-0.183,0.549,321.598
136922,152014,14272,0.144,-0.958,-0.004,-1.28,0.061,0.488,321.605
136934,151897,38140,0.144,-0.958,-0.004,-1.28,0.061,0.488,321.608
136934,152014,14274,0.14,-0.964,0.006,-1.28,0.061,0.488,321.615
136919,151897,38140,0.141,-0.962,0.011,-0.427,0.61,0.427,321.618
136919,152018,14276,0.143,-0.956,0.012,-0.427,0.61,0.427,321.624
136914,151897,38140,0.145,-0.955,0.014,-0.061,0.366,0.366,321.628
136914,152000,14274,0.15,-0.96,0.005,-0.061,0.366,0.366,321.634
136899,151897,38140,0.152,-0.968,0.004,-0.244,0.122,0.183,321.638
136899,152014,14271,0.147,-0.969,0.014,-0.244,0.122,0.183,321.644
136900,151897,38140,0.148,-0.96,0.014,0.122,0.61,0.183,321.648
136900,151998,14279,0.147,-0.95,0.01,0.122,0.61,0.183,321.654
136904,151897,38140,0.145,-0.944,0.004,-0.122,0.732,0.305,321.658
136904,152006,14280,0.147,-0.948,0.001,-0.122,0.732,0.305,321.664
136912,151897,38140,0.147,-0.953,0.003,-0.305,0.488,0.305,321.668
136912,152041,14266,0.149,-0.95,-0.005,-0.305,0.488,0.305,321.674
136928,151897,38140,0.149,-0.947,-0.005,-0.305,0.549,0.366,321.678
136928,152035,14280,0.146,-0.949,0.009,-0.305,0.549,0.366,321.684
136946,151897,38140,0.143,-0.953,0.009,0.061,0.61,0.671,321.688
136946,152019,14275,0.146,-0.946,0.001,0.061,0.61,0.671,321.694
136939,151897,38140,0.141,-0.949,-0.002,0,0.61,0.854,321.697
136939,152009,14269,0.143,-0.963,0.004,0,0.61,0.854,321.704
136905,151897,38140,0.143,-0.967,0.007,0.366,0.488,0.854,321.707
136905,152012,14274,0.144,-0.959,0.007,0.366,0.488,0.854,321.713
136925,151897,38140,0.141,-0.956,0.007,0.61,0.671,0.793,321.717
136925,152013,14279,0.138,-0.95,0.014,0.61,0.671,0.793,321.723
136914,151897,38140,0.139,-0.946,0.011,0.305,0.427,0.61,321.727
136914,152019,14290,0.138,-0.95,0.006,0.305,0.427,0.61,321.733
136922,151897,38140,0.139,-0.955,0.002,-0.488,0,0.366,321.737
136922,151995,14279,0.141,-0.955,0.009,-0.488,0,0.366,321.743
136927,151897,38140,0.14,-0.947,0.016,-0.305,-0.122,0.061,321.747
136927,152040,14270,0.145,-0.943,0.01,-0.305,-0.122,0.061,321.753
136923,151897,38140,0.146,-0.947,0.01,-0.915,-0.183,0.061,321.757
136923,152017,14290,0.142,-0.952,0.008,-0.915,-0.183,0.061,321.763
136920,151897,38140,0.14,-0.956,0.002,-1.524,-0.244,0.061,321.767
136920,152026,14271,0.141,-0.958,0.005,-1.524,-0.244,0.061,321.773
136921,151897,38140,0.143,-0.955,0.009,-1.707,-0.122,-0.244,321.777
136921,152018,14275,0.145,-0.952,0.01,-1.707,-0.122,-0.244,321.783
136918,151897,38140,0.144,-0.95,0.01,-1.463,-0.183,-0.305,321.786
136918,152033,14253,0.147,-0.941,0.004,-1.463,-0.183,-0.305,321.793
136907,151897,38140,0.146,-0.941,0.003,-1.707,-0.305,-0.122,321.796
136907,152038,14283,0.144,-0.948,0.002,-1.707,-0.305,-0.122,321.803
136917,151897,38140,0.147,-0.951,0.006,-2.012,-0.488,0.061,321.806
136917,151995,14271,0.145,-0.945,0,-2.012,-0.488,0.061,321.812
136909,151897,38140,0.145,-0.947,-0.001,-2.5,-0.549,0.183,321.816
136909,152020,14286,0.146,-0.958,0.003,-2.5,-0.549,0.183,321.822
136927,151897,38140,0.144,-0.964,0,-2.256,-0.793,0.244,321.826
136927,152041,14280,0.145,-0.958,-0.009,-2.256,-0.793,0.244,321.832
136915,151897,38140,0.149,-0.953,-0.011,-2.195,-0.488,0.122,321.836
136915,152016,14289,0.146,-0.965,0,-2.195,-0.488,0.122,321.842
136932,151897,38140,0.147,-0.973,0.006,-1.159,-0.366,0,321.846
136932,152032,14280,0.15,-0.966,0.004,-1.159,-0.366,0,321.852
136907,151897,38140,0.145,-0.956,0.005,-0.305,-0.061,-0.061,321.856
136907,152017,14279,0.147,-0.945,0.003,-0.305,-0.061,-0.061,321.862
136917,151897,38140,0.146,-0.947,0.003,-0.366,0.244,0,321.866
136917,152035,14267,0.146,-0.953,0.001,-0.366,0.244,0,321.872
136923,151897,38140,0.145,-0.955,0,-0.61,0.122,-0.061,321.876
136923,152004,14277,0.144,-0.95,-0,-0.61,0.122,-0.061,321.882
136917,151897,38140,0.145,-0.954,-0.005,-0.732,0.366,-0.061,321.885
136917,152027,14282,0.144,-0.951,-0.008,-0.732,0.366,-0.061,321.892
136900,151897,38140,0.141,-0.952,-0.001,-0.427,0.244,-0.061,321.895
136900,152007,14279,0.144,-0.956,-0.002,-0.427,0.244,-0.061,321.902
136903,151897,38140,0.145,-0.954,-0.002,0.122,0.183,-0.305,321.905
136903,152013,14282,0.146,-0.95,0.005,0.122,0.183,-0.305,321.911
136915,151897,38140,0.147,-0.948,0.008,0.549,0.305,-0.366,321.915
136915,152013,14288,0.149,-0.947,0.008,0.549,0.305,-0.366,321.921
136905,151897,38140,0.149,-0.941,0.004,0.488,0.244,-0.061,321.925
136905,152036,14277,0.149,-0.945,0.004,0.488,0.244,-0.061,321.931
136922,151897,38140,0.15,-0.946,0.001,0,0.122,0.305,321.935
136922,152027,14284,0.15,-0.954,0.015,0,0.122,0.305,321.941
136919,151897,38140,0.151,-0.959,0.014,-0.488,0.061,0.305,321.945
136919,152038,14279,0.147,-0.957,0.004,-0.488,0.061,0.305,321.951
136923,151897,38140,0.145,-0.953,-0.004,-0.793,0.305,0.427,321.955
136923,152025,14276,0.146,-0.958,-0.001,-0.793,0.305,0.427,321.961
136915,151897,38140,0.143,-0.961,0.004,-0.61,0.305,0.488,321.965
136915,152031,14274,0.142,-0.96,0.004,-0.61,0.305,0.488,321.971
136943,151897,38140,0.143,-0.951,0.004,-0.427,0.366,0.122,321.975
136943,152029,14288,0.146,-0.948,0,-0.427,0.366,0.122,321.981
136923,152153,38140,0.147,-0.953,-0.002,-0.793,0.183,0,321.984
136923,152078,14287,0.147,-0.962,-0.001,-0.793,0.183,0,321.991
136934,151897,38140,0.149,-0.96,0.004,-0.305,0.122,-0.061,321.994
136934,152014,14294,0.146,-0.956,0.005,-0.305,0.122,-0.061,322.001
136921,151897,38140,0.145,-0.943,-0.001,0.061,0.854,0.061,322.004
136921,152029,14277,0.143,-0.938,-0.003,0.061,0.854,0.061,322.01
136933,152153,38140,0.143,-0.941,-0.003,-0.061,0.854,0.183,322.014
136933,152065,14294,0.138,-0.949,0.002,-0.061,0.854,0.183,322.02
136925,151897,38140,0.14,-0.951,0.006,0,0.61,-0.122,322.024
136925,152053,14287,0.141,-0.947,0.007,0,0.61,-0.122,322.03
136948,151897,38140,0.148,-0.942,0.013,-0.183,0.366,-0.122,322.034
136948,152049,14305,0.15,-0.941,0.016,-0.183,0.366,-0.122,322.04
136928,151897,38140,0.15,-0.941,0.016,-0.183,0.366,-0.122,322.044
136928,152061,14286,0.148,-0.95,0.015,-1.098,-0.427,0.122,322.05
136916,151897,38140,0.148,-0.95,0.015,-1.098,-0.427,0.122,322.054
136916,152062,14280,0.148,-0.966,0.005,-2.378,-0.854,0.305,322.06
136928,152153,38140,0.148,-0.966,0.005,-2.378,-0.854,0.305,322.064
136928,152066,14292,0.149,-0.963,0.003,-2.744,-1.037,0.305,322.07
136941,151897,38140,0.149,-0.963,0.003,-2.744,-1.037,0.305,322.074
136941,152039,14281,0.147,-0.951,-0.007,-2.256,-0.976,0.244,322.08
136916,151897,38140,0.147,-0.951,-0.007,-2.256,-0.976,0.244,322.083
136916,152046,14287,0.146,-0.962,-0.011,-2.134,-0.671,0.366,322.09
136938,151897,38140,0.146,-0.962,-0.011,-2.134,-0.671,0.366,322.093
136938,152049,14298,0.147,-0.955,-0.003,-1.402,-0.427,0.183,322.1
136912,151897,38140,0.147,-0.955,-0.003,-1.402,-0.427,0.183,322.103
136912,152055,14299,0.142,-0.95,-0.012,-0.61,-0.061,0.061,322.109
136918,151897,38140,0.142,-0.95,-0.012,-0.61,-0.061,0.061,322.113
136918,152033,14295,0.143,-0.956,0.004,-0.366,0,-0.061,322.119
136907,152153,38140,0.143,-0.956,0.004,-0.366,0,-0.061,322.123
136907,152075,14301,0.138,-0.946,0.017,0.183,0.122,-0.183,322.129
136923,151897,38140,0.138,-0.946,0.017,0.183,0.122,-0.183,322.133
136923,152053,14301,0.139,-0.937,0.016,-0.183,0,-0.061,322.139
136898,151897,38140,0.139,-0.937,0.016,-0.183,0,-0.061,322.143
136898,152017,14298,0.144,-0.953,-0.001,-1.951,-0.549,-0.244,322.149
136914,152153,38140,0.144,-0.953,-0.001,-1.951,-0.549,-0.244,322.153
136914,152077,14296,0.147,-0.956,-0.007,-3.171,-1.098,-0.671,322.159
136919,151897,38140,0.147,-0.956,-0.007,-3.171,-1.098,-0.671,322.163
136919,152032,14295,0.154,-0.961,-0.006,-3.11,-1.28,-0.854,322.169
136923,151897,38140,0.154,-0.961,-0.006,-3.11,-1.28,-0.854,322.173
136923,152047,14301,0.15,-0.959,-0.006,-2.256,-1.098,-0.793,322.179
136941,151897,38140,0.15,-0.959,-0.006,-2.256,-1.098,-0.793,322.182
136941,152035,14291,0.151,-0.957,-0.015,-1.768,-0.61,-0.671,322.189
136919,151897,38140,0.149,-0.96,-0.015,-1.768,-0.61,-0.671,322.192
136919,152060,14313,0.151,-0.964,-0.014,-1.037,-0.549,-0.61,322.198
136918,151897,38140,0.151,-0.96,-0.011,-1.037,-0.549,-0.61,322.202
136918,152057,14300,0.152,-0.957,-0.012,0.366,-0.122,-0.671,322.208
136926,151897,38140,0.149,-0.953,-0.002,0.366,-0.122,-0.671,322.212
136926,152039,14297,0.15,-0.951,0.005,1.341,0.183,-0.549,322.218
136913,152153,38140,0.145,-0.946,0.008,1.341,0.183,-0.549,322.222
136913,152087,14291,0.143,-0.945,0.006,1.28,0.122,-0.671,322.228
136924,151897,38140,0.139,-0.946,0.005,1.28,0.122,-0.671,322.232
136924,152055,14299,0.141,-0.941,0.008,0.427,-0.122,-0.671,322.238
136916,152153,38140,0.141,-0.934,0.011,0.427,-0.122,-0.671,322.242
136916,152081,14309,0.146,-0.936,0.015,-0.854,-0.61,-0.549,322.248
136911,151897,38140,0.148,-0.935,0.012,-0.854,-0.61,-0.549,322.252
136911,152049,14299,0.15,-0.94,0.008,-2.561,-1.341,-0.549,322.258
136903,152153,38140,0.152,-0.939,0.008,-2.561,-1.341,-0.549,322.262
136903,152080,14311,0.154,-0.939,-0.002,-4.268,-1.585,-0.366,322.268
136917,151897,38140,0.154,-0.95,-0.015,-4.268,-1.585,-0.366,322.271
136917,152051,14298,0.154,-0.96,-0.017,-4.756,-1.707,-0.122,322.278
136896,151897,38140,0.15,-0.964,-0.018,-4.756,-1.707,-0.122,322.281
136896,152030,14313,0.149,-0.961,-0.023,-3.598,-1.098,-0.061,322.288
136881,151897,38140,0.15,-0.96,-0.022,-3.598,-1.098,-0.061,322.291
136881,152033,14292,0.144,-0.957,-0.02,-2.012,-0.427,0,322.297
136901,151897,38140,0.148,-0.963,-0.009,-2.012,-0.427,0,322.301
136901,152036,14310,0.148,-0.963,-0.009,-0.854,-0.305,-0.244,322.307
136893,151897,38140,0.147,-0.963,-0.008,-0.854,-0.305,-0.244,322.311
136893,152057,14296,0.149,-0.955,0,-0.61,-0.061,-0.427,322.317
136879,151897,38140,0.149,-0.949,0.007,-0.61,-0.061,-0.427,322.321
136879,152018,14290,0.149,-0.943,0.003,-0.244,-0.305,-0.549,322.327
136845,151897,38140,0.149,-0.942,0.003,-0.244,-0.305,-0.549,322.331
136845,152036,14300,0.146,-0.943,0.001,-0.854,-0.427,-0.61,322.337
136850,151897,38140,0.145,-0.951,0.01,-0.854,-0.427,-0.61,322.341
136850,152019,14291,0.148,-0.952,0.011,-1.524,-0.732,-0.732,322.347
136872,151897,38140,0.15,-0.943,-0.001,-1.524,-0.732,-0.732,322.351
136872,151997,14293,0.147,-0.938,-0.009,-2.805,-1.28,-0.549,322.357
136844,151897,38140,0.153,-0.945,-0.017,-2.805,-1.28,-0.549,322.361
136844,152016,14308,0.15,-0.968,-0.009,-3.11,-1.585,-0.427,322.367
136850,151897,38140,0.152,-0.971,-0.008,-3.11,-1.585,-0.427,322.37
136850,152034,14305,0.152,-0.957,-0.012,-1.89,-1.341,-0.671,322.377
136856,151897,38140,0.147,-0.947,-0.021,-1.89,-1.341,-0.671,322.38
136856,152010,14287,0.148,-0.964,-0.014,-1.159,-1.159,-0.549,322.387
136846,151897,38140,0.153,-0.973,0.002,-1.159,-1.159,-0.549,322.39
136846,152016,14301,0.154,-0.96,0.004,0.122,-1.524,-0.976,322.396
136840,151897,38140,0.154,-0.947,-0.002,0.122,-1.524,-0.976,322.4
136840,152002,14287,0.151,-0.944,0.001,-0.183,-1.22,-0.427,322.406
136834,151897,38140,0.151,-0.942,0.004,-0.183,-1.22,-0.427,322.41
136834,151973,14287,0.152,-0.937,0.011,-0.732,-1.768,-0.244,322.416
136812,151897,38140,0.151,-0.934,0.008,-0.732,-1.768,-0.244,322.42
136812,151993,14296,0.153,-0.943,-0.006,-2.012,-2.256,-0.183,322.426
136823,151897,38140,0.155,-0.96,-0.021,-2.012,-2.256,-0.183,322.43
136823,151991,14298,0.15,-0.962,-0.011,-2.866,-1.951,-0.488,322.436
136836,151897,38140,0.148,-0.956,-0.007,-2.866,-1.951,-0.488,322.44
136836,151987,14300,0.147,-0.946,-0.009,-2.439,-1.524,-0.427,322.446
136829,151897,38140,0.148,-0.941,-0.007,-2.439,-1.524,-0.427,322.45
136829,151971,14299,0.152,-0.946,0,-2.744,-2.256,-0.122,322.456
136820,151897,38140,0.153,-0.952,0.004,-2.744,-2.256,-0.122,322.46
136820,151972,14305,0.151,-0.953,-0.003,-3.354,-2.134,-0.305,322.466
136820,151897,38140,0.149,-0.948,-0.011,-3.354,-2.134,-0.305,322.469
136820,151984,14287,0.151,-0.942,-0.01,-3.902,-2.012,-0.122,322.476
136821,151897,38140,0.149,-0.942,-0.007,-3.902,-2.012,-0.122,322.479
136821,151982,14293,0.149,-0.941,-0.006,-4.512,-2.5,0.183,322.486
136813,151897,38140,0.149,-0.942,-0.01,-4.512,-2.5,0.183,322.489
136813,151956,14285,0.148,-0.939,-0.01,-5.488,-2.317,0.427,322.495
136795,151897,38140,0.149,-0.941,-0.01,-5.488,-2.317,0.427,322.499
136795,151983,14283,0.148,-0.945,-0.013,-6.22,-2.561,0.366,322.505
136801,151897,38140,0.15,-0.944,-0.016,-6.22,-2.561,0.366,322.509
136801,151988,14285,0.153,-0.945,-0.025,-6.646,-3.049,0.305,322.515
136757,151897,38140,0.153,-0.955,-0.025,-6.646,-3.049,0.305,322.519
136757,151971,14285,0.151,-0.966,-0.023,-6.28,-2.805,0.305,322.525
136776,151897,38140,0.154,-0.968,-0.03,-6.28,-2.805,0.305,322.529
136776,151970,14291,0.153,-0.966,-0.037,-5.244,-2.561,0,322.535
136774,151897,38140,0.151,-0.976,-0.025,-5.244,-2.561,0,322.539
136774,151959,14286,0.152,-0.987,-0.012,-3.659,-2.073,-0.244,322.545
136784,151897,38140,0.151,-0.981,-0.017,-3.659,-2.073,-0.244,322.549
136784,151974,14292,0.153,-0.971,-0.02,-2.256,-1.22,-0.732,322.555
136789,151897,38140,0.153,-0.959,-0.022,-2.256,-1.22,-0.732,322.559
136789,151959,14282,0.154,-0.956,-0.023,-1.768,-0.732,-0.549,322.565
136761,151897,38140,0.155,-0.948,-0.019,-1.768,-0.732,-0.549,322.568
136761,151938,14282,0.157,-0.944,-0.02,-1.524,-0.854,-0.549,322.575
136772,151897,38140,0.157,-0.943,-0.025,-1.524,-0.854,-0.549,322.578
136772,151942,14281,0.154,-0.938,-0.019,-1.402,-0.671,-0.305,322.585
136722,151897,38140,0.155,-0.935,-0.015,-1.402,-0.671,-0.305,322.588
136722,151922,14284,0.154,-0.932,-0.017,-1.768,-0.854,-0.061,322.594
136723,151897,38140,0.156,-0.932,-0.018,-1.768,-0.854,-0.061,322.598
136723,151938,14268,0.155,-0.939,-0.016,-2.988,-1.159,0.305,322.604
136702,151897,38140,0.156,-0.948,-0.015,-2.988,-1.159,0.305,322.608
136702,151933,14283,0.155,-0.951,-0.013,-3.72,-1.22,0.549,322.614
136738,151897,38140,0.155,-0.951,-0.013,-3.72,-1.22,0.549,322.618
136738,151939,14289,0.152,-0.947,-0.021,-4.634,-1.341,0.854,322.624
136724,151897,38140,0.152,-0.947,-0.021,-4.634,-1.341,0.854,322.628
136724,151928,14284,0.153,-0.964,-0.015,-4.634,-1.402,1.159,322.634
136766,151897,38140,0.153,-0.964,-0.015,-4.634,-1.402,1.159,322.638
136766,151930,14289,0.148,-0.955,-0.025,-4.268,-1.098,0.976,322.644
136740,151897,38140,0.148,-0.955,-0.025,-4.268,-1.098,0.976,322.648
136740,151938,14274,0.151,-0.953,-0.029,-4.207,-1.037,0.793,322.654
136717,151897,38140,0.151,-0.953,-0.029,-4.207,-1.037,0.793,322.658
136717,151940,14290,0.148,-0.964,-0.027,-3.72,-0.793,0.244,322.664
136702,151897,38140,0.148,-0.964,-0.027,-3.72,-0.793,0.244,322.667
136702,151933,14274,0.15,-0.95,-0.03,-2.683,-0.183,0,322.674
136663,151897,38140,0.15,-0.95,-0.03,-2.683,-0.183,0,322.677
136663,151886,14290,0.148,-0.948,-0.012,-2.317,-0.244,0.061,322.684
136652,151897,38140,0.148,-0.948,-0.012,-2.317,-0.244,0.061,322.687
136652,151886,14268,0.152,-0.939,-0.022,-3.354,-0.366,0.061,322.693
136624,151897,38140,0.152,-0.939,-0.022,-3.354,-0.366,0.061,322.697
136624,151858,14284,0.154,-0.942,-0.03,-3.78,-0.488,0.244,322.703
136631,151897,38140,0.154,-0.942,-0.03,-3.78,-0.488,0.244,322.707
136631,151852,14265,0.156,-0.94,-0.043,-3.78,-0.305,0.549,322.713
136615,151897,38140,0.156,-0.94,-0.043,-3.78,-0.305,0.549,322.717
136615,151853,14270,0.156,-0.963,-0.035,-3.293,0.244,0.915,322.723
136594,151897,38140,0.156,-0.963,-0.035,-3.293,0.244,0.915,322.727
136594,151842,14273,0.157,-0.973,-0.035,-1.768,0.854,0.915,322.733
136592,151897,38140,0.157,-0.973,-0.035,-1.768,0.854,0.915,322.737
136592,151814,14258,0.159,-0.965,-0.042,0,1.402,1.585,322.743
136580,151641,38140,0.159,-0.965,-0.042,0,1.402,1.585,322.747
136580,151796,14262,0.155,-0.964,-0.027,1.951,1.829,1.951,322.753
136563,151897,38140,0.155,-0.964,-0.027,1.951,1.829,1.951,322.757
136563,151824,14253,0.15,-0.955,-0.034,1.951,1.829,1.951,322.763
136568,151641,38140,0.147,-0.947,-0.038,2.744,2.134,1.951,322.766
136568,151796,14269,0.149,-0.941,-0.039,2.744,2.134,1.951,322.773
136538,151641,38140,0.148,-0.94,-0.041,3.293,1.951,2.134,322.776
136538,151784,14288,0.147,-0.943,-0.041,3.293,1.951,2.134,322.782
136519,151641,38140,0.148,-0.943,-0.046,3.354,1.951,1.89,322.786
136519,151792,14273,0.148,-0.939,-0.037,3.354,1.951,1.89,322.792
136518,151641,38140,0.145,-0.943,-0.024,3.293,2.134,2.134,322.796
136518,151745,14261,0.146,-0.945,-0.015,3.293,2.134,2.134,322.802
136488,151641,38140,0.147,-0.943,-0.014,2.988,2.073,2.195,322.806
136488,151730,14275,0.151,-0.945,-0.016,2.988,2.073,2.195,322.812
136463,151641,38140,0.147,-0.951,-0.016,1.951,2.134,2.073,322.816
136463,151710,14250,0.147,-0.959,-0.02,1.951,2.134,2.073,322.822
136417,151641,38140,0.148,-0.963,-0.02,1.341,1.89,1.707,322.826
136417,151699,14270,0.151,-0.963,-0.019,1.341,1.89,1.707,322.832
136397,151641,38140,0.15,-0.959,-0.021,0.854,1.646,1.341,322.836
136397,151698,14261,0.148,-0.958,-0.022,0.854,1.646,1.341,322.842
136420,151641,38140,0.147,-0.958,-0.021,0.915,1.524,1.098,322.846
136420,151697,14259,0.145,-0.958,-0.028,0.915,1.524,1.098,322.852
136412,151641,38140,0.146,-0.959,-0.028,1.037,1.463,0.915,322.855
136412,151675,14257,0.147,-0.959,-0.018,1.037,1.463,0.915,322.862
136407,151641,38140,0.148,-0.954,-0.008,1.159,1.159,0.671,322.865
136407,151678,14241,0.154,-0.944,-0.012,1.159,1.159,0.671,322.872
136406,151641,38140,0.154,-0.943,-0.021,0.976,0.427,0.549,322.875
136406,151685,14269,0.153,-0.945,-0.026,0.976,0.427,0.549,322.881
136423,151641,38140,0.148,-0.952,-0.021,0.671,0.549,0.732,322.885
136423,151665,14264,0.148,-0.946,-0.017,0.671,0.549,0.732,322.891
136421,151641,38140,0.146,-0.938,-0.023,0.366,0.732,0.793,322.895
136421,151689,14272,0.145,-0.943,-0.025,0.366,0.732,0.793,322.901
136414,151641,38140,0.149,-0.947,-0.024,-0.427,0.244,0.854,322.905
136414,151694,14256,0.152,-0.956,-0.03,-0.427,0.244,0.854,322.911
136426,151641,38140,0.151,-0.955,-0.032,-0.366,0.061,0.671,322.915
136426,151696,14258,0.15,-0.954,-0.029,-0.366,0.061,0.671,322.921
136437,151641,38140,0.151,-0.955,-0.023,0.244,0.488,1.037,322.925
136437,151690,14267,0.147,-0.955,-0.015,0.244,0.488,1.037,322.931
136405,151641,38140,0.149,-0.958,-0.015,0.488,0.488,1.159,322.935
136405,151686,14282,0.148,-0.963,-0.008,0.488,0.488,1.159,322.941
136415,151641,38140,0.149,-0.962,-0.011,0.061,0.305,0.976,322.945
136415,151657,14261,0.15,-0.956,-0.026,0.061,0.305,0.976,322.951
136365,151641,38140,0.15,-0.957,-0.035,-0.366,0.183,0.915,322.954
136365,151639,14270,0.147,-0.959,-0.029,-0.366,0.183,0.915,322.961
136371,151641,38140,0.147,-0.951,-0.03,0.61,0.488,0.732,322.964
136371,151665,14253,0.147,-0.944,-0.031,0.61,0.488,0.732,322.971
136380,151641,38140,0.149,-0.943,-0.024,1.098,0.732,0.61,322.974
136380,151637,14262,0.145,-0.946,-0.026,1.098,0.732,0.61,322.98
136376,151641,38140,0.143,-0.944,-0.028,1.402,0.915,0.549,322.984
136376,151640,14265,0.145,-0.942,-0.025,1.402,0.915,0.549,322.99
136399,151641,38140,0.143,-0.947,-0.02,1.22,1.037,0.61,322.994
136399,151640,14286,0.146,-0.95,-0.015,1.22,1.037,0.61,323
136403,151641,38140,0.147,-0.952,-0.015,1.22,0.915,0.488,323.004
136403,151660,14271,0.147,-0.953,-0.005,1.22,0.915,0.488,323.01
136405,151641,38140,0.149,-0.956,-0.004,1.098,0.915,0.488,323.014
136405,151665,14282,0.15,-0.955,-0.011,1.098,0.915,0.488,323.02
136418,151641,38140,0.149,-0.947,-0.018,0.61,0.793,0.671,323.024
136418,151647,14258,0.15,-0.946,-0.029,0.61,0.793,0.671,323.03
136415,151641,38140,0.149,-0.951,-0.028,0.061,0.793,0.854,323.034
136415,151687,14276,0.148,-0.96,-0.023,0.061,0.793,0.854,323.04
136459,151641,38140,0.149,-0.965,-0.018,0.366,0.732,0.549,323.044
136459,151697,14273,0.15,-0.962,-0.019,0.366,0.732,0.549,323.05
136465,151641,38140,0.146,-0.953,-0.019,0.549,0.976,0.427,323.053
136465,151706,14277,0.147,-0.944,-0.02,0.549,0.976,0.427,323.06
136498,151641,38140,0.148,-0.946,-0.017,0.366,0.854,0.793,323.063
136498,151739,14279,0.144,-0.948,-0.016,0.366,0.854,0.793,323.07
136472,151641,38140,0.147,-0.95,-0.02,0.244,0.549,0.732,323.073
136472,151757,14277,0.147,-0.947,-0.022,0.244,0.549,0.732,323.079
136487,151641,38140,0.147,-0.942,-0.014,0.427,0.427,0.854,323.083
136487,151763,14276,0.15,-0.942,-0.015,0.427,0.427,0.854,323.089
136490,151641,38140,0.151,-0.949,-0.014,0,0,0.915,323.093
136490,151739,14277,0.151,-0.951,-0.011,0,0,0.915,323.099
136495,151641,38140,0.148,-0.951,-0.006,-0.366,0,0.915,323.103
136495,151760,14275,0.146,-0.955,-0.006,-0.366,0,0.915,323.109
136483,151641,38140,0.147,-0.951,-0.009,-0.915,0,1.037,323.113
136483,151779,14292,0.145,-0.95,-0.017,-0.915,0,1.037,323.119
136495,151641,38140,0.144,-0.956,-0.026,-1.707,-0.305,0.976,323.123
136495,151767,14279,0.146,-0.962,-0.025,-1.707,-0.305,0.976,323.129
136490,151641,38140,0.147,-0.964,-0.022,-1.341,-0.488,0.732,323.133
136490,151777,14286,0.15,-0.966,-0.027,-1.341,-0.488,0.732,323.139
136501,151641,38140,0.149,-0.965,-0.025,-0.671,-0.427,0.488,323.143
136501,151782,14287,0.144,-0.961,-0.018,-0.671,-0.427,0.488,323.149
136500,151641,38140,0.142,-0.954,-0.014,0.183,0.122,0.488,323.152
136500,151774,14274,0.143,-0.943,-0.018,0.183,0.122,0.488,323.159
136512,151641,38140,0.141,-0.943,-0.018,-0.305,0.183,0.427,323.162
136512,151766,14283,0.146,-0.946,-0.019,-0.305,0.183,0.427,323.168
136489,151641,38140,0.148,-0.945,-0.022,-0.854,-0.305,0.122,323.172
136489,151773,14286,0.145,-0.942,-0.025,-0.854,-0.305,0.122,323.178
136503,151641,38140,0.146,-0.943,-0.028,-0.976,-0.427,0.183,323.182
136503,151772,14281,0.149,-0.948,-0.03,-0.976,-0.427,0.183,323.188
136482,151641,38140,0.149,-0.948,-0.03,-0.976,-0.427,0.183,323.192
136482,151777,14289,0.149,-0.953,-0.026,-0.854,-0.427,0.488,323.198
136495,151641,38140,0.149,-0.953,-0.026,-0.854,-0.427,0.488,323.202
136495,151780,14297,0.151,-0.949,-0.024,-0.549,-0.305,0.732,323.208
136510,151641,38140,0.151,-0.949,-0.024,-0.549,-0.305,0.732,323.212
136510,151784,14291,0.15,-0.955,-0.02,-0.549,-0.122,0.732,323.218
136505,151641,38140,0.15,-0.955,-0.02,-0.549,-0.122,0.732,323.222
136505,151775,14269,0.149,-0.96,-0.017,-0.427,0.183,0.793,323.228
136512,151641,38140,0.149,-0.96,-0.017,-0.427,0.183,0.793,323.232
136512,151807,14295,0.151,-0.953,-0.017,-0.061,0.244,0.732,323.238
136513,151641,38140,0.151,-0.953,-0.017,-0.061,0.244,0.732,323.242
136513,151777,14286,0.15,-0.958,-0.016,0.061,0,0.732,323.248
136539,151897,38140,0.15,-0.958,-0.016,0.061,0,0.732,323.251
136539,151816,14295,0.146,-0.956,-0.026,0,0.183,0.915,323.258
136529,151897,38140,0.146,-0.956,-0.026,0,0.183,0.915,323.261
136529,151813,14276,0.146,-0.95,-0.032,-0.305,0.366,1.159,323.267
136531,151897,38140,0.146,-0.95,-0.032,-0.305,0.366,1.159,323.271
136531,151826,14304,0.138,-0.949,-0.026,0.061,0.183,1.28,323.277
136561,151897,38140,0.138,-0.949,-0.026,0.061,0.183,1.28,323.281
136561,151836,14294,0.134,-0.943,-0.019,0.732,0.61,1.098,323.287
136537,151897,38140,0.134,-0.943,-0.019,0.732,0.61,1.098,323.291
136537,151835,14292,0.144,-0.94,-0.019,0.61,0.61,0.671,323.297
136553,151897,38140,0.144,-0.94,-0.019,0.61,0.61,0.671,323.301
136553,151830,14300,0.141,-0.948,-0.018,0.122,0.305,0.488,323.307
136566,151897,38140,0.141,-0.948,-0.018,0.122,0.305,0.488,323.311
136566,151844,14291,0.142,-0.958,-0.006,-0.305,0.671,0.305,323.317
136560,151897,38140,0.142,-0.958,-0.006,-0.305,0.671,0.305,323.321
136560,151844,14309,0.147,-0.962,-0.012,-0.122,0.488,0.183,323.327
136591,151897,38140,0.147,-0.962,-0.012,-0.122,0.488,0.183,323.331
136591,151877,14291,0.152,-0.964,-0.019,-0.305,0.305,-0.061,323.337
136602,151897,38140,0.148,-0.965,-0.023,-0.305,0.305,-0.061,323.34
136602,151868,14294,0.149,-0.965,-0.026,-0.061,0.427,-0.183,323.347
136619,151897,38140,0.151,-0.962,-0.025,-0.061,0.427,-0.183,323.35
136619,151888,14300,0.152,-0.953,-0.024,0.427,0.61,-0.122,323.357
136603,151897,38140,0.152,-0.949,-0.026,0.427,0.61,-0.122,323.36
136603,151895,14291,0.152,-0.946,-0.03,0.61,0.366,0.122,323.366
136591,151897,38140,0.15,-0.953,-0.026,0.61,0.366,0.122,323.37
136591,151893,14307,0.149,-0.958,-0.027,0.915,0.122,0.183,323.376
136616,151897,38140,0.149,-0.951,-0.023,0.915,0.122,0.183,323.38
136616,151872,14307,0.146,-0.939,-0.025,1.22,0.366,0.366,323.386
136602,151897,38140,0.144,-0.935,-0.028,1.22,0.366,0.366,323.39
136602,151904,14307,0.141,-0.94,-0.025,0.915,0.427,0.915,323.396
136640,151897,38140,0.138,-0.952,-0.017,0.915,0.427,0.915,323.4
136640,151906,14311,0.142,-0.955,-0.01,1.159,0.244,0.793,323.406
136625,151897,38140,0.142,-0.946,-0.004,1.159,0.244,0.793,323.41
136625,151914,14326,0.143,-0.938,-0.02,0.671,0.305,0.61,323.416
136631,151897,38140,0.146,-0.948,-0.022,0.671,0.305,0.61,323.42
136631,151936,14321,0.144,-0.959,-0.019,0.366,-0.122,0.61,323.426
136634,151897,38140,0.143,-0.96,-0.022,0.366,-0.122,0.61,323.43
136634,151920,14324,0.141,-0.954,-0.026,0.305,0.244,0.366,323.436
136622,151897,38140,0.144,-0.952,-0.022,0.305,0.244,0.366,323.439
136622,151923,14318,0.143,-0.956,-0.021,0.366,0.366,0.427,323.446
136640,151897,38140,0.145,-0.96,-0.024,0.366,0.366,0.427,323.449
136640,151916,14316,0.145,-0.959,-0.021,0.976,0.061,0.244,323.456
136620,151897,38140,0.146,-0.952,-0.03,0.976,0.061,0.244,323.459
136620,151898,14318,0.146,-0.955,-0.031,0.976,0.427,0.122,323.465
136629,151897,38140,0.145,-0.954,-0.027,0.976,0.427,0.122,323.469
136629,151942,14305,0.141,-0.955,-0.026,1.402,0.854,0.061,323.475
136622,151897,38140,0.144,-0.954,-0.019,1.402,0.854,0.061,323.479
136622,151933,14318,0.144,-0.953,-0.011,1.89,1.037,-0.122,323.485
136612,151897,38140,0.143,-0.952,-0.008,1.89,1.037,-0.122,323.489
136612,151908,14323,0.147,-0.947,-0.01,1.707,1.037,-0.061,323.495
136625,151897,38140,0.148,-0.944,-0.008,1.707,1.037,-0.061,323.499
136625,151901,14316,0.148,-0.943,-0.012,1.341,0.732,0.122,323.505
136616,151897,38140,0.149,-0.947,-0.011,1.341,0.732,0.122,323.509
136616,151942,14330,0.152,-0.958,-0.012,0.915,0.427,0.122,323.515
136635,151897,38140,0.153,-0.958,-0.012,0.915,0.427,0.122,323.519
136635,151937,14310,0.153,-0.953,-0.02,0.854,0.427,0.244,323.525
136625,151897,38140,0.151,-0.954,-0.019,0.854,0.427,0.244,323.529
136625,151910,14347,0.154,-0.954,-0.016,0.915,0.305,0.366,323.535
136648,151897,38140,0.15,-0.951,-0.022,0.915,0.305,0.366,323.538
136648,151938,14326,0.148,-0.946,-0.023,0.854,0.488,0.61,323.545
136648,151897,38140,0.144,-0.944,-0.025,0.854,0.488,0.61,323.548
136648,151958,14332,0.147,-0.947,-0.017,0.549,0.488,0.915,323.554
136649,151897,38140,0.148,-0.948,-0.01,0.549,0.488,0.915,323.558
136649,151960,14330,0.145,-0.949,-0.006,0.366,0.244,0.854,323.564
136640,151897,38140,0.145,-0.949,-0.01,0.366,0.244,0.854,323.568
136640,151942,14327,0.148,-0.95,-0.025,0,0.183,0.915,323.574
136613,151897,38140,0.148,-0.958,-0.02,0,0.183,0.915,323.578
136613,151920,14332,0.147,-0.964,-0.012,0.183,0.427,0.854,323.584
136617,151897,38140,0.146,-0.958,-0.02,0.183,0.427,0.854,323.588
136617,151903,14333,0.144,-0.951,-0.025,0.427,0.854,0.915,323.594
136596,151897,38140,0.141,-0.951,-0.016,0.427,0.854,0.915,323.598
136596,151899,14337,0.143,-0.953,-0.008,0.549,0.732,0.793,323.604
136574,151897,38140,0.147,-0.949,-0.015,0.549,0.732,0.793,323.608
136574,151884,14328,0.149,-0.948,-0.019,0.061,0.244,0.427,323.614
136581,151897,38140,0.148,-0.951,-0.021,0.061,0.244,0.427,323.618
136581,151907,14323,0.145,-0.957,-0.025,0.061,0.305,0.427,323.624
136573,151897,38140,0.147,-0.96,-0.024,0.061,0.305,0.427,323.628
136573,151904,14330,0.145,-0.958,-0.019,0.854,0.549,0.366,323.634
136604,151897,38140,0.142,-0.951,-0.012,0.854,0.549,0.366,323.637
136604,151896,14318,0.14,-0.944,-0.016,0.976,0.671,0.61,323.644
136603,151897,38140,0.147,-0.949,-0.015,0.976,0.671,0.61,323.647
136603,151918,14324,0.146,-0.957,-0.011,0.488,0.244,0.549,323.653
136617,151897,38140,0.148,-0.956,-0.017,0.488,0.244,0.549,323.657
136617,151926,14312,0.147,-0.952,-0.022,0.732,0.305,0.427,323.663
136589,151897,38140,0.144,-0.948,-0.019,0.732,0.305,0.427,323.667
136589,151917,14321,0.144,-0.949,-0.006,0.854,0.488,0.549,323.673
136601,151897,38140,0.142,-0.951,-0.003,0.854,0.488,0.549,323.677
136601,151911,14310,0.143,-0.958,-0.008,0.549,0.488,0.427,323.683
136585,151897,38140,0.145,-0.96,-0.002,0.549,0.488,0.427,323.687
136585,151906,14330,0.145,-0.953,-0.005,0.061,0.244,0.122,323.693
136592,151897,38140,0.152,-0.951,-0.011,0.061,0.244,0.122,323.697
136592,151914,14317,0.151,-0.944,-0.018,-0.549,0,0.183,323.703
136597,151897,38140,0.146,-0.948,-0.013,-0.549,0,0.183,323.707
136597,151933,14338,0.145,-0.949,-0.011,-0.488,0.183,0.488,323.713
136595,151897,38140,0.148,-0.951,-0.02,-0.488,0.183,0.488,323.717
136595,151889,14323,0.145,-0.951,-0.026,-0.732,0.244,0.549,323.723
136601,151897,38140,0.142,-0.954,-0.018,-0.732,0.244,0.549,323.726
136601,151940,14342,0.145,-0.956,-0.014,-0.244,0.183,0.61,323.733
136589,151897,38140,0.145,-0.952,-0.023,-0.244,0.183,0.61,323.736
136589,151910,14332,0.146,-0.952,-0.023,0.244,0.244,0.488,323.743
136618,151897,38140,0.145,-0.955,-0.021,0.244,0.244,0.488,323.746
136618,151923,14328,0.145,-0.952,-0.023,0.793,0.305,0.427,323.752
136589,151897,38140,0.144,-0.953,-0.017,0.793,0.305,0.427,323.756
136589,151895,14332,0.148,-0.954,-0.017,1.28,0.488,0.305,323.762
136593,151897,38140,0.148,-0.954,-0.017,1.28,0.488,0.305,323.766
136593,151920,14313,0.146,-0.951,-0.003,1.037,0.427,0.122,323.772
136583,151897,38140,0.146,-0.951,-0.003,1.037,0.427,0.122,323.776
136583,151920,14315,0.147,-0.958,-0.01,0.305,0.183,0.366,323.782
136580,151897,38140,0.147,-0.958,-0.01,0.305,0.183,0.366,323.786
136580,151901,14331,0.148,-0.956,-0.009,0.183,0.122,0.366,323.792
136590,151897,38140,0.148,-0.956,-0.009,0.183,0.122,0.366,323.796
136590,151917,14346,0.146,-0.938,-0.016,-0.488,-0.183,0.549,323.802
136607,151897,38140,0.146,-0.938,-0.016,-0.488,-0.183,0.549,323.806
136607,151914,14316,0.14,-0.956,-0.025,-1.037,-0.305,0.671,323.812
136597,151897,38140,0.14,-0.956,-0.025,-1.037,-0.305,0.671,323.816
136597,151944,14324,0.142,-0.956,-0.021,-0.549,-0.244,0.366,323.822
136606,151897,38140,0.142,-0.956,-0.021,-0.549,-0.244,0.366,323.826
136606,151942,14328,0.144,-0.948,-0.025,-0.122,0.061,0.427,323.832
136598,151897,38140,0.144,-0.948,-0.025,-0.122,0.061,0.427,323.835
136598,151925,14332,0.147,-0.955,-0.021,0.427,0.183,0.244,323.842
136587,151897,38140,0.147,-0.955,-0.021,0.427,0.183,0.244,323.845
136587,151901,14335,0.146,-0.96,-0.02,0.976,0.793,-0.122,323.851
136586,151897,38140,0.146,-0.96,-0.02,0.976,0.793,-0.122,323.855
136586,151944,14333,0.147,-0.958,-0.007,1.28,1.098,0,323.861
136594,151897,38140,0.147,-0.958,-0.007,1.28,1.098,0,323.865
136594,151909,14323,0.15,-0.953,0.003,1.159,0.976,0.122,323.871
136586,151897,38140,0.15,-0.953,0.003,1.159,0.976,0.122,323.875
136586,151942,14336,0.144,-0.946,-0.007,0.488,0.732,0.366,323.881
136601,151897,38140,0.144,-0.946,-0.007,0.488,0.732,0.366,323.885
136601,151921,14332,0.143,-0.945,-0.017,-0.244,0.488,0.488,323.891
136599,151897,38140,0.143,-0.945,-0.017,-0.244,0.488,0.488,323.895
136599,151910,14328,0.142,-0.949,-0.007,-0.244,0.244,0.244,323.901
136596,151897,38140,0.142,-0.949,-0.007,-0.244,0.244,0.244,323.905
136596,151936,14330,0.145,-0.942,-0.01,-0.244,0.244,0.244,323.911
136588,151897,38140,0.145,-0.94,-0.018,-0.854,0.122,0.244,323.915
136588,151945,14341,0.145,-0.942,-0.022,-0.854,0.122,0.244,323.921
136589,151897,38140,0.147,-0.947,-0.029,-1.341,-0.122,0.244,323.924
136589,151941,14324,0.147,-0.952,-0.028,-1.341,-0.122,0.244,323.931
136592,151897,38140,0.148,-0.954,-0.024,-1.159,-0.122,0.427,323.934
136592,151942,14342,0.147,-0.955,-0.019,-1.159,-0.122,0.427,323.941
136606,151897,38140,0.15,-0.957,-0.013,-0.366,0.122,0.549,323.944
136606,151957,14341,0.148,-0.96,-0.009,-0.366,0.122,0.549,323.95
136575,151897,38140,0.15,-0.963,-0.016,-0.183,0.427,0.488,323.954
136575,151951,14353,0.149,-0.969,-0.02,-0.183,0.427,0.488,323.96
136599,151897,38140,0.148,-0.976,-0.015,0.183,0.671,0.427,323.964
136599,151928,14334,0.147,-0.974,-0.014,0.183,0.671,0.427,323.97
136593,151897,38140,0.147,-0.97,-0.015,0.854,0.915,0.244,323.974
136593,151927,14339,0.145,-0.963,-0.011,0.854,0.915,0.244,323.98
136581,151897,38140,0.145,-0.955,-0.009,1.28,0.732,0.183,323.984
136581,151954,14349,0.144,-0.949,-0.005,1.28,0.732,0.183,323.99
136598,151897,38140,0.147,-0.945,-0.013,1.098,0.122,0,323.994
136598,151942,14324,0.147,-0.94,-0.029,1.098,0.122,0,324
136606,151897,38140,0.146,-0.941,-0.019,0.671,-0.061,0.061,324.004
136606,151961,14351,0.145,-0.938,-0.009,0.671,-0.061,0.061,324.01
136580,151897,38140,0.141,-0.931,-0.01,0.671,0.061,0.305,324.014
136580,151991,14338,0.141,-0.933,-0.019,0.671,0.061,0.305,324.02
136589,151897,38140,0.141,-0.94,-0.018,-0.183,0,0.427,324.023
136589,151928,14348,0.143,-0.946,-0.015,-0.183,0,0.427,324.03
136594,151897,38140,0.146,-0.949,-0.016,-0.244,-0.183,0.671,324.033
136594,151956,14364,0.144,-0.948,-0.018,-0.244,-0.183,0.671,324.04
136583,151897,38140,0.14,-0.948,-0.014,0,0.244,0.976,324.043
136583,151961,14327,0.14,-0.95,-0.008,0,0.244,0.976,324.049
136582,151897,38140,0.142,-0.958,-0.008,0.183,0.427,1.037,324.053
136582,151953,14357,0.144,-0.958,-0.021,0.183,0.427,1.037,324.059
136602,151897,38140,0.143,-0.968,-0.018,-0.122,0.549,0.488,324.063
136602,151964,14342,0.147,-0.976,-0.01,-0.122,0.549,0.488,324.069
136590,151897,38140,0.148,-0.973,-0.015,0.427,0.61,0,324.073
136590,151961,14335,0.151,-0.967,-0.015,0.427,0.61,0,324.079
136592,151897,38140,0.145,-0.958,-0.012,0.732,0.793,-0.244,324.083
136592,151958,14334,0.147,-0.959,-0.013,0.732,0.793,-0.244,324.089
136585,151897,38140,0.146,-0.957,-0.014,0.793,0.793,-0.305,324.093
136585,151962,14358,0.15,-0.951,-0.017,0.793,0.793,-0.305,324.099
136559,151897,38140,0.149,-0.942,-0.028,0.61,0.549,-0.305,324.103
136559,151969,14349,0.152,-0.94,-0.031,0.61,0.549,-0.305,324.109
136577,151897,38140,0.15,-0.947,-0.025,0.61,0.732,-0.061,324.113
136577,151942,14351,0.144,-0.955,-0.016,0.61,0.732,-0.061,324.119
136552,151897,38140,0.145,-0.95,-0.011,1.707,1.098,0.183,324.122
136552,151942,14346,0.149,-0.945,-0.005,1.707,1.098,0.183,324.129
136565,151897,38140,0.151,-0.944,-0.003,2.012,0.976,0.549,324.132
136565,151957,14350,0.146,-0.943,-0.003,2.012,0.976,0.549,324.139
136563,151897,38140,0.146,-0.942,-0.006,1.402,0.732,0.732,324.142
136563,151940,14362,0.146,-0.947,-0.007,1.402,0.732,0.732,324.148
136546,151897,38140,0.145,-0.948,-0.012,0.549,0.732,0.671,324.152
136546,151939,14347,0.146,-0.95,-0.014,0.549,0.732,0.671,324.158
136552,151897,38140,0.148,-0.95,-0.013,0,0.427,0.732,324.162
136552,151941,14362,0.147,-0.955,-0.006,0,0.427,0.732,324.168
136566,151897,38140,0.147,-0.954,-0.006,-0.122,0.061,0.854,324.172
136566,151943,14342,0.145,-0.949,-0.009,-0.122,0.061,0.854,324.178
136532,151897,38140,0.146,-0.955,-0.012,-0.732,0.366,0.854,324.182
136532,151952,14348,0.143,-0.964,-0.012,-0.732,0.366,0.854,324.188
136538,151897,38140,0.142,-0.958,-0.012,-0.671,0.427,0.549,324.192
136538,151937,14345,0.142,-0.953,-0.017,-0.671,0.427,0.549,324.198
136535,151897,38140,0.142,-0.95,-0.016,-0.671,0.366,0.366,324.202
136535,151908,14346,0.147,-0.945,-0.014,-0.671,0.366,0.366,324.208
136515,151897,38140,0.151,-0.948,-0.018,-0.549,0.366,0.244,324.212
136515,151902,14329,0.146,-0.954,-0.016,-0.549,0.366,0.244,324.218
136491,151897,38140,0.144,-0.956,-0.013,-0.122,0.793,0.122,324.221
136491,151900,14349,0.146,-0.961,-0.009,-0.122,0.793,0.122,324.228
136499,151897,38140,0.147,-0.957,-0.006,0.427,1.098,-0.061,324.231
136499,151878,14329,0.147,-0.95,-0.012,0.427,1.098,-0.061,324.237
136492,151897,38140,0.147,-0.944,-0.018,0.488,1.037,0.244,324.241
136492,151877,14342,0.148,-0.951,-0.013,0.488,1.037,0.244,324.247
136510,151897,38140,0.145,-0.959,-0.008,0.183,0.793,0.061,324.251
136510,151893,14336,0.149,-0.964,-0.008,0.183,0.793,0.061,324.257
136483,151897,38140,0.151,-0.958,-0.006,0.305,0.671,0,324.261
136483,151879,14341,0.151,-0.953,-0.009,0.305,0.671,0,324.267
136490,151897,38140,0.15,-0.951,-0.019,0.244,0.61,0.244,324.271
136490,151872,14336,0.148,-0.951,-0.021,0.244,0.61,0.244,324.277
136490,151897,38140,0.149,-0.952,-0.018,0.305,0.732,0.488,324.281
136490,151901,14351,0.15,-0.95,-0.014,0.305,0.732,0.488,324.287
136481,151897,38140,0.151,-0.953,-0.01,0.793,0.732,0.732,324.291
136481,151898,14342,0.151,-0.951,-0.003,0.793,0.732,0.732,324.297
136488,151897,38140,0.15,-0.947,-0.011,0.732,0.488,1.037,324.301
136488,151885,14335,0.148,-0.951,-0.014,0.732,0.488,1.037,324.307
136492,151897,38140,0.143,-0.958,-0.007,0.488,0.854,1.22,324.31
136492,151879,14344,0.139,-0.957,-0.004,0.488,0.854,1.22,324.317
136466,151897,38140,0.141,-0.952,-0.009,0.671,0.915,0.976,324.32
136466,151882,14333,0.141,-0.954,-0.001,0.671,0.915,0.976,324.327
136470,151897,38140,0.142,-0.957,-0.001,0.427,0.427,0.793,324.33
136470,151869,14330,0.141,-0.954,-0.003,0.427,0.427,0.793,324.336
136455,151897,38140,0.141,-0.954,-0.003,0.427,0.427,0.793,324.34
136455,151864,14313,0.144,-0.953,-0.012,0.305,0.366,0.549,324.346
136488,151897,38140,0.144,-0.953,-0.012,0.305,0.366,0.549,324.35
136488,151864,14344,0.142,-0.942,-0.018,0.061,0.366,0.427,324.356
136459,151897,38140,0.142,-0.942,-0.018,0.061,0.366,0.427,324.36
136459,151850,14338,0.142,-0.958,-0.013,-0.183,0.244,0.427,324.366
136443,151897,38140,0.142,-0.958,-0.013,-0.183,0.244,0.427,324.37
136443,151861,14349,0.141,-0.949,-0.005,0,0.183,0.244,324.376
136478,151897,38140,0.141,-0.949,-0.005,0,0.183,0.244,324.38
136478,151885,14340,0.145,-0.948,-0.009,-0.366,0.366,0.305,324.386
136468,151897,38140,0.145,-0.948,-0.009,-0.366,0.366,0.305,324.39
136468,151904,14332,0.147,-0.952,-0.016,-0.732,0.122,0.366,324.396
136469,151897,38140,0.147,-0.952,-0.016,-0.732,0.122,0.366,324.4
136469,151861,14324,0.147,-0.959,-0.015,-0.671,0.305,0.244,324.406
136466,151897,38140,0.147,-0.959,-0.015,-0.671,0.305,0.244,324.409
136466,151913,14337,0.144,-0.959,-0.007,0,0.671,0.183,324.416
136468,151897,38140,0.144,-0.959,-0.007,0,0.671,0.183,324.419
136468,151892,14346,0.144,-0.956,-0.008,0.427,0.793,0.244,324.426
136475,151897,38140,0.144,-0.956,-0.008,0.427,0.793,0.244,324.429
136475,151893,14335,0.148,-0.959,0.007,0.305,0.305,0.183,324.435
136478,151897,38140,0.148,-0.959,0.007,0.305,0.305,0.183,324.439
136478,151882,14345,0.149,-0.947,-0.003,0,-0.244,-0.122,324.445
136513,151897,38140,0.149,-0.947,-0.003,0,-0.244,-0.122,324.449
136513,151913,14350,0.147,-0.947,-0.017,-1.037,-0.366,-0.061,324.455
136488,151897,38140,0.147,-0.947,-0.017,-1.037,-0.366,-0.061,324.459
136488,151907,14348,0.147,-0.953,-0.019,-1.28,-0.488,-0.122,324.465
136483,151897,38140,0.147,-0.953,-0.019,-1.28,-0.488,-0.122,324.469
136483,151903,14354,0.143,-0.947,-0.01,-0.732,-0.305,-0.183,324.475
136478,151897,38140,0.143,-0.947,-0.01,-0.732,-0.305,-0.183,324.479
136478,151893,14352,0.145,-0.943,-0.009,-0.488,0,0.122,324.485
136508,151897,38140,0.146,-0.94,-0.013,-0.488,0,0.122,324.489
136508,151921,14347,0.147,-0.948,-0.01,-1.098,-0.183,0.366,324.495
136476,151897,38140,0.149,-0.948,-0.007,-1.098,-0.183,0.366,324.499
136476,151905,14347,0.147,-0.942,-0.008,-1.524,-0.061,0.427,324.505
136469,151897,38140,0.146,-0.941,-0.015,-1.524,-0.061,0.427,324.508
136469,151888,14345,0.145,-0.943,-0.019,-1.707,0.061,0.793,324.515
136487,151897,38140,0.144,-0.948,-0.026,-1.707,0.061,0.793,324.518
136487,151912,14341,0.144,-0.955,-0.022,-1.829,0.122,0.793,324.525
136474,151897,38140,0.145,-0.959,-0.016,-1.829,0.122,0.793,324.528
136474,151911,14341,0.145,-0.96,-0.015,-1.098,0.366,0.305,324.534
136480,151897,38140,0.148,-0.958,-0.017,-1.098,0.366,0.305,324.538
136480,151895,14341,0.149,-0.959,-0.02,-0.793,0.732,0.366,324.544
136482,151897,38140,0.147,-0.965,-0.016,-0.793,0.732,0.366,324.548
136482,151937,14343,0.145,-0.969,-0.018,0,0.854,0.366,324.554
136501,151897,38140,0.145,-0.966,-0.016,0,0.854,0.366,324.558
136501,151907,14355,0.146,-0.96,-0.017,0.671,1.098,-0.061,324.564
136495,151897,38140,0.146,-0.956,-0.018,0.671,1.098,-0.061,324.568
136495,151903,14336,0.147,-0.957,-0.013,1.037,1.098,0,324.574
136514,151897,38140,0.147,-0.957,-0.007,1.037,1.098,0,324.578
136514,151911,14339,0.15,-0.956,-0.007,1.159,0.793,-0.122,324.584
136506,151897,38140,0.15,-0.954,-0.005,1.159,0.793,-0.122,324.588
136506,151922,14350,0.149,-0.954,-0.015,1.037,0.671,0,324.594
136518,151897,38140,0.153,-0.95,-0.017,1.037,0.671,0,324.598
136518,151927,14369,0.149,-0.955,-0.016,1.098,0.671,0.244,324.604
136522,151897,38140,0.149,-0.955,-0.012,1.098,0.671,0.244,324.607
136522,151936,14352,0.15,-0.952,-0.012,1.463,0.732,0.305,324.614
136539,151897,38140,0.145,-0.953,-0.01,1.463,0.732,0.305,324.617
136539,151940,14336,0.144,-0.952,-0.006,1.524,0.915,0.549,324.624
136539,151897,38140,0.145,-0.952,-0.006,1.524,0.915,0.549,324.627
136539,151937,14347,0.147,-0.955,-0.004,1.524,0.61,0.549,324.633
136534,151897,38140,0.142,-0.954,-0.005,1.524,0.61,0.549,324.637
136534,151956,14361,0.145,-0.948,-0.008,1.22,0.427,0.61,324.643
136500,151897,38140,0.142,-0.949,-0.01,1.22,0.427,0.61,324.647
136500,151967,14360,0.14,-0.952,-0.011,0.915,0.427,0.427,324.653
136517,151897,38140,0.142,-0.956,-0.011,0.915,0.427,0.427,324.657
136517,151955,14356,0.143,-0.957,-0.012,0.793,0.366,0.122,324.663
136516,151897,38140,0.142,-0.953,-0.013,0.793,0.366,0.122,324.667
136516,151924,14362,0.146,-0.946,-0.013,0.915,0.671,0.122,324.673
136529,151897,38140,0.146,-0.943,-0.004,0.915,0.671,0.122,324.677
136529,151985,14353,0.147,-0.941,-0.012,1.037,0.488,0.366,324.683
136525,151897,38140,0.145,-0.943,-0.015,1.037,0.488,0.366,324.687
136525,151952,14361,0.142,-0.945,-0.007,0.671,0.549,0.427,324.693
136527,151897,38140,0.141,-0.948,-0.002,0.671,0.549,0.427,324.697
136527,151967,14373,0.146,-0.948,-0.003,0.549,0.61,0.366,324.703
136528,151897,38140,0.144,-0.951,0.002,0.549,0.61,0.366,324.706
136528,151981,14364,0.144,-0.95,0.007,-0.061,0.305,0.305,324.713
136506,151897,38140,0.145,-0.948,0.006,-0.061,0.305,0.305,324.716
136506,151942,14358,0.145,-0.953,-0,-0.976,-0.244,0.244,324.723
136502,151897,38140,0.143,-0.963,-0.005,-0.976,-0.244,0.244,324.726
136502,151955,14370,0.143,-0.968,-0.008,-1.402,-0.488,0.122,324.732
136524,151897,38140,0.148,-0.968,-0.012,-1.402,-0.488,0.122,324.736
136524,151948,14359,0.151,-0.968,-0.02,-0.915,-0.244,-0.183,324.742
136533,151897,38140,0.15,-0.968,-0.017,-0.915,-0.244,-0.183,324.746
136533,151966,14380,0.152,-0.963,-0.012,0.122,-0.061,-0.305,324.752
136507,151897,38140,0.151,-0.961,-0.011,0.122,-0.061,-0.305,324.756
136507,151958,14377,0.151,-0.956,-0.001,1.341,0.305,-0.305,324.762
136529,151897,38140,0.148,-0.934,-0.006,1.341,0.305,-0.305,324.766
136529,151974,14352,0.141,-0.925,-0.004,0.915,0.488,0.244,324.772
136512,151897,38140,0.142,-0.934,-0.01,0.915,0.488,0.244,324.776
136512,151950,14349,0.145,-0.951,-0.006,0.305,0.183,0.244,324.782
136516,151897,38140,0.146,-0.952,-0.008,0.305,0.183,0.244,324.786
136516,151966,14371,0.147,-0.952,-0.011,0.061,0.061,0.122,324.792
136517,151897,38140,0.146,-0.95,-0.002,0.061,0.061,0.122,324.796
136517,151939,14380,0.149,-0.939,-0.005,0.061,0.061,0.366,324.802
136518,151897,38140,0.147,-0.946,-0.005,0.061,0.061,0.366,324.805
136518,151941,14357,0.147,-0.953,-0.009,-0.183,0.061,0.549,324.812
136477,151897,38140,0.147,-0.957,-0.01,-0.183,0.061,0.549,324.815
136477,151924,14347,0.147,-0.957,-0.012,-0.549,0.183,0.427,324.822
136486,151897,38140,0.147,-0.958,-0.016,-0.549,0.183,0.427,324.825
136486,151926,14374,0.15,-0.958,-0.015,-0.793,0.122,0.427,324.831
136495,151897,38140,0.151,-0.958,-0.014,-0.793,0.122,0.427,324.835
136495,151937,14349,0.149,-0.958,-0.016,-0.305,0.244,0.427,324.841
136495,151897,38140,0.149,-0.96,-0.012,-0.305,0.244,0.427,324.845
136495,151903,14362,0.146,-0.963,-0.005,0.488,0.61,0.244,324.851
136482,151897,38140,0.144,-0.958,-0.002,0.488,0.61,0.244,324.855
136482,151895,14346,0.144,-0.947,-0.001,0.793,0.671,0.305,324.861
136478,151897,38140,0.145,-0.946,-0.002,0.793,0.671,0.305,324.865
136478,151919,14365,0.147,-0.948,-0.006,0.549,0.122,0.244,324.871
136473,151897,38140,0.148,-0.954,-0.012,0.549,0.122,0.244,324.875
136473,151950,14359,0.145,-0.952,-0.017,0.549,0.305,0.061,324.881
136495,151897,38140,0.145,-0.949,-0.021,0.549,0.305,0.061,324.885
136495,151925,14366,0.148,-0.952,-0.021,0.976,0.854,0.183,324.891
136475,151897,38140,0.144,-0.961,-0.014,0.976,0.854,0.183,324.895
136475,151946,14349,0.145,-0.958,-0.003,1.951,0.854,0.122,324.901
136498,151897,38140,0.148,-0.945,-0.008,1.951,0.854,0.122,324.904
136498,151924,14375,0.145,-0.933,-0.006,1.646,1.22,0.488,324.911
136504,151897,38140,0.139,-0.933,-0.006,1.646,1.22,0.488,324.914
136504,151945,14359,0.143,-0.942,-0.002,0.793,0.976,0.976,324.921
136480,151897,38140,0.143,-0.942,-0.002,0.793,0.976,0.976,324.924
136480,151930,14376,0.146,-0.946,0.01,-0.122,0.366,0.793,324.93
136496,151897,38140,0.146,-0.946,0.01,-0.122,0.366,0.793,324.934
136496,151963,14354,0.142,-0.944,-0.007,-1.402,0.183,0.854,324.94
136496,151897,38140,0.142,-0.944,-0.007,-1.402,0.183,0.854,324.944
136496,151944,14358,0.144,-0.97,-0.011,-2.134,-0.061,0.793,324.95
136496,151897,38140,0.144,-0.97,-0.011,-2.134,-0.061,0.793,324.954
136496,151962,14358,0.144,-0.971,-0.016,-1.098,0.244,0.305,324.96
136520,151897,38140,0.144,-0.971,-0.016,-1.098,0.244,0.305,324.964
136520,151943,14361,0.147,-0.962,-0.017,-0.305,0.427,0.122,324.97
136515,151897,38140,0.147,-0.962,-0.017,-0.305,0.427,0.122,324.974
136515,151927,14358,0.151,-0.959,-0.003,0.793,0.549,-0.305,324.98
136487,151897,38140,0.151,-0.959,-0.003,0.793,0.549,-0.305,324.984
136487,151898,14372,0.146,-0.949,-0.002,0.915,0.549,-0.549,324.99
136469,151897,38140,0.146,-0.949,-0.002,0.915,0.549,-0.549,324.993
136469,151928,14356,0.152,-0.943,0.001,0.549,0.183,-0.305,325
136505,151897,38140,0.152,-0.943,0.001,0.549,0.183,-0.305,325.003
136505,151930,14361,0.146,-0.94,0.012,-0.244,-0.244,-0.061,325.01
136492,151897,38140,0.146,-0.94,0.012,-0.244,-0.244,-0.061,325.013
136492,151925,14371,0.147,-0.946,-0.004,-1.463,-0.732,0.244,325.019
136490,151897,38140,0.147,-0.946,-0.004,-1.463,-0.732,0.244,325.023
136490,151915,14364,0.147,-0.949,-0.016,-2.622,-0.915,0.305,325.029
136492,151897,38140,0.147,-0.949,-0.016,-2.622,-0.915,0.305,325.033
136492,151914,14366,0.143,-0.957,-0.01,-2.683,-0.976,0.305,325.039
136474,151897,38140,0.143,-0.957,-0.01,-2.683,-0.976,0.305,325.043
136474,151924,14354,0.146,-0.953,-0.023,-2.439,-0.854,0.244,325.049
136468,151897,38140,0.146,-0.953,-0.023,-2.439,-0.854,0.244,325.053
136468,151907,14360,0.148,-0.967,-0.017,-1.89,-0.732,0,325.059
136475,151897,38140,0.148,-0.967,-0.017,-1.89,-0.732,0,325.063
136475,151924,14364,0.146,-0.966,-0.019,-1.89,-0.732,0,325.069
136466,151897,38140,0.144,-0.953,-0.017,-1.159,-0.244,-0.183,325.073
136466,151909,14355,0.149,-0.948,-0.018,-1.159,-0.244,-0.183,325.079
136450,151897,38140,0.149,-0.949,-0.015,-0.427,-0.122,-0.183,325.083
136450,151916,14343,0.152,-0.95,-0.009,-0.427,-0.122,-0.183,325.089
136462,151897,38140,0.151,-0.949,-0.008,0.122,0,-0.244,325.092
136462,151897,14368,0.15,-0.949,-0.005,0.122,0,-0.244,325.099
136469,151897,38140,0.156,-0.945,-0.006,-0.244,0.244,0.183,325.102
136469,151905,14366,0.158,-0.944,-0.009,-0.244,0.244,0.183,325.109
136461,151897,38140,0.153,-0.947,-0.014,-0.61,0.305,0.671,325.112
136461,151933,14363,0.152,-0.948,-0.021,-0.61,0.305,0.671,325.118
136455,151897,38140,0.148,-0.951,-0.025,-0.366,0.488,1.098,325.122
136455,151899,14361,0.145,-0.955,-0.016,-0.366,0.488,1.098,325.128
136444,151897,38140,0.145,-0.953,-0.011,0.183,0.793,1.28,325.132
136444,151911,14367,0.143,-0.949,-0.009,0.183,0.793,1.28,325.138
136466,151897,38140,0.144,-0.955,-0.008,0.488,0.976,1.098,325.142
136466,151936,14364,0.145,-0.957,-0.011,0.488,0.976,1.098,325.148
136464,151897,38140,0.143,-0.961,-0.017,0.305,1.28,0.732,325.152
136464,151926,14356,0.144,-0.959,-0.016,0.305,1.28,0.732,325.158
136500,151897,38140,0.146,-0.959,-0.011,0.61,1.402,0.427,325.162
136500,151941,14368,0.145,-0.958,-0.011,0.61,1.402,0.427,325.168
136504,151897,38140,0.149,-0.955,-0.01,1.341,1.463,0.244,325.172
136504,151946,14365,0.153,-0.952,-0.01,1.341,1.463,0.244,325.178
136486,151897,38140,0.15,-0.956,-0.011,1.829,1.524,0.244,325.182
136486,151939,14362,0.15,-0.955,-0.007,1.829,1.524,0.244,325.188
136482,151897,38140,0.151,-0.954,-0.009,2.195,1.646,0.305,325.191
136482,151937,14361,0.148,-0.953,-0.009,2.195,1.646,0.305,325.198
136484,151897,38140,0.15,-0.953,-0.009,2.195,1.463,0.427,325.201
136484,151954,14369,0.151,-0.951,-0.004,2.195,1.463,0.427,325.208
136488,151897,38140,0.15,-0.944,-0.009,1.951,1.098,0.671,325.211
136488,151942,14366,0.146,-0.944,-0.011,1.951,1.098,0.671,325.217
136462,151897,38140,0.145,-0.947,-0.008,1.585,1.037,1.037,325.221
136462,151930,14354,0.148,-0.952,-0.003,1.585,1.037,1.037,325.227
136496,151897,38140,0.144,-0.95,-0.001,1.28,0.793,1.098,325.231
136496,151931,14358,0.144,-0.952,-0.002,1.28,0.793,1.098,325.237
136483,151897,38140,0.142,-0.953,-0.001,0.793,0.61,1.159,325.241
136483,151964,14361,0.142,-0.957,-0.004,0.793,0.61,1.159,325.247
136498,151897,38140,0.14,-0.957,-0.001,0.793,0.671,1.098,325.251
136498,151915,14354,0.138,-0.954,-0.002,0.793,0.671,1.098,325.257
136454,151897,38140,0.14,-0.956,-0.001,0.488,0.61,0.915,325.261
