135756,151009,13494,0.056,-0.973,-0.103,-1.646,0.183,0.305,38.406
135744,150873,38140,0.057,-0.973,-0.1,-0.244,0.244,-0.244,38.41
135744,151014,13492,0.053,-0.964,-0.102,-0.244,0.244,-0.244,38.416
135742,150873,38140,0.052,-0.958,-0.102,0.854,0.244,-0.427,38.42
135742,150994,13495,0.048,-0.954,-0.097,0.854,0.244,-0.427,38.426
135783,150873,38140,0.052,-0.955,-0.091,1.28,0.122,-0.427,38.43
135783,151034,13496,0.054,-0.955,-0.085,1.28,0.122,-0.427,38.436
135773,151129,38140,0.052,-0.956,-0.085,1.098,-0.061,-0.244,38.44
135773,151057,13499,0.051,-0.951,-0.092,1.098,-0.061,-0.244,38.446
135803,151129,38140,0.05,-0.947,-0.095,-0.183,0.061,-0.244,38.45
135803,151049,13509,0.05,-0.947,-0.101,-0.183,0.061,-0.244,38.456
135774,150873,38140,0.054,-0.96,-0.101,-0.793,0.122,0.061,38.459
135774,151025,13514,0.053,-0.967,-0.095,-0.793,0.122,0.061,38.466
135768,151129,38140,0.052,-0.966,-0.098,-0.488,0,-0.244,38.469
135768,151059,13493,0.052,-0.96,-0.108,-0.488,0,-0.244,38.476
135768,150873,38140,0.054,-0.954,-0.109,-0.793,0.427,-0.122,38.479
135768,151039,13514,0.057,-0.954,-0.112,-0.793,0.427,-0.122,38.485
135787,151129,38140,0.055,-0.955,-0.122,-0.488,0.671,0.061,38.489
135787,151054,13506,0.062,-0.954,-0.118,-0.488,0.671,0.061,38.495
135784,151129,38140,0.063,-0.953,-0.109,0.061,0.671,0.122,38.499
135784,151045,13511,0.056,-0.951,-0.105,0.061,0.671,0.122,38.505
135781,151129,38140,0.053,-0.951,-0.099,0.244,0.915,0.305,38.509
135781,151047,13511,0.052,-0.957,-0.089,0.244,0.915,0.305,38.515
135766,151129,38140,0.049,-0.962,-0.088,-0.122,1.037,0.061,38.519
135766,151066,13504,0.05,-0.966,-0.09,-0.122,1.037,0.061,38.525
135790,151129,38140,0.055,-0.968,-0.088,-0.244,0.915,0,38.529
135790,151084,13534,0.058,-0.975,-0.086,-0.244,0.915,0,38.535
135824,151129,38140,0.06,-0.973,-0.086,1.037,0.732,-0.305,38.539
135824,151095,13516,0.06,-0.967,-0.085,1.037,0.732,-0.305,38.545
135836,151129,38140,0.059,-0.954,-0.095,1.524,0.732,-0.244,38.549
135836,151085,13523,0.061,-0.941,-0.1,1.524,0.732,-0.244,38.555
135800,151129,38140,0.058,-0.937,-0.1,0.488,0.488,-0.183,38.558
135800,151072,13517,0.058,-0.942,-0.099,0.488,0.488,-0.183,38.565
135800,151129,38140,0.053,-0.947,-0.11,-0.854,0.244,-0.183,38.568
135800,151094,13527,0.055,-0.967,-0.11,-0.854,0.244,-0.183,38.575
135799,151129,38140,0.053,-0.976,-0.099,-0.732,0.488,-0.244,38.578
135799,151068,13518,0.051,-0.974,-0.093,-0.732,0.488,-0.244,38.584
135802,151129,38140,0.053,-0.967,-0.103,0.061,0.732,-0.122,38.588
135802,151081,13512,0.054,-0.964,-0.107,0.061,0.732,-0.122,38.594
135820,151129,38140,0.054,-0.964,-0.107,0.061,0.732,-0.122,38.598
135820,151072,13533,0.057,-0.951,-0.101,1.768,0.732,0.061,38.604
135821,151129,38140,0.057,-0.951,-0.101,1.768,0.732,0.061,38.608
135821,151128,13522,0.054,-0.947,-0.096,2.134,0.427,0.061,38.614
135835,151129,38140,0.054,-0.947,-0.096,2.134,0.427,0.061,38.618
135835,151102,13539,0.056,-0.953,-0.106,1.098,0.427,0.122,38.624
135884,151129,38140,0.056,-0.953,-0.106,1.098,0.427,0.122,38.628
135884,151117,13538,0.058,-0.947,-0.093,-1.098,0.244,0,38.634
135887,151129,38140,0.058,-0.947,-0.093,-1.098,0.244,0,38.638
135887,151133,13546,0.047,-0.958,-0.067,-3.354,0.122,0,38.644
135905,151129,38140,0.047,-0.958,-0.067,-3.354,0.122,0,38.648
135905,151173,13550,0.054,-0.96,-0.091,-3.78,0.122,0.122,38.654
135910,151129,38140,0.054,-0.96,-0.091,-3.78,0.122,0.122,38.657
135910,151134,13547,0.068,-0.965,-0.094,-1.89,-0.305,0.366,38.664
135896,151129,38140,0.068,-0.965,-0.094,-1.89,-0.305,0.366,38.667
135896,151178,13557,0.061,-0.944,-0.103,1.463,-0.366,0.305,38.674
135903,151129,38140,0.061,-0.944,-0.103,1.463,-0.366,0.305,38.677
135903,151114,13545,0.058,-0.938,-0.102,1.463,0.183,0.976,38.683
135846,151129,38140,0.058,-0.938,-0.102,1.463,0.183,0.976,38.687
135846,151114,13544,0.06,-0.963,-0.12,-0.854,0.244,1.22,38.693
135858,151129,38140,0.06,-0.963,-0.12,-0.854,0.244,1.22,38.697
135858,151100,13545,0.06,-0.973,-0.1,-3.598,0.061,0.915,38.703
135832,151129,38140,0.06,-0.973,-0.1,-3.598,0.061,0.915,38.707
135832,151066,13530,0.056,-0.978,-0.09,-3.72,0.183,0.915,38.713
135828,151129,38140,0.056,-0.978,-0.09,-3.72,0.183,0.915,38.717
135828,151082,13513,0.049,-0.979,-0.085,-1.159,0.61,0.976,38.723
135838,151129,38140,0.049,-0.979,-0.085,-1.159,0.61,0.976,38.727
135838,151074,13532,0.055,-0.961,-0.085,1.22,0.976,0.183,38.733
135840,151129,38140,0.055,-0.961,-0.085,1.22,0.976,0.183,38.737
135840,151120,13528,0.056,-0.95,-0.081,1.707,0.61,-0.366,38.743
135843,151129,38140,0.057,-0.943,-0.075,1.707,0.61,-0.366,38.747
135843,151096,13526,0.055,-0.935,-0.075,0.366,0.061,-0.549,38.753
135875,151129,38140,0.058,-0.93,-0.1,0.366,0.061,-0.549,38.756
135875,151152,13561,0.06,-0.929,-0.112,-2.378,-0.61,0.061,38.763
135849,151129,38140,0.064,-0.928,-0.104,-2.378,-0.61,0.061,38.766
135849,151113,13543,0.068,-0.928,-0.104,-3.78,-1.159,0.732,38.773
135853,151129,38140,0.063,-0.934,-0.115,-3.78,-1.159,0.732,38.776
135853,151086,13544,0.053,-0.945,-0.124,-3.963,-0.854,1.037,38.782
135844,151129,38140,0.046,-0.958,-0.117,-3.963,-0.854,1.037,38.786
135844,151073,13544,0.044,-0.974,-0.106,-3.598,-0.488,1.341,38.792
135840,151129,38140,0.046,-0.985,-0.1,-3.598,-0.488,1.341,38.796
135840,151100,13549,0.046,-0.99,-0.105,-2.622,-0.671,0.915,38.802
135884,151129,38140,0.05,-0.99,-0.096,-2.622,-0.671,0.915,38.806
135884,151121,13534,0.049,-0.984,-0.097,-1.22,-0.122,0.549,38.812
135846,151129,38140,0.052,-0.974,-0.09,-1.22,-0.122,0.549,38.816
135846,151147,13551,0.053,-0.962,-0.089,0.183,0.061,0.671,38.822
135861,151129,38140,0.055,-0.951,-0.101,0.183,0.061,0.671,38.826
135861,151127,13545,0.058,-0.949,-0.106,1.22,0,0.61,38.832
135870,151129,38140,0.061,-0.954,-0.098,1.22,0,0.61,38.836
135870,151113,13557,0.062,-0.95,-0.094,1.402,-0.122,0.183,38.842
135857,151129,38140,0.06,-0.941,-0.103,1.402,-0.122,0.183,38.846
135857,151154,13553,0.057,-0.945,-0.106,0.488,0,0.244,38.852
135867,151129,38140,0.05,-0.952,-0.093,0.488,0,0.244,38.855
135867,151116,13545,0.051,-0.955,-0.095,0.427,0.244,0.366,38.862
135808,151129,38140,0.054,-0.952,-0.105,0.427,0.244,0.366,38.865
135808,151084,13567,0.058,-0.953,-0.109,-0.122,0.061,0.366,38.872
135781,151129,38140,0.054,-0.96,-0.108,-0.122,0.061,0.366,38.875
135781,151080,13550,0.049,-0.965,-0.107,-0.183,0.244,0.122,38.881
135749,150873,38140,0.049,-0.965,-0.099,-0.183,0.244,0.122,38.885
135749,151027,13544,0.047,-0.958,-0.098,-1.037,0.366,0.305,38.891
135722,150873,38140,0.047,-0.959,-0.096,-1.037,0.366,0.305,38.895
135722,150987,13527,0.051,-0.96,-0.1,-0.915,0.122,0.427,38.901
135697,150873,38140,0.056,-0.952,-0.102,-0.915,0.122,0.427,38.905
135697,151016,13527,0.058,-0.946,-0.103,-0.61,0,0.366,38.911
135667,150873,38140,0.056,-0.943,-0.097,-0.61,0,0.366,38.915
135667,151014,13532,0.056,-0.946,-0.097,-1.28,0.122,0.549,38.921
135665,150873,38140,0.054,-0.948,-0.095,-1.28,0.122,0.549,38.925
135665,150999,13513,0.053,-0.95,-0.096,-2.439,-0.061,0.61,38.931
135699,150873,38140,0.058,-0.952,-0.1,-2.439,-0.061,0.61,38.935
135699,151019,13531,0.06,-0.962,-0.105,-3.537,-0.366,0.793,38.941
135732,150873,38140,0.06,-0.973,-0.104,-3.537,-0.366,0.793,38.945
135732,151016,13538,0.053,-0.975,-0.103,-2.744,0,0.488,38.951
135725,151129,38140,0.047,-0.971,-0.099,-2.744,0,0.488,38.954
135725,151044,13532,0.043,-0.97,-0.099,-1.951,0.671,0.549,38.961
135724,151129,38140,0.047,-0.971,-0.105,-1.951,0.671,0.549,38.964
135724,151055,13550,0.055,-0.965,-0.114,-0.244,0.671,0.061,38.971
135713,150873,38140,0.061,-0.954,-0.124,-0.244,0.671,0.061,38.974
135713,151029,13536,0.066,-0.942,-0.117,0.488,0.549,-0.488,38.98
135632,150873,38140,0.065,-0.945,-0.107,0.488,0.549,-0.488,38.984
135632,150962,13535,0.057,-0.953,-0.101,0.183,0.732,-0.671,38.99
135591,150873,38140,0.052,-0.952,-0.098,0.183,0.732,-0.671,38.994
135591,150933,13515,0.054,-0.951,-0.104,-1.098,0.671,-0.122,39
135566,150873,38140,0.058,-0.955,-0.099,-1.098,0.671,-0.122,39.004
135566,150948,13537,0.063,-0.953,-0.086,-1.341,0.305,0.366,39.01
135583,150873,38140,0.065,-0.944,-0.097,-1.341,0.305,0.366,39.014
135583,150934,13527,0.061,-0.943,-0.102,-0.793,0.244,0.915,39.02
135581,150873,38140,0.056,-0.95,-0.093,-0.793,0.244,0.915,39.024
135581,150931,13526,0.051,-0.964,-0.101,0.732,0.122,1.463,39.03
135589,150873,38140,0.057,-0.971,-0.113,0.732,0.122,1.463,39.034
135589,150928,13539,0.055,-0.968,-0.116,1.22,0.061,1.22,39.04
135620,150873,38140,0.056,-0.969,-0.109,1.22,0.061,1.22,39.044
135620,150949,13528,0.059,-0.972,-0.11,1.402,0.183,1.037,39.05
135603,150873,38140,0.058,-0.972,-0.113,1.402,0.183,1.037,39.053
135603,150936,13529,0.055,-0.973,-0.099,1.768,0.488,0.61,39.06
135608,150873,38140,0.053,-0.968,-0.099,1.768,0.488,0.61,39.063
135608,150955,13518,0.056,-0.956,-0.103,1.22,0.915,0.366,39.069
135601,150873,38140,0.056,-0.951,-0.093,1.22,0.915,0.366,39.073
135601,150959,13546,0.053,-0.954,-0.089,0.61,0.915,0.122,39.079
135603,150873,38140,0.052,-0.958,-0.093,0.61,0.915,0.122,39.083
135603,150967,13521,0.051,-0.953,-0.096,0.488,0.732,0.122,39.089
135585,150873,38140,0.051,-0.947,-0.1,0.488,0.732,0.122,39.093
135585,150952,13515,0.051,-0.939,-0.1,-0.366,0.427,0.671,39.099
135571,150873,38140,0.051,-0.94,-0.1,-0.366,0.427,0.671,39.103
135571,150943,13536,0.054,-0.942,-0.103,-0.732,0,0.732,39.109
135580,150873,38140,0.058,-0.947,-0.105,-0.732,0,0.732,39.113
135580,150930,13532,0.059,-0.955,-0.104,-1.707,-0.488,0.915,39.119
135576,150873,38140,0.056,-0.962,-0.118,-1.707,-0.488,0.915,39.123
135576,150928,13539,0.058,-0.966,-0.118,-2.073,-0.854,1.098,39.129
135542,150873,38140,0.059,-0.972,-0.11,-2.073,-0.854,1.098,39.133
135542,150940,13525,0.06,-0.971,-0.104,-0.976,-0.549,0.976,39.139
135542,150873,38140,0.062,-0.967,-0.1,-0.976,-0.549,0.976,39.143
135542,150937,13529,0.063,-0.962,-0.104,-0.305,-0.183,0.854,39.149
135555,150873,38140,0.058,-0.959,-0.116,-0.305,-0.183,0.854,39.152
135555,150947,13547,0.058,-0.958,-0.113,0.366,0.183,0.61,39.159
135583,150873,38140,0.06,-0.957,-0.108,0.366,0.183,0.61,39.162
135583,150970,13538,0.055,-0.96,-0.095,0.549,0.488,0.427,39.168
135586,150873,38140,0.049,-0.958,-0.1,0.549,0.488,0.427,39.172
135586,150966,13549,0.045,-0.951,-0.112,-0.122,0.488,0.671,39.178
135623,150873,38140,0.045,-0.951,-0.112,-0.122,0.488,0.671,39.182
135623,150982,13555,0.045,-0.962,-0.096,0.732,0.671,1.037,39.188
135630,150873,38140,0.045,-0.962,-0.096,0.732,0.671,1.037,39.192
135630,150998,13561,0.052,-0.943,-0.105,1.037,0.671,0.488,39.198
135655,150873,38140,0.052,-0.943,-0.105,1.037,0.671,0.488,39.202
135655,151006,13549,0.052,-0.938,-0.095,0.305,0.61,0.732,39.208
135655,150873,38140,0.052,-0.938,-0.095,0.305,0.61,0.732,39.212
135655,151027,13554,0.054,-0.951,-0.102,-0.488,0.305,0.976,39.218
135695,150873,38140,0.054,-0.951,-0.102,-0.488,0.305,0.976,39.222
135695,151032,13564,0.057,-0.967,-0.091,-0.366,0.366,0.854,39.228
135647,150873,38140,0.057,-0.967,-0.091,-0.366,0.366,0.854,39.232
135647,151017,13559,0.05,-0.963,-0.084,-1.22,0.671,0.793,39.238
135675,150873,38140,0.05,-0.963,-0.084,-1.22,0.671,0.793,39.242
135675,151016,13549,0.053,-0.961,-0.093,-1.768,0.427,0.793,39.248
135705,150873,38140,0.053,-0.961,-0.093,-1.768,0.427,0.793,39.251
135705,151034,13568,0.057,-0.969,-0.09,-2.195,0.122,0.305,39.258
135714,151129,38140,0.057,-0.969,-0.09,-2.195,0.122,0.305,39.261
135714,151043,13560,0.053,-0.96,-0.096,-2.378,0.183,0.061,39.267
135708,151129,38140,0.053,-0.96,-0.096,-2.378,0.183,0.061,39.271
135708,151068,13584,0.055,-0.952,-0.101,-2.256,-0.061,0.305,39.277
135714,150873,38140,0.055,-0.952,-0.101,-2.256,-0.061,0.305,39.281
135714,151037,13575,0.05,-0.953,-0.111,-1.402,-0.427,0.183,39.287
135662,150873,38140,0.05,-0.953,-0.111,-1.402,-0.427,0.183,39.291
135662,151013,13573,0.055,-0.959,-0.116,-1.098,-0.549,0.427,39.297
135673,150873,38140,0.055,-0.959,-0.116,-1.098,-0.549,0.427,39.301
135673,151034,13560,0.051,-0.966,-0.125,0.427,-0.244,0.305,39.307
135675,150873,38140,0.051,-0.966,-0.125,0.427,-0.244,0.305,39.311
135675,151019,13572,0.045,-0.965,-0.1,0.427,-0.244,0.305,39.317
135655,150873,38140,0.045,-0.955,-0.099,1.22,0.244,0,39.321
135655,150997,13554,0.044,-0.946,-0.103,1.22,0.244,0,39.327
135638,150873,38140,0.045,-0.942,-0.104,-0.366,0.366,0.305,39.331
135638,151000,13573,0.048,-0.952,-0.093,-0.366,0.366,0.305,39.337
135625,150873,38140,0.049,-0.957,-0.092,-1.159,0.061,0.427,39.341
135625,150999,13564,0.053,-0.954,-0.095,-1.159,0.061,0.427,39.347
135636,150873,38140,0.053,-0.952,-0.097,-1.646,0.061,0.366,39.35
135636,150980,13570,0.052,-0.95,-0.096,-1.646,0.061,0.366,39.357
135606,150873,38140,0.057,-0.945,-0.104,-1.341,0.122,0.793,39.36
135606,150972,13559,0.06,-0.944,-0.113,-1.341,0.122,0.793,39.366
135603,150873,38140,0.061,-0.947,-0.117,-1.28,0.122,0.671,39.37
135603,150989,13563,0.059,-0.96,-0.108,-1.28,0.122,0.671,39.376
135643,150873,38140,0.054,-0.967,-0.104,-0.732,0.549,0.488,39.38
135643,150992,13575,0.051,-0.968,-0.108,-0.732,0.549,0.488,39.386
135657,150873,38140,0.053,-0.965,-0.115,-0.671,0.61,0.793,39.39
135657,151024,13572,0.054,-0.964,-0.109,-0.671,0.61,0.793,39.396
135693,151129,38140,0.055,-0.964,-0.1,-0.366,0.549,0.793,39.4
135693,151057,13578,0.05,-0.962,-0.097,-0.366,0.549,0.793,39.406
135699,151129,38140,0.045,-0.96,-0.092,-0.488,0.427,0.488,39.41
135699,151040,13583,0.043,-0.968,-0.094,-0.488,0.427,0.488,39.416
135702,151129,38140,0.047,-0.973,-0.094,-0.183,0.366,0,39.42
135702,151043,13590,0.055,-0.966,-0.097,-0.183,0.366,0,39.426
135645,151129,38140,0.063,-0.96,-0.098,0.549,-0.061,-0.366,39.43
135645,151043,13583,0.065,-0.95,-0.1,0.549,-0.061,-0.366,39.436
135605,150873,38140,0.064,-0.945,-0.108,0.549,-0.427,-0.366,39.439
135605,150986,13565,0.059,-0.941,-0.111,0.549,-0.427,-0.366,39.446
135544,150873,38140,0.052,-0.944,-0.109,-1.159,0.122,0.061,39.449
135544,150914,13552,0.056,-0.944,-0.117,-1.159,0.122,0.061,39.456
135454,150873,38140,0.061,-0.946,-0.122,-2.744,0.183,0.488,39.459
135454,150878,13552,0.056,-0.96,-0.121,-2.744,0.183,0.488,39.465
135445,150873,38140,0.048,-0.969,-0.118,-1.707,0.61,0.61,39.469
135445,150871,13554,0.049,-0.973,-0.119,-1.707,0.61,0.61,39.475
135463,150873,38140,0.048,-0.974,-0.113,0.915,0.854,0.183,39.479
135463,150878,13549,0.044,-0.972,-0.107,0.915,0.854,0.183,39.485
135446,150873,38140,0.043,-0.965,-0.104,2.683,1.28,-0.183,39.489
135446,150880,13569,0.043,-0.953,-0.099,2.683,1.28,-0.183,39.495
135507,150873,38140,0.044,-0.943,-0.094,2.622,1.28,-0.122,39.499
135507,150931,13548,0.045,-0.944,-0.1,2.622,1.28,-0.122,39.505
135515,150873,38140,0.047,-0.951,-0.097,1.951,0.793,-0.061,39.509
135515,150940,13560,0.046,-0.952,-0.083,1.951,0.793,-0.061,39.515
135476,150873,38140,0.046,-0.951,-0.081,0.061,0.61,-0.122,39.519
135476,150911,13569,0.05,-0.945,-0.089,0.061,0.61,-0.122,39.525
135483,150873,38140,0.048,-0.944,-0.096,-2.561,0.305,0.305,39.529
135483,150910,13568,0.052,-0.946,-0.117,-2.561,0.305,0.305,39.535
135477,150873,38140,0.058,-0.953,-0.125,-3.415,0.305,0.366,39.538
135477,150880,13569,0.057,-0.962,-0.123,-3.415,0.305,0.366,39.545
135448,150873,38140,0.059,-0.973,-0.119,-2.439,0.488,0,39.548
135448,150873,13543,0.059,-0.979,-0.123,-2.439,0.488,0,39.555
135406,150873,38140,0.054,-0.986,-0.116,-0.488,1.037,-0.305,39.558
135406,150884,13555,0.051,-0.983,-0.108,-0.488,1.037,-0.305,39.564
135441,150873,38140,0.054,-0.972,-0.104,1.341,1.159,-0.244,39.568
135441,150860,13556,0.057,-0.968,-0.1,1.341,1.159,-0.244,39.574
135417,150873,38140,0.058,-0.961,-0.094,2.683,0.915,-0.549,39.578
135417,150862,13568,0.063,-0.948,-0.099,2.683,0.915,-0.549,39.584
135428,150873,38140,0.064,-0.933,-0.102,2.561,0.976,-0.793,39.588
135428,150877,13572,0.062,-0.931,-0.091,2.561,0.976,-0.793,39.594
135403,150873,38140,0.057,-0.934,-0.084,1.098,0.732,-0.427,39.598
135403,150859,13552,0.056,-0.935,-0.088,1.098,0.732,-0.427,39.604
135424,150873,38140,0.053,-0.942,-0.094,0.305,0.488,0.244,39.608
135424,150881,13558,0.056,-0.953,-0.091,0.305,0.488,0.244,39.614
135452,150873,38140,0.061,-0.961,-0.093,0.793,-0.061,0.671,39.618
135452,150920,13570,0.061,-0.963,-0.096,0.793,-0.061,0.671,39.624
135476,150873,38140,0.057,-0.957,-0.098,1.524,-0.122,1.341,39.628
135476,150918,13574,0.056,-0.953,-0.115,1.524,-0.122,1.341,39.634
135496,150873,38140,0.058,-0.952,-0.131,1.341,0,1.768,39.637
135496,150939,13586,0.056,-0.951,-0.13,1.341,0,1.768,39.644
135554,150873,38140,0.052,-0.954,-0.118,0,0.427,1.22,39.647
135554,150958,13566,0.047,-0.964,-0.112,0,0.427,1.22,39.654
135576,150873,38140,0.047,-0.967,-0.121,-1.159,0.549,0.915,39.657
135576,151015,13588,0.054,-0.969,-0.12,-1.159,0.549,0.915,39.663
135558,150873,38140,0.055,-0.977,-0.105,-0.244,0.854,0.793,39.667
135558,151008,13593,0.053,-0.978,-0.105,-0.244,0.854,0.793,39.673
135564,150873,38140,0.046,-0.975,-0.099,1.951,1.402,0.244,39.677
135564,150994,13599,0.042,-0.967,-0.088,1.951,1.402,0.244,39.683
135575,150873,38140,0.043,-0.949,-0.083,1.585,1.585,0.244,39.687
135575,150983,13585,0.049,-0.935,-0.09,1.585,1.585,0.244,39.693
135578,150873,38140,0.057,-0.941,-0.095,0.854,0.61,0.366,39.697
135578,151023,13611,0.064,-0.952,-0.092,0.854,0.61,0.366,39.703
135613,150873,38140,0.064,-0.948,-0.099,1.707,0.122,0.427,39.707
135613,151020,13602,0.059,-0.946,-0.105,1.707,0.122,0.427,39.713
135587,150873,38140,0.054,-0.95,-0.109,1.463,0.488,0.61,39.717
135587,151012,13604,0.05,-0.946,-0.105,1.463,0.488,0.61,39.723
135559,150873,38140,0.051,-0.954,-0.105,1.28,0.427,1.037,39.727
135559,151002,13590,0.057,-0.96,-0.11,1.28,0.427,1.037,39.733
135505,150873,38140,0.062,-0.961,-0.104,0.549,0.366,0.854,39.736
135505,150942,13600,0.062,-0.959,-0.103,0.549,0.366,0.854,39.743
135472,150873,38140,0.06,-0.953,-0.101,-0.671,0.671,0.854,39.746
135472,150924,13573,0.06,-0.953,-0.103,-0.671,0.671,0.854,39.753
135461,150873,38140,0.06,-0.953,-0.103,-0.671,0.671,0.854,39.756
135461,150906,13592,0.054,-0.959,-0.1,-1.646,0.854,0.976,39.762
135420,150873,38140,0.054,-0.959,-0.1,-1.646,0.854,0.976,39.766
135420,150902,13588,0.051,-0.974,-0.093,-1.89,0.854,0.671,39.772
135371,150873,38140,0.051,-0.974,-0.093,-1.89,0.854,0.671,39.776
135371,150875,13583,0.047,-0.979,-0.087,-1.707,0.854,0.244,39.782
135378,150873,38140,0.047,-0.979,-0.087,-1.707,0.854,0.244,39.786
135378,150870,13578,0.048,-0.968,-0.088,-1.159,0.732,-0.244,39.792
135359,150873,38140,0.048,-0.968,-0.088,-1.159,0.732,-0.244,39.796
135359,150865,13580,0.056,-0.952,-0.091,-0.305,0.488,-0.244,39.802
135353,150873,38140,0.056,-0.952,-0.091,-0.305,0.488,-0.244,39.806
135353,150860,13587,0.057,-0.936,-0.106,0.427,0.183,-0.244,39.812
135406,150873,38140,0.057,-0.936,-0.106,0.427,0.183,-0.244,39.816
135406,150883,13592,0.06,-0.941,-0.1,0.244,0.061,0.061,39.822
135378,150873,38140,0.06,-0.941,-0.1,0.244,0.061,0.061,39.826
135378,150900,13592,0.057,-0.944,-0.114,0.122,0.061,0.366,39.832
135360,150873,38140,0.057,-0.944,-0.114,0.122,0.061,0.366,39.835
135360,150836,13601,0.054,-0.955,-0.109,-1.098,0.183,0.854,39.842
135331,150873,38140,0.054,-0.955,-0.109,-1.098,0.183,0.854,39.845
135331,150825,13575,0.053,-0.968,-0.105,-2.744,0.305,1.159,39.852
135302,150873,38140,0.053,-0.968,-0.105,-2.744,0.305,1.159,39.855
135302,150822,13587,0.056,-0.984,-0.093,-2.805,0.183,1.159,39.861
135282,150873,38140,0.056,-0.984,-0.093,-2.805,0.183,1.159,39.865
135282,150802,13567,0.06,-0.972,-0.089,-1.707,0.061,0.671,39.871
135266,150617,38140,0.06,-0.972,-0.089,-1.707,0.061,0.671,39.875
135266,150783,13577,0.057,-0.961,-0.092,0.549,-0.061,0.427,39.881
135281,150617,38140,0.057,-0.961,-0.092,0.549,-0.061,0.427,39.885
135281,150780,13564,0.055,-0.948,-0.096,1.402,-0.061,0.122,39.891
135257,150873,38140,0.055,-0.948,-0.096,1.402,-0.061,0.122,39.895
135257,150808,13581,0.055,-0.945,-0.097,0.61,-0.183,0.122,39.901
135292,150873,38140,0.057,-0.944,-0.097,0.61,-0.183,0.122,39.905
135292,150791,13566,0.055,-0.942,-0.112,-0.671,-0.183,0.061,39.911
135327,150873,38140,0.053,-0.946,-0.119,-0.671,-0.183,0.061,39.915
135327,150849,13569,0.044,-0.942,-0.115,-1.28,0.183,0.366,39.921
135330,150873,38140,0.045,-0.934,-0.114,-1.28,0.183,0.366,39.925
135330,150824,13586,0.047,-0.931,-0.118,-2.622,0.366,0.488,39.931
135304,150873,38140,0.048,-0.937,-0.118,-2.622,0.366,0.488,39.934
135304,150809,13585,0.048,-0.95,-0.111,-3.537,0.122,0.61,39.941
135293,150873,38140,0.052,-0.954,-0.112,-3.537,0.122,0.61,39.944
135293,150793,13565,0.052,-0.956,-0.109,-4.39,0.244,0.549,39.951
135278,150873,38140,0.053,-0.96,-0.098,-4.39,0.244,0.549,39.954
135278,150815,13578,0.052,-0.967,-0.093,-4.939,0.366,0.854,39.96
135288,150873,38140,0.056,-0.971,-0.091,-4.939,0.366,0.854,39.964
135288,150787,13572,0.055,-0.974,-0.096,-4.329,0.305,0.671,39.97
135285,150873,38140,0.051,-0.977,-0.105,-4.329,0.305,0.671,39.974
135285,150794,13586,0.051,-0.981,-0.105,-3.476,0.305,0.915,39.98
135329,150873,38140,0.058,-0.982,-0.11,-3.476,0.305,0.915,39.984
135329,150856,13575,0.059,-0.978,-0.112,-0.793,0.061,0.732,39.99
135342,150873,38140,0.052,-0.976,-0.107,-0.793,0.061,0.732,39.994
135342,150875,13553,0.052,-0.973,-0.106,2.073,0.305,0.183,40
135361,150873,38140,0.052,-0.962,-0.115,2.073,0.305,0.183,40.004
135361,150875,13592,0.06,-0.95,-0.122,2.439,0.427,-0.244,40.01
135360,150873,38140,0.061,-0.944,-0.109,2.439,0.427,-0.244,40.014
135360,150846,13594,0.06,-0.941,-0.101,2.683,0.427,-0.244,40.02
135366,150873,38140,0.05,-0.93,-0.1,2.683,0.427,-0.244,40.024
135366,150877,13587,0.047,-0.924,-0.106,1.402,0.671,0,40.03
135368,150873,38140,0.046,-0.926,-0.099,1.402,0.671,0,40.033
135368,150869,13601,0.048,-0.942,-0.094,-0.122,0.793,0.488,40.04
135372,150873,38140,0.053,-0.959,-0.092,-0.122,0.793,0.488,40.043
135372,150865,13598,0.057,-0.961,-0.1,-0.671,0.366,0.488,40.049
135337,150873,38140,0.057,-0.958,-0.105,-0.671,0.366,0.488,40.053
135337,150857,13594,0.058,-0.965,-0.104,-0.854,0.549,1.037,40.059
135338,150873,38140,0.056,-0.978,-0.097,-0.854,0.549,1.037,40.063
135338,150821,13577,0.056,-0.979,-0.103,1.951,0.488,1.098,40.069
135311,150873,38140,0.05,-0.972,-0.113,1.951,0.488,1.098,40.073
135311,150837,13597,0.047,-0.968,-0.114,2.805,0.976,0.793,40.079
135288,150873,38140,0.047,-0.964,-0.104,2.805,0.976,0.793,40.083
135288,150824,13606,0.045,-0.957,-0.109,2.622,1.098,0.427,40.089
135304,150873,38140,0.045,-0.954,-0.108,2.622,1.098,0.427,40.093
135304,150814,13604,0.045,-0.953,-0.102,1.22,0.915,0.061,40.099
135303,150873,38140,0.047,-0.947,-0.101,1.22,0.915,0.061,40.103
135303,150851,13578,0.052,-0.941,-0.101,-1.159,0.61,-0.488,40.109
135304,150873,38140,0.055,-0.939,-0.095,-1.159,0.61,-0.488,40.113
135304,150808,13579,0.051,-0.943,-0.091,-3.476,0.305,-0.488,40.119
135319,150873,38140,0.051,-0.953,-0.098,-3.476,0.305,-0.488,40.122
135319,150841,13591,0.052,-0.956,-0.096,-3.72,-0.183,-0.122,40.129
135301,150873,38140,0.053,-0.955,-0.095,-3.72,-0.183,-0.122,40.132
135301,150835,13593,0.056,-0.953,-0.102,-2.744,-0.488,0.305,40.139
135278,150873,38140,0.057,-0.947,-0.11,-2.744,-0.488,0.305,40.142
135278,150797,13601,0.056,-0.949,-0.111,-2.134,-0.793,0.61,40.148
135273,150873,38140,0.059,-0.95,-0.119,-2.134,-0.793,0.61,40.152
135273,150790,13591,0.058,-0.958,-0.118,-2.256,-0.976,0.671,40.158
135270,150873,38140,0.058,-0.972,-0.114,-2.256,-0.976,0.671,40.162
135270,150834,13601,0.055,-0.981,-0.114,-1.585,-0.732,0.488,40.168
135327,150873,38140,0.052,-0.98,-0.118,-1.585,-0.732,0.488,40.172
135327,150859,13603,0.052,-0.978,-0.116,-0.183,-0.244,0.244,40.178
135332,150873,38140,0.052,-0.979,-0.109,-0.183,-0.244,0.244,40.182
135332,150876,13613,0.053,-0.977,-0.107,2.195,0.366,-0.488,40.188
135345,150873,38140,0.048,-0.969,-0.107,2.195,0.366,-0.488,40.192
135345,150875,13592,0.047,-0.958,-0.106,3.354,0.976,-1.098,40.198
135341,150873,38140,0.052,-0.948,-0.105,3.354,0.976,-1.098,40.202
135341,150886,13604,0.053,-0.944,-0.102,3.354,1.037,-0.976,40.208
135383,150873,38140,0.057,-0.937,-0.099,3.354,1.037,-0.976,40.212
135383,150883,13613,0.062,-0.933,-0.1,2.622,0.793,-0.793,40.218
135410,150873,38140,0.056,-0.928,-0.101,2.622,0.793,-0.793,40.221
135410,150912,13617,0.054,-0.931,-0.088,0.427,0.915,0,40.228
135419,150873,38140,0.054,-0.932,-0.096,0.427,0.915,0,40.231
135419,150929,13625,0.056,-0.942,-0.111,-1.829,0.549,0.915,40.238
135432,150873,38140,0.059,-0.958,-0.117,-1.829,0.549,0.915,40.241
135432,150938,13624,0.058,-0.972,-0.109,-1.951,0.427,1.037,40.247
135438,150873,38140,0.06,-0.977,-0.108,-1.951,0.427,1.037,40.251
135438,150946,13619,0.052,-0.969,-0.113,-0.915,0.427,0.732,40.257
135470,150873,38140,0.052,-0.966,-0.12,-0.915,0.427,0.732,40.261
135470,150966,13643,0.057,-0.97,-0.117,0.244,0.61,0.915,40.267
135452,150873,38140,0.056,-0.973,-0.111,0.244,0.61,0.915,40.271
135452,150956,13632,0.057,-0.97,-0.104,2.317,0.61,0.061,40.277
135462,150873,38140,0.055,-0.963,-0.099,2.317,0.61,0.061,40.281
135462,150977,13648,0.051,-0.961,-0.106,2.5,0.915,-0.183,40.287
135427,150873,38140,0.058,-0.962,-0.101,2.5,0.915,-0.183,40.291
135427,150954,13643,0.061,-0.95,-0.097,2.317,0.976,-0.244,40.297
135424,150873,38140,0.057,-0.942,-0.091,2.317,0.976,-0.244,40.301
135424,150966,13638,0.058,-0.936,-0.093,0.976,0.854,-0.244,40.307
135423,150873,38140,0.058,-0.934,-0.1,0.976,0.854,-0.244,40.311
135423,150946,13639,0.053,-0.937,-0.098,-1.22,0.732,0.305,40.317
135417,150873,38140,0.053,-0.945,-0.094,-1.22,0.732,0.305,40.32
135417,150932,13634,0.052,-0.952,-0.091,-1.768,0.366,0.61,40.327
135427,150873,38140,0.049,-0.962,-0.093,-1.768,0.366,0.61,40.33
135427,150955,13637,0.05,-0.966,-0.099,-1.098,0.244,0.915,40.337
135443,150873,38140,0.05,-0.966,-0.099,-1.098,0.244,0.915,40.34
135443,150962,13639,0.051,-0.97,-0.094,0.244,0.305,1.037,40.346
135419,150873,38140,0.051,-0.97,-0.094,0.244,0.305,1.037,40.35
135419,150948,13650,0.048,-0.964,-0.107,0.732,0.183,0.549,40.356
135408,150873,38140,0.048,-0.964,-0.107,0.732,0.183,0.549,40.36
135408,150978,13646,0.054,-0.964,-0.114,0.305,0,0.244,40.366
135424,150873,38140,0.054,-0.964,-0.114,0.305,0,0.244,40.37
135424,150951,13636,0.056,-0.961,-0.112,0.366,0.061,-0.366,40.376
135423,150873,38140,0.056,-0.961,-0.112,0.366,0.061,-0.366,40.38
135423,150940,13643,0.051,-0.954,-0.104,-0.122,0.305,-0.366,40.386
135419,150873,38140,0.051,-0.954,-0.104,-0.122,0.305,-0.366,40.39
135419,150944,13659,0.06,-0.939,-0.097,-1.402,0.122,0.061,40.396
135397,150873,38140,0.06,-0.939,-0.097,-1.402,0.122,0.061,40.4
135397,150929,13655,0.056,-0.957,-0.101,-2.195,0,0.366,40.406
135419,150873,38140,0.056,-0.957,-0.101,-2.195,0,0.366,40.41
135419,150928,13638,0.061,-0.974,-0.093,-0.244,-0.122,0.366,40.416
135420,150873,38140,0.061,-0.974,-0.093,-0.244,-0.122,0.366,40.419
135420,150924,13636,0.054,-0.955,-0.101,0.854,-0.122,0.793,40.426
135428,150873,38140,0.054,-0.955,-0.101,0.854,-0.122,0.793,40.429
135428,150949,13631,0.058,-0.948,-0.104,1.89,-0.122,0.854,40.436
135391,150873,38140,0.058,-0.948,-0.104,1.89,-0.122,0.854,40.439
135391,150939,13641,0.054,-0.944,-0.111,0.976,-0.488,0.793,40.445
135459,150873,38140,0.054,-0.944,-0.111,0.976,-0.488,0.793,40.449
135459,150941,13640,0.058,-0.95,-0.107,-0.915,-0.427,1.037,40.455
135454,150873,38140,0.058,-0.95,-0.107,-0.915,-0.427,1.037,40.459
135454,150970,13660,0.056,-0.956,-0.122,-1.646,-0.366,0.671,40.465
135456,150873,38140,0.056,-0.956,-0.122,-1.646,-0.366,0.671,40.469
135456,150970,13650,0.05,-0.964,-0.112,-1.28,-0.122,0.671,40.475
135475,150873,38140,0.05,-0.964,-0.112,-1.28,-0.122,0.671,40.479
135475,150971,13657,0.052,-0.964,-0.11,-1.28,-0.122,0.671,40.485
135476,150873,38140,0.055,-0.964,-0.113,-0.305,0.305,0.427,40.489
135476,150971,13652,0.052,-0.968,-0.106,-0.305,0.305,0.427,40.495
135473,150873,38140,0.051,-0.968,-0.095,0.549,1.037,0.183,40.499
135473,151017,13647,0.052,-0.961,-0.092,0.549,1.037,0.183,40.505
135507,150873,38140,0.052,-0.958,-0.09,0.366,1.098,0.305,40.509
135507,150995,13659,0.052,-0.961,-0.084,0.366,1.098,0.305,40.515
135500,150873,38140,0.055,-0.96,-0.083,0.61,0.488,0.549,40.518
135500,151001,13644,0.057,-0.949,-0.093,0.61,0.488,0.549,40.525
135505,150873,38140,0.055,-0.941,-0.101,-0.976,0.061,0.366,40.528
135505,150988,13661,0.055,-0.944,-0.098,-0.976,0.061,0.366,40.535
135513,150873,38140,0.058,-0.948,-0.113,-2.378,-0.122,0.427,40.538
135513,150972,13655,0.063,-0.96,-0.11,-2.378,-0.122,0.427,40.544
135480,150873,38140,0.057,-0.964,-0.109,-1.829,-0.305,0.244,40.548
135480,150997,13660,0.057,-0.962,-0.116,-1.829,-0.305,0.244,40.554
135493,150873,38140,0.053,-0.96,-0.121,-0.671,0.061,0.488,40.558
135493,151000,13656,0.051,-0.969,-0.118,-0.671,0.061,0.488,40.564
135504,150873,38140,0.05,-0.971,-0.109,1.707,0.366,0.61,40.568
135504,150980,13656,0.053,-0.964,-0.101,1.707,0.366,0.61,40.574
135492,150873,38140,0.053,-0.957,-0.098,1.951,0.427,0.366,40.578
135492,151006,13655,0.053,-0.949,-0.106,1.951,0.427,0.366,40.584
135488,150873,38140,0.059,-0.946,-0.109,1.159,0.671,0.732,40.588
135488,151000,13667,0.062,-0.95,-0.099,1.159,0.671,0.732,40.594
135500,150873,38140,0.065,-0.955,-0.093,1.037,0.61,0.732,40.598
135500,150991,13649,0.059,-0.956,-0.093,1.037,0.61,0.732,40.604
135470,150873,38140,0.05,-0.959,-0.088,0.183,0.732,0.671,40.608
135470,150960,13671,0.045,-0.959,-0.097,0.183,0.732,0.671,40.614
135459,150873,38140,0.046,-0.959,-0.106,-0.488,0.732,0.793,40.617
135459,150976,13652,0.053,-0.963,-0.114,-0.488,0.732,0.793,40.624
135456,150873,38140,0.057,-0.963,-0.109,0,0.488,0.244,40.627
135456,150979,13666,0.057,-0.964,-0.104,0,0.488,0.244,40.634
135464,150873,38140,0.053,-0.962,-0.11,1.098,0.488,-0.244,40.637
135464,150964,13649,0.046,-0.953,-0.108,1.098,0.488,-0.244,40.643
135457,150873,38140,0.043,-0.945,-0.101,0.427,1.098,0,40.647
135457,150960,13652,0.045,-0.942,-0.09,0.427,1.098,0,40.653
135450,150873,38140,0.047,-0.939,-0.09,-0.61,0.793,0.305,40.657
135450,150956,13656,0.053,-0.939,-0.101,-0.61,0.793,0.305,40.663
135408,150873,38140,0.055,-0.943,-0.101,-1.951,0.305,0.305,40.667
135408,150927,13664,0.055,-0.948,-0.092,-1.951,0.305,0.305,40.673
135401,150873,38140,0.057,-0.959,-0.094,-1.951,0.183,0.671,40.677
135401,150947,13659,0.055,-0.962,-0.099,-1.951,0.183,0.671,40.683
135394,150873,38140,0.051,-0.969,-0.097,-2.012,0.061,0.854,40.687
135394,150928,13659,0.054,-0.97,-0.106,-2.012,0.061,0.854,40.693
135366,150873,38140,0.059,-0.966,-0.113,-1.768,0.122,0.854,40.697
135366,150896,13643,0.058,-0.963,-0.113,-1.768,0.122,0.854,40.703
135356,150873,38140,0.053,-0.959,-0.118,-1.829,0.244,0.183,40.707
135356,150894,13658,0.049,-0.956,-0.119,-1.829,0.244,0.183,40.713
135359,150873,38140,0.042,-0.96,-0.12,-2.256,0.549,-0.061,40.716
135359,150899,13638,0.041,-0.973,-0.115,-2.256,0.549,-0.061,40.723
135344,150873,38140,0.043,-0.979,-0.112,-1.28,0.61,-0.549,40.726
135344,150893,13655,0.043,-0.981,-0.11,-1.28,0.61,-0.549,40.732
135340,150873,38140,0.047,-0.971,-0.103,0.488,0.732,-1.28,40.736
135340,150884,13641,0.049,-0.963,-0.104,0.488,0.732,-1.28,40.742
135328,150873,38140,0.055,-0.96,-0.098,2.317,0.915,-1.28,40.746
135328,150863,13649,0.058,-0.947,-0.094,2.317,0.915,-1.28,40.752
135357,150873,38140,0.062,-0.939,-0.093,2.927,0.793,-1.402,40.756
135357,150883,13646,0.06,-0.94,-0.091,2.927,0.793,-1.402,40.762
135342,150873,38140,0.061,-0.936,-0.088,1.28,0.366,-0.915,40.766
135342,150891,13652,0.055,-0.932,-0.09,1.28,0.366,-0.915,40.772
135328,150873,38140,0.059,-0.935,-0.101,-0.671,0.244,0,40.776
135328,150884,13639,0.064,-0.943,-0.094,-0.671,0.244,0,40.782
135322,150873,38140,0.062,-0.946,-0.091,-1.037,-0.183,0.488,40.786
135322,150866,13639,0.058,-0.951,-0.097,-1.037,-0.183,0.488,40.792
135326,150873,38140,0.052,-0.958,-0.108,-1.341,-0.061,0.732,40.796
135326,150888,13657,0.049,-0.963,-0.119,-1.341,-0.061,0.732,40.802
135353,150873,38140,0.053,-0.973,-0.117,-1.341,0.305,1.098,40.806
135353,150912,13665,0.054,-0.985,-0.118,-1.341,0.305,1.098,40.812
135364,150873,38140,0.052,-0.999,-0.113,1.098,0.427,0.366,40.815
135364,150886,13667,0.049,-0.991,-0.108,1.098,0.427,0.366,40.822
135344,150873,38140,0.045,-0.971,-0.111,3.354,1.098,-0.366,40.825
135344,150902,13670,0.048,-0.95,-0.109,3.354,1.098,-0.366,40.832
135337,150873,38140,0.058,-0.945,-0.108,3.659,1.159,-0.244,40.835
135337,150888,13650,0.061,-0.944,-0.102,3.659,1.159,-0.244,40.841
135336,150873,38140,0.06,-0.943,-0.095,3.902,0.671,-0.427,40.845
135336,150905,13658,0.057,-0.942,-0.095,3.902,0.671,-0.427,40.851
135308,150873,38140,0.056,-0.933,-0.095,2.256,0.915,0.183,40.855
135308,150851,13658,0.06,-0.932,-0.101,2.256,0.915,0.183,40.861
135320,150873,38140,0.063,-0.935,-0.101,-0.244,0.915,0.366,40.865
135320,150873,13641,0.061,-0.933,-0.106,-0.244,0.915,0.366,40.871
135285,150873,38140,0.058,-0.941,-0.105,-2.683,0.793,0.488,40.875
135285,150887,13649,0.058,-0.958,-0.094,-2.683,0.793,0.488,40.881
135263,150873,38140,0.053,-0.977,-0.099,-3.415,0.366,0.549,40.885
135263,150805,13638,0.056,-0.984,-0.108,-3.415,0.366,0.549,40.891
135225,150873,38140,0.06,-0.983,-0.106,-2.5,0.488,0.183,40.895
135225,150814,13645,0.061,-0.98,-0.11,-2.5,0.488,0.183,40.901
135206,150873,38140,0.064,-0.976,-0.108,-0.549,1.037,-0.122,40.905
135206,150804,13620,0.06,-0.971,-0.1,-0.549,1.037,-0.122,40.911
135186,150873,38140,0.06,-0.971,-0.1,1.89,1.159,-0.488,40.914
135186,150797,13636,0.062,-0.964,-0.1,1.89,1.159,-0.488,40.921
135208,150617,38140,0.062,-0.964,-0.1,1.89,1.159,-0.488,40.924
135208,150780,13652,0.055,-0.952,-0.095,2.561,1.402,-0.61,40.931
135176,150873,38140,0.055,-0.952,-0.095,2.561,1.402,-0.61,40.934
135176,150801,13646,0.053,-0.947,-0.096,2.561,1.463,-0.427,40.94
135206,150873,38140,0.053,-0.947,-0.096,2.561,1.463,-0.427,40.944
135206,150794,13651,0.059,-0.948,-0.101,2.439,1.341,-0.061,40.95
135221,150873,38140,0.059,-0.948,-0.101,2.439,1.341,-0.061,40.954
135221,150810,13645,0.065,-0.938,-0.096,2.317,1.037,0.488,40.96
135227,150873,38140,0.065,-0.938,-0.096,2.317,1.037,0.488,40.964
135227,150810,13675,0.059,-0.926,-0.087,1.098,0.61,1.098,40.97
135268,150873,38140,0.059,-0.926,-0.087,1.098,0.61,1.098,40.974
135268,150861,13654,0.057,-0.932,-0.112,-1.768,0.305,1.707,40.98
135286,150873,38140,0.057,-0.932,-0.112,-1.768,0.305,1.707,40.984
135286,150878,13658,0.067,-0.977,-0.109,-5.183,-0.366,2.378,40.99
135300,150873,38140,0.067,-0.977,-0.109,-5.183,-0.366,2.378,40.994
135300,150851,13675,0.057,-0.989,-0.11,-5.122,-0.366,1.646,41
135301,150873,38140,0.057,-0.989,-0.11,-5.122,-0.366,1.646,41.004
135301,150833,13655,0.053,-0.99,-0.101,-3.902,0.305,1.463,41.01
135248,150873,38140,0.053,-0.99,-0.101,-3.902,0.305,1.463,41.013
135248,150839,13665,0.054,-0.98,-0.113,-0.854,0.549,0.854,41.02
135281,150873,38140,0.054,-0.98,-0.113,-0.854,0.549,0.854,41.023
135281,150821,13653,0.051,-0.965,-0.112,0.976,0.671,-0.488,41.029
135265,150873,38140,0.051,-0.965,-0.112,0.976,0.671,-0.488,41.033
135265,150843,13657,0.05,-0.956,-0.099,2.012,1.098,-0.854,41.039
135269,150873,38140,0.05,-0.956,-0.099,2.012,1.098,-0.854,41.043
135269,150862,13665,0.057,-0.949,-0.092,2.073,1.341,-1.28,41.049
135296,150873,38140,0.057,-0.949,-0.092,2.073,1.341,-1.28,41.053
135296,150835,13672,0.049,-0.95,-0.084,1.22,1.159,-0.854,41.059
135296,150873,38140,0.046,-0.945,-0.089,1.22,1.159,-0.854,41.063
135296,150857,13656,0.051,-0.932,-0.092,-0.427,0.671,-0.244,41.069
135316,150873,38140,0.05,-0.926,-0.093,-0.427,0.671,-0.244,41.073
135316,150862,13667,0.053,-0.933,-0.098,-2.317,-0.183,0.366,41.079
135310,150873,38140,0.059,-0.936,-0.103,-2.317,-0.183,0.366,41.083
135310,150872,13658,0.055,-0.945,-0.113,-2.317,-0.61,0.854,41.089
135284,150873,38140,0.052,-0.961,-0.112,-2.317,-0.61,0.854,41.093
135284,150840,13653,0.049,-0.969,-0.112,-0.732,-0.366,1.463,41.099
135255,150873,38140,0.048,-0.973,-0.118,-0.732,-0.366,1.463,41.102
135255,150829,13645,0.051,-0.972,-0.121,0.305,-0.183,1.707,41.109
135241,150873,38140,0.055,-0.972,-0.117,0.305,-0.183,1.707,41.112
135241,150801,13651,0.051,-0.976,-0.109,1.341,0.183,1.28,41.119
135244,150873,38140,0.047,-0.976,-0.104,1.341,0.183,1.28,41.122
135244,150808,13652,0.045,-0.968,-0.114,1.341,0.732,0.488,41.128
135226,150873,38140,0.051,-0.964,-0.112,1.341,0.732,0.488,41.132
135226,150796,13650,0.053,-0.964,-0.104,0.61,0.976,-0.305,41.138
135259,150873,38140,0.051,-0.961,-0.091,0.61,0.976,-0.305,41.142
135259,150804,13650,0.05,-0.953,-0.1,0.183,1.341,-0.61,41.148
135290,150873,38140,0.045,-0.945,-0.098,0.183,1.341,-0.61,41.152
135290,150831,13657,0.045,-0.951,-0.087,0.549,1.524,-0.244,41.158
135309,150873,38140,0.055,-0.951,-0.082,0.549,1.524,-0.244,41.162
135309,150888,13661,0.06,-0.943,-0.089,1.829,1.037,-0.427,41.168
135348,150873,38140,0.06,-0.933,-0.094,1.829,1.037,-0.427,41.172
135348,150881,13697,0.059,-0.928,-0.094,0.61,0.549,0.061,41.178
135314,150873,38140,0.06,-0.931,-0.097,0.61,0.549,0.061,41.182
135314,150854,13656,0.066,-0.934,-0.122,-1.28,0.183,0.671,41.188
135305,150873,38140,0.069,-0.948,-0.118,-1.28,0.183,0.671,41.192
135305,150843,13658,0.065,-0.965,-0.117,-2.439,0.183,0.793,41.198
135288,150873,38140,0.062,-0.978,-0.118,-2.439,0.183,0.793,41.201
135288,150850,13663,0.059,-0.989,-0.12,-2.317,0.61,0.671,41.208
135295,150873,38140,0.056,-0.994,-0.113,-2.317,0.61,0.671,41.211
135295,150854,13668,0.054,-0.991,-0.104,-1.037,1.159,0.183,41.218
135306,150873,38140,0.051,-0.979,-0.096,-1.037,1.159,0.183,41.221
135306,150851,13644,0.052,-0.97,-0.092,0.244,1.463,-0.061,41.227
135277,150873,38140,0.055,-0.965,-0.081,0.244,1.463,-0.061,41.231
135277,150846,13663,0.052,-0.961,-0.078,2.317,1.28,-0.427,41.237
135287,150873,38140,0.05,-0.952,-0.077,2.317,1.28,-0.427,41.241
135287,150833,13649,0.052,-0.938,-0.083,1.768,1.28,-0.671,41.247
135281,150873,38140,0.053,-0.925,-0.096,1.768,1.28,-0.671,41.251
135281,150834,13661,0.059,-0.927,-0.092,-0.61,0.854,0.061,41.257
135325,150873,38140,0.064,-0.935,-0.101,-0.61,0.854,0.061,41.261
135325,150856,13657,0.062,-0.941,-0.106,-1.89,0.244,0.427,41.267
135325,150873,38140,0.059,-0.944,-0.106,-1.89,0.244,0.427,41.271
135325,150875,13673,0.057,-0.953,-0.101,-2.317,0.244,1.037,41.277
135324,150873,38140,0.056,-0.966,-0.101,-2.317,0.244,1.037,41.281
135324,150853,13650,0.057,-0.967,-0.107,-1.159,0.183,1.037,41.287
135301,150873,38140,0.059,-0.958,-0.113,-1.159,0.183,1.037,41.291
135301,150859,13669,0.06,-0.957,-0.111,-1.037,0.183,1.037,41.297
135331,150873,38140,0.062,-0.961,-0.106,-1.037,0.183,1.037,41.3
135331,150876,13648,0.058,-0.964,-0.112,-0.427,0,0.61,41.307
135324,150873,38140,0.055,-0.967,-0.111,-0.427,0,0.61,41.31
135324,150871,13683,0.055,-0.97,-0.108,-0.671,0.366,0.122,41.317
135348,150873,38140,0.06,-0.967,-0.108,-0.671,0.366,0.122,41.32
135348,150888,13669,0.06,-0.968,-0.102,-0.183,0.549,-0.122,41.326
135328,150873,38140,0.058,-0.977,-0.097,-0.183,0.549,-0.122,41.33
135328,150860,13661,0.054,-0.976,-0.098,1.707,0.793,-0.61,41.336
135311,150873,38140,0.05,-0.971,-0.099,1.707,0.793,-0.61,41.34
135311,150851,13656,0.054,-0.962,-0.1,2.439,1.22,-0.793,41.346
135296,150873,38140,0.06,-0.95,-0.092,2.439,1.22,-0.793,41.35
135296,150868,13670,0.065,-0.944,-0.09,2.622,0.915,-0.793,41.356
135284,150873,38140,0.058,-0.944,-0.09,2.622,0.915,-0.793,41.36
135284,150830,13657,0.049,-0.939,-0.097,2.134,1.037,-0.61,41.366
135301,150873,38140,0.049,-0.933,-0.104,2.134,1.037,-0.61,41.37
135301,150853,13660,0.054,-0.925,-0.103,0.366,0.915,0.122,41.376
135301,150873,38140,0.06,-0.932,-0.099,0.366,0.915,0.122,41.38
135301,150837,13659,0.059,-0.936,-0.105,-1.402,0.427,0.366,41.386
135312,150873,38140,0.057,-0.937,-0.108,-1.402,0.427,0.366,41.39
135312,150883,13667,0.058,-0.946,-0.115,-3.11,0.488,1.037,41.396
135309,150873,38140,0.064,-0.963,-0.111,-3.11,0.488,1.037,41.399
135309,150872,13667,0.065,-0.978,-0.107,-1.829,0.854,1.159,41.406
135281,150873,38140,0.063,-0.981,-0.11,-1.829,0.854,1.159,41.409
135281,150832,13654,0.062,-0.98,-0.109,0.244,1.037,0.793,41.416
135248,150873,38140,0.062,-0.977,-0.097,0.244,1.037,0.793,41.419
135248,150828,13667,0.062,-0.971,-0.096,1.585,1.159,0.915,41.425
135213,150873,38140,0.062,-0.966,-0.097,1.585,1.159,0.915,41.429
135213,150804,13659,0.064,-0.96,-0.093,1.524,0.976,0.366,41.435
135179,150617,38140,0.056,-0.957,-0.093,1.524,0.976,0.366,41.439
135179,150760,13648,0.053,-0.962,-0.089,1.098,0.671,0.122,41.445
135186,150617,38140,0.052,-0.967,-0.088,1.098,0.671,0.122,41.449
135186,150779,13647,0.056,-0.963,-0.089,2.378,0.244,0,41.455
135200,150873,38140,0.057,-0.953,-0.093,2.378,0.244,0,41.459
135200,150810,13647,0.056,-0.942,-0.096,2.683,0.183,0.122,41.465
135244,150873,38140,0.053,-0.934,-0.099,2.683,0.183,0.122,41.469
135244,150797,13663,0.049,-0.936,-0.106,1.829,0.305,0.366,41.475
135249,150873,38140,0.049,-0.942,-0.11,1.829,0.305,0.366,41.479
135249,150799,13659,0.048,-0.948,-0.107,0.183,0.549,0.427,41.485
135224,150873,38140,0.051,-0.952,-0.108,0.183,0.549,0.427,41.489
135224,150798,13649,0.051,-0.948,-0.109,-1.402,0.427,0.732,41.495
135210,150873,38140,0.051,-0.948,-0.109,-1.402,0.427,0.732,41.498
135210,150787,13636,0.051,-0.964,-0.106,-1.646,0.549,1.037,41.505
135193,150617,38140,0.051,-0.964,-0.106,-1.646,0.549,1.037,41.508
135193,150773,13651,0.055,-0.984,-0.1,0.061,0.427,0.915,41.515
135178,150873,38140,0.055,-0.984,-0.1,0.061,0.427,0.915,41.518
135178,150784,13644,0.062,-0.967,-0.086,0.854,0.549,0.549,41.524
135177,150617,38140,0.062,-0.967,-0.086,0.854,0.549,0.549,41.528
135177,150761,13638,0.051,-0.957,-0.095,0.305,0.854,0.488,41.534
135149,150617,38140,0.051,-0.957,-0.095,0.305,0.854,0.488,41.538
135149,150746,13640,0.057,-0.957,-0.098,-0.305,0.427,0.305,41.544
135159,150617,38140,0.057,-0.957,-0.098,-0.305,0.427,0.305,41.548
135159,150755,13652,0.057,-0.956,-0.093,-0.305,-0.061,0.061,41.554
135132,150617,38140,0.057,-0.956,-0.093,-0.305,-0.061,0.061,41.558
135132,150731,13640,0.057,-0.949,-0.109,0.427,-0.061,0.244,41.564
135110,150617,38140,0.057,-0.949,-0.109,0.427,-0.061,0.244,41.568
135110,150699,13632,0.061,-0.949,-0.11,1.28,-0.122,0.244,41.574
135127,150617,38140,0.061,-0.949,-0.11,1.28,-0.122,0.244,41.578
135127,150700,13641,0.055,-0.954,-0.098,0.854,-0.061,0.183,41.584
135103,150617,38140,0.055,-0.954,-0.098,0.854,-0.061,0.183,41.588
135103,150702,13641,0.053,-0.961,-0.109,-0.244,0.183,0.488,41.594
135100,150617,38140,0.053,-0.961,-0.109,-0.244,0.183,0.488,41.597
135100,150664,13631,0.062,-0.966,-0.096,-0.061,0.366,0.122,41.604
135080,150617,38140,0.062,-0.966,-0.096,-0.061,0.366,0.122,41.607
135080,150677,13615,0.052,-0.96,-0.097,0.366,1.037,-0.183,41.614
135061,150617,38140,0.052,-0.96,-0.097,0.366,1.037,-0.183,41.617
135061,150671,13608,0.054,-0.955,-0.086,0.732,0.732,-0.305,41.623
135084,150617,38140,0.054,-0.955,-0.086,0.732,0.732,-0.305,41.627
135084,150672,13614,0.058,-0.944,-0.1,-0.061,0.366,-0.305,41.633
135126,150617,38140,0.058,-0.944,-0.1,-0.061,0.366,-0.305,41.637
135126,150681,13626,0.061,-0.947,-0.102,-0.061,0.366,-0.305,41.643
135147,150617,38140,0.062,-0.954,-0.104,-0.183,0.061,-0.183,41.647
135147,150717,13631,0.06,-0.957,-0.105,-0.183,0.061,-0.183,41.653
135166,150617,38140,0.062,-0.956,-0.103,-0.366,0.122,0,41.657
135166,150728,13641,0.061,-0.951,-0.107,-0.366,0.122,0,41.663
135155,150617,38140,0.059,-0.947,-0.109,-0.732,0.366,0.488,41.667
135155,150696,13633,0.059,-0.957,-0.099,-0.732,0.366,0.488,41.673
135148,150617,38140,0.058,-0.961,-0.084,-0.122,0.488,0.61,41.677
135148,150734,13623,0.055,-0.954,-0.079,-0.122,0.488,0.61,41.683
135138,150617,38140,0.049,-0.951,-0.1,-1.524,0.244,0.61,41.687
135138,150674,13625,0.055,-0.958,-0.12,-1.524,0.244,0.61,41.693
135082,150617,38140,0.057,-0.97,-0.125,-2.927,0.122,0.427,41.696
135082,150652,13614,0.058,-0.984,-0.108,-2.927,0.122,0.427,41.703
135055,150617,38140,0.052,-0.988,-0.091,-2.134,0.244,-0.366,41.706
135055,150649,13610,0.045,-0.984,-0.097,-2.134,0.244,-0.366,41.713
135027,150617,38140,0.045,-0.974,-0.104,-0.549,0.793,-0.549,41.716
135027,150622,13606,0.049,-0.964,-0.097,-0.549,0.793,-0.549,41.722
135038,150617,38140,0.058,-0.951,-0.093,2.134,0.61,-0.244,41.726
135038,150616,13605,0.062,-0.937,-0.091,2.134,0.61,-0.244,41.732
135037,150617,38140,0.058,-0.924,-0.09,2.805,0.305,-0.549,41.736
135037,150654,13623,0.052,-0.925,-0.096,2.805,0.305,-0.549,41.742
135089,150617,38140,0.052,-0.929,-0.102,1.463,0.366,0.244,41.746
135089,150663,13619,0.057,-0.935,-0.099,1.463,0.366,0.244,41.752
135092,150617,38140,0.06,-0.942,-0.103,-0.549,-0.061,0.671,41.756
135092,150687,13640,0.059,-0.948,-0.101,-0.549,-0.061,0.671,41.762
135126,150617,38140,0.057,-0.956,-0.104,-1.89,-0.244,0.793,41.766
135126,150677,13613,0.058,-0.967,-0.11,-1.89,-0.244,0.793,41.772
135135,150617,38140,0.056,-0.975,-0.107,-1.951,-0.061,1.098,41.776
135135,150700,13638,0.053,-0.978,-0.102,-1.951,-0.061,1.098,41.782
135123,150617,38140,0.055,-0.98,-0.103,-1.463,0.244,0.732,41.786
135123,150704,13631,0.06,-0.98,-0.1,-1.463,0.244,0.732,41.792
135086,150617,38140,0.056,-0.969,-0.104,-0.793,0.366,0.366,41.795
135086,150657,13625,0.059,-0.96,-0.106,-0.793,0.366,0.366,41.802
135069,150617,38140,0.06,-0.958,-0.102,-0.732,0.61,-0.061,41.805
135069,150675,13625,0.059,-0.958,-0.097,-0.732,0.61,-0.061,41.812
135049,150617,38140,0.062,-0.956,-0.097,-0.183,0.488,-0.549,41.815
135049,150648,13604,0.059,-0.953,-0.1,-0.183,0.488,-0.549,41.821
135052,150617,38140,0.057,-0.955,-0.092,-0.61,0.549,-0.549,41.825
135052,150614,13615,0.056,-0.958,-0.096,-0.61,0.549,-0.549,41.831
135019,150617,38140,0.053,-0.96,-0.094,0,0.61,-0.305,41.835
135019,150595,13611,0.053,-0.957,-0.096,0,0.61,-0.305,41.841
135037,150617,38140,0.056,-0.955,-0.097,0.427,0.549,-0.244,41.845
135037,150633,13606,0.056,-0.948,-0.092,0.427,0.549,-0.244,41.851
135038,150617,38140,0.057,-0.945,-0.086,0.305,0.488,-0.061,41.855
135038,150619,13606,0.055,-0.943,-0.094,0.305,0.488,-0.061,41.861
135023,150617,38140,0.054,-0.952,-0.106,-0.61,0.427,0.183,41.865
135023,150600,13617,0.057,-0.954,-0.107,-0.61,0.427,0.183,41.871
135038,150617,38140,0.061,-0.953,-0.112,-1.768,0.061,0.244,41.875
135038,150629,13624,0.067,-0.954,-0.111,-1.768,0.061,0.244,41.881
135033,150617,38140,0.067,-0.958,-0.11,-2.134,-0.305,0.305,41.885
135033,150623,13617,0.061,-0.958,-0.118,-2.134,-0.305,0.305,41.891
135028,150617,38140,0.056,-0.96,-0.109,-2.256,0.427,0.61,41.894
135028,150625,13612,0.053,-0.968,-0.104,-2.256,0.427,0.61,41.901
135058,150617,38140,0.057,-0.969,-0.114,-0.976,0.488,0.671,41.904
135058,150639,13602,0.062,-0.971,-0.111,-0.976,0.488,0.671,41.911
135083,150617,38140,0.06,-0.972,-0.101,0.671,0.671,0.122,41.914
135083,150679,13619,0.057,-0.967,-0.089,0.671,0.671,0.122,41.92
135157,150617,38140,0.051,-0.957,-0.088,1.037,1.037,-0.183,41.924
135157,150697,13629,0.051,-0.954,-0.093,1.037,1.037,-0.183,41.93
135125,150617,38140,0.059,-0.955,-0.091,0.61,0.976,0,41.934
135125,150696,13622,0.065,-0.951,-0.088,0.61,0.976,0,41.94
135160,150617,38140,0.067,-0.945,-0.085,0.366,0.183,-0.183,41.944
135160,150709,13631,0.066,-0.936,-0.097,0.366,0.183,-0.183,41.95
135170,150617,38140,0.061,-0.934,-0.106,-1.037,0,0.366,41.954
135170,150727,13631,0.056,-0.939,-0.103,-1.037,0,0.366,41.96
135165,150617,38140,0.054,-0.951,-0.11,-1.89,-0.061,1.098,41.964
135165,150728,13648,0.057,-0.954,-0.12,-1.89,-0.061,1.098,41.97
135182,150617,38140,0.056,-0.964,-0.121,-2.195,0,0.793,41.974
135182,150753,13642,0.051,-0.972,-0.117,-2.195,0,0.793,41.98
135150,150617,38140,0.052,-0.974,-0.114,-1.28,0.488,0.976,41.984
135150,150727,13644,0.054,-0.975,-0.108,-1.28,0.488,0.976,41.99
135135,150617,38140,0.053,-0.976,-0.105,0.549,0.793,0.61,41.993
135135,150685,13624,0.057,-0.968,-0.102,0.549,0.793,0.61,42
135113,150617,38140,0.057,-0.954,-0.098,0.732,1.159,0.122,42.003
135113,150684,13634,0.062,-0.949,-0.102,0.732,1.159,0.122,42.01
135076,150617,38140,0.068,-0.954,-0.096,-0.305,1.098,0,42.013
135076,150651,13618,0.068,-0.959,-0.094,-0.305,1.098,0,42.019
135073,150617,38140,0.066,-0.957,-0.092,-0.305,0.915,-0.244,42.023
135073,150662,13609,0.056,-0.954,-0.093,-0.305,0.915,-0.244,42.029
135088,150617,38140,0.052,-0.951,-0.092,-0.976,1.159,0.244,42.033
135088,150633,13619,0.06,-0.953,-0.09,-0.976,1.159,0.244,42.039
135090,150617,38140,0.061,-0.953,-0.083,-0.244,0.366,0.793,42.043
135090,150705,13623,0.059,-0.944,-0.089,-0.244,0.366,0.793,42.049
135103,150617,38140,0.056,-0.94,-0.102,-0.488,-0.061,1.159,42.053
135103,150686,13641,0.061,-0.944,-0.107,-0.488,-0.061,1.159,42.059
135120,150617,38140,0.056,-0.951,-0.109,-1.159,-0.366,1.585,42.063
135120,150668,13631,0.05,-0.962,-0.107,-1.159,-0.366,1.585,42.069
135130,150617,38140,0.055,-0.97,-0.109,-1.524,-0.305,1.22,42.073
135130,150693,13623,0.055,-0.972,-0.117,-1.524,-0.305,1.22,42.079
135092,150617,38140,0.055,-0.972,-0.117,-1.524,-0.305,1.22,42.083
135092,150683,13629,0.065,-0.975,-0.114,-1.28,-0.183,0.732,42.089
135099,150617,38140,0.065,-0.975,-0.114,-1.28,-0.183,0.732,42.092
135099,150686,13626,0.055,-0.962,-0.112,0.122,0.61,0.183,42.099
135052,150617,38140,0.055,-0.962,-0.112,0.122,0.61,0.183,42.102
135052,150618,13614,0.052,-0.967,-0.094,0.122,1.402,0.122,42.108
134993,150617,38140,0.052,-0.967,-0.094,0.122,1.402,0.122,42.112
134993,150593,13624,0.052,-0.954,-0.1,0.549,1.463,-0.244,42.118
134977,150617,38140,0.052,-0.954,-0.1,0.549,1.463,-0.244,42.122
134977,150550,13608,0.063,-0.938,-0.108,0.366,1.22,-0.366,42.128
134975,150617,38140,0.063,-0.938,-0.108,0.366,1.22,-0.366,42.132
134975,150580,13616,0.066,-0.942,-0.087,0.793,0.915,0.122,42.138
134951,150617,38140,0.066,-0.942,-0.087,0.793,0.915,0.122,42.142
134951,150556,13617,0.057,-0.945,-0.098,0.671,0.793,0.305,42.148
134962,150617,38140,0.057,-0.945,-0.098,0.671,0.793,0.305,42.152
134962,150558,13601,0.063,-0.957,-0.089,0,0.671,1.28,42.158
134949,150617,38140,0.063,-0.957,-0.089,0,0.671,1.28,42.162
134949,150566,13618,0.059,-0.952,-0.101,-0.732,0.122,1.22,42.168
134942,150617,38140,0.059,-0.952,-0.101,-0.732,0.122,1.22,42.172
134942,150535,13606,0.059,-0.965,-0.087,-2.134,0.061,1.402,42.178
134921,150361,38140,0.059,-0.965,-0.087,-2.134,0.061,1.402,42.182
134921,150525,13623,0.061,-0.954,-0.105,-2.256,-0.244,1.037,42.188
134951,150617,38140,0.061,-0.954,-0.105,-2.256,-0.244,1.037,42.191
134951,150534,13604,0.061,-0.96,-0.108,-2.805,-0.366,0.915,42.198
134919,150617,38140,0.061,-0.96,-0.108,-2.805,-0.366,0.915,42.201
134919,150551,13606,0.05,-0.964,-0.101,-2.073,-0.244,0.854,42.208
134932,150617,38140,0.05,-0.964,-0.101,-2.073,-0.244,0.854,42.211
134932,150541,13599,0.056,-0.966,-0.107,-0.732,0.122,0.976,42.217
134954,150617,38140,0.056,-0.966,-0.107,-0.732,0.122,0.976,42.221
134954,150534,13596,0.051,-0.966,-0.106,0.793,0.305,0.732,42.227
134943,150617,38140,0.053,-0.958,-0.11,0.793,0.305,0.732,42.231
134943,150541,13598,0.059,-0.951,-0.108,0.915,0.61,0.61,42.237
134945,150617,38140,0.056,-0.949,-0.103,0.915,0.61,0.61,42.241
134945,150544,13597,0.058,-0.952,-0.1,0.671,0.427,1.037,42.247
134924,150361,38140,0.051,-0.952,-0.103,0.671,0.427,1.037,42.251
134924,150522,13601,0.047,-0.952,-0.101,-0.122,0.427,0.976,42.257
134946,150361,38140,0.047,-0.954,-0.103,-0.122,0.427,0.976,42.261
134946,150516,13600,0.051,-0.96,-0.1,-1.037,0.183,1.098,42.267
134919,150361,38140,0.056,-0.96,-0.11,-1.037,0.183,1.098,42.271
134919,150514,13613,0.056,-0.961,-0.107,-1.159,0.122,0.732,42.277
134943,150361,38140,0.055,-0.963,-0.106,-1.159,0.122,0.732,42.281
134943,150525,13611,0.054,-0.96,-0.107,-1.098,0.427,0.549,42.287
134925,150361,38140,0.052,-0.961,-0.104,-1.098,0.427,0.549,42.29
134925,150480,13584,0.052,-0.966,-0.108,0,0.549,0.671,42.297
134864,150361,38140,0.058,-0.966,-0.111,0,0.549,0.671,42.3
134864,150498,13593,0.059,-0.955,-0.111,1.646,0.549,0.305,42.306
134821,150361,38140,0.054,-0.941,-0.102,1.646,0.549,0.305,42.31
134821,150419,13570,0.051,-0.938,-0.088,1.098,0.976,0.244,42.316
134791,150361,38140,0.049,-0.942,-0.088,1.098,0.976,0.244,42.32
134791,150441,13581,0.049,-0.948,-0.095,0,0.854,0.244,42.326
134779,150361,38140,0.054,-0.953,-0.088,0,0.854,0.244,42.33
134779,150401,13567,0.06,-0.956,-0.092,-1.402,0.305,0.671,42.336
134750,150361,38140,0.062,-0.962,-0.092,-1.402,0.305,0.671,42.34
134750,150403,13565,0.055,-0.962,-0.094,-1.707,0.061,0.793,42.346
134708,150361,38140,0.052,-0.958,-0.097,-1.707,0.061,0.793,42.35
134708,150334,13552,0.054,-0.956,-0.094,-2.439,0.183,1.28,42.356
134692,150361,38140,0.059,-0.965,-0.108,-2.439,0.183,1.28,42.36
134692,150352,13565,0.062,-0.975,-0.115,-1.829,0.061,1.098,42.366
134657,150361,38140,0.062,-0.977,-0.11,-1.829,0.061,1.098,42.37
134657,150321,13555,0.061,-0.97,-0.116,-1.098,0.488,0.427,42.376
134636,150361,38140,0.055,-0.966,-0.112,-1.098,0.488,0.427,42.38
134636,150272,13544,0.052,-0.959,-0.107,-1.585,0.61,0.366,42.386
134546,150105,38140,0.053,-0.951,-0.105,-1.585,0.61,0.366,42.389
134546,150227,13541,0.051,-0.955,-0.104,-1.463,0,0.366,42.396
134521,150105,38140,0.048,-0.959,-0.106,-1.463,0,0.366,42.399
134521,150192,13523,0.05,-0.962,-0.103,0,-0.305,0.244,42.406
134507,150105,38140,0.051,-0.961,-0.098,0,-0.305,0.244,42.409
134507,150212,13541,0.048,-0.96,-0.102,0.793,0,0.305,42.415
134528,150105,38140,0.05,-0.953,-0.099,0.793,0,0.305,42.419
134528,150219,13520,0.052,-0.947,-0.103,0.427,0.244,0.61,42.425
134528,150105,38140,0.058,-0.949,-0.104,0.427,0.244,0.61,42.429
134528,150215,13523,0.062,-0.952,-0.102,0.671,0.366,0.671,42.435
134545,150105,38140,0.064,-0.949,-0.105,0.671,0.366,0.671,42.439
134545,150250,13526,0.06,-0.948,-0.105,0.305,0.61,0.854,42.445
134531,150105,38140,0.055,-0.945,-0.1,0.305,0.61,0.854,42.449
134531,150213,13526,0.058,-0.954,-0.105,-0.671,0.549,1.22,42.455
134535,150105,38140,0.062,-0.962,-0.11,-0.671,0.549,1.22,42.459
134535,150245,13535,0.063,-0.968,-0.11,-0.976,0.305,0.793,42.465
134570,150105,38140,0.063,-0.964,-0.103,-0.976,0.305,0.793,42.469
134570,150234,13543,0.055,-0.967,-0.099,-0.488,0.61,0.915,42.475
134549,150105,38140,0.054,-0.973,-0.097,-0.488,0.61,0.915,42.479
134549,150239,13523,0.057,-0.968,-0.096,0.793,0.671,0.915,42.485
134568,150105,38140,0.058,-0.961,-0.101,0.793,0.671,0.915,42.488
134568,150239,13547,0.056,-0.957,-0.098,0.976,0.793,0.671,42.495
134568,150105,38140,0.055,-0.952,-0.097,0.976,0.793,0.671,42.498
134568,150254,13533,0.055,-0.95,-0.098,0.488,0.61,0.732,42.505
134535,150105,38140,0.057,-0.948,-0.092,0.488,0.61,0.732,42.508
134535,150231,13530,0.057,-0.947,-0.099,0.061,0.305,1.098,42.514
134482,150105,38140,0.056,-0.938,-0.104,0.061,0.305,1.098,42.518
134482,150194,13532,0.057,-0.938,-0.11,-1.098,0.122,1.402,42.524
134479,150105,38140,0.06,-0.946,-0.118,-1.098,0.122,1.402,42.528
134479,150199,13525,0.06,-0.956,-0.114,-1.463,0,1.341,42.534
134454,150105,38140,0.054,-0.969,-0.112,-1.463,0,1.341,42.538
134454,150177,13514,0.057,-0.973,-0.116,-0.915,0,1.463,42.544
134447,150105,38140,0.055,-0.969,-0.117,-0.915,0,1.463,42.548
134447,150152,13531,0.051,-0.973,-0.115,-0.183,0.366,1.524,42.554
134432,150105,38140,0.051,-0.968,-0.109,-0.183,0.366,1.524,42.558
134432,150170,13535,0.052,-0.962,-0.107,0.793,0.427,0.915,42.564
134405,150105,38140,0.051,-0.954,-0.109,0.793,0.427,0.915,42.568
134405,150149,13523,0.052,-0.958,-0.11,0.61,0.488,0.915,42.574
134413,150105,38140,0.056,-0.969,-0.103,0.61,0.488,0.915,42.578
134413,150168,13526,0.054,-0.967,-0.107,1.22,0.732,0.488,42.584
134442,150105,38140,0.05,-0.959,-0.106,1.22,0.732,0.488,42.587
134442,150168,13520,0.05,-0.951,-0.104,1.159,0.854,0.488,42.594
134434,150105,38140,0.051,-0.959,-0.105,1.159,0.854,0.488,42.597
134434,150168,13522,0.052,-0.964,-0.105,1.768,0.61,0.305,42.603
134463,150105,38140,0.049,-0.957,-0.106,1.768,0.61,0.305,42.607
134463,150162,13537,0.048,-0.952,-0.104,0.549,1.098,0,42.613
134484,150105,38140,0.054,-0.948,-0.094,0.549,1.098,0,42.617
134484,150244,13532,0.055,-0.943,-0.091,-0.976,0.793,0.305,42.623
134523,150105,38140,0.049,-0.943,-0.088,-0.976,0.793,0.305,42.627
134523,150222,13556,0.049,-0.948,-0.095,-1.463,0.427,0.793,42.633
134538,150105,38140,0.056,-0.95,-0.102,-1.463,0.427,0.793,42.637
134538,150241,13551,0.06,-0.951,-0.106,-0.854,-0.183,1.463,42.643
134528,150105,38140,0.062,-0.958,-0.102,-0.854,-0.183,1.463,42.647
134528,150238,13543,0.06,-0.964,-0.103,0.488,-0.183,1.28,42.653
134492,150105,38140,0.054,-0.964,-0.106,0.488,-0.183,1.28,42.657
134492,150213,13541,0.048,-0.971,-0.1,1.098,0.366,1.098,42.663
134490,150105,38140,0.044,-0.981,-0.097,1.098,0.366,1.098,42.667
134490,150190,13554,0.048,-0.983,-0.1,1.768,0.427,0.854,42.673
134490,150105,38140,0.048,-0.983,-0.1,1.768,0.427,0.854,42.677
134490,150204,13546,0.052,-0.965,-0.098,1.768,0.305,0.244,42.683
134476,150105,38140,0.052,-0.965,-0.098,1.768,0.305,0.244,42.686
134476,150196,13531,0.06,-0.95,-0.109,1.402,0.427,0.122,42.693
134427,150105,38140,0.06,-0.95,-0.109,1.402,0.427,0.122,42.696
134427,150146,13535,0.055,-0.947,-0.104,1.098,0.427,0.061,42.703
134390,150105,38140,0.055,-0.947,-0.104,1.098,0.427,0.061,42.706
134390,150092,13513,0.056,-0.938,-0.104,0.427,0.366,0.183,42.712
134311,150105,38140,0.056,-0.938,-0.104,0.427,0.366,0.183,42.716
134311,150071,13498,0.049,-0.938,-0.106,-1.22,0.488,0.427,42.722
134283,150105,38140,0.049,-0.938,-0.106,-1.22,0.488,0.427,42.726
134283,150036,13499,0.05,-0.974,-0.102,-1.28,0.488,0.366,42.732
134273,150105,38140,0.05,-0.974,-0.102,-1.28,0.488,0.366,42.736
134273,150061,13495,0.051,-0.967,-0.109,-0.671,0.793,0.244,42.742
134309,150105,38140,0.051,-0.967,-0.109,-0.671,0.793,0.244,42.746
134309,150049,13490,0.058,-0.962,-0.1,1.037,0.793,0.366,42.752
134332,150105,38140,0.058,-0.962,-0.1,1.037,0.793,0.366,42.756
134332,150081,13502,0.053,-0.946,-0.1,0.549,1.037,0.549,42.762
134352,150105,38140,0.053,-0.946,-0.1,0.549,1.037,0.549,42.766
134352,150103,13523,0.055,-0.948,-0.097,-0.915,0.854,0.854,42.772
134358,150105,38140,0.055,-0.948,-0.097,-0.915,0.854,0.854,42.776
134358,150116,13522,0.057,-0.958,-0.102,-1.341,0.61,0.671,42.782
134368,150105,38140,0.057,-0.958,-0.102,-1.341,0.61,0.671,42.785
134368,150092,13508,0.056,-0.951,-0.108,-1.951,0.793,0.854,42.792
134375,150105,38140,0.056,-0.951,-0.108,-1.951,0.793,0.854,42.795
134375,150082,13511,0.058,-0.952,-0.114,-1.646,0.793,0.732,42.801
134381,150105,38140,0.058,-0.952,-0.114,-1.646,0.793,0.732,42.805
134381,150108,13512,0.055,-0.968,-0.099,-0.793,0.671,0.671,42.811
134381,150105,38140,0.055,-0.968,-0.099,-0.793,0.671,0.671,42.815
134381,150081,13518,0.05,-0.969,-0.105,-0.793,0.671,0.671,42.821
134343,150105,38140,0.045,-0.968,-0.099,-0.976,0.915,0.671,42.825
134343,150072,13514,0.042,-0.961,-0.096,-0.976,0.915,0.671,42.831
134336,150105,38140,0.046,-0.959,-0.094,-1.646,1.098,0.732,42.835
134336,150052,13498,0.044,-0.966,-0.098,-1.646,1.098,0.732,42.841
134348,150105,38140,0.049,-0.969,-0.093,0.122,0.976,0.305,42.845
134348,150089,13504,0.053,-0.965,-0.099,0.122,0.976,0.305,42.851
134354,150105,38140,0.055,-0.96,-0.1,1.402,0.488,0,42.855
134354,150070,13514,0.054,-0.962,-0.097,1.402,0.488,0,42.861
134368,150105,38140,0.053,-0.954,-0.101,1.585,0.427,0.061,42.865
134368,150060,13522,0.05,-0.948,-0.109,1.585,0.427,0.061,42.871
134331,150105,38140,0.053,-0.949,-0.109,0.854,0.549,0.366,42.875
134331,150062,13512,0.057,-0.953,-0.113,0.854,0.549,0.366,42.881
134319,150105,38140,0.057,-0.948,-0.111,0.549,0.183,0,42.884
134319,150030,13499,0.053,-0.942,-0.111,0.549,0.183,0,42.891
134245,149849,38140,0.051,-0.943,-0.103,-1.098,0.427,-0.122,42.894
134245,149989,13500,0.052,-0.952,-0.106,-1.098,0.427,-0.122,42.901
134235,149849,38140,0.047,-0.961,-0.102,-2.073,0.915,0,42.904
134235,149996,13490,0.047,-0.963,-0.1,-2.073,0.915,0,42.91
134204,149849,38140,0.049,-0.962,-0.094,-2.439,1.098,0.183,42.914
134204,149954,13485,0.05,-0.965,-0.094,-2.439,1.098,0.183,42.92
134195,149849,38140,0.049,-0.97,-0.084,-2.073,0.976,0.305,42.924
134195,149939,13488,0.053,-0.968,-0.089,-2.073,0.976,0.305,42.93
134186,149849,38140,0.057,-0.962,-0.103,-0.732,0.793,0.366,42.934
134186,149968,13479,0.059,-0.954,-0.105,-0.732,0.793,0.366,42.94
134163,149849,38140,0.063,-0.956,-0.101,0.061,0.793,0.61,42.944
134163,149954,13492,0.059,-0.965,-0.106,0.061,0.793,0.61,42.95
134148,149849,38140,0.052,-0.971,-0.096,0.793,0.488,0.305,42.954
134148,149921,13493,0.051,-0.971,-0.094,0.793,0.488,0.305,42.96
134166,149849,38140,0.053,-0.964,-0.104,0.305,0.305,-0.183,42.964
134166,149915,13477,0.061,-0.956,-0.115,0.305,0.305,-0.183,42.97
134171,149849,38140,0.06,-0.954,-0.116,-0.671,0.122,-0.244,42.974
134171,149982,13479,0.055,-0.956,-0.099,-0.671,0.122,-0.244,42.98
134202,149849,38140,0.05,-0.953,-0.092,-0.122,0.305,-0.305,42.983
134202,149994,13507,0.048,-0.946,-0.095,-0.122,0.305,-0.305,42.99
134213,149849,38140,0.047,-0.947,-0.102,-0.793,0.122,-0.122,42.993
134213,149968,13491,0.051,-0.947,-0.104,-0.793,0.122,-0.122,42.999
134184,149849,38140,0.056,-0.949,-0.109,-0.549,-0.122,0.183,43.003
134184,149968,13493,0.059,-0.954,-0.112,-0.549,-0.122,0.183,43.009
134156,149849,38140,0.057,-0.955,-0.108,0.366,0.061,0,43.013
134156,149953,13489,0.052,-0.956,-0.109,0.366,0.061,0,43.019
134170,149849,38140,0.048,-0.955,-0.11,-0.732,0.549,0.061,43.023
134170,149952,13488,0.051,-0.954,-0.108,-0.732,0.549,0.061,43.029
134136,149849,38140,0.059,-0.952,-0.121,-2.744,0.488,0.305,43.033
134136,149904,13484,0.065,-0.967,-0.115,-2.744,0.488,0.305,43.039
134120,149849,38140,0.064,-0.98,-0.09,-1.585,0.427,-0.061,43.043
134120,149920,13481,0.054,-0.971,-0.094,-1.585,0.427,-0.061,43.049
134118,149849,38140,0.05,-0.953,-0.099,-0.366,0.854,-0.183,43.053
134118,149929,13466,0.054,-0.948,-0.106,-0.366,0.854,-0.183,43.059
134147,149849,38140,0.058,-0.955,-0.107,0.305,0.671,0.549,43.063
134147,149947,13484,0.066,-0.957,-0.104,0.305,0.671,0.549,43.069
134178,149849,38140,0.07,-0.953,-0.112,1.037,0.549,0.61,43.072
134178,149961,13499,0.06,-0.961,-0.106,1.037,0.549,0.61,43.079
134231,149849,38140,0.054,-0.966,-0.106,1.89,0.976,1.037,43.082
134231,150009,13491,0.051,-0.958,-0.112,1.89,0.976,1.037,43.089
134222,149849,38140,0.052,-0.949,-0.117,2.134,0.915,1.098,43.092
134222,149995,13497,0.055,-0.947,-0.108,2.134,0.915,1.098,43.098
134244,149849,38140,0.061,-0.95,-0.102,1.402,0.793,0.61,43.102
134244,150007,13508,0.057,-0.95,-0.101,1.402,0.793,0.61,43.108
134224,149849,38140,0.048,-0.953,-0.096,-0.366,1.037,0.305,43.112
134224,149994,13494,0.045,-0.957,-0.092,-0.366,1.037,0.305,43.118
134224,149849,38140,0.048,-0.966,-0.098,-1.22,1.037,0.793,43.122
134224,149999,13495,0.053,-0.968,-0.105,-1.22,1.037,0.793,43.128
134205,149849,38140,0.058,-0.966,-0.111,-0.122,0.915,0.915,43.132
134205,149990,13495,0.06,-0.966,-0.106,-0.122,0.915,0.915,43.138
134206,149849,38140,0.06,-0.966,-0.098,2.744,1.037,0.915,43.142
134206,149964,13498,0.055,-0.957,-0.11,2.744,1.037,0.915,43.148
134184,149849,38140,0.049,-0.947,-0.108,3.049,1.28,0.732,43.152
134184,149979,13497,0.052,-0.943,-0.103,3.049,1.28,0.732,43.158
134151,149849,38140,0.056,-0.953,-0.098,1.341,0.976,1.037,43.162
134151,149968,13509,0.054,-0.961,-0.091,1.341,0.976,1.037,43.168
134179,149849,38140,0.052,-0.966,-0.094,0.976,0.976,0.732,43.172
134179,149966,13498,0.053,-0.968,-0.105,0.976,0.976,0.732,43.178
134194,149849,38140,0.055,-0.962,-0.107,0.854,1.098,0.671,43.181
134194,149987,13518,0.054,-0.96,-0.096,0.854,1.098,0.671,43.188
134193,149849,38140,0.053,-0.957,-0.088,0.61,1.037,0.244,43.191
134193,149988,13510,0.05,-0.962,-0.088,0.61,1.037,0.244,43.197
134175,149849,38140,0.046,-0.963,-0.09,0.427,0.854,0,43.201
134175,149984,13507,0.045,-0.96,-0.087,0.427,0.854,0,43.207
134179,149849,38140,0.044,-0.958,-0.08,0.366,0.61,0.183,43.211
134179,149961,13505,0.047,-0.958,-0.088,0.366,0.61,0.183,43.217
134159,149849,38140,0.05,-0.96,-0.088,1.402,0.183,0.305,43.221
134159,149946,13501,0.051,-0.954,-0.088,1.402,0.183,0.305,43.227
134165,149849,38140,0.048,-0.946,-0.098,1.098,0,0.549,43.231
134165,149953,13507,0.052,-0.934,-0.11,1.098,0,0.549,43.237
134160,149849,38140,0.052,-0.93,-0.125,-1.341,-0.122,1.098,43.241
134160,149952,13511,0.054,-0.942,-0.122,-1.341,-0.122,1.098,43.247
134173,149849,38140,0.056,-0.961,-0.112,-1.341,0.061,1.159,43.251
134173,149963,13518,0.056,-0.968,-0.123,-1.341,0.061,1.159,43.257
134128,149849,38140,0.056,-0.968,-0.123,-1.341,0.061,1.159,43.261
134128,149930,13500,0.053,-0.966,-0.11,0,0.427,1.159,43.267
134090,149849,38140,0.053,-0.966,-0.11,0,0.427,1.159,43.271
134090,149902,13490,0.051,-0.966,-0.1,1.829,0.793,1.159,43.277
134072,149849,38140,0.051,-0.966,-0.1,1.829,0.793,1.159,43.28
134072,149914,13493,0.049,-0.965,-0.083,2.744,0.854,0.793,43.287
134149,149849,38140,0.049,-0.965,-0.083,2.744,0.854,0.793,43.29
134149,149918,13486,0.057,-0.961,-0.091,2.195,0.732,0.305,43.296
134156,149849,38140,0.057,-0.961,-0.091,2.195,0.732,0.305,43.3
134156,149959,13509,0.057,-0.952,-0.092,0.976,0.549,-0.183,43.306
134210,149849,38140,0.057,-0.952,-0.092,0.976,0.549,-0.183,43.31
134210,149984,13498,0.057,-0.937,-0.111,-0.427,0.305,0,43.316
134203,149849,38140,0.057,-0.937,-0.111,-0.427,0.305,0,43.32
134203,149966,13501,0.055,-0.945,-0.097,-2.134,0.244,0.122,43.326
134247,149849,38140,0.055,-0.945,-0.097,-2.134,0.244,0.122,43.33
134247,150009,13510,0.05,-0.971,-0.1,-2.805,0.061,0.305,43.336
134294,150105,38140,0.05,-0.971,-0.1,-2.805,0.061,0.305,43.34
134294,150047,13514,0.053,-0.973,-0.103,-2.5,0.305,0.305,43.346
134338,150105,38140,0.053,-0.973,-0.103,-2.5,0.305,0.305,43.35
