136605,152409,38140,0.194,-0.894,-0.291,-1.646,0.427,0.183,608.247
136605,152382,14135,0.188,-0.899,-0.295,-1.646,0.427,0.183,608.253
136618,152409,38140,0.188,-0.908,-0.285,-2.317,0.732,0.122,608.257
136618,152382,14163,0.189,-0.911,-0.284,-2.317,0.732,0.122,608.263
136647,152409,38140,0.188,-0.913,-0.287,-1.463,0.366,0.061,608.267
136647,152418,14146,0.192,-0.912,-0.274,-1.463,0.366,0.061,608.273
136645,152409,38140,0.189,-0.903,-0.265,-0.366,0.122,0.244,608.276
136645,152400,14143,0.189,-0.901,-0.282,-0.366,0.122,0.244,608.283
136645,152409,38140,0.191,-0.898,-0.277,-0.061,0.549,0.122,608.286
136645,152411,14152,0.183,-0.896,-0.272,-0.061,0.549,0.122,608.293
136612,152409,38140,0.181,-0.898,-0.275,-0.305,0.976,0.122,608.296
136612,152410,14145,0.181,-0.9,-0.279,-0.305,0.976,0.122,608.302
136647,152409,38140,0.178,-0.898,-0.271,-0.305,0.427,-0.122,608.306
136647,152419,14142,0.177,-0.894,-0.268,-0.305,0.427,-0.122,608.312
136630,152409,38140,0.182,-0.895,-0.279,-0.366,0,0.061,608.316
136630,152421,14152,0.183,-0.893,-0.29,-0.366,0,0.061,608.322
136646,152409,38140,0.182,-0.898,-0.293,0.61,0.488,0.427,608.326
136646,152429,14147,0.18,-0.899,-0.293,0.61,0.488,0.427,608.332
136642,152409,38140,0.181,-0.893,-0.292,1.098,0.671,0.366,608.336
136642,152448,14162,0.181,-0.89,-0.281,1.098,0.671,0.366,608.342
136665,152409,38140,0.179,-0.889,-0.272,0.915,0.427,0.671,608.346
136665,152425,14163,0.182,-0.888,-0.274,0.915,0.427,0.671,608.352
136628,152409,38140,0.186,-0.89,-0.281,0.305,0.122,0.732,608.356
136628,152419,14149,0.184,-0.896,-0.275,0.305,0.122,0.732,608.362
136647,152409,38140,0.187,-0.905,-0.27,-0.488,0.061,0.793,608.366
136647,152440,14155,0.191,-0.907,-0.277,-0.488,0.061,0.793,608.372
136643,152409,38140,0.193,-0.907,-0.285,-1.585,-0.244,0.732,608.375
136643,152415,14168,0.192,-0.914,-0.295,-1.585,-0.244,0.732,608.382
136650,152409,38140,0.191,-0.918,-0.294,-1.098,0.122,0.732,608.385
136650,152455,14158,0.188,-0.914,-0.281,-1.098,0.122,0.732,608.392
136643,152409,38140,0.188,-0.905,-0.285,-0.244,0.305,0.305,608.395
136643,152422,14153,0.191,-0.898,-0.291,-0.244,0.305,0.305,608.401
136657,152409,38140,0.191,-0.897,-0.284,0.244,0,0.488,608.405
136657,152447,14165,0.19,-0.9,-0.282,0.244,0,0.488,608.411
136681,152409,38140,0.191,-0.895,-0.261,0.732,0.366,0.061,608.415
136681,152437,14139,0.187,-0.889,-0.261,0.732,0.366,0.061,608.421
136653,152409,38140,0.184,-0.888,-0.286,-0.488,0.366,0.183,608.425
136653,152438,14177,0.182,-0.894,-0.295,-0.488,0.366,0.183,608.431
136642,152409,38140,0.182,-0.894,-0.295,-0.488,0.366,0.183,608.435
136642,152440,14161,0.177,-0.898,-0.267,-0.427,0.549,0.671,608.441
136677,152409,38140,0.177,-0.898,-0.267,-0.427,0.549,0.671,608.445
136677,152441,14166,0.181,-0.889,-0.28,0.122,0.183,0.305,608.451
136678,152409,38140,0.181,-0.889,-0.28,0.122,0.183,0.305,608.455
136678,152469,14159,0.185,-0.9,-0.28,0.122,-0.244,0.854,608.461
136687,152409,38140,0.185,-0.9,-0.28,0.122,-0.244,0.854,608.465
136687,152468,14153,0.183,-0.897,-0.284,0.366,0.061,0.549,608.471
136652,152409,38140,0.183,-0.897,-0.284,0.366,0.061,0.549,608.474
136652,152419,14174,0.182,-0.903,-0.274,-0.732,0,0.61,608.481
136637,152409,38140,0.182,-0.903,-0.274,-0.732,0,0.61,608.484
136637,152445,14155,0.191,-0.908,-0.287,-1.159,-0.366,0.671,608.49
136645,152409,38140,0.191,-0.908,-0.287,-1.159,-0.366,0.671,608.494
136645,152431,14157,0.187,-0.904,-0.257,-1.098,-0.122,0.061,608.5
136653,152409,38140,0.187,-0.904,-0.257,-1.098,-0.122,0.061,608.504
136653,152396,14158,0.189,-0.893,-0.306,-1.037,0.244,0,608.51
136632,152409,38140,0.189,-0.893,-0.306,-1.037,0.244,0,608.514
136632,152460,14162,0.185,-0.901,-0.287,-1.28,0.61,0.244,608.52
136656,152409,38140,0.185,-0.901,-0.287,-1.28,0.61,0.244,608.524
136656,152453,14155,0.191,-0.894,-0.286,-0.61,0.305,0.183,608.53
136655,152409,38140,0.191,-0.894,-0.286,-0.61,0.305,0.183,608.534
136655,152427,14148,0.188,-0.889,-0.278,-0.427,0,0.366,608.54
136642,152409,38140,0.188,-0.889,-0.278,-0.427,0,0.366,608.544
136642,152428,14154,0.185,-0.897,-0.305,-0.671,0.244,0.427,608.55
136607,152409,38140,0.185,-0.897,-0.305,-0.671,0.244,0.427,608.554
136607,152406,14156,0.184,-0.906,-0.286,-0.366,0.732,0.427,608.56
136651,152409,38140,0.184,-0.906,-0.286,-0.366,0.732,0.427,608.563
136651,152432,14157,0.18,-0.898,-0.257,0.244,0.61,0.427,608.57
136618,152409,38140,0.18,-0.889,-0.255,0.244,0.61,0.427,608.573
136618,152447,14159,0.186,-0.889,-0.284,-0.427,0,1.037,608.58
136633,152409,38140,0.188,-0.895,-0.291,-0.427,0,1.037,608.583
136633,152415,14154,0.181,-0.902,-0.269,-0.427,0.427,0.732,608.589
136623,152409,38140,0.184,-0.901,-0.272,-0.427,0.427,0.732,608.593
136623,152408,14164,0.185,-0.896,-0.286,-1.524,0.488,0.061,608.599
136654,152409,38140,0.178,-0.897,-0.268,-1.524,0.488,0.061,608.603
136654,152429,14168,0.18,-0.902,-0.268,-0.976,-0.061,0.793,608.609
136655,152409,38140,0.189,-0.907,-0.289,-0.976,-0.061,0.793,608.613
136655,152456,14156,0.188,-0.907,-0.301,-0.183,0,0.366,608.619
136630,152409,38140,0.183,-0.908,-0.299,-0.183,0,0.366,608.623
136630,152436,14160,0.178,-0.912,-0.282,0.732,0.61,0.366,608.629
136636,152409,38140,0.181,-0.902,-0.277,0.732,0.61,0.366,608.633
136636,152422,14164,0.185,-0.892,-0.275,1.037,0.122,0.427,608.639
136643,152409,38140,0.185,-0.886,-0.248,1.037,0.122,0.427,608.643
136643,152424,14151,0.187,-0.882,-0.266,-0.122,-0.244,0.549,608.649
136646,152409,38140,0.19,-0.887,-0.3,-0.122,-0.244,0.549,608.653
136646,152425,14149,0.184,-0.9,-0.297,-1.341,0.122,0.61,608.659
136653,152409,38140,0.179,-0.909,-0.282,-1.341,0.122,0.61,608.662
136653,152438,14155,0.181,-0.908,-0.266,-0.976,-0.122,0.305,608.669
136675,152409,38140,0.182,-0.895,-0.278,-0.976,-0.122,0.305,608.672
136675,152439,14159,0.186,-0.889,-0.297,-1.037,-0.61,0.488,608.679
136667,152409,38140,0.185,-0.903,-0.276,-1.037,-0.61,0.488,608.682
136667,152439,14157,0.188,-0.901,-0.283,-0.183,-0.305,0.549,608.688
136650,152409,38140,0.189,-0.896,-0.316,-0.183,-0.305,0.549,608.692
136650,152456,14164,0.186,-0.902,-0.318,-0.366,0.427,0,608.698
136659,152409,38140,0.18,-0.91,-0.319,-0.366,0.427,0,608.702
136659,152443,14150,0.177,-0.914,-0.306,1.646,0.793,0.671,608.708
136678,152409,38140,0.181,-0.898,-0.291,1.646,0.793,0.671,608.712
136678,152457,14170,0.182,-0.882,-0.289,2.378,0.549,0.427,608.718
136677,152409,38140,0.182,-0.881,-0.291,2.378,0.549,0.427,608.722
136677,152465,14155,0.179,-0.888,-0.278,2.439,0.671,0.976,608.728
136675,152409,38140,0.182,-0.893,-0.246,2.439,0.671,0.976,608.732
136675,152467,14165,0.181,-0.886,-0.239,1.463,0.732,0.366,608.738
136694,152409,38140,0.187,-0.887,-0.272,1.463,0.732,0.366,608.742
136694,152472,14159,0.183,-0.894,-0.283,-1.463,0.732,0.671,608.748
136678,152409,38140,0.182,-0.909,-0.298,-1.463,0.732,0.671,608.752
136678,152466,14158,0.185,-0.918,-0.301,-1.098,0.793,0.305,608.758
136693,152409,38140,0.188,-0.915,-0.286,-1.098,0.793,0.305,608.761
136693,152477,14160,0.188,-0.907,-0.278,0.549,0.549,0.183,608.768
136683,152409,38140,0.19,-0.892,-0.273,0.549,0.549,0.183,608.771
136683,152460,14184,0.195,-0.887,-0.266,0.488,0.183,0.732,608.778
136691,152409,38140,0.193,-0.895,-0.276,0.488,0.183,0.732,608.781
136691,152463,14171,0.188,-0.9,-0.271,-0.183,0.732,0.427,608.787
136720,152409,38140,0.183,-0.9,-0.267,-0.183,0.732,0.427,608.791
136720,152500,14184,0.18,-0.903,-0.288,-1.28,1.159,0.183,608.797
136723,152409,38140,0.18,-0.909,-0.3,-1.28,1.159,0.183,608.801
136723,152507,14175,0.177,-0.916,-0.299,0,0.915,0.61,608.807
136720,152409,38140,0.177,-0.911,-0.288,0,0.915,0.61,608.811
136720,152493,14176,0.178,-0.897,-0.274,2.256,0.854,0.366,608.817
136754,152409,38140,0.18,-0.884,-0.266,2.256,0.854,0.366,608.821
136754,152500,14158,0.182,-0.877,-0.259,2.439,0.366,0.854,608.827
136742,152409,38140,0.186,-0.883,-0.28,2.439,0.366,0.854,608.831
136742,152517,14172,0.184,-0.891,-0.276,0.61,0.61,0.732,608.837
136715,152409,38140,0.177,-0.893,-0.245,0.61,0.61,0.732,608.841
136715,152514,14168,0.182,-0.896,-0.265,-1.707,0.427,0.366,608.847
136732,152409,38140,0.186,-0.901,-0.297,-1.707,0.427,0.366,608.851
136732,152487,14174,0.187,-0.911,-0.299,-2.927,-0.061,0.427,608.857
136740,152409,38140,0.188,-0.918,-0.295,-2.927,-0.061,0.427,608.86
136740,152511,14191,0.192,-0.915,-0.306,-1.524,0.244,0,608.867
136727,152409,38140,0.189,-0.91,-0.285,-1.524,0.244,0,608.87
136727,152515,14184,0.184,-0.901,-0.256,-0.244,0.366,0.061,608.877
136730,152409,38140,0.187,-0.893,-0.28,-0.244,0.366,0.061,608.88
136730,152489,14160,0.187,-0.892,-0.296,-0.244,0.488,0.305,608.886
136746,152409,38140,0.181,-0.901,-0.273,-0.244,0.488,0.305,608.89
136746,152538,14177,0.184,-0.906,-0.278,0.183,0.671,0.061,608.896
136779,152409,38140,0.182,-0.898,-0.282,0.183,0.671,0.061,608.9
136779,152528,14180,0.182,-0.893,-0.288,-0.122,0.427,0,608.906
136739,152409,38140,0.182,-0.899,-0.299,-0.122,0.427,0,608.91
136739,152539,14183,0.184,-0.902,-0.299,1.22,0.183,0.671,608.916
136744,152409,38140,0.188,-0.901,-0.297,1.22,0.183,0.671,608.92
136744,152524,14171,0.183,-0.895,-0.28,2.439,0.61,0.305,608.926
136778,152409,38140,0.181,-0.881,-0.267,2.439,0.61,0.305,608.93
136778,152533,14180,0.179,-0.876,-0.266,1.341,0.671,0.793,608.936
136778,152409,38140,0.181,-0.879,-0.258,1.341,0.671,0.793,608.94
136778,152543,14179,0.185,-0.892,-0.273,-0.366,0.488,0.793,608.946
136772,152409,38140,0.186,-0.901,-0.276,-0.366,0.488,0.793,608.95
136772,152552,14178,0.183,-0.907,-0.27,-1.585,0.671,0.366,608.956
136778,152409,38140,0.184,-0.912,-0.274,-1.585,0.671,0.366,608.959
136778,152542,14189,0.183,-0.913,-0.288,-2.073,0.244,0.549,608.966
136800,152409,38140,0.181,-0.917,-0.278,-2.073,0.244,0.549,608.969
136800,152572,14195,0.185,-0.915,-0.263,-0.854,-0.122,0.549,608.976
136804,152409,38140,0.19,-0.908,-0.278,-0.854,-0.122,0.549,608.979
136804,152568,14201,0.189,-0.899,-0.3,0.183,0.366,0.061,608.985
136789,152409,38140,0.185,-0.899,-0.311,0.183,0.366,0.061,608.989
136789,152540,14197,0.183,-0.908,-0.299,1.463,0.854,0.671,608.995
136766,152409,38140,0.183,-0.901,-0.279,1.463,0.854,0.671,608.999
136766,152542,14187,0.183,-0.888,-0.276,2.561,0.854,0.427,609.005
136745,152409,38140,0.183,-0.888,-0.276,2.561,0.854,0.427,609.009
136745,152526,14202,0.181,-0.878,-0.256,1.707,0.488,0.915,609.015
136759,152409,38140,0.181,-0.878,-0.256,1.707,0.488,0.915,609.019
136759,152541,14176,0.188,-0.893,-0.292,0.183,0.549,0.732,609.025
136769,152409,38140,0.188,-0.893,-0.292,0.183,0.549,0.732,609.029
136769,152527,14192,0.187,-0.906,-0.276,-0.732,0.854,0.305,609.035
136755,152409,38140,0.187,-0.906,-0.276,-0.732,0.854,0.305,609.039
136755,152540,14201,0.186,-0.902,-0.28,-1.402,0.427,0.732,609.045
136765,152409,38140,0.186,-0.902,-0.28,-1.402,0.427,0.732,609.049
136765,152517,14185,0.192,-0.907,-0.304,-0.488,0.671,0.793,609.055
136742,152409,38140,0.192,-0.907,-0.304,-0.488,0.671,0.793,609.058
136742,152537,14191,0.18,-0.909,-0.274,0.793,1.28,0.427,609.065
136745,152409,38140,0.18,-0.909,-0.274,0.793,1.28,0.427,609.068
136745,152540,14178,0.182,-0.897,-0.277,0.976,0.854,0.549,609.074
136756,152409,38140,0.182,-0.897,-0.277,0.976,0.854,0.549,609.078
136756,152544,14186,0.178,-0.905,-0.26,1.098,0.549,0.549,609.084
136754,152409,38140,0.178,-0.905,-0.26,1.098,0.549,0.549,609.088
136754,152550,14186,0.187,-0.887,-0.269,0.732,0.61,0,609.094
136728,152409,38140,0.187,-0.887,-0.269,0.732,0.61,0,609.098
136728,152499,14192,0.18,-0.905,-0.284,-0.305,0.732,0.61,609.104
136740,152409,38140,0.18,-0.905,-0.284,-0.305,0.732,0.61,609.108
136740,152503,14189,0.186,-0.901,-0.281,0,0.732,0.305,609.114
136714,152409,38140,0.186,-0.901,-0.281,0,0.732,0.305,609.118
136714,152541,14202,0.186,-0.885,-0.277,-0.488,0.305,0.61,609.124
136728,152409,38140,0.186,-0.885,-0.277,-0.488,0.305,0.61,609.128
136728,152528,14183,0.188,-0.9,-0.298,-0.183,0.305,1.037,609.134
136742,152409,38140,0.188,-0.9,-0.298,-0.183,0.305,1.037,609.138
136742,152531,14193,0.184,-0.904,-0.283,0.061,0.976,0.183,609.144
136757,152409,38140,0.184,-0.904,-0.283,0.061,0.976,0.183,609.148
136757,152507,14182,0.182,-0.899,-0.264,0.061,0.976,0.183,609.154
136741,152409,38140,0.182,-0.897,-0.256,-0.488,0.854,0.549,609.157
136741,152546,14197,0.183,-0.899,-0.276,-0.488,0.854,0.549,609.164
136749,152409,38140,0.184,-0.901,-0.286,-1.159,0.732,0.61,609.167
136749,152538,14179,0.185,-0.91,-0.281,-1.159,0.732,0.61,609.173
136745,152409,38140,0.183,-0.912,-0.286,-0.732,0.976,0.183,609.177
136745,152515,14187,0.185,-0.905,-0.287,-0.732,0.976,0.183,609.183
136721,152409,38140,0.183,-0.899,-0.278,0.061,0.915,0.244,609.187
136721,152530,14190,0.182,-0.895,-0.264,0.061,0.915,0.244,609.193
136732,152409,38140,0.187,-0.891,-0.275,1.159,0.488,0.793,609.197
136732,152510,14203,0.186,-0.886,-0.285,1.159,0.488,0.793,609.203
136691,152409,38140,0.187,-0.888,-0.278,0.976,0.732,0.549,609.207
136691,152490,14195,0.181,-0.889,-0.257,0.976,0.732,0.549,609.213
136706,152409,38140,0.179,-0.889,-0.275,-0.122,0.61,0.671,609.217
136706,152498,14182,0.181,-0.89,-0.303,-0.122,0.61,0.671,609.223
136704,152409,38140,0.183,-0.904,-0.302,-1.341,0.488,0.793,609.227
136704,152508,14189,0.181,-0.919,-0.278,-1.341,0.488,0.793,609.233
136707,152409,38140,0.181,-0.909,-0.27,-0.854,0.305,0.305,609.237
136707,152476,14179,0.186,-0.901,-0.287,-0.854,0.305,0.305,609.243
136711,152409,38140,0.182,-0.901,-0.286,-0.976,0.305,0.427,609.246
136711,152503,14179,0.181,-0.91,-0.284,-0.976,0.305,0.427,609.253
136699,152409,38140,0.184,-0.908,-0.278,0.61,0.549,0.793,609.256
136699,152512,14188,0.185,-0.909,-0.273,0.61,0.549,0.793,609.263
136745,152409,38140,0.181,-0.902,-0.273,0.549,0.732,0.061,609.266
136745,152501,14183,0.182,-0.891,-0.274,0.549,0.732,0.061,609.272
136730,152409,38140,0.183,-0.89,-0.28,0.061,0.549,0.549,609.276
136730,152494,14184,0.186,-0.899,-0.273,0.061,0.549,0.549,609.282
136708,152409,38140,0.187,-0.904,-0.265,0.183,0.305,0.183,609.286
136708,152498,14177,0.188,-0.897,-0.278,0.183,0.305,0.183,609.292
136697,152409,38140,0.183,-0.894,-0.273,-0.854,0.488,-0.183,609.296
136697,152481,14171,0.183,-0.896,-0.274,-0.854,0.488,-0.183,609.302
136727,152409,38140,0.189,-0.903,-0.278,-0.549,0.061,0.732,609.306
136727,152513,14189,0.186,-0.903,-0.275,-0.549,0.061,0.732,609.312
136719,152409,38140,0.188,-0.898,-0.279,-0.183,0.061,0.366,609.316
136719,152509,14189,0.186,-0.899,-0.293,-0.183,0.061,0.366,609.322
136736,152409,38140,0.182,-0.904,-0.297,0.244,0.366,0.915,609.326
136736,152498,14187,0.184,-0.904,-0.291,0.244,0.366,0.915,609.332
136733,152409,38140,0.183,-0.904,-0.291,0.915,0.61,0.671,609.336
136733,152527,14176,0.18,-0.896,-0.289,0.915,0.61,0.671,609.342
136706,152409,38140,0.176,-0.894,-0.283,0.915,0.793,0.61,609.345
136706,152487,14190,0.18,-0.894,-0.268,0.915,0.793,0.61,609.352
136707,152409,38140,0.182,-0.893,-0.26,0.61,0.549,0.793,609.355
136707,152508,14183,0.186,-0.899,-0.275,0.61,0.549,0.793,609.362
136710,152409,38140,0.187,-0.903,-0.291,-0.549,0.488,0.305,609.365
136710,152469,14170,0.181,-0.906,-0.293,-0.549,0.488,0.305,609.371
136703,152409,38140,0.18,-0.912,-0.274,-0.488,0.671,0.671,609.375
136703,152521,14162,0.184,-0.906,-0.268,-0.488,0.671,0.671,609.381
136724,152409,38140,0.185,-0.898,-0.286,0.244,0.305,0.671,609.385
136724,152492,14177,0.186,-0.9,-0.284,0.244,0.305,0.671,609.391
136699,152409,38140,0.182,-0.898,-0.281,0.61,0.793,0.671,609.395
136699,152502,14184,0.182,-0.901,-0.279,0.61,0.793,0.671,609.401
136712,152409,38140,0.183,-0.9,-0.261,0.305,1.037,0.244,609.405
136712,152508,14188,0.184,-0.891,-0.267,0.305,1.037,0.244,609.411
136718,152409,38140,0.185,-0.896,-0.287,-0.732,0.549,0.244,609.415
136718,152521,14187,0.187,-0.903,-0.27,-0.732,0.549,0.244,609.421
136708,152409,38140,0.185,-0.904,-0.26,-0.549,0.427,0.488,609.425
136708,152497,14185,0.185,-0.903,-0.267,-0.549,0.427,0.488,609.431
136713,152409,38140,0.184,-0.898,-0.268,-0.671,0.671,0.305,609.435
136713,152494,14183,0.182,-0.895,-0.268,-0.671,0.671,0.305,609.441
136716,152409,38140,0.181,-0.894,-0.277,-0.732,0.488,0.976,609.444
136716,152520,14190,0.179,-0.897,-0.295,-0.732,0.488,0.976,609.451
136715,152409,38140,0.178,-0.905,-0.292,-0.183,0.305,0.732,609.454
136715,152503,14195,0.181,-0.908,-0.294,-0.183,0.305,0.732,609.461
136721,152409,38140,0.182,-0.905,-0.302,0.122,0.244,0.305,609.464
136721,152494,14189,0.181,-0.906,-0.296,0.122,0.244,0.305,609.47
136721,152409,38140,0.18,-0.907,-0.262,0.366,0,0.488,609.474
136721,152521,14180,0.183,-0.899,-0.246,0.366,0,0.488,609.48
136705,152409,38140,0.188,-0.891,-0.275,0.366,-0.061,0.122,609.484
136705,152518,14193,0.19,-0.892,-0.283,0.366,-0.061,0.122,609.49
136740,152409,38140,0.183,-0.898,-0.27,-0.305,0.915,0.244,609.494
136740,152516,14176,0.18,-0.898,-0.282,-0.305,0.915,0.244,609.5
136716,152409,38140,0.18,-0.9,-0.289,-1.037,0.915,0.305,609.504
136716,152562,14189,0.179,-0.905,-0.283,-1.037,0.915,0.305,609.51
136740,152409,38140,0.181,-0.909,-0.262,-0.915,0.122,0.244,609.514
136740,152526,14177,0.189,-0.899,-0.263,-0.915,0.122,0.244,609.52
136743,152409,38140,0.196,-0.893,-0.29,-0.915,-0.244,0.122,609.524
136743,152537,14190,0.194,-0.901,-0.299,-0.915,-0.244,0.122,609.53
136739,152409,38140,0.187,-0.907,-0.284,0.122,0.488,0.305,609.534
136739,152549,14185,0.186,-0.909,-0.282,0.122,0.488,0.305,609.54
136731,152409,38140,0.186,-0.895,-0.289,1.037,0.671,0.183,609.543
136731,152541,14189,0.183,-0.892,-0.293,1.037,0.671,0.183,609.55
136718,152409,38140,0.18,-0.895,-0.28,1.28,0.366,0.854,609.553
136718,152524,14199,0.182,-0.897,-0.249,1.28,0.366,0.854,609.56
136732,152409,38140,0.184,-0.883,-0.255,1.22,-0.061,0.549,609.563
136732,152516,14189,0.183,-0.877,-0.268,1.22,-0.061,0.549,609.569
136721,152409,38140,0.178,-0.889,-0.265,-0.61,0,0.793,609.573
136721,152532,14201,0.179,-0.901,-0.283,-0.61,0,0.793,609.579
136740,152409,38140,0.179,-0.901,-0.283,-0.61,0,0.793,609.583
136740,152544,14188,0.181,-0.912,-0.298,-1.037,0.305,0.732,609.589
136726,152409,38140,0.181,-0.912,-0.298,-1.037,0.305,0.732,609.593
136726,152547,14197,0.181,-0.906,-0.275,-0.671,0.183,0.61,609.599
136755,152665,38140,0.181,-0.906,-0.275,-0.671,0.183,0.61,609.603
136755,152583,14196,0.188,-0.902,-0.293,0.244,-0.122,0.976,609.609
136763,152409,38140,0.188,-0.902,-0.293,0.244,-0.122,0.976,609.613
136763,152552,14204,0.181,-0.912,-0.26,0.305,0.244,0.671,609.619
136729,152409,38140,0.181,-0.912,-0.26,0.305,0.244,0.671,609.623
136729,152536,14198,0.182,-0.896,-0.27,0.305,0.366,0.183,609.629
136725,152409,38140,0.182,-0.896,-0.27,0.305,0.366,0.183,609.633
136725,152547,14198,0.18,-0.9,-0.279,-0.488,0.427,0.244,609.639
136735,152409,38140,0.18,-0.9,-0.279,-0.488,0.427,0.244,609.642
136735,152550,14218,0.185,-0.903,-0.283,-0.122,0.549,0.427,609.649
136748,152409,38140,0.185,-0.903,-0.283,-0.122,0.549,0.427,609.652
136748,152532,14207,0.189,-0.89,-0.272,-0.305,0.305,-0.122,609.658
136745,152409,38140,0.189,-0.89,-0.272,-0.305,0.305,-0.122,609.662
136745,152571,14201,0.191,-0.895,-0.298,-0.488,-0.122,0.244,609.668
136740,152409,38140,0.191,-0.895,-0.298,-0.488,-0.122,0.244,609.672
136740,152561,14211,0.184,-0.906,-0.285,-0.61,0.305,0.305,609.678
136719,152409,38140,0.184,-0.906,-0.285,-0.61,0.305,0.305,609.682
136719,152540,14205,0.183,-0.9,-0.288,-0.427,0.488,0.122,609.688
136752,152409,38140,0.183,-0.9,-0.288,-0.427,0.488,0.122,609.692
136752,152554,14203,0.183,-0.895,-0.266,-0.122,0.305,0.549,609.698
136749,152409,38140,0.183,-0.895,-0.266,-0.122,0.305,0.549,609.702
136749,152536,14202,0.181,-0.899,-0.275,0.244,0.488,0.427,609.708
136726,152409,38140,0.181,-0.899,-0.275,0.244,0.488,0.427,609.712
136726,152545,14199,0.184,-0.906,-0.281,0,0.61,0.366,609.718
136730,152409,38140,0.184,-0.906,-0.281,0,0.61,0.366,609.722
136730,152565,14202,0.181,-0.904,-0.281,-0.183,0.61,0.427,609.728
136758,152409,38140,0.18,-0.904,-0.275,-0.183,0.61,0.427,609.732
136758,152545,14201,0.178,-0.904,-0.271,-0.305,0.305,0.488,609.738
136735,152409,38140,0.182,-0.904,-0.287,-0.305,0.305,0.488,609.741
136735,152568,14207,0.183,-0.901,-0.29,0.244,0.244,0.427,609.748
136754,152409,38140,0.18,-0.901,-0.261,0.244,0.244,0.427,609.751
136754,152544,14211,0.185,-0.901,-0.252,0.671,0.305,0.244,609.757
136725,152409,38140,0.188,-0.891,-0.268,0.671,0.305,0.244,609.761
136725,152535,14195,0.186,-0.885,-0.281,-0.427,0.488,0.122,609.767
136754,152409,38140,0.182,-0.897,-0.294,-0.427,0.488,0.122,609.771
136754,152538,14208,0.183,-0.907,-0.295,-1.098,0.732,0.488,609.777
136743,152409,38140,0.187,-0.906,-0.289,-1.098,0.732,0.488,609.781
136743,152559,14196,0.186,-0.902,-0.276,-0.671,0.488,0.061,609.787
136731,152409,38140,0.185,-0.896,-0.275,-0.671,0.488,0.061,609.791
136731,152538,14198,0.187,-0.894,-0.276,-0.366,0.183,0.61,609.797
136729,152409,38140,0.187,-0.899,-0.266,-0.366,0.183,0.61,609.801
136729,152525,14205,0.183,-0.904,-0.273,-0.122,0.488,0.549,609.807
136760,152409,38140,0.184,-0.903,-0.288,-0.122,0.488,0.549,609.811
136760,152564,14201,0.184,-0.902,-0.302,-0.366,1.037,0.061,609.817
136736,152409,38140,0.182,-0.903,-0.294,-0.366,1.037,0.061,609.821
136736,152548,14206,0.178,-0.903,-0.28,0.488,0.854,0.732,609.827
136754,152409,38140,0.184,-0.895,-0.276,0.488,0.854,0.732,609.831
136754,152557,14198,0.185,-0.891,-0.283,1.402,0.366,0.549,609.837
136703,152409,38140,0.186,-0.889,-0.286,1.402,0.366,0.549,609.84
136703,152517,14203,0.182,-0.892,-0.256,1.341,0.61,0.61,609.847
136722,152409,38140,0.179,-0.888,-0.238,1.341,0.61,0.61,609.85
136722,152533,14192,0.181,-0.886,-0.265,-0.122,0.366,0.549,609.856
136707,152409,38140,0.181,-0.895,-0.287,-0.122,0.366,0.549,609.86
136707,152505,14210,0.178,-0.912,-0.291,-1.463,0.366,0.732,609.866
136746,152409,38140,0.179,-0.925,-0.29,-1.463,0.366,0.732,609.87
136746,152555,14194,0.183,-0.921,-0.291,-0.549,0.488,0.061,609.876
136708,152409,38140,0.184,-0.909,-0.287,-0.549,0.488,0.061,609.88
136708,152530,14199,0.184,-0.901,-0.287,0.732,0,0.732,609.886
136719,152409,38140,0.182,-0.896,-0.275,0.732,0,0.732,609.89
136719,152527,14190,0.185,-0.897,-0.271,1.768,0.183,1.098,609.896
136703,152409,38140,0.184,-0.896,-0.247,1.768,0.183,1.098,609.9
136703,152497,14212,0.182,-0.885,-0.246,0.061,0.61,0.061,609.906
136729,152409,38140,0.186,-0.886,-0.28,0.061,0.61,0.061,609.91
136729,152530,14198,0.185,-0.898,-0.289,-2.134,0.488,0.488,609.916
136736,152409,38140,0.183,-0.913,-0.289,-2.134,0.488,0.488,609.92
136736,152532,14205,0.187,-0.915,-0.29,-1.098,0.427,0.183,609.926
136743,152409,38140,0.187,-0.905,-0.294,-1.098,0.427,0.183,609.93
136743,152541,14200,0.188,-0.897,-0.296,0.244,0.183,0.427,609.936
136728,152409,38140,0.185,-0.901,-0.29,0.244,0.183,0.427,609.939
136728,152508,14185,0.187,-0.9,-0.279,1.89,0.305,1.037,609.946
136738,152409,38140,0.185,-0.891,-0.282,1.89,0.305,1.037,609.949
136738,152542,14205,0.181,-0.892,-0.26,1.463,0.61,0.549,609.955
136733,152409,38140,0.181,-0.89,-0.25,1.463,0.61,0.549,609.959
136733,152531,14190,0.182,-0.894,-0.283,-0.122,0.244,0.854,609.965
136723,152409,38140,0.181,-0.904,-0.283,-0.122,0.244,0.854,609.969
136723,152532,14194,0.174,-0.915,-0.254,-0.854,0.427,0.549,609.975
136743,152409,38140,0.178,-0.913,-0.263,-0.854,0.427,0.549,609.979
136743,152512,14199,0.183,-0.903,-0.289,-1.341,0.305,-0.183,609.985
136720,152409,38140,0.181,-0.903,-0.297,-1.341,0.305,-0.183,609.989
136720,152548,14184,0.178,-0.91,-0.296,-0.915,0.427,0.549,609.995
136705,152409,38140,0.181,-0.911,-0.287,-0.915,0.427,0.549,609.999
136705,152543,14194,0.187,-0.904,-0.267,0.61,0.244,0.183,610.005
136713,152409,38140,0.185,-0.896,-0.275,0.61,0.244,0.183,610.009
136713,152503,14198,0.187,-0.894,-0.277,0.427,0.122,0.122,610.015
136705,152409,38140,0.187,-0.897,-0.26,0.427,0.122,0.122,610.019
136705,152542,14187,0.19,-0.896,-0.276,0.061,0.61,0,610.025
136701,152409,38140,0.189,-0.889,-0.29,0.061,0.61,0,610.028
136701,152513,14194,0.182,-0.893,-0.277,-0.427,1.037,-0.122,610.035
136707,152409,38140,0.179,-0.896,-0.27,-0.427,1.037,-0.122,610.038
136707,152528,14197,0.182,-0.893,-0.268,0.366,0.732,0.671,610.045
136741,152409,38140,0.184,-0.89,-0.28,0.366,0.732,0.671,610.048
136741,152550,14197,0.184,-0.895,-0.279,-0.305,0.244,0.671,610.054
136738,152409,38140,0.184,-0.901,-0.276,-0.305,0.244,0.671,610.058
136738,152564,14208,0.188,-0.905,-0.275,-0.549,0.061,0.915,610.064
136712,152409,38140,0.189,-0.906,-0.273,-0.549,0.061,0.915,610.068
136712,152523,14189,0.186,-0.912,-0.277,-1.22,0,0.488,610.074
136731,152409,38140,0.183,-0.916,-0.283,-1.22,0,0.488,610.078
136731,152525,14182,0.178,-0.918,-0.273,-0.549,0.427,0.427,610.084
136715,152409,38140,0.179,-0.913,-0.268,-0.549,0.427,0.427,610.088
136715,152537,14188,0.18,-0.904,-0.268,0.549,0.183,0.427,610.094
136742,152409,38140,0.179,-0.893,-0.264,0.549,0.183,0.427,610.098
136742,152530,14175,0.18,-0.89,-0.284,0.305,0,0.488,610.104
136728,152409,38140,0.182,-0.891,-0.293,0.305,0,0.488,610.108
136728,152529,14193,0.181,-0.896,-0.298,-0.427,0.305,0.183,610.114
136743,152409,38140,0.179,-0.904,-0.29,-0.427,0.305,0.183,610.118
136743,152536,14185,0.181,-0.904,-0.278,-0.488,0.061,0.183,610.124
136700,152409,38140,0.183,-0.902,-0.281,-0.488,0.061,0.183,610.127
136700,152533,14177,0.183,-0.899,-0.289,-0.183,0,0.061,610.134
136728,152409,38140,0.184,-0.9,-0.291,-0.183,0,0.061,610.137
136728,152544,14195,0.183,-0.902,-0.29,0.671,0.671,0.305,610.143
136736,152409,38140,0.181,-0.901,-0.272,0.671,0.671,0.305,610.147
136736,152556,14180,0.183,-0.894,-0.246,0.793,0.915,0.305,610.153
136739,152409,38140,0.183,-0.894,-0.246,0.793,0.915,0.305,610.157
136739,152540,14191,0.188,-0.886,-0.276,-0.427,0.366,0.671,610.163
136743,152409,38140,0.188,-0.886,-0.276,-0.427,0.366,0.671,610.167
136743,152559,14198,0.187,-0.912,-0.291,-0.793,0.549,0.854,610.173
136728,152409,38140,0.187,-0.912,-0.291,-0.793,0.549,0.854,610.177
136728,152548,14184,0.188,-0.915,-0.276,-0.061,0.427,0.366,610.183
136731,152409,38140,0.188,-0.915,-0.276,-0.061,0.427,0.366,610.187
136731,152573,14195,0.187,-0.9,-0.278,0.671,0.183,0.61,610.193
136776,152409,38140,0.187,-0.9,-0.278,0.671,0.183,0.61,610.197
136776,152564,14192,0.182,-0.902,-0.268,1.28,0.427,0.61,610.203
136755,152409,38140,0.182,-0.902,-0.268,1.28,0.427,0.61,610.207
136755,152538,14193,0.18,-0.899,-0.266,0.732,0.671,0.122,610.213
136747,152665,38140,0.18,-0.899,-0.266,0.732,0.671,0.122,610.216
136747,152586,14204,0.179,-0.901,-0.287,-0.549,0.61,0.427,610.223
136716,152409,38140,0.179,-0.901,-0.287,-0.549,0.61,0.427,610.226
136716,152548,14209,0.177,-0.901,-0.254,-0.183,0.244,0.366,610.233
136699,152409,38140,0.177,-0.901,-0.254,-0.183,0.244,0.366,610.236
136699,152531,14181,0.185,-0.889,-0.275,-0.671,-0.061,0.549,610.242
136731,152409,38140,0.185,-0.889,-0.275,-0.671,-0.061,0.549,610.246
136731,152546,14202,0.179,-0.91,-0.28,-0.427,0.183,0.793,610.252
136706,152409,38140,0.179,-0.91,-0.28,-0.427,0.183,0.793,610.256
136706,152541,14210,0.183,-0.906,-0.292,-0.549,0.244,0,610.262
136728,152409,38140,0.183,-0.906,-0.292,-0.549,0.244,0,610.266
136728,152557,14197,0.177,-0.91,-0.286,0.427,0.244,0.549,610.272
136739,152409,38140,0.177,-0.91,-0.286,0.427,0.244,0.549,610.276
136739,152554,14202,0.184,-0.896,-0.287,1.707,0.366,0.183,610.282
136715,152409,38140,0.184,-0.896,-0.287,1.707,0.366,0.183,610.286
136715,152559,14215,0.181,-0.886,-0.266,1.341,0.488,0.61,610.292
136714,152409,38140,0.181,-0.886,-0.266,1.341,0.488,0.61,610.296
136714,152523,14201,0.185,-0.886,-0.279,1.341,0.488,0.61,610.302
136730,152409,38140,0.184,-0.893,-0.283,0.183,0.305,0.61,610.306
136730,152556,14197,0.184,-0.906,-0.276,0.183,0.305,0.61,610.312
136732,152409,38140,0.182,-0.91,-0.269,-0.915,0.427,0,610.315
136732,152562,14202,0.186,-0.907,-0.267,-0.915,0.427,0,610.322
136733,152409,38140,0.186,-0.906,-0.278,-1.22,0.244,0.183,610.325
136733,152542,14207,0.189,-0.912,-0.283,-1.22,0.244,0.183,610.332
136729,152409,38140,0.192,-0.909,-0.275,0.183,0.244,0.671,610.335
136729,152557,14201,0.187,-0.902,-0.271,0.183,0.244,0.671,610.341
136729,152409,38140,0.183,-0.897,-0.283,1.098,0.244,0.549,610.345
136729,152549,14206,0.183,-0.9,-0.287,1.098,0.244,0.549,610.351
136732,152409,38140,0.179,-0.9,-0.269,1.22,0.244,0.671,610.355
136732,152557,14196,0.182,-0.897,-0.262,1.22,0.244,0.671,610.361
136694,152409,38140,0.185,-0.895,-0.277,0.427,0.061,0.488,610.365
136694,152542,14201,0.183,-0.897,-0.274,0.427,0.061,0.488,610.371
136719,152409,38140,0.181,-0.902,-0.265,-0.244,0.061,0.305,610.375
136719,152548,14195,0.182,-0.901,-0.267,-0.244,0.061,0.305,610.381
136728,152665,38140,0.181,-0.901,-0.275,-1.159,0.244,0,610.385
136728,152586,14212,0.182,-0.902,-0.284,-1.159,0.244,0,610.391
136747,152409,38140,0.184,-0.907,-0.281,-0.854,0.122,0.427,610.395
136747,152569,14223,0.183,-0.907,-0.274,-0.854,0.122,0.427,610.401
136722,152409,38140,0.184,-0.897,-0.277,-0.305,0.183,0.183,610.405
136722,152565,14200,0.185,-0.891,-0.296,-0.305,0.183,0.183,610.411
136733,152409,38140,0.183,-0.899,-0.291,-0.732,0.427,0.488,610.415
136733,152547,14188,0.182,-0.904,-0.255,-0.732,0.427,0.488,610.421
136720,152409,38140,0.185,-0.899,-0.267,-0.183,0.244,0.305,610.424
136720,152560,14205,0.185,-0.896,-0.274,-0.183,0.244,0.305,610.431
136709,152409,38140,0.181,-0.898,-0.265,-0.976,0.183,-0.061,610.434
136709,152515,14182,0.183,-0.901,-0.284,-0.976,0.183,-0.061,610.44
136710,152409,38140,0.184,-0.906,-0.299,-0.854,0.488,0.366,610.444
136710,152541,14188,0.18,-0.91,-0.288,-0.854,0.488,0.366,610.45
136706,152409,38140,0.179,-0.912,-0.278,-0.122,0.183,0.305,610.454
136706,152536,14212,0.179,-0.903,-0.277,-0.122,0.183,0.305,610.46
136718,152409,38140,0.182,-0.894,-0.278,0.244,-0.122,0.366,610.464
136718,152556,14188,0.182,-0.898,-0.282,0.244,-0.122,0.366,610.47
136721,152409,38140,0.184,-0.901,-0.277,0.671,0.244,0.61,610.474
136721,152525,14189,0.181,-0.898,-0.253,0.671,0.244,0.61,610.48
136692,152409,38140,0.179,-0.891,-0.252,-0.122,0.305,0.183,610.484
136692,152539,14202,0.181,-0.887,-0.273,-0.122,0.305,0.183,610.49
136695,152409,38140,0.179,-0.901,-0.28,-1.707,0,0.488,610.494
136695,152544,14179,0.178,-0.914,-0.279,-1.707,0,0.488,610.5
136702,152409,38140,0.181,-0.913,-0.287,-1.159,0,0.122,610.504
136702,152530,14203,0.185,-0.904,-0.289,-1.159,0,0.122,610.51
136704,152409,38140,0.18,-0.899,-0.286,-0.427,-0.122,0.244,610.513
136704,152547,14198,0.179,-0.9,-0.277,-0.427,-0.122,0.244,610.52
136714,152409,38140,0.183,-0.896,-0.279,0.854,-0.244,0.854,610.523
136714,152545,14185,0.183,-0.893,-0.279,0.854,-0.244,0.854,610.53
136710,152409,38140,0.182,-0.895,-0.269,0.671,0.061,0.61,610.533
136710,152544,14201,0.184,-0.898,-0.266,0.671,0.061,0.61,610.539
136721,152409,38140,0.183,-0.898,-0.265,0.122,0,0.549,610.543
136721,152546,14194,0.184,-0.904,-0.271,0.122,0,0.549,610.549
136715,152409,38140,0.184,-0.907,-0.268,-0.793,0.061,0.305,610.553
136715,152538,14194,0.182,-0.906,-0.273,-0.793,0.061,0.305,610.559
136711,152409,38140,0.184,-0.907,-0.276,-1.037,-0.061,0.183,610.563
136711,152527,14186,0.185,-0.909,-0.269,-1.037,-0.061,0.183,610.569
136688,152409,38140,0.181,-0.909,-0.267,-0.549,-0.61,0.183,610.573
136688,152524,14192,0.182,-0.904,-0.261,-0.549,-0.61,0.183,610.579
136694,152409,38140,0.184,-0.894,-0.263,-0.732,-0.854,0,610.583
136694,152521,14186,0.183,-0.894,-0.279,-0.732,-0.854,0,610.589
136688,152409,38140,0.178,-0.901,-0.275,-1.646,-0.732,0.122,610.593
136688,152541,14184,0.179,-0.905,-0.275,-1.646,-0.732,0.122,610.599
136711,152409,38140,0.182,-0.909,-0.289,-0.854,-0.915,-0.061,610.603
136711,152533,14181,0.179,-0.905,-0.284,-0.854,-0.915,-0.061,610.609
136687,152409,38140,0.174,-0.896,-0.278,-0.061,-1.037,0.061,610.612
136687,152519,14185,0.176,-0.89,-0.293,-0.061,-1.037,0.061,610.619
136720,152409,38140,0.179,-0.89,-0.291,0.61,-0.976,0.61,610.622
136720,152517,14202,0.175,-0.887,-0.281,0.61,-0.976,0.61,610.629
136684,152409,38140,0.179,-0.891,-0.285,0.122,-0.854,0.549,610.632
136684,152508,14163,0.179,-0.895,-0.289,0.122,-0.854,0.549,610.638
136690,152409,38140,0.178,-0.901,-0.284,-0.732,-0.732,0.488,610.642
136690,152535,14190,0.181,-0.904,-0.282,-0.732,-0.732,0.488,610.648
136685,152409,38140,0.183,-0.902,-0.289,-1.402,-0.671,0.366,610.652
136685,152519,14174,0.188,-0.908,-0.292,-1.402,-0.671,0.366,610.658
136690,152409,38140,0.185,-0.913,-0.286,-0.732,-0.305,0.183,610.662
136690,152523,14202,0.184,-0.911,-0.28,-0.732,-0.305,0.183,610.668
136720,152409,38140,0.185,-0.902,-0.281,-0.305,0.244,-0.061,610.672
136720,152516,14191,0.184,-0.903,-0.277,-0.305,0.244,-0.061,610.678
136703,152409,38140,0.183,-0.908,-0.252,-0.183,0.366,0.122,610.682
136703,152530,14207,0.186,-0.904,-0.239,-0.183,0.366,0.122,610.688
136700,152409,38140,0.193,-0.895,-0.273,-0.793,0,-0.305,610.692
136700,152528,14177,0.193,-0.898,-0.283,-0.793,0,-0.305,610.698
136685,152409,38140,0.189,-0.911,-0.271,-1.098,0.427,-0.244,610.702
136685,152546,14179,0.193,-0.913,-0.276,-1.098,0.427,-0.244,610.708
136688,152409,38140,0.196,-0.902,-0.282,0.366,0.61,-0.61,610.711
136688,152497,14181,0.191,-0.889,-0.26,0.366,0.61,-0.61,610.718
136746,152409,38140,0.188,-0.881,-0.244,1.28,0.549,0.061,610.721
136746,152527,14190,0.19,-0.875,-0.26,1.28,0.549,0.061,610.728
136699,152409,38140,0.194,-0.879,-0.286,1.402,0.671,0.732,610.731
136699,152536,14196,0.191,-0.893,-0.289,1.402,0.671,0.732,610.737
136700,152409,38140,0.191,-0.893,-0.289,1.402,0.671,0.732,610.741
136700,152529,14199,0.188,-0.899,-0.293,1.037,1.037,0.366,610.747
136699,152409,38140,0.188,-0.899,-0.293,1.037,1.037,0.366,610.751
136699,152532,14176,0.191,-0.892,-0.277,0.488,0.976,0.732,610.757
136661,152409,38140,0.191,-0.892,-0.277,0.488,0.976,0.732,610.761
136661,152505,14186,0.199,-0.891,-0.293,0.671,0.061,1.951,610.767
136693,152409,38140,0.199,-0.891,-0.293,0.671,0.061,1.951,610.771
136693,152533,14178,0.19,-0.899,-0.269,0.61,0.61,1.768,610.777
136705,152409,38140,0.19,-0.899,-0.269,0.61,0.61,1.768,610.781
136705,152523,14197,0.185,-0.906,-0.288,-0.793,0.976,1.28,610.787
136700,152409,38140,0.185,-0.906,-0.288,-0.793,0.976,1.28,610.791
136700,152515,14192,0.181,-0.924,-0.296,-2.378,0.793,1.037,610.797
136672,152409,38140,0.181,-0.924,-0.296,-2.378,0.793,1.037,610.801
136672,152531,14190,0.174,-0.917,-0.275,-1.829,0.671,0.793,610.807
136696,152409,38140,0.174,-0.917,-0.275,-1.829,0.671,0.793,610.81
136696,152527,14177,0.172,-0.901,-0.29,-1.159,0.244,0.61,610.817
136681,152409,38140,0.172,-0.901,-0.29,-1.159,0.244,0.61,610.82
136681,152491,14194,0.164,-0.898,-0.293,-0.671,0.366,0.732,610.827
136680,152409,38140,0.164,-0.898,-0.293,-0.671,0.366,0.732,610.83
136680,152504,14168,0.161,-0.891,-0.249,-0.854,0.671,0.244,610.836
136657,152409,38140,0.161,-0.891,-0.249,-0.854,0.671,0.244,610.84
136657,152516,14187,0.163,-0.893,-0.271,-2.073,-0.366,0,610.846
136682,152409,38140,0.163,-0.893,-0.271,-2.073,-0.366,0,610.85
136682,152536,14192,0.163,-0.91,-0.27,-3.171,-0.427,0.061,610.856
136668,152409,38140,0.163,-0.91,-0.27,-3.171,-0.427,0.061,610.86
136668,152519,14185,0.169,-0.896,-0.27,-3.171,-0.488,-0.427,610.866
136691,152409,38140,0.169,-0.896,-0.27,-3.171,-0.488,-0.427,610.87
136691,152529,14196,0.166,-0.902,-0.293,-4.024,-0.793,-0.061,610.876
136695,152409,38140,0.166,-0.902,-0.293,-4.024,-0.793,-0.061,610.88
136695,152538,14185,0.166,-0.915,-0.285,-3.354,-0.671,0.061,610.886
136672,152409,38140,0.172,-0.917,-0.289,-3.354,-0.671,0.061,610.89
136672,152524,14177,0.18,-0.911,-0.304,-2.195,-1.098,-0.732,610.896
136682,152409,38140,0.177,-0.909,-0.302,-2.195,-1.098,-0.732,610.9
136682,152515,14188,0.174,-0.908,-0.284,-0.366,-0.793,-0.183,610.906
136676,152409,38140,0.177,-0.905,-0.292,-0.366,-0.793,-0.183,610.909
136676,152529,14194,0.179,-0.899,-0.285,1.098,-0.427,-0.183,610.916
136687,152409,38140,0.177,-0.895,-0.277,1.098,-0.427,-0.183,610.919
136687,152525,14178,0.18,-0.89,-0.286,0.976,-0.183,-0.122,610.925
136680,152409,38140,0.18,-0.891,-0.278,0.976,-0.183,-0.122,610.929
136680,152498,14190,0.179,-0.893,-0.276,0.549,0,0.122,610.935
136698,152409,38140,0.182,-0.9,-0.292,0.549,0,0.122,610.939
136698,152524,14188,0.188,-0.899,-0.284,0.549,-0.183,-0.183,610.945
136676,152409,38140,0.188,-0.899,-0.273,0.549,-0.183,-0.183,610.949
136676,152526,14174,0.186,-0.895,-0.29,0.915,-0.244,0.122,610.955
136649,152409,38140,0.187,-0.897,-0.294,0.915,-0.244,0.122,610.959
136649,152537,14186,0.187,-0.897,-0.297,1.707,0,0.732,610.965
136677,152409,38140,0.182,-0.905,-0.289,1.707,0,0.732,610.969
136677,152546,14195,0.177,-0.904,-0.256,2.683,0,0.671,610.975
136683,152409,38140,0.184,-0.894,-0.272,2.683,0,0.671,610.979
136683,152554,14193,0.186,-0.896,-0.287,2.012,-0.305,0.854,610.985
136669,152409,38140,0.184,-0.9,-0.277,2.012,-0.305,0.854,610.989
136669,152530,14191,0.186,-0.902,-0.273,1.402,-0.183,0.671,610.995
136644,152409,38140,0.185,-0.9,-0.285,1.402,-0.183,0.671,610.999
136644,152525,14183,0.187,-0.897,-0.292,0.427,-0.061,0.183,611.005
136657,152409,38140,0.186,-0.904,-0.302,0.427,-0.061,0.183,611.008
136657,152503,14201,0.187,-0.913,-0.29,0.366,0.183,0.244,611.015
136699,152409,38140,0.187,-0.911,-0.255,0.366,0.183,0.244,611.018
136699,152565,14198,0.194,-0.895,-0.252,0.915,-0.122,-0.244,611.024
136687,152409,38140,0.199,-0.885,-0.279,0.915,-0.122,-0.244,611.028
136687,152543,14195,0.198,-0.891,-0.291,-0.305,0.244,0,611.034
136691,152409,38140,0.198,-0.898,-0.294,-0.305,0.244,0,611.038
136691,152505,14192,0.196,-0.903,-0.276,-0.366,1.22,-0.122,611.044
136714,152409,38140,0.197,-0.897,-0.264,-0.366,1.22,-0.122,611.048
136714,152547,14190,0.199,-0.888,-0.278,-0.61,0.732,-0.183,611.054
136698,152409,38140,0.198,-0.891,-0.282,-0.61,0.732,-0.183,611.058
136698,152555,14186,0.199,-0.898,-0.268,0.122,0.427,0.61,611.064
136701,152409,38140,0.198,-0.899,-0.262,0.122,0.427,0.61,611.068
136701,152533,14201,0.201,-0.888,-0.265,0.305,0.854,-0.122,611.074
136717,152409,38140,0.193,-0.884,-0.261,0.305,0.854,-0.122,611.078
136717,152558,14194,0.19,-0.886,-0.277,-1.524,0.976,0.976,611.084
136690,152409,38140,0.191,-0.898,-0.291,-1.524,0.976,0.976,611.088
136690,152513,14182,0.191,-0.907,-0.269,-1.951,0.671,1.28,611.094
136695,152409,38140,0.187,-0.906,-0.263,-1.951,0.671,1.28,611.098
136695,152507,14187,0.187,-0.897,-0.283,-1.89,0.488,0.793,611.104
136685,152409,38140,0.183,-0.894,-0.296,-1.89,0.488,0.793,611.107
136685,152535,14178,0.181,-0.9,-0.301,-2.195,0.488,1.402,611.114
136657,152409,38140,0.179,-0.906,-0.292,-2.195,0.488,1.402,611.117
136657,152533,14174,0.175,-0.905,-0.271,-1.707,0.427,0.854,611.123
136669,152409,38140,0.175,-0.901,-0.276,-1.707,0.427,0.854,611.127
136669,152502,14193,0.178,-0.898,-0.297,-2.378,0,1.098,611.133
136675,152409,38140,0.178,-0.901,-0.303,-2.378,0,1.098,611.137
136675,152487,14181,0.179,-0.909,-0.297,-1.89,0,1.341,611.143
136679,152409,38140,0.178,-0.911,-0.291,-1.89,0,1.341,611.147
136679,152519,14191,0.17,-0.904,-0.268,-1.037,0.427,0.732,611.153
136682,152409,38140,0.166,-0.891,-0.247,-1.037,0.427,0.732,611.157
136682,152498,14193,0.165,-0.888,-0.27,-1.646,0.488,0.915,611.163
136679,152409,38140,0.168,-0.897,-0.28,-1.646,0.488,0.915,611.167
136679,152528,14191,0.169,-0.905,-0.265,-2.012,0.366,0.732,611.173
136679,152409,38140,0.173,-0.912,-0.28,-2.012,0.366,0.732,611.177
136679,152517,14193,0.175,-0.905,-0.292,-2.134,0.732,-0.305,611.183
136674,152409,38140,0.173,-0.9,-0.3,-2.134,0.732,-0.305,611.187
136674,152509,14169,0.175,-0.9,-0.303,-1.22,0.671,0.366,611.193
136664,152409,38140,0.177,-0.9,-0.276,-1.22,0.671,0.366,611.197
136664,152521,14190,0.176,-0.89,-0.247,0.671,0.244,0.671,611.203
136660,152409,38140,0.179,-0.884,-0.241,0.671,0.244,0.671,611.206
136660,152517,14189,0.179,-0.882,-0.263,-0.061,0.061,0.732,611.213
136686,152409,38140,0.177,-0.893,-0.295,-0.061,0.061,0.732,611.216
136686,152505,14170,0.174,-0.913,-0.307,-1.22,0.488,0.915,611.222
136664,152409,38140,0.173,-0.921,-0.309,-1.22,0.488,0.915,611.226
136664,152523,14191,0.175,-0.918,-0.296,-0.061,0.244,0.549,611.232
136676,152409,38140,0.178,-0.909,-0.293,-0.061,0.244,0.549,611.236
136676,152517,14180,0.184,-0.899,-0.295,1.89,-0.61,1.098,611.242
136666,152409,38140,0.184,-0.894,-0.293,1.89,-0.61,1.098,611.246
136666,152489,14167,0.183,-0.895,-0.274,2.927,0,1.22,611.252
136655,152409,38140,0.179,-0.896,-0.28,2.927,0,1.22,611.256
136655,152498,14190,0.178,-0.901,-0.28,2.073,0.549,0.793,611.262
136669,152409,38140,0.175,-0.902,-0.249,2.073,0.549,0.793,611.266
136669,152491,14180,0.177,-0.9,-0.266,0.488,0.183,0.671,611.272
136667,152409,38140,0.184,-0.906,-0.292,0.488,0.183,0.671,611.276
136667,152502,14177,0.181,-0.909,-0.293,0.549,0.122,0.61,611.282
136669,152409,38140,0.18,-0.911,-0.288,0.549,0.122,0.61,611.286
136669,152488,14189,0.177,-0.903,-0.279,1.768,0.488,0.61,611.292
136650,152409,38140,0.174,-0.889,-0.291,1.768,0.488,0.61,611.295
136650,152487,14172,0.174,-0.895,-0.297,1.585,0.366,0.915,611.302
136641,152409,38140,0.171,-0.907,-0.297,1.585,0.366,0.915,611.305
136641,152485,14169,0.171,-0.909,-0.277,2.317,0.305,0.61,611.312
136665,152409,38140,0.171,-0.909,-0.277,2.317,0.305,0.61,611.315
136665,152496,14185,0.173,-0.886,-0.266,1.159,0.305,0.061,611.321
136665,152409,38140,0.173,-0.886,-0.266,1.159,0.305,0.061,611.325
136665,152501,14184,0.176,-0.9,-0.287,0.305,0.305,0.671,611.331
136677,152409,38140,0.176,-0.9,-0.287,0.305,0.305,0.671,611.335
136677,152509,14161,0.174,-0.904,-0.266,0.305,0.244,-0.061,611.341
136668,152409,38140,0.174,-0.904,-0.266,0.305,0.244,-0.061,611.345
136668,152491,14173,0.186,-0.897,-0.284,-0.793,-0.122,0.122,611.351
136669,152409,38140,0.186,-0.897,-0.284,-0.793,-0.122,0.122,611.355
136669,152489,14169,0.188,-0.903,-0.293,-0.732,0.122,0.122,611.361
136669,152409,38140,0.188,-0.903,-0.293,-0.732,0.122,0.122,611.365
136669,152510,14176,0.188,-0.903,-0.285,-0.366,0.488,-0.244,611.371
136666,152409,38140,0.188,-0.903,-0.285,-0.366,0.488,-0.244,611.375
136666,152505,14166,0.188,-0.899,-0.289,-0.488,0.549,-0.183,611.381
136673,152409,38140,0.188,-0.899,-0.289,-0.488,0.549,-0.183,611.385
136673,152512,14185,0.189,-0.897,-0.262,-0.427,0.488,0,611.391
136691,152409,38140,0.189,-0.897,-0.262,-0.427,0.488,0,611.394
136691,152525,14187,0.186,-0.897,-0.282,-1.28,0.61,-0.183,611.401
136657,152409,38140,0.186,-0.897,-0.282,-1.28,0.61,-0.183,611.404
136657,152508,14184,0.182,-0.908,-0.285,-0.915,0.671,-0.183,611.411
136685,152409,38140,0.182,-0.908,-0.285,-0.915,0.671,-0.183,611.414
136685,152511,14190,0.181,-0.904,-0.289,0.122,0.366,0,611.42
136706,152409,38140,0.181,-0.904,-0.289,0.122,0.366,0,611.424
136706,152552,14182,0.183,-0.897,-0.271,1.768,0.366,0.366,611.43
136650,152409,38140,0.183,-0.897,-0.271,1.768,0.366,0.366,611.434
136650,152502,14180,0.175,-0.888,-0.258,1.037,0.61,0.305,611.44
136656,152409,38140,0.175,-0.888,-0.258,1.037,0.61,0.305,611.444
136656,152475,14164,0.185,-0.887,-0.275,0.061,0.061,0.61,611.45
136662,152409,38140,0.185,-0.887,-0.275,0.061,0.061,0.61,611.454
136662,152505,14177,0.181,-0.893,-0.3,0.061,0.061,0.61,611.46
136673,152409,38140,0.176,-0.909,-0.301,-1.463,0.549,0.122,611.464
136673,152514,14174,0.175,-0.917,-0.299,-1.463,0.549,0.122,611.47
136675,152409,38140,0.18,-0.912,-0.296,-0.427,0.732,0.305,611.474
136675,152502,14172,0.183,-0.904,-0.298,-0.427,0.732,0.305,611.48
136657,152409,38140,0.184,-0.902,-0.296,1.159,0.122,0.854,611.484
136657,152506,14177,0.186,-0.901,-0.297,1.159,0.122,0.854,611.49
136663,152409,38140,0.184,-0.898,-0.295,2.622,0.915,0.854,611.493
136663,152511,14176,0.179,-0.9,-0.271,2.622,0.915,0.854,611.5
136685,152409,38140,0.18,-0.896,-0.253,2.195,1.22,0.915,611.503
136685,152510,14178,0.185,-0.888,-0.265,2.195,1.22,0.915,611.51
136670,152409,38140,0.185,-0.889,-0.278,0.732,0.854,1.098,611.513
136670,152499,14182,0.182,-0.904,-0.276,0.732,0.854,1.098,611.519
136670,152409,38140,0.18,-0.912,-0.27,0,1.28,0.671,611.523
136670,152498,14181,0.184,-0.902,-0.276,0,1.28,0.671,611.529
136637,152409,38140,0.184,-0.898,-0.293,-0.732,1.22,0.61,611.533
136637,152499,14170,0.181,-0.901,-0.293,-0.732,1.22,0.61,611.539
136651,152409,38140,0.184,-0.906,-0.289,-0.244,0.854,0.976,611.543
136651,152475,14167,0.182,-0.905,-0.287,-0.244,0.854,0.976,611.549
136637,152409,38140,0.184,-0.903,-0.271,0.122,0.732,0.305,611.553
136637,152505,14175,0.183,-0.9,-0.255,0.122,0.732,0.305,611.559
136680,152409,38140,0.179,-0.898,-0.267,-0.671,0.732,0.427,611.563
136680,152505,14168,0.182,-0.901,-0.261,-0.671,0.732,0.427,611.569
136634,152409,38140,0.18,-0.905,-0.256,-1.22,1.037,0.366,611.573
136634,152486,14169,0.179,-0.907,-0.266,-1.22,1.037,0.366,611.579
136670,152409,38140,0.179,-0.899,-0.278,-1.098,0.915,0.366,611.583
136670,152501,14187,0.18,-0.904,-0.288,-1.098,0.915,0.366,611.589
136625,152409,38140,0.174,-0.909,-0.281,-0.671,0.793,0.305,611.592
136625,152475,14172,0.176,-0.904,-0.285,-0.671,0.793,0.305,611.599
136599,152409,38140,0.181,-0.899,-0.282,0.488,0.366,0.427,611.602
136599,152468,14185,0.178,-0.897,-0.274,0.488,0.366,0.427,611.609
136619,152409,38140,0.181,-0.893,-0.285,0.854,0.305,0.549,611.612
136619,152451,14157,0.179,-0.895,-0.295,0.854,0.305,0.549,611.618
136596,152409,38140,0.177,-0.898,-0.281,0.488,0.854,0.61,611.622
136596,152460,14174,0.176,-0.897,-0.272,0.488,0.854,0.61,611.628
136619,152409,38140,0.179,-0.894,-0.277,0.061,0.854,0.793,611.632
136619,152443,14170,0.18,-0.897,-0.282,0.061,0.854,0.793,611.638
136616,152409,38140,0.174,-0.9,-0.286,-0.671,0.854,0.671,611.642
136616,152453,14169,0.176,-0.905,-0.291,-0.671,0.854,0.671,611.648
136606,152409,38140,0.178,-0.909,-0.264,-0.549,0.915,0.793,611.652
136606,152450,14169,0.186,-0.911,-0.245,-0.549,0.915,0.793,611.658
136595,152409,38140,0.189,-0.906,-0.272,-0.732,0.427,0.427,611.662
136595,152464,14167,0.185,-0.901,-0.297,-0.732,0.427,0.427,611.668
136598,152409,38140,0.178,-0.909,-0.294,-1.524,1.28,0.366,611.672
136598,152431,14150,0.172,-0.916,-0.272,-1.524,1.28,0.366,611.678
136587,152409,38140,0.181,-0.908,-0.273,-0.305,0.915,0.488,611.682
136587,152444,14170,0.183,-0.899,-0.282,-0.305,0.915,0.488,611.688
136576,152409,38140,0.185,-0.893,-0.288,0.366,0,0.427,611.691
136576,152464,14157,0.183,-0.894,-0.299,0.366,0,0.427,611.698
136595,152409,38140,0.181,-0.899,-0.296,1.707,0.671,0.671,611.701
136595,152432,14150,0.175,-0.896,-0.288,1.707,0.671,0.671,611.708
136577,152409,38140,0.175,-0.896,-0.275,2.134,1.037,0.61,611.711
136577,152427,14149,0.173,-0.887,-0.274,2.134,1.037,0.61,611.717
136555,152409,38140,0.175,-0.884,-0.273,1.524,0.671,1.098,611.721
136555,152400,14146,0.177,-0.89,-0.246,1.524,0.671,1.098,611.727
136558,152409,38140,0.182,-0.893,-0.253,0.61,0.305,1.22,611.731
136558,152443,14152,0.184,-0.899,-0.29,0.61,0.305,1.22,611.737
136561,152409,38140,0.178,-0.907,-0.294,-0.915,0.915,0.732,611.741
136561,152425,14150,0.176,-0.915,-0.29,-0.915,0.915,0.732,611.747
136562,152409,38140,0.181,-0.918,-0.29,-0.549,1.098,0.732,611.751
136562,152417,14141,0.183,-0.91,-0.284,-0.549,1.098,0.732,611.757
136593,152409,38140,0.187,-0.906,-0.279,0.488,0.305,1.037,611.761
136593,152430,14138,0.188,-0.905,-0.277,0.488,0.305,1.037,611.767
136557,152409,38140,0.189,-0.896,-0.283,1.524,0.488,0.976,611.771
136557,152404,14147,0.186,-0.897,-0.273,1.524,0.488,0.976,611.777
136533,152409,38140,0.177,-0.898,-0.24,0.854,1.22,0.427,611.781
136533,152380,14140,0.178,-0.894,-0.252,0.854,1.22,0.427,611.787
136537,152409,38140,0.183,-0.898,-0.29,-0.976,0.854,0.366,611.79
136537,152403,14140,0.182,-0.912,-0.297,-0.976,0.854,0.366,611.797
136538,152409,38140,0.178,-0.923,-0.291,-1.28,1.098,0,611.8
136538,152420,14126,0.181,-0.917,-0.278,-1.28,1.098,0,611.806
136565,152409,38140,0.182,-0.903,-0.267,-0.183,0.976,0,611.81
136565,152394,14134,0.179,-0.889,-0.267,-0.183,0.976,0,611.816
136551,152409,38140,0.182,-0.887,-0.278,0.793,0.488,0.732,611.82
136551,152405,14134,0.186,-0.892,-0.283,0.793,0.488,0.732,611.826
136552,152409,38140,0.181,-0.892,-0.272,0.854,1.098,0.549,611.83
136552,152416,14128,0.18,-0.895,-0.271,0.854,1.098,0.549,611.836
136541,152409,38140,0.178,-0.897,-0.281,0,1.037,0.61,611.84
136541,152407,14136,0.174,-0.897,-0.278,0,1.037,0.61,611.846
136545,152409,38140,0.175,-0.9,-0.265,-0.61,0.61,0.976,611.85
136545,152409,14138,0.178,-0.905,-0.264,-0.61,0.61,0.976,611.856
136567,152409,38140,0.182,-0.905,-0.276,0.061,0.366,0.854,611.86
136567,152422,14127,0.182,-0.901,-0.29,0.061,0.366,0.854,611.866
136566,152409,38140,0.177,-0.902,-0.287,0.549,0.854,0.915,611.87
136566,152413,14137,0.175,-0.9,-0.278,0.549,0.854,0.915,611.876
136544,152409,38140,0.177,-0.898,-0.274,1.22,0.854,1.28,611.879
136544,152404,14141,0.179,-0.896,-0.246,1.22,0.854,1.28,611.886
136564,152409,38140,0.181,-0.895,-0.255,0.427,0.305,1.22,611.889
136564,152431,14132,0.184,-0.898,-0.288,0.427,0.305,1.22,611.896
136555,152409,38140,0.184,-0.898,-0.288,0.427,0.305,1.22,611.899
136555,152438,14135,0.175,-0.923,-0.278,-1.159,0.671,0.915,611.905
136547,152409,38140,0.175,-0.923,-0.278,-1.159,0.671,0.915,611.909
136547,152392,14125,0.177,-0.914,-0.28,-0.793,0.854,0.488,611.915
136559,152409,38140,0.177,-0.914,-0.28,-0.793,0.854,0.488,611.919
136559,152414,14136,0.173,-0.903,-0.266,-1.037,0.61,0.366,611.925
136536,152409,38140,0.173,-0.903,-0.266,-1.037,0.61,0.366,611.929
136536,152412,14135,0.18,-0.9,-0.285,-0.61,0.488,0.732,611.935
136533,152409,38140,0.18,-0.9,-0.285,-0.61,0.488,0.732,611.939
136533,152409,14121,0.184,-0.895,-0.298,0.183,0.244,0.183,611.945
136577,152409,38140,0.184,-0.895,-0.298,0.183,0.244,0.183,611.949
136577,152417,14136,0.18,-0.901,-0.267,0.671,0.305,0.244,611.955
136552,152409,38140,0.18,-0.901,-0.267,0.671,0.305,0.244,611.959
136552,152410,14132,0.181,-0.884,-0.27,1.037,0.122,0.366,611.965
136553,152409,38140,0.181,-0.884,-0.27,1.037,0.122,0.366,611.969
136553,152437,14131,0.176,-0.901,-0.262,-0.427,0.366,0.732,611.975
136578,152409,38140,0.176,-0.901,-0.262,-0.427,0.366,0.732,611.978
136578,152417,14136,0.179,-0.907,-0.272,-1.341,0.61,0.671,611.985
136570,152409,38140,0.179,-0.907,-0.272,-1.341,0.61,0.671,611.988
136570,152410,14118,0.175,-0.914,-0.287,-2.5,0.549,0.305,611.995
136526,152409,38140,0.175,-0.914,-0.287,-2.5,0.549,0.305,611.998
136526,152435,14129,0.184,-0.918,-0.292,-1.524,0.427,0.671,612.004
136550,152409,38140,0.184,-0.918,-0.292,-1.524,0.427,0.671,612.008
136550,152412,14120,0.177,-0.901,-0.286,0.366,0.427,0.122,612.014
136560,152409,38140,0.177,-0.901,-0.286,0.366,0.427,0.122,612.018
136560,152425,14140,0.173,-0.895,-0.251,0.915,0.671,0.366,612.024
136564,152409,38140,0.173,-0.895,-0.251,0.915,0.671,0.366,612.028
136564,152418,14138,0.175,-0.894,-0.284,0.122,0.671,0.122,612.034
136566,152409,38140,0.175,-0.893,-0.292,0.122,0.671,0.122,612.038
136566,152428,14123,0.171,-0.9,-0.29,-1.28,1.098,0,612.044
136558,152409,38140,0.172,-0.905,-0.274,-1.28,1.098,0,612.048
136558,152438,14139,0.175,-0.901,-0.263,-0.549,0.61,0.183,612.054
136532,152409,38140,0.181,-0.888,-0.28,-0.549,0.61,0.183,612.058
136532,152411,14118,0.178,-0.884,-0.275,-0.183,0.366,0.427,612.064
136572,152409,38140,0.177,-0.889,-0.274,-0.183,0.366,0.427,612.068
136572,152449,14137,0.176,-0.89,-0.266,0.244,0.732,1.159,612.074
136604,152409,38140,0.177,-0.889,-0.261,0.244,0.732,1.159,612.077
136604,152446,14118,0.179,-0.893,-0.279,-1.524,0.732,0.732,612.084
136565,152409,38140,0.176,-0.902,-0.287,-1.524,0.732,0.732,612.087
136565,152405,14129,0.177,-0.91,-0.285,-2.805,0.793,0.976,612.094
136566,152409,38140,0.174,-0.914,-0.281,-2.805,0.793,0.976,612.097
136566,152447,14131,0.18,-0.911,-0.283,-2.012,0.549,1.037,612.103
136584,152409,38140,0.185,-0.909,-0.286,-2.012,0.549,1.037,612.107
136584,152444,14125,0.183,-0.908,-0.286,-0.61,0.549,1.22,612.113
136566,152409,38140,0.181,-0.908,-0.284,-0.61,0.549,1.22,612.117
136566,152424,14147,0.178,-0.903,-0.286,-0.122,1.463,1.037,612.123
136582,152409,38140,0.178,-0.901,-0.291,-0.122,1.463,1.037,612.127
136582,152459,14137,0.175,-0.9,-0.281,-1.28,1.951,0.915,612.133
136568,152409,38140,0.176,-0.896,-0.271,-1.28,1.951,0.915,612.137
136568,152456,14141,0.184,-0.886,-0.286,-2.256,1.402,1.098,612.143
136611,152409,38140,0.188,-0.884,-0.3,-2.256,1.402,1.098,612.147
136611,152475,14128,0.183,-0.888,-0.305,-2.927,1.89,1.098,612.153
136585,152409,38140,0.184,-0.894,-0.309,-2.927,1.89,1.098,612.157
136585,152439,14152,0.184,-0.895,-0.301,-2.073,2.805,1.28,612.163
136572,152409,38140,0.182,-0.883,-0.28,-2.073,2.805,1.28,612.167
136572,152460,14122,0.181,-0.861,-0.295,-4.512,3.598,1.159,612.173
136594,152409,38140,0.18,-0.851,-0.311,-4.512,3.598,1.159,612.176
136594,152477,14143,0.177,-0.857,-0.302,-10.122,4.573,1.89,612.183
136598,152409,38140,0.178,-0.863,-0.302,-10.122,4.573,1.89,612.186
136598,152465,14127,0.181,-0.87,-0.299,-15.671,5.061,1.341,612.193
136599,152409,38140,0.18,-0.872,-0.294,-15.671,5.061,1.341,612.196
136599,152466,14131,0.195,-0.88,-0.302,-21.951,4.817,1.159,612.202
136572,152409,38140,0.209,-0.882,-0.302,-21.951,4.817,1.159,612.206
136572,152428,14146,0.17,-0.882,-0.302,-26.037,5.549,3.537,612.212
136598,152409,38140,0.156,-0.891,-0.326,-26.037,5.549,3.537,612.216
136598,152464,14133,0.163,-0.902,-0.331,-28.476,7.439,3.11,612.222
136599,152409,38140,0.177,-0.915,-0.321,-28.476,7.439,3.11,612.226
136599,152468,14131,0.178,-0.92,-0.32,-26.524,5.61,1.159,612.232
136565,152409,38140,0.181,-0.916,-0.318,-26.524,5.61,1.159,612.236
136565,152446,14135,0.179,-0.91,-0.316,-24.695,5.671,1.768,612.242
136581,152409,38140,0.184,-0.915,-0.305,-24.695,5.671,1.768,612.246
136581,152447,14143,0.186,-0.918,-0.297,-21.829,6.585,1.585,612.252
136580,152409,38140,0.187,-0.911,-0.313,-21.829,6.585,1.585,612.256
136580,152438,14130,0.185,-0.915,-0.333,-17.866,6.89,1.707,612.262
136579,152409,38140,0.191,-0.92,-0.331,-17.866,6.89,1.707,612.266
136579,152436,14141,0.186,-0.925,-0.306,-12.622,7.317,1.22,612.272
136614,152409,38140,0.185,-0.913,-0.288,-12.622,7.317,1.22,612.275
136614,152465,14128,0.185,-0.894,-0.3,-9.573,7.317,0.61,612.282
136614,152409,38140,0.185,-0.879,-0.309,-9.573,7.317,0.61,612.285
136614,152459,14148,0.182,-0.875,-0.318,-8.659,7.317,1.646,612.292
136599,152409,38140,0.181,-0.88,-0.302,-8.659,7.317,1.646,612.295
136599,152450,14137,0.177,-0.885,-0.275,-6.402,7.134,2.439,612.301
136599,152409,38140,0.18,-0.882,-0.285,-6.402,7.134,2.439,612.305
136599,152461,14129,0.183,-0.875,-0.307,-7.378,6.646,1.646,612.311
136613,152409,38140,0.187,-0.875,-0.32,-7.378,6.646,1.646,612.315
136613,152466,14122,0.185,-0.877,-0.321,-8.841,6.585,2.378,612.321
136627,152409,38140,0.183,-0.887,-0.305,-8.841,6.585,2.378,612.325
136627,152458,14142,0.184,-0.889,-0.305,-7.378,6.098,3.049,612.331
136608,152409,38140,0.192,-0.886,-0.308,-7.378,6.098,3.049,612.335
136608,152475,14137,0.193,-0.886,-0.307,-6.463,5.183,2.561,612.341
136623,152409,38140,0.193,-0.892,-0.318,-6.463,5.183,2.561,612.345
136623,152484,14142,0.192,-0.9,-0.323,-5.244,5.122,2.988,612.351
136636,152409,38140,0.192,-0.909,-0.327,-5.244,5.122,2.988,612.355
136636,152485,14127,0.187,-0.912,-0.334,-2.5,5.488,2.988,612.361
136653,152409,38140,0.186,-0.914,-0.329,-2.5,5.488,2.988,612.365
136653,152499,14129,0.178,-0.906,-0.31,0.732,5.976,3.476,612.371
136677,152409,38140,0.175,-0.894,-0.299,0.732,5.976,3.476,612.374
136677,152511,14118,0.168,-0.888,-0.312,3.415,5.732,4.268,612.381
136663,152409,38140,0.17,-0.887,-0.332,3.415,5.732,4.268,612.384
136663,152516,14128,0.17,-0.891,-0.333,5.305,5.671,4.085,612.391
136695,152409,38140,0.169,-0.896,-0.321,5.305,5.671,4.085,612.394
136695,152513,14116,0.168,-0.89,-0.309,6.22,6.159,3.537,612.4
136722,152409,38140,0.167,-0.879,-0.322,6.22,6.159,3.537,612.404
136722,152551,14149,0.167,-0.879,-0.321,4.573,6.341,3.476,612.41
136736,152409,38140,0.165,-0.88,-0.323,4.573,6.341,3.476,612.414
136736,152545,14151,0.162,-0.885,-0.318,2.866,6.037,3.537,612.42
136783,152665,38140,0.164,-0.885,-0.306,2.866,6.037,3.537,612.424
136783,152589,14150,0.166,-0.883,-0.312,1.22,5.732,2.927,612.43
136875,152665,38140,0.17,-0.887,-0.329,1.22,5.732,2.927,612.434
136875,152650,14144,0.174,-0.892,-0.326,-0.366,5.427,2.561,612.44
136879,152665,38140,0.174,-0.9,-0.32,-0.366,5.427,2.561,612.444
136879,152678,14177,0.173,-0.91,-0.313,-0.244,5.366,2.439,612.45
136982,152665,38140,0.172,-0.918,-0.311,-0.244,5.366,2.439,612.454
136982,152721,14165,0.17,-0.916,-0.32,0.915,5.732,1.463,612.46
137062,152665,38140,0.171,-0.913,-0.321,0.915,5.732,1.463,612.464
137062,152818,14190,0.163,-0.9,-0.313,2.073,6.159,1.524,612.47
137149,152921,38140,0.163,-0.9,-0.313,2.073,6.159,1.524,612.473
137149,152879,14214,0.163,-0.902,-0.316,4.146,6.22,1.829,612.48
137283,152921,38140,0.163,-0.902,-0.316,4.146,6.22,1.829,612.483
137283,152931,14231,0.173,-0.886,-0.318,4.756,5.976,0.427,612.49
137359,152921,38140,0.173,-0.886,-0.318,4.756,5.976,0.427,612.493
137359,153051,14232,0.176,-0.875,-0.31,3.354,6.28,0.549,612.499
137425,152921,38140,0.176,-0.875,-0.31,3.354,6.28,0.549,612.503
137425,153078,14242,0.177,-0.883,-0.288,2.073,5.976,0.732,612.509
137505,153177,38140,0.177,-0.883,-0.288,2.073,5.976,0.732,612.513
137505,153138,14253,0.185,-0.88,-0.296,-0.732,5.61,0.061,612.519
137553,153177,38140,0.185,-0.88,-0.296,-0.732,5.61,0.061,612.523
137553,153161,14271,0.184,-0.879,-0.305,-2.927,5.671,0.305,612.529
137589,153177,38140,0.184,-0.879,-0.305,-2.927,5.671,0.305,612.533
137589,153198,14252,0.185,-0.903,-0.261,-2.866,5.366,0,612.539
137633,153177,38140,0.185,-0.903,-0.261,-2.866,5.366,0,612.543
137633,153249,14275,0.185,-0.904,-0.303,-2.866,5.183,-0.488,612.549
137634,153177,38140,0.185,-0.904,-0.303,-2.866,5.183,-0.488,612.553
137634,153217,14277,0.182,-0.922,-0.296,-0.61,5.244,0.183,612.559
137653,153177,38140,0.182,-0.922,-0.296,-0.61,5.244,0.183,612.562
137653,153277,14276,0.19,-0.901,-0.305,1.463,5,-0.122,612.569
137678,153177,38140,0.19,-0.901,-0.305,1.463,5,-0.122,612.572
137678,153266,14285,0.197,-0.886,-0.286,2.744,4.268,-0.061,612.579
137671,153177,38140,0.197,-0.886,-0.286,2.744,4.268,-0.061,612.582
137671,153281,14286,0.197,-0.867,-0.302,2.805,4.207,-0.061,612.588
137709,153177,38140,0.197,-0.867,-0.302,2.805,4.207,-0.061,612.592
137709,153294,14276,0.185,-0.892,-0.298,2.256,4.939,-0.061,612.598
137718,153177,38140,0.185,-0.892,-0.298,2.256,4.939,-0.061,612.602
137718,153315,14274,0.185,-0.891,-0.295,1.037,5.122,-1.22,612.608
137720,153177,38140,0.185,-0.891,-0.295,1.037,5.122,-1.22,612.612
137720,153332,14286,0.178,-0.878,-0.304,1.037,5.122,-1.22,612.618
137758,153177,38140,0.17,-0.878,-0.31,-3.11,5,-0.671,612.622
137758,153322,14272,0.166,-0.891,-0.303,-3.11,5,-0.671,612.628
137771,153433,38140,0.165,-0.895,-0.291,-4.085,4.695,-0.122,612.632
137771,153345,14286,0.162,-0.894,-0.299,-4.085,4.695,-0.122,612.638
137779,153433,38140,0.163,-0.891,-0.299,-6.28,3.963,-1.402,612.642
137779,153349,14297,0.156,-0.885,-0.29,-6.28,3.963,-1.402,612.648
137769,153433,38140,0.159,-0.887,-0.292,-7.195,3.171,-0.549,612.652
137769,153364,14289,0.166,-0.887,-0.305,-7.195,3.171,-0.549,612.658
137770,153433,38140,0.176,-0.898,-0.318,-6.341,1.768,-0.671,612.661
137770,153362,14290,0.188,-0.908,-0.326,-6.341,1.768,-0.671,612.668
137782,153433,38140,0.193,-0.914,-0.318,-5.305,1.28,-2.378,612.671
137782,153384,14302,0.191,-0.904,-0.311,-5.305,1.28,-2.378,612.678
137808,153433,38140,0.195,-0.89,-0.318,-5.549,2.073,-2.012,612.681
137808,153365,14289,0.187,-0.879,-0.303,-5.549,2.073,-2.012,612.687
137774,153433,38140,0.185,-0.878,-0.279,-4.085,2.317,-0.122,612.691
137774,153366,14296,0.189,-0.882,-0.277,-4.085,2.317,-0.122,612.697
137767,153433,38140,0.196,-0.892,-0.277,-1.524,1.463,-0.854,612.701
137767,153369,14302,0.199,-0.891,-0.284,-1.524,1.463,-0.854,612.707
137799,153433,38140,0.203,-0.891,-0.302,-0.61,1.341,-1.89,612.711
137799,153388,14291,0.203,-0.895,-0.298,-0.61,1.341,-1.89,612.717
137812,153433,38140,0.202,-0.902,-0.282,1.098,1.768,-0.793,612.721
137812,153421,14297,0.206,-0.895,-0.288,1.098,1.768,-0.793,612.727
137810,153433,38140,0.209,-0.886,-0.301,3.293,0.976,-0.122,612.731
137810,153397,14295,0.21,-0.884,-0.297,3.293,0.976,-0.122,612.737
137829,153433,38140,0.202,-0.873,-0.277,4.329,0.122,0.671,612.741
137829,153394,14299,0.194,-0.853,-0.272,4.329,0.122,0.671,612.747
137804,153433,38140,0.188,-0.858,-0.285,3.354,-0.671,1.341,612.751
137804,153401,14304,0.18,-0.884,-0.299,3.354,-0.671,1.341,612.757
137817,153433,38140,0.177,-0.901,-0.303,2.317,-1.22,0.122,612.76
137817,153431,14284,0.179,-0.909,-0.308,2.317,-1.22,0.122,612.767
137814,153433,38140,0.176,-0.914,-0.31,0.061,-1.463,-0.671,612.77
137814,153408,14314,0.177,-0.917,-0.312,0.061,-1.463,-0.671,612.777
137799,153433,38140,0.184,-0.919,-0.318,1.037,-2.195,0.244,612.78
137799,153405,14279,0.185,-0.921,-0.312,1.037,-2.195,0.244,612.786
137784,153433,38140,0.192,-0.92,-0.311,5.366,-2.683,0,612.79
137784,153402,14294,0.195,-0.911,-0.308,5.366,-2.683,0,612.796
137788,153433,38140,0.195,-0.894,-0.277,8.171,-1.951,-0.427,612.8
137788,153396,14285,0.192,-0.87,-0.281,8.171,-1.951,-0.427,612.806
137803,153433,38140,0.194,-0.866,-0.313,7.012,-1.951,-0.366,612.81
137803,153410,14277,0.194,-0.884,-0.314,7.012,-1.951,-0.366,612.816
137757,153433,38140,0.184,-0.896,-0.294,5.732,-2.012,-1.646,612.82
137757,153397,14270,0.179,-0.897,-0.292,5.732,-2.012,-1.646,612.826
137786,153433,38140,0.176,-0.896,-0.3,2.622,-1.951,-2.134,612.83
137786,153419,14290,0.174,-0.893,-0.305,2.622,-1.951,-2.134,612.836
137800,153433,38140,0.176,-0.888,-0.305,1.22,-2.805,-1.28,612.84
137800,153408,14279,0.176,-0.887,-0.301,1.22,-2.805,-1.28,612.846
137816,153433,38140,0.18,-0.884,-0.291,2.439,-3.171,-0.976,612.85
137816,153416,14292,0.185,-0.879,-0.292,2.439,-3.171,-0.976,612.856
137809,153433,38140,0.187,-0.872,-0.298,2.378,-3.171,-1.341,612.859
137809,153422,14291,0.19,-0.872,-0.304,2.378,-3.171,-1.341,612.866
137835,153433,38140,0.187,-0.879,-0.3,1.829,-2.805,-1.098,612.869
137835,153437,14303,0.186,-0.881,-0.29,1.829,-2.805,-1.098,612.875
137826,153433,38140,0.19,-0.881,-0.279,0.976,-2.988,-0.915,612.879
137826,153451,14278,0.195,-0.872,-0.287,0.976,-2.988,-0.915,612.885
137831,153433,38140,0.199,-0.872,-0.308,-1.159,-3.415,-0.61,612.889
137831,153423,14291,0.199,-0.877,-0.326,-1.159,-3.415,-0.61,612.895
137852,153433,38140,0.193,-0.886,-0.326,-2.317,-3.049,-0.122,612.899
137852,153404,14285,0.191,-0.887,-0.325,-2.317,-3.049,-0.122,612.905
137818,153433,38140,0.185,-0.892,-0.328,-3.049,-2.439,-0.793,612.909
137818,153429,14285,0.185,-0.9,-0.331,-3.049,-2.439,-0.793,612.915
137817,153433,38140,0.182,-0.907,-0.325,-3.902,-2.439,-1.524,612.919
137817,153435,14286,0.182,-0.908,-0.31,-3.902,-2.439,-1.524,612.925
137826,153433,38140,0.177,-0.908,-0.289,-4.207,-2.561,-1.646,612.929
137826,153412,14288,0.179,-0.912,-0.283,-4.207,-2.561,-1.646,612.935
137867,153433,38140,0.185,-0.913,-0.301,-3.78,-2.988,-1.951,612.939
137867,153456,14294,0.188,-0.915,-0.313,-3.78,-2.988,-1.951,612.945
137892,153433,38140,0.185,-0.909,-0.317,-2.317,-2.683,-2.256,612.948
137892,153496,14298,0.184,-0.907,-0.327,-2.317,-2.683,-2.256,612.955
137923,153433,38140,0.188,-0.9,-0.324,0.549,-1.768,-1.707,612.958
137923,153482,14288,0.187,-0.886,-0.321,0.549,-1.768,-1.707,612.965
137902,153433,38140,0.189,-0.876,-0.309,3.598,-1.585,-1.402,612.968
137902,153459,14292,0.185,-0.869,-0.283,3.598,-1.585,-1.402,612.974
137914,153433,38140,0.187,-0.857,-0.284,4.39,-1.768,-0.732,612.978
137914,153484,14288,0.188,-0.856,-0.307,4.39,-1.768,-0.732,612.984
137899,153433,38140,0.19,-0.864,-0.317,1.707,-1.524,-0.427,612.988
137899,153490,14289,0.188,-0.876,-0.324,1.707,-1.524,-0.427,612.994
137918,153433,38140,0.181,-0.886,-0.318,-0.61,-0.854,-0.183,612.998
137918,153473,14286,0.183,-0.893,-0.305,-0.61,-0.854,-0.183,613.004
137939,153433,38140,0.187,-0.895,-0.305,-0.427,-1.22,0.183,613.008
137939,153514,14286,0.189,-0.9,-0.318,-0.427,-1.22,0.183,613.014
137926,153433,38140,0.192,-0.908,-0.331,2.195,-1.89,0.915,613.018
137926,153502,14289,0.194,-0.91,-0.343,2.195,-1.89,0.915,613.024
137938,153433,38140,0.198,-0.91,-0.357,5.976,-1.402,0.915,613.028
137938,153520,14291,0.196,-0.918,-0.35,5.976,-1.402,0.915,613.034
138010,153433,38140,0.195,-0.929,-0.337,11.037,-0.732,0.488,613.038
138010,153555,14289,0.2,-0.935,-0.328,11.037,-0.732,0.488,613.044
137969,153433,38140,0.2,-0.935,-0.328,11.037,-0.732,0.488,613.048
137969,153551,14304,0.2,-0.909,-0.326,15.244,-0.61,-1.524,613.054
137985,153433,38140,0.2,-0.909,-0.326,15.244,-0.61,-1.524,613.057
137985,153536,14298,0.184,-0.878,-0.318,15.854,0.549,-1.646,613.064
137985,153433,38140,0.184,-0.878,-0.318,15.854,0.549,-1.646,613.067
137985,153544,14291,0.183,-0.871,-0.301,16.159,1.341,-0.366,613.073
137955,153433,38140,0.183,-0.871,-0.301,16.159,1.341,-0.366,613.077
137955,153527,14295,0.182,-0.858,-0.29,14.756,0.671,-0.976,613.083
137982,153433,38140,0.182,-0.858,-0.29,14.756,0.671,-0.976,613.087
137982,153534,14289,0.19,-0.856,-0.267,11.28,0.305,0.122,613.093
137981,153433,38140,0.19,-0.856,-0.267,11.28,0.305,0.122,613.097
137981,153528,14306,0.197,-0.868,-0.263,10.305,0.244,0.854,613.103
137965,153433,38140,0.197,-0.868,-0.263,10.305,0.244,0.854,613.107
137965,153525,14280,0.203,-0.884,-0.271,8.78,0.427,1.098,613.113
137983,153433,38140,0.203,-0.884,-0.271,8.78,0.427,1.098,613.117
137983,153515,14294,0.202,-0.877,-0.281,6.89,1.22,1.951,613.123
137987,153433,38140,0.202,-0.877,-0.281,6.89,1.22,1.951,613.127
137987,153539,14289,0.206,-0.894,-0.246,4.329,1.22,3.415,613.133
137973,153433,38140,0.206,-0.894,-0.246,4.329,1.22,3.415,613.137
137973,153556,14299,0.218,-0.902,-0.271,2.256,-0.244,2.256,613.143
138000,153433,38140,0.218,-0.902,-0.271,2.256,-0.244,2.256,613.146
138000,153547,14288,0.212,-0.89,-0.27,-2.073,0.183,-0.061,613.153
138000,153433,38140,0.212,-0.89,-0.27,-2.073,0.183,-0.061,613.156
138000,153536,14298,0.218,-0.894,-0.254,-4.146,0.671,2.134,613.163
138024,153433,38140,0.218,-0.894,-0.254,-4.146,0.671,2.134,613.166
138024,153572,14280,0.229,-0.899,-0.239,-3.841,-0.427,1.829,613.172
138058,153433,38140,0.229,-0.899,-0.239,-3.841,-0.427,1.829,613.176
138058,153589,14308,0.223,-0.892,-0.286,-2.988,-0.244,0.488,613.182
138074,153433,38140,0.223,-0.892,-0.286,-2.988,-0.244,0.488,613.186
138074,153579,14295,0.217,-0.888,-0.287,-2.622,1.402,1.463,613.192
