133333,140410,43087,0.043,-0.957,-0.052,1.159,0.671,0.366,147.481
133333,140301,13618,0.045,-0.963,-0.052,1.341,0.488,0.305,147.487
133315,140410,43087,0.045,-0.962,-0.053,1.341,0.488,0.305,147.491
133315,140347,13627,0.042,-0.964,-0.053,1.402,0.549,0.183,147.497
133324,140154,43087,0.044,-0.962,-0.052,1.402,0.549,0.183,147.501
133324,140274,13605,0.047,-0.96,-0.05,1.646,0.732,0.244,147.507
133327,140154,43087,0.045,-0.96,-0.053,1.646,0.732,0.244,147.511
133327,140270,13604,0.043,-0.96,-0.051,1.646,0.915,0.244,147.517
133307,140154,43087,0.043,-0.961,-0.053,1.646,0.915,0.244,147.52
133307,140276,13607,0.044,-0.962,-0.048,1.524,0.793,0.244,147.527
133302,140154,43087,0.043,-0.964,-0.051,1.524,0.793,0.244,147.53
133302,140276,13614,0.043,-0.962,-0.049,1.341,0.854,0,147.537
133303,140154,43087,0.043,-0.962,-0.045,1.341,0.854,0,147.54
133303,140267,13622,0.043,-0.96,-0.051,1.037,0.854,0.061,147.546
133323,140154,43087,0.043,-0.957,-0.05,1.037,0.854,0.061,147.55
133323,140250,13612,0.043,-0.955,-0.05,0.427,0.732,0.305,147.556
133294,140154,43087,0.042,-0.957,-0.05,0.427,0.732,0.305,147.56
133294,140273,13613,0.041,-0.958,-0.052,-0.305,0.671,0.61,147.566
133278,140154,43087,0.042,-0.961,-0.053,-0.305,0.671,0.61,147.57
133278,140261,13611,0.042,-0.96,-0.052,-0.793,0.671,0.915,147.576
133277,140154,43087,0.045,-0.959,-0.052,-0.793,0.671,0.915,147.58
133277,140241,13605,0.047,-0.957,-0.048,-0.976,0.61,1.098,147.586
133272,140154,43087,0.044,-0.962,-0.05,-0.976,0.61,1.098,147.59
133272,140240,13605,0.045,-0.961,-0.053,-0.915,0.671,1.402,147.596
133246,140154,43087,0.041,-0.963,-0.053,-0.915,0.671,1.402,147.6
133246,140230,13601,0.04,-0.962,-0.05,-0.976,0.671,1.524,147.606
133250,140154,43087,0.04,-0.96,-0.055,-0.976,0.671,1.524,147.61
133250,140229,13603,0.041,-0.963,-0.057,-1.037,0.61,1.28,147.616
133231,140154,43087,0.039,-0.965,-0.057,-1.037,0.61,1.28,147.619
133231,140207,13598,0.039,-0.968,-0.056,-0.854,0.61,1.098,147.626
133221,140154,43087,0.04,-0.966,-0.06,-0.854,0.61,1.098,147.629
133221,140206,13619,0.04,-0.965,-0.058,-0.366,0.549,0.671,147.636
133247,140154,43087,0.04,-0.965,-0.057,-0.366,0.549,0.671,147.639
133247,140222,13607,0.039,-0.966,-0.056,0,0.427,0.427,147.645
133247,140154,43087,0.04,-0.964,-0.056,0,0.427,0.427,147.649
133247,140198,13593,0.041,-0.965,-0.054,0.183,0.427,0.488,147.655
133231,140154,43087,0.04,-0.96,-0.053,0.183,0.427,0.488,147.659
133231,140231,13597,0.041,-0.958,-0.052,0.366,0.549,0.671,147.665
133249,140154,43087,0.042,-0.96,-0.051,0.366,0.549,0.671,147.669
133249,140229,13613,0.042,-0.961,-0.052,0.732,0.549,0.854,147.675
133281,140154,43087,0.04,-0.962,-0.054,0.732,0.549,0.854,147.679
133281,140231,13608,0.038,-0.96,-0.053,0.976,0.732,1.037,147.685
133243,140154,43087,0.039,-0.958,-0.051,0.976,0.732,1.037,147.689
133243,140231,13610,0.04,-0.962,-0.047,1.159,0.854,0.976,147.695
133251,140154,43087,0.039,-0.963,-0.048,1.159,0.854,0.976,147.699
133251,140229,13606,0.037,-0.963,-0.046,1.463,0.915,0.976,147.705
133264,140154,43087,0.038,-0.962,-0.049,1.463,0.915,0.976,147.709
133264,140238,13595,0.036,-0.962,-0.047,1.463,1.037,0.915,147.715
133263,140154,43087,0.037,-0.962,-0.045,1.463,1.037,0.915,147.718
133263,140207,13611,0.039,-0.961,-0.045,1.037,0.915,0.732,147.725
133254,140154,43087,0.04,-0.963,-0.048,1.037,0.915,0.732,147.728
133254,140246,13611,0.037,-0.962,-0.045,0.61,0.671,0.427,147.735
133262,140154,43087,0.037,-0.962,-0.048,0.61,0.671,0.427,147.738
133262,140230,13604,0.037,-0.961,-0.048,0.244,0.488,0.122,147.744
133272,140154,43087,0.037,-0.961,-0.048,0.244,0.488,0.122,147.748
133272,140236,13601,0.041,-0.959,-0.048,0,0.427,0,147.754
133254,140154,43087,0.041,-0.959,-0.048,0,0.427,0,147.758
133254,140241,13589,0.038,-0.959,-0.048,-0.427,0.427,0,147.764
133257,140154,43087,0.038,-0.959,-0.048,-0.427,0.427,0,147.768
133257,140251,13599,0.041,-0.961,-0.052,-0.671,0.366,-0.061,147.774
133273,140154,43087,0.041,-0.961,-0.052,-0.671,0.366,-0.061,147.778
133273,140259,13603,0.036,-0.964,-0.049,-0.732,0.244,-0.183,147.784
133258,140154,43087,0.036,-0.964,-0.049,-0.732,0.244,-0.183,147.788
133258,140265,13601,0.039,-0.959,-0.049,-0.793,0.183,-0.366,147.794
133293,140154,43087,0.039,-0.959,-0.049,-0.793,0.183,-0.366,147.798
133293,140278,13604,0.039,-0.959,-0.051,-0.854,0.122,-0.549,147.804
133279,140154,43087,0.039,-0.959,-0.051,-0.854,0.122,-0.549,147.808
133279,140277,13609,0.04,-0.964,-0.055,-0.915,0.061,-0.549,147.814
133311,140410,43087,0.04,-0.964,-0.055,-0.915,0.061,-0.549,147.817
133311,140301,13602,0.044,-0.962,-0.048,-1.098,0.183,-0.366,147.824
133314,140410,43087,0.044,-0.962,-0.048,-1.098,0.183,-0.366,147.827
133314,140314,13616,0.044,-0.959,-0.052,-1.037,0.244,-0.366,147.833
133320,140410,43087,0.044,-0.959,-0.052,-1.037,0.244,-0.366,147.837
133320,140299,13580,0.043,-0.962,-0.051,-0.976,0.305,-0.244,147.843
133302,140410,43087,0.043,-0.962,-0.051,-0.976,0.305,-0.244,147.847
133302,140324,13618,0.04,-0.963,-0.055,-0.671,0.427,0.244,147.853
133297,140154,43087,0.04,-0.963,-0.055,-0.671,0.427,0.244,147.857
133297,140278,13612,0.042,-0.958,-0.052,-0.244,0.61,0.366,147.863
133299,140410,43087,0.042,-0.958,-0.052,-0.244,0.61,0.366,147.867
133299,140311,13594,0.042,-0.96,-0.049,-0.305,0.61,0.427,147.873
133279,140154,43087,0.042,-0.96,-0.049,-0.305,0.61,0.427,147.877
133279,140280,13602,0.043,-0.964,-0.053,-0.305,0.61,0.427,147.883
133273,140154,43087,0.045,-0.966,-0.054,-0.488,0.427,0.427,147.887
133273,140259,13599,0.043,-0.964,-0.053,-0.488,0.427,0.427,147.893
133269,140154,43087,0.042,-0.96,-0.051,-0.549,0.427,0.427,147.897
133269,140247,13593,0.041,-0.96,-0.052,-0.549,0.427,0.427,147.903
133264,140154,43087,0.041,-0.961,-0.052,-0.366,0.549,0.549,147.907
133264,140257,13583,0.037,-0.96,-0.057,-0.366,0.549,0.549,147.913
133255,140154,43087,0.038,-0.959,-0.052,0,0.61,0.671,147.916
133255,140249,13599,0.041,-0.963,-0.053,0,0.61,0.671,147.923
133286,140154,43087,0.042,-0.963,-0.053,0.366,0.671,0.488,147.926
133286,140263,13593,0.041,-0.96,-0.047,0.366,0.671,0.488,147.932
133296,140154,43087,0.04,-0.962,-0.051,0.244,0.61,0.183,147.936
133296,140268,13591,0.041,-0.959,-0.052,0.244,0.61,0.183,147.942
133271,140154,43087,0.042,-0.957,-0.052,-0.183,0.427,0.183,147.946
133271,140255,13599,0.041,-0.956,-0.049,-0.183,0.427,0.183,147.952
133272,140154,43087,0.04,-0.96,-0.049,-0.793,0.305,0.427,147.956
133272,140279,13595,0.039,-0.962,-0.054,-0.793,0.305,0.427,147.962
133292,140154,43087,0.041,-0.96,-0.055,-1.037,0.366,0.61,147.966
133292,140284,13605,0.04,-0.962,-0.054,-1.037,0.366,0.61,147.972
133293,140154,43087,0.04,-0.959,-0.05,-0.793,0.305,0.366,147.976
133293,140285,13591,0.04,-0.962,-0.051,-0.793,0.305,0.366,147.982
133301,140154,43087,0.042,-0.964,-0.049,-0.427,0.061,0.183,147.986
133301,140269,13614,0.043,-0.961,-0.047,-0.427,0.061,0.183,147.992
133292,140410,43087,0.045,-0.963,-0.05,-0.183,0.244,0.305,147.996
133292,140309,13605,0.044,-0.967,-0.054,-0.183,0.244,0.305,148.002
133300,140410,43087,0.038,-0.966,-0.05,-0.061,0.549,0.305,148.006
133300,140300,13601,0.038,-0.963,-0.052,-0.061,0.549,0.305,148.012
133323,140154,43087,0.038,-0.956,-0.053,-0.122,0.488,0.366,148.015
133323,140275,13580,0.041,-0.955,-0.049,-0.122,0.488,0.366,148.022
133300,140154,43087,0.043,-0.958,-0.051,0,0.366,0.122,148.025
133300,140286,13595,0.044,-0.959,-0.051,0,0.366,0.122,148.031
133304,140410,43087,0.041,-0.96,-0.047,0.183,0.488,0,148.035
133304,140311,13605,0.041,-0.959,-0.051,0.183,0.488,0,148.041
133318,140410,43087,0.041,-0.962,-0.049,-0.366,0.488,0.305,148.045
133318,140300,13589,0.042,-0.962,-0.046,-0.366,0.488,0.305,148.051
133304,140410,43087,0.04,-0.958,-0.049,-0.671,0.427,0.549,148.055
133304,140304,13589,0.042,-0.954,-0.051,-0.671,0.427,0.549,148.061
133297,140154,43087,0.043,-0.955,-0.054,-0.854,0.549,0.793,148.065
133297,140279,13593,0.043,-0.957,-0.052,-0.854,0.549,0.793,148.071
133268,140410,43087,0.046,-0.959,-0.055,-1.037,0.671,0.976,148.075
133268,140291,13594,0.042,-0.964,-0.054,-1.037,0.671,0.976,148.081
133278,140154,43087,0.04,-0.967,-0.054,-1.22,0.732,1.098,148.085
133278,140278,13599,0.039,-0.964,-0.053,-1.22,0.732,1.098,148.091
133265,140154,43087,0.038,-0.964,-0.054,-0.976,0.61,1.341,148.095
133265,140258,13590,0.036,-0.96,-0.055,-0.976,0.61,1.341,148.101
133294,140410,43087,0.038,-0.959,-0.056,-0.61,0.488,1.341,148.104
133294,140288,13590,0.04,-0.962,-0.051,-0.61,0.488,1.341,148.111
133263,140154,43087,0.038,-0.962,-0.051,-0.305,0.366,0.976,148.114
133263,140260,13593,0.04,-0.963,-0.055,-0.305,0.366,0.976,148.121
133260,140154,43087,0.042,-0.964,-0.051,-0.183,0.488,0.732,148.124
133260,140255,13587,0.04,-0.967,-0.051,-0.183,0.488,0.732,148.13
133266,140154,43087,0.041,-0.965,-0.051,0.061,0.427,0.61,148.134
133266,140280,13573,0.044,-0.961,-0.049,0.061,0.427,0.61,148.14
133269,140154,43087,0.043,-0.959,-0.05,0.305,0.488,0.732,148.144
133269,140245,13595,0.041,-0.958,-0.049,0.305,0.488,0.732,148.15
133276,140154,43087,0.039,-0.958,-0.048,0.366,0.61,0.549,148.154
133276,140250,13605,0.04,-0.959,-0.048,0.366,0.61,0.549,148.16
133260,140154,43087,0.041,-0.961,-0.05,0.244,0.549,0.183,148.164
133260,140235,13594,0.044,-0.961,-0.048,0.244,0.549,0.183,148.17
133264,140154,43087,0.042,-0.959,-0.052,0,0.427,0.122,148.174
133264,140266,13589,0.041,-0.959,-0.047,0,0.427,0.122,148.18
133259,140154,43087,0.044,-0.958,-0.05,-0.305,0.183,0.061,148.184
133259,140244,13590,0.044,-0.956,-0.05,-0.305,0.183,0.061,148.19
133241,140154,43087,0.043,-0.957,-0.049,-0.854,0.122,0.122,148.194
133241,140254,13584,0.044,-0.96,-0.051,-0.854,0.122,0.122,148.2
133233,140154,43087,0.044,-0.959,-0.053,-1.28,0.061,0.488,148.203
133233,140236,13577,0.041,-0.961,-0.054,-1.28,0.061,0.488,148.21
133219,140154,43087,0.042,-0.96,-0.054,-1.463,0.183,0.854,148.213
133219,140238,13588,0.042,-0.964,-0.058,-1.463,0.183,0.854,148.219
133255,140154,43087,0.041,-0.962,-0.056,-1.707,0.183,1.402,148.223
133255,140237,13570,0.042,-0.962,-0.057,-1.707,0.183,1.402,148.229
133207,140154,43087,0.039,-0.964,-0.055,-1.463,0.366,1.951,148.233
133207,140217,13587,0.037,-0.963,-0.056,-1.463,0.366,1.951,148.239
133199,140154,43087,0.036,-0.959,-0.053,-0.671,0.366,2.012,148.243
133199,140196,13581,0.034,-0.959,-0.055,-0.671,0.366,2.012,148.249
133184,140154,43087,0.036,-0.96,-0.054,-0.427,0.305,1.707,148.253
133184,140176,13573,0.036,-0.96,-0.052,-0.427,0.305,1.707,148.259
133164,140154,43087,0.036,-0.964,-0.052,-0.488,0.305,1.28,148.263
133164,140146,13564,0.037,-0.966,-0.051,-0.488,0.305,1.28,148.269
133139,140154,43087,0.036,-0.965,-0.053,-0.488,0.183,0.854,148.273
133139,140143,13566,0.037,-0.964,-0.055,-0.488,0.183,0.854,148.279
133115,140154,43087,0.038,-0.963,-0.052,-0.183,0.061,0.366,148.283
133115,140141,13559,0.038,-0.961,-0.056,-0.183,0.061,0.366,148.289
133106,140154,43087,0.039,-0.958,-0.048,0.122,0.061,0.122,148.292
133106,140123,13553,0.039,-0.959,-0.051,0.122,0.061,0.122,148.299
133114,140154,43087,0.04,-0.962,-0.053,0,0,0,148.302
133114,140120,13559,0.039,-0.965,-0.052,0,0,0,148.309
133115,140154,43087,0.038,-0.964,-0.05,-0.244,0,-0.183,148.312
133115,140171,13545,0.038,-0.959,-0.052,-0.244,0,-0.183,148.318
133101,140154,43087,0.038,-0.959,-0.052,-0.244,0,-0.183,148.322
133101,140136,13568,0.039,-0.959,-0.051,-0.427,0,-0.427,148.328
133118,140154,43087,0.039,-0.959,-0.051,-0.427,0,-0.427,148.332
133118,140118,13551,0.038,-0.961,-0.053,-0.366,-0.061,-0.488,148.338
133111,140154,43087,0.038,-0.961,-0.053,-0.366,-0.061,-0.488,148.342
133111,140124,13549,0.04,-0.96,-0.056,-0.183,0.122,-0.366,148.348
133114,140154,43087,0.04,-0.96,-0.056,-0.183,0.122,-0.366,148.352
133114,140120,13556,0.041,-0.963,-0.052,-0.122,0.183,-0.366,148.358
133102,140154,43087,0.041,-0.963,-0.052,-0.122,0.183,-0.366,148.362
133102,140147,13562,0.037,-0.964,-0.051,0.061,0.244,-0.366,148.368
133097,140154,43087,0.037,-0.964,-0.051,0.061,0.244,-0.366,148.372
133097,140116,13565,0.037,-0.962,-0.057,0.244,0.244,-0.244,148.378
133093,140154,43087,0.037,-0.962,-0.057,0.244,0.244,-0.244,148.382
133093,140113,13549,0.035,-0.964,-0.052,0.244,0.183,-0.244,148.388
133109,140154,43087,0.035,-0.964,-0.052,0.244,0.183,-0.244,148.391
133109,140103,13560,0.035,-0.962,-0.05,0.305,0.122,-0.366,148.398
133083,140154,43087,0.035,-0.962,-0.05,0.305,0.122,-0.366,148.401
133083,140121,13563,0.037,-0.959,-0.049,0.427,0.122,-0.61,148.408
133095,140154,43087,0.037,-0.959,-0.049,0.427,0.122,-0.61,148.411
133095,140105,13554,0.039,-0.96,-0.045,0.366,0.061,-0.61,148.417
133125,140154,43087,0.039,-0.96,-0.045,0.366,0.061,-0.61,148.421
133125,140094,13564,0.038,-0.96,-0.049,0.244,0.122,-0.61,148.427
133111,140154,43087,0.038,-0.96,-0.049,0.244,0.122,-0.61,148.431
133111,140125,13554,0.042,-0.958,-0.049,-0.122,0,-0.854,148.437
133113,140154,43087,0.042,-0.958,-0.049,-0.122,0,-0.854,148.441
133113,140120,13554,0.045,-0.962,-0.052,-0.488,-0.122,-1.159,148.447
133103,140154,43087,0.045,-0.962,-0.052,-0.488,-0.122,-1.159,148.451
133103,140135,13566,0.046,-0.961,-0.05,-0.427,-0.183,-1.159,148.457
133112,140154,43087,0.045,-0.96,-0.051,-0.427,-0.183,-1.159,148.461
133112,140126,13563,0.044,-0.963,-0.051,-0.488,-0.122,-1.28,148.467
133101,140154,43087,0.046,-0.961,-0.05,-0.488,-0.122,-1.28,148.471
133101,140122,13570,0.047,-0.963,-0.057,-0.793,-0.061,-1.159,148.477
133098,140154,43087,0.045,-0.964,-0.056,-0.793,-0.061,-1.159,148.481
133098,140115,13561,0.045,-0.964,-0.052,-0.915,0,-0.793,148.487
133069,140154,43087,0.042,-0.963,-0.055,-0.915,0,-0.793,148.49
133069,140074,13572,0.041,-0.962,-0.053,-0.61,0,-0.488,148.497
133071,140154,43087,0.045,-0.962,-0.054,-0.61,0,-0.488,148.5
133071,140083,13552,0.044,-0.96,-0.049,-0.183,0,-0.427,148.507
133070,140154,43087,0.042,-0.959,-0.051,-0.183,0,-0.427,148.51
133070,140091,13549,0.043,-0.959,-0.05,-0.061,0.122,-0.427,148.516
133052,140154,43087,0.047,-0.96,-0.048,-0.061,0.122,-0.427,148.52
133052,140052,13547,0.043,-0.96,-0.051,-0.183,0.061,-0.549,148.526
133046,140154,43087,0.043,-0.963,-0.05,-0.183,0.061,-0.549,148.53
133046,140073,13533,0.044,-0.965,-0.051,-0.427,-0.061,-0.61,148.536
133030,140154,43087,0.046,-0.962,-0.054,-0.427,-0.061,-0.61,148.54
133030,140069,13546,0.048,-0.962,-0.054,-0.488,-0.061,-0.732,148.546
133016,140154,43087,0.047,-0.961,-0.055,-0.488,-0.061,-0.732,148.55
133016,140043,13528,0.047,-0.962,-0.051,-0.122,0.244,-0.427,148.556
133029,140154,43087,0.042,-0.959,-0.053,-0.122,0.244,-0.427,148.56
133029,140045,13547,0.046,-0.963,-0.054,0.061,0.549,-0.366,148.566
133012,140154,43087,0.044,-0.963,-0.056,0.061,0.549,-0.366,148.57
133012,140037,13563,0.046,-0.961,-0.054,0.122,0.488,-0.366,148.576
133022,140154,43087,0.045,-0.959,-0.05,0.122,0.488,-0.366,148.58
133022,140044,13540,0.047,-0.957,-0.055,-0.122,0.305,-0.366,148.586
133009,139898,43087,0.047,-0.957,-0.053,-0.122,0.305,-0.366,148.589
133009,140026,13539,0.045,-0.955,-0.052,-0.244,0.305,0.061,148.596
133019,140154,43087,0.046,-0.961,-0.055,-0.244,0.305,0.061,148.599
133019,140060,13538,0.047,-0.961,-0.052,0.183,0.427,0.366,148.606
133009,139898,43087,0.048,-0.961,-0.05,0.183,0.427,0.366,148.609
133009,140024,13542,0.052,-0.959,-0.048,0.61,0.549,0.488,148.615
133026,140154,43087,0.052,-0.959,-0.048,0.61,0.549,0.488,148.619
133026,140056,13519,0.049,-0.959,-0.053,0.671,0.671,0.61,148.625
133034,139898,43087,0.045,-0.962,-0.052,0.671,0.671,0.61,148.629
133034,140017,13527,0.049,-0.964,-0.05,0.549,0.793,1.159,148.635
133015,140154,43087,0.046,-0.96,-0.053,0.549,0.793,1.159,148.639
133015,140053,13538,0.046,-0.96,-0.052,0.366,0.915,1.646,148.645
133021,139898,43087,0.045,-0.966,-0.05,0.366,0.915,1.646,148.649
133021,140028,13541,0.043,-0.966,-0.052,0.244,0.915,2.012,148.655
133021,139898,43087,0.041,-0.961,-0.049,0.244,0.915,2.012,148.659
133021,140021,13543,0.039,-0.964,-0.048,0.549,1.037,2.195,148.665
133018,140154,43087,0.041,-0.965,-0.049,0.549,1.037,2.195,148.669
133018,140034,13547,0.04,-0.963,-0.049,0.976,1.098,2.134,148.675
133023,139898,43087,0.039,-0.963,-0.049,0.976,1.098,2.134,148.679
133023,140028,13530,0.04,-0.963,-0.048,0.915,1.037,2.012,148.685
133033,140154,43087,0.036,-0.963,-0.046,0.915,1.037,2.012,148.688
133033,140040,13537,0.036,-0.962,-0.044,0.732,1.159,2.134,148.695
133027,139898,43087,0.037,-0.963,-0.046,0.732,1.159,2.134,148.698
133027,140031,13548,0.038,-0.955,-0.048,0.671,1.037,1.829,148.704
133028,140154,43087,0.036,-0.958,-0.046,0.671,1.037,1.829,148.708
133028,140057,13548,0.037,-0.96,-0.049,0.366,0.976,1.341,148.714
133025,140154,43087,0.037,-0.961,-0.047,0.366,0.976,1.341,148.718
133025,140043,13540,0.034,-0.96,-0.046,0,0.854,0.915,148.724
133046,140154,43087,0.034,-0.96,-0.05,0,0.854,0.915,148.728
133046,140033,13532,0.034,-0.96,-0.047,-0.366,0.549,0.305,148.734
133017,139898,43087,0.036,-0.958,-0.046,-0.366,0.549,0.305,148.738
133017,140030,13537,0.038,-0.959,-0.051,-0.915,0.244,-0.366,148.744
133023,140154,43087,0.038,-0.958,-0.047,-0.915,0.244,-0.366,148.748
133023,140047,13541,0.039,-0.954,-0.044,-1.402,-0.183,-0.793,148.754
133018,140154,43087,0.043,-0.954,-0.045,-1.402,-0.183,-0.793,148.758
133018,140035,13542,0.047,-0.959,-0.05,-1.89,-0.244,-1.037,148.764
133006,139898,43087,0.045,-0.959,-0.05,-1.89,-0.244,-1.037,148.768
133006,140006,13525,0.045,-0.957,-0.049,-2.317,-0.305,-0.976,148.774
133020,139898,43087,0.044,-0.955,-0.049,-2.317,-0.305,-0.976,148.778
133020,140009,13537,0.048,-0.951,-0.052,-2.805,-0.488,-0.854,148.784
133002,139898,43087,0.049,-0.954,-0.049,-2.805,-0.488,-0.854,148.787
133002,139989,13532,0.046,-0.959,-0.047,-3.293,-0.61,-0.488,148.794
133005,139898,43087,0.049,-0.96,-0.053,-3.293,-0.61,-0.488,148.797
133005,139974,13527,0.052,-0.962,-0.058,-3.659,-0.549,-0.061,148.803
132986,139898,43087,0.052,-0.967,-0.057,-3.659,-0.549,-0.061,148.807
132986,139966,13544,0.051,-0.965,-0.06,-3.659,-0.366,0.366,148.813
132965,139898,43087,0.054,-0.967,-0.064,-3.659,-0.366,0.366,148.817
132965,139987,13521,0.054,-0.966,-0.061,-3.049,-0.122,1.28,148.823
132968,139898,43087,0.049,-0.967,-0.06,-3.049,-0.122,1.28,148.827
132968,139971,13526,0.052,-0.964,-0.061,-2.561,0.183,2.256,148.833
132976,139898,43087,0.047,-0.962,-0.06,-2.561,0.183,2.256,148.837
132976,139945,13531,0.044,-0.965,-0.061,-2.134,0.427,2.988,148.843
132966,139898,43087,0.044,-0.968,-0.062,-2.134,0.427,2.988,148.847
132966,139950,13534,0.042,-0.966,-0.065,-1.646,0.61,3.537,148.853
132944,139898,43087,0.04,-0.967,-0.065,-1.646,0.61,3.537,148.857
132944,139940,13521,0.04,-0.967,-0.066,-0.976,0.793,3.659,148.863
132955,139898,43087,0.037,-0.965,-0.062,-0.976,0.793,3.659,148.867
132955,139954,13529,0.036,-0.964,-0.061,0.305,1.098,3.72,148.873
132950,139898,43087,0.035,-0.966,-0.061,0.305,1.098,3.72,148.876
132950,139910,13517,0.032,-0.966,-0.06,1.341,1.402,3.537,148.883
132934,139898,43087,0.032,-0.966,-0.06,1.341,1.402,3.537,148.886
132934,139906,13540,0.031,-0.965,-0.061,2.073,1.585,2.988,148.893
132943,139898,43087,0.031,-0.965,-0.061,2.073,1.585,2.988,148.896
132943,139928,13519,0.031,-0.966,-0.057,2.927,1.585,2.134,148.902
132939,139898,43087,0.031,-0.966,-0.057,2.927,1.585,2.134,148.906
132939,139906,13512,0.03,-0.961,-0.054,3.902,1.646,1.28,148.912
132946,139898,43087,0.03,-0.961,-0.054,3.902,1.646,1.28,148.916
132946,139907,13522,0.032,-0.958,-0.049,4.207,1.646,0.61,148.922
132919,139898,43087,0.032,-0.958,-0.049,4.207,1.646,0.61,148.926
132919,139913,13517,0.033,-0.961,-0.045,3.963,1.524,0.061,148.932
132943,139898,43087,0.033,-0.961,-0.045,3.963,1.524,0.061,148.936
132943,139910,13530,0.032,-0.961,-0.043,3.049,1.28,-0.366,148.942
132939,139898,43087,0.032,-0.961,-0.043,3.049,1.28,-0.366,148.946
132939,139920,13524,0.032,-0.953,-0.04,2.134,0.854,-0.854,148.952
132932,139898,43087,0.032,-0.953,-0.04,2.134,0.854,-0.854,148.956
132932,139909,13518,0.034,-0.954,-0.044,1.098,0.549,-1.159,148.962
132913,139898,43087,0.034,-0.954,-0.044,1.098,0.549,-1.159,148.966
132913,139908,13517,0.037,-0.959,-0.045,0.122,0.366,-1.341,148.972
132920,139898,43087,0.037,-0.959,-0.045,0.122,0.366,-1.341,148.975
132920,139896,13517,0.038,-0.961,-0.044,-0.427,0.244,-1.402,148.982
132922,139898,43087,0.038,-0.961,-0.044,-0.427,0.244,-1.402,148.985
132922,139883,13515,0.041,-0.957,-0.048,-0.671,0,-1.402,148.992
132912,139898,43087,0.041,-0.957,-0.048,-0.671,0,-1.402,148.995
132912,139869,13516,0.041,-0.959,-0.047,-0.976,-0.244,-1.463,149.001
132895,139898,43087,0.041,-0.959,-0.047,-0.976,-0.244,-1.463,149.005
132895,139878,13519,0.042,-0.961,-0.045,-1.463,-0.488,-1.341,149.011
132890,139898,43087,0.042,-0.961,-0.045,-1.463,-0.488,-1.341,149.015
132890,139834,13513,0.042,-0.959,-0.043,-2.317,-0.732,-1.22,149.021
132883,139898,43087,0.042,-0.959,-0.043,-2.317,-0.732,-1.22,149.025
132883,139820,13502,0.044,-0.959,-0.046,-2.317,-0.732,-1.22,149.031
132859,139898,43087,0.043,-0.957,-0.048,-3.171,-0.976,-1.037,149.035
132859,139814,13519,0.041,-0.958,-0.048,-3.171,-0.976,-1.037,149.041
132841,139898,43087,0.042,-0.962,-0.051,-3.902,-1.037,-0.61,149.045
132841,139825,13521,0.043,-0.963,-0.049,-3.902,-1.037,-0.61,149.051
132852,139898,43087,0.043,-0.963,-0.054,-4.39,-1.037,-0.427,149.055
132852,139782,13506,0.044,-0.967,-0.06,-4.39,-1.037,-0.427,149.061
132848,139898,43087,0.042,-0.967,-0.064,-4.085,-0.915,-0.305,149.065
132848,139790,13502,0.044,-0.969,-0.071,-4.085,-0.915,-0.305,149.071
132800,139642,43087,0.043,-0.969,-0.066,-2.988,-0.427,-0.061,149.074
132800,139747,13505,0.041,-0.971,-0.064,-2.988,-0.427,-0.061,149.081
132804,139642,43087,0.039,-0.967,-0.065,-1.22,-0.122,0.061,149.084
132804,139739,13500,0.042,-0.964,-0.06,-1.22,-0.122,0.061,149.09
132763,139642,43087,0.037,-0.961,-0.054,0.305,0,0,149.094
132763,139714,13493,0.036,-0.959,-0.053,0.305,0,0,149.1
132756,139642,43087,0.038,-0.955,-0.049,1.159,0.183,-0.366,149.104
132756,139694,13483,0.04,-0.957,-0.046,1.159,0.183,-0.366,149.11
132714,139642,43087,0.041,-0.957,-0.052,1.159,0.366,-1.037,149.114
132714,139673,13502,0.044,-0.959,-0.056,1.159,0.366,-1.037,149.12
132714,139642,43087,0.044,-0.958,-0.057,0.976,0.488,-1.646,149.124
132714,139680,13486,0.043,-0.959,-0.06,0.976,0.488,-1.646,149.13
132708,139642,43087,0.046,-0.967,-0.06,1.22,0.488,-1.829,149.134
132708,139694,13485,0.045,-0.96,-0.05,1.22,0.488,-1.829,149.14
132709,139642,43087,0.043,-0.948,-0.053,1.22,0.244,-1.768,149.144
132709,139672,13501,0.048,-0.951,-0.057,1.22,0.244,-1.768,149.15
132709,139642,43087,0.058,-0.963,-0.054,1.159,0.305,-1.951,149.154
132709,139700,13485,0.056,-0.974,-0.048,1.159,0.305,-1.951,149.16
132723,139642,43087,0.047,-0.971,-0.045,1.768,1.037,-1.524,149.163
132723,139705,13492,0.042,-0.961,-0.044,1.768,1.037,-1.524,149.17
132750,139642,43087,0.043,-0.949,-0.051,-0.122,0.732,0.122,149.173
132750,139716,13491,0.051,-0.951,-0.058,-0.122,0.732,0.122,149.18
132762,139642,43087,0.053,-0.955,-0.05,-0.976,0,0.549,149.183
132762,139744,13497,0.05,-0.949,-0.033,-0.976,0,0.549,149.189
132767,139898,43087,0.046,-0.944,-0.038,-0.488,0.366,0.976,149.193
132767,139789,13497,0.046,-0.951,-0.052,-0.488,0.366,0.976,149.199
132800,139898,43087,0.046,-0.965,-0.054,-1.951,0.488,1.951,149.203
132800,139814,13492,0.039,-0.976,-0.054,-1.951,0.488,1.951,149.209
132805,139898,43087,0.037,-0.976,-0.057,-1.951,0.61,2.073,149.213
132805,139828,13486,0.036,-0.974,-0.058,-1.951,0.61,2.073,149.219
132830,139898,43087,0.036,-0.966,-0.064,-2.012,0.366,1.463,149.223
132830,139848,13498,0.04,-0.966,-0.069,-2.012,0.366,1.463,149.229
132853,139898,43087,0.045,-0.968,-0.069,-0.793,0,0.915,149.233
132853,139868,13502,0.044,-0.969,-0.065,-0.793,0,0.915,149.239
132855,139898,43087,0.044,-0.97,-0.069,1.402,0.488,0.427,149.243
132855,139874,13490,0.042,-0.97,-0.067,1.402,0.488,0.427,149.249
132840,139898,43087,0.042,-0.969,-0.06,3.659,0.793,0.366,149.253
132840,139866,13498,0.04,-0.97,-0.059,3.659,0.793,0.366,149.259
132836,139898,43087,0.044,-0.967,-0.055,5.244,0.854,0.244,149.262
132836,139863,13487,0.044,-0.955,-0.051,5.244,0.854,0.244,149.269
132765,139898,43087,0.044,-0.948,-0.042,6.037,0.915,0.122,149.272
132765,139810,13497,0.045,-0.945,-0.038,6.037,0.915,0.122,149.279
132749,139642,43087,0.044,-0.944,-0.029,6.28,0.915,0.183,149.282
132749,139756,13469,0.043,-0.947,-0.027,6.28,0.915,0.183,149.288
132684,139642,43087,0.043,-0.945,-0.025,4.817,0.793,0.427,149.292
132684,139758,13480,0.042,-0.946,-0.028,4.817,0.793,0.427,149.298
132681,139642,43087,0.041,-0.95,-0.027,1.829,0.366,0.793,149.302
132681,139735,13467,0.042,-0.955,-0.027,1.829,0.366,0.793,149.308
132655,139642,43087,0.043,-0.955,-0.032,-1.098,-0.427,1.098,149.312
132655,139699,13479,0.043,-0.953,-0.038,-1.098,-0.427,1.098,149.318
132647,139642,43087,0.045,-0.96,-0.045,-4.085,-0.915,1.585,149.322
132647,139690,13454,0.047,-0.967,-0.054,-4.085,-0.915,1.585,149.328
132619,139642,43087,0.048,-0.97,-0.062,-5.305,-0.854,1.951,149.332
132619,139699,13454,0.05,-0.975,-0.07,-5.305,-0.854,1.951,149.338
132592,139642,43087,0.05,-0.976,-0.073,-4.085,-0.183,2.439,149.342
132592,139656,13457,0.05,-0.981,-0.075,-4.085,-0.183,2.439,149.348
132567,139642,43087,0.054,-0.978,-0.078,-1.341,0.427,2.927,149.352
132567,139617,13455,0.058,-0.975,-0.062,-1.341,0.427,2.927,149.358
132540,139642,43087,0.041,-0.958,-0.04,1.098,1.463,3.11,149.361
132540,139617,13445,0.032,-0.935,-0.038,1.098,1.463,3.11,149.368
132549,139642,43087,0.036,-0.925,-0.041,1.646,1.829,4.268,149.371
132549,139606,13430,0.035,-0.932,-0.029,1.646,1.829,4.268,149.378
132512,139642,43087,0.038,-0.943,-0.013,0.854,0.427,3.841,149.381
132512,139602,13434,0.037,-0.947,-0.022,0.854,0.427,3.841,149.387
132489,139642,43087,0.037,-0.953,-0.026,-2.134,-0.366,3.476,149.391
132489,139552,13431,0.039,-0.954,-0.029,-2.134,-0.366,3.476,149.397
132448,139642,43087,0.037,-0.962,-0.038,-6.646,-1.037,4.024,149.401
132448,139574,13420,0.036,-0.967,-0.047,-6.646,-1.037,4.024,149.407
132433,139642,43087,0.036,-0.969,-0.052,-9.878,-1.707,4.085,149.411
132433,139535,13415,0.038,-0.967,-0.06,-9.878,-1.707,4.085,149.417
132428,139642,43087,0.04,-0.965,-0.068,-10.854,-2.073,3.72,149.421
132428,139537,13419,0.04,-0.967,-0.064,-10.854,-2.073,3.72,149.427
132449,139386,43087,0.038,-0.965,-0.067,-9.512,-1.707,3.293,149.431
132449,139512,13426,0.039,-0.963,-0.074,-9.512,-1.707,3.293,149.437
132410,139386,43087,0.038,-0.966,-0.077,-7.927,-1.402,2.927,149.441
132410,139504,13422,0.038,-0.97,-0.072,-7.927,-1.402,2.927,149.447
132400,139642,43087,0.034,-0.971,-0.07,-6.159,-1.22,2.622,149.451
132400,139537,13419,0.032,-0.97,-0.071,-6.159,-1.22,2.622,149.457
132457,139386,43087,0.032,-0.97,-0.071,-6.159,-1.22,2.622,149.46
132457,139513,13418,0.03,-0.958,-0.065,-4.329,-0.854,2.378,149.467
132399,139386,43087,0.03,-0.958,-0.065,-4.329,-0.854,2.378,149.47
132399,139494,13406,0.032,-0.958,-0.064,-3.11,-0.915,1.646,149.477
132391,139386,43087,0.032,-0.958,-0.064,-3.11,-0.915,1.646,149.48
132391,139449,13402,0.032,-0.957,-0.056,-2.317,-0.915,0.793,149.486
132330,139386,43087,0.032,-0.957,-0.056,-2.317,-0.915,0.793,149.49
132330,139384,13411,0.034,-0.953,-0.057,-2.5,-0.915,0.183,149.496
132302,139386,43087,0.034,-0.953,-0.057,-2.5,-0.915,0.183,149.5
132302,139314,13396,0.035,-0.959,-0.064,-3.354,-0.976,-0.305,149.506
132228,139130,43087,0.035,-0.959,-0.064,-3.354,-0.976,-0.305,149.51
132228,139207,13386,0.038,-0.965,-0.062,-3.537,-0.854,-0.61,149.516
132132,139130,43087,0.038,-0.965,-0.062,-3.537,-0.854,-0.61,149.52
132132,139088,13375,0.038,-0.962,-0.067,-3.415,-0.671,-0.793,149.526
132049,138874,43087,0.038,-0.962,-0.067,-3.415,-0.671,-0.793,149.53
132049,138961,13367,0.039,-0.964,-0.069,-3.232,-0.366,-0.671,149.536
131963,138874,43087,0.039,-0.964,-0.069,-3.232,-0.366,-0.671,149.54
131963,138886,13364,0.039,-0.964,-0.067,-2.561,-0.183,-0.427,149.546
131916,138874,43087,0.039,-0.964,-0.067,-2.561,-0.183,-0.427,149.55
131916,138805,13364,0.04,-0.963,-0.071,-1.829,0.122,-0.244,149.556
131899,138618,43087,0.04,-0.963,-0.071,-1.829,0.122,-0.244,149.559
131899,138730,13365,0.041,-0.963,-0.069,-1.22,0.427,0.183,149.566
131849,138618,43087,0.041,-0.963,-0.069,-1.22,0.427,0.183,149.569
131849,138717,13357,0.04,-0.961,-0.069,-0.427,0.671,0.671,149.575
131857,138618,43087,0.04,-0.961,-0.069,-0.427,0.671,0.671,149.579
131857,138680,13346,0.039,-0.961,-0.067,0.488,1.098,1.098,149.585
131835,138618,43087,0.039,-0.961,-0.067,0.488,1.098,1.098,149.589
131835,138653,13355,0.034,-0.961,-0.067,1.159,1.28,1.524,149.595
131824,138618,43087,0.034,-0.961,-0.067,1.159,1.28,1.524,149.599
131824,138642,13338,0.036,-0.964,-0.066,1.646,1.402,1.89,149.605
131789,138618,43087,0.032,-0.965,-0.06,1.646,1.402,1.89,149.609
131789,138558,13323,0.032,-0.963,-0.06,1.951,1.402,2.073,149.615
131709,138362,43087,0.033,-0.954,-0.061,1.951,1.402,2.073,149.619
131709,138470,13343,0.032,-0.957,-0.062,1.829,1.341,2.073,149.625
131665,138362,43087,0.032,-0.956,-0.061,1.829,1.341,2.073,149.629
131665,138451,13315,0.03,-0.962,-0.061,1.646,1.22,1.89,149.635
131675,138362,43087,0.028,-0.963,-0.058,1.646,1.22,1.89,149.639
131675,138447,13334,0.031,-0.963,-0.065,1.402,1.341,1.707,149.645
131683,138362,43087,0.03,-0.963,-0.065,1.402,1.341,1.707,149.648
131683,138441,13318,0.032,-0.966,-0.061,1.341,1.28,1.524,149.655
131641,138362,43087,0.031,-0.962,-0.062,1.341,1.28,1.524,149.658
131641,138433,13335,0.034,-0.96,-0.063,1.646,1.22,1.402,149.665
131584,138362,43087,0.035,-0.962,-0.07,1.646,1.22,1.402,149.668
131584,138404,13301,0.034,-0.962,-0.061,1.951,1.28,1.098,149.674
131518,138362,43087,0.032,-0.964,-0.055,1.951,1.28,1.098,149.678
131518,138322,13306,0.035,-0.957,-0.057,2.195,1.28,1.037,149.684
131506,138362,43087,0.032,-0.953,-0.059,2.195,1.28,1.037,149.688
131506,138286,13290,0.033,-0.956,-0.055,2.012,1.28,1.159,149.694
131465,138362,43087,0.035,-0.96,-0.058,2.012,1.28,1.159,149.698
131465,138245,13296,0.035,-0.963,-0.058,1.951,1.341,1.22,149.704
131419,138106,43087,0.034,-0.965,-0.068,1.951,1.341,1.22,149.708
131419,138214,13288,0.036,-0.966,-0.064,1.585,1.463,1.22,149.714
131402,138106,43087,0.033,-0.964,-0.064,1.585,1.463,1.22,149.718
131402,138195,13290,0.032,-0.96,-0.06,1.463,1.22,1.28,149.724
131381,138106,43087,0.033,-0.958,-0.058,1.463,1.22,1.28,149.728
131381,138148,13279,0.031,-0.956,-0.054,1.463,1.098,1.22,149.734
131379,138106,43087,0.029,-0.955,-0.054,1.463,1.098,1.22,149.738
131379,138148,13287,0.029,-0.955,-0.05,1.159,0.976,0.915,149.744
131396,138106,43087,0.03,-0.958,-0.047,1.159,0.976,0.915,149.747
131396,138161,13291,0.035,-0.96,-0.054,0.244,0.671,0.61,149.754
131395,138106,43087,0.032,-0.959,-0.059,0.244,0.671,0.61,149.757
131395,138151,13277,0.029,-0.966,-0.055,-0.976,0.366,0.549,149.764
131422,138106,43087,0.028,-0.959,-0.046,-0.976,0.366,0.549,149.767
131422,138188,13287,0.027,-0.946,-0.052,-2.256,0,0.549,149.773
131454,138106,43087,0.031,-0.948,-0.06,-2.256,0,0.549,149.777
131454,138202,13283,0.041,-0.957,-0.063,-3.171,-0.305,-0.061,149.783
131473,138106,43087,0.044,-0.961,-0.061,-3.171,-0.305,-0.061,149.787
131473,138207,13303,0.042,-0.966,-0.055,-2.317,0.183,0,149.793
131502,138106,43087,0.035,-0.965,-0.058,-2.317,0.183,0,149.797
131502,138222,13310,0.031,-0.963,-0.068,-2.622,0.305,1.22,149.803
131518,138362,43087,0.03,-0.965,-0.073,-2.622,0.305,1.22,149.807
131518,138248,13320,0.033,-0.964,-0.067,-2.561,0.061,1.402,149.813
131565,138362,43087,0.037,-0.963,-0.065,-2.561,0.061,1.402,149.817
131565,138274,13310,0.04,-0.959,-0.067,-0.915,0.427,0.915,149.823
131573,138362,43087,0.035,-0.954,-0.063,-0.915,0.427,0.915,149.827
131573,138301,13320,0.031,-0.957,-0.062,-0.183,0.793,1.22,149.833
131593,138362,43087,0.033,-0.957,-0.06,-0.183,0.793,1.22,149.837
131593,138323,13333,0.032,-0.958,-0.058,0,0.976,1.524,149.843
131634,138362,43087,0.035,-0.958,-0.059,0,0.976,1.524,149.846
131634,138345,13332,0.034,-0.962,-0.059,0.183,1.037,1.402,149.853
131697,138362,43087,0.032,-0.959,-0.058,0.183,1.037,1.402,149.856
131697,138384,13327,0.032,-0.957,-0.061,-0.244,0.915,1.402,149.863
131695,138362,43087,0.033,-0.959,-0.059,-0.244,0.915,1.402,149.866
131695,138409,13340,0.031,-0.96,-0.062,-0.549,0.793,1.585,149.872
131725,138362,43087,0.032,-0.962,-0.064,-0.549,0.793,1.585,149.876
131725,138459,13348,0.03,-0.959,-0.062,-0.671,0.793,1.585,149.882
131771,138362,43087,0.028,-0.959,-0.062,-0.671,0.793,1.585,149.886
131771,138458,13342,0.03,-0.959,-0.061,-0.488,0.793,1.463,149.892
131791,138618,43087,0.031,-0.96,-0.056,-0.488,0.793,1.463,149.896
131791,138504,13356,0.031,-0.961,-0.057,-0.61,0.793,1.159,149.902
131847,138618,43087,0.028,-0.965,-0.057,-0.61,0.793,1.159,149.906
131847,138537,13353,0.03,-0.96,-0.058,-0.366,0.915,1.037,149.912
131853,138618,43087,0.033,-0.958,-0.062,-0.366,0.915,1.037,149.916
131853,138577,13379,0.034,-0.963,-0.062,-0.366,0.915,1.037,149.922
131880,138618,43087,0.031,-0.964,-0.062,-0.366,0.915,1.037,149.926
131880,138605,13370,0.032,-0.969,-0.066,-0.366,0.976,1.159,149.932
131904,138618,43087,0.031,-0.97,-0.072,-0.366,0.976,1.159,149.936
131904,138623,13362,0.035,-0.969,-0.074,0.305,1.159,1.402,149.942
131934,138618,43087,0.034,-0.967,-0.07,0.305,1.159,1.402,149.945
131934,138641,13383,0.033,-0.964,-0.068,1.524,1.341,1.89,149.952
131955,138618,43087,0.032,-0.963,-0.065,1.524,1.341,1.89,149.955
131955,138655,13405,0.032,-0.959,-0.062,2.683,1.524,2.317,149.962
131989,138618,43087,0.031,-0.961,-0.059,2.683,1.524,2.317,149.965
131989,138699,13387,0.033,-0.961,-0.057,2.988,1.707,2.622,149.971
131996,138618,43087,0.029,-0.961,-0.055,2.988,1.707,2.622,149.975
131996,138704,13394,0.026,-0.962,-0.055,2.622,1.768,2.866,149.981
131990,138618,43087,0.027,-0.959,-0.057,2.622,1.768,2.866,149.985
131990,138724,13395,0.028,-0.958,-0.054,1.89,1.524,3.049,149.991
131987,138618,43087,0.027,-0.961,-0.056,1.89,1.524,3.049,149.995
131987,138715,13377,0.026,-0.96,-0.056,1.159,1.341,2.927,150.001
132022,138618,43087,0.027,-0.958,-0.054,1.159,1.341,2.927,150.005
132022,138724,13387,0.028,-0.957,-0.053,0.427,1.159,2.622,150.011
131998,138618,43087,0.025,-0.959,-0.055,0.427,1.159,2.622,150.015
131998,138700,13393,0.026,-0.961,-0.058,-0.244,0.976,2.5,150.021
132007,138874,43087,0.027,-0.96,-0.056,-0.244,0.976,2.5,150.025
132007,138756,13404,0.027,-0.961,-0.057,-0.488,0.976,2.256,150.031
131995,138618,43087,0.027,-0.961,-0.057,-0.488,0.976,2.256,150.035
131995,138745,13391,0.028,-0.964,-0.053,-0.854,0.793,2.073,150.041
132009,138618,43087,0.028,-0.964,-0.053,-0.854,0.793,2.073,150.044
132009,138717,13407,0.029,-0.958,-0.058,-1.402,0.61,2.012,150.051
132019,138618,43087,0.029,-0.958,-0.058,-1.402,0.61,2.012,150.054
132019,138735,13407,0.031,-0.967,-0.061,-1.646,0.61,2.134,150.06
132016,138874,43087,0.031,-0.967,-0.061,-1.646,0.61,2.134,150.064
132016,138771,13398,0.028,-0.969,-0.064,-1.22,0.61,2.256,150.07
132017,138618,43087,0.028,-0.969,-0.064,-1.22,0.61,2.256,150.074
132017,138743,13411,0.03,-0.964,-0.061,-0.793,0.488,2.256,150.08
132017,138874,43087,0.03,-0.964,-0.061,-0.793,0.488,2.256,150.084
132017,138761,13405,0.025,-0.962,-0.062,-0.488,0.61,2.317,150.09
132023,138618,43087,0.025,-0.962,-0.062,-0.488,0.61,2.317,150.094
132023,138743,13423,0.023,-0.962,-0.053,-0.305,0.61,1.951,150.1
132043,138874,43087,0.023,-0.962,-0.053,-0.305,0.61,1.951,150.104
132043,138793,13403,0.021,-0.954,-0.054,-0.976,0.244,1.707,150.11
132056,138874,43087,0.021,-0.954,-0.054,-0.976,0.244,1.707,150.114
132056,138789,13413,0.023,-0.961,-0.065,-0.976,0.244,1.341,150.12
132051,138874,43087,0.023,-0.961,-0.065,-0.976,0.244,1.341,150.124
132051,138802,13413,0.028,-0.963,-0.064,-0.732,0.305,0.915,150.13
132085,138874,43087,0.028,-0.963,-0.064,-0.732,0.305,0.915,150.133
132085,138814,13412,0.027,-0.97,-0.066,-0.366,0.305,0.915,150.14
132098,138874,43087,0.027,-0.97,-0.066,-0.366,0.305,0.915,150.143
132098,138853,13425,0.025,-0.967,-0.066,0.732,0.61,0.915,150.15
132115,138874,43087,0.025,-0.967,-0.066,0.732,0.61,0.915,150.153
132115,138870,13420,0.024,-0.957,-0.059,1.829,0.732,0.671,150.159
132168,138874,43087,0.024,-0.957,-0.059,1.829,0.732,0.671,150.163
132168,138916,13424,0.025,-0.958,-0.058,2.622,0.915,0.366,150.169
132205,138874,43087,0.025,-0.958,-0.058,2.622,0.915,0.366,150.173
132205,138961,13425,0.028,-0.96,-0.053,2.622,0.915,0.366,150.179
132243,138874,43087,0.026,-0.964,-0.06,2.927,1.159,0.122,150.183
132243,138997,13428,0.025,-0.965,-0.06,2.927,1.159,0.122,150.189
132263,139130,43087,0.028,-0.964,-0.054,2.866,1.098,0.366,150.193
132263,139085,13447,0.025,-0.962,-0.052,2.866,1.098,0.366,150.199
132331,139130,43087,0.024,-0.956,-0.048,3.11,1.159,0.366,150.203
132331,139119,13435,0.027,-0.954,-0.055,3.11,1.159,0.366,150.209
132377,139130,43087,0.026,-0.96,-0.058,3.232,1.463,0.183,150.213
132377,139151,13465,0.025,-0.96,-0.058,3.232,1.463,0.183,150.219
132404,139130,43087,0.028,-0.965,-0.054,3.659,1.585,0.061,150.223
132404,139191,13458,0.028,-0.964,-0.058,3.659,1.585,0.061,150.229
132406,139130,43087,0.029,-0.966,-0.057,3.78,1.585,0.122,150.232
132406,139243,13462,0.029,-0.963,-0.058,3.78,1.585,0.122,150.239
132442,139386,43087,0.029,-0.966,-0.058,4.146,1.646,0.366,150.242
132442,139266,13465,0.028,-0.961,-0.061,4.146,1.646,0.366,150.249
132467,139386,43087,0.026,-0.96,-0.052,5.122,1.951,0.915,150.252
132467,139279,13462,0.026,-0.962,-0.055,5.122,1.951,0.915,150.258
132484,139386,43087,0.027,-0.958,-0.054,5.732,2.012,1.22,150.262
132484,139329,13478,0.025,-0.959,-0.047,5.732,2.012,1.22,150.268
132506,139386,43087,0.024,-0.961,-0.045,5.793,2.012,1.707,150.272
132506,139328,13478,0.021,-0.962,-0.044,5.793,2.012,1.707,150.278
132529,139386,43087,0.019,-0.96,-0.046,5.244,2.012,2.012,150.282
132529,139341,13487,0.02,-0.963,-0.042,5.244,2.012,2.012,150.288
132532,139386,43087,0.019,-0.959,-0.039,4.939,1.951,1.829,150.292
132532,139340,13467,0.021,-0.959,-0.044,4.939,1.951,1.829,150.298
132508,139386,43087,0.021,-0.963,-0.042,4.146,1.707,1.646,150.302
132508,139389,13482,0.021,-0.959,-0.041,4.146,1.707,1.646,150.308
132547,139386,43087,0.021,-0.961,-0.042,3.171,1.463,1.585,150.312
132547,139412,13470,0.019,-0.959,-0.043,3.171,1.463,1.585,150.318
132542,139386,43087,0.021,-0.963,-0.042,2.073,1.341,1.341,150.322
132542,139368,13467,0.021,-0.964,-0.041,2.073,1.341,1.341,150.328
132521,139386,43087,0.02,-0.961,-0.042,1.159,1.159,0.915,150.331
132521,139378,13474,0.02,-0.959,-0.046,1.159,1.159,0.915,150.338
132502,139386,43087,0.018,-0.961,-0.042,0.61,0.854,0.244,150.341
132502,139369,13481,0.021,-0.96,-0.042,0.61,0.854,0.244,150.348
132524,139386,43087,0.02,-0.96,-0.046,-0.061,0.61,-0.488,150.351
132524,139362,13458,0.02,-0.959,-0.046,-0.061,0.61,-0.488,150.357
132498,139386,43087,0.019,-0.962,-0.049,-0.793,0.366,-1.159,150.361
132498,139347,13491,0.019,-0.962,-0.046,-0.793,0.366,-1.159,150.367
132517,139386,43087,0.021,-0.962,-0.047,-0.793,0.244,-1.829,150.371
132517,139376,13474,0.025,-0.965,-0.045,-0.793,0.244,-1.829,150.377
132524,139386,43087,0.025,-0.963,-0.049,-0.732,0.061,-2.5,150.381
132524,139388,13470,0.026,-0.959,-0.048,-0.732,0.061,-2.5,150.387
132533,139386,43087,0.027,-0.959,-0.044,-0.976,-0.061,-3.11,150.391
132533,139371,13461,0.03,-0.961,-0.046,-0.976,-0.061,-3.11,150.397
132527,139386,43087,0.029,-0.964,-0.049,-1.28,0,-3.598,150.401
132527,139397,13489,0.029,-0.966,-0.054,-1.28,0,-3.598,150.407
132518,139386,43087,0.032,-0.966,-0.052,-1.463,0.061,-3.78,150.411
132518,139410,13464,0.032,-0.965,-0.051,-1.463,0.061,-3.78,150.417
132557,139386,43087,0.032,-0.964,-0.05,-1.098,0.244,-3.476,150.421
132557,139408,13494,0.029,-0.965,-0.056,-1.098,0.244,-3.476,150.427
132587,139386,43087,0.031,-0.964,-0.052,-0.671,0.427,-2.683,150.43
132587,139446,13496,0.029,-0.963,-0.057,-0.671,0.427,-2.683,150.437
132612,139386,43087,0.03,-0.966,-0.055,0.122,0.61,-2.073,150.44
132612,139482,13485,0.03,-0.967,-0.047,0.122,0.61,-2.073,150.447
132641,139386,43087,0.03,-0.966,-0.048,0.915,0.732,-1.585,150.45
132641,139517,13499,0.03,-0.964,-0.05,0.915,0.732,-1.585,150.456
132687,139642,43087,0.031,-0.965,-0.049,1.22,0.793,-0.976,150.46
132687,139564,13494,0.029,-0.963,-0.046,1.22,0.793,-0.976,150.466
132734,139642,43087,0.031,-0.961,-0.046,1.585,0.854,-0.122,150.47
132734,139615,13521,0.032,-0.963,-0.045,1.585,0.854,-0.122,150.476
132787,139642,43087,0.031,-0.963,-0.046,2.012,1.098,0.244,150.48
132787,139710,13512,0.029,-0.961,-0.042,2.012,1.098,0.244,150.486
132834,139642,43087,0.032,-0.964,-0.04,2.439,1.22,0.488,150.49
132834,139765,13528,0.027,-0.962,-0.043,2.439,1.22,0.488,150.496
132878,139898,43087,0.029,-0.963,-0.044,2.683,1.22,0.488,150.5
132878,139800,13530,0.029,-0.961,-0.046,2.683,1.22,0.488,150.506
132930,139898,43087,0.029,-0.963,-0.042,2.805,1.341,0.366,150.51
132930,139842,13546,0.029,-0.964,-0.043,2.805,1.341,0.366,150.516
132972,139898,43087,0.025,-0.96,-0.039,2.927,1.524,0.244,150.52
132972,139919,13555,0.026,-0.959,-0.042,2.927,1.524,0.244,150.526
132990,139898,43087,0.028,-0.963,-0.043,2.683,1.585,0.122,150.529
132990,139951,13560,0.028,-0.959,-0.042,2.683,1.585,0.122,150.536
133029,139898,43087,0.029,-0.96,-0.042,2.561,1.402,-0.061,150.539
133029,139953,13557,0.028,-0.959,-0.04,2.561,1.402,-0.061,150.545
133051,139898,43087,0.029,-0.958,-0.043,2.195,1.28,-0.366,150.549
133051,139989,13563,0.03,-0.958,-0.039,2.195,1.28,-0.366,150.555
133094,140154,43087,0.03,-0.959,-0.04,1.646,1.22,-0.61,150.559
133094,140043,13548,0.029,-0.959,-0.042,1.646,1.22,-0.61,150.565
133086,139898,43087,0.03,-0.961,-0.039,1.159,1.159,-0.61,150.569
133086,140031,13555,0.032,-0.959,-0.04,1.159,1.159,-0.61,150.575
133103,140154,43087,0.034,-0.962,-0.045,0.976,1.037,-0.61,150.579
133103,140078,13557,0.031,-0.962,-0.043,0.976,1.037,-0.61,150.585
133118,140154,43087,0.031,-0.959,-0.04,0.854,0.854,-0.549,150.589
133118,140096,13570,0.031,-0.96,-0.042,0.854,0.854,-0.549,150.595
133118,140154,43087,0.031,-0.962,-0.043,0.854,0.915,-0.427,150.599
133118,140109,13568,0.031,-0.967,-0.041,0.854,0.915,-0.427,150.605
133148,140154,43087,0.031,-0.967,-0.041,0.854,0.915,-0.427,150.609
133148,140113,13580,0.035,-0.964,-0.041,1.159,0.915,-0.183,150.615
133175,140154,43087,0.035,-0.964,-0.041,1.159,0.915,-0.183,150.618
133175,140124,13567,0.03,-0.96,-0.042,1.463,0.793,0,150.625
133157,140154,43087,0.03,-0.96,-0.042,1.463,0.793,0,150.628
133157,140151,13574,0.031,-0.964,-0.035,1.341,0.793,0.122,150.635
133213,140154,43087,0.031,-0.964,-0.035,1.341,0.793,0.122,150.638
133213,140166,13577,0.034,-0.964,-0.039,0.976,0.671,0.122,150.644
133199,140154,43087,0.034,-0.964,-0.039,0.976,0.671,0.122,150.648
133199,140173,13585,0.031,-0.962,-0.037,0.793,0.61,0.244,150.654
133229,140154,43087,0.031,-0.962,-0.037,0.793,0.61,0.244,150.658
133229,140192,13580,0.031,-0.965,-0.042,0.732,0.732,0.366,150.664
133216,140154,43087,0.031,-0.965,-0.042,0.732,0.732,0.366,150.668
133216,140240,13596,0.031,-0.965,-0.041,1.159,0.793,0.488,150.674
133277,140154,43087,0.031,-0.965,-0.041,1.159,0.793,0.488,150.678
133277,140248,13582,0.03,-0.962,-0.037,1.585,0.854,0.427,150.684
133268,140154,43087,0.03,-0.962,-0.037,1.585,0.854,0.427,150.688
133268,140276,13606,0.032,-0.96,-0.04,1.768,0.915,0.366,150.694
133297,140410,43087,0.032,-0.96,-0.04,1.768,0.915,0.366,150.698
133297,140288,13595,0.033,-0.96,-0.037,1.951,1.037,0.366,150.704
133310,140410,43087,0.033,-0.96,-0.037,1.951,1.037,0.366,150.708
133310,140318,13592,0.032,-0.962,-0.036,2.256,1.28,0.549,150.714
133322,140410,43087,0.032,-0.962,-0.036,2.256,1.28,0.549,150.717
133322,140338,13609,0.034,-0.963,-0.04,2.317,1.28,0.61,150.724
133359,140410,43087,0.034,-0.963,-0.04,2.317,1.28,0.61,150.727
133359,140349,13609,0.031,-0.966,-0.041,2.256,1.22,0.671,150.734
133348,140410,43087,0.031,-0.966,-0.041,2.256,1.22,0.671,150.737
133348,140406,13610,0.028,-0.968,-0.042,2.378,1.22,0.549,150.743
133374,140410,43087,0.028,-0.968,-0.042,2.378,1.22,0.549,150.747
133374,140394,13612,0.03,-0.969,-0.039,2.744,1.28,0.366,150.753
133378,140410,43087,0.027,-0.97,-0.041,2.744,1.28,0.366,150.757
133378,140390,13603,0.027,-0.964,-0.039,3.232,1.402,0.061,150.763
133397,140410,43087,0.029,-0.966,-0.036,3.232,1.402,0.061,150.767
133397,140434,13609,0.026,-0.96,-0.033,3.598,1.463,-0.244,150.773
133407,140410,43087,0.029,-0.956,-0.035,3.598,1.463,-0.244,150.777
133407,140437,13627,0.032,-0.954,-0.032,3.78,1.463,-0.427,150.783
133425,140410,43087,0.034,-0.961,-0.036,3.78,1.463,-0.427,150.787
133425,140467,13615,0.032,-0.963,-0.033,3.841,1.585,-0.183,150.793
133444,140410,43087,0.032,-0.966,-0.038,3.841,1.585,-0.183,150.797
133444,140464,13617,0.032,-0.967,-0.035,4.085,1.829,0.488,150.803
133454,140410,43087,0.031,-0.963,-0.033,4.085,1.829,0.488,150.807
133454,140500,13620,0.029,-0.956,-0.03,4.634,1.768,0.61,150.813
133466,140410,43087,0.029,-0.957,-0.025,4.634,1.768,0.61,150.816
133466,140522,13616,0.028,-0.958,-0.026,4.756,1.768,0.488,150.823
133492,140410,43087,0.027,-0.96,-0.025,4.756,1.768,0.488,150.826
133492,140507,13621,0.025,-0.961,-0.024,4.39,1.646,0.305,150.833
133480,140410,43087,0.026,-0.96,-0.021,4.39,1.646,0.305,150.836
133480,140540,13628,0.023,-0.96,-0.021,3.537,1.585,0,150.842
133480,140666,43087,0.028,-0.958,-0.018,3.537,1.585,0,150.846
133480,140559,13620,0.031,-0.958,-0.024,2.622,1.28,-0.366,150.852
133471,140666,43087,0.03,-0.96,-0.022,2.622,1.28,-0.366,150.856
133471,140560,13613,0.031,-0.957,-0.024,1.89,1.159,-0.854,150.862
133481,140666,43087,0.031,-0.958,-0.029,1.89,1.159,-0.854,150.866
133481,140580,13631,0.03,-0.96,-0.027,1.159,1.037,-1.098,150.872
133499,140666,43087,0.032,-0.962,-0.028,1.159,1.037,-1.098,150.876
133499,140569,13623,0.035,-0.962,-0.026,0.732,0.915,-1.037,150.882
133495,140666,43087,0.036,-0.959,-0.025,0.732,0.915,-1.037,150.886
133495,140585,13620,0.036,-0.959,-0.027,0.732,0.854,-0.915,150.892
133506,140666,43087,0.035,-0.96,-0.025,0.732,0.854,-0.915,150.896
133506,140572,13626,0.035,-0.962,-0.022,0.549,0.793,-0.61,150.902
133504,140666,43087,0.036,-0.961,-0.023,0.549,0.793,-0.61,150.906
133504,140558,13627,0.036,-0.961,-0.023,0.427,0.732,-0.061,150.912
133481,140666,43087,0.036,-0.959,-0.025,0.427,0.732,-0.061,150.915
133481,140568,13621,0.038,-0.959,-0.024,0.183,0.732,0.488,150.922
133507,140666,43087,0.039,-0.959,-0.021,0.183,0.732,0.488,150.925
133507,140600,13634,0.038,-0.958,-0.022,-0.488,0.488,1.22,150.932
133512,140666,43087,0.039,-0.956,-0.021,-0.488,0.488,1.22,150.935
133512,140594,13626,0.037,-0.957,-0.023,-1.463,0.488,2.195,150.941
133510,140666,43087,0.033,-0.958,-0.024,-1.463,0.488,2.195,150.945
133510,140611,13645,0.033,-0.959,-0.026,-2.378,0.488,3.11,150.951
133515,140666,43087,0.032,-0.962,-0.027,-2.378,0.488,3.11,150.955
133515,140643,13611,0.029,-0.963,-0.03,-3.171,0.305,3.841,150.961
133512,140666,43087,0.031,-0.964,-0.03,-3.171,0.305,3.841,150.965
133512,140605,13608,0.028,-0.965,-0.028,-3.537,0.061,3.963,150.971
133518,140666,43087,0.026,-0.966,-0.029,-3.537,0.061,3.963,150.975
133518,140627,13620,0.026,-0.966,-0.028,-3.963,-0.183,3.415,150.981
133539,140666,43087,0.024,-0.966,-0.026,-3.963,-0.183,3.415,150.985
133539,140648,13613,0.02,-0.964,-0.033,-4.451,-0.488,2.622,150.991
133526,140666,43087,0.022,-0.966,-0.032,-4.451,-0.488,2.622,150.995
133526,140625,13629,0.023,-0.965,-0.029,-4.878,-0.854,1.89,151.001
133553,140666,43087,0.025,-0.963,-0.036,-4.878,-0.854,1.89,151.005
133553,140614,13630,0.025,-0.963,-0.039,-5,-0.793,1.28,151.011
133541,140666,43087,0.025,-0.964,-0.037,-5,-0.793,1.28,151.014
133541,140661,13642,0.027,-0.961,-0.036,-4.573,-0.976,0.671,151.021
133538,140666,43087,0.029,-0.96,-0.037,-4.573,-0.976,0.671,151.024
133538,140652,13626,0.031,-0.96,-0.036,-4.146,-1.159,0.183,151.031
133551,140666,43087,0.031,-0.96,-0.036,-4.146,-1.159,0.183,151.034
133551,140664,13637,0.031,-0.962,-0.036,-3.963,-1.341,-0.122,151.04
133601,140666,43087,0.029,-0.964,-0.035,-3.963,-1.341,-0.122,151.044
133601,140683,13630,0.028,-0.962,-0.039,-4.146,-1.463,0.183,151.05
133590,140666,43087,0.028,-0.96,-0.04,-4.146,-1.463,0.183,151.054
133590,140711,13648,0.027,-0.962,-0.037,-3.659,-1.402,0.183,151.06
133606,140666,43087,0.025,-0.964,-0.037,-3.659,-1.402,0.183,151.064
133606,140707,13640,0.028,-0.97,-0.039,-3.171,-1.341,-0.061,151.07
133625,140666,43087,0.025,-0.972,-0.038,-3.171,-1.341,-0.061,151.074
133625,140716,13636,0.023,-0.972,-0.042,-2.805,-1.28,-0.244,151.08
133616,140666,43087,0.024,-0.973,-0.037,-2.805,-1.28,-0.244,151.084
133616,140749,13635,0.026,-0.969,-0.039,-2.378,-1.28,-0.793,151.09
133631,140666,43087,0.024,-0.968,-0.038,-2.378,-1.28,-0.793,151.094
133631,140755,13634,0.024,-0.968,-0.042,-2.317,-1.28,-1.524,151.1
133636,140666,43087,0.026,-0.964,-0.041,-2.317,-1.28,-1.524,151.104
133636,140767,13659,0.024,-0.967,-0.043,-2.195,-1.159,-2.256,151.11
133633,140666,43087,0.024,-0.97,-0.039,-2.195,-1.159,-2.256,151.113
133633,140757,13644,0.027,-0.971,-0.041,-1.829,-1.098,-3.171,151.12
133654,140666,43087,0.027,-0.966,-0.041,-1.829,-1.098,-3.171,151.123
133654,140775,13638,0.03,-0.965,-0.041,-1.524,-0.976,-3.476,151.129
133637,140666,43087,0.032,-0.963,-0.039,-1.524,-0.976,-3.476,151.133
133637,140786,13653,0.031,-0.96,-0.037,-1.22,-0.793,-3.537,151.139
133662,140666,43087,0.035,-0.958,-0.041,-1.22,-0.793,-3.537,151.143
133662,140771,13621,0.037,-0.961,-0.039,-0.854,-0.366,-3.354,151.149
133650,140666,43087,0.038,-0.96,-0.039,-0.854,-0.366,-3.354,151.153
133650,140798,13638,0.037,-0.957,-0.043,-0.427,0.122,-2.805,151.159
133657,140666,43087,0.036,-0.958,-0.037,-0.427,0.122,-2.805,151.163
133657,140788,13643,0.038,-0.959,-0.04,0,0.61,-2.134,151.169
133649,140922,43087,0.038,-0.959,-0.043,0,0.61,-2.134,151.173
133649,140812,13650,0.04,-0.96,-0.044,0.732,0.976,-1.707,151.179
133647,140666,43087,0.04,-0.96,-0.044,0.732,0.976,-1.707,151.183
133647,140795,13627,0.039,-0.963,-0.04,1.341,1.28,-1.22,151.189
133657,140666,43087,0.039,-0.963,-0.04,1.341,1.28,-1.22,151.193
133657,140797,13635,0.038,-0.963,-0.041,2.195,1.524,-0.854,151.199
133660,140666,43087,0.038,-0.963,-0.041,2.195,1.524,-0.854,151.202
133660,140773,13641,0.039,-0.961,-0.039,3.293,1.707,-0.671,151.209
133609,140666,43087,0.039,-0.961,-0.039,3.293,1.707,-0.671,151.212
133609,140739,13655,0.038,-0.961,-0.031,3.963,1.768,-0.793,151.219
133602,140666,43087,0.038,-0.961,-0.031,3.963,1.768,-0.793,151.222
133602,140756,13626,0.036,-0.961,-0.033,3.963,1.89,-0.793,151.228
133566,140666,43087,0.036,-0.961,-0.033,3.963,1.89,-0.793,151.232
133566,140710,13624,0.036,-0.962,-0.03,3.78,1.829,-0.793,151.238
133551,140666,43087,0.036,-0.962,-0.03,3.78,1.829,-0.793,151.242
133551,140690,13620,0.038,-0.962,-0.031,3.476,1.768,-0.915,151.248
133510,140666,43087,0.038,-0.962,-0.031,3.476,1.768,-0.915,151.252
133510,140653,13620,0.038,-0.958,-0.03,3.049,1.646,-0.976,151.258
133491,140666,43087,0.038,-0.958,-0.03,3.049,1.646,-0.976,151.262
133491,140639,13615,0.041,-0.956,-0.026,2.317,1.463,-1.159,151.268
133448,140666,43087,0.041,-0.956,-0.026,2.317,1.463,-1.159,151.272
133448,140613,13614,0.038,-0.955,-0.027,1.22,1.159,-0.915,151.278
133448,140666,43087,0.038,-0.955,-0.027,1.22,1.159,-0.915,151.282
133448,140588,13608,0.039,-0.961,-0.027,0.122,0.976,-0.488,151.288
133407,140666,43087,0.039,-0.961,-0.027,0.122,0.976,-0.488,151.292
133407,140572,13610,0.038,-0.961,-0.028,-0.549,0.671,0,151.298
133377,140666,43087,0.038,-0.961,-0.028,-0.549,0.671,0,151.301
133377,140546,13597,0.042,-0.957,-0.03,-1.28,0.366,0.366,151.308
133357,140410,43087,0.042,-0.957,-0.03,-1.28,0.366,0.366,151.311
133357,140486,13606,0.038,-0.962,-0.035,-2.195,0.244,0.976,151.318
133302,140410,43087,0.038,-0.962,-0.035,-2.195,0.244,0.976,151.321
133302,140493,13595,0.04,-0.966,-0.033,-2.195,0.244,0.976,151.327
133307,140410,43087,0.039,-0.969,-0.032,-2.805,0.122,1.402,151.331
133307,140469,13584,0.036,-0.964,-0.036,-2.805,0.122,1.402,151.337
133261,140410,43087,0.036,-0.962,-0.037,-3.049,0.122,1.646,151.341
133261,140427,13595,0.036,-0.962,-0.036,-3.049,0.122,1.646,151.347
133244,140410,43087,0.035,-0.964,-0.035,-3.11,0.061,1.829,151.351
133244,140411,13576,0.033,-0.964,-0.038,-3.11,0.061,1.829,151.357
133241,140410,43087,0.032,-0.964,-0.04,-3.049,0,1.524,151.361
133241,140379,13594,0.033,-0.963,-0.042,-3.049,0,1.524,151.367
133233,140410,43087,0.033,-0.965,-0.041,-3.049,0,1.22,151.371
133233,140419,13572,0.033,-0.967,-0.041,-3.049,0,1.22,151.377
133271,140410,43087,0.034,-0.967,-0.042,-2.622,-0.061,1.037,151.381
133271,140402,13591,0.035,-0.964,-0.043,-2.622,-0.061,1.037,151.387
133241,140410,43087,0.034,-0.967,-0.045,-1.89,0.122,0.915,151.391
133241,140423,13573,0.033,-0.966,-0.044,-1.89,0.122,0.915,151.397
133285,140410,43087,0.032,-0.965,-0.044,-0.854,0.427,0.61,151.4
133285,140442,13569,0.033,-0.964,-0.043,-0.854,0.427,0.61,151.407
133293,140410,43087,0.034,-0.965,-0.044,0.488,0.732,0.366,151.41
133293,140439,13585,0.032,-0.964,-0.042,0.488,0.732,0.366,151.416
133309,140410,43087,0.033,-0.963,-0.043,1.341,0.915,0.061,151.42
133309,140462,13602,0.034,-0.962,-0.043,1.341,0.915,0.061,151.426
133306,140410,43087,0.035,-0.964,-0.039,2.073,1.159,-0.427,151.43
133306,140481,13598,0.032,-0.965,-0.041,2.073,1.159,-0.427,151.436
133352,140410,43087,0.034,-0.962,-0.037,2.683,1.22,-0.854,151.44
133352,140506,13593,0.035,-0.963,-0.036,2.683,1.22,-0.854,151.446
133360,140410,43087,0.038,-0.964,-0.04,3.293,1.341,-1.037,151.45
133360,140505,13603,0.04,-0.964,-0.039,3.293,1.341,-1.037,151.456
133367,140410,43087,0.041,-0.961,-0.036,3.902,1.829,-1.037,151.46
133367,140508,13599,0.041,-0.958,-0.034,3.902,1.829,-1.037,151.466
133374,140410,43087,0.041,-0.96,-0.034,4.024,2.134,-0.915,151.47
133374,140536,13604,0.039,-0.964,-0.031,4.024,2.134,-0.915,151.476
133394,140666,43087,0.037,-0.962,-0.033,3.598,2.134,-0.366,151.48
133394,140555,13601,0.037,-0.967,-0.031,3.598,2.134,-0.366,151.486
133422,140666,43087,0.04,-0.963,-0.029,3.476,2.134,-0.061,151.49
133422,140561,13609,0.039,-0.961,-0.031,3.476,2.134,-0.061,151.496
133444,140666,43087,0.037,-0.963,-0.028,3.354,2.134,0.366,151.499
133444,140600,13625,0.038,-0.96,-0.028,3.354,2.134,0.366,151.506
133473,140666,43087,0.04,-0.96,-0.028,2.988,1.829,0.671,151.509
133473,140627,13607,0.038,-0.963,-0.025,2.988,1.829,0.671,151.515
133472,140666,43087,0.036,-0.962,-0.027,2.622,1.646,0.915,151.519
133472,140617,13610,0.036,-0.962,-0.025,2.622,1.646,0.915,151.525
133501,140666,43087,0.036,-0.964,-0.024,2.012,1.28,1.098,151.529
133501,140649,13616,0.035,-0.961,-0.027,2.012,1.28,1.098,151.535
133511,140666,43087,0.035,-0.96,-0.023,1.585,1.037,1.402,151.539
133511,140667,13611,0.032,-0.954,-0.022,1.585,1.037,1.402,151.545
133530,140666,43087,0.029,-0.953,-0.022,1.037,0.793,1.463,151.549
133530,140683,13618,0.031,-0.956,-0.021,1.037,0.793,1.463,151.555
133527,140666,43087,0.032,-0.959,-0.023,-0.122,0.488,1.22,151.559
133527,140706,13619,0.03,-0.959,-0.021,-0.122,0.488,1.22,151.565
133550,140666,43087,0.032,-0.96,-0.023,-1.463,0,0.671,151.569
133550,140684,13618,0.032,-0.962,-0.025,-1.463,0,0.671,151.575
133525,140666,43087,0.03,-0.96,-0.026,-2.317,-0.366,0.366,151.579
133525,140713,13602,0.034,-0.958,-0.029,-2.317,-0.366,0.366,151.585
133517,140666,43087,0.035,-0.957,-0.027,-2.988,-0.488,0.305,151.588
133517,140663,13618,0.033,-0.956,-0.026,-2.988,-0.488,0.305,151.595
133506,140666,43087,0.033,-0.957,-0.029,-3.476,-0.488,0.366,151.598
133506,140676,13629,0.036,-0.96,-0.029,-3.476,-0.488,0.366,151.605
133513,140666,43087,0.034,-0.961,-0.033,-3.78,-0.488,0.244,151.608
133513,140661,13603,0.037,-0.964,-0.034,-3.78,-0.488,0.244,151.614
133475,140666,43087,0.038,-0.964,-0.031,-3.963,-0.671,0.061,151.618
133475,140649,13612,0.035,-0.961,-0.034,-3.963,-0.671,0.061,151.624
133494,140666,43087,0.034,-0.961,-0.034,-4.146,-0.793,0.183,151.628
133494,140639,13609,0.036,-0.964,-0.038,-4.146,-0.793,0.183,151.634
133471,140666,43087,0.034,-0.963,-0.037,-4.085,-0.671,0.427,151.638
133471,140625,13602,0.034,-0.966,-0.037,-4.085,-0.671,0.427,151.644
133462,140666,43087,0.034,-0.969,-0.04,-3.537,-0.61,0.488,151.648
133462,140621,13612,0.035,-0.971,-0.04,-3.537,-0.61,0.488,151.654
133439,140666,43087,0.034,-0.968,-0.039,-2.744,-0.488,0.244,151.658
133439,140618,13598,0.035,-0.965,-0.04,-2.744,-0.488,0.244,151.664
133444,140666,43087,0.034,-0.965,-0.04,-1.89,-0.183,0.061,151.668
133444,140628,13603,0.034,-0.967,-0.039,-1.89,-0.183,0.061,151.674
133446,140666,43087,0.036,-0.966,-0.042,-1.22,0.122,0.122,151.678
133446,140608,13602,0.03,-0.966,-0.041,-1.22,0.122,0.122,151.684
133455,140666,43087,0.033,-0.961,-0.038,-0.427,0.305,0.061,151.687
133455,140648,13610,0.036,-0.961,-0.04,-0.427,0.305,0.061,151.694
133458,140666,43087,0.036,-0.96,-0.039,0.366,0.488,0.061,151.697
133458,140624,13614,0.037,-0.961,-0.033,0.366,0.488,0.061,151.704
133471,140666,43087,0.036,-0.96,-0.034,0.671,0.732,0,151.707
133471,140632,13608,0.034,-0.962,-0.034,0.671,0.732,0,151.713
133480,140666,43087,0.033,-0.963,-0.031,0.488,0.793,0.305,151.717
133480,140692,13618,0.034,-0.965,-0.028,0.488,0.793,0.305,151.723
133516,140666,43087,0.033,-0.965,-0.034,0.244,0.671,0.488,151.727
133516,140687,13623,0.034,-0.963,-0.033,0.244,0.671,0.488,151.733
133535,140666,43087,0.036,-0.961,-0.034,-0.061,0.61,0.549,151.737
133535,140714,13619,0.032,-0.96,-0.032,-0.061,0.61,0.549,151.743
133553,140666,43087,0.031,-0.962,-0.031,-0.244,0.732,0.61,151.747
133553,140724,13621,0.032,-0.961,-0.036,-0.244,0.732,0.61,151.753
133559,140666,43087,0.032,-0.961,-0.036,-0.244,0.732,0.61,151.757
133559,140703,13622,0.031,-0.965,-0.036,-0.549,0.671,0.427,151.763
133577,140666,43087,0.031,-0.965,-0.036,-0.549,0.671,0.427,151.767
133577,140757,13618,0.029,-0.963,-0.034,-0.793,0.427,0.244,151.773
133579,140666,43087,0.029,-0.963,-0.034,-0.793,0.427,0.244,151.777
133579,140781,13636,0.036,-0.963,-0.033,-1.098,0.366,-0.061,151.783
133592,140666,43087,0.036,-0.963,-0.033,-1.098,0.366,-0.061,151.786
133592,140763,13626,0.034,-0.959,-0.03,-1.159,0.183,-0.488,151.793
133593,140666,43087,0.034,-0.959,-0.03,-1.159,0.183,-0.488,151.796
133593,140782,13626,0.038,-0.957,-0.031,-1.463,0,-0.915,151.803
133623,140922,43087,0.038,-0.957,-0.031,-1.463,0,-0.915,151.806
133623,140803,13640,0.036,-0.961,-0.035,-2.012,-0.244,-1.22,151.812
133612,140666,43087,0.036,-0.961,-0.035,-2.012,-0.244,-1.22,151.816
133612,140795,13608,0.039,-0.964,-0.033,-2.561,-0.488,-1.28,151.822
133602,140666,43087,0.039,-0.964,-0.033,-2.561,-0.488,-1.28,151.826
133602,140790,13628,0.039,-0.958,-0.037,-2.744,-0.61,-1.341,151.832
133598,140666,43087,0.039,-0.958,-0.037,-2.744,-0.61,-1.341,151.836
133598,140794,13648,0.039,-0.96,-0.031,-2.744,-0.671,-1.463,151.842
133594,140666,43087,0.039,-0.96,-0.031,-2.744,-0.671,-1.463,151.846
133594,140793,13632,0.041,-0.964,-0.034,-2.988,-0.732,-1.646,151.852
133569,140666,43087,0.041,-0.964,-0.034,-2.988,-0.732,-1.646,151.856
133569,140795,13635,0.041,-0.963,-0.042,-3.232,-0.732,-1.768,151.862
133581,140666,43087,0.041,-0.963,-0.042,-3.232,-0.732,-1.768,151.866
133581,140785,13627,0.043,-0.96,-0.038,-3.476,-0.732,-1.707,151.872
133574,140666,43087,0.043,-0.96,-0.038,-3.476,-0.732,-1.707,151.876
133574,140767,13622,0.043,-0.961,-0.043,-3.902,-0.549,-1.524,151.882
133550,140666,43087,0.043,-0.961,-0.043,-3.902,-0.549,-1.524,151.885
133550,140739,13624,0.042,-0.967,-0.044,-4.024,-0.61,-1.22,151.892
133506,140666,43087,0.042,-0.967,-0.044,-4.024,-0.61,-1.22,151.895
133506,140762,13625,0.041,-0.968,-0.044,-3.963,-0.61,-1.037,151.901
133503,140666,43087,0.041,-0.966,-0.044,-3.963,-0.61,-1.037,151.905
133503,140711,13632,0.039,-0.962,-0.039,-3.537,-0.671,-0.915,151.911
133486,140666,43087,0.04,-0.961,-0.039,-3.537,-0.671,-0.915,151.915
133486,140705,13621,0.042,-0.96,-0.041,-3.11,-0.671,-0.671,151.921
133466,140666,43087,0.042,-0.959,-0.038,-3.11,-0.671,-0.671,151.925
133466,140693,13607,0.042,-0.957,-0.039,-2.866,-0.671,-0.061,151.931
133468,140666,43087,0.047,-0.963,-0.039,-2.866,-0.671,-0.061,151.935
133468,140642,13620,0.043,-0.967,-0.044,-3.11,-0.488,0.671,151.941
133462,140666,43087,0.037,-0.969,-0.047,-3.11,-0.488,0.671,151.945
133462,140671,13607,0.036,-0.971,-0.043,-3.841,-0.366,2.134,151.951
133455,140666,43087,0.032,-0.967,-0.046,-3.841,-0.366,2.134,151.955
133455,140672,13624,0.033,-0.96,-0.043,-3.171,-0.671,2.195,151.961
133467,140666,43087,0.034,-0.955,-0.036,-3.171,-0.671,2.195,151.965
133467,140677,13608,0.036,-0.956,-0.042,-2.927,-0.854,1.402,151.971
133474,140666,43087,0.038,-0.963,-0.045,-2.927,-0.854,1.402,151.974
133474,140671,13621,0.036,-0.967,-0.045,-3.293,-0.671,1.341,151.981
133488,140666,43087,0.032,-0.969,-0.048,-3.293,-0.671,1.341,151.984
133488,140672,13606,0.033,-0.97,-0.05,-3.415,-0.366,1.524,151.991
133480,140666,43087,0.032,-0.967,-0.048,-3.415,-0.366,1.524,151.994
133480,140687,13618,0.035,-0.961,-0.046,-3.049,-0.61,1.28,152
133489,140666,43087,0.036,-0.953,-0.043,-3.049,-0.61,1.28,152.004
133489,140707,13622,0.037,-0.956,-0.043,-2.378,-0.854,0.732,152.01
133490,140666,43087,0.038,-0.955,-0.043,-2.378,-0.854,0.732,152.014
133490,140690,13619,0.037,-0.954,-0.042,-2.073,-0.549,0.305,152.02
133493,140666,43087,0.039,-0.959,-0.042,-2.073,-0.549,0.305,152.024
133493,140693,13618,0.037,-0.962,-0.047,-2.073,-0.366,0.183,152.03
133509,140666,43087,0.038,-0.959,-0.046,-2.073,-0.366,0.183,152.034
133509,140699,13608,0.038,-0.957,-0.046,-1.829,-0.305,-0.061,152.04
133491,140666,43087,0.037,-0.957,-0.046,-1.829,-0.305,-0.061,152.044
133491,140690,13615,0.038,-0.96,-0.044,-1.341,-0.122,-0.305,152.05
133472,140666,43087,0.041,-0.964,-0.043,-1.341,-0.122,-0.305,152.054
133472,140715,13621,0.043,-0.961,-0.044,-0.854,0,-0.549,152.06
133501,140666,43087,0.04,-0.962,-0.047,-0.854,0,-0.549,152.064
133501,140692,13619,0.039,-0.959,-0.045,-0.366,0.122,-0.671,152.07
133480,140666,43087,0.039,-0.96,-0.042,-0.366,0.122,-0.671,152.073
133480,140681,13612,0.041,-0.958,-0.042,-0.366,0.244,-0.61,152.08
133479,140666,43087,0.045,-0.957,-0.041,-0.366,0.244,-0.61,152.083
133479,140688,13606,0.045,-0.96,-0.042,-0.488,0.427,-0.427,152.09
133471,140666,43087,0.045,-0.961,-0.044,-0.488,0.427,-0.427,152.093
133471,140702,13620,0.046,-0.962,-0.043,-0.488,0.732,0.061,152.099
133473,140666,43087,0.046,-0.957,-0.048,-0.488,0.732,0.061,152.103
133473,140667,13598,0.047,-0.956,-0.046,-0.488,1.037,0.732,152.109
133456,140666,43087,0.048,-0.956,-0.046,-0.488,1.037,0.732,152.113
133456,140681,13604,0.047,-0.961,-0.049,-0.549,1.28,1.463,152.119
133466,140666,43087,0.045,-0.961,-0.05,-0.549,1.28,1.463,152.123
133466,140685,13607,0.043,-0.961,-0.051,-0.305,1.646,2.439,152.129
133463,140666,43087,0.046,-0.958,-0.053,-0.305,1.646,2.439,152.133
133463,140646,13599,0.045,-0.959,-0.047,-0.122,1.829,3.354,152.139
133428,140666,43087,0.043,-0.957,-0.047,-0.122,1.829,3.354,152.143
133428,140658,13616,0.04,-0.958,-0.047,-0.061,2.073,4.207,152.149
133460,140666,43087,0.041,-0.96,-0.05,-0.061,2.073,4.207,152.153
133460,140643,13603,0.037,-0.966,-0.052,-0.061,2.073,4.817,152.159
133414,140666,43087,0.037,-0.967,-0.053,-0.061,2.073,4.817,152.163
133414,140612,13604,0.034,-0.969,-0.055,-0.061,2.012,5.244,152.169
133447,140666,43087,0.033,-0.969,-0.057,-0.061,2.012,5.244,152.172
133447,140630,13585,0.03,-0.968,-0.056,0.122,1.89,5.366,152.179
133427,140666,43087,0.03,-0.969,-0.057,0.122,1.89,5.366,152.182
133427,140613,13613,0.026,-0.97,-0.054,0.915,1.768,5.244,152.189
133389,140666,43087,0.026,-0.969,-0.054,0.915,1.768,5.244,152.192
133389,140629,13614,0.023,-0.968,-0.052,1.829,1.829,4.451,152.198
133376,140666,43087,0.022,-0.969,-0.053,1.829,1.829,4.451,152.202
133376,140589,13604,0.02,-0.966,-0.052,2.012,1.463,3.11,152.208
133365,140666,43087,0.022,-0.965,-0.049,2.012,1.463,3.11,152.212
133365,140556,13593,0.025,-0.966,-0.049,1.707,0.915,1.707,152.218
133359,140666,43087,0.022,-0.966,-0.043,1.707,0.915,1.707,152.222
133359,140562,13594,0.022,-0.964,-0.041,1.402,0.488,0.549,152.228
133383,140666,43087,0.024,-0.962,-0.044,1.402,0.488,0.549,152.232
133383,140555,13590,0.025,-0.959,-0.046,1.28,0.061,-0.305,152.238
133341,140410,43087,0.025,-0.96,-0.041,1.28,0.061,-0.305,152.242
133341,140537,13583,0.029,-0.959,-0.037,0.915,-0.366,-1.159,152.248
133319,140410,43087,0.033,-0.96,-0.037,0.915,-0.366,-1.159,152.252
133319,140530,13581,0.031,-0.957,-0.039,0.366,-0.549,-1.707,152.258
133326,140666,43087,0.035,-0.958,-0.041,0.366,-0.549,-1.707,152.262
133326,140544,13577,0.036,-0.96,-0.039,-0.366,-0.61,-1.646,152.268
133329,140666,43087,0.033,-0.959,-0.043,-0.366,-0.61,-1.646,152.271
133329,140549,13600,0.036,-0.958,-0.04,-1.098,-0.671,-1.402,152.278
133325,140410,43087,0.037,-0.959,-0.042,-1.098,-0.671,-1.402,152.281
133325,140530,13575,0.036,-0.963,-0.043,-1.951,-0.854,-1.22,152.288
133324,140410,43087,0.039,-0.964,-0.045,-1.951,-0.854,-1.22,152.291
133324,140529,13590,0.037,-0.965,-0.051,-2.5,-0.854,-0.854,152.297
133321,140410,43087,0.035,-0.965,-0.048,-2.5,-0.854,-0.854,152.301
133321,140542,13585,0.033,-0.966,-0.048,-2.744,-0.671,-0.366,152.307
133332,140410,43087,0.037,-0.967,-0.052,-2.744,-0.671,-0.366,152.311
133332,140530,13580,0.035,-0.968,-0.052,-2.561,-0.61,-0.061,152.317
133319,140666,43087,0.038,-0.965,-0.055,-2.561,-0.61,-0.061,152.321
133319,140554,13589,0.037,-0.968,-0.053,-2.012,-0.427,0.183,152.327
133321,140666,43087,0.037,-0.968,-0.053,-2.012,-0.427,0.183,152.331
133321,140544,13595,0.036,-0.964,-0.054,-1.22,-0.244,0.305,152.337
133352,140410,43087,0.036,-0.964,-0.054,-1.22,-0.244,0.305,152.341
133352,140536,13592,0.039,-0.963,-0.053,-0.244,0.061,0.549,152.347
133329,140666,43087,0.039,-0.963,-0.053,-0.244,0.061,0.549,152.351
133329,140563,13578,0.037,-0.959,-0.053,0.671,0.366,0.854,152.357
133328,140410,43087,0.037,-0.959,-0.053,0.671,0.366,0.854,152.361
133328,140535,13599,0.034,-0.963,-0.048,1.159,0.61,1.098,152.367
133342,140666,43087,0.034,-0.963,-0.048,1.159,0.61,1.098,152.37
133342,140567,13584,0.032,-0.963,-0.05,1.524,0.671,1.28,152.377
133333,140666,43087,0.032,-0.963,-0.05,1.524,0.671,1.28,152.38
133333,140548,13603,0.03,-0.964,-0.048,2.195,0.61,1.159,152.386
133342,140666,43087,0.03,-0.964,-0.048,2.195,0.61,1.159,152.39
133342,140579,13593,0.034,-0.959,-0.045,2.805,0.732,0.976,152.396
133330,140666,43087,0.034,-0.959,-0.045,2.805,0.732,0.976,152.4
133330,140562,13604,0.029,-0.963,-0.045,3.293,0.854,0.793,152.406
133334,140666,43087,0.029,-0.963,-0.045,3.293,0.854,0.793,152.41
133334,140563,13590,0.035,-0.961,-0.042,3.476,0.854,0.61,152.416
133361,140410,43087,0.035,-0.961,-0.042,3.476,0.854,0.61,152.42
133361,140541,13613,0.036,-0.954,-0.036,3.049,0.854,0.488,152.426
