128380,157306,11564,-0.083,1.01,0.257,-0.305,-0.244,0.366,52.768
128364,157276,417,-0.083,1.014,0.265,-0.305,-0.244,0.366,52.772
128364,157323,11573,-0.081,1.016,0.259,-0.244,-0.122,0.244,52.778
128367,157276,417,-0.08,1.017,0.257,-0.244,-0.122,0.244,52.782
128367,157319,11568,-0.079,1.017,0.258,-0.061,0.671,0,52.788
128351,157276,417,-0.083,1.01,0.261,-0.061,0.671,0,52.792
128351,157307,11573,-0.081,1.008,0.258,0.122,1.159,-0.244,52.798
128379,157276,417,-0.085,1.007,0.253,0.122,1.159,-0.244,52.802
128379,157299,11556,-0.083,1.005,0.252,-0.122,1.341,-0.244,52.808
128403,157276,417,-0.081,1.003,0.247,-0.122,1.341,-0.244,52.811
128403,157325,11580,-0.084,1.002,0.245,-0.305,1.159,-0.061,52.818
128417,157276,417,-0.078,1.003,0.246,-0.305,1.159,-0.061,52.821
128417,157352,11568,-0.081,1.004,0.244,0.183,1.037,0.183,52.828
128436,157276,417,-0.082,1.008,0.242,0.183,1.037,0.183,52.831
128436,157339,11574,-0.083,1.01,0.247,0.366,0.976,0.549,52.837
128405,157276,417,-0.082,1.006,0.245,0.366,0.976,0.549,52.841
128405,157342,11577,-0.085,1.01,0.241,-0.183,0.793,0.854,52.847
128409,157276,417,-0.088,1.016,0.238,-0.183,0.793,0.854,52.851
128409,157341,11565,-0.087,1.018,0.237,-1.646,0.61,0.976,52.857
128440,157276,417,-0.085,1.016,0.241,-1.646,0.61,0.976,52.861
128440,157337,11571,-0.086,1.015,0.25,-1.951,-0.183,0.915,52.867
128422,157276,417,-0.085,1.013,0.254,-1.951,-0.183,0.915,52.871
128422,157340,11589,-0.086,1.015,0.255,-2.073,-0.61,0.976,52.877
128424,157276,417,-0.085,1.013,0.259,-2.073,-0.61,0.976,52.881
128424,157346,11585,-0.082,1.01,0.256,-0.854,-0.061,0.61,52.887
128407,157276,417,-0.085,1.013,0.256,-0.854,-0.061,0.61,52.891
128407,157299,11578,-0.086,1.019,0.261,0.549,0.549,0,52.897
128389,157276,417,-0.088,1.025,0.256,0.549,0.549,0,52.901
128389,157324,11586,-0.085,1.023,0.258,0.915,0.915,-0.183,52.907
128403,157276,417,-0.083,1.018,0.255,0.915,0.915,-0.183,52.91
128403,157332,11573,-0.079,1.012,0.259,0.061,0.671,-0.427,52.917
128419,157276,417,-0.081,1.008,0.255,0.061,0.671,-0.427,52.92
128419,157330,11552,-0.081,1,0.253,-0.854,0.366,-0.366,52.927
128407,157276,417,-0.081,0.999,0.251,-0.854,0.366,-0.366,52.93
128407,157349,11580,-0.084,0.996,0.245,-0.549,0.61,-0.305,52.936
128433,157276,417,-0.084,0.996,0.245,-0.549,0.61,-0.305,52.94
128433,157346,11582,-0.085,1.005,0.246,-0.305,0.732,-0.305,52.946
128386,157276,417,-0.085,1.005,0.246,-0.305,0.732,-0.305,52.95
128386,157328,11585,-0.089,1.009,0.245,-0.427,0.427,0.122,52.956
128355,157276,417,-0.089,1.009,0.245,-0.427,0.427,0.122,52.96
128355,157304,11570,-0.09,1.017,0.244,-0.305,-0.061,0.183,52.966
128349,157276,417,-0.09,1.017,0.244,-0.305,-0.061,0.183,52.97
128349,157294,11566,-0.086,1.003,0.243,0.488,-0.488,0.244,52.976
128305,157276,417,-0.086,1.003,0.243,0.488,-0.488,0.244,52.98
128305,157273,11568,-0.09,1.001,0.254,0.183,-0.183,0.732,52.986
128293,157276,417,-0.09,1.001,0.254,0.183,-0.183,0.732,52.99
128293,157230,11558,-0.086,1.028,0.24,-0.854,-0.366,0.915,52.996
128194,157276,417,-0.086,1.028,0.24,-0.854,-0.366,0.915,53
128194,157189,11538,-0.077,1.025,0.263,0.244,-0.854,0.122,53.006
128143,157020,417,-0.077,1.025,0.263,0.244,-0.854,0.122,53.009
128143,157100,11543,-0.083,1.018,0.269,1.341,-0.427,0.183,53.016
128069,157020,417,-0.083,1.018,0.269,1.341,-0.427,0.183,53.019
128069,157049,11524,-0.086,1.003,0.266,1.28,0.915,0.122,53.025
128004,157020,417,-0.086,1.003,0.266,1.28,0.915,0.122,53.029
128004,157008,11525,-0.086,1.002,0.275,1.646,1.28,-0.244,53.035
127997,157020,417,-0.086,1.002,0.275,1.646,1.28,-0.244,53.039
127997,156985,11518,-0.083,1.012,0.267,2.195,1.585,-0.183,53.045
127975,157020,417,-0.083,1.012,0.267,2.195,1.585,-0.183,53.049
127975,156972,11520,-0.079,1.011,0.261,1.707,2.134,-0.183,53.055
127967,157020,417,-0.079,1.011,0.261,1.707,2.134,-0.183,53.059
127967,156981,11497,-0.085,1.007,0.241,0.488,2.195,-0.061,53.065
127981,157020,417,-0.085,1.007,0.241,0.488,2.195,-0.061,53.069
127981,156986,11517,-0.08,1.009,0.248,-0.183,1.768,0.244,53.075
127967,157020,417,-0.08,1.009,0.248,-0.183,1.768,0.244,53.079
127967,156989,11514,-0.084,1.019,0.237,-0.183,1.768,0.244,53.085
127972,157020,417,-0.08,1.019,0.237,-1.341,1.585,0.366,53.089
127972,157002,11526,-0.08,1.011,0.24,-1.341,1.585,0.366,53.095
128029,157020,417,-0.081,1.004,0.24,-1.646,1.463,0.244,53.098
128029,157033,11522,-0.081,1.001,0.234,-1.646,1.463,0.244,53.105
128034,157020,417,-0.081,1.007,0.234,-1.89,1.22,0.793,53.108
128034,157030,11532,-0.086,1.015,0.24,-1.89,1.22,0.793,53.115
128086,157020,417,-0.084,1.017,0.239,-1.829,0.732,0.671,53.118
128086,157076,11536,-0.08,1.012,0.242,-1.829,0.732,0.671,53.124
128129,157020,417,-0.082,1.014,0.24,-1.341,0.244,0.305,53.128
128129,157117,11550,-0.087,1.022,0.239,-1.341,0.244,0.305,53.134
128131,157020,417,-0.089,1.028,0.244,-1.341,0.305,0.244,53.138
128131,157125,11539,-0.09,1.029,0.256,-1.341,0.305,0.244,53.144
128128,157020,417,-0.087,1.02,0.263,-0.671,0.122,-0.122,53.148
128128,157120,11553,-0.087,1.014,0.258,-0.671,0.122,-0.122,53.154
128147,157020,417,-0.089,1.016,0.252,0.305,0.305,-0.305,53.158
128147,157129,11548,-0.089,1.016,0.248,0.305,0.305,-0.305,53.164
128168,157020,417,-0.09,1.016,0.253,0.915,0.732,-0.732,53.168
128168,157135,11549,-0.091,1.014,0.251,0.915,0.732,-0.732,53.174
128200,157020,417,-0.09,1.017,0.254,0.732,0.305,-0.915,53.178
128200,157167,11549,-0.09,1.011,0.253,0.732,0.305,-0.915,53.184
128199,157020,417,-0.09,1.003,0.249,0,0,-0.61,53.188
128199,157175,11556,-0.09,0.991,0.245,0,0,-0.61,53.194
128227,157276,417,-0.089,0.984,0.244,0.122,0.427,-0.183,53.197
128227,157198,11540,-0.087,0.985,0.25,0.122,0.427,-0.183,53.204
128264,157276,417,-0.091,0.996,0.245,0.305,0.427,-0.122,53.207
128264,157209,11543,-0.086,1.002,0.239,0.305,0.427,-0.122,53.214
128261,157276,417,-0.082,1.002,0.248,-0.061,0.061,0.183,53.217
128261,157269,11554,-0.084,1.013,0.25,-0.061,0.061,0.183,53.223
128308,157276,417,-0.083,1.015,0.252,-0.488,-0.305,0.549,53.227
128308,157248,11565,-0.078,1.02,0.257,-0.488,-0.305,0.549,53.233
128317,157276,417,-0.08,1.018,0.261,-1.28,-0.183,0.915,53.237
128317,157255,11557,-0.08,1.012,0.258,-1.28,-0.183,0.915,53.243
128291,157276,417,-0.085,1.014,0.26,-2.012,0.122,0.61,53.247
128291,157240,11556,-0.084,1.015,0.259,-2.012,0.122,0.61,53.253
128298,157276,417,-0.085,1.016,0.254,-1.768,0.427,0.549,53.257
128298,157265,11559,-0.086,1.018,0.25,-1.768,0.427,0.549,53.263
128346,157276,417,-0.087,1.017,0.252,-1.402,0.488,0.549,53.267
128346,157244,11558,-0.082,1.011,0.255,-1.402,0.488,0.549,53.273
128329,157276,417,-0.082,1.007,0.258,-0.915,0.549,0.305,53.277
128329,157291,11572,-0.086,1.004,0.254,-0.915,0.549,0.305,53.283
128327,157276,417,-0.092,0.999,0.246,-0.549,1.037,0.305,53.287
128327,157283,11575,-0.092,1.001,0.246,-0.549,1.037,0.305,53.293
128342,157276,417,-0.092,1.002,0.245,0.732,1.341,0,53.296
128342,157296,11574,-0.093,1.005,0.243,0.732,1.341,0,53.303
128386,157276,417,-0.089,1.008,0.245,1.402,0.732,-0.061,53.306
128386,157308,11552,-0.09,1.015,0.25,1.402,0.732,-0.061,53.313
128395,157276,417,-0.088,1.017,0.249,1.524,0.122,0.183,53.316
128395,157305,11572,-0.084,1.013,0.251,1.524,0.122,0.183,53.322
128409,157276,417,-0.086,1.008,0.248,0.671,0.244,0.366,53.326
128409,157317,11574,-0.086,1.014,0.251,0.671,0.244,0.366,53.332
128438,157276,417,-0.084,1.015,0.254,-0.854,0.183,0.549,53.336
128438,157373,11574,-0.083,1.009,0.259,-0.854,0.183,0.549,53.342
128478,157276,417,-0.082,1.007,0.258,-1.951,-0.061,0.488,53.346
128478,157392,11586,-0.079,1.008,0.257,-1.951,-0.061,0.488,53.352
128473,157276,417,-0.08,1.009,0.256,-2.134,0.305,0.671,53.356
128473,157418,11593,-0.082,1.006,0.256,-2.134,0.305,0.671,53.362
128503,157276,417,-0.087,1.007,0.251,-1.89,0.915,0.671,53.366
128503,157388,11598,-0.086,1.005,0.249,-1.89,0.915,0.671,53.372
128515,157276,417,-0.085,1.006,0.251,-0.915,0.915,0.488,53.376
128515,157430,11594,-0.084,1.009,0.242,-0.915,0.915,0.488,53.382
128532,157276,417,-0.082,1.011,0.24,0.244,0.793,0.427,53.386
128532,157436,11589,-0.078,1.013,0.248,0.244,0.793,0.427,53.392
128526,157532,417,-0.079,1.014,0.256,1.159,0.549,0.488,53.395
128526,157464,11588,-0.084,1.013,0.256,1.159,0.549,0.488,53.402
128565,157532,417,-0.086,1.013,0.256,0.427,0.793,0.671,53.405
128565,157480,11610,-0.089,1.01,0.252,0.427,0.793,0.671,53.412
128588,157532,417,-0.085,1.008,0.247,0.061,0.671,0.488,53.415
128588,157469,11606,-0.085,1.009,0.24,0.061,0.671,0.488,53.421
128600,157532,417,-0.085,1.012,0.244,0.549,0.122,0.183,53.425
128600,157490,11606,-0.086,1.012,0.254,0.549,0.122,0.183,53.431
128588,157532,417,-0.085,1.019,0.257,1.159,0.305,0.244,53.435
128588,157478,11587,-0.091,1.022,0.253,1.159,0.305,0.244,53.441
128579,157532,417,-0.091,1.023,0.25,0,0.854,0.122,53.445
128579,157474,11604,-0.091,1.014,0.25,0,0.854,0.122,53.451
128561,157276,417,-0.093,1.009,0.247,-1.768,0.671,0,53.455
128561,157431,11597,-0.092,1.006,0.249,-1.768,0.671,0,53.461
128534,157276,417,-0.087,1.003,0.254,-3.354,-0.244,0.366,53.465
128534,157424,11599,-0.085,1,0.247,-3.354,-0.244,0.366,53.471
128543,157276,417,-0.085,0.996,0.241,-3.354,-0.488,0.549,53.475
128543,157432,11591,-0.084,0.996,0.245,-3.354,-0.488,0.549,53.481
128558,157532,417,-0.081,1,0.25,-2.195,-0.183,0.61,53.485
128558,157444,11593,-0.081,1.004,0.252,-2.195,-0.183,0.61,53.491
128565,157532,417,-0.084,1.01,0.253,-0.854,0,0.793,53.494
128565,157440,11596,-0.083,1.008,0.256,-0.854,0,0.793,53.501
128578,157532,417,-0.084,1.011,0.259,0.183,0,0.732,53.504
128578,157470,11594,-0.085,1.014,0.255,0.183,0,0.732,53.51
128626,157532,417,-0.085,1.017,0.257,0.793,0,0.671,53.514
128626,157491,11609,-0.08,1.02,0.259,0.793,0,0.671,53.52
128613,157532,417,-0.08,1.02,0.259,0.793,0,0.671,53.524
128613,157506,11591,-0.086,1.021,0.257,0.854,0,0.671,53.53
128629,157532,417,-0.086,1.021,0.257,0.854,0,0.671,53.534
128629,157518,11605,-0.088,1.026,0.253,0.488,0.366,0.549,53.54
128655,157532,417,-0.088,1.026,0.253,0.488,0.366,0.549,53.544
128655,157521,11596,-0.091,1.011,0.255,-0.305,0.732,0.244,53.55
128628,157532,417,-0.091,1.011,0.255,-0.305,0.732,0.244,53.554
128628,157531,11614,-0.085,0.998,0.256,-0.549,0.488,0.061,53.56
128661,157532,417,-0.085,0.998,0.256,-0.549,0.488,0.061,53.564
128661,157533,11609,-0.086,1.004,0.254,-0.061,0.366,0,53.57
128676,157532,417,-0.086,1.004,0.254,-0.061,0.366,0,53.574
128676,157554,11623,-0.084,1.013,0.247,0.732,0.732,0.061,53.58
128690,157532,417,-0.084,1.013,0.247,0.732,0.732,0.061,53.584
128690,157549,11607,-0.086,1.009,0.249,1.159,0.793,0,53.59
128684,157532,417,-0.086,1.009,0.249,1.159,0.793,0,53.593
128684,157547,11597,-0.084,0.997,0.257,0.549,0.427,0,53.6
128692,157532,417,-0.084,0.997,0.257,0.549,0.427,0,53.603
128692,157575,11615,-0.085,1.005,0.257,-0.366,0.061,0.366,53.609
128691,157532,417,-0.085,1.005,0.257,-0.366,0.061,0.366,53.613
128691,157534,11613,-0.08,1.009,0.261,-0.732,-0.061,0.61,53.619
128694,157532,417,-0.08,1.009,0.261,-0.732,-0.061,0.61,53.623
128694,157547,11602,-0.077,1.016,0.251,-0.122,-0.183,0.549,53.629
128702,157532,417,-0.077,1.016,0.251,-0.122,-0.183,0.549,53.633
128702,157541,11632,-0.085,1.025,0.255,0.061,0.366,0.549,53.639
128720,157532,417,-0.085,1.025,0.255,0.061,0.366,0.549,53.643
128720,157600,11610,-0.078,1.016,0.255,-0.732,0.427,0.488,53.649
128759,157532,417,-0.078,1.016,0.255,-0.732,0.427,0.488,53.653
128759,157582,11630,-0.079,1.011,0.252,-1.159,0.305,0.244,53.659
128774,157532,417,-0.082,1.004,0.248,-1.159,0.305,0.244,53.663
128774,157648,11630,-0.084,1.007,0.244,-0.61,0.732,0.183,53.669
128817,157532,417,-0.087,1.008,0.251,-0.61,0.732,0.183,53.673
128817,157624,11624,-0.086,1.007,0.25,0.793,1.037,0.122,53.679
128817,157532,417,-0.087,1.008,0.25,0.793,1.037,0.122,53.682
128817,157650,11628,-0.089,1.01,0.25,1.341,1.098,-0.122,53.689
128822,157532,417,-0.09,1.013,0.246,1.341,1.098,-0.122,53.692
128822,157657,11630,-0.092,1.016,0.247,1.524,1.159,0.183,53.699
128875,157532,417,-0.092,1.015,0.248,1.524,1.159,0.183,53.702
128875,157662,11640,-0.091,1.014,0.25,1.524,0.915,0.305,53.708
128850,157532,417,-0.085,1.014,0.257,1.524,0.915,0.305,53.712
128850,157694,11646,-0.088,1.013,0.263,1.098,0.61,0.122,53.718
128855,157532,417,-0.089,1.01,0.263,1.098,0.61,0.122,53.722
128855,157672,11636,-0.087,1.006,0.259,0.732,0.793,0.244,53.728
128858,157788,417,-0.089,1.006,0.262,0.732,0.793,0.244,53.732
128858,157707,11633,-0.085,1.002,0.255,0.488,0.976,0.061,53.738
128879,157532,417,-0.085,0.999,0.252,0.488,0.976,0.061,53.742
128879,157692,11629,-0.084,0.999,0.25,0.854,0.854,0.183,53.748
128889,157532,417,-0.085,0.999,0.249,0.854,0.854,0.183,53.752
128889,157686,11627,-0.083,1,0.25,1.768,0.915,0.244,53.758
128872,157788,417,-0.083,1.01,0.245,1.768,0.915,0.244,53.762
128872,157713,11646,-0.081,1.018,0.243,1.402,0.976,0.061,53.768
128889,157788,417,-0.084,1.027,0.248,1.402,0.976,0.061,53.772
128889,157697,11641,-0.084,1.031,0.252,-0.366,0.732,0.061,53.778
128878,157788,417,-0.085,1.035,0.254,-0.366,0.732,0.061,53.781
128878,157721,11647,-0.085,1.03,0.251,-1.951,0.305,0.183,53.788
128917,157788,417,-0.083,1.017,0.247,-1.951,0.305,0.183,53.791
128917,157699,11652,-0.082,1.002,0.247,-2.5,0.244,-0.061,53.798
128897,157788,417,-0.086,0.992,0.241,-2.5,0.244,-0.061,53.801
128897,157704,11641,-0.089,0.989,0.239,-1.098,0.61,0.061,53.807
128866,157532,417,-0.089,0.991,0.241,-1.098,0.61,0.061,53.811
128866,157666,11652,-0.089,0.999,0.239,1.098,1.159,0.183,53.817
128870,157532,417,-0.088,1.002,0.243,1.098,1.159,0.183,53.821
128870,157675,11631,-0.09,1.007,0.247,3.171,0.976,0.061,53.827
128870,157532,417,-0.089,1.013,0.249,3.171,0.976,0.061,53.831
128870,157636,11650,-0.09,1.014,0.253,4.512,0.305,0.183,53.837
128809,157532,417,-0.091,1.013,0.254,4.512,0.305,0.183,53.841
128809,157649,11644,-0.091,1.013,0.26,5.427,0.427,0.305,53.847
128791,157532,417,-0.09,1.012,0.266,5.427,0.427,0.305,53.851
128791,157599,11635,-0.09,1.015,0.264,5.366,0.976,0.122,53.857
128783,157532,417,-0.085,1.019,0.256,5.366,0.976,0.122,53.861
128783,157582,11624,-0.083,1.018,0.259,3.476,1.463,0.244,53.867
128740,157532,417,-0.081,1.015,0.259,3.476,1.463,0.244,53.871
128740,157557,11631,-0.083,1.014,0.253,1.463,1.524,0.366,53.877
128727,157532,417,-0.081,1.01,0.249,1.463,1.524,0.366,53.88
128727,157542,11627,-0.082,1.004,0.243,-0.854,1.341,0.61,53.887
128711,157532,417,-0.078,1.002,0.239,-0.854,1.341,0.61,53.89
128711,157528,11618,-0.076,1.005,0.241,-2.195,0.976,0.671,53.897
128661,157532,417,-0.079,1.004,0.237,-2.195,0.976,0.671,53.9
128661,157501,11622,-0.078,1.004,0.235,-2.439,0.61,0.976,53.906
128666,157532,417,-0.076,1.008,0.238,-2.439,0.61,0.976,53.91
128666,157517,11617,-0.082,1.013,0.239,-1.951,0.732,1.037,53.916
128649,157532,417,-0.084,1.017,0.236,-1.951,0.732,1.037,53.92
128649,157500,11630,-0.082,1.018,0.24,-0.793,0.61,0.732,53.926
128658,157532,417,-0.084,1.02,0.239,-0.793,0.61,0.732,53.93
128658,157500,11612,-0.087,1.021,0.241,0.183,0.61,0.488,53.936
128662,157532,417,-0.09,1.02,0.242,0.183,0.61,0.488,53.94
128662,157463,11613,-0.094,1.023,0.247,0.183,0.488,0.671,53.946
128648,157532,417,-0.094,1.021,0.248,0.183,0.488,0.671,53.95
128648,157473,11608,-0.093,1.018,0.251,-0.061,0.366,0.488,53.956
128638,157532,417,-0.092,1.01,0.252,-0.061,0.366,0.488,53.96
128638,157481,11597,-0.093,1.01,0.249,0.671,0.183,0.244,53.966
128656,157532,417,-0.096,1.01,0.243,0.671,0.183,0.244,53.97
128656,157507,11607,-0.094,1.009,0.243,1.341,0.427,0.244,53.976
128659,157532,417,-0.089,1.007,0.249,1.341,0.427,0.244,53.979
128659,157487,11606,-0.092,1.009,0.249,1.829,0.732,0.061,53.986
128651,157532,417,-0.092,1.014,0.245,1.829,0.732,0.061,53.989
128651,157482,11600,-0.091,1.014,0.248,0.854,0.671,0.305,53.996
128673,157532,417,-0.088,1.012,0.244,0.854,0.671,0.305,53.999
128673,157468,11606,-0.087,1.007,0.238,-0.793,0.366,0.488,54.005
128675,157532,417,-0.087,1.003,0.241,-0.793,0.366,0.488,54.009
128675,157480,11608,-0.089,1.011,0.236,-2.317,-0.061,0.671,54.015
128686,157532,417,-0.087,1.02,0.238,-2.317,-0.061,0.671,54.019
128686,157489,11621,-0.084,1.022,0.241,-3.354,-0.488,0.732,54.025
128703,157532,417,-0.083,1.022,0.248,-3.354,-0.488,0.732,54.029
128703,157522,11603,-0.081,1.019,0.25,-3.415,-0.793,0.427,54.035
128713,157532,417,-0.081,1.019,0.252,-3.415,-0.793,0.427,54.039
128713,157516,11625,-0.086,1.012,0.249,-3.293,-0.61,0.488,54.045
128712,157532,417,-0.088,1.005,0.253,-3.293,-0.61,0.488,54.049
128712,157522,11619,-0.085,1,0.254,-1.89,-0.244,0.183,54.055
128707,157532,417,-0.084,1.001,0.258,-1.89,-0.244,0.183,54.059
128707,157520,11604,-0.086,1.006,0.259,0.305,-0.061,-0.244,54.065
128696,157532,417,-0.086,1.008,0.259,0.305,-0.061,-0.244,54.069
128696,157543,11618,-0.083,1.01,0.254,1.585,0.427,-0.244,54.075
128712,157532,417,-0.084,1.014,0.253,1.585,0.427,-0.244,54.078
128712,157540,11622,-0.082,1.012,0.252,1.707,0.671,-0.183,54.085
128735,157532,417,-0.085,1.014,0.255,1.707,0.671,-0.183,54.088
128735,157545,11627,-0.086,1.009,0.257,1.22,0.61,-0.183,54.094
128727,157532,417,-0.086,1.009,0.257,1.22,0.61,-0.183,54.098
128727,157557,11619,-0.088,1.005,0.249,0.244,0.61,0.183,54.104
128747,157532,417,-0.088,1.005,0.249,0.244,0.61,0.183,54.108
128747,157565,11621,-0.084,1.003,0.253,-0.122,0.732,0.427,54.114
128752,157532,417,-0.084,1.003,0.253,-0.122,0.732,0.427,54.118
128752,157563,11611,-0.087,1.014,0.251,-0.976,0.976,0.732,54.124
128738,157532,417,-0.087,1.014,0.251,-0.976,0.976,0.732,54.128
128738,157551,11616,-0.089,1.018,0.248,-2.683,0.976,0.854,54.134
128755,157532,417,-0.089,1.018,0.248,-2.683,0.976,0.854,54.138
128755,157576,11617,-0.085,1.008,0.249,-3.415,0.488,0.854,54.144
128797,157532,417,-0.085,1.008,0.249,-3.415,0.488,0.854,54.148
128797,157593,11635,-0.083,1.005,0.244,-3.171,0.427,0.732,54.154
128800,157532,417,-0.083,1.005,0.244,-3.171,0.427,0.732,54.158
128800,157605,11628,-0.087,1.009,0.25,-2.561,0.671,0.61,54.164
128810,157532,417,-0.087,1.009,0.25,-2.561,0.671,0.61,54.167
128810,157635,11641,-0.088,1.008,0.248,-0.732,0.793,0.488,54.174
128844,157532,417,-0.088,1.008,0.248,-0.732,0.793,0.488,54.177
128844,157643,11641,-0.088,1.018,0.24,0.854,0.793,0.183,54.184
128866,157532,417,-0.088,1.018,0.24,0.854,0.793,0.183,54.187
128866,157669,11647,-0.084,1.011,0.247,1.585,0.366,0.061,54.193
128870,157532,417,-0.084,1.011,0.247,1.585,0.366,0.061,54.197
128870,157659,11644,-0.083,1.018,0.253,1.22,0.488,0.549,54.203
128915,157788,417,-0.083,1.018,0.253,1.22,0.488,0.549,54.207
128915,157718,11640,-0.084,1.018,0.249,-0.488,0.793,0.488,54.213
128941,157788,417,-0.084,1.018,0.249,-0.488,0.793,0.488,54.217
128941,157705,11652,-0.084,1.009,0.243,-1.707,0.427,0.366,54.223
128972,157788,417,-0.084,1.009,0.243,-1.707,0.427,0.366,54.227
128972,157719,11657,-0.086,1.01,0.245,-1.707,0.427,0.366,54.233
128972,157788,417,-0.082,1.006,0.248,-2.256,0,0.488,54.237
128972,157736,11657,-0.084,1.002,0.248,-2.256,0,0.488,54.243
128979,157788,417,-0.089,1,0.245,-2.012,0.061,0.671,54.247
128979,157769,11647,-0.086,0.999,0.249,-2.012,0.061,0.671,54.253
128996,157788,417,-0.089,1.002,0.251,-0.61,0.427,0.61,54.257
128996,157764,11651,-0.09,1.007,0.253,-0.61,0.427,0.61,54.263
129019,157788,417,-0.09,1.013,0.252,1.28,0.671,0.305,54.266
129019,157770,11649,-0.088,1.015,0.254,1.28,0.671,0.305,54.273
129038,157788,417,-0.09,1.014,0.253,2.012,0.61,0.183,54.276
129038,157809,11666,-0.09,1.01,0.253,2.012,0.61,0.183,54.283
129074,157788,417,-0.089,1.013,0.253,1.28,0.427,0.427,54.286
129074,157817,11678,-0.088,1.011,0.251,1.28,0.427,0.427,54.292
129069,157788,417,-0.088,1.011,0.249,0,0.488,0.488,54.296
129069,157813,11677,-0.084,1.012,0.254,0,0.488,0.488,54.302
129091,157788,417,-0.084,1.012,0.253,-0.305,0.366,0.549,54.306
129091,157823,11675,-0.086,1.01,0.246,-0.305,0.366,0.549,54.312
129075,157788,417,-0.081,1.011,0.248,-0.427,0.427,0.793,54.316
129075,157823,11672,-0.084,1.014,0.248,-0.427,0.427,0.793,54.322
129087,157788,417,-0.081,1.017,0.249,-0.793,0.61,0.854,54.326
129087,157847,11664,-0.078,1.019,0.248,-0.793,0.61,0.854,54.332
129095,157788,417,-0.081,1.015,0.25,-0.976,0.549,0.915,54.336
129095,157836,11667,-0.084,1.01,0.25,-0.976,0.549,0.915,54.342
129081,157788,417,-0.084,1.01,0.248,-0.427,0.61,0.915,54.346
129081,157832,11692,-0.087,1.011,0.251,-0.427,0.61,0.915,54.352
129123,157788,417,-0.088,1.011,0.251,-0.183,0.671,0.671,54.356
129123,157853,11664,-0.089,1.015,0.252,-0.183,0.671,0.671,54.362
129124,157788,417,-0.087,1.012,0.247,0.244,0.61,0.549,54.365
129124,157867,11677,-0.083,1.016,0.249,0.244,0.61,0.549,54.372
129133,157788,417,-0.087,1.018,0.251,0.793,0.671,0.244,54.375
129133,157873,11648,-0.085,1.022,0.252,0.793,0.671,0.244,54.382
129136,157788,417,-0.085,1.023,0.25,0.366,0.488,-0.122,54.385
129136,157869,11675,-0.085,1.018,0.252,0.366,0.488,-0.122,54.391
129143,157788,417,-0.087,1.015,0.249,-0.061,0.305,-0.488,54.395
129143,157890,11681,-0.086,1.008,0.249,-0.061,0.305,-0.488,54.401
129137,157788,417,-0.088,1.002,0.252,-0.183,0.549,-0.305,54.405
129137,157900,11689,-0.088,1.005,0.25,-0.183,0.549,-0.305,54.411
129156,157788,417,-0.089,1.007,0.252,-0.061,0.915,-0.061,54.415
129156,157885,11667,-0.091,1.007,0.258,-0.061,0.915,-0.061,54.421
129163,157788,417,-0.092,1.009,0.253,0.122,1.037,-0.122,54.425
129163,157899,11659,-0.089,1.011,0.244,0.122,1.037,-0.122,54.431
129180,157788,417,-0.088,1.01,0.247,-0.427,0.732,0,54.435
129180,157916,11681,-0.086,1.006,0.257,-0.427,0.732,0,54.441
129170,157788,417,-0.085,1.003,0.252,-0.854,0.427,0.366,54.445
129170,157914,11677,-0.084,1.002,0.248,-0.854,0.427,0.366,54.451
129180,157788,417,-0.083,1.005,0.249,-0.854,0.549,0.793,54.455
129180,157949,11688,-0.081,1.007,0.25,-0.854,0.549,0.793,54.461
129191,157788,417,-0.075,1.01,0.241,-0.244,0.61,0.732,54.464
129191,157912,11685,-0.075,1.015,0.238,-0.244,0.61,0.732,54.471
129189,157788,417,-0.078,1.022,0.239,0.366,0.671,0.61,54.474
129189,157906,11687,-0.08,1.028,0.243,0.366,0.671,0.61,54.481
129178,157788,417,-0.08,1.027,0.243,-0.183,0.488,0.427,54.484
129178,157943,11678,-0.082,1.02,0.246,-0.183,0.488,0.427,54.49
129210,157788,417,-0.083,1.014,0.245,-0.854,0.183,0.366,54.494
129210,157905,11675,-0.086,1.013,0.244,-0.854,0.183,0.366,54.5
129171,157788,417,-0.087,1.009,0.246,-1.646,0.122,0.427,54.504
129171,157907,11686,-0.09,1.009,0.248,-1.646,0.122,0.427,54.51
129170,157788,417,-0.09,1.017,0.247,-1.22,0.061,0.244,54.514
129170,157898,11673,-0.09,1.014,0.244,-1.22,0.061,0.244,54.52
129180,157788,417,-0.091,1.014,0.247,-0.061,0.366,-0.122,54.524
129180,157885,11695,-0.093,1.016,0.248,-0.061,0.366,-0.122,54.53
129158,157788,417,-0.096,1.014,0.247,0.61,0.61,-0.244,54.534
129158,157897,11683,-0.099,1.013,0.246,0.61,0.61,-0.244,54.54
129171,157788,417,-0.097,1.007,0.244,0.854,0.305,-0.183,54.544
129171,157910,11673,-0.091,1.005,0.246,0.854,0.305,-0.183,54.55
129192,157788,417,-0.09,1.007,0.243,1.951,0.061,-0.183,54.554
129192,157941,11685,-0.088,1.011,0.25,1.951,0.061,-0.183,54.56
129233,157788,417,-0.079,1.012,0.254,3.598,0,-0.244,54.563
129233,157935,11707,-0.076,1.016,0.259,3.598,0,-0.244,54.57
129233,158044,417,-0.076,1.02,0.258,3.902,0.427,-0.305,54.573
129233,157968,11693,-0.077,1.021,0.256,3.902,0.427,-0.305,54.579
129243,158044,417,-0.08,1.021,0.254,2.073,0.915,-0.549,54.583
129243,157965,11703,-0.08,1.018,0.256,2.073,0.915,-0.549,54.589
129267,158044,417,-0.08,1.015,0.255,-0.366,0.61,-0.793,54.593
129267,157962,11683,-0.084,1.009,0.25,-0.366,0.61,-0.793,54.599
129282,158044,417,-0.081,0.997,0.245,-2.439,-0.183,-0.61,54.603
129282,157960,11701,-0.081,0.992,0.236,-2.439,-0.183,-0.61,54.609
129250,158044,417,-0.084,0.993,0.231,-3.415,-0.427,0.061,54.613
129250,157956,11700,-0.085,1,0.23,-3.415,-0.427,0.061,54.619
129245,157788,417,-0.085,1.012,0.229,-3.232,-0.427,0.183,54.623
129245,157948,11681,-0.087,1.014,0.236,-3.232,-0.427,0.183,54.629
129230,158044,417,-0.091,1.014,0.241,-2.073,-0.915,0.122,54.633
129230,157957,11685,-0.09,1.009,0.235,-2.073,-0.915,0.122,54.639
129227,157788,417,-0.092,1.008,0.235,-1.402,-1.22,0.366,54.643
129227,157938,11685,-0.099,1.004,0.246,-1.402,-1.22,0.366,54.649
129216,157788,417,-0.098,1.007,0.253,-0.427,-1.28,0.793,54.652
129216,157923,11682,-0.095,1.007,0.252,-0.427,-1.28,0.793,54.659
129202,157788,417,-0.096,1.008,0.256,1.463,-0.976,0.549,54.662
129202,157902,11686,-0.094,1.014,0.259,1.463,-0.976,0.549,54.669
129195,157788,417,-0.094,1.014,0.259,1.463,-0.976,0.549,54.672
129195,157904,11688,-0.096,1.025,0.266,3.232,-0.244,0.183,54.678
129201,157788,417,-0.096,1.025,0.266,3.232,-0.244,0.183,54.682
129201,157906,11688,-0.093,1.029,0.264,3.659,0.122,0,54.688
129193,157788,417,-0.093,1.029,0.264,3.659,0.122,0,54.692
129193,157897,11698,-0.087,1.012,0.255,2.561,0.427,-0.427,54.698
129178,157788,417,-0.087,1.012,0.255,2.561,0.427,-0.427,54.702
129178,157896,11675,-0.085,1.002,0.258,1.098,0.549,-0.305,54.708
129172,157788,417,-0.085,1.002,0.258,1.098,0.549,-0.305,54.712
129172,157877,11694,-0.077,0.992,0.244,0.488,0.488,-0.061,54.718
129177,157788,417,-0.077,0.992,0.244,0.488,0.488,-0.061,54.722
129177,157905,11682,-0.079,1.005,0.242,0.488,0.61,-0.122,54.728
129180,157788,417,-0.079,1.005,0.242,0.488,0.61,-0.122,54.732
129180,157860,11674,-0.077,1.01,0.241,0.183,0.793,0.244,54.738
129149,157788,417,-0.077,1.01,0.241,0.183,0.793,0.244,54.742
129149,157858,11697,-0.085,1.014,0.239,-0.671,0.305,0.549,54.748
129189,157788,417,-0.085,1.014,0.239,-0.671,0.305,0.549,54.751
129189,157855,11674,-0.085,1.01,0.246,-1.646,-0.122,0.732,54.758
129151,157788,417,-0.085,1.01,0.246,-1.646,-0.122,0.732,54.761
129151,157870,11675,-0.092,1.007,0.244,-1.951,-0.183,0.915,54.768
129139,157788,417,-0.092,1.007,0.244,-1.951,-0.183,0.915,54.771
129139,157881,11682,-0.09,1.015,0.25,-1.707,-0.183,0.915,54.777
129159,157788,417,-0.09,1.015,0.25,-1.707,-0.183,0.915,54.781
129159,157865,11692,-0.091,1.022,0.257,-0.366,-0.366,0.671,54.787
129161,157788,417,-0.091,1.022,0.257,-0.366,-0.366,0.671,54.791
129161,157870,11686,-0.091,1.02,0.254,0.732,0,0.305,54.797
129169,157788,417,-0.091,1.02,0.254,0.732,0,0.305,54.801
129169,157863,11690,-0.089,1.017,0.249,0.244,0.549,0.244,54.807
129175,157788,417,-0.089,1.012,0.243,0.244,0.549,0.244,54.811
129175,157875,11688,-0.087,1.003,0.244,-1.159,0.61,0.366,54.817
129177,157788,417,-0.085,0.996,0.242,-1.159,0.61,0.366,54.821
129177,157893,11693,-0.08,0.992,0.234,-1.768,0.366,0.793,54.827
129177,157788,417,-0.079,0.987,0.234,-1.768,0.366,0.793,54.831
129177,157886,11703,-0.077,0.984,0.233,-1.159,-0.061,1.524,54.837
129194,157788,417,-0.077,0.983,0.241,-1.159,-0.061,1.524,54.841
129194,157891,11692,-0.08,0.99,0.257,0.732,-0.305,2.195,54.847
129215,157788,417,-0.083,0.992,0.267,0.732,-0.305,2.195,54.85
129215,157917,11682,-0.087,0.996,0.271,2.927,-0.061,2.134,54.857
129224,157788,417,-0.09,1.007,0.268,2.927,-0.061,2.134,54.86
129224,157906,11682,-0.093,1.017,0.266,3.841,0.671,1.829,54.867
129245,157788,417,-0.094,1.03,0.264,3.841,0.671,1.829,54.87
129245,157946,11691,-0.094,1.038,0.256,2.5,1.159,1.768,54.876
129226,157788,417,-0.091,1.039,0.252,2.5,1.159,1.768,54.88
129226,157945,11687,-0.09,1.045,0.245,-0.244,1.098,1.646,54.886
129266,157788,417,-0.094,1.037,0.245,-0.244,1.098,1.646,54.89
129266,157947,11679,-0.093,1.028,0.242,-2.744,0.732,1.524,54.896
129250,157788,417,-0.088,1.022,0.235,-2.744,0.732,1.524,54.9
129250,157949,11691,-0.085,1.013,0.227,-3.476,0.366,1.22,54.906
129272,157788,417,-0.08,1.005,0.231,-3.476,0.366,1.22,54.91
129272,157940,11701,-0.079,1.001,0.236,-2.256,0.122,0.915,54.916
129259,158044,417,-0.077,1.009,0.233,-2.256,0.122,0.915,54.92
129259,157961,11699,-0.077,1.014,0.235,0.305,0.366,0.793,54.926
129258,158044,417,-0.079,1.02,0.244,0.305,0.366,0.793,54.93
129258,157960,11699,-0.078,1.024,0.25,2.256,0.732,0.061,54.936
129259,158044,417,-0.081,1.028,0.251,2.256,0.732,0.061,54.94
129259,157956,11687,-0.088,1.029,0.25,2.073,0.732,-0.244,54.946
129272,157788,417,-0.091,1.022,0.25,2.073,0.732,-0.244,54.949
129272,157939,11689,-0.093,1.016,0.251,0.61,0.732,-0.732,54.956
129257,158044,417,-0.094,1.013,0.257,0.61,0.732,-0.732,54.959
129257,157954,11707,-0.091,1.005,0.254,-0.61,0.305,-0.854,54.966
129282,158044,417,-0.086,0.999,0.249,-0.61,0.305,-0.854,54.969
129282,157998,11707,-0.087,0.997,0.245,-0.793,0,-0.61,54.975
129321,158044,417,-0.086,0.996,0.242,-0.793,0,-0.61,54.979
129321,157980,11704,-0.084,0.999,0.244,0,0.549,-0.305,54.985
129323,158044,417,-0.088,1.006,0.25,0,0.549,-0.305,54.989
129323,158009,11709,-0.088,1.008,0.251,0.61,0.915,0.061,54.995
129327,158044,417,-0.086,1.007,0.253,0.61,0.915,0.061,54.999
129327,158026,11720,-0.083,1.005,0.249,0.366,0.732,0.549,55.005
129352,158044,417,-0.082,1.008,0.241,0.366,0.732,0.549,55.009
129352,158001,11708,-0.083,1.015,0.243,-0.793,0.671,0.732,55.015
129371,158044,417,-0.083,1.019,0.243,-0.793,0.671,0.732,55.019
129371,158007,11704,-0.081,1.026,0.244,-2.5,0.427,0.854,55.025
129306,158044,417,-0.082,1.034,0.245,-2.5,0.427,0.854,55.029
129306,158014,11712,-0.083,1.03,0.245,-4.146,-0.122,0.793,55.035
129329,158044,417,-0.082,1.024,0.238,-4.146,-0.122,0.793,55.039
129329,157978,11709,-0.081,1.015,0.238,-4.878,-0.488,0.366,55.045
129337,158044,417,-0.081,1.009,0.244,-4.878,-0.488,0.366,55.048
129337,157989,11716,-0.082,1.003,0.245,-3.415,-0.61,0.061,55.055
129303,158044,417,-0.083,1.007,0.245,-3.415,-0.61,0.061,55.058
129303,157980,11690,-0.082,1.014,0.245,-1.829,-0.183,-0.183,55.064
129299,158044,417,-0.086,1.016,0.25,-1.829,-0.183,-0.183,55.068
129299,157987,11700,-0.085,1.015,0.249,-0.305,0.244,-0.671,55.074
129327,158044,417,-0.089,1.015,0.248,-0.305,0.244,-0.671,55.078
129327,157983,11716,-0.09,1.009,0.248,1.159,0.488,-0.671,55.084
129343,158044,417,-0.088,1.005,0.244,1.159,0.488,-0.671,55.088
129343,158024,11696,-0.089,1.005,0.253,1.341,0.488,-0.549,55.094
129368,158044,417,-0.093,1.005,0.254,1.341,0.488,-0.549,55.098
129368,158014,11713,-0.091,1.006,0.254,1.037,0.488,-0.549,55.104
129401,158044,417,-0.09,1.005,0.254,1.037,0.488,-0.549,55.108
129401,158067,11717,-0.096,1.002,0.252,0.854,0.61,-0.183,55.114
129415,158044,417,-0.094,1.006,0.25,0.854,0.61,-0.183,55.118
129415,158072,11703,-0.088,1.008,0.256,0.183,0.488,0.305,55.124
129408,158044,417,-0.087,1.007,0.253,0.183,0.488,0.305,55.128
129408,158047,11728,-0.086,1.007,0.251,-0.915,0.305,0.427,55.134
129383,158044,417,-0.087,1.007,0.25,-0.915,0.305,0.427,55.137
129383,158052,11715,-0.083,1.01,0.251,-1.951,0.183,0.549,55.144
129413,158044,417,-0.082,1.01,0.249,-1.951,0.183,0.549,55.147
129413,158062,11712,-0.082,1.009,0.243,-2.195,-0.244,0.488,55.154
129433,158044,417,-0.078,1.007,0.246,-2.195,-0.244,0.488,55.157
129433,158063,11719,-0.078,1.012,0.25,-1.707,-0.61,0.244,55.163
129424,158044,417,-0.077,1.022,0.251,-1.707,-0.61,0.244,55.167
129424,158058,11726,-0.079,1.026,0.255,-1.098,-0.427,0.244,55.173
129423,158044,417,-0.081,1.024,0.251,-1.098,-0.427,0.244,55.177
129423,158078,11726,-0.081,1.022,0.254,-0.366,0,0.061,55.183
129404,158044,417,-0.084,1.018,0.254,-0.366,0,0.061,55.187
129404,158075,11726,-0.084,1.011,0.253,0.305,0.366,-0.122,55.193
129403,158044,417,-0.084,1.005,0.256,0.305,0.366,-0.122,55.197
129403,158036,11717,-0.091,1.007,0.249,0.427,0.732,0,55.203
129368,158044,417,-0.094,1.008,0.246,0.427,0.732,0,55.207
129368,158060,11726,-0.092,1.01,0.248,0.61,1.22,0.122,55.213
129399,158044,417,-0.094,1.011,0.249,0.61,1.22,0.122,55.217
129399,158018,11708,-0.095,1.009,0.25,1.037,1.159,0.244,55.223
129380,158044,417,-0.094,1.01,0.251,1.037,1.159,0.244,55.227
129380,158034,11717,-0.09,1.01,0.25,0.244,0.915,0.244,55.233
129397,158044,417,-0.09,1.011,0.251,0.244,0.915,0.244,55.236
129397,158020,11724,-0.09,1.004,0.253,-0.488,0.549,0.305,55.243
129371,158044,417,-0.09,1.004,0.253,-0.488,0.549,0.305,55.246
129371,158009,11723,-0.086,1.007,0.248,-0.61,0.61,0.427,55.253
129385,158044,417,-0.086,1.007,0.248,-0.61,0.61,0.427,55.256
129385,158029,11719,-0.086,1.012,0.251,-0.488,0.793,0.366,55.262
129366,158044,417,-0.086,1.012,0.251,-0.488,0.793,0.366,55.266
129366,158024,11718,-0.082,1.009,0.249,-0.488,0.61,0.488,55.272
129363,158044,417,-0.082,1.009,0.249,-0.488,0.61,0.488,55.276
129363,157987,11717,-0.085,1.003,0.242,-0.732,0.61,0.549,55.282
129354,158044,417,-0.085,1.003,0.242,-0.732,0.61,0.549,55.286
129354,157997,11713,-0.078,1.005,0.245,-0.366,0.305,0.488,55.292
129331,158044,417,-0.078,1.005,0.245,-0.366,0.305,0.488,55.296
129331,157990,11713,-0.081,1.014,0.25,0.488,-0.061,0.366,55.302
129330,158044,417,-0.081,1.014,0.25,0.488,-0.061,0.366,55.306
129330,157981,11703,-0.082,1.027,0.249,0.854,0.244,0.305,55.312
129330,158044,417,-0.082,1.027,0.249,0.854,0.244,0.305,55.316
129330,157957,11700,-0.084,1.021,0.246,0.61,0.488,0.122,55.322
129278,158044,417,-0.084,1.021,0.246,0.61,0.488,0.122,55.326
129278,157967,11699,-0.088,1.016,0.253,0.305,0.61,0,55.332
129295,157788,417,-0.088,1.016,0.253,0.305,0.61,0,55.335
129295,157951,11712,-0.091,1.016,0.249,-0.305,0.671,-0.061,55.342
129295,158044,417,-0.091,1.016,0.249,-0.305,0.671,-0.061,55.345
129295,157985,11697,-0.085,1.005,0.247,-0.061,0.549,-0.122,55.352
129307,158044,417,-0.085,1.005,0.247,-0.061,0.549,-0.122,55.355
129307,157969,11700,-0.085,1.008,0.248,0.793,0.671,-0.061,55.361
129313,158044,417,-0.085,1.008,0.248,0.793,0.671,-0.061,55.365
129313,157985,11716,-0.087,1.011,0.246,1.037,1.22,-0.061,55.371
129313,158044,417,-0.087,1.011,0.246,1.037,1.22,-0.061,55.375
129313,157968,11706,-0.092,1.005,0.248,-0.244,1.098,-0.122,55.381
129327,158044,417,-0.092,1.005,0.248,-0.244,1.098,-0.122,55.385
129327,157976,11699,-0.091,1,0.249,-0.244,1.098,-0.122,55.391
129309,158044,417,-0.092,1,0.252,-1.463,0.061,0.122,55.395
129309,157970,11693,-0.088,1,0.255,-1.463,0.061,0.122,55.401
129302,158044,417,-0.085,1,0.251,0.122,-0.61,0.366,55.405
129302,157975,11724,-0.081,1.002,0.247,0.122,-0.61,0.366,55.411
129302,158044,417,-0.081,1.009,0.247,2.744,0.122,0.061,55.415
129302,157977,11703,-0.083,1.015,0.247,2.744,0.122,0.061,55.421
129296,158044,417,-0.084,1.017,0.246,3.415,1.159,0.366,55.425
129296,157965,11714,-0.09,1.023,0.248,3.415,1.159,0.366,55.431
129296,158044,417,-0.093,1.023,0.252,0.671,1.098,0.854,55.434
129296,157969,11698,-0.088,1.015,0.246,0.671,1.098,0.854,55.441
129287,157788,417,-0.087,1.008,0.24,-2.5,0,0.549,55.444
129287,157948,11706,-0.087,1.006,0.24,-2.5,0,0.549,55.451
129273,158044,417,-0.086,1.008,0.24,-3.902,-0.976,0.61,55.454
129273,157959,11717,-0.087,1.011,0.245,-3.902,-0.976,0.61,55.46
129255,157788,417,-0.088,1.016,0.252,-2.195,-0.854,0.671,55.464
129255,157947,11693,-0.086,1.02,0.254,-2.195,-0.854,0.671,55.47
129232,157788,417,-0.087,1.019,0.255,0.488,0.244,0.244,55.474
129232,157919,11695,-0.09,1.016,0.252,0.488,0.244,0.244,55.48
129235,157788,417,-0.09,1.017,0.254,2.622,1.402,-0.122,55.484
129235,157930,11701,-0.096,1.017,0.25,2.622,1.402,-0.122,55.49
129227,157788,417,-0.094,1.016,0.245,2.439,1.768,-0.122,55.494
129227,157905,11691,-0.094,1.015,0.249,2.439,1.768,-0.122,55.5
129216,157788,417,-0.092,1.011,0.252,1.28,1.22,0.061,55.504
129216,157879,11704,-0.092,1.006,0.249,1.28,1.22,0.061,55.51
129205,157788,417,-0.087,1.003,0.251,1.159,0.366,0.061,55.514
129205,157883,11685,-0.086,0.999,0.251,1.159,0.366,0.061,55.52
129179,157788,417,-0.082,0.999,0.249,2.134,0.427,0.061,55.524
129179,157887,11676,-0.081,1.006,0.249,2.134,0.427,0.061,55.53
129163,157788,417,-0.085,1.01,0.247,2.744,1.159,0.244,55.533
129163,157846,11698,-0.085,1.014,0.245,2.744,1.159,0.244,55.54
129151,157788,417,-0.087,1.016,0.243,1.707,1.341,0.183,55.543
129151,157835,11692,-0.085,1.01,0.241,1.707,1.341,0.183,55.549
129150,157788,417,-0.082,1.011,0.239,-0.183,0.61,0.427,55.553
129150,157862,11678,-0.083,1.02,0.238,-0.183,0.61,0.427,55.559
129161,157788,417,-0.084,1.024,0.236,-2.683,-0.061,0.732,55.563
129161,157866,11675,-0.083,1.022,0.233,-2.683,-0.061,0.732,55.569
129188,157788,417,-0.085,1.017,0.238,-3.902,-0.549,0.549,55.573
129188,157881,11671,-0.083,1.013,0.24,-3.902,-0.549,0.549,55.579
129191,157788,417,-0.084,1.01,0.241,-3.78,-0.793,0.488,55.583
129191,157864,11692,-0.086,1.008,0.248,-3.78,-0.793,0.488,55.589
129184,157788,417,-0.088,1.011,0.249,-3.354,-0.366,0.671,55.593
129184,157893,11697,-0.089,1.015,0.248,-3.354,-0.366,0.671,55.599
129221,157788,417,-0.086,1.012,0.244,-2.5,-0.061,0.244,55.603
129221,157872,11693,-0.09,1.013,0.252,-2.5,-0.061,0.244,55.609
129207,157788,417,-0.09,1.013,0.253,-0.976,-0.427,-0.183,55.613
129207,157906,11702,-0.086,1.008,0.254,-0.976,-0.427,-0.183,55.619
129225,157788,417,-0.086,1.01,0.258,0.244,-0.549,-0.183,55.623
129225,157895,11690,-0.088,1.013,0.251,0.244,-0.549,-0.183,55.629
129209,157788,417,-0.085,1.015,0.245,0.793,0,-0.427,55.632
129209,157920,11691,-0.085,1.017,0.244,0.793,0,-0.427,55.639
129215,157788,417,-0.086,1.012,0.256,1.341,0.549,-0.732,55.642
129215,157877,11687,-0.086,1.016,0.256,1.341,0.549,-0.732,55.649
129197,157788,417,-0.091,1.014,0.248,0.976,0.427,-0.244,55.652
129197,157925,11692,-0.09,1.014,0.24,0.976,0.427,-0.244,55.658
129205,157788,417,-0.086,1.014,0.246,-0.244,0.244,-0.366,55.662
129205,157889,11688,-0.085,1.01,0.25,-0.244,0.244,-0.366,55.668
129216,157788,417,-0.083,1.007,0.256,-0.244,-0.061,-0.305,55.672
129216,157895,11686,-0.086,1.008,0.249,-0.244,-0.061,-0.305,55.678
129208,157788,417,-0.09,1.01,0.244,-0.427,0.427,0.061,55.682
129208,157879,11705,-0.092,1.013,0.24,-0.427,0.427,0.061,55.688
129182,157788,417,-0.092,1.01,0.241,-0.854,0.549,-0.244,55.692
129182,157881,11694,-0.09,1.006,0.239,-0.854,0.549,-0.244,55.698
129188,157788,417,-0.091,1.004,0.242,-0.671,-0.305,-0.244,55.702
129188,157873,11691,-0.089,1.005,0.243,-0.671,-0.305,-0.244,55.708
129175,157788,417,-0.088,1.007,0.245,-0.366,-0.549,0.122,55.712
129175,157866,11677,-0.09,1.01,0.251,-0.366,-0.549,0.122,55.718
129173,157788,417,-0.089,1.013,0.253,0.183,-0.122,0.244,55.722
129173,157857,11684,-0.088,1.015,0.252,0.183,-0.122,0.244,55.728
129180,157788,417,-0.087,1.015,0.255,0.366,-0.244,0.061,55.731
129180,157870,11675,-0.088,1.01,0.255,0.366,-0.244,0.061,55.738
129158,157788,417,-0.088,1.007,0.259,-0.183,-0.122,0.305,55.741
129158,157844,11681,-0.088,1.01,0.255,-0.183,-0.122,0.305,55.747
129140,157788,417,-0.088,1.012,0.248,-0.854,0.244,0.488,55.751
129140,157849,11682,-0.085,1.012,0.25,-0.854,0.244,0.488,55.757
129156,157788,417,-0.085,1.012,0.246,-0.854,0.183,0.122,55.761
129156,157836,11673,-0.085,1.015,0.245,-0.854,0.183,0.122,55.767
129157,157788,417,-0.09,1.014,0.245,-0.549,0.366,0,55.771
129157,157844,11686,-0.09,1.011,0.245,-0.549,0.366,0,55.777
129147,157788,417,-0.095,1.01,0.242,-0.305,0.671,-0.061,55.781
129147,157852,11687,-0.092,1.01,0.242,-0.305,0.671,-0.061,55.787
129161,157788,417,-0.09,1.006,0.251,-0.122,0.244,-0.183,55.791
129161,157859,11675,-0.091,1.008,0.252,-0.122,0.244,-0.183,55.797
129132,157788,417,-0.091,1.008,0.253,0.671,0,-0.244,55.801
129132,157853,11691,-0.087,1.012,0.25,0.671,0,-0.244,55.807
129151,157788,417,-0.085,1.016,0.258,1.402,0.366,-0.183,55.811
129151,157856,11682,-0.085,1.014,0.259,1.402,0.366,-0.183,55.817
129161,157788,417,-0.085,1.014,0.259,1.402,0.366,-0.183,55.821
129161,157846,11689,-0.087,1.012,0.259,1.463,0.976,-0.366,55.827
129154,157788,417,-0.087,1.012,0.259,1.463,0.976,-0.366,55.83
129154,157855,11682,-0.092,1.011,0.242,0.366,1.463,-0.244,55.837
129134,157788,417,-0.092,1.011,0.242,0.366,1.463,-0.244,55.84
129134,157836,11680,-0.087,1.012,0.245,-0.793,0.976,-0.183,55.846
129136,157788,417,-0.087,1.012,0.245,-0.793,0.976,-0.183,55.85
129136,157832,11670,-0.087,1.008,0.245,-1.159,0.183,-0.244,55.856
129119,157788,417,-0.087,1.008,0.245,-1.159,0.183,-0.244,55.86
129119,157834,11663,-0.088,1.009,0.246,-1.159,0.305,-0.122,55.866
129119,157788,417,-0.088,1.009,0.246,-1.159,0.305,-0.122,55.87
129119,157830,11666,-0.091,1.007,0.249,-1.098,0.671,-0.183,55.876
129129,157788,417,-0.091,1.007,0.249,-1.098,0.671,-0.183,55.88
129129,157827,11677,-0.093,1.004,0.246,-1.159,0.671,-0.183,55.886
129132,157788,417,-0.093,1.004,0.246,-1.159,0.671,-0.183,55.89
129132,157824,11672,-0.091,0.998,0.243,-1.89,0.305,0.122,55.896
129118,157788,417,-0.091,0.998,0.243,-1.89,0.305,0.122,55.9
129118,157841,11675,-0.091,1.01,0.243,-1.28,-0.122,0.183,55.906
129148,157788,417,-0.091,1.01,0.243,-1.28,-0.122,0.183,55.91
129148,157843,11693,-0.09,1.019,0.239,-0.549,-0.061,0,55.916
129158,157788,417,-0.09,1.019,0.239,-0.549,-0.061,0,55.919
129158,157852,11688,-0.089,1.016,0.243,0.061,-0.061,0,55.926
129174,157788,417,-0.089,1.016,0.243,0.061,-0.061,0,55.929
129174,157850,11678,-0.085,1.016,0.242,0,-0.305,0.061,55.936
129184,157788,417,-0.085,1.016,0.242,0,-0.305,0.061,55.939
129184,157884,11686,-0.086,1.015,0.247,-0.244,-0.366,0.183,55.945
129186,157788,417,-0.086,1.015,0.247,-0.244,-0.366,0.183,55.949
129186,157868,11687,-0.083,1.005,0.25,0.122,-0.488,0.183,55.955
129186,157788,417,-0.083,1.005,0.25,0.122,-0.488,0.183,55.959
129186,157898,11676,-0.084,1,0.254,0.122,-0.366,0.488,55.965
129184,157788,417,-0.085,1.002,0.257,0.122,-0.366,0.488,55.969
129184,157876,11702,-0.087,1.005,0.264,0.61,0.122,0.488,55.975
129197,157788,417,-0.091,1.01,0.265,0.61,0.122,0.488,55.979
129197,157909,11692,-0.093,1.014,0.258,1.098,0.488,0.305,55.985
129206,157788,417,-0.096,1.02,0.254,1.098,0.488,0.305,55.989
129206,157898,11682,-0.092,1.019,0.256,1.098,0.366,0,55.995
129193,157788,417,-0.088,1.011,0.253,1.098,0.366,0,55.999
129193,157881,11687,-0.09,1.011,0.257,1.829,0.305,-0.061,56.005
129164,157788,417,-0.09,1.01,0.255,1.829,0.305,-0.061,56.009
129164,157874,11672,-0.089,1.008,0.245,1.89,0.976,0.244,56.015
129148,157788,417,-0.091,1.012,0.24,1.89,0.976,0.244,56.018
129148,157856,11678,-0.089,1.016,0.239,1.28,1.22,0.122,56.025
129136,157788,417,-0.085,1.01,0.241,1.28,1.22,0.122,56.028
129136,157846,11679,-0.089,1.01,0.236,0.183,0.793,0.244,56.035
129169,157788,417,-0.094,1.017,0.232,0.183,0.793,0.244,56.038
129169,157848,11689,-0.093,1.023,0.231,-1.768,0.183,0.427,56.044
129141,157788,417,-0.092,1.025,0.237,-1.768,0.183,0.427,56.048
129141,157871,11691,-0.087,1.021,0.246,-2.439,-0.427,0.122,56.054
129155,157788,417,-0.085,1.015,0.246,-2.439,-0.427,0.122,56.058
129155,157864,11689,-0.088,1.013,0.242,-1.89,-0.793,0.122,56.064
129160,157788,417,-0.095,1.013,0.243,-1.89,-0.793,0.122,56.068
129160,157867,11676,-0.098,1.011,0.24,-0.854,0.061,-0.183,56.074
129146,157788,417,-0.097,1.006,0.242,-0.854,0.061,-0.183,56.078
129146,157864,11692,-0.101,1.009,0.248,0.366,0.61,-0.427,56.084
129148,157788,417,-0.101,1.008,0.253,0.366,0.61,-0.427,56.088
129148,157852,11682,-0.099,1.003,0.251,1.28,0.122,-0.244,56.094
129129,157788,417,-0.095,1.006,0.245,1.28,0.122,-0.244,56.098
129129,157831,11683,-0.089,1.003,0.253,2.134,-0.427,-0.122,56.104
129128,157788,417,-0.087,1.004,0.26,2.134,-0.427,-0.122,56.108
129128,157835,11684,-0.085,1.015,0.26,2.988,-0.122,-0.122,56.114
129139,157788,417,-0.085,1.02,0.252,2.988,-0.122,-0.122,56.117
129139,157856,11685,-0.089,1.026,0.245,1.951,0.244,-0.244,56.124
129136,157788,417,-0.089,1.026,0.242,1.951,0.244,-0.244,56.127
129136,157851,11678,-0.089,1.019,0.239,0.122,0,-0.488,56.134
129131,157788,417,-0.088,1.009,0.237,0.122,0,-0.488,56.137
129131,157828,11683,-0.089,1.009,0.236,-1.585,-0.61,-0.244,56.143
129131,157788,417,-0.085,1.008,0.241,-1.585,-0.61,-0.244,56.147
129131,157853,11669,-0.082,1.001,0.245,-2.073,-1.402,0.122,56.153
129119,157788,417,-0.082,0.995,0.253,-2.073,-1.402,0.122,56.157
129119,157832,11675,-0.083,1,0.257,-0.488,-1.037,0.183,56.163
129110,157788,417,-0.086,1.012,0.256,-0.488,-1.037,0.183,56.167
129110,157845,11672,-0.088,1.013,0.246,0.427,0.183,0.244,56.173
129097,157788,417,-0.088,1.013,0.248,0.427,0.183,0.244,56.177
129097,157818,11678,-0.093,1.009,0.25,0.793,0.61,0.122,56.183
129136,157788,417,-0.094,1.01,0.251,0.793,0.61,0.122,56.187
129136,157822,11676,-0.095,1.011,0.248,-0.244,0.61,0.427,56.193
129116,157788,417,-0.097,1.01,0.253,-0.244,0.61,0.427,56.197
129116,157829,11684,-0.091,1.011,0.256,-0.976,0.122,0.61,56.203
129115,157788,417,-0.089,1.009,0.26,-0.976,0.122,0.61,56.207
129115,157842,11678,-0.089,1.005,0.257,0.061,0.122,0.549,56.213
129155,157788,417,-0.087,1.009,0.249,0.061,0.122,0.549,56.216
129155,157845,11681,-0.089,1.014,0.244,0.61,1.159,0.488,56.223
129157,157788,417,-0.09,1.015,0.247,0.61,1.159,0.488,56.226
129157,157854,11674,-0.087,1.012,0.245,0.549,1.402,0.61,56.233
129151,157788,417,-0.09,1.009,0.24,0.549,1.402,0.61,56.236
129151,157855,11676,-0.089,1.011,0.234,0.549,1.22,0.61,56.242
129125,157788,417,-0.09,1.014,0.235,0.549,1.22,0.61,56.246
129125,157838,11673,-0.091,1.009,0.238,0.61,0.854,0.366,56.252
129135,157788,417,-0.092,1.011,0.239,0.61,0.854,0.366,56.256
129135,157808,11691,-0.092,1.016,0.237,-0.122,0.427,0.244,56.262
129098,157788,417,-0.089,1.019,0.237,-0.122,0.427,0.244,56.266
129098,157853,11685,-0.09,1.016,0.243,-1.28,-0.061,0.244,56.272
129111,157788,417,-0.088,1.013,0.244,-1.28,-0.061,0.244,56.276
129111,157836,11670,-0.087,1.012,0.24,-1.707,-0.244,0.366,56.282
129105,157788,417,-0.09,1.012,0.247,-1.707,-0.244,0.366,56.286
129105,157826,11669,-0.089,1.012,0.254,-1.707,-0.244,0.183,56.292
129132,157788,417,-0.088,1.008,0.255,-1.707,-0.244,0.183,56.296
129132,157842,11669,-0.092,1.011,0.26,-0.793,0.122,0,56.302
129111,157788,417,-0.09,1.011,0.267,-0.793,0.122,0,56.306
129111,157869,11684,-0.091,1.013,0.257,0.122,0.61,-0.061,56.312
129146,157788,417,-0.088,1.015,0.254,0.122,0.61,-0.061,56.315
129146,157846,11669,-0.088,1.014,0.252,0.671,1.037,-0.305,56.322
129111,157788,417,-0.092,1.011,0.242,0.671,1.037,-0.305,56.325
129111,157837,11672,-0.095,1.012,0.247,0.427,1.22,-0.488,56.332
129077,157788,417,-0.097,1.012,0.243,0.427,1.22,-0.488,56.335
129077,157777,11670,-0.096,1.01,0.237,-0.671,1.098,-0.183,56.341
129042,157788,417,-0.097,1.003,0.233,-0.671,1.098,-0.183,56.345
129042,157791,11653,-0.096,1.001,0.235,-0.488,0.488,0,56.351
129046,157788,417,-0.092,1.002,0.24,-0.488,0.488,0,56.355
129046,157761,11671,-0.089,1.005,0.246,0.671,0.183,0.305,56.361
129024,157788,417,-0.088,1.009,0.247,0.671,0.183,0.305,56.365
129024,157757,11657,-0.089,1.015,0.246,0.488,0.549,0.671,56.371
129000,157788,417,-0.093,1.009,0.247,0.488,0.549,0.671,56.375
129000,157747,11657,-0.092,1.005,0.253,-0.61,0.732,0.854,56.381
128980,157788,417,-0.091,1.006,0.248,-0.61,0.732,0.854,56.385
128980,157716,11656,-0.09,1.009,0.242,-1.768,0.244,0.915,56.391
128933,157788,417,-0.088,1.008,0.245,-1.768,0.244,0.915,56.395
128933,157710,11659,-0.086,1.012,0.254,-1.402,-0.305,0.915,56.401
128908,157532,417,-0.086,1.012,0.254,-1.402,-0.305,0.915,56.405
128908,157635,11643,-0.086,1.024,0.249,-1.098,-0.122,0.732,56.411
128833,157532,417,-0.086,1.024,0.249,-1.098,-0.122,0.732,56.414
128833,157606,11633,-0.089,1.008,0.247,-0.854,0.305,0.488,56.421
128751,157532,417,-0.089,1.008,0.247,-0.854,0.305,0.488,56.424
128751,157539,11633,-0.092,1.021,0.247,-0.671,0.61,0.305,56.431
128677,157532,417,-0.092,1.021,0.247,-0.671,0.61,0.305,56.434
128677,157444,11609,-0.09,1.012,0.254,0.183,0.488,0.061,56.44
128636,157276,417,-0.09,1.012,0.254,0.183,0.488,0.061,56.444
128636,157420,11604,-0.09,1.017,0.249,0.488,0.488,-0.183,56.45
128613,157532,417,-0.09,1.017,0.249,0.488,0.488,-0.183,56.454
128613,157451,11611,-0.088,1.015,0.248,0.061,0.732,-0.183,56.46
128633,157276,417,-0.088,1.015,0.248,0.061,0.732,-0.183,56.464
128633,157428,11609,-0.092,1.008,0.245,-0.122,0.976,-0.061,56.47
128630,157276,417,-0.092,1.008,0.245,-0.122,0.976,-0.061,56.474
128630,157432,11611,-0.089,1.008,0.25,-0.061,1.037,0,56.48
128625,157532,417,-0.089,1.008,0.25,-0.061,1.037,0,56.484
128625,157440,11604,-0.086,1.012,0.25,0.366,0.854,0.122,56.49
128648,157532,417,-0.086,1.012,0.25,0.366,0.854,0.122,56.494
128648,157456,11612,-0.085,1.009,0.249,0.732,1.098,0.244,56.5
128681,157532,417,-0.085,1.009,0.249,0.732,1.098,0.244,56.504
128681,157497,11626,-0.089,1.002,0.247,0.061,1.28,0.366,56.51
128736,157532,417,-0.089,1.002,0.247,0.061,1.28,0.366,56.513
128736,157495,11612,-0.094,1.005,0.242,-0.854,0.915,0.61,56.52
128741,157532,417,-0.094,1.005,0.242,-0.854,0.915,0.61,56.523
128741,157530,11631,-0.089,1.007,0.238,-1.463,0.549,0.671,56.529
128749,157532,417,-0.089,1.007,0.238,-1.463,0.549,0.671,56.533
128749,157569,11634,-0.09,1.014,0.235,-1.524,0.122,0.732,56.539
128794,157532,417,-0.09,1.014,0.235,-1.524,0.122,0.732,56.543
128794,157566,11625,-0.089,1.016,0.239,-1.524,0.122,0.732,56.549
128785,157532,417,-0.091,1.018,0.241,-1.524,0.061,0.915,56.553
128785,157574,11624,-0.094,1.02,0.242,-1.524,0.061,0.915,56.559
128798,157532,417,-0.094,1.026,0.244,-1.829,0.122,0.671,56.563
128798,157576,11637,-0.09,1.023,0.246,-1.829,0.122,0.671,56.569
128804,157532,417,-0.09,1.017,0.252,-1.524,0,0.305,56.573
128804,157597,11631,-0.091,1.015,0.252,-1.524,0,0.305,56.579
128818,157532,417,-0.091,1.013,0.254,-0.732,0.122,0.122,56.583
128818,157604,11654,-0.095,1.012,0.252,-0.732,0.122,0.122,56.589
128827,157532,417,-0.096,1.011,0.252,-0.915,0.61,0,56.593
128827,157635,11641,-0.093,1.01,0.255,-0.915,0.61,0,56.599
128909,157532,417,-0.098,1.007,0.257,-0.854,0.671,-0.183,56.602
128909,157653,11639,-0.1,1.004,0.254,-0.854,0.671,-0.183,56.609
128907,157532,417,-0.095,1.005,0.247,0.183,0.427,-0.122,56.612
128907,157692,11660,-0.089,1.011,0.245,0.183,0.427,-0.122,56.619
128939,157532,417,-0.083,1.009,0.244,1.524,0.488,-0.366,56.622
128939,157676,11629,-0.087,1.005,0.249,1.524,0.488,-0.366,56.628
128941,157532,417,-0.09,1.008,0.25,2.134,0.915,-0.366,56.632
128941,157674,11639,-0.093,1.013,0.245,2.134,0.915,-0.366,56.638
128939,157532,417,-0.093,1.014,0.244,0.427,1.341,0.122,56.642
128939,157694,11653,-0.092,1.009,0.245,0.427,1.341,0.122,56.648
128957,157532,417,-0.094,1.004,0.251,-1.28,0.549,0.244,56.652
128957,157686,11644,-0.09,1.004,0.245,-1.28,0.549,0.244,56.658
128949,157788,417,-0.089,1.001,0.244,-1.768,-0.183,0.61,56.662
128949,157712,11656,-0.088,1.006,0.243,-1.768,-0.183,0.61,56.668
128967,157788,417,-0.088,1.016,0.24,-1.098,0.122,0.61,56.672
128967,157717,11643,-0.087,1.015,0.244,-1.098,0.122,0.61,56.678
128981,157788,417,-0.089,1.015,0.252,0.244,0.732,0.244,56.682
128981,157700,11662,-0.092,1.013,0.256,0.244,0.732,0.244,56.688
128956,157788,417,-0.095,1.013,0.253,0.244,0.915,0.488,56.692
128956,157727,11658,-0.098,1.013,0.251,0.244,0.915,0.488,56.698
128987,157788,417,-0.097,1.013,0.248,-1.585,0.61,0.61,56.701
128987,157730,11665,-0.096,1.011,0.246,-1.585,0.61,0.61,56.708
128959,157788,417,-0.092,1.008,0.247,-2.5,-0.061,0.366,56.711
128959,157759,11648,-0.091,1.002,0.245,-2.5,-0.061,0.366,56.718
128995,157788,417,-0.096,1.002,0.249,-2.134,-0.244,0.61,56.721
128995,157729,11649,-0.093,1.008,0.241,-2.134,-0.244,0.61,56.727
128985,157788,417,-0.088,1.011,0.237,-0.793,-0.061,0.793,56.731
128985,157737,11664,-0.084,1.011,0.237,-0.793,-0.061,0.793,56.737
129001,157788,417,-0.083,1.016,0.245,1.524,0.244,0.061,56.741
129001,157739,11674,-0.088,1.025,0.253,1.524,0.244,0.061,56.747
129007,157788,417,-0.093,1.028,0.259,1.646,0.671,0.305,56.751
129007,157752,11649,-0.094,1.028,0.258,1.646,0.671,0.305,56.757
129015,157788,417,-0.094,1.022,0.254,-0.976,0.732,0.305,56.761
129015,157762,11661,-0.09,1.01,0.253,-0.976,0.732,0.305,56.767
129021,157788,417,-0.088,1,0.248,-3.537,0.366,0.061,56.771
129021,157727,11669,-0.091,0.998,0.241,-3.537,0.366,0.061,56.777
129032,157788,417,-0.091,0.993,0.243,-4.512,0.305,0.305,56.781
129032,157741,11647,-0.091,0.991,0.247,-4.512,0.305,0.305,56.787
129018,157788,417,-0.093,0.995,0.251,-3.598,0.244,0.671,56.791
129018,157757,11648,-0.097,0.992,0.255,-3.598,0.244,0.671,56.797
129014,157788,417,-0.099,0.988,0.252,-0.61,0.183,0.793,56.8
129014,157749,11670,-0.097,1.011,0.246,-0.61,0.183,0.793,56.807
129020,157788,417,-0.092,1.027,0.249,3.354,0.549,0.183,56.81
129020,157766,11652,-0.087,1.029,0.261,3.354,0.549,0.183,56.817
129038,157788,417,-0.085,1.03,0.263,4.817,0.549,-0.244,56.82
129038,157767,11653,-0.089,1.035,0.261,4.817,0.549,-0.244,56.826
129040,157788,417,-0.092,1.034,0.246,0.793,0.976,0.305,56.83
129040,157771,11662,-0.097,1.018,0.239,0.793,0.976,0.305,56.836
129034,157788,417,-0.094,1.002,0.237,-3.11,0.61,0.366,56.84
129034,157757,11661,-0.089,0.993,0.238,-3.11,0.61,0.366,56.846
129004,157788,417,-0.086,0.985,0.245,-2.317,-1.037,0.244,56.85
129004,157730,11663,-0.08,0.985,0.246,-2.317,-1.037,0.244,56.856
129008,157788,417,-0.082,0.997,0.245,0.61,-0.976,0.427,56.86
129008,157760,11660,-0.086,1.016,0.252,0.61,-0.976,0.427,56.866
129015,157788,417,-0.089,1.029,0.256,2.744,1.098,0.305,56.87
129015,157762,11689,-0.092,1.04,0.26,2.744,1.098,0.305,56.876
129026,157788,417,-0.097,1.039,0.252,1.707,1.646,0.244,56.88
129026,157753,11658,-0.096,1.032,0.247,1.707,1.646,0.244,56.886
129021,157788,417,-0.095,1.021,0.245,-1.89,0.427,0.305,56.89
129021,157745,11669,-0.092,1.006,0.247,-1.89,0.427,0.305,56.896
129035,157788,417,-0.092,0.993,0.252,-4.207,-0.793,0.366,56.899
129035,157757,11659,-0.091,0.986,0.249,-4.207,-0.793,0.366,56.906
129027,157788,417,-0.093,0.986,0.246,-3.841,-0.61,0.549,56.909
129027,157782,11660,-0.092,0.989,0.244,-3.841,-0.61,0.549,56.916
129035,157788,417,-0.092,1.005,0.248,-1.341,0.061,0.488,56.919
129035,157788,11670,-0.091,1.012,0.254,-1.341,0.061,0.488,56.925
129044,157788,417,-0.093,1.019,0.26,1.22,0.427,0.305,56.929
129044,157770,11679,-0.092,1.026,0.263,1.22,0.427,0.305,56.935
129051,157788,417,-0.094,1.024,0.265,1.524,0.427,0.305,56.939
129051,157796,11659,-0.089,1.02,0.265,1.524,0.427,0.305,56.945
129045,157788,417,-0.089,1.02,0.264,0.732,0.549,0.244,56.949
129045,157763,11695,-0.089,1.015,0.261,0.732,0.549,0.244,56.955
129021,157788,417,-0.089,1.016,0.256,0.122,0.793,0.061,56.959
129021,157773,11667,-0.087,1.011,0.249,0.122,0.793,0.061,56.965
129026,157788,417,-0.087,1.008,0.241,0.305,0.732,-0.305,56.969
129026,157750,11665,-0.088,1.01,0.235,0.305,0.732,-0.305,56.975
129015,157788,417,-0.088,1.01,0.235,0.305,0.732,-0.305,56.979
129015,157781,11662,-0.088,1.019,0.233,0.488,0.488,-0.488,56.985
129046,157788,417,-0.088,1.019,0.233,0.488,0.488,-0.488,56.989
129046,157756,11654,-0.093,1.017,0.234,0.549,0.366,-0.305,56.995
129017,157788,417,-0.093,1.017,0.234,0.549,0.366,-0.305,56.998
129017,157758,11652,-0.091,1.018,0.239,-0.061,0.244,-0.122,57.005
129040,157788,417,-0.091,1.018,0.239,-0.061,0.244,-0.122,57.008
129040,157747,11648,-0.094,1.007,0.236,-0.976,-0.061,-0.305,57.014
129015,157788,417,-0.094,1.007,0.236,-0.976,-0.061,-0.305,57.018
129015,157765,11665,-0.095,1.005,0.247,-1.829,-0.305,-0.244,57.024
129017,157788,417,-0.095,1.005,0.247,-1.829,-0.305,-0.244,57.028
129017,157753,11660,-0.099,1.009,0.253,-2.012,-0.366,0,57.034
128979,157788,417,-0.099,1.009,0.253,-2.012,-0.366,0,57.038
128979,157765,11666,-0.093,1.014,0.261,-1.707,-0.183,-0.183,57.044
129019,157788,417,-0.093,1.014,0.261,-1.707,-0.183,-0.183,57.048
129019,157752,11653,-0.093,1.014,0.267,-1.28,-0.122,-0.183,57.054
129036,157788,417,-0.093,1.014,0.267,-1.28,-0.122,-0.183,57.058
129036,157787,11660,-0.096,1.006,0.264,-1.646,0.183,-0.061,57.064
129046,157788,417,-0.096,1.006,0.264,-1.646,0.183,-0.061,57.068
129046,157783,11661,-0.093,0.994,0.256,-1.951,0.732,0.122,57.074
129023,157788,417,-0.093,0.994,0.256,-1.951,0.732,0.122,57.078
129023,157765,11667,-0.086,1.004,0.241,-1.585,0.671,0.305,57.084
129039,157788,417,-0.086,1.004,0.241,-1.585,0.671,0.305,57.087
129039,157781,11663,-0.088,1.005,0.245,-0.976,0.488,0.488,57.094
129016,157788,417,-0.088,1.005,0.245,-0.976,0.488,0.488,57.097
129016,157765,11661,-0.09,1.012,0.234,-0.122,0.671,0.549,57.104
129018,157788,417,-0.09,1.012,0.234,-0.122,0.671,0.549,57.107
129018,157785,11655,-0.092,1.015,0.249,-1.098,0.366,0.488,57.113
129059,157788,417,-0.092,1.015,0.249,-1.098,0.366,0.488,57.117
129059,157765,11654,-0.09,1.015,0.256,-1.707,-0.732,0.244,57.123
129007,157788,417,-0.087,1.016,0.265,-1.707,-0.732,0.244,57.127
129007,157745,11671,-0.089,1.014,0.267,-1.768,-0.915,0.305,57.133
128975,157788,417,-0.091,1.013,0.259,-1.768,-0.915,0.305,57.137
128975,157721,11672,-0.093,1.016,0.26,-1.524,0.427,0.061,57.143
128964,157788,417,-0.097,1.014,0.26,-1.524,0.427,0.061,57.147
128964,157716,11657,-0.1,1.012,0.259,-0.61,1.037,-0.366,57.153
128947,157532,417,-0.102,1.01,0.256,-0.61,1.037,-0.366,57.157
128947,157693,11649,-0.104,1.011,0.254,-0.244,1.098,-0.427,57.163
128944,157788,417,-0.103,1.01,0.253,-0.244,1.098,-0.427,57.167
128944,157705,11643,-0.098,1.008,0.254,-0.488,0.915,-0.122,57.173
128925,157532,417,-0.1,1.001,0.26,-0.488,0.915,-0.122,57.177
128925,157662,11651,-0.094,0.997,0.252,-0.183,0.915,0.122,57.183
128904,157532,417,-0.095,0.997,0.247,-0.183,0.915,0.122,57.186
128904,157678,11639,-0.094,0.999,0.246,0.488,1.28,0.244,57.193
128914,157532,417,-0.088,1.003,0.253,0.488,1.28,0.244,57.196
128914,157647,11635,-0.088,1.01,0.248,0.854,1.402,0.427,57.203
128906,157532,417,-0.089,1.015,0.251,0.854,1.402,0.427,57.206
128906,157675,11631,-0.087,1.015,0.245,0.061,1.28,0.793,57.212
128939,157532,417,-0.086,1.011,0.245,0.061,1.28,0.793,57.216
128939,157686,11661,-0.084,1.002,0.245,-1.829,0.549,0.976,57.222
128929,157532,417,-0.085,0.995,0.239,-1.829,0.549,0.976,57.226
128929,157692,11663,-0.087,0.999,0.24,-2.378,-0.366,0.976,57.232
128922,157532,417,-0.086,1.001,0.244,-2.378,-0.366,0.976,57.236
128922,157687,11654,-0.085,1.009,0.246,-1.28,-0.732,0.793,57.242
128970,157788,417,-0.086,1.015,0.25,-1.28,-0.732,0.793,57.246
128970,157705,11655,-0.089,1.021,0.259,1.098,-0.366,0.427,57.252
128974,157788,417,-0.094,1.027,0.256,1.098,-0.366,0.427,57.256
128974,157714,11649,-0.097,1.031,0.256,1.707,0.366,0.122,57.262
129007,157788,417,-0.097,1.031,0.261,1.707,0.366,0.122,57.266
129007,157725,11652,-0.099,1.026,0.266,0.122,0.61,-0.122,57.272
128979,157788,417,-0.1,1.017,0.264,0.122,0.61,-0.122,57.276
128979,157732,11654,-0.098,1.008,0.26,-1.646,0.366,-0.061,57.282
129019,157788,417,-0.094,0.998,0.258,-1.646,0.366,-0.061,57.285
129019,157723,11672,-0.097,0.994,0.257,-2.317,0.244,0,57.292
129022,157788,417,-0.095,0.992,0.255,-2.317,0.244,0,57.295
129022,157776,11682,-0.093,0.994,0.254,-1.037,0.732,0.061,57.302
129033,157788,417,-0.092,0.995,0.252,-1.037,0.732,0.061,57.305
129033,157742,11666,-0.09,1.003,0.248,1.037,1.402,0.244,57.311
129060,157788,417,-0.088,1.011,0.248,1.037,1.402,0.244,57.315
129060,157769,11654,-0.094,1.016,0.249,1.22,1.402,0.488,57.321
129043,157788,417,-0.093,1.012,0.246,1.22,1.402,0.488,57.325
129043,157767,11671,-0.094,1.009,0.244,0,0.854,0.671,57.331
129073,157788,417,-0.091,1.007,0.246,0,0.854,0.671,57.335
129073,157767,11669,-0.09,1.002,0.247,-0.854,0,0.854,57.341
129063,157788,417,-0.086,1.004,0.254,-0.854,0,0.854,57.345
129063,157774,11670,-0.083,1.007,0.26,0.183,-0.427,0.793,57.351
129103,157788,417,-0.085,1.009,0.255,0.183,-0.427,0.793,57.355
129103,157819,11673,-0.087,1.018,0.259,0.549,0.244,0.671,57.361
129145,157788,417,-0.095,1.024,0.264,0.549,0.244,0.671,57.365
129145,157823,11675,-0.096,1.025,0.259,0.122,1.098,0.671,57.371
129155,157788,417,-0.097,1.02,0.255,0.122,1.098,0.671,57.375
129155,157854,11685,-0.095,1.017,0.248,-0.366,0.915,0.305,57.381
129158,157788,417,-0.095,1.012,0.245,-0.366,0.915,0.305,57.384
129158,157892,11690,-0.09,1.011,0.248,-0.244,0.122,0.061,57.391
129170,157788,417,-0.09,1.008,0.25,-0.244,0.122,0.061,57.394
129170,157867,11681,-0.087,1.005,0.253,0.671,0.122,0.183,57.401
129155,157788,417,-0.091,1.01,0.256,0.671,0.122,0.183,57.404
129155,157842,11688,-0.098,1.014,0.26,0.61,1.098,0.244,57.41
129162,157788,417,-0.096,1.016,0.257,0.61,1.098,0.244,57.414
129162,157850,11685,-0.098,1.012,0.257,0.244,1.22,0,57.42
129184,157788,417,-0.096,1.012,0.257,0.244,1.22,0,57.424
129184,157871,11682,-0.095,1.012,0.255,0.122,1.098,-0.061,57.43
129193,157788,417,-0.094,1.013,0.244,0.122,1.098,-0.061,57.434
129193,157891,11683,-0.091,1.014,0.245,-0.122,1.098,0.183,57.44
129172,157788,417,-0.09,1.012,0.251,-0.122,1.098,0.183,57.444
129172,157878,11700,-0.09,1.01,0.25,-0.366,1.28,0.183,57.45
129195,157788,417,-0.093,1.007,0.253,-0.366,1.28,0.183,57.454
129195,157868,11672,-0.094,1.008,0.255,-1.829,1.22,0.427,57.46
129191,157788,417,-0.095,1.003,0.251,-1.829,1.22,0.427,57.464
129191,157870,11680,-0.094,0.993,0.251,-2.622,0.793,0.793,57.47
129171,157788,417,-0.093,0.99,0.244,-2.622,0.793,0.793,57.474
129171,157862,11680,-0.089,1,0.238,-0.793,0.244,0.793,57.48
129168,157788,417,-0.083,1.01,0.242,-0.793,0.244,0.793,57.483
129168,157871,11677,-0.083,1.015,0.248,1.89,0.366,0.488,57.49
129163,157788,417,-0.082,1.019,0.252,1.89,0.366,0.488,57.493
129163,157859,11705,-0.091,1.024,0.256,2.622,0.976,0.366,57.499
129170,157788,417,-0.1,1.024,0.253,2.622,0.976,0.366,57.503
129170,157857,11680,-0.105,1.016,0.25,0.122,1.159,0.549,57.509
129146,157788,417,-0.104,1.011,0.25,0.122,1.159,0.549,57.513
129146,157837,11689,-0.098,1.009,0.25,-1.707,-0.061,0.183,57.519
129150,157788,417,-0.095,1.005,0.255,-1.707,-0.061,0.183,57.523
129150,157840,11672,-0.091,1.005,0.257,-1.28,-0.671,0.122,57.529
129143,157788,417,-0.091,1.008,0.257,-1.28,-0.671,0.122,57.533
129143,157837,11679,-0.093,1.01,0.254,-0.122,0.305,-0.061,57.539
129137,157788,417,-0.097,1.012,0.256,-0.122,0.305,-0.061,57.543
129137,157828,11675,-0.096,1.012,0.258,0.732,1.28,-0.183,57.549
129117,157788,417,-0.096,1.012,0.258,0.732,1.28,-0.183,57.553
129117,157805,11661,-0.097,1.019,0.237,0.732,1.341,0.061,57.559
129110,157788,417,-0.097,1.019,0.237,0.732,1.341,0.061,57.563
129110,157829,11683,-0.089,1.013,0.251,0.122,0.61,0.122,57.569
129096,157788,417,-0.089,1.013,0.251,0.122,0.61,0.122,57.572
129096,157835,11668,-0.085,1.009,0.25,-0.915,0.122,0.061,57.579
129124,157788,417,-0.085,1.009,0.25,-0.915,0.122,0.061,57.582
129124,157816,11674,-0.088,1.007,0.248,-1.22,0.427,0.122,57.589
129103,157788,417,-0.088,1.007,0.248,-1.22,0.427,0.122,57.592
129103,157809,11688,-0.085,1.007,0.253,-0.61,0.549,0.183,57.599
129123,157788,417,-0.085,1.007,0.253,-0.61,0.549,0.183,57.602
129123,157822,11669,-0.089,1.013,0.259,0.183,0.61,0.122,57.608
129119,157788,417,-0.089,1.013,0.259,0.183,0.61,0.122,57.612
129119,157816,11669,-0.094,1.01,0.257,-0.305,1.098,0.183,57.618
129085,157788,417,-0.094,1.01,0.257,-0.305,1.098,0.183,57.622
129085,157817,11683,-0.1,1.004,0.25,-1.402,0.976,0.305,57.628
129097,157788,417,-0.1,1.004,0.25,-1.402,0.976,0.305,57.632
129097,157794,11665,-0.099,1.003,0.248,-1.768,0.061,0.488,57.638
129073,157788,417,-0.099,1.003,0.248,-1.768,0.061,0.488,57.642
129073,157790,11691,-0.092,1.012,0.25,-0.732,-0.427,0.427,57.648
129064,157788,417,-0.092,1.012,0.25,-0.732,-0.427,0.427,57.652
129064,157785,11658,-0.091,1.015,0.258,0.244,0,0.366,57.658
129061,157788,417,-0.091,1.015,0.258,0.244,0,0.366,57.662
129061,157758,11683,-0.092,1.01,0.255,0.671,0.61,0.427,57.668
129055,157788,417,-0.092,1.01,0.255,0.671,0.61,0.427,57.672
129055,157775,11667,-0.094,1.019,0.246,0.427,0.793,0.305,57.678
129054,157788,417,-0.094,1.019,0.246,0.427,0.793,0.305,57.681
129054,157766,11661,-0.093,1.019,0.249,-0.183,0.366,0.183,57.688
129045,157788,417,-0.093,1.019,0.249,-0.183,0.366,0.183,57.691
129045,157754,11670,-0.094,1.011,0.251,-0.183,0.366,0.183,57.697
129010,157788,417,-0.094,1.002,0.249,-0.488,0.061,0.244,57.701
129010,157780,11658,-0.093,0.997,0.246,-0.488,0.061,0.244,57.707
129058,157788,417,-0.098,0.997,0.239,-0.244,0.427,0.61,57.711
129058,157757,11658,-0.099,1.002,0.243,-0.244,0.427,0.61,57.717
129035,157788,417,-0.101,1.006,0.247,0.488,0.671,0.793,57.721
129035,157774,11666,-0.102,1.016,0.25,0.488,0.671,0.793,57.727
129040,157788,417,-0.098,1.022,0.246,1.159,0.427,0.427,57.731
129040,157765,11657,-0.092,1.026,0.249,1.159,0.427,0.427,57.737
129038,157788,417,-0.094,1.02,0.255,0.915,-0.061,0.122,57.741
129038,157790,11649,-0.094,1.017,0.26,0.915,-0.061,0.122,57.747
129029,157788,417,-0.092,1.014,0.26,0,0,0.122,57.751
129029,157737,11666,-0.093,1.011,0.256,0,0,0.122,57.757
128974,157788,417,-0.093,1.007,0.254,-1.22,0.427,-0.061,57.761
128974,157717,11673,-0.094,1.007,0.253,-1.22,0.427,-0.061,57.767
128982,157788,417,-0.09,1.005,0.251,-1.707,0.305,-0.305,57.771
128982,157742,11645,-0.089,1.005,0.248,-1.707,0.305,-0.305,57.777
128957,157788,417,-0.087,1.003,0.254,-1.28,-0.061,-0.061,57.78
128957,157696,11644,-0.088,1.005,0.254,-1.28,-0.061,-0.061,57.787
128958,157788,417,-0.086,1.002,0.252,-0.305,-0.061,0.122,57.79
128958,157703,11652,-0.086,1.006,0.253,-0.305,-0.061,0.122,57.796
128934,157788,417,-0.089,1.009,0.256,0.122,0.427,0.061,57.8
128934,157699,11636,-0.094,1.011,0.258,0.122,0.427,0.061,57.806
128956,157532,417,-0.094,1.011,0.255,-0.366,0.427,0.305,57.81
128956,157679,11642,-0.091,1.016,0.253,-0.366,0.427,0.305,57.816
128936,157532,417,-0.09,1.015,0.251,-0.976,0.305,0.366,57.82
128936,157693,11645,-0.088,1.011,0.254,-0.976,0.305,0.366,57.826
128954,157788,417,-0.088,1.013,0.243,-0.976,0.183,0.366,57.83
128954,157706,11661,-0.089,1.011,0.242,-0.976,0.183,0.366,57.836
128977,157788,417,-0.091,1.007,0.248,-1.037,0.366,0.549,57.84
128977,157722,11645,-0.09,1.009,0.252,-1.037,0.366,0.549,57.846
128981,157788,417,-0.092,1.011,0.247,-0.549,0.549,0.488,57.85
128981,157721,11666,-0.095,1.012,0.247,-0.549,0.549,0.488,57.856
128969,157788,417,-0.094,1.012,0.244,-0.671,0.549,0.427,57.86
128969,157734,11655,-0.092,1.017,0.25,-0.671,0.549,0.427,57.866
129007,157788,417,-0.095,1.018,0.253,-0.549,0.366,0.244,57.869
129007,157720,11653,-0.095,1.016,0.252,-0.549,0.366,0.244,57.876
128981,157788,417,-0.091,1.012,0.254,-0.183,0.183,0.061,57.879
128981,157723,11641,-0.093,1.014,0.257,-0.183,0.183,0.061,57.886
128979,157788,417,-0.095,1.013,0.257,0.244,0.427,0.061,57.889
128979,157724,11659,-0.091,1.016,0.264,0.244,0.427,0.061,57.895
128984,157788,417,-0.093,1.015,0.257,0.61,0.671,-0.122,57.899
128984,157744,11642,-0.095,1.011,0.255,0.61,0.671,-0.122,57.905
129032,157788,417,-0.099,1.008,0.251,-0.183,0.976,-0.305,57.909
129032,157768,11655,-0.099,1.007,0.249,-0.183,0.976,-0.305,57.915
129017,157788,417,-0.097,1.001,0.247,-0.61,0.549,-0.183,57.919
129017,157734,11671,-0.092,0.996,0.251,-0.61,0.549,-0.183,57.925
128994,157788,417,-0.095,1.001,0.256,-0.061,0.305,-0.122,57.929
128994,157750,11653,-0.095,1.005,0.257,-0.061,0.305,-0.122,57.935
129019,157788,417,-0.095,1.011,0.259,0.305,0.549,0,57.939
129019,157761,11658,-0.097,1.013,0.265,0.305,0.549,0,57.945
129060,157788,417,-0.097,1.008,0.262,-0.366,0.793,0.061,57.949
129060,157755,11668,-0.096,1.005,0.251,-0.366,0.793,0.061,57.955
129072,157788,417,-0.094,1.001,0.238,-0.61,0.549,0.122,57.959
129072,157822,11668,-0.094,1.001,0.24,-0.61,0.549,0.122,57.965
129102,157788,417,-0.093,1.005,0.244,-0.122,0.366,0.183,57.968
129102,157823,11676,-0.094,1.01,0.245,-0.122,0.366,0.183,57.975
129129,157788,417,-0.096,1.016,0.25,-0.366,0.244,0.549,57.978
129129,157840,11661,-0.097,1.014,0.254,-0.366,0.244,0.549,57.985
129142,157788,417,-0.096,1.012,0.262,-1.098,0.061,0.671,57.988
129142,157883,11687,-0.093,1.007,0.263,-1.098,0.061,0.671,57.994
129162,157788,417,-0.094,1.001,0.252,-0.793,0.061,0.61,57.998
129162,157870,11701,-0.096,1.004,0.245,-0.793,0.061,0.61,58.004
129163,157788,417,-0.094,1.012,0.246,-0.549,0.671,0.549,58.008
129163,157883,11670,-0.092,1.021,0.246,-0.549,0.671,0.549,58.014
129172,157788,417,-0.094,1.019,0.248,-0.427,0.61,0.366,58.018
129172,157867,11674,-0.094,1.014,0.25,-0.427,0.61,0.366,58.024
129198,157788,417,-0.096,1.006,0.255,-0.793,0.183,0.244,58.028
129198,157864,11678,-0.096,1.004,0.253,-0.793,0.183,0.244,58.034
129211,157788,417,-0.096,1.005,0.254,-1.22,-0.061,0.427,58.038
129211,157913,11696,-0.097,1.003,0.26,-1.22,-0.061,0.427,58.044
129235,157788,417,-0.094,1.001,0.258,-0.427,0.061,0.427,58.048
129235,157918,11688,-0.089,1.012,0.254,-0.427,0.061,0.427,58.054
129240,157788,417,-0.09,1.011,0.254,0.61,0.305,0.122,58.058
129240,157902,11691,-0.089,1.014,0.251,0.61,0.305,0.122,58.064
129257,157788,417,-0.088,1.009,0.252,1.707,0.427,-0.122,58.067
129257,157938,11696,-0.092,1.01,0.257,1.707,0.427,-0.122,58.074
129300,157788,417,-0.094,1.013,0.25,1.341,0.61,0.061,58.077
129300,157930,11694,-0.096,1.014,0.245,1.341,0.61,0.061,58.084
129276,158044,417,-0.098,1.012,0.256,0.122,0.427,0.122,58.087
129276,157957,11709,-0.093,1.008,0.263,0.122,0.427,0.122,58.093
129297,157788,417,-0.091,1.01,0.262,-0.061,0.061,0,58.097
129297,157943,11694,-0.091,1.014,0.256,-0.061,0.061,0,58.103
129326,158044,417,-0.09,1.013,0.251,-0.244,0.305,0.183,58.107
129326,157952,11710,-0.093,1.007,0.257,-0.244,0.305,0.183,58.113
129296,158044,417,-0.093,1.004,0.254,0.244,0.854,0.305,58.117
129296,157965,11708,-0.097,1.004,0.248,0.244,0.854,0.305,58.123
129312,157788,417,-0.096,1.003,0.242,0.244,1.159,0.183,58.127
129312,157946,11705,-0.096,1.006,0.249,0.244,1.159,0.183,58.133
129303,158044,417,-0.096,1.006,0.249,0.244,1.159,0.183,58.137
129303,157954,11697,-0.095,1.011,0.255,0.244,0.732,0.244,58.143
129294,157788,417,-0.095,1.011,0.255,0.244,0.732,0.244,58.147
129294,157950,11692,-0.091,1.015,0.246,0.183,0.366,0.183,58.153
129290,157788,417,-0.091,1.015,0.246,0.183,0.366,0.183,58.157
129290,157929,11688,-0.093,1.016,0.257,-0.122,0.305,0.183,58.163
129274,157788,417,-0.093,1.016,0.257,-0.122,0.305,0.183,58.166
129274,157928,11688,-0.091,1.012,0.25,-0.549,0.427,0.183,58.173
129264,157788,417,-0.091,1.012,0.25,-0.549,0.427,0.183,58.176
129264,157930,11703,-0.089,1.008,0.251,-0.976,0.671,0.122,58.183
129236,157788,417,-0.089,1.008,0.251,-0.976,0.671,0.122,58.186
129236,157923,11695,-0.094,1.004,0.251,-0.915,0.854,0.488,58.192
129259,157788,417,-0.094,1.004,0.251,-0.915,0.854,0.488,58.196
129259,157925,11692,-0.093,1.008,0.253,-0.61,0.793,0.61,58.202
129230,157788,417,-0.093,1.008,0.253,-0.61,0.793,0.61,58.206
129230,157906,11707,-0.095,1.018,0.252,0.061,0.671,0.305,58.212
129240,157788,417,-0.095,1.018,0.252,0.061,0.671,0.305,58.216
129240,157905,11709,-0.099,1.018,0.249,0.793,0.854,0.183,58.222
129216,157788,417,-0.099,1.018,0.249,0.793,0.854,0.183,58.226
129216,157913,11703,-0.099,1.013,0.246,0.61,0.915,0,58.232
129256,157788,417,-0.099,1.013,0.246,0.61,0.915,0,58.236
129256,157906,11694,-0.099,1.006,0.247,-0.366,0.671,-0.183,58.242
129242,157788,417,-0.099,1.006,0.247,-0.366,0.671,-0.183,58.246
129242,157933,11698,-0.096,1.004,0.25,-0.976,0.244,0.122,58.252
129232,157788,417,-0.096,1.004,0.25,-0.976,0.244,0.122,58.256
129232,157909,11684,-0.094,1.005,0.252,-1.098,0.061,0.244,58.262
129229,157788,417,-0.094,1.005,0.252,-1.098,0.061,0.244,58.265
129229,157894,11688,-0.092,1.011,0.252,-0.61,0.122,0.183,58.272
129216,157788,417,-0.092,1.011,0.252,-0.61,0.122,0.183,58.275
129216,157874,11689,-0.094,1.01,0.256,0.061,0.183,0.305,58.282
129217,157788,417,-0.095,1.01,0.257,0.061,0.183,0.305,58.285
129217,157893,11676,-0.094,1.011,0.257,0.122,0.305,0.366,58.291
129203,157788,417,-0.096,1.012,0.253,0.122,0.305,0.366,58.295
129203,157889,11689,-0.098,1.013,0.252,-0.671,0.366,0.183,58.301
129194,157788,417,-0.096,1.007,0.25,-0.671,0.366,0.183,58.305
129194,157885,11683,-0.093,1.003,0.249,-1.341,0.244,0.305,58.311
129193,157788,417,-0.097,1.001,0.248,-1.341,0.244,0.305,58.315
129193,157865,11693,-0.095,1,0.248,-1.707,0.061,0.488,58.321
129184,157788,417,-0.093,1.003,0.244,-1.707,0.061,0.488,58.325
129184,157878,11694,-0.092,1.007,0.247,-0.854,-0.305,0.427,58.331
129181,157788,417,-0.092,1.013,0.253,-0.854,-0.305,0.427,58.335
129181,157855,11694,-0.089,1.017,0.26,0.61,-0.244,0.244,58.341
129174,157788,417,-0.089,1.019,0.269,0.61,-0.244,0.244,58.345
129174,157849,11682,-0.091,1.017,0.268,1.341,0.244,0.305,58.351
129177,157788,417,-0.094,1.016,0.265,1.341,0.244,0.305,58.355
129177,157869,11670,-0.094,1.015,0.263,1.159,0.915,0.183,58.361
129174,157788,417,-0.094,1.013,0.261,1.159,0.915,0.183,58.364
129174,157855,11667,-0.093,1.016,0.255,0.915,1.28,-0.183,58.371
129165,157788,417,-0.095,1.017,0.253,0.915,1.28,-0.183,58.374
129165,157850,11687,-0.096,1.012,0.253,-0.183,1.098,-0.244,58.381
129150,157788,417,-0.096,1.004,0.249,-0.183,1.098,-0.244,58.384
129150,157845,11681,-0.095,0.997,0.247,-0.305,0.732,-0.183,58.39
129137,157788,417,-0.093,0.998,0.251,-0.305,0.732,-0.183,58.394
129137,157821,11686,-0.093,0.997,0.252,0.244,0.732,0,58.4
129166,157788,417,-0.094,1.006,0.25,0.244,0.732,0,58.404
129166,157867,11688,-0.094,1.008,0.25,0.183,1.037,0.427,58.41
129166,157788,417,-0.095,1.008,0.251,0.183,1.037,0.427,58.414
129166,157836,11669,-0.094,1.011,0.251,0.183,0.854,0.488,58.42
129159,157788,417,-0.092,1.014,0.249,0.183,0.854,0.488,58.424
129159,157824,11695,-0.09,1.011,0.247,-0.732,0.488,0.549,58.43
129172,157788,417,-0.089,1.009,0.248,-0.732,0.488,0.549,58.434
129172,157867,11690,-0.09,1.008,0.248,-1.159,0.305,0.671,58.44
129177,157788,417,-0.09,1.008,0.25,-1.159,0.305,0.671,58.444
129177,157856,11685,-0.092,1.014,0.245,-0.976,0.732,0.671,58.45
129170,157788,417,-0.091,1.019,0.247,-0.976,0.732,0.671,58.454
129170,157870,11695,-0.091,1.021,0.248,-0.549,0.793,0.549,58.46
129178,157788,417,-0.092,1.024,0.252,-0.549,0.793,0.549,58.463
129178,157866,11680,-0.093,1.018,0.255,-0.122,0.61,0.244,58.47
129186,157788,417,-0.096,1.012,0.255,-0.122,0.61,0.244,58.473
129186,157868,11673,-0.1,1.012,0.253,-0.61,0.854,0.061,58.479
129167,157788,417,-0.102,1.008,0.251,-0.61,0.854,0.061,58.483
129167,157873,11694,-0.106,1.005,0.253,-1.341,0.671,-0.061,58.489
129162,157788,417,-0.104,1,0.253,-1.341,0.671,-0.061,58.493
129162,157872,11683,-0.099,0.993,0.251,-0.183,-0.122,-0.183,58.499
129179,157788,417,-0.097,0.996,0.251,-0.183,-0.122,-0.183,58.503
129179,157862,11682,-0.096,1.003,0.249,1.707,-0.122,-0.183,58.509
129163,157788,417,-0.09,1.008,0.247,1.707,-0.122,-0.183,58.513
129163,157871,11683,-0.094,1.014,0.254,2.378,0.427,0.061,58.519
129170,157788,417,-0.094,1.021,0.254,2.378,0.427,0.061,58.523
129170,157874,11674,-0.094,1.024,0.253,0.793,0.793,0.244,58.529
129185,157788,417,-0.098,1.017,0.251,0.793,0.793,0.244,58.533
129185,157854,11687,-0.097,1.006,0.248,-1.646,0.122,0.122,58.539
129171,157788,417,-0.094,0.997,0.245,-1.646,0.122,0.122,58.543
129171,157897,11685,-0.094,0.999,0.245,-3.11,-0.488,0.427,58.549
129172,157788,417,-0.094,1.003,0.25,-3.11,-0.488,0.427,58.552
129172,157861,11688,-0.095,1.001,0.253,-2.561,-0.671,0.732,58.559
129186,157788,417,-0.092,1.005,0.258,-2.561,-0.671,0.732,58.562
129186,157869,11680,-0.093,1.014,0.261,0.61,-0.244,0.488,58.569
129171,157788,417,-0.094,1.019,0.26,0.61,-0.244,0.488,58.572
129171,157842,11675,-0.096,1.024,0.26,3.171,0.793,0,58.578
129148,157788,417,-0.097,1.027,0.257,3.171,0.793,0,58.582
129148,157866,11691,-0.1,1.027,0.257,3.171,1.524,-0.122,58.588
129167,157788,417,-0.1,1.025,0.26,3.171,1.524,-0.122,58.592
129167,157873,11680,-0.1,1.02,0.258,0.488,1.402,0,58.598
129162,157788,417,-0.1,1.012,0.252,0.488,1.402,0,58.602
129162,157857,11693,-0.097,1.004,0.247,-2.378,0.549,0.061,58.608
129135,157788,417,-0.097,0.992,0.25,-2.378,0.549,0.061,58.612
129135,157842,11681,-0.093,0.985,0.25,-2.683,-0.244,0,58.618
129123,157788,417,-0.092,0.986,0.252,-2.683,-0.244,0,58.622
129123,157836,11681,-0.093,0.993,0.25,-0.671,0,0.061,58.628
129153,157788,417,-0.092,1,0.251,-0.671,0,0.061,58.632
129153,157825,11694,-0.095,1.007,0.252,1.159,0.793,0.183,58.638
129152,157788,417,-0.095,1.013,0.251,1.159,0.793,0.183,58.642
129152,157856,11669,-0.097,1.017,0.251,1.585,0.915,0.366,58.648
129168,157788,417,-0.096,1.019,0.253,1.585,0.915,0.366,58.651
129168,157867,11681,-0.095,1.019,0.251,0.488,0.305,0.366,58.658
129158,157788,417,-0.093,1.017,0.244,0.488,0.305,0.366,58.661
129158,157863,11684,-0.091,1.016,0.246,-1.341,-0.122,0.183,58.668
129173,157788,417,-0.09,1.011,0.25,-1.341,-0.122,0.183,58.671
129173,157830,11678,-0.092,1.01,0.251,-1.768,-0.122,0.305,58.677
129170,157788,417,-0.092,1.013,0.25,-1.768,-0.122,0.305,58.681
129170,157854,11690,-0.093,1.013,0.252,-1.341,0.183,0.488,58.687
129173,157788,417,-0.095,1.013,0.255,-1.341,0.183,0.488,58.691
129173,157853,11688,-0.095,1.008,0.254,-0.366,0.549,0.305,58.697
129139,157788,417,-0.099,1.009,0.255,-0.366,0.549,0.305,58.701
129139,157857,11702,-0.098,1.009,0.254,0.061,0.854,0.244,58.707
129174,157788,417,-0.098,1.009,0.254,0.061,0.854,0.244,58.711
129174,157844,11679,-0.101,1.017,0.25,-0.305,0.854,0.305,58.717
129161,157788,417,-0.101,1.017,0.25,-0.305,0.854,0.305,58.721
129161,157870,11671,-0.1,1.017,0.25,-0.793,0.488,0.183,58.727
129159,157788,417,-0.1,1.017,0.25,-0.793,0.488,0.183,58.731
129159,157870,11687,-0.097,1.002,0.245,-0.61,0.061,0.061,58.737
129139,157788,417,-0.097,1.002,0.245,-0.61,0.061,0.061,58.741
129139,157864,11688,-0.092,0.997,0.244,0,0,0.183,58.747
129155,157788,417,-0.092,0.997,0.244,0,0,0.183,58.75
129155,157857,11685,-0.095,1.004,0.251,0.854,0.244,0.427,58.757
129145,157788,417,-0.095,1.004,0.251,0.854,0.244,0.427,58.76
129145,157881,11685,-0.094,1.016,0.257,1.159,0.305,0.366,58.767
129150,157788,417,-0.094,1.016,0.257,1.159,0.305,0.366,58.77
129150,157856,11674,-0.091,1.015,0.254,0.366,0.183,0.305,58.776
129136,157788,417,-0.091,1.015,0.254,0.366,0.183,0.305,58.78
129136,157858,11682,-0.094,1.008,0.259,-0.976,0.122,0.366,58.786
129173,157788,417,-0.094,1.008,0.259,-0.976,0.122,0.366,58.79
129173,157852,11686,-0.097,1.008,0.257,-2.012,0.183,0.305,58.796
129157,157788,417,-0.097,1.008,0.257,-2.012,0.183,0.305,58.8
129157,157851,11683,-0.095,1.005,0.252,-2.012,0.183,0.061,58.806
129138,157788,417,-0.095,1.005,0.252,-2.012,0.183,0.061,58.81
129138,157843,11682,-0.098,1.002,0.252,-0.732,0.366,0,58.816
129169,157788,417,-0.098,1.002,0.252,-0.732,0.366,0,58.82
