121902,152668,417,-0.067,1.019,0.213,2.073,-1.22,1.22,195.041
121902,152744,10785,-0.064,1.028,0.222,2.073,-1.22,1.22,195.047
121888,152668,417,-0.065,1.026,0.236,1.524,-2.012,1.829,195.05
121888,152733,10778,-0.069,1.026,0.238,1.524,-2.012,1.829,195.057
121885,152668,417,-0.07,1.036,0.237,0.122,-2.195,2.012,195.06
121885,152756,10772,-0.071,1.031,0.255,0.122,-2.195,2.012,195.066
121886,152668,417,-0.073,1.011,0.277,0.671,-1.829,1.768,195.07
121886,152758,10779,-0.072,1.011,0.274,0.671,-1.829,1.768,195.076
121885,152668,417,-0.076,1.03,0.264,0.976,-1.341,1.89,195.08
121885,152752,10776,-0.076,1.044,0.253,0.976,-1.341,1.89,195.086
121891,152668,417,-0.073,1.037,0.238,-2.378,-0.61,1.707,195.09
121891,152722,10766,-0.07,1.016,0.227,-2.378,-0.61,1.707,195.096
121888,152668,417,-0.069,1.001,0.221,-5.549,-0.976,1.707,195.1
121888,152741,10771,-0.069,0.991,0.219,-5.549,-0.976,1.707,195.106
121898,152668,417,-0.07,0.983,0.212,-6.341,-1.463,2.195,195.11
121898,152781,10781,-0.067,0.986,0.21,-6.341,-1.463,2.195,195.116
121945,152668,417,-0.064,1.011,0.208,-3.963,-1.037,1.829,195.12
121945,152800,10794,-0.063,1.033,0.218,-3.963,-1.037,1.829,195.126
121968,152668,417,-0.056,1.048,0.233,-2.256,-0.854,1.646,195.13
121968,152821,10788,-0.056,1.042,0.245,-2.256,-0.854,1.646,195.136
122003,152668,417,-0.055,1.027,0.246,-2.195,-0.976,1.341,195.139
122003,152817,10788,-0.055,1.017,0.236,-2.195,-0.976,1.341,195.146
121996,152924,417,-0.065,1.019,0.25,-2.561,-0.366,0.976,195.149
121996,152835,10800,-0.069,1.02,0.273,-2.561,-0.366,0.976,195.156
121996,152668,417,-0.067,1.011,0.278,-0.244,0.671,0.488,195.159
121996,152830,10794,-0.06,1.014,0.252,-0.244,0.671,0.488,195.165
121978,152668,417,-0.062,1.028,0.243,2.012,1.646,-0.122,195.169
121978,152816,10783,-0.069,1.042,0.255,2.012,1.646,-0.122,195.175
121969,152668,417,-0.074,1.036,0.244,1.159,2.378,-0.061,195.179
121969,152793,10797,-0.078,1.016,0.223,1.159,2.378,-0.061,195.185
121952,152668,417,-0.075,0.994,0.221,-1.524,1.951,0.183,195.189
121952,152801,10780,-0.071,0.986,0.216,-1.524,1.951,0.183,195.195
121957,152668,417,-0.068,0.998,0.211,-2.439,1.098,0.915,195.199
121957,152814,10780,-0.06,1.01,0.202,-2.439,1.098,0.915,195.205
121949,152668,417,-0.059,1.012,0.21,-2.317,0.793,1.159,195.209
121949,152798,10789,-0.063,1.018,0.217,-2.317,0.793,1.159,195.215
121985,152668,417,-0.061,1.026,0.218,-2.317,0.244,1.402,195.219
121985,152806,10794,-0.061,1.018,0.228,-2.317,0.244,1.402,195.225
121971,152668,417,-0.065,1.014,0.235,-2.805,-0.305,1.524,195.229
121971,152814,10776,-0.065,1.016,0.233,-2.805,-0.305,1.524,195.235
121957,152668,417,-0.067,1.016,0.238,-2.988,-0.366,1.463,195.238
121957,152804,10785,-0.069,1.017,0.242,-2.988,-0.366,1.463,195.245
121941,152668,417,-0.071,1.025,0.246,-1.951,0.183,0.976,195.248
121941,152812,10794,-0.074,1.025,0.251,-1.951,0.183,0.976,195.255
121961,152668,417,-0.076,1.02,0.254,-0.671,0.732,0.671,195.258
121961,152797,10790,-0.077,1.021,0.245,-0.671,0.732,0.671,195.264
121930,152668,417,-0.077,1.025,0.243,-0.427,1.159,0.427,195.268
121930,152783,10778,-0.074,1.02,0.245,-0.427,1.159,0.427,195.274
121938,152668,417,-0.071,1.01,0.24,0.244,1.159,0.122,195.278
121938,152799,10789,-0.073,1.006,0.239,0.244,1.159,0.122,195.284
121914,152668,417,-0.073,1.01,0.234,0.671,1.159,0.183,195.288
121914,152754,10779,-0.069,1.013,0.232,0.671,1.159,0.183,195.294
121890,152668,417,-0.067,1.011,0.228,0.793,1.22,0.305,195.298
121890,152764,10782,-0.066,1.008,0.231,0.793,1.22,0.305,195.304
121880,152668,417,-0.066,1.007,0.229,1.402,0.793,0.427,195.308
121880,152752,10770,-0.066,1.014,0.221,1.402,0.793,0.427,195.314
121848,152668,417,-0.066,1.026,0.224,0.793,0.61,0.671,195.318
121848,152719,10772,-0.063,1.028,0.227,0.793,0.61,0.671,195.324
121807,152668,417,-0.058,1.016,0.229,-1.159,-0.061,0.732,195.328
121807,152681,10765,-0.058,1.006,0.228,-1.159,-0.061,0.732,195.334
121747,152668,417,-0.065,1.002,0.233,-2.073,-0.549,1.098,195.337
121747,152628,10753,-0.068,1.005,0.237,-2.073,-0.549,1.098,195.344
121694,152668,417,-0.069,1.013,0.237,-1.768,-0.061,1.22,195.347
121694,152590,10731,-0.069,1.022,0.239,-1.768,-0.061,1.22,195.354
121655,152412,417,-0.071,1.026,0.242,-0.793,0.061,0.854,195.357
121655,152549,10736,-0.074,1.026,0.254,-0.793,0.061,0.854,195.363
121636,152412,417,-0.079,1.021,0.259,-0.488,0.061,0.854,195.367
121636,152555,10740,-0.072,1.015,0.249,-0.488,0.061,0.854,195.373
121595,152412,417,-0.071,1.012,0.236,-0.732,0.244,0.488,195.377
121595,152548,10736,-0.071,1.022,0.236,-0.732,0.244,0.488,195.383
121590,152412,417,-0.069,1.025,0.24,-0.366,0.488,0.305,195.387
121590,152522,10745,-0.067,1.02,0.24,-0.366,0.488,0.305,195.393
121559,152412,417,-0.067,1.02,0.24,-0.366,0.488,0.305,195.397
121559,152514,10735,-0.064,1.01,0.224,-0.061,0.427,0.122,195.403
121552,152412,417,-0.064,1.01,0.224,-0.061,0.427,0.122,195.407
121552,152525,10742,-0.06,1.02,0.241,0.183,0.244,-0.061,195.413
121556,152412,417,-0.06,1.02,0.241,0.183,0.244,-0.061,195.417
121556,152511,10716,-0.061,1.012,0.239,0.427,0.305,0,195.423
121555,152412,417,-0.061,1.012,0.239,0.427,0.305,0,195.427
121555,152528,10718,-0.062,1.028,0.239,0.976,0.488,-0.122,195.433
121541,152412,417,-0.062,1.028,0.239,0.976,0.488,-0.122,195.436
121541,152496,10731,-0.06,1.022,0.246,0.793,0.61,-0.183,195.443
121567,152412,417,-0.06,1.022,0.246,0.793,0.61,-0.183,195.446
121567,152552,10732,-0.065,1.015,0.25,0.854,0.549,-0.183,195.452
121569,152412,417,-0.065,1.015,0.25,0.854,0.549,-0.183,195.456
121569,152542,10740,-0.065,1.012,0.248,0.488,0.732,0.061,195.462
121543,152412,417,-0.065,1.012,0.248,0.488,0.732,0.061,195.466
121543,152515,10745,-0.065,1.011,0.239,-0.122,0.976,0.061,195.472
121533,152412,417,-0.065,1.011,0.239,-0.122,0.976,0.061,195.476
121533,152524,10733,-0.067,1.015,0.229,-0.61,0.976,0.244,195.482
121567,152412,417,-0.067,1.015,0.229,-0.61,0.976,0.244,195.486
121567,152527,10724,-0.068,1.01,0.229,-1.22,0.671,0.549,195.492
121542,152412,417,-0.068,1.01,0.229,-1.22,0.671,0.549,195.496
121542,152542,10735,-0.073,1.016,0.219,-1.89,0.427,0.915,195.502
121524,152412,417,-0.073,1.016,0.219,-1.89,0.427,0.915,195.506
121524,152488,10714,-0.074,1.025,0.232,-2.622,0.061,0.732,195.512
121491,152412,417,-0.074,1.025,0.232,-2.622,0.061,0.732,195.516
121491,152489,10729,-0.076,1.026,0.231,-3.963,-0.549,0.854,195.522
121511,152412,417,-0.076,1.026,0.231,-3.963,-0.549,0.854,195.525
121511,152490,10725,-0.075,1.019,0.239,-5.732,-0.915,1.037,195.532
121504,152412,417,-0.075,1.019,0.239,-5.732,-0.915,1.037,195.535
121504,152481,10714,-0.075,1.012,0.241,-5.793,-1.159,1.037,195.542
121468,152412,417,-0.073,1.002,0.246,-5.793,-1.159,1.037,195.545
121468,152480,10748,-0.068,0.999,0.243,-3.659,-0.854,0.915,195.551
121481,152412,417,-0.072,1.015,0.245,-3.659,-0.854,0.915,195.555
121481,152467,10721,-0.073,1.026,0.255,-1.585,-0.183,0.854,195.561
121478,152412,417,-0.073,1.026,0.246,-1.585,-0.183,0.854,195.565
121478,152472,10721,-0.07,1.023,0.238,-0.427,-0.061,0.61,195.571
121464,152412,417,-0.068,1.016,0.239,-0.427,-0.061,0.61,195.575
121464,152482,10723,-0.068,1.009,0.24,0,-0.61,0.915,195.581
121451,152412,417,-0.065,1.005,0.236,0,-0.61,0.915,195.585
121451,152462,10712,-0.057,1.01,0.234,0.122,-0.732,0.915,195.591
121448,152412,417,-0.056,1.015,0.235,0.122,-0.732,0.915,195.595
121448,152472,10734,-0.061,1.02,0.224,0.366,-0.61,0.671,195.601
121420,152412,417,-0.062,1.027,0.22,0.366,-0.61,0.671,195.605
121420,152461,10717,-0.064,1.028,0.227,-0.244,-0.61,0.671,195.611
121438,152412,417,-0.067,1.021,0.229,-0.244,-0.61,0.671,195.615
121438,152462,10709,-0.064,1.015,0.233,-1.402,-1.098,0.549,195.621
121442,152412,417,-0.064,1.018,0.236,-1.402,-1.098,0.549,195.624
121442,152465,10716,-0.068,1.019,0.242,-2.622,-1.341,0.671,195.631
121444,152412,417,-0.072,1.012,0.255,-2.622,-1.341,0.671,195.634
121444,152455,10708,-0.068,1.002,0.277,-1.768,-0.793,0.854,195.641
121449,152412,417,-0.067,0.997,0.28,-1.768,-0.793,0.854,195.644
121449,152436,10712,-0.069,1.016,0.26,0.488,0.122,0.61,195.65
121450,152412,417,-0.075,1.036,0.245,0.488,0.122,0.61,195.654
121450,152473,10715,-0.077,1.042,0.249,-0.427,1.037,0.488,195.66
121483,152412,417,-0.074,1.025,0.255,-0.427,1.037,0.488,195.664
121483,152474,10721,-0.067,0.998,0.26,-0.854,0.366,0.488,195.67
121506,152412,417,-0.063,0.991,0.26,-0.854,0.366,0.488,195.674
121506,152480,10720,-0.059,0.998,0.246,-0.854,0,0.854,195.68
121539,152412,417,-0.059,1.007,0.23,-0.854,0,0.854,195.684
121539,152501,10724,-0.055,1.012,0.207,-1.463,0.671,0.793,195.69
121537,152412,417,-0.059,1.018,0.191,-1.463,0.671,0.793,195.694
121537,152525,10738,-0.057,1.019,0.198,-1.585,0.122,0.915,195.7
121539,152412,417,-0.051,1.011,0.218,-1.585,0.122,0.915,195.704
121539,152547,10729,-0.049,1.005,0.234,-1.463,-1.585,1.159,195.71
121565,152412,417,-0.054,1.012,0.244,-1.463,-1.585,1.159,195.714
121565,152545,10735,-0.058,1.026,0.249,-0.671,-1.341,1.159,195.72
121561,152412,417,-0.066,1.04,0.258,-0.671,-1.341,1.159,195.723
121561,152530,10735,-0.07,1.044,0.263,0.671,-0.183,0.427,195.73
121538,152412,417,-0.075,1.031,0.27,0.671,-0.183,0.427,195.733
121538,152532,10727,-0.079,1.014,0.275,1.098,0.366,-0.122,195.74
121523,152412,417,-0.077,1.007,0.27,1.098,0.366,-0.122,195.743
121523,152522,10725,-0.079,1.004,0.255,0.549,0.976,0.061,195.749
121512,152412,417,-0.077,1.004,0.247,0.549,0.976,0.061,195.753
121512,152483,10734,-0.076,1.005,0.248,1.28,1.829,0.061,195.759
121524,152412,417,-0.073,1.011,0.251,1.28,1.829,0.061,195.763
121524,152519,10730,-0.074,1.016,0.243,2.134,1.768,0.488,195.769
121524,152412,417,-0.069,1.016,0.244,2.134,1.768,0.488,195.773
121524,152487,10724,-0.062,1.014,0.232,0.854,1.707,0.61,195.779
121477,152412,417,-0.056,1.012,0.216,0.854,1.707,0.61,195.783
121477,152431,10734,-0.054,1.017,0.211,-0.061,1.402,0.671,195.789
121407,152412,417,-0.051,1.029,0.211,-0.061,1.402,0.671,195.793
121407,152404,10707,-0.051,1.021,0.213,-1.402,0.549,0.854,195.799
121318,152412,417,-0.045,1.004,0.211,-1.402,0.549,0.854,195.803
121318,152348,10708,-0.05,1.002,0.218,-1.037,-0.305,0.793,195.809
121243,152156,417,-0.057,1.018,0.229,-1.037,-0.305,0.793,195.813
121243,152297,10692,-0.062,1.032,0.244,0.061,-0.244,0.671,195.819
121182,152156,417,-0.063,1.034,0.271,0.061,-0.244,0.671,195.822
121182,152227,10687,-0.065,1.022,0.283,1.89,0.061,0.305,195.829
121096,152156,417,-0.073,1.017,0.284,1.89,0.061,0.305,195.832
121096,152167,10679,-0.075,1.018,0.278,1.707,0.915,0.244,195.838
121000,152156,417,-0.078,1.021,0.276,1.707,0.915,0.244,195.842
121000,152101,10663,-0.076,1.012,0.274,0.366,1.829,-0.244,195.848
120913,151900,417,-0.073,1.001,0.268,0.366,1.829,-0.244,195.852
120913,152013,10634,-0.071,0.994,0.248,0.549,1.951,-0.061,195.858
120799,151900,417,-0.072,1.001,0.231,0.549,1.951,-0.061,195.862
120799,151917,10642,-0.071,1.008,0.215,0.366,2.317,0.183,195.868
120694,151900,417,-0.072,1.006,0.195,0.366,2.317,0.183,195.872
120694,151854,10618,-0.071,1.008,0.179,-0.183,1.89,0.244,195.878
120599,151644,417,-0.064,1.017,0.182,-0.183,1.89,0.244,195.882
120599,151751,10605,-0.058,1.029,0.196,-0.549,0.244,0.793,195.888
120487,151644,417,-0.052,1.027,0.217,-0.549,0.244,0.793,195.892
120487,151691,10596,-0.051,1.022,0.225,-0.549,-0.976,0.976,195.898
120388,151644,417,-0.058,1.026,0.23,-0.549,-0.976,0.976,195.902
120388,151606,10558,-0.064,1.037,0.241,-1.28,-0.732,0.793,195.908
120317,151644,417,-0.069,1.039,0.243,-1.28,-0.732,0.793,195.911
120317,151556,10573,-0.071,1.031,0.249,-1.341,-0.305,0.061,195.918
120245,151388,417,-0.071,1.015,0.262,-1.341,-0.305,0.061,195.921
120245,151501,10560,-0.072,1.006,0.268,0.671,-0.061,-0.305,195.928
120233,151388,417,-0.077,1.012,0.266,0.671,-0.061,-0.305,195.931
120233,151485,10567,-0.08,1.011,0.26,1.341,0.915,-0.244,195.937
120202,151388,417,-0.078,1.009,0.258,1.341,0.915,-0.244,195.941
120202,151459,10560,-0.075,1,0.254,1.829,1.159,-0.61,195.947
120174,151388,417,-0.074,0.993,0.242,1.829,1.159,-0.61,195.951
120174,151458,10552,-0.069,0.995,0.244,2.317,1.22,-0.061,195.957
120173,151388,417,-0.067,0.993,0.23,2.317,1.22,-0.061,195.961
120173,151451,10566,-0.066,0.998,0.21,1.402,1.28,0.488,195.967
120219,151388,417,-0.066,0.998,0.21,1.402,1.28,0.488,195.971
120219,151467,10557,-0.056,1.025,0.195,-0.488,0.427,1.037,195.977
120215,151388,417,-0.056,1.025,0.195,-0.488,0.427,1.037,195.981
120215,151462,10548,-0.047,1.018,0.225,-1.037,-1.159,1.463,195.987
120175,151388,417,-0.047,1.018,0.225,-1.037,-1.159,1.463,195.991
120175,151421,10561,-0.051,1.022,0.262,-0.305,-1.22,1.402,195.997
120154,151388,417,-0.051,1.022,0.262,-0.305,-1.22,1.402,196.001
120154,151429,10549,-0.064,1.037,0.275,1.159,0.122,0.61,196.007
120125,151388,417,-0.064,1.037,0.275,1.159,0.122,0.61,196.01
120125,151403,10565,-0.075,1.045,0.266,1.037,0.915,-0.061,196.017
120129,151388,417,-0.075,1.045,0.266,1.037,0.915,-0.061,196.02
120129,151408,10543,-0.073,1.018,0.256,-0.427,1.098,-0.183,196.027
120137,151388,417,-0.073,1.018,0.256,-0.427,1.098,-0.183,196.03
120137,151396,10546,-0.07,0.995,0.243,-0.61,1.646,-0.305,196.036
120113,151388,417,-0.07,0.995,0.243,-0.61,1.646,-0.305,196.04
120113,151389,10540,-0.074,0.997,0.226,0.549,2.073,0,196.046
120078,151388,417,-0.074,0.997,0.226,0.549,2.073,0,196.05
120078,151398,10550,-0.067,1.006,0.212,0.915,1.829,0.122,196.056
120105,151388,417,-0.067,1.006,0.212,0.915,1.829,0.122,196.06
120105,151401,10545,-0.057,1.02,0.221,0.61,0.915,0.427,196.066
120108,151388,417,-0.057,1.02,0.221,0.61,0.915,0.427,196.07
120108,151410,10538,-0.06,1.013,0.245,0.488,0.549,0.671,196.076
120107,151388,417,-0.06,1.013,0.245,0.488,0.549,0.671,196.08
120107,151419,10548,-0.063,1.033,0.246,0.183,0.915,0.488,196.086
120138,151388,417,-0.063,1.033,0.246,0.183,0.915,0.488,196.09
120138,151437,10545,-0.068,1.034,0.261,-0.183,1.22,0.061,196.096
120134,151388,417,-0.068,1.034,0.261,-0.183,1.22,0.061,196.1
120134,151434,10550,-0.07,1.012,0.271,-0.488,1.402,-0.061,196.106
120109,151388,417,-0.07,1.012,0.271,-0.488,1.402,-0.061,196.109
120109,151436,10543,-0.07,1.012,0.255,-0.488,1.402,-0.061,196.116
120136,151388,417,-0.068,1.017,0.234,-0.671,1.89,-0.305,196.119
120136,151444,10546,-0.064,1.018,0.233,-0.671,1.89,-0.305,196.126
120130,151388,417,-0.065,1.013,0.23,-0.549,2.195,-0.488,196.129
120130,151435,10543,-0.068,1.009,0.225,-0.549,2.195,-0.488,196.135
120161,151388,417,-0.069,1.003,0.22,-0.976,1.524,-0.122,196.139
120161,151456,10554,-0.065,1.004,0.213,-0.976,1.524,-0.122,196.145
120195,151388,417,-0.058,1.01,0.203,-1.951,0.366,0,196.149
120195,151473,10566,-0.056,1.008,0.213,-1.951,0.366,0,196.155
120247,151644,417,-0.061,1.012,0.217,-1.768,-0.244,0.488,196.159
120247,151556,10563,-0.066,1.016,0.207,-1.768,-0.244,0.488,196.165
120297,151644,417,-0.062,1.013,0.213,-1.768,-0.549,0.488,196.169
120297,151565,10584,-0.063,1.02,0.226,-1.768,-0.549,0.488,196.175
120294,151644,417,-0.07,1.022,0.237,-1.341,-1.098,0.305,196.179
120294,151570,10565,-0.07,1.016,0.242,-1.341,-1.098,0.305,196.185
120335,151644,417,-0.074,1.015,0.246,-1.159,-1.037,0.488,196.189
120335,151588,10579,-0.078,1.023,0.256,-1.159,-1.037,0.488,196.195
120318,151644,417,-0.079,1.032,0.265,-1.341,-0.366,0.366,196.199
120318,151573,10574,-0.077,1.032,0.265,-1.341,-0.366,0.366,196.205
120308,151644,417,-0.073,1.028,0.262,-0.671,0.183,-0.122,196.208
120308,151563,10585,-0.067,1.023,0.273,-0.671,0.183,-0.122,196.215
120256,151644,417,-0.068,1.015,0.281,1.463,0.671,-0.427,196.218
120256,151568,10579,-0.07,1.009,0.275,1.463,0.671,-0.427,196.225
120274,151388,417,-0.068,1.014,0.249,1.646,1.524,-0.305,196.228
120274,151536,10561,-0.065,1.015,0.228,1.646,1.524,-0.305,196.234
120235,151388,417,-0.06,1.012,0.212,-0.305,1.646,-0.427,196.238
120235,151550,10575,-0.058,1.013,0.192,-0.305,1.646,-0.427,196.244
120294,151644,417,-0.057,1.01,0.195,-1.951,0.305,0.061,196.248
120294,151556,10575,-0.049,0.995,0.205,-1.951,0.305,0.061,196.254
120303,151644,417,-0.049,0.994,0.216,-2.256,-1.159,0.488,196.258
120303,151603,10567,-0.053,1.005,0.217,-2.256,-1.159,0.488,196.264
120339,151644,417,-0.059,1.01,0.226,-1.646,-1.402,0.793,196.268
120339,151579,10582,-0.067,1.012,0.24,-1.646,-1.402,0.793,196.274
120324,151644,417,-0.071,1.012,0.248,-0.427,-1.037,0.976,196.278
120324,151615,10577,-0.076,1.017,0.267,-0.427,-1.037,0.976,196.284
120344,151644,417,-0.08,1.023,0.288,0.244,-0.549,0.915,196.288
120344,151614,10585,-0.087,1.026,0.305,0.244,-0.549,0.915,196.294
120373,151644,417,-0.093,1.016,0.324,-0.061,0.793,1.463,196.298
120373,151633,10583,-0.092,0.992,0.318,-0.061,0.793,1.463,196.304
120372,151644,417,-0.087,0.981,0.277,0.427,2.256,1.89,196.307
120372,151666,10591,-0.084,0.996,0.262,0.427,2.256,1.89,196.314
120392,151644,417,-0.082,1.014,0.257,-0.488,2.927,2.134,196.317
120392,151637,10596,-0.08,1.012,0.248,-0.488,2.927,2.134,196.324
120434,151644,417,-0.074,0.993,0.23,-2.378,2.073,2.683,196.327
120434,151664,10614,-0.068,0.984,0.224,-2.378,2.073,2.683,196.333
120469,151644,417,-0.061,1.001,0.217,-3.293,1.098,3.598,196.337
120469,151707,10596,-0.054,1.024,0.206,-3.293,1.098,3.598,196.343
120507,151644,417,-0.046,1.04,0.206,-3.598,0,3.354,196.347
120507,151741,10581,-0.036,1.046,0.206,-3.598,0,3.354,196.353
120532,151644,417,-0.033,1.044,0.216,-3.354,-1.89,2.683,196.357
120532,151776,10608,-0.039,1.038,0.226,-3.354,-1.89,2.683,196.363
120631,151900,417,-0.039,1.034,0.225,-2.927,-2.683,2.317,196.367
120631,151824,10611,-0.044,1.039,0.228,-2.927,-2.683,2.317,196.373
120683,151900,417,-0.049,1.044,0.232,-2.744,-1.524,1.341,196.377
120683,151891,10635,-0.053,1.041,0.243,-2.744,-1.524,1.341,196.383
120755,151900,417,-0.061,1.019,0.247,-2.622,-0.488,0.854,196.387
120755,151919,10629,-0.066,1.007,0.241,-2.622,-0.488,0.854,196.393
120862,151900,417,-0.075,1.008,0.245,-3.11,0.305,0.671,196.396
120862,152015,10654,-0.078,1.004,0.247,-3.11,0.305,0.671,196.403
120950,152156,417,-0.077,0.99,0.235,-2.866,0.854,0.549,196.406
120950,152070,10667,-0.078,0.986,0.228,-2.866,0.854,0.549,196.413
120995,152156,417,-0.081,1.002,0.233,-1.89,0.854,0.976,196.416
120995,152118,10669,-0.083,1.005,0.237,-1.89,0.854,0.976,196.422
121080,152156,417,-0.078,0.998,0.234,-1.402,0.732,1.28,196.426
121080,152198,10699,-0.07,0.998,0.235,-1.402,0.732,1.28,196.432
121154,152156,417,-0.065,1.004,0.245,-0.671,0.244,1.341,196.436
121154,152238,10701,-0.066,1.011,0.258,-0.671,0.244,1.341,196.442
121201,152156,417,-0.064,1.017,0.26,0.366,0.305,1.951,196.446
121201,152291,10691,-0.057,1.016,0.271,0.366,0.305,1.951,196.452
121250,152412,417,-0.057,1.026,0.269,1.159,1.037,1.768,196.456
121250,152321,10711,-0.058,1.032,0.262,1.159,1.037,1.768,196.462
121320,152412,417,-0.059,1.035,0.261,0.183,1.585,1.463,196.466
121320,152376,10712,-0.059,1.029,0.251,0.183,1.585,1.463,196.472
121349,152412,417,-0.059,1.03,0.242,-0.305,1.89,1.098,196.476
121349,152416,10734,-0.058,1.031,0.245,-0.305,1.89,1.098,196.482
121418,152412,417,-0.056,1.021,0.25,-1.22,1.829,0.976,196.486
121418,152443,10729,-0.057,1.004,0.244,-1.22,1.829,0.976,196.492
121422,152412,417,-0.056,0.996,0.227,-1.768,1.524,0.976,196.495
121422,152451,10743,-0.054,1.002,0.218,-1.768,1.524,0.976,196.502
121468,152412,417,-0.057,1.014,0.222,-0.915,1.341,0.61,196.505
121468,152510,10727,-0.057,1.018,0.223,-0.915,1.341,0.61,196.512
121484,152412,417,-0.058,1.02,0.225,0.305,1.037,0.671,196.515
121484,152500,10742,-0.06,1.015,0.243,0.305,1.037,0.671,196.521
121530,152412,417,-0.063,1.006,0.266,0.915,0.488,0.976,196.525
121530,152545,10728,-0.063,1.011,0.271,0.915,0.488,0.976,196.531
121499,152412,417,-0.062,1.017,0.256,2.439,1.037,0.488,196.535
121499,152515,10736,-0.06,1.026,0.253,2.439,1.037,0.488,196.541
121490,152412,417,-0.06,1.026,0.253,2.439,1.037,0.488,196.545
121490,152508,10734,-0.068,1.041,0.247,2.927,1.768,0.061,196.551
121461,152412,417,-0.068,1.041,0.247,2.927,1.768,0.061,196.555
121461,152503,10740,-0.064,0.998,0.244,0.488,1.707,0.122,196.561
121434,152412,417,-0.064,0.998,0.244,0.488,1.707,0.122,196.565
121434,152474,10726,-0.064,0.996,0.244,-0.549,1.22,0.122,196.571
121377,152412,417,-0.064,0.996,0.244,-0.549,1.22,0.122,196.575
121377,152420,10723,-0.063,1.023,0.22,0.183,1.524,0.427,196.581
121363,152412,417,-0.063,1.023,0.22,0.183,1.524,0.427,196.585
121363,152426,10737,-0.064,1.011,0.218,0.183,1.463,0.305,196.591
121375,152412,417,-0.064,1.011,0.218,0.183,1.463,0.305,196.594
121375,152431,10722,-0.059,1.008,0.229,-0.793,0.366,0.915,196.601
121370,152412,417,-0.059,1.008,0.229,-0.793,0.366,0.915,196.604
121370,152405,10717,-0.059,1.008,0.231,-1.646,-0.305,1.159,196.611
121329,152412,417,-0.059,1.008,0.231,-1.646,-0.305,1.159,196.614
121329,152411,10715,-0.065,1.025,0.25,0.122,-0.549,0.976,196.62
121277,152412,417,-0.065,1.025,0.25,0.122,-0.549,0.976,196.624
121277,152347,10712,-0.065,1.038,0.261,2.134,-0.61,0.61,196.63
121175,152156,417,-0.065,1.038,0.261,2.134,-0.61,0.61,196.634
121175,152268,10681,-0.063,1.02,0.257,3.049,-0.183,0.244,196.64
121040,152156,417,-0.063,1.02,0.257,3.049,-0.183,0.244,196.644
121040,152125,10686,-0.063,1.016,0.259,2.927,0.61,0.061,196.65
120926,151900,417,-0.063,1.016,0.259,2.927,0.61,0.061,196.654
120926,152039,10652,-0.057,1.002,0.238,2.134,1.098,-0.122,196.66
120787,151900,417,-0.057,1.002,0.238,2.134,1.098,-0.122,196.664
120787,151937,10635,-0.052,1.013,0.234,2.012,1.098,0,196.67
120702,151900,417,-0.052,1.013,0.234,2.012,1.098,0,196.674
120702,151892,10634,-0.057,1.009,0.21,1.341,1.159,0.366,196.68
120639,151900,417,-0.057,1.009,0.21,1.341,1.159,0.366,196.684
120639,151849,10621,-0.063,1.016,0.203,-0.854,0.427,0.854,196.69
120655,151900,417,-0.061,1.014,0.21,-0.854,0.427,0.854,196.693
120655,151849,10627,-0.056,0.998,0.223,-2.012,-1.098,1.037,196.7
120623,151900,417,-0.058,0.995,0.234,-2.012,-1.098,1.037,196.703
120623,151814,10616,-0.06,1.009,0.25,0,-1.768,1.159,196.71
120628,151900,417,-0.06,1.028,0.264,0,-1.768,1.159,196.713
120628,151825,10612,-0.061,1.041,0.275,2.256,-1.159,1.098,196.719
120626,151900,417,-0.067,1.043,0.269,2.256,-1.159,1.098,196.723
120626,151885,10626,-0.07,1.037,0.275,2.561,-0.122,0.366,196.729
120662,151900,417,-0.068,1.025,0.291,2.561,-0.122,0.366,196.733
120662,151881,10624,-0.067,1.009,0.288,2.622,0.549,-0.061,196.739
120718,151900,417,-0.061,1.001,0.267,2.622,0.549,-0.061,196.743
120718,151921,10618,-0.057,0.999,0.251,3.476,1.829,-0.366,196.749
120793,151900,417,-0.059,0.992,0.243,3.476,1.829,-0.366,196.753
120793,151994,10653,-0.061,0.997,0.231,5.427,2.927,-0.244,196.759
120819,151900,417,-0.065,1.014,0.204,5.427,2.927,-0.244,196.763
120819,152029,10656,-0.063,1.043,0.177,4.085,2.805,-0.122,196.769
120841,151900,417,-0.061,1.057,0.172,4.085,2.805,-0.122,196.773
120841,152022,10645,-0.062,1.036,0.18,0.183,0.976,0,196.779
120875,152156,417,-0.058,1.016,0.185,0.183,0.976,0,196.783
120875,152082,10654,-0.058,1.008,0.193,-2.073,-1.402,0.732,196.789
120921,152156,417,-0.058,1.001,0.215,-2.073,-1.402,0.732,196.792
120921,152069,10671,-0.057,1.005,0.24,-2.439,-2.439,0.915,196.799
120889,152156,417,-0.062,1.015,0.258,-2.439,-2.439,0.915,196.802
120889,152069,10655,-0.067,1.021,0.271,-0.366,-1.341,0.549,196.809
120880,151900,417,-0.068,1.027,0.295,-0.366,-1.341,0.549,196.812
120880,152061,10663,-0.069,1.032,0.331,2.927,0.427,0.183,196.818
120924,152156,417,-0.067,1.026,0.329,2.927,0.427,0.183,196.822
120924,152073,10668,-0.063,1.018,0.299,6.22,1.89,-0.488,196.828
120930,152156,417,-0.064,1.01,0.278,6.22,1.89,-0.488,196.832
120930,152086,10656,-0.064,1,0.268,8.415,3.659,-0.976,196.838
120905,152156,417,-0.065,1.003,0.236,8.415,3.659,-0.976,196.842
120905,152065,10661,-0.068,1.009,0.211,6.524,4.024,-0.61,196.848
120920,152156,417,-0.067,1.004,0.194,6.524,4.024,-0.61,196.852
120920,152067,10651,-0.061,0.99,0.177,3.963,2.866,-0.122,196.858
120888,152156,417,-0.053,0.997,0.165,3.963,2.866,-0.122,196.862
120888,152082,10650,-0.048,1.025,0.163,3.476,0.976,0.183,196.868
120868,151900,417,-0.042,1.051,0.17,3.476,0.976,0.183,196.872
120868,152061,10641,-0.043,1.059,0.183,1.646,-0.793,0.488,196.878
120863,151900,417,-0.049,1.054,0.193,1.646,-0.793,0.488,196.882
120863,152041,10638,-0.059,1.03,0.212,-2.805,-1.951,0.671,196.888
120848,151900,417,-0.067,1.008,0.233,-2.805,-1.951,0.671,196.891
120848,152033,10661,-0.071,1.001,0.245,-4.939,-2.317,0.976,196.898
120847,151900,417,-0.074,0.998,0.275,-4.939,-2.317,0.976,196.901
120847,152031,10649,-0.074,1.008,0.321,0.305,-1.098,0.305,196.907
120825,151900,417,-0.073,1.019,0.33,0.305,-1.098,0.305,196.911
120825,152006,10621,-0.072,1.035,0.285,6.463,1.28,-0.61,196.917
120822,151900,417,-0.076,1.069,0.248,6.463,1.28,-0.61,196.921
120822,152007,10641,-0.078,1.074,0.238,2.744,2.866,-1.22,196.927
120807,151900,417,-0.077,1.031,0.233,2.744,2.866,-1.22,196.931
120807,152011,10640,-0.076,0.97,0.213,-3.232,1.463,-0.366,196.937
120840,151900,417,-0.064,0.944,0.195,-3.232,1.463,-0.366,196.941
120840,152011,10643,-0.049,0.966,0.184,-2.927,0,0.305,196.947
120820,151900,417,-0.042,1.005,0.187,-2.927,0,0.305,196.951
120820,152016,10636,-0.048,1.045,0.189,0.671,0.183,0.183,196.957
120791,151900,417,-0.049,1.062,0.179,0.671,0.183,0.183,196.961
120791,152025,10639,-0.051,1.051,0.181,-1.159,-0.854,0.488,196.967
120821,151900,417,-0.049,1.023,0.199,-1.159,-0.854,0.488,196.971
120821,152014,10634,-0.053,1.006,0.215,-5.854,-3.11,1.098,196.977
120757,151900,417,-0.055,1.007,0.227,-5.854,-3.11,1.098,196.98
120757,151973,10625,-0.062,1.015,0.269,-6.28,-2.866,1.28,196.987
120715,151900,417,-0.067,1.008,0.347,-6.28,-2.866,1.28,196.99
120715,151912,10624,-0.067,0.988,0.387,0,-1.159,0.427,196.997
120689,151900,417,-0.068,0.989,0.352,0,-1.159,0.427,197
120689,151896,10627,-0.068,1.033,0.291,5.366,2.439,-0.915,197.006
120665,151900,417,-0.075,1.083,0.257,5.366,2.439,-0.915,197.01
120665,151876,10616,-0.082,1.078,0.243,3.049,4.878,-1.707,197.016
120668,151900,417,-0.079,1.025,0.218,3.049,4.878,-1.707,197.02
120668,151885,10622,-0.066,0.967,0.191,-0.61,2.805,-1.341,197.026
120709,151900,417,-0.057,0.944,0.182,-0.61,2.805,-1.341,197.03
120709,151925,10625,-0.052,0.967,0.174,-1.098,1.098,-0.366,197.036
120777,151900,417,-0.052,1.004,0.16,-1.098,1.098,-0.366,197.04
120777,151971,10644,-0.054,1.03,0.15,1.28,1.22,0.122,197.046
120879,152156,417,-0.055,1.053,0.155,1.28,1.22,0.122,197.05
120879,152076,10659,-0.059,1.061,0.187,1.098,-0.671,0.366,197.056
120991,152156,417,-0.062,1.036,0.218,1.098,-0.671,0.366,197.06
120991,152142,10658,-0.066,1.014,0.232,-2.683,-2.988,0.915,197.066
121040,152156,417,-0.072,1.005,0.251,-2.683,-2.988,0.915,197.07
121040,152175,10671,-0.079,0.999,0.3,-3.476,-2.622,0.976,197.076
121078,152156,417,-0.079,0.989,0.335,-3.476,-2.622,0.976,197.079
121078,152231,10687,-0.074,0.995,0.33,0.61,-0.61,0.488,197.086
121155,152156,417,-0.076,1.019,0.304,0.61,-0.61,0.488,197.089
121155,152274,10677,-0.082,1.048,0.273,1.402,2.134,-0.122,197.096
121149,152156,417,-0.085,1.061,0.253,1.402,2.134,-0.122,197.099
121149,152266,10706,-0.081,1.033,0.237,-0.305,2.988,-0.488,197.105
121172,152156,417,-0.072,0.985,0.215,-0.305,2.988,-0.488,197.109
121172,152296,10696,-0.063,0.964,0.195,-0.122,1.463,-0.366,197.115
121214,152156,417,-0.063,0.964,0.195,-0.122,1.463,-0.366,197.119
121214,152309,10699,-0.057,1.017,0.174,1.22,1.22,0.366,197.125
121263,152412,417,-0.057,1.017,0.174,1.22,1.22,0.366,197.129
121263,152327,10723,-0.046,1.038,0.173,2.561,0.549,-0.061,197.135
121312,152412,417,-0.046,1.038,0.173,2.561,0.549,-0.061,197.139
121312,152353,10724,-0.043,1.032,0.215,2.256,-1.951,0.549,197.145
121325,152412,417,-0.043,1.032,0.215,2.256,-1.951,0.549,197.149
121325,152377,10721,-0.054,1.018,0.256,0.976,-2.195,0.366,197.155
121326,152412,417,-0.054,1.018,0.256,0.976,-2.195,0.366,197.159
121326,152419,10725,-0.063,1.024,0.276,2.134,-0.976,-0.183,197.165
121332,152412,417,-0.063,1.024,0.276,2.134,-0.976,-0.183,197.169
121332,152402,10706,-0.07,1.039,0.266,0.732,0.061,-0.549,197.175
121294,152412,417,-0.07,1.039,0.266,0.732,0.061,-0.549,197.178
121294,152380,10710,-0.073,1.012,0.254,-2.256,0.793,-0.305,197.185
121271,152412,417,-0.073,1.012,0.254,-2.256,0.793,-0.305,197.188
121271,152356,10709,-0.074,0.989,0.227,-4.207,0.976,0.122,197.194
121347,152412,417,-0.074,0.989,0.227,-4.207,0.976,0.122,197.198
121347,152408,10713,-0.07,0.988,0.21,-2.927,0.854,0.61,197.204
121364,152412,417,-0.07,0.988,0.21,-2.927,0.854,0.61,197.208
121364,152403,10695,-0.059,1.022,0.187,-0.549,0.488,0.427,197.214
121347,152412,417,-0.059,1.022,0.187,-0.549,0.488,0.427,197.218
121347,152416,10709,-0.055,1.041,0.212,0.61,-0.854,0.671,197.224
121364,152412,417,-0.055,1.041,0.212,0.61,-0.854,0.671,197.228
121364,152408,10729,-0.058,1.027,0.238,-0.732,-1.646,0.793,197.234
121404,152412,417,-0.058,1.027,0.238,-0.732,-1.646,0.793,197.238
121404,152474,10735,-0.064,1.035,0.232,-1.585,-1.28,0.244,197.244
121441,152412,417,-0.064,1.035,0.232,-1.585,-1.28,0.244,197.248
121441,152455,10732,-0.068,1.024,0.276,0.061,-0.61,-0.61,197.254
121428,152412,417,-0.068,1.024,0.276,0.061,-0.61,-0.61,197.258
121428,152472,10727,-0.07,1.012,0.28,0.061,-0.61,-0.61,197.264
121385,152412,417,-0.069,1.012,0.28,2.195,0.427,-0.732,197.267
121385,152416,10710,-0.07,1.016,0.279,2.195,0.427,-0.732,197.274
121321,152412,417,-0.072,1.02,0.257,1.951,1.951,-0.732,197.277
121321,152394,10709,-0.071,1.013,0.229,1.951,1.951,-0.732,197.284
121421,152412,417,-0.064,0.999,0.22,0.549,2.256,-0.61,197.287
121421,152460,10726,-0.065,0.995,0.195,0.549,2.256,-0.61,197.293
121431,152412,417,-0.066,0.994,0.162,-1.28,1.159,0.183,197.297
121431,152448,10726,-0.06,1.001,0.157,-1.28,1.159,0.183,197.303
121388,152412,417,-0.052,0.999,0.179,-2.439,-0.549,0.671,197.307
121388,152446,10713,-0.048,1.002,0.201,-2.439,-0.549,0.671,197.313
121367,152412,417,-0.051,1.018,0.228,-0.793,-2.317,1.402,197.317
121367,152412,10716,-0.056,1.035,0.243,-0.793,-2.317,1.402,197.323
121398,152412,417,-0.057,1.044,0.25,-0.488,-1.89,1.28,197.327
121398,152442,10720,-0.061,1.051,0.256,-0.488,-1.89,1.28,197.333
121328,152412,417,-0.07,1.051,0.277,-0.854,-1.159,0.305,197.337
121328,152382,10725,-0.072,1.032,0.288,-0.854,-1.159,0.305,197.343
121250,152412,417,-0.074,1.019,0.273,-0.244,-0.61,-0.061,197.347
121250,152325,10707,-0.072,1.019,0.249,-0.244,-0.61,-0.061,197.353
121178,152156,417,-0.077,1.024,0.247,-0.244,0.976,-0.671,197.357
121178,152235,10681,-0.077,1.025,0.243,-0.244,0.976,-0.671,197.363
121097,152156,417,-0.083,1.005,0.234,-0.061,1.707,-1.037,197.366
121097,152198,10690,-0.079,0.976,0.232,-0.061,1.707,-1.037,197.373
121118,152156,417,-0.073,0.976,0.215,1.707,0.915,-0.854,197.376
121118,152225,10682,-0.066,1.002,0.198,1.707,0.915,-0.854,197.383
121058,152156,417,-0.068,1.032,0.189,2.439,0.915,-0.427,197.386
121058,152178,10680,-0.064,1.038,0.182,2.439,0.915,-0.427,197.392
121019,152156,417,-0.066,1.021,0.183,0.61,0.183,-0.061,197.396
121019,152134,10675,-0.057,1.009,0.197,0.61,0.183,-0.061,197.402
120992,152156,417,-0.057,1.007,0.222,-1.585,-1.768,0.549,197.406
120992,152131,10670,-0.056,1.007,0.238,-1.585,-1.768,0.549,197.412
120940,152156,417,-0.056,1.023,0.257,-1.463,-1.585,0.793,197.416
120940,152105,10660,-0.06,1.038,0.284,-1.463,-1.585,0.793,197.422
120857,151900,417,-0.063,1.033,0.306,-0.366,-0.183,0.488,197.426
120857,152022,10648,-0.067,1.016,0.294,-0.366,-0.183,0.488,197.432
120744,151900,417,-0.061,1.01,0.264,0.366,0.793,0.061,197.436
120744,151933,10621,-0.062,1.024,0.254,0.366,0.793,0.061,197.442
120653,151900,417,-0.066,1.032,0.258,0.183,1.89,-0.122,197.446
120653,151842,10614,-0.068,1.01,0.256,0.183,1.89,-0.122,197.452
120584,151900,417,-0.068,0.984,0.246,-0.366,2.256,0.122,197.456
120584,151809,10613,-0.065,0.976,0.232,-0.366,2.256,0.122,197.462
120539,151644,417,-0.061,0.987,0.204,-0.976,1.829,0.671,197.465
120539,151795,10595,-0.057,1.004,0.178,-0.976,1.829,0.671,197.472
120550,151644,417,-0.055,1.026,0.169,-0.244,1.22,0.915,197.475
120550,151760,10624,-0.049,1.038,0.173,-0.244,1.22,0.915,197.482
120575,151644,417,-0.05,1.039,0.186,0.061,-0.488,1.159,197.485
120575,151798,10598,-0.06,1.03,0.2,0.061,-0.488,1.159,197.491
120624,151900,417,-0.066,1.02,0.204,-1.829,-1.89,1.585,197.495
120624,151861,10611,-0.069,1.024,0.212,-1.829,-1.89,1.585,197.501
120641,151900,417,-0.067,1.035,0.246,-1.707,-2.256,0.976,197.505
120641,151843,10634,-0.069,1.041,0.293,-1.707,-2.256,0.976,197.511
120616,151900,417,-0.071,1.031,0.33,1.951,-1.646,0.183,197.515
120616,151861,10621,-0.073,1.023,0.33,1.951,-1.646,0.183,197.521
120636,151900,417,-0.077,1.037,0.297,3.72,0.976,-0.793,197.525
120636,151860,10630,-0.08,1.052,0.26,3.72,0.976,-0.793,197.531
120602,151900,417,-0.081,1.048,0.239,1.159,3.354,-1.585,197.535
120602,151822,10608,-0.079,1.011,0.229,1.159,3.354,-1.585,197.541
120544,151644,417,-0.077,0.97,0.219,-0.427,2.622,-1.22,197.545
120544,151783,10616,-0.072,0.947,0.199,-0.427,2.622,-1.22,197.551
120564,151644,417,-0.064,0.961,0.184,0.854,1.829,-0.122,197.555
120564,151777,10607,-0.06,0.995,0.174,0.854,1.829,-0.122,197.561
120525,151644,417,-0.053,1.018,0.176,3.354,1.646,0.183,197.564
120525,151786,10614,-0.051,1.025,0.196,3.354,1.646,0.183,197.571
120573,151644,417,-0.052,1.033,0.204,3.78,0.122,0.854,197.574
120573,151793,10613,-0.049,1.041,0.212,3.78,0.122,0.854,197.581
120551,151644,417,-0.05,1.033,0.234,-0.061,-1.402,1.22,197.584
120551,151752,10608,-0.054,1.023,0.249,-0.061,-1.402,1.22,197.59
120482,151644,417,-0.058,1.024,0.251,-1.463,-1.159,0.854,197.594
120482,151737,10593,-0.063,1.034,0.261,-1.463,-1.159,0.854,197.6
120427,151644,417,-0.069,1.031,0.273,-0.915,-0.183,0.488,197.604
120427,151687,10599,-0.075,1.023,0.29,-0.915,-0.183,0.488,197.61
120398,151644,417,-0.078,1.018,0.287,0,0.976,-0.183,197.614
120398,151670,10576,-0.08,1.019,0.276,0,0.976,-0.183,197.62
120373,151644,417,-0.078,1.026,0.265,-0.61,2.317,-0.549,197.624
120373,151652,10593,-0.078,1.015,0.253,-0.61,2.317,-0.549,197.63
120376,151644,417,-0.076,1.001,0.234,-0.976,2.805,-0.488,197.634
120376,151671,10587,-0.073,0.994,0.191,-0.976,2.805,-0.488,197.64
120401,151644,417,-0.071,0.995,0.146,-1.341,2.378,-0.122,197.644
120401,151660,10596,-0.067,1.008,0.135,-1.341,2.378,-0.122,197.65
120433,151644,417,-0.059,1.017,0.146,-1.89,0.671,0.427,197.654
120433,151696,10595,-0.051,1.019,0.18,-1.89,0.671,0.427,197.66
120490,151644,417,-0.049,1.012,0.213,-1.159,-1.829,0.854,197.663
120490,151736,10596,-0.053,1.017,0.225,-1.159,-1.829,0.854,197.67
120549,151644,417,-0.06,1.034,0.23,-1.159,-2.073,1.28,197.673
120549,151752,10620,-0.064,1.054,0.242,-1.159,-2.073,1.28,197.679
120545,151644,417,-0.067,1.063,0.261,-1.768,-0.793,0.488,197.683
120545,151786,10615,-0.068,1.052,0.286,-1.768,-0.793,0.488,197.689
120537,151644,417,-0.068,1.052,0.286,-1.768,-0.793,0.488,197.693
120537,151769,10607,-0.065,1.011,0.302,-0.854,-0.244,-0.427,197.699
120517,151644,417,-0.065,1.011,0.302,-0.854,-0.244,-0.427,197.703
120517,151773,10604,-0.071,1.023,0.272,-0.488,1.341,-1.098,197.709
120512,151644,417,-0.071,1.023,0.272,-0.488,1.341,-1.098,197.713
120512,151769,10593,-0.069,1.008,0.229,-0.549,3.841,-1.89,197.719
120527,151644,417,-0.069,1.008,0.229,-0.549,3.841,-1.89,197.723
120527,151739,10626,-0.062,0.985,0.189,-0.793,4.146,-2.012,197.729
120504,151644,417,-0.062,0.985,0.189,-0.793,4.146,-2.012,197.733
120504,151747,10617,-0.06,0.999,0.173,-2.073,3.049,-1.341,197.739
120519,151644,417,-0.06,0.999,0.173,-2.073,3.049,-1.341,197.743
120519,151759,10612,-0.054,1.015,0.186,-2.744,1.524,-0.488,197.749
120593,151900,417,-0.054,1.015,0.186,-2.744,1.524,-0.488,197.753
120593,151831,10611,-0.061,1.018,0.222,-3.598,-0.305,0.183,197.759
120595,151900,417,-0.061,1.018,0.222,-3.598,-0.305,0.183,197.762
120595,151826,10630,-0.072,1.031,0.256,-4.39,-1.159,0.488,197.769
120613,151900,417,-0.072,1.031,0.256,-4.39,-1.159,0.488,197.772
120613,151845,10627,-0.076,1.019,0.304,-4.146,-0.549,0.244,197.778
120583,151644,417,-0.076,1.019,0.304,-4.146,-0.549,0.244,197.782
120583,151800,10611,-0.076,1.028,0.28,-2.256,0.671,-0.122,197.788
120506,151644,417,-0.076,1.028,0.28,-2.256,0.671,-0.122,197.792
120506,151771,10612,-0.078,1.035,0.254,-1.768,2.805,-0.61,197.798
120496,151644,417,-0.078,1.035,0.254,-1.768,2.805,-0.61,197.802
120496,151764,10602,-0.076,1.008,0.243,-0.793,3.415,-0.732,197.808
120604,151644,417,-0.076,1.008,0.243,-0.793,3.415,-0.732,197.812
120604,151803,10633,-0.062,0.972,0.222,-0.244,2.073,-0.183,197.818
120613,151900,417,-0.062,0.972,0.222,-0.244,2.073,-0.183,197.822
120613,151822,10626,-0.056,1.009,0.169,0.427,1.646,0.305,197.828
120641,151900,417,-0.056,1.009,0.169,0.427,1.646,0.305,197.832
120641,151856,10637,-0.057,1.033,0.159,0.549,1.829,0.305,197.838
120705,151900,417,-0.053,1.035,0.171,0.549,1.829,0.305,197.842
120705,151909,10626,-0.055,1.025,0.193,0.183,-0.366,0.61,197.848
120765,151900,417,-0.057,1.016,0.213,0.183,-0.366,0.61,197.851
120765,151943,10653,-0.063,1.009,0.234,-1.28,-2.256,1.159,197.858
120790,151900,417,-0.067,1.013,0.251,-1.28,-2.256,1.159,197.861
120790,151987,10632,-0.074,1.026,0.268,-0.671,-1.159,1.098,197.868
120852,151900,417,-0.079,1.034,0.284,-0.671,-1.159,1.098,197.871
120852,152018,10650,-0.08,1.031,0.286,1.28,0.183,0.244,197.877
120905,152156,417,-0.082,1.029,0.28,1.28,0.183,0.244,197.881
120905,152073,10669,-0.085,1.022,0.275,1.037,1.22,-0.366,197.887
121008,152156,417,-0.085,1.014,0.261,1.037,1.22,-0.366,197.891
121008,152121,10689,-0.08,1.007,0.248,-0.427,2.195,-0.305,197.897
121106,152156,417,-0.079,0.993,0.234,-0.427,2.195,-0.305,197.901
121106,152226,10678,-0.072,0.986,0.223,-0.488,2.012,0.244,197.907
121194,152156,417,-0.065,0.992,0.212,-0.488,2.012,0.244,197.911
121194,152304,10699,-0.058,1.003,0.207,0.183,1.341,0.61,197.917
121310,152412,417,-0.055,1.016,0.195,0.183,1.341,0.61,197.921
121310,152409,10733,-0.051,1.035,0.195,0.732,0.793,0.732,197.927
121435,152412,417,-0.049,1.046,0.208,0.732,0.793,0.732,197.931
121435,152505,10741,-0.052,1.038,0.215,-0.244,-0.366,0.976,197.937
121479,152412,417,-0.05,1.027,0.219,-0.244,-0.366,0.976,197.941
121479,152473,10747,-0.056,1.017,0.23,-1.951,-1.098,0.915,197.947
121468,152412,417,-0.065,1.019,0.243,-1.951,-1.098,0.915,197.95
121468,152502,10741,-0.067,1.027,0.255,-1.829,-0.61,0.427,197.957
121499,152412,417,-0.07,1.03,0.274,-1.829,-0.61,0.427,197.96
121499,152534,10754,-0.073,1.025,0.285,0.427,0.183,-0.061,197.967
121528,152412,417,-0.073,1.014,0.28,0.427,0.183,-0.061,197.97
121528,152556,10762,-0.081,1.015,0.269,1.22,1.341,-0.122,197.976
121596,152668,417,-0.087,1.016,0.264,1.22,1.341,-0.122,197.98
121596,152616,10765,-0.085,1.003,0.252,-0.061,2.439,-0.366,197.986
121730,152668,417,-0.083,0.993,0.227,-0.061,2.439,-0.366,197.99
121730,152709,10780,-0.079,0.993,0.218,0.61,2.195,-0.122,197.996
121852,152924,417,-0.072,0.998,0.222,0.61,2.195,-0.122,198
121852,152836,10810,-0.062,1.002,0.213,2.195,1.22,0.549,198.006
122018,152924,417,-0.061,1.005,0.209,2.195,1.22,0.549,198.01
122018,152939,10798,-0.06,1.012,0.212,2.256,0.915,0.793,198.016
122134,152924,417,-0.059,1.02,0.208,2.256,0.915,0.793,198.02
122134,153040,10847,-0.054,1.027,0.208,0.671,0.183,1.098,198.026
122260,153180,417,-0.056,1.029,0.219,0.671,0.183,1.098,198.03
122260,153100,10845,-0.056,1.026,0.231,-1.402,-0.793,1.28,198.036
122318,153180,417,-0.059,1.026,0.235,-1.402,-0.793,1.28,198.04
122318,153202,10866,-0.062,1.024,0.245,-2.195,-0.732,1.159,198.046
122404,153180,417,-0.07,1.026,0.253,-2.195,-0.732,1.159,198.049
122404,153219,10865,-0.072,1.032,0.254,-1.646,0,0.732,198.056
122435,153180,417,-0.074,1.038,0.259,-1.646,0,0.732,198.059
122435,153308,10905,-0.078,1.03,0.267,-0.915,0.732,0,198.066
122583,153436,417,-0.08,1.021,0.264,-0.915,0.732,0,198.069
122583,153390,10892,-0.08,1.016,0.248,-0.183,1.037,-0.366,198.075
122647,153436,417,-0.08,1.013,0.235,-0.183,1.037,-0.366,198.079
122647,153413,10916,-0.078,1.011,0.226,-0.549,1.524,-0.366,198.085
122624,153436,417,-0.075,1.006,0.219,-0.549,1.524,-0.366,198.089
122624,153429,10907,-0.069,0.997,0.223,0.122,1.28,-0.427,198.095
122620,153436,417,-0.067,0.998,0.22,0.122,1.28,-0.427,198.099
122620,153400,10876,-0.065,1.006,0.219,0.732,0.671,0.061,198.105
122708,153436,417,-0.065,1.016,0.208,0.732,0.671,0.061,198.109
122708,153475,10921,-0.067,1.023,0.199,0.061,0.488,0.305,198.115
122713,153436,417,-0.069,1.02,0.206,0.061,0.488,0.305,198.119
122713,153497,10902,-0.064,1.018,0.214,-0.305,-0.305,0.549,198.125
122664,153436,417,-0.06,1.023,0.226,-0.305,-0.305,0.549,198.129
122664,153412,10884,-0.062,1.026,0.244,0.549,-0.915,0.549,198.135
122607,153436,417,-0.065,1.03,0.256,0.549,-0.915,0.549,198.139
122607,153368,10902,-0.067,1.031,0.266,1.341,-0.427,0.244,198.145
122546,153436,417,-0.069,1.025,0.276,1.341,-0.427,0.244,198.148
122546,153359,10893,-0.074,1.016,0.268,1.22,0.427,-0.183,198.155
122550,153436,417,-0.073,1.012,0.252,1.22,0.427,-0.183,198.158
122550,153348,10882,-0.075,1.015,0.238,0.915,0.915,-0.183,198.164
122569,153436,417,-0.073,1.018,0.231,0.915,0.915,-0.183,198.168
122569,153360,10899,-0.073,1.004,0.229,-0.305,0.61,0.305,198.174
122594,153436,417,-0.071,0.989,0.221,-0.305,0.61,0.305,198.178
122594,153372,10896,-0.068,0.993,0.209,-0.488,0.244,0.732,198.184
122617,153436,417,-0.064,0.997,0.21,-0.488,0.244,0.732,198.188
122617,153388,10888,-0.059,1.011,0.207,0.427,-0.305,1.159,198.194
122638,153436,417,-0.055,1.024,0.209,0.427,-0.305,1.159,198.198
122638,153404,10902,-0.056,1.036,0.212,0.61,-0.915,0.976,198.204
122650,153436,417,-0.057,1.038,0.215,0.61,-0.915,0.976,198.208
122650,153424,10894,-0.059,1.027,0.217,-0.915,-1.524,0.854,198.214
122637,153436,417,-0.065,1.022,0.231,-0.915,-1.524,0.854,198.218
122637,153425,10903,-0.069,1.017,0.252,-1.037,-1.707,0.732,198.224
122630,153436,417,-0.077,1.016,0.271,-1.037,-1.707,0.732,198.228
122630,153408,10890,-0.079,1.017,0.285,0.915,-0.732,0.427,198.234
122568,153436,417,-0.079,1.018,0.284,0.915,-0.732,0.427,198.238
122568,153375,10885,-0.078,1.026,0.279,2.927,0.915,-0.305,198.244
122546,153180,417,-0.081,1.036,0.271,2.927,0.915,-0.305,198.247
122546,153335,10869,-0.08,1.03,0.254,2.012,2.134,-0.305,198.254
122522,153180,417,-0.076,1.014,0.239,2.012,2.134,-0.305,198.257
122522,153316,10873,-0.073,1.004,0.218,-0.671,1.89,0.061,198.263
122529,153180,417,-0.073,1.004,0.218,-0.671,1.89,0.061,198.267
122529,153322,10889,-0.066,0.982,0.198,-2.134,1.037,0.61,198.273
122500,153180,417,-0.066,0.982,0.198,-2.134,1.037,0.61,198.277
122500,153321,10893,-0.054,1.013,0.196,-0.854,0.366,1.037,198.283
122506,153180,417,-0.054,1.013,0.196,-0.854,0.366,1.037,198.287
122506,153315,10881,-0.046,1.033,0.217,-0.122,-0.732,0.976,198.293
122505,153180,417,-0.046,1.033,0.217,-0.122,-0.732,0.976,198.297
122505,153308,10876,-0.059,1.037,0.221,-1.22,-1.098,1.037,198.303
122504,153180,417,-0.059,1.037,0.221,-1.22,-1.098,1.037,198.307
122504,153303,10871,-0.065,1.015,0.239,-2.195,-0.915,0.61,198.313
122487,153180,417,-0.065,1.015,0.239,-2.195,-0.915,0.61,198.317
122487,153275,10875,-0.072,1.021,0.261,-0.183,-0.976,0.122,198.323
122463,153180,417,-0.072,1.021,0.261,-0.183,-0.976,0.122,198.327
122463,153288,10877,-0.083,1.024,0.284,2.988,0.244,-0.061,198.333
122455,153180,417,-0.083,1.024,0.284,2.988,0.244,-0.061,198.336
122455,153274,10874,-0.081,1.036,0.254,3.659,1.159,-0.305,198.343
122429,153180,417,-0.081,1.036,0.254,3.659,1.159,-0.305,198.346
122429,153253,10872,-0.079,1.006,0.25,1.098,1.037,0.122,198.353
122465,153180,417,-0.079,1.006,0.25,1.098,1.037,0.122,198.356
122465,153303,10874,-0.069,0.971,0.208,0.183,1.28,0.793,198.362
122493,153180,417,-0.069,0.971,0.208,0.183,1.28,0.793,198.366
122493,153318,10878,-0.058,1.012,0.194,1.22,1.22,1.037,198.372
122509,153180,417,-0.058,1.012,0.194,1.22,1.22,1.037,198.376
122509,153321,10877,-0.059,1.036,0.188,1.585,0.488,1.098,198.382
122566,153436,417,-0.059,1.036,0.188,1.585,0.488,1.098,198.386
122566,153354,10879,-0.057,1.028,0.233,0.183,-1.341,1.341,198.392
122616,153436,417,-0.057,1.028,0.233,0.183,-1.341,1.341,198.396
122616,153391,10884,-0.061,1.023,0.235,-1.707,-1.829,1.159,198.402
122614,153436,417,-0.061,1.023,0.235,-1.707,-1.829,1.159,198.406
122614,153418,10892,-0.067,1.019,0.236,-1.707,-1.829,1.159,198.412
122636,153436,417,-0.076,1.027,0.238,-2.012,-0.671,0.549,198.416
122636,153403,10888,-0.082,1.028,0.248,-2.012,-0.671,0.549,198.422
122625,153436,417,-0.081,1.017,0.269,-0.793,-0.488,0.244,198.426
122625,153394,10898,-0.079,1.012,0.269,-0.793,-0.488,0.244,198.432
122611,153436,417,-0.079,1.016,0.253,0.244,-0.427,0,198.435
122611,153410,10892,-0.079,1.024,0.234,0.244,-0.427,0,198.442
122612,153436,417,-0.076,1.024,0.225,-0.427,0.732,0,198.445
122612,153374,10882,-0.071,1.014,0.233,-0.427,0.732,0,198.452
122544,153180,417,-0.062,0.997,0.239,0.183,0.549,0.183,198.455
122544,153314,10878,-0.059,1,0.228,0.183,0.549,0.183,198.461
122502,153180,417,-0.055,1.013,0.209,0.366,0,0.61,198.465
122502,153329,10877,-0.055,1.029,0.203,0.366,0,0.61,198.471
122478,153180,417,-0.058,1.041,0.193,-0.549,0.244,0.488,198.475
122478,153270,10878,-0.054,1.037,0.194,-0.549,0.244,0.488,198.481
122431,153180,417,-0.055,1.021,0.214,-1.037,-0.61,0.488,198.485
122431,153259,10867,-0.055,1.017,0.232,-1.037,-0.61,0.488,198.491
122387,153180,417,-0.06,1.02,0.25,-0.61,-1.22,0.488,198.495
122387,153208,10855,-0.064,1.023,0.263,-0.61,-1.22,0.488,198.501
122296,153180,417,-0.068,1.026,0.262,0.427,0,-0.122,198.505
122296,153155,10836,-0.076,1.026,0.26,0.427,0,-0.122,198.511
122264,153180,417,-0.08,1.021,0.267,0.671,1.159,-0.427,198.515
122264,153112,10854,-0.078,1.011,0.265,0.671,1.159,-0.427,198.521
122256,153180,417,-0.079,1.004,0.261,0.122,1.341,-0.183,198.525
122256,153105,10846,-0.076,0.995,0.262,0.122,1.341,-0.183,198.531
122272,153180,417,-0.072,0.995,0.255,0.244,1.707,-0.061,198.534
122272,153142,10848,-0.071,0.996,0.239,0.244,1.707,-0.061,198.541
122294,153180,417,-0.067,0.997,0.226,0.61,1.89,0.427,198.544
122294,153151,10851,-0.065,0.999,0.213,0.61,1.89,0.427,198.551
122317,153180,417,-0.063,1.007,0.205,0.183,1.402,0.976,198.554
122317,153186,10841,-0.057,1.015,0.201,0.183,1.402,0.976,198.56
122348,153180,417,-0.051,1.022,0.206,-0.488,0.427,1.22,198.564
122348,153197,10857,-0.05,1.033,0.213,-0.488,0.427,1.22,198.57
122362,153180,417,-0.054,1.037,0.215,-0.244,-0.122,1.28,198.574
122362,153214,10857,-0.062,1.034,0.215,-0.244,-0.122,1.28,198.58
122387,153180,417,-0.066,1.03,0.225,-0.244,-0.061,0.732,198.584
122387,153210,10850,-0.071,1.028,0.229,-0.244,-0.061,0.732,198.59
122379,153180,417,-0.077,1.024,0.236,0.183,0.244,0.488,198.594
122379,153209,10862,-0.08,1.02,0.242,0.183,0.244,0.488,198.6
122361,153180,417,-0.077,1.017,0.248,1.28,0.488,0.366,198.604
122361,153207,10829,-0.081,1.017,0.255,1.28,0.488,0.366,198.61
122312,153180,417,-0.083,1.012,0.259,2.195,1.098,0.549,198.614
122312,153163,10854,-0.084,1.016,0.252,2.195,1.098,0.549,198.62
122263,153180,417,-0.082,1.02,0.249,1.037,1.524,0.732,198.624
122263,153107,10846,-0.074,1.015,0.242,1.037,1.524,0.732,198.63
122195,152924,417,-0.067,1.004,0.228,-0.732,1.28,1.159,198.633
122195,153042,10828,-0.061,1.005,0.214,-0.732,1.28,1.159,198.64
122140,152924,417,-0.059,1.012,0.209,-1.768,0.915,1.585,198.643
122140,153042,10811,-0.053,1.017,0.208,-1.768,0.915,1.585,198.649
122128,152924,417,-0.052,1.02,0.202,-2.683,0.244,1.646,198.653
122128,153020,10836,-0.053,1.019,0.205,-2.683,0.244,1.646,198.659
122160,152924,417,-0.051,1.015,0.21,-3.11,-0.793,1.89,198.663
122160,153038,10818,-0.052,1.018,0.217,-3.11,-0.793,1.89,198.669
122096,152924,417,-0.054,1.024,0.227,-2.622,-1.524,1.646,198.673
122096,152977,10818,-0.059,1.03,0.236,-2.622,-1.524,1.646,198.679
122059,152924,417,-0.062,1.032,0.244,-1.585,-1.22,1.159,198.683
122059,152940,10810,-0.07,1.026,0.255,-1.585,-1.22,1.159,198.689
122034,152924,417,-0.074,1.022,0.27,-0.244,-0.549,0.61,198.693
122034,152930,10812,-0.073,1.014,0.276,-0.244,-0.549,0.61,198.699
121996,152924,417,-0.07,1.011,0.263,1.585,0.366,0.061,198.703
121996,152876,10794,-0.068,1.019,0.238,1.585,0.366,0.061,198.709
121946,152924,417,-0.07,1.034,0.239,2.317,1.402,-0.122,198.713
121946,152867,10792,-0.073,1.037,0.233,2.317,1.402,-0.122,198.719
121957,152924,417,-0.071,1.022,0.206,1.159,1.524,-0.244,198.723
121957,152863,10797,-0.068,1.01,0.193,1.159,1.524,-0.244,198.729
121911,152668,417,-0.067,1.004,0.189,-0.854,0.488,0.122,198.732
121911,152829,10800,-0.066,1.003,0.196,-0.854,0.488,0.122,198.739
121884,152924,417,-0.061,0.999,0.202,-1.524,-0.793,0.671,198.742
121884,152842,10776,-0.057,1.002,0.21,-1.524,-0.793,0.671,198.748
121882,152924,417,-0.057,1.006,0.226,-0.732,-1.463,0.976,198.752
121882,152859,10792,-0.062,1.011,0.236,-0.732,-1.463,0.976,198.758
121882,152924,417,-0.073,1.018,0.241,-0.244,-1.22,1.159,198.762
121882,152836,10786,-0.072,1.018,0.251,-0.244,-1.22,1.159,198.768
121860,152668,417,-0.067,1.025,0.267,0.549,-0.732,0.915,198.772
121860,152803,10773,-0.066,1.03,0.286,0.549,-0.732,0.915,198.778
121891,152668,417,-0.062,1.026,0.29,1.89,0,0.793,198.782
121891,152827,10794,-0.062,1.03,0.276,1.89,0,0.793,198.788
121931,152924,417,-0.066,1.037,0.267,0.793,1.524,0.671,198.792
121931,152851,10793,-0.068,1.024,0.263,0.793,1.524,0.671,198.798
121943,152924,417,-0.067,1.004,0.25,-0.854,2.256,0.366,198.802
121943,152860,10796,-0.062,0.994,0.237,-0.854,2.256,0.366,198.808
121914,152924,417,-0.057,1.004,0.22,0.061,2.317,0.305,198.812
121914,152875,10795,-0.054,1.023,0.213,0.061,2.317,0.305,198.818
121920,152924,417,-0.056,1.028,0.212,0.976,2.561,0.061,198.821
121920,152861,10788,-0.059,1.021,0.202,0.976,2.561,0.061,198.828
121892,152924,417,-0.062,1.013,0.197,0.915,1.707,0.122,198.831
121892,152872,10798,-0.06,1.012,0.201,0.915,1.707,0.122,198.838
121895,152924,417,-0.06,1.012,0.201,0.915,1.707,0.122,198.841
121895,152850,10784,-0.065,1.015,0.206,0.122,0.366,0.305,198.847
121874,152668,417,-0.065,1.015,0.206,0.122,0.366,0.305,198.851
121874,152820,10777,-0.069,1.019,0.222,-0.183,-0.122,0.366,198.857
121875,152924,417,-0.069,1.019,0.222,-0.183,-0.122,0.366,198.861
121875,152833,10788,-0.073,1.021,0.251,0.427,-0.305,0.488,198.867
121879,152668,417,-0.073,1.021,0.251,0.427,-0.305,0.488,198.871
121879,152810,10795,-0.075,1.033,0.261,0.915,0.183,0.305,198.877
121898,152924,417,-0.075,1.033,0.261,0.915,0.183,0.305,198.881
121898,152843,10776,-0.071,1.012,0.265,0.793,1.159,0.183,198.887
121883,152668,417,-0.071,1.012,0.265,0.793,1.159,0.183,198.891
121883,152829,10794,-0.073,1.006,0.234,0.793,1.524,0.305,198.897
121903,152924,417,-0.073,1.006,0.234,0.793,1.524,0.305,198.901
121903,152865,10782,-0.067,1.02,0.187,0.854,2.073,0.305,198.907
121909,152924,417,-0.067,1.02,0.187,0.854,2.073,0.305,198.911
121909,152853,10781,-0.058,1.013,0.188,0,1.341,0.305,198.917
121875,152668,417,-0.058,1.013,0.188,0,1.341,0.305,198.92
121875,152825,10791,-0.053,1.005,0.196,-0.854,-0.488,0.854,198.927
121851,152668,417,-0.053,1.005,0.196,-0.854,-0.488,0.854,198.93
121851,152822,10781,-0.055,1.02,0.228,-0.854,-1.707,1.524,198.937
121827,152668,417,-0.055,1.02,0.228,-0.854,-1.707,1.524,198.94
121827,152785,10776,-0.063,1.054,0.251,0.61,-1.707,0.915,198.946
121810,152668,417,-0.063,1.054,0.251,0.61,-1.707,0.915,198.95
121810,152770,10767,-0.073,1.036,0.274,1.159,-1.098,0.183,198.956
121798,152668,417,-0.073,1.036,0.274,1.159,-1.098,0.183,198.96
121798,152758,10767,-0.076,1.023,0.259,0,-0.549,-0.122,198.966
121787,152668,417,-0.076,1.023,0.259,0,-0.549,-0.122,198.97
121787,152761,10764,-0.076,1.009,0.231,-1.89,0.488,-0.366,198.976
121789,152668,417,-0.076,1.009,0.231,-1.89,0.488,-0.366,198.98
121789,152770,10777,-0.076,0.999,0.23,-1.768,1.037,-0.61,198.986
121834,152668,417,-0.074,0.993,0.231,-1.768,1.037,-0.61,198.99
121834,152806,10786,-0.076,1.004,0.227,-0.305,1.159,-0.366,198.996
121882,152668,417,-0.072,1.011,0.214,-0.305,1.159,-0.366,199
121882,152826,10783,-0.066,1.018,0.205,-0.549,1.098,0.122,199.006
121906,152924,417,-0.064,1.018,0.198,-0.549,1.098,0.122,199.01
121906,152855,10785,-0.058,1.013,0.213,-1.707,0.122,0.915,199.016
121906,152924,417,-0.05,1,0.224,-1.707,0.122,0.915,199.019
121906,152832,10771,-0.047,0.995,0.228,-1.768,-0.976,1.463,199.026
121898,152668,417,-0.047,1.005,0.236,-1.768,-0.976,1.463,199.029
121898,152789,10808,-0.052,1.029,0.245,0.305,-0.427,1.28,199.036
121847,152668,417,-0.057,1.044,0.263,0.305,-0.427,1.28,199.039
121847,152805,10778,-0.06,1.049,0.27,2.988,0.61,0.732,199.045
121818,152668,417,-0.058,1.045,0.276,2.988,0.61,0.732,199.049
121818,152804,10765,-0.061,1.041,0.268,2.439,1.098,0.61,199.055
121829,152668,417,-0.064,1.036,0.249,2.439,1.098,0.61,199.059
121829,152762,10777,-0.058,1.019,0.237,-0.976,1.341,0.549,199.065
121791,152668,417,-0.058,1,0.239,-0.976,1.341,0.549,199.069
121791,152774,10763,-0.063,0.985,0.232,-1.402,1.707,0.427,199.075
121825,152668,417,-0.067,0.983,0.224,-1.402,1.707,0.427,199.079
121825,152797,10764,-0.066,0.988,0.222,0.061,2.012,0.793,199.085
121860,152668,417,-0.063,1.001,0.211,0.061,2.012,0.793,199.089
121860,152824,10775,-0.064,1.009,0.194,1.768,1.89,0.915,199.095
121903,152924,417,-0.065,1.019,0.188,1.768,1.89,0.915,199.099
121903,152851,10783,-0.064,1.025,0.187,2.012,0.793,1.159,199.105
121929,152924,417,-0.065,1.021,0.186,2.012,0.793,1.159,199.109
121929,152872,10796,-0.064,0.998,0.195,2.256,-0.671,1.524,199.115
121956,152924,417,-0.065,0.987,0.206,2.256,-0.671,1.524,199.118
121956,152888,10793,-0.063,1.009,0.217,5.732,-1.28,1.707,199.125
121972,152924,417,-0.064,1.037,0.25,5.732,-1.28,1.707,199.128
121972,152904,10799,-0.061,1.059,0.286,9.085,-0.427,1.22,199.135
121972,152924,417,-0.061,1.082,0.289,9.085,-0.427,1.22,199.138
121972,152915,10801,-0.068,1.093,0.291,6.951,1.463,0,199.144
121974,152924,417,-0.071,1.083,0.286,6.951,1.463,0,199.148
121974,152897,10790,-0.074,1.06,0.259,-1.037,2.561,-0.427,199.154
121951,152924,417,-0.067,1.029,0.231,-1.037,2.561,-0.427,199.158
121951,152878,10787,-0.062,1.001,0.21,-7.622,2.256,-0.854,199.164
121917,152924,417,-0.063,0.979,0.193,-7.622,2.256,-0.854,199.168
121917,152852,10764,-0.069,0.972,0.184,-8.354,1.768,-0.732,199.174
121890,152924,417,-0.073,0.985,0.179,-8.354,1.768,-0.732,199.178
121890,152851,10780,-0.07,0.996,0.192,-6.22,1.22,-0.488,199.184
121927,152924,417,-0.066,0.996,0.21,-6.22,1.22,-0.488,199.188
121927,152883,10800,-0.066,0.998,0.214,-3.171,0.244,0,199.194
121933,152924,417,-0.067,1.006,0.216,-3.171,0.244,0,199.198
121933,152880,10765,-0.066,1.012,0.222,-1.159,-0.305,0.671,199.204
121926,152924,417,-0.067,1.023,0.222,-1.159,-0.305,0.671,199.208
121926,152870,10797,-0.069,1.032,0.221,-1.037,-0.549,0.488,199.214
121928,152924,417,-0.072,1.03,0.234,-1.037,-0.549,0.488,199.217
121928,152856,10783,-0.067,1.027,0.254,-1.037,-0.732,0.61,199.224
121911,152924,417,-0.067,1.02,0.26,-1.037,-0.732,0.61,199.227
121911,152859,10766,-0.064,1.012,0.26,0,-0.427,0.61,199.234
121859,152668,417,-0.066,1.025,0.259,0,-0.427,0.61,199.237
121859,152812,10772,-0.068,1.041,0.252,1.159,0.732,0.061,199.243
121855,152924,417,-0.066,1.044,0.238,1.159,0.732,0.061,199.247
121855,152844,10782,-0.066,1.042,0.23,0.854,1.22,-0.61,199.253
121904,152924,417,-0.067,1.035,0.22,0.854,1.22,-0.61,199.257
121904,152848,10777,-0.068,1.015,0.208,-1.22,0.793,-0.793,199.263
121878,152924,417,-0.069,1,0.203,-1.22,0.793,-0.793,199.267
121878,152853,10773,-0.065,0.998,0.202,-2.195,0.427,-0.549,199.273
121903,152924,417,-0.065,1.002,0.201,-2.195,0.427,-0.549,199.277
121903,152855,10789,-0.064,1.008,0.201,-0.854,-0.122,-0.549,199.283
121904,152924,417,-0.066,1.016,0.2,-0.854,-0.122,-0.549,199.287
121904,152853,10791,-0.067,1.017,0.208,-0.244,-0.854,-0.427,199.293
121919,152924,417,-0.066,1.012,0.225,-0.244,-0.854,-0.427,199.297
121919,152838,10776,-0.069,1,0.237,0.244,-1.463,-0.427,199.303
121903,152924,417,-0.068,0.999,0.25,0.244,-1.463,-0.427,199.307
121903,152854,10780,-0.071,1.01,0.257,2.012,-1.037,-0.183,199.313
121909,152924,417,-0.071,1.026,0.262,2.012,-1.037,-0.183,199.316
121909,152853,10784,-0.069,1.035,0.264,3.232,0.061,-0.183,199.323
121912,152924,417,-0.068,1.032,0.266,3.232,0.061,-0.183,199.326
121912,152839,10783,-0.071,1.023,0.268,3.11,0.671,-0.183,199.333
121867,152924,417,-0.073,1.017,0.258,3.11,0.671,-0.183,199.336
121867,152834,10774,-0.069,1.006,0.247,1.28,1.28,0.122,199.342
121839,152668,417,-0.068,0.999,0.244,1.28,1.28,0.122,199.346
121839,152757,10775,-0.068,1.001,0.225,-0.122,1.585,0.305,199.352
121759,152668,417,-0.065,1.01,0.205,-0.122,1.585,0.305,199.356
121759,152738,10753,-0.061,1.024,0.196,-1.159,1.341,0.549,199.362
121708,152668,417,-0.057,1.036,0.199,-1.159,1.341,0.549,199.366
121708,152698,10755,-0.052,1.031,0.202,-1.951,0.061,0.671,199.372
121707,152668,417,-0.056,1.021,0.2,-1.951,0.061,0.671,199.376
121707,152691,10740,-0.058,1.018,0.206,-2.866,-0.671,0.854,199.382
121643,152668,417,-0.059,1.019,0.219,-2.866,-0.671,0.854,199.386
121643,152622,10732,-0.059,1.023,0.231,-2.5,-0.915,0.671,199.392
121555,152412,417,-0.058,1.02,0.239,-2.5,-0.915,0.671,199.396
121555,152546,10723,-0.063,1.02,0.248,0,-0.488,0,199.402
121466,152412,417,-0.07,1.032,0.245,0,-0.488,0,199.406
121466,152506,10712,-0.076,1.034,0.248,1.524,0.366,-0.488,199.412
121394,152412,417,-0.076,1.034,0.248,1.524,0.366,-0.488,199.415
121394,152449,10709,-0.082,1.012,0.254,1.585,0.488,-0.732,199.422
121371,152412,417,-0.082,1.012,0.254,1.585,0.488,-0.732,199.425
121371,152426,10721,-0.08,1.011,0.239,0.61,0.366,-0.305,199.431
121395,152412,417,-0.08,1.011,0.239,0.61,0.366,-0.305,199.435
121395,152438,10713,-0.073,1.003,0.205,-0.427,0.488,0.122,199.441
121408,152412,417,-0.073,1.003,0.205,-0.427,0.488,0.122,199.445
121408,152463,10718,-0.06,1.021,0.196,-1.159,-0.244,0.549,199.451
121444,152412,417,-0.06,1.021,0.196,-1.159,-0.244,0.549,199.455
121444,152494,10709,-0.046,1.024,0.21,-2.134,-1.098,0.854,199.461
121460,152412,417,-0.046,1.024,0.21,-2.134,-1.098,0.854,199.465
121460,152473,10725,-0.053,1.023,0.221,-3.78,-1.159,1.098,199.471
121473,152412,417,-0.053,1.023,0.221,-3.78,-1.159,1.098,199.475
121473,152492,10719,-0.058,1.023,0.233,-5.305,-1.159,0.854,199.481
121467,152412,417,-0.058,1.023,0.233,-5.305,-1.159,0.854,199.485
121467,152491,10728,-0.066,1.025,0.245,-4.756,-0.793,0.549,199.491
121467,152412,417,-0.066,1.025,0.245,-4.756,-0.793,0.549,199.495
121467,152476,10724,-0.079,1.019,0.258,-3.902,0.122,0.488,199.501
121447,152412,417,-0.079,1.019,0.258,-3.902,0.122,0.488,199.504
121447,152474,10718,-0.072,1.006,0.252,-3.659,0.183,0.366,199.511
121457,152412,417,-0.072,1.006,0.252,-3.659,0.183,0.366,199.514
121457,152472,10719,-0.067,1.006,0.241,-2.683,0.061,0.366,199.521
121487,152412,417,-0.067,1.006,0.241,-2.683,0.061,0.366,199.524
121487,152519,10712,-0.066,0.993,0.224,-0.732,0.122,0.488,199.53
121500,152412,417,-0.066,0.993,0.224,-0.732,0.122,0.488,199.534
121500,152500,10718,-0.062,1.018,0.222,0.549,-0.183,0.732,199.54
121511,152412,417,-0.062,1.018,0.222,0.549,-0.183,0.732,199.544
121511,152536,10723,-0.056,1.02,0.228,1.524,-0.488,0.427,199.55
121530,152412,417,-0.056,1.02,0.228,1.524,-0.488,0.427,199.554
121530,152529,10728,-0.061,1.028,0.237,1.524,-0.488,0.427,199.56
121553,152412,417,-0.062,1.04,0.244,1.037,-0.244,0.549,199.564
121553,152553,10738,-0.064,1.04,0.249,1.037,-0.244,0.549,199.57
121539,152412,417,-0.065,1.028,0.247,-1.037,0.427,0.305,199.574
121539,152536,10728,-0.068,1.02,0.251,-1.037,0.427,0.305,199.58
121513,152412,417,-0.069,1.013,0.259,-1.707,0.854,0.305,199.584
121513,152525,10705,-0.068,1.013,0.261,-1.707,0.854,0.305,199.59
121487,152412,417,-0.068,1.018,0.253,-0.793,1.402,0.122,199.594
121487,152488,10729,-0.068,1.024,0.247,-0.793,1.402,0.122,199.6
121486,152412,417,-0.069,1.023,0.24,-0.488,2.256,-0.244,199.603
121486,152523,10725,-0.069,1.011,0.236,-0.488,2.256,-0.244,199.61
121487,152412,417,-0.07,1.001,0.236,-0.61,2.195,0.061,199.613
121487,152508,10727,-0.063,0.991,0.23,-0.61,2.195,0.061,199.62
121516,152412,417,-0.06,0.992,0.231,0.427,1.646,0.305,199.623
121516,152527,10717,-0.059,1.004,0.225,0.427,1.646,0.305,199.629
121580,152668,417,-0.06,1.015,0.219,1.829,2.012,0.427,199.633
121580,152577,10742,-0.063,1.015,0.207,1.829,2.012,0.427,199.639
121658,152668,417,-0.063,1.007,0.197,1.646,1.646,0.549,199.643
121658,152651,10746,-0.068,1.008,0.198,1.646,1.646,0.549,199.649
121744,152668,417,-0.065,1.006,0.211,1.037,0.488,1.098,199.653
121744,152707,10765,-0.064,1.013,0.224,1.037,0.488,1.098,199.659
121777,152668,417,-0.063,1.026,0.232,1.707,0.183,1.463,199.663
121777,152718,10767,-0.065,1.04,0.24,1.707,0.183,1.463,199.669
121789,152668,417,-0.071,1.047,0.249,1.829,0.61,1.22,199.673
121789,152734,10765,-0.071,1.044,0.254,1.829,0.61,1.22,199.679
121827,152668,417,-0.075,1.036,0.264,0.793,1.098,0.793,199.683
121827,152779,10767,-0.075,1.032,0.261,0.793,1.098,0.793,199.689
121856,152668,417,-0.072,1.023,0.251,-0.976,1.402,0.61,199.693
121856,152783,10755,-0.072,1.015,0.24,-0.976,1.402,0.61,199.699
121827,152668,417,-0.069,1.016,0.232,-1.524,1.768,0.427,199.702
121827,152797,10770,-0.068,1.013,0.227,-1.524,1.768,0.427,199.709
121823,152668,417,-0.068,1.002,0.217,-0.793,1.707,0.305,199.712
121823,152754,10772,-0.066,1,0.205,-0.793,1.707,0.305,199.719
121801,152668,417,-0.066,1.009,0.206,-0.244,1.159,0.427,199.722
121801,152751,10747,-0.065,1.013,0.2,-0.244,1.159,0.427,199.728
121790,152668,417,-0.063,1.013,0.194,-1.037,0.366,0.61,199.732
121790,152719,10754,-0.057,1.009,0.202,-1.037,0.366,0.61,199.738
121695,152668,417,-0.057,1.006,0.209,-1.524,-0.976,0.793,199.742
121695,152663,10769,-0.059,1.004,0.218,-1.524,-0.976,0.793,199.748
121625,152668,417,-0.062,1.017,0.22,-0.671,-1.28,0.854,199.752
121625,152597,10737,-0.067,1.033,0.227,-0.671,-1.28,0.854,199.758
121593,152412,417,-0.072,1.041,0.233,-0.061,-0.854,0.61,199.762
121593,152570,10735,-0.073,1.04,0.235,-0.061,-0.854,0.61,199.768
121541,152412,417,-0.075,1.027,0.236,-0.671,-0.976,0.488,199.772
121541,152560,10720,-0.072,1.021,0.254,-0.671,-0.976,0.488,199.778
121536,152412,417,-0.074,1.021,0.266,-0.915,-0.793,0.549,199.782
121536,152514,10751,-0.073,1.02,0.276,-0.915,-0.793,0.549,199.788
121562,152412,417,-0.071,1.017,0.28,-0.183,0.183,0.427,199.792
121562,152552,10730,-0.065,1.016,0.274,-0.183,0.183,0.427,199.798
121587,152668,417,-0.064,1.021,0.256,0.976,1.28,0.122,199.801
121587,152581,10740,-0.065,1.025,0.24,0.976,1.28,0.122,199.808
121612,152668,417,-0.066,1.029,0.229,0,1.829,0.122,199.811
121612,152612,10713,-0.063,1.024,0.215,0,1.829,0.122,199.818
121646,152668,417,-0.053,1.006,0.202,-2.195,1.159,0.427,199.821
121646,152597,10757,-0.049,1,0.191,-2.195,1.159,0.427,199.827
121638,152668,417,-0.05,1.01,0.185,-2.866,0.122,0.61,199.831
121638,152650,10730,-0.049,1.019,0.186,-2.866,0.122,0.61,199.837
121675,152668,417,-0.051,1.024,0.205,-1.707,-0.61,0.549,199.841
121675,152628,10751,-0.051,1.031,0.219,-1.707,-0.61,0.549,199.847
121663,152668,417,-0.06,1.025,0.234,-1.646,-0.854,0.366,199.851
121663,152635,10739,-0.069,1.029,0.235,-1.646,-0.854,0.366,199.857
121633,152668,417,-0.076,1.024,0.247,-3.293,-0.61,0.122,199.861
121633,152605,10733,-0.078,1.003,0.268,-3.293,-0.61,0.122,199.867
121638,152668,417,-0.078,0.998,0.282,-1.585,0,0.061,199.871
121638,152646,10745,-0.079,1.005,0.305,-1.585,0,0.061,199.877
121647,152668,417,-0.077,1.021,0.307,0.732,1.22,0.061,199.881
121647,152629,10740,-0.074,1.037,0.289,0.732,1.22,0.061,199.887
121649,152668,417,-0.072,1.051,0.271,-0.488,2.622,-0.61,199.891
121649,152633,10753,-0.066,1.049,0.254,-0.488,2.622,-0.61,199.897
121653,152668,417,-0.065,1.013,0.221,-5.366,2.622,-0.427,199.9
121653,152623,10742,-0.064,0.984,0.192,-5.366,2.622,-0.427,199.907
121684,152668,417,-0.057,0.994,0.162,-8.659,1.28,-0.061,199.91
121684,152657,10755,-0.048,1.019,0.153,-8.659,1.28,-0.061,199.916
121686,152668,417,-0.041,1.029,0.174,-8.354,-0.122,-0.305,199.92
121686,152657,10740,-0.042,1.032,0.194,-8.354,-0.122,-0.305,199.926
121692,152668,417,-0.046,1.032,0.207,-6.159,-1.585,-0.305,199.93
121692,152646,10753,-0.052,1.047,0.218,-6.159,-1.585,-0.305,199.936
121655,152668,417,-0.056,1.053,0.221,-6.524,-2.195,-0.549,199.94
121655,152657,10743,-0.062,1.05,0.222,-6.524,-2.195,-0.549,199.946
121620,152668,417,-0.066,1.037,0.224,-7.622,-2.317,-1.341,199.95
121620,152600,10736,-0.075,1.022,0.232,-7.622,-2.317,-1.341,199.956
121614,152668,417,-0.081,1.008,0.246,-7.134,-2.561,-1.341,199.96
121614,152580,10741,-0.084,0.985,0.263,-7.134,-2.561,-1.341,199.966
121595,152668,417,-0.088,0.969,0.279,-3.232,-1.89,-1.829,199.97
121595,152612,10734,-0.096,0.977,0.282,-3.232,-1.89,-1.829,199.976
121590,152668,417,-0.099,0.995,0.283,1.159,-0.244,-1.707,199.98
121590,152595,10743,-0.099,1.007,0.281,1.159,-0.244,-1.707,199.986
121598,152412,417,-0.092,1.012,0.266,2.927,0.671,-1.341,199.99
121598,152571,10730,-0.08,1.018,0.259,2.927,0.671,-1.341,199.996
121574,152668,417,-0.08,1.018,0.259,2.927,0.671,-1.341,199.999
121574,152583,10731,-0.07,1.012,0.231,0.976,0.488,-0.793,200.006
121582,152668,417,-0.07,1.012,0.231,0.976,0.488,-0.793,200.009
121582,152591,10743,-0.057,1.008,0.223,-2.866,0,0.061,200.015
121570,152412,417,-0.057,1.008,0.223,-2.866,0,0.061,200.019
121570,152569,10725,-0.045,0.99,0.229,-5.671,-1.098,0.488,200.025
121547,152412,417,-0.045,0.99,0.229,-5.671,-1.098,0.488,200.029
121547,152544,10713,-0.045,1.005,0.243,-7.317,-1.829,0.732,200.035
121529,152412,417,-0.045,1.005,0.243,-7.317,-1.829,0.732,200.039
121529,152570,10723,-0.054,1.002,0.255,-6.707,-1.585,0.671,200.045
121548,152412,417,-0.054,1.002,0.255,-6.707,-1.585,0.671,200.049
121548,152555,10726,-0.066,1.027,0.278,-2.744,-0.915,0.244,200.055
121525,152412,417,-0.066,1.027,0.278,-2.744,-0.915,0.244,200.059
121525,152562,10720,-0.073,1.017,0.304,0.183,-0.183,0,200.065
121553,152412,417,-0.073,1.017,0.304,0.183,-0.183,0,200.069
121553,152541,10722,-0.075,1.017,0.276,1.951,0.61,-0.244,200.075
121540,152412,417,-0.075,1.017,0.276,1.951,0.61,-0.244,200.079
121540,152572,10716,-0.073,1.018,0.258,1.829,1.646,-0.366,200.085
121580,152668,417,-0.073,1.018,0.258,1.829,1.646,-0.366,200.088
121580,152606,10749,-0.075,0.996,0.206,0.854,2.195,-0.366,200.095
121659,152668,417,-0.075,0.996,0.206,0.854,2.195,-0.366,200.098
121659,152655,10738,-0.07,1.009,0.175,-1.463,1.28,0.366,200.105
121740,152668,417,-0.07,1.009,0.175,-1.463,1.28,0.366,200.108
121740,152716,10771,-0.054,1.026,0.2,-3.354,-0.427,0.732,200.114
121764,152668,417,-0.054,1.026,0.2,-3.354,-0.427,0.732,200.118
121764,152759,10766,-0.057,1.037,0.241,-3.963,-1.585,1.159,200.124
121779,152668,417,-0.057,1.037,0.241,-3.963,-1.585,1.159,200.128
121779,152745,10777,-0.072,1.057,0.254,-5.61,-1.098,1.159,200.134
121822,152668,417,-0.072,1.057,0.254,-5.61,-1.098,1.159,200.138
121822,152774,10751,-0.076,1.043,0.271,-8.293,-0.427,0.061,200.144
121849,152668,417,-0.077,1.02,0.292,-8.293,-0.427,0.061,200.148
121849,152790,10765,-0.077,1.013,0.291,-7.805,-0.244,-0.244,200.154
121850,152668,417,-0.073,1.016,0.289,-7.805,-0.244,-0.244,200.158
121850,152808,10755,-0.076,1.016,0.286,-6.524,0.915,-0.488,200.164
121908,152668,417,-0.08,1.024,0.265,-6.524,0.915,-0.488,200.168
121908,152823,10759,-0.078,1.017,0.253,-5.488,1.829,-0.976,200.174
121947,152924,417,-0.075,1.005,0.249,-5.488,1.829,-0.976,200.178
121947,152891,10795,-0.07,0.996,0.25,-4.817,1.159,-1.037,200.184
122033,152924,417,-0.065,0.982,0.244,-4.817,1.159,-1.037,200.187
122033,152971,10793,-0.057,0.969,0.233,-2.805,0.549,-0.976,200.194
122184,152924,417,-0.057,0.985,0.221,-2.805,0.549,-0.976,200.197
122184,153050,10810,-0.055,1.006,0.218,-0.427,0.366,-0.793,200.204
122235,153180,417,-0.057,1.009,0.229,-0.427,0.366,-0.793,200.207
122235,153120,10815,-0.06,1.001,0.235,0.427,-0.427,-0.671,200.213
122302,153180,417,-0.064,0.993,0.237,0.427,-0.427,-0.671,200.217
122302,153172,10830,-0.064,0.993,0.237,1.098,-1.341,0,200.223
122337,153180,417,-0.068,1.013,0.253,1.098,-1.341,0,200.227
122337,153204,10837,-0.072,1.023,0.258,0.427,-0.854,0.61,200.233
122377,153180,417,-0.072,1.02,0.266,0.427,-0.854,0.61,200.237
122377,153233,10830,-0.075,1.021,0.275,-0.122,-0.366,0.488,200.243
122398,153180,417,-0.079,1.023,0.285,-0.122,-0.366,0.488,200.247
122398,153204,10826,-0.085,1.019,0.288,-0.976,0.061,0.549,200.253
122383,153180,417,-0.087,1.018,0.271,-0.976,0.061,0.549,200.257
122383,153238,10839,-0.074,1.023,0.255,-1.707,0.427,0.488,200.263
122424,153180,417,-0.067,1.018,0.254,-1.707,0.427,0.488,200.267
122424,153248,10855,-0.07,1.013,0.247,-1.159,0.305,0,200.273
122449,153180,417,-0.071,1.003,0.245,-1.159,0.305,0,200.277
122449,153297,10834,-0.064,1.005,0.248,-0.793,0.244,0,200.283
122528,153180,417,-0.06,1,0.249,-0.793,0.244,0,200.286
122528,153341,10849,-0.059,1.003,0.253,-0.061,0.061,0.061,200.293
122534,153436,417,-0.064,1.009,0.247,-0.061,0.061,0.061,200.296
122534,153367,10854,-0.061,1.013,0.252,0.549,0.244,0.488,200.303
122537,153436,417,-0.057,1.013,0.255,0.549,0.244,0.488,200.306
122537,153370,10848,-0.056,1.01,0.26,0.793,0.122,0.366,200.312
122582,153436,417,-0.06,1.01,0.272,0.793,0.122,0.366,200.316
122582,153375,10856,-0.065,1.013,0.273,1.89,0.61,0.427,200.322
122600,153436,417,-0.067,1.022,0.268,1.89,0.61,0.427,200.326
122600,153394,10860,-0.071,1.029,0.27,2.317,1.585,0,200.332
122576,153436,417,-0.074,1.02,0.274,2.317,1.585,0,200.336
122576,153375,10857,-0.077,1.01,0.274,2.256,1.707,-0.122,200.342
122541,153436,417,-0.073,1.005,0.276,2.256,1.707,-0.122,200.346
122541,153370,10855,-0.07,1.006,0.273,2.134,1.829,-0.122,200.352
122532,153436,417,-0.067,1.013,0.263,2.134,1.829,-0.122,200.356
122532,153344,10854,-0.068,1.016,0.255,2.317,2.439,-0.244,200.362
122528,153180,417,-0.068,1.017,0.254,2.317,2.439,-0.244,200.366
122528,153341,10843,-0.067,1.011,0.245,1.89,2.5,-0.122,200.372
122534,153180,417,-0.069,0.996,0.234,1.89,2.5,-0.122,200.376
122534,153336,10843,-0.065,0.987,0.221,0.732,1.707,-0.122,200.382
122523,153180,417,-0.064,1,0.224,0.732,1.707,-0.122,200.385
122523,153321,10868,-0.065,1.016,0.224,0.793,1.037,0.183,200.392
122459,153180,417,-0.06,1.018,0.225,0.793,1.037,0.183,200.395
122459,153294,10834,-0.061,1.026,0.228,0.793,0.61,0.427,200.401
122408,153180,417,-0.064,1.021,0.238,0.793,0.61,0.427,200.405
122408,153252,10845,-0.071,1.009,0.248,0.122,0.244,0.61,200.411
122396,153180,417,-0.077,1.005,0.252,0.122,0.244,0.61,200.415
122396,153247,10851,-0.079,1.004,0.251,0.549,0.244,0.549,200.421
122374,153180,417,-0.083,1.016,0.257,0.549,0.244,0.549,200.425
122374,153213,10831,-0.084,1.021,0.26,2.073,0.305,0.549,200.431
122341,153180,417,-0.086,1.015,0.267,2.073,0.305,0.549,200.435
122341,153227,10834,-0.083,1.008,0.265,3.11,0.61,0.793,200.441
122357,153180,417,-0.08,1.009,0.265,3.11,0.61,0.793,200.445
122357,153179,10817,-0.078,1.011,0.259,3.049,1.098,0.915,200.451
122321,153180,417,-0.073,1.017,0.249,3.049,1.098,0.915,200.455
122321,153181,10837,-0.066,1.017,0.238,2.561,1.341,0.793,200.461
122279,153180,417,-0.067,1.019,0.233,2.561,1.341,0.793,200.465
122279,153161,10806,-0.064,1.022,0.229,2.073,0.976,0.976,200.471
122252,153180,417,-0.059,1.021,0.224,2.073,0.976,0.976,200.475
122252,153155,10807,-0.057,1.018,0.222,1.524,0.366,0.671,200.481
122265,153180,417,-0.059,1.017,0.226,1.524,0.366,0.671,200.484
122265,153149,10818,-0.06,1.024,0.228,1.585,-0.061,0.366,200.491
122257,153180,417,-0.061,1.026,0.233,1.585,-0.061,0.366,200.494
122257,153129,10803,-0.064,1.021,0.241,0.549,-0.305,0.305,200.5
122245,153180,417,-0.068,1.018,0.247,0.549,-0.305,0.305,200.504
122245,153116,10801,-0.071,1.015,0.259,-0.854,-0.427,0.122,200.51
122223,153180,417,-0.075,1.009,0.273,-0.854,-0.427,0.122,200.514
122223,153130,10800,-0.076,1,0.28,-0.183,-0.061,0.366,200.52
122187,153180,417,-0.081,1,0.274,-0.183,-0.061,0.366,200.524
122187,153103,10814,-0.08,1.01,0.271,1.098,0.732,0.305,200.53
122173,153180,417,-0.08,1.009,0.272,1.098,0.732,0.305,200.534
122173,153114,10807,-0.078,1.004,0.262,1.646,1.28,0.549,200.54
122198,152924,417,-0.073,1.005,0.25,1.646,1.28,0.549,200.544
122198,153078,10810,-0.068,1.008,0.249,0.915,1.098,0.976,200.55
122184,153180,417,-0.064,1.016,0.248,0.915,1.098,0.976,200.554
122184,153093,10798,-0.058,1.018,0.246,-0.61,0.793,1.28,200.56
122196,153180,417,-0.056,1.015,0.243,-0.61,0.793,1.28,200.564
122196,153100,10797,-0.052,1.018,0.232,-1.037,0.488,1.402,200.57
122189,153180,417,-0.052,1.018,0.232,-1.037,0.488,1.402,200.573
122189,153110,10819,-0.054,1.023,0.213,-0.854,0.244,1.159,200.58
122209,153180,417,-0.054,1.023,0.213,-0.854,0.244,1.159,200.583
122209,153089,10815,-0.062,1.03,0.21,-0.61,-0.244,0.976,200.59
122240,153180,417,-0.062,1.03,0.21,-0.61,-0.244,0.976,200.593
122240,153129,10806,-0.068,1.01,0.231,0.244,-0.915,0.732,200.599
122219,153180,417,-0.068,1.01,0.231,0.244,-0.915,0.732,200.603
122219,153131,10801,-0.078,1.027,0.263,2.134,-0.671,0.366,200.609
122224,153180,417,-0.078,1.027,0.263,2.134,-0.671,0.366,200.613
122224,153126,10808,-0.082,1.042,0.277,4.39,0.244,-0.549,200.619
122225,153180,417,-0.082,1.042,0.277,4.39,0.244,-0.549,200.623
122225,153135,10812,-0.087,1.028,0.298,3.598,1.341,-0.793,200.629
122232,153180,417,-0.087,1.028,0.298,3.598,1.341,-0.793,200.633
122232,153123,10803,-0.089,1.001,0.257,0.244,1.646,-0.671,200.639
122211,153180,417,-0.089,1.001,0.257,0.244,1.646,-0.671,200.643
122211,153118,10814,-0.071,0.983,0.24,-1.28,1.341,-0.549,200.649
122229,153180,417,-0.071,0.983,0.24,-1.28,1.341,-0.549,200.653
122229,153141,10805,-0.062,0.996,0.233,0.366,1.28,0.244,200.659
122255,153180,417,-0.062,0.996,0.233,0.366,1.28,0.244,200.663
122255,153144,10819,-0.055,1.01,0.22,-0.061,1.098,0.61,200.669
122251,153180,417,-0.055,1.01,0.22,-0.061,1.098,0.61,200.672
122251,153134,10842,-0.05,1.005,0.226,-1.341,0,1.159,200.679
122262,153180,417,-0.05,1.005,0.226,-1.341,0,1.159,200.682
122262,153156,10815,-0.05,1.002,0.226,-0.732,-0.732,1.524,200.689
122227,153180,417,-0.05,1.002,0.226,-0.732,-0.732,1.524,200.692
122227,153135,10812,-0.058,1.041,0.24,0.793,-0.61,1.098,200.698
122247,153180,417,-0.058,1.041,0.24,0.793,-0.61,1.098,200.702
122247,153105,10796,-0.062,1.05,0.251,0.793,-0.61,1.098,200.708
122189,153180,417,-0.068,1.044,0.266,1.646,-0.488,0.61,200.712
122189,153095,10810,-0.074,1.038,0.274,1.646,-0.488,0.61,200.718
122180,152924,417,-0.082,1.031,0.28,1.037,0.061,0.366,200.722
122180,153044,10812,-0.083,1.024,0.279,1.037,0.061,0.366,200.728
122138,152924,417,-0.085,1.018,0.262,-0.427,0.854,0.061,200.732
122138,153058,10812,-0.086,1.014,0.251,-0.427,0.854,0.061,200.738
122146,152924,417,-0.082,1.008,0.239,-1.707,1.037,-0.122,200.742
122146,153039,10795,-0.076,0.997,0.24,-1.707,1.037,-0.122,200.748
122128,152924,417,-0.074,0.985,0.238,-1.646,1.098,0.122,200.752
122128,153018,10796,-0.073,0.983,0.236,-1.646,1.098,0.122,200.758
122100,152924,417,-0.069,0.992,0.223,-0.976,1.037,0.671,200.762
122100,153046,10798,-0.062,1.016,0.214,-0.976,1.037,0.671,200.768
122109,152924,417,-0.055,1.032,0.208,-0.915,0.549,0.854,200.771
122109,153014,10802,-0.052,1.039,0.216,-0.915,0.549,0.854,200.778
122091,152924,417,-0.052,1.032,0.226,-1.585,-0.244,0.976,200.781
122091,152996,10787,-0.053,1.014,0.236,-1.585,-0.244,0.976,200.788
122059,152924,417,-0.061,1.008,0.244,-2.744,-0.915,0.793,200.791
122059,152986,10783,-0.066,1.01,0.251,-2.744,-0.915,0.793,200.797
122062,152924,417,-0.069,1.019,0.257,-1.768,-0.732,0.183,200.801
122062,152971,10777,-0.069,1.031,0.266,-1.768,-0.732,0.183,200.807
122039,152924,417,-0.073,1.03,0.279,0.488,-0.183,-0.244,200.811
122039,152970,10800,-0.078,1.028,0.284,0.488,-0.183,-0.244,200.817
122046,152924,417,-0.081,1.022,0.279,0.244,0.488,-0.488,200.821
122046,152969,10790,-0.083,1.016,0.274,0.244,0.488,-0.488,200.827
122060,152924,417,-0.081,1.003,0.261,-1.159,0.976,-0.427,200.831
122060,152980,10774,-0.08,0.998,0.245,-1.159,0.976,-0.427,200.837
122060,152924,417,-0.076,0.996,0.237,-1.28,1.159,-0.122,200.841
122060,152978,10786,-0.07,0.994,0.237,-1.28,1.159,-0.122,200.847
122036,152924,417,-0.068,0.991,0.235,-0.244,1.037,0.183,200.851
122036,152984,10796,-0.062,1,0.229,-0.244,1.037,0.183,200.857
122040,152924,417,-0.059,1.011,0.232,0.305,0.61,0.427,200.861
122040,152957,10784,-0.059,1.021,0.236,0.305,0.61,0.427,200.867
121997,152924,417,-0.062,1.027,0.236,0.061,0.549,0.671,200.87
121997,152928,10781,-0.059,1.022,0.235,0.061,0.549,0.671,200.877
121947,152924,417,-0.061,1.016,0.232,-0.61,0.183,0.732,200.88
121947,152868,10792,-0.067,1.016,0.233,-0.61,0.183,0.732,200.886
121926,152924,417,-0.067,1.018,0.24,-1.159,-0.244,0.549,200.89
121926,152847,10771,-0.067,1.013,0.252,-1.159,-0.244,0.549,200.896
121890,152668,417,-0.067,1.013,0.256,-0.183,-0.183,0.244,200.9
121890,152829,10760,-0.069,1.02,0.256,-0.183,-0.183,0.244,200.906
121831,152668,417,-0.073,1.026,0.26,0.427,0.244,0.122,200.91
121831,152798,10766,-0.074,1.027,0.262,0.427,0.244,0.122,200.916
121808,152668,417,-0.079,1.02,0.264,0.183,0.61,-0.183,200.92
121808,152785,10755,-0.078,1.012,0.258,0.183,0.61,-0.183,200.926
121812,152668,417,-0.076,1.005,0.253,-0.366,0.671,0,200.93
121812,152789,10752,-0.071,1.005,0.254,-0.366,0.671,0,200.936
121804,152668,417,-0.066,1.008,0.248,-0.549,0.793,0.183,200.94
121804,152764,10762,-0.061,1.008,0.241,-0.549,0.793,0.183,200.946
121773,152668,417,-0.059,1.009,0.234,-0.549,0.915,0.061,200.95
121773,152715,10728,-0.06,1.016,0.236,-0.549,0.915,0.061,200.956
121707,152668,417,-0.061,1.019,0.229,-0.915,0.61,0.244,200.96
121707,152687,10742,-0.062,1.012,0.224,-0.915,0.61,0.244,200.966
121694,152668,417,-0.063,1.007,0.224,-1.28,0.183,0.244,200.969
121694,152661,10727,-0.063,1.007,0.231,-1.28,0.183,0.244,200.976
121656,152668,417,-0.068,1.005,0.241,-0.732,-0.366,0.427,200.979
121656,152652,10740,-0.069,1.004,0.251,-0.732,-0.366,0.427,200.985
121613,152668,417,-0.072,1.014,0.253,0.366,-0.366,0.488,200.989
121613,152623,10719,-0.072,1.028,0.255,0.366,-0.366,0.488,200.995
121563,152668,417,-0.069,1.031,0.257,0.366,-0.183,0.427,200.999
121563,152592,10719,-0.07,1.029,0.262,0.366,-0.183,0.427,201.005
121566,152412,417,-0.072,1.014,0.273,-0.427,0.061,0.366,201.009
121566,152557,10705,-0.07,1.003,0.268,-0.427,0.061,0.366,201.015
121525,152412,417,-0.072,1.001,0.254,-0.732,0.366,0.671,201.019
121525,152560,10714,-0.071,1.013,0.256,-0.732,0.366,0.671,201.025
121545,152412,417,-0.073,1.02,0.258,-0.671,0.915,0.366,201.029
121545,152545,10724,-0.068,1.011,0.251,-0.671,0.915,0.366,201.035
121557,152668,417,-0.067,1.001,0.247,-0.671,0.976,0.366,201.039
121557,152584,10726,-0.069,0.999,0.246,-0.671,0.976,0.366,201.045
121597,152668,417,-0.066,1.01,0.237,-1.037,0.793,0.671,201.049
121597,152613,10738,-0.058,1.021,0.238,-1.037,0.793,0.671,201.055
121625,152668,417,-0.059,1.022,0.237,-0.732,0.793,0.549,201.058
121625,152609,10718,-0.06,1.023,0.23,-0.732,0.793,0.549,201.065
121625,152668,417,-0.064,1.027,0.236,-0.793,0.61,0.427,201.068
121625,152623,10741,-0.065,1.023,0.236,-0.793,0.61,0.427,201.075
121652,152668,417,-0.068,1.017,0.239,-1.098,0.183,0.183,201.078
121652,152629,10739,-0.072,1.022,0.244,-1.098,0.183,0.183,201.084
121635,152668,417,-0.074,1.027,0.253,-0.671,0.183,-0.122,201.088
121635,152633,10746,-0.075,1.034,0.256,-0.671,0.183,-0.122,201.094
121634,152668,417,-0.075,1.031,0.253,-1.463,0.122,-0.366,201.098
121634,152632,10733,-0.077,1.027,0.241,-1.463,0.122,-0.366,201.104
121644,152668,417,-0.078,1.021,0.235,-4.207,0.061,-0.549,201.108
121644,152630,10737,-0.08,1.015,0.243,-4.207,0.061,-0.549,201.114
121652,152668,417,-0.078,1.015,0.245,-7.073,-0.183,-0.244,201.118
121652,152651,10725,-0.076,1.01,0.254,-7.073,-0.183,-0.244,201.124
121640,152668,417,-0.07,1,0.271,-8.78,-0.61,0.244,201.128
121640,152656,10721,-0.071,0.994,0.271,-8.78,-0.61,0.244,201.134
121639,152668,417,-0.068,1.004,0.258,-9.39,-0.366,0.366,201.138
121639,152661,10734,-0.068,1.011,0.242,-9.39,-0.366,0.366,201.144
121666,152668,417,-0.068,1.011,0.242,-9.39,-0.366,0.366,201.148
121666,152646,10735,-0.069,1.005,0.219,-10.854,-0.305,0.305,201.154
121685,152668,417,-0.069,1.005,0.219,-10.854,-0.305,0.305,201.157
121685,152646,10725,-0.062,0.982,0.236,-10.61,-1.524,0.549,201.164
121679,152668,417,-0.062,0.982,0.236,-10.61,-1.524,0.549,201.167
121679,152668,10748,-0.058,1.002,0.252,-6.585,-2.927,0.732,201.174
121671,152668,417,-0.058,1.002,0.252,-6.585,-2.927,0.732,201.177
121671,152691,10733,-0.069,1.043,0.252,-1.28,-2.073,0.427,201.183
121687,152668,417,-0.069,1.043,0.252,-1.28,-2.073,0.427,201.187
121687,152688,10730,-0.071,1.041,0.275,0.305,-1.22,-0.244,201.193
121673,152668,417,-0.071,1.041,0.275,0.305,-1.22,-0.244,201.197
121673,152673,10720,-0.065,1.012,0.286,-0.488,-1.524,-0.244,201.203
121708,152668,417,-0.065,1.012,0.286,-0.488,-1.524,-0.244,201.207
121708,152668,10745,-0.072,1.015,0.266,-0.976,-0.915,-0.366,201.213
121718,152668,417,-0.072,1.015,0.266,-0.976,-0.915,-0.366,201.217
121718,152706,10737,-0.08,1.01,0.263,-0.793,0.366,-0.854,201.223
121741,152668,417,-0.08,1.01,0.263,-0.793,0.366,-0.854,201.227
121741,152703,10740,-0.076,0.992,0.272,0.366,0.671,-0.854,201.233
121750,152668,417,-0.076,0.992,0.272,0.366,0.671,-0.854,201.237
121750,152719,10747,-0.07,1.016,0.266,1.28,0.732,-0.244,201.243
121751,152668,417,-0.07,1.016,0.266,1.28,0.732,-0.244,201.247
121751,152730,10752,-0.06,1.001,0.252,0.549,1.159,0,201.253
121760,152668,417,-0.06,1.001,0.252,0.549,1.159,0,201.256
121760,152720,10745,-0.054,0.992,0.247,-0.305,1.22,0.183,201.263
121730,152668,417,-0.054,0.992,0.247,-0.305,1.22,0.183,201.266
121730,152689,10742,-0.055,1.002,0.24,-0.305,1.037,0.549,201.273
121691,152668,417,-0.055,1.002,0.24,-0.305,1.037,0.549,201.276
121691,152653,10752,-0.057,1.009,0.245,0.305,1.22,0.488,201.282
121665,152668,417,-0.063,1.017,0.258,0.305,1.22,0.488,201.286
121665,152630,10723,-0.066,1.016,0.273,0.793,1.037,0.61,201.292
121626,152668,417,-0.067,1.012,0.276,0.793,1.037,0.61,201.296
121626,152608,10722,-0.067,1.012,0.274,1.037,0.976,0.427,201.302
121591,152668,417,-0.073,1.021,0.277,1.037,0.976,0.427,201.306
121591,152602,10728,-0.079,1.019,0.277,0.366,1.402,0.427,201.312
121582,152668,417,-0.078,1.009,0.261,0.366,1.402,0.427,201.316
121582,152598,10719,-0.076,1.009,0.246,-0.061,1.22,0.488,201.322
121605,152668,417,-0.076,1.009,0.244,-0.061,1.22,0.488,201.326
121605,152611,10731,-0.073,1.007,0.248,0.061,0.915,0.488,201.332
121591,152668,417,-0.076,1.006,0.249,0.061,0.915,0.488,201.336
121591,152613,10740,-0.077,1.01,0.248,1.28,1.098,0.244,201.342
121624,152668,417,-0.077,1.022,0.252,1.28,1.098,0.244,201.346
121624,152624,10728,-0.073,1.031,0.255,1.524,1.341,0.305,201.352
121626,152668,417,-0.073,1.034,0.249,1.524,1.341,0.305,201.355
121626,152613,10737,-0.07,1.023,0.25,0.976,1.22,-0.183,201.362
121635,152668,417,-0.066,1.018,0.245,0.976,1.22,-0.183,201.365
121635,152604,10718,-0.065,1.014,0.249,1.524,1.037,-0.366,201.372
121593,152668,417,-0.069,1.017,0.254,1.524,1.037,-0.366,201.375
121593,152585,10740,-0.072,1.015,0.257,2.5,1.524,-0.488,201.381
121576,152412,417,-0.077,1.01,0.249,2.5,1.524,-0.488,201.385
121576,152539,10726,-0.079,1.011,0.249,2.744,1.463,-0.427,201.391
121535,152412,417,-0.075,1.014,0.25,2.744,1.463,-0.427,201.395
121535,152511,10726,-0.072,1.008,0.247,1.951,1.037,-0.305,201.401
121492,152412,417,-0.066,0.997,0.25,1.951,1.037,-0.305,201.405
121492,152518,10713,-0.066,0.996,0.246,1.951,0.793,0,201.411
121521,152412,417,-0.071,0.998,0.247,1.951,0.793,0,201.415
121521,152515,10727,-0.069,1.004,0.252,2.073,0.915,0.427,201.421
121560,152668,417,-0.069,1.01,0.258,2.073,0.915,0.427,201.425
121560,152576,10711,-0.069,1.013,0.249,1.768,0.854,0.427,201.431
121626,152668,417,-0.069,1.021,0.246,1.768,0.854,0.427,201.435
121626,152633,10716,-0.066,1.025,0.246,0.976,0.488,0.305,201.441
121621,152668,417,-0.066,1.03,0.245,0.976,0.488,0.305,201.445
121621,152624,10734,-0.068,1.027,0.246,-0.366,0.244,0.305,201.451
121646,152668,417,-0.07,1.019,0.259,-0.366,0.244,0.305,201.454
121646,152630,10740,-0.07,1.011,0.262,-1.585,0.061,0.305,201.461
121655,152668,417,-0.073,1.009,0.255,-1.585,0.061,0.305,201.464
121655,152637,10754,-0.076,1.008,0.254,-1.646,0.122,0,201.47
121646,152668,417,-0.075,1.014,0.25,-1.646,0.122,0,201.474
121646,152637,10729,-0.075,1.017,0.26,-0.976,0.366,-0.427,201.48
121612,152668,417,-0.078,1.009,0.264,-0.976,0.366,-0.427,201.484
121612,152604,10722,-0.078,1.002,0.256,-0.366,0.366,-0.244,201.49
121628,152668,417,-0.072,1.006,0.256,-0.366,0.366,-0.244,201.494
121628,152596,10747,-0.071,1.019,0.256,-0.366,0.549,-0.122,201.5
121565,152412,417,-0.072,1.015,0.252,-0.366,0.549,-0.122,201.504
121565,152554,10719,-0.07,1.001,0.248,-0.61,0.732,0.061,201.51
121500,152412,417,-0.072,0.998,0.246,-0.61,0.732,0.061,201.514
121500,152520,10713,-0.067,1.005,0.246,-0.793,0.244,0.427,201.52
121496,152412,417,-0.062,1.007,0.25,-0.793,0.244,0.427,201.524
121496,152478,10704,-0.063,1.014,0.249,0.244,0.244,0.488,201.53
121467,152412,417,-0.06,1.029,0.24,0.244,0.244,0.488,201.534
121467,152466,10718,-0.06,1.039,0.249,1.037,0.366,0.305,201.54
121474,152412,417,-0.064,1.035,0.256,1.037,0.366,0.305,201.543
121474,152497,10719,-0.066,1.025,0.249,0.061,0.122,0,201.55
121475,152412,417,-0.066,1.014,0.248,0.061,0.122,0,201.553
121475,152495,10720,-0.073,1.005,0.252,-1.037,-0.122,-0.183,201.56
121495,152412,417,-0.076,1.004,0.26,-1.037,-0.122,-0.183,201.563
121495,152503,10726,-0.073,1.003,0.26,0.427,0.183,-0.183,201.569
121502,152412,417,-0.073,1.006,0.267,0.427,0.183,-0.183,201.573
121502,152527,10719,-0.077,1.02,0.278,2.256,0.793,-0.244,201.579
121532,152412,417,-0.077,1.023,0.272,2.256,0.793,-0.244,201.583
121532,152535,10724,-0.079,1.017,0.264,1.28,1.098,-0.183,201.589
121571,152412,417,-0.077,1.008,0.256,1.28,1.098,-0.183,201.593
121571,152557,10723,-0.074,0.998,0.257,-0.671,0.976,0,201.599
121603,152668,417,-0.075,0.994,0.248,-0.671,0.976,0,201.603
121603,152623,10736,-0.073,0.988,0.24,-1.28,0.854,0.549,201.609
121615,152668,417,-0.069,0.993,0.234,-1.28,0.854,0.549,201.613
121615,152620,10746,-0.071,1.013,0.24,-1.037,0.427,0.549,201.619
121624,152668,417,-0.066,1.021,0.243,-1.037,0.427,0.549,201.623
121624,152616,10742,-0.064,1.017,0.243,-0.793,0.244,0.61,201.629
121635,152668,417,-0.067,1.017,0.244,-0.793,0.244,0.61,201.633
121635,152630,10724,-0.069,1.018,0.245,-0.854,0,0.732,201.639
121620,152668,417,-0.07,1.015,0.242,-0.854,0,0.732,201.642
121620,152632,10737,-0.069,1.018,0.245,-0.854,-0.183,0.61,201.649
121656,152668,417,-0.073,1.026,0.252,-0.854,-0.183,0.61,201.652
121656,152643,10750,-0.079,1.022,0.271,-0.488,-0.122,0.305,201.659
121659,152668,417,-0.079,1.016,0.28,-0.488,-0.122,0.305,201.662
121659,152618,10740,-0.082,1.015,0.278,0.427,0.305,0.122,201.668
121665,152668,417,-0.083,1.019,0.281,0.427,0.305,0.122,201.672
121665,152631,10732,-0.082,1.018,0.276,0.732,0.976,0.183,201.678
121687,152668,417,-0.082,1.012,0.271,0.732,0.976,0.183,201.682
121687,152629,10741,-0.077,1.007,0.262,-0.122,1.159,0,201.688
121643,152668,417,-0.074,1,0.258,-0.122,1.159,0,201.692
121643,152655,10746,-0.074,0.983,0.251,-1.646,0.915,0.305,201.698
121681,152668,417,-0.073,0.97,0.232,-1.646,0.915,0.305,201.702
121681,152649,10736,-0.071,0.978,0.216,-1.768,0.671,0.854,201.708
121714,152668,417,-0.067,1.005,0.208,-1.768,0.671,0.854,201.712
121714,152637,10743,-0.062,1.016,0.205,-1.22,-0.122,1.341,201.718
121693,152668,417,-0.062,1.016,0.205,-1.22,-0.122,1.341,201.722
121693,152653,10737,-0.057,1.017,0.221,-0.915,-1.402,1.463,201.728
121699,152668,417,-0.057,1.017,0.221,-0.915,-1.402,1.463,201.732
121699,152652,10758,-0.061,1.035,0.233,-0.915,-1.951,1.585,201.738
121678,152668,417,-0.061,1.035,0.233,-0.915,-1.951,1.585,201.741
121678,152651,10750,-0.072,1.039,0.255,-0.915,-1.768,1.159,201.748
121692,152668,417,-0.072,1.039,0.255,-0.915,-1.768,1.159,201.751
121692,152658,10748,-0.081,1.035,0.275,-0.366,-1.707,0.488,201.758
121697,152668,417,-0.081,1.035,0.275,-0.366,-1.707,0.488,201.761
121697,152681,10746,-0.087,1.02,0.299,0.732,-1.28,-0.183,201.767
121735,152668,417,-0.087,1.02,0.299,0.732,-1.28,-0.183,201.771
121735,152677,10743,-0.083,1.013,0.302,1.402,-0.305,-0.793,201.777
121744,152668,417,-0.083,1.013,0.302,1.402,-0.305,-0.793,201.781
121744,152682,10749,-0.075,1.003,0.279,0.488,0.488,-0.915,201.787
121739,152668,417,-0.075,1.003,0.279,0.488,0.488,-0.915,201.791
121739,152695,10742,-0.071,0.989,0.239,-0.61,0.671,-0.366,201.797
121727,152668,417,-0.071,0.989,0.239,-0.61,0.671,-0.366,201.801
121727,152676,10752,-0.058,0.99,0.232,-1.098,0.427,0.061,201.807
121721,152668,417,-0.058,0.99,0.232,-1.098,0.427,0.061,201.811
121721,152670,10741,-0.05,1.007,0.238,-1.037,0,0.427,201.817
121708,152668,417,-0.05,1.007,0.238,-1.037,0,0.427,201.821
121708,152656,10745,-0.049,1.023,0.226,-1.768,-0.305,0.915,201.827
121708,152668,417,-0.049,1.023,0.226,-1.768,-0.305,0.915,201.831
121708,152666,10742,-0.058,1.023,0.226,-3.841,-0.793,1.037,201.837
121705,152668,417,-0.058,1.023,0.226,-3.841,-0.793,1.037,201.84
121705,152642,10747,-0.066,0.998,0.249,-4.207,-1.463,0.793,201.847
121676,152668,417,-0.066,0.998,0.249,-4.207,-1.463,0.793,201.85
121676,152639,10743,-0.078,1.018,0.295,-1.585,-0.976,0.854,201.857
121673,152668,417,-0.078,1.018,0.295,-1.585,-0.976,0.854,201.86
121673,152636,10730,-0.083,1.023,0.316,-1.585,-0.976,0.854,201.866
121681,152668,417,-0.087,1.019,0.321,1.402,0.488,0.305,201.87
121681,152625,10741,-0.091,1.029,0.307,1.402,0.488,0.305,201.876
121651,152668,417,-0.093,1.036,0.293,1.341,1.89,-0.122,201.88
121651,152624,10738,-0.088,1.028,0.276,1.341,1.89,-0.122,201.886
121663,152668,417,-0.08,1.006,0.254,-0.488,2.317,-0.183,201.89
121663,152628,10728,-0.078,0.979,0.238,-0.488,2.317,-0.183,201.896
121676,152668,417,-0.073,0.974,0.224,-0.854,1.768,0.122,201.9
121676,152643,10734,-0.069,0.988,0.211,-0.854,1.768,0.122,201.906
121671,152668,417,-0.065,1.002,0.202,0.122,1.341,0.488,201.91
121671,152604,10740,-0.056,1.025,0.195,0.122,1.341,0.488,201.916
121624,152668,417,-0.052,1.049,0.2,0.427,0.427,0.427,201.92
121624,152577,10742,-0.05,1.041,0.214,0.427,0.427,0.427,201.926
121585,152412,417,-0.054,1.025,0.221,-1.402,-1.037,0.61,201.93
121585,152571,10724,-0.061,1.013,0.232,-1.402,-1.037,0.61,201.936
121532,152412,417,-0.067,1.006,0.256,-2.195,-1.524,0.61,201.939
121532,152518,10723,-0.073,1.01,0.276,-2.195,-1.524,0.61,201.946
121464,152412,417,-0.079,1.017,0.29,0.305,-0.732,-0.122,201.949
121464,152482,10725,-0.086,1.026,0.306,0.305,-0.732,-0.122,201.955
121455,152412,417,-0.092,1.029,0.319,2.744,0.671,-0.671,201.959
121455,152460,10703,-0.091,1.02,0.313,2.744,0.671,-0.671,201.965
121434,152412,417,-0.088,1.011,0.289,1.707,1.524,-0.793,201.969
121434,152434,10699,-0.086,1.012,0.268,1.707,1.524,-0.793,201.975
121432,152412,417,-0.082,1.008,0.255,-0.915,1.768,-0.427,201.979
121432,152447,10722,-0.075,0.99,0.252,-0.915,1.768,-0.427,201.985
121474,152412,417,-0.069,0.973,0.248,-1.768,1.22,-0.061,201.989
121474,152468,10704,-0.066,0.968,0.239,-1.768,1.22,-0.061,201.995
121499,152412,417,-0.06,0.985,0.225,-0.854,1.037,0.427,201.999
121499,152483,10716,-0.054,1.018,0.219,-0.854,1.037,0.427,202.005
121531,152412,417,-0.05,1.029,0.217,-1.22,0.854,0.854,202.009
121531,152509,10725,-0.045,1.019,0.225,-1.22,0.854,0.854,202.015
121534,152412,417,-0.043,1,0.238,-2.317,-0.549,1.159,202.019
121534,152501,10731,-0.052,0.994,0.249,-2.317,-0.549,1.159,202.025
121530,152412,417,-0.059,0.996,0.256,-2.073,-0.976,1.524,202.028
121530,152514,10728,-0.064,1.012,0.262,-2.073,-0.976,1.524,202.035
121507,152412,417,-0.07,1.029,0.274,0.183,0.061,0.976,202.038
121507,152506,10718,-0.079,1.033,0.288,0.183,0.061,0.976,202.045
121462,152412,417,-0.083,1.035,0.288,1.707,0.732,0.671,202.048
121462,152472,10725,-0.089,1.031,0.286,1.707,0.732,0.671,202.054
121478,152412,417,-0.092,1.022,0.284,0.671,1.159,0.61,202.058
121478,152468,10706,-0.091,1.016,0.275,0.671,1.159,0.61,202.064
121458,152412,417,-0.085,1.008,0.267,-0.366,1.28,0.488,202.068
121458,152443,10706,-0.078,1.01,0.252,-0.366,1.28,0.488,202.074
121470,152412,417,-0.07,1.008,0.239,0.061,1.463,0.244,202.078
121470,152445,10711,-0.068,1.002,0.228,0.061,1.463,0.244,202.084
121434,152412,417,-0.072,1.002,0.217,0.183,1.22,0.427,202.088
121434,152434,10718,-0.067,1.009,0.218,0.183,1.22,0.427,202.094
121386,152412,417,-0.06,1.007,0.224,-0.793,0.305,0.549,202.098
121386,152414,10697,-0.059,1.003,0.226,-0.793,0.305,0.549,202.104
121395,152412,417,-0.062,1.009,0.23,-0.854,-0.549,0.671,202.108
121395,152396,10701,-0.061,1.02,0.243,-0.854,-0.549,0.671,202.114
121381,152412,417,-0.062,1.025,0.248,-0.793,-0.793,0.732,202.118
121381,152382,10690,-0.066,1.021,0.25,-0.793,-0.793,0.732,202.124
121327,152412,417,-0.074,1.017,0.26,-1.037,-0.732,0.427,202.127
121327,152336,10709,-0.079,1.017,0.276,-1.037,-0.732,0.427,202.134
121254,152156,417,-0.081,1.017,0.292,-0.915,-0.61,0.671,202.137
121254,152278,10694,-0.08,1.009,0.293,-0.915,-0.61,0.671,202.144
121212,152156,417,-0.077,1.01,0.283,-0.061,-0.061,0.366,202.147
121212,152264,10675,-0.075,1.021,0.28,-0.061,-0.061,0.366,202.153
121241,152156,417,-0.073,1.028,0.278,0.305,0.549,0.122,202.157
121241,152282,10662,-0.075,1.018,0.267,0.305,0.549,0.122,202.163
121266,152156,417,-0.073,0.995,0.258,-0.244,0.793,-0.122,202.167
121266,152287,10701,-0.071,0.983,0.25,-0.244,0.793,-0.122,202.173
121274,152412,417,-0.068,0.99,0.236,0.244,0.488,0.366,202.177
121274,152324,10680,-0.061,1.008,0.228,0.244,0.488,0.366,202.183
121293,152412,417,-0.056,1.03,0.228,1.037,0.549,0.488,202.187
121293,152324,10700,-0.055,1.035,0.231,1.037,0.549,0.488,202.193
121305,152412,417,-0.056,1.027,0.235,0.671,0.122,0.366,202.197
121305,152349,10686,-0.062,1.013,0.244,0.671,0.122,0.366,202.203
121289,152412,417,-0.065,1.009,0.249,-0.61,-0.244,0.61,202.207
121289,152330,10669,-0.068,1.012,0.25,-0.61,-0.244,0.61,202.213
121243,152156,417,-0.073,1.016,0.249,-0.915,0.061,0.488,202.217
121243,152273,10681,-0.072,1.022,0.261,-0.915,0.061,0.488,202.223
121211,152156,417,-0.076,1.022,0.288,0.305,0.366,0.244,202.226
121211,152275,10679,-0.081,1.016,0.294,0.305,0.366,0.244,202.233
121192,152156,417,-0.083,1.014,0.285,0.915,0.915,-0.122,202.236
121192,152273,10676,-0.087,1.016,0.278,0.915,0.915,-0.122,202.243
121191,152156,417,-0.084,1.017,0.266,-0.61,1.585,-0.305,202.246
121191,152259,10672,-0.078,1.005,0.255,-0.61,1.585,-0.305,202.252
121272,152156,417,-0.074,0.994,0.257,-1.768,1.28,0,202.256
121272,152292,10673,-0.073,0.988,0.257,-1.768,1.28,0,202.262
121298,152412,417,-0.066,0.985,0.252,-0.732,0.915,0.427,202.266
121298,152326,10690,-0.06,0.998,0.249,-0.732,0.915,0.427,202.272
121347,152412,417,-0.057,1.016,0.247,0.732,0.976,0.122,202.276
121347,152364,10697,-0.054,1.026,0.247,0.732,0.976,0.122,202.282
121366,152412,417,-0.055,1.028,0.235,0.671,0.854,0.122,202.286
121366,152414,10702,-0.06,1.024,0.227,0.671,0.854,0.122,202.292
121346,152412,417,-0.06,1.024,0.227,0.671,0.854,0.122,202.296
121346,152363,10694,-0.058,1.002,0.232,-1.341,0.244,0.549,202.302
121326,152412,417,-0.058,1.002,0.232,-1.341,0.244,0.549,202.306
121326,152354,10678,-0.068,0.993,0.244,-2.439,-0.61,0.488,202.312
121288,152412,417,-0.068,0.993,0.244,-2.439,-0.61,0.488,202.316
121288,152333,10687,-0.081,1.025,0.261,-0.793,-0.427,0.549,202.322
121273,152156,417,-0.081,1.025,0.261,-0.793,-0.427,0.549,202.325
121273,152299,10687,-0.084,1.044,0.273,0.61,0.244,0.427,202.332
121237,152156,417,-0.084,1.044,0.273,0.61,0.244,0.427,202.335
121237,152306,10681,-0.081,1.015,0.278,-0.61,0.244,0.122,202.342
121232,152156,417,-0.081,1.015,0.278,-0.61,0.244,0.122,202.345
121232,152273,10677,-0.076,1.004,0.278,-1.524,0.061,0.183,202.351
121192,152156,417,-0.076,1.004,0.278,-1.524,0.061,0.183,202.355
121192,152254,10667,-0.076,1.017,0.266,-0.305,0.976,-0.244,202.361
121169,152156,417,-0.076,1.017,0.266,-0.305,0.976,-0.244,202.365
121169,152235,10676,-0.07,1.007,0.249,0.671,1.646,-0.427,202.371
121145,152156,417,-0.07,1.007,0.249,0.671,1.646,-0.427,202.375
121145,152207,10666,-0.061,0.998,0.242,0.305,1.037,-0.183,202.381
121121,152156,417,-0.061,0.998,0.242,0.305,1.037,-0.183,202.385
121121,152202,10667,-0.057,1,0.241,-0.427,0.671,0.244,202.391
121086,152156,417,-0.057,1,0.241,-0.427,0.671,0.244,202.395
121086,152164,10656,-0.061,1.013,0.243,-0.61,0.732,0.488,202.401
121051,152156,417,-0.061,1.013,0.243,-0.61,0.732,0.488,202.405
121051,152130,10652,-0.068,1.02,0.241,-1.341,0.305,0.488,202.411
121036,152156,417,-0.068,1.02,0.241,-1.341,0.305,0.488,202.415
121036,152112,10653,-0.068,1.009,0.249,-1.768,-0.244,0.427,202.421
121020,152156,417,-0.068,1.009,0.249,-1.768,-0.244,0.427,202.424
121020,152092,10658,-0.075,1.019,0.278,-0.244,-0.366,0.305,202.431
120994,152156,417,-0.075,1.019,0.278,-0.244,-0.366,0.305,202.434
120994,152082,10655,-0.084,1.022,0.271,0.305,0.183,0.061,202.441
121022,152156,417,-0.089,1.024,0.269,0.305,0.183,0.061,202.444
121022,152092,10656,-0.088,1.025,0.271,-0.305,0.488,0,202.45
121001,152156,417,-0.084,1.018,0.269,-0.305,0.488,0,202.454
121001,152101,10643,-0.083,1.011,0.263,-0.915,0.244,0.183,202.46
121013,152156,417,-0.079,1,0.26,-0.915,0.244,0.183,202.464
121013,152102,10667,-0.077,0.995,0.256,-1.341,0.61,0.366,202.47
121016,152156,417,-0.077,0.985,0.255,-1.341,0.61,0.366,202.474
121016,152111,10652,-0.075,0.988,0.256,-0.549,0.793,0.549,202.48
120991,152156,417,-0.068,1.004,0.257,-0.549,0.793,0.549,202.484
120991,152087,10641,-0.066,1.013,0.251,0.854,0.793,0.671,202.49
121017,152156,417,-0.065,1.016,0.248,0.854,0.793,0.671,202.494
121017,152093,10654,-0.059,1.022,0.241,0.915,0.61,0.732,202.5
121013,152156,417,-0.063,1.024,0.237,0.915,0.61,0.732,202.504
121013,152113,10660,-0.064,1.016,0.236,-1.159,0.183,0.854,202.51
121003,152156,417,-0.064,1.008,0.234,-1.159,0.183,0.854,202.514
121003,152070,10662,-0.064,1.005,0.239,-2.012,-0.549,0.732,202.52
121021,152156,417,-0.063,1.007,0.249,-2.012,-0.549,0.732,202.523
121021,152106,10636,-0.068,1.01,0.258,-0.305,-0.671,0.793,202.53
121044,152156,417,-0.072,1.019,0.264,-0.305,-0.671,0.793,202.533
121044,152116,10663,-0.071,1.027,0.269,1.341,-0.183,0.305,202.54
121064,152156,417,-0.073,1.034,0.276,1.341,-0.183,0.305,202.543
121064,152141,10637,-0.08,1.031,0.284,1.402,0.122,-0.122,202.549
121057,152156,417,-0.079,1.013,0.283,1.402,0.122,-0.122,202.553
121057,152126,10656,-0.081,0.998,0.279,0.61,0.366,-0.061,202.559
121085,152156,417,-0.079,0.999,0.275,0.61,0.366,-0.061,202.563
121085,152173,10665,-0.075,1.009,0.265,-0.183,0.854,0.061,202.569
121098,152156,417,-0.073,1.01,0.253,-0.183,0.854,0.061,202.573
121098,152190,10671,-0.071,0.999,0.242,-0.793,1.159,0.244,202.579
121121,152156,417,-0.069,0.992,0.241,-0.793,1.159,0.244,202.583
121121,152185,10666,-0.067,0.99,0.238,-1.463,0.671,0.793,202.589
121121,152156,417,-0.064,0.994,0.228,-1.463,0.671,0.793,202.593
121121,152177,10656,-0.061,1.006,0.224,-1.22,0.366,1.037,202.599
121103,152156,417,-0.054,1.026,0.241,-1.22,0.366,1.037,202.603
121103,152170,10679,-0.054,1.033,0.249,0.244,-0.183,0.915,202.609
121109,152156,417,-0.062,1.029,0.255,0.244,-0.183,0.915,202.613
121109,152175,10663,-0.068,1.026,0.259,0.244,-0.305,0.793,202.619
121129,152156,417,-0.072,1.026,0.265,0.244,-0.305,0.793,202.622
121129,152175,10676,-0.074,1.026,0.26,-0.793,-0.183,0.366,202.629
121127,152156,417,-0.073,1.019,0.259,-0.793,-0.183,0.366,202.632
121127,152189,10675,-0.075,1.015,0.269,-0.427,-0.061,0.061,202.638
121153,152156,417,-0.079,1.015,0.284,-0.427,-0.061,0.061,202.642
121153,152209,10679,-0.081,1.006,0.294,0.854,0.671,-0.061,202.648
121206,152156,417,-0.084,1.001,0.283,0.854,0.671,-0.061,202.652
121206,152232,10686,-0.08,1.01,0.269,1.524,1.463,-0.427,202.658
121217,152156,417,-0.077,1.019,0.254,1.524,1.463,-0.427,202.662
121217,152258,10672,-0.075,1.019,0.253,0.427,1.585,-0.244,202.668
121236,152156,417,-0.071,1,0.245,0.427,1.585,-0.244,202.672
121236,152267,10676,-0.069,0.978,0.238,-0.854,1.037,0.122,202.678
121231,152156,417,-0.066,0.979,0.23,-0.854,1.037,0.122,202.682
121231,152261,10679,-0.062,0.995,0.229,-0.732,0.427,0.671,202.688
121221,152156,417,-0.062,1.016,0.231,-0.732,0.427,0.671,202.692
121221,152262,10672,-0.063,1.029,0.228,0.122,0.549,0.61,202.698
121227,152156,417,-0.061,1.027,0.229,0.122,0.549,0.61,202.702
121227,152276,10680,-0.064,1.029,0.245,-0.488,-0.244,0.671,202.708
121221,152156,417,-0.066,1.023,0.257,-0.488,-0.244,0.671,202.712
121221,152275,10686,-0.069,1.018,0.265,-1.646,-0.793,0.549,202.718
121245,152156,417,-0.072,1.018,0.257,-1.646,-0.793,0.549,202.721
121245,152287,10675,-0.078,1.026,0.26,-2.012,-0.183,0.244,202.728
121240,152156,417,-0.083,1.022,0.268,-2.012,-0.183,0.244,202.731
121240,152272,10691,-0.082,1.016,0.272,-1.22,0,-0.061,202.737
121256,152156,417,-0.084,1.01,0.272,-1.22,0,-0.061,202.741
121256,152295,10665,-0.084,1.005,0.273,-0.732,0.061,-0.305,202.747
121227,152156,417,-0.08,1.006,0.27,-0.732,0.061,-0.305,202.751
121227,152294,10674,-0.079,1.002,0.262,0,0.366,-0.122,202.757
121248,152156,417,-0.072,1.004,0.259,0,0.366,-0.122,202.761
121248,152262,10674,-0.073,1.005,0.263,0.671,0.549,-0.122,202.767
121249,152156,417,-0.074,1.007,0.259,0.671,0.549,-0.122,202.771
121249,152276,10674,-0.072,1.006,0.248,-0.366,0.61,0.305,202.777
121218,152156,417,-0.066,1.007,0.237,-0.366,0.61,0.305,202.781
121218,152278,10668,-0.062,1.007,0.245,-1.646,0.061,0.549,202.787
121197,152156,417,-0.054,1.008,0.255,-1.646,0.061,0.549,202.791
121197,152248,10673,-0.057,1.01,0.255,-1.341,-0.183,0.793,202.797
121141,152156,417,-0.059,1.013,0.257,-1.341,-0.183,0.793,202.801
121141,152195,10692,-0.064,1.021,0.253,-1.098,0.122,0.488,202.807
121073,152156,417,-0.069,1.028,0.251,-1.098,0.122,0.488,202.81
121073,152142,10656,-0.072,1.023,0.254,-1.89,-0.061,0.183,202.817
121045,152156,417,-0.073,1.01,0.264,-1.89,-0.061,0.183,202.82
121045,152108,10663,-0.076,0.998,0.265,-2.073,-0.366,0.244,202.827
121032,152156,417,-0.076,0.995,0.268,-2.073,-0.366,0.244,202.83
121032,152087,10648,-0.079,1.002,0.272,-1.463,-0.061,0.366,202.836
121003,152156,417,-0.077,1.007,0.273,-1.463,-0.061,0.366,202.84
121003,152069,10647,-0.082,1.013,0.271,-0.305,0.427,0.244,202.846
121022,152156,417,-0.08,1.018,0.271,-0.305,0.427,0.244,202.85
121022,152108,10646,-0.076,1.021,0.268,-0.061,0.854,0.488,202.856
121040,152156,417,-0.075,1.02,0.262,-0.061,0.854,0.488,202.86
121040,152104,10666,-0.071,1.015,0.258,-0.671,0.854,0.305,202.866
121047,152156,417,-0.068,1.01,0.259,-0.671,0.854,0.305,202.87
121047,152132,10662,-0.07,1.006,0.26,-1.585,0.793,0.488,202.876
121082,152156,417,-0.07,1.006,0.26,-1.585,0.793,0.488,202.88
121082,152130,10672,-0.064,1.006,0.241,-1.159,0.671,0.549,202.886
121098,152156,417,-0.064,1.006,0.241,-1.159,0.671,0.549,202.89
121098,152167,10640,-0.065,1.029,0.236,-0.671,0.488,0.305,202.896
121067,152156,417,-0.065,1.029,0.236,-0.671,0.488,0.305,202.9
121067,152141,10649,-0.07,1.01,0.246,-1.768,-0.061,0.305,202.906
121074,152156,417,-0.07,1.01,0.246,-1.768,-0.061,0.305,202.909
121074,152137,10650,-0.07,0.995,0.255,-2.988,-0.671,0.488,202.916
121026,152156,417,-0.07,0.995,0.255,-2.988,-0.671,0.488,202.919
121026,152103,10645,-0.071,0.996,0.257,-1.585,-0.671,0.305,202.926
121008,152156,417,-0.071,0.996,0.257,-1.585,-0.671,0.305,202.929
121008,152086,10639,-0.079,1.017,0.281,0.61,-0.061,0.366,202.935
121031,152156,417,-0.079,1.017,0.281,0.61,-0.061,0.366,202.939
121031,152107,10642,-0.081,1.023,0.274,0.854,0.488,0.244,202.945
121056,152156,417,-0.081,1.023,0.274,0.854,0.488,0.244,202.949
121056,152109,10650,-0.079,1.016,0.273,-1.28,0.488,0.244,202.955
121061,152156,417,-0.079,1.016,0.273,-1.28,0.488,0.244,202.959
