128916,157532,417,-0.099,1.027,0.187,-0.366,1.159,0.366,138.658
128916,157620,11666,-0.1,1.02,0.183,-0.366,1.159,0.366,138.665
128949,157532,417,-0.098,1.019,0.184,-1.585,1.037,0.305,138.668
128949,157620,11673,-0.096,1.02,0.182,-1.585,1.037,0.305,138.674
128919,157532,417,-0.098,1.017,0.18,-1.585,0.915,0.183,138.678
128919,157629,11684,-0.095,1.011,0.175,-1.585,0.915,0.183,138.684
128949,157532,417,-0.097,1.012,0.169,-0.427,1.098,0.122,138.688
128949,157620,11688,-0.101,1.013,0.168,-0.427,1.098,0.122,138.694
128916,157532,417,-0.105,1.017,0.163,0.549,1.402,0.244,138.698
128916,157632,11688,-0.105,1.022,0.166,0.549,1.402,0.244,138.704
128940,157532,417,-0.104,1.026,0.165,0.915,1.098,0.244,138.708
128940,157598,11680,-0.104,1.03,0.17,0.915,1.098,0.244,138.714
128947,157532,417,-0.104,1.033,0.177,0.732,0.488,0.732,138.718
128947,157644,11667,-0.107,1.033,0.181,0.732,0.488,0.732,138.724
128942,157532,417,-0.107,1.033,0.181,0.732,0.488,0.732,138.728
128942,157631,11672,-0.101,1.027,0.177,-0.122,0,0.793,138.734
128953,157532,417,-0.101,1.027,0.177,-0.122,0,0.793,138.738
128953,157640,11666,-0.099,1.024,0.189,-0.976,-0.122,0.671,138.744
128955,157532,417,-0.099,1.024,0.189,-0.976,-0.122,0.671,138.747
128955,157649,11680,-0.1,1.029,0.179,-0.793,0.122,0.671,138.754
128950,157532,417,-0.1,1.029,0.179,-0.793,0.122,0.671,138.757
128950,157648,11678,-0.103,1.025,0.178,-0.671,0.61,0.183,138.763
128978,157532,417,-0.103,1.025,0.178,-0.671,0.61,0.183,138.767
128978,157654,11667,-0.102,1.023,0.186,0,0.549,-0.244,138.773
128972,157532,417,-0.102,1.023,0.186,0,0.549,-0.244,138.777
128972,157640,11683,-0.097,1.02,0.171,0.793,0.244,-0.183,138.783
128986,157532,417,-0.097,1.02,0.171,0.793,0.244,-0.183,138.787
128986,157686,11685,-0.096,1.026,0.191,1.463,0.61,-0.549,138.793
128980,157532,417,-0.096,1.026,0.191,1.463,0.61,-0.549,138.797
128980,157663,11688,-0.097,1.026,0.173,1.646,0.793,-0.427,138.803
128994,157532,417,-0.097,1.026,0.173,1.646,0.793,-0.427,138.807
128994,157653,11674,-0.102,1.024,0.181,0.366,0.915,-0.305,138.813
128933,157532,417,-0.102,1.024,0.181,0.366,0.915,-0.305,138.817
128933,157637,11671,-0.095,1.019,0.172,-0.549,0.244,-0.183,138.823
128908,157532,417,-0.095,1.019,0.172,-0.549,0.244,-0.183,138.827
128908,157607,11648,-0.097,1.012,0.19,-1.402,0,0.183,138.833
128843,157532,417,-0.097,1.012,0.19,-1.402,0,0.183,138.836
128843,157529,11648,-0.1,1.012,0.184,-2.134,-0.122,0.732,138.843
128740,157532,417,-0.1,1.012,0.184,-2.134,-0.122,0.732,138.846
128740,157488,11642,-0.099,1.023,0.177,-1.463,0.061,0.488,138.853
128612,157276,417,-0.099,1.023,0.177,-1.463,0.061,0.488,138.856
128612,157351,11627,-0.105,1.042,0.186,-0.427,0.488,0.366,138.862
128476,157276,417,-0.105,1.042,0.186,-0.427,0.488,0.366,138.866
128476,157275,11597,-0.105,1.04,0.182,0,0.61,0.427,138.872
128368,157020,417,-0.104,1.032,0.18,0,0.61,0.427,138.876
128368,157175,11606,-0.101,1.025,0.176,-0.732,0.793,0.366,138.882
128298,157020,417,-0.102,1.019,0.17,-0.732,0.793,0.366,138.886
128298,157114,11580,-0.103,1.019,0.167,-1.28,0.915,0.61,138.892
128260,157020,417,-0.104,1.021,0.169,-1.28,0.915,0.61,138.896
128260,157098,11571,-0.104,1.026,0.174,-1.28,0.366,0.488,138.902
128258,157020,417,-0.103,1.026,0.171,-1.28,0.366,0.488,138.906
128258,157080,11576,-0.104,1.028,0.172,-0.244,0,-0.061,138.912
128223,157020,417,-0.1,1.032,0.176,-0.244,0,-0.061,138.916
128223,157093,11561,-0.101,1.032,0.177,1.341,0.244,-0.244,138.922
128246,157020,417,-0.1,1.031,0.181,1.341,0.244,-0.244,138.926
128246,157072,11575,-0.103,1.032,0.188,2.012,0.793,-0.305,138.932
128244,157020,417,-0.106,1.028,0.189,2.012,0.793,-0.305,138.935
128244,157132,11584,-0.104,1.026,0.187,1.463,0.976,-0.427,138.942
128286,157020,417,-0.103,1.022,0.189,1.463,0.976,-0.427,138.945
128286,157129,11577,-0.101,1.021,0.185,0.244,0.732,-0.427,138.952
128281,157020,417,-0.1,1.017,0.186,0.244,0.732,-0.427,138.955
128281,157146,11574,-0.096,1.014,0.189,0,0.488,-0.427,138.961
128310,157020,417,-0.093,1.012,0.185,0,0.488,-0.427,138.965
128310,157169,11587,-0.095,1.008,0.181,-0.061,0.671,-0.244,138.971
128357,157276,417,-0.097,1.008,0.183,-0.061,0.671,-0.244,138.975
128357,157231,11569,-0.098,1.014,0.182,0.061,0.732,0.061,138.981
128420,157276,417,-0.097,1.018,0.18,0.061,0.732,0.061,138.985
128420,157249,11587,-0.096,1.021,0.176,-0.061,0.671,0.244,138.991
128425,157276,417,-0.094,1.021,0.174,-0.061,0.671,0.244,138.995
128425,157251,11609,-0.096,1.02,0.171,-0.183,0.549,0.427,139.001
128430,157276,417,-0.099,1.022,0.173,-0.183,0.549,0.427,139.005
128430,157276,11606,-0.102,1.026,0.17,-0.732,0.549,0.976,139.011
128468,157276,417,-0.101,1.029,0.17,-0.732,0.549,0.976,139.015
128468,157305,11604,-0.102,1.033,0.175,-1.768,0.488,1.22,139.021
128501,157276,417,-0.103,1.035,0.177,-1.768,0.488,1.22,139.025
128501,157333,11611,-0.103,1.031,0.182,-1.585,0.244,0.915,139.031
128541,157276,417,-0.107,1.03,0.185,-1.585,0.244,0.915,139.034
128541,157374,11635,-0.109,1.031,0.181,-1.037,0.488,0.61,139.041
128594,157276,417,-0.111,1.026,0.176,-1.037,0.488,0.61,139.044
128594,157392,11628,-0.112,1.022,0.177,-0.549,0.976,0.244,139.051
128623,157276,417,-0.109,1.021,0.177,-0.549,0.976,0.244,139.054
128623,157415,11634,-0.114,1.022,0.183,0.427,0.915,0.122,139.06
128664,157532,417,-0.11,1.024,0.18,0.427,0.915,0.122,139.064
128664,157467,11646,-0.108,1.026,0.18,0.61,0.61,0.061,139.07
128715,157532,417,-0.106,1.027,0.185,0.61,0.61,0.061,139.074
128715,157480,11650,-0.101,1.023,0.191,0.549,0.366,-0.122,139.08
128738,157532,417,-0.099,1.022,0.186,0.549,0.366,-0.122,139.084
128738,157524,11637,-0.101,1.016,0.182,0.305,0.305,-0.122,139.09
128768,157532,417,-0.1,1.018,0.182,0.305,0.305,-0.122,139.094
128768,157522,11658,-0.097,1.022,0.185,-0.549,0.183,-0.122,139.1
128801,157532,417,-0.097,1.024,0.182,-0.549,0.183,-0.122,139.104
128801,157544,11667,-0.096,1.026,0.184,-1.159,0.122,0,139.11
128802,157532,417,-0.099,1.024,0.179,-1.159,0.122,0,139.114
128802,157560,11640,-0.1,1.023,0.177,-1.341,0.244,0.122,139.12
128818,157532,417,-0.098,1.026,0.178,-1.341,0.244,0.122,139.123
128818,157573,11643,-0.096,1.029,0.175,-0.976,0.244,-0.122,139.13
128852,157532,417,-0.1,1.019,0.179,-0.976,0.244,-0.122,139.133
128852,157592,11665,-0.102,1.011,0.183,-0.366,0.671,0.122,139.14
128864,157532,417,-0.104,1.021,0.178,-0.366,0.671,0.122,139.143
128864,157586,11660,-0.113,1.029,0.175,-0.61,1.098,0.549,139.149
128858,157532,417,-0.113,1.033,0.177,-0.61,1.098,0.549,139.153
128858,157597,11661,-0.109,1.025,0.177,-0.244,0.915,0.366,139.159
128902,157532,417,-0.106,1.016,0.17,-0.244,0.915,0.366,139.163
128902,157651,11651,-0.107,1.019,0.163,0.793,0.549,0.366,139.169
128883,157532,417,-0.107,1.027,0.158,0.793,0.549,0.366,139.173
128883,157614,11682,-0.109,1.027,0.163,0.427,0.61,0.549,139.179
128870,157532,417,-0.11,1.021,0.168,0.427,0.61,0.549,139.183
128870,157614,11664,-0.104,1.023,0.172,0.244,-0.061,0.61,139.189
128857,157532,417,-0.099,1.018,0.178,0.244,-0.061,0.61,139.193
128857,157609,11683,-0.1,1.018,0.182,-0.305,-0.488,0.915,139.199
128861,157532,417,-0.101,1.023,0.189,-0.305,-0.488,0.915,139.203
128861,157600,11678,-0.1,1.031,0.193,-0.915,-0.61,1.037,139.209
128871,157532,417,-0.096,1.033,0.19,-0.915,-0.61,1.037,139.213
128871,157587,11673,-0.093,1.031,0.191,-1.28,-0.488,0.671,139.219
128886,157532,417,-0.097,1.027,0.194,-1.28,-0.488,0.671,139.222
128886,157613,11659,-0.097,1.022,0.19,-1.22,0.061,0.366,139.229
128892,157532,417,-0.099,1.021,0.188,-1.22,0.061,0.366,139.232
128892,157599,11671,-0.1,1.019,0.185,-1.28,0.366,0.366,139.239
128901,157532,417,-0.1,1.021,0.188,-1.28,0.366,0.366,139.242
128901,157610,11669,-0.099,1.021,0.184,-0.61,0.427,0.061,139.248
128893,157532,417,-0.098,1.02,0.18,-0.61,0.427,0.061,139.252
128893,157635,11647,-0.098,1.022,0.179,0.244,0.732,0.122,139.258
128924,157532,417,-0.1,1.024,0.178,0.244,0.732,0.122,139.262
128924,157635,11682,-0.102,1.026,0.178,0.671,1.037,0.244,139.268
128948,157532,417,-0.105,1.028,0.178,0.671,1.037,0.244,139.272
128948,157672,11670,-0.103,1.031,0.184,0.671,1.098,0.183,139.278
128967,157532,417,-0.101,1.029,0.188,0.671,1.098,0.183,139.282
128967,157670,11673,-0.099,1.023,0.187,0.854,0.915,0.244,139.288
128959,157532,417,-0.099,1.018,0.186,0.854,0.915,0.244,139.292
128959,157668,11687,-0.101,1.015,0.182,1.037,1.28,0.488,139.298
128950,157532,417,-0.101,1.015,0.182,1.037,1.28,0.488,139.302
128950,157663,11693,-0.106,1.023,0.173,0.549,1.707,0.671,139.308
128949,157532,417,-0.106,1.023,0.173,0.549,1.707,0.671,139.312
128949,157665,11678,-0.105,1.023,0.17,0.366,1.28,0.549,139.318
128973,157532,417,-0.105,1.023,0.17,0.366,1.28,0.549,139.321
128973,157674,11689,-0.101,1.032,0.174,-0.305,0.549,0.793,139.328
128981,157788,417,-0.101,1.032,0.174,-0.305,0.549,0.793,139.331
128981,157698,11694,-0.099,1.027,0.171,-1.402,0.183,0.976,139.338
128999,157532,417,-0.099,1.027,0.171,-1.402,0.183,0.976,139.341
128999,157690,11707,-0.102,1.023,0.178,-1.585,-0.244,0.854,139.347
129048,157788,417,-0.102,1.023,0.178,-1.585,-0.244,0.854,139.351
129048,157726,11692,-0.103,1.017,0.177,-0.976,-0.488,0.854,139.357
129056,157788,417,-0.103,1.017,0.177,-0.976,-0.488,0.854,139.361
129056,157758,11701,-0.1,1.021,0.172,0.305,-0.244,0.671,139.367
129095,157788,417,-0.1,1.021,0.172,0.305,-0.244,0.671,139.371
129095,157775,11699,-0.102,1.049,0.172,1.341,0.061,0.244,139.377
129106,157788,417,-0.102,1.049,0.172,1.341,0.061,0.244,139.381
129106,157812,11685,-0.105,1.039,0.179,0.915,-0.122,-0.244,139.387
129111,157788,417,-0.105,1.039,0.179,0.915,-0.122,-0.244,139.391
129111,157795,11702,-0.104,1.027,0.181,0.244,-0.549,-0.244,139.397
129160,157788,417,-0.104,1.027,0.181,0.244,-0.549,-0.244,139.401
129160,157800,11710,-0.108,1.01,0.188,-1.037,-0.488,0,139.407
129160,157788,417,-0.108,1.01,0.188,-1.037,-0.488,0,139.411
129160,157860,11703,-0.103,1.011,0.185,-0.488,-0.366,0.061,139.417
129160,157788,417,-0.103,1.011,0.185,-0.488,-0.366,0.061,139.42
129160,157838,11718,-0.101,1.02,0.18,0.854,0.122,0.244,139.427
129181,157788,417,-0.101,1.02,0.18,0.854,0.122,0.244,139.43
129181,157856,11724,-0.098,1.023,0.179,0.854,0.122,0.244,139.436
129193,157788,417,-0.098,1.027,0.175,1.037,0.366,0.183,139.44
129193,157858,11723,-0.101,1.03,0.175,1.037,0.366,0.183,139.446
129225,157788,417,-0.104,1.029,0.178,-0.427,0.061,0.427,139.45
129225,157877,11702,-0.1,1.026,0.183,-0.427,0.061,0.427,139.456
129230,157788,417,-0.098,1.02,0.179,-1.22,-0.488,0.488,139.46
129230,157885,11713,-0.098,1.018,0.179,-1.22,-0.488,0.488,139.466
129204,157788,417,-0.097,1.019,0.179,-1.22,-0.366,0.488,139.47
129204,157880,11719,-0.101,1.02,0.174,-1.22,-0.366,0.488,139.476
129240,157788,417,-0.104,1.03,0.18,-0.732,0.183,0.488,139.48
129240,157863,11715,-0.1,1.033,0.178,-0.732,0.183,0.488,139.486
129187,157788,417,-0.099,1.031,0.174,-0.671,0.305,0.244,139.49
129187,157842,11722,-0.101,1.024,0.183,-0.671,0.305,0.244,139.496
129190,157788,417,-0.101,1.022,0.185,-0.671,-0.122,0.183,139.5
129190,157850,11722,-0.104,1.032,0.185,-0.671,-0.122,0.183,139.506
129192,157788,417,-0.104,1.029,0.185,-1.159,-0.183,0.305,139.51
129192,157853,11717,-0.098,1.021,0.178,-1.159,-0.183,0.305,139.516
129204,157788,417,-0.101,1.018,0.179,-0.793,0.183,-0.244,139.519
129204,157838,11719,-0.103,1.017,0.183,-0.793,0.183,-0.244,139.526
129215,157788,417,-0.105,1.016,0.182,-0.549,0.366,0,139.529
129215,157874,11717,-0.107,1.017,0.182,-0.549,0.366,0,139.535
129235,157788,417,-0.106,1.021,0.183,0.183,0.305,0,139.539
129235,157881,11727,-0.104,1.022,0.18,0.183,0.305,0,139.545
129224,157788,417,-0.103,1.023,0.183,0.732,0.305,-0.122,139.549
129224,157878,11721,-0.103,1.023,0.183,0.732,0.305,-0.122,139.555
129206,157788,417,-0.104,1.029,0.18,0.671,0.793,0.366,139.559
129206,157856,11718,-0.105,1.026,0.179,0.671,0.793,0.366,139.565
129216,157788,417,-0.103,1.021,0.181,-0.244,0.671,0.488,139.569
129216,157876,11710,-0.101,1.018,0.18,-0.244,0.671,0.488,139.575
129250,157788,417,-0.101,1.017,0.18,-1.159,0.061,0.61,139.579
129250,157864,11715,-0.106,1.015,0.182,-1.159,0.061,0.61,139.585
129224,157788,417,-0.104,1.014,0.181,-1.524,-0.061,0.915,139.589
129224,157888,11718,-0.099,1.012,0.182,-1.524,-0.061,0.915,139.595
129250,157788,417,-0.094,1.016,0.177,-0.793,-0.061,0.915,139.599
129250,157885,11719,-0.097,1.021,0.175,-0.793,-0.061,0.915,139.605
129220,157788,417,-0.096,1.026,0.178,0,0.061,0.61,139.608
129220,157869,11736,-0.098,1.035,0.18,0,0.061,0.61,139.615
129233,157788,417,-0.104,1.04,0.18,-0.366,0.244,0.61,139.618
129233,157874,11706,-0.104,1.044,0.178,-0.366,0.244,0.61,139.625
129210,157788,417,-0.102,1.036,0.175,-1.098,-0.061,0.366,139.628
129210,157840,11714,-0.103,1.031,0.181,-1.098,-0.061,0.366,139.634
129210,157788,417,-0.104,1.028,0.18,-1.098,-0.305,0,139.638
129210,157866,11717,-0.107,1.025,0.183,-1.098,-0.305,0,139.644
129199,157788,417,-0.102,1.023,0.188,-0.366,0,-0.183,139.648
129199,157862,11716,-0.104,1.018,0.187,-0.366,0,-0.183,139.654
129188,157788,417,-0.1,1.019,0.186,0.793,0.427,-0.366,139.658
129188,157826,11710,-0.102,1.02,0.185,0.793,0.427,-0.366,139.664
129172,157788,417,-0.103,1.021,0.185,1.098,1.098,-0.305,139.668
129172,157811,11708,-0.099,1.025,0.183,1.098,1.098,-0.305,139.674
129111,157788,417,-0.098,1.024,0.174,1.098,0.854,-0.305,139.678
129111,157784,11706,-0.101,1.026,0.177,1.098,0.854,-0.305,139.684
129094,157788,417,-0.097,1.022,0.18,0.793,0.305,-0.122,139.688
129094,157785,11707,-0.097,1.019,0.181,0.793,0.305,-0.122,139.694
129077,157788,417,-0.1,1.015,0.177,0.366,0.366,0.122,139.698
129077,157746,11696,-0.101,1.02,0.178,0.366,0.366,0.122,139.704
129082,157788,417,-0.1,1.018,0.181,-0.305,0.427,0.244,139.707
129082,157768,11699,-0.099,1.012,0.186,-0.305,0.427,0.244,139.714
129080,157788,417,-0.099,1.014,0.181,-0.427,0.061,0.366,139.717
129080,157750,11700,-0.102,1.019,0.179,-0.427,0.061,0.366,139.724
129075,157788,417,-0.1,1.022,0.18,-0.793,-0.122,0.549,139.727
129075,157764,11696,-0.1,1.023,0.182,-0.793,-0.122,0.549,139.733
129046,157788,417,-0.101,1.026,0.185,-0.488,0,0.366,139.737
129046,157746,11697,-0.101,1.024,0.178,-0.488,0,0.366,139.743
129056,157788,417,-0.101,1.021,0.179,-0.427,0,0.305,139.747
129056,157738,11713,-0.103,1.022,0.176,-0.427,0,0.305,139.753
129062,157788,417,-0.106,1.025,0.17,-0.549,0.183,0.305,139.757
129062,157760,11689,-0.107,1.03,0.169,-0.549,0.183,0.305,139.763
129073,157788,417,-0.106,1.039,0.173,-0.427,0.061,0.061,139.767
129073,157762,11703,-0.106,1.037,0.179,-0.427,0.061,0.061,139.773
129087,157788,417,-0.104,1.036,0.182,0.366,-0.183,-0.122,139.777
129087,157744,11693,-0.098,1.035,0.179,0.366,-0.183,-0.122,139.783
129068,157788,417,-0.098,1.025,0.183,0.732,0.122,-0.122,139.787
129068,157774,11690,-0.102,1.025,0.179,0.732,0.122,-0.122,139.793
129049,157788,417,-0.101,1.028,0.172,0.671,0.915,-0.061,139.797
129049,157754,11711,-0.103,1.027,0.168,0.671,0.915,-0.061,139.803
129055,157788,417,-0.104,1.026,0.168,0.793,0.793,-0.122,139.806
129055,157759,11689,-0.103,1.026,0.173,0.793,0.793,-0.122,139.813
129089,157788,417,-0.098,1.024,0.176,0.549,0.061,-0.244,139.816
129089,157753,11707,-0.099,1.018,0.181,0.549,0.061,-0.244,139.823
129082,157788,417,-0.1,1.014,0.181,0.305,-0.183,0.061,139.826
129082,157796,11689,-0.102,1.015,0.182,0.305,-0.183,0.061,139.832
129098,157788,417,-0.101,1.017,0.179,0.122,0.122,0.183,139.836
129098,157767,11707,-0.102,1.016,0.183,0.122,0.122,0.183,139.842
129087,157788,417,-0.103,1.016,0.191,-0.061,0.122,0.122,139.846
129087,157793,11695,-0.103,1.017,0.187,-0.061,0.122,0.122,139.852
129077,157788,417,-0.1,1.019,0.181,-0.061,-0.122,0.244,139.856
129077,157773,11718,-0.101,1.022,0.179,-0.061,-0.122,0.244,139.862
129032,157788,417,-0.103,1.023,0.176,-0.305,-0.122,0.122,139.866
129032,157773,11701,-0.103,1.03,0.177,-0.305,-0.122,0.122,139.872
129078,157788,417,-0.103,1.03,0.177,-0.305,-0.122,0.122,139.876
129078,157757,11698,-0.107,1.029,0.179,-0.61,0,0.122,139.882
129051,157788,417,-0.107,1.029,0.179,-0.61,0,0.122,139.886
129051,157786,11704,-0.105,1.026,0.178,-0.488,-0.122,0,139.892
129066,157788,417,-0.105,1.026,0.178,-0.488,-0.122,0,139.896
129066,157762,11706,-0.106,1.024,0.173,-0.366,0.122,0.122,139.902
129070,157788,417,-0.106,1.024,0.173,-0.366,0.122,0.122,139.905
129070,157771,11695,-0.105,1.025,0.177,-0.183,0.549,0.061,139.912
129052,157788,417,-0.105,1.025,0.177,-0.183,0.549,0.061,139.915
129052,157748,11723,-0.11,1.027,0.176,0,0.549,0.305,139.922
129039,157788,417,-0.11,1.027,0.176,0,0.549,0.305,139.925
129039,157750,11693,-0.108,1.02,0.178,-0.244,0.61,0.427,139.931
129061,157788,417,-0.108,1.02,0.178,-0.244,0.61,0.427,139.935
129061,157763,11699,-0.105,1.006,0.189,0.061,0.244,0.244,139.941
129076,157788,417,-0.105,1.006,0.189,0.061,0.244,0.244,139.945
129076,157766,11708,-0.105,1.02,0.18,1.402,0.305,0.549,139.951
129075,157788,417,-0.105,1.02,0.18,1.402,0.305,0.549,139.955
129075,157771,11710,-0.107,1.026,0.185,2.561,0.976,0.488,139.961
129077,157788,417,-0.107,1.026,0.185,2.561,0.976,0.488,139.965
129077,157760,11705,-0.107,1.029,0.179,2.927,0.976,0.305,139.971
129041,157788,417,-0.107,1.029,0.179,2.927,0.976,0.305,139.975
129041,157757,11710,-0.106,1.022,0.178,2.073,0.61,0.427,139.981
129044,157788,417,-0.106,1.022,0.178,2.073,0.61,0.427,139.985
129044,157747,11697,-0.107,1.02,0.172,1.524,0.305,0.488,139.991
129049,157788,417,-0.107,1.02,0.172,1.524,0.305,0.488,139.995
129049,157741,11686,-0.105,1.025,0.169,0.61,0.244,0.488,140.001
129025,157788,417,-0.105,1.025,0.169,0.61,0.244,0.488,140.004
129025,157723,11695,-0.105,1.032,0.176,0.366,0.427,0.488,140.011
129018,157788,417,-0.105,1.032,0.176,0.366,0.427,0.488,140.014
129018,157724,11697,-0.104,1.036,0.178,0.122,0.549,0.549,140.02
129033,157788,417,-0.105,1.031,0.177,0.122,0.549,0.549,140.024
129033,157732,11702,-0.1,1.022,0.177,-0.549,0.427,0.549,140.03
129041,157788,417,-0.099,1.016,0.176,-0.549,0.427,0.549,140.034
129041,157757,11699,-0.101,1.019,0.18,-0.793,0.061,0.671,140.04
129060,157788,417,-0.098,1.015,0.181,-0.793,0.061,0.671,140.044
129060,157744,11709,-0.095,1.016,0.186,-0.061,-0.122,0.549,140.05
129059,157788,417,-0.095,1.021,0.184,-0.061,-0.122,0.549,140.054
129059,157746,11709,-0.093,1.027,0.181,1.463,0.244,0.305,140.06
129063,157788,417,-0.097,1.029,0.182,1.463,0.244,0.305,140.064
129063,157758,11707,-0.097,1.033,0.177,2.195,1.159,0.244,140.07
129071,157788,417,-0.101,1.034,0.177,2.195,1.159,0.244,140.074
129071,157763,11705,-0.103,1.029,0.18,1.463,1.402,0.244,140.08
129038,157788,417,-0.103,1.026,0.178,1.463,1.402,0.244,140.084
129038,157752,11707,-0.103,1.027,0.174,-0.305,1.037,0.427,140.09
129039,157788,417,-0.103,1.024,0.179,-0.305,1.037,0.427,140.093
129039,157721,11701,-0.103,1.018,0.181,-1.707,0.793,0.671,140.1
129029,157788,417,-0.105,1.016,0.182,-1.707,0.793,0.671,140.103
129029,157720,11693,-0.108,1.015,0.176,-2.012,1.098,0.671,140.11
129007,157788,417,-0.102,1.011,0.166,-2.012,1.098,0.671,140.113
129007,157718,11706,-0.103,1.014,0.167,-1.951,1.28,0.671,140.119
129014,157788,417,-0.103,1.019,0.165,-1.951,1.28,0.671,140.123
129014,157703,11685,-0.101,1.019,0.167,-1.28,0.976,0.732,140.129
129012,157788,417,-0.101,1.02,0.174,-1.28,0.976,0.732,140.133
129012,157708,11701,-0.099,1.027,0.177,-0.488,0.732,1.159,140.139
129016,157788,417,-0.1,1.032,0.175,-0.488,0.732,1.159,140.143
129016,157739,11703,-0.103,1.027,0.176,-0.183,0.732,0.915,140.149
129035,157788,417,-0.102,1.023,0.173,-0.183,0.732,0.915,140.153
129035,157727,11699,-0.101,1.025,0.181,0.671,0.915,0.549,140.159
129032,157788,417,-0.103,1.031,0.183,0.671,0.915,0.549,140.163
129032,157738,11716,-0.106,1.032,0.18,0.915,0.793,0.732,140.169
129047,157788,417,-0.104,1.03,0.181,0.915,0.793,0.732,140.173
129047,157746,11704,-0.103,1.028,0.186,0.61,0.976,0.366,140.179
129073,157788,417,-0.105,1.027,0.183,0.61,0.976,0.366,140.183
129073,157752,11701,-0.104,1.028,0.175,0.366,0.976,0.122,140.189
129105,157788,417,-0.106,1.025,0.171,0.366,0.976,0.122,140.192
129105,157764,11708,-0.108,1.025,0.167,0.183,1.159,0.183,140.199
129074,157788,417,-0.106,1.027,0.17,0.183,1.159,0.183,140.202
129074,157767,11696,-0.107,1.028,0.168,0.061,1.098,0,140.209
129078,157788,417,-0.108,1.028,0.173,0.061,1.098,0,140.212
129078,157758,11700,-0.106,1.027,0.172,-0.732,0.793,0.305,140.218
129070,157788,417,-0.105,1.026,0.171,-0.732,0.793,0.305,140.222
129070,157747,11692,-0.099,1.022,0.172,-1.463,0.549,0.488,140.228
129075,157788,417,-0.101,1.019,0.172,-1.463,0.549,0.488,140.232
129075,157759,11696,-0.1,1.015,0.171,-1.829,0.488,0.61,140.238
129083,157788,417,-0.101,1.015,0.175,-1.829,0.488,0.61,140.242
129083,157778,11709,-0.104,1.016,0.173,-1.829,0.366,0.793,140.248
129103,157788,417,-0.104,1.014,0.168,-1.829,0.366,0.793,140.252
129103,157804,11711,-0.102,1.017,0.167,-0.915,0.305,0.549,140.258
129129,157788,417,-0.104,1.021,0.17,-0.915,0.305,0.549,140.262
129129,157797,11721,-0.104,1.027,0.171,0.305,-0.061,0.549,140.268
129132,157788,417,-0.103,1.034,0.17,0.305,-0.061,0.549,140.272
129132,157810,11726,-0.101,1.031,0.174,0.549,-0.244,0.61,140.278
129124,157788,417,-0.102,1.034,0.176,0.549,-0.244,0.61,140.282
129124,157808,11712,-0.103,1.035,0.176,0.122,-0.183,0.488,140.288
129126,157788,417,-0.104,1.032,0.177,0.122,-0.183,0.488,140.291
129126,157797,11707,-0.1,1.03,0.178,-1.037,-0.122,0.488,140.298
129100,157788,417,-0.1,1.028,0.172,-1.037,-0.122,0.488,140.301
129100,157774,11708,-0.101,1.024,0.175,-2.134,-0.122,0.427,140.308
129073,157788,417,-0.1,1.018,0.178,-2.134,-0.122,0.427,140.311
129073,157749,11686,-0.101,1.021,0.173,-2.744,-0.366,0.427,140.317
129008,157788,417,-0.106,1.019,0.178,-2.744,-0.366,0.427,140.321
129008,157725,11683,-0.102,1.018,0.188,-2.5,-0.244,0.488,140.327
129009,157788,417,-0.101,1.017,0.19,-2.5,-0.244,0.488,140.331
129009,157697,11709,-0.102,1.017,0.185,-1.341,-0.122,0.427,140.337
128997,157532,417,-0.101,1.019,0.182,-1.341,-0.122,0.427,140.341
128997,157695,11701,-0.104,1.02,0.18,-0.549,-0.122,0.366,140.347
129005,157532,417,-0.1,1.019,0.18,-0.549,-0.122,0.366,140.351
129005,157689,11694,-0.1,1.023,0.179,0.549,-0.122,0.305,140.357
128995,157788,417,-0.1,1.027,0.175,0.549,-0.122,0.305,140.361
128995,157720,11697,-0.101,1.03,0.177,0.976,0.122,0.305,140.367
129045,157788,417,-0.1,1.027,0.176,0.976,0.122,0.305,140.371
129045,157723,11696,-0.099,1.028,0.177,0.305,0.305,0.549,140.377
129004,157788,417,-0.101,1.028,0.183,0.305,0.305,0.549,140.381
129004,157722,11704,-0.099,1.029,0.179,-1.524,0,0.671,140.387
129046,157788,417,-0.1,1.028,0.18,-1.524,0,0.671,140.39
129046,157738,11702,-0.099,1.027,0.188,-2.378,-0.427,0.671,140.397
129047,157788,417,-0.099,1.026,0.182,-2.378,-0.427,0.671,140.4
129047,157742,11701,-0.102,1.021,0.176,-1.646,0,0.549,140.407
129055,157788,417,-0.103,1.016,0.181,-1.646,0,0.549,140.41
129055,157763,11689,-0.106,1.02,0.18,-0.488,0.549,0.366,140.416
129054,157788,417,-0.108,1.02,0.182,-0.488,0.549,0.366,140.42
129054,157757,11696,-0.109,1.026,0.178,0,0.793,0.244,140.426
129090,157788,417,-0.111,1.023,0.176,0,0.793,0.244,140.43
129090,157757,11704,-0.111,1.025,0.177,0.122,0.61,0.183,140.436
129111,157788,417,-0.108,1.025,0.183,0.122,0.61,0.183,140.44
129111,157765,11720,-0.105,1.023,0.185,0.976,0.244,0.244,140.446
129104,157788,417,-0.105,1.023,0.185,0.976,0.244,0.244,140.45
129104,157823,11715,-0.097,1.021,0.187,1.341,0.488,0.366,140.456
129101,157788,417,-0.097,1.021,0.187,1.341,0.488,0.366,140.46
129101,157774,11726,-0.099,1.022,0.186,0.915,1.037,0.305,140.466
129132,157788,417,-0.099,1.022,0.186,0.915,1.037,0.305,140.47
129132,157824,11710,-0.107,1.029,0.178,-0.122,0.976,0.244,140.476
129163,157788,417,-0.107,1.029,0.178,-0.122,0.976,0.244,140.48
129163,157834,11716,-0.096,1.012,0.177,-1.28,0.061,0.183,140.486
129181,157788,417,-0.096,1.012,0.177,-1.28,0.061,0.183,140.489
129181,157858,11727,-0.1,1.025,0.181,-1.159,-0.366,0.549,140.496
129182,157788,417,-0.1,1.025,0.181,-1.159,-0.366,0.549,140.499
129182,157858,11714,-0.097,1.029,0.18,-0.183,0.366,0.244,140.505
129182,157788,417,-0.097,1.029,0.18,-0.183,0.366,0.244,140.509
129182,157845,11730,-0.095,1.021,0.177,1.89,0.915,-0.244,140.515
129193,157788,417,-0.095,1.021,0.177,1.89,0.915,-0.244,140.519
129193,157877,11710,-0.103,1.025,0.172,1.037,1.159,0.488,140.525
129199,157788,417,-0.103,1.025,0.172,1.037,1.159,0.488,140.529
129199,157871,11720,-0.107,1.025,0.168,-0.793,0.61,0.549,140.535
129210,157788,417,-0.107,1.025,0.168,-0.793,0.61,0.549,140.539
129210,157858,11719,-0.101,1.026,0.166,-0.854,-0.305,0.305,140.545
129204,157788,417,-0.101,1.026,0.166,-0.854,-0.305,0.305,140.549
129204,157869,11730,-0.098,1.028,0.176,0.427,-0.488,0.427,140.555
129209,157788,417,-0.098,1.028,0.176,0.427,-0.488,0.427,140.559
129209,157902,11736,-0.103,1.03,0.18,1.402,0.122,0.488,140.565
129244,157788,417,-0.103,1.03,0.18,1.402,0.122,0.488,140.569
129244,157895,11713,-0.106,1.03,0.176,0.915,0.915,0.305,140.575
129256,157788,417,-0.106,1.03,0.176,0.915,0.915,0.305,140.578
129256,157895,11729,-0.104,1.025,0.174,-0.427,0.854,0.427,140.585
129229,157788,417,-0.104,1.025,0.174,-0.427,0.854,0.427,140.588
129229,157919,11722,-0.103,1.023,0.175,-0.427,0.854,0.427,140.595
129282,157788,417,-0.104,1.022,0.172,-1.341,0.061,0.488,140.598
129282,157942,11723,-0.102,1.02,0.172,-1.341,0.061,0.488,140.604
129273,157788,417,-0.096,1.021,0.171,-1.463,-0.183,0.427,140.608
129273,157905,11745,-0.098,1.019,0.176,-1.463,-0.183,0.427,140.614
129264,157788,417,-0.099,1.02,0.183,0.061,-0.366,0.244,140.618
129264,157929,11737,-0.102,1.022,0.175,0.061,-0.366,0.244,140.624
129281,157788,417,-0.098,1.024,0.167,1.951,-0.122,0,140.628
129281,157943,11738,-0.097,1.03,0.169,1.951,-0.122,0,140.634
129310,157788,417,-0.095,1.036,0.171,2.927,0.122,-0.488,140.638
129310,157928,11750,-0.095,1.046,0.169,2.927,0.122,-0.488,140.644
129288,158044,417,-0.099,1.057,0.171,1.89,0.122,-0.305,140.648
129288,157960,11749,-0.099,1.049,0.187,1.89,0.122,-0.305,140.654
129298,158044,417,-0.106,1.033,0.19,-0.427,-0.244,0.427,140.658
129298,157954,11745,-0.107,1.025,0.188,-0.427,-0.244,0.427,140.664
129286,157788,417,-0.111,1.019,0.183,-3.78,-0.732,1.098,140.668
129286,157939,11756,-0.103,1.016,0.178,-3.78,-0.732,1.098,140.674
129284,157788,417,-0.103,1.011,0.172,-5.061,-0.976,0.732,140.677
129284,157909,11760,-0.1,1.006,0.18,-5.061,-0.976,0.732,140.684
129277,157788,417,-0.099,1.009,0.184,-3.415,-0.732,0.488,140.687
129277,157911,11735,-0.103,1.018,0.183,-3.415,-0.732,0.488,140.694
129241,157788,417,-0.103,1.018,0.185,-1.951,0.244,0.671,140.697
129241,157885,11728,-0.104,1.017,0.184,-1.951,0.244,0.671,140.703
129266,157788,417,-0.105,1.017,0.185,-1.341,1.037,0.671,140.707
129266,157908,11736,-0.107,1.014,0.185,-1.341,1.037,0.671,140.713
129252,157788,417,-0.107,1.009,0.185,-0.366,0.732,0.61,140.717
129252,157930,11725,-0.105,1.007,0.186,-0.366,0.732,0.61,140.723
129232,157788,417,-0.101,1.012,0.185,0.366,0.183,0.427,140.727
129232,157870,11733,-0.1,1.023,0.182,0.366,0.183,0.427,140.733
129222,157788,417,-0.099,1.024,0.183,1.341,0.305,0.244,140.737
129222,157900,11731,-0.099,1.027,0.182,1.341,0.305,0.244,140.743
129235,157788,417,-0.098,1.033,0.181,2.195,0.793,0,140.747
129235,157868,11723,-0.101,1.038,0.176,2.195,0.793,0,140.753
129213,157788,417,-0.104,1.039,0.176,1.646,1.159,-0.122,140.757
129213,157874,11731,-0.104,1.034,0.176,1.646,1.159,-0.122,140.763
129212,157788,417,-0.105,1.025,0.177,0.244,0.61,-0.183,140.767
129212,157875,11732,-0.102,1.019,0.169,0.244,0.61,-0.183,140.773
129213,157788,417,-0.1,1.017,0.164,-1.098,-0.183,0.061,140.776
129213,157849,11726,-0.1,1.016,0.166,-1.098,-0.183,0.061,140.783
129196,157788,417,-0.102,1.014,0.169,-1.463,-0.366,0.366,140.786
129196,157841,11733,-0.104,1.012,0.165,-1.463,-0.366,0.366,140.793
129198,157788,417,-0.105,1.013,0.168,-1.585,-0.427,0.732,140.796
129198,157861,11725,-0.105,1.017,0.172,-1.585,-0.427,0.732,140.802
129186,157788,417,-0.105,1.019,0.171,-1.951,-0.61,0.976,140.806
129186,157883,11718,-0.106,1.017,0.176,-1.951,-0.61,0.976,140.812
129203,157788,417,-0.108,1.019,0.177,-1.829,-1.037,1.159,140.816
129203,157877,11731,-0.105,1.018,0.172,-1.829,-1.037,1.159,140.822
129218,157788,417,-0.101,1.011,0.18,-1.402,-1.463,1.159,140.826
129218,157850,11711,-0.102,1.008,0.183,-1.402,-1.463,1.159,140.832
129181,157788,417,-0.105,1.022,0.182,-0.122,-1.28,1.402,140.836
129181,157832,11713,-0.103,1.032,0.18,-0.122,-1.28,1.402,140.842
129179,157788,417,-0.102,1.035,0.184,1.037,-0.732,1.098,140.846
129179,157835,11723,-0.101,1.037,0.192,1.037,-0.732,1.098,140.852
129178,157788,417,-0.101,1.037,0.188,2.317,-0.427,0.488,140.856
129178,157839,11728,-0.102,1.039,0.187,2.317,-0.427,0.488,140.862
129194,157788,417,-0.102,1.038,0.185,1.585,-0.061,0.671,140.866
129194,157863,11724,-0.103,1.031,0.179,1.585,-0.061,0.671,140.872
129212,157788,417,-0.102,1.024,0.177,0.061,0.061,0.61,140.875
129212,157851,11721,-0.101,1.02,0.176,0.061,0.061,0.61,140.882
129203,157788,417,-0.099,1.015,0.176,-0.549,-0.244,0.366,140.885
129203,157870,11738,-0.099,1.014,0.177,-0.549,-0.244,0.366,140.892
129197,157788,417,-0.098,1.015,0.18,0.183,-0.244,0.488,140.895
129197,157871,11727,-0.098,1.016,0.175,0.183,-0.244,0.488,140.901
129197,157788,417,-0.099,1.021,0.175,0.915,0.244,0.549,140.905
129197,157830,11718,-0.097,1.021,0.173,0.915,0.244,0.549,140.911
129065,157788,417,-0.096,1.027,0.174,0.793,0.183,0.732,140.915
129065,157727,11706,-0.097,1.026,0.176,0.793,0.183,0.732,140.921
128893,157532,417,-0.097,1.026,0.177,0.122,-0.183,0.732,140.925
128893,157581,11675,-0.097,1.029,0.18,0.122,-0.183,0.732,140.931
128749,157532,417,-0.099,1.028,0.175,-0.732,-0.183,0.915,140.935
128749,157498,11656,-0.098,1.028,0.176,-0.732,-0.183,0.915,140.941
128640,157276,417,-0.097,1.029,0.18,-1.768,-0.061,0.854,140.945
128640,157422,11656,-0.099,1.03,0.172,-1.768,-0.061,0.854,140.951
128589,157276,417,-0.1,1.027,0.17,-2.317,-0.122,0.671,140.955
128589,157359,11638,-0.101,1.03,0.174,-2.317,-0.122,0.671,140.961
128546,157276,417,-0.105,1.032,0.179,-2.256,-0.244,0.732,140.965
128546,157315,11630,-0.1,1.031,0.188,-2.256,-0.244,0.732,140.971
128542,157276,417,-0.099,1.03,0.193,-1.585,-0.244,0.61,140.974
128542,157341,11647,-0.097,1.028,0.196,-1.585,-0.244,0.61,140.981
128551,157276,417,-0.1,1.025,0.192,-0.732,0.488,0.244,140.984
128551,157358,11641,-0.102,1.024,0.188,-0.732,0.488,0.244,140.991
128580,157276,417,-0.102,1.022,0.19,-0.305,1.28,0.061,140.994
128580,157380,11635,-0.104,1.021,0.188,-0.305,1.28,0.061,141
128609,157276,417,-0.103,1.023,0.183,0.061,1.341,-0.183,141.004
128609,157402,11646,-0.101,1.023,0.182,0.061,1.341,-0.183,141.01
128644,157276,417,-0.098,1.021,0.184,0.183,1.159,-0.305,141.014
128644,157420,11647,-0.094,1.023,0.179,0.183,1.159,-0.305,141.02
128673,157532,417,-0.094,1.023,0.179,0.183,1.159,-0.305,141.024
128673,157463,11659,-0.091,1.021,0.183,0.915,1.098,-0.122,141.03
128725,157532,417,-0.091,1.021,0.183,0.915,1.098,-0.122,141.034
128725,157496,11658,-0.094,1.03,0.178,1.402,1.646,0.122,141.04
128740,157532,417,-0.094,1.03,0.178,1.402,1.646,0.122,141.044
128740,157539,11662,-0.098,1.024,0.178,0.854,2.134,0.061,141.05
128762,157532,417,-0.098,1.024,0.178,0.854,2.134,0.061,141.054
128762,157536,11661,-0.101,1.016,0.173,0,1.951,0,141.06
128785,157532,417,-0.101,1.016,0.173,0,1.951,0,141.064
128785,157535,11664,-0.107,1.02,0.173,-1.22,1.28,0.305,141.07
128762,157532,417,-0.107,1.02,0.173,-1.22,1.28,0.305,141.073
128762,157537,11676,-0.107,1.018,0.177,-1.829,0.549,0.61,141.08
128753,157532,417,-0.107,1.018,0.177,-1.829,0.549,0.61,141.083
128753,157547,11657,-0.108,1.024,0.177,-1.463,0.244,0.427,141.09
128767,157532,417,-0.108,1.024,0.177,-1.463,0.244,0.427,141.093
128767,157558,11662,-0.107,1.024,0.176,-0.915,0.427,0.305,141.099
128768,157532,417,-0.107,1.024,0.176,-0.915,0.427,0.305,141.103
128768,157563,11664,-0.108,1.024,0.182,-0.854,0.427,0.61,141.109
128803,157532,417,-0.108,1.024,0.182,-0.854,0.427,0.61,141.113
128803,157593,11655,-0.104,1.025,0.185,-0.793,0.061,0.671,141.119
128821,157532,417,-0.104,1.025,0.185,-0.793,0.061,0.671,141.123
128821,157581,11664,-0.099,1.028,0.186,-0.244,0,0.366,141.129
128812,157532,417,-0.099,1.028,0.186,-0.244,0,0.366,141.133
128812,157615,11668,-0.097,1.029,0.18,0.427,0.61,0.244,141.139
128836,157532,417,-0.097,1.029,0.18,0.427,0.61,0.244,141.143
128836,157633,11677,-0.097,1.027,0.173,0.244,1.22,0.366,141.149
128881,157532,417,-0.097,1.027,0.173,0.244,1.22,0.366,141.153
128881,157652,11687,-0.097,1.023,0.169,-0.122,1.22,0.122,141.159
128896,157532,417,-0.097,1.023,0.169,-0.122,1.22,0.122,141.163
128896,157649,11677,-0.096,1.016,0.17,-0.183,0.793,0.183,141.169
128907,157532,417,-0.097,1.011,0.169,-0.183,0.793,0.183,141.172
128907,157672,11677,-0.098,1.011,0.175,-0.061,0.61,0.671,141.179
128914,157532,417,-0.101,1.014,0.175,-0.061,0.61,0.671,141.182
128914,157686,11686,-0.104,1.014,0.177,0.244,0.732,0.732,141.188
128954,157788,417,-0.102,1.015,0.181,0.244,0.732,0.732,141.192
128954,157698,11676,-0.101,1.018,0.186,0.244,0.305,0.732,141.198
128950,157788,417,-0.105,1.025,0.182,0.244,0.305,0.732,141.202
128950,157705,11689,-0.102,1.031,0.179,-0.061,-0.244,0.793,141.208
128950,157788,417,-0.1,1.032,0.179,-0.061,-0.244,0.793,141.212
128950,157719,11677,-0.104,1.033,0.182,-0.61,-0.305,0.671,141.218
128937,157532,417,-0.105,1.034,0.181,-0.61,-0.305,0.671,141.222
128937,157692,11696,-0.103,1.035,0.181,-1.341,-0.244,0.488,141.228
128924,157532,417,-0.102,1.032,0.177,-1.341,-0.244,0.488,141.232
128924,157684,11675,-0.101,1.029,0.175,-1.22,-0.244,0.244,141.238
128885,157532,417,-0.101,1.028,0.177,-1.22,-0.244,0.244,141.242
128885,157650,11682,-0.1,1.028,0.182,-0.549,-0.122,0.183,141.248
128858,157532,417,-0.097,1.024,0.177,-0.549,-0.122,0.183,141.252
128858,157652,11668,-0.097,1.022,0.175,0,-0.122,0.122,141.258
128829,157532,417,-0.099,1.022,0.17,0,-0.122,0.122,141.261
128829,157620,11682,-0.097,1.026,0.17,0.244,0.061,-0.061,141.268
128845,157532,417,-0.096,1.026,0.174,0.244,0.061,-0.061,141.271
128845,157626,11671,-0.095,1.024,0.175,0.427,-0.122,0,141.278
128817,157532,417,-0.098,1.025,0.178,0.427,-0.122,0,141.281
128817,157614,11672,-0.098,1.032,0.179,0.61,-0.305,0,141.287
128850,157532,417,-0.097,1.029,0.187,0.61,-0.305,0,141.291
128850,157597,11671,-0.099,1.025,0.188,1.28,-0.122,-0.305,141.297
128839,157532,417,-0.095,1.025,0.189,1.28,-0.122,-0.305,141.301
128839,157614,11672,-0.098,1.023,0.184,1.037,0.549,-0.122,141.307
128843,157532,417,-0.101,1.023,0.182,1.037,0.549,-0.122,141.311
128843,157607,11694,-0.101,1.019,0.176,-0.122,0.854,0.122,141.317
128861,157532,417,-0.101,1.021,0.179,-0.122,0.854,0.122,141.321
128861,157658,11675,-0.105,1.022,0.178,-1.159,0.61,0.183,141.327
128911,157532,417,-0.105,1.017,0.179,-1.159,0.61,0.183,141.331
128911,157651,11687,-0.104,1.016,0.177,-1.524,0.183,0.305,141.337
128893,157532,417,-0.1,1.019,0.176,-1.524,0.183,0.305,141.341
128893,157668,11691,-0.102,1.018,0.18,-1.768,-0.061,0.427,141.347
128890,157532,417,-0.105,1.013,0.181,-1.768,-0.061,0.427,141.351
128890,157640,11676,-0.104,1.016,0.18,-1.463,-0.183,0.671,141.357
128870,157532,417,-0.104,1.023,0.181,-1.463,-0.183,0.671,141.36
128870,157624,11667,-0.103,1.027,0.179,-0.976,-0.122,0.671,141.367
128849,157532,417,-0.099,1.029,0.184,-0.976,-0.122,0.671,141.37
128849,157612,11688,-0.096,1.032,0.188,0,0,0.427,141.377
128856,157532,417,-0.095,1.031,0.189,0,0,0.427,141.38
128856,157621,11673,-0.096,1.034,0.187,0.488,0.183,0.183,141.386
128843,157532,417,-0.097,1.032,0.179,0.488,0.183,0.183,141.39
128843,157620,11677,-0.099,1.029,0.178,-0.488,0.671,0.122,141.396
128846,157532,417,-0.103,1.028,0.175,-0.488,0.671,0.122,141.4
128846,157625,11694,-0.101,1.028,0.168,-1.098,0.549,-0.061,141.406
128853,157532,417,-0.102,1.022,0.17,-1.098,0.549,-0.061,141.41
128853,157631,11674,-0.103,1.018,0.174,-0.976,0,0.061,141.416
128866,157532,417,-0.102,1.015,0.177,-0.976,0,0.061,141.42
128866,157629,11679,-0.105,1.014,0.18,-0.183,0.061,0.305,141.426
128869,157532,417,-0.109,1.019,0.182,-0.183,0.061,0.305,141.43
128869,157637,11689,-0.109,1.019,0.185,-0.183,0.549,0.61,141.436
128856,157532,417,-0.111,1.02,0.187,-0.183,0.549,0.61,141.44
128856,157639,11671,-0.106,1.023,0.187,0.061,0.671,0.549,141.446
128858,157532,417,-0.105,1.026,0.183,0.061,0.671,0.549,141.45
128858,157605,11672,-0.106,1.025,0.183,-0.549,0.549,0.671,141.456
128844,157532,417,-0.102,1.019,0.181,-0.549,0.549,0.671,141.459
128844,157628,11675,-0.102,1.012,0.178,-1.768,0.305,0.854,141.466
128845,157532,417,-0.102,1.013,0.172,-1.768,0.305,0.854,141.469
128845,157603,11673,-0.099,1.014,0.17,-2.317,-0.122,0.854,141.475
128831,157532,417,-0.1,1.016,0.174,-2.317,-0.122,0.854,141.479
128831,157575,11667,-0.099,1.021,0.178,-0.976,-0.549,0.793,141.485
128831,157532,417,-0.097,1.031,0.179,-0.976,-0.549,0.793,141.489
128831,157616,11679,-0.097,1.035,0.18,0.61,-0.366,0.671,141.495
128849,157532,417,-0.092,1.031,0.187,0.61,-0.366,0.671,141.499
128849,157601,11683,-0.096,1.03,0.19,0.61,0.122,0.732,141.505
128842,157532,417,-0.099,1.025,0.189,0.61,0.122,0.732,141.509
128842,157603,11681,-0.101,1.02,0.181,-0.488,0.305,0.854,141.515
128829,157532,417,-0.102,1.02,0.177,-0.488,0.305,0.854,141.519
128829,157599,11681,-0.101,1.023,0.17,-1.037,0,0.61,141.525
128842,157532,417,-0.103,1.027,0.172,-1.037,0,0.61,141.529
128842,157599,11675,-0.098,1.03,0.179,-0.244,-0.366,0.427,141.535
128839,157532,417,-0.097,1.032,0.179,-0.244,-0.366,0.427,141.539
128839,157640,11686,-0.096,1.034,0.182,0.488,-0.366,0.427,141.545
128849,157532,417,-0.099,1.03,0.187,0.488,-0.366,0.427,141.549
128849,157596,11671,-0.104,1.023,0.185,0.244,0.244,0.671,141.555
128842,157532,417,-0.106,1.02,0.186,0.244,0.244,0.671,141.558
128842,157584,11682,-0.106,1.019,0.183,-0.427,0.427,0.427,141.565
128841,157532,417,-0.105,1.017,0.182,-0.427,0.427,0.427,141.568
128841,157582,11673,-0.1,1.02,0.183,-0.488,0.122,0.305,141.574
128822,157532,417,-0.096,1.022,0.182,-0.488,0.122,0.305,141.578
128822,157617,11680,-0.098,1.026,0.184,-0.427,-0.061,0.61,141.584
128857,157532,417,-0.101,1.028,0.183,-0.427,-0.061,0.61,141.588
128857,157613,11688,-0.1,1.027,0.179,-0.61,0,0.549,141.594
128865,157532,417,-0.1,1.027,0.179,-0.61,0,0.549,141.598
128865,157636,11678,-0.099,1.025,0.177,-0.305,0.061,0.183,141.604
128902,157532,417,-0.099,1.025,0.177,-0.305,0.061,0.183,141.608
128902,157629,11690,-0.099,1.02,0.182,0.366,0.122,0.183,141.614
128898,157532,417,-0.099,1.02,0.182,0.366,0.122,0.183,141.618
128898,157627,11698,-0.096,1.018,0.184,0.183,0.305,0.366,141.624
128895,157532,417,-0.096,1.018,0.184,0.183,0.305,0.366,141.628
128895,157635,11667,-0.095,1.023,0.184,-0.244,0.427,0.427,141.634
128901,157532,417,-0.095,1.023,0.184,-0.244,0.427,0.427,141.638
128901,157637,11695,-0.097,1.03,0.184,-0.366,0.366,0.305,141.644
128901,157532,417,-0.097,1.03,0.184,-0.366,0.366,0.305,141.647
128901,157657,11684,-0.097,1.03,0.182,-0.305,0.427,0.183,141.654
128907,157532,417,-0.097,1.03,0.182,-0.305,0.427,0.183,141.657
128907,157639,11692,-0.096,1.028,0.18,-0.976,0.61,0.244,141.664
128912,157532,417,-0.096,1.028,0.18,-0.976,0.61,0.244,141.667
128912,157672,11686,-0.099,1.018,0.179,-1.402,0.366,0.122,141.673
128937,157532,417,-0.099,1.018,0.179,-1.402,0.366,0.122,141.677
128937,157671,11676,-0.102,1.014,0.18,-0.793,0.183,0.183,141.683
128906,157532,417,-0.102,1.014,0.18,-0.793,0.183,0.183,141.687
128906,157651,11675,-0.098,1.018,0.187,0.549,0.244,0.366,141.693
128895,157532,417,-0.098,1.018,0.187,0.549,0.244,0.366,141.697
128895,157645,11665,-0.1,1.033,0.185,0.976,0.793,0.427,141.703
128901,157532,417,-0.1,1.033,0.185,0.976,0.793,0.427,141.707
128901,157650,11683,-0.106,1.026,0.184,0,1.28,0.244,141.713
128916,157532,417,-0.106,1.026,0.184,0,1.28,0.244,141.717
128916,157647,11689,-0.104,1.021,0.172,-1.22,0.854,0.305,141.723
128882,157532,417,-0.104,1.021,0.172,-1.22,0.854,0.305,141.727
128882,157661,11685,-0.107,1.015,0.173,-1.524,0.244,0.427,141.733
128909,157532,417,-0.107,1.015,0.173,-1.524,0.244,0.427,141.737
128909,157636,11682,-0.105,1.014,0.174,-1.524,0.244,0.427,141.743
128912,157532,417,-0.104,1.018,0.178,-0.488,0.122,0.488,141.746
128912,157661,11688,-0.103,1.025,0.185,-0.488,0.122,0.488,141.753
128932,157532,417,-0.099,1.03,0.191,0.61,0.488,0.488,141.756
128932,157670,11706,-0.101,1.029,0.195,0.61,0.488,0.488,141.763
128919,157532,417,-0.102,1.03,0.196,0.732,0.854,0.305,141.766
128919,157683,11681,-0.103,1.032,0.192,0.732,0.854,0.305,141.772
128937,157532,417,-0.1,1.032,0.185,-0.488,1.22,0.244,141.776
128937,157681,11688,-0.099,1.031,0.179,-0.488,1.22,0.244,141.782
128948,157532,417,-0.098,1.024,0.173,-0.854,1.28,0.122,141.786
128948,157691,11702,-0.095,1.021,0.171,-0.854,1.28,0.122,141.792
128980,157788,417,-0.094,1.018,0.171,-0.61,0.915,-0.061,141.796
128980,157705,11685,-0.096,1.015,0.168,-0.61,0.915,-0.061,141.802
128961,157788,417,-0.099,1.015,0.176,-0.244,0.854,0.305,141.806
128961,157729,11676,-0.103,1.011,0.174,-0.244,0.854,0.305,141.812
128953,157788,417,-0.107,1.009,0.173,0,0.915,0.549,141.816
128953,157707,11682,-0.104,1.015,0.179,0,0.915,0.549,141.822
128954,157532,417,-0.109,1.02,0.184,0.244,0.671,0.671,141.826
128954,157678,11696,-0.107,1.02,0.187,0.244,0.671,0.671,141.832
128931,157532,417,-0.105,1.023,0.185,-0.183,0,0.854,141.836
128931,157678,11684,-0.104,1.022,0.18,-0.183,0,0.854,141.842
128956,157532,417,-0.101,1.024,0.178,-1.22,-0.244,1.098,141.845
128956,157682,11685,-0.104,1.026,0.177,-1.22,-0.244,1.098,141.852
128960,157532,417,-0.101,1.027,0.173,-2.317,-0.122,1.341,141.855
128960,157681,11689,-0.099,1.027,0.173,-2.317,-0.122,1.341,141.862
128954,157532,417,-0.098,1.032,0.182,-2.439,-0.427,1.098,141.865
128954,157679,11690,-0.095,1.036,0.182,-2.439,-0.427,1.098,141.871
128944,157532,417,-0.092,1.035,0.182,-2.012,-0.671,0.793,141.875
128944,157687,11690,-0.09,1.036,0.186,-2.012,-0.671,0.793,141.881
128944,157532,417,-0.094,1.031,0.189,-1.22,-0.122,0.61,141.885
128944,157688,11695,-0.096,1.027,0.183,-1.22,-0.122,0.61,141.891
128959,157532,417,-0.101,1.029,0.179,-0.549,0.427,0.366,141.895
128959,157663,11690,-0.103,1.024,0.176,-0.549,0.427,0.366,141.901
128953,157788,417,-0.104,1.023,0.177,0.244,0.427,-0.244,141.905
128953,157699,11693,-0.105,1.023,0.182,0.244,0.427,-0.244,141.911
128962,157788,417,-0.103,1.027,0.187,1.28,0.366,-0.366,141.915
128962,157717,11707,-0.101,1.033,0.184,1.28,0.366,-0.366,141.921
128969,157788,417,-0.104,1.028,0.187,1.829,0.488,-0.549,141.925
128969,157709,11694,-0.101,1.023,0.184,1.829,0.488,-0.549,141.931
128964,157788,417,-0.103,1.024,0.184,1.951,0.732,-0.549,141.935
128964,157750,11700,-0.106,1.021,0.185,1.951,0.732,-0.549,141.941
129037,157788,417,-0.106,1.02,0.181,1.22,0.854,-0.427,141.944
129037,157739,11707,-0.105,1.02,0.181,1.22,0.854,-0.427,141.951
129016,157788,417,-0.099,1.018,0.183,0.061,0.488,-0.305,141.954
129016,157738,11708,-0.095,1.014,0.189,0.061,0.488,-0.305,141.96
129006,157788,417,-0.096,1.013,0.183,-0.915,0.183,0.122,141.964
129006,157736,11694,-0.096,1.014,0.185,-0.915,0.183,0.122,141.97
128998,157788,417,-0.094,1.015,0.183,-1.524,0.366,0.549,141.974
128998,157728,11692,-0.094,1.016,0.185,-1.524,0.366,0.549,141.98
128992,157788,417,-0.095,1.016,0.185,-1.707,0.488,0.488,141.984
128992,157747,11705,-0.094,1.019,0.186,-1.707,0.488,0.488,141.99
129007,157788,417,-0.091,1.024,0.187,-1.585,0.366,0.671,141.994
129007,157729,11695,-0.092,1.023,0.184,-1.585,0.366,0.671,142
129003,157788,417,-0.092,1.021,0.187,-1.341,0.244,0.671,142.004
129003,157734,11700,-0.094,1.024,0.184,-1.341,0.244,0.671,142.01
128998,157788,417,-0.099,1.023,0.184,-0.854,0.427,0.732,142.014
128998,157747,11697,-0.102,1.022,0.186,-0.854,0.427,0.732,142.02
128979,157788,417,-0.101,1.025,0.182,-0.427,0.854,0.793,142.024
128979,157718,11681,-0.101,1.032,0.178,-0.427,0.854,0.793,142.03
128962,157788,417,-0.1,1.036,0.182,-0.183,0.976,0.61,142.034
128962,157742,11687,-0.103,1.036,0.182,-0.183,0.976,0.61,142.04
128989,157788,417,-0.104,1.033,0.183,0.244,0.854,0.427,142.043
128989,157724,11703,-0.105,1.03,0.179,0.244,0.854,0.427,142.05
129009,157788,417,-0.107,1.027,0.18,0.305,1.28,0.122,142.053
129009,157740,11692,-0.11,1.021,0.183,0.305,1.28,0.122,142.059
129038,157788,417,-0.114,1.018,0.183,0.244,1.463,0,142.063
129038,157759,11715,-0.112,1.016,0.177,0.244,1.463,0,142.069
129048,157788,417,-0.112,1.018,0.176,0,1.524,0.244,142.073
129048,157788,11712,-0.111,1.018,0.179,0,1.524,0.244,142.079
129066,157788,417,-0.107,1.018,0.178,0.122,1.22,0.488,142.083
129066,157787,11722,-0.101,1.025,0.176,0.122,1.22,0.488,142.089
129118,157788,417,-0.1,1.035,0.18,0.061,0.732,0.61,142.093
129118,157796,11711,-0.092,1.036,0.177,0.061,0.732,0.61,142.099
129110,157788,417,-0.086,1.014,0.177,-0.122,0.244,0.549,142.103
129110,157837,11716,-0.091,1.001,0.188,-0.122,0.244,0.549,142.109
129133,157788,417,-0.099,1.011,0.181,-0.61,0.305,1.098,142.113
129133,157865,11708,-0.101,1.022,0.174,-0.61,0.305,1.098,142.119
129162,157788,417,-0.1,1.02,0.175,-1.89,0.305,1.159,142.123
129162,157862,11727,-0.096,1.019,0.181,-1.89,0.305,1.159,142.129
129170,157788,417,-0.095,1.027,0.181,-0.549,-0.427,0.549,142.132
129170,157881,11726,-0.098,1.031,0.18,-0.549,-0.427,0.549,142.139
129195,157788,417,-0.096,1.034,0.179,0.122,-0.549,0.854,142.142
129195,157911,11724,-0.1,1.029,0.183,0.122,-0.549,0.854,142.149
129235,157788,417,-0.1,1.03,0.184,0.488,0,0.732,142.152
129235,157902,11744,-0.104,1.027,0.181,0.488,0,0.732,142.158
129216,157788,417,-0.106,1.028,0.184,0.671,0.488,0.244,142.162
129216,157901,11730,-0.11,1.029,0.183,0.671,0.488,0.244,142.168
129228,157788,417,-0.11,1.029,0.183,0.671,0.488,0.244,142.172
129228,157925,11740,-0.104,1.025,0.183,0.488,0.427,0.305,142.178
129239,157788,417,-0.104,1.025,0.183,0.488,0.427,0.305,142.182
129239,157925,11742,-0.102,1.023,0.184,0.366,0.244,0.366,142.188
129254,157788,417,-0.102,1.023,0.184,0.366,0.244,0.366,142.192
129254,157938,11740,-0.099,1.023,0.182,0.305,0.305,0.305,142.198
129278,157788,417,-0.099,1.023,0.182,0.305,0.305,0.305,142.202
129278,157938,11740,-0.103,1.027,0.173,-0.305,0.549,0.244,142.208
129264,158044,417,-0.103,1.027,0.173,-0.305,0.549,0.244,142.212
129264,157953,11747,-0.101,1.022,0.18,-1.585,0.732,0.305,142.218
129276,158044,417,-0.101,1.022,0.18,-1.585,0.732,0.305,142.222
129276,157959,11730,-0.095,1.018,0.181,-2.073,0.244,0.427,142.228
129298,157788,417,-0.095,1.018,0.181,-2.073,0.244,0.427,142.231
129298,157946,11738,-0.094,1.016,0.186,-1.402,0,0.488,142.238
129283,157788,417,-0.094,1.016,0.186,-1.402,0,0.488,142.241
129283,157945,11734,-0.093,1.024,0.184,-0.061,0.305,0.427,142.248
129261,157788,417,-0.093,1.024,0.184,-0.061,0.305,0.427,142.251
129261,157939,11746,-0.096,1.036,0.185,1.037,0.854,0.244,142.257
129298,157788,417,-0.096,1.036,0.185,1.037,0.854,0.244,142.261
129298,157927,11752,-0.096,1.041,0.18,0.671,0.915,0.122,142.267
129259,157788,417,-0.096,1.041,0.18,0.671,0.915,0.122,142.271
129259,157933,11739,-0.096,1.026,0.175,-0.427,0.488,-0.122,142.277
129271,157788,417,-0.096,1.026,0.175,-0.427,0.488,-0.122,142.281
129271,157937,11751,-0.096,1.02,0.177,-1.098,0.183,-0.122,142.287
129270,157788,417,-0.096,1.02,0.177,-1.098,0.183,-0.122,142.291
129270,157944,11735,-0.099,1.022,0.177,-0.915,0.122,-0.061,142.297
129296,157788,417,-0.099,1.022,0.177,-0.915,0.122,-0.061,142.301
129296,157932,11745,-0.101,1.022,0.178,-0.183,0.305,-0.427,142.307
129305,158044,417,-0.103,1.022,0.184,-0.183,0.305,-0.427,142.311
129305,157953,11743,-0.104,1.023,0.186,0.427,0.427,-0.427,142.317
129281,157788,417,-0.108,1.021,0.182,0.427,0.427,-0.427,142.321
129281,157947,11755,-0.105,1.022,0.179,-0.061,0.488,-0.244,142.327
129296,157788,417,-0.106,1.02,0.177,-0.061,0.488,-0.244,142.33
129296,157939,11741,-0.1,1.023,0.178,-0.793,0.183,-0.305,142.337
129277,158044,417,-0.1,1.026,0.184,-0.793,0.183,-0.305,142.34
129277,157961,11735,-0.104,1.023,0.186,-1.159,-0.244,-0.244,142.346
129321,158044,417,-0.101,1.021,0.182,-1.159,-0.244,-0.244,142.35
129321,157959,11741,-0.1,1.021,0.188,-1.646,-0.305,-0.061,142.356
129317,158044,417,-0.1,1.019,0.187,-1.646,-0.305,-0.061,142.36
129317,157961,11752,-0.103,1.019,0.187,-1.89,-0.061,-0.061,142.366
129298,157788,417,-0.104,1.022,0.184,-1.89,-0.061,-0.061,142.37
129298,157935,11740,-0.097,1.023,0.18,-1.829,0.061,0,142.376
129295,158044,417,-0.096,1.018,0.182,-1.829,0.061,0,142.38
129295,157954,11745,-0.092,1.017,0.181,-0.671,0.061,0,142.386
129305,157788,417,-0.094,1.014,0.183,-0.671,0.061,0,142.39
129305,157944,11758,-0.098,1.021,0.181,0,0.488,0.366,142.396
129304,157788,417,-0.1,1.026,0.18,0,0.488,0.366,142.4
129304,157945,11733,-0.101,1.021,0.182,0.244,0.915,0.366,142.406
129279,157788,417,-0.105,1.023,0.184,0.244,0.915,0.366,142.41
129279,157950,11746,-0.104,1.022,0.185,0.732,0.732,0.183,142.416
129308,157788,417,-0.101,1.025,0.183,0.732,0.732,0.183,142.419
129308,157946,11734,-0.104,1.027,0.182,0.549,0.549,0.244,142.426
129270,158044,417,-0.105,1.026,0.185,0.549,0.549,0.244,142.429
129270,157958,11754,-0.106,1.025,0.185,-0.244,0.549,0.183,142.436
129304,157788,417,-0.105,1.024,0.183,-0.244,0.549,0.183,142.439
129304,157947,11737,-0.104,1.023,0.186,-0.671,0.366,0.122,142.445
129287,158044,417,-0.102,1.019,0.185,-0.671,0.366,0.122,142.449
129287,157956,11743,-0.101,1.017,0.184,-0.488,0.183,0.183,142.455
129298,157788,417,-0.106,1.02,0.187,-0.488,0.183,0.183,142.459
129298,157945,11739,-0.104,1.024,0.185,-0.488,0.366,0.244,142.465
129272,157788,417,-0.101,1.024,0.179,-0.488,0.366,0.244,142.469
129272,157949,11754,-0.101,1.019,0.179,-0.549,0.427,0.122,142.475
129261,157788,417,-0.099,1.013,0.176,-0.549,0.427,0.122,142.479
129261,157945,11753,-0.105,1.015,0.174,-0.671,0.305,0.305,142.485
129288,158044,417,-0.103,1.016,0.174,-0.671,0.305,0.305,142.489
129288,157961,11745,-0.104,1.019,0.176,-0.915,0,0.61,142.495
129276,158044,417,-0.104,1.021,0.183,-0.915,0,0.61,142.499
129276,157964,11734,-0.099,1.025,0.184,-0.427,-0.427,0.488,142.505
129288,158044,417,-0.099,1.028,0.189,-0.427,-0.427,0.488,142.509
129288,157966,11737,-0.097,1.036,0.193,0.244,0,0.427,142.515
129283,157788,417,-0.1,1.034,0.193,0.244,0,0.427,142.518
129283,157951,11739,-0.103,1.033,0.193,0.244,0.671,0.366,142.525
129278,157788,417,-0.101,1.03,0.188,0.244,0.671,0.366,142.528
129278,157942,11741,-0.1,1.021,0.184,-0.549,0.976,0.427,142.535
129289,157788,417,-0.101,1.017,0.177,-0.549,0.976,0.427,142.538
129289,157943,11745,-0.1,1.014,0.179,-0.61,0.854,0.366,142.544
129300,158044,417,-0.1,1.015,0.175,-0.61,0.854,0.366,142.548
129300,157952,11733,-0.1,1.013,0.174,0.122,0.488,0.305,142.554
129284,157788,417,-0.104,1.017,0.183,0.122,0.488,0.305,142.558
129284,157929,11754,-0.104,1.02,0.183,0.793,0.549,0.366,142.564
129295,157788,417,-0.104,1.021,0.186,0.793,0.549,0.366,142.568
129295,157935,11737,-0.102,1.026,0.187,0.427,0.549,0.488,142.574
129248,157788,417,-0.104,1.026,0.185,0.427,0.549,0.488,142.578
129248,157935,11740,-0.106,1.024,0.183,-0.488,0.183,0.61,142.584
129265,157788,417,-0.104,1.021,0.185,-0.488,0.183,0.61,142.588
129265,157941,11740,-0.104,1.018,0.18,-1.159,-0.183,0.732,142.594
129274,157788,417,-0.097,1.016,0.18,-1.159,-0.183,0.732,142.598
129274,157933,11748,-0.098,1.017,0.182,-0.915,-0.244,0.549,142.604
129276,157788,417,-0.096,1.022,0.183,-0.915,-0.244,0.549,142.608
129276,157949,11742,-0.098,1.026,0.19,-0.061,0,0.549,142.614
129272,157788,417,-0.099,1.03,0.187,-0.061,0,0.549,142.617
129272,157942,11742,-0.101,1.033,0.183,-0.488,0.366,0.549,142.624
129261,157788,417,-0.099,1.031,0.186,-0.488,0.366,0.549,142.627
129261,157943,11739,-0.101,1.029,0.186,-1.28,0.488,0.427,142.634
129266,157788,417,-0.101,1.029,0.186,-1.28,0.488,0.427,142.637
129266,157932,11732,-0.104,1.029,0.189,-1.463,0.244,0.427,142.643
129256,157788,417,-0.106,1.026,0.189,-1.463,0.244,0.427,142.647
129256,157911,11751,-0.101,1.024,0.186,-0.366,0.305,0.366,142.653
129261,157788,417,-0.095,1.019,0.181,-0.366,0.305,0.366,142.657
129261,157940,11735,-0.094,1.018,0.182,1.524,1.098,-0.061,142.663
129270,157788,417,-0.098,1.018,0.181,1.524,1.098,-0.061,142.667
129270,157940,11730,-0.104,1.02,0.183,2.317,1.707,0.244,142.673
129254,157788,417,-0.105,1.026,0.184,2.317,1.707,0.244,142.677
129254,157939,11729,-0.107,1.028,0.186,1.22,1.524,0.244,142.683
129263,157788,417,-0.106,1.024,0.18,1.22,1.524,0.244,142.687
129263,157943,11737,-0.101,1.022,0.182,-0.305,0.732,0.183,142.693
129259,157788,417,-0.1,1.019,0.183,-0.305,0.732,0.183,142.697
129259,157950,11736,-0.1,1.019,0.187,-1.341,0.122,0.488,142.703
129260,158044,417,-0.098,1.02,0.188,-1.341,0.122,0.488,142.707
129260,157961,11735,-0.1,1.019,0.197,-1.341,0.061,0.61,142.713
129265,157788,417,-0.098,1.021,0.201,-1.341,0.061,0.61,142.716
129265,157939,11731,-0.097,1.021,0.195,0.549,0.732,0.183,142.723
129254,157788,417,-0.097,1.02,0.184,0.549,0.732,0.183,142.726
129254,157947,11734,-0.096,1.023,0.182,1.829,1.768,-0.061,142.733
129247,157788,417,-0.096,1.023,0.182,1.829,1.768,-0.061,142.736
129247,157934,11744,-0.104,1.028,0.172,0.366,1.707,0.366,142.742
129277,157788,417,-0.104,1.028,0.172,0.366,1.707,0.366,142.746
129277,157936,11733,-0.1,1.022,0.164,-2.256,0.61,0.61,142.752
129270,157788,417,-0.1,1.022,0.164,-2.256,0.61,0.61,142.756
129270,157949,11743,-0.099,1.011,0.174,-2.5,-0.488,0.61,142.762
129284,157788,417,-0.099,1.011,0.174,-2.5,-0.488,0.61,142.766
129284,157945,11752,-0.097,1.025,0.178,-0.915,-0.366,0.793,142.772
129262,157788,417,-0.097,1.025,0.178,-0.915,-0.366,0.793,142.776
129262,157946,11746,-0.102,1.037,0.185,0.427,0.61,0.61,142.782
129244,157788,417,-0.102,1.037,0.185,0.427,0.61,0.61,142.786
129244,157936,11743,-0.103,1.036,0.184,0.854,0.915,0.183,142.792
129264,157788,417,-0.103,1.036,0.184,0.854,0.915,0.183,142.796
129264,157920,11730,-0.102,1.028,0.176,0.427,0.671,0.244,142.802
129232,157788,417,-0.102,1.028,0.176,0.427,0.671,0.244,142.806
129232,157948,11750,-0.104,1.024,0.183,-0.244,0.427,0.244,142.812
129274,157788,417,-0.104,1.024,0.183,-0.244,0.427,0.244,142.815
129274,157933,11746,-0.103,1.026,0.179,-0.671,0.305,0,142.822
129283,157788,417,-0.103,1.026,0.179,-0.671,0.305,0,142.825
129283,157935,11733,-0.102,1.019,0.179,-0.549,0.366,-0.061,142.831
129268,157788,417,-0.102,1.019,0.179,-0.549,0.366,-0.061,142.835
129268,157942,11743,-0.102,1.025,0.184,-0.366,0.061,0,142.841
129279,157788,417,-0.102,1.025,0.184,-0.366,0.061,0,142.845
129279,157941,11731,-0.101,1.02,0.189,-0.305,0.244,-0.061,142.851
129258,157788,417,-0.101,1.02,0.189,-0.305,0.244,-0.061,142.855
129258,157936,11749,-0.102,1.016,0.183,-0.61,0.549,0,142.861
129271,157788,417,-0.102,1.016,0.183,-0.61,0.549,0,142.865
129271,157938,11743,-0.103,1.023,0.181,-1.402,0.366,0.122,142.871
129269,157788,417,-0.103,1.023,0.181,-1.402,0.366,0.122,142.875
129269,157930,11755,-0.1,1.02,0.181,-1.402,0.366,0.122,142.881
129251,157788,417,-0.099,1.016,0.189,-1.89,-0.122,0.061,142.885
129251,157938,11727,-0.103,1.013,0.19,-1.89,-0.122,0.061,142.891
129271,157788,417,-0.1,1.01,0.191,-1.707,0.061,0.427,142.895
129271,157916,11729,-0.099,1.011,0.191,-1.707,0.061,0.427,142.901
129230,157788,417,-0.101,1.014,0.184,-0.732,0.549,0.549,142.904
129230,157931,11739,-0.1,1.017,0.181,-0.732,0.549,0.549,142.911
129248,157788,417,-0.104,1.021,0.185,-0.244,0.976,0.61,142.914
129248,157891,11739,-0.107,1.03,0.183,-0.244,0.976,0.61,142.921
129205,157788,417,-0.107,1.032,0.183,-1.463,0.671,1.159,142.924
129205,157902,11729,-0.103,1.03,0.182,-1.463,0.671,1.159,142.93
129207,157788,417,-0.098,1.02,0.186,-2.378,-0.122,1.098,142.934
129207,157882,11739,-0.098,1.015,0.184,-2.378,-0.122,1.098,142.94
129215,157788,417,-0.097,1.017,0.188,-1.89,-0.305,0.915,142.944
129215,157908,11730,-0.097,1.022,0.185,-1.89,-0.305,0.915,142.95
129206,157788,417,-0.101,1.027,0.183,-1.829,0.366,0.915,142.954
129206,157892,11725,-0.105,1.031,0.186,-1.829,0.366,0.915,142.96
129195,157788,417,-0.103,1.032,0.191,-1.89,0.732,0.671,142.964
129195,157888,11743,-0.103,1.034,0.187,-1.89,0.732,0.671,142.97
129211,157788,417,-0.104,1.034,0.183,-3.171,0.793,0.549,142.974
129211,157880,11734,-0.105,1.029,0.18,-3.171,0.793,0.549,142.98
129219,157788,417,-0.105,1.026,0.177,-4.756,0.366,0.488,142.984
129219,157871,11738,-0.101,1.019,0.181,-4.756,0.366,0.488,142.99
129186,157788,417,-0.101,1.014,0.182,-4.878,-0.671,0.427,142.994
129186,157850,11736,-0.098,1.01,0.188,-4.878,-0.671,0.427,143
129181,157788,417,-0.097,1.01,0.189,-2.988,-0.61,0.427,143.003
129181,157883,11723,-0.1,1.012,0.19,-2.988,-0.61,0.427,143.01
129215,157788,417,-0.099,1.019,0.191,-0.671,0.061,0.549,143.013
129215,157887,11736,-0.097,1.024,0.192,-0.671,0.061,0.549,143.02
129199,157788,417,-0.097,1.026,0.192,0.732,0.305,0.61,143.023
129199,157880,11730,-0.097,1.028,0.189,0.732,0.305,0.61,143.029
129211,157788,417,-0.097,1.028,0.192,0.732,0.366,0.488,143.033
129211,157892,11729,-0.1,1.026,0.194,0.732,0.366,0.488,143.039
129203,157788,417,-0.102,1.028,0.186,-0.976,0.305,0.61,143.043
129203,157867,11749,-0.099,1.027,0.182,-0.976,0.305,0.61,143.049
129182,157788,417,-0.096,1.023,0.184,-2.5,0,0.854,143.053
129182,157874,11741,-0.098,1.019,0.186,-2.5,0,0.854,143.059
129180,157788,417,-0.097,1.021,0.188,-2.317,-0.122,0.854,143.063
129180,157884,11728,-0.098,1.022,0.19,-2.317,-0.122,0.854,143.069
129187,157788,417,-0.098,1.025,0.188,-1.707,0.244,0.61,143.073
129187,157884,11733,-0.1,1.025,0.189,-1.707,0.244,0.61,143.079
129200,157788,417,-0.1,1.024,0.191,-1.646,0.427,0.366,143.083
129200,157879,11729,-0.102,1.026,0.193,-1.646,0.427,0.366,143.089
129200,157788,417,-0.101,1.026,0.193,-2.439,0.549,0.61,143.093
129200,157874,11734,-0.103,1.026,0.187,-2.439,0.549,0.61,143.099
129197,157788,417,-0.101,1.022,0.187,-3.293,0.244,0.488,143.102
129197,157875,11740,-0.1,1.016,0.19,-3.293,0.244,0.488,143.109
129175,157788,417,-0.096,1.008,0.193,-2.866,-0.061,0.244,143.112
129175,157878,11737,-0.095,1.009,0.189,-2.866,-0.061,0.244,143.119
129187,157788,417,-0.098,1.017,0.189,-2.012,0.061,0.488,143.122
129187,157878,11752,-0.1,1.019,0.193,-2.012,0.061,0.488,143.128
129187,157788,417,-0.098,1.025,0.194,-1.037,0.488,0.305,143.132
129187,157860,11716,-0.099,1.028,0.194,-1.037,0.488,0.305,143.138
129198,157788,417,-0.101,1.029,0.195,-0.244,0.793,0.305,143.142
129198,157871,11722,-0.103,1.026,0.196,-0.244,0.793,0.305,143.148
129195,157788,417,-0.101,1.023,0.198,-0.305,0.793,0.427,143.152
129195,157882,11730,-0.1,1.019,0.199,-0.305,0.793,0.427,143.158
129132,157788,417,-0.099,1.016,0.199,-0.976,0.549,0.549,143.162
129132,157801,11736,-0.1,1.012,0.192,-0.976,0.549,0.549,143.168
129118,157788,417,-0.102,1.016,0.195,-0.549,0.793,0.793,143.172
129118,157810,11716,-0.1,1.017,0.193,-0.549,0.793,0.793,143.178
129119,157788,417,-0.101,1.02,0.192,0.305,1.159,0.488,143.182
129119,157802,11711,-0.103,1.023,0.187,0.305,1.159,0.488,143.188
129107,157788,417,-0.104,1.022,0.187,-0.244,0.976,0.61,143.191
129107,157803,11721,-0.107,1.024,0.182,-0.244,0.976,0.61,143.198
129085,157788,417,-0.104,1.021,0.184,-0.671,0.488,0.61,143.201
129085,157791,11724,-0.103,1.025,0.184,-0.671,0.488,0.61,143.208
129073,157788,417,-0.102,1.03,0.183,-0.671,0.183,0.488,143.211
129073,157801,11712,-0.1,1.024,0.189,-0.671,0.183,0.488,143.217
129050,157788,417,-0.097,1.018,0.188,-0.549,0.122,0.366,143.221
129050,157759,11712,-0.101,1.019,0.187,-0.549,0.122,0.366,143.227
129054,157788,417,-0.104,1.018,0.187,-1.22,0.305,0.61,143.231
129054,157764,11712,-0.104,1.018,0.189,-1.22,0.305,0.61,143.237
129039,157788,417,-0.102,1.019,0.191,-1.28,0.122,0.671,143.241
129039,157766,11726,-0.104,1.021,0.195,-1.28,0.122,0.671,143.247
129080,157788,417,-0.101,1.022,0.198,-0.549,-0.183,0.549,143.251
129080,157781,11711,-0.098,1.023,0.196,-0.549,-0.183,0.549,143.257
129070,157788,417,-0.098,1.026,0.197,-0.366,0,0.488,143.261
129070,157804,11717,-0.095,1.025,0.201,-0.366,0,0.488,143.267
129079,157788,417,-0.099,1.021,0.198,-0.976,0.488,0.488,143.271
129079,157785,11706,-0.103,1.023,0.194,-0.976,0.488,0.488,143.277
129056,157788,417,-0.098,1.02,0.189,-1.951,0.61,0.61,143.281
129056,157762,11703,-0.1,1.016,0.184,-1.951,0.61,0.61,143.287
129070,157788,417,-0.099,1.016,0.184,-0.976,0.183,0.427,143.29
129070,157785,11719,-0.095,1.018,0.19,-0.976,0.183,0.427,143.297
129058,157788,417,-0.095,1.02,0.194,1.28,0.061,0.061,143.3
129058,157778,11700,-0.095,1.021,0.195,1.28,0.061,0.061,143.307
129049,157788,417,-0.095,1.021,0.195,1.28,0.061,0.061,143.31
129049,157756,11713,-0.104,1.026,0.196,1.89,0.793,0.366,143.316
129055,157788,417,-0.104,1.026,0.196,1.89,0.793,0.366,143.32
129055,157783,11731,-0.106,1.024,0.193,0.549,0.976,0.61,143.326
129072,157788,417,-0.106,1.024,0.193,0.549,0.976,0.61,143.33
129072,157780,11703,-0.098,1.021,0.192,-1.037,0.244,0.427,143.336
129065,157788,417,-0.098,1.021,0.192,-1.037,0.244,0.427,143.34
129065,157774,11730,-0.098,1.019,0.197,-1.28,-0.366,0.61,143.346
129036,157788,417,-0.098,1.019,0.197,-1.28,-0.366,0.61,143.35
129036,157773,11721,-0.094,1.021,0.196,-0.488,-0.061,0.488,143.356
129068,157788,417,-0.094,1.021,0.196,-0.488,-0.061,0.488,143.36
129068,157792,11705,-0.1,1.021,0.192,0,0.732,0.305,143.366
129061,157788,417,-0.1,1.021,0.192,0,0.732,0.305,143.37
129061,157805,11725,-0.103,1.025,0.195,-0.122,1.037,0.366,143.376
129066,157788,417,-0.103,1.025,0.195,-0.122,1.037,0.366,143.38
129066,157793,11710,-0.102,1.021,0.189,-0.549,0.671,0.427,143.386
129070,157788,417,-0.102,1.021,0.189,-0.549,0.671,0.427,143.389
129070,157790,11702,-0.099,1.017,0.196,0.122,0.488,0.366,143.396
129075,157788,417,-0.099,1.017,0.196,0.122,0.488,0.366,143.399
129075,157788,11702,-0.098,1.023,0.195,1.159,0.732,0.549,143.406
129065,157788,417,-0.098,1.023,0.195,1.159,0.732,0.549,143.409
129065,157799,11713,-0.101,1.028,0.198,1.402,1.159,0.427,143.415
129079,157788,417,-0.101,1.028,0.198,1.402,1.159,0.427,143.419
129079,157789,11709,-0.101,1.028,0.192,1.159,1.22,0.122,143.425
129071,157788,417,-0.101,1.028,0.192,1.159,1.22,0.122,143.429
129071,157777,11708,-0.099,1.023,0.193,0.793,0.976,-0.061,143.435
129101,157788,417,-0.099,1.023,0.193,0.793,0.976,-0.061,143.439
129101,157818,11702,-0.099,1.017,0.191,0.549,0.793,-0.122,143.445
129119,157788,417,-0.099,1.017,0.191,0.549,0.793,-0.122,143.449
129119,157856,11724,-0.096,1.018,0.185,-0.183,0.671,-0.061,143.455
129170,157788,417,-0.098,1.016,0.187,-0.183,0.671,-0.061,143.459
129170,157848,11733,-0.1,1.013,0.186,-0.488,0.488,-0.061,143.465
129206,157788,417,-0.101,1.014,0.188,-0.488,0.488,-0.061,143.469
129206,157914,11739,-0.097,1.02,0.188,-0.061,0.366,0,143.475
129205,157788,417,-0.1,1.026,0.188,-0.061,0.366,0,143.479
129205,157907,11750,-0.099,1.029,0.191,0.061,0.305,0,143.485
129212,157788,417,-0.099,1.029,0.196,0.061,0.305,0,143.488
129212,157917,11740,-0.1,1.029,0.189,-0.244,0.488,-0.122,143.495
129234,157788,417,-0.099,1.026,0.188,-0.244,0.488,-0.122,143.498
129234,157922,11729,-0.098,1.025,0.185,-1.341,0.488,0.061,143.505
129239,157788,417,-0.1,1.022,0.185,-1.341,0.488,0.061,143.508
129239,157943,11737,-0.1,1.014,0.187,-1.89,0.061,0.244,143.514
129267,157788,417,-0.101,1.012,0.185,-1.89,0.061,0.244,143.518
129267,157950,11726,-0.1,1.012,0.188,-1.159,0.061,0.122,143.524
129248,157788,417,-0.102,1.014,0.183,-1.159,0.061,0.122,143.528
129248,157942,11765,-0.1,1.016,0.187,0.061,0.183,0.305,143.534
129260,157788,417,-0.101,1.022,0.193,0.061,0.183,0.305,143.538
129260,157944,11736,-0.105,1.028,0.195,0.793,0.244,0.366,143.544
129260,158044,417,-0.102,1.031,0.195,0.793,0.244,0.366,143.548
129260,157952,11748,-0.105,1.031,0.19,0.427,0,0.122,143.554
129270,158044,417,-0.101,1.032,0.19,0.427,0,0.122,143.558
129270,157976,11734,-0.101,1.031,0.191,-0.183,0,0,143.564
129300,158044,417,-0.101,1.024,0.192,-0.183,0,0,143.568
129300,157970,11750,-0.099,1.02,0.194,-0.244,0.061,-0.122,143.574
129276,158044,417,-0.098,1.024,0.193,-0.244,0.061,-0.122,143.578
129276,157982,11741,-0.097,1.021,0.191,-0.488,0.244,-0.244,143.584
129287,158044,417,-0.099,1.018,0.19,-0.488,0.244,-0.244,143.587
129287,157981,11755,-0.099,1.019,0.193,-0.488,0.427,-0.305,143.594
129286,158044,417,-0.101,1.019,0.194,-0.488,0.427,-0.305,143.597
129286,157990,11743,-0.102,1.017,0.198,-0.244,0.366,-0.183,143.604
129282,158044,417,-0.101,1.015,0.203,-0.244,0.366,-0.183,143.607
129282,157977,11760,-0.096,1.015,0.201,0.061,0.305,-0.122,143.613
129278,158044,417,-0.1,1.022,0.199,0.061,0.305,-0.122,143.617
129278,157979,11745,-0.099,1.02,0.197,0.427,0.61,-0.183,143.623
129278,158044,417,-0.102,1.017,0.195,0.427,0.61,-0.183,143.627
129278,157968,11744,-0.103,1.019,0.192,0.793,0.854,-0.305,143.633
129267,158044,417,-0.099,1.02,0.187,0.793,0.854,-0.305,143.637
129267,157985,11746,-0.1,1.013,0.187,0.366,0.854,0,143.643
129272,158044,417,-0.103,1.016,0.187,0.366,0.854,0,143.647
129272,157952,11752,-0.104,1.022,0.182,0.061,0.549,0.244,143.653
129261,158044,417,-0.103,1.019,0.181,0.061,0.549,0.244,143.657
129261,157968,11745,-0.099,1.02,0.188,-0.244,0.366,0.305,143.663
129267,158044,417,-0.101,1.022,0.191,-0.244,0.366,0.305,143.667
129267,157964,11730,-0.102,1.023,0.183,-1.098,0.366,0.488,143.673
129242,157788,417,-0.103,1.022,0.183,-1.098,0.366,0.488,143.676
129242,157949,11744,-0.101,1.018,0.188,-1.707,0.305,0.793,143.683
129265,157788,417,-0.101,1.016,0.191,-1.707,0.305,0.793,143.686
129265,157931,11751,-0.1,1.021,0.192,-0.793,0.183,0.793,143.693
129239,157788,417,-0.105,1.026,0.192,-0.793,0.183,0.793,143.696
129239,157949,11733,-0.106,1.026,0.191,-0.366,0.488,0.671,143.702
129237,157788,417,-0.104,1.027,0.194,-0.366,0.488,0.671,143.706
129237,157942,11738,-0.104,1.025,0.193,0,0.61,0.366,143.712
129234,157788,417,-0.106,1.025,0.196,0,0.61,0.366,143.716
129234,157938,11730,-0.101,1.022,0.192,-0.061,0.549,0.366,143.722
129220,157788,417,-0.103,1.021,0.192,-0.061,0.549,0.366,143.726
129220,157936,11741,-0.103,1.021,0.196,-0.061,0.549,0.305,143.732
129202,157788,417,-0.101,1.021,0.194,-0.061,0.549,0.305,143.736
129202,157929,11742,-0.099,1.022,0.19,0.671,0.732,0,143.742
129218,157788,417,-0.1,1.02,0.19,0.671,0.732,0,143.746
129218,157929,11730,-0.099,1.021,0.194,0.549,0.915,0.122,143.752
129231,157788,417,-0.097,1.021,0.192,0.549,0.915,0.122,143.756
129231,157929,11749,-0.096,1.021,0.189,-0.549,0.61,0.305,143.762
129231,157788,417,-0.095,1.021,0.185,-0.549,0.61,0.305,143.766
129231,157922,11753,-0.095,1.016,0.185,-0.915,0.366,0.183,143.772
129227,157788,417,-0.094,1.019,0.186,-0.915,0.366,0.183,143.775
129227,157937,11740,-0.096,1.023,0.188,-1.037,0.244,0.244,143.782
129240,157788,417,-0.094,1.021,0.192,-1.037,0.244,0.244,143.785
129240,157931,11750,-0.093,1.021,0.194,-1.098,0.183,0.305,143.792
129241,158044,417,-0.097,1.022,0.192,-1.098,0.183,0.305,143.795
129241,157957,11755,-0.101,1.021,0.189,-1.524,0.366,0.488,143.801
129260,157788,417,-0.104,1.018,0.194,-1.524,0.366,0.488,143.805
129260,157949,11743,-0.107,1.016,0.188,-2.134,0.488,0.549,143.811
129261,158044,417,-0.106,1.019,0.192,-2.134,0.488,0.549,143.815
129261,157953,11738,-0.108,1.021,0.193,-1.341,0.244,0.427,143.821
129232,157788,417,-0.106,1.021,0.193,-1.341,0.244,0.427,143.825
129232,157924,11736,-0.1,1.027,0.195,0.122,0.183,0.244,143.831
129264,157788,417,-0.104,1.028,0.196,0.122,0.183,0.244,143.835
129264,157931,11737,-0.104,1.03,0.199,0.305,0.61,0.305,143.841
129253,157788,417,-0.104,1.033,0.198,0.305,0.61,0.305,143.845
129253,157940,11745,-0.107,1.028,0.198,-0.488,0.976,0.366,143.851
129274,158044,417,-0.108,1.019,0.193,-0.488,0.976,0.366,143.855
129274,157966,11757,-0.106,1.017,0.186,-1.22,0.671,0.183,143.861
129287,158044,417,-0.103,1.015,0.182,-1.22,0.671,0.183,143.865
129287,157982,11752,-0.097,1.017,0.184,-1.22,0,0.122,143.871
129323,158044,417,-0.096,1.02,0.191,-1.22,0,0.122,143.874
129323,157968,11733,-0.1,1.021,0.193,-0.183,0,0.061,143.881
129306,158044,417,-0.1,1.021,0.193,-0.183,0,0.061,143.884
129306,157981,11749,-0.1,1.025,0.193,-0.305,0.732,0.122,143.89
129329,158044,417,-0.1,1.025,0.193,-0.305,0.732,0.122,143.894
129329,158029,11762,-0.103,1.012,0.202,-0.793,0.793,0.305,143.9
129353,158044,417,-0.103,1.012,0.202,-0.793,0.793,0.305,143.904
129353,158035,11769,-0.1,1.007,0.202,-0.732,0.366,0.671,143.91
129413,158044,417,-0.1,1.007,0.202,-0.732,0.366,0.671,143.914
129413,158093,11777,-0.096,1.013,0.196,0.366,0.488,0.732,143.92
129462,158044,417,-0.096,1.013,0.196,0.366,0.488,0.732,143.924
129462,158118,11771,-0.097,1.028,0.19,1.951,1.159,0.244,143.93
129499,158044,417,-0.097,1.028,0.19,1.951,1.159,0.244,143.934
129499,158142,11771,-0.101,1.038,0.187,1.22,1.402,0.122,143.94
129525,158044,417,-0.101,1.038,0.187,1.22,1.402,0.122,143.944
129525,158149,11788,-0.106,1.022,0.191,-0.976,0.793,0.427,143.95
129548,158044,417,-0.106,1.022,0.191,-0.976,0.793,0.427,143.954
129548,158174,11781,-0.107,1.011,0.191,-2.378,-0.061,0.488,143.96
129547,158044,417,-0.107,1.011,0.191,-2.378,-0.061,0.488,143.964
129547,158200,11784,-0.104,1.008,0.194,-1.159,-0.305,0.549,143.97
129566,158044,417,-0.104,1.008,0.194,-1.159,-0.305,0.549,143.973
129566,158184,11778,-0.1,1.02,0.195,1.28,0.427,0.366,143.98
129578,158044,417,-0.1,1.02,0.195,1.28,0.427,0.366,143.983
129578,158187,11788,-0.104,1.033,0.192,2.683,1.463,0.061,143.989
129591,158300,417,-0.104,1.033,0.192,2.683,1.463,0.061,143.993
129591,158219,11794,-0.105,1.037,0.189,1.585,1.524,0.061,143.999
129622,158300,417,-0.105,1.037,0.189,1.585,1.524,0.061,144.003
129622,158219,11795,-0.107,1.026,0.184,-0.244,0.427,0.122,144.009
129614,158300,417,-0.107,1.026,0.184,-0.244,0.427,0.122,144.013
129614,158225,11809,-0.101,1.021,0.184,-0.244,0.427,0.122,144.019
129643,158300,417,-0.1,1.014,0.188,-1.098,-0.427,0.183,144.023
129643,158228,11801,-0.1,1.013,0.188,-1.098,-0.427,0.183,144.029
129663,158300,417,-0.097,1.013,0.19,-0.793,-0.427,0.061,144.033
129663,158248,11811,-0.097,1.013,0.193,-0.793,-0.427,0.061,144.039
129673,158300,417,-0.096,1.013,0.193,0.122,0.366,0.244,144.043
129673,158259,11790,-0.099,1.013,0.192,0.122,0.366,0.244,144.049
129678,158300,417,-0.099,1.017,0.191,0.488,0.793,0.671,144.053
129678,158255,11815,-0.102,1.021,0.188,0.488,0.793,0.671,144.059
129673,158300,417,-0.101,1.024,0.186,-0.244,0.549,0.671,144.062
129673,158265,11804,-0.099,1.026,0.194,-0.244,0.549,0.671,144.069
129692,158300,417,-0.099,1.025,0.198,-1.22,-0.122,0.488,144.072
129692,158277,11806,-0.103,1.021,0.199,-1.22,-0.122,0.488,144.079
129703,158300,417,-0.104,1.021,0.194,-2.073,-0.488,0.671,144.082
129703,158274,11812,-0.098,1.017,0.195,-2.073,-0.488,0.671,144.088
129691,158300,417,-0.1,1.014,0.194,-2.134,-0.427,0.427,144.092
129691,158259,11809,-0.102,1.016,0.193,-2.134,-0.427,0.427,144.098
129714,158300,417,-0.105,1.018,0.192,-1.341,-0.183,0.366,144.102
129714,158265,11810,-0.107,1.02,0.194,-1.341,-0.183,0.366,144.108
129682,158300,417,-0.106,1.027,0.195,0,0,0.488,144.112
129682,158261,11806,-0.102,1.031,0.203,0,0,0.488,144.118
129698,158300,417,-0.102,1.028,0.202,1.28,0.366,0.305,144.122
129698,158269,11810,-0.102,1.028,0.199,1.28,0.366,0.305,144.128
129692,158300,417,-0.102,1.03,0.2,1.402,0.976,0.305,144.132
129692,158260,11799,-0.101,1.026,0.193,1.402,0.976,0.305,144.138
129659,158300,417,-0.103,1.024,0.195,0.549,1.159,0.183,144.142
129659,158260,11806,-0.103,1.024,0.193,0.549,1.159,0.183,144.148
129662,158300,417,-0.104,1.019,0.19,-0.244,0.915,0.244,144.152
129662,158235,11804,-0.1,1.013,0.186,-0.244,0.915,0.244,144.158
129623,158300,417,-0.1,1.012,0.19,-0.305,0.732,0.305,144.161
129623,158208,11799,-0.102,1.014,0.187,-0.305,0.732,0.305,144.168
129615,158300,417,-0.1,1.02,0.185,0.549,0.854,0.366,144.171
129615,158218,11792,-0.101,1.02,0.192,0.549,0.854,0.366,144.178
129611,158044,417,-0.1,1.024,0.189,0.671,1.159,0.427,144.181
129611,158207,11794,-0.1,1.028,0.191,0.671,1.159,0.427,144.187
129619,158300,417,-0.103,1.025,0.193,0,0.915,0.427,144.191
129619,158211,11797,-0.103,1.02,0.194,0,0.915,0.427,144.197
129627,158044,417,-0.1,1.02,0.191,-0.854,0.366,0.427,144.201
129627,158196,11804,-0.098,1.017,0.193,-0.854,0.366,0.427,144.207
129618,158044,417,-0.1,1.019,0.198,-0.915,0.061,0.488,144.211
129618,158193,11796,-0.096,1.021,0.199,-0.915,0.061,0.488,144.217
129624,158044,417,-0.097,1.023,0.192,0.305,0.305,0.244,144.221
129624,158196,11804,-0.099,1.026,0.193,0.305,0.305,0.244,144.227
129614,158300,417,-0.102,1.03,0.196,0.976,0.976,0,144.231
129614,158221,11793,-0.103,1.031,0.191,0.976,0.976,0,144.237
129605,158300,417,-0.104,1.03,0.182,0.061,1.037,0.061,144.241
129605,158210,11813,-0.102,1.021,0.183,0.061,1.037,0.061,144.247
129604,158044,417,-0.101,1.017,0.182,-1.28,0.305,0.061,144.251
129604,158197,11803,-0.102,1.016,0.182,-1.28,0.305,0.061,144.257
129627,158044,417,-0.103,1.017,0.184,-1.463,-0.305,0.244,144.26
129627,158204,11784,-0.102,1.019,0.191,-1.463,-0.305,0.244,144.267
129595,158044,417,-0.101,1.023,0.195,-0.671,-0.244,0.183,144.27
129595,158203,11789,-0.099,1.027,0.191,-0.671,-0.244,0.183,144.277
129595,158300,417,-0.1,1.029,0.192,0.305,0.305,0,144.28
129595,158209,11795,-0.102,1.027,0.195,0.305,0.305,0,144.286
129619,158044,417,-0.103,1.024,0.195,-0.122,0.732,0.183,144.29
129619,158201,11782,-0.104,1.023,0.19,-0.122,0.732,0.183,144.296
129611,158044,417,-0.105,1.017,0.187,-1.22,0.488,0.366,144.3
129611,158201,11793,-0.106,1.013,0.187,-1.22,0.488,0.366,144.306
129596,158044,417,-0.105,1.013,0.19,-1.524,-0.061,0.244,144.31
129596,158172,11783,-0.102,1.014,0.192,-1.524,-0.061,0.244,144.316
129572,158044,417,-0.103,1.016,0.194,-0.427,-0.244,0.244,144.32
129572,158194,11790,-0.101,1.024,0.196,-0.427,-0.244,0.244,144.326
129602,158044,417,-0.101,1.024,0.197,1.098,0.244,0.244,144.33
129602,158159,11789,-0.102,1.026,0.198,1.098,0.244,0.244,144.336
129604,158044,417,-0.104,1.028,0.192,1.341,0.854,0.183,144.34
129604,158189,11797,-0.104,1.029,0.191,1.341,0.854,0.183,144.346
129592,158044,417,-0.105,1.027,0.191,0.427,0.793,0.305,144.35
129592,158164,11786,-0.104,1.023,0.195,0.427,0.793,0.305,144.356
129570,158044,417,-0.106,1.018,0.193,-0.549,0.427,0.305,144.359
129570,158183,11795,-0.099,1.012,0.192,-0.549,0.427,0.305,144.366
129563,158044,417,-0.1,1.011,0.195,-1.341,0.122,0.427,144.369
129563,158190,11801,-0.099,1.012,0.196,-1.341,0.122,0.427,144.376
129576,158044,417,-0.102,1.009,0.192,-1.098,-0.061,0.427,144.379
129576,158173,11788,-0.101,1.015,0.192,-1.098,-0.061,0.427,144.385
129576,158044,417,-0.102,1.025,0.196,-0.366,0.122,0.366,144.389
129576,158156,11790,-0.104,1.026,0.198,-0.366,0.122,0.366,144.395
129573,158044,417,-0.104,1.025,0.196,0.122,0.305,0.305,144.399
129573,158169,11780,-0.102,1.026,0.196,0.122,0.305,0.305,144.405
129553,158044,417,-0.102,1.029,0.193,0.061,0.305,0.244,144.409
129553,158163,11793,-0.104,1.025,0.192,0.061,0.305,0.244,144.415
129538,158044,417,-0.104,1.017,0.197,0.183,0.488,0.183,144.419
129538,158178,11780,-0.103,1.017,0.192,0.183,0.488,0.183,144.425
129543,158044,417,-0.103,1.019,0.188,0.183,0.793,0.427,144.429
129543,158178,11795,-0.107,1.018,0.191,0.183,0.793,0.427,144.435
129590,158044,417,-0.11,1.016,0.194,-0.305,0.854,0.61,144.439
129590,158153,11786,-0.105,1.017,0.191,-0.305,0.854,0.61,144.445
129547,158044,417,-0.103,1.017,0.189,0.061,0.488,0.488,144.449
129547,158148,11796,-0.104,1.018,0.186,0.061,0.488,0.488,144.455
129560,158044,417,-0.104,1.018,0.186,0.061,0.488,0.488,144.458
129560,158139,11790,-0.106,1.024,0.192,0.244,0.427,0.671,144.465
129528,158044,417,-0.106,1.024,0.192,0.244,0.427,0.671,144.468
129528,158146,11796,-0.102,1.024,0.189,0.549,0.305,0.732,144.474
129559,158044,417,-0.102,1.024,0.189,0.549,0.305,0.732,144.478
129559,158165,11782,-0.103,1.027,0.186,0.671,0.549,0.366,144.484
129541,158044,417,-0.103,1.027,0.186,0.671,0.549,0.366,144.488
129541,158133,11791,-0.103,1.026,0.193,0.183,0.854,0.549,144.494
129517,158044,417,-0.103,1.026,0.193,0.183,0.854,0.549,144.498
129517,158161,11800,-0.099,1.015,0.188,-0.793,0.427,0.671,144.504
129525,158044,417,-0.099,1.015,0.188,-0.793,0.427,0.671,144.508
129525,158129,11795,-0.102,1.016,0.187,-1.341,0.122,0.549,144.514
129539,158044,417,-0.102,1.016,0.187,-1.341,0.122,0.549,144.518
129539,158139,11790,-0.099,1.022,0.187,-1.098,0.122,0.61,144.524
129559,158044,417,-0.099,1.022,0.187,-1.098,0.122,0.61,144.528
129559,158144,11792,-0.099,1.029,0.197,0.061,-0.061,0.366,144.534
129530,158044,417,-0.099,1.029,0.197,0.061,-0.061,0.366,144.538
129530,158128,11781,-0.098,1.035,0.194,1.402,0,0.122,144.544
129508,158044,417,-0.098,1.035,0.194,1.402,0,0.122,144.547
129508,158123,11780,-0.099,1.03,0.198,1.768,0.488,0.122,144.554
129506,158044,417,-0.099,1.03,0.198,1.768,0.488,0.122,144.557
129506,158109,11794,-0.099,1.021,0.198,0.549,0.671,0.061,144.564
129520,158044,417,-0.099,1.021,0.198,0.549,0.671,0.061,144.567
129520,158134,11790,-0.097,1.018,0.185,-0.732,0.549,0.183,144.573
129535,158044,417,-0.097,1.018,0.185,-0.732,0.549,0.183,144.577
129535,158124,11779,-0.101,1.013,0.185,-1.159,0.549,0.183,144.583
129512,158044,417,-0.101,1.013,0.185,-1.159,0.549,0.183,144.587
129512,158110,11796,-0.101,1.022,0.192,-0.854,0.427,0.183,144.593
129512,158044,417,-0.101,1.022,0.192,-0.854,0.427,0.183,144.597
129512,158130,11779,-0.102,1.02,0.193,-0.366,0.366,0.244,144.603
129507,158044,417,-0.105,1.024,0.192,-0.366,0.366,0.244,144.607
129507,158127,11786,-0.103,1.025,0.194,-0.366,0.732,0.427,144.613
129500,158044,417,-0.104,1.022,0.196,-0.366,0.732,0.427,144.617
129500,158117,11791,-0.104,1.018,0.197,-0.183,0.732,0.549,144.623
129537,158044,417,-0.103,1.019,0.194,-0.183,0.732,0.549,144.627
129537,158118,11772,-0.102,1.021,0.19,0,0.549,0.488,144.633
129510,158044,417,-0.1,1.023,0.19,0,0.549,0.488,144.637
129510,158120,11789,-0.102,1.026,0.19,0.244,0.854,0.305,144.643
129517,158044,417,-0.102,1.028,0.192,0.244,0.854,0.305,144.646
129517,158144,11789,-0.108,1.03,0.192,0,0.915,0.305,144.653
129500,158044,417,-0.109,1.026,0.188,0,0.915,0.305,144.656
129500,158123,11777,-0.105,1.023,0.193,-0.366,0.793,0.122,144.663
129508,158044,417,-0.103,1.017,0.196,-0.366,0.793,0.122,144.666
129508,158116,11786,-0.106,1.019,0.192,-0.122,0.732,0.122,144.672
129528,158044,417,-0.102,1.018,0.189,-0.122,0.732,0.122,144.676
129528,158122,11793,-0.102,1.016,0.193,0.122,0.732,0.183,144.682
129512,158044,417,-0.102,1.018,0.193,0.122,0.732,0.183,144.686
129512,158115,11773,-0.105,1.019,0.188,0.366,0.854,0.244,144.692
129530,158044,417,-0.105,1.023,0.186,0.366,0.854,0.244,144.696
129530,158141,11778,-0.105,1.022,0.185,0,0.793,0.183,144.702
129543,158044,417,-0.104,1.02,0.187,0,0.793,0.183,144.706
129543,158155,11778,-0.103,1.018,0.187,-0.061,0.244,0.122,144.712
