125239,155880,11219,-0.055,1.01,0.277,-1.341,0.854,0.305,290.909
125253,155834,11330,-0.055,1.01,0.277,-1.341,0.854,0.305,290.913
125253,155901,11212,-0.052,0.998,0.276,-1.89,-0.366,0.305,290.919
125272,155834,11330,-0.052,0.998,0.276,-1.89,-0.366,0.305,290.923
125272,155896,11215,-0.055,1.007,0.279,-1.585,-0.488,0.366,290.929
125277,156090,11330,-0.055,1.007,0.279,-1.585,-0.488,0.366,290.933
125277,155918,11220,-0.056,1.011,0.282,-0.366,0.305,0.427,290.939
125308,156090,11330,-0.051,1.015,0.283,-0.366,0.305,0.427,290.942
125308,155945,11215,-0.05,1.018,0.283,0.854,0.671,0.122,290.949
125324,156090,11330,-0.056,1.021,0.28,0.854,0.671,0.122,290.952
125324,155962,11225,-0.057,1.023,0.271,-0.061,0.976,0.244,290.959
125346,156090,11330,-0.058,1.013,0.269,-0.061,0.976,0.244,290.962
125346,155949,11220,-0.057,1.007,0.267,-1.768,0.732,0.366,290.968
125357,156090,11330,-0.054,1.001,0.266,-1.768,0.732,0.366,290.972
125357,155990,11215,-0.055,0.996,0.269,-2.134,-0.061,0.305,290.978
125377,156090,11330,-0.054,0.991,0.27,-2.134,-0.061,0.305,290.982
125377,155994,11230,-0.052,0.998,0.271,-1.159,-0.244,0.488,290.988
125365,156090,11330,-0.052,1.002,0.272,-1.159,-0.244,0.488,290.992
125365,155990,11224,-0.053,1.009,0.27,-0.244,0.244,0.366,290.998
125351,156090,11330,-0.057,1.01,0.279,-0.244,0.244,0.366,291.002
125351,155971,11228,-0.057,1.007,0.281,-0.122,-0.244,0.305,291.008
125364,156090,11330,-0.053,1.004,0.284,-0.122,-0.244,0.305,291.012
125364,155984,11235,-0.049,1.006,0.289,-0.305,-0.793,0.427,291.018
125366,156090,11330,-0.048,1.012,0.29,-0.305,-0.793,0.427,291.022
125366,155982,11216,-0.048,1.016,0.287,0.305,-0.488,0.427,291.028
125385,156090,11330,-0.049,1.017,0.289,0.305,-0.488,0.427,291.032
125385,156004,11246,-0.049,1.018,0.298,0.549,0,0.061,291.038
125385,156090,11330,-0.05,1.02,0.293,0.549,0,0.061,291.041
125385,156000,11223,-0.05,1.016,0.287,0,0.366,-0.244,291.048
125408,156090,11330,-0.047,1.011,0.286,0,0.366,-0.244,291.051
125408,156031,11212,-0.05,1.01,0.283,-1.037,0.671,-0.488,291.057
125415,156090,11330,-0.051,1.005,0.273,-1.037,0.671,-0.488,291.061
125415,156043,11221,-0.052,1.001,0.274,-1.707,0.549,-0.183,291.067
125453,156090,11330,-0.053,0.995,0.278,-1.707,0.549,-0.183,291.071
125453,156052,11231,-0.048,0.993,0.279,-1.524,0.549,0.244,291.077
125420,156090,11330,-0.045,0.995,0.282,-1.524,0.549,0.244,291.081
125420,156057,11233,-0.046,0.998,0.285,-0.427,0.915,0.427,291.087
125442,156090,11330,-0.05,1.008,0.286,-0.427,0.915,0.427,291.091
125442,156060,11221,-0.05,1.019,0.278,0.549,1.524,0.549,291.097
125454,156090,11330,-0.049,1.019,0.279,0.549,1.524,0.549,291.101
125454,156052,11235,-0.05,1.021,0.28,0.122,1.463,0.671,291.107
125433,156090,11330,-0.051,1.016,0.282,0.122,1.463,0.671,291.111
125433,156055,11231,-0.051,1.011,0.282,-1.098,1.22,0.671,291.117
125436,156090,11330,-0.053,1.001,0.282,-1.098,1.22,0.671,291.121
125436,156057,11219,-0.054,0.993,0.281,-1.402,0.854,0.488,291.127
125431,156090,11330,-0.055,0.999,0.281,-1.402,0.854,0.488,291.13
125431,156046,11235,-0.054,1.016,0.28,-0.854,0.854,0.427,291.137
125439,156090,11330,-0.051,1.018,0.283,-0.854,0.854,0.427,291.14
125439,156046,11247,-0.05,1.014,0.286,0.244,0.854,-0.122,291.147
125437,156090,11330,-0.056,1.015,0.286,0.244,0.854,-0.122,291.15
125437,156051,11227,-0.061,1.023,0.284,0.732,1.22,-0.366,291.156
125394,156090,11330,-0.063,1.026,0.281,0.732,1.22,-0.366,291.16
125394,155996,11218,-0.059,1.017,0.28,0.244,1.098,-0.671,291.166
125344,156090,11330,-0.062,1.008,0.273,0.244,1.098,-0.671,291.17
125344,155968,11219,-0.062,1.006,0.274,0,0.549,-1.22,291.176
125286,156090,11330,-0.062,1.002,0.272,0,0.549,-1.22,291.18
125286,155909,11218,-0.063,1,0.274,-0.732,0.305,-1.28,291.186
125168,155834,11330,-0.063,0.999,0.278,-0.732,0.305,-1.28,291.19
125168,155816,11193,-0.059,0.998,0.273,-0.671,0.122,-1.037,291.196
125028,155834,11330,-0.057,0.999,0.269,-0.671,0.122,-1.037,291.2
125028,155711,11176,-0.061,0.997,0.263,-0.305,0.061,-0.854,291.206
124935,155578,11330,-0.063,1,0.267,-0.305,0.061,-0.854,291.21
124935,155602,11159,-0.061,1.005,0.272,-0.122,0,-0.488,291.216
124867,155578,11330,-0.06,1.009,0.267,-0.122,0,-0.488,291.22
124867,155554,11156,-0.053,1.006,0.273,-0.732,-0.61,-0.183,291.226
124810,155578,11330,-0.054,1.001,0.275,-0.732,-0.61,-0.183,291.23
124810,155520,11152,-0.055,1.004,0.276,-0.976,-0.976,0.061,291.236
124797,155578,11330,-0.053,1.001,0.28,-0.976,-0.976,0.061,291.239
124797,155486,11134,-0.052,0.995,0.291,-0.671,-1.098,0.488,291.246
124738,155578,11330,-0.048,0.997,0.297,-0.671,-1.098,0.488,291.249
124738,155497,11141,-0.045,1.001,0.297,0.366,-0.976,0.549,291.255
124713,155578,11330,-0.047,1.007,0.29,0.366,-0.976,0.549,291.259
124713,155464,11121,-0.047,1.017,0.289,0.732,-0.244,0.549,291.265
124722,155578,11330,-0.047,1.022,0.287,0.732,-0.244,0.549,291.269
124722,155439,11136,-0.048,1.019,0.286,0,0.061,0.366,291.275
124720,155578,11330,-0.048,1.011,0.29,0,0.061,0.366,291.279
124720,155473,11134,-0.048,1.005,0.281,-1.037,-0.061,0.549,291.285
124732,155578,11330,-0.05,0.997,0.285,-1.037,-0.061,0.549,291.289
124732,155480,11134,-0.05,0.993,0.283,-1.402,0,0.732,291.295
124758,155578,11330,-0.049,0.994,0.281,-1.402,0,0.732,291.299
124758,155480,11142,-0.048,1.001,0.282,-0.732,0.305,0.61,291.305
124766,155578,11330,-0.052,1.009,0.283,-0.732,0.305,0.61,291.309
124766,155517,11135,-0.051,1.013,0.283,0.122,0.732,0.61,291.315
124771,155578,11330,-0.055,1.015,0.287,0.122,0.732,0.61,291.319
124771,155519,11149,-0.054,1.011,0.29,-0.061,0.732,0.61,291.325
124768,155578,11330,-0.056,1.007,0.29,-0.061,0.732,0.61,291.329
124768,155512,11133,-0.056,1.002,0.285,-0.793,0.549,0.671,291.335
124788,155578,11330,-0.056,1,0.284,-0.793,0.549,0.671,291.338
124788,155532,11135,-0.056,0.999,0.277,-0.976,0.427,0.732,291.345
124760,155578,11330,-0.053,1.002,0.281,-0.976,0.427,0.732,291.348
124760,155521,11134,-0.053,1.002,0.285,-0.305,0.671,0.854,291.354
124755,155578,11330,-0.055,1.01,0.285,-0.305,0.671,0.854,291.358
124755,155521,11154,-0.059,1.009,0.289,0.061,1.037,0.976,291.364
124784,155578,11330,-0.056,1.009,0.287,0.061,1.037,0.976,291.368
124784,155528,11146,-0.055,1.009,0.284,0.061,1.22,1.098,291.374
124795,155578,11330,-0.055,1.009,0.284,0.061,1.22,1.098,291.378
124795,155534,11149,-0.054,1.011,0.281,0.488,1.28,0.915,291.384
124795,155578,11330,-0.054,1.011,0.281,0.488,1.28,0.915,291.388
124795,155544,11140,-0.057,1.009,0.283,0.671,1.402,0.793,291.394
124795,155578,11330,-0.057,1.009,0.283,0.671,1.402,0.793,291.398
124795,155538,11151,-0.057,1.01,0.276,0.122,1.524,0.732,291.404
124801,155578,11330,-0.057,1.01,0.276,0.122,1.524,0.732,291.408
124801,155560,11143,-0.052,1.008,0.275,0,1.159,0.671,291.414
124809,155578,11330,-0.052,1.008,0.275,0,1.159,0.671,291.418
124809,155556,11148,-0.053,1.012,0.277,0.61,1.037,0.671,291.424
124833,155578,11330,-0.053,1.012,0.277,0.61,1.037,0.671,291.427
124833,155575,11149,-0.054,1.013,0.269,0.61,1.402,0.61,291.434
124823,155578,11330,-0.054,1.013,0.269,0.61,1.402,0.61,291.437
124823,155585,11147,-0.054,1.012,0.27,0.183,1.159,0.427,291.444
124839,155578,11330,-0.054,1.012,0.27,0.183,1.159,0.427,291.447
124839,155562,11155,-0.053,1.008,0.272,-0.366,0.427,0.305,291.453
124835,155578,11330,-0.053,1.008,0.272,-0.366,0.427,0.305,291.457
124835,155564,11144,-0.05,1.01,0.268,-0.122,0,0.183,291.463
124810,155578,11330,-0.05,1.01,0.268,-0.122,0,0.183,291.467
124810,155542,11136,-0.056,1.01,0.277,0.366,-0.061,0.122,291.473
124789,155578,11330,-0.056,1.01,0.277,0.366,-0.061,0.122,291.477
124789,155546,11145,-0.056,1.012,0.28,0.732,0.061,0,291.483
124786,155578,11330,-0.056,1.012,0.28,0.732,0.061,0,291.487
124786,155543,11134,-0.057,1.006,0.278,0.549,-0.183,0.122,291.493
124804,155578,11330,-0.057,1.006,0.278,0.549,-0.183,0.122,291.497
124804,155550,11142,-0.056,1.009,0.278,0,-0.244,0,291.503
124801,155578,11330,-0.056,1.009,0.278,0,-0.244,0,291.507
124801,155563,11155,-0.057,1.005,0.28,-0.122,-0.366,0.061,291.513
124814,155578,11330,-0.057,1.005,0.28,-0.122,-0.366,0.061,291.517
124814,155557,11146,-0.058,1.003,0.282,-0.122,-0.366,0.061,291.523
124847,155578,11330,-0.056,1.007,0.284,0,-0.244,0.183,291.526
124847,155574,11161,-0.055,1.004,0.29,0,-0.244,0.183,291.533
124842,155578,11330,-0.054,1.004,0.288,0.244,-0.122,0.366,291.536
124842,155590,11145,-0.054,1.006,0.289,0.244,-0.122,0.366,291.543
124880,155578,11330,-0.052,1.007,0.284,0.549,0,0.427,291.546
124880,155618,11153,-0.049,1.009,0.28,0.549,0,0.427,291.552
124848,155578,11330,-0.048,1.013,0.278,0.732,0.427,0.244,291.556
124848,155637,11159,-0.051,1.013,0.277,0.732,0.427,0.244,291.562
124915,155578,11330,-0.052,1.013,0.276,0.244,0.366,0.244,291.566
124915,155618,11150,-0.054,1.014,0.274,0.244,0.366,0.244,291.572
124900,155578,11330,-0.053,1.011,0.274,-0.244,0,0.305,291.576
124900,155630,11162,-0.051,1.008,0.274,-0.244,0,0.305,291.582
124883,155578,11330,-0.051,1.003,0.275,-0.305,-0.061,0.122,291.586
124883,155640,11147,-0.05,0.999,0.279,-0.305,-0.061,0.122,291.592
124902,155578,11330,-0.048,1.003,0.277,0.549,0.183,0.183,291.596
124902,155619,11160,-0.054,1.006,0.279,0.549,0.183,0.183,291.602
124880,155834,11330,-0.053,1.013,0.281,0.854,0.549,0.183,291.606
124880,155649,11157,-0.055,1.016,0.282,0.854,0.549,0.183,291.612
124888,155578,11330,-0.054,1.013,0.285,0.976,0.671,0,291.616
124888,155637,11153,-0.053,1.012,0.285,0.976,0.671,0,291.622
124920,155578,11330,-0.055,1.006,0.291,0.915,0.61,0.061,291.625
124920,155644,11157,-0.057,1.007,0.289,0.915,0.61,0.061,291.632
124928,155834,11330,-0.057,1.012,0.279,0.244,0.915,-0.061,291.635
124928,155656,11157,-0.056,1.013,0.278,0.244,0.915,-0.061,291.642
124946,155834,11330,-0.057,1.01,0.275,-0.549,1.037,-0.122,291.645
124946,155666,11166,-0.059,1.004,0.277,-0.549,1.037,-0.122,291.651
124958,155834,11330,-0.055,1,0.279,-0.244,0.854,0,291.655
124958,155687,11176,-0.056,1.001,0.275,-0.244,0.854,0,291.661
124997,155834,11330,-0.054,1.002,0.267,0.061,0.854,0,291.665
124997,155704,11161,-0.057,1.004,0.269,0.061,0.854,0,291.671
125004,155834,11330,-0.055,1.011,0.273,-0.305,1.037,0,291.675
125004,155721,11170,-0.057,1.012,0.277,-0.305,1.037,0,291.681
124982,155834,11330,-0.055,1.004,0.275,-0.61,0.427,0.183,291.685
124982,155716,11175,-0.058,1.001,0.272,-0.61,0.427,0.183,291.691
125013,155834,11330,-0.059,1.002,0.28,-0.549,-0.061,0.244,291.695
125013,155772,11181,-0.056,1.003,0.284,-0.549,-0.061,0.244,291.701
125028,155834,11330,-0.054,1.008,0.284,-0.122,0.061,0.366,291.705
125028,155745,11170,-0.054,1.008,0.289,-0.122,0.061,0.366,291.711
125036,155834,11330,-0.054,1.013,0.283,1.28,0.671,0.427,291.715
125036,155765,11187,-0.059,1.019,0.274,1.28,0.671,0.427,291.721
125031,155834,11330,-0.058,1.018,0.276,0.976,0.976,0.244,291.724
125031,155777,11169,-0.059,1.015,0.275,0.976,0.976,0.244,291.731
125063,155834,11330,-0.056,1.011,0.272,-0.122,0.488,0.183,291.734
125063,155758,11190,-0.055,1.005,0.269,-0.122,0.488,0.183,291.741
125070,155834,11330,-0.056,1.004,0.273,-1.098,-0.122,0.305,291.744
125070,155745,11169,-0.053,1.002,0.269,-1.098,-0.122,0.305,291.75
125062,155834,11330,-0.052,1.002,0.269,-0.549,0.061,0.366,291.754
125062,155765,11181,-0.05,1.005,0.27,-0.549,0.061,0.366,291.76
125080,155834,11330,-0.055,1.011,0.274,0.549,0.305,0.244,291.764
125080,155795,11178,-0.053,1.016,0.272,0.549,0.305,0.244,291.77
125106,155834,11330,-0.053,1.015,0.275,0.427,0.244,0.427,291.774
125106,155784,11167,-0.052,1.017,0.274,0.427,0.244,0.427,291.78
125110,155834,11330,-0.053,1.013,0.277,0.122,0,0.366,291.784
125110,155796,11201,-0.052,1.01,0.279,0.122,0,0.366,291.79
125115,155834,11330,-0.053,1.005,0.279,-0.366,-0.244,0.244,291.794
125115,155823,11196,-0.054,1.003,0.279,-0.366,-0.244,0.244,291.8
125137,155834,11330,-0.055,1.007,0.284,-0.61,-0.183,0.305,291.804
125137,155834,11176,-0.056,1.006,0.284,-0.61,-0.183,0.305,291.81
125149,155834,11330,-0.055,1.005,0.287,-0.366,-0.122,0.244,291.814
125149,155823,11191,-0.054,1.004,0.286,-0.366,-0.122,0.244,291.82
125184,155834,11330,-0.054,1.008,0.286,0.427,0,0.305,291.823
125184,155859,11200,-0.056,1.016,0.287,0.427,0,0.305,291.83
125218,155834,11330,-0.054,1.018,0.285,-0.183,0.061,0.183,291.833
125218,155880,11187,-0.055,1.014,0.281,-0.183,0.061,0.183,291.84
125248,156090,11330,-0.053,1.008,0.278,-1.159,0.122,0.061,291.843
125248,155915,11217,-0.054,1.001,0.276,-1.159,0.122,0.061,291.849
125261,156090,11330,-0.051,0.999,0.274,-1.463,-0.061,0.366,291.853
125261,155938,11211,-0.05,0.999,0.276,-1.463,-0.061,0.366,291.859
125301,156090,11330,-0.052,1,0.281,-0.793,-0.122,0.549,291.863
125301,155971,11205,-0.052,1.003,0.28,-0.793,-0.122,0.549,291.869
125326,156090,11330,-0.053,1.007,0.279,0.061,0.183,0.549,291.873
125326,155976,11218,-0.054,1.016,0.281,0.061,0.183,0.549,291.879
125348,156090,11330,-0.053,1.019,0.279,0,0.366,0.366,291.883
125348,156022,11223,-0.053,1.011,0.28,0,0.366,0.366,291.889
125376,156090,11330,-0.053,1.011,0.283,0.122,0.061,0.427,291.893
125376,156027,11219,-0.056,1.013,0.282,0.122,0.061,0.427,291.899
125403,156090,11330,-0.056,1.01,0.282,0.122,0.122,0.549,291.903
125403,156042,11225,-0.056,1.011,0.28,0.122,0.122,0.549,291.909
125404,156090,11330,-0.057,1.014,0.275,-0.061,0.366,0.549,291.913
125404,156070,11232,-0.06,1.019,0.273,-0.061,0.366,0.549,291.919
125466,156090,11330,-0.057,1.018,0.273,0,0.427,0.427,291.922
125466,156079,11235,-0.059,1.016,0.271,0,0.427,0.427,291.929
125469,156090,11330,-0.058,1.017,0.272,-0.122,0.244,0.244,291.932
125469,156112,11251,-0.057,1.013,0.274,-0.122,0.244,0.244,291.939
125505,156090,11330,-0.061,1.01,0.276,-0.122,0.305,0.122,291.942
125505,156133,11230,-0.059,1.008,0.278,-0.122,0.305,0.122,291.948
125527,156090,11330,-0.058,1.007,0.28,-0.549,0.427,0.122,291.952
125527,156139,11245,-0.062,1.004,0.279,-0.549,0.427,0.122,291.958
125527,156090,11330,-0.062,1.004,0.279,-0.549,0.427,0.122,291.962
125527,156127,11240,-0.055,1.003,0.268,-1.037,0.305,0.061,291.968
125520,156346,11330,-0.055,1.003,0.268,-1.037,0.305,0.061,291.972
125520,156161,11240,-0.055,1.003,0.271,-0.793,0.183,0,291.978
125566,156346,11330,-0.055,1.003,0.271,-0.793,0.183,0,291.982
125566,156160,11241,-0.055,1.006,0.277,-0.427,-0.122,-0.061,291.988
125592,156346,11330,-0.055,1.006,0.277,-0.427,-0.122,-0.061,291.992
125592,156175,11245,-0.05,1.002,0.284,-0.122,-0.427,-0.061,291.998
125622,156346,11330,-0.05,1.002,0.284,-0.122,-0.427,-0.061,292.002
125622,156228,11261,-0.054,1.006,0.289,0.122,-0.305,0.061,292.008
125631,156346,11330,-0.054,1.006,0.289,0.122,-0.305,0.061,292.012
125631,156218,11261,-0.053,1.006,0.275,-0.061,0.061,0.122,292.018
125647,156346,11330,-0.053,1.006,0.275,-0.061,0.061,0.122,292.021
125647,156242,11265,-0.055,0.994,0.282,-0.244,0.305,0.366,292.028
125682,156346,11330,-0.055,0.994,0.282,-0.244,0.305,0.366,292.031
125682,156232,11266,-0.058,1.002,0.276,-0.122,0.305,0.61,292.037
125656,156346,11330,-0.058,1.002,0.276,-0.122,0.305,0.61,292.041
125656,156259,11269,-0.057,1.005,0.278,-0.061,0.366,0.793,292.047
125700,156346,11330,-0.057,1.005,0.278,-0.061,0.366,0.793,292.051
125700,156259,11276,-0.052,1.013,0.287,0.427,0.366,0.976,292.057
125680,156346,11330,-0.052,1.013,0.287,0.427,0.366,0.976,292.061
125680,156265,11266,-0.047,1.022,0.281,0.732,0.305,1.28,292.067
125673,156346,11330,-0.047,1.022,0.281,0.732,0.305,1.28,292.071
125673,156271,11253,-0.047,1.026,0.274,0,0.671,1.22,292.077
125699,156346,11330,-0.047,1.026,0.274,0,0.671,1.22,292.081
125699,156270,11270,-0.045,1.021,0.271,-1.22,0.854,1.037,292.087
125697,156346,11330,-0.045,1.021,0.271,-1.22,0.854,1.037,292.091
125697,156291,11275,-0.045,1.011,0.262,-1.707,0.549,0.793,292.097
125713,156346,11330,-0.045,1.011,0.262,-1.707,0.549,0.793,292.101
125713,156284,11279,-0.046,1.011,0.258,-1.402,0.427,0.366,292.107
125722,156346,11330,-0.052,1.015,0.263,-1.402,0.427,0.366,292.111
125722,156288,11276,-0.054,1.006,0.268,-0.427,0.244,0.061,292.117
125721,156346,11330,-0.056,1,0.277,-0.427,0.244,0.061,292.12
125721,156294,11260,-0.058,1.004,0.28,1.28,-0.061,-0.122,292.127
125736,156346,11330,-0.059,1.016,0.28,1.28,-0.061,-0.122,292.13
125736,156319,11271,-0.062,1.023,0.278,2.134,0.244,-0.305,292.136
125724,156346,11330,-0.062,1.02,0.279,2.134,0.244,-0.305,292.14
125724,156317,11281,-0.059,1.016,0.278,2.134,0.366,-0.854,292.146
125741,156346,11330,-0.062,1.011,0.28,2.134,0.366,-0.854,292.15
125741,156309,11280,-0.065,1.01,0.277,0.366,-0.122,-0.976,292.156
125760,156346,11330,-0.064,1.002,0.274,0.366,-0.122,-0.976,292.16
125760,156303,11281,-0.067,0.994,0.274,-1.22,-0.488,-0.976,292.166
125748,156346,11330,-0.067,0.989,0.269,-1.22,-0.488,-0.976,292.17
125748,156307,11283,-0.067,0.988,0.266,-1.28,-0.671,-0.671,292.176
125740,156346,11330,-0.064,0.991,0.267,-1.28,-0.671,-0.671,292.18
125740,156303,11280,-0.062,0.998,0.268,-0.671,-0.915,-0.061,292.186
125708,156346,11330,-0.058,1.003,0.267,-0.671,-0.915,-0.061,292.19
125708,156271,11275,-0.054,1.006,0.267,0,-0.854,0.122,292.196
125673,156346,11330,-0.057,1.013,0.266,0,-0.854,0.122,292.2
125673,156244,11267,-0.058,1.014,0.269,-0.061,-1.037,0.488,292.206
125641,156346,11330,-0.054,1.012,0.273,-0.061,-1.037,0.488,292.209
125641,156202,11261,-0.049,1.007,0.278,-0.488,-1.463,0.549,292.216
125633,156346,11330,-0.047,1.004,0.282,-0.488,-1.463,0.549,292.219
125633,156183,11263,-0.05,1.006,0.285,-0.671,-1.524,0.732,292.226
125619,156346,11330,-0.049,1.01,0.284,-0.671,-1.524,0.732,292.229
125619,156178,11258,-0.047,1.015,0.286,-0.488,-0.915,0.793,292.235
125594,156346,11330,-0.049,1.019,0.288,-0.488,-0.915,0.793,292.239
125594,156178,11251,-0.049,1.019,0.297,-0.488,-0.488,0.488,292.245
125603,156346,11330,-0.047,1.016,0.296,-0.488,-0.488,0.488,292.249
125603,156173,11253,-0.049,1.014,0.296,-0.61,-0.305,0.305,292.255
125620,156346,11330,-0.047,1.008,0.295,-0.61,-0.305,0.305,292.259
125620,156170,11256,-0.047,1.007,0.291,-0.671,0.244,0.244,292.265
125590,156346,11330,-0.05,1.008,0.285,-0.671,0.244,0.244,292.269
125590,156163,11253,-0.047,1.008,0.284,-0.793,0.671,-0.061,292.275
125619,156346,11330,-0.047,1.007,0.284,-0.793,0.671,-0.061,292.279
125619,156174,11271,-0.05,0.999,0.281,-0.915,0.488,-0.122,292.285
125589,156090,11330,-0.047,0.994,0.28,-0.915,0.488,-0.122,292.289
125589,156159,11264,-0.049,0.996,0.276,-0.732,0.488,0.183,292.295
125627,156346,11330,-0.054,0.998,0.277,-0.732,0.488,0.183,292.299
125627,156193,11262,-0.053,0.994,0.278,-0.427,0.915,0.366,292.305
125639,156346,11330,-0.052,0.995,0.278,-0.427,0.915,0.366,292.308
125639,156205,11261,-0.051,1.002,0.281,0.183,0.854,0.366,292.315
125653,156346,11330,-0.052,1.006,0.281,0.183,0.854,0.366,292.318
125653,156233,11278,-0.052,1.003,0.283,0.61,0.732,0.671,292.325
125665,156346,11330,-0.053,1.008,0.288,0.61,0.732,0.671,292.328
125665,156218,11271,-0.053,1.015,0.288,0.671,1.098,0.732,292.334
125635,156346,11330,-0.054,1.014,0.289,0.671,1.098,0.732,292.338
125635,156206,11268,-0.053,1.005,0.294,0.549,1.524,0.671,292.344
125683,156346,11330,-0.052,1.006,0.292,0.549,1.524,0.671,292.348
125683,156228,11268,-0.056,1.011,0.28,0.122,2.012,0.732,292.354
125692,156346,11330,-0.059,1.014,0.275,0.122,2.012,0.732,292.358
125692,156252,11279,-0.06,1.012,0.272,-0.976,2.073,0.793,292.364
125703,156346,11330,-0.056,1.007,0.271,-0.976,2.073,0.793,292.368
125703,156262,11280,-0.052,1.004,0.271,-1.098,1.524,0.549,292.374
125710,156346,11330,-0.052,1.003,0.27,-1.098,1.524,0.549,292.378
125710,156297,11258,-0.05,1.008,0.268,-0.549,1.402,0.732,292.384
125726,156346,11330,-0.052,1.012,0.276,-0.549,1.402,0.732,292.388
125726,156278,11279,-0.051,1.014,0.276,0,1.463,0.732,292.394
125751,156346,11330,-0.051,1.014,0.276,0,1.463,0.732,292.398
125751,156269,11271,-0.053,1.013,0.27,-0.061,1.463,0.61,292.404
125736,156346,11330,-0.056,1.014,0.269,-0.061,1.463,0.61,292.407
125736,156281,11271,-0.056,1.018,0.275,-0.671,1.341,0.427,292.414
125735,156346,11330,-0.055,1.011,0.267,-0.671,1.341,0.427,292.417
125735,156292,11277,-0.055,1.005,0.264,-0.732,1.037,0.366,292.424
125728,156346,11330,-0.056,1.002,0.267,-0.732,1.037,0.366,292.427
125728,156296,11259,-0.058,1.004,0.269,-0.427,0.854,0.305,292.433
125728,156346,11330,-0.06,1.003,0.275,-0.427,0.854,0.305,292.437
125728,156304,11275,-0.063,1.005,0.276,-0.122,0.854,0.305,292.443
125781,156346,11330,-0.064,1.005,0.276,-0.122,0.854,0.305,292.447
125781,156315,11293,-0.057,1.006,0.278,0.427,0.61,0.305,292.453
125769,156346,11330,-0.056,1.01,0.275,0.427,0.61,0.305,292.457
125769,156323,11274,-0.058,1.02,0.274,0.488,0.61,0.244,292.463
125779,156346,11330,-0.057,1.022,0.273,0.488,0.61,0.244,292.467
125779,156331,11265,-0.054,1.021,0.273,-0.244,0.366,0.061,292.473
125796,156346,11330,-0.055,1.015,0.272,-0.244,0.366,0.061,292.477
125796,156339,11295,-0.055,1.007,0.273,-1.159,-0.061,-0.244,292.483
125793,156346,11330,-0.055,1.008,0.271,-1.159,-0.061,-0.244,292.487
125793,156338,11280,-0.05,1.007,0.268,-2.012,-0.427,-0.183,292.493
125797,156346,11330,-0.053,1.008,0.268,-2.012,-0.427,-0.183,292.497
125797,156328,11267,-0.053,1.01,0.266,-1.707,-0.732,-0.244,292.503
125789,156346,11330,-0.051,1.011,0.27,-1.707,-0.732,-0.244,292.506
125789,156326,11286,-0.049,1.013,0.275,-0.305,-0.671,-0.427,292.513
125800,156346,11330,-0.05,1.014,0.277,-0.305,-0.671,-0.427,292.516
125800,156344,11266,-0.052,1.013,0.276,0.488,-0.61,-0.549,292.523
125792,156346,11330,-0.054,1.016,0.274,0.488,-0.61,-0.549,292.526
125792,156333,11280,-0.056,1.019,0.275,0.244,-0.732,-0.61,292.532
125800,156346,11330,-0.056,1.019,0.275,0.244,-0.732,-0.61,292.536
125800,156351,11278,-0.053,1.014,0.277,0,-1.22,-0.854,292.542
125817,156346,11330,-0.053,1.014,0.277,0,-1.22,-0.854,292.546
125817,156362,11285,-0.058,1.015,0.28,0.427,-1.159,-1.098,292.552
125809,156346,11330,-0.058,1.015,0.28,0.427,-1.159,-1.098,292.556
125809,156370,11295,-0.062,1.015,0.274,0.854,-0.976,-1.341,292.562
125838,156346,11330,-0.062,1.015,0.274,0.854,-0.976,-1.341,292.566
125838,156366,11280,-0.063,1.019,0.281,0.854,-0.915,-1.585,292.572
125872,156346,11330,-0.063,1.019,0.281,0.854,-0.915,-1.585,292.576
125872,156384,11291,-0.058,1.015,0.276,-0.061,-1.402,-1.524,292.582
125872,156346,11330,-0.058,1.015,0.276,-0.061,-1.402,-1.524,292.586
125872,156400,11291,-0.062,1.009,0.275,-1.341,-1.89,-1.463,292.592
125868,156602,11330,-0.062,1.009,0.275,-1.341,-1.89,-1.463,292.596
125868,156432,11303,-0.059,1,0.286,-1.159,-1.768,-1.402,292.602
125897,156346,11330,-0.059,1,0.286,-1.159,-1.768,-1.402,292.605
125897,156402,11297,-0.054,0.998,0.284,-0.305,-1.098,-1.22,292.612
125870,156602,11330,-0.054,0.998,0.284,-0.305,-1.098,-1.22,292.615
125870,156416,11300,-0.056,1.009,0.286,-0.366,-0.183,-1.098,292.622
125869,156346,11330,-0.056,1.009,0.286,-0.366,-0.183,-1.098,292.625
125869,156393,11302,-0.056,1.001,0.283,-1.098,0.183,-0.976,292.631
125893,156602,11330,-0.056,1.001,0.283,-1.098,0.183,-0.976,292.635
125893,156417,11297,-0.053,0.999,0.284,-2.012,-0.061,-0.549,292.641
125909,156346,11330,-0.053,0.999,0.284,-2.012,-0.061,-0.549,292.645
125909,156411,11300,-0.047,0.995,0.285,-1.89,0.122,-0.183,292.651
125906,156602,11330,-0.047,0.995,0.285,-1.89,0.122,-0.183,292.655
125906,156426,11292,-0.051,0.998,0.284,-0.854,0.854,-0.122,292.661
125891,156602,11330,-0.051,0.998,0.284,-0.854,0.854,-0.122,292.665
125891,156424,11294,-0.055,0.997,0.281,-0.915,1.22,0.122,292.671
125884,156602,11330,-0.055,0.997,0.281,-0.915,1.22,0.122,292.675
125884,156436,11287,-0.055,0.999,0.286,-0.915,1.22,0.122,292.681
125927,156602,11330,-0.057,1.001,0.286,-1.463,0.915,0.244,292.685
125927,156434,11293,-0.054,1.003,0.288,-1.463,0.915,0.244,292.691
125920,156602,11330,-0.052,0.998,0.292,-1.22,0.61,0.549,292.695
125920,156437,11292,-0.052,0.999,0.288,-1.22,0.61,0.549,292.701
125938,156602,11330,-0.054,1.008,0.28,-0.793,1.037,0.732,292.704
125938,156457,11318,-0.058,1.015,0.267,-0.793,1.037,0.732,292.711
125946,156602,11330,-0.061,1.014,0.266,-1.098,1.585,0.61,292.714
125946,156431,11297,-0.062,1.018,0.273,-1.098,1.585,0.61,292.72
125959,156602,11330,-0.059,1.018,0.273,-2.012,0.915,0.671,292.724
125959,156449,11307,-0.055,1.01,0.275,-2.012,0.915,0.671,292.73
125961,156602,11330,-0.057,1.002,0.276,-2.622,0.183,0.854,292.734
125961,156459,11303,-0.057,1.004,0.272,-2.622,0.183,0.854,292.74
125948,156602,11330,-0.054,1.011,0.269,-2.012,0.671,0.793,292.744
125948,156474,11301,-0.059,1.013,0.273,-2.012,0.671,0.793,292.75
125973,156602,11330,-0.061,1.02,0.274,-0.671,1.22,0.549,292.754
125973,156468,11304,-0.06,1.02,0.283,-0.671,1.22,0.549,292.76
125972,156602,11330,-0.06,1.019,0.287,0.366,1.159,0.366,292.764
125972,156458,11304,-0.061,1.021,0.282,0.366,1.159,0.366,292.77
125984,156602,11330,-0.06,1.018,0.277,0.061,1.341,0.244,292.774
125984,156464,11311,-0.065,1.02,0.274,0.061,1.341,0.244,292.78
125971,156602,11330,-0.059,1.013,0.283,-0.61,1.28,-0.122,292.784
125971,156495,11310,-0.06,1.01,0.289,-0.61,1.28,-0.122,292.79
125980,156602,11330,-0.059,1.002,0.286,-0.366,0.854,-0.305,292.794
125980,156466,11302,-0.059,1,0.282,-0.366,0.854,-0.305,292.8
125971,156602,11330,-0.061,0.997,0.278,0.244,1.098,-0.366,292.803
125971,156474,11310,-0.061,1.004,0.277,0.244,1.098,-0.366,292.81
125984,156602,11330,-0.064,1.011,0.276,0.183,1.463,-0.427,292.813
125984,156492,11313,-0.061,1.009,0.282,0.183,1.463,-0.427,292.819
125994,156602,11330,-0.057,0.999,0.284,-0.061,0.793,-0.549,292.823
125994,156480,11307,-0.06,0.996,0.283,-0.061,0.793,-0.549,292.829
126008,156602,11330,-0.061,1,0.276,-0.793,0.488,-0.305,292.833
126008,156517,11313,-0.058,0.999,0.27,-0.793,0.488,-0.305,292.839
125998,156602,11330,-0.057,0.998,0.277,-0.854,0.549,-0.183,292.843
125998,156517,11307,-0.057,0.999,0.277,-0.854,0.549,-0.183,292.849
125966,156602,11330,-0.056,1.001,0.278,-0.366,0.183,-0.122,292.853
125966,156482,11302,-0.055,0.999,0.278,-0.366,0.183,-0.122,292.859
125887,156346,11330,-0.057,1.003,0.278,-0.183,-0.061,0.061,292.863
125887,156408,11297,-0.058,1.014,0.279,-0.183,-0.061,0.061,292.869
125844,156346,11330,-0.059,1.016,0.279,-0.427,0.183,0.244,292.873
125844,156344,11301,-0.058,1.009,0.286,-0.427,0.183,0.244,292.879
125782,156346,11330,-0.056,1.008,0.289,-0.244,-0.061,0.244,292.883
125782,156295,11289,-0.057,1.012,0.283,-0.244,-0.061,0.244,292.889
125749,156346,11330,-0.059,1.014,0.282,-0.244,0.183,0.366,292.892
125749,156275,11281,-0.061,1.013,0.279,-0.244,0.183,0.366,292.899
125718,156346,11330,-0.062,1.011,0.28,-0.305,0.549,0.183,292.902
125718,156269,11272,-0.06,1.01,0.279,-0.305,0.549,0.183,292.909
125695,156346,11330,-0.059,1.006,0.279,-0.488,0.427,0.061,292.912
125695,156280,11254,-0.062,1.007,0.278,-0.488,0.427,0.061,292.918
125690,156346,11330,-0.061,1.009,0.28,-0.244,0.427,0.122,292.922
125690,156266,11264,-0.059,1.008,0.283,-0.244,0.427,0.122,292.928
125697,156346,11330,-0.057,1.008,0.285,0.305,0.732,0.427,292.932
125697,156253,11272,-0.058,1.008,0.277,0.305,0.732,0.427,292.938
125707,156346,11330,-0.057,1.012,0.274,-0.061,1.037,0.244,292.942
125707,156259,11273,-0.058,1.006,0.271,-0.061,1.037,0.244,292.948
125705,156346,11330,-0.06,1,0.272,-0.61,0.793,0.366,292.952
125705,156282,11269,-0.057,0.998,0.271,-0.61,0.793,0.366,292.958
125714,156346,11330,-0.057,0.997,0.273,-0.854,0.366,0.793,292.962
125714,156275,11274,-0.056,1,0.274,-0.854,0.366,0.793,292.968
125722,156346,11330,-0.054,1.002,0.287,0,0.122,0.671,292.972
125722,156269,11268,-0.051,1.004,0.293,0,0.122,0.671,292.978
125729,156346,11330,-0.056,1.013,0.296,1.159,0.427,0.732,292.982
125729,156297,11266,-0.057,1.022,0.29,1.159,0.427,0.732,292.988
125771,156346,11330,-0.057,1.025,0.284,0.732,0.915,0.549,292.991
125771,156324,11276,-0.058,1.023,0.282,0.732,0.915,0.549,292.998
125764,156346,11330,-0.058,1.017,0.283,-0.366,0.732,0.183,293.001
125764,156313,11274,-0.06,1.01,0.281,-0.366,0.732,0.183,293.008
125774,156346,11330,-0.06,0.998,0.28,-1.28,0.427,0.183,293.011
125774,156322,11274,-0.062,0.989,0.276,-1.28,0.427,0.183,293.017
125785,156346,11330,-0.06,0.991,0.278,-0.732,0.305,0.305,293.021
125785,156331,11269,-0.06,1.002,0.282,-0.732,0.305,0.305,293.027
125803,156346,11330,-0.062,1.01,0.284,0.671,0.671,0.305,293.031
125803,156325,11284,-0.061,1.013,0.285,0.671,0.671,0.305,293.037
125776,156346,11330,-0.06,1.012,0.278,1.585,1.22,0.305,293.041
125776,156328,11274,-0.065,1.011,0.271,1.585,1.22,0.305,293.047
125795,156346,11330,-0.065,1.015,0.269,0.671,1.463,0.549,293.051
125795,156335,11280,-0.066,1.014,0.274,0.671,1.463,0.549,293.057
125805,156346,11330,-0.063,1.006,0.277,-0.976,0.671,0.732,293.061
125805,156336,11292,-0.057,0.999,0.281,-0.976,0.671,0.732,293.067
125779,156346,11330,-0.057,0.994,0.28,-0.915,0.061,0.854,293.071
125779,156334,11287,-0.057,0.995,0.279,-0.915,0.061,0.854,293.077
125802,156346,11330,-0.056,1.001,0.281,0.305,0.671,0.976,293.081
125802,156341,11275,-0.061,1.009,0.279,0.305,0.671,0.976,293.087
125802,156346,11330,-0.06,1.015,0.281,0.793,1.098,0.854,293.09
125802,156346,11278,-0.057,1.016,0.285,0.793,1.098,0.854,293.097
125789,156346,11330,-0.059,1.012,0.287,0.427,0.915,0.793,293.1
125789,156339,11282,-0.059,1.008,0.288,0.427,0.915,0.793,293.107
125797,156346,11330,-0.061,1.01,0.284,-0.793,0.671,0.854,293.11
125797,156352,11272,-0.059,1.009,0.282,-0.793,0.671,0.854,293.116
125814,156346,11330,-0.059,1.009,0.282,-0.793,0.671,0.854,293.12
125814,156358,11289,-0.053,1.002,0.277,-1.341,0.549,0.732,293.126
125809,156346,11330,-0.053,1.002,0.277,-1.341,0.549,0.732,293.13
125809,156360,11279,-0.054,1.006,0.271,-0.793,0.854,0.793,293.136
125812,156346,11330,-0.054,1.006,0.271,-0.793,0.854,0.793,293.14
125812,156368,11289,-0.057,1.011,0.271,-0.549,1.037,0.854,293.146
125821,156346,11330,-0.057,1.011,0.271,-0.549,1.037,0.854,293.15
125821,156356,11284,-0.058,1.01,0.278,-0.488,0.61,0.854,293.156
125830,156346,11330,-0.058,1.01,0.278,-0.488,0.61,0.854,293.16
125830,156356,11280,-0.057,1.013,0.279,-0.366,0.183,0.854,293.166
125825,156346,11330,-0.057,1.013,0.279,-0.366,0.183,0.854,293.17
125825,156363,11286,-0.058,1.009,0.279,-0.305,0.305,0.793,293.176
125832,156346,11330,-0.058,1.009,0.279,-0.305,0.305,0.793,293.18
125832,156360,11286,-0.061,1.016,0.279,-0.244,0.427,0.671,293.186
125827,156346,11330,-0.061,1.016,0.279,-0.244,0.427,0.671,293.189
125827,156394,11290,-0.058,1.005,0.278,-0.854,0.427,0.61,293.196
125835,156346,11330,-0.058,1.005,0.278,-0.854,0.427,0.61,293.199
125835,156367,11296,-0.062,1.006,0.276,-1.159,0.244,0.427,293.206
125874,156346,11330,-0.062,1.006,0.276,-1.159,0.244,0.427,293.209
125874,156381,11277,-0.059,1.006,0.276,-1.098,0.122,0.366,293.215
125872,156602,11330,-0.059,1.006,0.276,-1.098,0.122,0.366,293.219
125872,156417,11295,-0.054,1.019,0.276,-0.488,0.061,0.488,293.225
125877,156602,11330,-0.054,1.019,0.276,-0.488,0.061,0.488,293.229
125877,156440,11305,-0.054,1.01,0.281,-0.061,0,0.427,293.235
125891,156602,11330,-0.054,1.01,0.281,-0.061,0,0.427,293.239
125891,156418,11294,-0.059,1.012,0.281,0.061,0.244,0.244,293.245
125883,156346,11330,-0.059,1.012,0.281,0.061,0.244,0.244,293.249
125883,156399,11289,-0.06,1.012,0.281,-0.488,0.244,0.122,293.255
125880,156346,11330,-0.059,1.01,0.285,-0.488,0.244,0.122,293.259
125880,156412,11298,-0.056,1.007,0.284,-0.549,0.061,-0.122,293.265
125919,156602,11330,-0.053,1.007,0.284,-0.549,0.061,-0.122,293.269
125919,156443,11297,-0.058,1.01,0.281,-0.366,0.183,-0.061,293.275
125924,156602,11330,-0.059,1.011,0.283,-0.366,0.183,-0.061,293.279
125924,156467,11297,-0.059,1.014,0.289,-0.488,0.427,0,293.285
125926,156602,11330,-0.057,1.009,0.286,-0.488,0.427,0,293.288
125926,156456,11283,-0.056,1,0.281,-0.427,0.61,-0.183,293.295
125925,156602,11330,-0.057,0.997,0.272,-0.427,0.61,-0.183,293.298
125925,156445,11311,-0.061,1.005,0.269,-0.671,0.61,0,293.305
125949,156602,11330,-0.063,1.008,0.273,-0.671,0.61,0,293.308
125949,156475,11309,-0.058,1.003,0.279,-0.793,0.183,0.122,293.314
125934,156602,11330,-0.058,0.998,0.278,-0.793,0.183,0.122,293.318
125934,156469,11305,-0.056,1.001,0.281,-0.488,-0.305,0.427,293.324
125984,156602,11330,-0.059,1.005,0.282,-0.488,-0.305,0.427,293.328
125984,156486,11306,-0.057,1.006,0.283,-0.854,-0.061,0.61,293.334
125955,156602,11330,-0.053,1.008,0.285,-0.854,-0.061,0.61,293.338
125955,156487,11304,-0.053,1.008,0.285,-0.488,0.183,0.488,293.344
125978,156602,11330,-0.056,1.014,0.281,-0.488,0.183,0.488,293.348
125978,156479,11318,-0.057,1.018,0.286,-0.244,0.305,0.488,293.354
125987,156602,11330,-0.053,1.013,0.284,-0.244,0.305,0.488,293.358
125987,156506,11291,-0.056,1.015,0.283,-0.488,0.427,0.488,293.364
126007,156602,11330,-0.054,1.009,0.286,-0.488,0.427,0.488,293.368
126007,156510,11321,-0.056,1.007,0.285,-0.793,0.488,0.366,293.374
126008,156602,11330,-0.059,1.008,0.286,-0.793,0.488,0.366,293.378
126008,156527,11307,-0.059,1.003,0.285,-0.915,0.671,0.244,293.384
126026,156602,11330,-0.057,1.002,0.285,-0.915,0.671,0.244,293.387
126026,156544,11317,-0.06,1.006,0.285,-0.671,0.854,0.305,293.394
126037,156602,11330,-0.063,1.004,0.278,-0.671,0.854,0.305,293.397
126037,156528,11323,-0.061,1.005,0.279,-0.305,0.976,0.305,293.404
126033,156602,11330,-0.061,1.008,0.282,-0.305,0.976,0.305,293.407
126033,156554,11295,-0.059,1.008,0.28,-0.183,0.732,0.305,293.413
126050,156602,11330,-0.059,1.01,0.279,-0.183,0.732,0.305,293.417
126050,156559,11310,-0.056,1.008,0.28,-0.305,0.61,0.366,293.423
126050,156602,11330,-0.057,1.005,0.277,-0.305,0.61,0.366,293.427
126050,156549,11326,-0.057,1.005,0.277,-0.915,0.671,0.671,293.433
126064,156602,11330,-0.058,1.004,0.278,-0.915,0.671,0.671,293.437
126064,156572,11312,-0.056,1.004,0.276,-1.037,0.793,0.61,293.443
126063,156602,11330,-0.057,1.008,0.275,-1.037,0.793,0.61,293.447
126063,156569,11317,-0.06,1.004,0.276,-0.793,0.732,0.671,293.453
126075,156602,11330,-0.057,1.005,0.277,-0.793,0.732,0.671,293.457
126075,156541,11311,-0.055,1.005,0.279,-0.671,0.549,0.793,293.463
126064,156602,11330,-0.056,1.007,0.284,-0.671,0.549,0.793,293.467
126064,156566,11321,-0.057,1.012,0.287,-0.671,0.427,0.671,293.473
126046,156602,11330,-0.058,1.01,0.283,-0.671,0.427,0.671,293.477
126046,156578,11306,-0.059,1.011,0.281,-0.732,0.427,0.671,293.483
126073,156602,11330,-0.058,1.011,0.283,-0.732,0.427,0.671,293.486
126073,156551,11317,-0.056,1.015,0.286,-0.488,0.488,0.427,293.493
126070,156602,11330,-0.057,1.015,0.286,-0.488,0.488,0.427,293.496
126070,156570,11321,-0.058,1.013,0.285,-0.488,0.488,0.427,293.502
126064,156602,11330,-0.056,1.011,0.287,-0.488,0.488,0.427,293.506
126064,156543,11313,-0.056,1.008,0.285,-0.732,0.488,0.366,293.512
126067,156602,11330,-0.058,1.008,0.287,-0.732,0.488,0.366,293.516
126067,156553,11315,-0.058,1.01,0.286,-1.159,0.732,0.305,293.522
126063,156602,11330,-0.057,1.008,0.287,-1.159,0.732,0.305,293.526
126063,156566,11308,-0.055,1.003,0.279,-1.463,0.793,0.244,293.532
126054,156602,11330,-0.058,0.997,0.271,-1.463,0.793,0.244,293.536
126054,156555,11310,-0.062,0.997,0.268,-1.402,0.854,0.122,293.542
126068,156602,11330,-0.061,1.004,0.276,-1.402,0.854,0.122,293.546
126068,156556,11319,-0.061,1.01,0.28,-1.098,0.732,0.183,293.552
126051,156602,11330,-0.06,1.005,0.28,-1.098,0.732,0.183,293.556
126051,156546,11317,-0.058,1.001,0.281,-0.305,0.244,0.244,293.562
126029,156602,11330,-0.058,1.006,0.28,-0.305,0.244,0.244,293.566
126029,156533,11309,-0.059,1.012,0.276,-0.366,0.305,0.366,293.572
126043,156602,11330,-0.062,1.012,0.281,-0.366,0.305,0.366,293.576
126043,156557,11305,-0.06,1.005,0.286,-0.793,0.305,0.427,293.582
126040,156602,11330,-0.055,1.007,0.288,-0.793,0.305,0.427,293.585
126040,156564,11315,-0.056,1.011,0.288,-0.61,0.122,0.427,293.592
126058,156602,11330,-0.058,1.012,0.294,-0.61,0.122,0.427,293.595
126058,156545,11318,-0.057,1.005,0.303,-0.732,0.305,0.488,293.601
126054,156602,11330,-0.056,1.004,0.309,-0.732,0.305,0.488,293.605
126054,156557,11331,-0.057,1.008,0.304,-0.183,0.366,0.305,293.611
126051,156602,11330,-0.057,1.013,0.294,-0.183,0.366,0.305,293.615
126051,156535,11313,-0.057,1.019,0.285,-0.549,0.976,0.122,293.621
126043,156602,11330,-0.055,1.016,0.282,-0.549,0.976,0.122,293.625
126043,156538,11310,-0.058,1.005,0.272,-1.28,1.098,-0.061,293.631
126029,156602,11330,-0.059,0.996,0.259,-1.28,1.098,-0.061,293.635
126029,156536,11330,-0.063,1.005,0.257,-2.622,0.671,0.061,293.641
126034,156602,11330,-0.06,1.01,0.267,-2.622,0.671,0.061,293.645
126034,156523,11305,-0.054,1.002,0.273,-2.805,-0.488,0.366,293.651
125991,156602,11330,-0.053,0.996,0.268,-2.805,-0.488,0.366,293.655
125991,156528,11300,-0.055,1,0.267,-0.915,-0.854,0.305,293.661
126000,156602,11330,-0.057,1.008,0.27,-0.915,-0.854,0.305,293.665
126000,156501,11305,-0.061,1.018,0.276,0.183,-0.183,0.427,293.671
125989,156602,11330,-0.062,1.018,0.282,0.183,-0.183,0.427,293.674
125989,156508,11304,-0.061,1.022,0.286,0.793,-0.061,0,293.681
125967,156602,11330,-0.065,1.026,0.289,0.793,-0.061,0,293.684
125967,156509,11299,-0.069,1.019,0.292,0.305,-0.427,-0.244,293.691
125947,156602,11330,-0.069,1.019,0.292,0.305,-0.427,-0.244,293.694
125947,156475,11299,-0.059,1.005,0.292,-0.122,-0.549,-0.488,293.701
125946,156602,11330,-0.059,1.005,0.292,-0.122,-0.549,-0.488,293.704
125946,156466,11300,-0.055,1.008,0.285,-0.549,0.061,-0.61,293.71
125962,156602,11330,-0.055,1.008,0.285,-0.549,0.061,-0.61,293.714
125962,156481,11304,-0.057,1.002,0.29,-0.61,0.305,-0.732,293.72
125956,156602,11330,-0.057,1.002,0.29,-0.61,0.305,-0.732,293.724
125956,156479,11311,-0.054,1,0.28,-0.793,0.244,-0.671,293.73
125963,156602,11330,-0.054,1,0.28,-0.793,0.244,-0.671,293.734
125963,156477,11322,-0.057,1.006,0.286,-1.037,0.549,-0.366,293.74
125957,156602,11330,-0.057,1.006,0.286,-1.037,0.549,-0.366,293.744
125957,156459,11302,-0.057,0.999,0.282,-1.463,0.366,-0.244,293.75
125954,156602,11330,-0.057,0.999,0.282,-1.463,0.366,-0.244,293.754
125954,156481,11325,-0.059,0.988,0.278,-1.402,0.061,0.061,293.76
125956,156602,11330,-0.059,0.988,0.278,-1.402,0.061,0.061,293.764
125956,156454,11308,-0.063,1.001,0.28,-0.671,0.122,0.244,293.77
125946,156602,11330,-0.063,1.001,0.28,-0.671,0.122,0.244,293.773
125946,156463,11303,-0.058,1.011,0.284,0,0.122,0.305,293.78
125925,156602,11330,-0.058,1.011,0.284,0,0.122,0.305,293.783
125925,156483,11312,-0.054,1.008,0.287,0.915,0.183,0.549,293.79
125920,156602,11330,-0.054,1.008,0.287,0.915,0.183,0.549,293.793
125920,156477,11290,-0.059,1.015,0.293,1.159,0.549,0.61,293.799
125910,156602,11330,-0.059,1.015,0.293,1.159,0.549,0.61,293.803
125910,156460,11306,-0.06,1.02,0.291,0.915,1.098,0.488,293.809
125907,156602,11330,-0.06,1.02,0.291,0.915,1.098,0.488,293.813
125907,156457,11304,-0.063,1.012,0.286,0.366,1.341,0,293.819
125931,156602,11330,-0.063,1.012,0.286,0.366,1.341,0,293.823
125931,156446,11303,-0.065,1.005,0.275,-0.488,1.159,0.183,293.829
125936,156602,11330,-0.065,1.005,0.275,-0.488,1.159,0.183,293.833
125936,156457,11296,-0.064,1.008,0.272,-0.488,1.159,0.183,293.839
125937,156602,11330,-0.062,1.006,0.279,-0.854,0.915,0.061,293.843
125937,156466,11281,-0.06,1.001,0.28,-0.854,0.915,0.061,293.849
125947,156602,11330,-0.058,0.998,0.282,0,0.61,0,293.853
125947,156463,11309,-0.056,0.998,0.281,0,0.61,0,293.859
125919,156602,11330,-0.059,1.003,0.285,0.549,0.732,0.427,293.863
125919,156465,11312,-0.059,1.008,0.286,0.549,0.732,0.427,293.869
125953,156602,11330,-0.058,1.009,0.284,0.427,0.915,0.305,293.872
125953,156450,11309,-0.06,1.009,0.282,0.427,0.915,0.305,293.879
125952,156602,11330,-0.06,1.013,0.285,-0.732,0.61,0.183,293.882
125952,156481,11306,-0.058,1.008,0.291,-0.732,0.61,0.183,293.889
125987,156602,11330,-0.061,1,0.291,-1.28,0.183,0.366,293.892
125987,156497,11326,-0.058,0.995,0.291,-1.28,0.183,0.366,293.898
126040,156602,11330,-0.059,1,0.286,-0.854,0.427,0.427,293.902
126040,156539,11313,-0.065,1.007,0.287,-0.854,0.427,0.427,293.908
126090,156602,11330,-0.066,1.008,0.293,-0.244,0.915,0.244,293.912
126090,156596,11341,-0.066,1.008,0.286,-0.244,0.915,0.244,293.918
126111,156602,11330,-0.063,1.009,0.282,0.549,0.976,0.122,293.922
126111,156606,11326,-0.064,1.011,0.28,0.549,0.976,0.122,293.928
126121,156602,11330,-0.063,1.011,0.282,0.427,1.098,0.305,293.932
126121,156589,11336,-0.063,1.01,0.285,0.427,1.098,0.305,293.938
126111,156602,11330,-0.066,1.01,0.282,-0.732,1.098,0.671,293.942
126111,156611,11338,-0.063,1.003,0.28,-0.732,1.098,0.671,293.948
126121,156602,11330,-0.061,0.997,0.276,-2.134,0.732,0.854,293.952
126121,156586,11335,-0.059,0.993,0.271,-2.134,0.732,0.854,293.958
126123,156602,11330,-0.062,0.99,0.267,-2.317,0.61,1.098,293.962
126123,156582,11328,-0.06,0.999,0.268,-2.317,0.61,1.098,293.968
126098,156602,11330,-0.055,1.008,0.266,-2.195,0.244,1.463,293.971
126098,156583,11337,-0.054,1.005,0.279,-2.195,0.244,1.463,293.978
126092,156602,11330,-0.048,0.998,0.296,-0.793,-0.366,1.585,293.981
126092,156558,11326,-0.052,1.001,0.287,-0.793,-0.366,1.585,293.988
126073,156602,11330,-0.055,1.014,0.281,0.61,0.183,1.707,293.991
126073,156562,11332,-0.058,1.022,0.292,0.61,0.183,1.707,293.997
126081,156602,11330,-0.057,1.026,0.295,0.488,0.793,1.341,294.001
126081,156549,11299,-0.058,1.026,0.293,0.488,0.793,1.341,294.007
126061,156602,11330,-0.055,1.021,0.293,0.061,0.549,0.732,294.011
126061,156543,11318,-0.056,1.014,0.297,0.061,0.549,0.732,294.017
126053,156602,11330,-0.059,1.009,0.291,-1.159,0.427,0.671,294.021
126053,156543,11313,-0.061,1.005,0.28,-1.159,0.427,0.671,294.027
126042,156602,11330,-0.057,1.003,0.28,-1.524,0.793,0.549,294.031
126042,156535,11311,-0.06,1,0.282,-1.524,0.793,0.549,294.037
126026,156602,11330,-0.059,1.001,0.283,-0.976,0.976,0.244,294.041
126026,156500,11321,-0.056,1.001,0.286,-0.976,0.976,0.244,294.047
126027,156602,11330,-0.055,1.003,0.283,-0.549,0.732,0.488,294.051
126027,156518,11320,-0.056,1.005,0.288,-0.549,0.732,0.488,294.057
126026,156602,11330,-0.056,1.005,0.286,-0.244,0.854,0.549,294.061
126026,156513,11309,-0.056,1.005,0.277,-0.244,0.854,0.549,294.067
126006,156602,11330,-0.059,1.006,0.277,-0.244,0.915,0.488,294.07
126006,156505,11317,-0.058,1.009,0.277,-0.244,0.915,0.488,294.077
126009,156602,11330,-0.058,1.013,0.273,-0.793,0.61,0.549,294.08
126009,156491,11315,-0.053,1.004,0.282,-0.793,0.61,0.549,294.087
125978,156602,11330,-0.052,0.994,0.287,-0.793,0.061,0.732,294.09
125978,156478,11306,-0.052,0.988,0.283,-0.793,0.061,0.732,294.096
125992,156602,11330,-0.054,0.997,0.284,-0.183,0.305,0.976,294.1
125992,156498,11315,-0.057,1.004,0.283,-0.183,0.305,0.976,294.106
125988,156602,11330,-0.057,1.011,0.288,0.244,0.854,0.976,294.11
125988,156507,11321,-0.062,1.014,0.291,0.244,0.854,0.976,294.116
125961,156602,11330,-0.058,1.012,0.289,0.244,0.732,0.793,294.12
125961,156461,11310,-0.062,1.01,0.286,0.244,0.732,0.793,294.126
125967,156602,11330,-0.064,1.012,0.288,-0.305,0.61,0.915,294.13
125967,156464,11307,-0.064,1.012,0.288,-0.305,0.61,0.915,294.136
125957,156602,11330,-0.059,1.005,0.284,-0.732,0.793,0.915,294.14
125957,156442,11311,-0.057,0.997,0.271,-0.732,0.793,0.915,294.146
125950,156602,11330,-0.058,0.999,0.268,-0.793,0.732,0.854,294.15
125950,156467,11315,-0.06,1.006,0.272,-0.793,0.732,0.854,294.156
125960,156602,11330,-0.06,1.013,0.282,-1.22,0.244,0.793,294.16
125960,156464,11312,-0.056,1.009,0.29,-1.22,0.244,0.793,294.166
125967,156602,11330,-0.055,1.006,0.292,-0.427,-0.305,0.61,294.169
125967,156438,11319,-0.056,1.011,0.291,-0.427,-0.305,0.61,294.176
125965,156602,11330,-0.06,1.015,0.292,0.122,0.305,0.732,294.179
125965,156463,11294,-0.059,1.014,0.295,0.122,0.305,0.732,294.185
125962,156602,11330,-0.06,1.015,0.295,0.061,0.793,0.427,294.189
125962,156456,11310,-0.058,1.017,0.283,0.061,0.793,0.427,294.195
125946,156602,11330,-0.061,1.016,0.277,-0.671,0.732,0.183,294.199
125946,156474,11291,-0.06,1.008,0.28,-0.671,0.732,0.183,294.205
125955,156602,11330,-0.058,1,0.286,-0.854,0.366,0.183,294.209
125955,156436,11321,-0.059,0.998,0.288,-0.854,0.366,0.183,294.215
125967,156602,11330,-0.061,1,0.289,-1.037,0.488,0.305,294.219
125967,156431,11308,-0.059,0.996,0.285,-1.037,0.488,0.305,294.225
125925,156602,11330,-0.057,0.993,0.28,-0.671,0.549,0.305,294.229
125925,156433,11290,-0.058,0.999,0.277,-0.671,0.549,0.305,294.235
125961,156602,11330,-0.057,1.01,0.275,-0.366,0.427,0.305,294.239
125961,156446,11314,-0.054,1.017,0.282,-0.366,0.427,0.305,294.245
125954,156602,11330,-0.051,1.014,0.286,-0.183,0,0.305,294.249
125954,156437,11301,-0.053,1.012,0.286,-0.183,0,0.305,294.255
125936,156602,11330,-0.056,1.011,0.285,-0.183,-0.061,0.244,294.259
125936,156430,11292,-0.06,1.01,0.289,-0.183,-0.061,0.244,294.265
125932,156602,11330,-0.057,1.007,0.289,-0.732,0.183,0.183,294.268
125932,156428,11295,-0.058,1.004,0.291,-0.732,0.183,0.183,294.275
125934,156346,11330,-0.058,1.004,0.291,-0.732,0.183,0.183,294.278
125934,156415,11316,-0.058,1.004,0.279,-0.671,0.244,0.061,294.284
125955,156602,11330,-0.058,1.004,0.279,-0.671,0.244,0.061,294.288
125955,156433,11291,-0.059,1.005,0.286,-0.305,0.366,0.061,294.294
125932,156602,11330,-0.059,1.005,0.286,-0.305,0.366,0.061,294.298
125932,156421,11297,-0.06,1.005,0.285,-0.061,0.366,0.122,294.304
125932,156602,11330,-0.06,1.005,0.285,-0.061,0.366,0.122,294.308
125932,156430,11309,-0.056,1.007,0.286,-0.305,0.305,0.183,294.314
125925,156602,11330,-0.056,1.007,0.286,-0.305,0.305,0.183,294.318
125925,156447,11305,-0.056,1.011,0.288,0,0.305,0.183,294.324
125949,156602,11330,-0.056,1.011,0.288,0,0.305,0.183,294.328
125949,156424,11319,-0.059,1.007,0.29,-0.061,0.549,0.183,294.334
125940,156602,11330,-0.059,1.007,0.29,-0.061,0.549,0.183,294.338
125940,156431,11296,-0.063,1.003,0.287,0.061,0.549,0.061,294.344
125960,156602,11330,-0.063,1.003,0.287,0.061,0.549,0.061,294.348
125960,156432,11312,-0.06,0.999,0.271,0.122,0.732,-0.061,294.354
125962,156602,11330,-0.06,0.999,0.271,0.122,0.732,-0.061,294.358
125962,156449,11309,-0.06,1.007,0.278,0,0.732,0.061,294.364
125938,156602,11330,-0.06,1.007,0.278,0,0.732,0.061,294.367
125938,156447,11296,-0.057,1.005,0.281,0,0.122,0,294.374
125921,156602,11330,-0.057,1.005,0.281,0,0.122,0,294.377
125921,156459,11291,-0.055,1.012,0.284,-0.061,-0.183,0.244,294.383
125946,156602,11330,-0.055,1.012,0.284,-0.061,-0.183,0.244,294.387
125946,156450,11310,-0.057,1.012,0.288,-0.549,0.122,0.305,294.393
125953,156602,11330,-0.057,1.012,0.288,-0.549,0.122,0.305,294.397
125953,156434,11298,-0.059,1.003,0.288,-0.915,0.305,0.122,294.403
125951,156602,11330,-0.059,1.003,0.288,-0.915,0.305,0.122,294.407
125951,156447,11309,-0.061,0.993,0.295,-1.402,0.061,0.305,294.413
125967,156602,11330,-0.061,0.993,0.295,-1.402,0.061,0.305,294.417
125967,156461,11296,-0.059,0.999,0.301,-1.159,0,0.366,294.423
126004,156602,11330,-0.055,1.002,0.299,-1.159,0,0.366,294.427
126004,156488,11321,-0.053,1.004,0.295,-0.366,0.183,0.366,294.433
126007,156602,11330,-0.056,1.009,0.293,-0.366,0.183,0.366,294.437
126007,156485,11312,-0.057,1.009,0.289,-0.183,0.793,0.244,294.443
126005,156602,11330,-0.059,1.009,0.285,-0.183,0.793,0.244,294.447
126005,156486,11320,-0.059,1.005,0.284,-1.402,0.854,0.549,294.453
126013,156602,11330,-0.054,0.998,0.283,-1.402,0.854,0.549,294.457
126013,156502,11322,-0.053,0.99,0.275,-2.195,0.122,0.854,294.463
126018,156602,11330,-0.054,0.988,0.268,-2.195,0.122,0.854,294.466
126018,156497,11308,-0.055,1.001,0.268,-1.524,0,0.976,294.473
126044,156602,11330,-0.053,1.014,0.269,-1.524,0,0.976,294.476
126044,156507,11317,-0.054,1.015,0.27,-0.244,0.183,1.037,294.482
126032,156602,11330,-0.056,1.018,0.279,-0.244,0.183,1.037,294.486
126032,156500,11316,-0.057,1.022,0.288,0.305,-0.122,0.976,294.492
126044,156602,11330,-0.058,1.022,0.291,0.305,-0.122,0.976,294.496
126044,156499,11313,-0.059,1.023,0.293,-0.427,-0.244,0.793,294.502
126029,156602,11330,-0.06,1.011,0.297,-0.427,-0.244,0.793,294.506
126029,156504,11317,-0.064,1.002,0.306,-0.61,0.061,0.61,294.512
126058,156602,11330,-0.065,1.007,0.294,-0.61,0.061,0.61,294.516
126058,156530,11324,-0.066,1.009,0.287,-0.427,0.549,0.488,294.522
126024,156602,11330,-0.064,1.007,0.294,-0.427,0.549,0.488,294.526
126024,156524,11316,-0.063,1.006,0.294,-0.061,0.976,0.183,294.532
126053,156602,11330,-0.061,1.01,0.291,-0.061,0.976,0.183,294.536
126053,156505,11313,-0.061,1.007,0.289,-0.061,0.976,0.183,294.542
126028,156602,11330,-0.058,0.998,0.296,-0.061,0.976,0.183,294.546
126028,156511,11311,-0.056,0.999,0.296,0.244,0.854,0.183,294.552
126027,156602,11330,-0.056,0.998,0.294,0.244,0.854,0.183,294.555
126027,156500,11328,-0.057,0.998,0.299,0.366,1.037,0.122,294.562
126040,156602,11330,-0.053,1.002,0.302,0.366,1.037,0.122,294.565
126040,156504,11316,-0.055,1.004,0.289,0.122,1.341,0.244,294.572
126039,156602,11330,-0.054,1.002,0.28,0.122,1.341,0.244,294.575
126039,156507,11307,-0.056,1.005,0.274,-0.732,1.402,0,294.581
126026,156602,11330,-0.055,1.003,0.273,-0.732,1.402,0,294.585
126026,156507,11320,-0.053,0.998,0.271,-1.22,0.732,0,294.591
126034,156602,11330,-0.051,0.996,0.272,-1.22,0.732,0,294.595
126034,156492,11315,-0.053,0.997,0.278,-0.549,0.305,0.366,294.601
126022,156602,11330,-0.054,1.002,0.283,-0.549,0.305,0.366,294.605
126022,156514,11306,-0.054,1.007,0.284,-0.061,0.366,0.549,294.611
125998,156602,11330,-0.056,1.007,0.288,-0.061,0.366,0.549,294.615
125998,156507,11312,-0.057,1.013,0.29,0,0.427,0.549,294.621
126022,156602,11330,-0.058,1.013,0.29,0,0.427,0.549,294.625
126022,156472,11303,-0.058,1.015,0.289,-0.061,0.549,0.549,294.631
126025,156602,11330,-0.058,1.014,0.293,-0.061,0.549,0.549,294.635
126025,156515,11312,-0.061,1.01,0.294,-0.366,0.671,0.488,294.641
126025,156602,11330,-0.062,1.009,0.291,-0.366,0.671,0.488,294.645
126025,156491,11306,-0.065,1.01,0.288,-0.976,0.854,0.305,294.651
126003,156602,11330,-0.063,1.005,0.287,-0.976,0.854,0.305,294.655
126003,156500,11314,-0.063,1.001,0.279,-1.098,0.732,0.366,294.661
126001,156602,11330,-0.059,1.002,0.274,-1.098,0.732,0.366,294.664
126001,156483,11321,-0.054,1.006,0.273,-0.61,0.488,0.305,294.671
125992,156602,11330,-0.05,1.01,0.277,-0.61,0.488,0.305,294.674
125992,156479,11319,-0.052,1.011,0.28,-0.183,0.427,0.244,294.68
125989,156602,11330,-0.054,1.014,0.285,-0.183,0.427,0.244,294.684
125989,156470,11314,-0.056,1.011,0.281,-0.122,0.366,0.244,294.69
125985,156602,11330,-0.054,1.009,0.28,-0.122,0.366,0.244,294.694
125985,156463,11308,-0.053,1.011,0.284,-0.244,0.183,0.183,294.7
125962,156602,11330,-0.054,1.012,0.282,-0.244,0.183,0.183,294.704
125962,156449,11315,-0.057,1.01,0.284,-0.366,0.366,0.183,294.71
125979,156602,11330,-0.058,1.005,0.28,-0.366,0.366,0.183,294.714
125979,156459,11326,-0.057,1.004,0.277,-0.61,0.366,0.122,294.72
125984,156602,11330,-0.061,0.996,0.285,-0.61,0.366,0.122,294.724
125984,156466,11290,-0.062,0.992,0.285,-0.427,0.183,0,294.73
125983,156602,11330,-0.067,0.996,0.286,-0.427,0.183,0,294.734
125983,156457,11307,-0.063,0.998,0.29,0,-0.122,0.122,294.74
125962,156602,11330,-0.061,0.999,0.294,0,-0.122,0.122,294.744
125962,156461,11312,-0.059,1.002,0.296,0.488,-0.183,0.122,294.75
125956,156602,11330,-0.06,1.012,0.301,0.488,-0.183,0.122,294.753
125956,156461,11305,-0.061,1.011,0.295,0.305,0.122,0.183,294.76
125974,156602,11330,-0.061,1.008,0.293,0.305,0.122,0.183,294.763
125974,156474,11308,-0.063,1.005,0.291,-0.122,0.549,0.183,294.77
125958,156602,11330,-0.061,1.005,0.287,-0.122,0.549,0.183,294.773
125958,156466,11306,-0.058,1.004,0.284,-1.341,0.549,0.183,294.779
125940,156602,11330,-0.055,1.005,0.28,-1.341,0.549,0.183,294.783
125940,156436,11291,-0.058,0.995,0.283,-2.073,0.244,0.366,294.789
125919,156602,11330,-0.057,0.993,0.286,-2.073,0.244,0.366,294.793
125919,156420,11306,-0.058,1.002,0.28,-1.829,0,0.793,294.799
125961,156602,11330,-0.056,1.006,0.274,-1.829,0,0.793,294.803
125961,156427,11311,-0.051,1.009,0.275,-1.463,0.183,0.732,294.809
125951,156602,11330,-0.051,1.011,0.281,-1.463,0.183,0.732,294.813
125951,156433,11312,-0.058,1.021,0.288,-0.976,0.244,0.61,294.819
125934,156602,11330,-0.057,1.025,0.288,-0.976,0.244,0.61,294.823
125934,156448,11307,-0.053,1.016,0.296,-1.402,0.183,0.366,294.829
125953,156602,11330,-0.053,1.014,0.31,-1.402,0.183,0.366,294.833
125953,156440,11315,-0.056,1.027,0.3,-3.415,0.61,0.122,294.839
125939,156602,11330,-0.062,1.031,0.297,-3.415,0.61,0.122,294.843
125939,156432,11307,-0.063,1.024,0.301,-6.89,1.22,0.061,294.849
125945,156602,11330,-0.06,1.005,0.301,-6.89,1.22,0.061,294.852
125945,156434,11295,-0.061,0.988,0.287,-8.171,0.793,-0.061,294.859
125976,156602,11330,-0.061,0.988,0.287,-8.171,0.793,-0.061,294.862
125976,156475,11314,-0.059,0.981,0.287,-7.927,0.61,0.244,294.869
126014,156602,11330,-0.059,0.981,0.287,-7.927,0.61,0.244,294.872
126014,156473,11301,-0.055,0.994,0.296,-5.976,0.732,0.305,294.878
125998,156602,11330,-0.055,0.994,0.296,-5.976,0.732,0.305,294.882
125998,156475,11317,-0.057,0.996,0.291,-3.415,1.098,0.305,294.888
126015,156602,11330,-0.057,0.996,0.291,-3.415,1.098,0.305,294.892
126015,156475,11285,-0.055,1.001,0.285,-2.256,1.28,0.732,294.898
125990,156602,11330,-0.055,1.001,0.285,-2.256,1.28,0.732,294.902
125990,156488,11302,-0.058,1.01,0.282,-3.11,0.549,0.732,294.908
125979,156602,11330,-0.058,1.01,0.282,-3.11,0.549,0.732,294.912
125979,156486,11291,-0.052,0.998,0.291,-2.927,-0.183,0.671,294.918
125973,156602,11330,-0.052,0.998,0.291,-2.927,-0.183,0.671,294.922
125973,156457,11301,-0.057,0.997,0.297,-1.402,-0.061,0.854,294.928
125996,156602,11330,-0.057,0.997,0.297,-1.402,-0.061,0.854,294.932
125996,156467,11294,-0.057,1.015,0.294,0.305,0.305,0.732,294.938
125989,156602,11330,-0.057,1.015,0.294,0.305,0.305,0.732,294.942
125989,156472,11306,-0.057,1.011,0.301,1.951,0.305,0.122,294.948
125990,156602,11330,-0.057,1.011,0.301,1.951,0.305,0.122,294.951
125990,156490,11308,-0.066,1.015,0.297,1.402,0.305,0,294.958
125991,156602,11330,-0.066,1.015,0.297,1.402,0.305,0,294.961
125991,156483,11307,-0.066,1.012,0.291,0,0.366,-0.305,294.968
125983,156602,11330,-0.066,1.012,0.291,0,0.366,-0.305,294.971
125983,156511,11308,-0.061,0.999,0.292,-0.915,0.061,-0.366,294.977
125987,156602,11330,-0.061,0.999,0.292,-0.915,0.061,-0.366,294.981
125987,156511,11323,-0.06,0.993,0.285,-0.976,0,0,294.987
126022,156602,11330,-0.06,0.993,0.285,-0.976,0,0,294.991
126022,156484,11306,-0.057,0.992,0.292,-0.061,0.122,0.183,294.997
126034,156602,11330,-0.057,0.992,0.292,-0.061,0.122,0.183,295.001
126034,156504,11292,-0.056,0.998,0.294,-0.061,0.122,0.183,295.007
126053,156602,11330,-0.054,1.004,0.288,0.61,0.244,0.366,295.011
126053,156505,11311,-0.05,1.007,0.289,0.61,0.244,0.366,295.017
126040,156602,11330,-0.053,1.006,0.299,0.61,0.244,0.549,295.021
126040,156522,11316,-0.053,1.008,0.307,0.61,0.244,0.549,295.027
126030,156602,11330,-0.052,1.012,0.305,0.305,0.183,0.61,295.031
126030,156507,11307,-0.054,1.011,0.302,0.305,0.183,0.61,295.037
126050,156602,11330,-0.051,1.01,0.298,-0.122,0.305,0.61,295.041
126050,156518,11319,-0.051,1.01,0.295,-0.122,0.305,0.61,295.047
126055,156602,11330,-0.057,1.014,0.297,-0.427,0.793,0.366,295.05
126055,156537,11310,-0.056,1.013,0.302,-0.427,0.793,0.366,295.057
126065,156602,11330,-0.056,1.009,0.304,-1.037,0.976,0.244,295.06
126065,156542,11319,-0.058,1.007,0.307,-1.037,0.976,0.244,295.067
126061,156602,11330,-0.053,1.003,0.3,-1.341,0.793,0.183,295.07
126061,156528,11334,-0.054,1.004,0.298,-1.341,0.793,0.183,295.076
126073,156602,11330,-0.056,1.007,0.295,-1.037,1.28,-0.061,295.08
126073,156526,11311,-0.062,1.011,0.286,-1.037,1.28,-0.061,295.086
126061,156602,11330,-0.067,1.013,0.286,-1.22,1.768,-0.183,295.09
126061,156536,11291,-0.068,1.009,0.287,-1.22,1.768,-0.183,295.096
126049,156602,11330,-0.069,1.005,0.281,-1.646,1.28,-0.244,295.1
126049,156555,11318,-0.068,0.997,0.272,-1.646,1.28,-0.244,295.106
126040,156602,11330,-0.066,0.988,0.272,-1.402,0.366,-0.244,295.11
126040,156530,11302,-0.067,0.979,0.272,-1.402,0.366,-0.244,295.116
126028,156602,11330,-0.065,0.989,0.277,-0.244,-0.183,-0.122,295.12
126028,156513,11324,-0.065,1,0.282,-0.244,-0.183,-0.122,295.126
126018,156602,11330,-0.064,1.005,0.284,1.159,-0.488,0.122,295.13
126018,156519,11314,-0.06,1.003,0.288,1.159,-0.488,0.122,295.136
126014,156602,11330,-0.06,1.011,0.294,2.5,-0.488,0.122,295.14
126014,156471,11302,-0.059,1.022,0.304,2.5,-0.488,0.122,295.146
125952,156602,11330,-0.057,1.021,0.305,2.012,-0.305,0.244,295.15
125952,156439,11304,-0.053,1.017,0.305,2.012,-0.305,0.244,295.156
125906,156346,11330,-0.053,1.013,0.308,0.488,-0.061,0.061,295.159
125906,156393,11294,-0.056,1.01,0.305,0.488,-0.061,0.061,295.166
125886,156346,11330,-0.054,1.007,0.298,-1.463,0,0.183,295.169
125886,156383,11298,-0.057,1.004,0.296,-1.463,0,0.183,295.175
125903,156346,11330,-0.051,0.996,0.295,-2.5,-0.122,0,295.179
125903,156375,11296,-0.052,0.993,0.294,-2.5,-0.122,0,295.185
125869,156346,11330,-0.054,0.994,0.293,-1.89,-0.122,0.061,295.189
125869,156392,11302,-0.054,0.995,0.292,-1.89,-0.122,0.061,295.195
125849,156346,11330,-0.052,0.993,0.29,-1.098,0.305,0.122,295.199
125849,156364,11288,-0.057,0.993,0.287,-1.098,0.305,0.122,295.205
125864,156346,11330,-0.057,0.997,0.285,-0.427,0.305,0.183,295.209
125864,156357,11277,-0.061,0.995,0.286,-0.427,0.305,0.183,295.215
125866,156346,11330,-0.06,0.993,0.291,0,-0.122,0.427,295.219
125866,156356,11298,-0.059,1.002,0.3,0,-0.122,0.427,295.225
125877,156346,11330,-0.06,1.011,0.293,0.061,-0.244,0.671,295.229
125877,156369,11282,-0.06,1.011,0.295,0.061,-0.244,0.671,295.235
125891,156346,11330,-0.059,1.009,0.308,0,-0.244,0.488,295.239
125891,156388,11304,-0.062,1.016,0.315,0,-0.244,0.488,295.245
125926,156346,11330,-0.057,1.02,0.307,0.183,-0.183,0.305,295.248
125926,156401,11296,-0.058,1.012,0.306,0.183,-0.183,0.305,295.255
125928,156602,11330,-0.061,1.008,0.304,0.488,0.549,0.061,295.258
125928,156427,11291,-0.064,1.006,0.3,0.488,0.549,0.061,295.265
125959,156602,11330,-0.066,1.004,0.294,0.061,1.037,-0.244,295.268
125959,156441,11300,-0.064,1,0.293,0.061,1.037,-0.244,295.274
125972,156602,11330,-0.062,0.994,0.296,-0.183,0.915,-0.427,295.278
125972,156473,11304,-0.059,0.991,0.293,-0.183,0.915,-0.427,295.284
125991,156602,11330,-0.061,0.998,0.285,0.427,0.732,-0.427,295.288
125991,156472,11331,-0.059,0.999,0.293,0.427,0.732,-0.427,295.294
126040,156602,11330,-0.059,0.997,0.294,0.61,0.976,-0.244,295.298
126040,156500,11310,-0.058,0.996,0.283,0.61,0.976,-0.244,295.304
126028,156602,11330,-0.059,0.993,0.275,0,0.854,0.061,295.308
126028,156509,11313,-0.057,0.993,0.273,0,0.854,0.061,295.314
126036,156602,11330,-0.06,0.994,0.278,-1.037,0.122,0.366,295.318
126036,156515,11313,-0.055,0.995,0.284,-1.037,0.122,0.366,295.324
126048,156602,11330,-0.052,1.001,0.283,-1.098,-0.61,0.793,295.328
126048,156529,11323,-0.052,1.001,0.292,-1.098,-0.61,0.793,295.334
126039,156602,11330,-0.055,1.002,0.298,-0.244,-0.488,1.037,295.338
126039,156542,11323,-0.057,1.002,0.301,-0.244,-0.488,1.037,295.344
126061,156602,11330,-0.06,1.007,0.307,0.488,0,1.098,295.347
126061,156535,11323,-0.06,1.021,0.305,0.488,0,1.098,295.354
126085,156602,11330,-0.062,1.022,0.304,0.61,0.305,0.915,295.357
126085,156564,11324,-0.06,1.02,0.307,0.61,0.305,0.915,295.364
126097,156602,11330,-0.06,1.016,0.307,0.549,0.488,0.488,295.367
126097,156554,11313,-0.065,1.011,0.305,0.549,0.488,0.488,295.373
126131,156602,11330,-0.064,1.008,0.3,-0.183,0.976,0.244,295.377
126131,156580,11334,-0.064,1.007,0.291,-0.183,0.976,0.244,295.383
126152,156602,11330,-0.067,1.002,0.287,-0.793,1.22,0.061,295.387
126152,156618,11329,-0.065,1.002,0.285,-0.793,1.22,0.061,295.393
126187,156602,11330,-0.061,1.001,0.285,-0.61,1.098,0.061,295.397
126187,156663,11340,-0.06,1.004,0.279,-0.61,1.098,0.061,295.403
126207,156602,11330,-0.059,1.007,0.274,-0.061,0.732,0.122,295.407
126207,156646,11338,-0.058,1.011,0.283,-0.061,0.732,0.122,295.413
126265,156858,11330,-0.058,1.013,0.289,-0.122,0.61,0.244,295.417
126265,156705,11352,-0.055,1.01,0.296,-0.122,0.61,0.244,295.423
126311,156858,11330,-0.052,1.004,0.299,-0.366,0.244,0.183,295.427
126311,156754,11362,-0.054,1.002,0.299,-0.366,0.244,0.183,295.433
126386,156858,11330,-0.057,1.005,0.295,-1.28,0.793,-0.122,295.437
126386,156776,11377,-0.06,1.011,0.294,-1.28,0.793,-0.122,295.443
126454,156858,11330,-0.06,1.011,0.294,-1.28,0.793,-0.122,295.446
126454,156867,11372,-0.063,1.005,0.301,-2.317,1.28,-0.366,295.453
126531,156858,11330,-0.063,1.005,0.301,-2.317,1.28,-0.366,295.456
126531,156922,11391,-0.064,0.991,0.289,-2.927,0.976,-0.122,295.463
126605,157114,11330,-0.064,0.991,0.289,-2.927,0.976,-0.122,295.466
126605,156955,11390,-0.06,0.989,0.292,-2.927,0.61,0.488,295.472
126649,157114,11330,-0.06,0.989,0.292,-2.927,0.61,0.488,295.476
126649,157031,11404,-0.06,0.99,0.301,-2.073,0.305,0.793,295.482
126693,157114,11330,-0.06,0.99,0.301,-2.073,0.305,0.793,295.486
126693,157058,11405,-0.061,1.012,0.294,-1.098,0.122,0.976,295.492
126744,157114,11330,-0.061,1.012,0.294,-1.098,0.122,0.976,295.496
126744,157101,11412,-0.062,1.017,0.273,-0.915,0.427,0.915,295.502
126772,157114,11330,-0.062,1.017,0.273,-0.915,0.427,0.915,295.506
126772,157093,11417,-0.064,1.026,0.284,-1.037,0.549,0.549,295.512
126772,157114,11330,-0.064,1.026,0.284,-1.037,0.549,0.549,295.516
126772,157091,11412,-0.062,1.019,0.294,-1.951,-0.305,0.488,295.522
126752,157114,11330,-0.062,1.019,0.294,-1.951,-0.305,0.488,295.526
126752,157085,11421,-0.059,1.009,0.305,-1.951,-0.915,0.366,295.532
126776,157114,11330,-0.059,1.009,0.305,-1.951,-0.915,0.366,295.536
126776,157089,11423,-0.06,1,0.304,-1.524,-0.366,0.244,295.542
126769,157114,11330,-0.06,1,0.304,-1.524,-0.366,0.244,295.545
126769,157087,11419,-0.06,1.009,0.3,-0.793,0.61,-0.305,295.552
126742,157114,11330,-0.06,1.009,0.3,-0.793,0.61,-0.305,295.555
126742,157093,11407,-0.06,1,0.281,-1.341,0.793,-0.549,295.562
126740,157114,11330,-0.06,1,0.281,-1.341,0.793,-0.549,295.565
126740,157075,11403,-0.061,0.987,0.282,-2.805,0.183,-0.549,295.571
126702,157114,11330,-0.061,0.987,0.282,-2.805,0.183,-0.549,295.575
126702,157053,11402,-0.06,0.981,0.287,-3.354,-0.488,-0.122,295.581
126676,157114,11330,-0.06,0.981,0.287,-3.354,-0.488,-0.122,295.585
126676,157066,11396,-0.055,0.983,0.291,-2.378,-1.159,0.305,295.591
126683,157114,11330,-0.053,0.983,0.292,-2.378,-1.159,0.305,295.595
126683,157023,11415,-0.051,0.992,0.3,-0.915,-1.402,0.61,295.601
126657,157114,11330,-0.053,1.007,0.304,-0.915,-1.402,0.61,295.605
126657,157009,11402,-0.052,1.011,0.305,-0.244,-0.793,0.793,295.611
126640,157114,11330,-0.052,1.01,0.312,-0.244,-0.793,0.793,295.615
126640,156987,11396,-0.054,1.013,0.318,-0.488,-0.61,0.61,295.621
126627,157114,11330,-0.056,1.009,0.32,-0.488,-0.61,0.61,295.625
126627,156978,11384,-0.059,1.008,0.314,-1.524,-0.793,0.427,295.631
126580,157114,11330,-0.058,1.007,0.314,-1.524,-0.793,0.427,295.635
126580,156962,11381,-0.056,1.01,0.314,-2.256,-0.366,0.427,295.641
126575,157114,11330,-0.058,1.011,0.311,-2.256,-0.366,0.427,295.644
126575,156956,11394,-0.058,1.009,0.303,-2.378,0.244,0.244,295.651
126573,157114,11330,-0.062,1.002,0.302,-2.378,0.244,0.244,295.654
126573,156946,11407,-0.063,0.996,0.299,-2.134,0.488,0.183,295.661
126563,156858,11330,-0.064,0.994,0.293,-2.134,0.488,0.183,295.664
126563,156920,11383,-0.067,0.994,0.292,-2.134,0.427,0.122,295.67
126532,157114,11330,-0.066,0.996,0.294,-2.134,0.427,0.122,295.674
126532,156945,11377,-0.063,0.999,0.291,-1.159,0.366,0.305,295.68
126549,156858,11330,-0.063,0.998,0.289,-1.159,0.366,0.305,295.684
126549,156912,11390,-0.062,1.004,0.29,-0.244,0.366,0.366,295.69
126526,156858,11330,-0.063,1.008,0.295,-0.244,0.366,0.366,295.694
126526,156917,11376,-0.064,1.004,0.3,-0.305,0.244,0.488,295.7
126497,156858,11330,-0.064,0.998,0.298,-0.305,0.244,0.488,295.704
126497,156874,11385,-0.058,1.001,0.296,-1.098,-0.183,0.488,295.71
126433,156858,11330,-0.058,1.001,0.305,-1.098,-0.183,0.488,295.714
126433,156838,11368,-0.056,0.998,0.316,-1.524,-0.488,0.671,295.72
126356,156858,11330,-0.053,0.999,0.317,-1.524,-0.488,0.671,295.724
126356,156766,11353,-0.051,1.002,0.316,-0.793,-0.366,0.732,295.73
126282,156858,11330,-0.053,1.003,0.316,-0.793,-0.366,0.732,295.734
126282,156703,11344,-0.055,1.005,0.31,-0.427,0.549,0.427,295.74
126225,156602,11330,-0.061,1.009,0.307,-0.427,0.549,0.427,295.743
126225,156659,11331,-0.061,1.01,0.305,-0.732,1.037,0.366,295.75
126184,156602,11330,-0.059,1.002,0.299,-0.732,1.037,0.366,295.753
126184,156589,11347,-0.057,0.991,0.299,-1.28,0.366,0.061,295.76
126107,156602,11330,-0.056,0.984,0.304,-1.28,0.366,0.061,295.763
126107,156528,11312,-0.059,0.987,0.3,-1.159,0.122,0.305,295.769
126094,156602,11330,-0.059,0.993,0.294,-1.159,0.122,0.305,295.773
126094,156529,11319,-0.06,0.997,0.297,-0.61,0.549,0.671,295.779
126110,156602,11330,-0.057,1.001,0.294,-0.61,0.549,0.671,295.783
126110,156536,11321,-0.056,1.007,0.295,-0.549,0.488,0.671,295.789
126088,156602,11330,-0.056,1.011,0.298,-0.549,0.488,0.671,295.793
126088,156515,11312,-0.055,1.014,0.309,-2.134,0.061,0.915,295.799
126071,156602,11330,-0.057,1.012,0.307,-2.134,0.061,0.915,295.803
126071,156488,11318,-0.056,1.005,0.302,-3.11,0.061,0.854,295.809
126076,156602,11330,-0.058,1.002,0.292,-3.11,0.061,0.854,295.813
126076,156491,11313,-0.06,1.002,0.298,-3.171,0.122,0.732,295.819
126068,156602,11330,-0.061,1.008,0.304,-3.171,0.122,0.732,295.823
126068,156523,11322,-0.058,1.001,0.302,-2.256,0,0.732,295.829
126069,156602,11330,-0.058,0.996,0.303,-2.256,0,0.732,295.833
126069,156509,11320,-0.058,0.996,0.304,-0.488,0.244,0.549,295.839
126087,156602,11330,-0.058,1.005,0.306,-0.488,0.244,0.549,295.842
126087,156540,11312,-0.062,1.01,0.303,0.488,0.854,0.488,295.849
126059,156602,11330,-0.063,1.013,0.303,0.488,0.854,0.488,295.852
