128905,157917,11498,-0.085,1.009,0.201,-1.524,1.524,0.244,502.737
128913,157882,11330,-0.085,0.998,0.204,-1.524,1.524,0.244,502.741
128913,157902,11486,-0.082,0.998,0.219,-1.585,-0.793,0.671,502.747
128871,157882,11330,-0.076,1.01,0.226,-1.585,-0.793,0.671,502.75
128871,157796,11512,-0.073,1.024,0.235,-1.098,-1.951,1.037,502.757
128824,157882,11330,-0.072,1.019,0.24,-1.098,-1.951,1.037,502.76
128824,157785,11481,-0.076,1.016,0.245,0.122,-1.463,0.793,502.767
128826,157882,11330,-0.078,1.017,0.249,0.122,-1.463,0.793,502.77
128826,157745,11511,-0.081,1.021,0.246,0.915,-0.549,0.671,502.776
128813,157882,11330,-0.083,1.021,0.249,0.915,-0.549,0.671,502.78
128813,157733,11494,-0.081,1.026,0.256,1.646,-0.305,0.488,502.786
128804,157882,11330,-0.083,1.035,0.262,1.646,-0.305,0.488,502.79
128804,157706,11485,-0.082,1.035,0.265,0.854,-0.122,0.366,502.796
128802,157882,11330,-0.08,1.026,0.257,0.854,-0.122,0.366,502.8
128802,157698,11497,-0.08,1.02,0.251,-0.732,0.061,0.305,502.806
128768,157626,11330,-0.075,1.014,0.246,-0.732,0.061,0.305,502.81
128768,157688,11500,-0.076,1.007,0.232,-1.585,0.122,0.061,502.816
128765,157626,11330,-0.072,1.007,0.221,-1.585,0.122,0.061,502.82
128765,157673,11487,-0.077,1.009,0.223,-1.89,0.305,0.183,502.826
128761,157626,11330,-0.077,1.01,0.224,-1.89,0.305,0.183,502.83
128761,157662,11495,-0.075,1.007,0.224,-1.585,0.244,0.488,502.836
128766,157626,11330,-0.076,1.01,0.223,-1.585,0.244,0.488,502.84
128766,157685,11482,-0.075,1.013,0.229,-1.402,-0.366,0.854,502.846
128754,157626,11330,-0.074,1.011,0.241,-1.402,-0.366,0.854,502.849
128754,157638,11494,-0.071,1.012,0.244,-1.22,-0.915,1.28,502.856
128756,157626,11330,-0.067,1.012,0.244,-1.22,-0.915,1.28,502.859
128756,157655,11500,-0.064,1.011,0.249,-0.488,-0.244,1.585,502.866
128733,157626,11330,-0.07,1.014,0.252,-0.488,-0.244,1.585,502.869
128733,157631,11486,-0.072,1.024,0.257,0.061,0.793,1.829,502.875
128712,157626,11330,-0.072,1.024,0.258,0.061,0.793,1.829,502.879
128712,157619,11495,-0.075,1.019,0.255,-0.244,0.976,1.829,502.885
128734,157626,11330,-0.075,1.019,0.255,-0.244,0.976,1.829,502.889
128734,157602,11504,-0.075,1.002,0.254,-0.122,0.915,1.646,502.895
128707,157626,11330,-0.075,1.002,0.254,-0.122,0.915,1.646,502.899
128707,157632,11479,-0.079,1.008,0.243,0.854,1.159,1.402,502.905
128714,157626,11330,-0.079,1.008,0.243,0.854,1.159,1.402,502.909
128714,157626,11494,-0.08,1.018,0.243,2.195,1.28,1.402,502.915
128746,157626,11330,-0.08,1.018,0.243,2.195,1.28,1.402,502.919
128746,157610,11483,-0.081,1.029,0.24,1.402,1.22,1.22,502.925
128734,157626,11330,-0.081,1.029,0.24,1.402,1.22,1.22,502.929
128734,157638,11496,-0.078,1.019,0.211,-0.854,0.915,0.854,502.935
128736,157626,11330,-0.078,1.019,0.211,-0.854,0.915,0.854,502.939
128736,157613,11487,-0.082,1.016,0.216,-2.744,-0.305,0.915,502.945
128734,157626,11330,-0.082,1.016,0.216,-2.744,-0.305,0.915,502.948
128734,157652,11498,-0.07,1.005,0.236,-0.915,-2.378,0.976,502.955
128739,157626,11330,-0.07,1.005,0.236,-0.915,-2.378,0.976,502.958
128739,157648,11489,-0.067,1.034,0.238,1.646,-2.073,0.793,502.965
128727,157626,11330,-0.067,1.034,0.238,1.646,-2.073,0.793,502.968
128727,157649,11486,-0.073,1.046,0.249,2.195,0.122,0.488,502.974
128719,157626,11330,-0.073,1.046,0.249,2.195,0.122,0.488,502.978
128719,157633,11483,-0.077,1.024,0.24,1.463,0.61,-0.061,502.984
128727,157626,11330,-0.077,1.024,0.24,1.463,0.61,-0.061,502.988
128727,157647,11487,-0.078,1.017,0.249,-0.488,0.061,0.122,502.994
128713,157626,11330,-0.078,1.017,0.249,-0.488,0.061,0.122,502.998
128713,157637,11501,-0.077,1.012,0.248,-1.098,0.061,0.244,503.004
128720,157626,11330,-0.077,1.012,0.248,-1.098,0.061,0.244,503.008
128720,157609,11493,-0.072,1.006,0.248,-0.183,0.61,0.427,503.014
128713,157626,11330,-0.072,1.006,0.248,-0.183,0.61,0.427,503.018
128713,157594,11485,-0.068,1.008,0.239,0.122,1.341,0.549,503.024
128713,157626,11330,-0.068,1.008,0.239,0.122,1.341,0.549,503.028
128713,157593,11471,-0.069,1.008,0.233,0.122,1.341,0.549,503.034
128684,157626,11330,-0.075,1.011,0.226,-0.244,1.402,0.732,503.038
128684,157600,11488,-0.076,1.015,0.225,-0.244,1.402,0.732,503.044
128712,157626,11330,-0.076,1.011,0.23,-1.098,0.488,0.976,503.047
128712,157574,11492,-0.073,1.01,0.234,-1.098,0.488,0.976,503.054
128688,157626,11330,-0.066,1.009,0.234,-0.366,-0.854,1.159,503.057
128688,157581,11477,-0.063,1.015,0.237,-0.366,-0.854,1.159,503.063
128666,157626,11330,-0.065,1.023,0.239,0.427,-0.61,1.22,503.067
128666,157595,11478,-0.068,1.034,0.239,0.427,-0.61,1.22,503.073
128662,157626,11330,-0.072,1.034,0.24,0.183,0.305,0.915,503.077
128662,157617,11489,-0.079,1.029,0.246,0.183,0.305,0.915,503.083
128667,157626,11330,-0.079,1.026,0.25,-0.061,0.061,0.488,503.087
128667,157588,11466,-0.076,1.024,0.255,-0.061,0.061,0.488,503.093
128663,157626,11330,-0.075,1.026,0.257,-0.244,-0.244,0.305,503.097
128663,157555,11470,-0.075,1.023,0.259,-0.244,-0.244,0.305,503.103
128633,157626,11330,-0.077,1.019,0.253,-0.305,0.671,0.122,503.107
128633,157550,11478,-0.08,1.016,0.242,-0.305,0.671,0.122,503.113
128643,157626,11330,-0.086,1.014,0.24,-0.549,1.829,-0.122,503.117
128643,157519,11478,-0.088,1.011,0.236,-0.549,1.829,-0.122,503.123
128630,157626,11330,-0.088,1.009,0.234,-0.732,1.585,-0.244,503.127
128630,157527,11487,-0.08,1.008,0.241,-0.732,1.585,-0.244,503.133
128620,157626,11330,-0.079,1.003,0.245,-0.244,0.732,0.061,503.137
128620,157536,11497,-0.077,1.006,0.237,-0.244,0.732,0.061,503.143
128635,157626,11330,-0.073,1.017,0.232,-0.488,0.854,0.366,503.146
128635,157521,11484,-0.072,1.016,0.229,-0.488,0.854,0.366,503.153
128605,157626,11330,-0.07,1.01,0.227,-0.854,1.159,0.488,503.156
128605,157492,11476,-0.071,1.016,0.228,-0.854,1.159,0.488,503.163
128623,157626,11330,-0.072,1.019,0.232,-1.524,0.671,0.793,503.166
128623,157469,11481,-0.071,1.012,0.239,-1.524,0.671,0.793,503.172
128587,157626,11330,-0.073,1.007,0.242,-1.89,-0.061,1.159,503.176
128587,157486,11460,-0.071,1.006,0.243,-1.89,-0.061,1.159,503.182
128589,157626,11330,-0.072,1.006,0.253,-2.256,0.122,1.341,503.186
128589,157486,11483,-0.071,1.008,0.265,-2.256,0.122,1.341,503.192
128597,157626,11330,-0.075,1.014,0.26,-3.232,1.037,1.768,503.196
128597,157461,11484,-0.077,1.017,0.253,-3.232,1.037,1.768,503.202
128577,157626,11330,-0.078,1.018,0.253,-5.183,1.524,2.073,503.206
128577,157486,11477,-0.077,1.019,0.249,-5.183,1.524,2.073,503.212
128601,157626,11330,-0.076,1.018,0.238,-7.805,1.524,2.134,503.216
128601,157467,11492,-0.074,1.01,0.232,-7.805,1.524,2.134,503.222
128578,157370,11330,-0.077,1.006,0.219,-11.159,1.037,2.439,503.226
128578,157431,11480,-0.079,1.017,0.215,-11.159,1.037,2.439,503.232
128597,157626,11330,-0.083,1.03,0.227,-14.634,0.061,2.988,503.236
128597,157466,11478,-0.082,1.032,0.244,-14.634,0.061,2.988,503.242
128590,157626,11330,-0.08,1.019,0.253,-15.183,-2.012,3.11,503.245
128590,157460,11474,-0.072,1.002,0.258,-15.183,-2.012,3.11,503.252
128581,157626,11330,-0.061,0.99,0.247,-11.341,-2.988,2.683,503.255
128581,157447,11480,-0.061,0.988,0.24,-11.341,-2.988,2.683,503.261
128601,157626,11330,-0.062,0.999,0.24,-5.793,-1.402,2.073,503.265
128601,157442,11481,-0.064,1.02,0.247,-5.793,-1.402,2.073,503.271
128598,157370,11330,-0.071,1.034,0.26,-0.427,0.549,1.768,503.275
128598,157398,11480,-0.075,1.046,0.27,-0.427,0.549,1.768,503.281
128578,157370,11330,-0.072,1.05,0.271,2.378,1.098,0.976,503.285
128578,157411,11474,-0.067,1.043,0.275,2.378,1.098,0.976,503.291
128586,157370,11330,-0.067,1.034,0.287,2.622,0.61,0.488,503.295
128586,157412,11469,-0.065,1.023,0.288,2.622,0.61,0.488,503.301
128587,157370,11330,-0.058,1.019,0.277,1.341,0.976,0.244,503.305
128587,157404,11485,-0.062,1.014,0.258,1.341,0.976,0.244,503.311
128584,157370,11330,-0.067,1.016,0.241,-0.061,2.622,-0.183,503.315
128584,157380,11476,-0.07,1.014,0.217,-0.061,2.622,-0.183,503.321
128601,157370,11330,-0.073,1.013,0.199,-0.488,3.476,-0.488,503.325
128601,157343,11481,-0.08,1.013,0.191,-0.488,3.476,-0.488,503.331
128569,157370,11330,-0.08,1.007,0.199,-0.61,1.951,-0.366,503.335
128569,157362,11469,-0.078,1,0.216,-0.61,1.951,-0.366,503.341
128560,157370,11330,-0.072,1.003,0.227,-0.427,-0.854,0.244,503.344
128560,157347,11474,-0.069,1.007,0.242,-0.427,-0.854,0.244,503.351
128532,157370,11330,-0.068,1.014,0.254,-0.732,-2.195,0.61,503.354
128532,157331,11476,-0.066,1.019,0.264,-0.732,-2.195,0.61,503.36
128553,157370,11330,-0.071,1.023,0.271,-0.915,-1.524,0.61,503.364
128553,157345,11478,-0.075,1.024,0.278,-0.915,-1.524,0.61,503.37
128560,157370,11330,-0.073,1.015,0.284,-0.854,-0.915,0.549,503.374
128560,157347,11468,-0.07,1.004,0.277,-0.854,-0.915,0.549,503.38
128560,157370,11330,-0.071,1.006,0.266,-1.037,0.122,0.488,503.384
128560,157333,11475,-0.073,1.012,0.259,-1.037,0.122,0.488,503.39
128534,157370,11330,-0.073,1.009,0.251,-1.341,1.22,0.549,503.394
128534,157311,11472,-0.074,1.003,0.245,-1.341,1.22,0.549,503.4
128531,157370,11330,-0.077,0.994,0.24,-0.915,1.341,0.732,503.404
128531,157299,11470,-0.075,0.99,0.237,-0.915,1.341,0.732,503.41
128533,157370,11330,-0.075,0.999,0.24,-1.098,0.854,1.159,503.414
128533,157329,11454,-0.077,1.014,0.241,-1.098,0.854,1.159,503.42
128527,157370,11330,-0.071,1.018,0.253,-0.854,0.183,1.707,503.424
128527,157307,11476,-0.066,1.017,0.26,-0.854,0.183,1.707,503.43
128529,157370,11330,-0.061,1.021,0.264,0.732,-0.122,1.646,503.434
128529,157283,11471,-0.059,1.036,0.26,0.732,-0.122,1.646,503.44
128510,157370,11330,-0.062,1.048,0.25,-0.366,0.549,1.28,503.443
128510,157311,11476,-0.065,1.054,0.245,-0.366,0.549,1.28,503.45
128506,157370,11330,-0.068,1.046,0.251,-2.073,0.915,0.61,503.453
128506,157283,11484,-0.068,1.034,0.259,-2.073,0.915,0.61,503.459
128503,157370,11330,-0.068,1.029,0.264,-2.439,-0.244,0,503.463
128503,157306,11464,-0.07,1.029,0.269,-2.439,-0.244,0,503.469
128502,157370,11330,-0.07,1.029,0.269,-2.439,-0.244,0,503.473
128502,157330,11471,-0.065,1.023,0.269,-2.256,-0.61,-0.61,503.479
128490,157370,11330,-0.065,1.023,0.269,-2.256,-0.61,-0.61,503.483
128490,157352,11459,-0.073,1.015,0.248,-1.341,0.732,-1.28,503.489
128498,157370,11330,-0.073,1.015,0.248,-1.341,0.732,-1.28,503.493
128498,157365,11466,-0.083,0.99,0.239,-1.524,1.951,-1.524,503.499
128520,157370,11330,-0.083,0.99,0.239,-1.524,1.951,-1.524,503.503
128520,157373,11473,-0.078,0.974,0.227,-1.037,1.159,-1.463,503.509
128550,157370,11330,-0.078,0.974,0.227,-1.037,1.159,-1.463,503.513
128550,157376,11468,-0.071,0.982,0.241,0.183,-0.244,-0.732,503.519
128534,157370,11330,-0.071,0.982,0.241,0.183,-0.244,-0.732,503.523
128534,157400,11466,-0.071,0.989,0.251,2.683,-0.305,0.427,503.529
128543,157370,11330,-0.071,0.989,0.251,2.683,-0.305,0.427,503.533
128543,157407,11468,-0.071,1.02,0.249,4.878,0.427,0.915,503.539
128524,157370,11330,-0.071,1.02,0.249,4.878,0.427,0.915,503.542
128524,157369,11474,-0.074,1.026,0.263,3.902,0.366,0.976,503.549
128498,157370,11330,-0.074,1.026,0.263,3.902,0.366,0.976,503.552
128498,157332,11463,-0.069,1.015,0.258,2.195,-0.671,1.037,503.558
128492,157370,11330,-0.069,1.015,0.258,2.195,-0.671,1.037,503.562
128492,157325,11456,-0.073,1.025,0.25,-0.976,-0.793,0.915,503.568
128494,157370,11330,-0.073,1.025,0.25,-0.976,-0.793,0.915,503.572
128494,157312,11473,-0.075,1.011,0.267,-3.293,-0.427,0.732,503.578
128488,157370,11330,-0.075,1.011,0.267,-3.293,-0.427,0.732,503.582
128488,157282,11485,-0.06,1.001,0.257,-2.622,-1.28,0.671,503.588
128478,157370,11330,-0.06,1.001,0.257,-2.622,-1.28,0.671,503.592
128478,157255,11478,-0.066,1.024,0.258,-1.829,-0.854,0.671,503.598
128470,157114,11330,-0.066,1.024,0.258,-1.829,-0.854,0.671,503.602
128470,157174,11473,-0.07,1.017,0.267,-0.854,0.61,0.61,503.608
128432,157114,11330,-0.07,1.017,0.267,-0.854,0.61,0.61,503.612
128432,157098,11471,-0.067,1.005,0.264,0.305,0.61,0.427,503.618
128410,157114,11330,-0.069,1.006,0.254,0.305,0.61,0.427,503.622
128410,157096,11461,-0.068,1.012,0.251,-0.488,0.61,0.549,503.628
128401,157114,11330,-0.071,1.008,0.245,-0.488,0.61,0.549,503.631
128401,157102,11478,-0.072,0.999,0.241,0.183,1.28,0.793,503.638
128401,157114,11330,-0.068,1,0.238,0.183,1.28,0.793,503.641
128401,157089,11461,-0.071,1.004,0.239,2.317,1.28,0.976,503.648
128405,157114,11330,-0.074,1.013,0.248,2.317,1.28,0.976,503.651
128405,157104,11460,-0.075,1.031,0.256,3.049,0.976,1.28,503.657
128384,157114,11330,-0.073,1.036,0.26,3.049,0.976,1.28,503.661
128384,157063,11465,-0.073,1.035,0.265,2.195,0.793,1.28,503.667
128389,157114,11330,-0.073,1.029,0.264,2.195,0.793,1.28,503.671
128389,157050,11467,-0.071,1.019,0.26,1.037,0.732,0.976,503.677
128380,157114,11330,-0.068,1.009,0.254,1.037,0.732,0.976,503.681
128380,157018,11476,-0.067,1.011,0.245,0.61,1.159,0.671,503.687
128356,157114,11330,-0.071,1.015,0.246,0.61,1.159,0.671,503.691
128356,156984,11451,-0.073,1.018,0.25,1.22,1.585,0.488,503.697
128333,157114,11330,-0.072,1.018,0.257,1.22,1.585,0.488,503.701
128333,156963,11440,-0.068,1.02,0.261,2.012,1.22,0.122,503.707
128333,157114,11330,-0.068,1.018,0.256,2.012,1.22,0.122,503.711
128333,156973,11460,-0.07,1.02,0.248,0.854,1.22,0.061,503.717
128286,156858,11330,-0.071,1.022,0.248,0.854,1.22,0.061,503.721
128286,156893,11449,-0.071,1.013,0.246,-0.854,1.098,-0.061,503.727
128227,156858,11330,-0.071,1.004,0.236,-0.854,1.098,-0.061,503.73
128227,156825,11446,-0.07,1.001,0.228,-1.585,0.671,-0.122,503.737
128228,156858,11330,-0.073,1.006,0.235,-1.585,0.671,-0.122,503.74
128228,156776,11460,-0.069,1,0.24,-0.793,0.122,0.122,503.747
128210,156858,11330,-0.067,1,0.24,-0.793,0.122,0.122,503.75
128210,156793,11447,-0.071,1.015,0.242,1.037,-0.122,0.427,503.756
128178,156858,11330,-0.07,1.029,0.248,1.037,-0.122,0.427,503.76
128178,156751,11466,-0.071,1.027,0.256,1.402,0.122,0.427,503.766
128158,156602,11330,-0.068,1.022,0.258,1.402,0.122,0.427,503.77
128158,156655,11444,-0.067,1.021,0.256,1.829,0.061,0.244,503.776
128127,156602,11330,-0.067,1.023,0.252,1.829,0.061,0.244,503.78
128127,156587,11441,-0.068,1.022,0.255,1.037,0.549,0,503.786
128124,156602,11330,-0.071,1.014,0.254,1.037,0.549,0,503.79
128124,156555,11447,-0.075,1.009,0.255,0.732,0.976,-0.183,503.796
128170,156602,11330,-0.073,1.009,0.256,0.732,0.976,-0.183,503.8
128170,156597,11434,-0.073,1.001,0.257,1.159,0.854,0,503.806
128158,156602,11330,-0.071,0.999,0.255,1.159,0.854,0,503.81
128158,156571,11442,-0.073,1.008,0.25,1.829,1.341,0.183,503.816
128117,156602,11330,-0.074,1.018,0.242,1.829,1.341,0.183,503.82
128117,156569,11444,-0.068,1.018,0.24,1.646,1.646,0.305,503.826
128124,156602,11330,-0.07,1.011,0.242,1.646,1.646,0.305,503.829
128124,156542,11426,-0.07,1.009,0.24,1.22,1.037,0.366,503.836
128117,156602,11330,-0.068,1.016,0.238,1.22,1.037,0.366,503.839
128117,156536,11427,-0.066,1.024,0.232,-0.854,0.61,0.915,503.846
128134,156602,11330,-0.07,1.019,0.235,-0.854,0.61,0.915,503.849
128134,156510,11433,-0.068,1.01,0.245,-1.829,0.244,1.037,503.855
128103,156602,11330,-0.067,1.005,0.242,-1.829,0.244,1.037,503.859
128103,156559,11441,-0.068,1.009,0.245,-1.585,-0.305,1.098,503.865
128117,156602,11330,-0.068,1.015,0.253,-1.585,-0.305,1.098,503.869
128117,156555,11445,-0.069,1.022,0.259,-0.793,0.122,1.098,503.875
128101,156602,11330,-0.07,1.026,0.265,-0.793,0.122,1.098,503.879
128101,156498,11445,-0.069,1.026,0.261,-0.488,0.61,0.732,503.885
128084,156602,11330,-0.074,1.023,0.262,-0.488,0.61,0.732,503.889
128084,156495,11446,-0.077,1.02,0.263,-1.768,0.854,0.488,503.895
128072,156602,11330,-0.073,1.014,0.261,-1.768,0.854,0.488,503.899
128072,156469,11448,-0.077,1.012,0.261,-3.049,0.732,0.366,503.905
128080,156602,11330,-0.077,1.007,0.263,-3.049,0.732,0.366,503.909
128080,156474,11441,-0.074,1.004,0.27,-2.561,0.488,0.366,503.915
128054,156602,11330,-0.075,1.005,0.264,-2.561,0.488,0.366,503.919
128054,156424,11455,-0.072,1.007,0.252,-1.646,0.915,0.366,503.925
128069,156602,11330,-0.071,1.011,0.24,-1.646,0.915,0.366,503.928
128069,156422,11436,-0.075,1.014,0.224,-1.707,1.707,0.305,503.935
128042,156346,11330,-0.079,1.031,0.203,-1.707,1.707,0.305,503.938
128042,156405,11441,-0.082,1.034,0.21,-3.232,1.037,0.244,503.945
128032,156346,11330,-0.075,1.013,0.226,-3.232,1.037,0.244,503.948
128032,156409,11429,-0.069,1.003,0.243,-2.195,-1.768,0.366,503.954
128018,156346,11330,-0.061,1.002,0.244,-2.195,-1.768,0.366,503.958
128018,156401,11419,-0.058,1.006,0.245,-0.793,-2.5,0.61,503.964
128030,156346,11330,-0.066,1.02,0.247,-0.793,-2.5,0.61,503.968
128030,156364,11425,-0.066,1.029,0.253,0.183,-0.061,0.488,503.974
128019,156346,11330,-0.071,1.03,0.261,0.183,-0.061,0.488,503.978
128019,156372,11425,-0.076,1.021,0.266,0.793,0.976,0.305,503.984
128042,156346,11330,-0.078,1.016,0.269,0.793,0.976,0.305,503.988
128042,156376,11426,-0.08,1.011,0.269,-0.305,0.305,0.427,503.994
128034,156346,11330,-0.078,1.011,0.27,-0.305,0.305,0.427,503.998
128034,156379,11439,-0.071,1.005,0.273,-0.793,-0.061,0.427,504.004
128027,156346,11330,-0.061,1.002,0.272,-0.793,-0.061,0.427,504.008
128027,156351,11435,-0.064,1.007,0.265,-0.427,0.915,0.488,504.014
128019,156346,11330,-0.068,1.013,0.262,-0.427,0.915,0.488,504.018
128019,156332,11431,-0.069,1.007,0.257,0.244,2.073,0.549,504.024
128019,156346,11330,-0.067,0.999,0.253,0.244,2.073,0.549,504.027
128019,156314,11429,-0.067,1,0.245,1.707,2.317,0.427,504.034
128009,156346,11330,-0.07,1.011,0.235,1.707,2.317,0.427,504.037
128009,156324,11426,-0.075,1.019,0.23,1.098,2.256,0.671,504.044
127994,156346,11330,-0.07,1.023,0.231,1.098,2.256,0.671,504.047
127994,156324,11435,-0.069,1.022,0.227,0.244,1.159,0.671,504.053
128026,156346,11330,-0.069,1.022,0.227,0.244,1.159,0.671,504.057
128026,156305,11415,-0.064,1.01,0.226,0.122,-0.122,0.549,504.063
128010,156346,11330,-0.064,1.01,0.226,0.122,-0.122,0.549,504.067
128010,156283,11433,-0.07,1.039,0.242,-0.488,-0.549,0.61,504.073
128003,156346,11330,-0.07,1.039,0.242,-0.488,-0.549,0.61,504.077
128003,156293,11433,-0.071,1.024,0.25,0.976,-0.732,0.122,504.083
128022,156346,11330,-0.071,1.024,0.25,0.976,-0.732,0.122,504.087
128022,156295,11429,-0.074,1.034,0.251,0.976,0.061,-0.244,504.093
128007,156346,11330,-0.074,1.034,0.251,0.976,0.061,-0.244,504.097
128007,156282,11440,-0.078,1.031,0.261,-0.61,0.61,-0.427,504.103
127994,156346,11330,-0.078,1.031,0.261,-0.61,0.61,-0.427,504.107
127994,156259,11433,-0.075,1.011,0.279,-0.854,0.122,-0.671,504.113
127995,156346,11330,-0.075,1.011,0.279,-0.854,0.122,-0.671,504.117
127995,156220,11427,-0.061,1.004,0.272,-0.61,0.305,-0.366,504.123
127990,156346,11330,-0.061,1.004,0.272,-0.61,0.305,-0.366,504.126
127990,156221,11428,-0.064,1.021,0.24,-0.915,2.378,-0.549,504.133
127986,156346,11330,-0.064,1.021,0.24,-0.915,2.378,-0.549,504.136
127986,156226,11435,-0.07,1.001,0.226,-0.61,2.988,-1.037,504.142
127980,156346,11330,-0.07,1.001,0.226,-0.61,2.988,-1.037,504.146
127980,156239,11414,-0.067,0.99,0.218,0.061,1.402,-0.61,504.152
127994,156346,11330,-0.067,0.99,0.218,0.061,1.402,-0.61,504.156
127994,156257,11436,-0.063,1.005,0.226,0.488,0.122,0.244,504.162
127982,156346,11330,-0.063,1.005,0.226,0.488,0.122,0.244,504.166
127982,156243,11428,-0.065,1.01,0.231,2.256,-0.061,0.61,504.172
127991,156346,11330,-0.065,1.01,0.231,2.256,-0.061,0.61,504.176
127991,156246,11427,-0.074,1.027,0.257,2.256,-0.183,1.037,504.182
127974,156346,11330,-0.074,1.027,0.257,2.256,-0.183,1.037,504.186
127974,156268,11422,-0.073,1.017,0.273,2.683,-0.122,1.098,504.192
128018,156346,11330,-0.073,1.017,0.273,2.683,-0.122,1.098,504.196
128018,156276,11427,-0.077,1.02,0.266,2.683,-0.122,1.098,504.202
127999,156346,11330,-0.08,1.025,0.26,1.402,1.098,1.037,504.206
127999,156236,11434,-0.085,1.025,0.261,1.402,1.098,1.037,504.212
127950,156090,11330,-0.087,1.024,0.267,-0.244,1.768,0.915,504.216
127950,156153,11452,-0.085,1.018,0.263,-0.244,1.768,0.915,504.222
127945,156090,11330,-0.078,1.011,0.259,-0.61,1.22,0.732,504.225
127945,156124,11434,-0.072,1.005,0.251,-0.61,1.22,0.732,504.232
127954,156346,11330,-0.07,1.004,0.248,0.305,1.463,0.427,504.235
127954,156161,11425,-0.07,1.004,0.241,0.305,1.463,0.427,504.242
127958,156090,11330,-0.072,1.012,0.235,0.976,2.561,0.488,504.245
127958,156147,11434,-0.075,1.015,0.229,0.976,2.561,0.488,504.251
127967,156090,11330,-0.073,1.011,0.229,0.854,2.317,0.366,504.255
127967,156092,11440,-0.071,1.007,0.231,0.854,2.317,0.366,504.261
127957,156090,11330,-0.067,1.005,0.232,0.427,0.427,0.366,504.265
127957,156066,11431,-0.063,1.008,0.23,0.427,0.427,0.366,504.271
127939,156090,11330,-0.058,1.012,0.237,0.366,-0.915,0.671,504.275
127939,156072,11438,-0.058,1.015,0.25,0.366,-0.915,0.671,504.281
127953,156090,11330,-0.057,1.016,0.262,1.951,-1.22,0.488,504.285
127953,156070,11425,-0.061,1.019,0.267,1.951,-1.22,0.488,504.291
127920,156090,11330,-0.064,1.025,0.266,2.622,-0.305,0.183,504.295
127920,156019,11429,-0.072,1.029,0.264,2.622,-0.305,0.183,504.301
127903,156090,11330,-0.077,1.031,0.259,1.28,0.915,-0.122,504.305
127903,156036,11450,-0.081,1.027,0.254,1.28,0.915,-0.122,504.311
127909,156090,11330,-0.08,1.015,0.253,-0.427,0.854,-0.305,504.315
127909,155979,11434,-0.08,1.007,0.253,-0.427,0.854,-0.305,504.321
127875,156090,11330,-0.078,1.006,0.254,-1.524,0.244,-0.061,504.324
127875,155935,11430,-0.074,1.009,0.252,-1.524,0.244,-0.061,504.331
127867,155834,11330,-0.069,1.01,0.247,-1.524,0.305,0.122,504.334
127867,155896,11446,-0.072,1.007,0.23,-1.524,0.305,0.122,504.34
127850,155834,11330,-0.075,1.01,0.218,-0.915,1.341,0.061,504.344
127850,155882,11434,-0.079,1.018,0.215,-0.915,1.341,0.061,504.35
127852,155834,11330,-0.079,1.014,0.225,-0.427,1.037,0.061,504.354
127852,155878,11425,-0.075,1.012,0.24,-0.427,1.037,0.061,504.36
127855,155834,11330,-0.067,1.008,0.249,0.427,-1.159,0.183,504.364
127855,155876,11430,-0.063,1.012,0.251,0.427,-1.159,0.183,504.37
127817,155834,11330,-0.062,1.02,0.248,0.976,-1.585,0.305,504.374
127817,155877,11435,-0.063,1.025,0.25,0.976,-1.585,0.305,504.38
127864,155834,11330,-0.066,1.023,0.253,1.402,0,0.183,504.384
127864,155865,11410,-0.073,1.025,0.26,1.402,0,0.183,504.39
127861,156090,11330,-0.074,1.028,0.262,1.159,0.305,-0.061,504.394
127861,155915,11447,-0.077,1.023,0.265,1.159,0.305,-0.061,504.4
127876,155834,11330,-0.077,1.014,0.266,0.488,-0.183,-0.305,504.404
127876,155901,11421,-0.071,1.009,0.262,0.488,-0.183,-0.305,504.41
127834,155834,11330,-0.071,1.011,0.256,0.183,0.488,-0.549,504.414
127834,155856,11434,-0.075,1.013,0.253,0.183,0.488,-0.549,504.42
127826,155834,11330,-0.079,1.006,0.257,-0.854,1.098,-0.366,504.423
127826,155810,11419,-0.075,1.004,0.256,-0.854,1.098,-0.366,504.43
127777,155834,11330,-0.073,1,0.246,-1.524,0.671,-0.244,504.433
127777,155750,11435,-0.072,0.998,0.238,-1.524,0.671,-0.244,504.439
127796,155834,11330,-0.071,1.003,0.225,-1.829,0.366,0.061,504.443
127796,155733,11422,-0.072,1.01,0.219,-1.829,0.366,0.061,504.449
127751,155834,11330,-0.069,1.016,0.223,-1.463,0.244,0.549,504.453
127751,155747,11434,-0.069,1.014,0.23,-1.463,0.244,0.549,504.459
127762,155834,11330,-0.066,1.016,0.233,-0.732,-0.488,0.732,504.463
127762,155771,11427,-0.066,1.019,0.232,-0.732,-0.488,0.732,504.469
127796,155834,11330,-0.068,1.027,0.233,-1.098,-0.976,0.854,504.473
127796,155784,11420,-0.071,1.03,0.234,-1.098,-0.976,0.854,504.479
127779,155834,11330,-0.072,1.03,0.236,-0.854,-1.341,0.549,504.483
127779,155768,11433,-0.07,1.027,0.247,-0.854,-1.341,0.549,504.489
127786,155834,11330,-0.075,1.029,0.262,0.366,-1.402,0.122,504.493
127786,155768,11416,-0.079,1.034,0.272,0.366,-1.402,0.122,504.499
127807,155834,11330,-0.075,1.034,0.275,1.22,-0.976,0,504.503
127807,155772,11420,-0.07,1.025,0.285,1.22,-0.976,0,504.509
127802,155834,11330,-0.069,1.022,0.285,1.341,0.183,-0.488,504.512
127802,155768,11425,-0.071,1.018,0.275,1.341,0.183,-0.488,504.519
127777,155834,11330,-0.075,1.011,0.274,-0.061,1.707,-0.549,504.522
127777,155735,11420,-0.076,1.004,0.267,-0.061,1.707,-0.549,504.529
127784,155834,11330,-0.077,0.996,0.246,-1.037,2.317,-0.549,504.532
127784,155697,11438,-0.073,0.995,0.232,-1.037,2.317,-0.549,504.538
127793,155834,11330,-0.077,0.993,0.234,-1.22,2.134,-0.366,504.542
127793,155708,11431,-0.075,0.988,0.236,-1.22,2.134,-0.366,504.548
127795,155834,11330,-0.072,0.984,0.227,-1.159,1.28,0.305,504.552
127795,155692,11438,-0.068,0.995,0.222,-1.159,1.28,0.305,504.558
127805,155834,11330,-0.069,1.012,0.224,-1.89,0.549,1.159,504.562
127805,155764,11437,-0.068,1.013,0.24,-1.89,0.549,1.159,504.568
127807,155834,11330,-0.061,1.008,0.255,-1.768,-0.61,1.463,504.572
127807,155775,11431,-0.058,1.01,0.255,-1.768,-0.61,1.463,504.578
127816,155834,11330,-0.062,1.017,0.255,-2.073,-1.037,1.646,504.582
127816,155787,11422,-0.062,1.026,0.26,-2.073,-1.037,1.646,504.588
127794,155834,11330,-0.067,1.029,0.265,-2.256,0.122,1.707,504.592
127794,155765,11424,-0.071,1.027,0.263,-2.256,0.122,1.707,504.598
127798,155834,11330,-0.071,1.027,0.263,-2.073,0.976,1.037,504.602
127798,155794,11422,-0.078,1.025,0.256,-2.073,0.976,1.037,504.608
127813,155834,11330,-0.08,1.023,0.247,-2.744,1.28,0.854,504.611
127813,155802,11437,-0.081,1.016,0.242,-2.744,1.28,0.854,504.618
127790,155834,11330,-0.079,1.01,0.234,-2.561,1.28,0.732,504.621
127790,155741,11438,-0.077,1.011,0.226,-2.561,1.28,0.732,504.628
127769,155834,11330,-0.078,1.012,0.226,-1.707,0.915,0.732,504.631
127769,155691,11434,-0.075,1.016,0.234,-1.707,0.915,0.732,504.637
127796,155834,11330,-0.075,1.016,0.234,-1.707,0.915,0.732,504.641
127796,155726,11425,-0.069,1.021,0.244,0,0.488,0.793,504.647
127800,155834,11330,-0.069,1.021,0.244,0,0.488,0.793,504.651
127800,155753,11430,-0.07,1.023,0.248,1.463,0.305,0.61,504.657
127777,155834,11330,-0.07,1.023,0.248,1.463,0.305,0.61,504.661
127777,155731,11431,-0.077,1.032,0.241,1.098,0.854,0.427,504.667
127773,155834,11330,-0.077,1.032,0.241,1.098,0.854,0.427,504.671
127773,155722,11428,-0.072,1.013,0.261,0.671,0.915,0.183,504.677
127793,155834,11330,-0.072,1.013,0.261,0.671,0.915,0.183,504.681
127793,155759,11423,-0.071,1.014,0.253,1.28,0.366,0,504.687
127778,155834,11330,-0.071,1.014,0.253,1.28,0.366,0,504.691
127778,155737,11427,-0.07,1.012,0.259,0.061,0.915,0.061,504.697
127786,155834,11330,-0.07,1.012,0.259,0.061,0.915,0.061,504.701
127786,155731,11425,-0.068,1.003,0.258,-0.244,1.524,-0.061,504.707
127788,155834,11330,-0.068,1.003,0.258,-0.244,1.524,-0.061,504.71
127788,155744,11433,-0.072,1.002,0.257,-0.488,1.707,0.305,504.717
127792,155834,11330,-0.072,1.002,0.257,-0.488,1.707,0.305,504.72
127792,155702,11438,-0.073,1,0.251,-0.793,2.012,0.671,504.727
127794,155834,11330,-0.073,1,0.251,-0.793,2.012,0.671,504.73
127794,155667,11431,-0.075,0.994,0.221,-0.976,2.439,0.915,504.736
127778,155834,11330,-0.075,0.994,0.221,-0.976,2.439,0.915,504.74
127778,155664,11435,-0.079,1.012,0.209,-0.854,2.5,1.22,504.746
127771,155834,11330,-0.079,1.012,0.209,-0.854,2.5,1.22,504.75
127771,155654,11424,-0.072,1.026,0.241,0.793,1.524,1.646,504.756
127756,155834,11330,-0.072,1.026,0.241,0.793,1.524,1.646,504.76
127756,155673,11420,-0.072,1.036,0.26,2.927,0.122,1.646,504.766
127755,155834,11330,-0.072,1.036,0.26,2.927,0.122,1.646,504.77
127755,155685,11435,-0.075,1.034,0.25,2.134,0.305,1.28,504.776
127790,155834,11330,-0.075,1.034,0.25,2.134,0.305,1.28,504.78
127790,155722,11432,-0.084,1.027,0.254,0.183,1.22,0.732,504.786
127783,155834,11330,-0.088,1.024,0.255,0.183,1.22,0.732,504.79
127783,155754,11428,-0.08,1.019,0.255,-1.098,0.793,0.427,504.796
127780,155834,11330,-0.076,1.015,0.259,-1.098,0.793,0.427,504.8
127780,155751,11437,-0.072,1.012,0.258,-1.22,0.244,0.366,504.806
127775,155834,11330,-0.069,1.008,0.256,-1.22,0.244,0.366,504.809
127775,155716,11427,-0.07,1.008,0.258,-0.854,0.976,0.244,504.816
127754,155834,11330,-0.071,1.012,0.248,-0.854,0.976,0.244,504.819
127754,155677,11427,-0.073,1.014,0.241,-1.28,2.256,0.061,504.826
127767,155834,11330,-0.071,1.009,0.238,-1.28,2.256,0.061,504.829
127767,155673,11438,-0.072,1.002,0.239,-1.829,1.951,0.244,504.835
127761,155834,11330,-0.074,1.006,0.234,-1.829,1.951,0.244,504.839
127761,155668,11414,-0.07,1.012,0.235,-2.378,0.732,0.549,504.845
127775,155834,11330,-0.067,1.011,0.24,-2.378,0.732,0.549,504.849
127775,155714,11425,-0.062,1.005,0.245,-1.951,-0.244,0.732,504.855
127805,155834,11330,-0.06,1.004,0.239,-1.951,-0.244,0.732,504.859
127805,155738,11436,-0.065,1.01,0.234,-1.159,-0.366,0.854,504.865
127795,155834,11330,-0.064,1.013,0.245,-1.159,-0.366,0.854,504.869
127795,155802,11442,-0.067,1.011,0.253,-0.122,-0.427,0.732,504.875
127791,155834,11330,-0.069,1.012,0.257,-0.122,-0.427,0.732,504.879
127791,155803,11432,-0.07,1.019,0.26,0.976,-0.915,0.549,504.885
127787,155834,11330,-0.069,1.032,0.267,0.976,-0.915,0.549,504.889
127787,155794,11421,-0.067,1.029,0.274,1.037,-0.976,0.305,504.895
127778,155834,11330,-0.063,1.026,0.272,1.037,-0.976,0.305,504.899
127778,155746,11430,-0.062,1.025,0.267,0.854,-0.305,0.183,504.905
127786,155834,11330,-0.066,1.026,0.26,0.854,-0.305,0.183,504.908
127786,155711,11438,-0.07,1.026,0.255,-0.793,0.793,0,504.915
127785,155834,11330,-0.072,1.015,0.249,-0.793,0.793,0,504.918
127785,155726,11429,-0.068,1.004,0.245,-1.951,0.854,-0.183,504.925
127800,155834,11330,-0.064,1.003,0.24,-1.951,0.854,-0.183,504.928
127800,155731,11425,-0.064,1,0.235,-2.805,0.366,0.366,504.934
127766,155834,11330,-0.065,1.004,0.232,-2.805,0.366,0.366,504.938
127766,155734,11437,-0.065,1.019,0.233,-3.415,0.427,0.793,504.944
127774,155834,11330,-0.068,1.021,0.24,-3.415,0.427,0.793,504.948
127774,155703,11428,-0.067,1.016,0.251,-4.207,-0.122,0.976,504.954
127787,155834,11330,-0.065,1.014,0.255,-4.207,-0.122,0.976,504.958
127787,155721,11423,-0.065,1.017,0.258,-4.634,-0.793,1.037,504.964
127779,155834,11330,-0.07,1.016,0.265,-4.634,-0.793,1.037,504.968
127779,155718,11439,-0.071,1.013,0.269,-4.268,-0.671,1.037,504.974
127793,155834,11330,-0.068,1.007,0.274,-4.268,-0.671,1.037,504.978
127793,155721,11433,-0.065,1.004,0.273,-2.012,-0.122,0.854,504.984
127783,155834,11330,-0.065,1.009,0.273,-2.012,-0.122,0.854,504.988
127783,155757,11417,-0.069,1.016,0.275,-0.793,1.159,0.549,504.994
127800,155834,11330,-0.074,1.024,0.271,-0.793,1.159,0.549,504.998
127800,155748,11433,-0.074,1.021,0.266,-0.854,2.195,0.488,505.004
127824,155834,11330,-0.07,1.011,0.262,-0.854,2.195,0.488,505.007
127824,155765,11426,-0.072,1.004,0.257,-0.854,2.134,0.183,505.014
127804,155834,11330,-0.072,1.008,0.251,-0.854,2.134,0.183,505.017
127804,155714,11432,-0.069,1.006,0.25,-2.256,1.951,0.427,505.024
127789,155834,11330,-0.069,0.996,0.243,-2.256,1.951,0.427,505.027
127789,155722,11427,-0.07,0.996,0.232,-2.012,1.707,0.732,505.033
127830,155834,11330,-0.07,1.008,0.222,-2.012,1.707,0.732,505.037
127830,155769,11439,-0.074,1.017,0.223,-0.671,1.463,0.793,505.043
127848,155834,11330,-0.073,1.02,0.233,-0.671,1.463,0.793,505.047
127848,155791,11430,-0.075,1.019,0.242,0.915,0.732,1.037,505.053
127841,155834,11330,-0.072,1.016,0.25,0.915,0.732,1.037,505.057
127841,155807,11435,-0.068,1.016,0.25,1.768,-0.061,0.915,505.063
127863,155834,11330,-0.068,1.019,0.251,1.768,-0.061,0.915,505.067
127863,155777,11436,-0.075,1.028,0.249,0.366,0.732,0.732,505.073
127870,155834,11330,-0.083,1.03,0.254,0.366,0.732,0.732,505.077
127870,155806,11443,-0.083,1.021,0.266,-0.671,0.854,0.61,505.083
127868,155834,11330,-0.078,1.007,0.274,-0.671,0.854,0.61,505.087
127868,155818,11448,-0.071,1.005,0.277,-0.244,0,0.305,505.093
127891,155834,11330,-0.07,1.013,0.27,-0.244,0,0.305,505.097
127891,155816,11450,-0.068,1.018,0.269,-0.549,0.671,0.366,505.103
127903,155834,11330,-0.071,1.012,0.268,-0.549,0.671,0.366,505.106
127903,155771,11441,-0.073,1.002,0.255,-0.183,1.89,0.061,505.113
127876,155834,11330,-0.069,1.004,0.233,-0.183,1.89,0.061,505.116
127876,155755,11449,-0.073,1.01,0.231,-1.098,2.256,-0.061,505.123
127917,155834,11330,-0.073,1.01,0.234,-1.098,2.256,-0.061,505.126
127917,155762,11449,-0.065,1.003,0.234,-0.854,0.976,0.427,505.132
127901,155834,11330,-0.059,1.004,0.232,-0.854,0.976,0.427,505.136
127901,155753,11448,-0.059,1.011,0.23,0.244,-0.366,0.61,505.142
127908,155834,11330,-0.058,1.017,0.236,0.244,-0.366,0.61,505.146
127908,155747,11441,-0.064,1.022,0.243,0.854,-0.305,0.671,505.152
127919,155834,11330,-0.068,1.021,0.243,0.854,-0.305,0.671,505.156
127919,155751,11464,-0.069,1.018,0.239,1.402,-0.061,0.488,505.162
127928,155834,11330,-0.076,1.019,0.243,1.402,-0.061,0.488,505.166
127928,155785,11448,-0.081,1.027,0.252,1.098,-0.305,0.61,505.172
127934,155834,11330,-0.082,1.025,0.261,1.098,-0.305,0.61,505.176
127934,155793,11456,-0.076,1.017,0.27,1.463,-0.671,0.549,505.182
127943,155834,11330,-0.076,1.02,0.273,1.463,-0.671,0.549,505.186
127943,155787,11443,-0.079,1.023,0.273,1.341,-0.183,0.305,505.192
127905,155834,11330,-0.078,1.02,0.276,1.341,-0.183,0.305,505.196
127905,155755,11435,-0.079,1.013,0.27,0.122,0.915,0.366,505.202
127921,155834,11330,-0.075,1.006,0.262,0.122,0.915,0.366,505.205
127921,155731,11445,-0.073,1.009,0.26,-0.61,1.159,0.183,505.212
127924,155834,11330,-0.073,1.013,0.248,-0.61,1.159,0.183,505.215
127924,155713,11464,-0.069,1.013,0.245,-1.159,1.159,0.122,505.221
127918,155834,11330,-0.069,1.013,0.245,-1.159,1.159,0.122,505.225
127918,155715,11449,-0.065,1.001,0.231,-1.22,0.854,0.183,505.231
127921,155834,11330,-0.065,1.001,0.231,-1.22,0.854,0.183,505.235
127921,155731,11438,-0.06,1.012,0.222,-1.28,0.366,0.244,505.241
127916,155834,11330,-0.06,1.012,0.222,-1.28,0.366,0.244,505.245
127916,155760,11438,-0.067,1.02,0.244,-1.037,-0.671,0.366,505.251
127945,155834,11330,-0.067,1.02,0.244,-1.037,-0.671,0.366,505.255
127945,155779,11458,-0.06,1.01,0.264,-0.061,-2.256,0.427,505.261
127923,155834,11330,-0.06,1.01,0.264,-0.061,-2.256,0.427,505.265
127923,155816,11453,-0.064,1.022,0.263,-0.061,-1.951,0.366,505.271
127943,155834,11330,-0.064,1.022,0.263,-0.061,-1.951,0.366,505.275
127943,155843,11443,-0.078,1.037,0.269,0.122,-0.427,0.305,505.281
127959,155834,11330,-0.078,1.037,0.269,0.122,-0.427,0.305,505.285
127959,155845,11446,-0.081,1.032,0.272,-0.793,-1.402,-0.122,505.291
127951,155834,11330,-0.081,1.032,0.272,-0.793,-1.402,-0.122,505.295
127951,155833,11462,-0.075,1.02,0.278,-3.598,-4.207,0,505.301
127950,155834,11330,-0.075,1.02,0.278,-3.598,-4.207,0,505.304
127950,155839,11446,-0.067,1.004,0.267,-5.244,-5,0.183,505.311
127925,155834,11330,-0.067,1.004,0.267,-5.244,-5,0.183,505.314
127925,155821,11448,-0.059,0.989,0.251,-4.756,-3.963,0.183,505.32
127921,155834,11330,-0.059,0.989,0.251,-4.756,-3.963,0.183,505.324
127921,155815,11457,-0.07,1.004,0.228,-3.659,-2.012,0.305,505.33
127925,155834,11330,-0.07,1.004,0.228,-3.659,-2.012,0.305,505.334
127925,155827,11435,-0.068,1.01,0.227,-2.195,-1.646,0.427,505.34
127919,155834,11330,-0.068,1.01,0.227,-2.195,-1.646,0.427,505.344
127919,155827,11457,-0.064,1.012,0.228,-0.366,-2.805,0.549,505.35
127902,155834,11330,-0.064,1.012,0.228,-0.366,-2.805,0.549,505.354
127902,155807,11437,-0.069,1.028,0.24,0.244,-2.866,0.732,505.36
127915,155834,11330,-0.069,1.028,0.24,0.244,-2.866,0.732,505.364
127915,155837,11433,-0.071,1.026,0.255,0.244,-2.866,0.732,505.37
127934,155834,11330,-0.072,1.017,0.261,0.366,-2.988,0.488,505.374
127934,155861,11460,-0.07,1.006,0.261,0.366,-2.988,0.488,505.38
127945,155834,11330,-0.07,1.009,0.256,0.122,-2.866,0.183,505.384
127945,155877,11450,-0.075,1.02,0.257,0.122,-2.866,0.183,505.39
127937,155834,11330,-0.078,1.024,0.268,0.305,-2.073,0.244,505.394
127937,155822,11449,-0.081,1.025,0.272,0.305,-2.073,0.244,505.4
127912,155834,11330,-0.079,1.025,0.268,-0.366,-2.256,0.366,505.403
127912,155774,11445,-0.072,1.018,0.269,-0.366,-2.256,0.366,505.41
127891,155834,11330,-0.069,1.012,0.271,-2.744,-2.988,0.488,505.413
127891,155787,11443,-0.068,1.011,0.259,-2.744,-2.988,0.488,505.419
127910,155834,11330,-0.069,1.014,0.243,-6.159,-2.5,0.549,505.423
127910,155796,11430,-0.065,1.008,0.24,-6.159,-2.5,0.549,505.429
127914,155834,11330,-0.063,1.001,0.246,-8.415,-2.5,0.549,505.433
127914,155802,11461,-0.062,0.998,0.248,-8.415,-2.5,0.549,505.439
127901,155834,11330,-0.06,1.004,0.248,-8.171,-3.354,0.732,505.443
127901,155773,11432,-0.056,1.014,0.245,-8.171,-3.354,0.732,505.449
127891,155834,11330,-0.056,1.014,0.245,-7.378,-3.415,0.793,505.453
127891,155760,11464,-0.059,1.011,0.252,-7.378,-3.415,0.793,505.459
127864,155834,11330,-0.061,1.003,0.26,-4.939,-3.171,0.427,505.463
127864,155798,11436,-0.063,1,0.264,-4.939,-3.171,0.427,505.469
127881,155834,11330,-0.064,1.001,0.275,-1.341,-2.927,0.183,505.473
127881,155780,11452,-0.064,1.009,0.282,-1.341,-2.927,0.183,505.479
127895,155834,11330,-0.064,1.02,0.279,2.073,-1.768,0.183,505.483
127895,155777,11442,-0.067,1.033,0.277,2.073,-1.768,0.183,505.489
127883,155834,11330,-0.071,1.041,0.279,2.927,-0.183,-0.122,505.493
127883,155758,11444,-0.073,1.037,0.283,2.927,-0.183,-0.122,505.499
127905,155834,11330,-0.077,1.027,0.283,0.488,0.122,-0.488,505.502
127905,155780,11460,-0.078,1.011,0.284,0.488,0.122,-0.488,505.509
127892,155834,11330,-0.074,1,0.278,-2.683,-1.159,-0.305,505.512
127892,155757,11438,-0.072,0.992,0.26,-2.683,-1.159,-0.305,505.518
127874,155834,11330,-0.068,0.988,0.251,-4.146,-0.976,-0.122,505.522
127874,155733,11460,-0.068,0.991,0.251,-4.146,-0.976,-0.122,505.528
127895,155834,11330,-0.073,0.996,0.242,-3.537,-0.244,0.427,505.532
127895,155737,11443,-0.07,0.995,0.232,-3.537,-0.244,0.427,505.538
127901,155834,11330,-0.071,1.001,0.233,-2.439,-0.61,0.61,505.542
127901,155758,11460,-0.071,1.006,0.242,-2.439,-0.61,0.61,505.548
127892,155834,11330,-0.067,1.007,0.255,-1.098,-1.951,0.976,505.552
127892,155767,11462,-0.063,1.013,0.266,-1.098,-1.951,0.976,505.558
127907,155834,11330,-0.062,1.021,0.279,0.061,-2.744,1.037,505.562
127907,155802,11449,-0.059,1.025,0.289,0.061,-2.744,1.037,505.568
127955,156090,11330,-0.057,1.028,0.291,-0.244,-2.256,0.793,505.572
127955,155931,11447,-0.062,1.027,0.295,-0.244,-2.256,0.793,505.578
128025,156090,11330,-0.063,1.023,0.294,-0.854,-0.732,0.244,505.582
128025,156146,11457,-0.067,1.02,0.286,-0.854,-0.732,0.244,505.588
128121,156346,11330,-0.069,1.012,0.278,-0.915,0.305,-0.061,505.591
128121,156379,11450,-0.066,1.007,0.28,-0.915,0.305,-0.061,505.598
128154,156602,11330,-0.065,1.006,0.287,-1.037,0.549,-0.244,505.601
128154,156589,11458,-0.068,1.004,0.286,-1.037,0.549,-0.244,505.608
128185,156858,11330,-0.067,0.994,0.268,-1.707,0.61,-0.061,505.611
128185,156692,11455,-0.062,0.995,0.232,-1.707,0.61,-0.061,505.617
128219,156858,11330,-0.07,1.01,0.204,-2.927,1.585,0.427,505.621
128219,156863,11465,-0.076,1.017,0.209,-2.927,1.585,0.427,505.627
128213,157114,11330,-0.069,1.006,0.22,-3.354,0.244,1.037,505.631
128213,156980,11459,-0.066,1.004,0.235,-3.354,0.244,1.037,505.637
128219,157114,11330,-0.061,1.008,0.249,-3.476,-3.659,1.463,505.641
128219,157055,11435,-0.058,1.009,0.26,-3.476,-3.659,1.463,505.647
128246,157114,11330,-0.057,1.008,0.273,-3.476,-4.695,2.073,505.651
128246,157181,11449,-0.06,1.012,0.265,-3.476,-4.695,2.073,505.657
128233,157370,11330,-0.065,1.011,0.262,-2.012,-2.988,1.951,505.661
128233,157256,11455,-0.067,1.006,0.272,-2.012,-2.988,1.951,505.667
128216,157370,11330,-0.07,1.011,0.29,0.549,-2.439,1.463,505.671
128216,157333,11440,-0.073,1.017,0.309,0.549,-2.439,1.463,505.677
128242,157370,11330,-0.065,1.022,0.324,2.256,-2.805,1.28,505.681
128242,157405,11439,-0.06,1.028,0.324,2.256,-2.805,1.28,505.687
128252,157626,11330,-0.061,1.029,0.312,1.037,-1.524,1.037,505.691
128252,157501,11446,-0.064,1.025,0.296,1.037,-1.524,1.037,505.697
128235,157626,11330,-0.065,1.013,0.29,-1.829,0.366,0.61,505.7
128235,157566,11433,-0.067,0.992,0.281,-1.829,0.366,0.61,505.707
128222,157626,11330,-0.065,0.978,0.26,-3.293,0.61,0.305,505.71
128222,157643,11418,-0.066,0.975,0.228,-3.293,0.61,0.305,505.716
128205,157882,11330,-0.069,0.985,0.211,-3.537,0.549,0.549,505.72
128205,157711,11430,-0.072,1.004,0.21,-3.537,0.549,0.549,505.726
128200,157882,11330,-0.068,1.019,0.209,-2.683,0.061,1.098,505.73
128200,157737,11444,-0.064,1.022,0.22,-2.683,0.061,1.098,505.736
128202,157882,11330,-0.061,1.021,0.247,-0.976,-2.439,1.22,505.74
128202,157774,11426,-0.058,1.017,0.273,-0.976,-2.439,1.22,505.746
128174,157882,11330,-0.05,1.014,0.288,0.305,-3.78,0.976,505.75
128174,157834,11412,-0.048,1.019,0.296,0.305,-3.78,0.976,505.756
128159,157882,11330,-0.055,1.028,0.293,0.732,-2.073,0.366,505.76
128159,157865,11409,-0.058,1.036,0.293,0.732,-2.073,0.366,505.766
128149,157882,11330,-0.063,1.037,0.298,1.28,0.427,-0.244,505.77
128149,157887,11424,-0.062,1.028,0.293,1.28,0.427,-0.244,505.776
128138,157882,11330,-0.065,1.017,0.291,0.61,1.22,-0.915,505.78
128138,157907,11405,-0.065,1.009,0.284,0.61,1.22,-0.915,505.786
128096,157882,11330,-0.065,1.001,0.28,-0.854,1.402,-1.098,505.789
128096,157934,11407,-0.069,0.996,0.278,-0.854,1.402,-1.098,505.796
128086,157882,11330,-0.068,0.987,0.28,-1.037,2.195,-0.732,505.799
128086,157947,11411,-0.071,0.982,0.278,-1.037,2.195,-0.732,505.806
128086,158138,11330,-0.071,0.982,0.278,-1.037,2.195,-0.732,505.809
128086,157961,11410,-0.063,0.978,0.251,-0.915,2.317,-0.427,505.815
128089,158138,11330,-0.063,0.978,0.251,-0.915,2.317,-0.427,505.819
128089,157970,11384,-0.066,1,0.231,-0.915,2.683,-0.061,505.825
128090,158138,11330,-0.066,1,0.231,-0.915,2.683,-0.061,505.829
128090,157993,11398,-0.063,1.019,0.241,-0.854,2.256,0.671,505.835
128060,158138,11330,-0.063,1.019,0.241,-0.854,2.256,0.671,505.839
128060,158015,11401,-0.062,1.006,0.267,-0.732,0.244,1.22,505.845
128036,158138,11330,-0.062,1.006,0.267,-0.732,0.244,1.22,505.849
128036,158015,11385,-0.064,1.009,0.284,-1.341,-0.732,1.341,505.855
128024,158138,11330,-0.064,1.009,0.284,-1.341,-0.732,1.341,505.859
128024,158063,11392,-0.061,1.015,0.288,-0.854,0.488,1.22,505.865
128039,158138,11330,-0.061,1.015,0.288,-0.854,0.488,1.22,505.869
128039,158067,11376,-0.067,1.036,0.294,0.671,1.524,0.976,505.875
128001,158138,11330,-0.067,1.036,0.294,0.671,1.524,0.976,505.879
128001,158068,11383,-0.064,1.035,0.282,0.244,1.707,0.61,505.885
127976,158138,11330,-0.064,1.035,0.282,0.244,1.707,0.61,505.888
127976,158105,11394,-0.073,1.002,0.267,-2.134,2.012,0.122,505.895
128006,158138,11330,-0.073,1.002,0.267,-2.134,2.012,0.122,505.898
128006,158128,11379,-0.072,0.98,0.253,-3.049,2.134,-0.122,505.905
128002,158138,11330,-0.072,0.98,0.253,-3.049,2.134,-0.122,505.908
128002,158118,11378,-0.067,1.004,0.25,-1.707,2.073,-0.183,505.914
127946,158138,11330,-0.067,1.004,0.25,-1.707,2.073,-0.183,505.918
127946,158111,11370,-0.068,1.015,0.241,0.732,2.134,0,505.924
127874,158138,11330,-0.068,1.015,0.241,0.732,2.134,0,505.928
127874,158107,11357,-0.07,1.021,0.256,2.012,1.829,0.305,505.934
127818,158138,11330,-0.07,1.021,0.256,2.012,1.829,0.305,505.938
127818,158080,11364,-0.058,1.011,0.269,1.341,0.305,0.549,505.944
127767,158138,11330,-0.058,1.011,0.269,1.341,0.305,0.549,505.948
127767,158086,11335,-0.057,1.007,0.277,0.915,-0.854,0.671,505.954
127664,158138,11330,-0.061,1.005,0.286,0.915,-0.854,0.671,505.958
127664,158083,11338,-0.062,1.007,0.291,0.915,-0.488,0.793,505.964
127620,158138,11330,-0.062,1.02,0.292,0.915,-0.488,0.793,505.968
127620,158057,11310,-0.06,1.025,0.289,0.671,0.366,0.61,505.974
127563,158138,11330,-0.061,1.024,0.285,0.671,0.366,0.61,505.978
127563,158048,11309,-0.063,1.023,0.277,0.061,0.488,0.488,505.984
127512,158138,11330,-0.063,1.018,0.269,0.061,0.488,0.488,505.988
127512,157983,11316,-0.067,1.006,0.262,-1.646,0.183,0.61,505.994
127535,158138,11330,-0.062,0.995,0.252,-1.646,0.183,0.61,505.997
127535,158030,11311,-0.061,0.989,0.243,-2.439,0.183,0.61,506.004
127497,158138,11330,-0.06,0.993,0.228,-2.439,0.183,0.61,506.007
127497,158033,11307,-0.063,1.004,0.228,-1.707,0.122,0.854,506.013
127446,158138,11330,-0.062,1.007,0.244,-1.707,0.122,0.854,506.017
127446,157969,11295,-0.059,1.007,0.258,0.427,-0.854,0.915,506.023
127343,157882,11330,-0.057,1.009,0.262,0.427,-0.854,0.915,506.027
127343,157922,11291,-0.062,1.019,0.268,1.341,-1.28,0.854,506.033
127319,157882,11330,-0.065,1.026,0.273,1.341,-1.28,0.854,506.037
127319,157921,11293,-0.068,1.027,0.28,0.854,-0.366,0.915,506.043
127289,157882,11330,-0.07,1.025,0.281,0.854,-0.366,0.915,506.047
127289,157943,11272,-0.07,1.022,0.284,0.976,-0.061,0.61,506.053
127316,157882,11330,-0.069,1.013,0.287,0.976,-0.061,0.61,506.057
127316,157922,11267,-0.07,1.01,0.286,1.159,0,0.122,506.063
127325,157882,11330,-0.069,1.011,0.281,1.159,0,0.122,506.067
127325,157937,11281,-0.069,1.012,0.282,1.22,0.915,0,506.073
127352,158138,11330,-0.066,1.018,0.274,1.22,0.915,0,506.077
127352,157963,11286,-0.07,1.016,0.268,1.037,1.89,-0.122,506.083
127399,158138,11330,-0.074,1.01,0.256,1.037,1.89,-0.122,506.086
127399,157999,11289,-0.071,1.008,0.251,-0.61,1.829,-0.244,506.093
127448,158138,11330,-0.07,1.006,0.25,-0.61,1.829,-0.244,506.096
127448,158059,11294,-0.066,0.999,0.238,-2.012,0.793,0.061,506.103
127514,158138,11330,-0.062,0.995,0.236,-2.012,0.793,0.061,506.106
127514,158093,11304,-0.065,1.003,0.243,-1.585,-0.061,0.305,506.112
127554,158138,11330,-0.062,1.01,0.25,-1.585,-0.061,0.305,506.116
127554,158102,11312,-0.057,1.01,0.262,-0.671,-0.488,0.305,506.122
127545,158138,11330,-0.057,1.012,0.265,-0.671,-0.488,0.305,506.126
127545,158097,11314,-0.058,1.021,0.263,-0.793,-0.61,0.183,506.132
127555,158138,11330,-0.062,1.021,0.266,-0.793,-0.61,0.183,506.136
127555,158109,11314,-0.065,1.015,0.273,-1.341,-0.122,0.244,506.142
127586,158138,11330,-0.066,1.01,0.274,-1.341,-0.122,0.244,506.146
127586,158137,11322,-0.065,1.009,0.279,-0.915,-0.183,0.061,506.152
127588,158138,11330,-0.064,1.012,0.292,-0.915,-0.183,0.061,506.156
127588,158155,11329,-0.063,1.007,0.291,-0.61,-0.122,-0.122,506.162
127618,158138,11330,-0.067,1.005,0.287,-0.61,-0.122,-0.122,506.166
127618,158173,11322,-0.068,1.004,0.282,-0.122,0.549,-0.305,506.172
127637,158138,11330,-0.069,1.004,0.283,-0.122,0.549,-0.305,506.176
127637,158198,11332,-0.073,1.004,0.283,0.244,0.732,-0.244,506.182
127695,158394,11330,-0.068,1.003,0.284,0.244,0.732,-0.244,506.185
127695,158223,11339,-0.064,1,0.275,0.183,0.427,0,506.192
127732,158394,11330,-0.059,1.003,0.266,0.183,0.427,0,506.195
127732,158273,11353,-0.058,1.009,0.262,-0.854,0.61,0.183,506.202
127797,158394,11330,-0.061,1.007,0.258,-0.854,0.61,0.183,506.205
127797,158277,11339,-0.061,1.006,0.251,-0.915,0.549,0.366,506.211
127798,158394,11330,-0.06,1.005,0.241,-0.915,0.549,0.366,506.215
127798,158277,11350,-0.062,1.013,0.238,-0.366,0.61,0.244,506.221
127744,158394,11330,-0.067,1.021,0.249,-0.366,0.61,0.244,506.225
127744,158253,11330,-0.066,1.016,0.258,0.061,0.488,0.305,506.231
127677,158138,11330,-0.064,1.013,0.267,0.061,0.488,0.305,506.235
127677,158192,11325,-0.062,1.013,0.273,0.305,-0.061,0.427,506.241
127559,158138,11330,-0.062,1.025,0.271,0.305,-0.061,0.427,506.245
127559,158140,11306,-0.063,1.027,0.277,-0.427,0.549,0.366,506.251
127462,158138,11330,-0.066,1.021,0.286,-0.427,0.549,0.366,506.255
127462,158074,11301,-0.067,1.014,0.284,-0.854,0.976,0.061,506.261
127300,158138,11330,-0.064,1.008,0.287,-0.854,0.976,0.061,506.265
127300,157984,11268,-0.066,1.005,0.285,-1.22,0.976,-0.244,506.271
127206,157882,11330,-0.066,1.006,0.285,-1.22,0.976,-0.244,506.275
127206,157924,11270,-0.066,1.004,0.282,-1.463,1.768,-0.183,506.281
127174,157882,11330,-0.065,1.003,0.273,-1.463,1.768,-0.183,506.284
127174,157905,11256,-0.068,0.996,0.264,-1.768,2.378,0.061,506.291
127090,157882,11330,-0.063,0.991,0.253,-1.768,2.378,0.061,506.294
127090,157832,11250,-0.063,0.996,0.238,-2.134,2.439,0.305,506.301
127001,157882,11330,-0.064,1.004,0.238,-2.134,2.439,0.305,506.304
127001,157783,11224,-0.066,1.014,0.233,-1.829,1.707,0.61,506.31
126968,157882,11330,-0.061,1.018,0.238,-1.829,1.707,0.61,506.314
126968,157768,11222,-0.058,1.016,0.256,-0.427,0.366,0.793,506.32
126928,157882,11330,-0.059,1.012,0.28,-0.427,0.366,0.793,506.324
126928,157724,11232,-0.061,1.018,0.287,0.305,-0.61,0.61,506.33
126878,157882,11330,-0.063,1.02,0.291,0.305,-0.61,0.61,506.334
126878,157726,11223,-0.063,1.022,0.289,-0.549,-0.122,0.305,506.34
126899,157882,11330,-0.07,1.022,0.286,-0.549,-0.122,0.305,506.344
126899,157706,11223,-0.069,1.018,0.28,-0.976,0.671,-0.183,506.35
126924,157882,11330,-0.072,1.013,0.279,-0.976,0.671,-0.183,506.354
126924,157744,11234,-0.076,1.009,0.282,-1.22,0.671,-0.427,506.36
126972,157882,11330,-0.075,1.003,0.282,-1.22,0.671,-0.427,506.364
126972,157754,11220,-0.073,1,0.278,-1.463,0.671,-0.549,506.37
126984,157882,11330,-0.075,0.996,0.267,-1.463,0.671,-0.549,506.374
126984,157778,11239,-0.076,0.997,0.259,-1.524,1.341,-0.366,506.38
127018,157882,11330,-0.075,1.002,0.245,-1.524,1.341,-0.366,506.383
127018,157801,11225,-0.077,1.001,0.243,-1.22,1.402,-0.061,506.39
126967,157882,11330,-0.077,1.001,0.243,-1.22,1.402,-0.061,506.393
126967,157768,11228,-0.068,1.001,0.255,-0.305,0.244,0.305,506.4
126941,157882,11330,-0.068,1.001,0.255,-0.305,0.244,0.305,506.403
126941,157749,11213,-0.059,0.997,0.27,0.732,-0.488,0.61,506.409
126912,157882,11330,-0.059,0.997,0.27,0.732,-0.488,0.61,506.413
126912,157763,11229,-0.066,1.025,0.273,0.976,0.305,0.61,506.419
126906,157882,11330,-0.066,1.025,0.273,0.976,0.305,0.61,506.423
126906,157732,11227,-0.064,1.017,0.286,1.22,0.427,0.366,506.429
126878,157626,11330,-0.064,1.017,0.286,1.22,0.427,0.366,506.433
126878,157668,11216,-0.063,1.015,0.281,0.427,0.122,0,506.439
126864,157626,11330,-0.063,1.015,0.281,0.427,0.122,0,506.443
126864,157694,11214,-0.069,1.025,0.257,-0.915,0.793,-0.061,506.449
126836,157626,11330,-0.069,1.025,0.257,-0.915,0.793,-0.061,506.453
126836,157680,11204,-0.069,1.001,0.264,-0.793,0.671,-0.183,506.459
126825,157626,11330,-0.069,1.001,0.264,-0.793,0.671,-0.183,506.463
126825,157680,11212,-0.063,0.994,0.262,-0.549,-0.183,-0.061,506.469
126815,157626,11330,-0.063,0.994,0.262,-0.549,-0.183,-0.061,506.473
126815,157675,11206,-0.064,1.015,0.26,-0.183,0.183,0.122,506.479
126797,157626,11330,-0.064,1.015,0.26,-0.183,0.183,0.122,506.482
126797,157657,11208,-0.068,1.009,0.268,0.305,0.244,0.305,506.489
126797,157626,11330,-0.068,1.009,0.268,0.305,0.244,0.305,506.492
126797,157667,11199,-0.064,1.007,0.263,-0.671,-0.61,0.488,506.499
126750,157626,11330,-0.064,1.007,0.263,-0.671,-0.61,0.488,506.502
126750,157631,11205,-0.064,1.007,0.27,-0.549,-0.793,0.61,506.508
126670,157626,11330,-0.064,1.007,0.27,-0.549,-0.793,0.61,506.512
126670,157529,11204,-0.066,1.012,0.276,0.671,-0.305,0.366,506.518
126619,157626,11330,-0.066,1.012,0.276,0.671,-0.305,0.366,506.522
126619,157516,11186,-0.065,1.024,0.276,1.037,0.305,0.183,506.528
126596,157626,11330,-0.065,1.024,0.276,1.037,0.305,0.183,506.532
126596,157500,11181,-0.067,1.026,0.276,1.037,0.305,0.183,506.538
126618,157626,11330,-0.066,1.023,0.28,1.037,0.366,0.061,506.542
126618,157487,11185,-0.066,1.02,0.282,1.037,0.366,0.061,506.548
126662,157626,11330,-0.065,1.009,0.285,0.366,0,0.244,506.552
126662,157551,11204,-0.063,1.001,0.286,0.366,0,0.244,506.558
126796,157626,11330,-0.062,0.995,0.275,0.427,0.122,0.305,506.562
126796,157640,11210,-0.063,0.997,0.268,0.427,0.122,0.305,506.568
126901,157882,11330,-0.065,0.998,0.249,0.854,0.549,0.61,506.572
126901,157752,11222,-0.067,0.997,0.243,0.854,0.549,0.61,506.578
127048,157882,11330,-0.068,0.998,0.24,1.707,0.122,1.098,506.581
127048,157870,11245,-0.063,0.999,0.241,1.707,0.122,1.098,506.588
127203,158138,11330,-0.06,1.006,0.253,3.11,-1.28,1.524,506.591
127203,157952,11273,-0.057,1.014,0.267,3.11,-1.28,1.524,506.598
127224,158138,11330,-0.052,1.018,0.275,4.085,-1.707,1.707,506.601
127224,158001,11260,-0.054,1.02,0.28,4.085,-1.707,1.707,506.607
127224,158138,11330,-0.059,1.018,0.272,3.659,-0.305,1.707,506.611
127224,158015,11280,-0.067,1.023,0.269,3.659,-0.305,1.707,506.617
127293,158138,11330,-0.075,1.027,0.269,2.195,0.854,1.28,506.621
127293,158031,11296,-0.075,1.019,0.279,2.195,0.854,1.28,506.627
127350,158138,11330,-0.073,1.015,0.292,1.22,0.305,1.098,506.631
127350,158126,11292,-0.07,1.008,0.289,1.22,0.305,1.098,506.637
127367,158138,11330,-0.067,1.007,0.283,0.915,0.183,1.037,506.641
127367,158133,11291,-0.065,1.011,0.277,0.915,0.183,1.037,506.647
127446,158138,11330,-0.068,1.012,0.268,0.427,1.402,0.549,506.651
127446,158156,11303,-0.075,1.005,0.258,0.427,1.402,0.549,506.657
127521,158394,11330,-0.071,1,0.246,-0.488,1.463,0.244,506.661
127521,158210,11311,-0.07,0.997,0.238,-0.488,1.463,0.244,506.667
127606,158394,11330,-0.064,1.005,0.232,-0.671,0.366,0.488,506.671
127606,158291,11323,-0.06,1.018,0.236,-0.671,0.366,0.488,506.677
127594,158394,11330,-0.06,1.021,0.241,-0.122,-0.061,0.671,506.68
127594,158307,11320,-0.06,1.018,0.243,-0.122,-0.061,0.671,506.687
127630,158394,11330,-0.063,1.017,0.253,0.366,-0.366,0.549,506.69
127630,158313,11317,-0.067,1.017,0.26,0.366,-0.366,0.549,506.697
127667,158394,11330,-0.064,1.014,0.27,0.061,-0.732,0.366,506.7
127667,158309,11344,-0.063,1.015,0.282,0.061,-0.732,0.366,506.706
127661,158394,11330,-0.063,1.02,0.286,0.793,-0.549,0.061,506.71
127661,158316,11348,-0.067,1.023,0.295,0.793,-0.549,0.061,506.716
127687,158394,11330,-0.063,1.02,0.297,1.28,0.122,-0.122,506.72
127687,158375,11331,-0.065,1.018,0.291,1.28,0.122,-0.122,506.726
127704,158394,11330,-0.068,1.016,0.288,0.61,0.976,-0.366,506.73
127704,158346,11333,-0.068,1.008,0.282,0.61,0.976,-0.366,506.736
127676,158394,11330,-0.065,1.004,0.272,-0.854,1.402,-0.366,506.74
127676,158358,11340,-0.068,0.999,0.267,-0.854,1.402,-0.366,506.746
127681,158394,11330,-0.066,0.986,0.263,-1.768,1.22,-0.061,506.75
127681,158339,11333,-0.062,0.977,0.25,-1.768,1.22,-0.061,506.756
127692,158394,11330,-0.062,0.981,0.227,-1.341,1.098,0.366,506.76
127692,158347,11336,-0.065,0.991,0.217,-1.341,1.098,0.366,506.766
127663,158394,11330,-0.064,1.006,0.222,-0.366,0.976,0.732,506.77
127663,158321,11326,-0.062,1.014,0.228,-0.366,0.976,0.732,506.776
127603,158394,11330,-0.061,1.015,0.245,0.671,-0.366,1.159,506.779
127603,158286,11331,-0.061,1.015,0.263,0.671,-0.366,1.159,506.786
127569,158394,11330,-0.063,1.018,0.274,0.976,-1.28,1.341,506.789
127569,158236,11313,-0.062,1.024,0.281,0.976,-1.28,1.341,506.796
127552,158394,11330,-0.063,1.028,0.278,0.305,-0.549,1.037,506.799
127552,158235,11314,-0.066,1.032,0.276,0.305,-0.549,1.037,506.805
127535,158394,11330,-0.07,1.03,0.281,-0.915,0.122,0.488,506.809
127535,158239,11308,-0.072,1.021,0.282,-0.915,0.122,0.488,506.815
127518,158394,11330,-0.072,1.013,0.284,-0.732,-0.061,0.305,506.819
127518,158212,11310,-0.067,1.01,0.282,-0.732,-0.061,0.305,506.825
127461,158138,11330,-0.071,1.002,0.281,0.305,0.244,0.244,506.829
127461,158172,11303,-0.07,1,0.283,0.305,0.244,0.244,506.835
127375,158138,11330,-0.071,1.004,0.274,0.732,0.915,0.122,506.839
127375,158127,11308,-0.069,0.997,0.254,0.732,0.915,0.122,506.845
127286,158138,11330,-0.073,0.998,0.243,-0.122,1.22,0.061,506.849
127286,158030,11281,-0.071,0.996,0.24,-0.122,1.22,0.061,506.855
127174,157882,11330,-0.063,0.994,0.242,-0.427,0.427,0.61,506.859
127174,157944,11265,-0.054,0.999,0.249,-0.427,0.427,0.61,506.865
126972,157882,11330,-0.049,1.005,0.259,1.037,-0.366,1.098,506.869
126972,157840,11247,-0.051,1.015,0.259,1.037,-0.366,1.098,506.875
126806,157626,11330,-0.055,1.023,0.256,2.439,0.305,1.22,506.878
126806,157687,11228,-0.059,1.03,0.263,2.439,0.305,1.22,506.885
126721,157626,11330,-0.065,1.029,0.271,2.866,0.976,1.098,506.888
126721,157596,11220,-0.068,1.023,0.272,2.866,0.976,1.098,506.895
126661,157626,11330,-0.069,1.021,0.271,2.927,0.427,1.159,506.898
126661,157552,11197,-0.068,1.024,0.273,2.927,0.427,1.159,506.904
126529,157626,11330,-0.065,1.02,0.28,2.988,0.061,1.28,506.908
126529,157464,11186,-0.065,1.015,0.281,2.988,0.061,1.28,506.914
126484,157370,11330,-0.066,1.008,0.284,3.232,0.305,1.22,506.918
126484,157405,11176,-0.066,0.999,0.272,3.232,0.305,1.22,506.924
126427,157370,11330,-0.066,0.99,0.271,3.659,0.61,1.28,506.928
126427,157393,11174,-0.064,0.988,0.268,3.659,0.61,1.28,506.934
126422,157370,11330,-0.066,0.995,0.26,4.573,1.22,1.463,506.938
126422,157394,11169,-0.069,1.008,0.267,4.573,1.22,1.463,506.944
126400,157370,11330,-0.066,1.017,0.271,5.305,1.646,1.524,506.948
126400,157380,11169,-0.063,1.017,0.261,5.305,1.646,1.524,506.954
126369,157370,11330,-0.06,1.012,0.251,4.024,0.976,1.585,506.958
126369,157341,11170,-0.062,1.011,0.247,4.024,0.976,1.585,506.964
126333,157370,11330,-0.065,1.02,0.249,1.524,0.305,1.768,506.968
126333,157300,11162,-0.063,1.024,0.248,1.524,0.305,1.768,506.974
126262,157370,11330,-0.063,1.024,0.248,1.524,0.305,1.768,506.977
126262,157253,11179,-0.057,1.013,0.254,-0.305,-0.061,1.768,506.984
126170,157370,11330,-0.057,1.013,0.254,-0.305,-0.061,1.768,506.987
126170,157218,11138,-0.058,1.011,0.256,-0.122,0,1.524,506.994
126103,157114,11330,-0.058,1.011,0.256,-0.122,0,1.524,506.997
126103,157158,11132,-0.06,1.011,0.27,-0.183,0.366,1.402,507.003
126067,157114,11330,-0.06,1.011,0.27,-0.183,0.366,1.402,507.007
126067,157121,11134,-0.059,1.014,0.273,0.488,0.915,1.341,507.013
126069,157114,11330,-0.059,1.014,0.273,0.488,0.915,1.341,507.017
126069,157125,11134,-0.06,1.025,0.279,0.793,1.28,1.098,507.023
126057,157114,11330,-0.06,1.025,0.279,0.793,1.28,1.098,507.027
126057,157121,11127,-0.061,1.018,0.267,0.427,1.768,0.793,507.033
126071,157114,11330,-0.061,1.018,0.267,0.427,1.768,0.793,507.037
126071,157118,11137,-0.059,1.01,0.254,-1.037,1.829,0.793,507.043
126089,157114,11330,-0.059,1.01,0.254,-1.037,1.829,0.793,507.047
126089,157120,11127,-0.065,0.989,0.209,-2.195,1.524,0.793,507.053
126081,157114,11330,-0.065,0.989,0.209,-2.195,1.524,0.793,507.057
126081,157133,11124,-0.062,1.016,0.208,-2.317,0.854,0.793,507.063
126023,157114,11330,-0.062,1.016,0.208,-2.317,0.854,0.793,507.067
126023,157107,11119,-0.061,1.02,0.229,-1.037,-0.305,0.854,507.073
126022,157114,11330,-0.061,1.02,0.229,-1.037,-0.305,0.854,507.076
126022,157083,11116,-0.066,1.035,0.252,0.976,-0.854,0.915,507.083
126029,157114,11330,-0.066,1.035,0.252,0.976,-0.854,0.915,507.086
126029,157094,11119,-0.069,1.031,0.271,0.122,-1.098,0.854,507.093
126018,157114,11330,-0.069,1.031,0.271,0.122,-1.098,0.854,507.096
126018,157090,11122,-0.071,1.018,0.279,-1.646,-1.22,0.427,507.102
125975,157114,11330,-0.071,1.018,0.279,-1.646,-1.22,0.427,507.106
125975,157060,11117,-0.069,1.01,0.28,-2.134,-1.037,0.183,507.112
125979,157114,11330,-0.069,1.01,0.28,-2.134,-1.037,0.183,507.116
125979,157025,11119,-0.067,0.999,0.291,-0.732,-0.488,0.183,507.122
125973,157114,11330,-0.068,0.991,0.287,-0.732,-0.488,0.183,507.126
125973,157052,11129,-0.07,0.994,0.272,1.402,0.183,0.305,507.132
126001,157114,11330,-0.069,1.011,0.261,1.402,0.183,0.305,507.136
126001,157064,11128,-0.065,1.016,0.251,1.159,0.549,0.122,507.142
125949,157114,11330,-0.062,1.012,0.246,1.159,0.549,0.122,507.146
125949,157016,11116,-0.06,1.008,0.24,0.122,0.183,0.183,507.152
125941,157114,11330,-0.06,0.998,0.238,0.122,0.183,0.183,507.156
125941,157027,11113,-0.059,1.001,0.238,0.305,-0.488,0.61,507.162
125883,157114,11330,-0.056,1.017,0.239,0.305,-0.488,0.61,507.166
125883,157017,11100,-0.05,1.024,0.245,1.585,-0.549,0.488,507.172
125811,156858,11330,-0.05,1.027,0.254,1.585,-0.549,0.488,507.175
125811,156913,11102,-0.055,1.031,0.254,1.951,-0.366,0.244,507.182
125667,156858,11330,-0.059,1.028,0.259,1.951,-0.366,0.244,507.185
125667,156810,11060,-0.062,1.029,0.262,0.915,-0.427,0.122,507.191
125520,156858,11330,-0.061,1.026,0.266,0.915,-0.427,0.122,507.195
125520,156693,11054,-0.062,1.015,0.265,0.061,-0.488,-0.183,507.201
125330,156602,11330,-0.064,1.011,0.264,0.061,-0.488,-0.183,507.205
125330,156559,11037,-0.065,1.013,0.267,0.427,0,-0.122,507.211
125121,156346,11330,-0.068,1.011,0.269,0.427,0,-0.122,507.215
125121,156382,10984,-0.068,1.004,0.267,0.793,0.671,-0.061,507.221
124868,156346,11330,-0.067,1.002,0.272,0.793,0.671,-0.061,507.225
124868,156190,10972,-0.068,1,0.265,0.732,0.976,0.305,507.231
124663,156090,11330,-0.067,0.988,0.255,0.732,0.976,0.305,507.235
124663,155988,10923,-0.067,0.988,0.245,0.854,0.976,0.793,507.241
124401,155834,11330,-0.059,1.001,0.245,0.854,0.976,0.793,507.245
124401,155780,10903,-0.054,0.999,0.248,1.098,0.732,1.098,507.251
124107,155578,11330,-0.054,1.004,0.248,1.098,0.732,1.098,507.255
124107,155568,10863,-0.054,1.018,0.243,1.646,0.305,1.524,507.261
123866,155322,11330,-0.049,1.031,0.242,1.646,0.305,1.524,507.265
123866,155371,10823,-0.045,1.036,0.259,1.037,-0.488,1.707,507.271
123662,155322,11330,-0.045,1.031,0.269,1.037,-0.488,1.707,507.274
123662,155220,10813,-0.047,1.021,0.267,1.28,-0.61,1.524,507.281
123558,155066,11330,-0.052,1.012,0.27,1.28,-0.61,1.524,507.284
123558,155130,10785,-0.06,1.015,0.278,2.195,0.122,0.915,507.291
123452,155066,11330,-0.062,1.026,0.28,2.195,0.122,0.915,507.294
123452,155082,10788,-0.065,1.027,0.278,2.5,1.098,0.183,507.3
123410,155066,11330,-0.07,1.025,0.271,2.5,1.098,0.183,507.304
123410,155051,10786,-0.072,1.019,0.267,2.561,1.28,-0.183,507.31
123392,155066,11330,-0.069,1.015,0.267,2.561,1.28,-0.183,507.314
123392,155024,10773,-0.069,1.01,0.258,1.524,1.341,-0.244,507.32
123365,155066,11330,-0.068,0.997,0.252,1.524,1.341,-0.244,507.324
123365,155009,10765,-0.068,1.001,0.244,0.61,1.402,-0.183,507.33
123398,155066,11330,-0.066,1.005,0.233,0.61,1.402,-0.183,507.334
123398,155018,10766,-0.061,1.002,0.228,0.305,1.22,-0.061,507.34
123390,155066,11330,-0.058,1.006,0.224,0.305,1.22,-0.061,507.344
123390,155004,10774,-0.055,1.01,0.224,0.61,0.671,0.183,507.35
123339,155066,11330,-0.059,1.012,0.23,0.61,0.671,0.183,507.354
123339,154966,10759,-0.059,1.012,0.238,0.427,-0.061,0.427,507.36
123264,155066,11330,-0.059,1.021,0.25,0.427,-0.061,0.427,507.364
123264,154941,10757,-0.058,1.03,0.258,1.22,-0.122,0.366,507.37
123251,155066,11330,-0.06,1.03,0.267,1.22,-0.122,0.366,507.373
123251,154902,10752,-0.062,1.033,0.275,1.402,0.122,0.244,507.38
123210,154810,11330,-0.065,1.028,0.27,1.402,0.122,0.244,507.383
123210,154860,10749,-0.062,1.019,0.273,0.671,0.427,-0.061,507.39
123125,154810,11330,-0.065,1.012,0.275,0.671,0.427,-0.061,507.393
123125,154781,10731,-0.066,1.008,0.272,0.793,0.854,-0.061,507.399
122976,154810,11330,-0.064,1.007,0.266,0.793,0.854,-0.061,507.403
122976,154688,10713,-0.061,1.007,0.26,1.28,1.341,0,507.409
122900,154810,11330,-0.066,1.011,0.257,1.28,1.341,0,507.413
122900,154645,10700,-0.065,1.01,0.249,1.28,1.22,-0.122,507.419
122837,154554,11330,-0.064,0.993,0.247,1.28,1.22,-0.122,507.423
122837,154579,10712,-0.06,0.991,0.241,1.707,1.098,-0.122,507.429
122804,154554,11330,-0.058,0.999,0.236,1.707,1.098,-0.122,507.433
122804,154539,10688,-0.061,1.007,0.235,2.439,1.22,0.122,507.439
122788,154554,11330,-0.058,1.017,0.231,2.439,1.22,0.122,507.443
122788,154520,10678,-0.056,1.019,0.234,2.256,0.976,0.183,507.449
122747,154554,11330,-0.057,1.024,0.238,2.256,0.976,0.183,507.453
122747,154522,10680,-0.054,1.022,0.234,1.463,0.183,0.183,507.459
122722,154554,11330,-0.057,1.016,0.237,1.463,0.183,0.183,507.463
122722,154493,10686,-0.06,1.016,0.244,1.646,-0.061,0.244,507.469
122683,154554,11330,-0.063,1.021,0.253,1.646,-0.061,0.244,507.472
122683,154453,10677,-0.061,1.022,0.259,2.073,0.244,0,507.479
122619,154554,11330,-0.065,1.023,0.264,2.073,0.244,0,507.482
122619,154409,10677,-0.067,1.023,0.266,2.683,0.671,-0.244,507.488
122518,154298,11330,-0.065,1.024,0.271,2.683,0.671,-0.244,507.492
122518,154352,10656,-0.068,1.025,0.274,2.317,0.976,-0.305,507.498
122419,154298,11330,-0.068,1.022,0.271,2.317,0.976,-0.305,507.502
122419,154276,10637,-0.067,1.02,0.269,1.159,1.159,-0.549,507.508
122338,154298,11330,-0.067,1.018,0.259,1.159,1.159,-0.549,507.512
122338,154189,10639,-0.066,1.011,0.25,0,1.22,-0.854,507.518
122258,154298,11330,-0.065,0.995,0.233,0,1.22,-0.854,507.522
122258,154139,10625,-0.068,0.997,0.214,-0.976,0.854,-0.793,507.528
122177,154042,11330,-0.065,1.008,0.209,-0.976,0.854,-0.793,507.532
122177,154072,10606,-0.059,1.014,0.219,-1.89,0,-0.305,507.538
122074,154042,11330,-0.05,1.005,0.229,-1.89,0,-0.305,507.542
122074,154032,10604,-0.051,0.997,0.237,-0.61,-0.488,0,507.548
121990,154042,11330,-0.054,1.006,0.24,-0.61,-0.488,0,507.552
121990,153933,10586,-0.059,1.022,0.244,0.122,-0.366,0.244,507.558
121880,154042,11330,-0.059,1.022,0.244,0.122,-0.366,0.244,507.562
121880,153875,10555,-0.063,1.033,0.266,-0.305,-0.244,0.122,507.568
121813,153786,11330,-0.063,1.033,0.266,-0.305,-0.244,0.122,507.571
121813,153833,10562,-0.064,1.015,0.273,-0.915,-0.122,0.305,507.578
121785,153786,11330,-0.064,1.015,0.273,-0.915,-0.122,0.305,507.581
121785,153793,10551,-0.071,1.01,0.279,-1.646,0.122,0.244,507.588
121782,153786,11330,-0.071,1.01,0.279,-1.646,0.122,0.244,507.591
121782,153811,10552,-0.068,0.995,0.267,-0.976,0.732,0,507.597
121796,153786,11330,-0.068,0.995,0.267,-0.976,0.732,0,507.601
121796,153822,10560,-0.071,1.002,0.249,0,1.159,0.183,507.607
121828,153786,11330,-0.071,1.002,0.249,0,1.159,0.183,507.611
121828,153845,10540,-0.064,0.999,0.231,-0.061,0.793,0.427,507.617
121849,154042,11330,-0.064,0.999,0.231,-0.061,0.793,0.427,507.621
121849,153880,10565,-0.054,1.008,0.231,0.122,0.122,0.732,507.627
121835,154042,11330,-0.054,1.008,0.231,0.122,0.122,0.732,507.631
121835,153880,10555,-0.055,1.013,0.233,0.427,-0.061,0.915,507.637
121816,153786,11330,-0.055,1.013,0.233,0.427,-0.061,0.915,507.641
121816,153855,10564,-0.059,1.032,0.246,0.488,-0.244,0.854,507.647
121797,153786,11330,-0.059,1.032,0.246,0.488,-0.244,0.854,507.651
121797,153839,10545,-0.062,1.027,0.26,0.671,0.061,0.854,507.657
121775,153786,11330,-0.062,1.027,0.26,0.671,0.061,0.854,507.661
121775,153808,10548,-0.069,1.027,0.259,0.427,0.427,0.488,507.667
121728,153786,11330,-0.069,1.027,0.259,0.427,0.427,0.488,507.67
121728,153782,10539,-0.07,1.017,0.258,0.305,0.61,0.244,507.677
121651,153786,11330,-0.07,1.017,0.258,0.305,0.61,0.244,507.68
