124370,156602,11330,-0.129,0.984,0.33,-0.366,0.488,0.61,412.817
124370,156446,11135,-0.127,0.989,0.331,-0.671,0.732,0.488,412.823
124346,156346,11330,-0.127,0.993,0.315,-0.671,0.732,0.488,412.827
124346,156415,11119,-0.129,0.996,0.311,-1.707,0.244,0.549,412.833
124379,156602,11330,-0.127,0.989,0.314,-1.707,0.244,0.549,412.837
124379,156455,11146,-0.128,0.983,0.318,-1.89,-0.549,0.61,412.843
124396,156602,11330,-0.125,0.986,0.32,-1.89,-0.549,0.61,412.847
124396,156438,11137,-0.126,0.986,0.33,-0.915,-0.671,0.61,412.853
124364,156602,11330,-0.127,0.99,0.345,-0.915,-0.671,0.61,412.856
124364,156465,11113,-0.131,0.992,0.35,0.61,0,0.61,412.863
124386,156602,11330,-0.133,0.999,0.348,0.61,0,0.61,412.866
124386,156441,11139,-0.138,1.002,0.349,0.732,0.671,0.366,412.872
124371,156602,11330,-0.137,1.002,0.35,0.732,0.671,0.366,412.876
124371,156434,11118,-0.136,0.996,0.345,-0.244,0.549,-0.061,412.882
124374,156602,11330,-0.136,0.998,0.341,-0.244,0.549,-0.061,412.886
124374,156449,11121,-0.138,0.989,0.344,-1.28,0.244,-0.183,412.892
124352,156346,11330,-0.136,0.973,0.34,-1.28,0.244,-0.183,412.896
124352,156403,11126,-0.133,0.967,0.338,-1.22,0.366,0,412.902
124313,156346,11330,-0.137,0.967,0.337,-1.22,0.366,0,412.906
124313,156397,11122,-0.136,0.971,0.33,-0.854,0.976,0.061,412.912
124302,156346,11330,-0.133,0.974,0.327,-0.854,0.976,0.061,412.916
124302,156385,11121,-0.133,0.976,0.319,-0.671,0.915,0.244,412.922
124293,156346,11330,-0.133,0.978,0.32,-0.671,0.915,0.244,412.926
124293,156383,11122,-0.128,0.985,0.321,-1.098,0.366,0.366,412.932
124292,156346,11330,-0.125,0.989,0.326,-1.098,0.366,0.366,412.936
124292,156397,11107,-0.126,0.981,0.33,-1.341,0,0.732,412.942
124332,156346,11330,-0.127,0.98,0.339,-1.341,0,0.732,412.946
124332,156398,11116,-0.13,0.983,0.346,-0.793,0,1.037,412.952
124327,156346,11330,-0.13,0.99,0.344,-0.793,0,1.037,412.955
124327,156392,11123,-0.128,0.992,0.345,-0.427,0.244,0.854,412.962
124307,156346,11330,-0.128,0.995,0.345,-0.427,0.244,0.854,412.965
124307,156410,11118,-0.129,0.993,0.345,0.061,0.366,0.671,412.971
124324,156346,11330,-0.133,0.99,0.344,0.061,0.366,0.671,412.975
124324,156399,11122,-0.135,0.987,0.345,0.061,0.61,0.671,412.981
124332,156346,11330,-0.132,0.984,0.348,0.061,0.61,0.671,412.985
124332,156407,11102,-0.132,0.984,0.34,-0.122,0.793,0.427,412.991
124308,156346,11330,-0.131,0.984,0.34,-0.122,0.793,0.427,412.995
124308,156387,11121,-0.131,0.985,0.336,-0.488,0.793,0.366,413.001
124329,156346,11330,-0.133,0.979,0.324,-0.488,0.793,0.366,413.005
124329,156405,11120,-0.134,0.981,0.324,-0.671,0.854,0.427,413.011
124310,156346,11330,-0.134,0.978,0.317,-0.671,0.854,0.427,413.015
124310,156367,11120,-0.133,0.973,0.306,-0.793,0.61,0.488,413.021
124292,156346,11330,-0.132,0.979,0.303,-0.793,0.61,0.488,413.025
124292,156380,11113,-0.134,0.983,0.312,-1.037,0.061,0.549,413.031
124267,156346,11330,-0.126,0.981,0.321,-1.037,0.061,0.549,413.035
124267,156355,11102,-0.127,0.977,0.333,-0.244,-0.366,0.976,413.041
124253,156346,11330,-0.13,0.979,0.335,-0.244,-0.366,0.976,413.045
124253,156345,11117,-0.128,0.988,0.342,1.037,-0.061,1.463,413.051
124259,156346,11330,-0.13,0.998,0.347,1.037,-0.061,1.463,413.054
124259,156345,11108,-0.128,1.005,0.348,1.037,0.427,1.28,413.061
124249,156346,11330,-0.126,1.004,0.349,1.037,0.427,1.28,413.064
124249,156335,11108,-0.127,0.999,0.352,0.488,0.244,0.915,413.071
124241,156346,11330,-0.128,1.002,0.347,0.488,0.244,0.915,413.074
124241,156348,11107,-0.129,1,0.353,-1.28,0.183,0.732,413.08
124229,156346,11330,-0.132,0.994,0.35,-1.28,0.183,0.732,413.084
124229,156353,11115,-0.134,0.984,0.341,-2.744,0.488,0.427,413.09
124255,156346,11330,-0.136,0.982,0.335,-2.744,0.488,0.427,413.094
124255,156327,11114,-0.136,0.981,0.335,-4.024,0.854,-0.061,413.1
124242,156346,11330,-0.133,0.976,0.337,-4.024,0.854,-0.061,413.104
124242,156347,11103,-0.129,0.972,0.325,-4.39,0.305,0,413.11
124281,156346,11330,-0.132,0.964,0.314,-4.39,0.305,0,413.114
124281,156359,11105,-0.127,0.967,0.319,-3.415,-0.244,0,413.12
124269,156346,11330,-0.126,0.97,0.318,-3.415,-0.244,0,413.124
124269,156354,11106,-0.128,0.973,0.321,-1.341,-0.305,0.183,413.13
124235,156346,11330,-0.13,0.985,0.322,-1.341,-0.305,0.183,413.134
124235,156343,11116,-0.128,0.993,0.333,0.244,-0.061,0.305,413.14
124240,156346,11330,-0.127,0.992,0.342,0.244,-0.061,0.305,413.144
124240,156353,11109,-0.125,0.993,0.354,0.61,-0.244,0.305,413.15
124232,156346,11330,-0.131,0.995,0.358,0.61,-0.244,0.305,413.153
124232,156340,11114,-0.131,0.993,0.354,-0.427,-0.183,0.488,413.16
124238,156346,11330,-0.129,0.986,0.35,-0.427,-0.183,0.488,413.163
124238,156324,11109,-0.129,0.984,0.345,-1.28,0.183,0.427,413.169
124263,156346,11330,-0.13,0.985,0.347,-1.28,0.183,0.427,413.173
124263,156322,11107,-0.127,0.987,0.352,-1.646,0.366,0.366,413.179
124254,156346,11330,-0.131,0.985,0.349,-1.646,0.366,0.366,413.183
124254,156335,11106,-0.133,0.982,0.347,-1.402,0.915,0.61,413.189
124235,156346,11330,-0.133,0.98,0.34,-1.402,0.915,0.61,413.193
124235,156358,11120,-0.134,0.983,0.337,-1.463,1.341,0.549,413.199
124262,156346,11330,-0.134,0.99,0.333,-1.463,1.341,0.549,413.203
124262,156366,11116,-0.137,0.988,0.329,-2.012,1.159,0.427,413.209
124292,156346,11330,-0.133,0.983,0.328,-2.012,1.159,0.427,413.213
124292,156360,11122,-0.131,0.98,0.33,-2.683,0.488,0.305,413.219
124276,156346,11330,-0.131,0.98,0.33,-2.683,0.488,0.305,413.223
124276,156369,11116,-0.131,0.976,0.329,-2.622,0.305,0.427,413.229
124275,156346,11330,-0.131,0.976,0.329,-2.622,0.305,0.427,413.233
124275,156364,11110,-0.129,0.98,0.326,-1.585,0.549,0.488,413.239
124251,156346,11330,-0.129,0.98,0.326,-1.585,0.549,0.488,413.243
124251,156386,11102,-0.128,0.991,0.34,-0.366,0.488,0.427,413.249
124260,156346,11330,-0.128,0.991,0.34,-0.366,0.488,0.427,413.252
124260,156367,11101,-0.127,0.993,0.351,0.183,0.244,0.244,413.259
124245,156346,11330,-0.127,0.993,0.351,0.183,0.244,0.244,413.262
124245,156371,11116,-0.129,0.996,0.346,-0.122,0.183,0.061,413.269
124275,156346,11330,-0.129,0.996,0.346,-0.122,0.183,0.061,413.272
124275,156370,11116,-0.127,0.991,0.342,-1.159,0.061,-0.427,413.278
124275,156346,11330,-0.127,0.991,0.342,-1.159,0.061,-0.427,413.282
124275,156368,11101,-0.132,0.981,0.339,-1.829,-0.183,-0.61,413.288
124253,156346,11330,-0.132,0.981,0.339,-1.829,-0.183,-0.61,413.292
124253,156343,11105,-0.129,0.973,0.341,-1.646,0,-0.61,413.298
124254,156346,11330,-0.129,0.973,0.341,-1.646,0,-0.61,413.302
124254,156350,11118,-0.13,0.978,0.342,-0.61,0.427,-0.183,413.308
124263,156346,11330,-0.13,0.978,0.342,-0.61,0.427,-0.183,413.312
124263,156347,11101,-0.131,0.98,0.335,-0.122,0.61,0.183,413.318
124228,156346,11330,-0.131,0.98,0.335,-0.122,0.61,0.183,413.322
124228,156313,11104,-0.129,0.979,0.335,-0.061,0.427,0.305,413.328
124196,156346,11330,-0.129,0.979,0.335,-0.061,0.427,0.305,413.332
124196,156294,11105,-0.133,0.976,0.335,0.061,0.183,0.61,413.338
124185,156346,11330,-0.133,0.976,0.335,0.061,0.183,0.61,413.342
124185,156289,11082,-0.129,0.983,0.349,-0.244,0.122,0.976,413.348
124217,156346,11330,-0.129,0.983,0.349,-0.244,0.122,0.976,413.351
124217,156308,11111,-0.129,0.982,0.346,0.366,0.366,1.159,413.358
124188,156346,11330,-0.129,0.982,0.346,0.366,0.366,1.159,413.361
124188,156317,11091,-0.128,0.991,0.347,0.366,0.366,1.159,413.367
124214,156346,11330,-0.127,0.997,0.344,0.793,0.915,1.159,413.371
124214,156290,11111,-0.13,0.999,0.345,0.793,0.915,1.159,413.377
124217,156346,11330,-0.128,0.996,0.343,0.061,0.915,0.671,413.381
124217,156328,11105,-0.133,0.99,0.337,0.061,0.915,0.671,413.387
124225,156346,11330,-0.134,0.98,0.337,-1.585,0.732,0.61,413.391
124225,156316,11106,-0.136,0.976,0.338,-1.585,0.732,0.61,413.397
124219,156346,11330,-0.131,0.975,0.326,-1.402,0.427,0.61,413.401
124219,156301,11114,-0.127,0.982,0.324,-1.402,0.427,0.61,413.407
124202,156346,11330,-0.126,0.991,0.332,-0.305,0.366,0.244,413.411
124202,156306,11103,-0.125,0.989,0.339,-0.305,0.366,0.244,413.417
124176,156346,11330,-0.129,0.985,0.335,0.549,0.427,0.244,413.421
124176,156293,11106,-0.132,0.987,0.338,0.549,0.427,0.244,413.427
124147,156346,11330,-0.132,0.987,0.343,0.183,0.244,0.244,413.431
124147,156316,11088,-0.131,0.98,0.345,0.183,0.244,0.244,413.437
124157,156346,11330,-0.131,0.975,0.344,0,-0.183,0.427,413.441
124157,156263,11077,-0.134,0.975,0.34,0,-0.183,0.427,413.447
124134,156346,11330,-0.138,0.978,0.342,0.671,0,0.427,413.45
124134,156262,11108,-0.136,0.98,0.349,0.671,0,0.427,413.457
124114,156346,11330,-0.138,0.98,0.349,1.524,0.488,0.488,413.46
124114,156246,11103,-0.137,0.982,0.348,1.524,0.488,0.488,413.466
124110,156346,11330,-0.134,0.984,0.354,1.707,0.488,0.671,413.47
124110,156233,11105,-0.13,0.984,0.349,1.707,0.488,0.671,413.476
124102,156346,11330,-0.132,0.983,0.344,1.098,0.549,0.732,413.48
124102,156222,11100,-0.135,0.985,0.344,1.098,0.549,0.732,413.486
124124,156346,11330,-0.133,0.982,0.348,0.305,0.854,0.549,413.49
124124,156222,11093,-0.132,0.977,0.343,0.305,0.854,0.549,413.496
124102,156346,11330,-0.13,0.978,0.336,-0.854,0.671,0.488,413.5
124102,156216,11088,-0.131,0.978,0.33,-0.854,0.671,0.488,413.506
124088,156346,11330,-0.126,0.976,0.326,-1.037,0.549,0.732,413.51
124088,156195,11079,-0.125,0.979,0.323,-1.037,0.549,0.732,413.516
124081,156346,11330,-0.126,0.986,0.32,-0.366,0.305,0.61,413.52
124081,156192,11082,-0.127,0.985,0.32,-0.366,0.305,0.61,413.526
124059,156346,11330,-0.128,0.987,0.32,-0.61,0,0.671,413.53
124059,156214,11076,-0.123,0.982,0.323,-0.61,0,0.671,413.536
124057,156346,11330,-0.125,0.984,0.328,-0.793,-0.427,0.976,413.54
124057,156177,11084,-0.126,0.991,0.339,-0.793,-0.427,0.976,413.546
124042,156346,11330,-0.126,0.991,0.344,-0.366,-0.549,1.098,413.549
124042,156170,11084,-0.125,0.992,0.339,-0.366,-0.549,1.098,413.556
124035,156346,11330,-0.124,0.997,0.34,1.159,-0.488,0.61,413.559
124035,156178,11079,-0.124,1.01,0.355,1.159,-0.488,0.61,413.565
124023,156346,11330,-0.128,1.012,0.367,1.768,-0.122,0.183,413.569
124023,156172,11097,-0.134,1.006,0.366,1.768,-0.122,0.183,413.575
124041,156346,11330,-0.137,0.996,0.362,0.549,0.366,-0.122,413.579
124041,156170,11094,-0.134,0.987,0.362,0.549,0.366,-0.122,413.585
124046,156346,11330,-0.135,0.984,0.356,-1.28,0.305,-0.366,413.589
124046,156168,11086,-0.133,0.978,0.35,-1.28,0.305,-0.366,413.595
124095,156346,11330,-0.131,0.971,0.336,-1.951,0.183,-0.366,413.599
124095,156187,11088,-0.132,0.966,0.318,-1.951,0.183,-0.366,413.605
124113,156346,11330,-0.134,0.969,0.312,-1.22,0.305,-0.488,413.609
124113,156210,11083,-0.129,0.977,0.312,-1.22,0.305,-0.488,413.615
124121,156346,11330,-0.128,0.979,0.319,-0.488,0.183,-0.122,413.619
124121,156238,11077,-0.13,0.976,0.327,-0.488,0.183,-0.122,413.625
124125,156346,11330,-0.127,0.977,0.333,0.427,0.122,0.427,413.629
124125,156237,11084,-0.13,0.982,0.336,0.427,0.122,0.427,413.635
124125,156346,11330,-0.127,0.981,0.342,-0.244,-0.061,0.61,413.639
124125,156243,11097,-0.126,0.979,0.342,-0.244,-0.061,0.61,413.645
124113,156346,11330,-0.124,0.979,0.348,-0.427,-0.305,0.61,413.648
124113,156279,11089,-0.13,0.979,0.351,-0.427,-0.305,0.61,413.655
124157,156346,11330,-0.127,0.985,0.35,-0.183,0.244,0.671,413.658
124157,156262,11099,-0.128,0.988,0.348,-0.183,0.244,0.671,413.664
124160,156346,11330,-0.127,0.992,0.356,0.427,0.671,0.732,413.668
124160,156269,11097,-0.125,0.994,0.361,0.427,0.671,0.732,413.674
124185,156346,11330,-0.128,0.992,0.358,0.366,0.732,0.732,413.678
124185,156306,11107,-0.13,0.99,0.362,0.366,0.732,0.732,413.684
124208,156346,11330,-0.134,0.989,0.353,-0.366,1.037,0.488,413.688
124208,156289,11097,-0.135,0.987,0.343,-0.366,1.037,0.488,413.694
124202,156346,11330,-0.132,0.986,0.334,-1.037,1.402,0.061,413.698
124202,156330,11093,-0.133,0.982,0.329,-1.037,1.402,0.061,413.704
124203,156346,11330,-0.134,0.976,0.323,-1.829,1.037,-0.122,413.708
124203,156325,11099,-0.136,0.972,0.315,-1.829,1.037,-0.122,413.714
124208,156346,11330,-0.131,0.97,0.319,-1.951,0.793,0.244,413.718
124208,156346,11113,-0.13,0.964,0.319,-1.951,0.793,0.244,413.724
124211,156346,11330,-0.128,0.969,0.321,-0.671,0.732,0.488,413.728
124211,156331,11096,-0.129,0.981,0.32,-0.671,0.732,0.488,413.734
124192,156346,11330,-0.13,0.989,0.33,0.183,0.854,0.671,413.738
124192,156308,11090,-0.132,0.985,0.335,0.183,0.854,0.671,413.744
124171,156346,11330,-0.135,0.985,0.337,0.366,0.61,0.854,413.747
124171,156318,11101,-0.128,0.987,0.342,0.366,0.61,0.854,413.754
124147,156346,11330,-0.125,0.99,0.345,0.122,0.244,0.915,413.757
124147,156265,11100,-0.125,0.99,0.348,0.122,0.244,0.915,413.763
124125,156346,11330,-0.128,0.992,0.354,0.671,0.427,0.793,413.767
124125,156250,11093,-0.13,0.993,0.354,0.671,0.427,0.793,413.773
124115,156346,11330,-0.131,0.993,0.356,0.61,0.854,0.61,413.777
124115,156216,11086,-0.131,0.99,0.352,0.61,0.854,0.61,413.783
124070,156346,11330,-0.133,0.984,0.35,-0.183,0.61,0.244,413.787
124070,156228,11096,-0.128,0.981,0.347,-0.183,0.61,0.244,413.793
124067,156346,11330,-0.126,0.982,0.336,-0.61,0.61,0.061,413.797
124067,156198,11077,-0.127,0.98,0.34,-0.61,0.61,0.061,413.803
124057,156346,11330,-0.127,0.98,0.34,-0.61,0.61,0.061,413.807
124057,156196,11082,-0.13,0.984,0.33,-0.061,0.793,0.122,413.813
124031,156346,11330,-0.13,0.984,0.33,-0.061,0.793,0.122,413.817
124031,156173,11066,-0.137,0.973,0.316,-0.122,1.037,0.122,413.823
123971,156090,11330,-0.137,0.973,0.316,-0.122,1.037,0.122,413.827
123971,156121,11085,-0.13,0.98,0.319,-0.793,0.61,0.183,413.833
123958,156090,11330,-0.13,0.98,0.319,-0.793,0.61,0.183,413.837
123958,156088,11069,-0.127,0.98,0.332,-1.402,-0.061,0.671,413.843
123883,156090,11330,-0.127,0.98,0.332,-1.402,-0.061,0.671,413.846
123883,156073,11055,-0.131,0.982,0.343,-0.488,-0.061,1.098,413.853
123832,156090,11330,-0.131,0.982,0.343,-0.488,-0.061,1.098,413.856
123832,156014,11050,-0.133,0.993,0.338,0.183,0.244,0.915,413.862
123811,156090,11330,-0.133,0.993,0.338,0.183,0.244,0.915,413.866
123811,155987,11045,-0.134,0.995,0.333,-0.183,0.244,0.549,413.872
123784,156090,11330,-0.134,0.995,0.333,-0.183,0.244,0.549,413.876
123784,155969,11040,-0.132,0.983,0.341,-0.793,-0.061,0.488,413.882
123783,156090,11330,-0.132,0.983,0.341,-0.793,-0.061,0.488,413.886
123783,155969,11047,-0.13,0.985,0.348,-0.488,-0.488,0.366,413.892
123750,156090,11330,-0.13,0.985,0.348,-0.488,-0.488,0.366,413.896
123750,155955,11025,-0.132,0.984,0.344,0.122,-0.122,0,413.902
123708,155834,11330,-0.132,0.984,0.344,0.122,-0.122,0,413.906
123708,155901,11048,-0.13,0.985,0.343,0.61,0.122,-0.183,413.912
123662,155834,11330,-0.13,0.985,0.343,0.61,0.122,-0.183,413.916
123662,155895,11035,-0.13,0.978,0.345,0.244,-0.122,-0.244,413.922
123642,155834,11330,-0.13,0.978,0.345,0.244,-0.122,-0.244,413.926
123642,155863,11023,-0.133,0.975,0.346,-0.366,0,-0.122,413.932
123584,155834,11330,-0.133,0.975,0.346,-0.366,0,-0.122,413.935
123584,155849,11012,-0.126,0.98,0.34,-0.183,0.244,0.122,413.942
123591,155834,11330,-0.126,0.98,0.34,-0.183,0.244,0.122,413.945
123591,155821,11011,-0.123,0.996,0.336,0.122,0.488,0.183,413.952
123558,155834,11330,-0.121,0.995,0.335,0.122,0.488,0.183,413.955
123558,155822,11007,-0.122,0.987,0.336,-0.732,0.549,0.244,413.961
123586,155834,11330,-0.125,0.978,0.338,-0.732,0.549,0.244,413.965
123586,155805,11025,-0.129,0.974,0.337,-1.22,0.244,0.488,413.971
123582,155834,11330,-0.128,0.976,0.341,-1.22,0.244,0.488,413.975
123582,155839,11028,-0.126,0.979,0.348,-0.732,0.244,0.854,413.981
123572,155834,11330,-0.126,0.984,0.346,-0.732,0.244,0.854,413.985
123572,155832,11023,-0.128,0.995,0.345,0.61,0.915,0.793,413.991
123581,155834,11330,-0.136,0.998,0.341,0.61,0.915,0.793,413.995
123581,155823,11017,-0.135,1.001,0.336,0.732,1.159,0.549,414.001
123558,155834,11330,-0.132,1.001,0.333,0.732,1.159,0.549,414.005
123558,155816,11021,-0.132,0.994,0.336,-0.793,0.549,0.183,414.011
123559,155834,11330,-0.132,0.981,0.337,-0.793,0.549,0.183,414.015
123559,155803,11021,-0.133,0.973,0.34,-1.22,0.122,0.061,414.021
123562,155834,11330,-0.133,0.972,0.34,-1.22,0.122,0.061,414.025
123562,155814,11012,-0.133,0.978,0.339,-0.366,0.549,0.305,414.031
123563,155834,11330,-0.137,0.985,0.335,-0.366,0.549,0.305,414.034
123563,155809,11028,-0.134,0.989,0.333,0.183,0.976,-0.122,414.041
123545,155834,11330,-0.133,0.99,0.339,0.183,0.976,-0.122,414.044
123545,155813,11014,-0.135,0.988,0.344,-0.183,0.61,-0.305,414.051
123556,155834,11330,-0.134,0.986,0.343,-0.183,0.61,-0.305,414.054
123556,155812,11013,-0.133,0.985,0.344,-1.037,0.244,0.061,414.06
123532,155834,11330,-0.13,0.983,0.34,-1.037,0.244,0.061,414.064
123532,155801,11004,-0.125,0.984,0.34,-0.854,0.122,0,414.07
123550,155834,11330,-0.126,0.988,0.335,-0.854,0.122,0,414.074
123550,155777,11021,-0.128,0.989,0.335,-0.366,0.244,-0.488,414.08
123507,155834,11330,-0.131,0.982,0.338,-0.366,0.244,-0.488,414.084
123507,155779,11007,-0.13,0.978,0.332,-0.61,0.366,-0.488,414.09
123493,155834,11330,-0.131,0.975,0.333,-0.61,0.366,-0.488,414.094
123493,155773,10988,-0.131,0.972,0.336,-0.793,0.122,-0.244,414.1
123517,155834,11330,-0.131,0.976,0.338,-0.793,0.122,-0.244,414.104
123517,155771,11021,-0.126,0.985,0.346,-0.122,0.183,-0.061,414.11
123494,155834,11330,-0.128,0.992,0.347,-0.122,0.183,-0.061,414.114
123494,155766,11011,-0.128,0.994,0.348,0.61,0.793,0.061,414.12
123489,155834,11330,-0.131,0.994,0.344,0.61,0.793,0.061,414.124
123489,155763,11011,-0.131,0.996,0.34,0.122,0.732,-0.061,414.13
123487,155834,11330,-0.129,0.993,0.338,0.122,0.732,-0.061,414.133
123487,155754,11016,-0.126,0.987,0.336,-1.159,0.244,-0.305,414.14
123502,155834,11330,-0.129,0.978,0.331,-1.159,0.244,-0.305,414.143
123502,155784,11007,-0.134,0.969,0.332,-1.646,0.183,-0.183,414.15
123526,155834,11330,-0.132,0.968,0.324,-1.646,0.183,-0.183,414.153
123526,155783,10999,-0.134,0.974,0.328,-1.463,0.183,-0.122,414.159
123530,155834,11330,-0.133,0.975,0.33,-1.463,0.183,-0.122,414.163
123530,155790,11028,-0.133,0.977,0.332,-0.427,0.305,0.122,414.169
123523,155834,11330,-0.134,0.984,0.344,-0.427,0.305,0.122,414.173
123523,155787,11019,-0.136,0.988,0.35,0.427,0.549,0.244,414.179
123543,155834,11330,-0.135,0.992,0.348,0.427,0.549,0.244,414.183
123543,155785,11016,-0.132,0.998,0.351,0.183,0.549,0.183,414.189
123546,155834,11330,-0.13,0.996,0.352,0.183,0.549,0.183,414.193
123546,155806,11007,-0.131,0.994,0.349,-0.732,0.549,-0.061,414.199
123536,155834,11330,-0.133,0.988,0.348,-0.732,0.549,-0.061,414.203
123536,155783,11014,-0.134,0.984,0.344,-2.073,0.366,-0.366,414.209
123534,155834,11330,-0.131,0.977,0.346,-2.073,0.366,-0.366,414.213
123534,155797,11016,-0.131,0.973,0.343,-2.561,0.366,-0.488,414.219
123521,155834,11330,-0.131,0.968,0.34,-2.561,0.366,-0.488,414.223
123521,155778,11019,-0.127,0.965,0.338,-1.768,0.366,-0.366,414.229
123528,155834,11330,-0.128,0.971,0.337,-1.768,0.366,-0.366,414.232
123528,155788,11015,-0.13,0.979,0.341,-0.305,0.61,-0.244,414.239
123525,155834,11330,-0.132,0.981,0.335,-0.305,0.61,-0.244,414.242
123525,155785,11011,-0.136,0.979,0.33,0,0.793,-0.061,414.249
123497,155834,11330,-0.135,0.98,0.328,0,0.793,-0.061,414.252
123497,155757,11012,-0.135,0.979,0.33,-0.793,0.366,0.122,414.258
123484,155834,11330,-0.131,0.976,0.333,-0.793,0.366,0.122,414.262
123484,155745,10991,-0.132,0.975,0.335,-0.976,0,0.549,414.268
123433,155834,11330,-0.133,0.979,0.339,-0.976,0,0.549,414.272
123433,155716,11010,-0.136,0.984,0.342,0,0.305,0.732,414.278
123405,155834,11330,-0.138,0.989,0.347,0,0.305,0.732,414.282
123405,155695,10998,-0.138,0.988,0.344,0.488,0.61,0.793,414.288
123397,155834,11330,-0.138,0.991,0.347,0.488,0.61,0.793,414.292
123397,155667,10995,-0.135,0.994,0.351,0.122,0.549,0.732,414.298
123384,155834,11330,-0.135,0.992,0.352,0.122,0.549,0.732,414.302
123384,155667,10992,-0.136,0.987,0.351,-0.61,0.183,0.549,414.308
123374,155834,11330,-0.133,0.983,0.344,-0.61,0.183,0.549,414.312
123374,155652,10992,-0.131,0.979,0.336,-1.159,-0.061,0.183,414.318
123371,155834,11330,-0.132,0.981,0.336,-1.159,-0.061,0.183,414.322
123371,155675,10998,-0.13,0.978,0.336,-0.915,0.122,0.183,414.328
123379,155834,11330,-0.129,0.977,0.328,-0.915,0.122,0.183,414.331
123379,155661,10991,-0.128,0.984,0.325,-0.61,0.244,0.244,414.338
123360,155578,11330,-0.127,0.982,0.33,-0.61,0.244,0.244,414.341
123360,155641,11011,-0.129,0.979,0.33,-0.793,-0.061,0.244,414.348
123353,155578,11330,-0.13,0.978,0.332,-0.793,-0.061,0.244,414.351
123353,155625,10993,-0.13,0.977,0.335,-0.854,-0.244,0.488,414.357
123342,155578,11330,-0.131,0.973,0.339,-0.854,-0.244,0.488,414.361
123342,155601,10974,-0.132,0.978,0.342,-0.427,0,0.732,414.367
123321,155578,11330,-0.127,0.987,0.345,-0.427,0,0.732,414.371
123321,155620,11000,-0.125,0.988,0.347,0.366,-0.061,0.854,414.377
123343,155578,11330,-0.126,0.988,0.357,0.366,-0.061,0.854,414.381
123343,155628,10977,-0.132,0.991,0.358,1.037,0.183,0.854,414.387
123348,155578,11330,-0.132,0.991,0.358,1.037,0.183,0.854,414.391
123348,155629,10967,-0.132,0.997,0.357,0.732,0.427,0.854,414.397
123332,155578,11330,-0.132,0.997,0.357,0.732,0.427,0.854,414.401
123332,155608,10989,-0.133,0.996,0.354,0,0.732,0.488,414.407
123333,155578,11330,-0.133,0.996,0.354,0,0.732,0.488,414.411
123333,155626,10997,-0.134,0.986,0.337,-0.915,0.488,0.122,414.417
123352,155578,11330,-0.134,0.986,0.337,-0.915,0.488,0.122,414.421
123352,155603,10994,-0.133,0.978,0.343,-0.488,0.488,0.244,414.427
123339,155834,11330,-0.133,0.978,0.343,-0.488,0.488,0.244,414.43
123339,155650,10989,-0.135,0.982,0.333,-0.244,0.915,0.366,414.437
123346,155834,11330,-0.135,0.982,0.333,-0.244,0.915,0.366,414.44
123346,155666,10995,-0.135,0.979,0.333,-0.854,0.854,0.305,414.447
123367,155578,11330,-0.135,0.979,0.333,-0.854,0.854,0.305,414.45
123367,155628,10985,-0.131,0.974,0.328,-1.524,0.366,0.427,414.456
123375,155578,11330,-0.131,0.974,0.328,-1.524,0.366,0.427,414.46
123375,155641,10994,-0.133,0.978,0.331,-1.28,0.244,0.793,414.466
123377,155578,11330,-0.133,0.978,0.331,-1.28,0.244,0.793,414.47
123377,155646,11010,-0.132,0.989,0.332,-0.305,0.366,0.732,414.476
123381,155578,11330,-0.132,0.989,0.332,-0.305,0.366,0.732,414.48
123381,155644,10999,-0.128,0.991,0.35,0.427,0.305,0.61,414.486
123395,155834,11330,-0.128,0.991,0.35,0.427,0.305,0.61,414.49
123395,155661,10981,-0.134,0.985,0.354,0.183,0.244,0.793,414.496
123379,155834,11330,-0.134,0.985,0.354,0.183,0.244,0.793,414.5
123379,155652,11007,-0.129,0.985,0.354,-0.366,0.488,0.732,414.506
123358,155834,11330,-0.129,0.985,0.354,-0.366,0.488,0.732,414.51
123358,155673,10992,-0.131,0.993,0.348,-0.366,0.549,0.427,414.516
123368,155834,11330,-0.131,0.993,0.348,-0.366,0.549,0.427,414.52
123368,155664,10983,-0.129,0.983,0.341,-0.061,0.427,0.183,414.526
123385,155834,11330,-0.129,0.983,0.341,-0.061,0.427,0.183,414.529
123385,155670,10990,-0.132,0.986,0.338,-0.061,0.427,0.183,414.536
123397,155834,11330,-0.133,0.987,0.337,0.244,0.793,0.122,414.539
123397,155679,11015,-0.134,0.987,0.328,0.244,0.793,0.122,414.546
123398,155834,11330,-0.133,0.981,0.33,-0.61,0.793,0,414.549
123398,155687,10997,-0.133,0.973,0.332,-0.61,0.793,0,414.555
123413,155834,11330,-0.127,0.974,0.339,-1.646,0.061,0.122,414.559
123413,155692,11004,-0.128,0.97,0.34,-1.646,0.061,0.122,414.565
123407,155834,11330,-0.126,0.969,0.336,-1.28,-0.061,0.671,414.569
123407,155686,11012,-0.126,0.975,0.337,-1.28,-0.061,0.671,414.575
123433,155834,11330,-0.128,0.986,0.339,0.122,0.671,0.549,414.579
123433,155668,10989,-0.129,0.996,0.338,0.122,0.671,0.549,414.585
123443,155834,11330,-0.13,0.995,0.341,0.488,0.793,0.427,414.589
123443,155688,11018,-0.134,0.992,0.344,0.488,0.793,0.427,414.595
123418,155834,11330,-0.129,0.989,0.348,-0.244,0.366,0.488,414.599
123418,155702,10998,-0.13,0.982,0.352,-0.244,0.366,0.488,414.605
123431,155834,11330,-0.13,0.977,0.35,-0.732,0.244,0.427,414.609
123431,155705,11001,-0.129,0.972,0.347,-0.732,0.244,0.427,414.615
123433,155834,11330,-0.133,0.976,0.346,-0.122,0.61,0.427,414.619
123433,155702,10995,-0.136,0.985,0.345,-0.122,0.61,0.427,414.625
123425,155834,11330,-0.137,0.993,0.344,0.305,0.793,0.183,414.628
123425,155720,10999,-0.134,0.989,0.341,0.305,0.793,0.183,414.635
123436,155834,11330,-0.131,0.986,0.336,0,0.549,0.183,414.638
123436,155711,11014,-0.133,0.982,0.341,0,0.549,0.183,414.645
123428,155834,11330,-0.133,0.98,0.347,-0.488,0.488,0.366,414.648
123428,155718,11000,-0.133,0.982,0.336,-0.488,0.488,0.366,414.654
123436,155834,11330,-0.134,0.982,0.332,-0.671,0.793,0.305,414.658
123436,155691,11003,-0.132,0.979,0.338,-0.671,0.793,0.305,414.664
123423,155834,11330,-0.132,0.981,0.34,-0.854,0.549,0.427,414.668
123423,155658,11001,-0.129,0.978,0.341,-0.854,0.549,0.427,414.674
123399,155834,11330,-0.127,0.979,0.336,-0.671,0.244,0.671,414.678
123399,155679,10991,-0.126,0.983,0.333,-0.671,0.244,0.671,414.684
123393,155834,11330,-0.129,0.99,0.332,-0.183,0.366,0.61,414.688
123393,155658,11004,-0.129,0.993,0.333,-0.183,0.366,0.61,414.694
123400,155834,11330,-0.13,0.994,0.339,-0.366,0.366,0.244,414.698
123400,155654,10979,-0.129,0.986,0.343,-0.366,0.366,0.244,414.704
123384,155834,11330,-0.134,0.979,0.343,-0.61,0,0.122,414.708
123384,155654,11001,-0.132,0.977,0.347,-0.61,0,0.122,414.714
123378,155834,11330,-0.13,0.978,0.347,-0.671,-0.244,0.305,414.718
123378,155651,11008,-0.128,0.98,0.348,-0.671,-0.244,0.305,414.724
123381,155834,11330,-0.131,0.985,0.344,-0.366,-0.061,0.244,414.727
123381,155649,11000,-0.133,0.983,0.344,-0.366,-0.061,0.244,414.734
123397,155834,11330,-0.135,0.981,0.348,0.183,0.061,0,414.737
123397,155652,11013,-0.133,0.981,0.356,0.183,0.061,0,414.744
123398,155834,11330,-0.132,0.983,0.35,0.427,0.061,0.061,414.747
123398,155670,11014,-0.131,0.986,0.348,0.427,0.061,0.061,414.753
123420,155834,11330,-0.131,0.984,0.35,-0.244,0.427,0.122,414.757
123420,155682,10989,-0.132,0.978,0.345,-0.244,0.427,0.122,414.763
123405,155834,11330,-0.134,0.977,0.34,-1.037,0.61,0.244,414.767
123405,155670,10991,-0.131,0.974,0.34,-1.037,0.61,0.244,414.773
123384,155834,11330,-0.13,0.972,0.334,-1.159,0.488,0.549,414.777
123384,155663,11004,-0.126,0.977,0.331,-1.159,0.488,0.549,414.783
123379,155834,11330,-0.129,0.984,0.335,-0.61,0.549,0.732,414.787
123379,155649,10990,-0.132,0.985,0.337,-0.61,0.549,0.732,414.793
123414,155834,11330,-0.134,0.987,0.333,0.122,0.793,0.793,414.797
123414,155669,11003,-0.135,0.989,0.333,0.122,0.793,0.793,414.803
123383,155834,11330,-0.138,0.993,0.344,0.732,0.915,0.732,414.807
123383,155665,10987,-0.138,0.996,0.346,0.732,0.915,0.732,414.813
123404,155834,11330,-0.136,0.995,0.342,0.549,0.793,0.488,414.817
123404,155682,10987,-0.135,0.988,0.347,0.549,0.793,0.488,414.823
123413,155834,11330,-0.132,0.986,0.348,0.122,0.61,0.183,414.826
123413,155664,11001,-0.132,0.984,0.338,0.122,0.61,0.183,414.833
123390,155834,11330,-0.131,0.985,0.339,0.122,0.549,0.183,414.836
123390,155662,10985,-0.13,0.986,0.347,0.122,0.549,0.183,414.843
123412,155834,11330,-0.131,0.984,0.349,0.366,0.549,0.061,414.846
123412,155656,11006,-0.127,0.984,0.347,0.366,0.549,0.061,414.852
123409,155834,11330,-0.128,0.982,0.351,0.61,0.61,0.122,414.856
123409,155676,11019,-0.129,0.986,0.354,0.61,0.61,0.122,414.862
123446,155834,11330,-0.129,0.985,0.354,-0.061,0.671,0.061,414.866
123446,155706,10997,-0.13,0.98,0.348,-0.061,0.671,0.061,414.872
123450,155834,11330,-0.13,0.977,0.34,-1.098,0.244,-0.183,414.876
123450,155695,11008,-0.129,0.977,0.334,-1.098,0.244,-0.183,414.882
123441,155834,11330,-0.126,0.977,0.33,-1.89,-0.122,-0.183,414.886
123441,155706,11005,-0.124,0.97,0.329,-1.89,-0.122,-0.183,414.892
123450,155834,11330,-0.127,0.965,0.332,-1.951,-0.061,0.122,414.896
123450,155727,11014,-0.131,0.965,0.327,-1.951,-0.061,0.122,414.902
123459,155834,11330,-0.132,0.974,0.324,-1.402,0.061,0.427,414.906
123459,155725,11006,-0.131,0.982,0.325,-1.402,0.061,0.427,414.912
123481,155834,11330,-0.128,0.98,0.332,-0.61,-0.061,0.671,414.916
123481,155732,11005,-0.127,0.991,0.338,-0.61,-0.061,0.671,414.922
123480,155834,11330,-0.13,0.996,0.346,-0.183,-0.061,0.854,414.925
123480,155732,11009,-0.131,0.995,0.349,-0.183,-0.061,0.854,414.932
123496,155834,11330,-0.129,0.996,0.354,-0.61,0.244,0.915,414.935
123496,155739,11015,-0.132,0.999,0.361,-0.61,0.244,0.915,414.941
123461,155834,11330,-0.135,1.002,0.365,-1.341,0.427,0.732,414.945
123461,155735,11021,-0.136,0.999,0.358,-1.341,0.427,0.732,414.951
123444,155834,11330,-0.131,0.995,0.353,-2.134,0.61,0.427,414.955
123444,155719,11014,-0.131,0.988,0.345,-2.134,0.61,0.427,414.961
123454,155834,11330,-0.131,0.983,0.339,-2.561,0.488,0,414.965
123454,155709,11010,-0.132,0.978,0.338,-2.561,0.488,0,414.971
123453,155834,11330,-0.132,0.978,0.338,-2.561,0.488,0,414.975
123453,155710,10997,-0.132,0.972,0.339,-2.256,0.427,-0.305,414.981
123438,155834,11330,-0.132,0.972,0.339,-2.256,0.427,-0.305,414.985
123438,155746,11000,-0.134,0.977,0.332,-1.22,0.305,-0.244,414.991
123472,155834,11330,-0.134,0.977,0.332,-1.22,0.305,-0.244,414.995
123472,155742,11010,-0.132,0.989,0.336,-0.061,0.61,-0.183,415.001
123482,155834,11330,-0.132,0.989,0.336,-0.061,0.61,-0.183,415.005
123482,155725,11007,-0.132,0.982,0.348,0,0.549,-0.366,415.011
123495,155834,11330,-0.132,0.982,0.348,0,0.549,-0.366,415.015
123495,155729,11014,-0.133,0.974,0.341,-0.732,0.122,-0.305,415.021
123483,155834,11330,-0.133,0.974,0.341,-0.732,0.122,-0.305,415.024
123483,155726,11002,-0.132,0.973,0.344,-1.402,0.061,0,415.031
123483,155834,11330,-0.132,0.973,0.344,-1.402,0.061,0,415.034
123483,155737,11018,-0.13,0.98,0.348,-0.671,0.122,0.244,415.041
123475,155834,11330,-0.13,0.98,0.348,-0.671,0.122,0.244,415.044
123475,155735,11009,-0.134,0.985,0.358,0.427,0.488,0.366,415.05
123468,155834,11330,-0.134,0.985,0.358,0.427,0.488,0.366,415.054
123468,155727,11012,-0.139,0.981,0.354,0.305,0.854,0.427,415.06
123465,155834,11330,-0.139,0.981,0.354,0.305,0.854,0.427,415.064
123465,155693,11015,-0.138,0.983,0.348,-0.183,0.854,0.305,415.07
123436,155834,11330,-0.138,0.983,0.348,-0.183,0.854,0.305,415.074
123436,155700,11014,-0.133,0.981,0.342,-0.671,0.549,0.305,415.08
123464,155834,11330,-0.133,0.981,0.342,-0.671,0.549,0.305,415.084
123464,155706,11006,-0.137,0.978,0.336,-0.793,0.61,0.366,415.09
123447,155834,11330,-0.137,0.978,0.336,-0.793,0.61,0.366,415.094
123447,155717,11009,-0.135,0.98,0.336,-0.366,1.098,0.305,415.1
123460,155834,11330,-0.135,0.98,0.336,-0.366,1.098,0.305,415.104
123460,155713,11013,-0.133,0.983,0.337,-0.244,0.732,0.366,415.11
123473,155834,11330,-0.133,0.983,0.337,-0.244,0.732,0.366,415.114
123473,155731,11005,-0.131,0.983,0.342,-0.549,0.366,0.549,415.12
123456,155834,11330,-0.131,0.986,0.339,-0.549,0.366,0.549,415.123
123456,155712,11007,-0.125,0.986,0.34,-0.732,0.427,0.366,415.13
123464,155834,11330,-0.13,0.983,0.339,-0.732,0.427,0.366,415.133
123464,155700,11015,-0.126,0.983,0.341,-0.366,0.305,0.183,415.139
123461,155834,11330,-0.128,0.983,0.342,-0.366,0.305,0.183,415.143
123461,155719,11014,-0.13,0.983,0.348,-0.061,0.244,0.061,415.149
123456,155834,11330,-0.129,0.979,0.351,-0.061,0.244,0.061,415.153
123456,155715,10995,-0.133,0.98,0.357,0.244,0.488,0,415.159
123433,155834,11330,-0.133,0.981,0.358,0.244,0.488,0,415.163
123433,155696,11017,-0.134,0.987,0.359,0.366,0.488,0.183,415.169
123460,155834,11330,-0.133,0.984,0.354,0.366,0.488,0.183,415.173
123460,155699,11019,-0.132,0.985,0.348,0.061,0.427,0.122,415.179
123464,155834,11330,-0.134,0.989,0.345,0.061,0.427,0.122,415.183
123464,155714,10993,-0.133,0.986,0.343,-0.976,0.549,0,415.189
123473,155834,11330,-0.134,0.978,0.339,-0.976,0.549,0,415.193
123473,155699,11013,-0.133,0.976,0.333,-1.829,0.183,0,415.199
123434,155834,11330,-0.13,0.981,0.33,-1.829,0.183,0,415.203
123434,155693,11010,-0.13,0.98,0.334,-1.829,-0.305,0.183,415.209
123443,155834,11330,-0.13,0.978,0.337,-1.829,-0.305,0.183,415.213
123443,155656,11007,-0.132,0.983,0.332,-0.854,-0.305,0.122,415.219
123423,155834,11330,-0.134,0.988,0.336,-0.854,-0.305,0.122,415.222
123423,155673,11008,-0.13,0.991,0.341,-1.037,-0.427,-0.183,415.229
123425,155834,11330,-0.133,0.986,0.341,-1.037,-0.427,-0.183,415.232
123425,155658,11001,-0.136,0.979,0.338,-1.768,-0.793,-0.061,415.238
123437,155834,11330,-0.133,0.979,0.329,-1.768,-0.793,-0.061,415.242
123437,155680,11016,-0.131,0.983,0.338,-2.439,-0.854,-0.244,415.248
123439,155834,11330,-0.128,0.982,0.353,-2.439,-0.854,-0.244,415.252
123439,155704,10991,-0.132,0.979,0.354,-1.707,-0.61,-0.183,415.258
123444,155834,11330,-0.134,0.98,0.344,-1.707,-0.61,-0.183,415.262
123444,155688,10993,-0.134,0.976,0.346,-0.976,0.061,0.122,415.268
123447,155834,11330,-0.136,0.976,0.347,-0.976,0.061,0.122,415.272
123447,155706,11008,-0.133,0.982,0.346,-0.61,0.122,0.183,415.278
123441,155834,11330,-0.135,0.984,0.349,-0.61,0.122,0.183,415.282
123441,155701,10999,-0.134,0.981,0.355,-1.402,0,0.183,415.288
123445,155834,11330,-0.135,0.97,0.354,-1.402,0,0.183,415.292
123445,155674,11013,-0.134,0.97,0.357,-1.22,0,0.305,415.298
123432,155834,11330,-0.135,0.972,0.357,-1.22,0,0.305,415.302
123432,155705,11009,-0.134,0.976,0.357,-0.793,0.549,0.671,415.308
123428,155834,11330,-0.132,0.977,0.363,-0.793,0.549,0.671,415.312
123428,155696,11010,-0.131,0.984,0.364,0.305,1.159,0.793,415.318
123443,155834,11330,-0.132,0.99,0.359,0.305,1.159,0.793,415.321
123443,155701,11027,-0.133,0.997,0.354,-0.244,1.341,0.671,415.328
123452,155834,11330,-0.133,0.99,0.348,-0.244,1.341,0.671,415.331
123452,155691,11002,-0.134,0.981,0.345,-1.951,1.037,0.488,415.337
123452,155834,11330,-0.135,0.973,0.343,-1.951,1.037,0.488,415.341
123452,155715,10999,-0.132,0.967,0.338,-2.5,0.549,0.488,415.347
123461,155834,11330,-0.127,0.966,0.334,-2.5,0.549,0.488,415.351
123461,155716,11008,-0.127,0.974,0.343,-1.098,0.61,0.732,415.357
123467,155834,11330,-0.132,0.985,0.347,-1.098,0.61,0.732,415.361
123467,155715,11026,-0.132,0.988,0.344,0.61,1.341,0.793,415.367
123479,155834,11330,-0.129,0.991,0.34,0.61,1.341,0.793,415.371
123479,155714,11031,-0.13,0.989,0.343,0.366,1.159,0.671,415.377
123485,155834,11330,-0.135,0.986,0.353,0.366,1.159,0.671,415.381
123485,155722,11001,-0.132,0.979,0.352,-0.854,0.488,0.976,415.387
123497,155834,11330,-0.13,0.976,0.346,-0.854,0.488,0.976,415.391
123497,155734,11004,-0.13,0.972,0.342,-1.402,0.488,0.915,415.397
123505,155834,11330,-0.133,0.975,0.343,-1.402,0.488,0.915,415.401
123505,155741,11009,-0.134,0.976,0.343,-0.915,0.671,0.732,415.407
123495,155834,11330,-0.133,0.975,0.347,-0.915,0.671,0.732,415.411
123495,155726,11020,-0.13,0.979,0.356,-0.061,0.732,0.732,415.417
123500,155834,11330,-0.134,0.979,0.36,-0.061,0.732,0.732,415.42
123500,155741,11010,-0.134,0.979,0.355,-0.122,1.037,1.28,415.427
123498,155834,11330,-0.135,0.977,0.346,-0.122,1.037,1.28,415.43
123498,155735,11015,-0.136,0.982,0.338,-0.915,1.098,1.098,415.436
123496,155834,11330,-0.135,0.984,0.334,-0.915,1.098,1.098,415.44
123496,155726,11017,-0.133,0.985,0.332,-1.829,0.61,0.854,415.446
123473,155834,11330,-0.131,0.981,0.332,-1.829,0.61,0.854,415.45
123473,155736,11035,-0.13,0.977,0.334,-2.439,-0.122,1.037,415.456
123515,155834,11330,-0.128,0.973,0.341,-2.439,-0.122,1.037,415.46
123515,155765,11002,-0.129,0.975,0.345,-1.768,0,1.159,415.466
123531,155834,11330,-0.129,0.977,0.344,-1.768,0,1.159,415.47
123531,155778,11016,-0.13,0.982,0.341,-0.732,0.488,1.28,415.476
123545,155834,11330,-0.129,0.985,0.349,-0.732,0.488,1.28,415.48
123545,155803,11030,-0.13,0.989,0.348,-0.061,0.366,1.28,415.486
123569,155834,11330,-0.129,0.987,0.348,-0.061,0.366,1.28,415.49
123569,155819,11035,-0.13,0.99,0.352,0.183,0.183,1.098,415.496
123629,155834,11330,-0.133,0.992,0.354,0.183,0.183,1.098,415.5
123629,155844,11032,-0.139,0.987,0.352,-0.122,0.366,0.854,415.506
123652,155834,11330,-0.137,0.98,0.357,-0.122,0.366,0.854,415.51
123652,155879,11038,-0.135,0.975,0.357,0,0.305,0.549,415.516
123704,156090,11330,-0.132,0.98,0.353,0,0.305,0.549,415.519
123704,155939,11046,-0.133,0.98,0.351,0.366,0.427,0.488,415.526
123754,156090,11330,-0.134,0.978,0.35,0.366,0.427,0.488,415.529
123754,155954,11057,-0.136,0.976,0.349,0.61,0.427,0.305,415.536
123781,156090,11330,-0.132,0.983,0.348,0.61,0.427,0.305,415.539
123781,155985,11053,-0.129,0.983,0.35,0.366,0.122,0.305,415.545
123833,156090,11330,-0.128,0.982,0.351,0.366,0.122,0.305,415.549
123833,156026,11068,-0.13,0.984,0.347,0.244,0.427,0.488,415.555
123904,156090,11330,-0.132,0.982,0.345,0.244,0.427,0.488,415.559
123904,156087,11077,-0.131,0.984,0.343,-0.122,0.61,0.488,415.565
123960,156090,11330,-0.131,0.984,0.343,-0.122,0.61,0.488,415.569
123960,156142,11073,-0.122,0.981,0.346,-0.671,0.183,0.427,415.575
124028,156346,11330,-0.122,0.981,0.346,-0.671,0.183,0.427,415.579
124028,156185,11091,-0.128,0.977,0.347,-0.366,0.305,0.854,415.585
124087,156346,11330,-0.128,0.977,0.347,-0.366,0.305,0.854,415.589
124087,156221,11115,-0.129,0.979,0.348,0.488,0.793,0.976,415.595
124147,156346,11330,-0.129,0.979,0.348,0.488,0.793,0.976,415.599
124147,156272,11099,-0.131,0.988,0.345,1.22,0.732,0.793,415.605
124183,156346,11330,-0.131,0.988,0.345,1.22,0.732,0.793,415.609
124183,156307,11127,-0.133,0.983,0.348,1.28,0.854,0.854,415.615
124184,156346,11330,-0.133,0.983,0.348,1.28,0.854,0.854,415.618
124184,156320,11112,-0.131,0.987,0.35,0.976,0.671,0.61,415.625
124201,156346,11330,-0.131,0.987,0.35,0.976,0.671,0.61,415.628
124201,156337,11111,-0.131,0.985,0.351,0.61,0.427,0.183,415.634
124201,156346,11330,-0.131,0.985,0.351,0.61,0.427,0.183,415.638
124201,156331,11136,-0.136,0.979,0.345,0.061,0.61,0.305,415.644
124220,156346,11330,-0.136,0.979,0.345,0.061,0.61,0.305,415.648
124220,156325,11115,-0.13,0.982,0.346,-0.61,0.61,0.122,415.654
124210,156346,11330,-0.13,0.982,0.346,-0.61,0.61,0.122,415.658
124210,156348,11126,-0.131,0.976,0.347,-0.915,0.244,0,415.664
124228,156346,11330,-0.131,0.976,0.347,-0.915,0.244,0,415.668
124228,156339,11114,-0.129,0.97,0.333,-1.037,0.244,0,415.674
124253,156346,11330,-0.129,0.97,0.333,-1.037,0.244,0,415.678
124253,156327,11118,-0.127,0.973,0.34,-0.305,0.183,0.061,415.684
124238,156346,11330,-0.127,0.973,0.34,-0.305,0.183,0.061,415.688
124238,156380,11106,-0.125,0.981,0.348,0.854,0.183,0.366,415.694
124236,156346,11330,-0.125,0.981,0.348,0.854,0.183,0.366,415.698
124236,156349,11123,-0.13,0.987,0.36,0.732,0.549,0.549,415.704
124259,156346,11330,-0.13,0.987,0.36,0.732,0.549,0.549,415.708
124259,156339,11123,-0.134,0.985,0.36,0.732,0.549,0.549,415.714
124242,156346,11330,-0.132,0.984,0.363,0.244,0.549,0.61,415.717
124242,156327,11123,-0.127,0.986,0.361,0.244,0.549,0.61,415.724
124228,156346,11330,-0.127,0.985,0.359,-0.122,0.427,0.549,415.727
124228,156319,11110,-0.127,0.988,0.354,-0.122,0.427,0.549,415.734
124222,156346,11330,-0.128,0.987,0.348,-0.488,0.671,0.366,415.737
124222,156308,11103,-0.131,0.984,0.338,-0.488,0.671,0.366,415.743
124188,156346,11330,-0.133,0.985,0.333,-0.976,0.671,0.305,415.747
124188,156327,11111,-0.13,0.986,0.326,-0.976,0.671,0.305,415.753
124178,156346,11330,-0.127,0.988,0.33,-1.037,0.183,0.122,415.757
124178,156322,11117,-0.128,0.981,0.336,-1.037,0.183,0.122,415.763
124203,156346,11330,-0.126,0.978,0.338,-0.183,0.061,0.122,415.767
124203,156311,11079,-0.131,0.982,0.339,-0.183,0.061,0.122,415.773
124186,156346,11330,-0.132,0.986,0.336,-0.183,0.305,0.366,415.777
124186,156315,11090,-0.134,0.983,0.338,-0.183,0.305,0.366,415.783
124199,156346,11330,-0.134,0.983,0.349,-0.366,0.244,0.244,415.787
124199,156326,11108,-0.131,0.982,0.355,-0.366,0.244,0.244,415.793
124203,156346,11330,-0.132,0.981,0.357,-0.183,0.061,0.244,415.797
124203,156308,11123,-0.135,0.981,0.36,-0.183,0.061,0.244,415.803
124228,156346,11330,-0.133,0.982,0.357,0,0.244,0.244,415.807
124228,156309,11117,-0.133,0.985,0.363,0,0.244,0.244,415.813
124246,156346,11330,-0.134,0.984,0.361,0.305,0.427,0.061,415.816
124246,156342,11118,-0.13,0.985,0.361,0.305,0.427,0.061,415.823
124246,156346,11330,-0.131,0.986,0.359,0.366,0.488,-0.183,415.826
124246,156348,11123,-0.131,0.982,0.35,0.366,0.488,-0.183,415.832
124264,156346,11330,-0.133,0.975,0.349,-0.366,0.61,-0.183,415.836
124264,156390,11114,-0.135,0.972,0.352,-0.366,0.61,-0.183,415.842
124300,156346,11330,-0.132,0.969,0.35,-0.854,0.488,0,415.846
124300,156400,11124,-0.132,0.971,0.34,-0.854,0.488,0,415.852
124319,156602,11330,-0.134,0.972,0.328,-0.915,0.549,0.183,415.856
124319,156416,11146,-0.133,0.976,0.325,-0.915,0.549,0.183,415.862
124337,156602,11330,-0.131,0.982,0.322,-1.159,0.305,0.244,415.866
124337,156423,11143,-0.129,0.979,0.326,-1.159,0.305,0.244,415.872
124341,156602,11330,-0.129,0.973,0.327,-1.037,-0.183,0.488,415.876
124341,156427,11135,-0.131,0.975,0.332,-1.037,-0.183,0.488,415.882
124336,156602,11330,-0.132,0.981,0.345,-0.427,-0.122,0.793,415.886
124336,156435,11147,-0.13,0.981,0.35,-0.427,-0.122,0.793,415.892
124354,156602,11330,-0.126,0.987,0.355,0.305,0,0.854,415.896
124354,156416,11151,-0.129,0.992,0.36,0.305,0,0.854,415.902
124353,156602,11330,-0.126,0.993,0.364,0.671,0.122,0.671,415.906
124353,156420,11136,-0.127,0.989,0.365,0.671,0.122,0.671,415.912
124344,156346,11330,-0.128,0.994,0.364,0.305,0.244,0.366,415.915
124344,156413,11130,-0.127,0.993,0.361,0.305,0.244,0.366,415.922
124357,156346,11330,-0.131,0.99,0.356,-0.427,0.366,-0.061,415.925
124357,156411,11121,-0.132,0.981,0.351,-0.427,0.366,-0.061,415.932
124364,156602,11330,-0.134,0.977,0.351,-0.488,0.366,-0.305,415.935
124364,156431,11129,-0.133,0.978,0.347,-0.488,0.366,-0.305,415.941
124338,156346,11330,-0.132,0.977,0.34,-0.427,0.427,-0.305,415.945
124338,156404,11140,-0.132,0.976,0.343,-0.427,0.427,-0.305,415.951
124370,156602,11330,-0.131,0.976,0.337,-0.488,0.427,-0.122,415.955
124370,156447,11139,-0.133,0.975,0.335,-0.488,0.427,-0.122,415.961
124399,156602,11330,-0.131,0.974,0.335,-0.549,0.427,-0.061,415.965
124399,156425,11146,-0.131,0.973,0.337,-0.549,0.427,-0.061,415.971
124417,156602,11330,-0.131,0.973,0.339,-0.61,0.305,0.183,415.975
124417,156471,11150,-0.132,0.972,0.341,-0.61,0.305,0.183,415.981
124409,156602,11330,-0.135,0.969,0.342,-0.244,0.366,0.732,415.985
124409,156462,11147,-0.134,0.973,0.343,-0.244,0.366,0.732,415.991
124410,156602,11330,-0.131,0.978,0.351,0.305,0.366,0.854,415.995
124410,156465,11144,-0.134,0.985,0.36,0.305,0.366,0.854,416.001
124407,156602,11330,-0.133,0.988,0.361,0.854,0.488,0.976,416.005
124407,156463,11153,-0.132,0.99,0.359,0.854,0.488,0.976,416.011
124401,156602,11330,-0.132,0.994,0.356,0.976,0.61,0.915,416.014
124401,156443,11137,-0.13,0.998,0.358,0.976,0.61,0.915,416.021
124416,156602,11330,-0.132,0.998,0.36,0.305,0.61,0.61,416.024
124416,156441,11131,-0.131,0.995,0.355,0.305,0.61,0.61,416.03
124399,156602,11330,-0.132,0.987,0.349,-0.488,0.549,0.122,416.034
124399,156461,11138,-0.132,0.985,0.347,-0.488,0.549,0.122,416.04
124363,156602,11330,-0.134,0.979,0.344,-0.854,0.427,-0.061,416.044
124363,156446,11137,-0.13,0.978,0.334,-0.854,0.427,-0.061,416.05
124358,156602,11330,-0.131,0.976,0.331,-0.915,0.183,-0.122,416.054
124358,156432,11143,-0.133,0.972,0.332,-0.915,0.183,-0.122,416.06
124330,156346,11330,-0.132,0.971,0.329,-0.305,0.305,-0.061,416.064
124330,156410,11132,-0.135,0.977,0.335,-0.305,0.305,-0.061,416.07
124335,156346,11330,-0.132,0.983,0.339,0.305,0.366,-0.061,416.074
124335,156394,11133,-0.129,0.984,0.344,0.305,0.366,-0.061,416.08
124319,156346,11330,-0.133,0.981,0.348,0.366,0.244,0.122,416.084
124319,156387,11136,-0.133,0.981,0.352,0.366,0.244,0.122,416.09
124310,156346,11330,-0.133,0.98,0.353,-0.183,0.244,0.305,416.094
124310,156392,11115,-0.133,0.976,0.349,-0.183,0.244,0.305,416.1
124298,156346,11330,-0.132,0.979,0.347,-0.427,0.183,0.366,416.104
124298,156382,11142,-0.13,0.985,0.354,-0.427,0.183,0.366,416.11
124311,156346,11330,-0.13,0.986,0.36,-0.122,0.244,0.488,416.113
124311,156376,11132,-0.131,0.983,0.357,-0.122,0.244,0.488,416.12
124286,156346,11330,-0.13,0.982,0.357,0.366,0.488,0.488,416.123
124286,156346,11120,-0.137,0.984,0.356,0.366,0.488,0.488,416.13
124273,156346,11330,-0.134,0.984,0.35,-0.183,0.732,0.366,416.133
124273,156345,11129,-0.138,0.986,0.345,-0.183,0.732,0.366,416.139
124261,156346,11330,-0.133,0.983,0.346,-1.098,0.549,0.305,416.143
124261,156332,11131,-0.131,0.976,0.346,-1.098,0.549,0.305,416.149
124244,156346,11330,-0.131,0.976,0.346,-1.098,0.549,0.305,416.153
124244,156331,11135,-0.13,0.979,0.343,-0.854,0.244,0.488,416.159
124240,156346,11330,-0.13,0.979,0.343,-0.854,0.244,0.488,416.163
124240,156326,11127,-0.133,0.987,0.339,-0.244,0.427,0.305,416.169
124258,156346,11330,-0.133,0.987,0.339,-0.244,0.427,0.305,416.173
124258,156310,11122,-0.131,0.988,0.34,0.122,0.61,0,416.179
124226,156346,11330,-0.131,0.988,0.34,0.122,0.61,0,416.183
124226,156309,11118,-0.133,0.982,0.341,-0.183,0.305,0.061,416.189
124207,156346,11330,-0.133,0.982,0.341,-0.183,0.305,0.061,416.193
124207,156326,11111,-0.129,0.983,0.35,-0.549,-0.061,0.061,416.199
124198,156346,11330,-0.129,0.983,0.35,-0.549,-0.061,0.061,416.203
124198,156311,11129,-0.132,0.984,0.347,-0.671,-0.061,-0.061,416.209
124220,156346,11330,-0.132,0.984,0.347,-0.671,-0.061,-0.061,416.212
124220,156285,11131,-0.131,0.986,0.358,-0.122,0.244,-0.122,416.219
124235,156346,11330,-0.131,0.986,0.358,-0.122,0.244,-0.122,416.222
124235,156292,11107,-0.132,0.988,0.349,0.183,0.61,-0.305,416.228
124221,156346,11330,-0.132,0.988,0.349,0.183,0.61,-0.305,416.232
124221,156309,11114,-0.135,0.981,0.342,-0.183,0.488,-0.305,416.238
124231,156346,11330,-0.135,0.981,0.342,-0.183,0.488,-0.305,416.242
124231,156307,11110,-0.134,0.976,0.333,-1.098,0.305,-0.488,416.248
124213,156346,11330,-0.134,0.976,0.333,-1.098,0.305,-0.488,416.252
124213,156304,11111,-0.132,0.971,0.345,-1.829,-0.122,-0.366,416.258
124222,156346,11330,-0.132,0.971,0.345,-1.829,-0.122,-0.366,416.262
124222,156313,11118,-0.131,0.981,0.354,-1.159,-0.244,0,416.268
124238,156346,11330,-0.131,0.981,0.354,-1.159,-0.244,0,416.272
124238,156343,11118,-0.126,0.99,0.351,-0.549,0.183,0.244,416.278
124249,156346,11330,-0.126,0.99,0.351,-0.549,0.183,0.244,416.282
124249,156330,11131,-0.134,0.988,0.343,-0.244,0.427,0.061,416.288
124271,156346,11330,-0.134,0.988,0.343,-0.244,0.427,0.061,416.292
124271,156336,11113,-0.133,0.981,0.345,-1.402,0.183,-0.122,416.298
124246,156346,11330,-0.132,0.972,0.341,-1.402,0.183,-0.122,416.302
124246,156362,11120,-0.131,0.972,0.338,-2.317,-0.183,-0.366,416.308
124267,156346,11330,-0.132,0.97,0.34,-2.317,-0.183,-0.366,416.311
124267,156379,11114,-0.133,0.971,0.344,-1.585,0.122,-0.244,416.318
124253,156346,11330,-0.134,0.973,0.348,-1.585,0.122,-0.244,416.321
124253,156330,11126,-0.137,0.977,0.348,-0.183,0.244,-0.122,416.327
124236,156346,11330,-0.134,0.977,0.347,-0.183,0.244,-0.122,416.331
124236,156324,11128,-0.135,0.978,0.351,0.976,0,-0.061,416.337
124222,156346,11330,-0.135,0.985,0.36,0.976,0,-0.061,416.341
124222,156288,11130,-0.135,0.989,0.359,1.159,0.061,0.122,416.347
124209,156346,11330,-0.139,0.99,0.352,1.159,0.061,0.122,416.351
124209,156279,11151,-0.137,0.985,0.35,0.183,0.183,0.183,416.357
124195,156346,11330,-0.136,0.982,0.352,0.183,0.183,0.183,416.361
124195,156268,11105,-0.133,0.983,0.354,-1.037,-0.061,0.183,416.367
124163,156346,11330,-0.128,0.981,0.355,-1.037,-0.061,0.183,416.371
124163,156274,11108,-0.131,0.979,0.355,-1.585,-0.183,0.488,416.377
124161,156346,11330,-0.13,0.973,0.356,-1.585,-0.183,0.488,416.381
124161,156279,11092,-0.128,0.978,0.355,-0.854,0.183,0.793,416.387
124167,156346,11330,-0.127,0.985,0.355,-0.854,0.183,0.793,416.391
124167,156263,11122,-0.128,0.993,0.35,-0.122,0.854,0.549,416.397
124167,156346,11330,-0.131,0.992,0.351,-0.122,0.854,0.549,416.401
124167,156262,11108,-0.134,0.986,0.349,-0.671,0.854,0.122,416.407
124194,156346,11330,-0.136,0.98,0.34,-0.671,0.854,0.122,416.41
124194,156272,11128,-0.137,0.974,0.336,-1.524,0.549,0.122,416.417
124194,156346,11330,-0.133,0.969,0.335,-1.524,0.549,0.122,416.42
124194,156289,11122,-0.132,0.968,0.338,-1.402,0.305,0.244,416.427
124212,156346,11330,-0.132,0.967,0.336,-1.402,0.305,0.244,416.43
124212,156309,11105,-0.132,0.97,0.337,-0.427,0.61,0.305,416.436
124210,156346,11330,-0.137,0.977,0.34,-0.427,0.61,0.305,416.44
124210,156306,11112,-0.134,0.981,0.349,0.427,0.854,0.671,416.446
124233,156346,11330,-0.132,0.984,0.356,0.427,0.854,0.671,416.45
124233,156317,11126,-0.131,0.99,0.364,0.671,0.671,0.793,416.456
124211,156346,11330,-0.13,0.987,0.366,0.671,0.671,0.793,416.46
124211,156320,11122,-0.128,0.991,0.367,0.793,0.61,0.427,416.466
124190,156346,11330,-0.127,0.991,0.369,0.793,0.61,0.427,416.47
124190,156295,11120,-0.127,0.991,0.372,0.183,0.915,0.183,416.476
124183,156346,11330,-0.126,0.982,0.37,0.183,0.915,0.183,416.48
124183,156279,11110,-0.128,0.975,0.363,-0.671,0.976,0,416.486
124208,156346,11330,-0.13,0.976,0.351,-0.671,0.976,0,416.49
124208,156297,11119,-0.128,0.977,0.347,-1.22,0.854,-0.427,416.496
124189,156346,11330,-0.129,0.974,0.347,-1.22,0.854,-0.427,416.5
124189,156262,11108,-0.129,0.973,0.344,-0.793,0.854,-0.366,416.506
124178,156346,11330,-0.133,0.976,0.335,-0.793,0.854,-0.366,416.509
124178,156295,11112,-0.136,0.975,0.322,-0.915,1.402,0,416.516
124201,156346,11330,-0.14,0.976,0.321,-0.915,1.402,0,416.519
124201,156286,11110,-0.138,0.979,0.316,-1.402,1.159,0.122,416.525
124195,156346,11330,-0.133,0.982,0.318,-1.402,1.159,0.122,416.529
124195,156309,11125,-0.13,0.978,0.323,-1.098,-0.122,0.549,416.535
124168,156346,11330,-0.13,0.975,0.332,-1.098,-0.122,0.549,416.539
124168,156292,11109,-0.135,0.976,0.338,-0.732,-0.305,0.976,416.545
124135,156346,11330,-0.139,0.976,0.342,-0.732,-0.305,0.976,416.549
124135,156240,11106,-0.139,0.976,0.351,-0.488,0.183,1.22,416.555
124143,156346,11330,-0.134,0.979,0.352,-0.488,0.183,1.22,416.559
124143,156226,11110,-0.137,0.984,0.358,0.061,-0.183,1.28,416.565
124137,156346,11330,-0.134,0.987,0.359,0.061,-0.183,1.28,416.569
124137,156188,11109,-0.137,0.993,0.364,0.488,-0.305,1.098,416.575
124125,156346,11330,-0.139,0.997,0.361,0.488,-0.305,1.098,416.579
124125,156224,11113,-0.136,0.991,0.36,-0.427,0,0.854,416.585
124117,156346,11330,-0.136,0.991,0.36,-0.427,0,0.854,416.589
124117,156216,11120,-0.134,0.989,0.359,-0.427,0.122,0.488,416.595
124109,156346,11330,-0.134,0.984,0.359,-0.427,0.122,0.488,416.599
124109,156228,11121,-0.131,0.984,0.361,0.061,0.183,-0.183,416.605
124119,156346,11330,-0.132,0.985,0.36,0.061,0.183,-0.183,416.608
124119,156242,11111,-0.134,0.983,0.346,-0.244,0.305,-0.427,416.615
124144,156346,11330,-0.132,0.979,0.339,-0.244,0.305,-0.427,416.618
124144,156221,11119,-0.131,0.973,0.337,-0.854,0.061,-0.732,416.625
124144,156346,11330,-0.129,0.966,0.331,-0.854,0.061,-0.732,416.628
124144,156261,11110,-0.132,0.971,0.321,-0.183,-0.122,-0.61,416.634
124181,156346,11330,-0.133,0.982,0.322,-0.183,-0.122,-0.61,416.638
124181,156300,11123,-0.134,0.981,0.33,-0.061,0,-0.061,416.644
124187,156346,11330,-0.135,0.976,0.342,-0.061,0,-0.061,416.648
124187,156279,11115,-0.134,0.969,0.351,0.549,-0.122,0.122,416.654
124170,156346,11330,-0.13,0.971,0.365,0.549,-0.122,0.122,416.658
124170,156257,11118,-0.132,0.978,0.371,1.524,0.183,0.549,416.664
124158,156346,11330,-0.135,0.983,0.377,1.524,0.183,0.549,416.668
124158,156248,11104,-0.134,0.982,0.373,1.646,0.854,1.037,416.674
124108,156346,11330,-0.131,0.979,0.371,1.646,0.854,1.037,416.678
124108,156225,11097,-0.13,0.986,0.374,1.829,1.524,0.915,416.684
124101,156346,11330,-0.135,0.996,0.366,1.829,1.524,0.915,416.688
124101,156223,11115,-0.135,0.993,0.361,0.427,1.768,0.732,416.694
124068,156346,11330,-0.135,0.98,0.352,0.427,1.768,0.732,416.698
124068,156197,11105,-0.133,0.968,0.351,-0.427,1.159,0.732,416.704
124044,156346,11330,-0.13,0.974,0.341,-0.427,1.159,0.732,416.707
124044,156204,11088,-0.13,0.981,0.337,0.366,1.159,0.61,416.714
124051,156346,11330,-0.129,0.986,0.338,0.366,1.159,0.61,416.717
124051,156172,11100,-0.131,0.991,0.332,0.366,1.524,0.305,416.723
124053,156346,11330,-0.134,0.989,0.325,0.366,1.524,0.305,416.727
124053,156162,11105,-0.134,0.979,0.33,-0.915,0.671,0.061,416.733
124041,156346,11330,-0.134,0.979,0.33,-0.915,0.671,0.061,416.737
124041,156166,11100,-0.131,0.97,0.341,-0.915,-0.244,0.122,416.743
124021,156090,11330,-0.131,0.97,0.341,-0.915,-0.244,0.122,416.747
124021,156158,11094,-0.134,0.974,0.347,0.061,0.488,0.488,416.753
124005,156090,11330,-0.134,0.974,0.347,0.061,0.488,0.488,416.757
124005,156126,11083,-0.134,0.988,0.337,0.732,1.037,0.549,416.763
123974,156090,11330,-0.134,0.988,0.337,0.732,1.037,0.549,416.767
123974,156111,11093,-0.134,0.983,0.341,0.732,0.366,0.427,416.773
123951,156090,11330,-0.134,0.983,0.341,0.732,0.366,0.427,416.777
123951,156105,11075,-0.135,0.979,0.351,0.061,0.183,0.549,416.783
123939,156090,11330,-0.135,0.979,0.351,0.061,0.183,0.549,416.787
123939,156076,11084,-0.134,0.979,0.364,0.366,0.366,0.732,416.793
123939,156090,11330,-0.134,0.979,0.364,0.366,0.366,0.732,416.797
123939,156076,11074,-0.134,0.987,0.356,1.159,0.732,0.61,416.803
123925,156090,11330,-0.134,0.987,0.356,1.159,0.732,0.61,416.806
123925,156059,11084,-0.132,0.995,0.348,0.549,0.915,0.244,416.813
123892,156090,11330,-0.132,0.995,0.348,0.549,0.915,0.244,416.816
123892,156090,11079,-0.136,0.977,0.338,-0.793,0.244,-0.122,416.823
123894,156090,11330,-0.136,0.977,0.338,-0.793,0.244,-0.122,416.826
123894,156069,11085,-0.132,0.97,0.322,-1.341,-0.122,-0.244,416.832
123898,156090,11330,-0.132,0.97,0.322,-1.341,-0.122,-0.244,416.836
123898,156053,11073,-0.13,0.98,0.325,0.122,-0.061,0.061,416.842
123879,156090,11330,-0.13,0.98,0.325,0.122,-0.061,0.061,416.846
123879,156074,11069,-0.138,0.988,0.334,1.159,0.061,0.244,416.852
123903,156090,11330,-0.138,0.988,0.334,1.159,0.061,0.244,416.856
123903,156088,11074,-0.132,0.988,0.344,1.037,-0.549,0.427,416.862
123939,156090,11330,-0.132,0.988,0.344,1.037,-0.549,0.427,416.866
123939,156126,11083,-0.132,0.983,0.351,0.244,-0.732,0.427,416.872
123972,156090,11330,-0.132,0.983,0.351,0.244,-0.732,0.427,416.876
123972,156120,11089,-0.134,0.984,0.355,0.244,-0.732,0.427,416.882
123955,156090,11330,-0.135,0.981,0.364,0.061,-0.244,0.305,416.886
123955,156133,11096,-0.135,0.983,0.364,0.061,-0.244,0.305,416.892
123965,156090,11330,-0.133,0.983,0.362,0.549,0.183,0.183,416.896
123965,156107,11100,-0.134,0.988,0.362,0.549,0.183,0.183,416.902
123987,156090,11330,-0.134,0.987,0.366,0.122,0.183,0.244,416.905
123987,156143,11101,-0.132,0.98,0.376,0.122,0.183,0.244,416.912
123988,156090,11330,-0.132,0.979,0.378,-0.549,0.732,0.183,416.915
123988,156144,11101,-0.133,0.982,0.371,-0.549,0.732,0.183,416.921
124005,156090,11330,-0.13,0.979,0.362,-1.159,1.28,0.122,416.925
124005,156145,11084,-0.129,0.981,0.361,-1.159,1.28,0.122,416.931
124006,156090,11330,-0.127,0.984,0.348,-0.976,1.524,0,416.935
124006,156145,11102,-0.129,0.982,0.334,-0.976,1.524,0,416.941
124005,156090,11330,-0.133,0.975,0.325,-1.341,1.646,-0.305,416.945
124005,156146,11101,-0.134,0.974,0.315,-1.341,1.646,-0.305,416.951
124030,156346,11330,-0.133,0.97,0.31,-2.012,1.098,-0.366,416.955
124030,156180,11095,-0.129,0.965,0.319,-2.012,1.098,-0.366,416.961
124085,156346,11330,-0.125,0.961,0.325,-1.22,0.305,0.122,416.965
124085,156221,11111,-0.13,0.968,0.33,-1.22,0.305,0.122,416.971
124139,156346,11330,-0.132,0.977,0.332,0.122,0.549,0.793,416.975
124139,156241,11105,-0.131,0.982,0.342,0.122,0.549,0.793,416.981
124129,156346,11330,-0.135,0.986,0.353,1.341,0.732,0.976,416.985
124129,156257,11102,-0.135,0.993,0.353,1.341,0.732,0.976,416.991
124161,156346,11330,-0.133,1,0.354,1.524,0.61,0.976,416.995
124161,156288,11115,-0.135,1,0.36,1.524,0.61,0.976,417.001
124183,156346,11330,-0.138,0.993,0.366,0.366,0.549,0.793,417.004
124183,156290,11111,-0.138,0.984,0.363,0.366,0.549,0.793,417.011
124163,156346,11330,-0.139,0.982,0.351,-0.732,0.427,0.488,417.014
124163,156276,11116,-0.139,0.976,0.342,-0.732,0.427,0.488,417.02
124137,156346,11330,-0.139,0.97,0.34,-1.159,0.183,0.305,417.024
124137,156246,11102,-0.136,0.969,0.334,-1.159,0.183,0.305,417.03
124092,156346,11330,-0.136,0.976,0.336,-0.732,0.305,0.366,417.034
124092,156233,11114,-0.136,0.978,0.334,-0.732,0.305,0.366,417.04
124085,156346,11330,-0.136,0.978,0.329,-0.305,0.488,0.427,417.044
124085,156224,11107,-0.138,0.985,0.331,-0.305,0.488,0.427,417.05
124073,156346,11330,-0.137,0.988,0.333,-0.488,0.244,0.671,417.054
124073,156207,11101,-0.136,0.984,0.337,-0.488,0.244,0.671,417.06
124071,156346,11330,-0.134,0.976,0.34,-1.098,-0.122,0.854,417.064
124071,156208,11095,-0.132,0.971,0.34,-1.098,-0.122,0.854,417.07
124054,156346,11330,-0.134,0.968,0.349,-1.159,-0.244,1.037,417.074
124054,156176,11099,-0.134,0.971,0.35,-1.159,-0.244,1.037,417.08
124081,156346,11330,-0.132,0.978,0.349,-0.183,0.183,1.098,417.084
124081,156182,11109,-0.134,0.985,0.36,-0.183,0.183,1.098,417.09
124072,156346,11330,-0.135,0.992,0.368,0.976,0.488,1.098,417.094
124072,156226,11085,-0.133,0.994,0.371,0.976,0.488,1.098,417.1
124091,156346,11330,-0.132,0.997,0.369,1.098,0.366,0.732,417.103
124091,156239,11117,-0.133,1,0.366,1.098,0.366,0.732,417.11
124141,156346,11330,-0.134,0.993,0.36,-0.305,0.244,0.305,417.113
124141,156277,11109,-0.132,0.986,0.35,-0.305,0.244,0.305,417.12
124154,156346,11330,-0.135,0.977,0.341,-1.89,0,0,417.123
124154,156270,11119,-0.134,0.97,0.336,-1.89,0,0,417.129
124132,156346,11330,-0.132,0.962,0.335,-2.256,-0.366,-0.183,417.133
124132,156279,11121,-0.13,0.965,0.335,-2.256,-0.366,-0.183,417.139
124154,156346,11330,-0.126,0.975,0.336,-0.854,-0.305,0.183,417.143
124154,156263,11117,-0.126,0.979,0.339,-0.854,-0.305,0.183,417.149
124136,156346,11330,-0.129,0.988,0.34,0.488,0.244,0.549,417.153
124136,156303,11100,-0.13,0.992,0.346,0.488,0.244,0.549,417.159
124161,156346,11330,-0.132,0.99,0.347,0.122,0.427,0.732,417.163
124161,156285,11122,-0.135,0.984,0.349,0.122,0.427,0.732,417.169
124187,156346,11330,-0.134,0.984,0.344,-0.915,0.244,0.976,417.173
124187,156322,11108,-0.132,0.985,0.342,-0.915,0.244,0.976,417.179
124184,156346,11330,-0.132,0.984,0.343,-0.793,0.366,0.854,417.183
124184,156300,11116,-0.131,0.984,0.349,-0.793,0.366,0.854,417.189
124163,156346,11330,-0.132,0.984,0.355,0.793,0.732,0.793,417.193
124163,156301,11104,-0.134,0.989,0.359,0.793,0.732,0.793,417.199
124145,156346,11330,-0.14,0.987,0.355,0.732,1.159,0.61,417.202
124145,156288,11096,-0.143,0.983,0.352,0.732,1.159,0.61,417.209
124136,156346,11330,-0.137,0.984,0.354,-0.061,1.037,0.183,417.212
124136,156274,11121,-0.134,0.985,0.354,-0.061,1.037,0.183,417.218
124158,156346,11330,-0.132,0.979,0.356,-0.427,0.427,0.122,417.222
124158,156316,11131,-0.13,0.981,0.362,-0.427,0.427,0.122,417.228
124189,156346,11330,-0.13,0.981,0.358,0,0.549,-0.122,417.232
124189,156327,11118,-0.132,0.984,0.355,0,0.549,-0.122,417.238
124190,156346,11330,-0.131,0.986,0.354,0,1.159,-0.366,417.242
124190,156311,11108,-0.131,0.984,0.347,0,1.159,-0.366,417.248
124210,156346,11330,-0.132,0.982,0.338,-0.61,1.098,-0.671,417.252
124210,156319,11119,-0.133,0.978,0.33,-0.61,1.098,-0.671,417.258
124197,156346,11330,-0.13,0.972,0.33,-1.402,0.488,-0.671,417.262
124197,156321,11119,-0.13,0.969,0.329,-1.402,0.488,-0.671,417.268
124231,156346,11330,-0.129,0.968,0.329,-1.402,0.061,-0.488,417.272
124231,156337,11134,-0.128,0.972,0.327,-1.402,0.061,-0.488,417.278
124222,156346,11330,-0.129,0.979,0.334,-0.61,0.183,-0.122,417.282
124222,156320,11111,-0.129,0.983,0.339,-0.61,0.183,-0.122,417.288
124226,156346,11330,-0.133,0.982,0.348,-0.244,0.183,0.183,417.291
124226,156324,11123,-0.131,0.981,0.346,-0.244,0.183,0.183,417.298
124230,156346,11330,-0.133,0.98,0.346,-0.61,0.061,0.427,417.301
124230,156341,11118,-0.134,0.979,0.349,-0.61,0.061,0.427,417.308
124203,156346,11330,-0.132,0.981,0.353,-1.28,0.122,0.671,417.311
124203,156352,11114,-0.133,0.978,0.358,-1.28,0.122,0.671,417.317
124212,156346,11330,-0.13,0.976,0.361,-0.793,0.244,0.854,417.321
124212,156349,11109,-0.133,0.979,0.363,-0.793,0.244,0.854,417.327
124168,156346,11330,-0.133,0.979,0.363,-0.793,0.244,0.854,417.331
124168,156319,11111,-0.135,0.99,0.361,0,0.793,0.854,417.337
124184,156346,11330,-0.135,0.99,0.361,0,0.793,0.854,417.341
124184,156317,11112,-0.138,0.992,0.35,0.122,1.22,0.427,417.347
124165,156346,11330,-0.138,0.992,0.35,0.122,1.22,0.427,417.351
124165,156302,11099,-0.137,0.982,0.344,-0.549,0.976,0.061,417.357
124163,156346,11330,-0.137,0.982,0.344,-0.549,0.976,0.061,417.361
124163,156288,11116,-0.136,0.969,0.326,-1.524,0.732,0.122,417.367
124135,156346,11330,-0.136,0.969,0.326,-1.524,0.732,0.122,417.371
124135,156282,11116,-0.132,0.976,0.318,-1.646,0.427,0.122,417.377
124125,156346,11330,-0.132,0.976,0.318,-1.646,0.427,0.122,417.381
124125,156281,11102,-0.133,0.975,0.344,-1.28,0.183,0.122,417.387
124161,156346,11330,-0.133,0.975,0.344,-1.28,0.183,0.122,417.391
124161,156276,11113,-0.134,0.979,0.354,-0.061,-0.061,0.488,417.397
124162,156346,11330,-0.134,0.979,0.354,-0.061,-0.061,0.488,417.4
124162,156272,11111,-0.132,0.99,0.368,0.244,0.122,0.61,417.407
124187,156346,11330,-0.132,0.99,0.368,0.244,0.122,0.61,417.41
124187,156310,11094,-0.135,0.989,0.357,0.122,0.427,0.427,417.416
124177,156346,11330,-0.135,0.989,0.357,0.122,0.427,0.427,417.42
124177,156289,11104,-0.136,0.984,0.35,-0.915,0.122,0.061,417.426
124163,156346,11330,-0.136,0.984,0.35,-0.915,0.122,0.061,417.43
124163,156293,11103,-0.133,0.973,0.35,-1.524,-0.122,-0.061,417.436
124154,156346,11330,-0.133,0.973,0.35,-1.524,-0.122,-0.061,417.44
124154,156292,11143,-0.137,0.972,0.348,-1.098,-0.122,-0.061,417.446
124168,156346,11330,-0.137,0.972,0.348,-1.098,-0.122,-0.061,417.45
124168,156287,11095,-0.137,0.978,0.34,-0.427,0,-0.122,417.456
124122,156346,11330,-0.137,0.978,0.34,-0.427,0,-0.122,417.46
124122,156268,11106,-0.135,0.981,0.341,-0.183,0.122,0.061,417.466
124137,156346,11330,-0.135,0.981,0.341,-0.183,0.122,0.061,417.47
124137,156278,11122,-0.136,0.98,0.341,-0.488,-0.061,0.183,417.476
124142,156346,11330,-0.135,0.979,0.336,-0.488,-0.061,0.183,417.48
124142,156252,11119,-0.135,0.977,0.333,-1.037,-0.122,0.244,417.486
124156,156346,11330,-0.132,0.98,0.339,-1.037,-0.122,0.244,417.489
124156,156277,11110,-0.13,0.981,0.349,-1.22,-0.244,0.366,417.496
124128,156346,11330,-0.129,0.982,0.358,-1.22,-0.244,0.366,417.499
124128,156249,11102,-0.127,0.98,0.364,-0.549,0,0.549,417.506
124112,156346,11330,-0.13,0.983,0.368,-0.549,0,0.549,417.509
124112,156236,11109,-0.131,0.987,0.363,0.244,0.366,0.488,417.515
124074,156346,11330,-0.135,0.992,0.353,0.244,0.366,0.488,417.519
124074,156207,11101,-0.132,0.991,0.354,-0.183,0.549,0.061,417.525
124061,156346,11330,-0.132,0.986,0.358,-0.183,0.549,0.061,417.529
124061,156192,11097,-0.131,0.981,0.352,-0.61,0.183,-0.244,417.535
124044,156346,11330,-0.13,0.974,0.35,-0.61,0.183,-0.244,417.539
124044,156203,11094,-0.132,0.973,0.349,-0.61,0.244,0,417.545
124016,156346,11330,-0.133,0.974,0.348,-0.61,0.244,0,417.549
124016,156166,11098,-0.133,0.975,0.346,-0.427,0.549,0,417.555
124012,156090,11330,-0.134,0.98,0.353,-0.427,0.549,0,417.559
124012,156153,11079,-0.133,0.98,0.354,-0.122,0.549,0.122,417.565
123988,156090,11330,-0.13,0.979,0.349,-0.122,0.549,0.122,417.569
123988,156125,11097,-0.13,0.98,0.35,-0.244,0.549,0.305,417.575
123998,156090,11330,-0.133,0.981,0.351,-0.244,0.549,0.305,417.579
123998,156137,11106,-0.133,0.983,0.346,-0.671,0.732,0.366,417.585
124011,156090,11330,-0.135,0.978,0.348,-0.671,0.732,0.366,417.588
124011,156157,11093,-0.133,0.972,0.346,-1.159,0.671,0.305,417.595
123995,156090,11330,-0.136,0.97,0.345,-1.159,0.671,0.305,417.598
123995,156142,11082,-0.139,0.974,0.347,-0.976,0.305,0.488,417.605
124012,156090,11330,-0.131,0.98,0.349,-0.976,0.305,0.488,417.608
124012,156144,11085,-0.133,0.989,0.348,-0.061,0.61,0.549,417.614
124016,156346,11330,-0.133,0.992,0.346,-0.061,0.61,0.549,417.618
124016,156162,11099,-0.133,0.988,0.352,0.488,0.915,0.427,417.624
124015,156090,11330,-0.136,0.987,0.349,0.488,0.915,0.427,417.628
124015,156154,11086,-0.138,0.983,0.348,-0.427,0.671,0.122,417.634
124005,156090,11330,-0.141,0.98,0.348,-0.427,0.671,0.122,417.638
124005,156151,11099,-0.135,0.98,0.344,-1.22,0.427,0.183,417.644
124011,156346,11330,-0.133,0.978,0.348,-1.22,0.427,0.183,417.648
124011,156162,11110,-0.134,0.986,0.353,-0.366,0.305,0.183,417.654
124018,156346,11330,-0.132,0.988,0.352,-0.366,0.305,0.183,417.658
124018,156171,11096,-0.134,0.991,0.355,1.098,0.61,-0.061,417.664
124014,156346,11330,-0.135,0.996,0.35,1.098,0.61,-0.061,417.668
124014,156167,11088,-0.137,0.995,0.349,0.61,0.976,-0.366,417.674
124000,156090,11330,-0.135,0.986,0.346,0.61,0.976,-0.366,417.678
124000,156130,11095,-0.136,0.975,0.344,-1.22,0.488,-0.488,417.684
123965,156090,11330,-0.133,0.968,0.341,-1.22,0.488,-0.488,417.688
123965,156135,11090,-0.132,0.962,0.339,-1.829,0.061,-0.305,417.694
123944,156090,11330,-0.133,0.965,0.337,-1.829,0.061,-0.305,417.697
123944,156125,11079,-0.134,0.971,0.338,-0.976,0.366,-0.061,417.704
123951,156090,11330,-0.137,0.977,0.345,-0.976,0.366,-0.061,417.707
123951,156120,11096,-0.137,0.983,0.353,0.061,0.671,0.061,417.713
123933,156090,11330,-0.137,0.988,0.358,0.061,0.671,0.061,417.717
123933,156081,11083,-0.141,0.99,0.36,0.671,0.549,0.305,417.723
123920,156090,11330,-0.136,0.989,0.358,0.671,0.549,0.305,417.727
123920,156109,11071,-0.136,0.989,0.354,0.427,0.366,0.122,417.733
123899,156090,11330,-0.134,0.991,0.354,0.427,0.366,0.122,417.737
123899,156086,11091,-0.139,0.984,0.354,-0.61,0.366,-0.244,417.743
123901,156090,11330,-0.134,0.973,0.345,-0.61,0.366,-0.244,417.747
123901,156075,11071,-0.134,0.974,0.341,-1.22,0.244,-0.427,417.753
123926,156090,11330,-0.135,0.973,0.338,-1.22,0.244,-0.427,417.757
123926,156089,11090,-0.136,0.972,0.34,-1.098,0.244,-0.244,417.763
