124183,156624,11015,-0.14,1.001,0.332,0.854,1.341,0.366,79.656
124156,156602,11330,-0.138,1,0.333,0.854,1.341,0.366,79.66
124156,156610,11019,-0.138,0.998,0.331,-0.488,1.22,0.183,79.666
124187,156602,11330,-0.135,0.992,0.326,-0.488,1.22,0.183,79.67
124187,156592,10995,-0.134,0.987,0.322,-1.707,0.854,-0.122,79.676
124158,156602,11330,-0.134,0.983,0.318,-1.707,0.854,-0.122,79.68
124158,156626,11019,-0.137,0.977,0.315,-1.646,0.854,-0.122,79.686
124161,156602,11330,-0.133,0.975,0.306,-1.646,0.854,-0.122,79.69
124161,156616,11017,-0.137,0.978,0.304,-0.854,0.854,0.061,79.696
124163,156602,11330,-0.136,0.98,0.302,-0.854,0.854,0.061,79.7
124163,156593,11018,-0.133,0.981,0.306,-0.427,0.488,0.183,79.706
124166,156602,11330,-0.133,0.98,0.314,-0.427,0.488,0.183,79.71
124166,156609,11024,-0.137,0.978,0.311,0,0.305,0.366,79.716
124128,156602,11330,-0.142,0.981,0.307,0,0.305,0.366,79.72
124128,156592,11009,-0.138,0.988,0.316,-0.122,0.244,0.549,79.726
124134,156602,11330,-0.135,0.992,0.322,-0.122,0.244,0.549,79.729
124134,156606,11017,-0.137,0.992,0.325,0.427,0.122,0.61,79.736
124109,156602,11330,-0.14,0.996,0.32,0.427,0.122,0.61,79.739
124109,156600,11014,-0.142,1,0.322,0.427,0.305,0.488,79.746
124118,156602,11330,-0.14,1.003,0.321,0.427,0.305,0.488,79.749
124118,156559,11004,-0.14,0.997,0.324,-0.427,0.244,0.427,79.755
124122,156602,11330,-0.139,0.993,0.324,-0.427,0.244,0.427,79.759
124122,156573,11005,-0.14,0.992,0.316,-0.61,0.183,0.305,79.765
124106,156602,11330,-0.139,0.989,0.317,-0.61,0.183,0.305,79.769
124106,156582,11012,-0.136,0.985,0.323,-0.305,0.244,0.366,79.775
124105,156602,11330,-0.138,0.984,0.324,-0.305,0.244,0.366,79.779
124105,156610,11009,-0.14,0.992,0.319,0.366,0.61,0.427,79.785
124141,156602,11330,-0.14,0.995,0.318,0.366,0.61,0.427,79.789
124141,156628,11022,-0.136,0.995,0.319,0.671,0.915,0.244,79.795
124200,156602,11330,-0.137,0.994,0.322,0.671,0.915,0.244,79.799
124200,156628,11024,-0.141,0.993,0.316,0.549,0.793,0,79.805
124194,156602,11330,-0.138,0.99,0.318,0.549,0.793,0,79.809
124194,156652,11020,-0.135,0.988,0.325,-0.061,0.61,-0.122,79.815
124218,156602,11330,-0.137,0.986,0.318,-0.061,0.61,-0.122,79.819
124218,156652,11028,-0.137,0.987,0.321,-0.183,0.671,-0.183,79.825
124213,156858,11330,-0.135,0.987,0.324,-0.183,0.671,-0.183,79.828
124213,156680,11042,-0.135,0.984,0.324,0.732,0.671,-0.183,79.835
124231,156602,11330,-0.133,0.988,0.323,0.732,0.671,-0.183,79.838
124231,156657,11036,-0.135,0.995,0.321,1.463,0.793,-0.183,79.845
124212,156602,11330,-0.138,0.997,0.323,1.463,0.793,-0.183,79.848
124212,156658,11029,-0.137,0.997,0.327,0.61,0.854,-0.244,79.854
124204,156602,11330,-0.136,0.994,0.324,0.61,0.854,-0.244,79.858
124204,156653,11041,-0.137,0.987,0.32,-0.854,0.549,-0.488,79.864
124223,156602,11330,-0.137,0.981,0.319,-0.854,0.549,-0.488,79.868
124223,156634,11031,-0.133,0.982,0.318,-1.585,0.244,-0.183,79.874
124231,156602,11330,-0.135,0.982,0.313,-1.585,0.244,-0.183,79.878
124231,156648,11024,-0.137,0.979,0.315,-1.28,0.366,-0.061,79.884
124230,156858,11330,-0.137,0.977,0.317,-1.28,0.366,-0.061,79.888
124230,156675,11020,-0.137,0.98,0.317,-0.61,0.366,0.183,79.894
124231,156858,11330,-0.136,0.988,0.32,-0.61,0.366,0.183,79.898
124231,156697,11022,-0.138,0.989,0.317,-0.488,0.366,0.427,79.904
124228,156858,11330,-0.138,0.991,0.318,-0.488,0.366,0.427,79.908
124228,156685,11025,-0.136,0.987,0.319,-0.244,0.366,0.61,79.914
124227,156602,11330,-0.139,0.99,0.318,-0.244,0.366,0.61,79.918
124227,156666,11026,-0.14,0.99,0.316,-0.427,0.427,0.793,79.924
124230,156602,11330,-0.14,0.991,0.313,-0.427,0.427,0.793,79.927
124230,156665,11019,-0.137,0.99,0.314,-0.671,0.366,0.732,79.934
124250,156602,11330,-0.141,0.994,0.319,-0.671,0.366,0.732,79.937
124250,156641,11019,-0.137,0.996,0.319,-0.61,0.488,0.61,79.944
124200,156602,11330,-0.137,0.994,0.322,-0.61,0.488,0.61,79.947
124200,156637,11028,-0.139,0.993,0.326,0,0.671,0.488,79.953
124212,156602,11330,-0.139,0.995,0.321,0,0.671,0.488,79.957
124212,156635,11021,-0.14,0.996,0.316,0.244,0.671,0.305,79.963
124197,156602,11330,-0.139,0.995,0.323,0.244,0.671,0.305,79.967
124197,156666,11033,-0.14,0.996,0.323,-0.122,0.61,0,79.973
124208,156602,11330,-0.139,0.994,0.321,-0.122,0.61,0,79.977
124208,156653,11030,-0.136,0.99,0.323,-0.61,0.488,-0.244,79.983
124232,156602,11330,-0.138,0.988,0.319,-0.61,0.488,-0.244,79.987
124232,156660,11028,-0.136,0.984,0.32,-0.61,0.305,-0.183,79.993
124249,156858,11330,-0.136,0.984,0.32,-0.61,0.305,-0.183,79.997
124249,156679,11042,-0.138,0.984,0.319,-0.244,0.366,-0.244,80.003
124246,156858,11330,-0.138,0.984,0.319,-0.244,0.366,-0.244,80.007
124246,156699,11027,-0.138,0.98,0.316,-0.366,0.305,-0.244,80.013
124247,156858,11330,-0.138,0.98,0.316,-0.366,0.305,-0.244,80.017
124247,156708,11032,-0.137,0.987,0.321,-0.549,0.244,-0.122,80.023
124249,156602,11330,-0.137,0.987,0.321,-0.549,0.244,-0.122,80.026
124249,156653,11020,-0.136,0.983,0.319,0,0.366,-0.122,80.033
124240,156858,11330,-0.136,0.983,0.319,0,0.366,-0.122,80.036
124240,156673,11028,-0.142,0.988,0.317,-0.061,0.366,0.244,80.043
124223,156858,11330,-0.142,0.988,0.317,-0.061,0.366,0.244,80.046
124223,156681,11032,-0.14,0.982,0.313,-0.305,0.183,0.366,80.052
124218,156602,11330,-0.14,0.982,0.313,-0.305,0.183,0.366,80.056
124218,156667,11021,-0.141,0.986,0.322,-0.427,0.305,0.427,80.062
124239,156602,11330,-0.141,0.986,0.322,-0.427,0.305,0.427,80.066
124239,156650,11028,-0.141,0.99,0.323,0.244,0.488,0.549,80.072
124213,156602,11330,-0.141,0.99,0.323,0.244,0.488,0.549,80.076
124213,156662,11014,-0.138,0.99,0.325,0.854,0.549,0.488,80.082
124193,156602,11330,-0.138,0.99,0.325,0.854,0.549,0.488,80.086
124193,156636,11029,-0.138,0.994,0.328,1.159,0.488,0.488,80.092
124166,156602,11330,-0.138,0.994,0.328,1.159,0.488,0.488,80.096
124166,156643,11021,-0.136,0.988,0.32,0.671,0.549,0.366,80.102
124159,156602,11330,-0.136,0.988,0.32,0.671,0.549,0.366,80.106
124159,156625,11026,-0.135,0.994,0.313,0.305,0.549,0.183,80.112
124173,156602,11330,-0.135,0.994,0.313,0.305,0.549,0.183,80.116
124173,156609,11017,-0.133,0.984,0.314,-0.122,0.427,0,80.122
124144,156602,11330,-0.133,0.984,0.314,-0.122,0.427,0,80.125
124144,156600,11007,-0.137,0.972,0.312,-0.427,0.427,0.244,80.132
124127,156602,11330,-0.137,0.972,0.312,-0.427,0.427,0.244,80.135
124127,156606,11021,-0.136,0.976,0.313,-0.427,0.427,0.244,80.142
124153,156602,11330,-0.135,0.985,0.318,0.366,0.671,0.671,80.145
124153,156596,11015,-0.134,0.987,0.313,0.366,0.671,0.671,80.151
124174,156602,11330,-0.137,0.993,0.311,1.829,0.427,0.61,80.155
124174,156580,11032,-0.137,0.996,0.319,1.829,0.427,0.61,80.161
124167,156602,11330,-0.14,1.001,0.324,1.768,0.183,0.61,80.165
124167,156621,11021,-0.142,0.999,0.322,1.768,0.183,0.61,80.171
124168,156602,11330,-0.141,1,0.318,0.549,0.183,0.61,80.175
124168,156612,11020,-0.141,0.998,0.317,0.549,0.183,0.61,80.181
124153,156602,11330,-0.138,0.986,0.32,-0.976,0.122,0.488,80.185
124153,156601,11016,-0.139,0.984,0.318,-0.976,0.122,0.488,80.191
124148,156602,11330,-0.141,0.988,0.312,-1.524,-0.183,0.671,80.195
124148,156610,11004,-0.139,0.987,0.321,-1.524,-0.183,0.671,80.201
124162,156602,11330,-0.139,0.98,0.319,-0.793,0.122,0.671,80.205
124162,156618,11013,-0.137,0.98,0.315,-0.793,0.122,0.671,80.211
124149,156602,11330,-0.139,0.985,0.314,0.061,0.549,0.671,80.215
124149,156612,11022,-0.14,0.992,0.317,0.061,0.549,0.671,80.221
124165,156602,11330,-0.141,0.998,0.32,0.061,0.427,0.915,80.224
124165,156582,11028,-0.141,1.004,0.32,0.061,0.427,0.915,80.231
124157,156602,11330,-0.138,0.999,0.32,-0.488,-0.061,0.671,80.234
124157,156594,11010,-0.138,0.99,0.321,-0.488,-0.061,0.671,80.241
124164,156602,11330,-0.134,0.988,0.322,-0.61,-0.549,0.488,80.244
124164,156616,11010,-0.134,0.988,0.32,-0.61,-0.549,0.488,80.25
124169,156602,11330,-0.134,0.986,0.316,-0.305,-0.244,0.488,80.254
124169,156604,11023,-0.135,0.983,0.327,-0.305,-0.244,0.488,80.26
124174,156602,11330,-0.141,0.988,0.324,0.671,0.305,0.366,80.264
124174,156606,11017,-0.139,0.993,0.32,0.671,0.305,0.366,80.27
124178,156602,11330,-0.143,0.995,0.321,0.793,0.427,0.427,80.274
124178,156620,11016,-0.14,0.996,0.326,0.793,0.427,0.427,80.28
124181,156602,11330,-0.138,0.997,0.326,0.488,0.427,0.122,80.284
124181,156636,11018,-0.141,0.996,0.326,0.488,0.427,0.122,80.29
124182,156602,11330,-0.142,0.995,0.324,0.061,0.366,0,80.294
124182,156617,11012,-0.144,0.993,0.326,0.061,0.366,0,80.3
124168,156602,11330,-0.14,0.992,0.322,-0.305,0.427,-0.122,80.304
124168,156602,11012,-0.138,0.991,0.323,-0.305,0.427,-0.122,80.31
124166,156602,11330,-0.138,0.986,0.322,-0.549,0.366,-0.183,80.314
124166,156601,10994,-0.14,0.982,0.317,-0.549,0.366,-0.183,80.32
124163,156602,11330,-0.141,0.98,0.316,-0.183,0.427,0,80.323
124163,156599,11026,-0.14,0.981,0.312,-0.183,0.427,0,80.33
124152,156602,11330,-0.139,0.988,0.31,0.244,0.793,0.305,80.333
124152,156609,11004,-0.139,0.991,0.315,0.244,0.793,0.305,80.339
124144,156602,11330,-0.139,0.984,0.322,0.427,0.793,0.305,80.343
124144,156608,11011,-0.136,0.982,0.316,0.427,0.793,0.305,80.349
124143,156602,11330,-0.137,0.982,0.317,0.366,0.305,0.305,80.353
124143,156621,11007,-0.135,0.986,0.313,0.366,0.305,0.305,80.359
124131,156602,11330,-0.137,0.993,0.315,0.122,0.183,0.488,80.363
124131,156587,11012,-0.136,0.996,0.32,0.122,0.183,0.488,80.369
124157,156602,11330,-0.136,0.993,0.319,0.366,0.488,0.549,80.373
124157,156579,11016,-0.136,0.995,0.319,0.366,0.488,0.549,80.379
124161,156602,11330,-0.143,0.996,0.322,0.183,0.122,0.427,80.383
124161,156612,11034,-0.143,0.992,0.313,0.183,0.122,0.427,80.389
124175,156602,11330,-0.144,0.992,0.314,-0.427,-1.463,0.488,80.393
124175,156623,11021,-0.146,0.993,0.319,-0.427,-1.463,0.488,80.399
124195,156602,11330,-0.138,0.986,0.326,-0.854,-2.744,0.854,80.403
124195,156602,11002,-0.13,0.98,0.328,-0.854,-2.744,0.854,80.409
124185,156602,11330,-0.128,0.982,0.324,-0.488,-2.561,1.159,80.412
124185,156617,11021,-0.132,0.987,0.323,-0.488,-2.561,1.159,80.419
124182,156602,11330,-0.135,0.991,0.32,-0.061,-0.671,1.037,80.422
124182,156634,11015,-0.139,0.993,0.319,-0.061,-0.671,1.037,80.429
124183,156602,11330,-0.144,0.996,0.319,0.061,0.183,0.61,80.432
124183,156633,11012,-0.139,0.992,0.313,0.061,0.183,0.61,80.438
124208,156602,11330,-0.136,0.991,0.311,-0.122,-0.244,0.488,80.442
124208,156615,11006,-0.137,0.994,0.315,-0.122,-0.244,0.488,80.448
124190,156602,11330,-0.137,0.994,0.313,-0.854,0.061,0.488,80.452
124190,156631,11012,-0.135,0.991,0.315,-0.854,0.061,0.488,80.458
124179,156602,11330,-0.138,0.99,0.314,-0.854,0.488,0.366,80.462
124179,156590,11015,-0.136,0.992,0.312,-0.854,0.488,0.366,80.468
124178,156602,11330,-0.137,0.992,0.317,-0.671,0.671,0.366,80.472
124178,156599,11002,-0.135,0.991,0.32,-0.671,0.671,0.366,80.478
124141,156602,11330,-0.133,0.987,0.321,-0.305,0.793,0.549,80.482
124141,156584,11014,-0.138,0.988,0.318,-0.305,0.793,0.549,80.488
124151,156602,11330,-0.139,0.983,0.315,0.366,1.037,0.427,80.492
124151,156584,11006,-0.138,0.982,0.316,0.366,1.037,0.427,80.498
124150,156602,11330,-0.138,0.988,0.319,0.305,1.037,0.183,80.502
124150,156627,11010,-0.138,0.993,0.327,0.305,1.037,0.183,80.508
124147,156602,11330,-0.138,0.986,0.328,0.244,0.854,0.061,80.511
124147,156579,10998,-0.137,0.983,0.323,0.244,0.854,0.061,80.518
124156,156602,11330,-0.141,0.979,0.32,0.732,0.732,0.122,80.521
124156,156577,11004,-0.14,0.988,0.316,0.732,0.732,0.122,80.528
124162,156602,11330,-0.141,0.997,0.32,1.098,0.915,0.244,80.531
124162,156595,11006,-0.141,1,0.322,1.098,0.915,0.244,80.537
124180,156602,11330,-0.141,1.003,0.323,1.037,0.915,0.122,80.541
124180,156606,11022,-0.14,1,0.312,1.037,0.915,0.122,80.547
124188,156602,11330,-0.139,0.993,0.309,-0.366,0.732,-0.061,80.551
124188,156598,11000,-0.134,0.99,0.307,-0.366,0.732,-0.061,80.557
124184,156602,11330,-0.134,0.99,0.309,-1.22,0.427,0,80.561
124184,156613,11002,-0.136,0.986,0.311,-1.22,0.427,0,80.567
124185,156602,11330,-0.134,0.983,0.308,-1.098,0.427,0.122,80.571
124185,156631,11000,-0.136,0.983,0.306,-1.098,0.427,0.122,80.577
124193,156602,11330,-0.136,0.983,0.306,-1.098,0.427,0.122,80.581
124193,156618,11016,-0.136,0.981,0.321,-0.793,0.671,0.305,80.587
124177,156602,11330,-0.136,0.981,0.321,-0.793,0.671,0.305,80.591
124177,156619,11020,-0.137,0.99,0.317,-0.244,0.671,0.671,80.597
124201,156602,11330,-0.137,0.99,0.317,-0.244,0.671,0.671,80.601
124201,156631,11014,-0.137,0.99,0.318,0.305,0.61,0.671,80.607
124213,156602,11330,-0.137,0.99,0.318,0.305,0.61,0.671,80.611
124213,156615,11018,-0.139,0.994,0.328,0.549,0.61,0.488,80.617
124206,156602,11330,-0.139,0.994,0.328,0.549,0.61,0.488,80.62
124206,156627,11017,-0.141,0.998,0.327,0.183,0.671,0.244,80.627
124209,156602,11330,-0.141,0.998,0.327,0.183,0.671,0.244,80.63
124209,156632,11023,-0.137,0.992,0.325,-0.122,0.671,0,80.636
124210,156602,11330,-0.137,0.992,0.325,-0.122,0.671,0,80.64
124210,156628,11023,-0.138,0.986,0.331,-0.61,0.61,-0.061,80.646
124174,156602,11330,-0.138,0.986,0.331,-0.61,0.61,-0.061,80.65
124174,156595,11017,-0.141,0.98,0.315,-0.427,0.976,0,80.656
124092,156602,11330,-0.141,0.98,0.315,-0.427,0.976,0,80.66
124092,156558,10990,-0.137,0.98,0.309,-0.671,1.098,0.061,80.666
123900,156346,11330,-0.137,0.98,0.309,-0.671,1.098,0.061,80.67
123900,156351,10962,-0.134,0.984,0.319,-0.732,0.732,0.183,80.676
123628,156090,11330,-0.134,0.984,0.319,-0.732,0.732,0.183,80.68
123628,156144,10929,-0.136,0.986,0.317,-0.366,0.915,0.366,80.686
123409,156090,11330,-0.136,0.986,0.317,-0.366,0.915,0.366,80.69
123409,155952,10907,-0.138,0.991,0.326,-0.549,0.915,0.793,80.696
123269,155834,11330,-0.138,0.991,0.326,-0.549,0.915,0.793,80.7
123269,155841,10876,-0.134,0.998,0.325,-0.366,0.854,0.793,80.706
123158,155834,11330,-0.134,0.998,0.325,-0.366,0.854,0.793,80.709
123158,155735,10870,-0.138,1.004,0.319,-0.793,1.037,0.61,80.716
123093,155834,11330,-0.138,1.004,0.319,-0.793,1.037,0.61,80.719
123093,155699,10860,-0.139,1.001,0.314,-2.073,0.793,0.427,80.726
123044,155834,11330,-0.136,0.992,0.31,-2.073,0.793,0.427,80.729
123044,155667,10861,-0.135,0.986,0.309,-2.378,0.366,0.122,80.735
123044,155834,11330,-0.138,0.98,0.305,-2.378,0.366,0.122,80.739
123044,155650,10837,-0.135,0.985,0.307,-1.524,0.488,0.061,80.745
123028,155578,11330,-0.137,0.99,0.307,-1.524,0.488,0.061,80.749
123028,155646,10851,-0.138,0.993,0.314,-0.488,0.793,0.122,80.755
123016,155578,11330,-0.14,0.998,0.319,-0.488,0.793,0.122,80.759
123016,155641,10864,-0.142,0.993,0.319,0.366,0.976,0.122,80.765
123049,155834,11330,-0.141,0.992,0.325,0.366,0.976,0.122,80.769
123049,155668,10843,-0.141,0.998,0.322,0.488,0.976,-0.061,80.775
123074,155834,11330,-0.142,0.996,0.323,0.488,0.976,-0.061,80.779
123074,155688,10857,-0.142,0.992,0.325,-0.305,0.671,-0.061,80.785
123095,155834,11330,-0.14,0.985,0.322,-0.305,0.671,-0.061,80.789
123095,155725,10867,-0.139,0.979,0.325,-0.366,0.549,-0.305,80.795
123124,155834,11330,-0.14,0.979,0.329,-0.366,0.549,-0.305,80.799
123124,155759,10862,-0.14,0.981,0.334,0.427,0.915,-0.244,80.805
123165,155834,11330,-0.136,0.984,0.334,0.427,0.915,-0.244,80.808
123165,155765,10875,-0.139,0.99,0.326,1.037,1.159,-0.061,80.815
123214,155834,11330,-0.137,0.992,0.324,1.037,1.159,-0.061,80.818
123214,155800,10877,-0.142,0.995,0.323,0.366,0.915,-0.366,80.825
123218,155834,11330,-0.141,0.997,0.319,0.366,0.915,-0.366,80.828
123218,155821,10863,-0.138,0.996,0.315,-0.732,0.549,-0.549,80.834
123220,155834,11330,-0.141,0.989,0.318,-0.732,0.549,-0.549,80.838
123220,155828,10869,-0.142,0.983,0.315,-1.89,0.427,-0.427,80.844
123223,155834,11330,-0.14,0.978,0.314,-1.89,0.427,-0.427,80.848
123223,155818,10875,-0.141,0.975,0.312,-2.012,0.305,-0.061,80.854
123242,155834,11330,-0.138,0.973,0.307,-2.012,0.305,-0.061,80.858
123242,155816,10873,-0.142,0.976,0.305,-0.976,0.488,0.366,80.864
123226,155834,11330,-0.143,0.98,0.301,-0.976,0.488,0.366,80.868
123226,155805,10878,-0.143,0.985,0.303,0.183,0.671,0.671,80.874
123213,155834,11330,-0.138,0.993,0.306,0.183,0.671,0.671,80.878
123213,155826,10872,-0.142,0.989,0.308,0.732,0.671,0.732,80.884
123225,155834,11330,-0.142,0.986,0.305,0.732,0.671,0.732,80.888
123225,155855,10879,-0.141,0.987,0.315,0.854,0.732,0.854,80.894
123264,155834,11330,-0.14,0.989,0.322,0.854,0.732,0.854,80.898
123264,155845,10880,-0.141,0.991,0.327,0.854,0.854,0.976,80.904
123281,155834,11330,-0.141,0.992,0.328,0.854,0.854,0.976,80.907
123281,155862,10887,-0.139,0.994,0.328,1.159,1.037,0.854,80.914
123267,155834,11330,-0.137,0.998,0.33,1.159,1.037,0.854,80.917
123267,155874,10885,-0.138,0.997,0.329,0.671,1.098,0.732,80.924
123299,155834,11330,-0.136,1.001,0.32,0.671,1.098,0.732,80.927
123299,155880,10890,-0.135,1.002,0.321,-0.305,0.793,0.488,80.933
123341,155834,11330,-0.135,0.995,0.318,-0.305,0.793,0.488,80.937
123341,155897,10893,-0.136,0.992,0.317,-1.159,0.366,0.183,80.943
123368,156090,11330,-0.137,0.987,0.317,-1.159,0.366,0.183,80.947
123368,155940,10891,-0.137,0.986,0.31,-1.707,0.244,0.122,80.953
123423,156090,11330,-0.133,0.981,0.307,-1.707,0.244,0.122,80.957
123423,155971,10902,-0.134,0.982,0.305,-1.341,0.305,0.244,80.963
123474,156090,11330,-0.137,0.987,0.303,-1.341,0.305,0.244,80.967
123474,156020,10924,-0.138,0.991,0.302,-0.732,0.427,0.366,80.973
123534,156090,11330,-0.141,0.99,0.305,-0.732,0.427,0.366,80.977
123534,156069,10920,-0.137,0.991,0.311,-0.488,0.183,0.427,80.983
123567,156090,11330,-0.137,0.99,0.315,-0.488,0.183,0.427,80.987
123567,156104,10927,-0.14,0.991,0.318,-0.305,0,0.549,80.993
123613,156346,11330,-0.141,0.994,0.328,-0.305,0,0.549,80.997
123613,156168,10944,-0.142,0.993,0.327,0.122,0.183,0.61,81.003
123660,156090,11330,-0.142,0.991,0.322,0.122,0.183,0.61,81.006
123660,156152,10956,-0.141,0.993,0.324,0.305,0.366,0.427,81.013
123676,156346,11330,-0.142,0.992,0.327,0.305,0.366,0.427,81.016
123676,156204,10946,-0.142,0.989,0.327,0.427,0.488,0.427,81.023
123718,156346,11330,-0.14,0.993,0.327,0.427,0.488,0.427,81.026
123718,156241,10947,-0.137,0.99,0.324,0.122,0.732,0.366,81.032
123757,156346,11330,-0.14,0.988,0.323,0.122,0.732,0.366,81.036
123757,156288,10945,-0.139,0.988,0.324,-0.366,0.61,0.244,81.042
123797,156346,11330,-0.139,0.988,0.32,-0.366,0.61,0.244,81.046
123797,156306,10962,-0.139,0.986,0.32,-0.427,0.61,0.244,81.052
123819,156346,11330,-0.137,0.981,0.319,-0.427,0.61,0.244,81.056
123819,156329,10956,-0.135,0.985,0.318,-0.122,0.793,0.305,81.062
123851,156346,11330,-0.137,0.99,0.316,-0.122,0.793,0.305,81.066
123851,156359,10965,-0.137,0.988,0.313,-0.549,0.61,0.549,81.072
123879,156346,11330,-0.135,0.988,0.316,-0.549,0.61,0.549,81.076
123879,156384,10968,-0.136,0.987,0.318,-0.732,0.61,0.488,81.082
123936,156602,11330,-0.137,0.99,0.313,-0.732,0.61,0.488,81.086
123936,156422,10980,-0.14,0.991,0.313,-0.915,0.366,0.549,81.092
123949,156602,11330,-0.14,0.985,0.317,-0.915,0.366,0.549,81.096
123949,156442,10978,-0.14,0.981,0.316,-0.854,0.122,0.61,81.102
123992,156602,11330,-0.144,0.989,0.309,-0.854,0.122,0.61,81.105
123992,156466,10983,-0.141,0.988,0.315,-0.61,0.122,0.61,81.112
124000,156602,11330,-0.142,0.986,0.317,-0.61,0.122,0.61,81.115
124000,156499,10991,-0.14,0.987,0.318,0.122,0.244,0.488,81.122
124027,156602,11330,-0.139,0.991,0.317,0.122,0.244,0.488,81.125
124027,156499,10993,-0.138,0.991,0.325,0.488,0.244,0.427,81.131
124064,156602,11330,-0.144,0.996,0.316,0.488,0.244,0.427,81.135
124064,156521,10989,-0.144,0.996,0.301,-0.305,0.244,0.305,81.141
124079,156602,11330,-0.14,0.998,0.31,-0.305,0.244,0.305,81.145
124079,156562,10982,-0.133,0.989,0.328,-1.22,-0.305,0.061,81.151
124092,156602,11330,-0.135,0.978,0.339,-1.22,-0.305,0.061,81.155
124092,156576,11001,-0.142,0.979,0.333,0.427,0.244,0.183,81.161
124150,156602,11330,-0.142,0.979,0.333,0.427,0.244,0.183,81.165
124150,156582,10994,-0.136,0.994,0.324,1.098,1.037,0.305,81.171
124150,156602,11330,-0.136,0.994,0.324,1.098,1.037,0.305,81.175
124150,156618,11006,-0.137,0.998,0.338,0.915,0.488,0.122,81.181
124208,156602,11330,-0.137,0.998,0.338,0.915,0.488,0.122,81.185
124208,156612,11016,-0.145,0.989,0.323,0.183,0.61,-0.183,81.191
124224,156602,11330,-0.145,0.989,0.323,0.183,0.61,-0.183,81.195
124224,156630,11018,-0.137,0.985,0.31,-1.707,0.366,-0.427,81.201
124243,156858,11330,-0.137,0.985,0.31,-1.707,0.366,-0.427,81.204
124243,156672,11020,-0.131,0.982,0.312,-2.073,-0.183,-0.427,81.211
124259,156858,11330,-0.131,0.982,0.312,-2.073,-0.183,-0.427,81.214
124259,156702,11021,-0.137,0.975,0.318,-0.549,0.305,-0.122,81.221
124285,156858,11330,-0.137,0.975,0.318,-0.549,0.305,-0.122,81.224
124285,156698,11022,-0.136,0.981,0.323,0.976,0.976,0.244,81.23
124280,156858,11330,-0.136,0.981,0.323,0.976,0.976,0.244,81.234
124280,156711,11024,-0.137,1.002,0.323,0.976,0.854,0.61,81.24
124314,156858,11330,-0.137,1.002,0.323,0.976,0.854,0.61,81.244
124314,156725,11027,-0.143,0.995,0.32,0.244,0.549,0.427,81.25
124306,156858,11330,-0.143,0.995,0.32,0.244,0.549,0.427,81.254
124306,156725,11033,-0.141,0.984,0.317,-0.549,0.427,0.305,81.26
124311,156858,11330,-0.141,0.984,0.317,-0.549,0.427,0.305,81.264
124311,156737,11030,-0.138,0.987,0.313,-0.793,0.244,0.244,81.27
124305,156858,11330,-0.138,0.987,0.313,-0.793,0.244,0.244,81.274
124305,156735,11016,-0.14,0.991,0.316,-0.183,0.366,0.122,81.28
124333,156858,11330,-0.14,0.991,0.316,-0.183,0.366,0.122,81.284
124333,156732,11033,-0.141,0.99,0.318,0.61,0.549,0.244,81.29
124351,156858,11330,-0.141,0.99,0.318,0.61,0.549,0.244,81.294
124351,156739,11024,-0.137,0.996,0.317,0.244,0.427,0.427,81.3
124348,156858,11330,-0.137,0.996,0.317,0.244,0.427,0.427,81.303
124348,156723,11046,-0.138,1,0.324,0.244,0.427,0.427,81.31
124377,156858,11330,-0.141,0.996,0.327,-0.061,0.549,0.427,81.313
124377,156758,11045,-0.142,0.993,0.318,-0.061,0.549,0.427,81.32
124383,156858,11330,-0.14,0.988,0.309,-0.976,0.549,0.366,81.323
124383,156744,11038,-0.137,0.983,0.309,-0.976,0.549,0.366,81.329
124373,156858,11330,-0.134,0.981,0.313,-1.768,-0.061,0.488,81.333
124373,156766,11036,-0.136,0.981,0.312,-1.768,-0.061,0.488,81.339
124385,156858,11330,-0.14,0.972,0.312,-1.098,0.183,0.488,81.343
124385,156791,11039,-0.141,0.981,0.309,-1.098,0.183,0.488,81.349
124366,156858,11330,-0.138,0.988,0.315,-0.061,0.549,0.671,81.353
124366,156786,11042,-0.135,0.991,0.318,-0.061,0.549,0.671,81.359
124376,156858,11330,-0.138,0.991,0.321,0.915,0.488,0.671,81.363
124376,156804,11023,-0.142,0.992,0.327,0.915,0.488,0.671,81.369
124350,156858,11330,-0.142,0.998,0.326,1.341,0.549,0.61,81.373
124350,156779,11040,-0.142,1.006,0.326,1.341,0.549,0.61,81.379
124377,156858,11330,-0.139,1.006,0.327,0.671,0.488,0.427,81.383
124377,156797,11032,-0.14,1.004,0.322,0.671,0.488,0.427,81.389
124367,156858,11330,-0.14,1.003,0.319,0.061,0.488,0.061,81.393
124367,156792,11032,-0.137,0.995,0.325,0.061,0.488,0.061,81.399
124370,156858,11330,-0.14,0.99,0.32,-0.61,0.427,-0.244,81.402
124370,156802,11042,-0.138,0.992,0.312,-0.61,0.427,-0.244,81.409
124378,156858,11330,-0.14,0.987,0.313,-1.037,0.427,-0.183,81.412
124378,156766,11037,-0.139,0.981,0.313,-1.037,0.427,-0.183,81.419
124372,156858,11330,-0.137,0.98,0.315,-0.854,0.488,0.122,81.422
124372,156787,11023,-0.137,0.98,0.315,-0.854,0.488,0.122,81.428
124379,156858,11330,-0.136,0.981,0.315,-0.427,0.61,0.427,81.432
124379,156781,11029,-0.137,0.986,0.315,-0.427,0.61,0.427,81.438
124366,156858,11330,-0.138,0.99,0.319,-0.427,0.793,0.732,81.442
124366,156791,11037,-0.14,0.994,0.319,-0.427,0.793,0.732,81.448
124432,156858,11330,-0.139,0.994,0.318,-0.976,0.61,0.732,81.452
124432,156804,11043,-0.141,0.988,0.321,-0.976,0.61,0.732,81.458
124423,156858,11330,-0.141,0.99,0.317,-1.524,0.305,0.61,81.462
124423,156813,11046,-0.141,0.993,0.317,-1.524,0.305,0.61,81.468
124448,156858,11330,-0.141,0.994,0.317,-1.646,0.305,0.488,81.472
124448,156849,11033,-0.139,0.993,0.318,-1.646,0.305,0.488,81.478
124452,156858,11330,-0.142,0.988,0.317,-0.61,0.305,0.183,81.482
124452,156831,11048,-0.14,0.992,0.316,-0.61,0.305,0.183,81.488
124439,156858,11330,-0.142,0.996,0.317,-0.366,0.427,0.061,81.492
124439,156838,11049,-0.14,0.998,0.319,-0.366,0.427,0.061,81.498
124442,156858,11330,-0.142,0.995,0.321,-0.854,0.427,-0.183,81.501
124442,156846,11039,-0.142,0.989,0.315,-0.854,0.427,-0.183,81.508
124451,156858,11330,-0.14,0.984,0.318,-1.22,0.244,-0.427,81.511
124451,156856,11052,-0.139,0.982,0.319,-1.22,0.244,-0.427,81.518
124459,156858,11330,-0.141,0.983,0.314,-1.402,0.122,-0.488,81.521
124459,156838,11048,-0.141,0.987,0.317,-1.402,0.122,-0.488,81.527
124468,156858,11330,-0.14,0.984,0.32,-0.976,0.244,-0.305,81.531
124468,156834,11051,-0.141,0.981,0.317,-0.976,0.244,-0.305,81.537
124456,156858,11330,-0.138,0.979,0.317,-0.61,0.427,-0.244,81.541
124456,156845,11053,-0.141,0.981,0.319,-0.61,0.427,-0.244,81.547
124466,156858,11330,-0.141,0.983,0.321,-0.366,0.427,0,81.551
124466,156837,11034,-0.138,0.984,0.32,-0.366,0.427,0,81.557
124474,156858,11330,-0.141,0.985,0.321,-0.366,0.305,0.305,81.561
124474,156863,11039,-0.142,0.987,0.318,-0.366,0.305,0.305,81.567
124465,156858,11330,-0.14,0.989,0.318,-0.549,0.183,0.366,81.571
124465,156844,11054,-0.142,0.99,0.314,-0.549,0.183,0.366,81.577
124439,156858,11330,-0.14,0.993,0.31,-1.098,0.061,0.366,81.581
124439,156839,11048,-0.137,0.992,0.316,-1.098,0.061,0.366,81.587
124455,156858,11330,-0.141,0.992,0.321,-1.768,-0.061,0.427,81.591
124455,156839,11052,-0.142,0.988,0.317,-1.768,-0.061,0.427,81.597
124468,156858,11330,-0.142,0.985,0.315,-1.524,0.183,0.427,81.6
124468,156827,11040,-0.142,0.986,0.32,-1.524,0.183,0.427,81.607
124433,156858,11330,-0.141,0.989,0.328,-0.61,0.244,0.549,81.61
124433,156824,11039,-0.14,0.989,0.323,-0.61,0.244,0.549,81.617
124420,156858,11330,-0.146,0.993,0.324,0.122,0.61,0.61,81.62
124420,156807,11035,-0.146,0.994,0.322,0.122,0.61,0.61,81.626
124436,156858,11330,-0.142,0.994,0.319,-0.305,0.671,0.427,81.63
124436,156804,11052,-0.14,0.99,0.321,-0.305,0.671,0.427,81.636
124424,156858,11330,-0.14,0.988,0.325,-0.976,0.183,0.427,81.64
124424,156810,11026,-0.139,0.985,0.329,-0.976,0.183,0.427,81.646
124406,156858,11330,-0.14,0.985,0.328,-1.22,0.122,0.366,81.65
124406,156806,11047,-0.139,0.986,0.325,-1.22,0.122,0.366,81.656
124434,156858,11330,-0.14,0.982,0.322,-0.976,0.488,0.244,81.66
124434,156813,11042,-0.137,0.983,0.319,-0.976,0.488,0.244,81.666
124431,156858,11330,-0.14,0.989,0.322,-0.793,0.488,0.305,81.67
124431,156837,11034,-0.141,0.991,0.318,-0.793,0.488,0.305,81.676
124401,156858,11330,-0.143,0.987,0.313,-0.854,0.305,0.488,81.68
124401,156809,11041,-0.141,0.984,0.314,-0.854,0.305,0.488,81.686
124404,156858,11330,-0.14,0.986,0.323,-1.037,0.183,0.305,81.69
124404,156787,11040,-0.142,0.988,0.32,-1.037,0.183,0.305,81.696
124406,156858,11330,-0.142,0.988,0.312,-0.61,0.366,0.549,81.699
124406,156806,11036,-0.14,0.99,0.311,-0.61,0.366,0.549,81.706
124399,156858,11330,-0.142,0.99,0.317,0,0.549,0.488,81.709
124399,156791,11045,-0.14,0.995,0.323,0,0.549,0.488,81.715
124384,156858,11330,-0.142,0.993,0.325,0.122,0.549,0.549,81.719
124384,156791,11029,-0.145,0.988,0.325,0.122,0.549,0.549,81.725
124382,156858,11330,-0.142,0.987,0.329,0.061,0.793,0.61,81.729
124382,156779,11031,-0.139,0.985,0.329,0.061,0.793,0.61,81.735
124368,156858,11330,-0.138,0.988,0.325,-0.183,1.098,0.61,81.739
124368,156749,11026,-0.139,0.993,0.326,-0.183,1.098,0.61,81.745
124359,156858,11330,-0.139,0.993,0.326,-0.183,1.098,0.61,81.749
124359,156748,11032,-0.138,0.994,0.321,-0.305,1.037,0.488,81.755
124325,156858,11330,-0.138,0.994,0.321,-0.305,1.037,0.488,81.759
124325,156758,11029,-0.137,0.991,0.321,-0.549,0.793,0.183,81.765
124343,156858,11330,-0.137,0.991,0.321,-0.549,0.793,0.183,81.769
124343,156755,11030,-0.139,0.984,0.327,-0.793,0.549,0.061,81.775
124340,156858,11330,-0.139,0.984,0.327,-0.793,0.549,0.061,81.779
124340,156745,11032,-0.138,0.977,0.323,-0.671,0.61,0.122,81.785
124346,156858,11330,-0.138,0.977,0.323,-0.671,0.61,0.122,81.788
124346,156713,11021,-0.141,0.978,0.323,-0.488,0.549,0.427,81.795
124328,156858,11330,-0.141,0.978,0.323,-0.488,0.549,0.427,81.798
124328,156701,11032,-0.138,0.984,0.321,0.244,0.793,0.793,81.805
124324,156858,11330,-0.138,0.984,0.321,0.244,0.793,0.793,81.808
124324,156705,11033,-0.141,1.002,0.309,0.793,0.976,1.037,81.814
124313,156858,11330,-0.141,1.002,0.309,0.793,0.976,1.037,81.818
124313,156715,11027,-0.136,0.993,0.311,0.061,0.488,0.854,81.824
124294,156858,11330,-0.136,0.993,0.311,0.061,0.488,0.854,81.828
124294,156701,11023,-0.142,0.985,0.319,-0.854,0.122,0.732,81.834
124302,156858,11330,-0.142,0.985,0.319,-0.854,0.122,0.732,81.838
124302,156701,11014,-0.139,0.99,0.322,-1.646,0.244,0.671,81.844
124269,156858,11330,-0.139,0.99,0.322,-1.646,0.244,0.671,81.848
124269,156695,11012,-0.14,0.99,0.322,-1.463,0.244,0.915,81.854
124263,156602,11330,-0.14,0.99,0.322,-1.463,0.244,0.915,81.858
124263,156660,10989,-0.142,0.989,0.316,-0.854,0.244,0.915,81.864
124249,156602,11330,-0.142,0.989,0.316,-0.854,0.244,0.915,81.868
124249,156639,11017,-0.142,0.993,0.323,-0.671,0.305,0.549,81.874
124230,156602,11330,-0.142,0.993,0.323,-0.671,0.305,0.549,81.878
124230,156642,11022,-0.139,0.992,0.315,-0.488,0.244,0.366,81.884
124242,156602,11330,-0.139,0.992,0.315,-0.488,0.244,0.366,81.887
124242,156658,11009,-0.139,0.991,0.312,-0.549,-0.061,0.122,81.894
124235,156602,11330,-0.138,0.991,0.315,-0.549,-0.061,0.122,81.897
124235,156650,11013,-0.134,0.994,0.324,-0.427,-0.122,-0.061,81.904
124230,156602,11330,-0.137,0.992,0.327,-0.427,-0.122,-0.061,81.907
124230,156639,11017,-0.142,0.991,0.324,0.793,0.183,-0.122,81.913
124222,156602,11330,-0.143,0.989,0.322,0.793,0.183,-0.122,81.917
124222,156644,11011,-0.139,0.993,0.32,0.427,0.305,-0.183,81.923
124254,156602,11330,-0.139,0.994,0.327,0.427,0.305,-0.183,81.927
124254,156655,11029,-0.138,0.989,0.332,-0.183,0,-0.183,81.933
124253,156602,11330,-0.142,0.984,0.335,-0.183,0,-0.183,81.937
124253,156671,11012,-0.141,0.984,0.331,0.122,0.305,-0.366,81.943
124235,156602,11330,-0.144,0.983,0.32,0.122,0.305,-0.366,81.947
124235,156658,11001,-0.141,0.984,0.319,0.122,0.549,-0.427,81.953
124240,156858,11330,-0.139,0.99,0.319,0.122,0.549,-0.427,81.957
124240,156677,11018,-0.137,0.991,0.323,-0.183,0.427,-0.244,81.963
124250,156602,11330,-0.138,0.988,0.326,-0.183,0.427,-0.244,81.967
124250,156660,11024,-0.141,0.983,0.324,-0.427,0.61,-0.305,81.973
124226,156602,11330,-0.142,0.977,0.325,-0.427,0.61,-0.305,81.977
124226,156650,11016,-0.135,0.978,0.324,-0.549,0.549,0,81.983
124238,156602,11330,-0.135,0.976,0.322,-0.549,0.549,0,81.986
124238,156652,11007,-0.135,0.98,0.327,-0.061,0.61,0.427,81.993
124227,156602,11330,-0.137,0.987,0.324,-0.061,0.61,0.427,81.996
124227,156651,11009,-0.14,0.993,0.316,-0.061,0.732,0.854,82.003
124232,156602,11330,-0.142,0.991,0.318,-0.061,0.732,0.854,82.006
124232,156652,11019,-0.139,0.989,0.32,-0.549,0.366,0.732,82.012
124216,156602,11330,-0.137,0.993,0.312,-0.549,0.366,0.732,82.016
124216,156631,11010,-0.141,0.994,0.313,-0.915,0,0.61,82.022
124207,156602,11330,-0.139,0.988,0.316,-0.915,0,0.61,82.026
124207,156624,11010,-0.142,0.991,0.312,-0.549,0.061,0.549,82.032
124197,156602,11330,-0.141,0.988,0.319,-0.549,0.061,0.549,82.036
124197,156618,10995,-0.139,0.983,0.324,-0.305,0.488,0.488,82.042
124164,156602,11330,-0.141,0.981,0.329,-0.305,0.488,0.488,82.046
124164,156593,10991,-0.143,0.982,0.332,0.244,0.671,0.488,82.052
124172,156602,11330,-0.143,0.989,0.33,0.244,0.671,0.488,82.056
124172,156578,10982,-0.141,0.993,0.332,0.305,0.793,0.488,82.062
124152,156602,11330,-0.144,0.992,0.335,0.305,0.793,0.488,82.066
124152,156571,11000,-0.141,0.995,0.326,-0.122,0.793,0.427,82.072
124130,156602,11330,-0.144,1,0.324,-0.122,0.793,0.427,82.076
124130,156555,10998,-0.142,0.998,0.323,-0.793,0.793,0.061,82.082
124123,156602,11330,-0.141,0.995,0.323,-0.793,0.793,0.061,82.085
124123,156554,10981,-0.147,0.996,0.323,-0.976,0.854,-0.244,82.092
124043,156602,11330,-0.147,0.994,0.322,-0.976,0.854,-0.244,82.095
124043,156503,10991,-0.149,0.995,0.32,-0.61,1.463,-0.366,82.102
124014,156602,11330,-0.15,0.994,0.314,-0.61,1.463,-0.366,82.105
124014,156451,10984,-0.149,0.99,0.316,0.549,2.256,-0.427,82.111
123956,156602,11330,-0.149,0.991,0.314,0.549,2.256,-0.427,82.115
123956,156435,10960,-0.148,0.996,0.313,0.976,2.927,-0.427,82.121
123944,156346,11330,-0.147,0.995,0.314,0.976,2.927,-0.427,82.125
123944,156370,10949,-0.146,0.996,0.315,1.402,3.232,-0.488,82.131
123889,156346,11330,-0.145,0.994,0.315,1.402,3.232,-0.488,82.135
123889,156385,10960,-0.144,0.989,0.316,1.768,3.415,-0.549,82.141
123874,156346,11330,-0.14,0.991,0.317,1.768,3.415,-0.549,82.145
123874,156347,10965,-0.14,0.992,0.316,2.256,3.232,-0.61,82.151
123872,156346,11330,-0.142,0.992,0.324,2.256,3.232,-0.61,82.155
123872,156360,10947,-0.143,1.001,0.319,2.866,2.927,-0.793,82.161
123869,156346,11330,-0.138,1.007,0.331,2.866,2.927,-0.793,82.165
123869,156353,10958,-0.128,0.996,0.332,3.11,2.073,-0.915,82.171
123880,156346,11330,-0.123,0.987,0.336,3.11,2.073,-0.915,82.175
123880,156347,10965,-0.124,0.988,0.34,3.11,1.951,-0.854,82.181
123876,156346,11330,-0.128,0.986,0.332,3.11,1.951,-0.854,82.184
123876,156377,10950,-0.135,0.979,0.33,2.134,2.927,-0.976,82.191
123917,156346,11330,-0.139,0.977,0.33,2.134,2.927,-0.976,82.194
123917,156393,10952,-0.14,0.981,0.329,0.732,2.805,-1.037,82.201
123941,156346,11330,-0.14,0.978,0.327,0.732,2.805,-1.037,82.204
123941,156413,10958,-0.143,0.975,0.322,-0.671,2.073,-0.793,82.21
123954,156346,11330,-0.139,0.974,0.314,-0.671,2.073,-0.793,82.214
123954,156408,10978,-0.139,0.972,0.309,-1.646,1.524,-0.793,82.22
123980,156602,11330,-0.145,0.971,0.297,-1.646,1.524,-0.793,82.224
123980,156441,10965,-0.146,0.964,0.293,-1.951,1.22,-0.183,82.23
123969,156602,11330,-0.145,0.969,0.289,-1.951,1.22,-0.183,82.234
123969,156440,10974,-0.144,0.98,0.294,-1.585,0.854,0.061,82.24
124009,156602,11330,-0.145,0.978,0.303,-1.585,0.854,0.061,82.244
124009,156441,10974,-0.143,0.975,0.303,-0.549,0.854,0.488,82.25
124007,156602,11330,-0.144,0.974,0.305,-0.549,0.854,0.488,82.254
124007,156470,10976,-0.147,0.984,0.31,0.244,0.732,1.098,82.26
124022,156602,11330,-0.145,0.993,0.314,0.244,0.732,1.098,82.264
124022,156485,10969,-0.143,0.995,0.318,0.61,0.427,1.402,82.27
124030,156602,11330,-0.144,1.001,0.32,0.61,0.427,1.402,82.274
124030,156474,10980,-0.142,1.005,0.321,0.915,-0.061,1.28,82.28
124051,156602,11330,-0.141,1.005,0.325,0.915,-0.061,1.28,82.283
124051,156485,10972,-0.142,1.007,0.328,0.305,0,1.037,82.29
124056,156602,11330,-0.145,1.006,0.318,0.305,0,1.037,82.293
124056,156495,10982,-0.146,1.01,0.314,-0.061,0.427,0.61,82.3
124060,156602,11330,-0.149,1.01,0.316,-0.061,0.427,0.61,82.303
124060,156491,10983,-0.147,1.009,0.316,-0.488,0.305,0.183,82.309
124080,156602,11330,-0.15,1.006,0.314,-0.488,0.305,0.183,82.313
124080,156526,10989,-0.153,1.002,0.312,-1.28,0.122,-0.427,82.319
124081,156602,11330,-0.153,1.002,0.312,-1.28,0.122,-0.427,82.323
124081,156529,10992,-0.155,0.989,0.314,-0.976,0.061,-0.671,82.329
124073,156602,11330,-0.155,0.989,0.314,-0.976,0.061,-0.671,82.333
124073,156526,10986,-0.151,0.995,0.31,-0.427,0.061,-0.549,82.339
124062,156602,11330,-0.151,0.995,0.31,-0.427,0.061,-0.549,82.343
124062,156524,10987,-0.152,0.994,0.316,-0.366,0.61,-0.976,82.349
124050,156602,11330,-0.152,0.994,0.316,-0.366,0.61,-0.976,82.353
124050,156539,10987,-0.152,0.983,0.31,-0.549,0.61,-1.22,82.359
124037,156602,11330,-0.152,0.983,0.31,-0.549,0.61,-1.22,82.363
124037,156515,10987,-0.147,0.978,0.316,-0.854,0.488,-1.037,82.369
124057,156602,11330,-0.147,0.978,0.316,-0.854,0.488,-1.037,82.373
124057,156509,10996,-0.142,0.977,0.325,-0.305,0.793,-0.61,82.379
124062,156602,11330,-0.142,0.977,0.325,-0.305,0.793,-0.61,82.382
124062,156494,10977,-0.142,0.982,0.329,0.427,1.463,-0.427,82.389
124078,156602,11330,-0.142,0.982,0.329,0.427,1.463,-0.427,82.392
124078,156513,10975,-0.135,0.983,0.336,0.976,1.524,-0.366,82.398
124093,156602,11330,-0.135,0.983,0.336,0.976,1.524,-0.366,82.402
124093,156537,10993,-0.131,0.989,0.332,1.159,1.524,-0.183,82.408
124140,156602,11330,-0.131,0.989,0.332,1.159,1.524,-0.183,82.412
124140,156575,10993,-0.132,0.99,0.323,0,1.524,-0.305,82.418
124179,156602,11330,-0.132,0.99,0.323,0,1.524,-0.305,82.422
124179,156589,11001,-0.132,0.976,0.316,-0.976,0.793,-0.366,82.428
124176,156602,11330,-0.132,0.976,0.316,-0.976,0.793,-0.366,82.432
124176,156624,11009,-0.131,0.97,0.316,-1.402,0.366,0.061,82.438
124212,156602,11330,-0.131,0.97,0.316,-1.402,0.366,0.061,82.442
124212,156622,11012,-0.143,0.973,0.309,-0.915,0.854,0.61,82.448
124206,156602,11330,-0.143,0.973,0.309,-0.915,0.854,0.61,82.452
124206,156637,11013,-0.142,0.983,0.306,-0.671,0.61,0.915,82.458
124210,156602,11330,-0.142,0.983,0.306,-0.671,0.61,0.915,82.462
124210,156612,11003,-0.144,0.983,0.312,-0.671,0.61,0.915,82.468
124217,156602,11330,-0.145,0.991,0.315,-0.671,0,1.524,82.472
124217,156632,10994,-0.151,0.989,0.319,-0.671,0,1.524,82.478
124178,156602,11330,-0.149,0.986,0.326,-0.549,0.549,1.829,82.481
124178,156629,10997,-0.15,0.991,0.325,-0.549,0.549,1.829,82.488
124180,156602,11330,-0.151,0.997,0.327,-1.402,0.854,1.951,82.491
124180,156619,11009,-0.15,1.005,0.33,-1.402,0.854,1.951,82.497
124152,156602,11330,-0.149,1,0.328,-2.073,0.732,1.829,82.501
124152,156602,10994,-0.148,0.995,0.323,-2.073,0.732,1.829,82.507
124165,156602,11330,-0.149,0.994,0.32,-2.012,0.854,1.037,82.511
124165,156612,10991,-0.146,0.998,0.321,-2.012,0.854,1.037,82.517
124156,156602,11330,-0.147,1,0.321,-2.134,0.915,0.427,82.521
124156,156585,11009,-0.147,0.999,0.321,-2.134,0.915,0.427,82.527
124171,156602,11330,-0.146,0.997,0.319,-1.951,0.976,0.061,82.531
124171,156593,10988,-0.147,0.99,0.318,-1.951,0.976,0.061,82.537
124158,156602,11330,-0.147,0.988,0.318,-1.22,1.341,-0.244,82.541
124158,156595,11007,-0.145,0.988,0.314,-1.22,1.341,-0.244,82.547
124164,156602,11330,-0.143,0.988,0.314,-0.671,1.402,-0.305,82.551
124164,156600,11003,-0.143,0.982,0.311,-0.671,1.402,-0.305,82.557
124161,156602,11330,-0.143,0.983,0.308,-0.183,1.098,-0.244,82.561
124161,156590,11008,-0.144,0.987,0.304,-0.183,1.098,-0.244,82.567
124166,156602,11330,-0.145,0.99,0.305,-0.427,0.793,-0.061,82.57
124166,156603,10997,-0.145,0.991,0.306,-0.427,0.793,-0.061,82.577
124162,156602,11330,-0.143,0.993,0.309,-0.488,0.793,0.122,82.58
124162,156564,11020,-0.142,0.987,0.317,-0.488,0.793,0.122,82.587
124157,156602,11330,-0.142,0.986,0.319,0.122,0.671,0.305,82.59
124157,156549,11003,-0.144,0.986,0.327,0.122,0.671,0.305,82.596
124136,156602,11330,-0.145,0.991,0.324,0.61,0.671,0.549,82.6
124136,156577,10983,-0.148,0.996,0.329,0.61,0.671,0.549,82.606
124128,156602,11330,-0.146,0.996,0.328,0.122,0.854,0.427,82.61
124128,156556,11006,-0.145,0.994,0.325,0.122,0.854,0.427,82.616
124116,156602,11330,-0.144,0.99,0.325,-0.549,0.61,0.244,82.62
124116,156563,10984,-0.148,0.984,0.323,-0.549,0.61,0.244,82.626
124110,156602,11330,-0.144,0.981,0.324,-0.976,0.183,0.061,82.63
124110,156539,10994,-0.144,0.979,0.32,-0.976,0.183,0.061,82.636
124100,156602,11330,-0.144,0.98,0.315,-0.793,0.183,0.122,82.64
124100,156539,10983,-0.146,0.978,0.312,-0.793,0.183,0.122,82.646
124073,156602,11330,-0.146,0.982,0.314,0.183,0.366,0.061,82.65
124073,156539,10982,-0.146,0.989,0.316,0.183,0.366,0.061,82.656
124096,156602,11330,-0.146,0.99,0.312,0.915,0.366,0.061,82.66
124096,156539,10993,-0.149,0.985,0.311,0.915,0.366,0.061,82.666
124097,156602,11330,-0.146,0.986,0.308,0.366,-0.061,0.122,82.669
124097,156511,10985,-0.143,0.986,0.31,0.366,-0.061,0.122,82.676
124064,156602,11330,-0.145,0.982,0.314,-0.488,-0.366,0.183,82.679
124064,156540,11000,-0.146,0.983,0.318,-0.488,-0.366,0.183,82.686
124076,156602,11330,-0.143,0.983,0.315,-0.61,-0.244,0.427,82.689
124076,156523,10997,-0.143,0.986,0.309,-0.61,-0.244,0.427,82.695
124084,156602,11330,-0.144,0.984,0.312,0.061,-0.244,0.61,82.699
124084,156528,10991,-0.145,0.988,0.317,0.061,-0.244,0.61,82.705
124075,156602,11330,-0.143,0.995,0.319,0.549,-0.366,0.854,82.709
124075,156525,10990,-0.142,0.997,0.32,0.549,-0.366,0.854,82.715
124056,156602,11330,-0.145,0.995,0.315,0.854,-0.366,0.854,82.719
124056,156516,10987,-0.146,0.998,0.317,0.854,-0.366,0.854,82.725
124073,156602,11330,-0.146,0.995,0.318,0.427,-0.366,0.671,82.729
124073,156527,10969,-0.144,0.995,0.324,0.427,-0.366,0.671,82.735
124092,156602,11330,-0.142,0.994,0.325,0.122,-0.427,0.488,82.739
124092,156518,10975,-0.14,0.99,0.323,0.122,-0.427,0.488,82.745
124089,156602,11330,-0.143,0.989,0.323,-0.305,-0.61,0.366,82.749
124089,156503,11002,-0.144,0.986,0.324,-0.305,-0.61,0.366,82.755
124060,156602,11330,-0.147,0.985,0.327,-0.976,-0.732,0.488,82.759
124060,156521,11003,-0.146,0.983,0.33,-0.976,-0.732,0.488,82.765
124067,156602,11330,-0.141,0.984,0.323,-0.488,-0.732,0.549,82.768
124067,156527,10986,-0.145,0.983,0.319,-0.488,-0.732,0.549,82.775
124090,156602,11330,-0.145,0.988,0.322,0.427,-0.61,0.488,82.778
124090,156507,10986,-0.15,0.998,0.32,0.427,-0.61,0.488,82.785
124063,156602,11330,-0.148,1.001,0.322,-0.122,-0.244,0.549,82.788
124063,156523,10996,-0.151,0.999,0.317,-0.122,-0.244,0.549,82.794
124077,156602,11330,-0.15,0.991,0.318,-1.28,-0.427,0.427,82.798
124077,156497,10997,-0.148,0.985,0.311,-1.28,-0.427,0.427,82.804
124065,156602,11330,-0.15,0.983,0.312,-2.134,-0.671,0.366,82.808
124065,156535,10992,-0.146,0.981,0.315,-2.134,-0.671,0.366,82.814
124078,156602,11330,-0.145,0.982,0.316,-1.585,-0.427,0.427,82.818
124078,156532,10978,-0.147,0.984,0.318,-1.585,-0.427,0.427,82.824
124083,156602,11330,-0.145,0.987,0.323,-0.488,0.061,0.549,82.828
124083,156511,10998,-0.146,0.988,0.321,-0.488,0.061,0.549,82.834
124096,156602,11330,-0.144,0.987,0.323,0.305,0.244,0.671,82.838
124096,156526,10991,-0.141,0.986,0.322,0.305,0.244,0.671,82.844
124082,156602,11330,-0.143,0.988,0.322,0.488,0.122,0.488,82.848
124082,156503,10973,-0.142,0.987,0.323,0.488,0.122,0.488,82.854
124080,156602,11330,-0.141,0.988,0.328,0.183,0,0.427,82.858
124080,156538,10974,-0.142,0.991,0.333,0.183,0,0.427,82.864
124079,156602,11330,-0.147,0.988,0.335,0.244,0.366,0.305,82.867
124079,156534,10977,-0.144,0.992,0.329,0.244,0.366,0.305,82.874
124079,156602,11330,-0.14,0.995,0.325,-0.244,0.427,0.366,82.877
124079,156519,11000,-0.143,0.994,0.32,-0.244,0.427,0.366,82.883
124053,156602,11330,-0.145,0.989,0.32,-0.915,0,0.366,82.887
124053,156524,10988,-0.142,0.989,0.317,-0.915,0,0.366,82.893
124061,156602,11330,-0.141,0.993,0.318,-1.28,0,0.366,82.897
124061,156520,10977,-0.145,0.993,0.315,-1.28,0,0.366,82.903
124076,156602,11330,-0.145,0.993,0.315,-1.28,0,0.366,82.907
124076,156515,10985,-0.149,0.987,0.322,-1.829,0.244,0.305,82.913
124076,156602,11330,-0.149,0.987,0.322,-1.829,0.244,0.305,82.917
124076,156522,10972,-0.146,0.979,0.317,-1.768,0.244,0.488,82.923
124098,156602,11330,-0.146,0.979,0.317,-1.768,0.244,0.488,82.927
124098,156542,10985,-0.143,0.987,0.323,-0.915,0.366,0.671,82.933
124100,156602,11330,-0.143,0.987,0.323,-0.915,0.366,0.671,82.937
124100,156529,10983,-0.145,0.997,0.322,0.061,0.854,0.915,82.943
124107,156602,11330,-0.145,0.997,0.322,0.061,0.854,0.915,82.947
124107,156562,10987,-0.143,0.99,0.321,-0.122,0.976,0.732,82.953
124108,156602,11330,-0.143,0.99,0.321,-0.122,0.976,0.732,82.957
124108,156551,10992,-0.142,0.989,0.324,-0.427,0.549,0.427,82.963
124110,156602,11330,-0.142,0.989,0.324,-0.427,0.549,0.427,82.966
124110,156541,10993,-0.143,0.987,0.323,-0.366,0.488,0.305,82.973
124132,156602,11330,-0.143,0.987,0.323,-0.366,0.488,0.305,82.976
124132,156580,10986,-0.143,0.987,0.327,-0.122,0.732,0.305,82.982
124134,156602,11330,-0.143,0.987,0.327,-0.122,0.732,0.305,82.986
124134,156583,10996,-0.145,0.985,0.325,-0.122,0.915,0.305,82.992
124169,156602,11330,-0.145,0.985,0.325,-0.122,0.915,0.305,82.996
124169,156614,10996,-0.143,0.98,0.318,-0.366,0.549,0.305,83.002
124172,156602,11330,-0.143,0.98,0.318,-0.366,0.549,0.305,83.006
124172,156638,10999,-0.144,0.98,0.317,-0.854,0.183,0.488,83.012
124212,156602,11330,-0.144,0.98,0.317,-0.854,0.183,0.488,83.016
124212,156619,11015,-0.145,0.987,0.311,-0.915,0.366,0.671,83.022
124242,156602,11330,-0.145,0.987,0.311,-0.915,0.366,0.671,83.026
124242,156661,11025,-0.144,0.99,0.319,-0.732,0.427,0.732,83.032
124248,156602,11330,-0.144,0.99,0.319,-0.732,0.427,0.732,83.036
124248,156669,11008,-0.144,0.995,0.32,-0.854,0.427,0.976,83.042
124224,156602,11330,-0.143,0.992,0.319,-0.854,0.427,0.976,83.046
124224,156653,11020,-0.145,0.985,0.32,-1.646,0.427,0.915,83.052
124237,156602,11330,-0.143,0.984,0.318,-1.646,0.427,0.915,83.056
124237,156654,11005,-0.143,0.982,0.321,-1.829,0.305,0.854,83.062
124220,156602,11330,-0.142,0.976,0.322,-1.829,0.305,0.854,83.065
124220,156634,10992,-0.141,0.976,0.32,-0.915,0.427,0.854,83.072
124206,156602,11330,-0.146,0.98,0.321,-0.915,0.427,0.854,83.075
124206,156658,10998,-0.146,0.99,0.327,0.183,0.549,0.915,83.081
124232,156602,11330,-0.144,0.995,0.33,0.183,0.549,0.915,83.085
124232,156644,11016,-0.144,0.992,0.329,0.488,0.366,0.915,83.091
124239,156602,11330,-0.146,0.99,0.329,0.488,0.366,0.915,83.095
124239,156651,11013,-0.145,0.99,0.321,0.305,0.061,0.671,83.101
124246,156602,11330,-0.141,0.994,0.318,0.305,0.061,0.671,83.105
124246,156664,11001,-0.14,1,0.322,-0.122,-0.061,0.366,83.111
124245,156602,11330,-0.144,1.002,0.325,-0.122,-0.061,0.366,83.115
124245,156649,10995,-0.144,0.993,0.324,-0.244,0.061,0.183,83.121
124271,156602,11330,-0.142,0.99,0.318,-0.244,0.061,0.183,83.125
124271,156663,10996,-0.143,0.986,0.317,-1.037,-0.183,0.183,83.131
124265,156858,11330,-0.141,0.979,0.317,-1.037,-0.183,0.183,83.135
124265,156673,11019,-0.139,0.985,0.316,-1.037,-0.549,0.305,83.141
124277,156602,11330,-0.141,0.989,0.318,-1.037,-0.549,0.305,83.145
124277,156653,11004,-0.143,0.989,0.318,-0.366,-0.366,0.366,83.151
124272,156858,11330,-0.143,0.99,0.318,-0.366,-0.366,0.366,83.154
124272,156691,11007,-0.143,0.985,0.319,-0.061,-0.183,0.488,83.161
124270,156858,11330,-0.145,0.984,0.321,-0.061,-0.183,0.488,83.164
124270,156685,11027,-0.144,0.984,0.319,-0.366,-0.366,0.61,83.171
124276,156858,11330,-0.143,0.985,0.322,-0.366,-0.366,0.61,83.174
124276,156673,11007,-0.142,0.983,0.323,-0.427,-0.427,0.61,83.18
124252,156602,11330,-0.142,0.981,0.326,-0.427,-0.427,0.61,83.184
124252,156671,11013,-0.145,0.989,0.328,0.122,-0.122,0.732,83.19
124269,156602,11330,-0.15,0.993,0.33,0.122,-0.122,0.732,83.194
124269,156667,11004,-0.149,0.994,0.331,0.854,0.366,0.671,83.2
124260,156858,11330,-0.15,0.994,0.329,0.854,0.366,0.671,83.204
124260,156693,10999,-0.147,1.001,0.33,0.549,0.366,0.549,83.21
124281,156858,11330,-0.147,1.007,0.328,0.549,0.366,0.549,83.214
124281,156703,11011,-0.146,1.005,0.325,-0.915,0.305,0.366,83.22
124284,156858,11330,-0.146,0.997,0.32,-0.915,0.305,0.366,83.224
124284,156697,11018,-0.143,0.989,0.318,-2.256,0.122,-0.183,83.23
124308,156858,11330,-0.144,0.984,0.318,-2.256,0.122,-0.183,83.234
124308,156711,11022,-0.141,0.984,0.317,-2.378,0,-0.183,83.24
124288,156858,11330,-0.143,0.98,0.316,-2.378,0,-0.183,83.244
124288,156728,11008,-0.14,0.981,0.315,-1.22,0.488,-0.305,83.25
124305,156858,11330,-0.14,0.981,0.314,-1.22,0.488,-0.305,83.253
124305,156712,11019,-0.14,0.988,0.313,-0.366,0.732,-0.366,83.26
124320,156858,11330,-0.141,0.99,0.318,-0.366,0.732,-0.366,83.263
124320,156724,11019,-0.139,0.99,0.322,-0.488,0.427,-0.366,83.27
124318,156858,11330,-0.14,0.995,0.323,-0.488,0.427,-0.366,83.273
124318,156718,11024,-0.142,0.992,0.326,-1.524,0.122,-0.488,83.279
124321,156858,11330,-0.144,0.987,0.335,-1.524,0.122,-0.488,83.283
124321,156680,11008,-0.142,0.982,0.331,-1.524,0.061,-0.305,83.289
124299,156858,11330,-0.139,0.976,0.325,-1.524,0.061,-0.305,83.293
124299,156717,11020,-0.137,0.973,0.331,-0.183,-0.061,-0.122,83.299
124287,156858,11330,-0.142,0.977,0.335,-0.183,-0.061,-0.122,83.303
124287,156726,11020,-0.144,0.989,0.328,1.28,0.305,0.488,83.309
124276,156858,11330,-0.147,0.999,0.327,1.28,0.305,0.488,83.313
124276,156693,11018,-0.147,1.002,0.329,0.793,0.915,0.61,83.319
124280,156858,11330,-0.146,0.996,0.33,0.793,0.915,0.61,83.323
124280,156679,11006,-0.146,0.988,0.33,-0.854,0.488,0.305,83.329
124268,156858,11330,-0.143,0.986,0.326,-0.854,0.488,0.305,83.333
124268,156706,11013,-0.142,0.982,0.318,-2.439,0.244,0.366,83.339
124259,156858,11330,-0.147,0.982,0.319,-2.439,0.244,0.366,83.343
124259,156689,11018,-0.144,0.982,0.316,-2.317,0.305,0.305,83.349
124268,156858,11330,-0.143,0.984,0.313,-2.317,0.305,0.305,83.352
124268,156690,11016,-0.145,0.984,0.313,-1.402,0.671,0.244,83.359
124240,156858,11330,-0.143,0.985,0.312,-1.402,0.671,0.244,83.362
124240,156672,11015,-0.145,0.985,0.316,-1.098,0.732,0.305,83.369
124251,156602,11330,-0.143,0.988,0.319,-1.098,0.732,0.305,83.372
124251,156671,11020,-0.143,0.983,0.314,-1.585,0.427,0.366,83.378
124240,156602,11330,-0.142,0.99,0.325,-1.585,0.427,0.366,83.382
124240,156660,11004,-0.144,0.988,0.334,-1.341,0.183,0.305,83.388
124232,156602,11330,-0.145,0.984,0.324,-1.341,0.183,0.305,83.392
124232,156654,11017,-0.141,0.988,0.324,-1.098,0.305,0.244,83.398
124226,156602,11330,-0.145,0.985,0.328,-1.098,0.305,0.244,83.402
124226,156645,11007,-0.147,0.985,0.323,-0.549,0.122,0.183,83.408
124221,156602,11330,-0.145,0.986,0.319,-0.549,0.122,0.183,83.412
124221,156631,11004,-0.146,0.984,0.319,-0.244,0,0,83.418
124192,156602,11330,-0.146,0.985,0.316,-0.244,0,0,83.422
124192,156622,10983,-0.148,0.988,0.319,-0.366,0.122,0.061,83.428
124156,156602,11330,-0.15,0.986,0.318,-0.366,0.122,0.061,83.432
124156,156619,10996,-0.147,0.983,0.323,-0.366,0.305,0.305,83.438
124157,156602,11330,-0.147,0.978,0.322,-0.366,0.305,0.305,83.442
124157,156586,10996,-0.145,0.977,0.319,0.488,0.488,0.488,83.448
124138,156602,11330,-0.15,0.978,0.319,0.488,0.488,0.488,83.451
124138,156583,10987,-0.151,0.981,0.316,1.341,0.915,0.671,83.458
124124,156602,11330,-0.151,0.984,0.318,1.341,0.915,0.671,83.461
124124,156586,10992,-0.151,0.988,0.311,1.768,1.159,0.671,83.468
124130,156602,11330,-0.15,0.994,0.307,1.768,1.159,0.671,83.471
124130,156556,10999,-0.151,0.99,0.308,0.793,0.854,0.366,83.477
124111,156602,11330,-0.151,0.99,0.308,0.793,0.854,0.366,83.481
124111,156569,10986,-0.146,0.983,0.305,0,0.183,0.122,83.487
124108,156602,11330,-0.146,0.983,0.305,0,0.183,0.122,83.491
124108,156558,10995,-0.144,0.984,0.311,0.183,-0.122,0.122,83.497
124124,156602,11330,-0.144,0.984,0.311,0.183,-0.122,0.122,83.501
124124,156562,10980,-0.146,0.997,0.317,0.671,-0.183,0.122,83.507
124129,156602,11330,-0.146,0.997,0.317,0.671,-0.183,0.122,83.511
124129,156556,10994,-0.143,1.01,0.319,-0.366,-0.732,-0.244,83.517
124107,156602,11330,-0.143,1.01,0.319,-0.366,-0.732,-0.244,83.521
124107,156538,10998,-0.142,0.995,0.321,-1.159,-1.646,-0.549,83.527
124122,156602,11330,-0.142,0.995,0.321,-1.159,-1.646,-0.549,83.531
124122,156575,10987,-0.151,0.983,0.319,-1.098,-2.195,-0.488,83.537
124126,156602,11330,-0.151,0.983,0.319,-1.098,-2.195,-0.488,83.541
124126,156556,10993,-0.132,0.987,0.331,-0.61,-2.927,-0.122,83.547
124129,156602,11330,-0.132,0.987,0.331,-0.61,-2.927,-0.122,83.55
124129,156557,10996,-0.136,0.975,0.328,0.305,-2.256,-0.122,83.557
124128,156602,11330,-0.136,0.975,0.328,0.305,-2.256,-0.122,83.56
124128,156560,10994,-0.147,0.977,0.332,0.854,-1.22,0,83.567
124121,156602,11330,-0.147,0.977,0.332,0.854,-1.22,0,83.57
124121,156561,10985,-0.138,0.979,0.338,1.89,-1.098,0.366,83.576
124133,156602,11330,-0.138,0.979,0.338,1.89,-1.098,0.366,83.58
124133,156594,10990,-0.146,0.992,0.336,2.5,-0.427,0.488,83.586
124153,156602,11330,-0.146,0.992,0.336,2.5,-0.427,0.488,83.59
124153,156573,11009,-0.148,0.992,0.334,2.012,-0.305,0.366,83.596
124161,156602,11330,-0.148,0.992,0.334,2.012,-0.305,0.366,83.6
124161,156590,10986,-0.147,0.991,0.33,0.732,-0.915,0.488,83.606
124173,156602,11330,-0.147,0.991,0.33,0.732,-0.915,0.488,83.61
124173,156612,10995,-0.138,0.987,0.33,-0.427,-0.854,0.671,83.616
124170,156602,11330,-0.138,0.987,0.33,-0.427,-0.854,0.671,83.62
124170,156612,11004,-0.135,0.985,0.326,-0.427,-0.854,0.671,83.626
124159,156602,11330,-0.134,0.985,0.322,-0.61,-0.061,0.732,83.63
124159,156608,10998,-0.134,0.985,0.32,-0.61,-0.061,0.732,83.636
124185,156602,11330,-0.141,0.991,0.317,-0.366,0.488,0.549,83.64
124185,156606,10998,-0.142,0.991,0.319,-0.366,0.488,0.549,83.646
124195,156602,11330,-0.138,0.993,0.318,-0.244,0.61,0.427,83.649
124195,156629,10992,-0.137,0.991,0.321,-0.244,0.61,0.427,83.656
124190,156602,11330,-0.136,0.992,0.319,-0.366,0.305,0.305,83.659
124190,156601,11011,-0.137,0.997,0.318,-0.366,0.305,0.305,83.665
124203,156602,11330,-0.136,0.996,0.328,-0.244,0.244,0.366,83.669
124203,156594,11012,-0.136,0.994,0.331,-0.244,0.244,0.366,83.675
124196,156602,11330,-0.14,0.993,0.328,0.244,0.244,0.366,83.679
124196,156634,11012,-0.143,0.989,0.324,0.244,0.244,0.366,83.685
124188,156602,11330,-0.143,0.987,0.33,0.183,0.061,0.244,83.689
124188,156609,11021,-0.144,0.987,0.328,0.183,0.061,0.244,83.695
124197,156602,11330,-0.145,0.984,0.325,-0.122,-0.061,0.183,83.699
124197,156601,11008,-0.142,0.98,0.324,-0.122,-0.061,0.183,83.705
124190,156602,11330,-0.144,0.976,0.321,0,-0.061,0.244,83.709
124190,156620,10992,-0.147,0.98,0.319,0,-0.061,0.244,83.715
124175,156602,11330,-0.148,0.986,0.323,-0.305,0.061,0.61,83.719
124175,156626,10989,-0.146,0.985,0.32,-0.305,0.061,0.61,83.725
124208,156602,11330,-0.144,0.987,0.322,-0.549,0.305,0.61,83.729
124208,156644,11016,-0.145,0.985,0.321,-0.549,0.305,0.61,83.735
124213,156602,11330,-0.145,0.981,0.326,-0.915,0.305,0.793,83.738
124213,156632,11009,-0.144,0.986,0.325,-0.915,0.305,0.793,83.745
124212,156602,11330,-0.14,0.986,0.326,-1.159,0.549,1.098,83.748
124212,156645,11001,-0.142,0.986,0.331,-1.159,0.549,1.098,83.755
124224,156602,11330,-0.144,0.987,0.328,-0.854,0.61,1.037,83.758
124224,156632,11019,-0.143,0.983,0.326,-0.854,0.61,1.037,83.764
124231,156602,11330,-0.142,0.992,0.323,-0.793,0.61,0.915,83.768
124231,156645,10993,-0.144,0.991,0.327,-0.793,0.61,0.915,83.774
124211,156602,11330,-0.143,0.99,0.326,-0.915,0.732,1.037,83.778
124211,156650,11013,-0.143,0.992,0.322,-0.915,0.732,1.037,83.784
124241,156602,11330,-0.141,0.991,0.32,-1.22,0.793,0.854,83.788
124241,156641,11018,-0.138,0.991,0.321,-1.22,0.793,0.854,83.794
124231,156602,11330,-0.141,0.987,0.317,-1.159,0.427,0.671,83.798
124231,156613,11006,-0.143,0.988,0.319,-1.159,0.427,0.671,83.804
124208,156602,11330,-0.146,0.99,0.316,-0.793,0.488,0.549,83.808
124208,156601,10984,-0.143,0.993,0.316,-0.793,0.488,0.549,83.814
124184,156602,11330,-0.142,0.992,0.322,-0.366,0.488,0.305,83.818
124184,156623,10993,-0.14,0.991,0.32,-0.366,0.488,0.305,83.824
124206,156602,11330,-0.141,0.991,0.319,-0.122,0.305,0.244,83.828
124206,156619,10999,-0.143,0.99,0.322,-0.122,0.305,0.244,83.834
124228,156602,11330,-0.143,0.988,0.322,-0.488,0.366,0.244,83.837
124228,156609,11010,-0.143,0.984,0.323,-0.488,0.366,0.244,83.844
124242,156602,11330,-0.142,0.982,0.326,-0.732,0.366,0.244,83.847
124242,156642,11001,-0.14,0.984,0.319,-0.732,0.366,0.244,83.854
124265,156602,11330,-0.139,0.985,0.322,-0.61,0.427,0.061,83.857
124265,156671,11013,-0.14,0.985,0.323,-0.61,0.427,0.061,83.863
124266,156602,11330,-0.145,0.984,0.324,-0.427,0.305,0.183,83.867
124266,156656,11017,-0.143,0.985,0.324,-0.427,0.305,0.183,83.873
124248,156858,11330,-0.142,0.982,0.327,-0.61,0.305,0.244,83.877
124248,156674,11012,-0.143,0.981,0.325,-0.61,0.305,0.244,83.883
124263,156602,11330,-0.147,0.992,0.328,-0.854,0.366,0.427,83.887
124263,156657,11026,-0.147,0.996,0.324,-0.854,0.366,0.427,83.893
124280,156858,11330,-0.143,0.988,0.319,-0.793,0.549,0.427,83.897
124280,156673,11014,-0.142,0.985,0.32,-0.793,0.549,0.427,83.903
124268,156858,11330,-0.142,0.992,0.32,-0.61,0.488,0.183,83.907
124268,156694,11013,-0.141,0.997,0.325,-0.61,0.488,0.183,83.913
124287,156858,11330,-0.142,0.992,0.324,-1.037,0.366,0.366,83.917
124287,156672,11015,-0.141,0.986,0.324,-1.037,0.366,0.366,83.923
124278,156858,11330,-0.142,0.981,0.316,-1.341,0.671,0.244,83.927
124278,156690,11017,-0.142,0.981,0.315,-1.341,0.671,0.244,83.933
124300,156858,11330,-0.14,0.98,0.324,-1.585,0.488,0.488,83.936
124300,156686,11016,-0.142,0.981,0.325,-1.585,0.488,0.488,83.943
124275,156858,11330,-0.143,0.988,0.317,-1.098,0.244,0.61,83.946
124275,156703,11018,-0.141,0.985,0.324,-1.098,0.244,0.61,83.953
124288,156858,11330,-0.142,0.987,0.326,0.183,0.488,0.366,83.956
124288,156679,11020,-0.143,0.987,0.323,0.183,0.488,0.366,83.962
124299,156858,11330,-0.143,0.986,0.328,1.22,0.732,0.305,83.966
124299,156680,11011,-0.142,0.987,0.335,1.22,0.732,0.305,83.972
124282,156858,11330,-0.146,0.989,0.336,1.524,0.549,0.427,83.976
124282,156676,11014,-0.144,0.994,0.331,1.524,0.549,0.427,83.982
124278,156858,11330,-0.146,0.994,0.322,0.427,0.488,0.305,83.986
124278,156680,11023,-0.147,0.991,0.321,0.427,0.488,0.305,83.992
124295,156858,11330,-0.144,0.99,0.32,-1.28,0.183,-0.061,83.996
124295,156693,11016,-0.14,0.984,0.323,-1.28,0.183,-0.061,84.002
124296,156858,11330,-0.138,0.982,0.328,-1.402,0,-0.122,84.006
124296,156700,11024,-0.144,0.977,0.327,-1.402,0,-0.122,84.012
124288,156858,11330,-0.142,0.981,0.322,-0.244,0.61,0.183,84.016
124288,156685,11028,-0.145,0.991,0.324,-0.244,0.61,0.183,84.022
124279,156858,11330,-0.143,0.996,0.331,0.488,1.037,0.488,84.026
124279,156686,11018,-0.142,0.995,0.333,0.488,1.037,0.488,84.032
124313,156858,11330,-0.143,0.989,0.332,0.732,0.915,0.671,84.035
124313,156685,11010,-0.145,0.983,0.325,0.732,0.915,0.671,84.042
124297,156858,11330,-0.144,0.981,0.319,0.061,0.854,0.732,84.045
124297,156695,11009,-0.145,0.984,0.318,0.061,0.854,0.732,84.052
124285,156858,11330,-0.145,0.984,0.318,0.061,0.854,0.732,84.055
124285,156707,11018,-0.142,0.99,0.314,-0.305,0.793,0.915,84.061
124285,156858,11330,-0.142,0.99,0.314,-0.305,0.793,0.915,84.065
124285,156690,11012,-0.141,0.983,0.313,-0.61,0.793,0.61,84.071
124317,156858,11330,-0.141,0.983,0.313,-0.61,0.793,0.61,84.075
124317,156702,11025,-0.144,0.984,0.316,-0.305,0.549,0.427,84.081
124287,156858,11330,-0.144,0.984,0.316,-0.305,0.549,0.427,84.085
124287,156726,11007,-0.143,0.984,0.318,-0.183,0.427,0.427,84.091
124279,156858,11330,-0.143,0.984,0.318,-0.183,0.427,0.427,84.095
124279,156708,11017,-0.142,0.987,0.325,0.244,0.366,0.366,84.101
124276,156602,11330,-0.142,0.987,0.325,0.244,0.366,0.366,84.105
124276,156671,11019,-0.141,0.99,0.327,0.488,0.305,0.366,84.111
124260,156858,11330,-0.141,0.99,0.327,0.488,0.305,0.366,84.115
124260,156692,11026,-0.142,0.993,0.328,0.915,0.305,0.122,84.121
124284,156858,11330,-0.142,0.993,0.328,0.915,0.305,0.122,84.125
124284,156686,11019,-0.144,0.993,0.329,0.305,0.244,0,84.131
124275,156858,11330,-0.144,0.993,0.329,0.305,0.244,0,84.134
124275,156684,11013,-0.141,0.988,0.33,-0.122,0.244,-0.244,84.141
124271,156858,11330,-0.141,0.988,0.33,-0.122,0.244,-0.244,84.144
124271,156677,11018,-0.143,0.99,0.329,-0.122,0.549,-0.305,84.151
124259,156858,11330,-0.143,0.99,0.329,-0.122,0.549,-0.305,84.154
124259,156673,11020,-0.145,0.983,0.323,-0.061,0.793,-0.244,84.16
124255,156602,11330,-0.145,0.983,0.323,-0.061,0.793,-0.244,84.164
124255,156657,11015,-0.142,0.981,0.325,-0.122,0.854,-0.183,84.17
124245,156858,11330,-0.142,0.981,0.325,-0.122,0.854,-0.183,84.174
124245,156683,11014,-0.14,0.987,0.324,0.122,1.159,0,84.18
124256,156602,11330,-0.14,0.987,0.324,0.122,1.159,0,84.184
124256,156652,11023,-0.142,0.988,0.322,0.183,1.28,0.122,84.19
124264,156602,11330,-0.142,0.988,0.322,0.183,1.28,0.122,84.194
124264,156654,11007,-0.141,0.992,0.319,-0.061,1.22,0.244,84.2
124267,156858,11330,-0.141,0.992,0.319,-0.061,1.22,0.244,84.204
124267,156677,11038,-0.138,0.991,0.318,-0.122,0.915,0.305,84.21
124259,156858,11330,-0.136,0.99,0.319,-0.122,0.915,0.305,84.214
124259,156675,11013,-0.14,0.994,0.321,0.244,0.732,0.244,84.22
124275,156858,11330,-0.136,0.992,0.328,0.244,0.732,0.244,84.224
124275,156702,11028,-0.14,0.989,0.331,0.244,0.61,0.427,84.23
124288,156858,11330,-0.145,0.989,0.325,0.244,0.61,0.427,84.233
124288,156708,11017,-0.147,0.985,0.317,0,0.366,0.488,84.24
124316,156858,11330,-0.148,0.985,0.315,0,0.366,0.488,84.243
124316,156703,11019,-0.142,0.986,0.324,-0.305,0,0.305,84.25
124306,156858,11330,-0.141,0.983,0.321,-0.305,0,0.305,84.253
124306,156700,11023,-0.146,0.982,0.318,-0.061,-0.061,0.305,84.259
124325,156858,11330,-0.149,0.984,0.317,-0.061,-0.061,0.305,84.263
124325,156744,11031,-0.151,0.985,0.317,-0.305,0.366,0.366,84.269
124346,156858,11330,-0.147,0.985,0.323,-0.305,0.366,0.366,84.273
124346,156729,11012,-0.144,0.986,0.323,-0.61,-0.061,0.366,84.279
124316,156858,11330,-0.143,0.986,0.323,-0.61,-0.061,0.366,84.283
124316,156719,11026,-0.148,0.989,0.322,-0.854,-0.061,0.244,84.289
124338,156858,11330,-0.15,0.992,0.317,-0.854,-0.061,0.244,84.293
124338,156706,11018,-0.147,0.986,0.317,-0.976,0.244,0.061,84.299
124302,156858,11330,-0.145,0.984,0.314,-0.976,0.244,0.061,84.303
124302,156713,11013,-0.142,0.985,0.319,-0.976,0.061,-0.122,84.309
124304,156858,11330,-0.141,0.984,0.325,-0.976,0.061,-0.122,84.313
124304,156686,11026,-0.144,0.987,0.328,-0.244,0.427,0.122,84.319
124287,156858,11330,-0.146,0.984,0.329,-0.244,0.427,0.122,84.323
124287,156691,11028,-0.147,0.985,0.327,0.854,0.976,0.366,84.329
124271,156858,11330,-0.144,0.992,0.328,0.854,0.976,0.366,84.332
124271,156690,11026,-0.144,0.994,0.334,1.159,0.976,0.427,84.339
124278,156602,11330,-0.142,0.997,0.333,1.159,0.976,0.427,84.342
124278,156657,11016,-0.145,0.998,0.331,0.549,0.732,0.366,84.348
124269,156602,11330,-0.147,0.996,0.331,0.549,0.732,0.366,84.352
124269,156664,11019,-0.145,0.989,0.326,-0.549,0.732,0.122,84.358
124252,156602,11330,-0.144,0.98,0.321,-0.549,0.732,0.122,84.362
124252,156659,11015,-0.139,0.978,0.32,-0.854,0.366,-0.183,84.368
124269,156602,11330,-0.138,0.975,0.326,-0.854,0.366,-0.183,84.372
124269,156654,11012,-0.14,0.974,0.32,-0.061,0.61,-0.122,84.378
124245,156602,11330,-0.145,0.975,0.322,-0.061,0.61,-0.122,84.382
124245,156655,11003,-0.146,0.98,0.325,1.098,1.28,0.488,84.388
124243,156602,11330,-0.144,0.986,0.323,1.098,1.28,0.488,84.392
124243,156632,11008,-0.142,0.992,0.324,1.524,1.402,0.61,84.398
124224,156602,11330,-0.142,0.991,0.325,1.524,1.402,0.61,84.402
124224,156625,11005,-0.144,0.993,0.326,0.976,0.976,0.427,84.408
124194,156602,11330,-0.146,0.991,0.326,0.976,0.976,0.427,84.412
124194,156620,11007,-0.146,0.987,0.328,-0.305,0.61,0.488,84.418
124200,156602,11330,-0.144,0.987,0.322,-0.305,0.61,0.488,84.422
124200,156607,11009,-0.145,0.982,0.317,-1.402,0.61,0.427,84.428
124193,156602,11330,-0.142,0.982,0.318,-1.402,0.61,0.427,84.431
124193,156596,11008,-0.142,0.989,0.317,-1.829,0.61,0.671,84.438
124205,156602,11330,-0.143,0.994,0.321,-1.829,0.61,0.671,84.441
124205,156615,11005,-0.142,0.993,0.325,-0.976,0.915,0.854,84.448
124217,156602,11330,-0.146,0.989,0.318,-0.976,0.915,0.854,84.451
124217,156630,10978,-0.146,0.992,0.313,0.366,1.037,0.488,84.457
124236,156602,11330,-0.142,1.002,0.314,0.366,1.037,0.488,84.461
124236,156621,11012,-0.148,1.001,0.323,0.122,0.732,0.671,84.467
124233,156602,11330,-0.146,0.992,0.326,0.122,0.732,0.671,84.471
124233,156643,11006,-0.147,0.985,0.319,0,0.854,0.488,84.477
124257,156602,11330,-0.145,0.984,0.318,0,0.854,0.488,84.481
124257,156646,11027,-0.143,0.982,0.316,-0.61,0.793,0.122,84.487
124256,156602,11330,-0.147,0.979,0.313,-0.61,0.793,0.122,84.491
124256,156668,11021,-0.142,0.986,0.33,0,0.427,0.305,84.497
124250,156602,11330,-0.141,0.995,0.33,0,0.427,0.305,84.501
124250,156665,11003,-0.147,0.993,0.32,0.732,0.976,0.305,84.507
124262,156602,11330,-0.149,0.989,0.309,0.732,0.976,0.305,84.511
124262,156667,11011,-0.143,0.99,0.314,0.366,0.976,0,84.517
124277,156858,11330,-0.139,0.993,0.326,0.366,0.976,0,84.521
124277,156682,11009,-0.143,0.997,0.327,-0.061,0.305,0.061,84.527
124282,156602,11330,-0.146,0.992,0.326,-0.061,0.305,0.061,84.53
124282,156661,11005,-0.147,0.985,0.317,0,0.854,-0.061,84.537
124277,156602,11330,-0.146,0.983,0.318,0,0.854,-0.061,84.54
124277,156662,11025,-0.143,0.985,0.323,-0.305,0.793,-0.061,84.547
124279,156858,11330,-0.143,0.99,0.32,-0.305,0.793,-0.061,84.55
124279,156678,11006,-0.143,0.99,0.321,0,0.61,-0.122,84.556
124257,156602,11330,-0.143,0.987,0.323,0,0.61,-0.122,84.56
124257,156666,11025,-0.144,0.984,0.313,0.122,0.671,-0.183,84.566
124253,156858,11330,-0.143,0.993,0.311,0.122,0.671,-0.183,84.57
124253,156675,11003,-0.146,0.995,0.318,-0.488,0.671,-0.183,84.576
124280,156602,11330,-0.143,0.993,0.326,-0.488,0.671,-0.183,84.58
124280,156668,11016,-0.14,0.989,0.329,-0.183,0.244,-0.244,84.586
124267,156602,11330,-0.145,0.985,0.324,-0.183,0.244,-0.244,84.59
124267,156659,11007,-0.146,0.984,0.328,0.366,0.488,0.061,84.596
124256,156602,11330,-0.145,0.988,0.323,0.366,0.488,0.061,84.6
