124145,156450,11047,-0.15,0.984,0.328,0.122,0.671,0.305,316.288
124159,156602,11330,-0.149,0.99,0.33,0.122,0.671,0.305,316.292
124159,156449,11030,-0.147,0.989,0.331,0.061,0.488,0.305,316.298
124133,156602,11330,-0.149,0.985,0.331,0.061,0.488,0.305,316.301
124133,156445,11050,-0.149,0.983,0.333,-0.305,0.244,0.244,316.308
124145,156602,11330,-0.151,0.982,0.333,-0.305,0.244,0.244,316.311
124145,156421,11044,-0.152,0.98,0.329,-0.793,-0.061,0.183,316.318
124148,156602,11330,-0.15,0.976,0.327,-0.793,-0.061,0.183,316.321
124148,156428,11035,-0.147,0.981,0.33,-0.732,-0.244,0.244,316.327
124130,156602,11330,-0.144,0.986,0.331,-0.732,-0.244,0.244,316.331
124130,156418,11050,-0.145,0.981,0.341,-0.366,-0.122,0.366,316.337
124159,156602,11330,-0.146,0.977,0.339,-0.366,-0.122,0.366,316.341
124159,156429,11052,-0.146,0.98,0.337,-0.183,0.183,0.366,316.347
124147,156602,11330,-0.148,0.985,0.338,-0.183,0.183,0.366,316.351
124147,156434,11049,-0.147,0.989,0.333,-0.305,-0.061,0.244,316.357
124140,156602,11330,-0.147,0.987,0.331,-0.305,-0.061,0.244,316.361
124140,156433,11046,-0.145,0.989,0.335,0.122,-0.244,-0.061,316.367
124132,156602,11330,-0.146,0.988,0.338,0.122,-0.244,-0.061,316.371
124132,156442,11046,-0.147,0.99,0.336,0.549,-0.122,-0.244,316.377
124128,156602,11330,-0.15,0.988,0.338,0.549,-0.122,-0.244,316.381
124128,156437,11052,-0.152,0.989,0.338,0.488,0.183,-0.244,316.387
124131,156602,11330,-0.15,0.987,0.337,0.488,0.183,-0.244,316.391
124131,156431,11044,-0.149,0.987,0.339,0,0,-0.244,316.397
124124,156346,11330,-0.144,0.988,0.34,0,0,-0.244,316.4
124124,156411,11037,-0.141,0.989,0.337,-0.427,-0.305,-0.305,316.407
124116,156346,11330,-0.14,0.988,0.335,-0.427,-0.305,-0.305,316.41
124116,156413,11041,-0.139,0.987,0.333,-1.402,-0.488,-0.427,316.417
124127,156602,11330,-0.135,0.981,0.328,-1.402,-0.488,-0.427,316.42
124127,156420,11035,-0.132,0.979,0.332,-1.89,-0.793,-0.549,316.426
124099,156602,11330,-0.134,0.97,0.339,-1.89,-0.793,-0.549,316.43
124099,156427,11027,-0.133,0.965,0.344,-0.671,-0.61,-0.427,316.436
124112,156346,11330,-0.134,0.968,0.348,-0.671,-0.61,-0.427,316.44
124112,156400,11049,-0.139,0.975,0.344,1.22,0.366,-0.305,316.446
124116,156602,11330,-0.147,0.979,0.344,1.22,0.366,-0.305,316.45
124116,156422,11027,-0.149,0.982,0.35,2.439,1.037,-0.244,316.456
124121,156346,11330,-0.154,0.984,0.349,2.439,1.037,-0.244,316.46
124121,156415,11051,-0.158,0.986,0.348,2.073,0.976,-0.122,316.466
124122,156602,11330,-0.159,0.991,0.339,2.073,0.976,-0.122,316.47
124122,156421,11032,-0.157,0.99,0.337,0.427,0.61,-0.061,316.476
124125,156602,11330,-0.158,0.983,0.336,0.427,0.61,-0.061,316.48
124125,156434,11044,-0.159,0.981,0.329,-0.671,0.488,0.244,316.486
124132,156602,11330,-0.16,0.978,0.325,-0.671,0.488,0.244,316.49
124132,156438,11073,-0.16,0.974,0.322,-0.793,0.671,0.366,316.496
124130,156602,11330,-0.156,0.98,0.323,-0.793,0.671,0.366,316.499
124130,156426,11048,-0.153,0.985,0.326,-0.305,0.671,0.427,316.506
124145,156602,11330,-0.149,0.986,0.319,-0.305,0.671,0.427,316.509
124145,156416,11039,-0.148,0.986,0.313,0.183,0.732,0.61,316.516
124141,156346,11330,-0.146,0.988,0.314,0.183,0.732,0.61,316.519
124141,156401,11051,-0.143,0.993,0.32,0.122,0.366,0.366,316.525
124140,156602,11330,-0.14,0.993,0.332,0.122,0.366,0.366,316.529
124140,156422,11055,-0.139,0.985,0.337,0.183,-0.122,0.183,316.535
124116,156602,11330,-0.142,0.976,0.339,0.183,-0.122,0.183,316.539
124116,156428,11055,-0.142,0.971,0.335,0.366,-0.061,0.061,316.545
124127,156346,11330,-0.144,0.973,0.338,0.366,-0.061,0.061,316.549
124127,156410,11036,-0.141,0.976,0.336,0.732,-0.061,0,316.555
124095,156602,11330,-0.138,0.975,0.337,0.732,-0.061,0,316.559
124095,156427,11032,-0.139,0.976,0.343,1.585,-0.183,0.244,316.565
124113,156602,11330,-0.144,0.973,0.341,1.585,-0.183,0.244,316.569
124113,156418,11053,-0.147,0.975,0.34,1.402,0.061,0.61,316.575
124104,156346,11330,-0.153,0.978,0.339,1.402,0.061,0.61,316.579
124104,156401,11041,-0.151,0.975,0.338,1.037,0.488,0.976,316.585
124097,156346,11330,-0.152,0.974,0.336,1.037,0.488,0.976,316.589
124097,156407,11039,-0.154,0.978,0.341,1.341,0.671,1.463,316.595
124112,156346,11330,-0.158,0.981,0.342,1.341,0.671,1.463,316.598
124112,156400,11043,-0.16,0.987,0.332,1.646,1.159,2.073,316.605
124123,156602,11330,-0.159,0.994,0.327,1.646,1.159,2.073,316.608
124123,156418,11033,-0.157,0.999,0.326,1.463,1.646,2.195,316.615
124123,156346,11330,-0.156,1.003,0.322,1.463,1.646,2.195,316.618
124123,156393,11045,-0.155,1.008,0.322,1.22,1.707,1.829,316.624
124112,156602,11330,-0.154,1.002,0.33,1.22,1.707,1.829,316.628
124112,156423,11031,-0.152,0.993,0.33,0.549,1.402,1.402,316.634
124107,156346,11330,-0.148,0.992,0.325,0.549,1.402,1.402,316.638
124107,156415,11038,-0.146,0.994,0.325,0.183,1.098,0.732,316.644
124121,156346,11330,-0.139,0.998,0.328,0.183,1.098,0.732,316.648
124121,156407,11041,-0.136,0.995,0.332,0.732,0.732,0,316.654
124150,156602,11330,-0.135,0.996,0.334,0.732,0.732,0,316.658
124150,156416,11047,-0.135,0.994,0.336,1.646,0.488,-0.61,316.664
124109,156602,11330,-0.137,0.996,0.339,1.646,0.488,-0.61,316.668
124109,156435,11034,-0.134,0.996,0.34,1.707,0.427,-1.098,316.674
124114,156346,11330,-0.132,0.997,0.338,1.707,0.427,-1.098,316.678
124114,156411,11033,-0.132,0.99,0.333,1.098,0,-1.463,316.684
124107,156346,11330,-0.135,0.985,0.336,1.098,0,-1.463,316.688
124107,156382,11033,-0.139,0.984,0.334,0.549,-0.061,-1.341,316.694
124066,156346,11330,-0.139,0.984,0.334,0.549,-0.061,-1.341,316.697
124066,156375,11025,-0.149,0.976,0.329,0.366,0.183,-1.159,316.704
124057,156346,11330,-0.149,0.976,0.329,0.366,0.183,-1.159,316.707
124057,156348,11025,-0.155,0.971,0.327,0.244,0.366,-0.793,316.714
124041,156346,11330,-0.155,0.971,0.327,0.244,0.366,-0.793,316.717
124041,156340,11032,-0.162,0.982,0.323,0.061,0.549,-0.366,316.723
124054,156346,11330,-0.162,0.982,0.323,0.061,0.549,-0.366,316.727
124054,156350,11035,-0.159,0.994,0.315,-0.183,0.61,0.061,316.733
124049,156346,11330,-0.159,0.994,0.315,-0.183,0.61,0.061,316.737
124049,156347,11040,-0.158,0.994,0.32,-0.976,0.488,0.366,316.743
124062,156346,11330,-0.158,0.994,0.32,-0.976,0.488,0.366,316.747
124062,156359,11031,-0.156,0.992,0.326,-1.646,0.61,0.488,316.753
124059,156346,11330,-0.156,0.992,0.326,-1.646,0.61,0.488,316.757
124059,156362,11035,-0.15,0.984,0.33,-1.402,0.793,0.305,316.763
124088,156346,11330,-0.15,0.984,0.33,-1.402,0.793,0.305,316.767
124088,156390,11023,-0.142,0.993,0.337,-1.22,0.732,0.122,316.773
124088,156346,11330,-0.142,0.993,0.337,-1.22,0.732,0.122,316.777
124088,156394,11044,-0.138,0.98,0.339,-0.915,0.61,0.061,316.783
124110,156346,11330,-0.138,0.98,0.339,-0.915,0.61,0.061,316.787
124110,156381,11025,-0.144,0.982,0.342,-0.854,1.037,0,316.793
124107,156346,11330,-0.144,0.982,0.342,-0.854,1.037,0,316.796
124107,156415,11034,-0.15,0.973,0.333,-0.488,1.28,0,316.803
124105,156346,11330,-0.15,0.973,0.333,-0.488,1.28,0,316.806
124105,156392,11031,-0.155,0.975,0.332,0.854,1.646,0.488,316.812
124076,156346,11330,-0.155,0.975,0.332,0.854,1.646,0.488,316.816
124076,156387,11039,-0.158,0.979,0.335,1.22,2.134,0.61,316.822
124090,156346,11330,-0.158,0.979,0.335,1.22,2.134,0.61,316.826
124090,156379,11026,-0.161,0.976,0.329,0.244,2.134,0.854,316.832
124075,156346,11330,-0.161,0.976,0.329,0.244,2.134,0.854,316.836
124075,156368,11027,-0.158,0.975,0.325,0.244,2.134,0.854,316.842
124066,156346,11330,-0.157,0.977,0.318,-0.732,1.89,1.341,316.846
124066,156381,11025,-0.158,0.978,0.322,-0.732,1.89,1.341,316.852
124053,156346,11330,-0.153,0.974,0.319,-1.707,1.524,1.768,316.856
124053,156370,11033,-0.149,0.968,0.319,-1.707,1.524,1.768,316.862
124068,156346,11330,-0.148,0.966,0.323,-2.317,0.976,1.951,316.866
124068,156358,11019,-0.147,0.964,0.316,-2.317,0.976,1.951,316.872
124055,156346,11330,-0.147,0.965,0.319,-2.134,0.854,2.256,316.876
124055,156370,11024,-0.143,0.973,0.326,-2.134,0.854,2.256,316.882
124061,156346,11330,-0.137,0.98,0.328,-1.037,0.671,2.5,316.886
124061,156386,11040,-0.133,0.985,0.338,-1.037,0.671,2.5,316.892
124081,156346,11330,-0.133,0.989,0.343,0,0.976,2.561,316.895
124081,156381,11038,-0.137,0.993,0.343,0,0.976,2.561,316.902
124056,156346,11330,-0.136,0.996,0.347,-0.488,1.463,2.317,316.905
124056,156359,11037,-0.132,0.997,0.344,-0.488,1.463,2.317,316.911
124040,156346,11330,-0.136,0.996,0.34,-2.256,0.793,1.829,316.915
124040,156323,11030,-0.129,0.987,0.343,-2.256,0.793,1.829,316.921
124023,156346,11330,-0.123,0.989,0.334,-3.72,0.183,1.89,316.925
124023,156333,11037,-0.125,0.985,0.335,-3.72,0.183,1.89,316.931
124020,156346,11330,-0.126,0.979,0.342,-4.085,0.366,2.195,316.935
124020,156331,11025,-0.125,0.976,0.344,-4.085,0.366,2.195,316.941
124017,156346,11330,-0.128,0.98,0.337,-3.659,0.915,2.073,316.945
124017,156334,11041,-0.133,0.984,0.332,-3.659,0.915,2.073,316.951
124019,156346,11330,-0.142,0.988,0.33,-3.476,1.768,2.317,316.955
124019,156326,11018,-0.15,0.985,0.325,-3.476,1.768,2.317,316.961
124023,156346,11330,-0.154,0.977,0.323,-3.049,2.073,2.256,316.965
124023,156365,11035,-0.156,0.968,0.323,-3.049,2.073,2.256,316.971
124014,156346,11330,-0.153,0.963,0.326,-2.744,0.854,2.256,316.975
124014,156345,11030,-0.155,0.955,0.331,-2.744,0.854,2.256,316.981
124044,156346,11330,-0.16,0.954,0.324,-1.402,0.488,2.378,316.984
124044,156347,11024,-0.164,0.964,0.323,-1.402,0.488,2.378,316.991
124051,156346,11330,-0.167,0.972,0.329,0.915,1.341,2.5,316.994
124051,156365,11038,-0.168,0.983,0.327,0.915,1.341,2.5,317.001
124044,156346,11330,-0.168,0.996,0.334,2.561,1.28,2.378,317.004
124044,156365,11023,-0.163,1.007,0.333,2.561,1.28,2.378,317.01
124024,156346,11330,-0.165,1.013,0.334,1.098,0.183,1.646,317.014
124024,156338,11047,-0.162,1.005,0.334,1.098,0.183,1.646,317.02
124027,156346,11330,-0.156,1.002,0.335,-1.28,-0.854,1.159,317.024
124027,156332,11042,-0.153,0.999,0.329,-1.28,-0.854,1.159,317.03
124016,156346,11330,-0.147,0.998,0.331,-3.232,-1.585,0.976,317.034
124016,156312,11014,-0.139,0.994,0.328,-3.232,-1.585,0.976,317.04
123997,156346,11330,-0.134,0.985,0.323,-3.659,-2.012,0.793,317.044
123997,156303,11018,-0.134,0.981,0.321,-3.659,-2.012,0.793,317.05
123976,156346,11330,-0.13,0.983,0.315,-2.744,-2.012,0.549,317.054
123976,156308,11017,-0.127,0.987,0.318,-2.744,-2.012,0.549,317.06
123973,156346,11330,-0.127,0.988,0.324,-0.915,-1.585,0.427,317.064
123973,156297,11034,-0.132,0.993,0.322,-0.915,-1.585,0.427,317.07
123971,156346,11330,-0.135,1.001,0.323,0.732,-1.28,0.305,317.074
123971,156286,11013,-0.128,1.001,0.331,0.732,-1.28,0.305,317.08
123985,156346,11330,-0.128,1.004,0.331,0.549,-1.829,-0.122,317.083
123985,156295,11028,-0.13,1.007,0.337,0.549,-1.829,-0.122,317.09
123960,156346,11330,-0.129,1.004,0.345,-0.244,-1.829,-0.183,317.093
123960,156300,11021,-0.131,1.001,0.352,-0.244,-1.829,-0.183,317.1
123971,156346,11330,-0.132,0.997,0.351,-1.402,-1.159,-0.061,317.103
123971,156303,11026,-0.134,0.992,0.354,-1.402,-1.159,-0.061,317.109
124027,156346,11330,-0.134,0.988,0.355,-2.439,-0.854,-0.244,317.113
124027,156325,11016,-0.137,0.99,0.352,-2.439,-0.854,-0.244,317.119
124004,156346,11330,-0.135,0.987,0.35,-3.476,-0.549,-0.671,317.123
124004,156297,11038,-0.137,0.979,0.345,-3.476,-0.549,-0.671,317.129
123999,156346,11330,-0.137,0.976,0.348,-3.841,-0.61,-0.61,317.133
123999,156290,11019,-0.136,0.972,0.348,-3.841,-0.61,-0.61,317.139
123990,156346,11330,-0.138,0.968,0.345,-3.72,-0.549,-0.488,317.143
123990,156283,11025,-0.14,0.959,0.345,-3.72,-0.549,-0.488,317.149
123984,156346,11330,-0.141,0.96,0.343,-2.439,-0.183,-0.488,317.153
123984,156305,11012,-0.143,0.964,0.341,-2.439,-0.183,-0.488,317.159
123995,156346,11330,-0.144,0.967,0.339,-0.427,0.305,-0.244,317.163
123995,156298,11033,-0.148,0.973,0.341,-0.427,0.305,-0.244,317.169
123996,156346,11330,-0.149,0.978,0.335,1.22,0.671,0,317.173
123996,156288,11021,-0.155,0.979,0.341,1.22,0.671,0,317.179
123990,156346,11330,-0.159,0.977,0.343,1.585,0.61,0.244,317.182
123990,156310,11017,-0.159,0.976,0.34,1.585,0.61,0.244,317.189
123976,156346,11330,-0.16,0.98,0.341,1.402,0.61,0.427,317.192
123976,156289,11017,-0.161,0.982,0.339,1.402,0.61,0.427,317.199
123996,156346,11330,-0.162,0.987,0.337,0.671,0.793,0.793,317.202
123996,156328,11016,-0.162,0.983,0.338,0.671,0.793,0.793,317.208
123957,156346,11330,-0.161,0.982,0.337,0,0.671,0.915,317.212
123957,156294,11007,-0.157,0.981,0.335,0,0.671,0.915,317.218
123979,156346,11330,-0.155,0.983,0.334,-0.549,0.427,0.854,317.222
123979,156326,11035,-0.152,0.983,0.333,-0.549,0.427,0.854,317.228
123993,156346,11330,-0.15,0.986,0.332,-1.159,0.122,0.61,317.232
123993,156308,11028,-0.146,0.984,0.334,-1.159,0.122,0.61,317.238
124008,156346,11330,-0.136,0.982,0.337,-1.159,-0.305,0.61,317.242
124008,156311,11029,-0.134,0.983,0.34,-1.159,-0.305,0.61,317.248
124006,156346,11330,-0.136,0.984,0.339,-0.732,-0.366,0.366,317.252
124006,156302,11025,-0.131,0.987,0.341,-0.732,-0.366,0.366,317.258
123997,156346,11330,-0.131,0.99,0.337,-1.098,-0.183,0,317.262
123997,156324,11017,-0.13,0.991,0.342,-1.098,-0.183,0,317.268
124017,156346,11330,-0.127,0.984,0.344,-1.646,-0.488,-0.061,317.272
124017,156326,11022,-0.127,0.982,0.337,-1.646,-0.488,-0.061,317.278
124042,156346,11330,-0.127,0.982,0.337,-1.646,-0.488,-0.061,317.281
124042,156354,11026,-0.127,0.979,0.337,-1.829,-0.793,-0.183,317.288
124054,156346,11330,-0.127,0.979,0.337,-1.829,-0.793,-0.183,317.291
124054,156369,11021,-0.132,0.98,0.338,-1.524,-0.793,-0.305,317.298
124033,156346,11330,-0.132,0.98,0.338,-1.524,-0.793,-0.305,317.301
124033,156330,11002,-0.136,0.989,0.346,-0.732,-0.427,-0.183,317.307
124008,156346,11330,-0.136,0.989,0.346,-0.732,-0.427,-0.183,317.311
124008,156316,11028,-0.141,0.986,0.352,0.305,0.183,0,317.317
123993,156346,11330,-0.141,0.986,0.352,0.305,0.183,0,317.321
123993,156299,11016,-0.14,1,0.377,2.744,0.61,-0.488,317.327
123986,156346,11330,-0.14,1,0.377,2.744,0.61,-0.488,317.331
123986,156322,11012,-0.148,1.024,0.368,6.159,1.829,-1.037,317.337
123991,156346,11330,-0.148,1.024,0.368,6.159,1.829,-1.037,317.341
123991,156329,11001,-0.165,1.013,0.357,5.61,3.78,-1.524,317.347
124002,156346,11330,-0.165,1.013,0.357,5.61,3.78,-1.524,317.351
124002,156324,11029,-0.152,0.971,0.35,1.829,3.537,-1.951,317.357
123993,156346,11330,-0.152,0.971,0.35,1.829,3.537,-1.951,317.361
123993,156301,11035,-0.142,0.957,0.338,0.061,1.829,-1.707,317.367
123979,156346,11330,-0.142,0.957,0.338,0.061,1.829,-1.707,317.371
123979,156298,11027,-0.147,0.955,0.326,0.671,2.683,-1.402,317.377
123974,156346,11330,-0.147,0.955,0.326,0.671,2.683,-1.402,317.38
123974,156287,11021,-0.151,0.959,0.321,2.439,4.146,-1.402,317.387
123956,156346,11330,-0.151,0.959,0.321,2.439,4.146,-1.402,317.39
123956,156290,11016,-0.149,0.961,0.321,3.476,3.659,-0.793,317.397
123988,156346,11330,-0.149,0.961,0.321,3.476,3.659,-0.793,317.4
123988,156288,11015,-0.147,0.962,0.313,2.561,2.5,0,317.406
123989,156346,11330,-0.147,0.962,0.313,2.561,2.5,0,317.41
123989,156288,11022,-0.148,0.963,0.31,1.463,1.951,0.549,317.416
123985,156346,11330,-0.148,0.963,0.31,1.463,1.951,0.549,317.42
123985,156298,11022,-0.144,0.966,0.317,0.976,1.28,0.915,317.426
123965,156346,11330,-0.142,0.971,0.315,0.976,1.28,0.915,317.43
123965,156303,11016,-0.145,0.98,0.326,1.402,0.854,1.341,317.436
123960,156346,11330,-0.147,0.986,0.326,1.402,0.854,1.341,317.44
123960,156290,11039,-0.148,0.991,0.321,0.854,0.671,1.585,317.446
123958,156346,11330,-0.149,0.993,0.324,0.854,0.671,1.585,317.45
123958,156316,11039,-0.149,0.998,0.323,-0.061,-0.122,1.524,317.456
123967,156346,11330,-0.152,1.004,0.326,-0.061,-0.122,1.524,317.46
123967,156297,11010,-0.146,1.001,0.323,-0.549,-0.549,1.341,317.466
123985,156346,11330,-0.148,0.997,0.314,-0.549,-0.549,1.341,317.47
123985,156296,11029,-0.152,1.002,0.309,-0.671,-0.671,1.159,317.476
124001,156346,11330,-0.151,1.005,0.312,-0.671,-0.671,1.159,317.479
124001,156332,11030,-0.149,1.01,0.312,-0.732,-0.854,0.671,317.486
124036,156346,11330,-0.148,1.007,0.309,-0.732,-0.854,0.671,317.489
124036,156336,11020,-0.147,1,0.309,-0.671,-1.341,0.305,317.496
124025,156346,11330,-0.147,1,0.31,-0.671,-1.341,0.305,317.499
124025,156361,11009,-0.149,1.004,0.319,-0.671,-1.28,0.061,317.505
124048,156346,11330,-0.149,1.006,0.326,-0.671,-1.28,0.061,317.509
124048,156363,11028,-0.145,0.994,0.337,-1.159,-1.037,-0.244,317.515
124051,156346,11330,-0.146,0.98,0.339,-1.159,-1.037,-0.244,317.519
124051,156381,11040,-0.146,0.975,0.346,-1.341,-1.159,-0.305,317.525
124068,156346,11330,-0.141,0.975,0.35,-1.341,-1.159,-0.305,317.529
124068,156376,11042,-0.141,0.974,0.352,-1.463,-0.854,-0.061,317.535
124067,156346,11330,-0.143,0.973,0.353,-1.463,-0.854,-0.061,317.539
124067,156397,11037,-0.142,0.97,0.347,-0.427,-0.366,0.061,317.545
124075,156346,11330,-0.141,0.969,0.345,-0.427,-0.366,0.061,317.549
124075,156399,11036,-0.143,0.972,0.345,0.244,0.061,-0.061,317.555
124065,156346,11330,-0.146,0.974,0.346,0.244,0.061,-0.061,317.559
124065,156389,11049,-0.144,0.972,0.346,0.122,0.122,0.183,317.565
124068,156346,11330,-0.143,0.969,0.345,0.122,0.122,0.183,317.569
124068,156363,11033,-0.144,0.97,0.346,0.061,0.183,0.549,317.575
124062,156346,11330,-0.145,0.973,0.342,0.061,0.183,0.549,317.578
124062,156346,11023,-0.143,0.977,0.342,0.061,0.488,0.732,317.585
124030,156346,11330,-0.144,0.979,0.34,0.061,0.488,0.732,317.588
124030,156353,11034,-0.143,0.979,0.343,0.183,0.488,0.793,317.595
124042,156346,11330,-0.142,0.976,0.339,0.183,0.488,0.793,317.598
124042,156343,11036,-0.146,0.974,0.334,0.244,0.488,1.098,317.604
124035,156346,11330,-0.149,0.972,0.335,0.244,0.488,1.098,317.608
124035,156342,11028,-0.15,0.976,0.332,0.244,0.793,1.463,317.614
124057,156346,11330,-0.146,0.983,0.333,0.244,0.793,1.463,317.618
124057,156338,11026,-0.142,0.98,0.337,0.427,0.854,1.524,317.624
124055,156346,11330,-0.147,0.979,0.336,0.427,0.854,1.524,317.628
124055,156352,11042,-0.148,0.979,0.341,0.793,1.159,1.829,317.634
124052,156346,11330,-0.15,0.981,0.342,0.793,1.159,1.829,317.638
124052,156360,11037,-0.152,0.981,0.34,0.488,1.463,2.195,317.644
124066,156346,11330,-0.149,0.982,0.335,0.488,1.463,2.195,317.648
124066,156381,11041,-0.148,0.985,0.336,0.122,1.28,2.073,317.654
124103,156346,11330,-0.147,0.99,0.332,0.122,1.28,2.073,317.658
124103,156401,11031,-0.144,0.989,0.33,-0.122,1.037,2.073,317.664
124110,156602,11330,-0.144,0.99,0.328,-0.122,1.037,2.073,317.668
124110,156424,11042,-0.145,0.99,0.326,-0.488,1.037,2.012,317.674
124122,156602,11330,-0.144,0.99,0.329,-0.488,1.037,2.012,317.677
124122,156425,11053,-0.143,0.988,0.329,-0.793,0.976,1.768,317.684
124149,156602,11330,-0.142,0.988,0.328,-0.793,0.976,1.768,317.687
124149,156436,11060,-0.14,0.99,0.328,-0.671,0.61,1.585,317.693
124132,156602,11330,-0.139,0.994,0.332,-0.671,0.61,1.585,317.697
124132,156423,11045,-0.137,0.991,0.325,-0.244,0.488,1.28,317.703
124127,156602,11330,-0.139,0.994,0.323,-0.244,0.488,1.28,317.707
124127,156422,11022,-0.14,0.996,0.324,-0.366,0.366,0.793,317.713
124101,156346,11330,-0.138,0.997,0.325,-0.366,0.366,0.793,317.717
124101,156413,11049,-0.139,0.993,0.328,-0.976,-0.061,0.549,317.723
124113,156346,11330,-0.139,0.987,0.332,-0.976,-0.061,0.549,317.727
124113,156406,11037,-0.139,0.979,0.332,-1.098,-0.244,0.61,317.733
124105,156346,11330,-0.142,0.975,0.333,-1.098,-0.244,0.61,317.737
124105,156401,11048,-0.146,0.975,0.336,-0.549,-0.061,0.61,317.743
124119,156602,11330,-0.147,0.976,0.341,-0.549,-0.061,0.61,317.747
124119,156420,11033,-0.147,0.975,0.339,0.366,0.122,0.549,317.753
124090,156346,11330,-0.146,0.978,0.343,0.366,0.122,0.549,317.757
124090,156403,11058,-0.144,0.986,0.341,1.037,0.366,0.732,317.763
124096,156346,11330,-0.148,0.991,0.345,1.037,0.366,0.732,317.767
124096,156397,11044,-0.148,0.997,0.344,1.037,0.854,0.915,317.773
124098,156602,11330,-0.148,0.997,0.337,1.037,0.854,0.915,317.776
124098,156416,11025,-0.147,0.997,0.333,0.183,0.854,0.793,317.783
124064,156346,11330,-0.148,0.996,0.329,0.183,0.854,0.793,317.786
124064,156408,11036,-0.147,0.996,0.331,-1.037,0.366,0.671,317.793
124075,156346,11330,-0.142,0.992,0.33,-1.037,0.366,0.671,317.796
124075,156398,11021,-0.143,0.999,0.333,-1.524,0.244,0.427,317.802
124053,156346,11330,-0.14,0.993,0.338,-1.524,0.244,0.427,317.806
124053,156381,11018,-0.143,0.989,0.338,-1.037,0.976,0.244,317.812
124035,156346,11330,-0.143,0.987,0.339,-1.037,0.976,0.244,317.816
124035,156371,11030,-0.145,0.989,0.34,-0.793,1.402,0,317.822
124018,156346,11330,-0.146,0.995,0.342,-0.793,1.402,0,317.826
124018,156349,11045,-0.142,0.991,0.339,-0.854,0.671,-0.244,317.832
124023,156346,11330,-0.14,0.988,0.336,-0.854,0.671,-0.244,317.836
124023,156365,11029,-0.144,0.986,0.328,-0.671,0.244,-0.366,317.842
124034,156346,11330,-0.144,0.987,0.323,-0.671,0.244,-0.366,317.846
124034,156348,11030,-0.145,0.989,0.33,-0.488,0.427,-0.61,317.852
124012,156346,11330,-0.143,0.991,0.338,-0.488,0.427,-0.61,317.856
124012,156351,11029,-0.144,0.988,0.338,-0.244,0.488,-0.915,317.862
124021,156346,11330,-0.144,0.988,0.338,-0.244,0.488,-0.915,317.866
124021,156333,11017,-0.146,0.979,0.334,-0.244,0.488,-0.732,317.872
123983,156346,11330,-0.146,0.979,0.334,-0.244,0.488,-0.732,317.875
123983,156312,11023,-0.144,0.983,0.335,-0.61,0.671,-0.793,317.882
123948,156346,11330,-0.144,0.983,0.335,-0.61,0.671,-0.793,317.885
123948,156301,11022,-0.143,0.976,0.327,-0.671,0.427,-0.915,317.891
123958,156346,11330,-0.143,0.976,0.327,-0.671,0.427,-0.915,317.895
123958,156291,11025,-0.143,0.978,0.323,-0.915,0.061,-0.915,317.901
123945,156346,11330,-0.143,0.978,0.323,-0.915,0.061,-0.915,317.905
123945,156283,11012,-0.145,0.975,0.326,-0.61,0.122,-0.61,317.911
123918,156346,11330,-0.145,0.975,0.326,-0.61,0.122,-0.61,317.915
123918,156284,11023,-0.146,0.976,0.323,0.732,0.427,-0.305,317.921
123922,156346,11330,-0.146,0.976,0.323,0.732,0.427,-0.305,317.925
123922,156248,11031,-0.145,0.98,0.341,1.402,0.244,-0.244,317.931
123903,156346,11330,-0.145,0.98,0.341,1.402,0.244,-0.244,317.935
123903,156256,11028,-0.146,0.976,0.342,2.134,0.427,-0.061,317.941
123909,156346,11330,-0.146,0.976,0.342,2.134,0.427,-0.061,317.945
123909,156269,11017,-0.147,0.987,0.346,2.195,1.098,0.061,317.951
123904,156346,11330,-0.147,0.987,0.346,2.195,1.098,0.061,317.955
123904,156250,11022,-0.142,0.989,0.339,2.256,0.976,-0.061,317.961
123914,156346,11330,-0.142,0.989,0.339,2.256,0.976,-0.061,317.965
123914,156241,11017,-0.146,0.994,0.342,1.829,0.854,-0.122,317.971
123910,156346,11330,-0.146,0.994,0.342,1.829,0.854,-0.122,317.974
123910,156251,11026,-0.145,0.991,0.329,1.22,1.037,-0.427,317.981
123886,156346,11330,-0.145,0.991,0.329,1.22,1.037,-0.427,317.984
123886,156256,11009,-0.145,0.989,0.325,0.183,0.61,-0.427,317.99
123869,156346,11330,-0.145,0.989,0.325,0.183,0.61,-0.427,317.994
123869,156236,11014,-0.142,0.982,0.319,-0.427,0.305,-0.549,318
123837,156346,11330,-0.142,0.982,0.319,-0.427,0.305,-0.549,318.004
123837,156184,10997,-0.141,0.975,0.317,-0.427,0.305,-0.549,318.01
123825,156346,11330,-0.146,0.974,0.316,0.061,0.427,-0.61,318.014
123825,156163,11023,-0.145,0.978,0.321,0.061,0.427,-0.61,318.02
123779,156090,11330,-0.144,0.981,0.323,0.305,0.488,-0.305,318.024
123779,156147,11000,-0.146,0.979,0.325,0.305,0.488,-0.305,318.03
123743,156090,11330,-0.147,0.978,0.333,0.488,0.61,0.061,318.034
123743,156119,10978,-0.148,0.975,0.332,0.488,0.61,0.061,318.04
123733,156090,11330,-0.144,0.973,0.334,-0.061,0.427,0.427,318.044
123733,156128,10996,-0.144,0.975,0.336,-0.061,0.427,0.427,318.05
123748,156090,11330,-0.147,0.976,0.341,-0.305,0.244,0.671,318.054
123748,156131,10991,-0.144,0.977,0.341,-0.305,0.244,0.671,318.06
123773,156090,11330,-0.144,0.978,0.343,0.122,0.305,0.793,318.064
123773,156149,10987,-0.146,0.98,0.343,0.122,0.305,0.793,318.07
123777,156090,11330,-0.146,0.985,0.336,0.427,0.915,0.976,318.073
123777,156141,11000,-0.145,0.99,0.339,0.427,0.915,0.976,318.08
123761,156346,11330,-0.146,0.996,0.336,0.427,0.915,0.976,318.083
123761,156171,10995,-0.144,0.999,0.333,0.427,0.915,0.976,318.089
123795,156090,11330,-0.144,0.999,0.329,-0.305,0.671,0.732,318.093
123795,156156,11002,-0.145,0.994,0.325,-0.305,0.671,0.732,318.099
123788,156090,11330,-0.146,0.99,0.327,-0.671,0.427,0.549,318.103
123788,156122,10992,-0.146,0.99,0.325,-0.671,0.427,0.549,318.109
123757,156090,11330,-0.146,0.993,0.323,-0.122,0.671,0.183,318.113
123757,156130,10981,-0.149,0.992,0.322,-0.122,0.671,0.183,318.119
123738,156090,11330,-0.148,0.992,0.319,0.427,0.732,-0.244,318.123
123738,156097,10985,-0.146,0.995,0.32,0.427,0.732,-0.244,318.129
123724,156090,11330,-0.148,0.991,0.318,0.427,0.427,-0.366,318.133
123724,156097,10985,-0.15,0.985,0.318,0.427,0.427,-0.366,318.139
123702,156090,11330,-0.15,0.981,0.322,-0.122,0.305,-0.305,318.143
123702,156084,10978,-0.146,0.979,0.323,-0.122,0.305,-0.305,318.149
123688,156090,11330,-0.147,0.978,0.33,-0.549,0.305,-0.122,318.153
123688,156050,10970,-0.148,0.972,0.335,-0.549,0.305,-0.122,318.159
123651,156090,11330,-0.146,0.972,0.329,0.061,0.366,0.061,318.163
123651,156036,10979,-0.146,0.979,0.333,0.061,0.366,0.061,318.169
123649,156090,11330,-0.145,0.981,0.341,0.427,0.366,0.061,318.172
123649,156017,10978,-0.147,0.978,0.341,0.427,0.366,0.061,318.179
123595,156090,11330,-0.148,0.983,0.337,0.488,0.366,0.183,318.182
123595,155997,10962,-0.147,0.981,0.336,0.488,0.366,0.183,318.188
123552,156090,11330,-0.144,0.985,0.335,0,0.366,0.305,318.192
123552,155942,10957,-0.148,0.985,0.33,0,0.366,0.305,318.198
123526,156090,11330,-0.149,0.98,0.329,-0.854,0.427,0.366,318.202
123526,155918,10954,-0.15,0.976,0.331,-0.854,0.427,0.366,318.208
123508,156090,11330,-0.149,0.975,0.337,-1.28,0.488,0.793,318.212
123508,155908,10956,-0.149,0.977,0.335,-1.28,0.488,0.793,318.218
123499,155834,11330,-0.147,0.978,0.328,-0.915,0.671,1.098,318.222
123499,155894,10954,-0.147,0.984,0.33,-0.915,0.671,1.098,318.228
123494,156090,11330,-0.145,0.996,0.329,-0.488,0.854,1.098,318.232
123494,155905,10948,-0.144,0.998,0.325,-0.488,0.854,1.098,318.238
123508,156090,11330,-0.148,0.992,0.324,-0.61,0.671,0.915,318.242
123508,155914,10947,-0.146,0.992,0.318,-0.61,0.671,0.915,318.248
123507,155834,11330,-0.144,0.989,0.323,-1.098,0.122,0.793,318.252
123507,155890,10971,-0.143,0.986,0.326,-1.098,0.122,0.793,318.258
123532,156090,11330,-0.142,0.985,0.324,-0.793,-0.183,0.488,318.262
123532,155914,10946,-0.141,0.99,0.331,-0.793,-0.183,0.488,318.268
123526,156090,11330,-0.145,0.99,0.335,0.793,0.244,0.122,318.271
123526,155908,10973,-0.143,0.991,0.329,0.793,0.244,0.122,318.278
123513,156090,11330,-0.144,0.994,0.33,1.829,0.427,-0.244,318.281
123513,155918,10956,-0.148,0.994,0.335,1.829,0.427,-0.244,318.288
123499,155834,11330,-0.148,0.994,0.336,1.585,0.488,-0.305,318.291
123499,155892,10956,-0.148,0.988,0.333,1.585,0.488,-0.305,318.297
123476,155834,11330,-0.148,0.985,0.335,0.244,0.366,-0.305,318.301
123476,155873,10966,-0.147,0.984,0.329,0.244,0.366,-0.305,318.307
123431,155834,11330,-0.143,0.983,0.33,-0.61,0.122,-0.061,318.311
123431,155838,10952,-0.144,0.981,0.332,-0.61,0.122,-0.061,318.317
123415,155834,11330,-0.142,0.979,0.33,-0.61,0.122,0.122,318.321
123415,155832,10966,-0.144,0.981,0.327,-0.61,0.122,0.122,318.327
123369,155834,11330,-0.147,0.985,0.328,-0.61,0.427,0.122,318.331
123369,155816,10931,-0.146,0.982,0.331,-0.61,0.427,0.122,318.337
123338,155834,11330,-0.144,0.979,0.327,-0.732,0.244,0.183,318.341
123338,155799,10943,-0.146,0.982,0.33,-0.732,0.244,0.183,318.347
123378,155834,11330,-0.144,0.981,0.331,-0.793,-0.122,0.244,318.351
123378,155801,10938,-0.145,0.978,0.331,-0.793,-0.122,0.244,318.357
123385,155834,11330,-0.148,0.981,0.329,-0.488,0.061,0.244,318.361
123385,155819,10940,-0.15,0.981,0.322,-0.488,0.061,0.244,318.367
123385,155834,11330,-0.151,0.982,0.328,-0.549,0,0.244,318.37
123385,155825,10936,-0.15,0.981,0.329,-0.549,0,0.244,318.377
123388,155834,11330,-0.149,0.979,0.331,-0.183,-0.305,0.244,318.38
123388,155841,10947,-0.148,0.979,0.331,-0.183,-0.305,0.244,318.386
123404,155834,11330,-0.148,0.98,0.333,0.305,-0.305,0.427,318.39
123404,155824,10951,-0.149,0.98,0.332,0.305,-0.305,0.427,318.396
123425,155834,11330,-0.147,0.983,0.33,0.549,-0.061,0.366,318.4
123425,155842,10945,-0.148,0.992,0.332,0.549,-0.061,0.366,318.406
123427,155834,11330,-0.143,0.996,0.33,0.488,0.061,0.305,318.41
123427,155857,10941,-0.142,0.994,0.336,0.488,0.061,0.305,318.416
123419,155834,11330,-0.143,0.99,0.343,0.366,0.244,0.366,318.42
123419,155874,10941,-0.142,0.991,0.346,0.366,0.244,0.366,318.426
123417,155834,11330,-0.146,0.989,0.341,-0.183,0.366,0.366,318.43
123417,155848,10939,-0.147,0.986,0.339,-0.183,0.366,0.366,318.436
123408,155834,11330,-0.146,0.98,0.336,-0.61,0.671,0.244,318.44
123408,155858,10943,-0.147,0.982,0.333,-0.61,0.671,0.244,318.446
123395,155834,11330,-0.147,0.982,0.333,-0.61,0.671,0.244,318.45
123395,155844,10946,-0.146,0.982,0.328,-0.427,0.732,0.244,318.456
123404,155834,11330,-0.146,0.982,0.328,-0.427,0.732,0.244,318.46
123404,155861,10948,-0.147,0.981,0.322,-0.976,0.61,0.366,318.466
123408,155834,11330,-0.147,0.981,0.322,-0.976,0.61,0.366,318.469
123408,155843,10961,-0.147,0.97,0.317,-1.646,0.366,0.549,318.476
123417,155834,11330,-0.147,0.97,0.317,-1.646,0.366,0.549,318.479
123417,155864,10939,-0.147,0.976,0.318,-1.646,0.244,0.793,318.486
123437,155834,11330,-0.147,0.976,0.318,-1.646,0.244,0.793,318.489
123437,155883,10950,-0.15,0.988,0.323,-0.61,0.305,0.854,318.495
123443,155834,11330,-0.15,0.988,0.323,-0.61,0.305,0.854,318.499
123443,155874,10962,-0.146,0.993,0.329,0.366,0.183,0.671,318.505
123460,155834,11330,-0.146,0.993,0.329,0.366,0.183,0.671,318.509
123460,155887,10945,-0.144,0.998,0.342,0.183,0.061,0.427,318.515
123476,155834,11330,-0.144,0.998,0.342,0.183,0.061,0.427,318.519
123476,155883,10959,-0.147,0.992,0.346,-0.122,0.244,0.366,318.525
123468,155834,11330,-0.147,0.992,0.346,-0.122,0.244,0.366,318.529
123468,155887,10968,-0.147,0.99,0.353,-0.61,0.366,0.122,318.535
123476,155834,11330,-0.147,0.99,0.353,-0.61,0.366,0.122,318.539
123476,155902,10950,-0.145,0.969,0.346,-1.28,0.305,0.061,318.545
123487,155834,11330,-0.145,0.969,0.346,-1.28,0.305,0.061,318.549
123487,155895,10964,-0.141,0.987,0.335,-0.366,0.427,0.305,318.555
123488,156090,11330,-0.141,0.987,0.335,-0.366,0.427,0.305,318.559
123488,155916,10963,-0.141,1,0.327,0.61,1.098,-0.122,318.565
123508,156090,11330,-0.141,1,0.327,0.61,1.098,-0.122,318.568
123508,155915,10955,-0.145,0.99,0.322,0.305,1.098,-0.366,318.575
123519,156090,11330,-0.145,0.99,0.322,0.305,1.098,-0.366,318.578
123519,155959,10965,-0.144,0.979,0.325,-0.976,0.61,-0.061,318.584
123550,156090,11330,-0.144,0.979,0.325,-0.976,0.61,-0.061,318.588
123550,155966,10969,-0.145,0.977,0.316,-1.707,0.305,0.183,318.594
123544,156090,11330,-0.142,0.972,0.311,-1.707,0.305,0.183,318.598
123544,155979,10959,-0.144,0.973,0.313,-0.305,0.488,0.305,318.604
123569,156090,11330,-0.143,0.98,0.315,-0.305,0.488,0.305,318.608
123569,155992,10963,-0.149,0.984,0.316,0.854,0.854,0.244,318.614
123592,156090,11330,-0.153,0.983,0.316,0.854,0.854,0.244,318.618
123592,155998,10964,-0.156,0.981,0.316,0.549,0.732,0.366,318.624
123560,156090,11330,-0.153,0.977,0.327,0.549,0.732,0.366,318.628
123560,155995,10968,-0.149,0.979,0.331,-0.122,-0.061,0.61,318.634
123586,156090,11330,-0.15,0.976,0.333,-0.122,-0.061,0.61,318.638
123586,156005,10986,-0.152,0.973,0.335,0.427,-0.183,1.037,318.644
123612,156090,11330,-0.153,0.98,0.334,0.427,-0.183,1.037,318.648
123612,156005,10971,-0.156,0.988,0.334,1.524,0.305,0.854,318.654
123596,156090,11330,-0.156,0.997,0.333,1.524,0.305,0.854,318.658
123596,155998,10965,-0.155,1.002,0.33,1.524,0.488,0.427,318.664
123612,156090,11330,-0.152,0.999,0.336,1.524,0.488,0.427,318.667
123612,156005,10974,-0.153,0.993,0.342,0.671,0.061,0.366,318.674
123602,156090,11330,-0.15,0.994,0.338,0.671,0.061,0.366,318.677
123602,156024,10983,-0.145,0.99,0.333,-0.488,-0.427,0.366,318.684
123625,156090,11330,-0.142,0.983,0.327,-0.488,-0.427,0.366,318.687
123625,156033,10985,-0.139,0.982,0.325,-0.549,-0.427,0.061,318.693
123631,156090,11330,-0.141,0.985,0.322,-0.549,-0.427,0.061,318.697
123631,156027,10980,-0.143,0.983,0.32,0.183,-0.244,-0.244,318.703
123652,156090,11330,-0.144,0.984,0.318,0.183,-0.244,-0.244,318.707
123652,156059,10976,-0.141,0.986,0.325,0.854,-0.122,-0.305,318.713
123663,156090,11330,-0.138,0.994,0.324,0.854,-0.122,-0.305,318.717
123663,156067,10977,-0.136,0.993,0.324,0.488,-0.305,-0.183,318.723
123641,156090,11330,-0.139,0.985,0.326,0.488,-0.305,-0.183,318.727
123641,156070,10982,-0.143,0.981,0.325,0.305,-0.305,-0.061,318.733
123653,156090,11330,-0.146,0.98,0.325,0.305,-0.305,-0.061,318.737
123653,156072,10986,-0.147,0.979,0.328,0.793,-0.061,0.061,318.743
123642,156090,11330,-0.146,0.985,0.328,0.793,-0.061,0.061,318.747
123642,156063,10984,-0.147,0.986,0.33,1.402,0.061,0,318.753
123648,156090,11330,-0.151,0.981,0.33,1.402,0.061,0,318.757
123648,156044,10994,-0.15,0.978,0.329,1.402,-0.122,0.183,318.763
123638,156090,11330,-0.151,0.977,0.334,1.402,-0.122,0.183,318.766
123638,156039,10982,-0.15,0.974,0.336,1.22,-0.244,0.61,318.773
123620,156090,11330,-0.15,0.969,0.335,1.22,-0.244,0.61,318.776
123620,155991,10981,-0.152,0.971,0.339,1.22,0.183,0.671,318.782
123595,156090,11330,-0.153,0.981,0.337,1.22,0.183,0.671,318.786
123595,156002,10974,-0.151,0.986,0.34,1.22,0.61,0.915,318.792
123600,156090,11330,-0.15,0.988,0.342,1.22,0.61,0.915,318.796
123600,156022,10983,-0.148,0.987,0.34,0.915,0.183,1.037,318.802
123589,156090,11330,-0.149,0.985,0.334,0.915,0.183,1.037,318.806
123589,156008,10970,-0.146,0.988,0.325,-0.305,-0.122,1.098,318.812
123607,156090,11330,-0.144,0.991,0.326,-0.305,-0.122,1.098,318.816
123607,156013,10984,-0.143,0.99,0.33,-0.915,-0.122,0.976,318.822
123623,156090,11330,-0.145,0.991,0.324,-0.915,-0.122,0.976,318.826
123623,156040,10963,-0.144,0.986,0.323,-0.854,-0.183,0.793,318.832
123657,156090,11330,-0.143,0.99,0.322,-0.854,-0.183,0.793,318.836
123657,156049,10977,-0.144,0.996,0.325,-0.61,-0.244,0.61,318.842
123659,156090,11330,-0.14,0.997,0.331,-0.61,-0.244,0.61,318.846
123659,156062,10974,-0.143,0.989,0.331,-0.366,-0.061,0.427,318.852
123661,156090,11330,-0.15,0.983,0.325,-0.366,-0.061,0.427,318.856
123661,156069,10983,-0.15,0.984,0.323,0.488,0.183,0.61,318.862
123654,156090,11330,-0.15,0.989,0.322,0.488,0.183,0.61,318.865
123654,156070,10973,-0.15,0.997,0.325,1.159,0.427,0.366,318.872
123666,156090,11330,-0.149,0.999,0.328,1.159,0.427,0.366,318.875
123666,156081,10996,-0.149,0.995,0.324,1.402,0.366,-0.061,318.882
123694,156090,11330,-0.15,0.992,0.326,1.402,0.366,-0.061,318.885
123694,156076,10980,-0.153,0.989,0.331,1.098,0.305,-0.061,318.891
123669,156090,11330,-0.151,0.99,0.335,1.098,0.305,-0.061,318.895
123669,156103,10986,-0.147,0.99,0.334,0.915,0.305,-0.061,318.901
123701,156090,11330,-0.144,0.994,0.333,0.915,0.305,-0.061,318.905
123701,156068,10999,-0.14,0.992,0.336,0.732,0.366,-0.366,318.911
123670,156090,11330,-0.14,0.996,0.339,0.732,0.366,-0.366,318.915
123670,156085,10995,-0.139,0.995,0.336,0.122,0.366,-0.61,318.921
123711,156090,11330,-0.137,0.992,0.333,0.122,0.366,-0.61,318.925
123711,156098,10984,-0.134,0.988,0.333,-0.915,0.366,-0.854,318.931
123700,156090,11330,-0.134,0.984,0.335,-0.915,0.366,-0.854,318.935
123700,156123,10983,-0.131,0.976,0.332,-2.195,0,-0.976,318.941
123735,156090,11330,-0.132,0.975,0.332,-2.195,0,-0.976,318.945
123735,156111,10995,-0.134,0.969,0.328,-3.049,-0.183,-0.793,318.951
123704,156090,11330,-0.135,0.962,0.327,-3.049,-0.183,-0.793,318.954
123704,156121,10996,-0.141,0.958,0.328,-1.829,-0.061,-0.61,318.961
123726,156346,11330,-0.142,0.961,0.329,-1.829,-0.061,-0.61,318.964
123726,156160,11013,-0.142,0.972,0.331,0.061,0.366,-0.427,318.971
123747,156090,11330,-0.143,0.982,0.333,0.061,0.366,-0.427,318.974
123747,156133,11002,-0.142,0.991,0.333,1.829,0.793,-0.122,318.98
123747,156090,11330,-0.147,0.994,0.33,1.829,0.793,-0.122,318.984
123747,156140,10989,-0.153,0.993,0.332,2.012,1.341,0.244,318.99
123735,156090,11330,-0.155,0.992,0.334,2.012,1.341,0.244,318.994
123735,156129,10992,-0.155,0.991,0.337,0.976,1.28,0.427,319
123749,156090,11330,-0.156,0.99,0.339,0.976,1.28,0.427,319.004
123749,156149,11007,-0.151,0.987,0.337,-0.366,1.22,0.671,319.01
123716,156090,11330,-0.148,0.988,0.336,-0.366,1.22,0.671,319.014
123716,156134,10991,-0.149,0.984,0.333,-1.098,1.524,0.732,319.02
123744,156090,11330,-0.148,0.984,0.332,-1.098,1.524,0.732,319.024
123744,156134,11001,-0.15,0.984,0.337,-1.463,1.585,0.61,319.03
123750,156090,11330,-0.149,0.985,0.332,-1.463,1.585,0.61,319.034
123750,156135,11005,-0.149,0.98,0.328,-1.341,1.22,0.366,319.04
123753,156090,11330,-0.149,0.98,0.328,-1.341,1.22,0.366,319.044
123753,156126,11001,-0.147,0.981,0.329,-1.524,0.976,0.366,319.05
123745,156090,11330,-0.147,0.981,0.329,-1.524,0.976,0.366,319.054
123745,156141,10997,-0.149,0.977,0.327,-1.22,0.854,0.244,319.06
123740,156346,11330,-0.149,0.977,0.327,-1.22,0.854,0.244,319.063
123740,156179,11005,-0.151,0.978,0.322,-0.549,0.671,0.244,319.07
123772,156090,11330,-0.151,0.978,0.322,-0.549,0.671,0.244,319.073
123772,156156,10989,-0.146,0.989,0.322,-0.061,0.488,0.427,319.079
123758,156090,11330,-0.146,0.989,0.322,-0.061,0.488,0.427,319.083
123758,156159,11007,-0.151,0.991,0.331,0.122,0.671,0.488,319.089
123779,156090,11330,-0.151,0.991,0.331,0.122,0.671,0.488,319.093
123779,156149,11012,-0.156,0.989,0.321,-0.305,0.732,0.488,319.099
123768,156346,11330,-0.156,0.989,0.321,-0.305,0.732,0.488,319.103
123768,156162,11004,-0.145,0.988,0.323,-0.305,0.549,0.549,319.109
123769,156346,11330,-0.145,0.988,0.323,-0.305,0.549,0.549,319.113
123769,156164,11001,-0.145,0.992,0.32,0.122,0.61,0.549,319.119
123755,156090,11330,-0.145,0.992,0.32,0.122,0.61,0.549,319.123
123755,156156,10992,-0.144,0.984,0.328,-0.366,0.671,0.305,319.129
123744,156090,11330,-0.144,0.984,0.328,-0.366,0.671,0.305,319.133
123744,156138,10993,-0.148,0.975,0.328,-1.098,0.427,0.305,319.139
123762,156090,11330,-0.148,0.975,0.328,-1.098,0.427,0.305,319.143
123762,156144,10988,-0.143,0.968,0.323,-1.402,-0.183,0.488,319.149
123776,156346,11330,-0.143,0.968,0.323,-1.402,-0.183,0.488,319.152
123776,156160,11004,-0.143,0.972,0.326,-0.915,-0.366,0.793,319.159
123782,156090,11330,-0.143,0.972,0.326,-0.915,-0.366,0.793,319.162
123782,156154,11009,-0.151,0.97,0.327,0.122,0.183,0.976,319.169
123779,156346,11330,-0.151,0.97,0.327,0.122,0.183,0.976,319.172
123779,156160,11029,-0.153,0.977,0.33,0.549,0.244,1.159,319.178
123762,156090,11330,-0.153,0.977,0.33,0.549,0.244,1.159,319.182
123762,156146,11010,-0.153,0.978,0.328,0.549,0.244,1.159,319.188
123786,156346,11330,-0.152,0.982,0.327,0.549,0,1.463,319.192
123786,156168,10995,-0.154,0.986,0.329,0.549,0,1.463,319.198
123742,156346,11330,-0.157,0.989,0.334,0.671,0.122,1.707,319.202
123742,156165,11002,-0.155,0.991,0.338,0.671,0.122,1.707,319.208
123779,156090,11330,-0.151,0.991,0.335,0.488,0.061,1.707,319.212
123779,156153,11010,-0.152,0.995,0.335,0.488,0.061,1.707,319.218
123767,156346,11330,-0.15,0.995,0.339,0,-0.061,1.646,319.222
123767,156169,10993,-0.146,0.992,0.337,0,-0.061,1.646,319.228
123753,156090,11330,-0.141,0.994,0.334,-0.366,0,1.585,319.232
123753,156146,10987,-0.142,0.991,0.337,-0.366,0,1.585,319.238
123750,156090,11330,-0.145,0.986,0.327,-0.183,0.366,1.159,319.242
123750,156153,10988,-0.146,0.988,0.323,-0.183,0.366,1.159,319.248
123745,156090,11330,-0.144,0.982,0.324,-1.28,0.183,0.732,319.252
123745,156151,11007,-0.142,0.977,0.325,-1.28,0.183,0.732,319.258
123740,156090,11330,-0.139,0.967,0.324,-1.829,-0.488,0.976,319.261
123740,156156,10999,-0.138,0.962,0.325,-1.829,-0.488,0.976,319.268
123764,156090,11330,-0.136,0.961,0.317,-1.159,-0.427,1.402,319.271
123764,156148,11006,-0.138,0.969,0.315,-1.159,-0.427,1.402,319.277
123752,156090,11330,-0.141,0.978,0.321,0.427,0.122,1.463,319.281
123752,156126,11008,-0.141,0.984,0.328,0.427,0.122,1.463,319.287
123757,156090,11330,-0.144,0.992,0.329,2.195,0.427,1.524,319.291
123757,156141,11016,-0.144,0.998,0.327,2.195,0.427,1.524,319.297
123752,156346,11330,-0.141,0.998,0.328,2.317,0.488,1.585,319.301
123752,156165,11006,-0.143,1.002,0.336,2.317,0.488,1.585,319.307
123773,156346,11330,-0.147,1.006,0.34,1.402,0.488,1.585,319.311
123773,156168,11004,-0.147,1.002,0.336,1.402,0.488,1.585,319.317
123773,156346,11330,-0.148,0.998,0.33,0.488,0.854,1.402,319.321
123773,156199,11003,-0.151,0.994,0.335,0.488,0.854,1.402,319.327
123799,156346,11330,-0.151,0.992,0.338,0.244,0.915,1.098,319.331
123799,156195,11011,-0.148,0.991,0.336,0.244,0.915,1.098,319.337
123791,156346,11330,-0.145,0.993,0.335,0.122,0.854,0.854,319.341
123791,156189,11013,-0.145,0.992,0.333,0.122,0.854,0.854,319.347
123788,156346,11330,-0.146,0.987,0.334,0.183,0.854,0.671,319.351
123788,156183,11009,-0.145,0.984,0.331,0.183,0.854,0.671,319.357
123807,156346,11330,-0.146,0.984,0.327,0.976,1.159,0.427,319.36
123807,156191,11040,-0.143,0.984,0.321,0.976,1.159,0.427,319.367
123797,156346,11330,-0.143,0.988,0.319,1.159,1.037,0.366,319.37
123797,156183,11004,-0.141,0.99,0.318,1.159,1.037,0.366,319.376
123812,156346,11330,-0.139,0.987,0.323,1.463,0.793,0.305,319.38
123812,156182,11018,-0.138,0.985,0.325,1.463,0.793,0.305,319.386
123808,156346,11330,-0.142,0.983,0.327,1.341,1.159,0.366,319.39
123808,156206,11007,-0.145,0.983,0.32,1.341,1.159,0.366,319.396
123829,156346,11330,-0.142,0.988,0.316,0.671,1.341,0.671,319.4
123829,156182,11017,-0.139,0.988,0.32,0.671,1.341,0.671,319.406
123806,156346,11330,-0.135,0.989,0.327,0.244,0.732,0.732,319.41
123806,156196,11013,-0.133,0.991,0.323,0.244,0.732,0.732,319.416
123790,156346,11330,-0.137,0.991,0.317,0.183,0.732,0.732,319.42
123790,156185,11006,-0.139,0.988,0.317,0.183,0.732,0.732,319.426
123785,156346,11330,-0.141,0.987,0.319,-0.061,0.854,0.61,319.43
123785,156188,11026,-0.144,0.989,0.323,-0.061,0.854,0.61,319.436
123781,156346,11330,-0.144,0.989,0.325,-0.366,0.671,0.61,319.44
123781,156187,11006,-0.145,0.992,0.33,-0.366,0.671,0.61,319.446
123779,156346,11330,-0.148,0.988,0.328,-0.488,0.488,0.61,319.45
123779,156165,11006,-0.146,0.984,0.328,-0.488,0.488,0.61,319.456
123769,156346,11330,-0.148,0.984,0.328,-0.427,0.366,0.488,319.459
123769,156173,11027,-0.15,0.984,0.327,-0.427,0.366,0.488,319.466
123793,156346,11330,-0.148,0.986,0.329,-0.061,0.244,0.61,319.469
123793,156177,11015,-0.147,0.992,0.327,-0.061,0.244,0.61,319.475
123784,156346,11330,-0.146,0.994,0.327,0.488,0.549,0.61,319.479
123784,156186,10994,-0.146,0.997,0.327,0.488,0.549,0.61,319.485
123794,156346,11330,-0.146,1.002,0.327,-0.183,0.671,0.427,319.489
123794,156198,11004,-0.146,0.995,0.332,-0.183,0.671,0.427,319.495
123805,156346,11330,-0.143,0.986,0.333,-1.402,0.488,0.366,319.499
123805,156208,11016,-0.146,0.979,0.329,-1.402,0.488,0.366,319.505
123833,156346,11330,-0.148,0.973,0.331,-1.951,0.366,0.488,319.509
123833,156244,11008,-0.147,0.971,0.328,-1.951,0.366,0.488,319.515
123871,156346,11330,-0.144,0.975,0.326,-1.524,0.427,0.61,319.519
123871,156246,11022,-0.143,0.977,0.325,-1.524,0.427,0.61,319.525
123863,156346,11330,-0.143,0.977,0.322,-0.671,0.305,0.549,319.529
123863,156252,11014,-0.145,0.983,0.32,-0.671,0.305,0.549,319.535
123876,156346,11330,-0.148,0.985,0.322,-0.427,0.305,0.61,319.539
123876,156261,11008,-0.147,0.982,0.325,-0.427,0.305,0.61,319.545
123864,156346,11330,-0.149,0.98,0.329,-0.549,0.061,0.732,319.549
123864,156235,11019,-0.145,0.982,0.327,-0.549,0.061,0.732,319.555
123837,156346,11330,-0.141,0.981,0.326,-0.366,-0.244,0.976,319.558
123837,156235,11013,-0.141,0.988,0.326,-0.366,-0.244,0.976,319.565
123834,156346,11330,-0.143,0.994,0.325,0,-0.061,0.549,319.568
123834,156202,11025,-0.147,0.996,0.323,0,-0.061,0.549,319.574
123818,156346,11330,-0.15,0.99,0.323,-0.061,0.122,0.244,319.578
123818,156210,11024,-0.147,0.985,0.323,-0.061,0.122,0.244,319.584
123794,156346,11330,-0.145,0.981,0.32,-0.61,-0.305,0.427,319.588
123794,156198,11020,-0.144,0.98,0.325,-0.61,-0.305,0.427,319.594
123780,156346,11330,-0.145,0.978,0.327,-0.305,-0.183,0.671,319.598
123780,156180,10997,-0.148,0.98,0.325,-0.305,-0.183,0.671,319.604
123789,156346,11330,-0.151,0.981,0.328,0.549,0.366,0.549,319.608
123789,156178,11015,-0.151,0.987,0.33,0.549,0.366,0.549,319.614
123795,156346,11330,-0.15,0.999,0.332,1.098,0.61,0.427,319.618
123795,156206,10989,-0.15,1.002,0.331,1.098,0.61,0.427,319.624
123814,156346,11330,-0.15,1.002,0.331,1.098,0.61,0.427,319.628
123814,156184,11008,-0.147,0.999,0.33,0.732,0.366,0.488,319.634
123817,156346,11330,-0.147,0.999,0.33,0.732,0.366,0.488,319.638
123817,156202,10995,-0.146,0.992,0.319,-0.427,0.305,0.488,319.644
123835,156346,11330,-0.146,0.992,0.319,-0.427,0.305,0.488,319.648
123835,156247,11014,-0.141,0.989,0.32,-1.098,0.122,0.183,319.654
123837,156346,11330,-0.141,0.989,0.32,-1.098,0.122,0.183,319.657
123837,156228,11021,-0.139,0.985,0.32,-1.159,-0.122,-0.183,319.664
123840,156346,11330,-0.139,0.985,0.32,-1.159,-0.122,-0.183,319.667
123840,156228,11022,-0.134,0.984,0.328,-0.732,-0.061,-0.122,319.674
123866,156346,11330,-0.134,0.984,0.328,-0.732,-0.061,-0.122,319.677
123866,156230,11035,-0.14,0.988,0.329,0.427,0.305,-0.305,319.683
123823,156346,11330,-0.14,0.988,0.329,0.427,0.305,-0.305,319.687
123823,156229,11027,-0.136,0.996,0.328,1.037,0.305,-0.61,319.693
123838,156346,11330,-0.136,0.996,0.328,1.037,0.305,-0.61,319.697
123838,156238,11001,-0.137,0.999,0.334,0.61,-0.061,-0.671,319.703
123833,156346,11330,-0.137,0.999,0.334,0.61,-0.061,-0.671,319.707
123833,156234,11020,-0.136,0.989,0.33,0.061,0.366,-0.427,319.713
123848,156346,11330,-0.136,0.989,0.33,0.061,0.366,-0.427,319.717
123848,156215,11014,-0.135,0.984,0.329,-0.549,0.61,-0.305,319.723
123820,156346,11330,-0.135,0.984,0.329,-0.549,0.61,-0.305,319.727
123820,156236,11014,-0.136,0.987,0.328,-0.488,0.854,-0.183,319.733
123835,156346,11330,-0.136,0.987,0.328,-0.488,0.854,-0.183,319.737
123835,156233,11005,-0.143,0.985,0.322,-0.488,1.037,-0.244,319.743
123848,156346,11330,-0.143,0.985,0.322,-0.488,1.037,-0.244,319.747
123848,156217,11018,-0.144,0.976,0.31,-1.037,0.915,-0.061,319.753
123856,156346,11330,-0.144,0.976,0.31,-1.037,0.915,-0.061,319.756
123856,156197,11025,-0.139,0.977,0.316,-1.585,0.366,-0.061,319.763
123859,156346,11330,-0.139,0.977,0.316,-1.585,0.366,-0.061,319.766
123859,156222,11013,-0.139,0.977,0.317,-1.585,-0.061,0.183,319.772
123850,156346,11330,-0.14,0.976,0.323,-1.585,-0.061,0.183,319.776
123850,156236,11001,-0.146,0.974,0.324,-0.915,0.305,0.366,319.782
123824,156346,11330,-0.151,0.975,0.331,-0.915,0.305,0.366,319.786
123824,156219,11011,-0.151,0.983,0.333,-0.427,0.427,0.549,319.792
123828,156346,11330,-0.152,0.985,0.336,-0.427,0.427,0.549,319.796
123828,156227,11010,-0.153,0.985,0.337,-0.549,0.427,0.854,319.802
123859,156346,11330,-0.153,0.986,0.33,-0.549,0.427,0.854,319.806
123859,156252,11018,-0.152,0.987,0.327,-0.915,0.366,0.915,319.812
123831,156346,11330,-0.152,0.993,0.33,-0.915,0.366,0.915,319.816
123831,156220,11015,-0.153,0.996,0.33,-1.22,0.427,0.854,319.822
123827,156346,11330,-0.154,0.99,0.328,-1.22,0.427,0.854,319.826
123827,156224,11003,-0.155,0.988,0.323,-1.463,0.305,0.671,319.832
123851,156346,11330,-0.158,0.989,0.322,-1.463,0.305,0.671,319.836
123851,156215,11023,-0.156,0.988,0.324,-1.89,0.122,0.488,319.842
123827,156346,11330,-0.154,0.988,0.326,-1.89,0.122,0.488,319.846
123827,156233,11005,-0.151,0.986,0.323,-1.646,-0.061,0.244,319.852
123837,156346,11330,-0.146,0.985,0.323,-1.646,-0.061,0.244,319.855
123837,156213,11014,-0.148,0.984,0.323,-1.402,-0.183,0.061,319.862
123789,156346,11330,-0.148,0.983,0.326,-1.402,-0.183,0.061,319.865
123789,156186,11026,-0.148,0.983,0.326,-1.341,-0.549,0.061,319.872
123809,156346,11330,-0.147,0.977,0.325,-1.341,-0.549,0.061,319.875
123809,156187,11019,-0.146,0.975,0.324,-1.341,-0.732,0.122,319.881
123797,156346,11330,-0.145,0.977,0.326,-1.341,-0.732,0.122,319.885
123797,156200,11020,-0.143,0.977,0.329,-0.61,-0.488,0.305,319.891
123808,156346,11330,-0.14,0.979,0.33,-0.61,-0.488,0.305,319.895
123808,156214,11000,-0.141,0.983,0.329,0.122,-0.305,0.427,319.901
123814,156346,11330,-0.144,0.984,0.327,0.122,-0.305,0.427,319.905
123814,156211,11021,-0.148,0.988,0.324,0.427,-0.183,0.427,319.911
123844,156346,11330,-0.15,0.986,0.33,0.427,-0.183,0.427,319.915
123844,156216,11021,-0.147,0.986,0.324,0.122,-0.427,0.305,319.921
123843,156346,11330,-0.146,0.99,0.322,0.122,-0.427,0.305,319.925
123843,156253,11029,-0.144,0.99,0.326,-0.427,-0.732,0.305,319.931
123853,156346,11330,-0.142,0.982,0.33,-0.427,-0.732,0.305,319.935
123853,156256,11023,-0.144,0.983,0.329,-0.427,-0.61,0.488,319.941
123895,156346,11330,-0.143,0.985,0.329,-0.427,-0.61,0.488,319.945
123895,156295,11017,-0.142,0.99,0.333,-0.122,-0.244,0.61,319.951
123928,156346,11330,-0.141,0.99,0.334,-0.122,-0.244,0.61,319.954
123928,156312,11036,-0.14,0.991,0.328,0.061,-0.244,0.366,319.961
123918,156346,11330,-0.142,0.994,0.327,0.061,-0.244,0.366,319.964
123918,156317,11049,-0.137,0.989,0.33,-0.427,-0.427,0.427,319.97
123942,156346,11330,-0.135,0.985,0.334,-0.427,-0.427,0.427,319.974
123942,156309,11036,-0.137,0.98,0.333,-0.549,-0.549,0.366,319.98
123949,156346,11330,-0.136,0.978,0.336,-0.549,-0.549,0.366,319.984
123949,156318,11046,-0.137,0.981,0.338,0,-0.183,0.122,319.99
123949,156346,11330,-0.139,0.983,0.335,0,-0.183,0.122,319.994
123949,156339,11035,-0.137,0.985,0.336,0.427,0,0,320
123937,156346,11330,-0.138,0.985,0.338,0.427,0,0,320.004
123937,156326,11040,-0.141,0.982,0.339,0.366,0,0.122,320.01
123960,156346,11330,-0.142,0.976,0.339,0.366,0,0.122,320.014
123960,156325,11005,-0.141,0.979,0.338,0.122,0.122,0.244,320.02
123966,156346,11330,-0.143,0.98,0.334,0.122,0.122,0.244,320.024
123966,156316,11041,-0.143,0.981,0.328,0,0.183,0.366,320.03
123941,156346,11330,-0.141,0.985,0.328,0,0.183,0.366,320.034
123941,156317,11029,-0.143,0.985,0.326,-0.305,0.244,0.488,320.04
123905,156346,11330,-0.146,0.984,0.33,-0.305,0.244,0.488,320.044
123905,156282,11028,-0.148,0.98,0.328,-0.793,0.427,0.671,320.05
123916,156346,11330,-0.145,0.981,0.326,-0.793,0.427,0.671,320.053
123916,156270,11020,-0.147,0.984,0.322,-0.61,0.488,0.793,320.06
123899,156346,11330,-0.145,0.987,0.328,-0.61,0.488,0.793,320.063
123899,156272,11026,-0.141,0.991,0.326,-0.427,0.366,0.854,320.069
123887,156346,11330,-0.14,0.992,0.328,-0.427,0.366,0.854,320.073
123887,156286,11025,-0.144,0.992,0.322,-0.061,0.488,1.037,320.079
123892,156346,11330,-0.146,0.989,0.322,-0.061,0.488,1.037,320.083
123892,156257,11034,-0.148,0.991,0.323,-0.549,0.671,1.037,320.089
123910,156346,11330,-0.146,0.99,0.328,-0.549,0.671,1.037,320.093
123910,156280,11027,-0.147,0.986,0.328,-0.976,0.244,0.854,320.099
123899,156346,11330,-0.145,0.989,0.326,-0.976,0.244,0.854,320.103
123899,156306,11021,-0.142,0.985,0.326,-0.488,0.183,0.61,320.109
123909,156346,11330,-0.143,0.986,0.329,-0.488,0.183,0.61,320.113
123909,156311,11050,-0.144,0.991,0.328,-0.183,0.366,0.366,320.119
123908,156346,11330,-0.141,0.995,0.333,-0.183,0.366,0.366,320.123
123908,156297,11033,-0.141,0.996,0.336,-0.122,0.488,0.061,320.129
123895,156346,11330,-0.142,0.994,0.335,-0.122,0.488,0.061,320.133
123895,156299,11030,-0.144,0.993,0.333,0,0.488,-0.061,320.139
123882,156346,11330,-0.144,0.99,0.334,0,0.488,-0.061,320.143
123882,156277,11040,-0.142,0.988,0.336,-0.488,0.305,-0.183,320.149
123873,156346,11330,-0.142,0.986,0.335,-0.488,0.305,-0.183,320.152
123873,156283,11030,-0.138,0.983,0.333,-0.732,0.183,-0.427,320.159
123898,156346,11330,-0.142,0.984,0.332,-0.732,0.183,-0.427,320.162
123898,156306,11025,-0.144,0.981,0.336,-0.976,0.305,-0.305,320.168
123901,156346,11330,-0.143,0.979,0.333,-0.976,0.305,-0.305,320.172
123901,156286,11039,-0.146,0.976,0.328,-1.098,0.244,0.061,320.178
123894,156346,11330,-0.142,0.977,0.325,-1.098,0.244,0.061,320.182
123894,156280,11022,-0.14,0.982,0.322,-0.427,0.122,0.183,320.188
123895,156346,11330,-0.139,0.987,0.319,-0.427,0.122,0.183,320.192
123895,156293,11019,-0.139,0.992,0.317,-0.061,0.305,0,320.198
123915,156346,11330,-0.143,0.994,0.32,-0.061,0.305,0,320.202
123915,156294,11022,-0.146,0.99,0.32,-0.427,0.183,-0.061,320.208
123893,156346,11330,-0.146,0.99,0.32,-0.427,0.183,-0.061,320.212
123893,156276,11040,-0.144,0.984,0.322,-1.098,0.061,0.183,320.218
123885,156346,11330,-0.144,0.984,0.322,-1.098,0.061,0.183,320.222
123885,156287,11023,-0.144,0.987,0.33,-1.707,-0.061,0.061,320.228
123854,156346,11330,-0.144,0.987,0.33,-1.707,-0.061,0.061,320.232
123854,156273,11017,-0.141,0.978,0.335,-1.037,-0.061,0.122,320.238
123890,156346,11330,-0.141,0.978,0.335,-1.037,-0.061,0.122,320.242
123890,156280,11017,-0.145,0.987,0.331,-0.61,0.366,0.061,320.248
123877,156346,11330,-0.145,0.987,0.331,-0.61,0.366,0.061,320.251
123877,156261,11027,-0.144,0.987,0.328,-0.305,0.183,0.061,320.258
123902,156346,11330,-0.144,0.987,0.328,-0.305,0.183,0.061,320.261
123902,156270,11027,-0.145,0.99,0.328,-0.427,-0.061,0,320.267
123903,156346,11330,-0.145,0.99,0.328,-0.427,-0.061,0,320.271
123903,156278,11021,-0.146,0.988,0.325,-0.793,0,-0.183,320.277
123898,156346,11330,-0.146,0.988,0.325,-0.793,0,-0.183,320.281
123898,156276,11033,-0.147,0.975,0.332,-1.28,-0.305,-0.366,320.287
123904,156346,11330,-0.147,0.975,0.332,-1.28,-0.305,-0.366,320.291
123904,156265,11035,-0.144,0.973,0.333,-1.402,-0.427,-0.244,320.297
123891,156346,11330,-0.144,0.973,0.333,-1.402,-0.427,-0.244,320.301
123891,156274,11029,-0.142,0.979,0.331,-0.366,-0.061,0,320.307
123887,156346,11330,-0.142,0.979,0.331,-0.366,-0.061,0,320.311
123887,156289,11028,-0.145,0.986,0.326,0,0.061,-0.061,320.317
123904,156346,11330,-0.145,0.986,0.326,0,0.061,-0.061,320.321
123904,156273,11044,-0.148,0.988,0.333,-0.244,-0.122,0.061,320.327
123904,156346,11330,-0.148,0.988,0.333,-0.244,-0.122,0.061,320.331
123904,156289,11038,-0.15,0.98,0.326,-0.305,-0.122,0.305,320.337
123874,156346,11330,-0.15,0.98,0.326,-0.305,-0.122,0.305,320.34
123874,156275,11024,-0.144,0.99,0.331,-0.122,0,0.366,320.347
123867,156346,11330,-0.144,0.99,0.331,-0.122,0,0.366,320.35
123867,156278,11019,-0.144,0.994,0.332,0.61,0.427,0.427,320.357
123847,156346,11330,-0.144,0.994,0.332,0.61,0.427,0.427,320.36
123847,156255,11023,-0.144,0.991,0.327,0.61,0.427,0.427,320.367
123852,156346,11330,-0.146,0.995,0.331,0.915,0.854,0.366,320.37
123852,156220,11014,-0.145,0.993,0.333,0.915,0.854,0.366,320.376
123821,156346,11330,-0.144,0.989,0.337,0.122,0.671,0.122,320.38
123821,156187,11023,-0.143,0.984,0.337,0.122,0.671,0.122,320.386
123834,156346,11330,-0.144,0.981,0.333,-0.122,0.366,-0.061,320.39
123834,156203,11019,-0.142,0.978,0.338,-0.122,0.366,-0.061,320.396
123838,156346,11330,-0.144,0.977,0.341,-0.122,0.549,0,320.4
123838,156228,11003,-0.145,0.974,0.341,-0.122,0.549,0,320.406
123829,156346,11330,-0.144,0.968,0.337,-0.061,0.61,0.183,320.41
123829,156209,11018,-0.145,0.97,0.331,-0.061,0.61,0.183,320.416
123826,156346,11330,-0.145,0.977,0.328,-0.183,0.549,0.366,320.42
123826,156222,11019,-0.144,0.984,0.329,-0.183,0.549,0.366,320.426
123823,156346,11330,-0.143,0.984,0.331,-0.305,0.305,0.244,320.43
123823,156207,11009,-0.147,0.983,0.327,-0.305,0.305,0.244,320.436
123827,156346,11330,-0.146,0.985,0.322,-0.305,0.305,0.427,320.44
123827,156223,11032,-0.144,0.986,0.322,-0.305,0.305,0.427,320.446
123849,156346,11330,-0.143,0.986,0.325,-0.61,0.183,0.61,320.449
123849,156221,11023,-0.143,0.984,0.331,-0.61,0.183,0.61,320.456
123875,156346,11330,-0.145,0.983,0.327,-0.671,0.305,0.61,320.459
123875,156248,11034,-0.145,0.985,0.325,-0.671,0.305,0.61,320.465
123886,156346,11330,-0.144,0.99,0.331,-0.122,0.671,0.549,320.469
123886,156277,11042,-0.145,0.991,0.329,-0.122,0.671,0.549,320.475
123913,156346,11330,-0.144,0.99,0.329,0.427,0.366,0.549,320.479
123913,156283,11027,-0.141,0.995,0.332,0.427,0.366,0.549,320.485
123929,156346,11330,-0.143,0.994,0.332,-0.122,0.244,0.366,320.489
123929,156275,11019,-0.144,0.99,0.331,-0.122,0.244,0.366,320.495
123896,156346,11330,-0.144,0.984,0.327,-0.183,0.427,0.183,320.499
123896,156261,11032,-0.148,0.982,0.332,-0.183,0.427,0.183,320.505
123889,156346,11330,-0.147,0.983,0.333,0,0.549,0.183,320.509
123889,156272,11028,-0.147,0.985,0.329,0,0.549,0.183,320.515
123874,156346,11330,-0.146,0.982,0.327,0.061,0.366,0.183,320.519
123874,156257,11031,-0.145,0.987,0.325,0.061,0.366,0.183,320.525
123889,156346,11330,-0.144,0.991,0.326,-0.122,0.427,0.183,320.529
123889,156275,11020,-0.144,0.993,0.329,-0.122,0.427,0.183,320.535
123903,156346,11330,-0.141,0.989,0.327,-0.061,0.427,0.183,320.538
123903,156272,11038,-0.141,0.988,0.327,-0.061,0.427,0.183,320.545
123897,156346,11330,-0.143,0.987,0.329,0,0.549,0.244,320.548
123897,156295,11031,-0.143,0.985,0.33,0,0.549,0.244,320.555
123902,156346,11330,-0.142,0.987,0.332,-0.122,0.671,0.122,320.558
123902,156279,11043,-0.143,0.988,0.329,-0.122,0.671,0.122,320.565
123902,156346,11330,-0.142,0.988,0.331,-0.366,0.61,-0.061,320.568
123902,156282,11039,-0.137,0.987,0.33,-0.366,0.61,-0.061,320.574
123879,156346,11330,-0.137,0.984,0.332,-0.366,0.305,-0.061,320.578
123879,156225,11034,-0.143,0.986,0.327,-0.366,0.305,-0.061,320.584
123886,156346,11330,-0.144,0.986,0.327,-0.305,0.305,-0.122,320.588
123886,156263,11026,-0.146,0.984,0.326,-0.305,0.305,-0.122,320.594
123872,156346,11330,-0.148,0.985,0.324,-0.488,0.488,-0.122,320.598
123872,156268,11018,-0.148,0.982,0.323,-0.488,0.488,-0.122,320.604
123859,156346,11330,-0.148,0.98,0.326,-0.671,0.183,0.122,320.608
123859,156253,11030,-0.148,0.977,0.325,-0.671,0.183,0.122,320.614
123861,156346,11330,-0.148,0.983,0.326,-0.488,0.061,0.427,320.618
123861,156260,11029,-0.143,0.988,0.328,-0.488,0.061,0.427,320.624
123863,156346,11330,-0.146,0.99,0.33,-0.122,0.366,0.244,320.628
123863,156257,11037,-0.149,0.992,0.33,-0.122,0.366,0.244,320.634
123861,156346,11330,-0.151,0.99,0.328,-0.671,0.305,0.183,320.638
123861,156231,11027,-0.151,0.986,0.33,-0.671,0.305,0.183,320.644
123842,156346,11330,-0.149,0.987,0.336,-1.524,-0.122,0.244,320.647
123842,156237,11011,-0.144,0.986,0.33,-1.524,-0.122,0.244,320.654
123816,156346,11330,-0.146,0.984,0.328,-1.22,-0.183,0.183,320.657
123816,156226,11012,-0.146,0.988,0.332,-1.22,-0.183,0.183,320.663
123811,156346,11330,-0.145,0.994,0.334,-0.244,0.305,-0.183,320.667
123811,156181,11020,-0.147,0.997,0.33,-0.244,0.305,-0.183,320.673
123782,156346,11330,-0.149,0.995,0.33,-0.061,0.366,-0.427,320.677
123782,156200,11012,-0.148,0.992,0.332,-0.061,0.366,-0.427,320.683
123787,156346,11330,-0.147,0.985,0.327,-1.159,0.061,-0.427,320.687
123787,156181,11024,-0.144,0.978,0.33,-1.159,0.061,-0.427,320.693
123785,156346,11330,-0.145,0.975,0.329,-2.256,-0.244,-0.366,320.697
123785,156187,11016,-0.144,0.976,0.329,-2.256,-0.244,-0.366,320.703
123792,156346,11330,-0.143,0.976,0.334,-2.195,-0.122,-0.305,320.707
123792,156185,11001,-0.147,0.967,0.338,-2.195,-0.122,-0.305,320.713
123798,156346,11330,-0.146,0.971,0.328,-0.488,0.244,-0.122,320.717
123798,156199,11031,-0.142,0.983,0.33,-0.488,0.244,-0.122,320.723
123781,156346,11330,-0.142,0.991,0.339,1.22,0.427,-0.061,320.727
123781,156196,11005,-0.145,1.003,0.343,1.22,0.427,-0.061,320.733
123753,156346,11330,-0.148,1.007,0.335,1.585,0.671,-0.183,320.736
123753,156168,11008,-0.151,1.005,0.333,1.585,0.671,-0.183,320.743
123758,156090,11330,-0.152,0.999,0.334,-0.793,0.549,-0.366,320.746
123758,156151,11022,-0.151,0.984,0.33,-0.793,0.549,-0.366,320.753
123742,156090,11330,-0.146,0.978,0.326,-2.805,-0.305,-0.183,320.756
123742,156146,11004,-0.143,0.975,0.327,-2.805,-0.305,-0.183,320.762
123736,156090,11330,-0.142,0.971,0.326,-2.927,-0.183,-0.122,320.766
123736,156121,11020,-0.145,0.973,0.325,-2.927,-0.183,-0.122,320.772
123749,156090,11330,-0.145,0.974,0.328,-1.646,0.427,-0.244,320.776
123749,156154,10993,-0.147,0.977,0.324,-1.646,0.427,-0.244,320.782
123734,156090,11330,-0.149,0.977,0.329,-0.061,0.61,-0.183,320.786
123734,156142,11008,-0.144,0.984,0.335,-0.061,0.61,-0.183,320.792
123762,156090,11330,-0.142,0.99,0.338,0.976,0.366,-0.122,320.796
123762,156143,11017,-0.144,0.987,0.343,0.976,0.366,-0.122,320.802
123769,156346,11330,-0.144,0.987,0.343,0.976,0.366,-0.122,320.806
123769,156166,11014,-0.149,0.981,0.344,0.976,0.549,-0.183,320.812
123769,156346,11330,-0.149,0.981,0.344,0.976,0.549,-0.183,320.816
123769,156186,11025,-0.152,0.978,0.341,-0.122,0.549,-0.183,320.822
123775,156346,11330,-0.152,0.978,0.341,-0.122,0.549,-0.183,320.826
123775,156182,11012,-0.146,0.976,0.338,-0.854,0.122,-0.061,320.832
123776,156346,11330,-0.146,0.976,0.338,-0.854,0.122,-0.061,320.836
123776,156172,11029,-0.146,0.975,0.328,-1.098,0,0.183,320.842
123801,156346,11330,-0.146,0.975,0.328,-1.098,0,0.183,320.845
123801,156173,11017,-0.147,0.977,0.331,-0.671,0.427,0.305,320.852
123769,156346,11330,-0.147,0.977,0.331,-0.671,0.427,0.305,320.855
123769,156181,11009,-0.146,0.981,0.325,-0.366,0.61,0.549,320.861
123782,156346,11330,-0.146,0.981,0.325,-0.366,0.61,0.549,320.865
123782,156175,11029,-0.148,0.987,0.322,-0.671,0.427,0.793,320.871
123765,156346,11330,-0.148,0.987,0.322,-0.671,0.427,0.793,320.875
123765,156167,11007,-0.148,0.983,0.329,-1.28,0.488,1.037,320.881
123764,156090,11330,-0.148,0.983,0.329,-1.28,0.488,1.037,320.885
123764,156159,11006,-0.147,0.983,0.328,-1.768,0.488,1.098,320.891
123770,156346,11330,-0.147,0.983,0.328,-1.768,0.488,1.098,320.895
123770,156196,11020,-0.152,0.984,0.334,-1.585,0.427,1.28,320.901
123770,156346,11330,-0.152,0.984,0.334,-1.585,0.427,1.28,320.905
123770,156175,11010,-0.144,0.997,0.339,-0.549,0.427,1.098,320.911
123778,156346,11330,-0.144,0.997,0.339,-0.549,0.427,1.098,320.915
123778,156178,11016,-0.152,1.005,0.338,0.732,0.732,0.732,320.921
123787,156346,11330,-0.152,1.005,0.338,0.732,0.732,0.732,320.925
123787,156190,11008,-0.149,0.999,0.339,0.793,0.915,0.366,320.931
123789,156346,11330,-0.149,0.999,0.339,0.793,0.915,0.366,320.935
123789,156198,11001,-0.151,0.985,0.333,-0.305,0.488,-0.061,320.941
123771,156346,11330,-0.151,0.985,0.333,-0.305,0.488,-0.061,320.944
123771,156203,11001,-0.143,0.985,0.333,-0.793,0.061,-0.427,320.951
123784,156346,11330,-0.141,0.985,0.336,-0.793,0.061,-0.427,320.954
123784,156195,11017,-0.143,0.985,0.334,-0.427,0,-0.61,320.96
123787,156346,11330,-0.147,0.979,0.329,-0.427,0,-0.61,320.964
123787,156198,11006,-0.146,0.975,0.329,0.061,0.61,-0.549,320.97
123814,156346,11330,-0.146,0.975,0.327,0.061,0.61,-0.549,320.974
123814,156195,11005,-0.147,0.978,0.33,0.488,0.793,-0.61,320.98
123808,156346,11330,-0.142,0.978,0.329,0.488,0.793,-0.61,320.984
123808,156205,11012,-0.14,0.979,0.326,0.305,0.122,-0.488,320.99
123804,156346,11330,-0.138,0.979,0.326,0.305,0.122,-0.488,320.994
123804,156216,11015,-0.139,0.978,0.331,-0.183,-0.122,-0.183,321
123807,156346,11330,-0.137,0.975,0.33,-0.183,-0.122,-0.183,321.004
123807,156217,11016,-0.141,0.975,0.327,0.122,0.488,0.305,321.01
123794,156346,11330,-0.143,0.977,0.33,0.122,0.488,0.305,321.014
123794,156226,11012,-0.144,0.983,0.333,0.183,0.732,0.427,321.02
123816,156346,11330,-0.145,0.984,0.336,0.183,0.732,0.427,321.024
123816,156213,11014,-0.145,0.983,0.337,0.122,0.671,0.549,321.03
123796,156346,11330,-0.145,0.985,0.331,0.122,0.671,0.549,321.034
123796,156213,11019,-0.147,0.986,0.336,-0.366,0.549,0.61,321.04
123789,156346,11330,-0.147,0.986,0.333,-0.366,0.549,0.61,321.043
123789,156210,11020,-0.149,0.986,0.334,-0.732,0.488,0.793,321.05
123821,156346,11330,-0.147,0.986,0.334,-0.732,0.488,0.793,321.053
123821,156213,11006,-0.15,0.984,0.33,-0.732,0.488,0.793,321.059
123796,156346,11330,-0.149,0.983,0.326,-0.732,0.488,0.793,321.063
123796,156201,11003,-0.149,0.984,0.327,-0.122,0.549,0.793,321.069
123767,156346,11330,-0.149,0.989,0.332,-0.122,0.549,0.793,321.073
123767,156191,11010,-0.15,0.988,0.333,0.366,0.793,0.732,321.079
123755,156346,11330,-0.15,0.987,0.327,0.366,0.793,0.732,321.083
123755,156168,11019,-0.151,0.981,0.324,-0.732,0.671,0.61,321.089
123765,156346,11330,-0.151,0.98,0.323,-0.732,0.671,0.61,321.093
123765,156173,11024,-0.146,0.978,0.323,-1.402,0,0.61,321.099
123754,156090,11330,-0.141,0.978,0.321,-1.402,0,0.61,321.103
123754,156141,11033,-0.14,0.977,0.322,-1.159,-0.305,0.488,321.109
123743,156090,11330,-0.146,0.976,0.324,-1.159,-0.305,0.488,321.113
123743,156154,11002,-0.146,0.978,0.326,-0.427,-0.061,0.549,321.119
123757,156090,11330,-0.15,0.981,0.332,-0.427,-0.061,0.549,321.123
123757,156138,11015,-0.149,0.978,0.333,0.122,-0.061,0.488,321.129
123736,156090,11330,-0.147,0.98,0.333,0.122,-0.061,0.488,321.133
123736,156137,11005,-0.146,0.981,0.337,0.671,-0.366,0.671,321.139
123732,156090,11330,-0.147,0.982,0.339,0.671,-0.366,0.671,321.142
123732,156159,11008,-0.149,0.986,0.336,0.854,-0.244,0.854,321.149
123719,156090,11330,-0.149,0.987,0.334,0.854,-0.244,0.854,321.152
123719,156128,11003,-0.151,0.99,0.33,0.915,0.183,0.671,321.158
123734,156090,11330,-0.147,0.994,0.331,0.915,0.183,0.671,321.162
123734,156132,11002,-0.147,0.99,0.333,0.488,0.061,0.61,321.168
123731,156090,11330,-0.148,0.987,0.333,0.488,0.061,0.61,321.172
123731,156129,11011,-0.146,0.988,0.329,0.061,-0.305,0.671,321.178
123722,156090,11330,-0.148,0.984,0.336,0.061,-0.305,0.671,321.182
123722,156127,11014,-0.15,0.984,0.339,-0.244,0.122,0.671,321.188
123735,156090,11330,-0.146,0.979,0.339,-0.244,0.122,0.671,321.192
123735,156128,11004,-0.145,0.976,0.335,0.122,0.488,0.61,321.198
123759,156090,11330,-0.146,0.975,0.335,0.122,0.488,0.61,321.202
123759,156133,11015,-0.143,0.979,0.331,0.915,0.427,0.732,321.208
123726,156090,11330,-0.143,0.989,0.326,0.915,0.427,0.732,321.212
123726,156124,11006,-0.144,0.994,0.323,0.793,0.305,0.549,321.218
123727,156090,11330,-0.141,0.988,0.327,0.793,0.305,0.549,321.222
123727,156135,11000,-0.142,0.983,0.323,-0.305,-0.305,0.549,321.228
123728,156090,11330,-0.141,0.976,0.316,-0.305,-0.305,0.549,321.232
