123757,156090,11330,-0.146,0.987,0.337,0.244,0.976,-0.671,176.379
123757,156121,11009,-0.144,0.984,0.339,0.244,0.976,-0.671,176.385
123746,156090,11330,-0.145,0.981,0.335,-0.732,0.61,-0.854,176.389
123746,156111,11004,-0.146,0.977,0.337,-0.732,0.61,-0.854,176.395
123727,156090,11330,-0.151,0.979,0.339,-1.28,0.366,-0.854,176.399
123727,156110,10996,-0.151,0.978,0.328,-1.28,0.366,-0.854,176.405
123707,156090,11330,-0.152,0.98,0.322,-1.463,0.549,-0.915,176.409
123707,156090,11013,-0.153,0.988,0.322,-1.463,0.549,-0.915,176.415
123717,156090,11330,-0.154,0.991,0.325,-1.341,0.671,-0.915,176.419
123717,156084,11005,-0.155,0.991,0.321,-1.341,0.671,-0.915,176.425
123734,156090,11330,-0.153,0.987,0.32,-1.951,0.244,-1.037,176.429
123734,156096,11018,-0.154,0.983,0.319,-1.951,0.244,-1.037,176.435
123753,156090,11330,-0.155,0.983,0.317,-2.378,-0.061,-0.976,176.439
123753,156137,11022,-0.161,0.981,0.312,-2.378,-0.061,-0.976,176.445
123754,156090,11330,-0.158,0.98,0.315,-1.402,-0.366,-0.976,176.448
123754,156127,11006,-0.145,0.985,0.319,-1.402,-0.366,-0.976,176.455
123732,156090,11330,-0.14,0.991,0.325,0.61,-1.037,-0.793,176.458
123732,156119,11008,-0.142,0.999,0.334,0.61,-1.037,-0.793,176.465
123730,156090,11330,-0.149,0.997,0.336,1.89,0.122,-0.915,176.468
123730,156109,11020,-0.155,0.997,0.34,1.89,0.122,-0.915,176.474
123720,156090,11330,-0.151,1,0.34,1.646,0.671,-1.402,176.478
123720,156096,11000,-0.145,0.999,0.343,1.646,0.671,-1.402,176.484
123730,156090,11330,-0.151,0.995,0.344,0.183,0.122,-1.646,176.488
123730,156111,11005,-0.152,0.994,0.335,0.183,0.122,-1.646,176.494
123746,156090,11330,-0.146,0.995,0.33,-0.854,0.061,-1.89,176.498
123746,156099,11007,-0.144,0.994,0.33,-0.854,0.061,-1.89,176.504
123719,156090,11330,-0.146,0.992,0.329,-1.524,0.122,-2.134,176.508
123719,156112,11008,-0.144,0.986,0.323,-1.524,0.122,-2.134,176.514
123698,156090,11330,-0.142,0.983,0.318,-1.402,-0.122,-1.89,176.518
123698,156110,11006,-0.136,0.985,0.327,-1.402,-0.122,-1.89,176.524
123722,156090,11330,-0.135,0.98,0.326,-1.28,-0.061,-1.585,176.528
123722,156104,11004,-0.14,0.973,0.324,-1.28,-0.061,-1.585,176.534
123697,156090,11330,-0.143,0.972,0.322,-0.793,0.732,-1.585,176.538
123697,156082,11015,-0.151,0.971,0.318,-0.793,0.732,-1.585,176.544
123704,156090,11330,-0.149,0.972,0.322,-0.122,0.732,-1.402,176.547
123704,156068,11019,-0.141,0.974,0.326,-0.122,0.732,-1.402,176.554
123700,156090,11330,-0.14,0.978,0.329,0.549,0.244,-0.915,176.557
123700,156112,11004,-0.144,0.979,0.335,0.549,0.244,-0.915,176.563
123696,156090,11330,-0.146,0.982,0.332,0.488,0.793,-0.61,176.567
123696,156080,10984,-0.151,0.984,0.338,0.488,0.793,-0.61,176.573
123712,156090,11330,-0.155,0.982,0.339,-0.244,1.159,-0.427,176.577
123712,156108,11000,-0.15,0.982,0.337,-0.244,1.159,-0.427,176.583
123718,156090,11330,-0.147,0.989,0.343,-0.915,0.793,-0.183,176.587
123718,156080,11013,-0.148,0.994,0.344,-0.915,0.793,-0.183,176.593
123694,156090,11330,-0.148,0.994,0.344,-0.915,0.793,-0.183,176.597
123694,156064,10995,-0.149,0.984,0.338,-2.256,0.793,0.122,176.603
123687,156090,11330,-0.149,0.984,0.338,-2.256,0.793,0.122,176.607
123687,156089,11002,-0.143,0.98,0.323,-3.171,0.244,0.305,176.613
123702,156090,11330,-0.143,0.98,0.323,-3.171,0.244,0.305,176.617
123702,156095,11007,-0.143,0.986,0.314,-3.293,-0.061,0.061,176.623
123702,156090,11330,-0.143,0.986,0.314,-3.293,-0.061,0.061,176.627
123702,156101,11005,-0.144,0.995,0.323,-2.5,0.305,-0.488,176.633
123729,156090,11330,-0.144,0.995,0.323,-2.5,0.305,-0.488,176.636
123729,156101,11012,-0.153,0.991,0.327,-2.683,0.671,-0.976,176.643
123721,156090,11330,-0.153,0.991,0.327,-2.683,0.671,-0.976,176.646
123721,156087,11013,-0.151,0.988,0.331,-4.024,0.122,-0.976,176.653
123728,156090,11330,-0.151,0.988,0.331,-4.024,0.122,-0.976,176.656
123728,156103,11008,-0.155,0.977,0.328,-4.939,-0.488,-0.793,176.662
123723,156090,11330,-0.155,0.977,0.328,-4.939,-0.488,-0.793,176.666
123723,156104,11002,-0.149,0.964,0.335,-4.268,-0.488,-0.671,176.672
123736,156090,11330,-0.149,0.964,0.335,-4.268,-0.488,-0.671,176.676
123736,156113,11005,-0.152,0.97,0.337,-2.927,-0.366,-0.366,176.682
123735,156090,11330,-0.152,0.97,0.337,-2.927,-0.366,-0.366,176.686
123735,156126,11012,-0.156,0.982,0.336,-1.89,0.427,0.122,176.692
123761,156090,11330,-0.156,0.982,0.336,-1.89,0.427,0.122,176.696
123761,156121,11013,-0.157,0.985,0.341,-1.585,0.915,0.488,176.702
123766,156090,11330,-0.157,0.985,0.341,-1.585,0.915,0.488,176.706
123766,156153,11014,-0.154,0.986,0.332,-2.134,0.671,0.671,176.712
123758,156090,11330,-0.154,0.986,0.332,-2.134,0.671,0.671,176.716
123758,156124,11010,-0.153,0.989,0.343,-2.744,0.61,0.671,176.722
123782,156090,11330,-0.153,0.989,0.343,-2.744,0.61,0.671,176.726
123782,156142,11006,-0.156,0.978,0.336,-3.11,1.28,0.183,176.732
123769,156090,11330,-0.156,0.978,0.336,-3.11,1.28,0.183,176.736
123769,156136,11006,-0.153,0.989,0.342,-3.78,1.22,-0.183,176.742
123777,156090,11330,-0.152,0.99,0.347,-3.78,1.22,-0.183,176.745
123777,156136,11012,-0.151,0.987,0.346,-4.817,1.098,-0.366,176.752
123788,156090,11330,-0.149,0.983,0.347,-4.817,1.098,-0.366,176.755
123788,156147,11013,-0.149,0.984,0.347,-5.549,1.22,-0.183,176.761
123785,156090,11330,-0.149,0.984,0.352,-5.549,1.22,-0.183,176.765
123785,156141,11011,-0.148,0.978,0.346,-5.854,1.037,0.061,176.771
123800,156346,11330,-0.147,0.975,0.348,-5.854,1.037,0.061,176.775
123800,156162,11016,-0.145,0.978,0.345,-5.427,0.915,-0.183,176.781
123804,156346,11330,-0.149,0.983,0.351,-5.427,0.915,-0.183,176.785
123804,156164,11005,-0.153,0.987,0.363,-5.122,1.341,0,176.791
123835,156346,11330,-0.155,0.989,0.361,-5.122,1.341,0,176.795
123835,156201,11029,-0.156,0.986,0.358,-5.61,1.585,0.061,176.801
123854,156346,11330,-0.156,0.982,0.356,-5.61,1.585,0.061,176.805
123854,156223,11018,-0.155,0.985,0.357,-6.463,1.768,-0.122,176.811
123876,156346,11330,-0.151,0.994,0.355,-6.463,1.768,-0.122,176.815
123876,156230,11037,-0.152,0.985,0.355,-7.378,2.012,-0.427,176.821
123891,156346,11330,-0.158,0.981,0.359,-7.378,2.012,-0.427,176.825
123891,156247,11034,-0.158,0.979,0.358,-8.171,2.5,-0.549,176.831
123901,156346,11330,-0.153,0.979,0.358,-8.171,2.5,-0.549,176.835
123901,156260,11026,-0.151,0.97,0.359,-8.598,2.683,-0.427,176.841
123887,156346,11330,-0.151,0.962,0.357,-8.598,2.683,-0.427,176.844
123887,156237,11029,-0.15,0.968,0.354,-7.073,2.683,-0.366,176.851
123898,156346,11330,-0.153,0.972,0.349,-7.073,2.683,-0.366,176.854
123898,156261,11029,-0.157,0.968,0.339,-5.61,2.988,-0.61,176.86
123899,156346,11330,-0.154,0.966,0.33,-5.61,2.988,-0.61,176.864
123899,156254,11026,-0.155,0.963,0.327,-4.329,2.378,-0.854,176.87
123873,156346,11330,-0.155,0.958,0.323,-4.329,2.378,-0.854,176.874
123873,156249,11029,-0.154,0.953,0.323,-2.5,2.012,-0.671,176.88
123912,156346,11330,-0.154,0.947,0.325,-2.5,2.012,-0.671,176.884
123912,156275,11029,-0.154,0.946,0.325,0.366,2.317,-0.305,176.89
123938,156346,11330,-0.156,0.961,0.326,0.366,2.317,-0.305,176.894
123938,156255,11031,-0.156,0.979,0.335,2.622,2.683,0.061,176.9
123937,156346,11330,-0.159,0.984,0.342,2.622,2.683,0.061,176.904
123937,156299,11031,-0.16,0.979,0.347,3.537,2.683,0,176.91
123941,156346,11330,-0.165,0.975,0.346,3.537,2.683,0,176.914
123941,156301,11029,-0.159,0.982,0.347,3.11,1.585,0.061,176.92
123933,156346,11330,-0.154,0.99,0.345,3.11,1.585,0.061,176.924
123933,156298,11034,-0.15,0.994,0.34,0.549,0.488,-0.183,176.93
123956,156346,11330,-0.147,0.982,0.337,0.549,0.488,-0.183,176.933
123956,156290,11038,-0.148,0.969,0.334,-1.463,0,-0.61,176.94
123926,156346,11330,-0.152,0.963,0.326,-1.463,0,-0.61,176.943
123926,156275,11027,-0.147,0.965,0.324,-1.951,-0.61,-0.366,176.95
123911,156346,11330,-0.149,0.966,0.323,-1.951,-0.61,-0.366,176.953
123911,156299,11026,-0.144,0.964,0.327,-1.463,-0.854,0.061,176.959
123918,156346,11330,-0.146,0.968,0.33,-1.463,-0.854,0.061,176.963
123918,156278,11037,-0.157,0.976,0.333,-0.549,-0.122,0.488,176.969
123944,156346,11330,-0.155,0.978,0.336,-0.549,-0.122,0.488,176.973
123944,156294,11040,-0.149,0.98,0.348,-0.305,-0.671,0.793,176.979
123937,156346,11330,-0.148,0.978,0.351,-0.305,-0.671,0.793,176.983
123937,156278,11046,-0.153,0.973,0.343,-0.671,-0.976,0.915,176.989
123929,156346,11330,-0.154,0.977,0.347,-0.671,-0.976,0.915,176.993
123929,156294,11055,-0.156,0.98,0.353,-0.488,-0.183,0.976,176.999
123943,156346,11330,-0.154,0.982,0.356,-0.488,-0.183,0.976,177.003
123943,156309,11041,-0.153,0.981,0.354,0,-0.427,1.098,177.009
123962,156346,11330,-0.155,0.984,0.356,0,-0.427,1.098,177.013
123962,156339,11040,-0.153,0.983,0.357,-0.427,-0.854,1.159,177.019
123965,156346,11330,-0.153,0.977,0.356,-0.427,-0.854,1.159,177.023
123965,156306,11039,-0.155,0.974,0.349,-0.244,-0.732,1.098,177.029
123962,156346,11330,-0.155,0.981,0.347,-0.244,-0.732,1.098,177.032
123962,156316,11046,-0.157,0.985,0.352,-0.671,-0.305,0.732,177.039
123980,156346,11330,-0.158,0.981,0.355,-0.671,-0.305,0.732,177.042
123980,156333,11058,-0.161,0.974,0.352,-1.402,-0.549,0.61,177.049
123995,156346,11330,-0.162,0.969,0.349,-1.402,-0.549,0.61,177.052
123995,156359,11042,-0.165,0.962,0.342,-2.073,-0.793,0.671,177.058
124014,156346,11330,-0.163,0.96,0.344,-2.073,-0.793,0.671,177.062
124014,156358,11047,-0.162,0.96,0.343,-0.854,-0.854,1.159,177.068
123995,156346,11330,-0.166,0.963,0.339,-0.854,-0.854,1.159,177.072
123995,156348,11042,-0.16,0.966,0.337,0.793,-0.671,1.646,177.078
123991,156346,11330,-0.156,0.976,0.349,0.793,-0.671,1.646,177.082
123991,156350,11042,-0.158,0.99,0.348,2.012,-0.183,1.951,177.088
123959,156346,11330,-0.17,0.989,0.349,2.012,-0.183,1.951,177.092
123959,156341,11032,-0.176,0.992,0.35,2.195,0.61,1.951,177.098
123930,156346,11330,-0.168,0.996,0.353,2.195,0.61,1.951,177.102
123930,156301,11032,-0.158,0.998,0.352,0.793,-0.427,1.89,177.108
123941,156346,11330,-0.151,0.997,0.351,0.793,-0.427,1.89,177.112
123941,156277,11042,-0.162,0.991,0.342,-1.159,-0.793,1.524,177.118
123893,156346,11330,-0.161,0.987,0.339,-1.159,-0.793,1.524,177.122
123893,156268,11028,-0.153,0.987,0.342,-2.134,-0.244,0.61,177.128
123898,156346,11330,-0.158,0.981,0.34,-2.134,-0.244,0.61,177.131
123898,156234,11031,-0.156,0.972,0.342,-1.768,-0.732,0.244,177.138
123890,156346,11330,-0.146,0.968,0.346,-1.768,-0.732,0.244,177.141
123890,156250,11034,-0.142,0.973,0.349,-0.488,-1.463,0.427,177.148
123884,156346,11330,-0.148,0.973,0.349,-0.488,-1.463,0.427,177.151
123884,156260,11046,-0.154,0.974,0.344,0.549,-0.793,0.61,177.157
123907,156346,11330,-0.149,0.974,0.342,0.549,-0.793,0.61,177.161
123907,156264,11032,-0.149,0.974,0.341,1.037,-0.61,0.427,177.167
123923,156346,11330,-0.149,0.974,0.341,1.037,-0.61,0.427,177.171
123923,156272,11048,-0.149,0.975,0.343,0.854,-1.098,0.488,177.177
123936,156346,11330,-0.149,0.975,0.343,0.854,-1.098,0.488,177.181
123936,156301,11033,-0.144,0.985,0.344,0.488,-1.341,0.854,177.187
123956,156346,11330,-0.144,0.985,0.344,0.488,-1.341,0.854,177.191
123956,156301,11045,-0.134,0.983,0.35,0.305,-1.341,0.854,177.197
123960,156346,11330,-0.134,0.983,0.35,0.305,-1.341,0.854,177.201
123960,156328,11045,-0.15,0.979,0.342,-0.122,-0.488,0.854,177.207
123994,156346,11330,-0.15,0.979,0.342,-0.122,-0.488,0.854,177.211
123994,156332,11036,-0.147,0.99,0.344,-1.159,-0.915,0.915,177.217
124018,156346,11330,-0.147,0.99,0.344,-1.159,-0.915,0.915,177.221
124018,156367,11048,-0.13,0.984,0.359,-1.341,-1.951,0.976,177.227
124008,156346,11330,-0.13,0.984,0.359,-1.341,-1.951,0.976,177.23
124008,156357,11045,-0.139,0.977,0.36,-0.427,-0.854,0.732,177.237
124032,156346,11330,-0.139,0.977,0.36,-0.427,-0.854,0.732,177.24
124032,156391,11058,-0.15,0.983,0.357,0.061,0.305,0.488,177.246
124038,156346,11330,-0.15,0.983,0.357,0.061,0.305,0.488,177.25
124038,156382,11049,-0.15,0.984,0.362,-0.549,-0.061,0.305,177.256
124018,156346,11330,-0.15,0.984,0.362,-0.549,-0.061,0.305,177.26
124018,156383,11048,-0.15,0.975,0.369,-1.463,-0.732,0.244,177.266
124032,156346,11330,-0.15,0.975,0.369,-1.463,-0.732,0.244,177.27
124032,156360,11038,-0.148,0.961,0.359,-1.098,-0.549,0.488,177.276
123996,156346,11330,-0.148,0.961,0.359,-1.098,-0.549,0.488,177.28
123996,156329,11063,-0.153,0.973,0.353,0.244,0.549,0.732,177.286
123974,156346,11330,-0.153,0.973,0.353,0.244,0.549,0.732,177.29
123974,156319,11039,-0.155,0.984,0.354,0.915,0.976,0.61,177.296
123956,156346,11330,-0.155,0.984,0.354,0.915,0.976,0.61,177.3
123956,156296,11045,-0.155,0.977,0.348,-0.183,0.488,0.549,177.306
123945,156346,11330,-0.155,0.977,0.348,-0.183,0.488,0.549,177.31
123945,156306,11015,-0.154,0.971,0.349,-0.183,0.488,0.549,177.316
123949,156346,11330,-0.154,0.972,0.347,-0.915,0.183,0.61,177.32
123949,156260,11045,-0.155,0.975,0.343,-0.915,0.183,0.61,177.326
123940,156346,11330,-0.152,0.98,0.344,-0.305,0.427,0.549,177.329
123940,156268,11034,-0.151,0.981,0.352,-0.305,0.427,0.549,177.336
123934,156346,11330,-0.15,0.98,0.352,0.793,0.732,0.244,177.339
123934,156285,11037,-0.152,0.981,0.347,0.793,0.732,0.244,177.346
123936,156346,11330,-0.149,0.983,0.342,0.732,0.732,0.061,177.349
123936,156295,11025,-0.149,0.981,0.343,0.732,0.732,0.061,177.355
123948,156346,11330,-0.148,0.978,0.345,-0.122,0.183,-0.183,177.359
123948,156317,11026,-0.145,0.97,0.344,-0.122,0.183,-0.183,177.365
123956,156346,11330,-0.143,0.964,0.346,-1.098,-0.488,-0.244,177.369
123956,156339,11038,-0.144,0.955,0.348,-1.098,-0.488,-0.244,177.375
123955,156346,11330,-0.144,0.949,0.348,-1.159,-0.854,-0.183,177.379
123955,156311,11034,-0.145,0.948,0.35,-1.159,-0.854,-0.183,177.385
123959,156346,11330,-0.146,0.952,0.355,0,-0.732,0.366,177.389
123959,156289,11033,-0.15,0.956,0.361,0,-0.732,0.366,177.395
123972,156346,11330,-0.153,0.961,0.362,1.402,-0.488,0.976,177.399
123972,156308,11044,-0.152,0.964,0.353,1.402,-0.488,0.976,177.405
123944,156346,11330,-0.155,0.967,0.351,1.707,-0.427,1.341,177.409
123944,156335,11031,-0.154,0.973,0.359,1.707,-0.427,1.341,177.415
123963,156346,11330,-0.155,0.976,0.358,1.28,-0.244,1.707,177.419
123963,156310,11036,-0.156,0.975,0.354,1.28,-0.244,1.707,177.425
123973,156346,11330,-0.155,0.972,0.349,0.244,0,2.012,177.428
123973,156302,11036,-0.154,0.968,0.347,0.244,0,2.012,177.435
123969,156346,11330,-0.151,0.968,0.348,-0.366,-0.122,2.317,177.438
123969,156324,11054,-0.148,0.971,0.347,-0.366,-0.122,2.317,177.444
123974,156346,11330,-0.146,0.971,0.351,-0.061,0,2.439,177.448
123974,156328,11049,-0.148,0.972,0.346,-0.061,0,2.439,177.454
124003,156346,11330,-0.146,0.972,0.347,0.549,0.183,2.561,177.458
124003,156324,11034,-0.146,0.974,0.35,0.549,0.183,2.561,177.464
123980,156346,11330,-0.147,0.981,0.348,1.159,0.305,2.561,177.468
123980,156316,11037,-0.146,0.99,0.347,1.159,0.305,2.561,177.474
123977,156346,11330,-0.148,0.99,0.347,1.098,0.549,2.561,177.478
123977,156342,11046,-0.146,0.987,0.35,1.098,0.549,2.561,177.484
123977,156346,11330,-0.148,0.983,0.353,0.305,0.122,2.378,177.488
123977,156348,11031,-0.147,0.975,0.354,0.305,0.122,2.378,177.494
123973,156346,11330,-0.146,0.978,0.35,0.061,0,2.256,177.498
123973,156322,11046,-0.147,0.976,0.352,0.061,0,2.256,177.504
123962,156346,11330,-0.146,0.978,0.348,0.915,0.61,2.256,177.508
123962,156343,11026,-0.146,0.984,0.35,0.915,0.61,2.256,177.514
123971,156346,11330,-0.148,0.987,0.356,1.768,0.915,2.073,177.518
123971,156313,11035,-0.147,0.991,0.356,1.768,0.915,2.073,177.524
123958,156346,11330,-0.147,0.993,0.354,1.951,0.854,1.829,177.527
123958,156329,11027,-0.149,0.993,0.355,1.951,0.854,1.829,177.534
123959,156346,11330,-0.151,0.988,0.351,0.915,0.915,1.463,177.537
123959,156359,11030,-0.148,0.982,0.35,0.915,0.915,1.463,177.543
123956,156346,11330,-0.148,0.975,0.348,0.122,0.854,1.402,177.547
123956,156295,11031,-0.145,0.973,0.346,0.122,0.854,1.402,177.553
123957,156346,11330,-0.143,0.975,0.35,0.122,0.854,1.341,177.557
123957,156314,11034,-0.146,0.976,0.344,0.122,0.854,1.341,177.563
123954,156346,11330,-0.14,0.974,0.345,0.793,1.159,1.098,177.567
123954,156296,11051,-0.139,0.971,0.349,0.793,1.159,1.098,177.573
123951,156346,11330,-0.142,0.971,0.349,1.28,1.037,1.28,177.577
123951,156316,11045,-0.143,0.97,0.349,1.28,1.037,1.28,177.583
123935,156346,11330,-0.142,0.969,0.351,1.524,1.037,1.646,177.587
123935,156304,11018,-0.145,0.97,0.344,1.524,1.037,1.646,177.593
123943,156346,11330,-0.144,0.975,0.342,1.524,1.098,1.768,177.597
123943,156307,11019,-0.144,0.983,0.345,1.524,1.098,1.768,177.603
123946,156346,11330,-0.141,0.979,0.344,0.976,0.854,2.012,177.607
123946,156293,11033,-0.141,0.974,0.345,0.976,0.854,2.012,177.613
123926,156346,11330,-0.143,0.975,0.343,0.976,0.549,2.378,177.616
123926,156280,11019,-0.144,0.976,0.346,0.976,0.549,2.378,177.623
123935,156346,11330,-0.144,0.98,0.352,1.22,1.037,3.049,177.626
123935,156284,11043,-0.144,0.983,0.351,1.22,1.037,3.049,177.633
123941,156346,11330,-0.144,0.985,0.348,1.28,1.707,3.293,177.636
123941,156285,11037,-0.146,0.99,0.348,1.28,1.707,3.293,177.642
123928,156346,11330,-0.141,0.99,0.349,0.549,1.707,3.11,177.646
123928,156269,11014,-0.144,0.99,0.347,0.549,1.707,3.11,177.652
123927,156346,11330,-0.148,0.988,0.344,-0.427,1.28,2.866,177.656
123927,156281,11026,-0.145,0.985,0.345,-0.427,1.28,2.866,177.662
123905,156346,11330,-0.141,0.983,0.342,-0.671,0.976,2.439,177.666
123905,156253,11024,-0.137,0.978,0.341,-0.671,0.976,2.439,177.672
123906,156346,11330,-0.142,0.988,0.341,-0.427,1.159,2.195,177.676
123906,156254,11029,-0.14,0.989,0.346,-0.427,1.159,2.195,177.682
123926,156346,11330,-0.141,0.983,0.345,-0.427,1.159,1.951,177.686
123926,156285,11012,-0.142,0.976,0.337,-0.427,1.159,1.951,177.692
123927,156346,11330,-0.142,0.974,0.333,-0.793,0.854,1.524,177.696
123927,156266,11028,-0.143,0.978,0.328,-0.793,0.854,1.524,177.702
123932,156346,11330,-0.142,0.984,0.332,-0.915,0.366,1.463,177.706
123932,156309,11029,-0.142,0.984,0.335,-0.915,0.366,1.463,177.712
123927,156346,11330,-0.142,0.981,0.34,-0.671,0.305,1.585,177.715
123927,156287,11037,-0.142,0.978,0.34,-0.671,0.305,1.585,177.722
123927,156346,11330,-0.138,0.979,0.345,-0.183,0.427,1.585,177.725
123927,156286,11044,-0.141,0.978,0.347,-0.183,0.427,1.585,177.732
123950,156346,11330,-0.141,0.985,0.35,0.305,0.61,1.829,177.735
123950,156284,11032,-0.138,0.993,0.348,0.305,0.61,1.829,177.741
123950,156346,11330,-0.142,0.993,0.347,-0.244,0.976,1.89,177.745
123950,156296,11037,-0.138,0.99,0.343,-0.244,0.976,1.89,177.751
123939,156346,11330,-0.138,0.99,0.343,-0.244,0.976,1.89,177.755
123939,156282,11034,-0.137,0.987,0.342,-1.098,0.732,1.585,177.761
123922,156346,11330,-0.137,0.987,0.342,-1.098,0.732,1.585,177.765
123922,156284,11031,-0.139,0.983,0.345,-1.707,0.305,1.463,177.771
123921,156346,11330,-0.139,0.983,0.345,-1.707,0.305,1.463,177.775
123921,156271,11030,-0.139,0.989,0.344,-1.463,0.549,1.28,177.781
123932,156346,11330,-0.139,0.989,0.344,-1.463,0.549,1.28,177.785
123932,156275,11033,-0.144,0.985,0.347,-1.037,0.793,1.159,177.791
123933,156346,11330,-0.144,0.985,0.347,-1.037,0.793,1.159,177.795
123933,156287,11020,-0.137,0.983,0.349,-0.671,0.549,1.037,177.801
123934,156346,11330,-0.137,0.983,0.349,-0.671,0.549,1.037,177.805
123934,156260,11009,-0.143,0.983,0.347,-0.549,0.61,0.854,177.811
123909,156346,11330,-0.143,0.983,0.347,-0.549,0.61,0.854,177.814
123909,156284,11021,-0.146,0.985,0.349,-0.61,1.22,0.793,177.821
123912,156346,11330,-0.146,0.985,0.349,-0.61,1.22,0.793,177.824
123912,156279,11033,-0.139,0.976,0.342,-1.22,0.976,0.915,177.831
123936,156346,11330,-0.139,0.976,0.342,-1.22,0.976,0.915,177.834
123936,156280,11024,-0.143,0.975,0.337,-1.28,0.854,1.28,177.84
123948,156346,11330,-0.143,0.975,0.337,-1.28,0.854,1.28,177.844
123948,156277,11040,-0.148,0.991,0.334,-0.183,1.524,1.22,177.85
123933,156346,11330,-0.148,0.991,0.334,-0.183,1.524,1.22,177.854
123933,156303,11026,-0.145,0.984,0.346,0.061,1.463,0.915,177.86
123952,156346,11330,-0.145,0.984,0.346,0.061,1.463,0.915,177.864
123952,156298,11036,-0.143,0.98,0.348,-0.305,0.366,1.159,177.87
123971,156346,11330,-0.143,0.98,0.348,-0.305,0.366,1.159,177.874
123971,156318,11040,-0.145,0.984,0.345,-0.549,0.488,1.463,177.88
123967,156346,11330,-0.145,0.984,0.345,-0.549,0.488,1.463,177.884
123967,156333,11038,-0.144,0.995,0.335,0.122,1.28,1.037,177.89
123965,156346,11330,-0.144,0.995,0.335,0.122,1.28,1.037,177.894
123965,156314,11036,-0.149,0.993,0.337,-1.098,0.854,0.549,177.9
123976,156346,11330,-0.148,0.987,0.331,-1.098,0.854,0.549,177.904
123976,156286,11048,-0.143,0.979,0.324,-2.866,-0.244,0.366,177.91
123956,156346,11330,-0.14,0.982,0.324,-2.866,-0.244,0.366,177.913
123956,156296,11045,-0.139,0.98,0.33,-3.902,-0.793,0.427,177.92
123951,156346,11330,-0.14,0.977,0.336,-3.902,-0.793,0.427,177.923
123951,156280,11013,-0.143,0.984,0.337,-3.902,-0.305,0.366,177.93
123928,156346,11330,-0.142,0.991,0.339,-3.902,-0.305,0.366,177.933
123928,156271,11038,-0.14,0.988,0.348,-4.634,-0.244,0.488,177.939
123932,156346,11330,-0.141,0.982,0.354,-4.634,-0.244,0.488,177.943
123932,156250,11036,-0.14,0.983,0.355,-4.634,-0.549,0.671,177.949
123903,156346,11330,-0.138,0.985,0.347,-4.634,-0.549,0.671,177.953
123903,156261,11031,-0.138,0.981,0.348,-4.878,-0.427,0.671,177.959
123899,156346,11330,-0.137,0.972,0.348,-4.878,-0.427,0.671,177.963
123899,156253,11044,-0.137,0.968,0.349,-4.512,-0.61,0.61,177.969
123885,156346,11330,-0.133,0.97,0.348,-4.512,-0.61,0.61,177.973
123885,156240,11036,-0.131,0.973,0.349,-3.78,-0.488,0.671,177.979
123903,156346,11330,-0.131,0.976,0.352,-3.78,-0.488,0.671,177.983
123903,156245,11028,-0.135,0.973,0.357,-2.988,-0.305,0.61,177.989
123890,156346,11330,-0.135,0.967,0.362,-2.988,-0.305,0.61,177.993
123890,156221,11025,-0.133,0.966,0.363,-2.439,-0.305,0.549,177.999
123882,156346,11330,-0.136,0.975,0.36,-2.439,-0.305,0.549,178.003
123882,156225,11015,-0.134,0.977,0.362,-2.5,-0.244,0.549,178.009
123893,156346,11330,-0.136,0.979,0.362,-2.5,-0.244,0.549,178.012
123893,156238,11038,-0.138,0.977,0.362,-2.5,-0.488,0.61,178.019
123890,156346,11330,-0.139,0.975,0.359,-2.5,-0.488,0.61,178.022
123890,156229,11027,-0.137,0.973,0.355,-2.683,-0.671,0.61,178.029
123867,156346,11330,-0.137,0.978,0.358,-2.683,-0.671,0.61,178.032
123867,156221,11028,-0.138,0.98,0.361,-2.561,-0.366,0.61,178.038
123894,156346,11330,-0.143,0.979,0.361,-2.561,-0.366,0.61,178.042
123894,156230,11028,-0.145,0.972,0.359,-2.683,0.122,0.793,178.048
123883,156346,11330,-0.146,0.971,0.354,-2.683,0.122,0.793,178.052
123883,156231,11011,-0.145,0.974,0.354,-2.988,0.305,1.037,178.058
123883,156346,11330,-0.138,0.971,0.356,-2.988,0.305,1.037,178.062
123883,156230,11023,-0.137,0.964,0.36,-2.073,0.244,0.976,178.068
123875,156346,11330,-0.137,0.964,0.361,-2.073,0.244,0.976,178.072
123875,156228,11020,-0.142,0.968,0.359,0.549,0.793,0.793,178.078
123878,156346,11330,-0.142,0.979,0.367,0.549,0.793,0.793,178.082
123878,156216,11018,-0.143,0.983,0.369,2.317,1.707,0.732,178.088
123898,156346,11330,-0.143,0.988,0.372,2.317,1.707,0.732,178.092
123898,156241,11033,-0.138,0.996,0.372,3.11,2.012,0.488,178.098
123867,156346,11330,-0.14,0.996,0.373,3.11,2.012,0.488,178.102
123867,156228,11028,-0.138,0.993,0.374,3.049,2.195,-0.122,178.108
123902,156346,11330,-0.139,0.995,0.37,3.049,2.195,-0.122,178.111
123902,156260,11024,-0.14,0.993,0.363,1.646,2.439,-0.671,178.118
123920,156346,11330,-0.135,0.992,0.354,1.646,2.439,-0.671,178.121
123920,156256,11037,-0.134,0.979,0.348,-0.061,1.951,-0.976,178.128
123935,156346,11330,-0.135,0.968,0.343,-0.061,1.951,-0.976,178.131
123935,156279,11022,-0.136,0.963,0.339,-0.671,1.28,-0.915,178.137
123912,156346,11330,-0.136,0.958,0.336,-0.671,1.28,-0.915,178.141
123912,156265,11035,-0.133,0.956,0.337,-0.366,1.22,-0.61,178.147
123917,156346,11330,-0.134,0.955,0.34,-0.366,1.22,-0.61,178.151
123917,156236,11034,-0.134,0.955,0.346,0.854,1.341,-0.061,178.157
123928,156346,11330,-0.135,0.959,0.345,0.854,1.341,-0.061,178.161
123928,156235,11016,-0.137,0.964,0.347,1.585,1.341,0.793,178.167
123900,156346,11330,-0.135,0.968,0.349,1.585,1.341,0.793,178.171
123900,156208,11042,-0.135,0.971,0.345,1.159,0.854,1.22,178.177
123876,156346,11330,-0.134,0.974,0.346,1.159,0.854,1.22,178.181
123876,156244,11036,-0.133,0.971,0.352,0.427,0.366,1.524,178.187
123865,156346,11330,-0.136,0.969,0.355,0.427,0.366,1.524,178.191
123865,156208,11033,-0.136,0.972,0.357,0.305,0.305,1.707,178.197
123878,156346,11330,-0.14,0.971,0.355,0.305,0.305,1.707,178.201
123878,156216,11024,-0.138,0.971,0.357,0.732,0.366,2.012,178.207
123870,156346,11330,-0.139,0.976,0.355,0.732,0.366,2.012,178.21
123870,156210,11025,-0.138,0.985,0.351,1.159,0.427,2.012,178.217
123873,156346,11330,-0.138,0.989,0.347,1.159,0.427,2.012,178.22
123873,156194,11026,-0.14,0.988,0.351,1.341,0.732,1.768,178.226
123866,156346,11330,-0.139,0.993,0.344,1.341,0.732,1.768,178.23
123866,156191,11007,-0.132,0.995,0.343,1.098,0.915,1.524,178.236
123847,156346,11330,-0.14,0.988,0.345,1.098,0.915,1.524,178.24
123847,156187,11022,-0.147,0.983,0.346,1.402,1.524,0.976,178.246
123849,156346,11330,-0.152,0.985,0.341,1.402,1.524,0.976,178.25
123849,156193,11026,-0.154,0.996,0.335,1.28,1.585,0.793,178.256
123860,156346,11330,-0.147,0.993,0.343,1.28,1.585,0.793,178.26
123860,156169,11019,-0.139,0.989,0.34,0.976,0.427,0.793,178.266
123822,156346,11330,-0.138,0.983,0.336,0.976,0.427,0.793,178.27
123822,156181,11019,-0.141,0.982,0.337,0.671,0.183,0.671,178.276
123829,156090,11330,-0.14,0.985,0.339,0.671,0.183,0.671,178.28
123829,156154,11016,-0.136,0.981,0.35,0.793,0.488,0.366,178.286
123812,156346,11330,-0.136,0.981,0.355,0.793,0.488,0.366,178.29
123812,156173,11005,-0.139,0.98,0.352,0.915,0.549,0.549,178.296
123811,156090,11330,-0.137,0.977,0.353,0.915,0.549,0.549,178.299
123811,156148,11013,-0.138,0.976,0.35,0.732,0.854,0.732,178.306
123817,156090,11330,-0.14,0.976,0.35,0.732,0.854,0.732,178.309
123817,156158,11008,-0.138,0.979,0.355,0.427,0.549,0.793,178.316
123821,156090,11330,-0.133,0.978,0.356,0.427,0.549,0.793,178.319
123821,156151,11013,-0.132,0.973,0.352,-0.061,0.366,1.037,178.325
123817,156346,11330,-0.13,0.977,0.351,-0.061,0.366,1.037,178.329
123817,156170,11011,-0.132,0.982,0.354,1.159,1.098,1.28,178.335
123838,156090,11330,-0.132,0.982,0.354,1.159,1.098,1.28,178.339
123838,156143,11018,-0.144,0.989,0.342,2.012,2.073,0.915,178.345
123822,156346,11330,-0.144,0.989,0.342,2.012,2.073,0.915,178.349
123822,156171,11012,-0.14,0.988,0.347,1.707,1.037,0.854,178.355
123829,156346,11330,-0.14,0.988,0.347,1.707,1.037,0.854,178.359
123829,156176,11027,-0.137,0.984,0.345,0.488,0.305,1.098,178.365
123835,156346,11330,-0.137,0.984,0.345,0.488,0.305,1.098,178.369
123835,156179,11015,-0.13,0.984,0.334,-1.098,0.183,1.159,178.375
123846,156346,11330,-0.13,0.984,0.334,-1.098,0.183,1.159,178.379
123846,156185,11017,-0.136,0.98,0.343,-0.854,0.122,0.976,178.385
123837,156346,11330,-0.136,0.98,0.343,-0.854,0.122,0.976,178.389
123837,156195,11028,-0.135,0.98,0.337,-0.549,0.305,1.098,178.395
123848,156346,11330,-0.135,0.98,0.337,-0.549,0.305,1.098,178.398
123848,156191,11019,-0.133,0.978,0.336,-0.915,0.183,1.341,178.405
123852,156346,11330,-0.133,0.978,0.336,-0.915,0.183,1.341,178.408
123852,156189,11021,-0.132,0.974,0.343,-0.61,0.305,1.28,178.415
123841,156346,11330,-0.132,0.974,0.343,-0.61,0.305,1.28,178.418
123841,156194,11020,-0.144,0.982,0.358,-0.61,0.854,1.402,178.424
123846,156346,11330,-0.144,0.982,0.358,-0.61,0.854,1.402,178.428
123846,156162,11022,-0.136,0.975,0.363,-0.671,0.122,1.89,178.434
123825,156090,11330,-0.136,0.975,0.363,-0.671,0.122,1.89,178.438
123825,156154,11006,-0.138,0.978,0.356,-1.159,-0.366,2.317,178.444
123842,156346,11330,-0.138,0.978,0.356,-1.159,-0.366,2.317,178.448
123842,156166,11017,-0.125,0.98,0.357,-0.976,0.061,2.256,178.454
123841,156090,11330,-0.125,0.98,0.357,-0.976,0.061,2.256,178.458
123841,156156,11024,-0.144,0.979,0.338,-0.671,0.976,1.707,178.464
123823,156346,11330,-0.144,0.979,0.338,-0.671,0.976,1.707,178.468
123823,156188,11005,-0.148,0.973,0.328,-0.671,0.976,1.707,178.474
123842,156346,11330,-0.145,0.975,0.323,-0.793,0.488,1.524,178.478
123842,156168,11008,-0.137,0.984,0.323,-0.793,0.488,1.524,178.484
123834,156346,11330,-0.13,0.986,0.33,-0.793,-0.793,1.524,178.488
123834,156174,11016,-0.129,0.979,0.34,-0.793,-0.793,1.524,178.494
123828,156346,11330,-0.131,0.975,0.341,0.183,-0.61,1.707,178.497
123828,156183,11015,-0.136,0.974,0.34,0.183,-0.61,1.707,178.504
123816,156346,11330,-0.138,0.977,0.353,0.244,0.427,1.707,178.507
123816,156171,11001,-0.136,0.976,0.367,0.244,0.427,1.707,178.514
123822,156346,11330,-0.139,0.973,0.371,0.427,0.671,1.707,178.517
123822,156182,11006,-0.137,0.968,0.366,0.427,0.671,1.707,178.523
123826,156346,11330,-0.137,0.968,0.369,0.671,0.671,2.195,178.527
123826,156176,11018,-0.137,0.968,0.373,0.671,0.671,2.195,178.533
123825,156346,11330,-0.134,0.974,0.375,1.22,1.098,2.378,178.537
123825,156166,11021,-0.133,0.98,0.368,1.22,1.098,2.378,178.543
123805,156090,11330,-0.134,0.979,0.359,1.402,1.524,2.256,178.547
123805,156141,11013,-0.132,0.973,0.352,1.402,1.524,2.256,178.553
123799,156346,11330,-0.133,0.974,0.352,2.073,1.341,2.256,178.557
123799,156160,11024,-0.131,0.975,0.352,2.073,1.341,2.256,178.563
123763,156090,11330,-0.133,0.977,0.351,2.988,1.524,2.439,178.567
123763,156139,11018,-0.133,0.981,0.35,2.988,1.524,2.439,178.573
123769,156090,11330,-0.137,0.979,0.345,3.171,2.073,2.5,178.577
123769,156130,11007,-0.138,0.976,0.337,3.171,2.073,2.5,178.583
123751,156090,11330,-0.132,0.978,0.326,2.561,1.768,2.439,178.587
123751,156131,11006,-0.13,0.981,0.318,2.561,1.768,2.439,178.593
123752,156090,11330,-0.131,0.975,0.307,2.256,1.159,2.378,178.596
123752,156095,11003,-0.131,0.977,0.304,2.256,1.159,2.378,178.603
123740,156090,11330,-0.129,0.993,0.304,2.256,0.732,2.195,178.606
123740,156091,10992,-0.121,1.007,0.314,2.256,0.732,2.195,178.613
123732,156090,11330,-0.122,1.006,0.33,2.256,0.061,2.134,178.616
123732,156081,11008,-0.13,0.996,0.341,2.256,0.061,2.134,178.622
123700,156090,11330,-0.13,0.985,0.342,2.744,-0.061,2.195,178.626
123700,156047,10993,-0.13,0.979,0.348,2.744,-0.061,2.195,178.632
123684,156090,11330,-0.132,0.98,0.357,2.195,-0.305,2.134,178.636
123684,156041,10998,-0.13,0.98,0.371,2.195,-0.305,2.134,178.642
123665,156090,11330,-0.134,0.979,0.37,2.378,-0.244,2.012,178.646
123665,156018,10989,-0.136,0.978,0.367,2.378,-0.244,2.012,178.652
123639,156090,11330,-0.135,0.969,0.368,2.744,0.427,2.195,178.656
123639,156004,10986,-0.13,0.969,0.36,2.744,0.427,2.195,178.662
123598,156090,11330,-0.129,0.973,0.356,3.963,0.671,2.439,178.666
123598,155967,10991,-0.133,0.979,0.352,3.963,0.671,2.439,178.672
123591,156090,11330,-0.135,0.988,0.347,5,0.915,2.195,178.676
123591,155975,10967,-0.134,0.988,0.346,5,0.915,2.195,178.682
123547,156090,11330,-0.127,0.983,0.343,4.146,0.488,1.89,178.686
123547,155915,10985,-0.126,0.977,0.342,4.146,0.488,1.89,178.692
123529,156090,11330,-0.13,0.976,0.341,2.927,0.366,2.073,178.695
123529,155911,10980,-0.13,0.971,0.336,2.927,0.366,2.073,178.702
123487,155834,11330,-0.134,0.962,0.324,3.171,0.61,2.378,178.705
123487,155845,10966,-0.136,0.963,0.314,3.171,0.61,2.378,178.712
123459,155834,11330,-0.132,0.974,0.308,4.024,0.427,2.439,178.715
123459,155832,10962,-0.126,0.99,0.314,4.024,0.427,2.439,178.721
123447,155834,11330,-0.122,0.998,0.322,3.476,-0.061,2.317,178.725
123447,155822,10969,-0.12,0.999,0.322,3.476,-0.061,2.317,178.731
123449,155834,11330,-0.126,0.995,0.325,2.561,-0.061,2.378,178.735
123449,155831,10962,-0.128,0.988,0.331,2.561,-0.061,2.378,178.741
123465,155834,11330,-0.131,0.982,0.333,1.585,-0.427,2.5,178.745
123465,155833,10959,-0.131,0.981,0.339,1.585,-0.427,2.5,178.751
123430,155834,11330,-0.13,0.979,0.343,1.402,-1.159,2.805,178.755
123430,155857,10967,-0.126,0.971,0.349,1.402,-1.159,2.805,178.761
123444,155834,11330,-0.126,0.968,0.347,2.5,-1.037,2.988,178.765
123444,155835,10959,-0.126,0.968,0.349,2.5,-1.037,2.988,178.771
123457,155834,11330,-0.126,0.973,0.358,5.366,-0.122,3.354,178.775
123457,155838,10964,-0.127,0.976,0.351,5.366,-0.122,3.354,178.781
123459,155834,11330,-0.123,0.976,0.35,7.805,0.061,3.72,178.785
123459,155829,10964,-0.119,0.983,0.351,7.805,0.061,3.72,178.791
123418,155834,11330,-0.118,0.99,0.351,9.39,0.427,3.841,178.794
123418,155838,10965,-0.122,0.992,0.351,9.39,0.427,3.841,178.801
123428,155834,11330,-0.124,0.995,0.348,8.78,1.28,3.537,178.804
123428,155810,10956,-0.127,1,0.348,8.78,1.28,3.537,178.811
123445,155834,11330,-0.126,1.006,0.343,5.671,1.341,3.171,178.814
123445,155813,10954,-0.119,1.016,0.335,5.671,1.341,3.171,178.82
123442,155834,11330,-0.116,1.018,0.332,2.073,0.915,2.683,178.824
123442,155856,10963,-0.116,1.013,0.328,2.073,0.915,2.683,178.83
123441,155834,11330,-0.117,1.007,0.322,-0.61,0.61,1.89,178.834
123441,155834,10963,-0.118,1.004,0.315,-0.61,0.61,1.89,178.84
123472,155834,11330,-0.119,1,0.317,-1.951,0.305,1.28,178.844
123472,155826,10960,-0.116,0.998,0.324,-1.951,0.305,1.28,178.85
123478,155834,11330,-0.114,0.996,0.328,-1.463,0.183,1.22,178.854
123478,155869,10970,-0.119,0.998,0.329,-1.463,0.183,1.22,178.86
123500,155834,11330,-0.124,0.997,0.329,-0.488,0.61,1.463,178.864
123500,155882,10954,-0.126,0.99,0.333,-0.488,0.61,1.463,178.87
123530,156090,11330,-0.124,0.988,0.335,0.061,0.976,1.585,178.874
123530,155907,10966,-0.123,0.996,0.342,0.061,0.976,1.585,178.88
123555,156090,11330,-0.123,0.991,0.344,-0.549,0.915,1.402,178.884
123555,155916,10980,-0.123,0.988,0.344,-0.549,0.915,1.402,178.89
123514,155834,11330,-0.125,0.984,0.343,-1.098,0.976,1.037,178.893
123514,155884,10977,-0.124,0.978,0.338,-1.098,0.976,1.037,178.9
123503,155834,11330,-0.123,0.976,0.335,-1.524,1.159,1.159,178.903
123503,155855,10967,-0.121,0.974,0.336,-1.524,1.159,1.159,178.909
123464,155834,11330,-0.121,0.974,0.336,-1.524,1.159,1.159,178.913
123464,155819,10981,-0.122,0.979,0.327,-1.28,1.22,1.341,178.919
123423,155834,11330,-0.122,0.979,0.327,-1.28,1.22,1.341,178.923
123423,155821,10968,-0.117,0.988,0.326,-0.61,1.402,1.341,178.929
123417,155834,11330,-0.117,0.988,0.326,-0.61,1.402,1.341,178.933
123417,155808,10965,-0.119,0.99,0.327,0.549,1.402,1.341,178.939
123413,155834,11330,-0.119,0.99,0.327,0.549,1.402,1.341,178.943
123413,155810,10943,-0.129,0.99,0.311,0.915,1.402,1.098,178.949
123406,155834,11330,-0.129,0.99,0.311,0.915,1.402,1.098,178.953
123406,155825,10951,-0.129,0.999,0.323,0.488,1.28,0.732,178.959
123385,155834,11330,-0.129,0.999,0.323,0.488,1.28,0.732,178.963
123385,155801,10940,-0.122,1.003,0.331,-0.061,0.549,0.549,178.969
123380,155834,11330,-0.122,1.003,0.331,-0.061,0.549,0.549,178.973
123380,155774,10949,-0.121,0.99,0.329,-0.793,0.305,0.549,178.979
123370,155834,11330,-0.121,0.99,0.329,-0.793,0.305,0.549,178.982
123370,155799,10946,-0.13,0.988,0.337,-1.037,0.61,0.671,178.989
123372,155834,11330,-0.13,0.988,0.337,-1.037,0.61,0.671,178.992
123372,155791,10948,-0.128,0.989,0.33,-1.341,0.915,0.793,178.999
123361,155834,11330,-0.128,0.989,0.33,-1.341,0.915,0.793,179.002
123361,155753,10950,-0.124,0.984,0.333,-1.463,1.037,0.61,179.008
123324,155834,11330,-0.124,0.984,0.333,-1.463,1.037,0.61,179.012
123324,155737,10942,-0.123,0.982,0.329,-1.402,0.854,0.549,179.018
123289,155834,11330,-0.123,0.982,0.329,-1.402,0.854,0.549,179.022
123289,155708,10935,-0.122,0.977,0.338,-0.854,0.732,0.854,179.028
123249,155834,11330,-0.122,0.977,0.338,-0.854,0.732,0.854,179.032
123249,155669,10936,-0.119,0.984,0.338,0.061,0.976,1.098,179.038
123222,155834,11330,-0.119,0.984,0.338,0.061,0.976,1.098,179.042
123222,155665,10926,-0.12,0.987,0.337,0.488,1.341,1.22,179.048
123202,155578,11330,-0.12,0.987,0.337,0.488,1.341,1.22,179.052
123202,155643,10924,-0.121,0.99,0.336,-0.061,1.341,1.159,179.058
123210,155834,11330,-0.118,0.992,0.339,-0.061,1.341,1.159,179.062
123210,155663,10926,-0.117,0.989,0.334,-1.22,0.793,1.22,179.068
123205,155834,11330,-0.117,0.978,0.325,-1.22,0.793,1.22,179.072
123205,155661,10927,-0.118,0.971,0.315,-1.463,0.427,1.28,179.078
123221,155834,11330,-0.12,0.971,0.306,-1.463,0.427,1.28,179.082
123221,155664,10913,-0.117,0.985,0.31,-0.976,0.305,1.098,179.088
123235,155834,11330,-0.113,1.001,0.313,-0.976,0.305,1.098,179.091
123235,155665,10939,-0.115,1.008,0.319,-0.305,0.488,0.976,179.098
123199,155578,11330,-0.112,1.006,0.326,-0.305,0.488,0.976,179.101
123199,155631,10920,-0.121,1,0.323,-0.122,0.549,0.793,179.107
123186,155578,11330,-0.127,0.994,0.322,-0.122,0.549,0.793,179.111
123186,155639,10926,-0.125,0.986,0.332,-0.915,0.183,0.854,179.117
123192,155578,11330,-0.122,0.98,0.333,-0.915,0.183,0.854,179.121
123192,155624,10919,-0.122,0.983,0.339,-0.427,-0.366,0.976,179.127
123192,155578,11330,-0.121,0.985,0.341,-0.427,-0.366,0.976,179.131
123192,155626,10937,-0.12,0.986,0.343,0.854,0.427,1.037,179.137
123162,155578,11330,-0.12,0.99,0.342,0.854,0.427,1.037,179.141
123162,155626,10933,-0.123,0.991,0.344,1.28,0.976,0.915,179.147
123155,155578,11330,-0.125,0.988,0.348,1.28,0.976,0.915,179.151
123155,155591,10933,-0.124,0.985,0.352,0.976,0.976,0.732,179.157
123113,155578,11330,-0.123,0.983,0.345,0.976,0.976,0.732,179.161
123113,155567,10898,-0.119,0.981,0.336,0.305,0.488,0.793,179.167
123081,155578,11330,-0.117,0.979,0.333,0.305,0.488,0.793,179.171
123081,155537,10911,-0.116,0.982,0.334,0.671,0.671,0.915,179.177
123081,155578,11330,-0.121,0.986,0.335,0.671,0.671,0.915,179.18
123081,155526,10911,-0.123,0.991,0.32,0.976,1.341,0.671,179.187
123065,155578,11330,-0.123,0.989,0.313,0.976,1.341,0.671,179.19
123065,155506,10911,-0.124,0.99,0.31,0.122,0.976,0.427,179.197
123042,155578,11330,-0.12,0.992,0.312,0.122,0.976,0.427,179.2
123042,155515,10913,-0.118,0.992,0.314,-0.488,0.244,0.366,179.206
123003,155578,11330,-0.12,0.988,0.313,-0.488,0.244,0.366,179.21
123003,155481,10916,-0.12,0.986,0.32,-0.488,0.305,0.61,179.216
123006,155578,11330,-0.117,0.988,0.325,-0.488,0.305,0.61,179.22
123006,155468,10899,-0.118,0.992,0.334,-0.183,0.305,0.854,179.226
122994,155578,11330,-0.119,0.994,0.336,-0.183,0.305,0.854,179.23
122994,155486,10905,-0.125,0.996,0.336,0.122,0.549,0.976,179.236
122963,155578,11330,-0.122,0.998,0.336,0.122,0.549,0.976,179.24
122963,155450,10896,-0.122,0.999,0.339,-0.122,0.366,0.732,179.246
122959,155578,11330,-0.119,0.998,0.344,-0.122,0.366,0.732,179.25
122959,155431,10901,-0.116,0.994,0.344,0,0.183,0.366,179.256
122939,155578,11330,-0.117,0.99,0.342,0,0.183,0.366,179.26
122939,155405,10894,-0.12,0.985,0.338,0.122,0.61,-0.061,179.266
122916,155578,11330,-0.12,0.985,0.339,0.122,0.61,-0.061,179.27
122916,155395,10885,-0.12,0.987,0.341,0.671,0.854,-0.366,179.276
122921,155322,11330,-0.118,0.984,0.334,0.671,0.854,-0.366,179.279
122921,155389,10879,-0.118,0.977,0.328,0.915,0.732,-0.122,179.286
122904,155578,11330,-0.121,0.975,0.325,0.915,0.732,-0.122,179.289
122904,155393,10895,-0.122,0.981,0.324,1.037,0.915,-0.183,179.296
122881,155578,11330,-0.119,0.995,0.315,1.037,0.915,-0.183,179.299
122881,155402,10887,-0.117,0.998,0.318,0.122,0.732,-0.305,179.305
122887,155322,11330,-0.116,0.989,0.32,0.122,0.732,-0.305,179.309
122887,155382,10895,-0.117,0.984,0.323,-0.183,0.183,-0.183,179.315
122879,155322,11330,-0.119,0.985,0.325,-0.183,0.183,-0.183,179.319
122879,155361,10887,-0.122,0.984,0.328,-0.915,0.122,0.061,179.325
122875,155322,11330,-0.122,0.979,0.329,-0.915,0.122,0.061,179.329
122875,155372,10874,-0.115,0.983,0.327,-0.976,0.366,0.183,179.335
122857,155322,11330,-0.114,0.987,0.33,-0.976,0.366,0.183,179.339
122857,155376,10882,-0.123,0.988,0.33,-0.244,0.732,0.366,179.345
122860,155322,11330,-0.125,0.989,0.329,-0.244,0.732,0.366,179.349
122860,155375,10878,-0.124,0.992,0.329,-0.366,1.098,0.427,179.355
122905,155578,11330,-0.121,0.995,0.333,-0.366,1.098,0.427,179.359
122905,155407,10886,-0.121,0.996,0.328,-1.159,0.488,0.061,179.365
122890,155322,11330,-0.119,0.992,0.326,-1.159,0.488,0.061,179.369
122890,155373,10898,-0.117,0.99,0.33,-0.854,0.122,0,179.375
122878,155322,11330,-0.117,0.993,0.331,-0.854,0.122,0,179.378
122878,155375,10882,-0.118,0.996,0.331,-0.183,0.427,0.122,179.385
122879,155322,11330,-0.121,0.995,0.333,-0.183,0.427,0.122,179.388
122879,155379,10880,-0.121,0.994,0.331,0.122,0.793,-0.061,179.395
122879,155578,11330,-0.123,0.996,0.333,0.122,0.793,-0.061,179.398
122879,155395,10896,-0.124,0.992,0.338,-0.488,0.793,-0.366,179.404
122861,155322,11330,-0.121,0.987,0.34,-0.488,0.793,-0.366,179.408
122861,155381,10877,-0.12,0.982,0.338,-1.646,0.671,-0.366,179.414
122886,155578,11330,-0.118,0.977,0.329,-1.646,0.671,-0.366,179.418
122886,155397,10880,-0.12,0.974,0.324,-2.5,0.488,-0.183,179.424
122908,155578,11330,-0.121,0.974,0.321,-2.5,0.488,-0.183,179.428
122908,155397,10893,-0.122,0.976,0.322,-2.561,0.488,-0.061,179.434
122905,155578,11330,-0.12,0.986,0.321,-2.561,0.488,-0.061,179.438
122905,155444,10896,-0.118,0.989,0.318,-2.683,0.244,0.061,179.444
122926,155578,11330,-0.118,0.99,0.313,-2.683,0.244,0.061,179.448
122926,155458,10897,-0.12,0.984,0.32,-2.927,-0.366,0.122,179.454
122948,155578,11330,-0.116,0.98,0.329,-2.927,-0.366,0.122,179.458
122948,155453,10888,-0.119,0.979,0.331,-3.232,-0.854,0.244,179.464
122947,155578,11330,-0.121,0.98,0.333,-3.232,-0.854,0.244,179.468
122947,155474,10909,-0.121,0.98,0.339,-3.049,-0.427,0.244,179.474
123004,155578,11330,-0.12,0.98,0.346,-3.049,-0.427,0.244,179.477
123004,155464,10883,-0.122,0.983,0.352,-2.439,-0.122,0.244,179.484
122974,155578,11330,-0.124,0.983,0.347,-2.439,-0.122,0.244,179.487
122974,155478,10897,-0.126,0.984,0.344,-2.683,-0.183,0.549,179.494
122958,155578,11330,-0.126,0.984,0.344,-2.683,-0.183,0.549,179.497
122958,155437,10903,-0.121,0.985,0.343,-3.171,-0.183,0.61,179.503
122947,155578,11330,-0.121,0.985,0.343,-3.171,-0.183,0.61,179.507
122947,155437,10904,-0.125,0.983,0.341,-3.293,0.366,0.61,179.513
122935,155578,11330,-0.125,0.983,0.341,-3.293,0.366,0.61,179.517
122935,155428,10909,-0.122,0.987,0.342,-2.988,0.854,0.732,179.523
122945,155578,11330,-0.122,0.987,0.342,-2.988,0.854,0.732,179.527
122945,155428,10901,-0.125,0.978,0.344,-2.622,1.22,0.915,179.533
122949,155578,11330,-0.125,0.978,0.344,-2.622,1.22,0.915,179.537
122949,155432,10878,-0.131,0.983,0.335,-2.683,1.341,0.854,179.543
122948,155578,11330,-0.131,0.983,0.335,-2.683,1.341,0.854,179.547
122948,155433,10882,-0.125,0.98,0.339,-1.951,0.976,0.854,179.553
123000,155578,11330,-0.125,0.98,0.339,-1.951,0.976,0.854,179.557
123000,155465,10896,-0.124,0.98,0.332,-1.768,0.732,0.915,179.563
123012,155578,11330,-0.124,0.98,0.332,-1.768,0.732,0.915,179.567
123012,155501,10904,-0.125,0.98,0.323,-1.22,0.732,0.915,179.573
123061,155578,11330,-0.125,0.98,0.323,-1.22,0.732,0.915,179.576
123061,155492,10899,-0.122,0.993,0.324,0.244,0.732,0.793,179.583
123026,155578,11330,-0.122,0.993,0.324,0.244,0.732,0.793,179.586
123026,155485,10918,-0.122,0.999,0.33,1.28,1.037,0.671,179.592
123026,155578,11330,-0.122,0.999,0.33,1.28,1.037,0.671,179.596
123026,155478,10908,-0.125,1.002,0.33,0.915,0.976,0.488,179.602
122997,155578,11330,-0.125,1.002,0.33,0.915,0.976,0.488,179.606
122997,155484,10904,-0.121,0.998,0.329,-0.305,0.61,0.366,179.612
122993,155578,11330,-0.121,0.998,0.329,-0.305,0.61,0.366,179.616
122993,155483,10899,-0.119,0.987,0.327,-1.037,0.244,0.061,179.622
123004,155578,11330,-0.119,0.987,0.327,-1.037,0.244,0.061,179.626
123004,155480,10896,-0.117,0.988,0.33,-1.037,0.244,0.061,179.632
122999,155578,11330,-0.116,0.991,0.333,-0.183,0.244,-0.122,179.636
122999,155485,10899,-0.116,0.993,0.335,-0.183,0.244,-0.122,179.642
122995,155578,11330,-0.117,0.994,0.333,0.854,0.366,-0.183,179.646
122995,155494,10906,-0.117,0.994,0.334,0.854,0.366,-0.183,179.652
123022,155578,11330,-0.12,0.994,0.334,1.159,0.366,-0.305,179.656
123022,155491,10907,-0.117,0.994,0.338,1.159,0.366,-0.305,179.662
123042,155578,11330,-0.119,0.99,0.337,0.549,0.305,-0.427,179.666
123042,155485,10909,-0.119,0.986,0.334,0.549,0.305,-0.427,179.672
123059,155578,11330,-0.117,0.985,0.333,0,0.122,-0.427,179.675
123059,155520,10910,-0.116,0.985,0.332,0,0.122,-0.427,179.682
123078,155578,11330,-0.115,0.985,0.333,-0.427,-0.061,-0.366,179.685
123078,155522,10911,-0.115,0.987,0.334,-0.427,-0.061,-0.366,179.691
123053,155578,11330,-0.116,0.99,0.333,-0.061,0.244,-0.244,179.695
123053,155532,10917,-0.116,0.992,0.334,-0.061,0.244,-0.244,179.701
123084,155578,11330,-0.118,0.986,0.331,0.061,0.305,-0.122,179.705
123084,155542,10922,-0.118,0.988,0.333,0.061,0.305,-0.122,179.711
123079,155578,11330,-0.115,0.99,0.33,-0.549,-0.122,-0.061,179.715
123079,155548,10907,-0.113,0.991,0.329,-0.549,-0.122,-0.061,179.721
123069,155578,11330,-0.117,0.988,0.334,-0.976,-0.183,-0.122,179.725
123069,155521,10912,-0.118,0.985,0.339,-0.976,-0.183,-0.122,179.731
123057,155578,11330,-0.121,0.982,0.341,-1.341,-0.183,-0.122,179.735
123057,155496,10900,-0.12,0.982,0.342,-1.341,-0.183,-0.122,179.741
123033,155578,11330,-0.121,0.977,0.338,-1.524,-0.244,0.122,179.745
123033,155521,10909,-0.125,0.977,0.334,-1.524,-0.244,0.122,179.751
123046,155578,11330,-0.123,0.984,0.336,-1.524,-0.488,0.061,179.755
123046,155507,10907,-0.125,0.985,0.337,-1.524,-0.488,0.061,179.761
123043,155578,11330,-0.126,0.983,0.338,-1.585,-0.305,0,179.764
123043,155526,10915,-0.126,0.979,0.333,-1.585,-0.305,0,179.771
123058,155578,11330,-0.129,0.979,0.329,-0.854,-0.122,0.183,179.774
123058,155503,10907,-0.131,0.989,0.333,-0.854,-0.122,0.183,179.781
123057,155578,11330,-0.13,0.994,0.338,-0.549,0.183,0.427,179.784
123057,155540,10905,-0.127,0.991,0.342,-0.549,0.183,0.427,179.79
123061,155578,11330,-0.129,0.988,0.34,-0.122,0.549,0.549,179.794
123061,155528,10910,-0.13,0.984,0.34,-0.122,0.549,0.549,179.8
123085,155578,11330,-0.13,0.987,0.343,-0.366,0.793,0.549,179.804
123085,155561,10908,-0.127,0.986,0.349,-0.366,0.793,0.549,179.81
123089,155578,11330,-0.125,0.988,0.349,-0.732,1.098,0.61,179.814
123089,155564,10912,-0.124,0.985,0.345,-0.732,1.098,0.61,179.82
123101,155578,11330,-0.124,0.982,0.346,-1.098,1.341,0.244,179.824
123101,155576,10907,-0.125,0.981,0.34,-1.098,1.341,0.244,179.83
123090,155578,11330,-0.124,0.981,0.338,-1.585,1.28,0.122,179.834
123090,155554,10918,-0.12,0.978,0.34,-1.585,1.28,0.122,179.84
123105,155578,11330,-0.121,0.974,0.338,-1.524,0.976,0.305,179.844
123105,155563,10924,-0.119,0.975,0.331,-1.524,0.976,0.305,179.85
123097,155578,11330,-0.119,0.975,0.328,-1.28,0.915,0.488,179.854
123097,155582,10903,-0.122,0.978,0.324,-1.28,0.915,0.488,179.86
123110,155578,11330,-0.119,0.983,0.328,-0.793,0.854,0.427,179.864
123110,155599,10925,-0.118,0.99,0.325,-0.793,0.854,0.427,179.87
123125,155578,11330,-0.117,0.993,0.326,-0.61,0.488,0.427,179.873
123125,155607,10920,-0.115,0.986,0.326,-0.61,0.488,0.427,179.88
123168,155578,11330,-0.117,0.985,0.324,-1.098,0.122,0.671,179.883
123168,155593,10924,-0.119,0.982,0.325,-1.098,0.122,0.671,179.889
123145,155578,11330,-0.124,0.983,0.325,-1.402,-0.061,0.732,179.893
123145,155602,10915,-0.122,0.985,0.334,-1.402,-0.061,0.732,179.899
123155,155578,11330,-0.118,0.989,0.336,-0.976,-0.305,0.671,179.903
123155,155609,10925,-0.117,0.989,0.344,-0.976,-0.305,0.671,179.909
123126,155578,11330,-0.118,0.986,0.346,-0.488,-0.122,0.61,179.913
123126,155606,10916,-0.122,0.988,0.349,-0.488,-0.122,0.61,179.919
123153,155578,11330,-0.123,0.987,0.348,-0.427,0.183,0.61,179.923
123153,155619,10925,-0.122,0.986,0.35,-0.427,0.183,0.61,179.929
123173,155578,11330,-0.121,0.985,0.35,-0.976,0.305,0.366,179.933
123173,155624,10918,-0.122,0.98,0.347,-0.976,0.305,0.366,179.939
123177,155834,11330,-0.123,0.979,0.353,-1.341,0.244,0.244,179.943
123177,155668,10913,-0.125,0.98,0.349,-1.341,0.244,0.244,179.949
123204,155834,11330,-0.124,0.979,0.344,-1.585,0.366,0.305,179.953
123204,155666,10924,-0.119,0.976,0.34,-1.585,0.366,0.305,179.959
123216,155834,11330,-0.12,0.975,0.337,-1.037,0.366,0.488,179.962
123216,155682,10920,-0.117,0.981,0.326,-1.037,0.366,0.488,179.969
123210,155834,11330,-0.119,0.985,0.325,-0.122,0.305,0.671,179.972
123210,155680,10931,-0.119,0.987,0.328,-0.122,0.305,0.671,179.979
123208,155834,11330,-0.118,0.994,0.33,-0.061,0.183,0.61,179.982
123208,155677,10918,-0.117,0.996,0.336,-0.061,0.183,0.61,179.988
123215,155834,11330,-0.119,0.987,0.336,-0.61,0.122,0.488,179.992
123215,155655,10922,-0.121,0.986,0.335,-0.61,0.122,0.488,179.998
123216,155834,11330,-0.12,0.987,0.343,-0.793,-0.122,0.488,180.002
123216,155660,10924,-0.119,0.981,0.343,-0.793,-0.122,0.488,180.008
123229,155834,11330,-0.12,0.98,0.342,-0.915,-0.488,0.61,180.012
123229,155668,10932,-0.122,0.979,0.341,-0.915,-0.488,0.61,180.018
123219,155834,11330,-0.123,0.984,0.341,-0.366,-0.244,0.427,180.022
123219,155664,10926,-0.123,0.991,0.347,-0.366,-0.244,0.427,180.028
123227,155834,11330,-0.119,0.993,0.351,0.488,0.122,0.183,180.032
123227,155678,10931,-0.122,0.996,0.346,0.488,0.122,0.183,180.038
123232,155834,11330,-0.122,0.996,0.34,0.488,0,0,180.042
123232,155686,10931,-0.124,0.99,0.336,0.488,0,0,180.048
123246,155834,11330,-0.12,0.987,0.345,-0.549,-0.244,-0.305,180.052
123246,155696,10929,-0.119,0.987,0.344,-0.549,-0.244,-0.305,180.058
123243,155834,11330,-0.122,0.986,0.344,-1.22,0.122,-0.488,180.061
123243,155703,10927,-0.127,0.98,0.337,-1.22,0.122,-0.488,180.068
123245,155834,11330,-0.127,0.98,0.337,-1.22,0.122,-0.488,180.071
123245,155715,10916,-0.124,0.973,0.327,-1.829,0.244,-0.366,180.078
123273,155834,11330,-0.124,0.973,0.327,-1.829,0.244,-0.366,180.081
123273,155732,10950,-0.122,0.973,0.339,-2.378,-0.122,0,180.087
123270,155834,11330,-0.122,0.973,0.339,-2.378,-0.122,0,180.091
123270,155727,10927,-0.122,0.981,0.335,-1.768,0.061,0.488,180.097
123291,155834,11330,-0.122,0.981,0.335,-1.768,0.061,0.488,180.101
123291,155723,10934,-0.124,0.992,0.34,-1.037,0.549,0.61,180.107
123290,155834,11330,-0.124,0.992,0.34,-1.037,0.549,0.61,180.111
123290,155706,10958,-0.121,0.987,0.343,-0.671,0.366,0.671,180.117
123288,155834,11330,-0.121,0.987,0.343,-0.671,0.366,0.671,180.121
123288,155746,10939,-0.124,0.989,0.335,-0.244,0.061,0.427,180.127
123305,155834,11330,-0.124,0.989,0.335,-0.244,0.061,0.427,180.131
123305,155756,10936,-0.12,1.002,0.336,0.061,0,0.122,180.137
123313,155834,11330,-0.12,1.002,0.336,0.061,0,0.122,180.141
123313,155778,10945,-0.113,1,0.344,-0.183,0,-0.305,180.147
123329,155834,11330,-0.113,1,0.344,-0.183,0,-0.305,180.151
123329,155775,10966,-0.12,0.982,0.339,-0.915,-0.122,-0.732,180.157
123338,155834,11330,-0.12,0.982,0.339,-0.915,-0.122,-0.732,180.16
123338,155782,10951,-0.116,0.981,0.347,-1.22,-0.244,-1.098,180.167
123355,155834,11330,-0.116,0.981,0.347,-1.22,-0.244,-1.098,180.17
123355,155812,10941,-0.119,0.978,0.345,-0.854,-0.061,-0.976,180.177
123342,155834,11330,-0.119,0.978,0.345,-0.854,-0.061,-0.976,180.18
123342,155771,10951,-0.12,0.979,0.347,-0.427,0.366,-0.671,180.186
123342,155834,11330,-0.12,0.979,0.347,-0.427,0.366,-0.671,180.19
123342,155797,10934,-0.12,0.975,0.347,-0.732,0.427,-0.427,180.196
123344,155834,11330,-0.12,0.975,0.347,-0.732,0.427,-0.427,180.2
123344,155773,10958,-0.119,0.976,0.346,-1.28,0.061,-0.183,180.206
123363,155834,11330,-0.119,0.976,0.346,-1.28,0.061,-0.183,180.21
123363,155802,10942,-0.122,0.974,0.348,-1.524,0.244,0.061,180.216
123375,155834,11330,-0.12,0.978,0.348,-1.524,0.244,0.061,180.22
123375,155792,10954,-0.122,0.981,0.343,-1.28,0.366,0.183,180.226
123389,155834,11330,-0.122,0.981,0.343,-1.28,0.366,0.183,180.23
123389,155796,10943,-0.122,0.979,0.346,-0.976,0.305,0.183,180.236
123398,155834,11330,-0.123,0.984,0.343,-0.976,0.305,0.183,180.24
123398,155801,10948,-0.121,0.987,0.343,-1.402,0.244,0.244,180.246
123400,155834,11330,-0.118,0.987,0.348,-1.402,0.244,0.244,180.25
123400,155811,10953,-0.122,0.983,0.348,-2.012,0.183,0.366,180.256
123420,155834,11330,-0.125,0.979,0.341,-2.012,0.183,0.366,180.259
123420,155831,10958,-0.124,0.978,0.338,-2.744,0.122,0.183,180.266
123409,155834,11330,-0.123,0.984,0.339,-2.744,0.122,0.183,180.269
123409,155817,10947,-0.121,0.989,0.343,-2.927,0.244,0.122,180.275
123435,155834,11330,-0.124,0.988,0.343,-2.927,0.244,0.122,180.279
123435,155857,10957,-0.123,0.981,0.339,-2.256,0.366,0.061,180.285
123426,155834,11330,-0.127,0.983,0.336,-2.256,0.366,0.061,180.289
123426,155851,10957,-0.13,0.982,0.336,-2.195,0.183,0,180.295
123442,155834,11330,-0.132,0.981,0.343,-2.195,0.183,0,180.299
123442,155858,10964,-0.131,0.979,0.339,-1.646,0.122,-0.061,180.305
123466,155834,11330,-0.131,0.979,0.336,-1.646,0.122,-0.061,180.309
123466,155869,10981,-0.131,0.978,0.339,-0.61,0.305,-0.183,180.315
123494,155834,11330,-0.131,0.983,0.337,-0.61,0.305,-0.183,180.319
123494,155901,10964,-0.128,0.987,0.339,0.305,0.671,-0.244,180.325
123515,156090,11330,-0.128,0.989,0.342,0.305,0.671,-0.244,180.329
123515,155906,10960,-0.129,0.988,0.338,0.244,0.671,-0.305,180.335
123513,156090,11330,-0.128,0.986,0.339,0.244,0.671,-0.305,180.339
123513,155927,10945,-0.124,0.982,0.339,-0.671,0.427,-0.244,180.345
123535,156090,11330,-0.121,0.981,0.339,-0.671,0.427,-0.244,180.349
123535,155930,10968,-0.121,0.978,0.339,-1.098,0.183,-0.061,180.355
123532,156090,11330,-0.118,0.982,0.344,-1.098,0.183,-0.061,180.358
123532,155946,10980,-0.119,0.984,0.349,-0.61,0.366,0.122,180.365
123537,156090,11330,-0.12,0.984,0.346,-0.61,0.366,0.122,180.368
123537,155927,10962,-0.122,0.983,0.342,-0.793,0.549,0.183,180.374
123528,156090,11330,-0.118,0.986,0.344,-0.793,0.549,0.183,180.378
123528,155939,10982,-0.119,0.987,0.346,-1.524,0.427,0.122,180.384
123523,156090,11330,-0.12,0.987,0.349,-1.524,0.427,0.122,180.388
123523,155921,10986,-0.12,0.984,0.345,-1.707,0,0.183,180.394
123552,156090,11330,-0.117,0.98,0.343,-1.707,0,0.183,180.398
123552,155920,10970,-0.119,0.978,0.347,-1.037,0.061,0.183,180.404
123530,156090,11330,-0.122,0.981,0.346,-1.037,0.061,0.183,180.408
123530,155915,10970,-0.123,0.986,0.344,-0.244,0.427,0.183,180.414
123524,156090,11330,-0.123,0.988,0.348,-0.244,0.427,0.183,180.418
123524,155918,10969,-0.123,0.99,0.347,-0.183,0.549,0.122,180.424
123519,156090,11330,-0.125,0.986,0.347,-0.183,0.549,0.122,180.428
123519,155905,10964,-0.124,0.983,0.346,-0.732,0.305,0.122,180.434
123501,155834,11330,-0.122,0.98,0.345,-0.732,0.305,0.122,180.438
123501,155894,10976,-0.123,0.976,0.344,-1.463,0.061,0,180.444
123489,155834,11330,-0.123,0.979,0.344,-1.463,0.061,0,180.448
123489,155880,10979,-0.124,0.976,0.348,-0.976,0.366,0.061,180.454
123478,155834,11330,-0.123,0.977,0.345,-0.976,0.366,0.061,180.457
123478,155895,10974,-0.123,0.976,0.341,0,0.61,0.366,180.464
123467,155834,11330,-0.122,0.981,0.342,0,0.61,0.366,180.467
123467,155883,10964,-0.122,0.983,0.348,0.061,0.61,0.61,180.474
123484,155834,11330,-0.123,0.982,0.347,0.061,0.61,0.61,180.477
123484,155883,10980,-0.122,0.983,0.352,-0.427,0.732,0.61,180.483
123497,155834,11330,-0.124,0.976,0.353,-0.427,0.732,0.61,180.487
123497,155864,10966,-0.127,0.972,0.348,-0.61,0.915,0.732,180.493
123489,155834,11330,-0.124,0.976,0.347,-0.61,0.915,0.732,180.497
123489,155873,10968,-0.12,0.983,0.35,-0.305,1.037,0.915,180.503
123502,155834,11330,-0.121,0.984,0.348,-0.305,1.037,0.915,180.507
123502,155875,10968,-0.122,0.984,0.343,-0.366,1.098,0.671,180.513
123488,155834,11330,-0.124,0.985,0.342,-0.366,1.098,0.671,180.517
123488,155880,10968,-0.119,0.986,0.337,-1.098,0.61,0.61,180.523
123499,155834,11330,-0.12,0.985,0.333,-1.098,0.61,0.61,180.527
123499,155884,10966,-0.121,0.985,0.336,-1.341,0.061,0.488,180.533
123489,155834,11330,-0.119,0.984,0.335,-1.341,0.061,0.488,180.537
123489,155892,10969,-0.121,0.985,0.332,-0.793,0.122,0.427,180.543
123495,155834,11330,-0.124,0.99,0.336,-0.793,0.122,0.427,180.547
123495,155902,10961,-0.127,0.988,0.337,-0.305,0.183,0.488,180.553
123528,156090,11330,-0.128,0.983,0.34,-0.305,0.183,0.488,180.556
123528,155915,10950,-0.129,0.987,0.34,-0.366,0.183,0.549,180.563
123523,155834,11330,-0.128,0.99,0.338,-0.366,0.183,0.549,180.566
123523,155896,10970,-0.126,0.989,0.342,-0.854,0.122,0.244,180.572
123519,156090,11330,-0.126,0.987,0.344,-0.854,0.122,0.244,180.576
123519,155927,10967,-0.127,0.981,0.346,-0.671,0.183,0.183,180.582
123546,156090,11330,-0.126,0.979,0.341,-0.671,0.183,0.183,180.586
123546,155914,10969,-0.126,0.979,0.343,-1.098,0.122,0.244,180.592
123554,156090,11330,-0.124,0.982,0.348,-1.098,0.122,0.244,180.596
123554,155913,10977,-0.121,0.978,0.35,-1.098,0.122,0.122,180.602
123544,156090,11330,-0.128,0.977,0.347,-1.098,0.122,0.122,180.606
123544,155929,10982,-0.126,0.976,0.352,-0.671,0.427,0.061,180.612
123558,156090,11330,-0.121,0.976,0.352,-0.671,0.427,0.061,180.616
123558,155927,10977,-0.121,0.973,0.35,-0.427,0.427,0,180.622
123538,156090,11330,-0.122,0.977,0.356,-0.427,0.427,0,180.626
123538,155922,10964,-0.121,0.983,0.359,-0.488,0.305,0.061,180.632
123546,156090,11330,-0.121,0.981,0.353,-0.488,0.305,0.061,180.636
123546,155907,10984,-0.119,0.983,0.351,-0.671,0.366,0.061,180.642
123548,156090,11330,-0.12,0.984,0.348,-0.671,0.366,0.061,180.645
123548,155913,10976,-0.12,0.985,0.351,-0.915,0.183,-0.061,180.652
123560,156090,11330,-0.12,0.985,0.351,-0.915,0.183,-0.061,180.655
123560,155928,10980,-0.122,0.976,0.34,-0.976,-0.061,0.122,180.662
123540,156090,11330,-0.122,0.976,0.34,-0.976,-0.061,0.122,180.665
123540,155935,10969,-0.124,0.98,0.342,-0.549,-0.061,0.244,180.671
123549,156090,11330,-0.124,0.98,0.342,-0.549,-0.061,0.244,180.675
123549,155939,10989,-0.12,0.99,0.343,-0.488,0.244,0.244,180.681
123563,156090,11330,-0.12,0.99,0.343,-0.488,0.244,0.244,180.685
123563,155939,10981,-0.124,0.981,0.349,-0.549,0.061,0.244,180.691
123561,156090,11330,-0.124,0.981,0.349,-0.549,0.061,0.244,180.695
123561,155937,10973,-0.125,0.976,0.351,-0.854,-0.183,0.427,180.701
123593,156090,11330,-0.125,0.976,0.351,-0.854,-0.183,0.427,180.705
123593,155945,10990,-0.129,0.977,0.345,-0.671,0.183,0.549,180.711
123582,156090,11330,-0.129,0.977,0.345,-0.671,0.183,0.549,180.715
123582,155946,10985,-0.126,0.982,0.343,-0.366,0.427,0.427,180.721
123577,156090,11330,-0.126,0.982,0.343,-0.366,0.427,0.427,180.725
123577,155945,10968,-0.123,0.98,0.347,-0.366,0,0.305,180.731
123593,156090,11330,-0.123,0.98,0.347,-0.366,0,0.305,180.735
123593,155955,10976,-0.126,0.975,0.349,-0.488,0.122,0.366,180.741
123580,156090,11330,-0.126,0.975,0.349,-0.488,0.122,0.366,180.744
123580,155966,10981,-0.129,0.975,0.351,0,0.61,0.305,180.751
123589,156090,11330,-0.129,0.975,0.351,0,0.61,0.305,180.754
123589,155958,10984,-0.123,0.986,0.354,0.427,0.793,0.183,180.761
123594,156090,11330,-0.123,0.986,0.354,0.427,0.793,0.183,180.764
123594,155964,10978,-0.123,0.984,0.351,0.793,0.793,0.061,180.77
123617,156090,11330,-0.123,0.984,0.351,0.793,0.793,0.061,180.774
123617,155977,10975,-0.124,0.994,0.352,0.183,0.854,0.061,180.78
123603,156090,11330,-0.124,0.994,0.352,0.183,0.854,0.061,180.784
123603,155983,10976,-0.121,0.987,0.346,0.183,0.854,0.061,180.79
123622,156090,11330,-0.122,0.982,0.342,-0.366,0.732,-0.122,180.794
123622,155978,10979,-0.121,0.98,0.34,-0.366,0.732,-0.122,180.8
123620,156090,11330,-0.122,0.982,0.339,-0.366,0.549,-0.244,180.804
123620,155988,10986,-0.125,0.987,0.338,-0.366,0.549,-0.244,180.81
123619,156090,11330,-0.124,0.989,0.339,0.61,0.427,-0.122,180.814
123619,155982,10971,-0.124,0.987,0.339,0.61,0.427,-0.122,180.82
123603,156090,11330,-0.122,0.985,0.34,1.22,0.305,-0.366,180.824
123603,155987,10980,-0.12,0.996,0.339,1.22,0.305,-0.366,180.83
123604,156090,11330,-0.118,0.998,0.346,0.976,0.183,-0.549,180.834
123604,155968,10971,-0.121,0.993,0.363,0.976,0.183,-0.549,180.84
123593,156090,11330,-0.128,0.989,0.362,1.402,0.61,-0.244,180.843
123593,155973,10975,-0.128,0.995,0.349,1.402,0.61,-0.244,180.85
123592,156090,11330,-0.126,0.995,0.353,0.976,1.098,-0.732,180.853
123592,155964,10979,-0.124,0.991,0.355,0.976,1.098,-0.732,180.86
123609,156090,11330,-0.126,0.993,0.348,0.366,0.915,-1.037,180.863
123609,155973,10990,-0.127,0.994,0.345,0.366,0.915,-1.037,180.869
123627,156090,11330,-0.13,0.99,0.346,0.183,0.854,-1.159,180.873
123627,155955,10987,-0.127,0.984,0.334,0.183,0.854,-1.159,180.879
123624,156090,11330,-0.124,0.986,0.338,1.037,1.098,-1.707,180.883
123624,155995,10975,-0.124,0.991,0.342,1.037,1.098,-1.707,180.889
123606,156090,11330,-0.127,0.991,0.342,1.768,1.28,-2.012,180.893
123606,155992,10975,-0.125,0.987,0.351,1.768,1.28,-2.012,180.899
123599,156090,11330,-0.126,0.984,0.346,1.524,1.159,-2.317,180.903
123599,156001,10982,-0.129,0.978,0.34,1.524,1.159,-2.317,180.909
123628,156090,11330,-0.127,0.973,0.339,-0.305,0.61,-2.5,180.913
123628,155994,10981,-0.127,0.963,0.331,-0.305,0.61,-2.5,180.919
123642,156090,11330,-0.123,0.963,0.329,-1.22,0,-2.378,180.923
123642,156008,10971,-0.123,0.971,0.336,-1.22,0,-2.378,180.929
123608,156090,11330,-0.124,0.973,0.341,-1.22,0.122,-1.951,180.933
123608,155999,10973,-0.126,0.966,0.344,-1.22,0.122,-1.951,180.939
123627,156090,11330,-0.128,0.967,0.349,-0.671,0.427,-1.402,180.942
123627,156025,10990,-0.126,0.967,0.349,-0.671,0.427,-1.402,180.949
123641,156090,11330,-0.127,0.971,0.349,-0.366,0.305,-0.915,180.952
123641,156005,10983,-0.125,0.972,0.356,-0.366,0.305,-0.915,180.959
123668,156090,11330,-0.131,0.974,0.356,-0.244,0.305,-0.366,180.962
123668,156015,10979,-0.13,0.975,0.352,-0.244,0.305,-0.366,180.968
123678,156090,11330,-0.134,0.978,0.345,-0.061,0.61,0,180.972
123678,156027,10987,-0.128,0.983,0.345,-0.061,0.61,0,180.978
123653,156090,11330,-0.128,0.985,0.344,0.366,0.61,0,180.982
123653,156007,10988,-0.129,0.987,0.34,0.366,0.61,0,180.988
123666,156090,11330,-0.13,0.991,0.338,0.061,0.305,0,180.992
123666,156040,10988,-0.13,0.988,0.337,0.061,0.305,0,180.998
123691,156090,11330,-0.127,0.981,0.34,-0.488,0.305,-0.061,181.002
123691,156057,10988,-0.129,0.982,0.338,-0.488,0.305,-0.061,181.008
123667,156090,11330,-0.129,0.987,0.344,-0.427,0.427,-0.122,181.012
123667,156060,10998,-0.129,0.991,0.347,-0.427,0.427,-0.122,181.018
123673,156090,11330,-0.127,0.987,0.344,0.305,0.488,-0.244,181.022
123673,156057,10994,-0.128,0.989,0.336,0.305,0.488,-0.244,181.028
123690,156090,11330,-0.129,0.99,0.332,-0.122,0.244,-0.793,181.032
123690,156052,10985,-0.127,0.989,0.33,-0.122,0.244,-0.793,181.038
123700,156090,11330,-0.128,0.985,0.333,-1.463,-0.183,-0.976,181.041
123700,156054,10984,-0.13,0.976,0.334,-1.463,-0.183,-0.976,181.048
123697,156090,11330,-0.13,0.971,0.334,-1.951,-0.366,-0.976,181.051
123697,156059,10987,-0.128,0.974,0.338,-1.951,-0.366,-0.976,181.058
123703,156090,11330,-0.126,0.974,0.344,-1.829,-0.427,-0.915,181.061
123703,156045,10988,-0.129,0.978,0.348,-1.829,-0.427,-0.915,181.067
123722,156090,11330,-0.127,0.974,0.356,-0.915,-0.244,-0.488,181.071
123722,156073,10992,-0.13,0.969,0.357,-0.915,-0.244,-0.488,181.077
123750,156090,11330,-0.128,0.968,0.355,-0.427,0.122,-0.183,181.081
123750,156096,11023,-0.129,0.975,0.357,-0.427,0.122,-0.183,181.087
123768,156090,11330,-0.128,0.981,0.356,-0.305,0.244,-0.122,181.091
123768,156083,11012,-0.126,0.985,0.356,-0.305,0.244,-0.122,181.097
123801,156090,11330,-0.128,0.981,0.352,-0.427,0.183,0.061,181.101
123801,156144,11011,-0.128,0.978,0.347,-0.427,0.183,0.061,181.107
123839,156090,11330,-0.126,0.981,0.347,-0.183,0.366,0.061,181.111
123839,156148,11013,-0.125,0.982,0.348,-0.183,0.366,0.061,181.117
123857,156090,11330,-0.126,0.984,0.346,-0.183,0.61,0.244,181.121
123857,156154,11014,-0.127,0.982,0.347,-0.183,0.61,0.244,181.127
123879,156346,11330,-0.126,0.988,0.344,-0.061,0.671,0.366,181.131
123879,156192,11018,-0.13,0.987,0.341,-0.061,0.671,0.366,181.137
123874,156346,11330,-0.129,0.988,0.344,-0.183,0.671,0.305,181.14
123874,156188,11008,-0.128,0.986,0.345,-0.183,0.671,0.305,181.147
123883,156346,11330,-0.129,0.98,0.338,-0.976,0.183,0.305,181.15
123883,156221,11000,-0.13,0.977,0.333,-0.976,0.183,0.305,181.157
123907,156346,11330,-0.125,0.978,0.335,-1.341,0.183,0.183,181.16
123907,156203,11040,-0.128,0.979,0.335,-1.341,0.183,0.183,181.166
123898,156346,11330,-0.129,0.978,0.339,-0.671,0.366,0.427,181.17
123898,156179,11027,-0.132,0.979,0.34,-0.671,0.366,0.427,181.176
123883,156346,11330,-0.133,0.982,0.341,-0.183,0.366,0.549,181.18
123883,156188,11012,-0.134,0.983,0.344,-0.183,0.366,0.549,181.186
123872,156346,11330,-0.13,0.981,0.347,-0.366,0.183,0.488,181.19
123872,156176,11018,-0.131,0.98,0.352,-0.366,0.183,0.488,181.196
123861,156346,11330,-0.135,0.975,0.353,-0.549,0.305,0.427,181.2
123861,156186,11012,-0.137,0.974,0.354,-0.549,0.305,0.427,181.206
123857,156346,11330,-0.133,0.978,0.351,-0.244,0.488,0.366,181.21
123857,156183,11009,-0.126,0.985,0.347,-0.244,0.488,0.366,181.216
123852,156346,11330,-0.127,0.986,0.35,0.183,0.427,0.061,181.22
123852,156180,11015,-0.13,0.987,0.348,0.183,0.427,0.061,181.226
123847,156346,11330,-0.13,0.987,0.348,0.183,0.427,0.061,181.23
123847,156168,10998,-0.133,0.986,0.344,0.61,0.488,-0.244,181.236
123852,156346,11330,-0.133,0.986,0.344,0.61,0.488,-0.244,181.239
123852,156180,11015,-0.132,0.983,0.347,0,0.305,-0.244,181.246
123858,156346,11330,-0.132,0.983,0.347,0,0.305,-0.244,181.249
123858,156167,11022,-0.133,0.979,0.345,-0.549,0.244,-0.122,181.255
123861,156346,11330,-0.133,0.979,0.345,-0.549,0.244,-0.122,181.259
123861,156161,11023,-0.131,0.984,0.344,-0.122,0.427,0.061,181.265
123857,156090,11330,-0.131,0.984,0.344,-0.122,0.427,0.061,181.269
123857,156140,11028,-0.13,0.993,0.341,0.305,0.488,0.122,181.275
123846,156346,11330,-0.13,0.993,0.341,0.305,0.488,0.122,181.279
123846,156184,11008,-0.133,0.99,0.338,0.122,0.671,-0.061,181.285
123840,156346,11330,-0.133,0.99,0.338,0.122,0.671,-0.061,181.289
123840,156173,11016,-0.131,0.978,0.342,-0.488,0.671,-0.122,181.295
123836,156090,11330,-0.131,0.978,0.342,-0.488,0.671,-0.122,181.299
123836,156153,11014,-0.126,0.976,0.349,-0.854,0.061,-0.183,181.305
123839,156090,11330,-0.126,0.976,0.349,-0.854,0.061,-0.183,181.309
123839,156150,11019,-0.131,0.976,0.343,-0.671,0.183,-0.244,181.315
123838,156090,11330,-0.131,0.976,0.343,-0.671,0.183,-0.244,181.319
123838,156150,11005,-0.134,0.977,0.341,-0.671,0.488,-0.244,181.325
