121218,154554,11330,-0.12,0.976,0.35,-0.244,1.098,0.61,144.973
121218,154535,10713,-0.121,0.983,0.346,0.732,1.341,0.549,144.979
121197,154554,11330,-0.122,0.989,0.342,0.732,1.341,0.549,144.983
121197,154534,10706,-0.126,0.983,0.339,0.61,1.585,0.549,144.989
121192,154554,11330,-0.123,0.982,0.332,0.61,1.585,0.549,144.993
121192,154508,10705,-0.12,0.984,0.321,-0.244,0.915,0.427,144.999
121160,154554,11330,-0.116,0.988,0.311,-0.244,0.915,0.427,145.003
121160,154491,10706,-0.114,0.986,0.312,-1.159,0.061,0.366,145.009
121150,154554,11330,-0.114,0.986,0.312,-1.159,0.061,0.366,145.013
121150,154463,10698,-0.114,0.98,0.337,-0.793,-0.427,0.671,145.019
121124,154554,11330,-0.114,0.98,0.337,-0.793,-0.427,0.671,145.022
121124,154445,10697,-0.112,0.984,0.347,0.122,-0.366,0.854,145.029
121082,154554,11330,-0.112,0.984,0.347,0.122,-0.366,0.854,145.032
121082,154426,10680,-0.115,1.001,0.359,1.341,0,0.671,145.038
121021,154554,11330,-0.115,1.001,0.359,1.341,0,0.671,145.042
121021,154386,10691,-0.118,1.002,0.365,2.134,0.122,0.183,145.048
121026,154554,11330,-0.118,1.002,0.365,2.134,0.122,0.183,145.052
121026,154398,10687,-0.12,1.002,0.373,1.707,0.366,-0.244,145.058
120998,154554,11330,-0.12,1.002,0.373,1.707,0.366,-0.244,145.062
120998,154414,10693,-0.122,0.993,0.373,0,1.159,-0.61,145.068
121041,154554,11330,-0.122,0.993,0.373,0,1.159,-0.61,145.072
121041,154416,10694,-0.12,0.976,0.356,-2.5,1.159,-0.671,145.078
121058,154554,11330,-0.12,0.976,0.356,-2.5,1.159,-0.671,145.082
121058,154427,10684,-0.113,0.959,0.341,-2.805,0.976,-0.61,145.088
121110,154554,11330,-0.113,0.959,0.341,-2.805,0.976,-0.61,145.092
121110,154452,10709,-0.113,0.974,0.336,-1.098,1.463,-0.549,145.098
121121,154554,11330,-0.113,0.974,0.336,-1.098,1.463,-0.549,145.102
121121,154475,10695,-0.112,0.991,0.332,0.549,1.524,-0.366,145.108
121129,154554,11330,-0.112,0.991,0.332,0.549,1.524,-0.366,145.112
121129,154472,10706,-0.106,0.998,0.348,1.159,0.854,-0.061,145.118
121129,154554,11330,-0.106,0.998,0.348,1.159,0.854,-0.061,145.121
121129,154484,10708,-0.115,0.986,0.364,-0.488,0.793,0.366,145.128
121170,154554,11330,-0.115,0.986,0.364,-0.488,0.793,0.366,145.131
121170,154506,10717,-0.111,0.968,0.361,-1.524,1.037,0.488,145.137
121202,154554,11330,-0.111,0.968,0.361,-1.524,1.037,0.488,145.141
121202,154550,10714,-0.111,0.969,0.356,-0.488,1.22,0.61,145.147
121239,154554,11330,-0.111,0.969,0.356,-0.488,1.22,0.61,145.151
121239,154570,10720,-0.115,0.97,0.354,-0.488,1.22,0.61,145.157
121295,154554,11330,-0.12,0.976,0.362,0.549,1.951,0.854,145.161
121295,154617,10716,-0.125,0.983,0.369,0.549,1.951,0.854,145.167
121368,154810,11330,-0.12,0.979,0.369,-0.305,2.317,0.976,145.171
121368,154676,10718,-0.121,0.972,0.358,-0.305,2.317,0.976,145.177
121391,154810,11330,-0.123,0.977,0.339,-1.829,2.012,1.098,145.181
121391,154670,10717,-0.123,0.981,0.333,-1.829,2.012,1.098,145.187
121399,154810,11330,-0.119,0.99,0.345,-2.622,1.646,0.976,145.191
121399,154692,10734,-0.121,0.987,0.345,-2.622,1.646,0.976,145.197
121371,154810,11330,-0.123,0.971,0.348,-3.171,1.524,0.915,145.201
121371,154667,10729,-0.124,0.968,0.35,-3.171,1.524,0.915,145.207
121354,154810,11330,-0.125,0.975,0.342,-2.805,1.402,0.976,145.21
121354,154643,10728,-0.125,0.982,0.338,-2.805,1.402,0.976,145.217
121328,154554,11330,-0.12,0.992,0.341,-1.585,1.463,0.732,145.22
121328,154617,10739,-0.121,0.993,0.347,-1.585,1.463,0.732,145.227
121322,154554,11330,-0.123,0.979,0.348,-1.037,1.524,0.549,145.23
121322,154598,10725,-0.126,0.971,0.35,-1.037,1.524,0.549,145.236
121338,154554,11330,-0.127,0.974,0.353,-0.732,1.463,0.915,145.24
121338,154610,10733,-0.126,0.975,0.357,-0.732,1.463,0.915,145.246
121309,154554,11330,-0.127,0.981,0.357,-0.183,1.524,1.037,145.25
121309,154615,10718,-0.125,0.983,0.355,-0.183,1.524,1.037,145.256
121300,154554,11330,-0.121,0.984,0.351,1.037,1.585,0.915,145.26
121300,154595,10724,-0.121,0.985,0.347,1.037,1.585,0.915,145.266
121290,154554,11330,-0.12,0.989,0.345,0.915,1.341,0.915,145.27
121290,154598,10732,-0.119,0.987,0.346,0.915,1.341,0.915,145.276
121327,154554,11330,-0.12,0.982,0.344,-0.122,1.159,0.732,145.28
121327,154620,10736,-0.12,0.979,0.343,-0.122,1.159,0.732,145.286
121330,154554,11330,-0.119,0.978,0.339,-1.524,0.732,0.671,145.29
121330,154609,10722,-0.115,0.979,0.337,-1.524,0.732,0.671,145.296
121270,154554,11330,-0.112,0.978,0.329,-1.89,0.122,0.793,145.3
121270,154577,10720,-0.109,0.978,0.333,-1.89,0.122,0.793,145.306
121249,154554,11330,-0.116,0.983,0.34,-0.854,0,0.61,145.31
121249,154565,10721,-0.117,0.986,0.336,-0.854,0,0.61,145.316
121208,154554,11330,-0.118,0.991,0.336,-0.549,0.183,0.793,145.319
121208,154537,10711,-0.12,0.991,0.34,-0.549,0.183,0.793,145.326
121204,154554,11330,-0.118,0.989,0.352,-1.098,-0.305,0.427,145.329
121204,154519,10714,-0.12,0.98,0.359,-1.098,-0.305,0.427,145.335
121176,154554,11330,-0.118,0.977,0.361,-0.366,-0.549,0.549,145.339
121176,154509,10702,-0.12,0.985,0.361,-0.366,-0.549,0.549,145.345
121165,154554,11330,-0.119,0.99,0.365,0.854,-0.305,0.366,145.349
121165,154494,10701,-0.12,0.999,0.372,0.854,-0.305,0.366,145.355
121201,154554,11330,-0.12,1,0.383,1.585,0.366,-0.122,145.359
121201,154523,10724,-0.121,0.993,0.379,1.585,0.366,-0.122,145.365
121259,154554,11330,-0.121,0.993,0.376,0.488,0.732,-0.366,145.369
121259,154580,10720,-0.12,0.99,0.367,0.488,0.732,-0.366,145.375
121334,154810,11330,-0.116,0.98,0.356,-1.28,0.671,-0.671,145.379
121334,154637,10732,-0.114,0.97,0.349,-1.28,0.671,-0.671,145.385
121353,154810,11330,-0.113,0.967,0.346,-1.951,0.732,-0.854,145.389
121353,154636,10732,-0.111,0.966,0.339,-1.951,0.732,-0.854,145.395
121319,154554,11330,-0.111,0.966,0.33,-1.22,0.915,-0.488,145.399
121319,154615,10727,-0.118,0.968,0.326,-1.22,0.915,-0.488,145.405
121264,154554,11330,-0.117,0.976,0.326,0.244,0.915,-0.183,145.408
121264,154568,10707,-0.115,0.982,0.336,0.244,0.915,-0.183,145.415
121228,154554,11330,-0.118,0.98,0.339,0.549,0.976,0.183,145.418
121228,154515,10726,-0.121,0.974,0.342,0.549,0.976,0.183,145.425
121160,154554,11330,-0.121,0.971,0.343,0.305,0.671,0.549,145.428
121160,154461,10705,-0.125,0.973,0.344,0.305,0.671,0.549,145.434
121077,154554,11330,-0.122,0.976,0.347,0.549,0.549,0.793,145.438
121077,154428,10678,-0.12,0.983,0.356,0.549,0.549,0.793,145.444
121035,154554,11330,-0.121,0.987,0.367,1.341,0.915,1.037,145.448
121035,154394,10685,-0.122,0.988,0.371,1.341,0.915,1.037,145.454
121045,154554,11330,-0.124,0.989,0.373,1.341,1.037,1.037,145.458
121045,154396,10680,-0.123,1,0.369,1.341,1.037,1.037,145.464
121086,154554,11330,-0.121,1.003,0.363,-0.244,1.098,0.793,145.468
121086,154405,10691,-0.123,1.001,0.357,-0.244,1.098,0.793,145.474
121060,154554,11330,-0.123,0.992,0.353,-2.988,0.61,0.183,145.478
121060,154405,10698,-0.12,0.977,0.345,-2.988,0.61,0.183,145.484
121050,154554,11330,-0.119,0.959,0.334,-4.939,-0.427,-0.061,145.488
121050,154402,10699,-0.117,0.949,0.328,-4.939,-0.427,-0.061,145.494
121043,154554,11330,-0.116,0.958,0.323,-3.415,-0.671,-0.061,145.498
121043,154374,10689,-0.112,0.976,0.329,-3.415,-0.671,-0.061,145.504
121026,154298,11330,-0.115,0.99,0.337,0.061,-0.305,0.183,145.507
121026,154355,10690,-0.118,0.998,0.345,0.061,-0.305,0.183,145.514
120994,154298,11330,-0.119,0.999,0.351,1.28,-0.183,0.305,145.517
120994,154353,10681,-0.116,0.993,0.364,1.28,-0.183,0.305,145.524
121001,154298,11330,-0.111,0.981,0.376,-0.122,-0.427,0.122,145.527
121001,154337,10690,-0.108,0.976,0.38,-0.122,-0.427,0.122,145.533
120976,154298,11330,-0.115,0.978,0.375,-1.22,0.305,0.61,145.537
120976,154325,10682,-0.113,0.979,0.374,-1.22,0.305,0.61,145.543
120987,154298,11330,-0.113,0.98,0.374,-1.768,1.22,0.732,145.547
120987,154342,10678,-0.113,0.978,0.372,-1.768,1.22,0.732,145.553
121003,154554,11330,-0.118,0.973,0.364,-2.317,1.524,0.732,145.557
121003,154369,10659,-0.116,0.974,0.355,-2.317,1.524,0.732,145.563
121017,154298,11330,-0.113,0.982,0.342,-2.988,1.463,0.671,145.567
121017,154343,10676,-0.107,0.987,0.335,-2.988,1.463,0.671,145.573
120995,154554,11330,-0.106,0.988,0.349,-3.659,1.159,0.488,145.577
120995,154384,10681,-0.108,0.979,0.358,-3.659,1.159,0.488,145.583
121015,154298,11330,-0.108,0.979,0.358,-3.659,1.159,0.488,145.587
121015,154354,10682,-0.111,0.967,0.339,-3.902,1.037,0.488,145.593
120987,154298,11330,-0.111,0.967,0.339,-3.902,1.037,0.488,145.597
120987,154340,10665,-0.108,0.975,0.335,-3.598,0.061,0.366,145.603
120960,154298,11330,-0.108,0.975,0.335,-3.598,0.061,0.366,145.606
120960,154306,10667,-0.117,0.984,0.339,-2.073,-0.122,0.488,145.613
120906,154298,11330,-0.117,0.984,0.339,-2.073,-0.122,0.488,145.616
120906,154263,10685,-0.118,0.985,0.357,-0.61,-0.061,0.366,145.623
120880,154298,11330,-0.118,0.985,0.357,-0.61,-0.061,0.366,145.626
120880,154260,10671,-0.122,0.998,0.374,0.549,0.061,0.366,145.632
120858,154298,11330,-0.122,0.998,0.374,0.549,0.061,0.366,145.636
120858,154241,10669,-0.122,0.991,0.374,0.061,0.549,0.366,145.642
120878,154298,11330,-0.122,0.991,0.374,0.061,0.549,0.366,145.646
120878,154240,10659,-0.124,0.981,0.364,-1.402,0.61,0,145.652
120879,154298,11330,-0.124,0.981,0.364,-1.402,0.61,0,145.656
120879,154265,10675,-0.126,0.971,0.351,-2.134,0.61,-0.305,145.662
120881,154298,11330,-0.126,0.971,0.351,-2.134,0.61,-0.305,145.666
120881,154279,10675,-0.117,0.981,0.355,-0.854,0.854,-0.732,145.672
120897,154298,11330,-0.117,0.981,0.355,-0.854,0.854,-0.732,145.676
120897,154280,10654,-0.124,0.975,0.359,0.61,1.28,-0.915,145.682
120918,154298,11330,-0.124,0.975,0.359,0.61,1.28,-0.915,145.686
120918,154268,10675,-0.122,0.971,0.352,0.854,1.402,-0.61,145.692
120891,154298,11330,-0.122,0.971,0.352,0.854,1.402,-0.61,145.696
120891,154228,10674,-0.12,0.968,0.344,0.61,1.037,-0.366,145.702
120842,154298,11330,-0.12,0.968,0.344,0.61,1.037,-0.366,145.705
120842,154192,10674,-0.126,0.967,0.334,1.159,1.037,-0.244,145.712
120789,154298,11330,-0.126,0.967,0.334,1.159,1.037,-0.244,145.715
120789,154157,10653,-0.128,0.975,0.336,2.195,0.976,-0.122,145.722
120727,154042,11330,-0.128,0.975,0.336,2.195,0.976,-0.122,145.725
120727,154104,10644,-0.13,0.982,0.339,2.012,0.488,0.305,145.731
120668,154042,11330,-0.13,0.982,0.345,2.012,0.488,0.305,145.735
120668,154065,10627,-0.127,0.979,0.362,1.28,0.122,0.549,145.741
120619,154042,11330,-0.125,0.977,0.369,1.28,0.122,0.549,145.745
120619,154012,10612,-0.122,0.976,0.372,1.463,-0.061,0.793,145.751
120528,154042,11330,-0.127,0.98,0.368,1.463,-0.061,0.793,145.755
120528,153931,10605,-0.127,0.984,0.356,1.585,0.366,0.793,145.761
120431,154042,11330,-0.127,0.986,0.353,1.585,0.366,0.793,145.765
120431,153864,10604,-0.125,0.984,0.353,0.793,0.305,0.305,145.771
120310,153786,11330,-0.122,0.979,0.343,0.793,0.305,0.305,145.775
120310,153775,10597,-0.124,0.974,0.345,0,-0.366,0.244,145.781
120175,153786,11330,-0.124,0.973,0.353,0,-0.366,0.244,145.785
120175,153643,10571,-0.124,0.969,0.354,0.061,-0.244,0.427,145.791
120044,153530,11330,-0.121,0.968,0.347,0.061,-0.244,0.427,145.795
120044,153568,10545,-0.119,0.969,0.348,0.244,-0.305,0.366,145.801
119923,153530,11330,-0.118,0.963,0.345,0.244,-0.305,0.366,145.804
119923,153456,10544,-0.12,0.964,0.342,0.854,-0.549,0.61,145.811
119847,153530,11330,-0.117,0.976,0.346,0.854,-0.549,0.61,145.814
119847,153387,10529,-0.115,0.98,0.351,1.585,-0.549,0.732,145.82
119790,153530,11330,-0.117,0.978,0.355,1.585,-0.549,0.732,145.824
119790,153371,10529,-0.119,0.983,0.358,2.317,-0.305,0.732,145.83
119808,153530,11330,-0.122,0.99,0.358,2.317,-0.305,0.732,145.834
119808,153385,10530,-0.119,0.996,0.367,2.805,-0.122,0.671,145.84
119824,153530,11330,-0.116,0.996,0.374,2.805,-0.122,0.671,145.844
119824,153434,10524,-0.114,0.994,0.376,3.537,-0.061,0.488,145.85
119929,153530,11330,-0.114,1.001,0.373,3.537,-0.061,0.488,145.854
119929,153467,10546,-0.118,1.005,0.367,3.049,0.366,0.122,145.86
119939,153530,11330,-0.12,1.001,0.369,3.049,0.366,0.122,145.864
119939,153515,10555,-0.114,0.992,0.352,1.707,0.305,0,145.87
119982,153530,11330,-0.114,0.989,0.337,1.707,0.305,0,145.874
119982,153531,10551,-0.115,0.987,0.336,0.366,0.244,-0.305,145.88
119988,153530,11330,-0.116,0.972,0.336,0.366,0.244,-0.305,145.884
119988,153546,10556,-0.118,0.964,0.329,0.427,0.366,-0.122,145.89
119938,153530,11330,-0.116,0.961,0.33,0.427,0.366,-0.122,145.894
119938,153486,10538,-0.115,0.96,0.335,1.768,0.427,0.122,145.9
119818,153530,11330,-0.113,0.971,0.331,1.768,0.427,0.122,145.903
119818,153407,10526,-0.114,0.978,0.328,3.78,0.61,0.488,145.91
119706,153274,11330,-0.113,0.985,0.336,3.78,0.61,0.488,145.913
119706,153320,10511,-0.113,0.992,0.349,4.695,0.671,0.732,145.92
119653,153274,11330,-0.114,0.985,0.364,4.695,0.671,0.732,145.923
119653,153259,10503,-0.116,0.981,0.365,3.963,0.732,0.976,145.929
119582,153274,11330,-0.119,0.978,0.363,3.963,0.732,0.976,145.933
119582,153236,10485,-0.115,0.981,0.37,2.866,1.037,1.098,145.939
119612,153274,11330,-0.114,0.982,0.377,2.866,1.037,1.098,145.943
119612,153270,10508,-0.115,0.987,0.371,2.012,1.402,1.22,145.949
119623,153274,11330,-0.12,0.986,0.373,2.012,1.402,1.22,145.953
119623,153278,10477,-0.119,0.982,0.382,1.28,1.89,1.28,145.959
119615,153274,11330,-0.117,0.982,0.377,1.28,1.89,1.28,145.963
119615,153268,10505,-0.118,0.985,0.362,1.159,2.256,1.159,145.969
119635,153274,11330,-0.115,0.985,0.351,1.159,2.256,1.159,145.973
119635,153280,10506,-0.118,0.987,0.332,0.549,2.622,0.549,145.979
119647,153274,11330,-0.118,0.986,0.321,0.549,2.622,0.549,145.983
119647,153280,10508,-0.116,0.98,0.322,-0.488,2.073,0.427,145.989
119651,153274,11330,-0.114,0.971,0.321,-0.488,2.073,0.427,145.993
119651,153292,10503,-0.117,0.972,0.318,0.183,1.524,0.488,145.999
119615,153274,11330,-0.116,0.976,0.322,0.183,1.524,0.488,146.002
119615,153245,10495,-0.116,0.98,0.326,1.463,1.524,0.793,146.009
119566,153274,11330,-0.12,0.986,0.333,1.463,1.524,0.793,146.012
119566,153202,10488,-0.121,0.989,0.335,2.805,1.402,0.976,146.018
119512,153274,11330,-0.122,0.995,0.345,2.805,1.402,0.976,146.022
119512,153178,10476,-0.124,1,0.35,2.866,1.22,1.159,146.028
119487,153274,11330,-0.124,1,0.36,2.866,1.22,1.159,146.032
119487,153154,10483,-0.123,0.995,0.365,2.439,1.22,1.159,146.038
119509,153274,11330,-0.124,0.996,0.359,2.439,1.22,1.159,146.042
119509,153177,10485,-0.128,1.001,0.361,2.134,1.524,0.793,146.048
119525,153274,11330,-0.125,0.998,0.369,2.134,1.524,0.793,146.052
119525,153162,10480,-0.129,0.992,0.364,1.951,1.829,0.549,146.058
119497,153274,11330,-0.126,0.99,0.349,1.951,1.829,0.549,146.062
119497,153161,10487,-0.124,0.991,0.346,0.976,1.829,0.183,146.068
119506,153274,11330,-0.121,0.987,0.343,0.976,1.829,0.183,146.072
119506,153154,10481,-0.118,0.982,0.334,-0.244,1.707,-0.122,146.078
119496,153274,11330,-0.12,0.98,0.328,-0.244,1.707,-0.122,146.082
119496,153141,10474,-0.12,0.982,0.32,-0.549,1.768,-0.488,146.088
119469,153274,11330,-0.121,0.979,0.316,-0.549,1.768,-0.488,146.091
119469,153148,10469,-0.119,0.985,0.309,0.366,1.585,-0.549,146.098
119472,153274,11330,-0.116,0.99,0.311,0.366,1.585,-0.549,146.101
119472,153154,10479,-0.111,0.987,0.312,0.915,0.854,-0.122,146.108
119499,153274,11330,-0.109,0.978,0.322,0.915,0.854,-0.122,146.111
119499,153180,10504,-0.112,0.977,0.329,1.22,0.244,-0.061,146.117
119551,153274,11330,-0.116,0.982,0.331,1.22,0.244,-0.061,146.121
119551,153222,10495,-0.118,0.986,0.341,1.402,0.122,0.183,146.127
119639,153274,11330,-0.118,0.977,0.346,1.402,0.122,0.183,146.131
119639,153276,10498,-0.119,0.976,0.347,2.073,0,0.244,146.137
119723,153530,11330,-0.12,0.977,0.35,2.073,0,0.244,146.141
119723,153360,10523,-0.121,0.985,0.354,2.5,-0.366,0.305,146.147
119820,153530,11330,-0.122,0.99,0.355,2.5,-0.366,0.305,146.151
119820,153445,10533,-0.122,0.992,0.353,2.317,-0.122,0.061,146.157
119929,153530,11330,-0.123,0.993,0.346,2.317,-0.122,0.061,146.161
119929,153523,10556,-0.124,0.994,0.343,0.976,-0.244,-0.122,146.167
120039,153530,11330,-0.124,0.994,0.343,0.976,-0.244,-0.122,146.171
120039,153590,10571,-0.121,0.972,0.35,0.122,-0.427,-0.061,146.177
120148,153786,11330,-0.121,0.972,0.35,0.122,-0.427,-0.061,146.181
120148,153681,10577,-0.119,0.975,0.338,0.549,0.305,0,146.187
120280,153786,11330,-0.119,0.975,0.338,0.549,0.305,0,146.19
120280,153798,10589,-0.118,0.985,0.333,1.159,0.488,-0.061,146.197
120379,153786,11330,-0.118,0.985,0.333,1.159,0.488,-0.061,146.2
120379,153848,10614,-0.115,0.98,0.334,1.22,0.305,0.244,146.207
120444,154042,11330,-0.115,0.98,0.334,1.22,0.305,0.244,146.21
120444,153935,10613,-0.118,0.978,0.332,1.707,0.305,0.732,146.216
120544,154042,11330,-0.118,0.978,0.332,1.707,0.305,0.732,146.22
120544,154004,10630,-0.118,0.989,0.332,3.171,0.366,1.037,146.226
120643,154042,11330,-0.118,0.989,0.332,3.171,0.366,1.037,146.23
120643,154108,10637,-0.119,1,0.344,3.537,0.427,0.915,146.236
120762,154298,11330,-0.119,1,0.344,3.537,0.427,0.915,146.24
120762,154191,10638,-0.124,1.006,0.369,3.415,0.793,0.854,146.246
120958,154298,11330,-0.124,1.006,0.369,3.415,0.793,0.854,146.25
120958,154334,10681,-0.123,1.014,0.38,1.768,1.28,0.61,146.256
121115,154554,11330,-0.123,1.014,0.38,1.768,1.28,0.61,146.26
121115,154497,10702,-0.13,1.007,0.354,-1.159,1.463,-0.183,146.266
121300,154810,11330,-0.13,1.007,0.354,-1.159,1.463,-0.183,146.27
121300,154634,10726,-0.122,0.984,0.347,-4.268,0.854,-0.732,146.276
121426,154810,11330,-0.122,0.984,0.347,-4.268,0.854,-0.732,146.28
121426,154745,10737,-0.127,0.959,0.309,-5,0.793,-0.793,146.286
121511,154810,11330,-0.127,0.959,0.309,-5,0.793,-0.793,146.289
121511,154823,10753,-0.111,0.957,0.305,-2.927,0.488,-1.037,146.296
121565,154810,11330,-0.111,0.957,0.305,-2.927,0.488,-1.037,146.299
121565,154858,10748,-0.119,0.969,0.304,-0.061,0.488,-0.427,146.306
121597,155066,11330,-0.119,0.969,0.304,-0.061,0.488,-0.427,146.309
121597,154883,10769,-0.118,0.973,0.316,-0.061,0.488,-0.427,146.315
121619,155066,11330,-0.113,0.979,0.321,1.707,0.244,0.061,146.319
121619,154890,10760,-0.116,0.981,0.326,1.707,0.244,0.061,146.325
121659,155066,11330,-0.118,0.984,0.337,2.378,-0.122,0.549,146.329
121659,154912,10788,-0.12,0.985,0.346,2.378,-0.122,0.549,146.335
121730,155066,11330,-0.121,0.984,0.346,2.195,0.061,0.915,146.339
121730,154973,10783,-0.12,0.98,0.336,2.195,0.061,0.915,146.345
121814,155066,11330,-0.123,0.976,0.334,1.341,0.061,1.098,146.349
121814,155059,10789,-0.125,0.975,0.341,1.341,0.061,1.098,146.355
121926,155322,11330,-0.125,0.977,0.344,0.793,-0.244,1.402,146.359
121926,155163,10805,-0.124,0.984,0.346,0.793,-0.244,1.402,146.365
122045,155322,11330,-0.122,0.988,0.344,1.28,-0.061,1.402,146.369
122045,155259,10818,-0.123,1,0.337,1.28,-0.061,1.402,146.375
122147,155322,11330,-0.127,1.006,0.334,1.28,0.183,1.463,146.379
122147,155323,10828,-0.124,1.001,0.335,1.28,0.183,1.463,146.385
122194,155322,11330,-0.125,0.997,0.337,-0.061,-0.061,1.037,146.388
122194,155330,10843,-0.123,0.986,0.338,-0.061,-0.061,1.037,146.395
122175,155322,11330,-0.121,0.978,0.334,-0.976,-0.549,1.037,146.398
122175,155352,10843,-0.119,0.974,0.326,-0.976,-0.549,1.037,146.405
122181,155322,11330,-0.116,0.977,0.332,0,-0.366,1.28,146.408
122181,155320,10837,-0.114,0.98,0.332,0,-0.366,1.28,146.414
122156,155322,11330,-0.115,0.986,0.328,1.89,0,1.22,146.418
122156,155314,10841,-0.117,0.988,0.33,1.89,0,1.22,146.424
122182,155322,11330,-0.117,0.985,0.338,3.537,0.061,1.159,146.428
122182,155333,10842,-0.114,0.983,0.338,3.537,0.061,1.159,146.434
122206,155322,11330,-0.115,0.989,0.351,5,0.061,0.976,146.438
122206,155338,10844,-0.118,1,0.358,5,0.061,0.976,146.444
122205,155322,11330,-0.12,1.009,0.352,4.512,0.61,0.732,146.448
122205,155349,10847,-0.122,1.007,0.348,4.512,0.61,0.732,146.454
122172,155322,11330,-0.122,1.001,0.344,2.378,0.671,0.183,146.458
122172,155340,10840,-0.115,0.995,0.347,2.378,0.671,0.183,146.464
122185,155322,11330,-0.112,0.988,0.35,-0.305,-0.061,0.122,146.468
122185,155348,10847,-0.114,0.984,0.345,-0.305,-0.061,0.122,146.474
122224,155322,11330,-0.115,0.985,0.35,-2.073,0.183,0.366,146.478
122224,155372,10849,-0.117,0.986,0.343,-2.073,0.183,0.366,146.484
122255,155322,11330,-0.116,0.982,0.339,-1.951,0.549,0.183,146.487
122255,155387,10857,-0.115,0.98,0.34,-1.951,0.549,0.183,146.494
122254,155322,11330,-0.117,0.982,0.339,-0.366,0.793,0.061,146.497
122254,155390,10841,-0.118,0.985,0.326,-0.366,0.793,0.061,146.504
122242,155322,11330,-0.118,0.985,0.315,0.732,1.28,0.244,146.507
122242,155368,10838,-0.121,0.984,0.316,0.732,1.28,0.244,146.513
122213,155322,11330,-0.126,0.98,0.315,0.61,0.976,0.427,146.517
122213,155353,10832,-0.122,0.973,0.306,0.61,0.976,0.427,146.523
122174,155322,11330,-0.121,0.973,0.317,-0.183,0.427,0.671,146.527
122174,155322,10833,-0.118,0.976,0.321,-0.183,0.427,0.671,146.533
122213,155322,11330,-0.12,0.977,0.318,0.122,-0.061,0.976,146.537
122213,155351,10837,-0.12,0.984,0.328,0.122,-0.061,0.976,146.543
122291,155578,11330,-0.122,0.988,0.344,0.915,0,1.341,146.547
122291,155422,10858,-0.123,0.99,0.347,0.915,0,1.341,146.553
122338,155578,11330,-0.12,0.993,0.341,1.037,0.183,1.037,146.557
122338,155447,10863,-0.121,1,0.344,1.037,0.183,1.037,146.563
122402,155578,11330,-0.12,1.006,0.348,-0.122,0.244,0.854,146.567
122402,155502,10865,-0.117,0.999,0.345,-0.122,0.244,0.854,146.573
122423,155578,11330,-0.119,0.986,0.342,-1.159,-0.061,0.732,146.577
122423,155525,10872,-0.115,0.979,0.333,-1.159,-0.061,0.732,146.583
122439,155578,11330,-0.115,0.981,0.316,-1.402,-0.427,0.366,146.586
122439,155508,10858,-0.117,0.986,0.319,-1.402,-0.427,0.366,146.593
122387,155578,11330,-0.117,0.992,0.322,-0.183,-0.549,0.183,146.596
122387,155466,10869,-0.113,0.993,0.322,-0.183,-0.549,0.183,146.603
122354,155578,11330,-0.113,0.997,0.329,1.707,-0.549,-0.366,146.606
122354,155440,10868,-0.119,0.996,0.335,1.707,-0.549,-0.366,146.612
122311,155322,11330,-0.12,0.994,0.332,1.768,-0.549,-0.244,146.616
122311,155390,10872,-0.115,0.988,0.326,1.768,-0.549,-0.244,146.622
122258,155322,11330,-0.113,0.983,0.327,0.671,-0.915,-0.122,146.626
122258,155359,10844,-0.115,0.981,0.33,0.671,-0.915,-0.122,146.632
122219,155322,11330,-0.116,0.984,0.332,0.915,-0.915,0,146.636
122219,155308,10852,-0.12,0.986,0.335,0.915,-0.915,0,146.642
122161,155322,11330,-0.12,0.994,0.334,1.707,-0.488,0.305,146.646
122161,155303,10849,-0.118,1.001,0.338,1.707,-0.488,0.305,146.652
122146,155322,11330,-0.114,1,0.355,1.585,-0.427,0.122,146.656
122146,155286,10841,-0.116,0.991,0.368,1.585,-0.427,0.122,146.662
122106,155322,11330,-0.123,0.987,0.364,0.915,-0.122,0,146.666
122106,155247,10819,-0.122,0.987,0.358,0.915,-0.122,0,146.672
122005,155322,11330,-0.119,0.984,0.355,-0.305,0.061,-0.183,146.676
122005,155192,10821,-0.121,0.976,0.344,-0.305,0.061,-0.183,146.682
121972,155066,11330,-0.125,0.973,0.321,-1.159,0.122,-0.183,146.685
121972,155099,10811,-0.124,0.976,0.308,-1.159,0.122,-0.183,146.692
121915,155066,11330,-0.12,0.982,0.311,-0.976,-0.122,-0.061,146.695
121915,155088,10798,-0.115,0.975,0.324,-0.976,-0.122,-0.061,146.701
121843,155066,11330,-0.113,0.978,0.328,1.159,-0.244,0.061,146.705
121843,155053,10796,-0.117,0.993,0.327,1.159,-0.244,0.061,146.711
121839,155066,11330,-0.116,1.002,0.325,1.463,0.305,0.244,146.715
121839,155021,10783,-0.116,1.003,0.332,1.463,0.305,0.244,146.721
121812,155066,11330,-0.111,0.993,0.341,0.488,0.061,0.305,146.725
121812,155006,10791,-0.114,0.985,0.345,0.488,0.061,0.305,146.731
121799,155066,11330,-0.115,0.99,0.349,-0.183,-0.061,0.549,146.735
121799,154997,10786,-0.112,0.999,0.349,-0.183,-0.061,0.549,146.741
121767,155066,11330,-0.121,0.998,0.354,-0.244,0.549,0.366,146.745
121767,154953,10781,-0.122,0.998,0.356,-0.244,0.549,0.366,146.751
121699,155066,11330,-0.122,0.998,0.356,-0.244,0.549,0.366,146.755
121699,154898,10760,-0.115,0.989,0.349,-0.366,0.671,-0.183,146.761
121647,154810,11330,-0.115,0.989,0.349,-0.366,0.671,-0.183,146.765
121647,154874,10778,-0.126,0.987,0.325,-0.976,0.61,-0.61,146.771
121602,154810,11330,-0.126,0.987,0.325,-0.976,0.61,-0.61,146.775
121602,154828,10758,-0.119,0.981,0.325,-1.341,0.915,-0.244,146.781
121586,154810,11330,-0.119,0.981,0.325,-1.341,0.915,-0.244,146.784
121586,154849,10748,-0.118,0.968,0.312,-1.646,0.549,-0.427,146.791
121577,154810,11330,-0.118,0.968,0.312,-1.646,0.549,-0.427,146.794
121577,154804,10752,-0.117,0.967,0.307,-1.89,0.122,-0.122,146.8
121554,154810,11330,-0.117,0.967,0.307,-1.89,0.122,-0.122,146.804
121554,154761,10736,-0.109,0.984,0.323,-0.549,-0.183,0.366,146.81
121482,154810,11330,-0.109,0.984,0.323,-0.549,-0.183,0.366,146.814
121482,154711,10724,-0.122,0.99,0.348,0.915,0.122,0.671,146.82
121417,154810,11330,-0.122,0.99,0.348,0.915,0.122,0.671,146.824
121417,154682,10721,-0.119,0.995,0.367,0.854,0.366,0.915,146.83
121390,154810,11330,-0.119,0.995,0.367,0.854,0.366,0.915,146.834
121390,154657,10737,-0.114,1.01,0.361,0.793,0.549,0.976,146.84
121388,154810,11330,-0.114,1.01,0.361,0.793,0.549,0.976,146.844
121388,154631,10724,-0.123,1.005,0.351,-0.122,1.28,0.488,146.85
121341,154554,11330,-0.123,1.005,0.351,-0.122,1.28,0.488,146.854
121341,154620,10718,-0.123,0.988,0.33,-2.134,1.524,0,146.86
121347,154810,11330,-0.123,0.988,0.33,-2.134,1.524,0,146.864
121347,154626,10710,-0.123,0.968,0.322,-5.061,1.098,-0.122,146.87
121376,154810,11330,-0.123,0.968,0.322,-5.061,1.098,-0.122,146.873
121376,154644,10729,-0.129,0.963,0.297,-5.427,0.854,0.122,146.88
121361,154810,11330,-0.129,0.963,0.297,-5.427,0.854,0.122,146.883
121361,154638,10716,-0.128,0.966,0.288,-2.988,0.61,0.366,146.89
121317,154554,11330,-0.126,0.978,0.29,-2.988,0.61,0.366,146.893
121317,154599,10726,-0.125,0.994,0.307,-0.732,0.183,1.159,146.899
121285,154554,11330,-0.128,0.995,0.326,-0.732,0.183,1.159,146.903
121285,154568,10716,-0.125,0.986,0.333,-0.976,0.244,1.89,146.909
121257,154554,11330,-0.12,0.982,0.338,-0.976,0.244,1.89,146.913
121257,154539,10702,-0.113,0.975,0.342,-2.622,0.122,2.378,146.919
121195,154554,11330,-0.108,0.97,0.352,-2.622,0.122,2.378,146.923
121195,154486,10697,-0.11,0.975,0.363,-2.195,0.366,2.805,146.929
121145,154554,11330,-0.107,0.983,0.367,-2.195,0.366,2.805,146.933
121145,154462,10685,-0.103,0.987,0.379,-0.305,1.341,2.622,146.939
121099,154554,11330,-0.103,0.99,0.387,-0.305,1.341,2.622,146.943
121099,154408,10681,-0.107,0.99,0.386,0.793,2.073,2.256,146.949
121075,154554,11330,-0.112,0.986,0.378,0.793,2.073,2.256,146.953
121075,154406,10674,-0.118,0.983,0.364,-0.732,2.317,2.012,146.959
121105,154554,11330,-0.118,0.982,0.342,-0.732,2.317,2.012,146.963
121105,154415,10664,-0.115,0.972,0.32,-2.683,1.646,1.707,146.969
121142,154554,11330,-0.113,0.962,0.297,-2.683,1.646,1.707,146.973
121142,154437,10695,-0.115,0.97,0.287,-1.768,0.976,1.524,146.979
121109,154554,11330,-0.114,0.993,0.298,-1.768,0.976,1.524,146.982
121109,154403,10682,-0.114,1.008,0.304,0.061,1.159,1.768,146.989
121062,154298,11330,-0.121,1.007,0.305,0.061,1.159,1.768,146.992
121062,154364,10678,-0.119,1.003,0.324,-0.244,0.915,2.134,146.998
120998,154298,11330,-0.119,1.002,0.341,-0.244,0.915,2.134,147.002
120998,154343,10673,-0.119,1,0.347,-3.232,0,2.439,147.008
120932,154298,11330,-0.115,0.993,0.348,-3.232,0,2.439,147.012
120932,154289,10671,-0.113,0.99,0.355,-3.415,0.183,2.012,147.018
120880,154298,11330,-0.11,0.996,0.367,-3.415,0.183,2.012,147.022
120880,154249,10653,-0.115,1.013,0.377,-1.28,1.22,1.463,147.028
120894,154298,11330,-0.12,1.021,0.386,-1.28,1.22,1.463,147.032
120894,154256,10656,-0.128,1.014,0.389,-2.134,2.317,1.159,147.038
120909,154298,11330,-0.127,1.008,0.371,-2.134,2.317,1.159,147.042
120909,154270,10661,-0.125,0.992,0.351,-5.671,2.134,0.061,147.048
120926,154298,11330,-0.13,0.968,0.332,-5.671,2.134,0.061,147.052
120926,154295,10646,-0.127,0.945,0.3,-7.683,1.28,-0.183,147.058
120957,154298,11330,-0.119,0.934,0.283,-7.683,1.28,-0.183,147.062
120957,154285,10670,-0.114,0.936,0.287,-4.146,1.159,0,147.068
120961,154298,11330,-0.111,0.957,0.296,-4.146,1.159,0,147.071
120961,154279,10664,-0.114,0.976,0.3,2.195,1.707,0.183,147.078
120922,154298,11330,-0.116,0.992,0.311,2.195,1.707,0.183,147.081
120922,154273,10662,-0.121,1.002,0.324,4.695,1.951,0.488,147.088
120896,154298,11330,-0.12,1.002,0.335,4.695,1.951,0.488,147.091
120896,154253,10655,-0.12,0.995,0.342,2.622,0.915,1.037,147.097
120810,154298,11330,-0.118,0.984,0.338,2.622,0.915,1.037,147.101
120810,154196,10640,-0.117,0.983,0.335,1.22,0.366,0.793,147.107
120750,154298,11330,-0.122,0.986,0.344,1.22,0.366,0.793,147.111
120750,154148,10635,-0.121,0.988,0.351,1.463,0.793,0.488,147.117
120742,154298,11330,-0.124,0.979,0.353,1.463,0.793,0.488,147.121
120742,154153,10633,-0.128,0.977,0.352,1.585,1.28,0.549,147.127
120747,154298,11330,-0.128,0.984,0.351,1.585,1.28,0.549,147.131
120747,154148,10637,-0.128,0.985,0.334,0.427,1.159,0.732,147.137
120781,154298,11330,-0.128,0.99,0.319,0.427,1.159,0.732,147.141
120781,154169,10629,-0.12,0.991,0.316,-1.037,0.183,0.61,147.147
120803,154298,11330,-0.11,0.99,0.314,-1.037,0.183,0.61,147.151
120803,154187,10638,-0.107,0.985,0.312,-1.646,-0.61,0.244,147.157
120797,154298,11330,-0.105,0.988,0.315,-1.646,-0.61,0.244,147.161
120797,154194,10633,-0.105,0.994,0.318,-1.037,-0.61,0.366,147.167
120738,154298,11330,-0.107,1,0.316,-1.037,-0.61,0.366,147.17
120738,154149,10635,-0.1,1.01,0.316,0.244,-0.854,0.122,147.177
120668,154042,11330,-0.092,1.014,0.317,0.244,-0.854,0.122,147.18
120668,154077,10620,-0.095,1.013,0.328,1.829,-1.098,-0.183,147.187
120588,154042,11330,-0.099,1.009,0.331,1.829,-1.098,-0.183,147.19
120588,154010,10614,-0.1,1.007,0.346,2.317,-0.488,-0.488,147.196
120540,154042,11330,-0.105,0.997,0.355,2.317,-0.488,-0.488,147.2
120540,153974,10594,-0.107,0.981,0.358,2.195,-0.061,-0.549,147.206
120473,154042,11330,-0.111,0.974,0.356,2.195,-0.061,-0.549,147.21
120473,153955,10599,-0.115,0.981,0.349,2.5,0.244,-0.183,147.216
120436,154042,11330,-0.114,0.981,0.341,2.5,0.244,-0.183,147.22
120436,153901,10581,-0.116,0.985,0.341,2.866,0.549,0.122,147.226
120376,154042,11330,-0.12,0.987,0.342,2.866,0.549,0.122,147.23
120376,153879,10576,-0.125,0.984,0.339,1.89,0.732,0.488,147.236
120350,154042,11330,-0.124,0.975,0.324,1.89,0.732,0.488,147.24
120350,153879,10590,-0.119,0.971,0.318,-0.366,0.244,0.61,147.246
120418,154042,11330,-0.118,0.967,0.317,-0.366,0.244,0.61,147.25
120418,153928,10591,-0.117,0.97,0.314,-1.28,-0.366,0.793,147.256
120462,154042,11330,-0.113,0.979,0.325,-1.28,-0.366,0.793,147.26
120462,153936,10600,-0.113,1,0.344,-0.061,-0.427,1.098,147.266
120437,154042,11330,-0.115,1.008,0.353,-0.061,-0.427,1.098,147.269
120437,153921,10585,-0.113,1.009,0.359,0.915,-0.305,0.793,147.276
120360,154042,11330,-0.119,1.021,0.356,0.915,-0.305,0.793,147.279
120360,153865,10566,-0.119,1.022,0.364,-0.244,-0.427,-0.061,147.286
120285,153786,11330,-0.115,1.006,0.371,-0.244,-0.427,-0.061,147.289
120285,153792,10567,-0.12,0.992,0.369,-1.829,-0.549,-0.427,147.295
120202,153786,11330,-0.12,0.98,0.37,-1.829,-0.549,-0.427,147.299
120202,153754,10562,-0.121,0.978,0.376,-1.524,0.183,-0.427,147.305
120126,153786,11330,-0.128,0.986,0.38,-1.524,0.183,-0.427,147.309
120126,153683,10557,-0.126,0.989,0.368,0.122,1.585,-0.732,147.315
120114,153786,11330,-0.126,0.983,0.356,0.122,1.585,-0.732,147.319
120114,153678,10545,-0.125,0.98,0.342,0.244,2.256,-0.976,147.325
120123,153786,11330,-0.125,0.98,0.342,0.244,2.256,-0.976,147.329
120123,153665,10556,-0.127,0.961,0.293,-1.707,1.89,-0.549,147.335
120129,153786,11330,-0.127,0.961,0.293,-1.707,1.89,-0.549,147.339
120129,153719,10558,-0.114,0.955,0.283,-2.805,0.732,-0.061,147.345
120154,153786,11330,-0.114,0.955,0.283,-2.805,0.732,-0.061,147.349
120154,153741,10550,-0.103,0.959,0.298,-0.976,0.244,0.427,147.355
120156,153786,11330,-0.103,0.959,0.298,-0.976,0.244,0.427,147.359
120156,153705,10560,-0.113,0.996,0.325,1.098,0.244,1.22,147.365
120099,153786,11330,-0.113,0.996,0.325,1.098,0.244,1.22,147.368
120099,153648,10546,-0.109,1.005,0.34,1.037,-0.305,1.463,147.375
120068,153786,11330,-0.109,1.005,0.34,1.037,-0.305,1.463,147.378
120068,153621,10552,-0.118,0.998,0.362,-0.305,-0.671,1.28,147.385
120034,153786,11330,-0.118,0.998,0.362,-0.305,-0.671,1.28,147.388
120034,153602,10527,-0.121,0.986,0.378,-0.915,-0.366,1.402,147.394
120018,153530,11330,-0.121,0.986,0.378,-0.915,-0.366,1.402,147.398
120018,153584,10523,-0.126,0.995,0.368,-0.427,0.732,1.22,147.404
120029,153786,11330,-0.126,0.995,0.368,-0.427,0.732,1.22,147.408
120029,153617,10537,-0.132,0.992,0.343,-0.793,1.037,0.915,147.414
120081,153786,11330,-0.132,0.992,0.343,-0.793,1.037,0.915,147.418
120081,153669,10549,-0.124,0.964,0.319,-1.585,0.488,0.793,147.424
120123,153786,11330,-0.124,0.964,0.319,-1.585,0.488,0.793,147.428
120123,153712,10550,-0.122,0.96,0.291,-1.707,0,0.976,147.434
120166,153786,11330,-0.122,0.96,0.291,-1.707,0,0.976,147.438
120166,153735,10560,-0.109,0.985,0.298,-0.976,-0.305,0.854,147.444
120172,153786,11330,-0.109,0.985,0.298,-0.976,-0.305,0.854,147.448
120172,153736,10554,-0.108,0.99,0.33,0.549,-0.793,0.915,147.454
120174,153786,11330,-0.108,0.99,0.33,0.549,-0.793,0.915,147.458
120174,153728,10560,-0.105,1.006,0.336,1.28,-1.037,0.854,147.464
120153,153786,11330,-0.105,1.006,0.336,1.28,-1.037,0.854,147.467
120153,153672,10541,-0.104,1.013,0.342,1.28,-1.037,0.854,147.474
120084,153786,11330,-0.105,1.009,0.345,0.854,-0.976,0.183,147.477
120084,153642,10557,-0.105,0.999,0.349,0.854,-0.976,0.183,147.484
120041,153786,11330,-0.108,0.988,0.358,1.037,-1.037,-0.305,147.487
120041,153613,10536,-0.109,0.987,0.364,1.037,-1.037,-0.305,147.493
119998,153530,11330,-0.115,0.99,0.368,1.037,-0.61,-0.244,147.497
119998,153599,10523,-0.116,0.985,0.371,1.037,-0.61,-0.244,147.503
119986,153530,11330,-0.119,0.988,0.373,1.159,0.244,-0.244,147.507
119986,153549,10546,-0.115,0.998,0.365,1.159,0.244,-0.244,147.513
119982,153530,11330,-0.114,0.993,0.351,0.366,0.366,-0.427,147.517
119982,153593,10546,-0.115,0.983,0.334,0.366,0.366,-0.427,147.523
120025,153786,11330,-0.116,0.974,0.325,-0.793,0.427,-0.61,147.527
120025,153616,10548,-0.119,0.973,0.319,-0.793,0.427,-0.61,147.533
120054,153786,11330,-0.118,0.967,0.313,-2.073,0.061,-0.427,147.537
120054,153644,10539,-0.112,0.962,0.314,-2.073,0.061,-0.427,147.543
120035,153786,11330,-0.109,0.966,0.316,-1.89,-0.183,0,147.547
120035,153627,10554,-0.104,0.967,0.325,-1.89,-0.183,0,147.553
120100,153786,11330,-0.104,0.975,0.334,0.122,-0.061,0.488,147.557
120100,153661,10539,-0.108,0.988,0.341,0.122,-0.061,0.488,147.563
120091,153786,11330,-0.112,0.999,0.341,1.28,0.305,0.854,147.566
120091,153679,10551,-0.113,1,0.347,1.28,0.305,0.854,147.573
120106,153786,11330,-0.112,1,0.345,0.61,0.305,0.732,147.576
120106,153657,10533,-0.115,0.993,0.352,0.61,0.305,0.732,147.583
120041,153786,11330,-0.116,0.989,0.361,-0.305,0.061,0.732,147.586
120041,153649,10535,-0.122,0.983,0.357,-0.305,0.061,0.732,147.592
120060,153786,11330,-0.122,0.984,0.356,-0.427,0.488,0.854,147.596
120060,153658,10528,-0.124,0.987,0.354,-0.427,0.488,0.854,147.602
120075,153786,11330,-0.12,0.992,0.342,-0.183,0.793,0.732,147.606
120075,153688,10547,-0.119,0.994,0.337,-0.183,0.793,0.732,147.612
120136,153786,11330,-0.117,0.993,0.335,0.305,0.854,0.366,147.616
120136,153727,10565,-0.12,0.994,0.336,0.305,0.854,0.366,147.622
120198,153786,11330,-0.123,1.001,0.332,0.976,1.037,0.061,147.626
120198,153763,10551,-0.12,1.002,0.327,0.976,1.037,0.061,147.632
120191,153786,11330,-0.123,0.995,0.312,0.122,0.854,-0.183,147.636
120191,153749,10563,-0.119,0.995,0.304,0.122,0.854,-0.183,147.642
120120,153786,11330,-0.116,0.989,0.306,-1.341,0.122,-0.366,147.646
120120,153723,10562,-0.11,0.979,0.31,-1.341,0.122,-0.366,147.652
120027,153786,11330,-0.11,0.974,0.318,-1.463,-0.366,-0.061,147.656
120027,153646,10524,-0.112,0.976,0.326,-1.463,-0.366,-0.061,147.662
119973,153530,11330,-0.115,0.987,0.336,-0.244,-0.122,0.427,147.665
119973,153572,10548,-0.115,0.995,0.337,-0.244,-0.122,0.427,147.672
119877,153530,11330,-0.112,0.995,0.348,0.549,0.244,0.366,147.675
119877,153505,10509,-0.112,0.996,0.354,0.549,0.244,0.366,147.682
119862,153530,11330,-0.116,0.992,0.36,0,0.183,0.305,147.685
119862,153489,10517,-0.114,0.98,0.363,0,0.183,0.305,147.691
119865,153530,11330,-0.111,0.979,0.365,-0.854,0.305,0.305,147.695
119865,153474,10502,-0.111,0.982,0.361,-0.854,0.305,0.305,147.701
119850,153530,11330,-0.115,0.982,0.354,-0.732,0.549,0.305,147.705
119850,153483,10519,-0.116,0.987,0.338,-0.732,0.549,0.305,147.711
119878,153530,11330,-0.117,0.991,0.329,-0.244,0.854,-0.122,147.715
119878,153542,10513,-0.117,0.988,0.326,-0.244,0.854,-0.122,147.721
119922,153530,11330,-0.115,0.981,0.324,-0.671,0.671,-0.366,147.725
119922,153561,10530,-0.116,0.975,0.316,-0.671,0.671,-0.366,147.731
119914,153530,11330,-0.115,0.97,0.307,-1.341,0.244,-0.122,147.735
119914,153535,10530,-0.115,0.973,0.314,-1.341,0.244,-0.122,147.741
119906,153530,11330,-0.111,0.978,0.32,-0.854,-0.061,0,147.745
119906,153532,10525,-0.111,0.984,0.327,-0.854,-0.061,0,147.751
119927,153530,11330,-0.117,0.988,0.336,0.549,0.244,0.549,147.755
119927,153523,10525,-0.118,0.993,0.338,0.549,0.244,0.549,147.761
119898,153530,11330,-0.114,1,0.339,0.305,0.122,1.037,147.764
119898,153522,10509,-0.11,1.001,0.349,0.305,0.122,1.037,147.771
119843,153530,11330,-0.11,0.997,0.354,-0.854,0,1.463,147.774
119843,153524,10509,-0.114,0.99,0.355,-0.854,0,1.463,147.781
119881,153530,11330,-0.116,0.984,0.357,-1.951,0.122,1.402,147.784
119881,153515,10512,-0.115,0.984,0.357,-1.951,0.122,1.402,147.79
119920,153530,11330,-0.112,0.99,0.352,-2.866,-0.061,1.402,147.794
119920,153563,10526,-0.113,0.989,0.343,-2.866,-0.061,1.402,147.8
119992,153786,11330,-0.115,0.982,0.355,-3.293,-0.183,1.402,147.804
119992,153621,10537,-0.117,0.981,0.357,-3.293,-0.183,1.402,147.81
120026,153786,11330,-0.119,0.975,0.336,-3.354,-0.183,1.098,147.814
120026,153659,10524,-0.117,0.974,0.319,-3.354,-0.183,1.098,147.82
120113,153786,11330,-0.115,0.987,0.312,-3.11,-0.549,0.61,147.824
120113,153686,10551,-0.115,1.003,0.311,-3.11,-0.549,0.61,147.83
120106,153786,11330,-0.116,0.993,0.312,-3.354,-0.732,0.549,147.834
120106,153687,10548,-0.118,0.972,0.32,-3.354,-0.732,0.549,147.84
120094,153786,11330,-0.114,0.964,0.327,-2.378,-0.915,0.183,147.844
120094,153688,10540,-0.117,0.975,0.328,-2.378,-0.915,0.183,147.85
120103,153786,11330,-0.118,0.988,0.335,-0.427,-0.61,0.488,147.854
120103,153701,10529,-0.119,0.996,0.339,-0.427,-0.61,0.488,147.86
120085,153786,11330,-0.118,1,0.339,2.134,0.366,0.305,147.863
120085,153663,10546,-0.12,1.004,0.344,2.134,0.366,0.305,147.87
120125,153786,11330,-0.12,1.001,0.344,2.012,0.549,0.244,147.873
120125,153707,10550,-0.123,0.992,0.35,2.012,0.549,0.244,147.879
120187,153786,11330,-0.122,0.983,0.355,0.122,0.366,0.244,147.883
120187,153763,10563,-0.118,0.975,0.358,0.122,0.366,0.244,147.889
120287,153786,11330,-0.118,0.973,0.358,-0.427,0.488,0.244,147.893
120287,153837,10580,-0.123,0.981,0.35,-0.427,0.488,0.244,147.899
120372,154042,11330,-0.123,0.988,0.34,-0.244,0.854,0.305,147.903
120372,153927,10596,-0.118,0.994,0.339,-0.244,0.854,0.305,147.909
120470,154042,11330,-0.118,0.994,0.339,-0.244,0.854,0.305,147.913
120470,153982,10604,-0.104,1,0.349,-0.366,0.366,0.183,147.919
120517,154042,11330,-0.104,1,0.349,-0.366,0.366,0.183,147.923
120517,154035,10596,-0.102,0.981,0.334,-1.402,0,-0.244,147.929
120564,154042,11330,-0.102,0.981,0.334,-1.402,0,-0.244,147.933
120564,154061,10603,-0.103,0.988,0.332,-2.012,-0.244,-0.732,147.939
120546,154042,11330,-0.103,0.988,0.332,-2.012,-0.244,-0.732,147.943
120546,154039,10607,-0.106,0.983,0.342,-1.402,-0.427,-0.976,147.949
120547,154042,11330,-0.106,0.983,0.342,-1.402,-0.427,-0.976,147.953
120547,154025,10592,-0.109,0.986,0.351,0.244,-0.183,-1.159,147.959
120538,154042,11330,-0.109,0.986,0.351,0.244,-0.183,-1.159,147.962
120538,154006,10596,-0.113,0.992,0.353,1.28,0.244,-0.854,147.969
120485,154042,11330,-0.113,0.992,0.353,1.28,0.244,-0.854,147.972
120485,153985,10585,-0.115,0.974,0.364,1.037,0.427,-0.732,147.979
120491,154042,11330,-0.115,0.974,0.364,1.037,0.427,-0.732,147.982
120491,154018,10598,-0.12,0.962,0.354,-0.244,0.671,-0.366,147.988
120546,154042,11330,-0.12,0.962,0.354,-0.244,0.671,-0.366,147.992
120546,154036,10604,-0.114,0.978,0.335,-1.159,0.976,0.183,147.998
120575,154042,11330,-0.114,0.978,0.335,-1.159,0.976,0.183,148.002
120575,154072,10610,-0.112,0.981,0.337,-1.524,1.037,0.549,148.008
120608,154298,11330,-0.112,0.981,0.337,-1.524,1.037,0.549,148.012
120608,154116,10615,-0.108,0.988,0.327,-1.159,0.793,0.915,148.018
120611,154042,11330,-0.108,0.988,0.327,-1.159,0.793,0.915,148.022
120611,154087,10612,-0.112,1.006,0.335,-0.366,0.854,1.098,148.028
120519,154042,11330,-0.112,1.006,0.335,-0.366,0.854,1.098,148.032
120519,154024,10595,-0.115,1.009,0.339,-0.183,1.22,0.976,148.038
120352,153786,11330,-0.115,1.009,0.339,-0.183,1.22,0.976,148.042
120352,153842,10571,-0.119,0.992,0.338,-1.22,0.915,0.488,148.048
120126,153786,11330,-0.119,0.992,0.338,-1.22,0.915,0.488,148.052
120126,153692,10546,-0.122,0.984,0.333,-2.134,0.488,0.183,148.058
119863,153530,11330,-0.125,0.984,0.328,-2.134,0.488,0.183,148.061
119863,153459,10500,-0.124,0.982,0.331,-1.524,0.549,0.122,148.068
119582,153274,11330,-0.128,0.978,0.341,-1.524,0.549,0.122,148.071
119582,153242,10480,-0.128,0.981,0.35,0.061,0.732,0.122,148.077
119347,153018,11330,-0.13,0.99,0.357,0.061,0.732,0.122,148.081
119347,153057,10431,-0.128,0.995,0.363,0.427,0.976,0.244,148.087
119184,153018,11330,-0.124,0.988,0.361,0.427,0.976,0.244,148.091
119184,152913,10428,-0.122,0.986,0.361,-0.305,0.793,0.061,148.097
119095,153018,11330,-0.121,0.992,0.354,-0.305,0.793,0.061,148.101
119095,152859,10404,-0.116,0.991,0.332,-1.402,0.61,-0.366,148.107
119043,152762,11330,-0.117,0.987,0.327,-1.402,0.61,-0.366,148.111
119043,152828,10406,-0.115,0.981,0.333,-2.195,0.061,-0.61,148.117
118981,152762,11330,-0.115,0.965,0.328,-2.195,0.061,-0.61,148.121
118981,152780,10400,-0.113,0.961,0.329,-2.073,-0.183,-0.427,148.127
118934,152762,11330,-0.115,0.971,0.326,-2.073,-0.183,-0.427,148.131
118934,152750,10388,-0.111,0.982,0.325,-1.524,-0.061,-0.183,148.137
118932,152762,11330,-0.11,0.983,0.327,-1.524,-0.061,-0.183,148.141
118932,152749,10404,-0.111,0.983,0.336,-0.061,0.061,0.061,148.147
118909,152762,11330,-0.111,0.989,0.339,-0.061,0.061,0.061,148.151
118909,152734,10394,-0.11,0.998,0.345,1.098,0.305,0.183,148.157
118916,152762,11330,-0.114,1.003,0.351,1.098,0.305,0.183,148.16
118916,152706,10390,-0.114,0.996,0.359,0.305,0.549,0.305,148.167
118898,152762,11330,-0.119,0.98,0.366,0.305,0.549,0.305,148.17
118898,152739,10414,-0.116,0.98,0.37,-0.732,0.732,0.305,148.177
118923,152762,11330,-0.113,0.985,0.374,-0.732,0.732,0.305,148.18
118923,152743,10410,-0.114,0.983,0.372,-0.366,0.915,0.366,148.186
118970,152762,11330,-0.117,0.992,0.365,-0.366,0.915,0.366,148.19
118970,152782,10401,-0.118,1,0.352,0.366,1.89,0.061,148.196
119034,152762,11330,-0.124,0.992,0.344,0.366,1.89,0.061,148.2
119034,152819,10400,-0.122,0.983,0.333,-0.61,1.707,-0.549,148.206
119116,153018,11330,-0.112,0.982,0.326,-0.61,1.707,-0.549,148.21
119116,152900,10442,-0.113,0.973,0.318,-1.341,0.793,-1.159,148.216
119180,153018,11330,-0.115,0.97,0.305,-1.341,0.793,-1.159,148.22
119180,152978,10430,-0.115,0.97,0.305,-0.183,0.671,-1.28,148.226
119205,153018,11330,-0.115,0.974,0.308,-0.183,0.671,-1.28,148.23
119205,152968,10416,-0.117,0.985,0.309,1.098,0.488,-1.037,148.236
119210,153018,11330,-0.118,0.99,0.32,1.098,0.488,-1.037,148.24
119210,152984,10425,-0.121,0.99,0.322,0.732,0.305,-0.61,148.246
119223,153018,11330,-0.119,0.985,0.326,0.732,0.305,-0.61,148.25
119223,152978,10425,-0.116,0.98,0.334,-0.244,-0.244,-0.122,148.256
119173,153018,11330,-0.117,0.983,0.342,-0.244,-0.244,-0.122,148.259
119173,152963,10414,-0.119,0.986,0.357,-0.915,-0.183,0.305,148.266
119171,153018,11330,-0.121,0.979,0.37,-0.915,-0.183,0.305,148.269
119171,152957,10410,-0.121,0.976,0.386,-0.671,0,0.61,148.275
119197,153018,11330,-0.115,0.984,0.385,-0.671,0,0.61,148.279
119197,152980,10435,-0.113,0.991,0.382,-0.488,0.244,0.427,148.285
119233,153018,11330,-0.117,1,0.371,-0.488,0.244,0.427,148.289
119233,153026,10439,-0.118,1.001,0.356,-0.854,0.793,0,148.295
119336,153018,11330,-0.116,0.999,0.34,-0.854,0.793,0,148.299
119336,153045,10451,-0.116,0.979,0.337,-2.256,0.61,-0.793,148.305
119360,153274,11330,-0.117,0.961,0.325,-2.256,0.61,-0.793,148.309
119360,153099,10458,-0.118,0.964,0.308,-2.378,0.366,-0.915,148.315
119398,153274,11330,-0.116,0.973,0.302,-2.378,0.366,-0.915,148.319
119398,153142,10457,-0.116,0.978,0.306,-1.037,0.488,-0.854,148.325
119411,153274,11330,-0.116,0.983,0.303,-1.037,0.488,-0.854,148.329
119411,153135,10442,-0.118,0.991,0.303,-0.183,0.061,-0.61,148.335
119398,153274,11330,-0.111,0.991,0.32,-0.183,0.061,-0.61,148.339
119398,153125,10453,-0.11,0.983,0.335,-0.122,-0.61,0.061,148.345
119354,153274,11330,-0.115,0.983,0.345,-0.122,-0.61,0.061,148.349
119354,153090,10456,-0.122,0.985,0.358,0.061,-0.244,0.366,148.355
119330,153018,11330,-0.126,0.982,0.367,0.061,-0.244,0.366,148.358
119330,153078,10449,-0.12,0.983,0.374,0.549,0.427,0.549,148.365
119316,153018,11330,-0.121,0.991,0.375,0.549,0.427,0.549,148.368
119316,153053,10439,-0.122,1.002,0.382,0.244,0.671,0.793,148.374
119371,153274,11330,-0.122,1.002,0.385,0.244,0.671,0.793,148.378
119371,153103,10456,-0.123,0.993,0.387,-0.61,1.098,0.61,148.384
119418,153274,11330,-0.126,0.983,0.379,-0.61,1.098,0.61,148.388
119418,153130,10442,-0.13,0.978,0.347,-0.732,1.402,0.122,148.394
119414,153274,11330,-0.128,0.981,0.318,-0.732,1.402,0.122,148.398
119414,153178,10455,-0.119,0.982,0.306,-2.5,0.793,-0.244,148.404
119470,153274,11330,-0.111,0.972,0.305,-2.5,0.793,-0.244,148.408
119470,153179,10460,-0.113,0.959,0.299,-3.354,-0.061,-0.244,148.414
119470,153274,11330,-0.113,0.962,0.299,-3.354,-0.061,-0.244,148.418
119470,153191,10471,-0.109,0.975,0.314,-1.646,-0.305,0.061,148.424
119467,153274,11330,-0.111,0.987,0.329,-1.646,-0.305,0.061,148.428
119467,153186,10462,-0.111,0.995,0.343,1.098,0.122,0.488,148.434
119455,153274,11330,-0.115,1.001,0.344,1.098,0.122,0.488,148.438
119455,153175,10461,-0.115,1,0.347,1.951,0.244,0.549,148.444
119415,153274,11330,-0.114,0.995,0.358,1.951,0.244,0.549,148.448
119415,153142,10453,-0.117,0.989,0.361,1.463,0.061,0.488,148.454
119389,153274,11330,-0.12,0.985,0.365,1.463,0.061,0.488,148.457
119389,153117,10450,-0.125,0.979,0.376,1.098,0.732,0.549,148.464
119385,153274,11330,-0.127,0.975,0.377,1.098,0.732,0.549,148.467
119385,153105,10460,-0.122,0.974,0.374,2.012,1.28,0.488,148.473
119425,153274,11330,-0.122,0.98,0.367,2.012,1.28,0.488,148.477
119425,153119,10461,-0.126,0.982,0.36,2.439,1.707,0.671,148.483
119465,153274,11330,-0.128,0.981,0.35,2.439,1.707,0.671,148.487
119465,153195,10459,-0.126,0.977,0.333,0.854,1.646,0.671,148.493
119555,153274,11330,-0.121,0.969,0.318,0.854,1.646,0.671,148.497
119555,153253,10478,-0.116,0.972,0.31,-0.61,1.037,0.61,148.503
119604,153274,11330,-0.116,0.972,0.31,-0.61,1.037,0.61,148.507
119604,153304,10469,-0.114,0.98,0.314,-0.305,0.732,0.854,148.513
119615,153274,11330,-0.114,0.98,0.314,-0.305,0.732,0.854,148.517
119615,153302,10474,-0.11,0.997,0.313,0.61,0.61,0.976,148.523
119613,153274,11330,-0.11,0.997,0.313,0.61,0.61,0.976,148.527
119613,153294,10473,-0.116,1,0.34,0.976,0.366,1.28,148.533
119589,153274,11330,-0.116,1,0.34,0.976,0.366,1.28,148.537
119589,153308,10474,-0.108,0.999,0.332,0.671,0.183,1.28,148.543
119567,153274,11330,-0.108,0.999,0.332,0.671,0.183,1.28,148.547
119567,153289,10489,-0.118,1.001,0.34,0.183,0.183,0.976,148.553
119576,153274,11330,-0.118,1.001,0.34,0.183,0.183,0.976,148.556
119576,153266,10479,-0.124,0.994,0.358,-0.427,0.305,0.488,148.563
119654,153530,11330,-0.124,0.994,0.358,-0.427,0.305,0.488,148.566
119654,153347,10468,-0.12,0.991,0.359,-0.671,0.366,0.183,148.572
119776,153530,11330,-0.12,0.991,0.359,-0.671,0.366,0.183,148.576
119776,153453,10495,-0.127,0.987,0.355,-1.22,0.549,-0.244,148.582
119899,153530,11330,-0.127,0.987,0.355,-1.22,0.549,-0.244,148.586
119899,153545,10528,-0.125,0.974,0.343,-1.89,0.488,-0.732,148.592
119995,153786,11330,-0.125,0.974,0.343,-1.89,0.488,-0.732,148.596
119995,153642,10534,-0.123,0.971,0.327,-2.256,0.549,-0.976,148.602
120103,153786,11330,-0.123,0.971,0.327,-2.256,0.549,-0.976,148.606
120103,153677,10546,-0.123,0.961,0.315,-2.256,0.183,-0.793,148.612
120118,153786,11330,-0.123,0.961,0.315,-2.256,0.183,-0.793,148.616
120118,153690,10558,-0.111,0.966,0.318,-1.524,-0.183,-0.122,148.622
120056,153786,11330,-0.111,0.966,0.318,-1.524,-0.183,-0.122,148.626
120056,153668,10542,-0.114,0.975,0.335,-0.061,-0.427,0.61,148.632
119996,153786,11330,-0.114,0.975,0.335,-0.061,-0.427,0.61,148.636
119996,153620,10519,-0.112,0.992,0.364,1.22,-0.061,0.915,148.642
119978,153530,11330,-0.112,0.992,0.364,1.22,-0.061,0.915,148.645
119978,153564,10517,-0.118,1,0.375,1.22,-0.061,0.915,148.652
119958,153530,11330,-0.119,1.003,0.378,0.671,0.244,0.915,148.655
119958,153569,10526,-0.119,1.007,0.375,0.671,0.244,0.915,148.662
119978,153786,11330,-0.119,1.005,0.37,-1.524,0.183,0.854,148.665
119978,153601,10520,-0.118,1,0.364,-1.524,0.183,0.854,148.671
120105,153786,11330,-0.121,0.994,0.354,-3.476,0.183,0.61,148.675
120105,153723,10551,-0.119,0.992,0.347,-3.476,0.183,0.61,148.681
120228,153786,11330,-0.118,0.989,0.334,-4.573,0.183,0.122,148.685
120228,153803,10566,-0.124,0.984,0.323,-4.573,0.183,0.122,148.691
120303,154042,11330,-0.121,0.981,0.307,-5.122,0,-0.244,148.695
120303,153856,10561,-0.12,0.977,0.309,-5.122,0,-0.244,148.701
120338,154042,11330,-0.12,0.973,0.312,-3.902,-0.366,-0.427,148.705
120338,153880,10570,-0.116,0.973,0.319,-3.902,-0.366,-0.427,148.711
120346,154042,11330,-0.117,0.976,0.33,-1.159,-0.488,-0.244,148.715
120346,153883,10581,-0.117,0.984,0.344,-1.159,-0.488,-0.244,148.721
120339,154042,11330,-0.119,0.992,0.347,1.037,-0.122,-0.122,148.725
120339,153876,10575,-0.118,0.998,0.352,1.037,-0.122,-0.122,148.731
120320,154042,11330,-0.118,1.002,0.363,1.463,0,-0.183,148.735
120320,153883,10576,-0.12,0.998,0.37,1.463,0,-0.183,148.741
120288,154042,11330,-0.117,0.99,0.372,1.098,0.061,-0.061,148.745
120288,153869,10567,-0.116,0.989,0.376,1.098,0.061,-0.061,148.751
120319,154042,11330,-0.119,0.982,0.38,0.427,0.549,-0.305,148.754
120319,153886,10582,-0.118,0.979,0.382,0.427,0.549,-0.305,148.761
120371,154042,11330,-0.118,0.979,0.371,-0.122,0.854,-0.671,148.764
120371,153912,10580,-0.119,0.974,0.362,-0.122,0.854,-0.671,148.77
120428,154042,11330,-0.119,0.976,0.351,-1.585,0.671,-0.915,148.774
120428,153987,10581,-0.12,0.974,0.328,-1.585,0.671,-0.915,148.78
120521,154042,11330,-0.119,0.965,0.311,-3.232,0.305,-0.854,148.784
120521,154033,10592,-0.117,0.965,0.307,-3.232,0.305,-0.854,148.79
120574,154042,11330,-0.113,0.969,0.307,-3.354,-0.244,-0.671,148.794
120574,154086,10604,-0.112,0.966,0.305,-3.354,-0.244,-0.671,148.8
120599,154042,11330,-0.112,0.97,0.316,-1.89,-0.427,-0.305,148.804
120599,154079,10610,-0.118,0.979,0.312,-1.89,-0.427,-0.305,148.81
120552,154042,11330,-0.119,0.984,0.309,0.488,-0.427,0.305,148.814
120552,154056,10600,-0.117,0.995,0.331,0.488,-0.427,0.305,148.82
120520,154042,11330,-0.118,1.005,0.347,1.951,-0.671,0.549,148.824
120520,154028,10603,-0.119,1.001,0.361,1.951,-0.671,0.549,148.83
120447,154042,11330,-0.122,0.995,0.378,1.463,-0.427,0.61,148.834
120447,153996,10571,-0.126,0.994,0.396,1.463,-0.427,0.61,148.84
120420,154042,11330,-0.124,0.994,0.407,0.732,0.244,0.61,148.843
120420,153982,10594,-0.12,0.993,0.405,0.732,0.244,0.61,148.85
120479,154042,11330,-0.121,0.998,0.389,0.732,1.037,0.61,148.853
120479,153963,10572,-0.121,1.002,0.378,0.732,1.037,0.61,148.86
120479,154042,11330,-0.12,1.007,0.364,0.366,1.646,0.183,148.863
120479,154011,10584,-0.118,0.993,0.338,0.366,1.646,0.183,148.869
120534,154042,11330,-0.123,0.974,0.323,-1.22,1.463,-0.61,148.873
120534,154070,10599,-0.122,0.964,0.312,-1.22,1.463,-0.61,148.879
120620,154298,11330,-0.116,0.975,0.309,-1.768,0.854,-1.098,148.883
120620,154129,10621,-0.111,0.975,0.314,-1.768,0.854,-1.098,148.889
120688,154298,11330,-0.118,0.964,0.312,-0.976,0.793,-0.915,148.893
120688,154176,10646,-0.117,0.968,0.313,-0.976,0.793,-0.915,148.899
120748,154298,11330,-0.112,0.977,0.325,0.366,0.183,-0.366,148.903
120748,154222,10629,-0.113,0.975,0.33,0.366,0.183,-0.366,148.909
120724,154298,11330,-0.117,0.978,0.326,1.402,-0.061,0,148.913
120724,154214,10630,-0.117,0.985,0.338,1.402,-0.061,0,148.919
120750,154298,11330,-0.118,0.981,0.353,1.89,0.305,0.183,148.923
120750,154256,10626,-0.123,0.975,0.365,1.89,0.305,0.183,148.929
120770,154298,11330,-0.122,0.976,0.376,2.134,0.549,0.549,148.933
120770,154258,10643,-0.125,0.98,0.389,2.134,0.549,0.549,148.939
120843,154298,11330,-0.128,0.986,0.392,2.317,1.22,0.732,148.942
120843,154304,10641,-0.127,0.996,0.387,2.317,1.22,0.732,148.949
120931,154298,11330,-0.125,1.005,0.385,1.646,1.646,0.61,148.952
120931,154352,10656,-0.124,1.006,0.367,1.646,1.646,0.61,148.959
121025,154554,11330,-0.131,0.994,0.345,-1.098,1.829,-0.061,148.962
121025,154438,10669,-0.135,0.971,0.322,-1.098,1.829,-0.061,148.968
121136,154554,11330,-0.132,0.953,0.297,-3.598,0.976,-0.549,148.972
121136,154537,10692,-0.122,0.949,0.284,-3.598,0.976,-0.549,148.978
121201,154554,11330,-0.118,0.961,0.282,-2.134,-0.061,-0.671,148.982
121201,154564,10688,-0.118,0.978,0.289,-2.134,-0.061,-0.671,148.988
121189,154554,11330,-0.12,0.994,0.301,1.646,0.366,-0.488,148.992
121189,154588,10694,-0.122,0.998,0.307,1.646,0.366,-0.488,148.998
121207,154554,11330,-0.123,0.998,0.31,2.988,0.183,-0.183,149.002
121207,154576,10700,-0.124,1.002,0.309,2.988,0.183,-0.183,149.008
121186,154554,11330,-0.12,0.999,0.312,1.585,-1.037,-0.305,149.012
121186,154522,10688,-0.123,0.993,0.327,1.585,-1.037,-0.305,149.018
121151,154554,11330,-0.122,0.99,0.35,0.732,-1.28,-0.549,149.022
121151,154507,10680,-0.119,0.987,0.372,0.732,-1.28,-0.549,149.028
121121,154554,11330,-0.123,0.984,0.384,1.524,-0.732,-0.671,149.032
121121,154490,10702,-0.129,0.987,0.379,1.524,-0.732,-0.671,149.038
121152,154554,11330,-0.134,1.003,0.382,2.439,0.183,-0.915,149.042
121152,154515,10679,-0.133,1.012,0.382,2.439,0.183,-0.915,149.048
121223,154554,11330,-0.132,0.999,0.365,1.524,0.671,-1.646,149.051
121223,154588,10712,-0.135,0.988,0.349,1.524,0.671,-1.646,149.058
121343,154810,11330,-0.127,0.988,0.351,-0.427,0.183,-2.317,149.061
121343,154706,10709,-0.118,0.985,0.36,-0.427,0.183,-2.317,149.067
121424,154810,11330,-0.112,0.971,0.363,-0.122,0.183,-2.561,149.071
121424,154740,10726,-0.119,0.967,0.368,-0.122,0.183,-2.561,149.077
121497,154810,11330,-0.121,0.974,0.374,1.585,1.707,-2.439,149.081
121497,154805,10737,-0.118,0.974,0.364,1.585,1.707,-2.439,149.087
121542,154810,11330,-0.118,0.974,0.364,1.585,1.707,-2.439,149.091
121542,154823,10729,-0.12,0.963,0.318,1.037,2.256,-1.707,149.097
121520,154810,11330,-0.12,0.963,0.318,1.037,2.256,-1.707,149.101
121520,154801,10702,-0.114,0.949,0.304,-1.28,1.707,-0.915,149.107
121484,154810,11330,-0.114,0.949,0.304,-1.28,1.707,-0.915,149.111
121484,154738,10731,-0.105,0.937,0.296,-2.195,0.793,1.037,149.117
121407,154810,11330,-0.105,0.937,0.296,-2.195,0.793,1.037,149.121
121407,154709,10705,-0.117,0.981,0.311,-1.768,0.732,1.707,149.127
121390,154810,11330,-0.117,0.981,0.311,-1.768,0.732,1.707,149.131
121390,154712,10715,-0.113,1,0.343,-1.159,0.732,2.439,149.137
121443,154810,11330,-0.113,1,0.343,-1.159,0.732,2.439,149.14
121443,154754,10720,-0.115,1.005,0.39,-1.28,-0.061,2.5,149.147
121521,154810,11330,-0.115,1.005,0.39,-1.28,-0.061,2.5,149.15
121521,154798,10724,-0.13,1.016,0.386,-0.915,0,2.683,149.157
121581,154810,11330,-0.13,1.016,0.386,-0.915,0,2.683,149.16
121581,154846,10734,-0.116,1.029,0.409,-0.366,0.549,1.402,149.166
121594,154810,11330,-0.116,1.029,0.409,-0.366,0.549,1.402,149.17
121594,154875,10734,-0.139,1.007,0.375,0.122,1.341,-0.549,149.176
121540,154810,11330,-0.139,1.007,0.375,0.122,1.341,-0.549,149.18
121540,154815,10722,-0.132,0.982,0.347,-1.646,1.951,-1.098,149.186
121476,154810,11330,-0.132,0.982,0.347,-1.646,1.951,-1.098,149.19
121476,154767,10712,-0.137,0.946,0.3,-3.476,1.402,-1.768,149.196
121386,154810,11330,-0.137,0.946,0.3,-3.476,1.402,-1.768,149.2
121386,154690,10720,-0.127,0.963,0.269,-1.89,1.28,-1.341,149.206
121309,154554,11330,-0.127,0.963,0.269,-1.89,1.28,-1.341,149.21
121309,154616,10694,-0.114,0.989,0.305,0.61,0.915,-0.793,149.216
121260,154554,11330,-0.114,0.989,0.305,0.61,0.915,-0.793,149.22
121260,154573,10697,-0.123,0.975,0.351,1.89,0.61,-0.183,149.226
121263,154554,11330,-0.123,0.975,0.351,1.89,0.61,-0.183,149.23
121263,154601,10702,-0.121,0.978,0.358,1.402,0.488,0.549,149.236
121334,154810,11330,-0.123,0.984,0.364,1.402,0.488,0.549,149.239
121334,154669,10703,-0.12,0.988,0.362,0.61,0.671,0.854,149.246
121434,154810,11330,-0.12,0.984,0.363,0.61,0.671,0.854,149.249
121434,154748,10722,-0.12,0.986,0.365,0.976,0.732,0.61,149.256
121536,154810,11330,-0.121,0.992,0.368,0.976,0.732,0.61,149.259
121536,154833,10750,-0.126,0.995,0.371,0.244,0.976,0.366,149.265
121616,155066,11330,-0.128,0.986,0.365,0.244,0.976,0.366,149.269
121616,154884,10742,-0.133,0.971,0.345,-1.707,1.341,0.061,149.275
121633,155066,11330,-0.139,0.954,0.311,-1.707,1.341,0.061,149.279
121633,154891,10742,-0.141,0.956,0.289,-3.537,0.671,0.122,149.285
121662,155066,11330,-0.135,0.968,0.273,-3.537,0.671,0.122,149.289
121662,154932,10737,-0.128,0.973,0.271,-4.207,-0.671,0.427,149.295
121682,155066,11330,-0.121,0.977,0.288,-4.207,-0.671,0.427,149.299
121682,154925,10750,-0.122,0.983,0.311,-2.195,-1.646,0.732,149.305
121640,154810,11330,-0.122,0.983,0.325,-2.195,-1.646,0.732,149.309
121640,154865,10738,-0.124,0.99,0.337,-0.061,-1.768,1.22,149.315
121639,155066,11330,-0.122,1.005,0.341,-0.061,-1.768,1.22,149.319
121639,154900,10729,-0.121,1.011,0.355,0.793,-1.524,0.854,149.325
121671,155066,11330,-0.123,1.006,0.372,0.793,-1.524,0.854,149.329
121671,154935,10755,-0.122,1,0.384,1.402,-1.463,0.61,149.335
121754,155066,11330,-0.122,0.998,0.397,1.402,-1.463,0.61,149.338
121754,154996,10762,-0.121,0.997,0.407,2.012,-0.671,0.488,149.345
121817,155066,11330,-0.127,1,0.415,2.012,-0.671,0.488,149.348
121817,155050,10764,-0.132,1.005,0.411,2.012,1.098,-0.122,149.355
121877,155066,11330,-0.129,0.998,0.395,2.012,1.098,-0.122,149.358
121877,155077,10776,-0.13,0.993,0.378,-0.061,1.463,-0.61,149.364
121923,155066,11330,-0.127,0.983,0.346,-0.061,1.463,-0.61,149.368
121923,155122,10794,-0.125,0.961,0.313,-3.049,0.976,-0.732,149.374
121980,155322,11330,-0.12,0.946,0.303,-3.049,0.976,-0.732,149.378
121980,155158,10794,-0.113,0.953,0.292,-4.024,0.61,-0.671,149.384
122025,155322,11330,-0.109,0.964,0.289,-4.024,0.61,-0.671,149.388
122025,155169,10797,-0.103,0.964,0.312,-2.805,0.549,-0.122,149.394
122018,155322,11330,-0.104,0.963,0.326,-2.805,0.549,-0.122,149.398
122018,155195,10785,-0.106,0.963,0.339,-0.244,0.488,0.915,149.404
122001,155322,11330,-0.105,0.971,0.355,-0.244,0.488,0.915,149.408
122001,155203,10783,-0.108,0.981,0.361,1.159,0.732,1.768,149.414
121961,155322,11330,-0.112,0.988,0.359,1.159,0.732,1.768,149.418
121961,155157,10786,-0.114,0.995,0.358,1.28,1.098,1.524,149.424
121960,155066,11330,-0.112,0.983,0.355,1.28,1.098,1.524,149.428
121960,155121,10770,-0.121,0.97,0.349,0.793,1.098,1.585,149.434
121926,155322,11330,-0.127,0.966,0.344,0.793,1.098,1.585,149.437
121926,155152,10781,-0.133,0.959,0.344,0.732,1.159,2.134,149.444
121967,155322,11330,-0.13,0.958,0.349,0.732,1.159,2.134,149.447
121967,155157,10789,-0.129,0.966,0.354,2.073,1.28,2.378,149.454
122021,155322,11330,-0.129,0.975,0.348,2.073,1.28,2.378,149.457
122021,155217,10801,-0.133,0.98,0.337,2.988,1.402,2.378,149.463
122087,155322,11330,-0.136,0.988,0.331,2.988,1.402,2.378,149.467
122087,155246,10803,-0.132,0.989,0.331,2.378,1.037,1.89,149.473
122138,155322,11330,-0.131,0.985,0.338,2.378,1.037,1.89,149.477
122138,155314,10812,-0.131,0.99,0.333,1.524,0.366,1.707,149.483
122215,155322,11330,-0.13,0.988,0.325,1.524,0.366,1.707,149.487
122215,155352,10811,-0.127,0.984,0.331,1.585,0.183,1.89,149.493
122183,155322,11330,-0.121,0.981,0.341,1.585,0.183,1.89,149.497
122183,155330,10805,-0.123,0.984,0.348,4.085,0.61,1.707,149.503
122122,155322,11330,-0.128,0.992,0.351,4.085,0.61,1.707,149.507
122122,155278,10817,-0.123,1.005,0.348,6.28,1.707,1.707,149.513
122097,155322,11330,-0.119,1.011,0.361,6.28,1.707,1.707,149.517
122097,155241,10824,-0.116,1.014,0.377,6.768,2.378,1.22,149.523
122124,155322,11330,-0.118,1.018,0.383,6.768,2.378,1.22,149.527
122124,155279,10816,-0.122,1.012,0.383,5.305,2.927,0.793,149.533
122139,155322,11330,-0.124,1.007,0.384,5.305,2.927,0.793,149.536
122139,155302,10800,-0.128,1.002,0.366,2.927,3.354,0.305,149.543
122141,155322,11330,-0.123,0.997,0.337,2.927,3.354,0.305,149.546
122141,155297,10808,-0.119,0.998,0.327,0.915,3.232,-0.793,149.553
122219,155322,11330,-0.122,0.993,0.314,0.915,3.232,-0.793,149.556
122219,155359,10842,-0.125,0.977,0.29,-0.244,2.927,-0.671,149.562
122366,155578,11330,-0.125,0.969,0.288,-0.244,2.927,-0.671,149.566
122366,155472,10844,-0.118,0.97,0.295,-0.976,1.768,-0.305,149.572
122445,155578,11330,-0.11,0.965,0.299,-0.976,1.768,-0.305,149.576
122445,155548,10842,-0.113,0.962,0.311,-0.183,0.915,0.122,149.582
122467,155578,11330,-0.118,0.969,0.326,-0.183,0.915,0.122,149.586
122467,155531,10843,-0.118,0.978,0.332,1.707,1.28,0.732,149.592
122423,155578,11330,-0.119,0.989,0.339,1.707,1.28,0.732,149.596
122423,155544,10852,-0.116,0.992,0.342,1.646,1.402,1.037,149.602
122411,155578,11330,-0.119,0.99,0.344,1.646,1.402,1.037,149.606
122411,155487,10850,-0.123,0.986,0.353,-0.305,1.037,1.098,149.612
122349,155578,11330,-0.121,0.982,0.356,-0.305,1.037,1.098,149.616
122349,155448,10853,-0.123,0.986,0.358,-1.402,0.976,1.28,149.622
122333,155578,11330,-0.123,0.985,0.354,-1.402,0.976,1.28,149.626
122333,155419,10838,-0.127,0.989,0.344,-1.646,1.341,1.159,149.632
122360,155578,11330,-0.127,0.993,0.331,-1.646,1.341,1.159,149.635
122360,155491,10851,-0.131,0.992,0.311,-2.378,1.463,0.671,149.642
122443,155578,11330,-0.132,0.989,0.292,-2.378,1.463,0.671,149.645
122443,155543,10850,-0.127,0.992,0.289,-2.866,0.61,0.244,149.651
122584,155834,11330,-0.122,0.997,0.297,-2.866,0.61,0.244,149.655
122584,155664,10870,-0.117,0.987,0.305,-2.134,-0.61,0,149.661
122712,155834,11330,-0.117,0.984,0.311,-2.134,-0.61,0,149.665
122712,155751,10893,-0.124,1,0.323,-0.305,-0.305,0.122,149.671
122737,155834,11330,-0.124,1,0.323,-0.305,-0.305,0.122,149.675
122737,155777,10897,-0.124,1.005,0.328,0.305,-0.244,-0.122,149.681
122716,155834,11330,-0.124,1.005,0.328,0.305,-0.244,-0.122,149.685
122716,155764,10880,-0.125,0.991,0.328,0.122,-0.854,-0.488,149.691
122756,155834,11330,-0.125,0.991,0.328,0.122,-0.854,-0.488,149.695
122756,155785,10905,-0.124,0.979,0.339,0,-0.976,-0.122,149.701
122835,155834,11330,-0.124,0.979,0.339,0,-0.976,-0.122,149.705
122835,155864,10914,-0.124,0.976,0.36,1.463,-0.549,-0.244,149.711
122937,156090,11330,-0.124,0.976,0.36,1.463,-0.549,-0.244,149.715
122937,155942,10941,-0.125,0.996,0.361,2.012,0.305,-0.061,149.721
123031,156090,11330,-0.125,0.996,0.361,2.012,0.305,-0.061,149.725
123031,156026,10935,-0.127,0.991,0.347,0.61,0.488,-0.183,149.731
123144,156090,11330,-0.127,0.991,0.347,0.61,0.488,-0.183,149.734
123144,156126,10978,-0.128,0.979,0.344,-2.073,-0.122,-0.488,149.741
123307,156346,11330,-0.128,0.979,0.344,-2.073,-0.122,-0.488,149.744
123307,156252,10970,-0.119,0.968,0.338,-3.171,-0.549,-0.549,149.751
123455,156346,11330,-0.119,0.968,0.338,-3.171,-0.549,-0.549,149.754
123455,156374,10995,-0.115,0.969,0.345,-2.195,-0.183,-0.244,149.76
123596,156602,11330,-0.115,0.969,0.345,-2.195,-0.183,-0.244,149.764
123596,156487,11005,-0.124,0.979,0.336,-1.768,0.488,0.061,149.77
123673,156602,11330,-0.124,0.979,0.336,-1.768,0.488,0.061,149.774
123673,156541,11022,-0.124,0.982,0.331,-1.829,0.366,0.244,149.78
123734,156602,11330,-0.124,0.982,0.331,-1.829,0.366,0.244,149.784
123734,156577,11028,-0.119,0.984,0.339,-0.732,0.061,0.793,149.79
123782,156602,11330,-0.119,0.984,0.339,-0.732,0.061,0.793,149.794
123782,156609,11040,-0.116,1.002,0.352,0.854,0.366,0.976,149.8
123762,156602,11330,-0.116,1.002,0.352,0.854,0.366,0.976,149.804
123762,156602,11043,-0.12,1.01,0.357,0.854,0.366,0.976,149.81
123806,156602,11330,-0.125,1.013,0.343,0.122,0.976,0.671,149.814
123806,156619,11050,-0.128,1.008,0.331,0.122,0.976,0.671,149.82
123917,156858,11330,-0.126,0.993,0.336,-2.927,0.427,0,149.824
123917,156726,11063,-0.123,0.974,0.333,-2.927,0.427,0,149.83
124033,156858,11330,-0.124,0.968,0.332,-2.561,-0.427,-0.244,149.833
124033,156841,11084,-0.126,0.971,0.336,-2.561,-0.427,-0.244,149.84
124179,157114,11330,-0.124,0.984,0.338,0.976,0.183,-0.488,149.843
124179,156947,11097,-0.125,1.005,0.339,0.976,0.183,-0.488,149.85
124256,157114,11330,-0.129,1.017,0.338,3.293,1.22,-0.915,149.853
124256,157018,11113,-0.129,1.018,0.35,3.293,1.22,-0.915,149.859
124240,157114,11330,-0.126,1.002,0.346,1.402,0.854,-1.22,149.863
124240,156967,11098,-0.126,0.987,0.336,1.402,0.854,-1.22,149.869
124218,157114,11330,-0.125,0.973,0.334,-2.439,0,-1.341,149.873
124218,156947,11093,-0.122,0.961,0.333,-2.439,0,-1.341,149.879
124162,156858,11330,-0.12,0.959,0.33,-3.963,0,-0.793,149.883
124162,156890,11098,-0.124,0.961,0.326,-3.963,0,-0.793,149.889
124101,156858,11330,-0.125,0.958,0.326,-3.171,0.549,-0.183,149.893
124101,156856,11091,-0.126,0.956,0.333,-3.171,0.549,-0.183,149.899
124052,156858,11330,-0.122,0.962,0.329,-1.159,0.427,0.244,149.903
124052,156817,11068,-0.118,0.967,0.331,-1.159,0.427,0.244,149.909
124075,156858,11330,-0.119,0.976,0.337,0.488,0.244,0.61,149.913
124075,156833,11070,-0.122,0.983,0.337,0.488,0.244,0.61,149.919
