118520,152364,10441,-0.102,1.038,0.099,-0.122,0.427,0.183,282.644
118552,152506,11330,-0.097,1.033,0.103,0.244,0.488,-0.183,282.648
118552,152383,10454,-0.097,1.031,0.107,0.244,0.488,-0.183,282.654
118576,152506,11330,-0.097,1.035,0.102,1.037,0.61,-0.183,282.658
118576,152381,10479,-0.095,1.037,0.099,1.037,0.61,-0.183,282.664
118579,152506,11330,-0.098,1.037,0.099,1.098,0.854,-0.183,282.668
118579,152401,10460,-0.097,1.034,0.109,1.098,0.854,-0.183,282.674
118579,152506,11330,-0.097,1.033,0.104,0.732,0.793,-0.122,282.678
118579,152387,10456,-0.097,1.031,0.099,0.732,0.793,-0.122,282.684
118608,152506,11330,-0.096,1.029,0.099,-0.305,0.61,0.183,282.687
118608,152382,10473,-0.095,1.027,0.095,-0.305,0.61,0.183,282.694
118614,152506,11330,-0.096,1.03,0.094,-0.427,0.427,0.549,282.697
118614,152417,10490,-0.096,1.039,0.098,-0.427,0.427,0.549,282.704
118613,152506,11330,-0.093,1.036,0.095,-0.244,0.427,0.671,282.707
118613,152410,10471,-0.098,1.034,0.088,-0.244,0.427,0.671,282.713
118602,152506,11330,-0.1,1.038,0.089,-0.427,0.427,0.732,282.717
118602,152411,10475,-0.098,1.041,0.093,-0.427,0.427,0.732,282.723
118615,152506,11330,-0.099,1.038,0.091,-0.915,0.061,0.915,282.727
118615,152412,10457,-0.099,1.041,0.092,-0.915,0.061,0.915,282.733
118618,152506,11330,-0.099,1.044,0.087,-1.159,-0.061,0.793,282.737
118618,152404,10478,-0.099,1.046,0.093,-1.159,-0.061,0.793,282.743
118629,152506,11330,-0.098,1.051,0.099,-0.549,-0.061,0.427,282.747
118629,152411,10475,-0.098,1.051,0.104,-0.549,-0.061,0.427,282.753
118648,152506,11330,-0.098,1.051,0.104,-0.549,-0.061,0.427,282.757
118648,152447,10469,-0.094,1.044,0.11,0.183,0.244,-0.122,282.763
118692,152506,11330,-0.094,1.044,0.11,0.183,0.244,-0.122,282.767
118692,152476,10480,-0.098,1.032,0.1,0.488,0.488,-0.488,282.773
118704,152506,11330,-0.098,1.032,0.1,0.488,0.488,-0.488,282.777
118704,152499,10476,-0.093,1.023,0.106,0.61,0.854,-0.549,282.783
118730,152506,11330,-0.093,1.023,0.106,0.61,0.854,-0.549,282.786
118730,152503,10477,-0.095,1.026,0.105,1.22,0.793,-0.427,282.793
118740,152506,11330,-0.095,1.026,0.105,1.22,0.793,-0.427,282.796
118740,152522,10483,-0.096,1.033,0.1,0.549,0.915,0.061,282.803
118731,152506,11330,-0.096,1.033,0.1,0.549,0.915,0.061,282.806
118731,152518,10492,-0.1,1.026,0.081,-0.671,0.732,0.427,282.812
118767,152506,11330,-0.1,1.026,0.081,-0.671,0.732,0.427,282.816
118767,152511,10485,-0.103,1.028,0.084,-1.159,0.305,0.854,282.822
118783,152506,11330,-0.103,1.028,0.084,-1.159,0.305,0.854,282.826
118783,152531,10496,-0.099,1.034,0.083,-0.915,-0.427,1.037,282.832
118786,152506,11330,-0.099,1.034,0.083,-0.915,-0.427,1.037,282.836
118786,152547,10489,-0.101,1.045,0.091,-0.549,-0.976,1.22,282.842
118786,152506,11330,-0.101,1.045,0.091,-0.549,-0.976,1.22,282.846
118786,152565,10486,-0.099,1.044,0.102,0,-1.037,0.976,282.852
118798,152506,11330,-0.099,1.044,0.102,0,-1.037,0.976,282.856
118798,152573,10508,-0.096,1.048,0.108,0.122,-0.793,0.549,282.862
118847,152762,11330,-0.096,1.048,0.108,0.122,-0.793,0.549,282.866
118847,152585,10502,-0.097,1.041,0.113,0.183,-0.366,0.122,282.872
118848,152762,11330,-0.097,1.041,0.113,0.183,-0.366,0.122,282.876
118848,152584,10493,-0.1,1.037,0.103,0.061,0,-0.244,282.882
118865,152762,11330,-0.1,1.037,0.103,0.061,0,-0.244,282.885
118865,152604,10490,-0.096,1.03,0.104,-0.305,0.427,-0.427,282.892
118882,152762,11330,-0.096,1.03,0.104,-0.305,0.427,-0.427,282.895
118882,152625,10486,-0.098,1.028,0.109,-0.122,0.61,-0.549,282.902
118887,152762,11330,-0.096,1.029,0.105,-0.122,0.61,-0.549,282.905
118887,152626,10504,-0.097,1.027,0.1,-0.671,0.671,-0.183,282.911
118862,152762,11330,-0.097,1.028,0.099,-0.671,0.671,-0.183,282.915
118862,152616,10505,-0.096,1.027,0.099,-1.402,0.854,0,282.921
118872,152762,11330,-0.098,1.028,0.101,-1.402,0.854,0,282.925
118872,152629,10493,-0.1,1.029,0.107,-0.976,0.793,0.244,282.931
118873,152762,11330,-0.095,1.029,0.107,-0.976,0.793,0.244,282.935
118873,152629,10503,-0.093,1.036,0.102,-0.549,0.915,0.61,282.941
118897,152762,11330,-0.095,1.039,0.104,-0.549,0.915,0.61,282.945
118897,152639,10494,-0.094,1.037,0.099,-0.427,1.037,0.671,282.951
118904,152762,11330,-0.098,1.036,0.103,-0.427,1.037,0.671,282.955
118904,152658,10500,-0.098,1.033,0.102,-0.915,0.854,0.732,282.961
118944,152762,11330,-0.099,1.038,0.099,-0.915,0.854,0.732,282.965
118944,152670,10493,-0.095,1.037,0.102,-1.098,0.793,0.732,282.971
118957,152762,11330,-0.094,1.042,0.102,-1.098,0.793,0.732,282.975
118957,152665,10523,-0.095,1.046,0.099,-0.793,0.976,0.549,282.981
118994,152762,11330,-0.095,1.046,0.099,-0.793,0.976,0.549,282.984
118994,152719,10527,-0.096,1.042,0.096,-0.305,1.22,0.183,282.991
119030,152762,11330,-0.1,1.038,0.094,-0.305,1.22,0.183,282.994
119030,152739,10514,-0.098,1.034,0.097,0.183,1.341,0.061,283.001
119033,152762,11330,-0.099,1.032,0.097,0.183,1.341,0.061,283.004
119033,152754,10530,-0.097,1.032,0.1,0.793,1.28,0.061,283.01
119047,152762,11330,-0.098,1.036,0.099,0.793,1.28,0.061,283.014
119047,152783,10521,-0.098,1.04,0.097,1.037,1.402,0,283.02
119074,152762,11330,-0.102,1.04,0.098,1.037,1.402,0,283.024
119074,152783,10521,-0.102,1.038,0.099,0.305,1.22,-0.061,283.03
119092,152762,11330,-0.103,1.034,0.099,0.305,1.22,-0.061,283.034
119092,152789,10533,-0.104,1.031,0.095,-1.159,1.037,0.122,283.04
119086,152762,11330,-0.106,1.031,0.09,-1.159,1.037,0.122,283.044
119086,152807,10528,-0.104,1.03,0.088,-1.585,0.61,0.244,283.05
119108,152762,11330,-0.099,1.028,0.088,-1.585,0.61,0.244,283.054
119108,152791,10551,-0.101,1.03,0.09,-0.549,0.061,0.183,283.06
119106,152762,11330,-0.103,1.041,0.09,-0.549,0.061,0.183,283.064
119106,152811,10529,-0.105,1.042,0.096,0.061,-0.122,0.305,283.07
119147,152762,11330,-0.099,1.041,0.099,0.061,-0.122,0.305,283.074
119147,152830,10542,-0.101,1.04,0.097,-0.305,-0.305,0.244,283.08
119182,153018,11330,-0.098,1.039,0.096,-0.305,-0.305,0.244,283.083
119182,152864,10544,-0.096,1.036,0.1,-1.402,-0.671,0.183,283.09
119265,153018,11330,-0.094,1.033,0.098,-1.402,-0.671,0.183,283.093
119265,152935,10547,-0.093,1.036,0.102,-1.89,-0.671,0.244,283.1
119395,153018,11330,-0.094,1.039,0.103,-1.89,-0.671,0.244,283.103
119395,153019,10578,-0.092,1.046,0.096,-1.89,-0.244,0.244,283.109
119497,153274,11330,-0.094,1.047,0.091,-1.89,-0.244,0.244,283.113
119497,153120,10589,-0.095,1.043,0.093,-1.646,0.061,-0.183,283.119
119644,153274,11330,-0.094,1.036,0.094,-1.646,0.061,-0.183,283.123
119644,153233,10617,-0.098,1.038,0.091,-1.768,0.061,-0.305,283.129
119767,153274,11330,-0.097,1.037,0.09,-1.768,0.061,-0.305,283.133
119767,153332,10606,-0.096,1.038,0.091,-1.646,0.244,-0.122,283.139
119854,153530,11330,-0.096,1.037,0.092,-1.646,0.244,-0.122,283.143
119854,153386,10639,-0.099,1.036,0.095,-0.549,0.488,-0.183,283.149
119926,153530,11330,-0.1,1.035,0.101,-0.549,0.488,-0.183,283.153
119926,153484,10660,-0.102,1.033,0.099,-0.305,0.427,-0.305,283.159
120019,153530,11330,-0.102,1.032,0.104,-0.305,0.427,-0.305,283.163
120019,153576,10655,-0.101,1.031,0.106,-0.366,0.366,-0.183,283.169
120105,153530,11330,-0.1,1.031,0.102,-0.366,0.366,-0.183,283.173
120105,153583,10668,-0.101,1.034,0.105,-0.122,0.183,-0.183,283.179
120169,153786,11330,-0.103,1.041,0.104,-0.122,0.183,-0.183,283.182
120169,153642,10686,-0.104,1.034,0.106,-0.793,0.305,0.061,283.189
120269,153786,11330,-0.102,1.027,0.105,-0.793,0.305,0.061,283.192
120269,153682,10693,-0.1,1.024,0.108,-1.707,-0.061,0.305,283.199
120319,153786,11330,-0.1,1.024,0.107,-1.707,-0.061,0.305,283.202
120319,153748,10714,-0.096,1.026,0.102,-2.012,-0.244,0.732,283.208
120379,153786,11330,-0.095,1.031,0.105,-2.012,-0.244,0.732,283.212
120379,153807,10708,-0.098,1.037,0.103,-1.22,-0.061,0.915,283.218
120433,153786,11330,-0.097,1.044,0.103,-1.22,-0.061,0.915,283.222
120433,153853,10711,-0.099,1.041,0.103,-0.976,-0.061,0.671,283.228
120479,154042,11330,-0.095,1.04,0.105,-0.976,-0.061,0.671,283.232
120479,153888,10724,-0.097,1.042,0.096,-1.098,-0.122,0.549,283.238
120500,154042,11330,-0.098,1.038,0.09,-1.098,-0.122,0.549,283.242
120500,153887,10716,-0.097,1.034,0.093,-0.976,-0.061,0.366,283.248
120552,154042,11330,-0.101,1.031,0.098,-0.976,-0.061,0.366,283.252
120552,153944,10729,-0.1,1.035,0.099,-0.061,-0.305,0.183,283.258
120570,154042,11330,-0.099,1.039,0.099,-0.061,-0.305,0.183,283.262
120570,153945,10736,-0.098,1.044,0.098,-0.305,-0.549,0.366,283.268
120576,154042,11330,-0.098,1.046,0.106,-0.305,-0.549,0.366,283.272
120576,153967,10721,-0.097,1.043,0.107,-0.976,-0.549,0.244,283.278
120578,154042,11330,-0.097,1.036,0.106,-0.976,-0.549,0.244,283.281
120578,153980,10714,-0.099,1.037,0.1,-1.768,-0.305,0.122,283.288
120622,154042,11330,-0.101,1.032,0.1,-1.768,-0.305,0.122,283.291
120622,154002,10735,-0.104,1.026,0.102,-1.768,-0.061,0.183,283.298
120646,154042,11330,-0.101,1.031,0.099,-1.768,-0.061,0.183,283.301
120646,154000,10740,-0.103,1.034,0.101,-1.28,0.061,0.305,283.307
120679,154042,11330,-0.102,1.034,0.106,-1.28,0.061,0.305,283.311
120679,154052,10738,-0.104,1.031,0.103,-0.854,0.061,0.549,283.317
120725,154298,11330,-0.105,1.03,0.096,-0.854,0.061,0.549,283.321
120725,154115,10767,-0.105,1.027,0.091,-1.28,0,0.793,283.327
120764,154298,11330,-0.107,1.025,0.102,-1.28,0,0.793,283.331
120764,154133,10755,-0.103,1.028,0.111,-1.037,-0.366,0.854,283.337
120830,154298,11330,-0.103,1.028,0.111,-1.037,-0.366,0.854,283.341
120830,154136,10759,-0.094,1.037,0.11,-0.427,-0.61,0.793,283.347
120887,154298,11330,-0.094,1.037,0.11,-0.427,-0.61,0.793,283.351
120887,154196,10783,-0.094,1.05,0.115,-0.427,-0.061,0.854,283.357
120956,154298,11330,-0.094,1.05,0.115,-0.427,-0.061,0.854,283.361
120956,154265,10785,-0.096,1.043,0.121,-0.854,0.244,0.61,283.367
121008,154298,11330,-0.096,1.043,0.121,-0.854,0.244,0.61,283.371
121008,154287,10795,-0.094,1.029,0.109,-1.22,0.427,0.427,283.377
121042,154298,11330,-0.094,1.029,0.109,-1.22,0.427,0.427,283.38
121042,154340,10801,-0.094,1.029,0.104,-0.427,0.854,0.305,283.387
121099,154554,11330,-0.094,1.029,0.104,-0.427,0.854,0.305,283.39
121099,154383,10817,-0.099,1.034,0.113,0.061,0.976,0.488,283.396
121104,154554,11330,-0.099,1.034,0.113,0.061,0.976,0.488,283.4
121104,154371,10814,-0.094,1.037,0.107,-0.244,0.976,0.671,283.406
121119,154554,11330,-0.094,1.037,0.107,-0.244,0.976,0.671,283.41
121119,154392,10813,-0.098,1.035,0.095,-0.61,1.28,0.61,283.416
121144,154554,11330,-0.098,1.035,0.095,-0.61,1.28,0.61,283.42
121144,154408,10806,-0.101,1.025,0.098,-0.488,1.22,0.732,283.426
121177,154554,11330,-0.101,1.025,0.098,-0.488,1.22,0.732,283.43
121177,154428,10807,-0.097,1.036,0.095,0,1.037,1.037,283.436
121198,154554,11330,-0.097,1.036,0.095,0,1.037,1.037,283.44
121198,154427,10805,-0.102,1.058,0.1,-0.061,0.915,0.915,283.446
121196,154554,11330,-0.102,1.058,0.1,-0.061,0.915,0.915,283.45
121196,154424,10812,-0.098,1.045,0.107,-1.28,0.732,0.427,283.456
121209,154554,11330,-0.098,1.045,0.107,-1.28,0.732,0.427,283.46
121209,154438,10815,-0.103,1.028,0.099,-2.317,0.793,0.183,283.466
121214,154554,11330,-0.103,1.028,0.099,-2.317,0.793,0.183,283.47
121214,154459,10821,-0.097,1.028,0.107,-1.037,0.915,0.122,283.476
121202,154554,11330,-0.097,1.028,0.107,-1.037,0.915,0.122,283.479
121202,154441,10808,-0.096,1.04,0.104,-1.037,0.915,0.122,283.486
121199,154554,11330,-0.1,1.046,0.101,0.122,1.037,0.122,283.489
121199,154443,10825,-0.102,1.044,0.104,0.122,1.037,0.122,283.495
121222,154554,11330,-0.101,1.042,0.1,-0.366,1.037,0,283.499
121222,154461,10820,-0.099,1.039,0.096,-0.366,1.037,0,283.505
121207,154554,11330,-0.103,1.034,0.093,-1.402,0.854,0,283.509
121207,154461,10831,-0.099,1.026,0.098,-1.402,0.854,0,283.515
121259,154554,11330,-0.099,1.028,0.105,-1.037,0.732,0.061,283.519
121259,154480,10823,-0.094,1.027,0.104,-1.037,0.732,0.061,283.525
121283,154554,11330,-0.094,1.029,0.103,-0.061,0.61,0.183,283.529
121283,154484,10826,-0.096,1.035,0.101,-0.061,0.61,0.183,283.535
121281,154554,11330,-0.1,1.038,0.107,0.793,0.793,0.244,283.539
121281,154511,10820,-0.101,1.039,0.114,0.793,0.793,0.244,283.545
121269,154554,11330,-0.098,1.036,0.111,0.793,0.732,0.366,283.549
121269,154501,10839,-0.096,1.036,0.109,0.793,0.732,0.366,283.555
121251,154554,11330,-0.098,1.039,0.111,0,0.854,0.366,283.559
121251,154489,10826,-0.098,1.033,0.111,0,0.854,0.366,283.565
121229,154554,11330,-0.1,1.034,0.107,-0.793,0.976,0.549,283.569
121229,154475,10817,-0.099,1.034,0.107,-0.793,0.976,0.549,283.575
121243,154554,11330,-0.101,1.032,0.105,-0.732,0.976,0.549,283.578
121243,154452,10828,-0.101,1.031,0.109,-0.732,0.976,0.549,283.585
121224,154554,11330,-0.096,1.036,0.106,-0.061,0.976,0.488,283.588
121224,154461,10827,-0.098,1.039,0.106,-0.061,0.976,0.488,283.594
121208,154554,11330,-0.096,1.035,0.103,0.549,0.915,0.488,283.598
121208,154440,10820,-0.096,1.031,0.096,0.549,0.915,0.488,283.604
121173,154554,11330,-0.1,1.034,0.095,0.427,0.976,0.549,283.608
121173,154410,10807,-0.103,1.038,0.099,0.427,0.976,0.549,283.614
121118,154554,11330,-0.103,1.034,0.097,0.122,0.732,0.549,283.618
121118,154406,10796,-0.101,1.034,0.099,0.122,0.732,0.549,283.624
121105,154554,11330,-0.094,1.037,0.092,0.244,0.427,0.61,283.628
121105,154381,10806,-0.098,1.039,0.096,0.244,0.427,0.61,283.634
121082,154554,11330,-0.1,1.041,0.098,0.366,0.488,0.671,283.638
121082,154392,10803,-0.102,1.045,0.103,0.366,0.488,0.671,283.644
121062,154298,11330,-0.102,1.048,0.105,0.244,0.488,0.488,283.648
121062,154335,10803,-0.098,1.045,0.102,0.244,0.488,0.488,283.654
121045,154298,11330,-0.096,1.037,0.094,-0.671,0.427,0.183,283.658
121045,154313,10791,-0.102,1.03,0.104,-0.671,0.427,0.183,283.664
121023,154298,11330,-0.101,1.029,0.104,-0.793,0.366,0.122,283.668
121023,154289,10777,-0.103,1.027,0.101,-0.793,0.366,0.122,283.674
121015,154298,11330,-0.099,1.028,0.108,-0.61,0.366,0.366,283.677
121015,154292,10786,-0.099,1.03,0.115,-0.61,0.366,0.366,283.684
120982,154298,11330,-0.1,1.036,0.118,0.061,0.366,0.61,283.687
120982,154240,10773,-0.097,1.041,0.116,0.061,0.366,0.61,283.693
120940,154298,11330,-0.094,1.045,0.109,-0.061,0.61,0.793,283.697
120940,154249,10756,-0.094,1.042,0.104,-0.061,0.61,0.793,283.703
120915,154298,11330,-0.096,1.033,0.103,-0.549,0.61,0.427,283.707
120915,154233,10756,-0.095,1.028,0.104,-0.549,0.61,0.427,283.713
120885,154298,11330,-0.095,1.026,0.106,-0.305,0.488,0.366,283.717
120885,154203,10763,-0.099,1.032,0.102,-0.305,0.488,0.366,283.723
120876,154298,11330,-0.097,1.036,0.093,-0.122,0.488,0.671,283.727
120876,154198,10756,-0.097,1.041,0.092,-0.122,0.488,0.671,283.733
120860,154298,11330,-0.098,1.041,0.096,-0.122,0.183,0.671,283.737
120860,154159,10767,-0.098,1.035,0.1,-0.122,0.183,0.671,283.743
120836,154298,11330,-0.097,1.034,0.092,-0.488,-0.305,0.732,283.747
120836,154167,10756,-0.096,1.034,0.09,-0.488,-0.305,0.732,283.753
120816,154298,11330,-0.1,1.035,0.094,-0.671,-0.366,0.61,283.757
120816,154167,10766,-0.097,1.037,0.101,-0.671,-0.366,0.61,283.763
120832,154298,11330,-0.099,1.041,0.108,-0.061,-0.183,0.549,283.766
120832,154174,10777,-0.103,1.041,0.105,-0.061,-0.183,0.549,283.773
120830,154298,11330,-0.103,1.04,0.106,0.122,-0.122,0.488,283.776
120830,154171,10757,-0.101,1.04,0.111,0.122,-0.122,0.488,283.783
120859,154298,11330,-0.1,1.041,0.113,0,0.061,0.244,283.786
120859,154187,10762,-0.097,1.043,0.117,0,0.061,0.244,283.792
120832,154298,11330,-0.096,1.035,0.121,0.122,0.366,0,283.796
120832,154156,10770,-0.095,1.028,0.121,0.122,0.366,0,283.802
120818,154298,11330,-0.1,1.028,0.115,-0.183,0.61,-0.244,283.806
120818,154180,10758,-0.095,1.023,0.116,-0.183,0.61,-0.244,283.812
120832,154298,11330,-0.094,1.023,0.116,-0.488,0.976,-0.183,283.816
120832,154178,10755,-0.092,1.027,0.11,-0.488,0.976,-0.183,283.822
120821,154298,11330,-0.094,1.03,0.107,-0.183,1.037,0.061,283.826
120821,154153,10754,-0.095,1.03,0.101,-0.183,1.037,0.061,283.832
120774,154298,11330,-0.092,1.035,0.098,0.061,1.037,0.366,283.836
120774,154117,10756,-0.097,1.037,0.089,0.061,1.037,0.366,283.842
120754,154042,11330,-0.101,1.041,0.085,0.061,0.915,0.427,283.846
120754,154094,10752,-0.103,1.045,0.089,0.061,0.915,0.427,283.852
120698,154042,11330,-0.102,1.041,0.092,-0.61,0.183,0.427,283.856
120698,154099,10735,-0.098,1.042,0.092,-0.61,0.183,0.427,283.862
120697,154042,11330,-0.096,1.043,0.093,-1.28,-0.488,0.427,283.865
120697,154072,10741,-0.095,1.042,0.091,-1.28,-0.488,0.427,283.872
120671,154042,11330,-0.099,1.042,0.092,-1.22,-0.488,0.244,283.875
120671,154021,10733,-0.1,1.043,0.098,-1.22,-0.488,0.244,283.882
120639,154042,11330,-0.104,1.044,0.106,-0.671,0,0.183,283.885
120639,154037,10724,-0.106,1.044,0.108,-0.671,0,0.183,283.891
120631,154042,11330,-0.107,1.046,0.108,-0.793,0.244,-0.061,283.895
120631,154015,10741,-0.105,1.043,0.109,-0.793,0.244,-0.061,283.901
120660,154042,11330,-0.104,1.036,0.111,-1.037,0.122,-0.244,283.905
120660,154034,10748,-0.102,1.037,0.105,-1.037,0.122,-0.244,283.911
120650,154042,11330,-0.102,1.037,0.105,-1.037,0.122,-0.244,283.915
120650,154035,10719,-0.1,1.029,0.111,-0.854,0.305,-0.366,283.921
120661,154042,11330,-0.1,1.029,0.111,-0.854,0.305,-0.366,283.925
120661,154057,10733,-0.102,1.024,0.108,-0.488,0.732,-0.488,283.931
120687,154042,11330,-0.102,1.024,0.108,-0.488,0.732,-0.488,283.935
120687,154043,10744,-0.099,1.027,0.108,-0.854,0.854,-0.244,283.941
120670,154042,11330,-0.099,1.027,0.108,-0.854,0.854,-0.244,283.945
120670,154030,10736,-0.095,1.029,0.101,-1.28,0.366,-0.061,283.951
120647,154042,11330,-0.095,1.029,0.101,-1.28,0.366,-0.061,283.955
120647,154031,10754,-0.094,1.037,0.108,-1.646,0.061,0.305,283.961
120631,154042,11330,-0.094,1.037,0.108,-1.646,0.061,0.305,283.964
120631,154049,10741,-0.096,1.035,0.102,-1.585,-0.061,0.427,283.971
120653,154042,11330,-0.096,1.035,0.102,-1.585,-0.061,0.427,283.974
120653,154048,10743,-0.097,1.038,0.103,-1.89,-0.122,0.305,283.981
120674,154042,11330,-0.097,1.038,0.103,-1.89,-0.122,0.305,283.984
120674,154062,10731,-0.095,1.042,0.102,-1.585,-0.183,0.305,283.99
120697,154042,11330,-0.095,1.042,0.102,-1.585,-0.183,0.305,283.994
120697,154084,10734,-0.101,1.043,0.109,-1.524,0.061,0.305,284
120777,154298,11330,-0.101,1.043,0.109,-1.524,0.061,0.305,284.004
120777,154121,10749,-0.097,1.039,0.118,-1.707,0.366,0.122,284.01
120856,154298,11330,-0.097,1.039,0.118,-1.707,0.366,0.122,284.014
120856,154238,10760,-0.096,1.035,0.113,-1.463,0.488,0.061,284.02
120945,154298,11330,-0.096,1.035,0.113,-1.463,0.488,0.061,284.024
120945,154293,10783,-0.099,1.028,0.116,-0.61,1.098,0.183,284.03
121022,154298,11330,-0.099,1.028,0.116,-0.61,1.098,0.183,284.034
121022,154341,10793,-0.096,1.026,0.108,0,1.28,0.732,284.04
121091,154554,11330,-0.096,1.026,0.108,0,1.28,0.732,284.044
121091,154395,10801,-0.094,1.034,0.097,-0.122,1.22,0.732,284.05
121156,154554,11330,-0.094,1.034,0.097,-0.122,1.22,0.732,284.054
121156,154445,10804,-0.096,1.035,0.098,-0.61,1.463,0.732,284.06
121196,154554,11330,-0.099,1.037,0.096,-0.61,1.463,0.732,284.063
121196,154487,10808,-0.1,1.036,0.095,-1.585,1.28,1.098,284.07
121262,154554,11330,-0.099,1.034,0.096,-1.585,1.28,1.098,284.073
121262,154540,10824,-0.095,1.035,0.096,-2.256,0.854,1.159,284.08
121344,154554,11330,-0.099,1.033,0.097,-2.256,0.854,1.159,284.083
121344,154583,10856,-0.1,1.032,0.101,-1.402,0.61,0.976,284.089
121408,154810,11330,-0.102,1.037,0.1,-1.402,0.61,0.976,284.093
121408,154628,10832,-0.105,1.042,0.107,-0.427,0.549,0.732,284.099
121460,154810,11330,-0.107,1.04,0.109,-0.427,0.549,0.732,284.103
121460,154718,10850,-0.105,1.039,0.103,-0.427,0.427,0.549,284.109
121543,154810,11330,-0.102,1.037,0.109,-0.427,0.427,0.549,284.113
121543,154723,10856,-0.103,1.036,0.109,-0.305,0.183,0.366,284.119
121585,154810,11330,-0.105,1.038,0.106,-0.305,0.183,0.366,284.123
121585,154786,10866,-0.105,1.038,0.106,-0.671,0.183,0,284.129
121641,154810,11330,-0.102,1.036,0.109,-0.671,0.183,0,284.133
121641,154807,10853,-0.101,1.034,0.114,-0.854,0,-0.061,284.139
121660,154810,11330,-0.104,1.036,0.115,-0.854,0,-0.061,284.143
121660,154826,10870,-0.1,1.033,0.111,-0.671,0,0,284.149
121691,154810,11330,-0.101,1.028,0.109,-0.671,0,0,284.153
121691,154846,10870,-0.1,1.027,0.104,-0.427,0.183,-0.061,284.159
121720,154810,11330,-0.1,1.027,0.107,-0.427,0.183,-0.061,284.162
121720,154876,10886,-0.102,1.031,0.104,0,0.427,0.305,284.169
121727,155066,11330,-0.101,1.035,0.106,0,0.427,0.305,284.172
121727,154880,10879,-0.098,1.032,0.109,-0.427,0.305,0.549,284.179
121749,155066,11330,-0.097,1.031,0.109,-0.427,0.305,0.549,284.182
121749,154913,10880,-0.097,1.032,0.104,-1.159,0.061,0.732,284.188
121820,155066,11330,-0.098,1.035,0.102,-1.159,0.061,0.732,284.192
121820,154943,10883,-0.098,1.03,0.112,-1.585,-0.061,0.732,284.198
121848,155066,11330,-0.1,1.032,0.112,-1.585,-0.061,0.732,284.202
121848,154961,10903,-0.099,1.036,0.115,-0.915,-0.122,0.732,284.208
121874,155066,11330,-0.094,1.037,0.118,-0.915,-0.122,0.732,284.212
121874,154997,10908,-0.093,1.036,0.122,-0.244,0.244,0.732,284.218
121893,155066,11330,-0.093,1.044,0.12,-0.244,0.244,0.732,284.222
121893,155019,10897,-0.096,1.048,0.117,-0.183,0.61,0.732,284.228
121910,155066,11330,-0.095,1.043,0.116,-0.183,0.61,0.732,284.232
121910,155032,10905,-0.096,1.041,0.112,-0.366,0.915,0.366,284.238
121911,155066,11330,-0.097,1.035,0.107,-0.366,0.915,0.366,284.242
121911,155021,10909,-0.098,1.033,0.1,-0.122,0.976,-0.122,284.248
121915,155066,11330,-0.096,1.029,0.11,-0.122,0.976,-0.122,284.252
121915,154998,10896,-0.095,1.03,0.115,0.61,1.159,-0.122,284.258
121908,155066,11330,-0.095,1.036,0.108,0.61,1.159,-0.122,284.261
121908,154997,10915,-0.099,1.039,0.099,0.366,1.402,0,284.268
121911,155066,11330,-0.1,1.039,0.1,0.366,1.402,0,284.271
121911,155014,10881,-0.099,1.03,0.102,-0.183,1.159,0.183,284.277
121896,155066,11330,-0.1,1.027,0.099,-0.183,1.159,0.183,284.281
121896,154996,10907,-0.103,1.03,0.101,-0.427,0.61,0.427,284.287
121887,155066,11330,-0.104,1.032,0.103,-0.427,0.61,0.427,284.291
121887,154969,10894,-0.1,1.038,0.107,-0.305,0.427,0.671,284.297
121852,155066,11330,-0.1,1.042,0.104,-0.305,0.427,0.671,284.301
121852,154982,10898,-0.1,1.039,0.107,-0.122,0.305,0.488,284.307
121790,155066,11330,-0.103,1.04,0.107,-0.122,0.305,0.488,284.311
121790,154917,10880,-0.103,1.036,0.104,-0.183,0.305,0.488,284.317
121729,154810,11330,-0.102,1.037,0.109,-0.183,0.305,0.488,284.321
121729,154859,10876,-0.101,1.032,0.109,-0.244,0.488,0.549,284.327
121689,154810,11330,-0.1,1.03,0.11,-0.244,0.488,0.549,284.331
121689,154826,10870,-0.097,1.037,0.112,0.488,0.427,0.366,284.337
121635,154810,11330,-0.098,1.044,0.111,0.488,0.427,0.366,284.341
121635,154813,10856,-0.096,1.044,0.105,1.341,0.61,0.244,284.347
121606,154810,11330,-0.101,1.039,0.104,1.341,0.61,0.244,284.351
121606,154757,10865,-0.101,1.037,0.106,0.915,0.671,0.122,284.357
121562,154810,11330,-0.098,1.039,0.108,0.915,0.671,0.122,284.36
121562,154721,10850,-0.099,1.038,0.104,-0.549,0.488,0.244,284.367
121501,154810,11330,-0.094,1.032,0.106,-0.549,0.488,0.244,284.37
121501,154693,10852,-0.091,1.03,0.109,-0.732,0.061,0.244,284.376
121432,154810,11330,-0.093,1.033,0.106,-0.732,0.061,0.244,284.38
121432,154639,10828,-0.098,1.036,0.106,-0.061,0.122,0.427,284.386
121336,154554,11330,-0.099,1.043,0.109,-0.061,0.122,0.427,284.39
121336,154565,10827,-0.099,1.037,0.116,0.427,0.549,0.366,284.396
121298,154554,11330,-0.1,1.034,0.115,0.427,0.549,0.366,284.4
121298,154518,10830,-0.098,1.034,0.113,0.305,0.427,0.366,284.406
121230,154554,11330,-0.101,1.033,0.114,0.305,0.427,0.366,284.41
121230,154491,10802,-0.099,1.031,0.111,0.122,0.61,0.61,284.416
121185,154554,11330,-0.097,1.026,0.111,0.122,0.61,0.61,284.42
121185,154461,10797,-0.1,1.029,0.108,0.305,0.854,0.61,284.426
121138,154554,11330,-0.105,1.031,0.111,0.305,0.854,0.61,284.43
121138,154410,10789,-0.105,1.036,0.113,0,0.854,0.671,284.436
121103,154554,11330,-0.103,1.037,0.106,0,0.854,0.671,284.44
121103,154393,10791,-0.102,1.033,0.104,-0.305,0.793,0.793,284.446
121107,154554,11330,-0.1,1.033,0.102,-0.305,0.793,0.793,284.45
121107,154378,10776,-0.101,1.036,0.101,-0.122,0.793,0.732,284.456
121079,154298,11330,-0.101,1.037,0.106,-0.122,0.793,0.732,284.459
121079,154366,10794,-0.104,1.033,0.103,0.305,0.854,0.61,284.466
121072,154554,11330,-0.102,1.041,0.1,0.305,0.854,0.61,284.469
121072,154406,10786,-0.097,1.041,0.112,0.427,0.793,0.488,284.475
121090,154554,11330,-0.095,1.035,0.113,0.427,0.793,0.488,284.479
121090,154394,10797,-0.094,1.037,0.109,0.793,0.793,0.366,284.485
121091,154554,11330,-0.093,1.041,0.111,0.793,0.793,0.366,284.489
121091,154397,10774,-0.094,1.042,0.113,1.098,1.037,0.122,284.495
121089,154554,11330,-0.094,1.042,0.113,1.098,1.037,0.122,284.499
121089,154397,10777,-0.095,1.043,0.105,1.463,1.037,-0.122,284.505
121104,154554,11330,-0.095,1.043,0.105,1.463,1.037,-0.122,284.509
121104,154383,10785,-0.096,1.03,0.106,1.402,1.037,-0.061,284.515
121096,154554,11330,-0.096,1.03,0.106,1.402,1.037,-0.061,284.519
121096,154386,10802,-0.099,1.027,0.107,0.976,0.915,0.183,284.525
121076,154554,11330,-0.099,1.027,0.107,0.976,0.915,0.183,284.529
121076,154372,10795,-0.094,1.027,0.112,0.793,0.915,0.488,284.535
121124,154554,11330,-0.094,1.027,0.112,0.793,0.915,0.488,284.539
121124,154402,10800,-0.095,1.032,0.112,1.159,1.159,0.549,284.545
121134,154554,11330,-0.095,1.032,0.112,1.159,1.159,0.549,284.549
121134,154410,10806,-0.096,1.034,0.109,1.402,1.463,0.671,284.555
121105,154554,11330,-0.096,1.034,0.109,1.402,1.463,0.671,284.558
121105,154394,10775,-0.099,1.034,0.096,0.61,1.646,0.854,284.565
121107,154554,11330,-0.099,1.034,0.096,0.61,1.646,0.854,284.568
121107,154376,10801,-0.101,1.035,0.097,0.427,1.402,0.915,284.574
121050,154298,11330,-0.101,1.035,0.097,0.427,1.402,0.915,284.578
121050,154353,10792,-0.104,1.04,0.1,0.366,1.037,0.854,284.584
121048,154298,11330,-0.104,1.04,0.1,0.366,1.037,0.854,284.588
121048,154355,10780,-0.103,1.043,0.096,0.305,0.854,0.549,284.594
121044,154298,11330,-0.103,1.043,0.096,0.305,0.854,0.549,284.598
121044,154333,10777,-0.101,1.046,0.098,0.793,0.732,0.305,284.604
121038,154298,11330,-0.101,1.046,0.098,0.793,0.732,0.305,284.608
121038,154340,10786,-0.098,1.04,0.11,1.28,0.793,0.183,284.614
121043,154298,11330,-0.098,1.04,0.11,1.28,0.793,0.183,284.618
121043,154336,10792,-0.101,1.036,0.103,0.854,0.915,0.061,284.624
121080,154554,11330,-0.101,1.036,0.103,0.854,0.915,0.061,284.628
121080,154377,10772,-0.094,1.034,0.102,0.366,0.915,0,284.634
121071,154298,11330,-0.094,1.034,0.102,0.366,0.915,0,284.638
121071,154354,10795,-0.094,1.033,0.11,0.366,0.915,0,284.644
121060,154298,11330,-0.097,1.031,0.104,0.122,1.037,0.122,284.647
121060,154353,10786,-0.099,1.035,0.1,0.122,1.037,0.122,284.654
121040,154298,11330,-0.097,1.036,0.098,-0.732,1.159,0.488,284.657
121040,154358,10798,-0.097,1.033,0.095,-0.732,1.159,0.488,284.664
121051,154298,11330,-0.095,1.031,0.097,-0.732,0.976,0.61,284.667
121051,154350,10792,-0.096,1.03,0.1,-0.732,0.976,0.61,284.673
121048,154298,11330,-0.099,1.03,0.096,-0.549,0.793,0.793,284.677
121048,154338,10798,-0.1,1.029,0.091,-0.549,0.793,0.793,284.683
121051,154298,11330,-0.105,1.034,0.099,0.061,0.732,0.915,284.687
121051,154356,10775,-0.101,1.037,0.102,0.061,0.732,0.915,284.693
121039,154298,11330,-0.101,1.042,0.098,0.122,0.366,0.854,284.697
121039,154333,10786,-0.104,1.048,0.093,0.122,0.366,0.854,284.703
121029,154298,11330,-0.105,1.048,0.09,-0.915,0.183,0.61,284.707
121029,154317,10779,-0.105,1.048,0.096,-0.915,0.183,0.61,284.713
121001,154298,11330,-0.105,1.044,0.096,-1.524,-0.122,0.488,284.717
121001,154325,10776,-0.102,1.04,0.093,-1.524,-0.122,0.488,284.723
120965,154298,11330,-0.104,1.034,0.094,-1.524,-0.549,0.244,284.727
120965,154300,10769,-0.101,1.033,0.1,-1.524,-0.549,0.244,284.733
120936,154298,11330,-0.101,1.035,0.109,-1.28,-0.61,0,284.737
120936,154258,10761,-0.099,1.037,0.116,-1.28,-0.61,0,284.743
120893,154298,11330,-0.093,1.041,0.119,-0.305,-0.61,-0.183,284.746
120893,154238,10765,-0.092,1.044,0.118,-0.305,-0.61,-0.183,284.753
120858,154298,11330,-0.089,1.04,0.118,0.061,-0.305,-0.305,284.756
120858,154193,10753,-0.092,1.036,0.123,0.061,-0.305,-0.305,284.763
120783,154298,11330,-0.094,1.034,0.121,-0.122,0.305,-0.488,284.766
120783,154151,10756,-0.096,1.032,0.115,-0.122,0.305,-0.488,284.772
120712,154042,11330,-0.093,1.025,0.111,-0.671,0.549,-0.488,284.776
120712,154089,10732,-0.092,1.018,0.115,-0.671,0.549,-0.488,284.782
120633,154042,11330,-0.092,1.016,0.117,-0.061,0.671,-0.122,284.786
120633,154040,10721,-0.095,1.023,0.114,-0.061,0.671,-0.122,284.792
120570,154042,11330,-0.095,1.032,0.103,0.061,0.61,0.61,284.796
120570,153958,10704,-0.094,1.04,0.105,0.061,0.61,0.61,284.802
120491,154042,11330,-0.094,1.042,0.109,-0.427,0.732,0.915,284.806
120491,153922,10705,-0.095,1.042,0.106,-0.427,0.732,0.915,284.812
120439,154042,11330,-0.098,1.04,0.092,-1.159,0.793,1.037,284.816
120439,153878,10696,-0.099,1.038,0.087,-1.159,0.793,1.037,284.822
120401,153786,11330,-0.104,1.035,0.084,-1.28,0.793,0.793,284.826
120401,153849,10684,-0.105,1.032,0.082,-1.28,0.793,0.793,284.832
120402,153786,11330,-0.106,1.038,0.084,-0.061,0.549,0.549,284.836
120402,153853,10691,-0.107,1.046,0.089,-0.061,0.549,0.549,284.842
120397,153786,11330,-0.108,1.053,0.088,0.549,0.244,0.61,284.845
120397,153848,10674,-0.107,1.052,0.086,0.549,0.244,0.61,284.852
120408,153786,11330,-0.105,1.049,0.102,-0.244,-0.122,0.244,284.855
120408,153831,10700,-0.104,1.042,0.111,-0.244,-0.122,0.244,284.862
120401,154042,11330,-0.101,1.036,0.112,-0.366,-0.305,-0.122,284.865
120401,153864,10697,-0.1,1.034,0.116,-0.366,-0.305,-0.122,284.871
120374,153786,11330,-0.099,1.033,0.118,0.366,-0.061,-0.488,284.875
120374,153835,10688,-0.099,1.031,0.115,0.366,-0.061,-0.488,284.881
120356,153786,11330,-0.099,1.031,0.115,0.793,0.305,-0.488,284.885
120356,153816,10692,-0.098,1.029,0.115,0.793,0.305,-0.488,284.891
120325,153786,11330,-0.094,1.022,0.109,0.915,0.427,-0.488,284.895
120325,153803,10678,-0.097,1.023,0.113,0.915,0.427,-0.488,284.901
120311,153786,11330,-0.094,1.027,0.105,1.098,0.488,-0.305,284.905
120311,153805,10677,-0.098,1.029,0.099,1.098,0.488,-0.305,284.911
120311,153786,11330,-0.101,1.029,0.098,0.732,0.549,0.061,284.915
120311,153768,10689,-0.102,1.029,0.097,0.732,0.549,0.061,284.921
120296,153786,11330,-0.099,1.027,0.1,0,0.305,0.305,284.925
120296,153770,10690,-0.098,1.028,0.103,0,0.305,0.305,284.931
120250,153786,11330,-0.096,1.029,0.101,-0.427,0.061,0.732,284.935
120250,153768,10674,-0.099,1.033,0.094,-0.427,0.061,0.732,284.941
120221,153786,11330,-0.103,1.035,0.092,-0.427,0,0.915,284.944
120221,153697,10661,-0.102,1.037,0.097,-0.427,0,0.915,284.951
120167,153786,11330,-0.102,1.045,0.105,-0.183,-0.061,0.732,284.954
120167,153672,10660,-0.102,1.049,0.109,-0.183,-0.061,0.732,284.961
120112,153786,11330,-0.099,1.05,0.113,-0.427,-0.061,0.61,284.964
120112,153641,10661,-0.097,1.053,0.109,-0.427,-0.061,0.61,284.97
120090,153786,11330,-0.097,1.054,0.107,-0.549,0,0.305,284.974
120090,153615,10649,-0.097,1.047,0.111,-0.549,0,0.305,284.98
120065,153530,11330,-0.097,1.037,0.116,-0.305,0.488,-0.366,284.984
120065,153593,10652,-0.097,1.029,0.118,-0.305,0.488,-0.366,284.99
120026,153530,11330,-0.092,1.026,0.113,0.915,1.159,-0.488,284.994
120026,153582,10652,-0.089,1.027,0.116,0.915,1.159,-0.488,285
120012,153530,11330,-0.09,1.03,0.119,1.89,1.524,-0.305,285.004
120012,153563,10646,-0.093,1.03,0.122,1.89,1.524,-0.305,285.01
119990,153530,11330,-0.089,1.03,0.118,1.646,1.768,-0.061,285.014
119990,153540,10639,-0.09,1.027,0.113,1.646,1.768,-0.061,285.02
119939,153530,11330,-0.094,1.023,0.104,0.305,2.012,0.366,285.024
119939,153509,10630,-0.098,1.021,0.104,0.305,2.012,0.366,285.03
119934,153530,11330,-0.097,1.023,0.1,-0.61,2.012,0.915,285.034
119934,153475,10633,-0.098,1.022,0.095,-0.61,2.012,0.915,285.04
119900,153530,11330,-0.1,1.025,0.092,-0.549,1.524,1.28,285.043
119900,153490,10618,-0.104,1.032,0.094,-0.549,1.524,1.28,285.05
119883,153530,11330,-0.106,1.037,0.087,-0.732,1.159,1.585,285.053
119883,153482,10627,-0.108,1.04,0.086,-0.732,1.159,1.585,285.06
119884,153530,11330,-0.107,1.039,0.084,-0.915,0.854,1.829,285.063
119884,153453,10631,-0.11,1.044,0.089,-0.915,0.854,1.829,285.069
119884,153530,11330,-0.109,1.047,0.099,-0.793,0.488,1.768,285.073
119884,153456,10606,-0.105,1.047,0.101,-0.793,0.488,1.768,285.079
119870,153530,11330,-0.105,1.047,0.101,-0.793,0.488,1.768,285.083
119870,153430,10631,-0.099,1.049,0.11,-0.244,0.305,1.463,285.089
119854,153530,11330,-0.099,1.049,0.11,-0.244,0.305,1.463,285.093
119854,153444,10616,-0.1,1.048,0.111,0.488,0.671,0.793,285.099
119851,153530,11330,-0.1,1.048,0.111,0.488,0.671,0.793,285.103
119851,153428,10628,-0.102,1.043,0.107,0.671,1.28,0.305,285.109
119822,153530,11330,-0.102,1.043,0.107,0.671,1.28,0.305,285.113
119822,153423,10619,-0.093,1.033,0.111,0.793,1.402,-0.244,285.119
119818,153530,11330,-0.093,1.033,0.111,0.793,1.402,-0.244,285.123
119818,153421,10609,-0.095,1.023,0.102,0.122,1.646,-0.305,285.129
119801,153530,11330,-0.095,1.023,0.102,0.122,1.646,-0.305,285.133
119801,153389,10626,-0.093,1.022,0.1,-0.427,1.707,0,285.139
119775,153274,11330,-0.093,1.022,0.1,-0.427,1.707,0,285.142
119775,153339,10617,-0.099,1.028,0.087,-0.183,1.28,0.366,285.149
119755,153274,11330,-0.099,1.028,0.087,-0.183,1.28,0.366,285.152
119755,153337,10617,-0.104,1.032,0.085,-0.427,0.976,0.732,285.159
119737,153530,11330,-0.104,1.032,0.085,-0.427,0.976,0.732,285.162
119737,153364,10601,-0.103,1.033,0.089,-1.037,0.427,0.915,285.168
119764,153530,11330,-0.103,1.033,0.089,-1.037,0.427,0.915,285.172
119764,153353,10611,-0.104,1.041,0.089,-1.098,-0.061,1.159,285.178
119779,153530,11330,-0.104,1.041,0.089,-1.098,-0.061,1.159,285.182
119779,153370,10607,-0.106,1.042,0.089,-0.793,-0.366,1.098,285.188
119823,153530,11330,-0.106,1.042,0.089,-0.793,-0.366,1.098,285.192
119823,153388,10620,-0.104,1.042,0.106,-0.122,-0.732,0.732,285.198
119846,153530,11330,-0.104,1.042,0.106,-0.122,-0.732,0.732,285.202
119846,153434,10621,-0.099,1.055,0.105,0.122,-0.854,0.549,285.208
119889,153530,11330,-0.099,1.055,0.105,0.122,-0.854,0.549,285.212
119889,153454,10624,-0.096,1.049,0.118,0,-0.61,0.183,285.218
119929,153530,11330,-0.096,1.049,0.118,0,-0.61,0.183,285.222
119929,153499,10648,-0.097,1.043,0.114,-0.549,-0.305,-0.427,285.228
119969,153530,11330,-0.095,1.037,0.112,-0.549,-0.305,-0.427,285.232
119969,153527,10637,-0.094,1.029,0.109,-0.915,0.122,-0.61,285.238
119987,153530,11330,-0.094,1.026,0.111,-0.915,0.122,-0.61,285.241
119987,153530,10650,-0.094,1.024,0.109,-0.244,0.305,-0.61,285.248
119993,153530,11330,-0.091,1.023,0.104,-0.244,0.305,-0.61,285.251
119993,153554,10653,-0.096,1.027,0.101,-0.366,0.427,-0.366,285.258
120006,153530,11330,-0.098,1.024,0.106,-0.366,0.427,-0.366,285.261
120006,153546,10658,-0.099,1.022,0.1,-0.854,0.488,-0.061,285.267
120003,153530,11330,-0.1,1.022,0.094,-0.854,0.488,-0.061,285.271
120003,153551,10649,-0.096,1.024,0.092,-1.402,0.061,0.61,285.277
119992,153530,11330,-0.098,1.032,0.099,-1.402,0.061,0.61,285.281
119992,153543,10641,-0.099,1.037,0.099,-0.915,-0.366,0.915,285.287
119989,153530,11330,-0.102,1.04,0.097,-0.915,-0.366,0.915,285.291
119989,153550,10634,-0.104,1.041,0.1,-0.793,-0.305,1.037,285.297
119983,153530,11330,-0.102,1.04,0.096,-0.793,-0.305,1.037,285.301
119983,153530,10632,-0.102,1.039,0.101,-0.915,-0.122,0.976,285.307
119993,153530,11330,-0.099,1.035,0.107,-0.915,-0.122,0.976,285.311
119993,153546,10644,-0.098,1.04,0.108,-0.976,-0.122,0.793,285.317
120019,153530,11330,-0.096,1.043,0.105,-0.976,-0.122,0.793,285.321
120019,153539,10638,-0.101,1.041,0.103,-0.915,0.061,0.61,285.327
119988,153530,11330,-0.101,1.041,0.108,-0.915,0.061,0.61,285.331
119988,153527,10643,-0.094,1.038,0.114,-1.098,0.183,0.244,285.337
119961,153530,11330,-0.096,1.041,0.113,-1.098,0.183,0.244,285.34
119961,153516,10628,-0.097,1.043,0.108,-1.585,0.122,0.061,285.347
119969,153530,11330,-0.097,1.041,0.102,-1.585,0.122,0.061,285.35
119969,153515,10621,-0.096,1.032,0.107,-1.585,0,-0.122,285.357
119935,153530,11330,-0.094,1.028,0.116,-1.585,0,-0.122,285.36
119935,153486,10629,-0.092,1.026,0.117,-1.159,-0.183,-0.305,285.366
119962,153530,11330,-0.093,1.03,0.102,-1.159,-0.183,-0.305,285.37
119962,153521,10634,-0.096,1.038,0.09,-1.463,0.061,0,285.376
119944,153530,11330,-0.094,1.043,0.098,-1.463,0.061,0,285.38
119944,153496,10638,-0.096,1.047,0.102,-2.012,-0.244,0.061,285.386
119928,153530,11330,-0.1,1.045,0.095,-2.012,-0.244,0.061,285.39
119928,153498,10641,-0.104,1.041,0.083,-3.537,-0.793,0.183,285.396
119940,153530,11330,-0.102,1.037,0.085,-3.537,-0.793,0.183,285.4
119940,153489,10636,-0.1,1.036,0.091,-4.146,-1.159,0.122,285.406
119946,153530,11330,-0.1,1.032,0.094,-4.146,-1.159,0.122,285.41
119946,153504,10628,-0.1,1.033,0.1,-3.598,-1.402,0,285.416
119928,153530,11330,-0.102,1.033,0.107,-3.598,-1.402,0,285.42
119928,153503,10629,-0.101,1.033,0.108,-2.744,-1.22,0.061,285.426
119960,153530,11330,-0.102,1.036,0.111,-2.744,-1.22,0.061,285.43
119960,153505,10642,-0.103,1.031,0.119,-1.951,-0.732,-0.061,285.436
119981,153530,11330,-0.098,1.028,0.131,-1.951,-0.732,-0.061,285.439
119981,153516,10628,-0.093,1.026,0.127,-0.732,-0.366,0.122,285.446
119966,153530,11330,-0.098,1.03,0.118,-0.732,-0.366,0.122,285.449
119966,153526,10652,-0.099,1.033,0.123,-0.671,0.244,0.244,285.456
119985,153530,11330,-0.098,1.031,0.131,-0.671,0.244,0.244,285.459
119985,153523,10636,-0.096,1.032,0.125,-0.732,0.549,0.488,285.465
119994,153530,11330,-0.095,1.034,0.117,-0.732,0.549,0.488,285.469
119994,153531,10637,-0.096,1.03,0.111,-1.159,0.549,0.61,285.475
119996,153530,11330,-0.094,1.027,0.111,-1.159,0.549,0.61,285.479
119996,153518,10637,-0.097,1.027,0.106,-0.915,0.671,0.427,285.485
119989,153530,11330,-0.098,1.025,0.108,-0.915,0.671,0.427,285.489
119989,153525,10637,-0.097,1.03,0.106,-0.732,0.732,0.671,285.495
119992,153530,11330,-0.095,1.037,0.109,-0.732,0.732,0.671,285.499
119992,153534,10640,-0.091,1.041,0.113,-0.671,0.671,0.793,285.505
119989,153530,11330,-0.093,1.043,0.112,-0.671,0.671,0.793,285.509
119989,153494,10641,-0.095,1.044,0.111,-0.732,0.732,0.61,285.515
119958,153530,11330,-0.096,1.042,0.111,-0.732,0.732,0.61,285.519
119958,153521,10618,-0.096,1.04,0.112,-0.854,1.098,0.427,285.525
119982,153530,11330,-0.098,1.038,0.116,-0.854,1.098,0.427,285.529
119982,153516,10625,-0.094,1.034,0.114,-0.183,1.463,0.305,285.535
119965,153530,11330,-0.093,1.037,0.115,-0.183,1.463,0.305,285.538
119965,153517,10629,-0.096,1.04,0.115,0.549,1.768,0.183,285.545
119943,153530,11330,-0.095,1.037,0.114,0.549,1.768,0.183,285.548
119943,153496,10636,-0.093,1.036,0.109,0.427,1.768,0.061,285.555
119895,153530,11330,-0.095,1.036,0.1,0.427,1.768,0.061,285.558
119895,153450,10631,-0.096,1.036,0.099,0.183,1.89,0.305,285.564
119876,153530,11330,-0.098,1.033,0.099,0.183,1.89,0.305,285.568
119876,153428,10626,-0.096,1.037,0.097,0.244,1.768,0.305,285.574
119831,153530,11330,-0.104,1.041,0.094,0.244,1.768,0.305,285.578
119831,153397,10630,-0.109,1.036,0.095,-0.793,1.524,0.488,285.584
119794,153530,11330,-0.106,1.029,0.089,-0.793,1.524,0.488,285.588
119794,153376,10615,-0.102,1.028,0.087,-1.22,1.159,0.549,285.594
119778,153530,11330,-0.103,1.033,0.086,-1.22,1.159,0.549,285.598
119778,153377,10600,-0.104,1.035,0.094,-0.244,0.549,0.488,285.604
119769,153530,11330,-0.105,1.036,0.1,-0.244,0.549,0.488,285.608
119769,153354,10608,-0.106,1.044,0.101,0.427,0.305,0.549,285.614
119759,153274,11330,-0.104,1.048,0.098,0.427,0.305,0.549,285.618
119759,153343,10611,-0.108,1.04,0.099,-0.183,-0.122,0.427,285.624
119715,153530,11330,-0.106,1.037,0.105,-0.183,-0.122,0.427,285.628
119715,153346,10604,-0.101,1.035,0.104,-0.244,-0.61,0.183,285.634
119682,153274,11330,-0.1,1.034,0.106,-0.244,-0.61,0.183,285.637
119682,153289,10598,-0.1,1.039,0.117,-0.061,-0.671,0.122,285.644
119645,153274,11330,-0.102,1.044,0.118,-0.061,-0.671,0.122,285.647
119645,153277,10599,-0.101,1.04,0.116,0,-0.488,0,285.654
119601,153274,11330,-0.096,1.038,0.117,0,-0.488,0,285.657
119601,153211,10588,-0.098,1.032,0.114,-0.366,-0.671,-0.183,285.663
119566,153274,11330,-0.098,1.032,0.114,-0.366,-0.671,-0.183,285.667
119566,153185,10588,-0.096,1.023,0.113,-0.671,-0.488,0,285.673
119529,153274,11330,-0.096,1.023,0.113,-0.671,-0.488,0,285.677
119529,153137,10588,-0.096,1.026,0.111,-0.61,-0.122,0.305,285.683
119487,153274,11330,-0.096,1.026,0.111,-0.61,-0.122,0.305,285.687
119487,153133,10582,-0.096,1.029,0.105,-0.549,0,0.488,285.693
119483,153274,11330,-0.096,1.029,0.105,-0.549,0,0.488,285.697
119483,153125,10571,-0.1,1.028,0.112,-0.854,-0.061,0.732,285.703
119474,153274,11330,-0.1,1.028,0.112,-0.854,-0.061,0.732,285.707
119474,153113,10576,-0.096,1.032,0.114,-0.793,-0.122,0.915,285.713
119461,153274,11330,-0.096,1.032,0.114,-0.793,-0.122,0.915,285.717
119461,153104,10567,-0.098,1.044,0.119,-0.061,0.061,0.915,285.723
119459,153274,11330,-0.098,1.044,0.119,-0.061,0.061,0.915,285.727
119459,153105,10589,-0.099,1.035,0.115,1.037,0.366,0.61,285.733
119418,153018,11330,-0.099,1.035,0.115,1.037,0.366,0.61,285.736
119418,153087,10565,-0.098,1.039,0.116,1.098,0.732,0.488,285.743
119432,153274,11330,-0.098,1.039,0.116,1.098,0.732,0.488,285.746
119432,153091,10569,-0.094,1.039,0.114,0.61,0.793,0.366,285.752
119437,153018,11330,-0.094,1.039,0.114,0.61,0.793,0.366,285.756
119437,153085,10561,-0.097,1.039,0.108,-0.122,0.854,0.305,285.762
119423,153274,11330,-0.097,1.039,0.108,-0.122,0.854,0.305,285.766
119423,153091,10562,-0.098,1.03,0.1,-0.305,0.915,0.244,285.772
119427,153018,11330,-0.098,1.03,0.1,-0.305,0.915,0.244,285.776
119427,153071,10584,-0.098,1.034,0.109,-0.122,0.854,0.244,285.782
119447,153274,11330,-0.098,1.034,0.109,-0.122,0.854,0.244,285.786
119447,153105,10571,-0.098,1.036,0.105,-0.549,0.793,0.305,285.792
119466,153274,11330,-0.098,1.036,0.105,-0.549,0.793,0.305,285.796
119466,153109,10579,-0.096,1.037,0.106,-1.22,0.488,0.366,285.802
119479,153274,11330,-0.096,1.037,0.106,-1.22,0.488,0.366,285.806
119479,153110,10579,-0.101,1.037,0.102,-1.22,0.488,0.366,285.812
119492,153274,11330,-0.099,1.036,0.107,-1.524,0.305,0.366,285.816
119492,153119,10582,-0.1,1.034,0.11,-1.524,0.305,0.366,285.822
119477,153274,11330,-0.098,1.03,0.103,-1.463,0.244,0.244,285.826
119477,153136,10588,-0.1,1.033,0.099,-1.463,0.244,0.244,285.832
119482,153274,11330,-0.101,1.033,0.101,-1.098,0.061,0.244,285.835
119482,153118,10570,-0.101,1.031,0.113,-1.098,0.061,0.244,285.842
119477,153274,11330,-0.099,1.035,0.111,-0.061,0,0.305,285.845
119477,153124,10573,-0.101,1.042,0.104,-0.061,0,0.305,285.851
119510,153274,11330,-0.102,1.042,0.099,-0.671,0.183,0.244,285.855
119510,153134,10569,-0.106,1.042,0.1,-0.671,0.183,0.244,285.861
119494,153274,11330,-0.104,1.042,0.103,-1.524,-0.122,0.244,285.865
119494,153128,10581,-0.102,1.042,0.1,-1.524,-0.122,0.244,285.871
119528,153274,11330,-0.098,1.036,0.101,-1.951,-0.427,0.244,285.875
119528,153147,10584,-0.101,1.035,0.102,-1.951,-0.427,0.244,285.881
119516,153274,11330,-0.101,1.035,0.099,-1.646,-0.549,0.122,285.885
119516,153156,10583,-0.1,1.034,0.103,-1.646,-0.549,0.122,285.891
119513,153274,11330,-0.1,1.031,0.108,-0.854,-0.488,0,285.895
119513,153137,10573,-0.1,1.036,0.107,-0.854,-0.488,0,285.901
119504,153274,11330,-0.1,1.039,0.114,-0.549,-0.427,0.061,285.905
119504,153134,10582,-0.099,1.038,0.117,-0.549,-0.427,0.061,285.911
119468,153274,11330,-0.097,1.034,0.115,-0.488,-0.427,-0.061,285.915
119468,153107,10573,-0.099,1.033,0.113,-0.488,-0.427,-0.061,285.921
119430,153018,11330,-0.101,1.034,0.115,-0.793,-0.366,0.061,285.924
119430,153080,10558,-0.097,1.034,0.118,-0.793,-0.366,0.061,285.931
119395,153018,11330,-0.096,1.035,0.12,-0.915,-0.305,0.061,285.934
119395,153044,10560,-0.095,1.039,0.12,-0.915,-0.305,0.061,285.941
119353,153018,11330,-0.097,1.037,0.119,-1.341,0,0.122,285.944
119353,153042,10561,-0.095,1.038,0.117,-1.341,0,0.122,285.951
119333,153018,11330,-0.097,1.031,0.11,-2.073,0.183,0.122,285.954
119333,153017,10542,-0.098,1.027,0.12,-2.073,0.183,0.122,285.96
119310,153018,11330,-0.097,1.028,0.12,-1.585,0.305,0.183,285.964
119310,152981,10572,-0.098,1.029,0.112,-1.585,0.305,0.183,285.97
119314,153018,11330,-0.097,1.03,0.107,-1.037,0.549,0.427,285.974
119314,152998,10560,-0.098,1.028,0.112,-1.037,0.549,0.427,285.98
119315,153018,11330,-0.099,1.032,0.115,0.183,0.61,0.427,285.984
119315,152987,10558,-0.099,1.037,0.11,0.183,0.61,0.427,285.99
119323,153018,11330,-0.101,1.041,0.107,-0.061,0.671,0.671,285.994
119323,153017,10550,-0.1,1.04,0.105,-0.061,0.671,0.671,286
119320,153018,11330,-0.099,1.034,0.109,-0.366,0.549,0.61,286.004
119320,153015,10557,-0.098,1.037,0.112,-0.366,0.549,0.61,286.01
119310,153018,11330,-0.098,1.037,0.11,-0.793,0.488,0.732,286.014
119310,152993,10562,-0.097,1.037,0.108,-0.793,0.488,0.732,286.02
119302,153018,11330,-0.094,1.038,0.107,-0.488,0.61,0.549,286.023
119302,153006,10539,-0.097,1.037,0.107,-0.488,0.61,0.549,286.03
119294,153018,11330,-0.102,1.039,0.108,-0.122,0.793,0.366,286.033
119294,153013,10537,-0.101,1.037,0.108,-0.122,0.793,0.366,286.04
119307,153018,11330,-0.098,1.036,0.107,0.061,0.915,0.366,286.043
119307,153015,10541,-0.098,1.039,0.106,0.061,0.915,0.366,286.049
119310,153018,11330,-0.1,1.041,0.105,0.183,0.854,0.305,286.053
119310,152985,10542,-0.099,1.04,0.104,0.183,0.854,0.305,286.059
119294,153018,11330,-0.101,1.038,0.102,0.061,0.732,0.366,286.063
119294,152980,10544,-0.106,1.032,0.107,0.061,0.732,0.366,286.069
119276,153018,11330,-0.104,1.025,0.111,-0.244,0.549,0.244,286.073
119276,153000,10552,-0.1,1.02,0.114,-0.244,0.549,0.244,286.079
119289,153018,11330,-0.098,1.023,0.114,0.244,0.366,0.488,286.083
119289,152986,10538,-0.098,1.032,0.11,0.244,0.366,0.488,286.089
119262,153018,11330,-0.099,1.037,0.118,0.671,0.427,0.793,286.093
119262,152975,10539,-0.101,1.043,0.123,0.671,0.427,0.793,286.099
119251,153018,11330,-0.099,1.044,0.119,0.183,0.427,0.549,286.103
119251,152955,10541,-0.097,1.041,0.115,0.183,0.427,0.549,286.109
119250,153018,11330,-0.1,1.031,0.11,-0.915,0.183,0.366,286.113
119250,152949,10532,-0.098,1.027,0.106,-0.915,0.183,0.366,286.119
119250,153018,11330,-0.1,1.021,0.097,-1.037,0.183,0.427,286.122
119250,152946,10546,-0.104,1.018,0.102,-1.037,0.183,0.427,286.129
119239,153018,11330,-0.101,1.028,0.111,0,0.183,0.488,286.132
119239,152941,10524,-0.098,1.04,0.111,0,0.183,0.488,286.139
119227,153018,11330,-0.099,1.047,0.111,0.549,0.122,0.61,286.142
119227,152941,10539,-0.096,1.049,0.108,0.549,0.122,0.61,286.148
119228,153018,11330,-0.095,1.048,0.106,-0.183,-0.183,0.488,286.152
119228,152911,10538,-0.099,1.042,0.107,-0.183,-0.183,0.488,286.158
119221,153018,11330,-0.096,1.035,0.115,-1.159,-0.305,0.305,286.162
119221,152911,10535,-0.096,1.031,0.115,-1.159,-0.305,0.305,286.168
119196,153018,11330,-0.096,1.027,0.112,-1.22,-0.244,0.305,286.172
119196,152904,10539,-0.095,1.025,0.117,-1.22,-0.244,0.305,286.178
119170,153018,11330,-0.096,1.035,0.125,0.122,-0.122,0.427,286.182
119170,152914,10527,-0.095,1.04,0.127,0.122,-0.122,0.427,286.188
119172,153018,11330,-0.096,1.044,0.127,0.366,0.183,0.61,286.192
119172,152894,10536,-0.096,1.045,0.122,0.366,0.183,0.61,286.198
119162,153018,11330,-0.095,1.043,0.118,-0.61,0.305,0.488,286.202
119162,152907,10536,-0.094,1.04,0.119,-0.61,0.305,0.488,286.208
119160,153018,11330,-0.096,1.039,0.114,-2.256,0.122,0.427,286.212
119160,152903,10523,-0.098,1.028,0.102,-2.256,0.122,0.427,286.218
119154,153018,11330,-0.1,1.018,0.097,-2.927,0.122,0.488,286.221
119154,152908,10533,-0.105,1.019,0.094,-2.927,0.122,0.488,286.228
119142,153018,11330,-0.108,1.021,0.088,-2.5,0,0.61,286.231
119142,152910,10527,-0.108,1.028,0.087,-2.5,0,0.61,286.238
119154,153018,11330,-0.104,1.039,0.094,-2.134,-0.732,0.793,286.241
119154,152901,10515,-0.101,1.05,0.098,-2.134,-0.732,0.793,286.247
119157,153018,11330,-0.101,1.05,0.098,-2.134,-0.732,0.793,286.251
119157,152859,10515,-0.1,1.052,0.101,-2.012,-1.585,0.732,286.257
119136,153018,11330,-0.1,1.052,0.101,-2.012,-1.585,0.732,286.261
119136,152854,10535,-0.1,1.04,0.106,-2.988,-1.89,0.366,286.267
119133,153018,11330,-0.1,1.04,0.106,-2.988,-1.89,0.366,286.271
119133,152882,10518,-0.102,1.04,0.111,-4.146,-1.951,0.183,286.277
119117,153018,11330,-0.102,1.04,0.111,-4.146,-1.951,0.183,286.281
119117,152895,10519,-0.099,1.03,0.115,-4.634,-1.768,0.061,286.287
119120,153018,11330,-0.099,1.03,0.115,-4.634,-1.768,0.061,286.291
119120,152870,10511,-0.098,1.04,0.117,-3.963,-1.707,-0.183,286.297
119145,153018,11330,-0.098,1.04,0.117,-3.963,-1.707,-0.183,286.301
119145,152881,10526,-0.102,1.034,0.12,-3.537,-1.524,-0.122,286.307
119153,153018,11330,-0.102,1.034,0.12,-3.537,-1.524,-0.122,286.311
119153,152877,10508,-0.099,1.032,0.12,-2.866,-1.22,-0.305,286.317
119181,153018,11330,-0.099,1.032,0.12,-2.866,-1.22,-0.305,286.32
119181,152896,10527,-0.094,1.026,0.128,-2.561,-1.22,-0.122,286.327
119162,153018,11330,-0.094,1.026,0.128,-2.561,-1.22,-0.122,286.33
119162,152892,10541,-0.092,1.026,0.131,-1.768,-0.976,-0.061,286.337
119177,153018,11330,-0.092,1.026,0.131,-1.768,-0.976,-0.061,286.34
119177,152909,10534,-0.095,1.03,0.126,-0.854,-0.549,0.061,286.346
119149,153018,11330,-0.095,1.03,0.126,-0.854,-0.549,0.061,286.35
119149,152895,10516,-0.089,1.026,0.131,-0.732,-0.122,0.366,286.356
119134,153018,11330,-0.089,1.026,0.131,-0.732,-0.122,0.366,286.36
119134,152854,10529,-0.094,1.03,0.127,-0.549,0.244,0.488,286.366
119116,153018,11330,-0.094,1.03,0.127,-0.549,0.244,0.488,286.37
119116,152871,10515,-0.098,1.033,0.125,-0.854,0.61,0.915,286.376
119093,153018,11330,-0.098,1.033,0.125,-0.854,0.61,0.915,286.38
119093,152856,10503,-0.093,1.032,0.113,-0.915,0.915,1.037,286.386
119104,153018,11330,-0.093,1.032,0.113,-0.915,0.915,1.037,286.39
119104,152847,10529,-0.098,1.035,0.114,-0.305,1.098,0.976,286.396
119110,153018,11330,-0.097,1.039,0.119,-0.305,1.098,0.976,286.4
119110,152865,10526,-0.1,1.043,0.117,0.61,1.22,0.793,286.406
119099,153018,11330,-0.098,1.045,0.112,0.61,1.22,0.793,286.41
119099,152854,10522,-0.099,1.045,0.119,0.793,1.28,0.488,286.416
119127,153018,11330,-0.102,1.041,0.117,0.793,1.28,0.488,286.419
119127,152851,10526,-0.104,1.038,0.116,0.122,1.22,0.305,286.426
119109,153018,11330,-0.1,1.029,0.119,0.122,1.22,0.305,286.429
119109,152863,10522,-0.101,1.028,0.115,-0.122,1.037,0.183,286.436
119099,153018,11330,-0.103,1.032,0.115,-0.122,1.037,0.183,286.439
119099,152846,10522,-0.102,1.034,0.117,0.61,1.22,0.244,286.445
119093,153018,11330,-0.1,1.037,0.119,0.61,1.22,0.244,286.449
119093,152844,10524,-0.101,1.036,0.117,1.159,1.341,0.183,286.455
119039,152762,11330,-0.103,1.036,0.12,1.159,1.341,0.183,286.459
119039,152790,10512,-0.103,1.033,0.119,0.732,1.159,0.366,286.465
118959,152762,11330,-0.101,1.031,0.118,0.732,1.159,0.366,286.469
118959,152738,10511,-0.098,1.026,0.118,-0.061,1.098,0.366,286.475
118876,152762,11330,-0.097,1.025,0.119,-0.061,1.098,0.366,286.479
118876,152652,10488,-0.1,1.031,0.12,-0.366,1.098,0.671,286.485
118761,152762,11330,-0.095,1.032,0.119,-0.366,1.098,0.671,286.489
118761,152598,10471,-0.094,1.037,0.115,-0.427,1.037,0.793,286.495
118650,152506,11330,-0.094,1.039,0.11,-0.427,1.037,0.793,286.499
118650,152503,10459,-0.095,1.038,0.109,-0.915,0.793,0.61,286.505
118571,152506,11330,-0.093,1.032,0.105,-0.915,0.793,0.61,286.509
118571,152436,10468,-0.093,1.032,0.104,-1.646,0.549,0.793,286.515
118476,152506,11330,-0.096,1.026,0.109,-1.646,0.549,0.793,286.518
118476,152378,10442,-0.095,1.028,0.107,-1.402,0.244,0.854,286.525
118439,152506,11330,-0.097,1.03,0.108,-1.402,0.244,0.854,286.528
118439,152321,10432,-0.099,1.036,0.11,-0.732,-0.122,0.854,286.535
118403,152250,11330,-0.098,1.04,0.112,-0.732,-0.122,0.854,286.538
118403,152319,10419,-0.102,1.045,0.117,-0.549,-0.366,0.732,286.544
118386,152250,11330,-0.106,1.047,0.114,-0.549,-0.366,0.732,286.548
118386,152313,10423,-0.107,1.041,0.113,-1.402,-0.671,0.549,286.554
118391,152250,11330,-0.103,1.034,0.116,-1.402,-0.671,0.549,286.558
118391,152311,10416,-0.101,1.03,0.123,-1.341,-0.976,0.366,286.564
118406,152250,11330,-0.1,1.03,0.123,-1.341,-0.976,0.366,286.568
118406,152311,10428,-0.102,1.029,0.124,-0.488,-0.732,0.366,286.574
118431,152250,11330,-0.102,1.03,0.126,-0.488,-0.732,0.366,286.578
118431,152310,10420,-0.097,1.035,0.122,0.061,-0.305,0.244,286.584
118428,152506,11330,-0.1,1.041,0.12,0.061,-0.305,0.244,286.588
118428,152329,10433,-0.1,1.037,0.119,-0.488,-0.183,0.366,286.594
118429,152506,11330,-0.097,1.034,0.118,-0.488,-0.183,0.366,286.598
118429,152360,10422,-0.096,1.034,0.118,-1.28,-0.305,0.549,286.604
118451,152506,11330,-0.096,1.029,0.122,-1.28,-0.305,0.549,286.608
118451,152360,10437,-0.097,1.032,0.117,-1.28,-0.427,0.671,286.614
118432,152506,11330,-0.094,1.039,0.117,-1.28,-0.427,0.671,286.617
118432,152382,10417,-0.093,1.04,0.123,-0.366,-0.366,0.61,286.624
118453,152506,11330,-0.09,1.039,0.125,-0.366,-0.366,0.61,286.627
118453,152375,10435,-0.095,1.039,0.129,0.671,-0.305,0.305,286.634
118461,152506,11330,-0.095,1.039,0.128,0.671,-0.305,0.305,286.637
118461,152368,10446,-0.093,1.037,0.124,0.244,0,0.244,286.643
118468,152506,11330,-0.093,1.036,0.124,0.244,0,0.244,286.647
118468,152386,10429,-0.099,1.034,0.123,-0.488,0.244,0.183,286.653
118468,152506,11330,-0.097,1.034,0.126,-0.488,0.244,0.183,286.657
118468,152371,10414,-0.097,1.033,0.118,-1.22,0.244,0.305,286.663
118463,152506,11330,-0.098,1.031,0.114,-1.22,0.244,0.305,286.667
118463,152396,10441,-0.099,1.029,0.107,-1.159,0.244,0.305,286.673
118499,152506,11330,-0.102,1.027,0.106,-1.159,0.244,0.305,286.677
118499,152400,10434,-0.104,1.026,0.11,-0.366,0.244,0.366,286.683
118520,152506,11330,-0.099,1.029,0.112,-0.366,0.244,0.366,286.687
118520,152406,10442,-0.1,1.037,0.111,0.427,0.061,0.549,286.693
118521,152506,11330,-0.1,1.042,0.116,0.427,0.061,0.549,286.697
118521,152413,10447,-0.096,1.043,0.121,0.366,0.061,0.61,286.703
118535,152506,11330,-0.094,1.041,0.119,0.366,0.061,0.61,286.707
118535,152430,10449,-0.095,1.041,0.122,-0.183,0.122,0.61,286.713
118544,152506,11330,-0.097,1.043,0.121,-0.183,0.122,0.61,286.716
118544,152452,10429,-0.095,1.042,0.12,-0.488,0.183,0.488,286.723
118552,152506,11330,-0.095,1.034,0.123,-0.488,0.183,0.488,286.726
118552,152440,10449,-0.097,1.031,0.125,-0.488,0.244,0.122,286.733
118578,152506,11330,-0.096,1.031,0.121,-0.488,0.244,0.122,286.736
118578,152452,10458,-0.098,1.035,0.117,-0.366,0.305,0.183,286.742
118550,152506,11330,-0.098,1.035,0.119,-0.366,0.305,0.183,286.746
118550,152454,10441,-0.096,1.035,0.127,-0.244,0.366,0.061,286.752
118561,152506,11330,-0.097,1.031,0.124,-0.244,0.366,0.061,286.756
118561,152462,10455,-0.099,1.03,0.119,-0.488,0.488,0.061,286.762
118565,152506,11330,-0.099,1.03,0.117,-0.488,0.488,0.061,286.766
118565,152457,10442,-0.097,1.032,0.116,-0.732,0.549,0.305,286.772
118570,152506,11330,-0.099,1.029,0.117,-0.732,0.549,0.305,286.776
118570,152456,10451,-0.1,1.033,0.115,-0.366,0.488,0.305,286.782
118579,152506,11330,-0.099,1.036,0.115,-0.366,0.488,0.305,286.786
118579,152455,10464,-0.099,1.042,0.116,-0.305,0.488,0.305,286.792
118577,152506,11330,-0.102,1.044,0.111,-0.305,0.488,0.305,286.796
118577,152479,10444,-0.099,1.042,0.112,-0.915,0.427,0.305,286.802
118611,152506,11330,-0.101,1.043,0.109,-0.915,0.427,0.305,286.806
118611,152490,10468,-0.101,1.042,0.107,-1.829,0.305,0.305,286.812
118597,152506,11330,-0.103,1.04,0.112,-1.829,0.305,0.305,286.815
118597,152484,10449,-0.102,1.037,0.114,-2.561,0.244,0.305,286.822
118631,152506,11330,-0.098,1.038,0.123,-2.561,0.244,0.305,286.825
118631,152496,10442,-0.097,1.034,0.134,-2.195,0.061,0.122,286.832
118631,152506,11330,-0.097,1.034,0.134,-2.195,0.061,0.122,286.835
118631,152509,10471,-0.093,1.032,0.133,-1.524,0.183,0.183,286.841
118620,152506,11330,-0.093,1.032,0.133,-1.524,0.183,0.183,286.845
118620,152481,10458,-0.094,1.026,0.134,-0.793,0.793,0.305,286.851
118604,152506,11330,-0.094,1.026,0.134,-0.793,0.793,0.305,286.855
118604,152498,10460,-0.094,1.02,0.132,0.366,1.098,0.183,286.861
118618,152506,11330,-0.094,1.02,0.132,0.366,1.098,0.183,286.865
118618,152492,10465,-0.093,1.029,0.133,1.037,1.524,0.732,286.871
118611,152506,11330,-0.093,1.029,0.133,1.037,1.524,0.732,286.875
118611,152489,10454,-0.092,1.032,0.13,0.854,1.646,0.793,286.881
118583,152506,11330,-0.092,1.032,0.13,0.854,1.646,0.793,286.885
118583,152468,10460,-0.096,1.028,0.118,0.244,1.463,0.793,286.891
118598,152506,11330,-0.096,1.028,0.118,0.244,1.463,0.793,286.895
118598,152486,10435,-0.099,1.026,0.119,0.183,1.524,0.854,286.901
118593,152506,11330,-0.099,1.026,0.119,0.183,1.524,0.854,286.905
118593,152486,10446,-0.099,1.038,0.112,0.61,1.341,0.915,286.911
118575,152506,11330,-0.099,1.038,0.112,0.61,1.341,0.915,286.914
118575,152460,10450,-0.101,1.044,0.112,0.366,1.159,0.854,286.921
118564,152506,11330,-0.101,1.044,0.112,0.366,1.159,0.854,286.924
118564,152453,10453,-0.101,1.04,0.101,-0.061,0.732,0.671,286.931
118560,152506,11330,-0.101,1.04,0.101,-0.061,0.732,0.671,286.934
118560,152464,10449,-0.1,1.039,0.103,0.122,0.488,0.427,286.94
118562,152506,11330,-0.1,1.039,0.103,0.122,0.488,0.427,286.944
118562,152467,10457,-0.098,1.046,0.106,1.098,0.244,0.183,286.95
118585,152506,11330,-0.098,1.046,0.106,1.098,0.244,0.183,286.954
118585,152448,10435,-0.099,1.048,0.119,1.402,0.244,-0.122,286.96
118582,152506,11330,-0.099,1.048,0.119,1.402,0.244,-0.122,286.964
118582,152469,10456,-0.098,1.044,0.121,0.61,0.366,-0.366,286.97
118588,152506,11330,-0.098,1.044,0.121,0.61,0.366,-0.366,286.974
118588,152482,10461,-0.099,1.038,0.123,0.61,0.366,-0.366,286.98
118602,152506,11330,-0.1,1.029,0.12,-0.366,0.549,-0.366,286.984
118602,152488,10459,-0.098,1.018,0.123,-0.366,0.549,-0.366,286.99
118597,152506,11330,-0.1,1.02,0.126,-0.854,0.488,-0.122,286.994
118597,152453,10463,-0.098,1.02,0.12,-0.854,0.488,-0.122,287
118586,152506,11330,-0.098,1.02,0.114,-0.61,0.671,0.244,287.004
118586,152468,10457,-0.097,1.022,0.123,-0.61,0.671,0.244,287.01
118620,152506,11330,-0.096,1.025,0.128,0.427,0.61,0.488,287.013
118620,152467,10459,-0.096,1.033,0.122,0.427,0.61,0.488,287.02
118588,152506,11330,-0.094,1.037,0.123,0.854,0.549,0.671,287.023
118588,152470,10464,-0.095,1.036,0.124,0.854,0.549,0.671,287.03
118578,152506,11330,-0.098,1.033,0.116,0.183,0.61,0.671,287.033
118578,152476,10457,-0.1,1.031,0.112,0.183,0.61,0.671,287.039
118587,152506,11330,-0.098,1.031,0.117,-0.793,0.366,0.732,287.043
118587,152489,10448,-0.093,1.033,0.12,-0.793,0.366,0.732,287.049
118605,152506,11330,-0.091,1.039,0.118,-0.488,-0.061,0.671,287.053
118605,152503,10454,-0.094,1.041,0.115,-0.488,-0.061,0.671,287.059
118604,152506,11330,-0.097,1.043,0.117,-0.244,0.305,0.671,287.063
118604,152496,10462,-0.096,1.044,0.115,-0.244,0.305,0.671,287.069
118620,152506,11330,-0.101,1.04,0.119,-0.244,0.366,0.549,287.073
118620,152499,10446,-0.098,1.034,0.123,-0.244,0.366,0.549,287.079
118632,152506,11330,-0.095,1.032,0.121,-0.244,0.305,0.305,287.083
118632,152495,10460,-0.096,1.036,0.124,-0.244,0.305,0.305,287.089
118607,152506,11330,-0.096,1.037,0.124,0.183,0.61,0.183,287.093
118607,152507,10454,-0.098,1.035,0.127,0.183,0.61,0.183,287.099
118632,152506,11330,-0.099,1.036,0.128,0.244,0.976,0.183,287.103
118632,152501,10450,-0.1,1.035,0.119,0.244,0.976,0.183,287.109
118586,152506,11330,-0.1,1.036,0.114,-0.488,1.037,0.183,287.112
118586,152482,10451,-0.099,1.031,0.118,-0.488,1.037,0.183,287.119
118581,152506,11330,-0.095,1.028,0.121,-1.159,0.976,0.366,287.122
118581,152491,10456,-0.097,1.032,0.118,-1.159,0.976,0.366,287.129
118566,152506,11330,-0.099,1.031,0.113,-1.646,0.915,0.549,287.132
118566,152479,10449,-0.098,1.03,0.111,-1.646,0.915,0.549,287.138
118549,152506,11330,-0.094,1.032,0.107,-1.707,0.915,0.732,287.142
118549,152471,10443,-0.097,1.036,0.112,-1.707,0.915,0.732,287.148
118559,152506,11330,-0.099,1.035,0.116,-1.28,0.854,0.793,287.152
118559,152469,10456,-0.097,1.032,0.118,-1.28,0.854,0.793,287.158
118575,152506,11330,-0.094,1.029,0.117,-0.854,0.671,0.915,287.162
118575,152455,10448,-0.095,1.033,0.111,-0.854,0.671,0.915,287.168
118568,152506,11330,-0.099,1.036,0.116,-0.427,0.549,0.915,287.172
118568,152477,10455,-0.096,1.041,0.127,-0.427,0.549,0.915,287.178
118640,152506,11330,-0.096,1.04,0.131,0.122,0.61,0.854,287.182
118640,152495,10463,-0.096,1.041,0.129,0.122,0.61,0.854,287.188
118679,152506,11330,-0.1,1.038,0.124,-0.366,0.549,0.549,287.192
118679,152542,10476,-0.097,1.035,0.128,-0.366,0.549,0.549,287.198
118681,152506,11330,-0.095,1.028,0.131,-1.037,0.732,0.427,287.202
118681,152553,10465,-0.092,1.029,0.129,-1.037,0.732,0.427,287.208
118707,152506,11330,-0.093,1.025,0.129,-0.488,0.915,0.488,287.211
118707,152567,10480,-0.096,1.027,0.126,-0.488,0.915,0.488,287.218
118723,152762,11330,-0.099,1.031,0.127,0.366,1.341,0.549,287.221
118723,152597,10461,-0.097,1.034,0.126,0.366,1.341,0.549,287.228
118751,152762,11330,-0.1,1.035,0.119,0.366,1.28,0.549,287.231
118751,152600,10474,-0.1,1.034,0.118,0.366,1.28,0.549,287.237
118763,152762,11330,-0.103,1.03,0.109,-0.671,1.098,0.61,287.241
118763,152597,10485,-0.103,1.024,0.107,-0.671,1.098,0.61,287.247
118749,152762,11330,-0.104,1.025,0.108,-1.646,0.976,1.037,287.251
118749,152607,10488,-0.106,1.025,0.102,-1.646,0.976,1.037,287.257
118754,152762,11330,-0.103,1.03,0.101,-1.463,0.61,1.341,287.261
118754,152599,10476,-0.101,1.032,0.108,-1.463,0.61,1.341,287.267
118775,152762,11330,-0.099,1.033,0.117,-0.366,0.244,1.463,287.271
118775,152582,10479,-0.099,1.039,0.12,-0.366,0.244,1.463,287.277
118783,152762,11330,-0.094,1.047,0.12,0.305,0.061,1.463,287.281
118783,152610,10477,-0.095,1.049,0.121,0.305,0.061,1.463,287.287
118801,152762,11330,-0.094,1.041,0.128,0.732,0.183,0.976,287.291
118801,152622,10497,-0.094,1.039,0.127,0.732,0.183,0.976,287.297
118836,152762,11330,-0.091,1.044,0.13,0.793,0.549,0.671,287.301
118836,152639,10483,-0.093,1.039,0.136,0.793,0.549,0.671,287.307
118865,152762,11330,-0.091,1.035,0.132,0.793,0.915,0.366,287.31
118865,152683,10500,-0.093,1.036,0.129,0.793,0.915,0.366,287.317
118861,152762,11330,-0.094,1.037,0.123,0.366,1.037,0.244,287.32
118861,152682,10494,-0.092,1.028,0.119,0.366,1.037,0.244,287.326
118902,152762,11330,-0.092,1.023,0.12,0.244,1.22,0.305,287.33
118902,152671,10506,-0.089,1.025,0.122,0.244,1.22,0.305,287.336
118883,152762,11330,-0.091,1.028,0.113,0.305,0.976,0.427,287.34
118883,152675,10501,-0.095,1.031,0.106,0.305,0.976,0.427,287.346
118903,152762,11330,-0.097,1.038,0.103,0.671,0.976,0.549,287.35
118903,152695,10485,-0.097,1.039,0.105,0.671,0.976,0.549,287.356
118884,152762,11330,-0.1,1.036,0.105,0.061,0.793,0.793,287.36
118884,152686,10499,-0.096,1.04,0.104,0.061,0.793,0.793,287.366
118912,152762,11330,-0.096,1.038,0.107,-0.854,0.183,0.854,287.37
118912,152702,10504,-0.094,1.038,0.106,-0.854,0.183,0.854,287.376
118918,152762,11330,-0.095,1.043,0.111,-0.305,-0.366,0.671,287.38
118918,152714,10503,-0.095,1.046,0.113,-0.305,-0.366,0.671,287.386
118945,152762,11330,-0.097,1.048,0.114,1.402,-0.183,0.366,287.39
118945,152726,10501,-0.097,1.047,0.116,1.402,-0.183,0.366,287.396
118959,152762,11330,-0.101,1.044,0.12,2.683,0.244,-0.305,287.4
118959,152761,10505,-0.101,1.046,0.122,2.683,0.244,-0.305,287.406
118978,152762,11330,-0.1,1.043,0.125,2.561,0.366,-0.671,287.409
118978,152766,10507,-0.102,1.04,0.126,2.561,0.366,-0.671,287.416
119019,152762,11330,-0.102,1.04,0.126,2.561,0.366,-0.671,287.419
119019,152783,10499,-0.097,1.036,0.116,1.829,0.305,-0.793,287.426
119042,152762,11330,-0.097,1.036,0.116,1.829,0.305,-0.793,287.429
119042,152788,10521,-0.098,1.031,0.121,1.28,0.366,-0.793,287.435
119021,152762,11330,-0.098,1.031,0.121,1.28,0.366,-0.793,287.439
119021,152816,10529,-0.097,1.019,0.113,1.159,0.61,-0.671,287.445
119040,152762,11330,-0.097,1.019,0.113,1.159,0.61,-0.671,287.449
119040,152807,10524,-0.094,1.016,0.115,1.037,0.427,-0.427,287.455
119028,152762,11330,-0.094,1.016,0.115,1.037,0.427,-0.427,287.459
119028,152806,10520,-0.093,1.032,0.11,1.159,0,0,287.465
119031,152762,11330,-0.093,1.032,0.11,1.159,0,0,287.469
119031,152804,10522,-0.097,1.046,0.114,0.549,-0.305,0.427,287.475
119027,152762,11330,-0.097,1.046,0.114,0.549,-0.305,0.427,287.479
119027,152790,10523,-0.098,1.036,0.106,-1.463,-0.61,0.732,287.485
119027,152762,11330,-0.098,1.036,0.106,-1.463,-0.61,0.732,287.489
119027,152807,10514,-0.095,1.027,0.118,-2.927,-1.037,0.671,287.495
119020,152762,11330,-0.095,1.027,0.118,-2.927,-1.037,0.671,287.499
119020,152784,10515,-0.098,1.04,0.119,-2.012,-1.037,0.549,287.505
119011,152762,11330,-0.098,1.04,0.119,-2.012,-1.037,0.549,287.508
119011,152791,10512,-0.098,1.047,0.124,-1.037,-0.549,0.244,287.515
119004,152762,11330,-0.098,1.047,0.124,-1.037,-0.549,0.244,287.518
119004,152777,10501,-0.098,1.042,0.127,-1.159,-0.244,0.061,287.524
118986,152762,11330,-0.098,1.042,0.127,-1.159,-0.244,0.061,287.528
118986,152748,10520,-0.099,1.026,0.126,-2.073,-0.122,-0.183,287.534
118983,152762,11330,-0.099,1.026,0.126,-2.073,-0.122,-0.183,287.538
118983,152776,10504,-0.098,1.029,0.124,-2.012,0.122,-0.305,287.544
118964,152762,11330,-0.098,1.029,0.124,-2.012,0.122,-0.305,287.548
118964,152769,10497,-0.096,1.036,0.122,-1.341,0.488,-0.183,287.554
118963,152762,11330,-0.096,1.036,0.122,-1.341,0.488,-0.183,287.558
118963,152755,10505,-0.098,1.035,0.117,-1.646,0.549,0,287.564
118957,152762,11330,-0.098,1.031,0.114,-1.646,0.549,0,287.568
118957,152735,10494,-0.099,1.025,0.111,-2.988,0.488,0.244,287.574
118938,152762,11330,-0.096,1.021,0.11,-2.988,0.488,0.244,287.578
118938,152733,10511,-0.097,1.024,0.114,-3.537,0.061,0.549,287.584
118954,152762,11330,-0.094,1.032,0.12,-3.537,0.061,0.549,287.588
