127146,158138,11330,-0.088,1.006,0.254,-1.89,-0.244,0.61,568.535
127146,158164,11547,-0.085,1.01,0.254,-0.793,-0.427,0.549,568.541
127122,158138,11330,-0.085,1.014,0.257,-0.793,-0.427,0.549,568.545
127122,158178,11538,-0.083,1.02,0.259,0.183,-0.244,0.549,568.551
127113,158138,11330,-0.08,1.022,0.268,0.183,-0.244,0.549,568.555
127113,158184,11547,-0.078,1.021,0.272,0.915,0.061,0.183,568.561
127120,158138,11330,-0.077,1.022,0.269,0.915,0.061,0.183,568.564
127120,158186,11554,-0.081,1.019,0.264,0.183,0.427,0.061,568.571
127120,158138,11330,-0.079,1.016,0.263,0.183,0.427,0.061,568.574
127120,158159,11537,-0.08,1.01,0.264,-0.61,0.732,0.061,568.581
127094,158138,11330,-0.081,1.009,0.265,-0.61,0.732,0.061,568.584
127094,158190,11522,-0.081,1.01,0.265,-0.244,0.671,-0.061,568.59
127116,158138,11330,-0.08,1.003,0.265,-0.244,0.671,-0.061,568.594
127116,158188,11542,-0.083,0.999,0.265,-0.183,0.61,0.122,568.6
127098,158138,11330,-0.084,0.992,0.268,-0.183,0.61,0.122,568.604
127098,158183,11546,-0.088,0.997,0.266,-0.244,0.915,0.427,568.61
127092,158138,11330,-0.094,1.008,0.26,-0.244,0.915,0.427,568.614
127092,158185,11528,-0.096,1.016,0.256,-0.427,1.402,0.732,568.62
127109,158138,11330,-0.091,1.014,0.26,-0.427,1.402,0.732,568.624
127109,158185,11526,-0.09,1.007,0.263,0.305,0.976,0.793,568.63
127106,158394,11330,-0.089,1.008,0.263,0.305,0.976,0.793,568.634
127106,158214,11539,-0.084,1.007,0.268,0,0.183,1.037,568.64
127115,158138,11330,-0.08,1.008,0.273,0,0.183,1.037,568.644
127115,158194,11537,-0.083,1.008,0.271,-0.305,0.244,1.159,568.65
127143,158138,11330,-0.083,1.008,0.271,-0.305,0.244,1.159,568.654
127143,158205,11548,-0.076,1.015,0.257,0,1.037,0.915,568.66
127129,158138,11330,-0.076,1.015,0.257,0,1.037,0.915,568.663
127129,158176,11542,-0.077,1.012,0.264,0.366,1.341,0.976,568.67
127131,158138,11330,-0.077,1.012,0.264,0.366,1.341,0.976,568.673
127131,158169,11548,-0.078,1.004,0.257,0.427,1.22,1.037,568.68
127135,158138,11330,-0.078,1.004,0.257,0.427,1.22,1.037,568.683
127135,158180,11556,-0.082,1.018,0.253,-0.122,1.585,1.037,568.689
127154,158138,11330,-0.082,1.018,0.253,-0.122,1.585,1.037,568.693
127154,158197,11544,-0.084,1.024,0.267,0.427,1.402,1.22,568.699
127152,158138,11330,-0.084,1.024,0.267,0.427,1.402,1.22,568.703
127152,158204,11559,-0.08,1.025,0.264,0.61,1.098,0.732,568.709
127154,158138,11330,-0.08,1.025,0.264,0.61,1.098,0.732,568.713
127154,158186,11538,-0.082,1.014,0.258,0.61,1.646,0.366,568.719
127128,158138,11330,-0.082,1.014,0.258,0.61,1.646,0.366,568.723
127128,158206,11564,-0.091,1.015,0.254,0.61,2.378,0.061,568.729
127131,158138,11330,-0.091,1.015,0.254,0.61,2.378,0.061,568.733
127131,158192,11540,-0.091,1.007,0.252,0.915,2.195,0.061,568.739
127141,158138,11330,-0.091,1.007,0.252,0.915,2.195,0.061,568.743
127141,158183,11556,-0.09,1.014,0.248,0.732,1.341,0.183,568.749
127127,158138,11330,-0.09,1.014,0.248,0.732,1.341,0.183,568.753
127127,158180,11552,-0.088,1.011,0.253,0.366,0.549,0.244,568.759
127127,158138,11330,-0.088,1.011,0.253,0.366,0.549,0.244,568.762
127127,158158,11544,-0.084,1.009,0.256,-0.366,0.183,0.366,568.769
127127,158138,11330,-0.084,1.009,0.256,-0.366,0.183,0.366,568.772
127127,158183,11551,-0.081,1.012,0.249,-0.976,0.061,0.427,568.779
127115,158138,11330,-0.081,1.012,0.249,-0.976,0.061,0.427,568.782
127115,158187,11554,-0.083,1.012,0.251,-0.976,0.061,0.427,568.788
127129,158138,11330,-0.081,1.008,0.247,-0.427,0,0.244,568.792
127129,158179,11544,-0.079,1.009,0.247,-0.427,0,0.244,568.798
127128,158138,11330,-0.085,1.014,0.253,-0.61,-0.061,0.305,568.802
127128,158190,11555,-0.085,1.014,0.265,-0.61,-0.061,0.305,568.808
127123,158138,11330,-0.082,1.016,0.269,-0.549,-0.427,0.183,568.812
127123,158194,11527,-0.08,1.018,0.266,-0.549,-0.427,0.183,568.818
127110,158394,11330,-0.08,1.015,0.264,-0.488,-0.488,0,568.822
127110,158209,11530,-0.077,1.014,0.265,-0.488,-0.488,0,568.828
127142,158394,11330,-0.079,1.017,0.262,-0.732,0.122,-0.061,568.832
127142,158223,11550,-0.084,1.016,0.262,-0.732,0.122,-0.061,568.838
127145,158394,11330,-0.082,1.012,0.257,-0.671,0.671,-0.122,568.842
127145,158236,11545,-0.083,1.01,0.254,-0.671,0.671,-0.122,568.848
127159,158394,11330,-0.086,1.016,0.251,-0.915,0.793,-0.061,568.852
127159,158231,11560,-0.086,1.016,0.25,-0.915,0.793,-0.061,568.858
127141,158394,11330,-0.088,1.013,0.254,-0.854,0.183,-0.061,568.861
127141,158235,11561,-0.084,1.011,0.254,-0.854,0.183,-0.061,568.868
127169,158394,11330,-0.086,1.01,0.253,-0.244,-0.305,-0.183,568.871
127169,158214,11556,-0.083,1.01,0.255,-0.244,-0.305,-0.183,568.878
127163,158394,11330,-0.084,1.014,0.256,-0.061,0.122,-0.061,568.881
127163,158221,11545,-0.086,1.016,0.255,-0.061,0.122,-0.061,568.887
127151,158394,11330,-0.085,1.015,0.258,-0.183,0.61,-0.061,568.891
127151,158222,11567,-0.084,1.011,0.259,-0.183,0.61,-0.061,568.897
127170,158394,11330,-0.086,1.006,0.255,-0.366,0.61,-0.122,568.901
127170,158236,11555,-0.089,1.002,0.261,-0.366,0.61,-0.122,568.907
127182,158394,11330,-0.088,1.003,0.264,-0.671,0.183,0.122,568.911
127182,158241,11538,-0.085,1.003,0.266,-0.671,0.183,0.122,568.917
127182,158394,11330,-0.083,1.004,0.264,-0.244,-0.305,0.122,568.921
127182,158255,11559,-0.081,1.009,0.267,-0.244,-0.305,0.122,568.927
127180,158394,11330,-0.082,1.011,0.272,-0.122,0.061,0.366,568.931
127180,158230,11555,-0.083,1.011,0.27,-0.122,0.061,0.366,568.937
127198,158394,11330,-0.086,1.014,0.266,0,0.488,0.488,568.941
127198,158218,11568,-0.086,1.01,0.263,0,0.488,0.488,568.947
127197,158394,11330,-0.081,1.01,0.255,0.183,0.671,0.305,568.951
127197,158215,11557,-0.084,1.014,0.251,0.183,0.671,0.305,568.957
127214,158138,11330,-0.084,1.016,0.253,-0.244,0.793,0.305,568.96
127214,158203,11566,-0.087,1.015,0.257,-0.244,0.793,0.305,568.967
127194,158138,11330,-0.089,1.011,0.257,-0.671,0.854,0.488,568.97
127194,158198,11561,-0.09,1.013,0.254,-0.671,0.854,0.488,568.977
127160,158394,11330,-0.089,1.015,0.251,-1.037,0.549,0.488,568.98
127160,158225,11561,-0.09,1.013,0.254,-1.037,0.549,0.488,568.986
127186,158394,11330,-0.085,1.005,0.257,-0.305,0.122,0.183,568.99
127186,158212,11562,-0.084,1.008,0.256,-0.305,0.122,0.183,568.996
127178,158394,11330,-0.082,1.012,0.253,0.427,0.183,0.244,569
127178,158211,11564,-0.084,1.016,0.257,0.427,0.183,0.244,569.006
127196,158394,11330,-0.084,1.013,0.265,0.732,0.427,0.305,569.01
127196,158211,11544,-0.081,1.012,0.268,0.732,0.427,0.305,569.016
127185,158138,11330,-0.081,1.013,0.265,0.549,0.427,0.183,569.02
127185,158176,11556,-0.082,1.014,0.26,0.549,0.427,0.183,569.026
127209,158138,11330,-0.083,1.014,0.256,-0.549,0.671,0.244,569.03
127209,158178,11551,-0.079,1.011,0.255,-0.549,0.671,0.244,569.036
127190,158138,11330,-0.082,1.011,0.26,-1.28,1.098,0.244,569.04
127190,158172,11563,-0.082,1.013,0.261,-1.28,1.098,0.244,569.046
127184,158138,11330,-0.085,1.015,0.261,-1.585,1.402,0.244,569.049
127184,158187,11554,-0.082,1.013,0.261,-1.585,1.402,0.244,569.056
127206,158138,11330,-0.086,1.012,0.259,-1.22,1.037,0.427,569.059
127206,158169,11570,-0.083,1.01,0.256,-1.22,1.037,0.427,569.066
127178,158138,11330,-0.083,1.007,0.257,-0.671,0.549,0.61,569.069
127178,158176,11552,-0.08,1.007,0.265,-0.671,0.549,0.61,569.076
127205,158138,11330,-0.082,1.012,0.264,-0.183,0.366,0.671,569.079
127205,158168,11565,-0.082,1.017,0.258,-0.183,0.366,0.671,569.085
127206,158138,11330,-0.083,1.018,0.255,0.488,0.671,0.549,569.089
127206,158169,11562,-0.083,1.015,0.255,0.488,0.671,0.549,569.095
127212,158138,11330,-0.088,1.015,0.254,1.28,0.915,0.244,569.099
127212,158161,11574,-0.089,1.011,0.251,1.28,0.915,0.244,569.105
127213,158138,11330,-0.09,1.012,0.25,1.159,0.671,0.122,569.109
127213,158158,11542,-0.09,1.014,0.247,1.159,0.671,0.122,569.115
127235,158138,11330,-0.089,1.014,0.249,0.732,0.061,0.122,569.119
127235,158137,11562,-0.09,1.016,0.257,0.732,0.061,0.122,569.125
127218,158138,11330,-0.086,1.016,0.268,0.305,-0.427,0.366,569.129
127218,158131,11567,-0.082,1.015,0.267,0.305,-0.427,0.366,569.135
127219,158138,11330,-0.082,1.014,0.269,-0.061,-0.61,0.305,569.139
127219,158108,11557,-0.08,1.012,0.27,-0.061,-0.61,0.305,569.145
127226,158138,11330,-0.079,1.009,0.269,-0.366,-0.122,0.183,569.148
127226,158120,11564,-0.083,1.004,0.266,-0.366,-0.122,0.183,569.155
127203,158138,11330,-0.081,1.003,0.259,-0.488,0.549,0.244,569.158
127203,158112,11576,-0.085,1.004,0.256,-0.488,0.549,0.244,569.165
127216,158138,11330,-0.085,1.006,0.259,0.183,0.793,0.305,569.168
127216,158123,11568,-0.084,1.008,0.262,0.183,0.793,0.305,569.174
127223,158138,11330,-0.085,1.011,0.261,0.915,0.488,0.305,569.178
127223,158094,11578,-0.085,1.013,0.265,0.915,0.488,0.305,569.184
127206,158138,11330,-0.082,1.015,0.263,0.549,0.122,0.366,569.188
127206,158092,11578,-0.081,1.011,0.261,0.549,0.122,0.366,569.194
127224,158138,11330,-0.082,1.012,0.265,0.244,0.122,0.183,569.198
127224,158100,11569,-0.083,1.005,0.257,0.244,0.122,0.183,569.204
127222,158138,11330,-0.087,1.005,0.252,-0.122,0.549,0.122,569.208
127222,158103,11548,-0.09,1.009,0.25,-0.122,0.549,0.122,569.214
127211,158138,11330,-0.089,1.013,0.25,0.061,0.854,0.244,569.218
127211,158085,11579,-0.084,1.015,0.251,0.061,0.854,0.244,569.224
127203,158138,11330,-0.084,1.015,0.251,0.061,0.854,0.244,569.228
127203,158085,11566,-0.085,1.012,0.257,0.732,0.427,0.427,569.234
127204,158138,11330,-0.085,1.012,0.257,0.732,0.427,0.427,569.238
127204,158071,11562,-0.084,1.018,0.26,0.671,-0.183,0.427,569.244
127207,158138,11330,-0.084,1.018,0.26,0.671,-0.183,0.427,569.247
127207,158050,11578,-0.081,1.011,0.257,-0.122,-0.061,0.427,569.254
127201,158138,11330,-0.081,1.011,0.257,-0.122,-0.061,0.427,569.257
127201,158065,11554,-0.084,1.005,0.256,-0.122,0.427,0.549,569.264
127197,158138,11330,-0.084,1.005,0.256,-0.122,0.427,0.549,569.267
127197,158041,11561,-0.085,1.018,0.253,-0.305,0.732,0.549,569.273
127213,158138,11330,-0.085,1.018,0.253,-0.305,0.732,0.549,569.277
127213,158030,11573,-0.084,1.018,0.257,-0.183,0.61,0.549,569.283
127195,158138,11330,-0.084,1.018,0.257,-0.183,0.61,0.549,569.287
127195,158033,11573,-0.087,1.012,0.266,0.183,0.244,0.488,569.293
127203,158138,11330,-0.087,1.012,0.266,0.183,0.244,0.488,569.297
127203,158037,11552,-0.082,1.013,0.26,-0.122,0,0.427,569.303
127195,158138,11330,-0.082,1.013,0.26,-0.122,0,0.427,569.307
127195,158014,11571,-0.085,1.007,0.263,-0.244,0.244,0.305,569.313
127201,158138,11330,-0.085,1.007,0.263,-0.244,0.244,0.305,569.317
127201,157987,11569,-0.085,1.012,0.255,0,0.61,0.061,569.323
127192,158138,11330,-0.085,1.012,0.255,0,0.61,0.061,569.327
127192,158012,11568,-0.084,1.019,0.249,0,0.793,0.122,569.333
127158,158138,11330,-0.084,1.019,0.249,0,0.793,0.122,569.337
127158,158021,11554,-0.091,1.016,0.261,-0.244,0.61,0.183,569.343
127179,158138,11330,-0.091,1.016,0.261,-0.244,0.61,0.183,569.346
127179,158019,11567,-0.08,1.01,0.268,-0.549,0.061,0.305,569.353
127168,158138,11330,-0.08,1.01,0.268,-0.549,0.061,0.305,569.356
127168,158021,11553,-0.078,1.006,0.258,-0.427,-0.061,0.366,569.363
127151,158138,11330,-0.078,1.006,0.258,-0.427,-0.061,0.366,569.366
127151,157991,11558,-0.078,1.006,0.248,-0.305,0.549,0.244,569.372
127142,158138,11330,-0.083,1.007,0.247,-0.305,0.549,0.244,569.376
127142,158001,11564,-0.088,1.006,0.249,0,0.854,0.427,569.382
127142,158138,11330,-0.089,1.005,0.248,0,0.854,0.427,569.386
127142,158010,11570,-0.088,1.012,0.254,0,0.183,0.732,569.392
127150,158138,11330,-0.086,1.017,0.26,0,0.183,0.732,569.396
127150,157983,11544,-0.085,1.014,0.262,-0.366,-0.671,0.793,569.402
127144,158138,11330,-0.086,1.01,0.264,-0.366,-0.671,0.793,569.406
127144,157991,11557,-0.081,1.013,0.264,-0.366,-0.793,0.61,569.412
127170,158138,11330,-0.081,1.014,0.263,-0.366,-0.793,0.61,569.416
127170,158026,11561,-0.082,1.013,0.263,-0.427,-0.183,0.427,569.422
127134,158138,11330,-0.087,1.013,0.266,-0.427,-0.183,0.427,569.426
127134,158020,11556,-0.087,1.013,0.268,-0.366,0.427,0.427,569.432
127157,158138,11330,-0.087,1.014,0.264,-0.366,0.427,0.427,569.436
127157,158003,11566,-0.085,1.015,0.26,-0.122,0.549,0.244,569.442
127142,158138,11330,-0.083,1.015,0.257,-0.122,0.549,0.244,569.445
127142,158018,11565,-0.083,1.017,0.259,0,0.488,0,569.452
127151,158138,11330,-0.082,1.017,0.264,0,0.488,0,569.455
127151,158011,11555,-0.082,1.013,0.262,-0.122,0.244,0,569.462
127140,158138,11330,-0.083,1.01,0.254,-0.122,0.244,0,569.465
127140,157991,11563,-0.081,1.012,0.252,-0.671,0.549,0,569.471
127137,158138,11330,-0.084,1.013,0.249,-0.671,0.549,0,569.475
127137,158010,11566,-0.084,1.013,0.246,-0.671,0.915,0.061,569.481
127149,158138,11330,-0.084,1.013,0.242,-0.671,0.915,0.061,569.485
127149,157997,11557,-0.088,1.011,0.245,-0.305,0.732,0.244,569.491
127151,158138,11330,-0.089,1.009,0.249,-0.305,0.732,0.244,569.495
127151,157968,11562,-0.09,1.006,0.256,-0.122,0.183,0.427,569.501
127152,158138,11330,-0.088,1.008,0.261,-0.122,0.183,0.427,569.505
127152,157984,11559,-0.086,1.009,0.26,-0.122,-0.244,0.488,569.511
127161,158138,11330,-0.082,1.01,0.257,-0.122,-0.244,0.488,569.515
127161,157956,11552,-0.082,1.012,0.26,0.183,-0.061,0.488,569.521
127131,158138,11330,-0.085,1.013,0.267,0.183,-0.061,0.488,569.525
127131,157974,11552,-0.086,1.011,0.272,0.427,-0.061,0.427,569.531
127129,158138,11330,-0.085,1.011,0.266,0.427,-0.061,0.427,569.535
127129,157983,11556,-0.083,1.014,0.265,0.122,0.122,0.488,569.541
127140,158138,11330,-0.087,1.011,0.26,0.122,0.122,0.488,569.544
127140,157960,11572,-0.086,1.009,0.264,-0.427,0.61,0.366,569.551
127124,157882,11330,-0.081,1.009,0.265,-0.427,0.61,0.366,569.554
127124,157933,11555,-0.08,1.006,0.261,-0.305,0.244,0.305,569.561
127136,157882,11330,-0.083,1.007,0.26,-0.305,0.244,0.305,569.564
127136,157924,11561,-0.079,1.009,0.256,-0.305,0.122,0.244,569.57
127125,158138,11330,-0.076,1.015,0.249,-0.305,0.122,0.244,569.574
127125,157962,11560,-0.08,1.017,0.249,-0.427,0.61,0.305,569.58
127148,157882,11330,-0.08,1.016,0.249,-0.427,0.61,0.305,569.584
127148,157917,11534,-0.083,1.014,0.258,-0.366,0.549,0.366,569.59
127141,157882,11330,-0.084,1.017,0.264,-0.366,0.549,0.366,569.594
127141,157930,11553,-0.081,1.02,0.263,-0.488,0.122,0.488,569.6
127162,157882,11330,-0.08,1.015,0.261,-0.488,0.122,0.488,569.604
127162,157916,11570,-0.076,1.011,0.258,-0.671,0.122,0.183,569.61
127152,157882,11330,-0.08,1.011,0.255,-0.671,0.122,0.183,569.614
127152,157913,11574,-0.086,1.011,0.261,-0.305,0.671,0,569.62
127137,157882,11330,-0.087,1.01,0.255,-0.305,0.671,0,569.624
127137,157933,11564,-0.087,1.007,0.263,0.488,1.037,0.122,569.63
127137,158138,11330,-0.089,1.009,0.267,0.488,1.037,0.122,569.634
127137,157959,11548,-0.085,1.012,0.261,0.549,0.793,0.244,569.64
127162,157882,11330,-0.084,1.014,0.256,0.549,0.793,0.244,569.643
127162,157934,11557,-0.088,1.018,0.25,0.183,0.793,0.244,569.65
127156,157882,11330,-0.088,1.015,0.254,0.183,0.793,0.244,569.653
127156,157941,11547,-0.085,1.016,0.259,-0.244,1.037,0.244,569.66
127162,157882,11330,-0.084,1.018,0.256,-0.244,1.037,0.244,569.663
127162,157923,11554,-0.085,1.015,0.249,-0.732,0.915,0.366,569.669
127176,157882,11330,-0.084,1.008,0.249,-0.732,0.915,0.366,569.673
127176,157906,11550,-0.087,1.004,0.25,-0.427,0.793,0.183,569.679
127184,157882,11330,-0.087,1.008,0.246,-0.427,0.793,0.183,569.683
127184,157899,11578,-0.089,1.012,0.247,-0.244,0.854,0.366,569.689
127177,157882,11330,-0.089,1.016,0.25,-0.244,0.854,0.366,569.693
127177,157918,11561,-0.087,1.016,0.26,-0.122,0.549,0.366,569.699
127166,157882,11330,-0.087,1.019,0.266,-0.122,0.549,0.366,569.703
127166,157898,11563,-0.084,1.019,0.271,-0.305,-0.305,0.244,569.709
127167,157882,11330,-0.082,1.018,0.267,-0.305,-0.305,0.244,569.713
127167,157892,11582,-0.082,1.017,0.261,-1.22,-0.366,0.183,569.719
127167,157882,11330,-0.083,1.008,0.257,-1.22,-0.366,0.183,569.723
127167,157902,11568,-0.085,1.001,0.255,-1.524,0.488,0,569.729
127158,157882,11330,-0.088,1,0.258,-1.524,0.488,0,569.733
127158,157900,11558,-0.09,1.007,0.256,-1.037,0.793,0.061,569.739
127165,157882,11330,-0.09,1.01,0.255,-1.037,0.793,0.061,569.742
127165,157893,11573,-0.088,1.009,0.257,-0.366,0.305,0.183,569.749
127157,157882,11330,-0.084,1.007,0.259,-0.366,0.305,0.183,569.752
127157,157886,11568,-0.083,1.009,0.262,0.671,0,0.244,569.758
127150,157882,11330,-0.086,1.012,0.261,0.671,0,0.244,569.762
127150,157887,11579,-0.085,1.013,0.26,0,0.366,0.427,569.768
127160,157882,11330,-0.084,1.01,0.264,0,0.366,0.427,569.772
127160,157886,11573,-0.083,1.009,0.267,-0.244,0.671,0.488,569.778
127171,157882,11330,-0.087,1.008,0.26,-0.244,0.671,0.488,569.782
127171,157880,11575,-0.086,1.014,0.255,-0.671,0.732,0.549,569.788
127151,157882,11330,-0.084,1.019,0.257,-0.671,0.732,0.549,569.792
127151,157869,11564,-0.084,1.019,0.26,-1.28,0.549,0.671,569.798
127171,157882,11330,-0.077,1.009,0.261,-1.28,0.549,0.671,569.802
127171,157891,11573,-0.079,1.008,0.258,-1.159,0.244,0.366,569.808
127174,157882,11330,-0.079,1.008,0.258,-1.159,0.244,0.366,569.812
127174,157887,11570,-0.083,1.016,0.258,-0.732,0.427,0.366,569.818
127167,157882,11330,-0.083,1.016,0.258,-0.732,0.427,0.366,569.822
127167,157893,11557,-0.078,1.005,0.263,0.915,0.732,0.122,569.828
127176,157882,11330,-0.078,1.005,0.263,0.915,0.732,0.122,569.832
127176,157923,11551,-0.083,1.017,0.252,1.159,0.976,0,569.838
127184,157882,11330,-0.083,1.017,0.252,1.159,0.976,0,569.841
127184,157935,11566,-0.083,1.021,0.256,0.671,1.098,0.244,569.848
127168,157882,11330,-0.083,1.021,0.256,0.671,1.098,0.244,569.851
127168,157920,11560,-0.084,1.005,0.263,0.244,0.61,0.061,569.857
127207,157882,11330,-0.084,1.005,0.263,0.244,0.61,0.061,569.861
127207,157922,11565,-0.083,1.002,0.266,-0.122,0.122,0.244,569.867
127191,157882,11330,-0.083,1.002,0.266,-0.122,0.122,0.244,569.871
127191,157903,11588,-0.078,1.009,0.264,-0.183,0.61,0.427,569.877
127181,157882,11330,-0.078,1.009,0.264,-0.183,0.61,0.427,569.881
127181,157932,11568,-0.083,1.011,0.265,-0.244,1.22,0.732,569.887
127179,157882,11330,-0.083,1.011,0.265,-0.244,1.22,0.732,569.891
127179,157936,11558,-0.088,1.01,0.238,-0.61,1.402,0.854,569.897
127173,157882,11330,-0.088,1.01,0.238,-0.61,1.402,0.854,569.901
127173,157947,11552,-0.094,1.016,0.244,-0.488,1.22,0.671,569.907
127192,158138,11330,-0.094,1.016,0.244,-0.488,1.22,0.671,569.911
127192,157960,11560,-0.091,1.022,0.261,-0.305,0.244,0.854,569.917
127168,157882,11330,-0.091,1.022,0.261,-0.305,0.244,0.854,569.921
127168,157933,11573,-0.085,1.019,0.252,-0.854,-0.244,0.732,569.927
127194,157882,11330,-0.085,1.019,0.252,-0.854,-0.244,0.732,569.93
127194,157944,11566,-0.084,1.014,0.252,-0.732,0.183,0.183,569.937
127181,158138,11330,-0.084,1.014,0.252,-0.732,0.183,0.183,569.94
127181,157957,11571,-0.088,1.011,0.247,-0.732,0.183,0.183,569.947
127187,157882,11330,-0.09,1.012,0.245,-0.488,0.854,-0.122,569.95
127187,157950,11577,-0.089,1.012,0.245,-0.488,0.854,-0.122,569.956
127177,157882,11330,-0.089,1.018,0.249,-0.366,0.488,-0.183,569.96
127177,157933,11561,-0.091,1.021,0.253,-0.366,0.488,-0.183,569.966
127185,157882,11330,-0.085,1.02,0.267,-0.488,-0.61,-0.183,569.97
127185,157946,11562,-0.081,1.012,0.275,-0.488,-0.61,-0.183,569.976
127175,157882,11330,-0.076,1.005,0.267,-0.305,-1.098,-0.244,569.98
127175,157919,11560,-0.077,1.005,0.264,-0.305,-1.098,-0.244,569.986
127171,157882,11330,-0.08,1.006,0.262,-1.037,-0.244,-0.061,569.99
127171,157948,11583,-0.081,1.007,0.252,-1.037,-0.244,-0.061,569.996
127173,158138,11330,-0.085,1.009,0.253,-0.976,0.915,0.305,570
127173,157953,11577,-0.089,1.009,0.262,-0.976,0.915,0.305,570.006
127172,157882,11330,-0.084,1.013,0.263,-0.366,0.549,0.366,570.01
127172,157909,11570,-0.085,1.012,0.261,-0.366,0.549,0.366,570.016
127148,157882,11330,-0.08,1.01,0.261,-0.915,-0.305,0.488,570.02
127148,157926,11570,-0.081,1.012,0.256,-0.915,-0.305,0.488,570.026
127149,157882,11330,-0.079,1.013,0.256,-1.585,-0.244,0.61,570.03
127149,157941,11570,-0.08,1.012,0.259,-1.585,-0.244,0.61,570.036
127179,157882,11330,-0.085,1.014,0.258,-1.524,0.427,0.488,570.039
127179,157910,11572,-0.088,1.011,0.262,-1.524,0.427,0.488,570.046
127183,157882,11330,-0.086,1.012,0.261,-1.098,0.488,0.366,570.049
127183,157921,11578,-0.087,1.013,0.265,-1.098,0.488,0.366,570.055
127166,157882,11330,-0.088,1.011,0.269,-0.244,0.305,0.305,570.059
127166,157940,11568,-0.083,1.011,0.275,-0.244,0.305,0.305,570.065
127164,157882,11330,-0.083,1.012,0.269,0.732,0.366,0.183,570.069
127164,157922,11560,-0.083,1.012,0.265,0.732,0.366,0.183,570.075
127161,157882,11330,-0.085,1.015,0.26,0.732,1.098,0,570.079
127161,157936,11564,-0.088,1.015,0.261,0.732,1.098,0,570.085
127168,157882,11330,-0.088,1.012,0.261,0.488,1.524,-0.061,570.089
127168,157913,11571,-0.089,1.008,0.261,0.488,1.524,-0.061,570.095
127170,157882,11330,-0.09,1.004,0.262,0.427,1.28,-0.061,570.099
127170,157920,11553,-0.088,1.005,0.257,0.427,1.28,-0.061,570.105
127165,157882,11330,-0.084,1.005,0.258,0.122,1.037,0.183,570.109
127165,157928,11562,-0.085,1.008,0.255,0.122,1.037,0.183,570.115
127172,157882,11330,-0.087,1.006,0.254,-0.061,0.976,0.427,570.119
127172,157888,11575,-0.083,1.007,0.251,-0.061,0.976,0.427,570.125
127169,157882,11330,-0.084,1.006,0.25,0.183,0.854,0.732,570.128
127169,157879,11586,-0.083,1.007,0.25,0.183,0.854,0.732,570.135
127158,157882,11330,-0.086,1.013,0.251,0.061,0.732,0.915,570.138
127158,157874,11563,-0.087,1.018,0.255,0.061,0.732,0.915,570.145
127179,157882,11330,-0.087,1.017,0.26,-0.732,0.244,1.098,570.148
127179,157888,11554,-0.085,1.015,0.26,-0.732,0.244,1.098,570.154
127187,157882,11330,-0.079,1.018,0.253,-1.159,-0.061,1.037,570.158
127187,157882,11583,-0.08,1.021,0.251,-1.159,-0.061,1.037,570.164
127191,157882,11330,-0.083,1.019,0.254,-2.073,0.122,1.037,570.168
127191,157844,11564,-0.086,1.014,0.26,-2.073,0.122,1.037,570.174
127191,157882,11330,-0.087,1.011,0.259,-1.402,0.305,0.793,570.178
127191,157809,11571,-0.089,1.016,0.258,-1.402,0.305,0.793,570.184
127176,157882,11330,-0.087,1.018,0.261,-0.671,0.122,0.183,570.188
127176,157782,11573,-0.087,1.019,0.264,-0.671,0.122,0.183,570.194
127192,157882,11330,-0.083,1.018,0.267,0.244,-0.305,-0.183,570.198
127192,157783,11569,-0.082,1.019,0.27,0.244,-0.305,-0.183,570.204
127182,157882,11330,-0.084,1.016,0.259,0.671,0.061,-0.366,570.208
127182,157794,11567,-0.089,1.009,0.254,0.671,0.061,-0.366,570.214
127200,157882,11330,-0.09,1.007,0.25,0,0.854,-0.488,570.218
127200,157798,11582,-0.093,1.003,0.254,0,0.854,-0.488,570.224
127177,157882,11330,-0.091,1.003,0.262,-0.61,0.671,-0.183,570.227
127177,157760,11585,-0.088,1.006,0.267,-0.61,0.671,-0.183,570.234
127169,157882,11330,-0.083,1.016,0.27,-0.854,-0.183,0.122,570.237
127169,157751,11584,-0.077,1.018,0.263,-0.854,-0.183,0.122,570.244
127150,157882,11330,-0.075,1.01,0.264,-1.402,-0.366,0.305,570.247
127150,157766,11564,-0.074,0.999,0.263,-1.402,-0.366,0.305,570.253
127181,157882,11330,-0.078,0.995,0.264,-1.463,0.366,0.549,570.257
127181,157779,11571,-0.082,0.999,0.262,-1.463,0.366,0.549,570.263
127161,157882,11330,-0.085,1.001,0.27,-1.89,1.28,1.159,570.267
127161,157770,11580,-0.088,1.004,0.275,-1.89,1.28,1.159,570.273
127166,157882,11330,-0.089,1.011,0.269,-2.012,1.28,1.646,570.277
127166,157768,11582,-0.081,1.018,0.262,-2.012,1.28,1.646,570.283
127167,157882,11330,-0.077,1.025,0.255,-1.646,0.854,1.707,570.287
127167,157773,11581,-0.076,1.02,0.256,-1.646,0.854,1.707,570.293
127149,157882,11330,-0.08,1.009,0.259,-0.244,0.976,1.098,570.297
127149,157738,11560,-0.088,1.005,0.258,-0.244,0.976,1.098,570.303
127160,157882,11330,-0.091,1.012,0.256,0.122,1.463,0.732,570.307
127160,157736,11588,-0.094,1.019,0.254,0.122,1.463,0.732,570.313
127160,157882,11330,-0.096,1.02,0.256,0.366,1.524,0.671,570.317
127160,157736,11567,-0.09,1.019,0.259,0.366,1.524,0.671,570.323
127150,157882,11330,-0.089,1.016,0.257,1.402,0.61,0.122,570.326
127150,157745,11575,-0.086,1.017,0.253,1.402,0.61,0.122,570.333
127149,157882,11330,-0.091,1.018,0.252,-0.122,0.488,-0.061,570.336
127149,157750,11574,-0.094,1.02,0.249,-0.122,0.488,-0.061,570.343
127163,157882,11330,-0.09,1.017,0.252,-1.585,0.61,0.061,570.346
127163,157754,11574,-0.089,1.011,0.254,-1.585,0.61,0.061,570.352
127135,157882,11330,-0.088,1.009,0.258,-1.829,0,-0.122,570.356
127135,157749,11588,-0.085,1.008,0.262,-1.829,0,-0.122,570.362
127142,157882,11330,-0.081,1.004,0.261,-1.098,-0.732,-0.122,570.366
127142,157759,11573,-0.078,1.005,0.262,-1.098,-0.732,-0.122,570.372
127159,157882,11330,-0.079,1.004,0.26,-0.305,-0.366,-0.122,570.376
127159,157739,11574,-0.079,1.006,0.26,-0.305,-0.366,-0.122,570.382
127157,157882,11330,-0.079,1.006,0.26,-0.305,-0.366,-0.122,570.386
127157,157762,11569,-0.082,1.015,0.261,0.183,0.549,0.061,570.392
127159,157882,11330,-0.082,1.015,0.261,0.183,0.549,0.061,570.396
127159,157773,11568,-0.083,1.012,0.269,-0.061,0.488,0.305,570.402
127127,157882,11330,-0.083,1.012,0.269,-0.061,0.488,0.305,570.406
127127,157775,11560,-0.075,1.012,0.263,-0.854,-0.183,0.488,570.412
127134,157882,11330,-0.075,1.012,0.263,-0.854,-0.183,0.488,570.416
127134,157775,11575,-0.08,1.011,0.267,-1.829,-0.244,0.732,570.422
127135,157882,11330,-0.08,1.011,0.267,-1.829,-0.244,0.732,570.425
127135,157786,11571,-0.081,1.009,0.259,-1.951,0.183,0.671,570.432
127151,157882,11330,-0.081,1.009,0.259,-1.951,0.183,0.671,570.435
127151,157779,11566,-0.092,1.008,0.254,-0.732,0.854,0.427,570.442
127147,157882,11330,-0.092,1.008,0.254,-0.732,0.854,0.427,570.445
127147,157775,11570,-0.091,1.012,0.249,0.488,1.28,0.366,570.451
127162,157882,11330,-0.091,1.012,0.249,0.488,1.28,0.366,570.455
127162,157799,11564,-0.09,1.021,0.257,1.28,1.098,0.366,570.461
127149,157882,11330,-0.09,1.021,0.257,1.28,1.098,0.366,570.465
127149,157791,11560,-0.092,1.02,0.269,0.671,0.549,0.549,570.471
127133,157882,11330,-0.092,1.02,0.269,0.671,0.549,0.549,570.475
127133,157793,11579,-0.088,1.009,0.271,-0.61,0,0.61,570.481
127162,157882,11330,-0.088,1.009,0.271,-0.61,0,0.61,570.485
127162,157815,11566,-0.08,1.005,0.265,-1.524,-0.061,0.244,570.491
127158,157882,11330,-0.08,1.005,0.265,-1.524,-0.061,0.244,570.495
127158,157795,11557,-0.082,1.006,0.264,-0.976,0.305,0.244,570.501
127177,157882,11330,-0.082,1.006,0.264,-0.976,0.305,0.244,570.505
127177,157773,11557,-0.081,1.014,0.268,-0.549,0.793,0.183,570.511
127153,157882,11330,-0.081,1.014,0.268,-0.549,0.793,0.183,570.515
127153,157811,11573,-0.085,1.009,0.263,-0.427,0.976,0.244,570.521
127182,157882,11330,-0.085,1.009,0.263,-0.427,0.976,0.244,570.524
127182,157791,11566,-0.083,1.006,0.256,-0.427,0.793,0.244,570.531
127153,157882,11330,-0.081,1.002,0.252,-0.427,0.793,0.244,570.534
127153,157801,11560,-0.085,0.999,0.252,-0.61,0.671,0.366,570.541
127168,157882,11330,-0.089,1.003,0.256,-0.61,0.671,0.366,570.544
127168,157778,11584,-0.087,1.008,0.249,-0.488,0.793,0.793,570.55
127165,157882,11330,-0.087,1.013,0.254,-0.488,0.793,0.793,570.554
127165,157782,11576,-0.087,1.013,0.254,-0.244,0.549,0.854,570.56
127152,157882,11330,-0.087,1.012,0.257,-0.244,0.549,0.854,570.564
127152,157774,11576,-0.09,1.013,0.26,-0.305,0.122,0.854,570.57
127143,157882,11330,-0.089,1.01,0.263,-0.305,0.122,0.854,570.574
127143,157769,11572,-0.085,1.012,0.267,-0.305,-0.122,0.854,570.58
127140,157882,11330,-0.083,1.014,0.266,-0.305,-0.122,0.854,570.584
127140,157749,11565,-0.083,1.019,0.263,-0.122,-0.183,0.671,570.59
127140,157882,11330,-0.079,1.017,0.262,-0.122,-0.183,0.671,570.594
127140,157773,11576,-0.08,1.014,0.262,0.122,0.244,0.488,570.6
127134,157882,11330,-0.082,1.011,0.264,0.122,0.244,0.488,570.604
127134,157795,11576,-0.084,1.011,0.268,0,0.854,0.427,570.61
127129,157882,11330,-0.084,1.017,0.264,0,0.854,0.427,570.614
127129,157803,11577,-0.084,1.016,0.259,-0.427,0.793,0.305,570.62
127129,157882,11330,-0.082,1.015,0.258,-0.427,0.793,0.305,570.623
127129,157788,11564,-0.081,1.012,0.261,-0.183,0.366,-0.061,570.63
127125,157882,11330,-0.081,1.012,0.261,-0.183,0.366,-0.061,570.633
127125,157791,11566,-0.081,1.01,0.258,0.366,0.366,-0.305,570.64
127141,157882,11330,-0.084,1.006,0.255,0.366,0.366,-0.305,570.643
127141,157787,11564,-0.086,1.007,0.257,0.488,0.854,-0.305,570.649
127136,157882,11330,-0.088,1.01,0.253,0.488,0.854,-0.305,570.653
127136,157789,11566,-0.086,1.009,0.255,0.61,0.854,-0.122,570.659
127129,157882,11330,-0.085,1.006,0.261,0.61,0.854,-0.122,570.663
127129,157754,11571,-0.086,1.008,0.263,0.61,0.366,0.244,570.669
127128,157882,11330,-0.088,1.009,0.271,0.61,0.366,0.244,570.673
127128,157776,11574,-0.084,1.012,0.269,-0.305,-0.061,0.549,570.679
127145,157882,11330,-0.083,1.008,0.27,-0.305,-0.061,0.549,570.683
127145,157774,11575,-0.083,1.006,0.264,-0.671,-0.122,0.549,570.689
127136,157882,11330,-0.08,1.01,0.253,-0.671,-0.122,0.549,570.693
127136,157775,11572,-0.083,1.015,0.263,-0.244,0.427,0.366,570.699
127142,157882,11330,-0.088,1.013,0.261,-0.244,0.427,0.366,570.703
127142,157784,11572,-0.087,1.01,0.262,0.122,0.915,0.488,570.709
127140,157882,11330,-0.091,1.008,0.263,0.122,0.915,0.488,570.713
127140,157783,11568,-0.086,1.012,0.26,-0.061,0.427,0.488,570.719
127149,157882,11330,-0.086,1.012,0.264,-0.061,0.427,0.488,570.722
127149,157770,11576,-0.084,1.013,0.259,-0.122,0,0.366,570.729
127110,157882,11330,-0.081,1.015,0.254,-0.122,0,0.366,570.732
127110,157744,11570,-0.079,1.016,0.257,-0.122,0.244,0.488,570.739
127117,157882,11330,-0.083,1.022,0.26,-0.122,0.244,0.488,570.742
127117,157752,11559,-0.085,1.023,0.263,-0.671,0.61,0.488,570.748
127124,157882,11330,-0.085,1.017,0.259,-0.671,0.61,0.488,570.752
127124,157744,11563,-0.086,1.014,0.263,-0.854,0.549,0.183,570.758
127147,157882,11330,-0.083,1.008,0.26,-0.854,0.549,0.183,570.762
127147,157750,11560,-0.086,1.005,0.262,-0.61,0.488,-0.122,570.768
127124,157882,11330,-0.082,1.005,0.262,-0.61,0.488,-0.122,570.772
127124,157767,11563,-0.081,1.008,0.261,0.061,0.549,-0.061,570.778
127150,157882,11330,-0.084,1.007,0.256,0.061,0.549,-0.061,570.782
127150,157740,11577,-0.083,1.007,0.254,0.61,0.854,-0.061,570.788
127126,157882,11330,-0.084,1.011,0.262,0.61,0.854,-0.061,570.792
127126,157747,11562,-0.086,1.015,0.259,0.854,1.037,0.061,570.798
127113,157882,11330,-0.085,1.019,0.259,0.854,1.037,0.061,570.802
127113,157761,11586,-0.081,1.012,0.259,0.488,0.671,0.183,570.808
127112,157882,11330,-0.086,1.008,0.262,0.488,0.671,0.183,570.812
127112,157731,11567,-0.086,1.003,0.263,-0.061,0.427,0.183,570.818
127115,157882,11330,-0.086,1.001,0.267,-0.061,0.427,0.183,570.821
127115,157755,11571,-0.083,0.994,0.269,-0.427,0.366,0.488,570.828
127110,157882,11330,-0.085,1.002,0.255,-0.427,0.366,0.488,570.831
127110,157753,11571,-0.089,1.01,0.255,-0.61,0.427,0.793,570.837
127123,157882,11330,-0.087,1.011,0.259,-0.61,0.427,0.793,570.841
127123,157739,11578,-0.089,1.021,0.257,0.122,0.549,0.732,570.847
127136,157882,11330,-0.088,1.026,0.262,0.122,0.549,0.732,570.851
127136,157726,11571,-0.088,1.025,0.266,0.122,0.488,0.549,570.857
127115,157882,11330,-0.087,1.017,0.267,0.122,0.488,0.549,570.861
127115,157750,11568,-0.087,1.011,0.267,0.366,0.488,0.305,570.867
127101,157882,11330,-0.084,1.01,0.261,0.366,0.488,0.305,570.871
127101,157767,11572,-0.082,1.011,0.259,0,1.037,0.183,570.877
127118,157882,11330,-0.084,1.011,0.259,0,1.037,0.183,570.881
127118,157739,11572,-0.082,1.015,0.257,0.366,1.28,0.366,570.887
127105,157882,11330,-0.081,1.014,0.255,0.366,1.28,0.366,570.891
127105,157738,11558,-0.08,1.013,0.256,1.159,1.037,0.122,570.897
127118,157882,11330,-0.083,1.004,0.255,1.159,1.037,0.122,570.901
127118,157729,11572,-0.086,1.001,0.254,0.732,1.159,0.061,570.907
127101,157882,11330,-0.087,1.007,0.251,0.732,1.159,0.061,570.911
127101,157756,11568,-0.091,1.012,0.25,-0.793,1.22,0.549,570.917
127110,157882,11330,-0.091,1.022,0.254,-0.793,1.22,0.549,570.92
127110,157737,11566,-0.087,1.022,0.258,-1.524,0.244,0.793,570.927
127111,157882,11330,-0.086,1.016,0.263,-1.524,0.244,0.793,570.93
127111,157737,11580,-0.084,1.01,0.261,-1.768,-0.671,0.61,570.937
127097,157882,11330,-0.083,1.006,0.258,-1.768,-0.671,0.61,570.94
127097,157741,11566,-0.083,1.008,0.26,-1.768,-0.427,0.427,570.946
127115,157882,11330,-0.084,1.002,0.255,-1.768,-0.427,0.427,570.95
127115,157744,11563,-0.085,0.989,0.263,-0.122,0.183,0.244,570.956
127100,157882,11330,-0.086,0.993,0.267,-0.122,0.183,0.244,570.96
127100,157753,11548,-0.09,1.007,0.267,0.793,0.671,0.671,570.966
127092,157882,11330,-0.09,1.007,0.267,0.793,0.671,0.671,570.97
127092,157777,11567,-0.089,1.029,0.267,0.061,0.488,1.159,570.976
127108,157882,11330,-0.089,1.029,0.267,0.061,0.488,1.159,570.98
127108,157751,11568,-0.082,1.016,0.268,0.061,-0.183,0.488,570.986
127109,157882,11330,-0.082,1.016,0.268,0.061,-0.183,0.488,570.99
127109,157759,11568,-0.084,1.005,0.256,-1.159,0.305,0.244,570.996
127097,157882,11330,-0.084,1.005,0.256,-1.159,0.305,0.244,571
127097,157773,11563,-0.084,1.005,0.262,-1.037,0.732,0.366,571.006
127110,157882,11330,-0.084,1.005,0.262,-1.037,0.732,0.366,571.01
127110,157787,11562,-0.078,1.007,0.263,0.427,0.427,0.122,571.016
127093,157882,11330,-0.078,1.007,0.263,0.427,0.427,0.122,571.019
127093,157795,11562,-0.082,1.019,0.264,0.671,0.366,0.122,571.026
127081,157882,11330,-0.082,1.019,0.264,0.671,0.366,0.122,571.029
127081,157785,11567,-0.081,1.027,0.25,0.183,0.854,0.122,571.035
127092,157882,11330,-0.081,1.027,0.25,0.183,0.854,0.122,571.039
127092,157780,11569,-0.084,1.027,0.247,-0.976,1.037,-0.061,571.045
127092,157882,11330,-0.084,1.027,0.247,-0.976,1.037,-0.061,571.049
127092,157783,11549,-0.088,0.986,0.257,-0.671,0.366,0.061,571.055
127110,157882,11330,-0.088,0.986,0.257,-0.671,0.366,0.061,571.059
127110,157786,11556,-0.092,0.998,0.254,-1.341,0,0.427,571.065
127098,157882,11330,-0.092,0.998,0.254,-1.341,0,0.427,571.069
127098,157753,11570,-0.09,1.016,0.265,-0.732,-0.061,0.671,571.075
127088,157882,11330,-0.09,1.016,0.265,-0.732,-0.061,0.671,571.079
127088,157752,11568,-0.083,1.023,0.269,0.61,-0.305,0.366,571.085
127109,157882,11330,-0.083,1.023,0.269,0.61,-0.305,0.366,571.089
127109,157752,11560,-0.082,1.016,0.276,0.244,-0.122,0.305,571.095
127085,157882,11330,-0.082,1.016,0.276,0.244,-0.122,0.305,571.099
127085,157769,11572,-0.083,1.002,0.27,-0.122,0.366,0.244,571.105
127114,157882,11330,-0.083,1.002,0.27,-0.122,0.366,0.244,571.109
127114,157744,11583,-0.083,0.999,0.266,-0.122,0.366,0.244,571.115
127104,157882,11330,-0.081,1,0.267,0.366,0.915,0.061,571.118
127104,157745,11576,-0.085,1.009,0.266,0.366,0.915,0.061,571.125
127092,157882,11330,-0.084,1.019,0.264,0.793,1.098,0.122,571.128
127092,157782,11567,-0.082,1.018,0.258,0.793,1.098,0.122,571.134
127101,157882,11330,-0.08,1.021,0.251,0.427,0.915,0.061,571.138
127101,157756,11570,-0.08,1.022,0.252,0.427,0.915,0.061,571.144
127104,157882,11330,-0.083,1.022,0.251,-0.671,0.671,-0.122,571.148
127104,157787,11570,-0.088,1.019,0.247,-0.671,0.671,-0.122,571.154
127109,157882,11330,-0.087,1.01,0.243,-1.646,0.549,0,571.158
127109,157758,11562,-0.089,1.007,0.242,-1.646,0.549,0,571.164
127107,157882,11330,-0.089,1.011,0.246,-1.951,0.244,0,571.168
127107,157757,11575,-0.09,1.015,0.251,-1.951,0.244,0,571.174
127109,157882,11330,-0.088,1.014,0.255,-1.22,-0.305,0.061,571.178
127109,157744,11560,-0.085,1.02,0.262,-1.22,-0.305,0.061,571.184
127085,157882,11330,-0.083,1.022,0.262,-1.098,-0.61,-0.061,571.188
127085,157716,11581,-0.084,1.022,0.255,-1.098,-0.61,-0.061,571.194
127115,157882,11330,-0.086,1.018,0.257,-1.646,-0.244,0.061,571.198
127115,157709,11574,-0.088,1.011,0.264,-1.646,-0.244,0.061,571.204
127122,157882,11330,-0.091,1.007,0.273,-2.073,0.061,-0.183,571.208
127122,157732,11573,-0.087,1,0.278,-2.073,0.061,-0.183,571.214
127112,157882,11330,-0.084,1.012,0.274,-4.085,0.122,-0.122,571.217
127112,157768,11585,-0.085,1.021,0.265,-4.085,0.122,-0.122,571.224
127122,157882,11330,-0.086,1.021,0.268,-7.683,0.549,0.366,571.227
127122,157742,11576,-0.084,1.02,0.273,-7.683,0.549,0.366,571.233
127114,157882,11330,-0.089,1.018,0.273,-10.793,0.61,0.793,571.237
127114,157721,11576,-0.091,1.006,0.262,-10.793,0.61,0.793,571.243
127116,157882,11330,-0.091,0.996,0.25,-13.171,0.061,0.793,571.247
127116,157725,11585,-0.089,0.988,0.246,-13.171,0.061,0.793,571.253
127106,157882,11330,-0.089,0.985,0.251,-11.159,-0.793,0.732,571.257
127106,157714,11568,-0.086,0.987,0.26,-11.159,-0.793,0.732,571.263
127113,157882,11330,-0.086,0.991,0.262,-5.915,-1.463,0.549,571.267
127113,157726,11573,-0.083,0.999,0.265,-5.915,-1.463,0.549,571.273
127114,157882,11330,-0.081,1.007,0.27,-0.854,-1.159,0.366,571.277
127114,157698,11564,-0.085,1.014,0.267,-0.854,-1.159,0.366,571.283
127099,157882,11330,-0.085,1.021,0.262,1.402,-0.366,0.183,571.287
127099,157722,11569,-0.087,1.019,0.266,1.402,-0.366,0.183,571.293
127100,157882,11330,-0.088,1.02,0.272,1.524,-0.183,0.061,571.297
127100,157719,11568,-0.088,1.021,0.273,1.524,-0.183,0.061,571.303
127121,157882,11330,-0.088,1.015,0.277,-0.305,-0.549,0.061,571.307
127121,157716,11578,-0.089,1.013,0.28,-0.305,-0.549,0.061,571.313
127111,157882,11330,-0.086,1.013,0.279,-2.195,-0.976,0.183,571.316
127111,157721,11574,-0.084,1.01,0.276,-2.195,-0.976,0.183,571.323
127089,157882,11330,-0.079,1.002,0.282,-2.195,-0.732,0.061,571.326
127089,157711,11580,-0.08,0.995,0.278,-2.195,-0.732,0.061,571.332
127088,157882,11330,-0.081,0.993,0.278,-1.22,0,0.061,571.336
127088,157699,11574,-0.086,0.997,0.28,-1.22,0,0.061,571.342
127084,157882,11330,-0.087,1.001,0.271,-0.305,0.732,0.183,571.346
127084,157731,11574,-0.087,1.004,0.275,-0.305,0.732,0.183,571.352
127101,157882,11330,-0.087,1.006,0.282,1.037,0.854,0.305,571.356
127101,157745,11554,-0.081,1.014,0.279,1.037,0.854,0.305,571.362
127092,157882,11330,-0.081,1.019,0.274,1.098,0.549,0.366,571.366
127092,157736,11573,-0.08,1.015,0.276,1.098,0.549,0.366,571.372
127076,157882,11330,-0.076,1.005,0.271,0.183,0.549,0.427,571.376
127076,157751,11566,-0.078,1.001,0.267,0.183,0.549,0.427,571.382
127082,157882,11330,-0.082,1.001,0.264,-0.488,1.037,0.488,571.386
127082,157741,11569,-0.084,1.008,0.263,-0.488,1.037,0.488,571.392
127075,157882,11330,-0.085,1.008,0.267,-0.976,1.159,0.854,571.396
127075,157718,11572,-0.086,1.012,0.269,-0.976,1.159,0.854,571.402
127095,157882,11330,-0.082,1.012,0.264,-0.122,0.549,0.671,571.406
127095,157732,11558,-0.082,1.013,0.261,-0.122,0.549,0.671,571.412
127063,157882,11330,-0.082,1.016,0.268,0.488,0.183,0.427,571.415
127063,157725,11561,-0.083,1.016,0.268,0.488,0.183,0.427,571.422
127062,157882,11330,-0.088,1.015,0.262,0.183,0.671,0.488,571.425
127062,157728,11558,-0.088,1.013,0.266,0.183,0.671,0.488,571.432
127076,157882,11330,-0.087,1.009,0.268,0.244,0.854,0.244,571.435
127076,157722,11564,-0.092,1.01,0.27,0.244,0.854,0.244,571.441
127076,157882,11330,-0.091,1.01,0.274,0.366,0.61,0.183,571.445
127076,157731,11558,-0.088,1.012,0.28,0.366,0.61,0.183,571.451
127083,157882,11330,-0.085,1.008,0.277,0.305,0.305,0.244,571.455
127083,157763,11564,-0.083,1.006,0.277,0.305,0.305,0.244,571.461
127084,157882,11330,-0.084,1.007,0.274,0.366,0.305,-0.061,571.465
127084,157776,11574,-0.083,1.007,0.273,0.366,0.305,-0.061,571.471
127090,157882,11330,-0.083,1.007,0.277,0.793,0.732,-0.183,571.475
127090,157777,11564,-0.082,1.012,0.272,0.793,0.732,-0.183,571.481
127101,157882,11330,-0.084,1.01,0.266,0.61,0.915,0,571.485
127101,157776,11557,-0.085,1.006,0.266,0.61,0.915,0,571.491
127104,157882,11330,-0.084,1.004,0.265,-0.122,0.915,0.122,571.495
127104,157809,11581,-0.088,1.004,0.261,-0.122,0.915,0.122,571.501
127101,157882,11330,-0.091,1.007,0.268,-1.22,0.61,0.366,571.505
127101,157811,11574,-0.09,1.009,0.267,-1.22,0.61,0.366,571.511
127109,157882,11330,-0.086,1.01,0.274,-1.707,-0.183,0.427,571.514
127109,157819,11565,-0.084,1.012,0.278,-1.707,-0.183,0.427,571.521
127082,157882,11330,-0.083,1.012,0.273,-1.524,-0.61,0.427,571.524
127082,157802,11577,-0.084,1.01,0.268,-1.524,-0.61,0.427,571.53
127086,157882,11330,-0.088,1.007,0.266,-1.463,-0.122,0.549,571.534
127086,157805,11563,-0.087,1.003,0.267,-1.463,-0.122,0.549,571.54
127100,157882,11330,-0.087,1,0.268,-0.976,0.366,0.488,571.544
127100,157806,11572,-0.091,1.001,0.269,-0.976,0.366,0.488,571.55
127065,157882,11330,-0.091,1.001,0.269,-0.976,0.366,0.488,571.554
127065,157837,11566,-0.088,1.008,0.27,-0.061,0.488,0.61,571.56
127082,157882,11330,-0.088,1.008,0.27,-0.061,0.488,0.61,571.564
127082,157831,11580,-0.086,1.012,0.272,0.427,0.183,0.61,571.57
127078,157882,11330,-0.086,1.012,0.272,0.427,0.183,0.61,571.574
127078,157841,11556,-0.083,1.02,0.27,0.183,0.061,0.61,571.58
127073,157882,11330,-0.083,1.02,0.27,0.183,0.061,0.61,571.584
127073,157822,11552,-0.079,1.01,0.276,-0.488,0.122,0.549,571.59
127091,157882,11330,-0.079,1.01,0.276,-0.488,0.122,0.549,571.594
127091,157836,11579,-0.082,1,0.272,-0.305,0.244,0.244,571.6
127077,157882,11330,-0.082,1,0.272,-0.305,0.244,0.244,571.603
127077,157849,11563,-0.086,1.01,0.273,-0.183,0.61,0.244,571.61
127097,157882,11330,-0.086,1.01,0.273,-0.183,0.61,0.244,571.613
127097,157853,11550,-0.085,1.017,0.267,0.183,1.037,0.366,571.62
127111,157882,11330,-0.085,1.017,0.267,0.183,1.037,0.366,571.623
127111,157831,11571,-0.084,1.009,0.267,0.549,0.793,0.183,571.629
127086,157882,11330,-0.084,1.009,0.267,0.549,0.793,0.183,571.633
127086,157843,11568,-0.09,1.009,0.262,-0.183,0.671,0.244,571.639
127083,157882,11330,-0.09,1.009,0.262,-0.183,0.671,0.244,571.643
127083,157848,11563,-0.086,1.004,0.267,-1.159,0.488,0.366,571.649
127101,157882,11330,-0.086,1.004,0.267,-1.159,0.488,0.366,571.653
127101,157842,11567,-0.083,1.007,0.263,-0.488,0.061,0.244,571.659
127070,157882,11330,-0.083,1.007,0.263,-0.488,0.061,0.244,571.663
127070,157852,11582,-0.084,1.006,0.274,0.427,0.183,0.305,571.669
127083,157882,11330,-0.084,1.006,0.274,0.427,0.183,0.305,571.673
127083,157830,11576,-0.083,1.009,0.273,0.915,0.549,0.488,571.679
127069,157882,11330,-0.083,1.009,0.273,0.915,0.549,0.488,571.683
127069,157831,11554,-0.082,1.016,0.277,0.854,0.732,0.366,571.689
127082,157882,11330,-0.082,1.016,0.277,0.854,0.732,0.366,571.693
127082,157827,11563,-0.082,1.013,0.282,0.549,0.549,0.366,571.699
127092,157882,11330,-0.08,1.01,0.281,0.549,0.549,0.366,571.703
127092,157827,11570,-0.081,1.008,0.279,-0.122,0.488,0.366,571.709
127089,157882,11330,-0.082,1.007,0.279,-0.122,0.488,0.366,571.712
127089,157832,11571,-0.083,1.008,0.275,-0.793,0.976,0.549,571.719
127081,157882,11330,-0.082,1.003,0.268,-0.793,0.976,0.549,571.722
127081,157830,11576,-0.083,1.005,0.266,-0.366,1.037,0.549,571.728
127068,157882,11330,-0.084,1.006,0.259,-0.366,1.037,0.549,571.732
127068,157862,11560,-0.089,1.01,0.263,-0.305,0.915,0.488,571.738
127075,157882,11330,-0.088,1.011,0.27,-0.305,0.915,0.488,571.742
127075,157845,11562,-0.087,1.01,0.274,-0.305,0.793,0.671,571.748
127072,157882,11330,-0.089,1.014,0.267,-0.305,0.793,0.671,571.752
127072,157832,11572,-0.088,1.022,0.267,-0.488,0.488,0.549,571.758
127064,157882,11330,-0.088,1.023,0.267,-0.488,0.488,0.549,571.762
127064,157837,11579,-0.087,1.019,0.264,-0.671,0.427,0.244,571.768
127054,157882,11330,-0.083,1.008,0.257,-0.671,0.427,0.244,571.772
127054,157840,11572,-0.088,1.001,0.256,-0.488,0.427,0.061,571.778
127063,157882,11330,-0.087,0.994,0.261,-0.488,0.427,0.061,571.782
127063,157846,11556,-0.091,0.998,0.266,0.427,0.427,0.061,571.788
127064,157882,11330,-0.088,1.005,0.268,0.427,0.427,0.061,571.792
127064,157837,11549,-0.083,1.01,0.269,1.585,0.061,0.244,571.798
127040,157882,11330,-0.086,1.015,0.27,1.585,0.061,0.244,571.802
127040,157862,11556,-0.083,1.013,0.271,2.378,0,0.366,571.808
127032,157882,11330,-0.084,1.018,0.271,2.378,0,0.366,571.811
127032,157865,11556,-0.082,1.019,0.27,1.341,0.305,0.427,571.818
127038,157882,11330,-0.085,1.013,0.272,1.341,0.305,0.427,571.821
127038,157863,11554,-0.088,1.006,0.277,-0.427,0.671,0.61,571.827
127022,157882,11330,-0.085,1.003,0.277,-0.427,0.671,0.61,571.831
127022,157852,11570,-0.086,1.001,0.273,-0.854,0.549,0.732,571.837
127025,157882,11330,-0.085,0.999,0.268,-0.854,0.549,0.732,571.841
127025,157877,11548,-0.082,1.001,0.263,0.122,0.427,0.671,571.847
127019,157882,11330,-0.082,1.004,0.266,0.122,0.427,0.671,571.851
127019,157876,11543,-0.082,1.004,0.271,1.768,0.854,0.488,571.857
127008,157882,11330,-0.084,1.011,0.274,1.768,0.854,0.488,571.861
127008,157878,11557,-0.089,1.02,0.275,2.256,1.098,0.671,571.867
127029,157882,11330,-0.085,1.013,0.272,2.256,1.098,0.671,571.871
127029,157907,11546,-0.084,1.008,0.272,1.463,1.098,0.549,571.877
127016,157882,11330,-0.085,1.008,0.267,1.463,1.098,0.549,571.881
127016,157915,11555,-0.086,1.012,0.269,0.061,0.915,0.427,571.887
127039,157882,11330,-0.083,1.013,0.273,0.061,0.915,0.427,571.891
127039,157897,11548,-0.081,1.013,0.269,-0.671,0.366,0.549,571.897
127026,157882,11330,-0.078,1.012,0.272,-0.671,0.366,0.549,571.9
127026,157893,11561,-0.081,1.009,0.268,-0.305,0.061,0.244,571.907
127029,157882,11330,-0.083,1.005,0.268,-0.305,0.061,0.244,571.91
127029,157904,11556,-0.08,1.004,0.264,0.244,0.427,0.183,571.917
127018,157882,11330,-0.082,1.008,0.262,0.244,0.427,0.183,571.92
127018,157900,11548,-0.089,1.015,0.255,0.671,0.976,0.244,571.926
127015,157882,11330,-0.088,1.012,0.257,0.671,0.976,0.244,571.93
127015,157906,11557,-0.088,1.007,0.264,1.22,0.976,0.183,571.936
127027,157882,11330,-0.09,1.007,0.271,1.22,0.976,0.183,571.94
127027,157886,11552,-0.094,1.012,0.269,0.427,0.549,0.488,571.946
127026,157882,11330,-0.092,1.017,0.274,0.427,0.549,0.488,571.95
127026,157883,11544,-0.087,1.015,0.272,-0.793,0.183,0.61,571.956
127035,157882,11330,-0.085,1.012,0.267,-0.793,0.183,0.61,571.96
127035,157878,11568,-0.082,1.007,0.266,-1.28,0.183,0.427,571.966
127042,157882,11330,-0.084,1.011,0.269,-1.28,0.183,0.427,571.97
127042,157882,11548,-0.084,1.01,0.267,-1.341,0.732,0.549,571.976
127056,157882,11330,-0.086,1.002,0.264,-1.341,0.732,0.549,571.98
127056,157898,11548,-0.084,1.005,0.266,-0.366,0.671,0.427,571.986
127048,157882,11330,-0.083,1.006,0.265,-0.366,0.671,0.427,571.99
127048,157908,11553,-0.085,1.013,0.263,0.61,0.61,0.427,571.996
127037,157882,11330,-0.085,1.019,0.264,0.61,0.61,0.427,572
127037,157898,11559,-0.085,1.022,0.26,0.61,0.61,0.488,572.006
127044,157882,11330,-0.085,1.022,0.262,0.61,0.61,0.488,572.009
127044,157877,11562,-0.083,1.022,0.26,-0.244,0.549,0.305,572.016
127069,157882,11330,-0.087,1.014,0.26,-0.244,0.549,0.305,572.019
127069,157901,11552,-0.089,1.006,0.266,-1.159,0.305,0.244,572.025
127048,157882,11330,-0.087,1.001,0.262,-1.159,0.305,0.244,572.029
127048,157912,11560,-0.088,1.001,0.261,-1.89,0,0.122,572.035
127067,157882,11330,-0.091,1.005,0.262,-1.89,0,0.122,572.039
127067,157919,11558,-0.09,1.007,0.261,-1.646,0,0.183,572.045
127065,157882,11330,-0.088,1.009,0.264,-1.646,0,0.183,572.049
127065,157907,11553,-0.087,1.01,0.269,-0.549,-0.122,0.183,572.055
127073,157882,11330,-0.087,1.009,0.278,-0.549,-0.122,0.183,572.059
127073,157887,11541,-0.085,1.008,0.28,0,-0.366,0.305,572.065
127067,157882,11330,-0.085,1.005,0.278,0,-0.366,0.305,572.069
127067,157892,11558,-0.089,1.002,0.275,0.427,0,0.366,572.075
127086,157882,11330,-0.087,0.998,0.271,0.427,0,0.366,572.079
127086,157911,11565,-0.084,1,0.266,0.122,0.793,0.427,572.085
127064,157882,11330,-0.086,1.004,0.264,0.122,0.793,0.427,572.089
127064,157890,11561,-0.085,1.004,0.273,0.061,0.976,0.671,572.095
127066,157882,11330,-0.085,1.007,0.279,0.061,0.976,0.671,572.098
127066,157888,11566,-0.082,1.009,0.278,0.305,0.305,0.732,572.105
127073,157882,11330,-0.081,1.012,0.274,0.305,0.305,0.732,572.108
127073,157899,11555,-0.083,1.016,0.268,-0.366,0.183,0.732,572.115
127063,157882,11330,-0.084,1.018,0.265,-0.366,0.183,0.732,572.118
127063,157898,11563,-0.081,1.016,0.269,-0.61,0.976,0.61,572.124
127092,157882,11330,-0.083,1.015,0.264,-0.61,0.976,0.61,572.128
127092,157876,11576,-0.086,1.011,0.264,-0.427,1.098,0.366,572.134
127069,157882,11330,-0.086,1.011,0.264,-0.427,1.098,0.366,572.138
127069,157902,11563,-0.084,1.008,0.265,-0.427,0.732,0.427,572.144
127077,157882,11330,-0.084,1.008,0.265,-0.427,0.732,0.427,572.148
127077,157910,11572,-0.083,1.012,0.259,-0.671,0.366,0.488,572.154
127086,157882,11330,-0.083,1.012,0.259,-0.671,0.366,0.488,572.158
127086,157896,11566,-0.083,1,0.266,-0.061,0.427,0.732,572.164
127077,157882,11330,-0.083,1,0.266,-0.061,0.427,0.732,572.168
127077,157910,11569,-0.085,1.007,0.27,0.305,0.732,0.854,572.174
127073,157882,11330,-0.085,1.007,0.27,0.305,0.732,0.854,572.178
127073,157927,11562,-0.084,1.011,0.275,1.037,0.732,0.732,572.184
127071,157882,11330,-0.084,1.011,0.275,1.037,0.732,0.732,572.188
127071,157922,11558,-0.081,1.014,0.279,1.646,0.549,0.61,572.194
127081,157882,11330,-0.081,1.014,0.279,1.646,0.549,0.61,572.197
127081,157920,11552,-0.083,1.006,0.264,0.305,1.159,1.037,572.204
127067,157882,11330,-0.083,1.006,0.264,0.305,1.159,1.037,572.207
127067,157899,11554,-0.086,1.005,0.264,-0.793,1.463,1.22,572.214
127073,157882,11330,-0.086,1.005,0.264,-0.793,1.463,1.22,572.217
127073,157919,11560,-0.09,1.012,0.264,-0.61,1.037,1.037,572.223
127078,157882,11330,-0.09,1.012,0.264,-0.61,1.037,1.037,572.227
127078,157902,11563,-0.08,1.012,0.264,-0.122,0.244,0.671,572.233
127081,157882,11330,-0.08,1.012,0.264,-0.122,0.244,0.671,572.237
127081,157944,11565,-0.08,1.021,0.262,-0.427,0.244,0.488,572.243
127078,157882,11330,-0.08,1.021,0.262,-0.427,0.244,0.488,572.247
127078,157915,11554,-0.083,1.016,0.253,-0.793,0.732,0.366,572.253
127096,157882,11330,-0.083,1.016,0.253,-0.793,0.732,0.366,572.257
127096,157924,11575,-0.089,1.016,0.261,-0.854,0.671,0,572.263
127081,157882,11330,-0.089,1.016,0.261,-0.854,0.671,0,572.267
127081,157923,11553,-0.086,1.016,0.258,-0.61,0.183,-0.183,572.273
127081,157882,11330,-0.086,1.016,0.258,-0.61,0.183,-0.183,572.277
127081,157918,11561,-0.085,1.019,0.257,-0.61,0.183,-0.183,572.283
127072,157882,11330,-0.086,1.014,0.265,-0.854,-0.061,-0.244,572.287
127072,157946,11544,-0.084,1.001,0.274,-0.854,-0.061,-0.244,572.293
127052,157882,11330,-0.086,0.993,0.274,-0.427,-0.244,-0.305,572.296
127052,157925,11550,-0.087,0.994,0.27,-0.427,-0.244,-0.305,572.303
127062,157882,11330,-0.089,1.003,0.267,-0.793,0,0.061,572.306
127062,157935,11550,-0.085,1.008,0.274,-0.793,0,0.061,572.313
127062,157882,11330,-0.082,1.01,0.279,0.061,0.122,0.305,572.316
127062,157947,11556,-0.08,1.009,0.277,0.061,0.122,0.305,572.322
127055,157882,11330,-0.079,1.011,0.279,0.915,-0.122,0.244,572.326
127055,157927,11545,-0.077,1.01,0.276,0.915,-0.122,0.244,572.332
127085,157882,11330,-0.081,1.007,0.269,0.427,0.305,0.305,572.336
127085,157933,11566,-0.084,1.003,0.265,0.427,0.305,0.305,572.342
127087,158138,11330,-0.084,1.009,0.264,-0.427,0.915,0.244,572.346
127087,157957,11560,-0.086,1.011,0.272,-0.427,0.915,0.244,572.352
127080,157882,11330,-0.086,1.009,0.275,-0.732,0.854,0.488,572.356
127080,157945,11563,-0.087,1.009,0.278,-0.732,0.854,0.488,572.362
127099,157882,11330,-0.084,1.007,0.274,-0.549,0.244,0.488,572.366
127099,157907,11574,-0.083,1.008,0.266,-0.549,0.244,0.488,572.372
127070,157882,11330,-0.085,1.011,0.265,-0.61,0.488,0.244,572.376
127070,157935,11549,-0.085,1.01,0.262,-0.61,0.488,0.244,572.382
127084,157882,11330,-0.09,1.009,0.268,-0.183,1.098,0.244,572.386
127084,157951,11562,-0.091,1.01,0.268,-0.183,1.098,0.244,572.392
127090,158138,11330,-0.089,1.011,0.27,0.061,0.915,0.244,572.395
127090,157953,11545,-0.088,1.01,0.271,0.061,0.915,0.244,572.402
127069,158138,11330,-0.085,1.006,0.267,0.488,0.488,0.183,572.405
127069,157986,11563,-0.086,1.008,0.265,0.488,0.488,0.183,572.411
127062,158138,11330,-0.083,1.011,0.272,0.793,0.671,0.183,572.415
127062,157968,11567,-0.081,1.011,0.271,0.793,0.671,0.183,572.421
127073,158138,11330,-0.082,1.014,0.271,0.366,1.22,0.427,572.425
127073,157960,11557,-0.087,1.015,0.264,0.366,1.22,0.427,572.431
127081,158138,11330,-0.088,1.012,0.257,-0.671,1.341,0.854,572.435
127081,157984,11559,-0.089,1.014,0.258,-0.671,1.341,0.854,572.441
127084,158138,11330,-0.087,1.011,0.264,-0.732,0.854,0.61,572.445
127084,157998,11550,-0.084,1.007,0.267,-0.732,0.854,0.61,572.451
127061,158138,11330,-0.083,1.013,0.262,-1.159,0.244,0.366,572.455
127061,158037,11557,-0.085,1.013,0.26,-1.159,0.244,0.366,572.461
127053,158138,11330,-0.085,1.01,0.265,-1.524,-0.061,0.427,572.465
127053,158057,11541,-0.083,1.007,0.261,-1.524,-0.061,0.427,572.471
127051,158138,11330,-0.086,1.007,0.261,-1.037,0.061,0.244,572.475
127051,158056,11557,-0.088,1.006,0.264,-1.037,0.061,0.244,572.481
127098,158138,11330,-0.087,1.007,0.268,-0.793,0.183,0.366,572.485
127098,158048,11552,-0.089,1.01,0.271,-0.793,0.183,0.366,572.491
127088,158138,11330,-0.089,1.013,0.275,-0.61,-0.122,0.427,572.494
127088,158083,11526,-0.085,1.011,0.268,-0.61,-0.122,0.427,572.501
127085,158138,11330,-0.083,1.008,0.27,-0.732,-0.366,0.366,572.504
127085,158040,11547,-0.083,1.007,0.268,-0.732,-0.366,0.366,572.51
127093,158138,11330,-0.085,1.011,0.268,-0.732,-0.061,0.427,572.514
127093,158073,11566,-0.086,1.01,0.27,-0.732,-0.061,0.427,572.52
127082,158138,11330,-0.083,1.009,0.275,-0.183,0,0.244,572.524
127082,158086,11563,-0.083,1.008,0.28,-0.183,0,0.244,572.53
127105,158138,11330,-0.083,1.007,0.279,0.488,-0.122,0.183,572.534
127105,158057,11581,-0.081,1.009,0.273,0.488,-0.122,0.183,572.54
127095,158138,11330,-0.079,1.009,0.27,0.366,0.305,0.244,572.544
127095,158062,11549,-0.084,1.004,0.27,0.366,0.305,0.244,572.55
127093,158138,11330,-0.086,1.004,0.269,0.122,0.793,0.183,572.554
127093,158058,11558,-0.088,1.007,0.271,0.122,0.793,0.183,572.56
127098,158138,11330,-0.087,1.01,0.271,-0.183,0.488,0.244,572.564
127098,158074,11556,-0.084,1.012,0.272,-0.183,0.488,0.244,572.57
127110,158138,11330,-0.082,1.008,0.272,-0.122,-0.183,0.183,572.574
127110,158074,11552,-0.079,1.009,0.277,-0.122,-0.183,0.183,572.58
127126,158138,11330,-0.078,1.01,0.277,-0.915,0.183,0.305,572.584
127126,158048,11561,-0.081,1.008,0.27,-0.915,0.183,0.305,572.59
127114,158138,11330,-0.083,1.009,0.265,-1.524,1.037,0.793,572.593
127114,158082,11552,-0.083,1.008,0.263,-1.524,1.037,0.793,572.6
127104,158138,11330,-0.085,1.01,0.266,-0.122,0.976,0.488,572.603
127104,158093,11563,-0.084,1.011,0.268,-0.122,0.976,0.488,572.609
127119,158138,11330,-0.086,1.016,0.261,0.427,0.793,0.244,572.613
127119,158091,11558,-0.087,1.023,0.262,0.427,0.793,0.244,572.619
127112,158138,11330,-0.086,1.018,0.266,0.122,0.366,0.366,572.623
127112,158056,11546,-0.085,1.009,0.269,0.122,0.366,0.366,572.629
127096,158138,11330,-0.088,1.002,0.268,-0.183,0.305,0.305,572.633
127096,158070,11551,-0.087,1.006,0.263,-0.183,0.305,0.305,572.639
127119,158138,11330,-0.092,1.009,0.26,-0.915,0.671,0.61,572.643
127119,158103,11571,-0.093,1.011,0.259,-0.915,0.671,0.61,572.649
127121,158138,11330,-0.09,1.008,0.267,-0.549,0.732,0.488,572.653
127121,158077,11568,-0.09,1.011,0.264,-0.549,0.732,0.488,572.659
127081,158138,11330,-0.089,1.017,0.263,-0.305,0.427,0.305,572.663
127081,158087,11547,-0.086,1.017,0.261,-0.305,0.427,0.305,572.669
127085,158138,11330,-0.084,1.011,0.262,-0.122,0.183,0.244,572.673
127085,158118,11556,-0.083,1.005,0.263,-0.122,0.183,0.244,572.679
127095,158138,11330,-0.085,1.003,0.258,0.061,0.183,0.122,572.683
127095,158117,11552,-0.086,1.003,0.263,0.061,0.183,0.122,572.689
127090,158138,11330,-0.088,1.003,0.271,-0.732,0.183,0.366,572.692
127090,158157,11552,-0.086,1.006,0.275,-0.732,0.183,0.366,572.699
127100,158138,11330,-0.083,1.01,0.28,-0.732,-0.305,0.488,572.702
127100,158142,11542,-0.077,1.016,0.277,-0.732,-0.305,0.488,572.708
127123,158138,11330,-0.076,1.018,0.277,-0.427,-0.366,0.244,572.712
127123,158136,11569,-0.076,1.011,0.274,-0.427,-0.366,0.244,572.718
127095,158138,11330,-0.076,1.011,0.274,-0.427,-0.366,0.244,572.722
127095,158120,11555,-0.083,1.002,0.269,0.122,0.366,0.061,572.728
127099,158138,11330,-0.083,1.002,0.269,0.122,0.366,0.061,572.732
127099,158132,11553,-0.087,1.007,0.262,0,0.976,0.122,572.738
127091,158138,11330,-0.087,1.007,0.262,0,0.976,0.122,572.742
127091,158150,11551,-0.088,1.01,0.274,0.061,0.671,0.183,572.748
127079,158138,11330,-0.088,1.01,0.274,0.061,0.671,0.183,572.752
127079,158142,11547,-0.083,1.019,0.269,-0.244,0,0.244,572.758
127106,158138,11330,-0.083,1.019,0.269,-0.244,0,0.244,572.762
127106,158150,11548,-0.08,1.013,0.27,-0.976,-0.183,0.244,572.768
127107,158138,11330,-0.08,1.013,0.27,-0.976,-0.183,0.244,572.772
127107,158160,11546,-0.082,1.009,0.26,-1.463,0.122,0.122,572.778
127119,158138,11330,-0.082,1.009,0.26,-1.463,0.122,0.122,572.781
127119,158137,11567,-0.09,1.006,0.268,-1.646,0.61,0.244,572.788
127113,158138,11330,-0.09,1.006,0.268,-1.646,0.61,0.244,572.791
127113,158148,11554,-0.083,1.004,0.267,-0.732,0.488,0.183,572.798
127115,158138,11330,-0.083,1.004,0.267,-0.732,0.488,0.183,572.801
127115,158148,11537,-0.083,1.018,0.276,0.244,0.122,-0.061,572.807
127097,158138,11330,-0.083,1.018,0.276,0.244,0.122,-0.061,572.811
127097,158149,11561,-0.081,1.017,0.27,0.061,0.183,0.244,572.817
127109,158138,11330,-0.081,1.017,0.27,0.061,0.183,0.244,572.821
127109,158160,11533,-0.085,0.998,0.257,0.183,0.488,0.366,572.827
127100,158138,11330,-0.085,0.998,0.257,0.183,0.488,0.366,572.831
127100,158161,11556,-0.093,0.997,0.266,-0.061,0.793,-0.122,572.837
127102,158138,11330,-0.093,0.997,0.266,-0.061,0.793,-0.122,572.841
127102,158142,11545,-0.093,1.011,0.267,-0.61,0.549,0.183,572.847
127094,158138,11330,-0.093,1.011,0.267,-0.61,0.549,0.183,572.851
127094,158153,11559,-0.081,1.009,0.279,-0.427,-0.244,0.366,572.857
127136,158138,11330,-0.081,1.009,0.279,-0.427,-0.244,0.366,572.861
127136,158170,11569,-0.082,1.012,0.276,-0.183,-0.61,0.183,572.867
127122,158138,11330,-0.086,1.014,0.275,-0.183,-0.61,0.183,572.871
127122,158144,11559,-0.085,1.009,0.271,-0.793,-0.122,0.305,572.877
127125,158138,11330,-0.087,1.005,0.272,-0.793,-0.122,0.305,572.88
127125,158122,11560,-0.09,1.003,0.265,-0.488,0.549,0.244,572.887
127135,158138,11330,-0.089,1,0.264,-0.488,0.549,0.244,572.89
127135,158141,11563,-0.09,1.004,0.261,0.061,0.549,0.366,572.897
127109,158138,11330,-0.086,1.003,0.262,0.061,0.549,0.366,572.9
127109,158146,11556,-0.085,1.008,0.259,0.366,0.305,0.671,572.906
127103,158138,11330,-0.087,1.01,0.263,0.366,0.305,0.671,572.91
127103,158133,11547,-0.088,1.014,0.269,-0.244,-0.061,0.854,572.916
127106,158138,11330,-0.085,1.018,0.274,-0.244,-0.061,0.854,572.92
127106,158139,11571,-0.083,1.018,0.27,-0.671,-0.305,0.732,572.926
127120,158138,11330,-0.083,1.015,0.268,-0.671,-0.305,0.732,572.93
127120,158147,11550,-0.078,1.009,0.269,-0.244,-0.183,0.366,572.936
127109,158138,11330,-0.079,1.01,0.269,-0.244,-0.183,0.366,572.94
127109,158113,11572,-0.082,1.008,0.273,0.793,0.366,0.122,572.946
127095,158138,11330,-0.08,1.008,0.275,0.793,0.366,0.122,572.95
127095,158132,11560,-0.079,1.006,0.274,1.707,0.793,0,572.956
127118,158138,11330,-0.08,1.006,0.275,1.707,0.793,0,572.96
127118,158124,11566,-0.08,1.011,0.273,2.317,0.976,-0.183,572.966
127107,158138,11330,-0.082,1.017,0.272,2.317,0.976,-0.183,572.97
127107,158118,11554,-0.078,1.015,0.272,1.707,0.915,-0.061,572.976
127123,158138,11330,-0.081,1.006,0.272,1.707,0.915,-0.061,572.979
127123,158118,11571,-0.088,1.002,0.267,0.854,0.976,0.183,572.986
127125,158138,11330,-0.087,0.995,0.263,0.854,0.976,0.183,572.989
127125,158141,11566,-0.087,1.003,0.27,0.244,0.793,0.366,572.996
127108,158138,11330,-0.091,1.008,0.276,0.244,0.793,0.366,572.999
127108,158141,11556,-0.091,1.009,0.274,-0.305,0.549,0.854,573.005
127112,158138,11330,-0.09,1.008,0.269,-0.305,0.549,0.854,573.009
127112,158114,11569,-0.087,1.009,0.268,-0.244,0.183,1.28,573.015
127126,158138,11330,-0.085,1.009,0.267,-0.244,0.183,1.28,573.019
127126,158098,11552,-0.087,1.003,0.267,-0.061,0.732,1.28,573.025
127116,158138,11330,-0.085,1.003,0.265,-0.061,0.732,1.28,573.029
127116,158090,11555,-0.088,1.003,0.269,-0.061,1.341,1.341,573.035
127118,158138,11330,-0.089,1.007,0.269,-0.061,1.341,1.341,573.039
127118,158143,11557,-0.085,1.011,0.273,-0.793,1.037,1.585,573.045
127100,158138,11330,-0.083,1.006,0.271,-0.793,1.037,1.585,573.049
127100,158123,11550,-0.081,1.005,0.265,-0.671,0.61,1.646,573.055
127113,158138,11330,-0.079,1.011,0.264,-0.671,0.61,1.646,573.059
127113,158132,11569,-0.078,1.014,0.264,-0.61,0.854,1.463,573.065
127103,158138,11330,-0.081,1.016,0.264,-0.61,0.854,1.463,573.069
127103,158100,11549,-0.084,1.018,0.268,-0.793,1.159,1.22,573.075
127099,158138,11330,-0.084,1.021,0.266,-0.793,1.159,1.22,573.078
127099,158113,11548,-0.083,1.023,0.26,-0.61,1.159,0.976,573.085
127115,158138,11330,-0.085,1.025,0.261,-0.61,1.159,0.976,573.088
127115,158142,11556,-0.085,1.021,0.262,-0.366,0.915,0.549,573.095
127100,158138,11330,-0.081,1.02,0.259,-0.366,0.915,0.549,573.098
127100,158116,11573,-0.081,1.015,0.258,-0.244,0.915,0.183,573.104
127112,158138,11330,-0.083,1.011,0.259,-0.244,0.915,0.183,573.108
127112,158113,11549,-0.085,1.006,0.259,-0.305,1.037,-0.061,573.114
127118,158138,11330,-0.088,1.004,0.262,-0.305,1.037,-0.061,573.118
127118,158085,11549,-0.088,1.004,0.265,0,0.732,-0.183,573.124
127086,158138,11330,-0.087,1.006,0.261,0,0.732,-0.183,573.128
127086,158113,11547,-0.088,1.007,0.264,0.549,0.305,-0.122,573.134
127096,158138,11330,-0.084,1.005,0.27,0.549,0.305,-0.122,573.138
127096,158119,11554,-0.085,1.004,0.271,0.366,0.366,0.122,573.144
127089,158138,11330,-0.086,1.007,0.273,0.366,0.366,0.122,573.148
127089,158122,11554,-0.087,1.01,0.273,-0.427,0.244,0.305,573.154
127103,158138,11330,-0.083,1.006,0.272,-0.427,0.244,0.305,573.158
127103,158135,11531,-0.082,1.004,0.269,-0.427,0.122,0.427,573.164
127076,158138,11330,-0.085,1.004,0.266,-0.427,0.122,0.427,573.168
127076,158114,11557,-0.084,1.007,0.268,-0.549,0.366,0.671,573.174
127090,158138,11330,-0.084,1.011,0.271,-0.549,0.366,0.671,573.177
127090,158097,11558,-0.083,1.009,0.27,-0.488,0.366,0.671,573.184
127075,158138,11330,-0.081,1.008,0.269,-0.488,0.366,0.671,573.187
127075,158094,11549,-0.083,1.01,0.266,-0.61,0.427,0.732,573.194
127109,158138,11330,-0.085,1.014,0.261,-0.61,0.427,0.732,573.197
127109,158109,11540,-0.084,1.015,0.264,-0.976,0.427,0.61,573.203
127098,158138,11330,-0.083,1.012,0.263,-0.976,0.427,0.61,573.207
127098,158098,11553,-0.081,1.011,0.27,-0.488,0.183,0.366,573.213
127100,158138,11330,-0.082,1.016,0.272,-0.488,0.183,0.366,573.217
127100,158106,11541,-0.081,1.017,0.268,-0.244,0.183,0.244,573.223
127098,158138,11330,-0.081,1.013,0.269,-0.244,0.183,0.244,573.227
127098,158110,11544,-0.084,1.012,0.268,0.122,0.549,0.122,573.233
127077,158138,11330,-0.083,1.01,0.268,0.122,0.549,0.122,573.237
127077,158114,11553,-0.084,1.013,0.268,0.061,1.037,-0.061,573.243
127098,158138,11330,-0.087,1.015,0.268,0.061,1.037,-0.061,573.247
127098,158137,11544,-0.086,1.009,0.266,-0.488,0.915,-0.122,573.253
127111,158138,11330,-0.084,1.004,0.266,-0.488,0.915,-0.122,573.257
127111,158157,11546,-0.084,1,0.263,-0.61,0.488,-0.061,573.263
127110,158138,11330,-0.086,0.998,0.263,-0.61,0.488,-0.061,573.267
127110,158149,11538,-0.087,0.999,0.263,-0.854,0.549,0.061,573.273
127083,158138,11330,-0.087,1,0.271,-0.854,0.549,0.061,573.276
127083,158166,11556,-0.087,1.003,0.275,-0.183,0.305,0.305,573.283
127100,158394,11330,-0.082,1.002,0.274,-0.183,0.305,0.305,573.286
127100,158222,11535,-0.081,1.002,0.275,0.305,0.061,0.488,573.293
127107,158138,11330,-0.081,1.004,0.269,0.305,0.061,0.488,573.296
127107,158206,11540,-0.083,1.007,0.265,0.183,0.366,0.793,573.302
127088,158394,11330,-0.083,1.007,0.265,0.183,0.366,0.793,573.306
127088,158240,11536,-0.084,1.015,0.271,-0.122,0.671,0.915,573.312
127096,158394,11330,-0.084,1.015,0.271,-0.122,0.671,0.915,573.316
127096,158219,11556,-0.087,1.012,0.275,-0.61,0.427,0.793,573.322
127080,158394,11330,-0.087,1.012,0.275,-0.61,0.427,0.793,573.326
127080,158237,11542,-0.084,1.019,0.263,-1.159,0.244,0.732,573.332
127069,158394,11330,-0.084,1.019,0.263,-1.159,0.244,0.732,573.336
127069,158258,11542,-0.083,1.005,0.255,-1.28,0.427,0.549,573.342
127075,158394,11330,-0.083,1.005,0.255,-1.28,0.427,0.549,573.346
127075,158249,11540,-0.092,1.012,0.258,-0.976,0.61,0.549,573.352
127063,158394,11330,-0.092,1.012,0.258,-0.976,0.61,0.549,573.356
127063,158258,11528,-0.091,1.011,0.265,0.305,0.061,0.305,573.362
127037,158394,11330,-0.091,1.011,0.265,0.305,0.061,0.305,573.366
127037,158276,11521,-0.083,1.018,0.276,1.28,-0.61,-0.122,573.372
127033,158394,11330,-0.083,1.018,0.276,1.28,-0.61,-0.122,573.375
127033,158263,11531,-0.084,1.021,0.281,0.427,-0.122,0,573.382
127005,158394,11330,-0.084,1.021,0.281,0.427,-0.122,0,573.385
127005,158297,11535,-0.083,1.012,0.271,-0.183,0.61,0.122,573.392
127056,158394,11330,-0.083,1.012,0.271,-0.183,0.61,0.122,573.395
127056,158280,11541,-0.081,0.997,0.265,-0.061,0.671,-0.122,573.401
127055,158394,11330,-0.081,0.997,0.265,-0.061,0.671,-0.122,573.405
127055,158272,11527,-0.087,0.994,0.266,-0.366,0.488,0.122,573.411
127041,158394,11330,-0.087,0.994,0.266,-0.366,0.488,0.122,573.415
127041,158290,11528,-0.084,1.011,0.271,-0.732,0.305,0.488,573.421
127041,158394,11330,-0.084,1.011,0.271,-0.732,0.305,0.488,573.425
127041,158284,11525,-0.078,1.013,0.264,-0.671,-0.122,0.549,573.431
127020,158394,11330,-0.078,1.013,0.264,-0.671,-0.122,0.549,573.435
127020,158298,11528,-0.082,1.01,0.267,-1.098,0,0.732,573.441
127016,158394,11330,-0.082,1.01,0.267,-1.098,0,0.732,573.445
127016,158290,11533,-0.082,1.01,0.266,-1.098,0,0.732,573.451
127009,158394,11330,-0.082,1.01,0.266,-0.549,0.488,0.793,573.455
127009,158303,11528,-0.083,1.014,0.263,-0.549,0.488,0.793,573.461
127028,158394,11330,-0.084,1.01,0.26,0.793,0.671,0.61,573.465
127028,158300,11529,-0.084,1.01,0.264,0.793,0.671,0.61,573.471
127005,158394,11330,-0.088,1.016,0.266,1.341,0.732,0.549,573.474
127005,158321,11524,-0.094,1.021,0.268,1.341,0.732,0.549,573.481
