112401,147642,11330,-0.087,1.039,0.101,-0.122,1.585,1.159,455.855
112401,147638,9589,-0.087,1.045,0.101,0.61,1.159,1.28,455.861
112399,147642,11330,-0.088,1.047,0.107,0.61,1.159,1.28,455.865
112399,147665,9565,-0.089,1.05,0.112,0.854,0.915,1.22,455.871
112408,147642,11330,-0.089,1.047,0.124,0.854,0.915,1.22,455.875
112408,147681,9571,-0.088,1.045,0.138,1.28,0.976,0.976,455.881
112396,147642,11330,-0.083,1.048,0.14,1.28,0.976,0.976,455.884
112396,147672,9575,-0.08,1.047,0.138,2.073,1.585,0.671,455.891
112390,147642,11330,-0.08,1.047,0.138,2.073,1.585,0.671,455.894
112390,147658,9571,-0.087,1.04,0.136,3.11,2.195,0.122,455.901
112401,147642,11330,-0.087,1.04,0.136,3.11,2.195,0.122,455.904
112401,147630,9565,-0.093,1.039,0.121,3.354,2.866,-0.183,455.91
112369,147642,11330,-0.093,1.039,0.121,3.354,2.866,-0.183,455.914
112369,147653,9568,-0.094,1.037,0.103,2.744,2.866,-0.244,455.92
112375,147642,11330,-0.094,1.037,0.103,2.744,2.866,-0.244,455.924
112375,147630,9586,-0.097,1.031,0.098,1.524,2.622,0.061,455.93
112368,147642,11330,-0.097,1.031,0.098,1.524,2.622,0.061,455.934
112368,147613,9580,-0.098,1.019,0.088,-0.122,2.012,0.427,455.94
112376,147642,11330,-0.098,1.019,0.088,-0.122,2.012,0.427,455.944
112376,147622,9579,-0.094,1.026,0.091,-1.098,1.22,0.915,455.95
112367,147642,11330,-0.094,1.026,0.091,-1.098,1.22,0.915,455.954
112367,147627,9571,-0.089,1.035,0.108,-1.463,0.732,1.28,455.96
112352,147642,11330,-0.089,1.035,0.108,-1.463,0.732,1.28,455.964
112352,147619,9570,-0.086,1.04,0.109,-1.159,0.305,1.341,455.97
112365,147642,11330,-0.086,1.04,0.109,-1.159,0.305,1.341,455.974
112365,147620,9569,-0.085,1.045,0.126,-0.122,0.305,1.037,455.98
112354,147642,11330,-0.085,1.045,0.126,-0.122,0.305,1.037,455.983
112354,147628,9574,-0.085,1.049,0.136,0.671,0.732,0.854,455.99
112341,147642,11330,-0.085,1.049,0.136,0.671,0.732,0.854,455.993
112341,147604,9585,-0.09,1.033,0.127,0.366,1.159,0.671,456
112369,147642,11330,-0.09,1.033,0.127,0.366,1.159,0.671,456.003
112369,147649,9569,-0.089,1.037,0.124,0,1.707,0.549,456.009
112388,147642,11330,-0.089,1.037,0.124,0,1.707,0.549,456.013
112388,147626,9574,-0.093,1.038,0.106,-1.098,1.89,0.854,456.019
112416,147642,11330,-0.093,1.038,0.106,-1.098,1.89,0.854,456.023
112416,147649,9586,-0.097,1.016,0.096,-1.768,1.402,0.976,456.029
112415,147642,11330,-0.097,1.016,0.096,-1.768,1.402,0.976,456.033
112415,147660,9576,-0.095,1.018,0.097,-1.768,1.402,0.976,456.039
112460,147642,11330,-0.089,1.028,0.097,-1.22,1.037,1.22,456.043
112460,147652,9582,-0.088,1.036,0.091,-1.22,1.037,1.22,456.049
112462,147642,11330,-0.089,1.041,0.087,-0.549,0.549,1.341,456.053
112462,147663,9596,-0.085,1.042,0.09,-0.549,0.549,1.341,456.059
112470,147642,11330,-0.084,1.046,0.102,-0.793,0.122,1.22,456.063
112470,147673,9587,-0.085,1.041,0.108,-0.793,0.122,1.22,456.069
112481,147642,11330,-0.083,1.041,0.117,-0.976,-0.122,1.28,456.073
112481,147695,9593,-0.081,1.052,0.118,-0.976,-0.122,1.28,456.079
112505,147898,11330,-0.079,1.049,0.12,-0.61,0,0.915,456.082
112505,147716,9595,-0.086,1.047,0.131,-0.61,0,0.915,456.089
112502,147898,11330,-0.094,1.042,0.135,0.122,0.305,0.366,456.092
112502,147727,9607,-0.096,1.032,0.138,0.122,0.305,0.366,456.099
112520,147898,11330,-0.095,1.029,0.133,0.976,0.61,0.061,456.102
112520,147733,9596,-0.095,1.028,0.135,0.976,0.61,0.061,456.108
112540,147898,11330,-0.099,1.027,0.131,1.22,0.915,0.122,456.112
112540,147729,9617,-0.104,1.028,0.12,1.22,0.915,0.122,456.118
112556,147898,11330,-0.104,1.03,0.109,0,1.098,0.549,456.122
112556,147737,9609,-0.1,1.029,0.106,0,1.098,0.549,456.128
112580,147898,11330,-0.099,1.022,0.1,-1.402,0.732,0.915,456.132
112580,147739,9607,-0.098,1.015,0.094,-1.402,0.732,0.915,456.138
112609,147898,11330,-0.096,1.013,0.087,-1.402,0.122,1.341,456.142
112609,147790,9599,-0.098,1.021,0.087,-1.402,0.122,1.341,456.148
112639,147898,11330,-0.096,1.03,0.093,-0.915,-0.366,1.646,456.152
112639,147792,9616,-0.092,1.042,0.096,-0.915,-0.366,1.646,456.158
112642,147898,11330,-0.089,1.05,0.104,-0.793,-0.732,2.073,456.162
112642,147802,9607,-0.081,1.056,0.109,-0.793,-0.732,2.073,456.168
112632,147898,11330,-0.074,1.059,0.114,-2.134,-1.22,2.073,456.172
112632,147809,9624,-0.072,1.056,0.121,-2.134,-1.22,2.073,456.178
112660,147898,11330,-0.068,1.051,0.131,-2.622,-1.037,1.585,456.181
112660,147778,9620,-0.066,1.047,0.136,-2.622,-1.037,1.585,456.188
112663,147898,11330,-0.065,1.046,0.138,-1.89,-0.366,0.854,456.191
112663,147814,9619,-0.058,1.045,0.144,-1.89,-0.366,0.854,456.198
112673,147898,11330,-0.062,1.049,0.143,-0.61,0.61,0.122,456.201
112673,147834,9635,-0.07,1.051,0.131,-0.61,0.61,0.122,456.207
112688,147898,11330,-0.078,1.044,0.122,-1.159,1.463,-0.427,456.211
112688,147821,9618,-0.08,1.036,0.12,-1.159,1.463,-0.427,456.217
112683,147898,11330,-0.089,1.034,0.111,-2.744,1.646,-0.427,456.221
112683,147844,9629,-0.092,1.026,0.107,-2.744,1.646,-0.427,456.227
112701,147898,11330,-0.093,1.018,0.095,-3.476,1.463,0.122,456.231
112701,147833,9632,-0.094,1.017,0.094,-3.476,1.463,0.122,456.237
112707,147898,11330,-0.097,1.014,0.095,-2.317,0.915,0.305,456.241
112707,147853,9633,-0.101,1.011,0.104,-2.317,0.915,0.305,456.247
112728,147898,11330,-0.106,1.012,0.107,-0.976,0.488,0.732,456.251
112728,147861,9622,-0.103,1.019,0.109,-0.976,0.488,0.732,456.257
112749,147898,11330,-0.099,1.022,0.113,-0.732,-0.061,1.28,456.261
112749,147862,9627,-0.098,1.03,0.126,-0.732,-0.061,1.28,456.267
112734,147898,11330,-0.092,1.033,0.131,-1.341,-0.305,1.829,456.271
112734,147872,9634,-0.09,1.033,0.134,-1.341,-0.305,1.829,456.277
112758,147898,11330,-0.079,1.033,0.144,-2.195,0,2.195,456.28
112758,147879,9637,-0.076,1.033,0.139,-2.195,0,2.195,456.287
112777,147898,11330,-0.078,1.042,0.132,-2.866,0.427,2.195,456.29
112777,147890,9638,-0.078,1.043,0.134,-2.866,0.427,2.195,456.297
112781,147898,11330,-0.077,1.039,0.131,-3.841,0.915,2.073,456.3
112781,147893,9635,-0.078,1.04,0.122,-3.841,0.915,2.073,456.306
112774,147898,11330,-0.081,1.037,0.109,-6.22,1.159,2.256,456.31
112774,147873,9646,-0.083,1.036,0.103,-6.22,1.159,2.256,456.316
112768,147898,11330,-0.084,1.045,0.092,-7.866,0.915,2.622,456.32
112768,147892,9633,-0.085,1.042,0.089,-7.866,0.915,2.622,456.326
112791,147898,11330,-0.086,1.037,0.087,-8.537,0.549,2.988,456.33
112791,147916,9635,-0.09,1.039,0.084,-8.537,0.549,2.988,456.336
112780,147898,11330,-0.092,1.036,0.086,-8.476,0.366,3.476,456.34
112780,147900,9639,-0.092,1.034,0.097,-8.476,0.366,3.476,456.346
112820,147898,11330,-0.094,1.034,0.102,-7.012,0.793,4.085,456.35
112820,147909,9632,-0.101,1.042,0.108,-7.012,0.793,4.085,456.356
112809,147898,11330,-0.098,1.047,0.112,-5.244,1.098,4.939,456.36
112809,147921,9646,-0.094,1.049,0.128,-5.244,1.098,4.939,456.366
112830,147898,11330,-0.091,1.047,0.146,-4.573,0.488,4.939,456.37
112830,147922,9648,-0.089,1.043,0.149,-4.573,0.488,4.939,456.376
112840,147898,11330,-0.084,1.037,0.145,-4.573,0.427,4.451,456.379
112840,147932,9647,-0.084,1.036,0.137,-4.573,0.427,4.451,456.386
112836,147898,11330,-0.082,1.03,0.133,-5.122,0.793,3.902,456.389
112836,147948,9639,-0.087,1.032,0.13,-5.122,0.793,3.902,456.396
112886,147898,11330,-0.088,1.033,0.124,-5.549,0.671,3.598,456.399
112886,147966,9652,-0.086,1.033,0.12,-5.549,0.671,3.598,456.405
112912,148154,11330,-0.081,1.032,0.114,-6.646,0.488,3.598,456.409
112912,147976,9655,-0.083,1.037,0.108,-6.646,0.488,3.598,456.415
112927,148154,11330,-0.079,1.04,0.1,-7.805,-0.366,3.537,456.419
112927,147983,9663,-0.077,1.043,0.108,-7.805,-0.366,3.537,456.425
112948,148154,11330,-0.075,1.045,0.121,-8.171,-1.585,3.171,456.429
112948,148004,9672,-0.074,1.044,0.132,-8.171,-1.585,3.171,456.435
112957,148154,11330,-0.07,1.039,0.131,-8.354,-2.317,2.683,456.439
112957,148013,9664,-0.071,1.039,0.132,-8.354,-2.317,2.683,456.445
112962,148154,11330,-0.071,1.032,0.135,-6.951,-2.439,1.89,456.449
112962,148010,9659,-0.071,1.029,0.152,-6.951,-2.439,1.89,456.455
112980,148154,11330,-0.068,1.033,0.166,-3.537,-1.707,1.098,456.459
112980,148013,9679,-0.067,1.043,0.172,-3.537,-1.707,1.098,456.465
112975,148154,11330,-0.064,1.051,0.183,-1.646,-0.671,0.671,456.469
112975,148014,9670,-0.064,1.051,0.178,-1.646,-0.671,0.671,456.475
112987,148154,11330,-0.064,1.051,0.178,-1.646,-0.671,0.671,456.478
112987,148017,9656,-0.064,1.031,0.16,-2.073,0.183,0.366,456.485
113002,148154,11330,-0.064,1.031,0.16,-2.073,0.183,0.366,456.488
113002,148027,9673,-0.073,1.016,0.153,-3.841,0.793,0.305,456.494
113020,148154,11330,-0.073,1.016,0.153,-3.841,0.793,0.305,456.498
113020,148061,9685,-0.074,1.022,0.132,-4.268,1.402,0.549,456.504
113024,148154,11330,-0.074,1.022,0.132,-4.268,1.402,0.549,456.508
113024,148045,9672,-0.079,1.027,0.128,-3.72,1.402,0.793,456.514
113043,148154,11330,-0.079,1.027,0.128,-3.72,1.402,0.793,456.518
113043,148069,9691,-0.079,1.021,0.134,-3.049,1.22,1.037,456.524
113046,148154,11330,-0.079,1.021,0.134,-3.049,1.22,1.037,456.528
113046,148063,9685,-0.079,1.019,0.139,-1.585,1.28,1.28,456.534
113061,148154,11330,-0.079,1.019,0.139,-1.585,1.28,1.28,456.538
113061,148075,9678,-0.08,1.024,0.157,0,1.463,1.646,456.544
113046,148154,11330,-0.08,1.024,0.157,0,1.463,1.646,456.548
113046,148076,9681,-0.074,1.028,0.157,0.915,1.89,2.195,456.554
113063,148154,11330,-0.074,1.028,0.157,0.915,1.89,2.195,456.558
113063,148071,9681,-0.071,1.026,0.157,0.488,2.195,2.622,456.564
113062,148154,11330,-0.071,1.026,0.157,0.488,2.195,2.622,456.568
113062,148076,9675,-0.077,1.029,0.147,0.183,2.5,2.744,456.574
113060,148154,11330,-0.077,1.029,0.147,0.183,2.5,2.744,456.577
113060,148066,9679,-0.078,1.033,0.139,-0.183,2.683,2.622,456.584
113064,148154,11330,-0.078,1.033,0.139,-0.183,2.683,2.622,456.587
113064,148091,9685,-0.077,1.029,0.132,-0.732,2.5,2.317,456.594
113061,148154,11330,-0.077,1.029,0.132,-0.732,2.5,2.317,456.597
113061,148092,9675,-0.082,1.045,0.119,-1.28,2.378,2.134,456.603
113066,148154,11330,-0.082,1.045,0.119,-1.28,2.378,2.134,456.607
113066,148087,9687,-0.082,1.067,0.116,-2.195,1.89,2.073,456.613
113064,148154,11330,-0.082,1.067,0.116,-2.195,1.89,2.073,456.617
113064,148061,9683,-0.08,1.058,0.115,-3.659,0.854,1.829,456.623
113000,148154,11330,-0.08,1.044,0.118,-3.659,0.854,1.829,456.627
113000,148020,9683,-0.08,1.029,0.12,-4.634,0,1.585,456.633
112931,148154,11330,-0.081,1.018,0.127,-4.634,0,1.585,456.637
112931,148004,9649,-0.075,1.018,0.135,-2.988,-0.366,1.098,456.643
112882,147898,11330,-0.074,1.029,0.15,-2.988,-0.366,1.098,456.647
112882,147953,9660,-0.074,1.037,0.157,-0.305,-0.244,0.488,456.653
112856,147898,11330,-0.076,1.038,0.16,-0.305,-0.244,0.488,456.657
112856,147939,9653,-0.073,1.035,0.166,0.305,0.122,0.366,456.663
112830,147898,11330,-0.068,1.036,0.167,0.305,0.122,0.366,456.667
112830,147943,9652,-0.067,1.036,0.168,-0.671,0.244,0.305,456.673
112817,147898,11330,-0.063,1.028,0.16,-0.671,0.244,0.305,456.676
112817,147919,9639,-0.063,1.025,0.157,-1.098,0.427,0.305,456.683
112839,147898,11330,-0.065,1.026,0.15,-1.098,0.427,0.305,456.686
112839,147936,9653,-0.065,1.025,0.141,-0.244,0.61,0.122,456.692
112847,147898,11330,-0.066,1.026,0.139,-0.244,0.61,0.122,456.696
112847,147959,9634,-0.069,1.028,0.129,0.488,0.488,0.061,456.702
112828,147898,11330,-0.068,1.03,0.129,0.488,0.488,0.061,456.706
112828,147949,9653,-0.067,1.038,0.133,0.244,0.183,0.427,456.712
112846,147898,11330,-0.068,1.041,0.132,0.244,0.183,0.427,456.716
112846,147962,9634,-0.072,1.039,0.128,-0.915,-0.122,0.854,456.722
112857,147898,11330,-0.075,1.036,0.125,-0.915,-0.122,0.854,456.726
112857,147939,9647,-0.076,1.031,0.133,-1.768,-0.488,0.915,456.732
112821,147898,11330,-0.078,1.028,0.141,-1.768,-0.488,0.915,456.736
112821,147948,9635,-0.075,1.031,0.148,-0.305,-0.183,0.793,456.742
112800,147898,11330,-0.079,1.032,0.157,-0.305,-0.183,0.793,456.746
112800,147905,9646,-0.08,1.029,0.161,1.89,0.305,0.671,456.752
112787,147898,11330,-0.083,1.028,0.161,1.89,0.305,0.671,456.756
112787,147904,9644,-0.082,1.024,0.169,3.354,0.854,0.366,456.762
112782,147898,11330,-0.082,1.025,0.174,3.354,0.854,0.366,456.766
112782,147915,9642,-0.08,1.033,0.17,3.78,1.524,0.366,456.772
112762,147898,11330,-0.078,1.029,0.173,3.78,1.524,0.366,456.775
112762,147904,9645,-0.077,1.03,0.169,2.683,2.195,0.61,456.782
112776,147898,11330,-0.077,1.029,0.149,2.683,2.195,0.61,456.785
112776,147909,9653,-0.076,1.023,0.137,1.22,2.622,0.854,456.791
112824,147898,11330,-0.075,1.023,0.131,1.22,2.622,0.854,456.795
112824,147938,9651,-0.076,1.029,0.124,1.768,2.5,1.098,456.801
112854,147898,11330,-0.074,1.03,0.115,1.768,2.5,1.098,456.805
112854,147951,9647,-0.073,1.035,0.106,2.439,1.951,1.28,456.811
112908,148154,11330,-0.073,1.038,0.103,2.439,1.951,1.28,456.815
112908,147977,9667,-0.074,1.036,0.099,2.073,1.037,1.463,456.821
112938,148154,11330,-0.073,1.036,0.099,2.073,1.037,1.463,456.825
112938,148000,9672,-0.072,1.034,0.098,1.768,0.183,1.707,456.831
112950,148154,11330,-0.071,1.037,0.11,1.768,0.183,1.707,456.835
112950,148014,9677,-0.07,1.048,0.124,2.256,-0.427,1.768,456.841
112948,148154,11330,-0.069,1.05,0.133,2.256,-0.427,1.768,456.845
112948,148023,9668,-0.071,1.047,0.135,2.195,-0.488,1.829,456.851
112918,148154,11330,-0.075,1.047,0.138,2.195,-0.488,1.829,456.855
112918,148013,9659,-0.073,1.045,0.146,1.707,-0.366,1.402,456.861
112928,148154,11330,-0.071,1.043,0.151,1.707,-0.366,1.402,456.864
112928,147984,9670,-0.07,1.041,0.147,1.28,-0.122,0.915,456.871
112887,148154,11330,-0.07,1.038,0.152,1.28,-0.122,0.915,456.874
112887,147988,9665,-0.07,1.041,0.156,1.037,0.244,0.488,456.881
112894,148154,11330,-0.071,1.044,0.149,1.037,0.244,0.488,456.884
112894,147991,9657,-0.069,1.045,0.135,0.732,0.671,0.061,456.89
112893,148154,11330,-0.068,1.042,0.128,0.732,0.671,0.061,456.894
112893,147985,9655,-0.073,1.037,0.119,0.793,0.671,-0.244,456.9
112933,148154,11330,-0.078,1.035,0.115,0.793,0.671,-0.244,456.904
112933,147993,9670,-0.078,1.028,0.115,0.549,-0.061,-0.061,456.91
112937,148154,11330,-0.076,1.029,0.119,0.549,-0.061,-0.061,456.914
112937,148014,9671,-0.072,1.033,0.116,0.061,-0.732,0.244,456.92
112954,148154,11330,-0.068,1.038,0.123,0.061,-0.732,0.244,456.924
112954,148022,9663,-0.069,1.04,0.125,-0.549,-1.28,0.61,456.93
112989,148154,11330,-0.068,1.036,0.132,-0.549,-1.28,0.61,456.934
112989,148040,9683,-0.077,1.033,0.14,-1.707,-1.341,0.427,456.94
113022,148154,11330,-0.076,1.026,0.144,-1.707,-1.341,0.427,456.944
113022,148042,9680,-0.074,1.022,0.148,-2.073,-1.28,0.366,456.95
113009,148154,11330,-0.072,1.032,0.152,-2.073,-1.28,0.366,456.954
113009,148064,9670,-0.07,1.043,0.163,-2.5,-1.524,0.244,456.96
113037,148154,11330,-0.068,1.047,0.181,-2.5,-1.524,0.244,456.964
113037,148075,9680,-0.07,1.042,0.187,-4.146,-0.793,0.549,456.97
113088,148154,11330,-0.068,1.036,0.175,-4.146,-0.793,0.549,456.973
113088,148102,9695,-0.066,1.026,0.161,-5.549,0.122,0.671,456.98
113105,148154,11330,-0.068,1.016,0.154,-5.549,0.122,0.671,456.983
113105,148124,9686,-0.072,1.018,0.154,-4.634,0.671,0.488,456.989
113142,148154,11330,-0.075,1.022,0.146,-4.634,0.671,0.488,456.993
113142,148140,9691,-0.077,1.028,0.134,-2.5,1.28,0.671,456.999
113182,148154,11330,-0.075,1.024,0.119,-2.5,1.28,0.671,457.003
113182,148179,9681,-0.074,1.022,0.116,-0.183,0.915,0.732,457.009
113213,148154,11330,-0.077,1.024,0.115,-0.183,0.915,0.732,457.013
113213,148194,9702,-0.075,1.032,0.12,1.646,0.305,0.915,457.019
113231,148154,11330,-0.072,1.037,0.123,1.646,0.305,0.915,457.023
113231,148206,9709,-0.07,1.047,0.126,2.683,0.122,1.037,457.029
113262,148410,11330,-0.068,1.054,0.13,2.683,0.122,1.037,457.033
113262,148245,9706,-0.071,1.048,0.131,2.073,0,1.037,457.039
113276,148410,11330,-0.073,1.041,0.139,2.073,0,1.037,457.043
113276,148251,9718,-0.071,1.03,0.151,0.122,0.366,0.976,457.049
113270,148410,11330,-0.061,1.018,0.158,0.122,0.366,0.976,457.053
113270,148241,9722,-0.059,1.014,0.157,0.122,0.976,1.159,457.059
113231,148410,11330,-0.059,1.014,0.157,0.122,0.976,1.159,457.062
113231,148227,9700,-0.062,1.033,0.15,1.341,1.646,1.098,457.069
113233,148410,11330,-0.062,1.033,0.15,1.341,1.646,1.098,457.072
113233,148224,9691,-0.076,1.045,0.136,1.28,2.195,0.915,457.079
113207,148154,11330,-0.076,1.045,0.136,1.28,2.195,0.915,457.082
113207,148187,9704,-0.082,1.026,0.115,-0.366,1.768,1.037,457.088
113172,148154,11330,-0.082,1.026,0.115,-0.366,1.768,1.037,457.092
113172,148193,9697,-0.079,1.028,0.106,-0.549,0.732,1.341,457.098
113179,148154,11330,-0.079,1.028,0.106,-0.549,0.732,1.341,457.102
113179,148153,9708,-0.081,1.04,0.105,0.915,0.122,1.402,457.108
113138,148154,11330,-0.081,1.04,0.105,0.915,0.122,1.402,457.112
113138,148114,9675,-0.079,1.048,0.109,1.585,-0.549,1.22,457.118
113130,148154,11330,-0.079,1.048,0.109,1.585,-0.549,1.22,457.122
113130,148123,9688,-0.066,1.041,0.131,1.524,-1.22,0.976,457.128
113146,148154,11330,-0.066,1.041,0.131,1.524,-1.22,0.976,457.132
113146,148138,9682,-0.056,1.045,0.133,1.707,-1.463,0.61,457.138
113131,148154,11330,-0.056,1.045,0.133,1.707,-1.463,0.61,457.142
113131,148134,9696,-0.06,1.054,0.145,1.524,-1.341,-0.061,457.148
113156,148154,11330,-0.06,1.054,0.145,1.524,-1.341,-0.061,457.152
113156,148148,9703,-0.062,1.054,0.16,0.366,-1.28,-0.732,457.158
113188,148154,11330,-0.062,1.054,0.16,0.366,-1.28,-0.732,457.161
113188,148175,9708,-0.066,1.036,0.15,-0.793,-0.854,-1.037,457.168
113219,148154,11330,-0.066,1.036,0.15,-0.793,-0.854,-1.037,457.171
113219,148187,9704,-0.069,1.026,0.148,-0.854,-0.305,-1.463,457.178
113274,148410,11330,-0.069,1.026,0.148,-0.854,-0.305,-1.463,457.181
113274,148230,9711,-0.074,1.025,0.137,0,0,-1.22,457.187
113277,148410,11330,-0.074,1.025,0.137,0,0,-1.22,457.191
113277,148244,9720,-0.085,1.02,0.105,0.183,-0.061,-0.854,457.197
113316,148410,11330,-0.085,1.02,0.105,0.183,-0.061,-0.854,457.201
113316,148260,9725,-0.083,1.027,0.11,0.183,-0.061,-0.854,457.207
113375,148410,11330,-0.082,1.035,0.116,-0.366,-0.671,-0.244,457.211
113375,148269,9730,-0.078,1.038,0.12,-0.366,-0.671,-0.244,457.217
113386,148410,11330,-0.07,1.042,0.122,-0.61,-1.159,0.549,457.221
113386,148297,9733,-0.067,1.045,0.125,-0.61,-1.159,0.549,457.227
113444,148410,11330,-0.063,1.047,0.139,-0.366,-1.524,0.366,457.231
113444,148340,9739,-0.061,1.042,0.153,-0.366,-1.524,0.366,457.237
113441,148410,11330,-0.062,1.044,0.158,-0.244,-1.159,-0.183,457.241
113441,148349,9742,-0.064,1.043,0.161,-0.244,-1.159,-0.183,457.247
113464,148410,11330,-0.063,1.044,0.163,-1.402,-0.366,-0.488,457.251
113464,148332,9746,-0.061,1.038,0.166,-1.402,-0.366,-0.488,457.257
113503,148410,11330,-0.063,1.032,0.172,-2.622,0.305,-0.976,457.26
113503,148378,9761,-0.07,1.03,0.172,-2.622,0.305,-0.976,457.267
113512,148410,11330,-0.071,1.026,0.164,-3.171,0.976,-1.098,457.27
113512,148368,9747,-0.078,1.025,0.16,-3.171,0.976,-1.098,457.277
113524,148410,11330,-0.08,1.028,0.16,-2.988,1.524,-1.159,457.28
113524,148405,9756,-0.084,1.028,0.154,-2.988,1.524,-1.159,457.286
113557,148410,11330,-0.087,1.028,0.142,-3.171,1.646,-0.976,457.29
113557,148388,9775,-0.089,1.023,0.133,-3.171,1.646,-0.976,457.296
113542,148410,11330,-0.089,1.013,0.132,-3.963,1.22,-0.61,457.3
113542,148383,9766,-0.09,1.007,0.123,-3.963,1.22,-0.61,457.306
113525,148410,11330,-0.088,1.004,0.12,-4.817,0.549,0.366,457.31
113525,148403,9751,-0.083,1.009,0.115,-4.817,0.549,0.366,457.316
113564,148410,11330,-0.074,1.012,0.116,-4.817,-0.305,1.28,457.32
113564,148394,9764,-0.071,1.02,0.127,-4.817,-0.305,1.28,457.326
113524,148410,11330,-0.07,1.025,0.129,-4.085,-1.28,2.134,457.33
113524,148379,9729,-0.068,1.032,0.127,-4.085,-1.28,2.134,457.336
113522,148410,11330,-0.066,1.041,0.132,-2.866,-1.463,2.378,457.34
113522,148383,9743,-0.063,1.044,0.144,-2.866,-1.463,2.378,457.346
113548,148410,11330,-0.057,1.055,0.156,-1.402,-1.22,1.89,457.35
113548,148387,9759,-0.052,1.057,0.158,-1.402,-1.22,1.89,457.356
113551,148410,11330,-0.051,1.056,0.168,-1.037,-0.549,1.707,457.359
113551,148396,9756,-0.053,1.051,0.163,-1.037,-0.549,1.707,457.366
113553,148410,11330,-0.054,1.046,0.146,-1.341,0.305,1.159,457.369
113553,148389,9740,-0.057,1.04,0.144,-1.341,0.305,1.159,457.375
113574,148410,11330,-0.063,1.037,0.138,-0.976,1.159,0.427,457.379
113574,148368,9773,-0.067,1.034,0.139,-0.976,1.159,0.427,457.385
113566,148410,11330,-0.076,1.031,0.134,-1.341,1.707,0.549,457.389
113566,148392,9766,-0.077,1.023,0.12,-1.341,1.707,0.549,457.395
113572,148410,11330,-0.08,1.017,0.105,-2.439,1.463,0.854,457.399
113572,148400,9753,-0.085,1.023,0.106,-2.439,1.463,0.854,457.405
113567,148410,11330,-0.086,1.03,0.116,-2.439,0.427,1.159,457.409
113567,148390,9762,-0.085,1.036,0.12,-2.439,0.427,1.159,457.415
113578,148410,11330,-0.08,1.04,0.127,-1.768,-0.366,1.402,457.419
113578,148396,9751,-0.074,1.041,0.146,-1.768,-0.366,1.402,457.425
113569,148410,11330,-0.074,1.037,0.152,-1.646,-0.915,1.463,457.429
113569,148402,9756,-0.073,1.037,0.152,-1.646,-0.915,1.463,457.435
113545,148410,11330,-0.075,1.033,0.154,-1.951,-0.732,1.341,457.439
113545,148356,9763,-0.071,1.032,0.159,-1.951,-0.732,1.341,457.445
113554,148410,11330,-0.071,1.031,0.166,-1.768,-0.366,0.976,457.449
113554,148387,9748,-0.07,1.032,0.172,-1.768,-0.366,0.976,457.455
113530,148410,11330,-0.068,1.036,0.17,-1.768,0.061,0.915,457.458
113530,148409,9752,-0.062,1.036,0.162,-1.768,0.061,0.915,457.465
113553,148410,11330,-0.06,1.03,0.153,-1.159,0.244,0.549,457.468
113553,148385,9768,-0.067,1.024,0.15,-1.159,0.244,0.549,457.475
113566,148410,11330,-0.07,1.021,0.144,-0.061,0.427,0.122,457.478
113566,148403,9759,-0.07,1.024,0.136,-0.061,0.427,0.122,457.484
113567,148410,11330,-0.072,1.028,0.137,0.854,0.549,0,457.488
113567,148403,9764,-0.07,1.036,0.139,0.854,0.549,0,457.494
113593,148410,11330,-0.072,1.048,0.141,1.037,0.244,-0.061,457.498
113593,148418,9767,-0.073,1.048,0.139,1.037,0.244,-0.061,457.504
113587,148410,11330,-0.077,1.032,0.14,-0.427,-0.122,0,457.508
113587,148408,9757,-0.083,1.025,0.139,-0.427,-0.122,0,457.514
113599,148410,11330,-0.079,1.024,0.137,-1.159,-0.366,0.061,457.518
113599,148413,9757,-0.078,1.022,0.145,-1.159,-0.366,0.061,457.524
113606,148410,11330,-0.078,1.024,0.154,0.366,-0.305,-0.061,457.528
113606,148432,9760,-0.076,1.033,0.159,0.366,-0.305,-0.061,457.534
113636,148410,11330,-0.073,1.036,0.158,1.341,-0.122,0.061,457.538
113636,148446,9769,-0.069,1.036,0.165,1.341,-0.122,0.061,457.544
113664,148410,11330,-0.065,1.033,0.168,1.341,0.305,0.122,457.548
113664,148462,9764,-0.067,1.033,0.169,1.341,0.305,0.122,457.554
113706,148666,11330,-0.062,1.036,0.169,1.707,0.976,0.183,457.557
113706,148493,9766,-0.06,1.036,0.158,1.707,0.976,0.183,457.564
113736,148666,11330,-0.062,1.032,0.153,1.646,1.585,0,457.567
113736,148503,9780,-0.063,1.027,0.151,1.646,1.585,0,457.573
113746,148666,11330,-0.066,1.028,0.147,1.585,1.768,-0.122,457.577
113746,148510,9781,-0.06,1.031,0.14,1.585,1.768,-0.122,457.583
113790,148666,11330,-0.059,1.037,0.134,1.463,1.768,0,457.587
113790,148538,9784,-0.064,1.038,0.126,1.463,1.768,0,457.593
113810,148666,11330,-0.067,1.036,0.118,0.671,1.402,0.122,457.597
113810,148559,9787,-0.069,1.031,0.121,0.671,1.402,0.122,457.603
113813,148666,11330,-0.072,1.024,0.124,0,0.976,0.183,457.607
113813,148576,9797,-0.071,1.027,0.128,0,0.976,0.183,457.613
113841,148666,11330,-0.07,1.038,0.125,0.976,0.427,0.122,457.617
113841,148569,9796,-0.07,1.051,0.136,0.976,0.427,0.122,457.623
113834,148666,11330,-0.072,1.053,0.145,2.927,0.427,-0.305,457.627
113834,148602,9797,-0.076,1.046,0.149,2.927,0.427,-0.305,457.633
113842,148666,11330,-0.078,1.043,0.146,3.293,0.61,-0.61,457.637
113842,148587,9781,-0.075,1.029,0.15,3.293,0.61,-0.61,457.643
113808,148666,11330,-0.075,1.029,0.15,3.293,0.61,-0.61,457.646
113808,148571,9800,-0.071,1.024,0.156,3.049,0.732,-0.793,457.653
113811,148666,11330,-0.071,1.024,0.156,3.049,0.732,-0.793,457.656
113811,148555,9780,-0.071,1.045,0.157,3.171,1.159,-0.61,457.663
113779,148666,11330,-0.071,1.045,0.157,3.171,1.159,-0.61,457.666
113779,148551,9791,-0.068,1.048,0.142,1.89,1.524,-0.549,457.672
113804,148666,11330,-0.068,1.048,0.142,1.89,1.524,-0.549,457.676
113804,148547,9785,-0.073,1.028,0.128,0.488,1.402,-0.61,457.682
113807,148666,11330,-0.073,1.028,0.128,0.488,1.402,-0.61,457.686
113807,148559,9773,-0.067,1.018,0.121,0.671,1.159,-0.793,457.692
113799,148666,11330,-0.067,1.018,0.121,0.671,1.159,-0.793,457.696
113799,148565,9784,-0.069,1.026,0.126,2.256,0.854,-0.915,457.702
113807,148666,11330,-0.069,1.026,0.126,2.256,0.854,-0.915,457.706
113807,148556,9772,-0.075,1.039,0.122,2.561,0.549,-0.61,457.712
113800,148666,11330,-0.075,1.039,0.122,2.561,0.549,-0.61,457.716
113800,148558,9795,-0.073,1.052,0.136,1.037,0,-0.244,457.722
113785,148666,11330,-0.073,1.052,0.136,1.037,0,-0.244,457.726
113785,148555,9800,-0.076,1.043,0.146,-0.366,-0.183,-0.183,457.732
113797,148666,11330,-0.076,1.043,0.146,-0.366,-0.183,-0.183,457.736
113797,148558,9764,-0.069,1.036,0.144,-0.305,-0.122,-0.305,457.742
113785,148666,11330,-0.069,1.036,0.144,-0.305,-0.122,-0.305,457.745
113785,148576,9789,-0.081,1.039,0.159,1.402,0.366,-0.976,457.752
113781,148666,11330,-0.081,1.039,0.159,1.402,0.366,-0.976,457.755
113781,148568,9767,-0.078,1.03,0.163,1.22,1.28,-0.793,457.762
113801,148666,11330,-0.078,1.03,0.163,1.22,1.28,-0.793,457.765
113801,148577,9780,-0.074,1.01,0.159,-0.549,1.463,-0.366,457.771
113810,148666,11330,-0.074,1.01,0.159,-0.549,1.463,-0.366,457.775
113810,148569,9784,-0.074,0.999,0.142,-1.951,2.012,0.366,457.781
113818,148666,11330,-0.074,0.999,0.142,-1.951,2.012,0.366,457.785
113818,148576,9783,-0.078,1.004,0.124,-1.463,2.439,0.915,457.791
113809,148666,11330,-0.077,1.018,0.112,-1.463,2.439,0.915,457.795
113809,148597,9784,-0.074,1.024,0.108,0.244,1.951,1.28,457.801
113825,148666,11330,-0.069,1.025,0.116,0.244,1.951,1.28,457.805
113825,148596,9793,-0.067,1.03,0.114,1.463,0.976,1.829,457.811
113850,148666,11330,-0.069,1.036,0.12,1.463,0.976,1.829,457.815
113850,148601,9809,-0.064,1.042,0.146,1.341,0.061,2.439,457.821
113872,148666,11330,-0.064,1.051,0.159,1.341,0.061,2.439,457.825
113872,148616,9774,-0.068,1.069,0.138,2.378,0.183,1.951,457.831
113872,148666,11330,-0.063,1.077,0.134,2.378,0.183,1.951,457.835
113872,148648,9795,-0.057,1.06,0.159,3.171,0.488,0.732,457.841
113891,148666,11330,-0.061,1.038,0.174,3.171,0.488,0.732,457.844
113891,148641,9797,-0.073,1.022,0.164,2.134,1.159,0.488,457.851
113889,148666,11330,-0.071,1.02,0.143,2.134,1.159,0.488,457.854
113889,148638,9820,-0.069,1.029,0.13,0.183,1.89,0.305,457.861
113916,148666,11330,-0.07,1.037,0.134,0.183,1.89,0.305,457.864
113916,148625,9808,-0.079,1.04,0.127,-0.671,1.951,-0.183,457.87
113922,148666,11330,-0.087,1.038,0.107,-0.671,1.951,-0.183,457.874
113922,148629,9798,-0.092,1.03,0.085,-2.256,1.707,0.366,457.88
113904,148666,11330,-0.093,1.024,0.079,-2.256,1.707,0.366,457.884
113904,148637,9798,-0.092,1.021,0.091,-2.439,0.549,0.366,457.89
113887,148666,11330,-0.09,1.033,0.11,-2.439,0.549,0.366,457.894
113887,148641,9802,-0.084,1.044,0.123,-1.28,-0.366,0.793,457.9
113889,148666,11330,-0.074,1.04,0.129,-1.28,-0.366,0.793,457.904
113889,148619,9799,-0.067,1.032,0.134,-0.61,-0.915,0.732,457.91
113911,148666,11330,-0.068,1.033,0.158,-0.61,-0.915,0.732,457.914
113911,148612,9811,-0.07,1.035,0.174,-0.183,-0.61,0.488,457.92
113890,148666,11330,-0.071,1.049,0.173,-0.183,-0.61,0.488,457.924
113890,148618,9800,-0.066,1.057,0.175,0.244,0.427,-0.061,457.93
113904,148666,11330,-0.056,1.052,0.177,0.244,0.427,-0.061,457.934
113904,148611,9786,-0.059,1.04,0.167,0.976,1.098,-0.488,457.94
113882,148666,11330,-0.062,1.035,0.148,0.976,1.098,-0.488,457.943
113882,148589,9785,-0.066,1.021,0.145,-0.122,1.707,-0.61,457.95
113864,148666,11330,-0.071,1.015,0.138,-0.122,1.707,-0.61,457.953
113864,148572,9803,-0.078,1.015,0.12,-1.829,1.89,-0.366,457.96
113861,148666,11330,-0.08,1.014,0.111,-1.829,1.89,-0.366,457.963
113861,148598,9803,-0.078,1.02,0.096,-2.378,1.341,0.366,457.969
113849,148666,11330,-0.079,1.026,0.096,-2.378,1.341,0.366,457.973
113849,148560,9815,-0.082,1.033,0.106,-1.098,0.427,0.671,457.979
113839,148666,11330,-0.078,1.041,0.116,-1.098,0.427,0.671,457.983
113839,148573,9804,-0.074,1.047,0.126,0.488,-0.244,0.61,457.989
113846,148666,11330,-0.073,1.055,0.131,0.488,-0.244,0.61,457.993
113846,148569,9778,-0.073,1.053,0.132,0.61,-0.549,0.122,457.999
113818,148666,11330,-0.08,1.039,0.141,0.61,-0.549,0.122,458.003
113818,148567,9787,-0.079,1.033,0.143,-0.122,-0.671,0,458.009
113836,148666,11330,-0.075,1.029,0.143,-0.122,-0.671,0,458.013
113836,148570,9787,-0.071,1.028,0.149,-0.244,-0.61,-0.183,458.019
113829,148666,11330,-0.073,1.033,0.147,-0.244,-0.61,-0.183,458.023
113829,148580,9794,-0.073,1.037,0.147,-0.244,-0.183,-0.183,458.029
113826,148666,11330,-0.075,1.037,0.156,-0.244,-0.183,-0.183,458.033
113826,148579,9798,-0.075,1.032,0.156,-0.732,0.061,-0.244,458.039
113843,148666,11330,-0.071,1.033,0.147,-0.732,0.061,-0.244,458.042
113843,148568,9790,-0.069,1.031,0.136,-0.793,0.244,-0.244,458.049
113830,148666,11330,-0.071,1.029,0.132,-0.793,0.244,-0.244,458.052
113830,148591,9798,-0.072,1.035,0.135,-0.305,0.305,-0.366,458.059
113822,148666,11330,-0.074,1.034,0.138,-0.305,0.305,-0.366,458.062
113822,148570,9788,-0.072,1.031,0.143,-1.646,0.122,0.183,458.068
113803,148666,11330,-0.063,1.03,0.132,-1.646,0.122,0.183,458.072
113803,148571,9798,-0.067,1.026,0.121,-3.049,-0.427,0.793,458.078
113814,148666,11330,-0.068,1.026,0.12,-3.049,-0.427,0.793,458.082
113814,148542,9791,-0.073,1.029,0.13,-2.439,-0.427,0.854,458.088
113798,148666,11330,-0.073,1.034,0.13,-2.439,-0.427,0.854,458.092
113798,148539,9791,-0.073,1.037,0.133,-0.915,-0.244,0.976,458.098
113774,148666,11330,-0.071,1.043,0.14,-0.915,-0.244,0.976,458.102
113774,148530,9785,-0.07,1.043,0.14,0.305,-0.366,0.793,458.108
113767,148666,11330,-0.07,1.037,0.153,0.305,-0.366,0.793,458.112
113767,148514,9776,-0.067,1.033,0.165,1.098,-0.061,0.61,458.118
113768,148666,11330,-0.064,1.036,0.165,1.098,-0.061,0.61,458.122
113768,148497,9791,-0.064,1.041,0.162,0.976,0.671,0.915,458.128
113758,148666,11330,-0.06,1.043,0.164,0.976,0.671,0.915,458.132
113758,148524,9788,-0.059,1.032,0.164,1.463,1.463,0.488,458.138
113750,148666,11330,-0.066,1.023,0.151,1.463,1.463,0.488,458.141
113750,148510,9780,-0.074,1.022,0.14,2.134,2.317,-0.183,458.148
113764,148666,11330,-0.075,1.03,0.127,2.134,2.317,-0.183,458.151
113764,148518,9783,-0.077,1.032,0.124,2.073,2.378,-0.122,458.158
113777,148666,11330,-0.08,1.035,0.116,2.073,2.378,-0.122,458.161
113777,148539,9773,-0.079,1.029,0.1,1.524,1.524,-0.183,458.167
113754,148666,11330,-0.08,1.027,0.095,1.524,1.524,-0.183,458.171
113754,148503,9769,-0.086,1.035,0.093,0.244,0.305,0.183,458.177
113773,148666,11330,-0.092,1.041,0.094,0.244,0.305,0.183,458.181
113773,148532,9779,-0.091,1.052,0.105,-1.098,-0.793,0.488,458.187
113746,148666,11330,-0.088,1.051,0.113,-1.098,-0.793,0.488,458.191
113746,148537,9787,-0.086,1.041,0.12,-1.585,-1.646,0.61,458.197
113748,148666,11330,-0.083,1.036,0.126,-1.585,-1.646,0.61,458.201
113748,148543,9778,-0.08,1.039,0.147,-1.463,-1.707,0.61,458.207
113741,148666,11330,-0.079,1.035,0.182,-1.463,-1.707,0.61,458.211
113741,148534,9786,-0.075,1.031,0.191,-0.061,-0.915,0.366,458.217
113734,148666,11330,-0.075,1.031,0.191,-0.061,-0.915,0.366,458.221
113734,148519,9784,-0.062,1.042,0.182,1.402,0.427,0,458.227
113722,148666,11330,-0.062,1.042,0.182,1.402,0.427,0,458.231
113722,148493,9780,-0.066,1.032,0.161,2.622,1.585,-0.488,458.237
113686,148666,11330,-0.066,1.032,0.161,2.622,1.585,-0.488,458.24
113686,148483,9754,-0.063,1.029,0.156,1.22,2.317,-0.549,458.247
113687,148410,11330,-0.063,1.029,0.156,1.22,2.317,-0.549,458.25
113687,148469,9765,-0.067,1.015,0.106,-0.244,2.195,-0.061,458.257
113656,148410,11330,-0.067,1.015,0.106,-0.244,2.195,-0.061,458.26
113656,148441,9766,-0.07,1.014,0.101,-0.915,1.341,0.244,458.266
113631,148410,11330,-0.07,1.014,0.101,-0.915,1.341,0.244,458.27
113631,148450,9767,-0.072,1.039,0.097,-1.098,0.183,0.61,458.276
113602,148410,11330,-0.072,1.039,0.097,-1.098,0.183,0.61,458.28
113602,148437,9765,-0.073,1.041,0.104,-1.341,-0.915,0.915,458.286
113596,148410,11330,-0.073,1.041,0.104,-1.341,-0.915,0.915,458.29
113596,148406,9756,-0.081,1.031,0.132,-1.768,-1.524,1.037,458.296
113578,148410,11330,-0.081,1.031,0.132,-1.768,-1.524,1.037,458.3
113578,148418,9753,-0.076,1.027,0.158,-0.915,-1.341,1.037,458.306
113578,148410,11330,-0.076,1.027,0.158,-0.915,-1.341,1.037,458.31
113578,148401,9745,-0.074,1.066,0.198,1.341,-0.488,0.549,458.316
113584,148410,11330,-0.074,1.066,0.198,1.341,-0.488,0.549,458.32
113584,148415,9764,-0.068,1.059,0.184,2.805,1.22,-0.427,458.326
113603,148410,11330,-0.068,1.059,0.184,2.805,1.22,-0.427,458.329
113603,148420,9764,-0.072,1.018,0.173,2.927,2.5,-1.159,458.336
113593,148410,11330,-0.072,1.018,0.173,2.927,2.5,-1.159,458.339
113593,148402,9745,-0.068,1.007,0.135,2.744,3.476,-1.159,458.346
113601,148410,11330,-0.068,1.007,0.135,2.744,3.476,-1.159,458.349
113601,148421,9761,-0.077,1.032,0.068,1.646,3.476,-0.732,458.355
113632,148410,11330,-0.077,1.032,0.068,1.646,3.476,-0.732,458.359
113632,148433,9764,-0.085,1.036,0.061,1.646,3.476,-0.732,458.365
113628,148410,11330,-0.087,1.03,0.061,-2.256,1.524,0.732,458.369
113628,148461,9753,-0.087,1.024,0.066,-2.256,1.524,0.732,458.375
113653,148410,11330,-0.081,1.018,0.065,-7.256,-1.402,2.134,458.379
113653,148444,9775,-0.074,1.021,0.08,-7.256,-1.402,2.134,458.385
113664,148410,11330,-0.073,1.034,0.101,-7.378,-3.11,2.683,458.389
113664,148455,9765,-0.074,1.051,0.125,-7.378,-3.11,2.683,458.395
113625,148410,11330,-0.073,1.066,0.151,-4.268,-3.415,2.195,458.399
113625,148447,9765,-0.067,1.067,0.177,-4.268,-3.415,2.195,458.405
113627,148410,11330,-0.067,1.053,0.203,-1.28,-2.317,0.976,458.409
113627,148439,9766,-0.065,1.035,0.23,-1.28,-2.317,0.976,458.415
113632,148410,11330,-0.064,1.023,0.235,1.646,-0.61,0,458.419
113632,148429,9757,-0.064,1.045,0.212,1.646,-0.61,0,458.425
113640,148410,11330,-0.059,1.066,0.195,4.39,1.89,-1.463,458.428
113640,148424,9753,-0.054,1.061,0.187,4.39,1.89,-1.463,458.435
113634,148410,11330,-0.059,1.04,0.175,4.39,3.78,-2.256,458.438
113634,148439,9765,-0.07,1.004,0.156,4.39,3.78,-2.256,458.445
113630,148410,11330,-0.078,0.977,0.124,-0.488,4.268,-1.159,458.448
113630,148452,9774,-0.079,0.984,0.075,-0.488,4.268,-1.159,458.454
113636,148410,11330,-0.077,1.01,0.042,-2.5,3.354,-0.366,458.458
113636,148457,9768,-0.08,1.038,0.045,-2.5,3.354,-0.366,458.464
113634,148410,11330,-0.084,1.05,0.062,-1.829,0.915,0.61,458.468
113634,148440,9759,-0.084,1.046,0.077,-1.829,0.915,0.61,458.474
113613,148410,11330,-0.082,1.036,0.083,-5,-1.768,1.768,458.478
113613,148423,9759,-0.078,1.026,0.086,-5,-1.768,1.768,458.484
113594,148410,11330,-0.074,1.029,0.099,-6.585,-3.293,1.951,458.488
113594,148426,9754,-0.078,1.04,0.126,-6.585,-3.293,1.951,458.494
113582,148410,11330,-0.077,1.044,0.158,-3.659,-3.171,1.585,458.498
113582,148404,9751,-0.074,1.038,0.193,-3.659,-3.171,1.585,458.504
113588,148410,11330,-0.073,1.043,0.22,-0.061,-1.951,0.915,458.508
113588,148429,9768,-0.07,1.046,0.229,-0.061,-1.951,0.915,458.514
113593,148410,11330,-0.069,1.054,0.227,3.293,0.061,-0.061,458.518
113593,148435,9760,-0.067,1.073,0.207,3.293,0.061,-0.061,458.524
113594,148410,11330,-0.06,1.07,0.198,5.061,2.256,-1.402,458.527
113594,148417,9769,-0.06,1.041,0.197,5.061,2.256,-1.402,458.534
113634,148410,11330,-0.071,1.015,0.167,3.598,3.537,-1.89,458.537
113634,148419,9766,-0.079,1.005,0.121,3.598,3.537,-1.89,458.544
113626,148410,11330,-0.078,0.994,0.087,-0.549,4.146,-1.463,458.547
113626,148438,9747,-0.079,0.992,0.067,-0.549,4.146,-1.463,458.553
113613,148410,11330,-0.084,1.007,0.053,-1.89,2.622,-0.549,458.557
113613,148426,9766,-0.085,1.023,0.055,-1.89,2.622,-0.549,458.563
113605,148410,11330,-0.081,1.027,0.062,-3.232,0.061,1.037,458.567
113605,148427,9755,-0.076,1.035,0.064,-3.232,0.061,1.037,458.573
113578,148410,11330,-0.074,1.031,0.079,-3.963,-2.439,1.768,458.577
113578,148435,9733,-0.078,1.027,0.108,-3.963,-2.439,1.768,458.583
113556,148410,11330,-0.079,1.033,0.132,-2.561,-3.598,2.073,458.587
113556,148394,9754,-0.077,1.052,0.145,-2.561,-3.598,2.073,458.593
113553,148410,11330,-0.074,1.061,0.169,-0.793,-3.293,1.28,458.597
113553,148389,9751,-0.074,1.058,0.194,-0.793,-3.293,1.28,458.603
113564,148410,11330,-0.076,1.055,0.204,0.671,-2.134,0.366,458.607
113564,148415,9729,-0.077,1.056,0.202,0.671,-2.134,0.366,458.613
113555,148410,11330,-0.075,1.056,0.196,0.488,-0.366,-0.305,458.617
113555,148405,9743,-0.071,1.051,0.203,0.488,-0.366,-0.305,458.623
113588,148410,11330,-0.063,1.036,0.212,0.915,1.28,-1.098,458.626
113588,148436,9755,-0.063,1.022,0.199,0.915,1.28,-1.098,458.633
113639,148410,11330,-0.065,1.019,0.157,1.22,2.744,-1.28,458.636
113639,148437,9762,-0.067,1.014,0.134,1.22,2.744,-1.28,458.643
113635,148410,11330,-0.067,1.005,0.12,2.317,3.72,-1.646,458.646
113635,148441,9768,-0.071,1.003,0.091,2.317,3.72,-1.646,458.652
113629,148410,11330,-0.081,1.019,0.068,3.963,3.232,-1.159,458.656
113629,148452,9759,-0.079,1.029,0.065,3.963,3.232,-1.159,458.662
113596,148410,11330,-0.073,1.039,0.069,3.232,1.22,-0.061,458.666
113596,148448,9755,-0.071,1.045,0.073,3.232,1.22,-0.061,458.672
113595,148410,11330,-0.07,1.04,0.081,2.256,-1.159,0.793,458.676
113595,148432,9752,-0.071,1.037,0.089,2.256,-1.159,0.793,458.682
113552,148410,11330,-0.077,1.044,0.099,2.744,-2.195,0.732,458.686
113552,148397,9740,-0.081,1.05,0.124,2.744,-2.195,0.732,458.692
113490,148410,11330,-0.084,1.06,0.151,5.305,-2.195,-0.183,458.696
113490,148374,9736,-0.083,1.067,0.171,5.305,-2.195,-0.183,458.702
113492,148410,11330,-0.075,1.065,0.188,7.683,-1.646,-1.098,458.706
113492,148397,9743,-0.074,1.053,0.204,7.683,-1.646,-1.098,458.712
113493,148410,11330,-0.075,1.04,0.196,8.11,-0.366,-2.134,458.716
113493,148348,9738,-0.076,1.04,0.172,8.11,-0.366,-2.134,458.722
113482,148410,11330,-0.075,1.041,0.167,6.707,1.28,-2.927,458.725
113482,148359,9739,-0.073,1.039,0.176,6.707,1.28,-2.927,458.732
113519,148410,11330,-0.082,1.033,0.177,4.451,2.317,-2.927,458.735
113519,148369,9735,-0.078,1.022,0.149,4.451,2.317,-2.927,458.742
113526,148410,11330,-0.074,1.005,0.108,2.256,2.744,-2.378,458.745
113526,148360,9750,-0.077,0.992,0.089,2.256,2.744,-2.378,458.751
113483,148410,11330,-0.084,0.99,0.084,2.927,2.134,-2.256,458.755
113483,148331,9739,-0.085,1.007,0.077,2.927,2.134,-2.256,458.761
113456,148410,11330,-0.083,1.031,0.081,3.72,0.976,-1.159,458.765
113456,148316,9732,-0.077,1.042,0.082,3.72,0.976,-1.159,458.771
113429,148410,11330,-0.076,1.042,0.092,1.524,-0.793,0.061,458.775
113429,148327,9725,-0.071,1.045,0.103,1.524,-0.793,0.061,458.781
113378,148410,11330,-0.068,1.041,0.113,-2.134,-2.134,0.915,458.785
113378,148286,9738,-0.069,1.038,0.124,-2.134,-2.134,0.915,458.791
113388,148410,11330,-0.073,1.043,0.14,-3.415,-2.195,0.915,458.795
113388,148293,9726,-0.079,1.05,0.155,-3.415,-2.195,0.915,458.801
113370,148410,11330,-0.079,1.05,0.155,-3.415,-2.195,0.915,458.805
113370,148297,9719,-0.07,1.041,0.176,-3.11,-1.463,0.915,458.811
113383,148410,11330,-0.07,1.041,0.176,-3.11,-1.463,0.915,458.815
113383,148295,9714,-0.067,1.03,0.173,-1.098,-0.549,0.366,458.821
113409,148410,11330,-0.067,1.03,0.173,-1.098,-0.549,0.366,458.824
113409,148345,9721,-0.077,1.053,0.162,1.951,0.915,-0.427,458.831
113434,148410,11330,-0.077,1.053,0.162,1.951,0.915,-0.427,458.834
113434,148321,9723,-0.083,1.038,0.13,3.293,2.317,-1.037,458.84
113435,148410,11330,-0.083,1.038,0.13,3.293,2.317,-1.037,458.844
113435,148328,9742,-0.094,1,0.094,1.707,2.622,-1.037,458.85
113445,148410,11330,-0.094,1,0.094,1.707,2.622,-1.037,458.854
113445,148334,9721,-0.086,1.014,0.085,0.122,1.951,-0.305,458.86
113417,148410,11330,-0.086,1.014,0.085,0.122,1.951,-0.305,458.864
113417,148323,9727,-0.082,1.062,0.088,1.037,0.854,0.183,458.87
113435,148410,11330,-0.082,1.062,0.088,1.037,0.854,0.183,458.874
113435,148332,9729,-0.082,1.049,0.108,-0.793,-0.488,0.854,458.88
113439,148410,11330,-0.082,1.049,0.108,-0.793,-0.488,0.854,458.884
113439,148358,9746,-0.077,1.024,0.111,-4.39,-1.646,0.915,458.89
113486,148410,11330,-0.077,1.024,0.111,-4.39,-1.646,0.915,458.894
113486,148358,9733,-0.076,1.05,0.151,-3.659,-2.012,0.549,458.9
113510,148410,11330,-0.076,1.05,0.151,-3.659,-2.012,0.549,458.904
113510,148383,9745,-0.074,1.069,0.17,-1.037,-1.402,0,458.91
113531,148410,11330,-0.074,1.069,0.17,-1.037,-1.402,0,458.913
113531,148384,9753,-0.071,1.039,0.165,-0.793,-0.61,-0.488,458.92
113619,148410,11330,-0.071,1.039,0.165,-0.793,-0.61,-0.488,458.923
113619,148441,9748,-0.077,1.017,0.167,-0.122,0.61,-1.159,458.93
113649,148666,11330,-0.077,1.017,0.167,-0.122,0.61,-1.159,458.933
113649,148494,9743,-0.073,1.017,0.142,2.744,1.951,-1.768,458.939
113691,148666,11330,-0.074,1.025,0.122,2.744,1.951,-1.768,458.943
113691,148507,9767,-0.078,1.026,0.108,5.976,2.439,-2.378,458.949
113712,148666,11330,-0.083,1.014,0.099,5.976,2.439,-2.378,458.953
113712,148505,9780,-0.088,1.011,0.083,7.988,1.646,-2.195,458.959
113780,148666,11330,-0.086,1.022,0.074,7.988,1.646,-2.195,458.963
113780,148518,9783,-0.083,1.032,0.081,6.585,0.183,-1.402,458.969
113785,148666,11330,-0.085,1.05,0.089,6.585,0.183,-1.402,458.973
113785,148540,9789,-0.084,1.057,0.095,2.378,-1.524,-0.427,458.979
113778,148666,11330,-0.086,1.054,0.093,2.378,-1.524,-0.427,458.983
113778,148581,9780,-0.084,1.039,0.094,-3.476,-2.866,0.305,458.989
113779,148666,11330,-0.083,1.031,0.105,-3.476,-2.866,0.305,458.993
113779,148574,9775,-0.08,1.027,0.127,-5.305,-3.415,0.488,458.999
113801,148666,11330,-0.08,1.028,0.156,-5.305,-3.415,0.488,459.003
113801,148587,9773,-0.075,1.035,0.178,-3.598,-2.622,0.366,459.009
113817,148666,11330,-0.075,1.047,0.185,-3.598,-2.622,0.366,459.012
113817,148589,9783,-0.07,1.054,0.181,-2.317,-1.22,0.122,459.019
113855,148666,11330,-0.068,1.061,0.175,-2.317,-1.22,0.122,459.022
113855,148629,9793,-0.07,1.052,0.174,-1.585,0.305,-0.732,459.029
113905,148666,11330,-0.077,1.032,0.164,-1.585,0.305,-0.732,459.032
113905,148652,9797,-0.089,1.017,0.14,-1.585,1.463,-1.28,459.038
113919,148666,11330,-0.096,1.002,0.117,-1.585,1.463,-1.28,459.042
113919,148652,9788,-0.097,1,0.108,-2.134,1.768,-0.976,459.048
113903,148666,11330,-0.091,1.007,0.103,-2.134,1.768,-0.976,459.052
113903,148639,9791,-0.086,1.021,0.099,-0.915,1.037,-0.305,459.058
113899,148666,11330,-0.087,1.033,0.093,-0.915,1.037,-0.305,459.062
113899,148647,9776,-0.084,1.042,0.093,-1.463,-0.183,0.427,459.068
113892,148666,11330,-0.086,1.041,0.103,-1.463,-0.183,0.427,459.072
113892,148631,9789,-0.084,1.034,0.113,-3.78,-1.341,1.037,459.078
113868,148666,11330,-0.078,1.028,0.123,-3.78,-1.341,1.037,459.082
113868,148621,9791,-0.072,1.026,0.13,-4.634,-1.768,1.524,459.088
113837,148666,11330,-0.065,1.029,0.148,-4.634,-1.768,1.524,459.092
113837,148608,9780,-0.07,1.036,0.167,-4.085,-1.28,1.707,459.098
113804,148666,11330,-0.074,1.047,0.192,-4.085,-1.28,1.707,459.102
113804,148563,9782,-0.07,1.063,0.2,-3.232,0.122,1.341,459.108
113776,148666,11330,-0.064,1.07,0.174,-3.232,0.122,1.341,459.111
113776,148560,9778,-0.062,1.06,0.158,-1.707,1.402,0.244,459.118
113755,148666,11330,-0.064,1.037,0.163,-1.707,1.402,0.244,459.121
113755,148557,9778,-0.077,1.016,0.151,0.244,2.683,-0.671,459.128
113759,148666,11330,-0.087,1.008,0.139,0.244,2.683,-0.671,459.131
113759,148551,9777,-0.085,1.005,0.127,0.488,3.415,-0.671,459.137
113747,148666,11330,-0.083,1.006,0.108,0.488,3.415,-0.671,459.141
113747,148530,9773,-0.085,1.019,0.084,1.22,2.988,-0.61,459.147
113728,148666,11330,-0.092,1.029,0.074,1.22,2.988,-0.61,459.151
113728,148495,9763,-0.096,1.034,0.084,0.122,1.89,0.244,459.157
113707,148666,11330,-0.095,1.033,0.084,0.122,1.89,0.244,459.161
113707,148512,9754,-0.09,1.038,0.082,-2.012,0.305,1.098,459.167
113721,148666,11330,-0.083,1.042,0.095,-2.012,0.305,1.098,459.171
113721,148506,9770,-0.082,1.037,0.109,-2.988,-0.915,1.402,459.177
113681,148666,11330,-0.084,1.039,0.112,-2.988,-0.915,1.402,459.181
113681,148492,9777,-0.087,1.048,0.121,-2.805,-1.341,1.098,459.187
113659,148410,11330,-0.084,1.062,0.15,-2.805,-1.341,1.098,459.191
113659,148477,9740,-0.072,1.061,0.177,-2.256,-1.341,0.671,459.197
113638,148410,11330,-0.07,1.049,0.194,-2.256,-1.341,0.671,459.201
113638,148452,9769,-0.071,1.048,0.178,-1.829,-0.488,0.305,459.207
113587,148410,11330,-0.067,1.041,0.158,-1.829,-0.488,0.305,459.21
113587,148455,9751,-0.069,1.031,0.159,-1.585,0.549,-0.427,459.217
113570,148410,11330,-0.073,1.026,0.162,-1.585,0.549,-0.427,459.22
113570,148417,9755,-0.081,1.027,0.154,-0.366,1.28,-0.976,459.227
113552,148410,11330,-0.084,1.021,0.14,-0.366,1.28,-0.976,459.23
113552,148392,9734,-0.081,1.009,0.127,-1.037,1.707,-0.61,459.236
113502,148410,11330,-0.083,1,0.111,-1.037,1.707,-0.61,459.24
113502,148363,9748,-0.088,1.001,0.104,-0.732,1.341,-0.183,459.246
113481,148410,11330,-0.09,1.011,0.096,-0.732,1.341,-0.183,459.25
113481,148350,9749,-0.091,1.037,0.094,0.671,0.854,0.366,459.256
113496,148410,11330,-0.087,1.055,0.102,0.671,0.854,0.366,459.26
113496,148357,9738,-0.086,1.053,0.105,0.366,-0.244,0.671,459.266
113492,148410,11330,-0.086,1.052,0.111,0.366,-0.244,0.671,459.27
113492,148328,9729,-0.082,1.041,0.116,-2.622,-1.159,1.28,459.276
113470,148410,11330,-0.076,1.023,0.126,-2.622,-1.159,1.28,459.28
113470,148320,9729,-0.073,1.024,0.132,-2.439,-1.341,1.28,459.286
113476,148410,11330,-0.07,1.046,0.139,-2.439,-1.341,1.28,459.29
113476,148326,9741,-0.074,1.069,0.15,0.366,-0.793,0.488,459.296
113450,148410,11330,-0.079,1.084,0.163,0.366,-0.793,0.488,459.3
113450,148307,9731,-0.08,1.079,0.183,0.793,-0.122,-0.366,459.306
113441,148410,11330,-0.074,1.07,0.171,0.793,-0.122,-0.366,459.309
113441,148321,9743,-0.071,1.051,0.147,-0.976,0.427,-0.915,459.316
113451,148410,11330,-0.074,1.029,0.132,-0.976,0.427,-0.915,459.319
113451,148321,9739,-0.081,1.016,0.125,-1.28,0.793,-1.707,459.326
113451,148410,11330,-0.089,1.015,0.123,-1.28,0.793,-1.707,459.329
113451,148326,9734,-0.093,1.015,0.127,0.305,1.098,-2.134,459.335
113444,148410,11330,-0.089,1.021,0.125,0.305,1.098,-2.134,459.339
113444,148337,9735,-0.088,1.028,0.115,1.707,0.732,-1.829,459.345
113449,148410,11330,-0.091,1.02,0.104,1.707,0.732,-1.829,459.349
113449,148312,9738,-0.099,1.012,0.101,1.341,-0.183,-1.28,459.355
113419,148410,11330,-0.095,0.999,0.107,1.341,-0.183,-1.28,459.359
113419,148311,9739,-0.09,0.987,0.118,1.829,-1.037,-0.732,459.365
113411,148410,11330,-0.089,0.997,0.125,1.829,-1.037,-0.732,459.369
113411,148289,9727,-0.085,1.012,0.121,3.659,-1.341,0.122,459.375
113397,148410,11330,-0.085,1.012,0.121,3.659,-1.341,0.122,459.379
113397,148277,9728,-0.078,1.064,0.138,4.451,-1.646,0.305,459.385
113375,148410,11330,-0.078,1.064,0.138,4.451,-1.646,0.305,459.389
113375,148286,9725,-0.072,1.075,0.165,2.927,-1.28,0.366,459.395
113374,148410,11330,-0.072,1.075,0.165,2.927,-1.28,0.366,459.399
113374,148273,9729,-0.073,1.055,0.154,-0.976,-0.915,0.305,459.405
113360,148410,11330,-0.073,1.055,0.154,-0.976,-0.915,0.305,459.408
113360,148270,9715,-0.072,1.056,0.148,-2.927,-0.244,-0.366,459.415
113377,148410,11330,-0.072,1.056,0.148,-2.927,-0.244,-0.366,459.418
113377,148292,9725,-0.076,1.029,0.148,-2.256,0.61,-1.159,459.424
113405,148410,11330,-0.076,1.029,0.148,-2.256,0.61,-1.159,459.428
113405,148298,9727,-0.095,1.009,0.13,-2.561,0.854,-1.098,459.434
113413,148410,11330,-0.095,1.009,0.13,-2.561,0.854,-1.098,459.438
113413,148294,9742,-0.093,0.988,0.145,-1.28,0.976,-0.732,459.444
113412,148410,11330,-0.093,0.988,0.145,-1.28,0.976,-0.732,459.448
113412,148295,9724,-0.083,1.017,0.131,0.549,1.037,0.061,459.454
113409,148410,11330,-0.083,1.017,0.131,0.549,1.037,0.061,459.458
113409,148300,9727,-0.088,1.036,0.137,0.732,1.159,0.549,459.464
113426,148410,11330,-0.088,1.036,0.137,0.732,1.159,0.549,459.468
113426,148330,9728,-0.085,1.028,0.128,-0.488,0.793,0.976,459.474
113409,148410,11330,-0.085,1.028,0.128,-0.488,0.793,0.976,459.478
113409,148305,9710,-0.076,1.025,0.127,-0.915,0.488,1.28,459.484
113396,148410,11330,-0.076,1.025,0.127,-0.915,0.488,1.28,459.488
113396,148342,9717,-0.074,1.048,0.144,-0.305,0.732,1.22,459.494
113396,148410,11330,-0.074,1.048,0.144,-0.305,0.732,1.22,459.498
113396,148292,9721,-0.072,1.05,0.142,0,1.037,0.854,459.504
113376,148410,11330,-0.072,1.05,0.142,0,1.037,0.854,459.507
113376,148291,9729,-0.074,1.046,0.144,-0.488,1.28,0.671,459.514
113376,148410,11330,-0.074,1.046,0.144,-0.488,1.28,0.671,459.517
113376,148292,9719,-0.076,1.045,0.155,-0.488,1.28,0.671,459.523
113394,148410,11330,-0.081,1.046,0.151,-0.854,1.829,0.183,459.527
113394,148321,9712,-0.082,1.042,0.136,-0.854,1.829,0.183,459.533
113370,148410,11330,-0.081,1.033,0.13,-1.585,2.012,0,459.537
113370,148288,9722,-0.086,1.023,0.124,-1.585,2.012,0,459.543
113371,148410,11330,-0.086,1.017,0.114,-1.829,1.89,-0.061,459.547
113371,148265,9715,-0.092,1.021,0.107,-1.829,1.89,-0.061,459.553
113351,148410,11330,-0.096,1.024,0.097,-2.134,1.585,0.366,459.557
113351,148267,9724,-0.093,1.024,0.09,-2.134,1.585,0.366,459.563
113347,148410,11330,-0.09,1.025,0.089,-2.317,0.488,0.732,459.567
113347,148261,9721,-0.091,1.021,0.096,-2.317,0.488,0.732,459.573
113358,148410,11330,-0.088,1.024,0.104,-1.768,-0.61,1.037,459.577
113358,148275,9730,-0.082,1.031,0.119,-1.768,-0.61,1.037,459.583
113340,148410,11330,-0.08,1.043,0.13,0.549,-0.915,1.037,459.587
113340,148272,9732,-0.077,1.054,0.137,0.549,-0.915,1.037,459.593
113355,148410,11330,-0.076,1.066,0.145,1.951,-0.854,0.427,459.596
113355,148271,9717,-0.081,1.06,0.158,1.951,-0.854,0.427,459.603
113354,148410,11330,-0.08,1.049,0.163,1.159,-0.427,0.122,459.606
113354,148299,9713,-0.082,1.043,0.161,1.159,-0.427,0.122,459.613
113363,148410,11330,-0.08,1.044,0.161,-0.732,-0.122,0,459.616
113363,148280,9731,-0.079,1.043,0.155,-0.732,-0.122,0,459.622
113361,148410,11330,-0.081,1.037,0.141,-1.89,0.244,-0.366,459.626
113361,148285,9728,-0.092,1.026,0.132,-1.89,0.244,-0.366,459.632
113397,148410,11330,-0.096,1.018,0.124,-3.232,0.427,-0.427,459.636
113397,148280,9714,-0.093,1.009,0.116,-3.232,0.427,-0.427,459.642
113371,148410,11330,-0.089,1.003,0.112,-3.476,0.183,-0.061,459.646
113371,148292,9723,-0.085,1.012,0.109,-3.476,0.183,-0.061,459.652
113370,148410,11330,-0.086,1.025,0.111,-1.585,-0.549,0.183,459.656
113370,148289,9716,-0.083,1.035,0.112,-1.585,-0.549,0.183,459.662
113396,148410,11330,-0.08,1.041,0.122,0.488,-1.037,0.061,459.666
113396,148294,9728,-0.084,1.043,0.13,0.488,-1.037,0.061,459.672
113385,148410,11330,-0.086,1.05,0.135,0.793,-1.28,-0.061,459.676
113385,148273,9723,-0.083,1.049,0.139,0.793,-1.28,-0.061,459.682
113386,148410,11330,-0.081,1.049,0.148,-0.244,-1.037,-0.244,459.686
113386,148313,9729,-0.078,1.046,0.155,-0.244,-1.037,-0.244,459.692
113389,148410,11330,-0.078,1.038,0.158,-0.976,-0.61,-0.305,459.695
113389,148310,9725,-0.078,1.021,0.167,-0.976,-0.61,-0.305,459.702
113397,148410,11330,-0.079,1.022,0.167,-0.549,0.183,-0.305,459.705
113397,148323,9725,-0.08,1.033,0.161,-0.549,0.183,-0.305,459.712
113432,148410,11330,-0.079,1.035,0.166,-0.61,0.915,-0.366,459.715
113432,148334,9742,-0.079,1.031,0.172,-0.61,0.915,-0.366,459.721
113439,148410,11330,-0.082,1.034,0.15,-1.341,1.524,-0.122,459.725
113439,148346,9739,-0.086,1.022,0.125,-1.341,1.524,-0.122,459.731
113484,148410,11330,-0.083,1.007,0.121,-2.805,1.463,0.305,459.735
113484,148375,9725,-0.083,1.009,0.112,-2.805,1.463,0.305,459.741
113510,148410,11330,-0.087,1.007,0.096,-2.317,1.037,0.793,459.745
113510,148356,9732,-0.087,1.007,0.098,-2.317,1.037,0.793,459.751
113495,148410,11330,-0.086,1.015,0.098,-1.646,0.427,1.341,459.755
113495,148384,9746,-0.082,1.028,0.11,-1.646,0.427,1.341,459.761
113507,148410,11330,-0.078,1.042,0.128,-1.829,-0.488,1.829,459.765
113507,148388,9740,-0.077,1.053,0.143,-1.829,-0.488,1.829,459.771
113518,148410,11330,-0.079,1.063,0.146,-1.829,-0.854,1.768,459.775
113518,148387,9737,-0.084,1.066,0.134,-1.829,-0.854,1.768,459.781
113504,148410,11330,-0.085,1.071,0.135,-1.524,-0.732,1.037,459.785
113504,148383,9747,-0.084,1.073,0.146,-1.524,-0.732,1.037,459.791
113512,148410,11330,-0.084,1.056,0.156,-0.549,-0.305,-0.183,459.794
113512,148377,9735,-0.089,1.034,0.154,-0.549,-0.305,-0.183,459.801
113498,148410,11330,-0.089,1.023,0.139,-1.463,0.305,-0.427,459.804
113498,148364,9735,-0.091,1.019,0.132,-1.463,0.305,-0.427,459.811
113507,148410,11330,-0.089,1.014,0.138,-3.11,0.549,-0.366,459.814
113507,148354,9738,-0.094,1.019,0.137,-3.11,0.549,-0.366,459.82
113485,148410,11330,-0.094,1.018,0.131,-3.902,0.732,0.061,459.824
113485,148366,9746,-0.089,1.011,0.132,-3.902,0.732,0.061,459.83
113505,148410,11330,-0.085,1.009,0.128,-4.634,0.488,0.793,459.834
113505,148379,9731,-0.082,1.008,0.139,-4.634,0.488,0.793,459.84
113491,148410,11330,-0.077,1.012,0.134,-3.476,0,1.22,459.844
113491,148380,9753,-0.074,1.026,0.132,-3.476,0,1.22,459.85
113471,148410,11330,-0.074,1.033,0.14,-0.976,-0.122,1.22,459.854
113471,148358,9743,-0.076,1.036,0.138,-0.976,-0.122,1.22,459.86
113467,148410,11330,-0.075,1.04,0.138,0.488,-0.183,1.159,459.864
113467,148361,9734,-0.07,1.039,0.145,0.488,-0.183,1.159,459.87
113471,148410,11330,-0.067,1.039,0.15,1.402,-0.366,1.037,459.874
113471,148349,9736,-0.071,1.047,0.149,1.402,-0.366,1.037,459.88
113457,148410,11330,-0.073,1.057,0.152,2.256,-0.061,0.61,459.884
113457,148352,9743,-0.076,1.063,0.151,2.256,-0.061,0.61,459.89
113471,148410,11330,-0.079,1.058,0.153,1.89,0.305,-0.061,459.893
113471,148356,9752,-0.08,1.043,0.153,1.89,0.305,-0.061,459.9
113472,148410,11330,-0.083,1.033,0.141,0.305,0.793,-0.244,459.903
113472,148372,9730,-0.081,1.02,0.14,0.305,0.793,-0.244,459.91
113468,148410,11330,-0.086,1.022,0.139,-0.488,1.28,-0.366,459.913
113468,148371,9742,-0.093,1.029,0.131,-0.488,1.28,-0.366,459.919
113457,148410,11330,-0.095,1.025,0.123,-1.585,1.524,0,459.923
113457,148364,9744,-0.095,1.015,0.118,-1.585,1.524,0,459.929
113464,148410,11330,-0.094,1.019,0.116,-1.829,1.22,0.366,459.933
113464,148372,9743,-0.088,1.032,0.13,-1.829,1.22,0.366,459.939
113457,148410,11330,-0.081,1.04,0.136,-0.976,0.793,0.732,459.943
113457,148339,9725,-0.08,1.042,0.131,-0.976,0.793,0.732,459.949
113424,148410,11330,-0.08,1.042,0.131,-0.976,0.793,0.732,459.953
113424,148318,9726,-0.086,1.036,0.137,-0.122,0.427,0.305,459.959
113399,148410,11330,-0.086,1.036,0.137,-0.122,0.427,0.305,459.963
113399,148284,9738,-0.078,1.041,0.144,0,0.244,0.244,459.969
113369,148410,11330,-0.078,1.041,0.144,0,0.244,0.244,459.973
113369,148267,9735,-0.073,1.058,0.151,0.976,0.183,-0.061,459.979
113340,148410,11330,-0.073,1.058,0.151,0.976,0.183,-0.061,459.983
113340,148267,9730,-0.078,1.056,0.143,1.341,0.366,-0.488,459.989
113330,148410,11330,-0.078,1.056,0.143,1.341,0.366,-0.488,459.992
113330,148246,9735,-0.078,1.031,0.136,0.854,0.549,-1.098,459.999
113296,148410,11330,-0.078,1.031,0.136,0.854,0.549,-1.098,460.002
113296,148236,9723,-0.082,1.023,0.117,1.707,0.61,-1.524,460.009
113306,148410,11330,-0.082,1.023,0.117,1.707,0.61,-1.524,460.012
113306,148230,9717,-0.097,1.018,0.112,4.451,0.732,-1.89,460.018
113254,148154,11330,-0.097,1.018,0.112,4.451,0.732,-1.89,460.022
113254,148200,9705,-0.094,1.028,0.125,6.098,0.488,-2.012,460.028
113251,148154,11330,-0.094,1.028,0.125,6.098,0.488,-2.012,460.032
113251,148205,9707,-0.095,1.028,0.118,5.549,-0.183,-1.463,460.038
113232,148154,11330,-0.095,1.028,0.118,5.549,-0.183,-1.463,460.042
113232,148213,9709,-0.095,1.032,0.141,2.988,-1.098,-0.854,460.048
113251,148154,11330,-0.095,1.032,0.141,2.988,-1.098,-0.854,460.052
113251,148216,9713,-0.089,1.034,0.139,0.244,-1.037,-0.183,460.058
113263,148410,11330,-0.089,1.034,0.139,0.244,-1.037,-0.183,460.062
113263,148235,9715,-0.085,1.027,0.15,-1.585,-1.098,0.244,460.068
113249,148410,11330,-0.085,1.027,0.15,-1.585,-1.098,0.244,460.072
113249,148231,9711,-0.078,1.026,0.154,-0.854,-0.915,0.305,460.078
113270,148410,11330,-0.078,1.026,0.154,-0.854,-0.915,0.305,460.082
113270,148225,9721,-0.072,1.059,0.153,0.854,-0.305,0.183,460.088
113251,148154,11330,-0.072,1.059,0.153,0.854,-0.305,0.183,460.091
113251,148222,9718,-0.072,1.052,0.156,1.22,0.061,-0.183,460.098
113273,148410,11330,-0.077,1.04,0.147,1.22,0.061,-0.183,460.101
113273,148235,9707,-0.087,1.026,0.132,-0.732,0.122,-0.244,460.108
113328,148410,11330,-0.08,1.005,0.124,-0.732,0.122,-0.244,460.111
113328,148260,9721,-0.077,1.004,0.124,-0.732,-0.122,0,460.117
113344,148410,11330,-0.08,1.019,0.131,-0.732,-0.122,0,460.121
113344,148270,9717,-0.077,1.034,0.135,2.012,-0.061,0.122,460.127
113354,148410,11330,-0.077,1.047,0.134,2.012,-0.061,0.122,460.131
113354,148284,9728,-0.081,1.05,0.133,2.195,-0.061,0,460.137
113398,148410,11330,-0.084,1.042,0.134,2.195,-0.061,0,460.141
113398,148327,9730,-0.087,1.03,0.129,0.183,-0.244,0.061,460.147
113391,148410,11330,-0.084,1.025,0.131,0.183,-0.244,0.061,460.151
113391,148333,9731,-0.08,1.029,0.144,-0.366,0,0.122,460.157
113419,148410,11330,-0.085,1.038,0.143,-0.366,0,0.122,460.161
113419,148318,9728,-0.091,1.047,0.142,-0.305,0.61,0.061,460.167
113399,148410,11330,-0.093,1.046,0.144,-0.305,0.61,0.061,460.171
113399,148313,9744,-0.093,1.034,0.146,-1.22,0.732,0.061,460.177
113401,148410,11330,-0.094,1.026,0.143,-1.22,0.732,0.061,460.181
113401,148325,9735,-0.088,1.031,0.14,-0.915,0.854,0.122,460.187
113395,148410,11330,-0.084,1.033,0.146,-0.915,0.854,0.122,460.19
113395,148333,9741,-0.084,1.039,0.146,0.854,1.159,-0.244,460.197
113412,148410,11330,-0.087,1.04,0.144,0.854,1.159,-0.244,460.2
113412,148327,9743,-0.089,1.033,0.143,1.524,1.463,-0.549,460.206
113448,148410,11330,-0.09,1.027,0.131,1.524,1.463,-0.549,460.21
113448,148337,9738,-0.088,1.022,0.123,-0.061,1.463,-0.366,460.216
113463,148410,11330,-0.088,1.011,0.109,-0.061,1.463,-0.366,460.22
113463,148354,9743,-0.087,1.011,0.103,-1.159,0.976,0.122,460.226
113469,148410,11330,-0.085,1.023,0.098,-1.159,0.976,0.122,460.23
113469,148383,9746,-0.084,1.034,0.104,-0.732,0.366,0.427,460.236
113472,148410,11330,-0.081,1.041,0.112,-0.732,0.366,0.427,460.24
113472,148379,9739,-0.081,1.044,0.115,0.061,-0.488,0.427,460.246
113466,148410,11330,-0.084,1.042,0.125,0.061,-0.488,0.427,460.25
113466,148382,9744,-0.086,1.038,0.133,-0.122,-0.793,0.244,460.256
113456,148410,11330,-0.089,1.031,0.143,-0.122,-0.793,0.244,460.26
113456,148388,9743,-0.083,1.03,0.155,-0.671,-0.427,0.183,460.266
113454,148410,11330,-0.084,1.034,0.165,-0.671,-0.427,0.183,460.27
113454,148376,9742,-0.082,1.043,0.165,-0.854,0.244,0.183,460.276
113453,148410,11330,-0.082,1.05,0.168,-0.854,0.244,0.183,460.28
113453,148381,9735,-0.085,1.046,0.166,-1.585,1.098,0.061,460.286
113480,148410,11330,-0.084,1.035,0.16,-1.585,1.098,0.061,460.289
113480,148391,9754,-0.085,1.018,0.153,-1.89,2.073,-0.122,460.296
113491,148410,11330,-0.087,1.015,0.138,-1.89,2.073,-0.122,460.299
113491,148391,9754,-0.094,1.016,0.122,-1.89,2.378,0.305,460.305
113492,148410,11330,-0.093,1.017,0.11,-1.89,2.378,0.305,460.309
113492,148390,9759,-0.086,1.021,0.107,-0.854,2.134,0.61,460.315
113512,148410,11330,-0.083,1.026,0.11,-0.854,2.134,0.61,460.319
113512,148417,9743,-0.083,1.032,0.112,-0.183,1.28,1.037,460.325
113520,148410,11330,-0.079,1.031,0.108,-0.183,1.28,1.037,460.329
113520,148406,9741,-0.079,1.037,0.112,0.366,0.61,1.22,460.335
113498,148410,11330,-0.082,1.043,0.119,0.366,0.61,1.22,460.339
113498,148417,9747,-0.083,1.043,0.125,1.951,0.122,0.854,460.345
113520,148410,11330,-0.089,1.055,0.121,1.951,0.122,0.854,460.349
113520,148410,9760,-0.086,1.058,0.126,2.805,-0.061,0.366,460.355
113523,148410,11330,-0.081,1.055,0.154,2.805,-0.061,0.366,460.359
113523,148398,9749,-0.078,1.052,0.186,3.11,0.122,0.061,460.365
113505,148410,11330,-0.074,1.049,0.181,3.11,0.122,0.061,460.369
113505,148422,9741,-0.077,1.049,0.151,1.585,1.037,-0.061,460.375
113500,148410,11330,-0.081,1.053,0.131,1.585,1.037,-0.061,460.379
113500,148424,9752,-0.084,1.043,0.139,0,1.585,-1.098,460.385
113514,148410,11330,-0.091,1.031,0.147,0,1.585,-1.098,460.388
113514,148392,9753,-0.094,1.019,0.136,-2.073,1.829,-0.976,460.395
113508,148410,11330,-0.09,1.002,0.117,-2.073,1.829,-0.976,460.398
113508,148398,9754,-0.086,0.994,0.094,-3.841,1.28,-0.244,460.405
113505,148410,11330,-0.094,0.999,0.079,-3.841,1.28,-0.244,460.408
113505,148408,9743,-0.104,1.013,0.077,-2.927,0.305,0.122,460.414
113469,148410,11330,-0.105,1.031,0.082,-2.927,0.305,0.122,460.418
113469,148371,9743,-0.099,1.039,0.094,-0.915,-0.61,0.305,460.424
113450,148410,11330,-0.094,1.046,0.107,-0.915,-0.61,0.305,460.428
113450,148373,9746,-0.089,1.049,0.117,-0.427,-1.89,0.671,460.434
113448,148410,11330,-0.084,1.043,0.125,-0.427,-1.89,0.671,460.438
113448,148371,9753,-0.082,1.037,0.14,-0.427,-2.439,0.61,460.444
113440,148410,11330,-0.088,1.032,0.147,-0.427,-2.439,0.61,460.448
113440,148343,9758,-0.094,1.039,0.153,0,-2.012,0.305,460.454
113445,148410,11330,-0.093,1.048,0.159,0,-2.012,0.305,460.458
113445,148373,9747,-0.088,1.05,0.167,-0.183,-1.402,0.061,460.464
113442,148410,11330,-0.083,1.047,0.177,-0.183,-1.402,0.061,460.468
113442,148352,9753,-0.08,1.038,0.178,-0.793,-1.037,-0.061,460.474
113428,148410,11330,-0.075,1.024,0.182,-0.793,-1.037,-0.061,460.478
113428,148359,9724,-0.08,1.013,0.175,-1.829,-0.122,0.061,460.484
113420,148410,11330,-0.079,1.016,0.166,-1.829,-0.122,0.061,460.487
113420,148340,9742,-0.078,1.02,0.162,-2.744,0.854,0.122,460.494
113426,148410,11330,-0.075,1.016,0.154,-2.744,0.854,0.122,460.497
113426,148368,9739,-0.081,1.011,0.138,-2.805,1.341,0.427,460.503
113456,148410,11330,-0.089,1.008,0.115,-2.805,1.341,0.427,460.507
113456,148361,9747,-0.091,1.004,0.099,-3.11,1.341,0.976,460.513
113426,148410,11330,-0.091,1.008,0.091,-3.11,1.341,0.976,460.517
113426,148358,9726,-0.089,1.022,0.1,-2.622,0.61,1.524,460.523
113426,148410,11330,-0.084,1.038,0.104,-2.622,0.61,1.524,460.527
113426,148370,9739,-0.082,1.045,0.11,-2.256,-0.244,2.134,460.533
113437,148410,11330,-0.082,1.045,0.11,-2.256,-0.244,2.134,460.537
113437,148379,9752,-0.073,1.048,0.12,-1.159,-0.915,1.951,460.543
113470,148410,11330,-0.073,1.048,0.12,-1.159,-0.915,1.951,460.547
113470,148403,9729,-0.083,1.05,0.146,1.22,-0.671,1.098,460.553
113472,148410,11330,-0.083,1.05,0.146,1.22,-0.671,1.098,460.557
113472,148394,9736,-0.085,1.065,0.167,2.317,0.183,0.366,460.563
113501,148410,11330,-0.085,1.065,0.167,2.317,0.183,0.366,460.567
113501,148399,9763,-0.083,1.051,0.184,1.524,0.915,-0.183,460.573
113514,148410,11330,-0.083,1.051,0.184,1.524,0.915,-0.183,460.576
113514,148408,9738,-0.09,1.026,0.161,-0.122,1.707,-0.427,460.583
113526,148410,11330,-0.09,1.026,0.161,-0.122,1.707,-0.427,460.586
113526,148424,9760,-0.089,1.018,0.149,-0.305,2.317,-0.915,460.593
113519,148410,11330,-0.089,1.018,0.149,-0.305,2.317,-0.915,460.596
113519,148403,9751,-0.09,1.021,0.127,-0.549,2.439,-0.305,460.602
113522,148410,11330,-0.09,1.021,0.127,-0.549,2.439,-0.305,460.606
113522,148429,9747,-0.085,1.006,0.103,-0.549,2.012,0.183,460.612
113529,148410,11330,-0.085,1.006,0.103,-0.549,2.012,0.183,460.616
113529,148454,9753,-0.087,1.014,0.109,0.122,1.402,0.671,460.622
113537,148410,11330,-0.087,1.014,0.109,0.122,1.402,0.671,460.626
113537,148436,9735,-0.08,1.027,0.123,0.793,0.915,1.28,460.632
113517,148410,11330,-0.08,1.027,0.123,0.793,0.915,1.28,460.636
113517,148400,9743,-0.073,1.039,0.13,0.915,0.244,1.524,460.642
113434,148410,11330,-0.073,1.039,0.13,0.915,0.244,1.524,460.646
113434,148333,9726,-0.081,1.049,0.148,0.976,0.366,1.28,460.652
113409,148410,11330,-0.081,1.049,0.148,0.976,0.366,1.28,460.656
113409,148350,9733,-0.08,1.047,0.144,0.366,0.488,1.098,460.662
113376,148410,11330,-0.08,1.047,0.144,0.366,0.488,1.098,460.666
113376,148325,9722,-0.084,1.035,0.145,0.366,0.61,0.671,460.672
113357,148410,11330,-0.084,1.035,0.145,0.366,0.61,0.671,460.675
113357,148310,9731,-0.092,1.04,0.145,0.366,0.61,0.671,460.682
113373,148410,11330,-0.094,1.044,0.149,0.183,1.098,0.366,460.685
113373,148323,9726,-0.093,1.036,0.148,0.183,1.098,0.366,460.692
113363,148410,11330,-0.093,1.029,0.133,-0.732,1.098,0.366,460.695
113363,148325,9725,-0.094,1.022,0.126,-0.732,1.098,0.366,460.701
113350,148410,11330,-0.095,1.011,0.124,-1.463,0.976,0.61,460.705
113350,148308,9732,-0.094,1.011,0.118,-1.463,0.976,0.61,460.711
113333,148410,11330,-0.094,1.018,0.106,-0.732,0.793,0.976,460.715
113333,148316,9736,-0.09,1.031,0.102,-0.732,0.793,0.976,460.721
113334,148410,11330,-0.088,1.04,0.113,0.976,0.122,1.159,460.725
113334,148315,9736,-0.086,1.043,0.115,0.976,0.122,1.159,460.731
113370,148410,11330,-0.091,1.045,0.12,1.22,-0.366,1.159,460.735
113370,148312,9727,-0.089,1.046,0.118,1.22,-0.366,1.159,460.741
113360,148410,11330,-0.081,1.042,0.127,-0.061,-0.732,1.22,460.745
113360,148288,9720,-0.081,1.036,0.142,-0.061,-0.732,1.22,460.751
113335,148410,11330,-0.079,1.041,0.147,0,-0.854,1.037,460.755
113335,148296,9722,-0.073,1.047,0.157,0,-0.854,1.037,460.761
113325,148410,11330,-0.073,1.049,0.157,0.122,-0.305,0.732,460.765
113325,148298,9720,-0.074,1.05,0.164,0.122,-0.305,0.732,460.771
113318,148410,11330,-0.079,1.044,0.161,-0.427,0.061,0.366,460.774
113318,148319,9728,-0.077,1.033,0.155,-0.427,0.061,0.366,460.781
113327,148410,11330,-0.078,1.025,0.145,-0.549,0.549,-0.061,460.784
113327,148284,9738,-0.079,1.022,0.149,-0.549,0.549,-0.061,460.791
113354,148410,11330,-0.082,1.025,0.146,0.244,1.159,-0.183,460.794
113354,148327,9733,-0.087,1.025,0.141,0.244,1.159,-0.183,460.8
