125123,157114,11330,-0.093,1.022,0.198,-0.183,-0.122,0.854,648.358
125123,156980,11221,-0.094,1.023,0.201,-0.976,-0.122,0.915,648.364
125146,157114,11330,-0.088,1.025,0.205,-0.976,-0.122,0.915,648.368
125146,156989,11220,-0.088,1.024,0.208,-0.488,-0.366,0.915,648.374
125125,157114,11330,-0.088,1.029,0.208,-0.488,-0.366,0.915,648.378
125125,156990,11233,-0.089,1.033,0.205,-0.366,0,0.793,648.384
125134,157114,11330,-0.088,1.032,0.204,-0.366,0,0.793,648.388
125134,156992,11228,-0.09,1.032,0.208,-0.671,0.61,0.427,648.394
125129,157114,11330,-0.089,1.028,0.21,-0.671,0.61,0.427,648.398
125129,157000,11217,-0.087,1.024,0.211,-0.549,0.732,0,648.404
125118,157114,11330,-0.088,1.023,0.211,-0.549,0.732,0,648.408
125118,156985,11233,-0.089,1.024,0.212,-0.549,0.854,0.183,648.414
125142,157114,11330,-0.092,1.018,0.208,-0.549,0.854,0.183,648.418
125142,156984,11217,-0.091,1.016,0.2,-0.976,1.402,0.183,648.424
125136,157114,11330,-0.093,1.008,0.196,-0.976,1.402,0.183,648.427
125136,156976,11225,-0.093,1.007,0.195,-0.854,1.463,-0.061,648.434
125106,157114,11330,-0.092,1.013,0.197,-0.854,1.463,-0.061,648.437
125106,156963,11234,-0.091,1.017,0.203,0.122,0.854,0.244,648.443
125143,157114,11330,-0.092,1.02,0.202,0.122,0.854,0.244,648.447
125143,156966,11228,-0.089,1.024,0.197,0.976,0.61,0.427,648.453
125145,157114,11330,-0.086,1.026,0.196,0.976,0.61,0.427,648.457
125145,156989,11239,-0.089,1.033,0.2,0.366,0.976,0.61,648.463
125135,157114,11330,-0.095,1.036,0.202,0.366,0.976,0.61,648.467
125135,156968,11232,-0.092,1.033,0.208,-1.098,0.732,0.732,648.473
125137,157114,11330,-0.086,1.026,0.213,-1.098,0.732,0.732,648.477
125137,156988,11232,-0.085,1.019,0.209,-1.829,-0.061,0.366,648.483
125169,157114,11330,-0.087,1.021,0.199,-1.829,-0.061,0.366,648.487
125169,156988,11233,-0.086,1.02,0.199,-1.951,0.488,0.305,648.493
125140,157114,11330,-0.091,1.019,0.201,-1.951,0.488,0.305,648.497
125140,157012,11227,-0.095,1.024,0.207,-1.28,0.976,0.305,648.503
125167,157114,11330,-0.093,1.029,0.206,-1.28,0.976,0.305,648.507
125167,157022,11245,-0.094,1.03,0.211,-0.793,0.976,0.305,648.513
125153,157114,11330,-0.09,1.027,0.207,-0.793,0.976,0.305,648.516
125153,157040,11235,-0.086,1.023,0.209,-0.976,0.671,0.061,648.523
125158,157114,11330,-0.085,1.023,0.205,-0.976,0.671,0.061,648.526
125158,157023,11231,-0.084,1.019,0.199,-1.037,0.793,-0.183,648.533
125183,157114,11330,-0.085,1.014,0.195,-1.037,0.793,-0.183,648.536
125183,157054,11238,-0.088,1.013,0.194,-0.854,1.341,0.061,648.542
125173,157114,11330,-0.093,1.015,0.197,-0.854,1.341,0.061,648.546
125173,157072,11230,-0.091,1.021,0.197,-0.244,1.402,0.305,648.552
125163,157114,11330,-0.09,1.021,0.205,-0.244,1.402,0.305,648.556
125163,157069,11230,-0.09,1.023,0.204,-0.244,0.549,0.549,648.562
125124,157114,11330,-0.089,1.025,0.205,-0.244,0.549,0.549,648.566
125124,157087,11218,-0.086,1.025,0.203,-0.915,0.061,0.61,648.572
125142,157114,11330,-0.09,1.026,0.191,-0.915,0.061,0.61,648.576
125142,157057,11233,-0.095,1.027,0.197,-1.463,0.427,0.427,648.582
125107,157114,11330,-0.094,1.023,0.205,-1.463,0.427,0.427,648.586
125107,157066,11221,-0.095,1.026,0.207,-1.646,0.549,0.366,648.592
125098,157114,11330,-0.094,1.025,0.211,-1.646,0.549,0.366,648.596
125098,157107,11223,-0.092,1.026,0.211,-1.646,0.061,0.549,648.602
125080,157114,11330,-0.087,1.027,0.208,-1.646,0.061,0.549,648.606
125080,157097,11216,-0.086,1.023,0.208,-1.159,0.183,0.305,648.612
125058,157114,11330,-0.086,1.023,0.208,-1.159,0.183,0.305,648.616
125058,157094,11221,-0.088,1.024,0.207,-0.61,0.488,0.122,648.622
125033,157114,11330,-0.088,1.024,0.207,-0.61,0.488,0.122,648.625
125033,157084,11215,-0.089,1.022,0.209,-0.305,0.732,0.244,648.632
125019,157114,11330,-0.089,1.022,0.209,-0.305,0.732,0.244,648.635
125019,157092,11212,-0.09,1.015,0.201,-0.061,0.793,0.183,648.641
125002,157114,11330,-0.09,1.015,0.201,-0.061,0.793,0.183,648.645
125002,157096,11213,-0.091,1.021,0.2,-0.366,0.793,0.305,648.651
125001,157114,11330,-0.091,1.021,0.2,-0.366,0.793,0.305,648.655
125001,157090,11207,-0.089,1.025,0.199,-0.488,0.61,0.366,648.661
124993,157114,11330,-0.089,1.025,0.199,-0.488,0.61,0.366,648.665
124993,157104,11196,-0.092,1.024,0.205,-0.244,0.244,0.244,648.671
125000,157114,11330,-0.092,1.024,0.205,-0.244,0.244,0.244,648.675
125000,157125,11206,-0.091,1.023,0.199,-0.793,0.244,0.366,648.681
125008,157114,11330,-0.091,1.023,0.199,-0.793,0.244,0.366,648.685
125008,157099,11212,-0.094,1.022,0.194,-1.159,0.488,0.244,648.691
125014,157114,11330,-0.094,1.022,0.194,-1.159,0.488,0.244,648.695
125014,157109,11220,-0.097,1.021,0.202,-0.793,0.244,0.061,648.701
125008,157114,11330,-0.097,1.021,0.202,-0.793,0.244,0.061,648.705
125008,157120,11213,-0.094,1.021,0.208,-0.671,-0.122,0.427,648.711
125034,157114,11330,-0.094,1.021,0.208,-0.671,-0.122,0.427,648.715
125034,157101,11215,-0.088,1.022,0.223,-0.488,-0.305,0.427,648.721
125021,157114,11330,-0.088,1.022,0.223,-0.488,-0.305,0.427,648.724
125021,157100,11214,-0.087,1.032,0.22,-0.854,0.244,0.305,648.731
125058,157114,11330,-0.087,1.032,0.22,-0.854,0.244,0.305,648.734
125058,157108,11205,-0.089,1.026,0.218,-1.037,0.976,0.183,648.74
125060,157114,11330,-0.089,1.026,0.218,-1.037,0.976,0.183,648.744
125060,157108,11206,-0.087,1.016,0.206,-0.549,1.22,0,648.75
125068,157114,11330,-0.087,1.016,0.206,-0.549,1.22,0,648.754
125068,157074,11217,-0.086,1.016,0.203,-0.244,1.037,0,648.76
125063,157114,11330,-0.086,1.016,0.203,-0.244,1.037,0,648.764
125063,157085,11224,-0.083,1.016,0.206,-0.244,1.037,0,648.77
125035,157114,11330,-0.085,1.016,0.21,1.098,0.793,0.244,648.774
125035,157109,11196,-0.085,1.016,0.208,1.098,0.793,0.244,648.78
125069,157114,11330,-0.087,1.016,0.202,1.28,0.976,0.488,648.784
125069,157101,11209,-0.092,1.021,0.198,1.28,0.976,0.488,648.79
125044,157114,11330,-0.096,1.021,0.198,0.366,1.341,0.793,648.794
125044,157122,11222,-0.095,1.025,0.191,0.366,1.341,0.793,648.8
125091,157114,11330,-0.099,1.025,0.187,-1.098,0.976,0.976,648.804
125091,157091,11225,-0.102,1.027,0.193,-1.098,0.976,0.976,648.81
125081,157114,11330,-0.099,1.03,0.198,-2.317,-0.122,1.341,648.813
125081,157111,11217,-0.096,1.029,0.205,-2.317,-0.122,1.341,648.82
125097,157114,11330,-0.093,1.026,0.204,-2.134,-0.976,1.159,648.823
125097,157090,11229,-0.087,1.025,0.205,-2.134,-0.976,1.159,648.83
125121,157114,11330,-0.087,1.026,0.208,-0.915,-0.732,0.488,648.833
125121,157094,11240,-0.091,1.022,0.209,-0.915,-0.732,0.488,648.839
125098,157114,11330,-0.091,1.021,0.211,0.854,0.122,0.122,648.843
125098,157118,11225,-0.092,1.028,0.213,0.854,0.122,0.122,648.849
125119,157114,11330,-0.095,1.032,0.212,1.22,0.793,0,648.853
125119,157083,11230,-0.094,1.03,0.215,1.22,0.793,0,648.859
125108,157114,11330,-0.089,1.026,0.219,0.976,0.732,-0.244,648.863
125108,157102,11213,-0.085,1.023,0.223,0.976,0.732,-0.244,648.869
125097,157114,11330,-0.082,1.021,0.216,0,0.244,-0.488,648.873
125097,157118,11229,-0.079,1.016,0.214,0,0.244,-0.488,648.879
125113,157114,11330,-0.082,1.011,0.211,-0.976,0.305,-0.427,648.883
125113,157115,11225,-0.083,1.008,0.213,-0.976,0.305,-0.427,648.889
125112,157114,11330,-0.085,1.012,0.205,-0.793,1.159,-0.366,648.893
125112,157099,11233,-0.088,1.017,0.198,-0.793,1.159,-0.366,648.899
125127,157114,11330,-0.09,1.018,0.196,-0.732,1.402,-0.061,648.903
125127,157079,11232,-0.092,1.019,0.195,-0.732,1.402,-0.061,648.909
125118,157114,11330,-0.09,1.021,0.198,-0.732,0.61,0.183,648.913
125118,157093,11232,-0.092,1.023,0.198,-0.732,0.61,0.183,648.919
125119,157114,11330,-0.09,1.026,0.195,-1.037,0,0.427,648.922
125119,157112,11234,-0.093,1.03,0.195,-1.037,0,0.427,648.929
125137,157114,11330,-0.095,1.028,0.198,-1.098,-0.244,0.427,648.932
125137,157110,11238,-0.094,1.027,0.201,-1.098,-0.244,0.427,648.938
125115,157114,11330,-0.095,1.025,0.205,-0.915,-0.244,0.427,648.942
125115,157117,11232,-0.094,1.026,0.208,-0.915,-0.244,0.427,648.948
125139,157114,11330,-0.096,1.025,0.212,-0.976,-0.061,0.366,648.952
125139,157128,11237,-0.097,1.023,0.209,-0.976,-0.061,0.366,648.958
125129,157114,11330,-0.095,1.029,0.209,-0.366,0.122,0,648.962
125129,157130,11229,-0.089,1.029,0.207,-0.366,0.122,0,648.968
125121,157114,11330,-0.088,1.03,0.208,0.793,0.366,-0.244,648.972
125121,157118,11224,-0.089,1.029,0.208,0.793,0.366,-0.244,648.978
125114,157114,11330,-0.089,1.02,0.208,1.098,1.098,-0.183,648.982
125114,157125,11211,-0.09,1.018,0.208,1.098,1.098,-0.183,648.988
125115,157114,11330,-0.093,1.017,0.205,0.427,1.402,-0.244,648.992
125115,157135,11233,-0.095,1.02,0.21,0.427,1.402,-0.244,648.998
125110,157114,11330,-0.09,1.017,0.212,0.183,0.915,-0.366,649.002
125110,157110,11240,-0.09,1.017,0.216,0.183,0.915,-0.366,649.008
125124,157114,11330,-0.087,1.018,0.214,0.366,0.549,-0.305,649.011
125124,157140,11233,-0.086,1.024,0.211,0.366,0.549,-0.305,649.018
125119,157114,11330,-0.086,1.031,0.21,-0.061,0.732,-0.183,649.021
125119,157115,11207,-0.084,1.027,0.215,-0.061,0.732,-0.183,649.028
125087,157114,11330,-0.087,1.016,0.209,-0.244,1.037,-0.244,649.031
125087,157114,11228,-0.093,1.003,0.203,-0.244,1.037,-0.244,649.037
125090,157114,11330,-0.096,1.005,0.193,-0.854,0.976,-0.061,649.041
125090,157126,11223,-0.098,1.013,0.189,-0.854,0.976,-0.061,649.047
125067,157114,11330,-0.1,1.018,0.191,-1.037,1.037,0.427,649.051
125067,157136,11220,-0.1,1.024,0.194,-1.037,1.037,0.427,649.057
125072,157114,11330,-0.097,1.028,0.197,-0.122,0.366,0.549,649.061
125072,157096,11224,-0.096,1.036,0.202,-0.122,0.366,0.549,649.067
125064,157114,11330,-0.095,1.037,0.203,-0.549,-0.305,0.671,649.071
125064,157136,11215,-0.094,1.036,0.208,-0.549,-0.305,0.671,649.077
125050,157114,11330,-0.091,1.033,0.212,-1.037,-0.183,0.488,649.081
125050,157094,11218,-0.087,1.029,0.211,-1.037,-0.183,0.488,649.087
125033,157114,11330,-0.087,1.024,0.205,-1.463,0.244,0.183,649.091
125033,157076,11214,-0.092,1.016,0.2,-1.463,0.244,0.183,649.097
125027,157114,11330,-0.096,1.011,0.197,-1.341,0.732,0,649.101
125027,157090,11206,-0.097,1.016,0.199,-1.341,0.732,0,649.107
125002,157114,11330,-0.098,1.024,0.201,-0.915,0.854,0,649.111
125002,157079,11208,-0.093,1.023,0.204,-0.915,0.854,0,649.117
125000,157114,11330,-0.09,1.024,0.21,0.183,0.305,-0.061,649.12
125000,157109,11223,-0.083,1.029,0.212,0.183,0.305,-0.061,649.127
125045,157114,11330,-0.084,1.031,0.21,-0.122,-0.061,0.061,649.13
125045,157102,11216,-0.089,1.026,0.208,-0.122,-0.061,0.061,649.136
125023,157114,11330,-0.09,1.018,0.203,-1.22,0.183,0.061,649.14
125023,157123,11223,-0.088,1.014,0.205,-1.22,0.183,0.061,649.146
125043,157114,11330,-0.088,1.012,0.202,-1.463,0.427,0.061,649.15
125043,157093,11218,-0.09,1.016,0.197,-1.463,0.427,0.061,649.156
125044,157114,11330,-0.092,1.021,0.196,-0.915,0.366,0.305,649.16
125044,157107,11216,-0.088,1.021,0.198,-0.915,0.366,0.305,649.166
125063,157114,11330,-0.087,1.022,0.202,-0.061,0,0.366,649.17
125063,157102,11211,-0.091,1.026,0.205,-0.061,0,0.366,649.176
125059,157114,11330,-0.09,1.029,0.213,-0.366,-0.122,0.61,649.18
125059,157113,11219,-0.092,1.026,0.211,-0.366,-0.122,0.61,649.186
125061,157114,11330,-0.092,1.023,0.211,-1.098,-0.244,0.671,649.19
125061,157109,11204,-0.093,1.02,0.213,-1.098,-0.244,0.671,649.196
125063,157114,11330,-0.095,1.016,0.211,-1.159,-0.061,0.488,649.2
125063,157092,11220,-0.096,1.018,0.208,-1.159,-0.061,0.488,649.206
125039,157114,11330,-0.096,1.018,0.208,-1.159,-0.061,0.488,649.209
125039,157114,11223,-0.091,1.019,0.218,-0.793,0.305,0.671,649.216
125040,157114,11330,-0.091,1.019,0.218,-0.793,0.305,0.671,649.219
125040,157109,11208,-0.092,1.019,0.219,0.122,0.488,0.854,649.226
125033,157114,11330,-0.092,1.019,0.219,0.122,0.488,0.854,649.229
125033,157092,11218,-0.09,1.021,0.215,0.915,0.61,1.037,649.235
125061,157114,11330,-0.09,1.021,0.215,0.915,0.61,1.037,649.239
125061,157091,11214,-0.087,1.018,0.213,1.463,0.854,1.159,649.245
125030,157114,11330,-0.087,1.018,0.213,1.463,0.854,1.159,649.249
125030,157112,11211,-0.089,1.016,0.207,1.89,1.28,1.098,649.255
125052,157114,11330,-0.089,1.016,0.207,1.89,1.28,1.098,649.259
125052,157077,11226,-0.09,1.027,0.2,1.524,1.646,1.341,649.265
125055,157114,11330,-0.09,1.027,0.2,1.524,1.646,1.341,649.269
125055,157103,11219,-0.084,1.03,0.21,1.28,1.341,1.28,649.275
125079,157114,11330,-0.084,1.03,0.21,1.28,1.341,1.28,649.279
125079,157084,11213,-0.082,1.029,0.197,1.037,0.793,1.098,649.285
125075,157114,11330,-0.082,1.029,0.197,1.037,0.793,1.098,649.289
125075,157115,11220,-0.088,1.025,0.195,-0.183,0.61,0.976,649.295
125078,157114,11330,-0.088,1.025,0.195,-0.183,0.61,0.976,649.299
125078,157119,11215,-0.095,1.017,0.2,-1.159,0.915,0.793,649.305
125065,157114,11330,-0.095,1.017,0.2,-1.159,0.915,0.793,649.309
125065,157127,11219,-0.097,1.024,0.199,-1.159,0.793,0.671,649.315
125099,157114,11330,-0.097,1.024,0.199,-1.159,0.793,0.671,649.318
125099,157117,11228,-0.098,1.026,0.2,-0.854,0.427,0.61,649.325
125082,157114,11330,-0.098,1.026,0.2,-0.854,0.427,0.61,649.328
125082,157137,11222,-0.097,1.028,0.202,-0.671,0.244,0.549,649.334
125064,157114,11330,-0.097,1.028,0.202,-0.671,0.244,0.549,649.338
125064,157126,11209,-0.098,1.025,0.212,-1.402,0.366,0.732,649.344
125046,157114,11330,-0.098,1.025,0.212,-1.402,0.366,0.732,649.348
125046,157146,11219,-0.092,1.023,0.211,-1.22,0.061,0.671,649.354
125029,157114,11330,-0.089,1.024,0.205,-1.22,0.061,0.671,649.358
125029,157132,11213,-0.091,1.025,0.205,-0.732,0,0.244,649.364
125033,157114,11330,-0.091,1.025,0.211,-0.732,0,0.244,649.368
125033,157111,11229,-0.089,1.024,0.22,-0.183,0.488,0.122,649.374
125041,157114,11330,-0.088,1.024,0.214,-0.183,0.488,0.122,649.378
125041,157103,11237,-0.083,1.027,0.209,-0.671,0.793,0.061,649.384
125041,157114,11330,-0.083,1.024,0.208,-0.671,0.793,0.061,649.388
125041,157093,11224,-0.085,1.022,0.199,-1.463,0.854,0.061,649.394
125057,157114,11330,-0.087,1.016,0.199,-1.463,0.854,0.061,649.398
125057,157092,11229,-0.086,1.015,0.196,-1.402,0.854,0.061,649.404
125053,157114,11330,-0.091,1.017,0.203,-1.402,0.854,0.061,649.408
125053,157127,11230,-0.094,1.025,0.205,-1.646,0.793,0.244,649.414
125054,157114,11330,-0.095,1.028,0.206,-1.646,0.793,0.244,649.417
125054,157127,11219,-0.093,1.025,0.205,-1.646,0.305,0.305,649.424
125075,157114,11330,-0.092,1.024,0.205,-1.646,0.305,0.305,649.427
125075,157137,11233,-0.089,1.02,0.202,-1.402,0,0.244,649.433
125065,157114,11330,-0.09,1.02,0.204,-1.402,0,0.244,649.437
125065,157131,11236,-0.093,1.024,0.207,-1.159,0.122,0.183,649.443
125085,157114,11330,-0.094,1.023,0.208,-1.159,0.122,0.183,649.447
125085,157129,11220,-0.094,1.023,0.21,-0.793,0.305,0.244,649.453
125055,157114,11330,-0.092,1.025,0.209,-0.793,0.305,0.244,649.457
125055,157133,11214,-0.091,1.023,0.208,-0.793,0.366,0.305,649.463
125063,157114,11330,-0.095,1.024,0.21,-0.793,0.366,0.305,649.467
125063,157127,11220,-0.096,1.018,0.211,-0.915,0.427,0.427,649.473
125031,157114,11330,-0.092,1.018,0.214,-0.915,0.427,0.427,649.477
125031,157136,11219,-0.094,1.023,0.216,-0.366,0.366,0.244,649.483
125035,157114,11330,-0.092,1.023,0.214,-0.366,0.366,0.244,649.487
125035,157139,11223,-0.088,1.02,0.217,-0.427,0.488,0.305,649.493
125022,157114,11330,-0.089,1.019,0.216,-0.427,0.488,0.305,649.497
125022,157108,11222,-0.089,1.018,0.214,-0.549,0.671,0.183,649.503
124992,157114,11330,-0.089,1.019,0.21,-0.549,0.671,0.183,649.507
124992,157109,11214,-0.09,1.018,0.209,-0.366,0.793,0.061,649.513
125002,157114,11330,-0.092,1.025,0.209,-0.366,0.793,0.061,649.516
125002,157118,11190,-0.093,1.025,0.209,-0.305,0.671,0.305,649.523
124977,157114,11330,-0.09,1.02,0.208,-0.305,0.671,0.305,649.526
124977,157114,11202,-0.089,1.017,0.211,0,0.549,0.305,649.532
124990,157114,11330,-0.086,1.016,0.209,0,0.549,0.305,649.536
124990,157146,11213,-0.086,1.014,0.205,0.366,0.488,0.244,649.542
124953,157114,11330,-0.09,1.013,0.2,0.366,0.488,0.244,649.546
124953,157139,11199,-0.091,1.02,0.197,0.671,0.488,0.427,649.552
124974,157114,11330,-0.092,1.022,0.198,0.671,0.488,0.427,649.556
124974,157146,11215,-0.094,1.024,0.201,0.793,0.671,0.488,649.562
124983,157114,11330,-0.093,1.026,0.207,0.793,0.671,0.488,649.566
124983,157161,11215,-0.094,1.036,0.204,0.244,0.488,0.671,649.572
124977,157114,11330,-0.094,1.036,0.204,0.244,0.488,0.671,649.576
124977,157153,11200,-0.09,1.033,0.215,-0.488,0,0.61,649.582
124962,157114,11330,-0.09,1.025,0.214,-0.488,0,0.61,649.586
124962,157165,11204,-0.089,1.022,0.21,-0.976,0,0.488,649.592
124987,157114,11330,-0.09,1.02,0.205,-0.976,0,0.488,649.596
124987,157132,11223,-0.094,1.017,0.204,-1.524,0.488,0.427,649.602
124988,157114,11330,-0.094,1.014,0.206,-1.524,0.488,0.427,649.606
124988,157137,11203,-0.096,1.017,0.206,-0.671,0.61,0.366,649.612
124949,157114,11330,-0.095,1.018,0.21,-0.671,0.61,0.366,649.615
124949,157148,11203,-0.093,1.021,0.216,-0.244,0.366,0.488,649.622
124970,157114,11330,-0.094,1.023,0.215,-0.244,0.366,0.488,649.625
124970,157138,11198,-0.093,1.022,0.216,-0.854,0,0.732,649.631
124976,157114,11330,-0.087,1.025,0.216,-0.854,0,0.732,649.635
124976,157162,11200,-0.082,1.026,0.216,-1.159,-0.305,0.549,649.641
124973,157114,11330,-0.08,1.027,0.214,-1.159,-0.305,0.549,649.645
124973,157155,11209,-0.082,1.021,0.208,-0.854,-0.061,0.183,649.651
125000,157114,11330,-0.083,1.02,0.203,-0.854,-0.061,0.183,649.655
125000,157163,11198,-0.089,1.018,0.209,0.122,0.61,0.183,649.661
125024,157114,11330,-0.087,1.01,0.213,0.122,0.61,0.183,649.665
125024,157147,11187,-0.089,1.01,0.212,0.854,0.793,0.183,649.671
125003,157114,11330,-0.088,1.017,0.211,0.854,0.793,0.183,649.675
125003,157125,11217,-0.088,1.026,0.213,0.671,0.61,0.244,649.681
125028,157114,11330,-0.087,1.031,0.216,0.671,0.61,0.244,649.685
125028,157153,11212,-0.09,1.031,0.214,0.671,0.549,0.244,649.691
125020,157114,11330,-0.09,1.029,0.211,0.671,0.549,0.244,649.695
125020,157135,11204,-0.091,1.026,0.203,-0.61,0.793,0.305,649.701
125025,157114,11330,-0.096,1.026,0.197,-0.61,0.793,0.305,649.704
125025,157152,11216,-0.094,1.024,0.195,-1.463,1.037,0.366,649.711
125024,157114,11330,-0.097,1.019,0.203,-1.463,1.037,0.366,649.714
125024,157147,11210,-0.097,1.016,0.21,-0.915,0.488,0.244,649.721
125039,157114,11330,-0.09,1.021,0.208,-0.915,0.488,0.244,649.724
125039,157135,11206,-0.089,1.024,0.21,0.122,0,0.061,649.73
125022,157114,11330,-0.09,1.025,0.211,0.122,0,0.061,649.734
125022,157174,11212,-0.088,1.023,0.214,0.976,0.61,-0.061,649.74
125022,157114,11330,-0.091,1.027,0.209,0.976,0.61,-0.061,649.744
125022,157164,11209,-0.094,1.027,0.202,1.098,1.463,-0.366,649.75
125021,157114,11330,-0.096,1.019,0.199,1.098,1.463,-0.366,649.754
125021,157172,11208,-0.098,1.015,0.197,1.524,1.22,-0.366,649.76
125002,157114,11330,-0.095,1.014,0.197,1.524,1.22,-0.366,649.764
125002,157148,11203,-0.091,1.015,0.202,2.256,0.549,-0.244,649.77
125010,157114,11330,-0.093,1.014,0.205,2.256,0.549,-0.244,649.774
125010,157163,11203,-0.091,1.015,0.213,3.049,0.122,0,649.78
125016,157114,11330,-0.09,1.017,0.215,3.049,0.122,0,649.784
125016,157144,11210,-0.087,1.023,0.218,3.293,0.183,0.122,649.79
125002,157114,11330,-0.087,1.023,0.218,3.293,0.183,0.122,649.794
125002,157156,11209,-0.09,1.025,0.204,2.622,0.61,0.305,649.8
125000,157114,11330,-0.09,1.025,0.204,2.622,0.61,0.305,649.804
125000,157172,11192,-0.094,1.018,0.193,1.829,0.549,0.427,649.81
125003,157114,11330,-0.094,1.018,0.193,1.829,0.549,0.427,649.813
125003,157161,11218,-0.099,1.017,0.193,0.976,0.244,0.854,649.82
125026,157114,11330,-0.099,1.017,0.193,0.976,0.244,0.854,649.823
125026,157162,11220,-0.097,1.028,0.207,-0.183,-0.122,1.28,649.829
125011,157114,11330,-0.097,1.028,0.207,-0.183,-0.122,1.28,649.833
125011,157155,11215,-0.09,1.033,0.211,-1.159,-0.671,1.463,649.839
125028,157114,11330,-0.09,1.033,0.211,-1.159,-0.671,1.463,649.843
125028,157151,11205,-0.084,1.03,0.213,-1.951,-0.488,1.22,649.849
125018,157114,11330,-0.084,1.03,0.213,-1.951,-0.488,1.22,649.853
125018,157161,11207,-0.088,1.024,0.211,-1.89,0.366,0.854,649.859
125005,157114,11330,-0.088,1.024,0.211,-1.89,0.366,0.854,649.863
125005,157140,11210,-0.088,1.016,0.208,-0.61,1.159,0.366,649.869
124985,157114,11330,-0.088,1.016,0.208,-0.61,1.159,0.366,649.873
124985,157155,11203,-0.086,1.016,0.21,1.341,1.28,0.183,649.879
124985,157114,11330,-0.086,1.016,0.21,1.341,1.28,0.183,649.883
124985,157169,11201,-0.083,1.022,0.209,2.561,1.463,0.366,649.889
124977,157114,11330,-0.083,1.022,0.209,2.561,1.463,0.366,649.893
124977,157153,11192,-0.089,1.025,0.208,2.256,1.707,0.427,649.899
124973,157114,11330,-0.089,1.025,0.208,2.256,1.707,0.427,649.902
124973,157133,11210,-0.089,1.019,0.207,0.915,1.402,0.488,649.909
124968,157114,11330,-0.089,1.019,0.207,0.915,1.402,0.488,649.912
124968,157118,11218,-0.089,1.009,0.206,0.305,0.915,0.671,649.919
124939,157114,11330,-0.089,1.009,0.206,0.305,0.915,0.671,649.922
124939,157117,11203,-0.087,1.015,0.195,0.305,0.854,0.976,649.928
124942,157114,11330,-0.087,1.015,0.195,0.305,0.854,0.976,649.932
124942,157122,11187,-0.093,1.02,0.19,0.305,0.854,0.976,649.938
124939,157114,11330,-0.096,1.023,0.196,0.244,1.22,1.402,649.942
124939,157102,11205,-0.097,1.027,0.205,0.244,1.22,1.402,649.948
124946,157114,11330,-0.094,1.033,0.209,-0.061,0.671,1.463,649.952
124946,157086,11187,-0.092,1.035,0.208,-0.061,0.671,1.463,649.958
124939,157114,11330,-0.092,1.036,0.202,-0.915,0.183,1.159,649.962
124939,157100,11199,-0.09,1.032,0.202,-0.915,0.183,1.159,649.968
124923,157114,11330,-0.089,1.026,0.198,-1.341,0.305,0.793,649.972
124923,157089,11223,-0.088,1.028,0.196,-1.341,0.305,0.793,649.978
124949,157114,11330,-0.092,1.025,0.195,-0.854,0.854,0.305,649.982
124949,157093,11212,-0.093,1.022,0.195,-0.854,0.854,0.305,649.988
124940,157114,11330,-0.09,1.022,0.192,0.305,1.037,0.244,649.992
124940,157056,11221,-0.092,1.022,0.194,0.305,1.037,0.244,649.998
124920,157114,11330,-0.094,1.027,0.202,0.915,0.854,0.183,650.001
124920,157067,11201,-0.089,1.027,0.209,0.915,0.854,0.183,650.008
124944,157114,11330,-0.087,1.025,0.21,0.854,0.488,0.122,650.011
124944,157061,11197,-0.087,1.025,0.203,0.854,0.488,0.122,650.018
124954,157114,11330,-0.089,1.025,0.198,0.061,0.427,0.061,650.021
124954,157098,11204,-0.091,1.026,0.198,0.061,0.427,0.061,650.027
124964,157114,11330,-0.092,1.025,0.201,-0.549,0.671,-0.061,650.031
124964,157095,11199,-0.094,1.021,0.208,-0.549,0.671,-0.061,650.037
124954,157114,11330,-0.093,1.015,0.207,-0.732,0.183,0.061,650.041
124954,157077,11206,-0.09,1.014,0.203,-0.732,0.183,0.061,650.047
124971,157114,11330,-0.09,1.013,0.2,-0.732,-0.122,0.183,650.051
124971,157079,11202,-0.095,1.015,0.198,-0.732,-0.122,0.183,650.057
124976,157114,11330,-0.093,1.017,0.202,-0.793,0.061,0.366,650.061
124976,157082,11205,-0.094,1.026,0.211,-0.793,0.061,0.366,650.067
124971,157114,11330,-0.088,1.03,0.213,-0.61,-0.061,0.488,650.071
124971,157090,11210,-0.09,1.032,0.208,-0.61,-0.061,0.488,650.077
124967,157114,11330,-0.089,1.029,0.202,-1.037,-0.122,0.61,650.081
124967,157100,11205,-0.09,1.025,0.198,-1.037,-0.122,0.61,650.087
124957,157114,11330,-0.088,1.021,0.193,-1.585,-0.061,0.183,650.091
124957,157098,11209,-0.089,1.02,0.191,-1.585,-0.061,0.183,650.097
124963,157114,11330,-0.093,1.024,0.196,-1.89,-0.061,0.061,650.1
124963,157073,11210,-0.096,1.024,0.202,-1.89,-0.061,0.061,650.107
124945,157114,11330,-0.091,1.023,0.211,-1.402,-0.244,0.183,650.11
124945,157062,11198,-0.088,1.026,0.215,-1.402,-0.244,0.183,650.117
124931,157114,11330,-0.083,1.027,0.216,-0.305,-0.549,0.122,650.12
124931,157061,11204,-0.08,1.025,0.212,-0.305,-0.549,0.122,650.126
124904,157114,11330,-0.085,1.027,0.204,0.305,-0.061,-0.244,650.13
124904,157047,11196,-0.087,1.025,0.202,0.305,-0.061,-0.244,650.136
124901,157114,11330,-0.093,1.018,0.2,0.366,0.732,-0.549,650.14
124901,157049,11197,-0.1,1.016,0.201,0.366,0.732,-0.549,650.146
124908,157114,11330,-0.1,1.019,0.203,0.488,0.976,-0.244,650.15
124908,157065,11185,-0.095,1.022,0.202,0.488,0.976,-0.244,650.156
124914,157114,11330,-0.092,1.021,0.204,0.366,0.366,0.183,650.16
124914,157049,11190,-0.091,1.024,0.21,0.366,0.366,0.183,650.166
124933,157114,11330,-0.085,1.023,0.21,0.305,-0.183,0.427,650.17
124933,157093,11206,-0.084,1.022,0.206,0.305,-0.183,0.427,650.176
124930,157114,11330,-0.091,1.022,0.2,-0.732,0.244,0.61,650.18
124930,157073,11204,-0.091,1.022,0.199,-0.732,0.244,0.61,650.186
124925,157114,11330,-0.094,1.016,0.205,-1.341,0.671,0.854,650.19
124925,157084,11215,-0.092,1.018,0.211,-1.341,0.671,0.854,650.196
124928,157114,11330,-0.088,1.024,0.208,-1.341,0.061,1.098,650.199
124928,157061,11202,-0.085,1.022,0.204,-1.341,0.061,1.098,650.206
124918,157114,11330,-0.085,1.021,0.207,-0.793,-0.122,0.854,650.209
124918,157068,11190,-0.084,1.021,0.205,-0.793,-0.122,0.854,650.216
124919,157114,11330,-0.088,1.023,0.201,-0.183,0.427,0.488,650.219
124919,157058,11205,-0.091,1.025,0.205,-0.183,0.427,0.488,650.225
124917,157114,11330,-0.093,1.025,0.214,0.244,0.793,0.488,650.229
124917,157085,11202,-0.093,1.024,0.214,0.244,0.793,0.488,650.235
124898,157114,11330,-0.092,1.021,0.211,0.427,0.61,0.427,650.239
124898,157088,11202,-0.09,1.023,0.21,0.427,0.61,0.427,650.245
124897,157114,11330,-0.091,1.024,0.205,-0.122,0.488,0.183,650.249
124897,157057,11200,-0.094,1.022,0.206,-0.122,0.488,0.183,650.255
124898,157114,11330,-0.094,1.02,0.206,-0.244,0.61,0.061,650.259
124898,157081,11210,-0.092,1.021,0.201,-0.244,0.61,0.061,650.265
124901,157114,11330,-0.097,1.026,0.2,-0.793,0.793,0.244,650.269
124901,157084,11195,-0.097,1.029,0.199,-0.793,0.793,0.244,650.275
124880,157114,11330,-0.096,1.026,0.201,-1.098,0.793,0.366,650.279
124880,157072,11191,-0.094,1.018,0.206,-1.098,0.793,0.366,650.285
124877,157114,11330,-0.09,1.016,0.206,-0.854,0.183,0.305,650.289
124877,157071,11193,-0.088,1.021,0.203,-0.854,0.183,0.305,650.295
124908,157114,11330,-0.089,1.022,0.196,-0.854,0,0.427,650.298
124908,157071,11177,-0.088,1.024,0.196,-0.854,0,0.427,650.305
124907,157114,11330,-0.088,1.023,0.202,-0.366,0.366,0.366,650.308
124907,157064,11196,-0.087,1.026,0.207,-0.366,0.366,0.366,650.315
124889,157114,11330,-0.087,1.025,0.203,-0.122,0.488,0.366,650.318
124889,157072,11186,-0.087,1.024,0.203,-0.122,0.488,0.366,650.324
124894,157114,11330,-0.088,1.02,0.208,0.122,0.183,0.427,650.328
124894,157075,11187,-0.087,1.017,0.205,0.122,0.183,0.427,650.334
124869,157114,11330,-0.085,1.018,0.206,0.61,0,0.122,650.338
124869,157090,11195,-0.086,1.021,0.204,0.61,0,0.122,650.344
124886,157114,11330,-0.093,1.022,0.203,0.183,0.488,0.244,650.348
124886,157094,11202,-0.092,1.025,0.206,0.183,0.488,0.244,650.354
124892,157114,11330,-0.095,1.03,0.205,-0.732,0.671,0.305,650.358
124892,157111,11204,-0.095,1.036,0.211,-0.732,0.671,0.305,650.364
124904,157114,11330,-0.093,1.036,0.212,-1.402,0.183,0.244,650.368
124904,157083,11192,-0.087,1.032,0.208,-1.402,0.183,0.244,650.374
124889,157114,11330,-0.087,1.032,0.208,-1.402,0.183,0.244,650.378
124889,157104,11180,-0.091,1.004,0.201,-1.89,-0.183,0,650.384
124877,157114,11330,-0.091,1.004,0.201,-1.89,-0.183,0,650.388
124877,157080,11199,-0.099,1.006,0.193,-1.646,0.305,-0.122,650.394
124859,157114,11330,-0.099,1.006,0.193,-1.646,0.305,-0.122,650.397
124859,157075,11199,-0.098,1.025,0.203,-0.183,0.671,0.122,650.404
124871,157114,11330,-0.098,1.025,0.203,-0.183,0.671,0.122,650.407
124871,157073,11204,-0.086,1.037,0.222,1.707,-0.061,0.122,650.414
124871,157114,11330,-0.086,1.037,0.222,1.707,-0.061,0.122,650.417
124871,157076,11184,-0.083,1.038,0.211,0.976,-0.549,0,650.423
124870,157114,11330,-0.083,1.038,0.211,0.976,-0.549,0,650.427
124870,157082,11198,-0.087,1.008,0.209,-0.61,0.061,-0.183,650.433
124877,157114,11330,-0.087,1.008,0.209,-0.61,0.061,-0.183,650.437
124877,157088,11193,-0.091,1.009,0.204,-0.793,0.61,-0.244,650.443
124857,157114,11330,-0.091,1.009,0.204,-0.793,0.61,-0.244,650.447
124857,157079,11201,-0.089,1.021,0.204,-0.183,0.854,0.183,650.453
124860,157114,11330,-0.089,1.021,0.204,-0.183,0.854,0.183,650.457
124860,157087,11194,-0.086,1.031,0.211,0.61,0.732,0.427,650.463
124864,157114,11330,-0.086,1.031,0.211,0.61,0.732,0.427,650.467
124864,157076,11185,-0.09,1.03,0.203,-0.122,0.366,0.427,650.473
124853,157114,11330,-0.09,1.03,0.203,-0.122,0.366,0.427,650.477
124853,157084,11189,-0.091,1.019,0.2,-1.28,0.427,0.366,650.483
124847,157114,11330,-0.091,1.019,0.2,-1.28,0.427,0.366,650.487
124847,157092,11181,-0.092,1.021,0.198,-0.915,0.671,0.122,650.493
124840,157114,11330,-0.092,1.021,0.198,-0.915,0.671,0.122,650.496
124840,157110,11188,-0.093,1.023,0.2,-0.122,0.61,0.122,650.503
124847,157114,11330,-0.093,1.023,0.2,-0.122,0.61,0.122,650.506
124847,157090,11203,-0.091,1.024,0.205,0.915,0.549,0.122,650.513
124856,157114,11330,-0.091,1.024,0.205,0.915,0.549,0.122,650.516
124856,157074,11178,-0.092,1.026,0.205,0.976,0.61,0.122,650.522
124839,157114,11330,-0.096,1.026,0.205,0.976,0.61,0.122,650.526
124839,157094,11186,-0.098,1.029,0.206,0.183,0.427,0.122,650.532
124829,157114,11330,-0.096,1.024,0.209,0.183,0.427,0.122,650.536
124829,157075,11183,-0.093,1.019,0.211,-0.305,0.244,-0.122,650.542
124837,157114,11330,-0.092,1.023,0.214,-0.305,0.244,-0.122,650.546
124837,157105,11184,-0.088,1.02,0.208,-0.61,0,-0.122,650.552
124842,157114,11330,-0.089,1.019,0.205,-0.61,0,-0.122,650.556
124842,157083,11199,-0.092,1.021,0.205,-0.793,0.244,0,650.562
124817,157114,11330,-0.092,1.021,0.209,-0.793,0.244,0,650.566
124817,157067,11179,-0.093,1.022,0.205,-0.732,0.61,-0.122,650.572
124830,157114,11330,-0.094,1.02,0.201,-0.732,0.61,-0.122,650.576
124830,157080,11194,-0.093,1.011,0.203,-0.488,0.549,-0.061,650.582
124843,157114,11330,-0.093,1.017,0.203,-0.488,0.549,-0.061,650.586
124843,157082,11200,-0.092,1.022,0.203,-0.244,0.183,0.183,650.592
124828,157114,11330,-0.091,1.023,0.206,-0.244,0.183,0.183,650.595
124828,157092,11189,-0.088,1.02,0.203,0.122,0.244,0.305,650.602
124835,157114,11330,-0.093,1.023,0.203,0.122,0.244,0.305,650.605
124835,157079,11191,-0.097,1.027,0.204,0.122,0.427,0.244,650.612
124834,157114,11330,-0.097,1.026,0.204,0.122,0.427,0.244,650.615
124834,157091,11197,-0.095,1.026,0.206,-0.183,0.305,0.366,650.621
124826,157114,11330,-0.092,1.03,0.21,-0.183,0.305,0.366,650.625
124826,157087,11178,-0.092,1.027,0.208,-0.305,-0.061,0.305,650.631
124843,157114,11330,-0.09,1.021,0.212,-0.305,-0.061,0.305,650.635
124843,157078,11204,-0.092,1.019,0.208,-0.488,0,0.183,650.641
124816,157114,11330,-0.092,1.026,0.202,-0.488,0,0.183,650.645
124816,157093,11201,-0.092,1.024,0.202,-1.098,0.488,0.244,650.651
124801,157114,11330,-0.092,1.021,0.206,-1.098,0.488,0.244,650.655
124801,157096,11183,-0.094,1.019,0.204,-0.793,0.427,0.305,650.661
124833,157114,11330,-0.092,1.016,0.209,-0.793,0.427,0.305,650.665
124833,157090,11199,-0.092,1.019,0.211,-0.244,0.122,0.366,650.671
124829,157114,11330,-0.086,1.024,0.207,-0.244,0.122,0.366,650.675
124829,157069,11188,-0.083,1.028,0.205,-0.366,0.122,0.427,650.681
124812,157114,11330,-0.089,1.029,0.207,-0.366,0.122,0.427,650.685
124812,157095,11200,-0.089,1.027,0.209,-0.549,0.488,0.305,650.691
124855,157114,11330,-0.089,1.026,0.208,-0.549,0.488,0.305,650.694
124855,157100,11186,-0.092,1.025,0.205,-0.793,0.549,0.183,650.701
124831,157114,11330,-0.091,1.02,0.2,-0.793,0.549,0.183,650.704
124831,157109,11192,-0.089,1.021,0.206,-0.732,0.427,0.305,650.711
124849,157114,11330,-0.091,1.019,0.205,-0.732,0.427,0.305,650.714
124849,157099,11182,-0.09,1.02,0.206,-0.183,0.427,0.122,650.72
124846,157114,11330,-0.093,1.019,0.202,-0.183,0.427,0.122,650.724
124846,157104,11188,-0.094,1.02,0.204,0.427,0.549,0,650.73
124846,157114,11330,-0.094,1.021,0.204,0.427,0.549,0,650.734
124846,157093,11182,-0.097,1.022,0.205,0.061,0.732,0.122,650.74
124862,157114,11330,-0.099,1.024,0.206,0.061,0.732,0.122,650.744
124862,157101,11187,-0.094,1.025,0.206,-0.61,0.61,0.366,650.75
124876,157114,11330,-0.096,1.026,0.212,-0.61,0.61,0.366,650.754
124876,157092,11205,-0.092,1.028,0.214,-0.793,0.366,0.427,650.76
124895,157114,11330,-0.087,1.032,0.211,-0.793,0.366,0.427,650.764
124895,157111,11201,-0.087,1.029,0.211,-0.854,0.427,0.122,650.77
124878,157114,11330,-0.088,1.017,0.206,-0.854,0.427,0.122,650.774
124878,157082,11209,-0.088,1.014,0.205,-0.61,1.037,-0.061,650.78
124871,157114,11330,-0.091,1.02,0.202,-0.61,1.037,-0.061,650.784
124871,157107,11202,-0.092,1.019,0.2,-0.854,1.829,0.183,650.79
124889,157114,11330,-0.089,1.016,0.199,-0.854,1.829,0.183,650.793
124889,157105,11203,-0.09,1.016,0.204,-0.183,1.341,0.183,650.8
124872,157114,11330,-0.092,1.02,0.204,-0.183,1.341,0.183,650.803
124872,157089,11207,-0.091,1.024,0.202,-0.183,0.305,0.366,650.809
124873,157114,11330,-0.091,1.027,0.201,-0.183,0.305,0.366,650.813
124873,157115,11190,-0.094,1.033,0.206,-0.854,0.061,0.488,650.819
124861,157114,11330,-0.091,1.028,0.207,-0.854,0.061,0.488,650.823
124861,157102,11204,-0.093,1.026,0.205,-1.037,0.427,0.427,650.829
124873,157114,11330,-0.092,1.018,0.202,-1.037,0.427,0.427,650.833
124873,157111,11199,-0.096,1.014,0.203,-0.183,0.671,0.244,650.839
124874,157114,11330,-0.097,1.018,0.207,-0.183,0.671,0.244,650.843
124874,157113,11193,-0.096,1.02,0.212,0.854,0.549,0.061,650.849
124903,157114,11330,-0.094,1.021,0.218,0.854,0.549,0.061,650.853
124903,157115,11200,-0.096,1.027,0.214,0.976,0.61,0.244,650.859
124893,157114,11330,-0.096,1.033,0.207,0.976,0.61,0.244,650.863
124893,157119,11203,-0.094,1.032,0.203,-0.305,1.037,0.488,650.869
124896,157114,11330,-0.096,1.026,0.2,-0.305,1.037,0.488,650.873
124896,157112,11195,-0.093,1.023,0.201,-0.732,0.854,0.305,650.879
124877,157114,11330,-0.092,1.019,0.202,-0.732,0.854,0.305,650.883
124877,157138,11199,-0.094,1.014,0.201,-0.793,0.427,0,650.889
124901,157114,11330,-0.092,1.013,0.202,-0.793,0.427,0,650.892
124901,157131,11198,-0.092,1.017,0.204,-0.671,0.305,0.305,650.899
124889,157114,11330,-0.091,1.026,0.208,-0.671,0.305,0.305,650.902
124889,157115,11205,-0.089,1.027,0.204,-0.427,0.549,0.671,650.908
124885,157114,11330,-0.089,1.024,0.204,-0.427,0.549,0.671,650.912
124885,157118,11216,-0.092,1.026,0.204,-1.098,0.427,0.671,650.918
124873,157114,11330,-0.091,1.027,0.202,-1.098,0.427,0.671,650.922
124873,157117,11186,-0.092,1.022,0.196,-1.646,0.183,0.366,650.928
124918,157114,11330,-0.092,1.013,0.193,-1.646,0.183,0.366,650.932
124918,157116,11192,-0.095,1.015,0.193,-1.037,0.183,0.305,650.938
124919,157114,11330,-0.097,1.017,0.197,-1.037,0.183,0.305,650.942
124919,157111,11206,-0.097,1.022,0.207,-0.427,0,0.61,650.948
124889,157114,11330,-0.094,1.028,0.214,-0.427,0,0.61,650.952
124889,157139,11204,-0.091,1.027,0.217,-0.061,-0.427,0.793,650.958
124889,157114,11330,-0.091,1.027,0.217,-0.061,-0.427,0.793,650.962
124889,157123,11200,-0.089,1.024,0.216,-0.122,-0.366,0.549,650.968
124930,157114,11330,-0.089,1.024,0.216,-0.122,-0.366,0.549,650.972
124930,157138,11204,-0.091,1.022,0.206,-0.183,0.488,0.305,650.978
124930,157114,11330,-0.091,1.022,0.206,-0.183,0.488,0.305,650.981
124930,157144,11209,-0.089,1.022,0.21,0.366,0.976,0.183,650.988
124947,157114,11330,-0.089,1.022,0.21,0.366,0.976,0.183,650.991
124947,157157,11205,-0.092,1.025,0.211,0,0.915,0.366,650.998
124928,157114,11330,-0.092,1.025,0.211,0,0.915,0.366,651.001
124928,157132,11217,-0.088,1.021,0.208,-0.793,0.976,0.366,651.007
124930,157114,11330,-0.088,1.021,0.208,-0.793,0.976,0.366,651.011
124930,157109,11213,-0.087,1.017,0.203,-0.732,0.915,0.061,651.017
124926,157114,11330,-0.087,1.017,0.203,-0.732,0.915,0.061,651.021
124926,157118,11217,-0.093,1.021,0.197,-0.793,0.854,0.366,651.027
124941,157114,11330,-0.093,1.021,0.197,-0.793,0.854,0.366,651.031
124941,157134,11220,-0.094,1.024,0.209,-0.61,0.488,0.671,651.037
124938,157114,11330,-0.094,1.024,0.209,-0.61,0.488,0.671,651.041
124938,157131,11212,-0.094,1.028,0.208,-1.159,0.122,0.671,651.047
124953,157114,11330,-0.094,1.028,0.208,-1.159,0.122,0.671,651.051
124953,157143,11217,-0.091,1.018,0.207,-1.402,0,0.427,651.057
124983,157114,11330,-0.091,1.018,0.207,-1.402,0,0.427,651.061
124983,157118,11218,-0.092,1.023,0.202,-1.28,0,0.305,651.067
125002,157114,11330,-0.092,1.023,0.202,-1.28,0,0.305,651.071
125002,157117,11227,-0.094,1.027,0.209,-0.915,0.061,0.427,651.077
124998,157114,11330,-0.094,1.027,0.209,-0.915,0.061,0.427,651.081
124998,157095,11223,-0.091,1.029,0.209,-1.341,0.305,0.488,651.087
124969,157114,11330,-0.091,1.029,0.209,-1.341,0.305,0.488,651.09
124969,157090,11215,-0.09,1.023,0.208,-1.646,0.366,0.366,651.097
124953,157114,11330,-0.09,1.023,0.208,-1.646,0.366,0.366,651.1
124953,157093,11202,-0.093,1.023,0.205,-1.646,0.366,0.366,651.106
124928,157114,11330,-0.093,1.024,0.198,-2.134,0.61,0.244,651.11
124928,157056,11214,-0.092,1.019,0.201,-2.134,0.61,0.244,651.116
124935,157114,11330,-0.093,1.014,0.208,-1.402,0.732,0.183,651.12
124935,157063,11204,-0.093,1.013,0.211,-1.402,0.732,0.183,651.126
124934,157114,11330,-0.088,1.018,0.21,-0.183,0.549,0.244,651.13
124934,157070,11197,-0.093,1.015,0.209,-0.183,0.549,0.244,651.136
124931,157114,11330,-0.095,1.018,0.211,0.549,0.671,0.366,651.14
124931,157048,11220,-0.093,1.022,0.208,0.549,0.671,0.366,651.146
124943,157114,11330,-0.094,1.026,0.21,0.915,0.671,0.183,651.15
124943,157070,11212,-0.089,1.022,0.209,0.915,0.671,0.183,651.156
124924,157114,11330,-0.091,1.02,0.207,0.183,0.366,0.183,651.16
124924,157053,11218,-0.094,1.02,0.203,0.183,0.366,0.183,651.166
124917,157114,11330,-0.092,1.022,0.204,-1.098,0.122,0.366,651.17
124917,157078,11211,-0.092,1.019,0.209,-1.098,0.122,0.366,651.176
124937,157114,11330,-0.091,1.015,0.211,-1.463,-0.061,0.366,651.179
124937,157087,11206,-0.086,1.014,0.211,-1.463,-0.061,0.366,651.186
124944,157114,11330,-0.084,1.022,0.205,-0.854,-0.183,0.366,651.189
124944,157086,11213,-0.086,1.026,0.207,-0.854,-0.183,0.366,651.196
124939,157114,11330,-0.09,1.026,0.209,-0.061,0.061,0.366,651.199
124939,157094,11208,-0.092,1.022,0.21,-0.061,0.061,0.366,651.205
124939,157114,11330,-0.094,1.027,0.206,0.183,0.549,0.366,651.209
124939,157094,11206,-0.096,1.026,0.203,0.183,0.549,0.366,651.215
124925,157114,11330,-0.097,1.023,0.205,-0.183,0.488,0.244,651.219
124925,157076,11203,-0.097,1.021,0.211,-0.183,0.488,0.244,651.225
124893,157114,11330,-0.094,1.023,0.214,0.244,0.122,0.122,651.229
124893,157080,11197,-0.092,1.025,0.214,0.244,0.122,0.122,651.235
124875,157114,11330,-0.092,1.026,0.214,0.244,0.183,0.183,651.239
124875,157079,11176,-0.088,1.031,0.217,0.244,0.183,0.183,651.245
124864,157114,11330,-0.09,1.028,0.214,-0.244,0.549,0.183,651.249
124864,157096,11200,-0.09,1.024,0.207,-0.244,0.549,0.183,651.255
124865,157114,11330,-0.093,1.018,0.203,-0.915,0.976,0.183,651.259
124865,157106,11200,-0.095,1.018,0.198,-0.915,0.976,0.183,651.265
124856,157114,11330,-0.093,1.019,0.204,-1.22,1.037,0.122,651.269
124856,157096,11193,-0.092,1.016,0.204,-1.22,1.037,0.122,651.275
124843,157114,11330,-0.09,1.017,0.21,-0.549,0.61,0.305,651.278
124843,157101,11198,-0.091,1.017,0.207,-0.549,0.61,0.305,651.285
124857,157114,11330,-0.09,1.018,0.2,-0.244,0.366,0.488,651.288
124857,157107,11196,-0.091,1.024,0.198,-0.244,0.366,0.488,651.294
124852,157114,11330,-0.097,1.024,0.204,-0.61,0.671,0.549,651.298
124852,157119,11192,-0.095,1.023,0.207,-0.61,0.671,0.549,651.304
124843,157114,11330,-0.097,1.023,0.207,-0.61,0.305,0.427,651.308
124843,157093,11215,-0.096,1.024,0.207,-0.61,0.305,0.427,651.314
124847,157114,11330,-0.089,1.022,0.214,-0.366,-0.427,0.244,651.318
124847,157100,11186,-0.089,1.018,0.215,-0.366,-0.427,0.244,651.324
124856,157114,11330,-0.087,1.018,0.209,-0.122,-0.122,0,651.328
124856,157102,11197,-0.089,1.018,0.208,-0.122,-0.122,0,651.334
124848,157114,11330,-0.097,1.021,0.208,0,0.61,0.061,651.338
124848,157106,11185,-0.098,1.024,0.207,0,0.61,0.061,651.344
124869,157114,11330,-0.099,1.03,0.213,0.183,0.732,0.122,651.348
124869,157085,11191,-0.098,1.029,0.21,0.183,0.732,0.122,651.354
124879,157114,11330,-0.096,1.027,0.208,-0.366,0.427,0.061,651.358
124879,157099,11197,-0.097,1.023,0.206,-0.366,0.427,0.061,651.364
124856,157114,11330,-0.097,1.023,0.207,-1.28,0.427,-0.061,651.368
124856,157104,11190,-0.093,1.02,0.202,-1.28,0.427,-0.061,651.374
124852,157114,11330,-0.097,1.023,0.208,-1.341,0.61,0,651.377
124852,157113,11200,-0.094,1.03,0.205,-1.341,0.61,0,651.384
124861,157114,11330,-0.094,1.029,0.204,-0.793,0.671,-0.061,651.387
124861,157093,11201,-0.093,1.017,0.209,-0.793,0.671,-0.061,651.393
124833,157114,11330,-0.094,1.009,0.204,0.244,0.488,-0.061,651.397
124833,157104,11211,-0.094,1.001,0.201,0.244,0.488,-0.061,651.403
124820,157114,11330,-0.1,1.003,0.203,0.366,0.488,0.366,651.407
124820,157098,11176,-0.104,1.01,0.203,0.366,0.488,0.366,651.413
124828,157114,11330,-0.098,1.019,0.209,0.732,-0.061,0.61,651.417
124828,157104,11198,-0.089,1.024,0.222,0.732,-0.061,0.61,651.423
124835,157114,11330,-0.087,1.033,0.224,1.098,-0.671,0.854,651.427
124835,157090,11195,-0.084,1.043,0.224,1.098,-0.671,0.854,651.433
124832,157114,11330,-0.083,1.045,0.218,-0.427,-0.427,0.915,651.437
124832,157111,11204,-0.082,1.04,0.208,-0.427,-0.427,0.915,651.443
124856,157114,11330,-0.086,1.031,0.194,-2.256,0.061,0.305,651.447
124856,157094,11213,-0.089,1.02,0.198,-2.256,0.061,0.305,651.453
124855,157114,11330,-0.093,1.008,0.204,-2.256,0.183,0.122,651.457
124855,157122,11214,-0.094,1.005,0.209,-2.256,0.183,0.122,651.463
124847,157114,11330,-0.089,1.01,0.209,-0.915,0,0.427,651.466
124847,157109,11204,-0.083,1.021,0.207,-0.915,0,0.427,651.473
124862,157114,11330,-0.085,1.026,0.209,-0.244,0.122,0.488,651.476
124862,157122,11201,-0.087,1.03,0.212,-0.244,0.122,0.488,651.483
124846,157114,11330,-0.09,1.031,0.213,-0.427,0.549,0.305,651.486
124846,157110,11194,-0.095,1.029,0.208,-0.427,0.549,0.305,651.492
124860,157114,11330,-0.097,1.023,0.209,-2.439,0.854,0.549,651.496
124860,157120,11201,-0.094,1.013,0.216,-2.439,0.854,0.549,651.502
124844,157114,11330,-0.09,1.014,0.218,-4.817,0.61,0.793,651.506
124844,157104,11198,-0.094,1.022,0.223,-4.817,0.61,0.793,651.512
124858,157114,11330,-0.095,1.027,0.218,-7.988,0.427,1.28,651.516
124858,157114,11178,-0.09,1.03,0.218,-7.988,0.427,1.28,651.522
124866,157114,11330,-0.088,1.027,0.223,-10.549,0.549,1.524,651.526
124866,157119,11197,-0.088,1.026,0.219,-10.549,0.549,1.524,651.532
124859,157114,11330,-0.088,1.026,0.219,-10.549,0.549,1.524,651.536
124859,157113,11201,-0.097,1.019,0.202,-14.024,1.22,1.524,651.542
124856,157114,11330,-0.097,1.019,0.202,-14.024,1.22,1.524,651.546
124856,157096,11190,-0.1,1.015,0.196,-17.134,1.22,1.829,651.552
124846,157114,11330,-0.1,1.015,0.196,-17.134,1.22,1.829,651.556
124846,157119,11195,-0.097,1.019,0.215,-17.683,0,1.768,651.562
124850,157114,11330,-0.097,1.019,0.215,-17.683,0,1.768,651.565
124850,157103,11180,-0.09,1.022,0.221,-15.427,-1.037,1.829,651.572
124879,157114,11330,-0.09,1.022,0.221,-15.427,-1.037,1.829,651.575
124879,157120,11195,-0.089,1.021,0.207,-12.378,-1.037,1.28,651.582
124873,157114,11330,-0.089,1.021,0.207,-12.378,-1.037,1.28,651.585
124873,157086,11198,-0.094,1.014,0.214,-7.073,-0.793,0.244,651.591
124870,157114,11330,-0.094,1.014,0.214,-7.073,-0.793,0.244,651.595
124870,157120,11215,-0.094,1.007,0.222,-0.061,-0.915,-0.793,651.601
124883,157114,11330,-0.094,1.007,0.222,-0.061,-0.915,-0.793,651.605
124883,157098,11204,-0.088,1.018,0.239,5.122,-0.732,-1.037,651.611
124881,157114,11330,-0.088,1.018,0.239,5.122,-0.732,-1.037,651.615
124881,157107,11221,-0.089,1.034,0.244,6.402,-0.122,-0.793,651.621
124891,157114,11330,-0.089,1.034,0.244,6.402,-0.122,-0.793,651.625
124891,157123,11200,-0.087,1.035,0.239,3.415,0.366,-0.61,651.631
124898,157114,11330,-0.087,1.035,0.239,3.415,0.366,-0.61,651.635
124898,157138,11204,-0.09,1.003,0.233,-1.585,0.122,-0.549,651.641
124885,157114,11330,-0.09,1.003,0.233,-1.585,0.122,-0.549,651.645
124885,157126,11223,-0.089,0.995,0.221,-4.939,-0.366,-0.244,651.651
124877,157114,11330,-0.089,0.995,0.221,-4.939,-0.366,-0.244,651.655
124877,157113,11205,-0.086,0.999,0.238,-5.061,-0.427,0.305,651.661
124849,157114,11330,-0.086,0.999,0.238,-5.061,-0.427,0.305,651.664
124849,157084,11195,-0.085,1.013,0.236,-2.317,-0.305,0.854,651.671
124821,157114,11330,-0.085,1.013,0.236,-2.317,-0.305,0.854,651.674
124821,157086,11198,-0.085,1.017,0.233,0.366,0.366,0.915,651.681
124794,157114,11330,-0.088,1.018,0.233,0.366,0.366,0.915,651.684
124794,157087,11196,-0.09,1.022,0.231,1.951,1.463,0.732,651.69
124803,157114,11330,-0.093,1.024,0.228,1.951,1.463,0.732,651.694
124803,157071,11203,-0.094,1.029,0.224,1.89,2.073,0.549,651.7
124817,157114,11330,-0.093,1.025,0.228,1.89,2.073,0.549,651.704
124817,157073,11191,-0.093,1.017,0.226,1.646,1.402,0.427,651.71
124820,157114,11330,-0.09,1.018,0.228,1.646,1.402,0.427,651.714
124820,157121,11192,-0.09,1.018,0.231,1.159,0.854,0.427,651.72
124822,157114,11330,-0.089,1.021,0.229,1.159,0.854,0.427,651.724
124822,157103,11203,-0.09,1.026,0.227,0.671,1.28,0.488,651.73
124849,157114,11330,-0.088,1.022,0.222,0.671,1.28,0.488,651.734
124849,157113,11205,-0.091,1.022,0.219,0.427,1.829,0.488,651.74
124849,157114,11330,-0.092,1.024,0.218,0.427,1.829,0.488,651.744
124849,157092,11210,-0.092,1.018,0.213,-0.244,1.707,0.488,651.75
124860,157114,11330,-0.098,1.016,0.211,-0.244,1.707,0.488,651.754
124860,157120,11212,-0.097,1.018,0.213,-0.366,1.159,0.549,651.76
124895,157114,11330,-0.097,1.017,0.215,-0.366,1.159,0.549,651.763
124895,157120,11200,-0.095,1.019,0.22,0.183,0.305,0.488,651.77
124902,157114,11330,-0.09,1.014,0.222,0.183,0.305,0.488,651.773
124902,157127,11210,-0.085,1.015,0.227,1.28,-0.122,0.427,651.78
124937,157114,11330,-0.087,1.021,0.223,1.28,-0.122,0.427,651.783
124937,157118,11215,-0.093,1.02,0.223,2.012,0.122,0.183,651.789
124947,157114,11330,-0.095,1.019,0.229,2.012,0.122,0.183,651.793
124947,157167,11217,-0.091,1.02,0.226,2.317,0.488,0.061,651.799
124971,157370,11330,-0.094,1.027,0.218,2.317,0.488,0.061,651.803
124971,157193,11223,-0.095,1.025,0.22,1.707,0.244,-0.122,651.809
125007,157370,11330,-0.094,1.021,0.226,1.707,0.244,-0.122,651.813
125007,157211,11229,-0.094,1.021,0.226,1.28,-0.061,-0.061,651.819
125031,157370,11330,-0.095,1.021,0.221,1.28,-0.061,-0.061,651.823
125031,157223,11222,-0.094,1.021,0.224,0,-0.183,0,651.829
125062,157370,11330,-0.091,1.017,0.23,0,-0.183,0,651.833
125062,157235,11234,-0.089,1.019,0.233,-0.732,-0.122,0.122,651.839
125080,157370,11330,-0.087,1.02,0.228,-0.732,-0.122,0.122,651.843
125080,157245,11221,-0.089,1.021,0.22,-1.524,0.061,0.122,651.849
125140,157370,11330,-0.091,1.024,0.219,-1.524,0.061,0.122,651.853
125140,157275,11226,-0.09,1.022,0.219,-1.402,0.122,0,651.859
125171,157370,11330,-0.087,1.019,0.225,-1.402,0.122,0,651.862
125171,157267,11261,-0.087,1.012,0.222,-0.488,0.061,-0.061,651.869
125204,157370,11330,-0.089,1.016,0.218,-0.488,0.061,-0.061,651.872
125204,157265,11264,-0.092,1.022,0.214,-0.061,0.305,0.122,651.879
125235,157370,11330,-0.094,1.022,0.214,-0.061,0.305,0.122,651.882
125235,157243,11261,-0.095,1.018,0.223,0.488,0.61,0.366,651.888
125261,157370,11330,-0.096,1.013,0.229,0.488,0.61,0.366,651.892
125261,157281,11275,-0.094,1.012,0.232,0.854,0.305,0.366,651.898
125275,157370,11330,-0.098,1.018,0.223,0.854,0.305,0.366,651.902
125275,157283,11273,-0.094,1.018,0.228,0.915,-0.061,0.183,651.908
125277,157370,11330,-0.09,1.02,0.227,0.915,-0.061,0.183,651.912
125277,157228,11275,-0.089,1.02,0.23,1.463,0.061,0.061,651.918
125284,157370,11330,-0.09,1.024,0.234,1.463,0.061,0.061,651.922
125284,157205,11276,-0.09,1.024,0.228,1.037,0.488,0.244,651.928
125281,157114,11330,-0.092,1.019,0.225,1.037,0.488,0.244,651.932
125281,157157,11278,-0.09,1.017,0.224,0.122,0.915,0.183,651.938
125235,157114,11330,-0.09,1.012,0.227,0.122,0.915,0.183,651.942
125235,157158,11272,-0.088,1.009,0.226,-0.305,0.732,0,651.948
125249,157114,11330,-0.087,1.012,0.222,-0.305,0.732,0,651.952
125249,157171,11269,-0.087,1.013,0.216,0,0.671,0.305,651.958
125246,157114,11330,-0.088,1.017,0.216,0,0.671,0.305,651.961
125246,157147,11267,-0.089,1.021,0.222,0.244,0.732,0.366,651.968
125272,157114,11330,-0.089,1.02,0.228,0.244,0.732,0.366,651.971
125272,157129,11284,-0.088,1.022,0.227,0.183,0.61,0.488,651.978
125264,157114,11330,-0.09,1.024,0.223,0.183,0.61,0.488,651.981
125264,157154,11272,-0.09,1.023,0.218,-0.122,0.427,0.488,651.987
125308,157114,11330,-0.091,1.021,0.211,-0.122,0.427,0.488,651.991
125308,157122,11273,-0.095,1.017,0.21,0.61,0.61,0.061,651.997
125298,157114,11330,-0.096,1.016,0.21,0.61,0.61,0.061,652.001
125298,157126,11298,-0.096,1.021,0.214,1.89,0.427,-0.061,652.007
125291,157114,11330,-0.094,1.025,0.213,1.89,0.427,-0.061,652.011
125291,157139,11270,-0.093,1.027,0.219,3.78,0.061,-0.061,652.017
125304,157114,11330,-0.093,1.018,0.225,3.78,0.061,-0.061,652.021
125304,157135,11277,-0.088,1.01,0.221,5.244,-0.061,-0.366,652.027
125297,157114,11330,-0.093,1.016,0.214,5.244,-0.061,-0.366,652.031
125297,157122,11304,-0.098,1.022,0.214,4.634,0.671,-0.244,652.037
125301,157114,11330,-0.102,1.027,0.224,4.634,0.671,-0.244,652.041
125301,157114,11301,-0.1,1.027,0.226,3.11,1.159,0,652.047
125295,157114,11330,-0.099,1.029,0.227,3.11,1.159,0,652.051
125295,157121,11280,-0.094,1.028,0.222,0.427,0.61,0.305,652.057
125258,157114,11330,-0.089,1.033,0.216,0.427,0.61,0.305,652.06
125258,157106,11282,-0.093,1.025,0.215,-2.012,0.061,0.427,652.067
125252,157114,11330,-0.093,1.011,0.213,-2.012,0.061,0.427,652.07
125252,157111,11284,-0.092,1.003,0.219,-2.5,-0.183,0.183,652.076
125236,157114,11330,-0.09,1.007,0.222,-2.5,-0.183,0.183,652.08
125236,157100,11278,-0.094,1.009,0.225,-1.037,0.061,0.488,652.086
125251,157114,11330,-0.093,1.01,0.229,-1.037,0.061,0.488,652.09
125251,157107,11261,-0.092,1.015,0.23,0.915,0.549,0.488,652.096
125240,157114,11330,-0.091,1.022,0.228,0.915,0.549,0.488,652.1
125240,157126,11282,-0.092,1.026,0.222,1.89,0.976,0.183,652.106
125250,157114,11330,-0.093,1.031,0.222,1.89,0.976,0.183,652.11
125250,157118,11269,-0.091,1.027,0.222,1.89,1.037,-0.122,652.116
125261,157114,11330,-0.091,1.027,0.222,1.89,1.037,-0.122,652.12
125261,157122,11277,-0.09,1.019,0.221,1.28,0.732,-0.122,652.126
125277,157114,11330,-0.09,1.019,0.221,1.28,0.732,-0.122,652.13
125277,157139,11267,-0.094,1.007,0.213,0.793,0.793,0.061,652.136
125260,157114,11330,-0.094,1.007,0.213,0.793,0.793,0.061,652.14
125260,157111,11282,-0.094,1.018,0.21,0.671,0.915,0.305,652.146
125272,157114,11330,-0.094,1.018,0.21,0.671,0.915,0.305,652.15
125272,157112,11267,-0.096,1.024,0.22,0.671,0.854,0.488,652.156
125243,157114,11330,-0.096,1.024,0.22,0.671,0.854,0.488,652.159
125243,157114,11272,-0.094,1.03,0.209,-0.183,0.549,0.61,652.166
125246,157114,11330,-0.094,1.03,0.209,-0.183,0.549,0.61,652.169
125246,157092,11272,-0.091,1.021,0.211,-1.098,0.183,0.549,652.175
125255,157114,11330,-0.091,1.021,0.211,-1.098,0.183,0.549,652.179
125255,157093,11293,-0.093,1.013,0.212,-1.159,-0.122,0.61,652.185
125255,157114,11330,-0.093,1.013,0.212,-1.159,-0.122,0.61,652.189
125255,157083,11278,-0.094,1.017,0.218,-0.549,-0.061,0.61,652.195
125238,157114,11330,-0.094,1.017,0.218,-0.549,-0.061,0.61,652.199
125238,157100,11271,-0.089,1.015,0.228,1.28,-0.061,0.488,652.205
125233,157114,11330,-0.089,1.015,0.228,1.28,-0.061,0.488,652.209
125233,157113,11259,-0.087,1.032,0.22,1.707,0.122,0.061,652.215
125222,157114,11330,-0.087,1.032,0.22,1.707,0.122,0.061,652.219
125222,157108,11255,-0.09,1.027,0.224,1.585,0.488,0,652.225
125264,157114,11330,-0.09,1.027,0.224,1.585,0.488,0,652.229
125264,157101,11267,-0.089,1.016,0.222,1.951,0.305,-0.122,652.235
125259,157114,11330,-0.089,1.016,0.222,1.951,0.305,-0.122,652.239
125259,157106,11272,-0.089,1.019,0.216,1.098,0.305,-0.061,652.245
125224,157114,11330,-0.089,1.019,0.216,1.098,0.305,-0.061,652.248
125224,157109,11270,-0.087,1.02,0.222,1.098,0.305,-0.061,652.255
125234,157114,11330,-0.09,1.018,0.224,0.488,0.61,0.183,652.258
125234,157120,11267,-0.091,1.017,0.221,0.488,0.61,0.183,652.265
125224,157114,11330,-0.091,1.021,0.217,-0.549,0.732,0.366,652.268
125224,157129,11253,-0.089,1.02,0.214,-0.549,0.732,0.366,652.274
125216,157114,11330,-0.092,1.018,0.216,-1.524,0.488,0.366,652.278
125216,157109,11275,-0.095,1.015,0.217,-1.524,0.488,0.366,652.284
125196,157114,11330,-0.092,1.019,0.209,-1.646,0.305,0.427,652.288
125196,157109,11254,-0.096,1.025,0.2,-1.646,0.305,0.427,652.294
125210,157114,11330,-0.097,1.022,0.203,-1.524,0.366,0.549,652.298
125210,157103,11258,-0.099,1.019,0.208,-1.524,0.366,0.549,652.304
125196,157114,11330,-0.098,1.016,0.218,-0.244,0,0.61,652.308
125196,157118,11262,-0.099,1.016,0.223,-0.244,0,0.61,652.314
125207,157114,11330,-0.093,1.023,0.225,0.366,-0.244,0.671,652.318
125207,157107,11278,-0.092,1.026,0.225,0.366,-0.244,0.671,652.324
125200,157114,11330,-0.089,1.026,0.219,0.61,0,0.488,652.328
125200,157133,11263,-0.087,1.026,0.222,0.61,0,0.488,652.334
125230,157114,11330,-0.089,1.029,0.222,0.732,0.305,0,652.338
125230,157126,11249,-0.091,1.027,0.22,0.732,0.305,0,652.344
125215,157114,11330,-0.089,1.022,0.218,0.183,0.793,-0.061,652.347
125215,157116,11253,-0.093,1.015,0.218,0.183,0.793,-0.061,652.354
125227,157114,11330,-0.095,1.01,0.214,-0.122,1.037,-0.061,652.357
125227,157094,11274,-0.091,1.007,0.211,-0.122,1.037,-0.061,652.364
125217,157114,11330,-0.093,1.012,0.213,-0.183,0.671,0.122,652.367
125217,157135,11264,-0.094,1.016,0.216,-0.183,0.671,0.122,652.373
125225,157114,11330,-0.096,1.02,0.216,-0.122,0.305,0.427,652.377
125225,157134,11265,-0.093,1.023,0.214,-0.122,0.305,0.427,652.383
125238,157114,11330,-0.091,1.022,0.221,-0.488,0.183,0.488,652.387
125238,157102,11280,-0.094,1.022,0.226,-0.488,0.183,0.488,652.393
125251,157114,11330,-0.095,1.02,0.227,-1.037,0.061,0.61,652.397
125251,157112,11278,-0.093,1.02,0.223,-1.037,0.061,0.61,652.403
125234,157114,11330,-0.09,1.02,0.217,-1.22,0.244,0.488,652.407
125234,157095,11263,-0.09,1.019,0.214,-1.22,0.244,0.488,652.413
125240,157114,11330,-0.091,1.015,0.215,-0.305,0.488,0.366,652.417
125240,157085,11262,-0.092,1.013,0.217,-0.305,0.488,0.366,652.423
125230,157114,11330,-0.097,1.013,0.209,0,0.915,0.366,652.427
125230,157085,11280,-0.099,1.016,0.208,0,0.915,0.366,652.433
125237,157114,11330,-0.094,1.02,0.215,0.488,0.915,0.366,652.437
125237,157097,11276,-0.096,1.025,0.218,0.488,0.915,0.366,652.443
125235,157114,11330,-0.096,1.029,0.221,1.098,0.305,0.427,652.446
125235,157094,11276,-0.093,1.029,0.224,1.098,0.305,0.427,652.453
125248,157114,11330,-0.092,1.028,0.223,0.183,0.061,0.366,652.456
125248,157078,11257,-0.092,1.028,0.218,0.183,0.061,0.366,652.463
125242,157114,11330,-0.093,1.028,0.216,-0.976,0.549,0.244,652.466
125242,157069,11277,-0.095,1.022,0.216,-0.976,0.549,0.244,652.472
125261,157114,11330,-0.089,1.013,0.212,-0.915,0.61,0.183,652.476
125261,157065,11281,-0.092,1.007,0.214,-0.915,0.61,0.183,652.482
125271,157114,11330,-0.093,1.008,0.216,-0.488,0.244,0.122,652.486
125271,157099,11256,-0.091,1.013,0.22,-0.488,0.244,0.122,652.492
125253,157114,11330,-0.093,1.019,0.216,0.061,0.366,0.427,652.496
125253,157116,11262,-0.093,1.019,0.214,0.061,0.366,0.427,652.502
125261,157114,11330,-0.092,1.021,0.218,0.427,0.427,0.488,652.506
125261,157093,11282,-0.093,1.025,0.216,0.427,0.427,0.488,652.512
125253,157114,11330,-0.09,1.035,0.213,0,0.305,0.488,652.516
125253,157093,11276,-0.089,1.037,0.212,0,0.305,0.488,652.522
125260,157114,11330,-0.087,1.025,0.214,-0.427,0.061,0.549,652.526
125260,157110,11275,-0.086,1.012,0.219,-0.427,0.061,0.549,652.532
125253,157114,11330,-0.089,1.006,0.214,-0.305,0.061,0.244,652.536
125253,157079,11267,-0.094,1.012,0.213,-0.305,0.061,0.244,652.542
125244,157114,11330,-0.098,1.016,0.211,-0.793,0.549,0.549,652.545
125244,157074,11283,-0.095,1.021,0.213,-0.793,0.549,0.549,652.552
125278,157114,11330,-0.093,1.028,0.216,-0.122,0.427,0.427,652.555
125278,157088,11281,-0.095,1.031,0.217,-0.122,0.427,0.427,652.562
125270,157114,11330,-0.092,1.035,0.222,-0.244,-0.061,0.244,652.565
125270,157094,11268,-0.091,1.034,0.222,-0.244,-0.061,0.244,652.571
125247,157114,11330,-0.086,1.033,0.225,-1.037,-0.244,0.061,652.575
125247,157078,11281,-0.085,1.019,0.223,-1.037,-0.244,0.061,652.581
125265,157114,11330,-0.087,1.002,0.223,-0.793,0.061,-0.305,652.585
125265,157076,11272,-0.088,0.995,0.22,-0.793,0.061,-0.305,652.591
125239,157114,11330,-0.093,1.006,0.216,-0.549,0.61,0.061,652.595
125239,157084,11289,-0.095,1.015,0.218,-0.549,0.61,0.061,652.601
125253,157114,11330,-0.095,1.019,0.222,0.488,0.854,0.244,652.605
125253,157105,11267,-0.09,1.025,0.232,0.488,0.854,0.244,652.611
125245,157114,11330,-0.084,1.03,0.228,1.22,0.732,0.366,652.615
125245,157107,11278,-0.087,1.034,0.224,1.22,0.732,0.366,652.621
125268,157114,11330,-0.086,1.023,0.224,0.244,1.098,0.427,652.625
125268,157066,11284,-0.088,1.011,0.216,0.244,1.098,0.427,652.631
125284,157114,11330,-0.094,1.006,0.215,-0.244,1.341,0.122,652.635
125284,157085,11285,-0.097,1.002,0.212,-0.244,1.341,0.122,652.641
125283,157114,11330,-0.098,1.007,0.212,-0.061,1.463,0.427,652.644
125283,157084,11277,-0.099,1.02,0.211,-0.061,1.463,0.427,652.651
125310,157114,11330,-0.101,1.025,0.205,0.549,1.341,0.732,652.654
125310,157062,11296,-0.098,1.031,0.209,0.549,1.341,0.732,652.661
125285,157114,11330,-0.097,1.039,0.214,0.549,0.671,0.732,652.664
125285,157066,11275,-0.093,1.033,0.215,0.549,0.671,0.732,652.67
125274,157114,11330,-0.094,1.022,0.213,-0.427,0.183,0.671,652.674
125274,157076,11272,-0.097,1.013,0.214,-0.427,0.183,0.671,652.68
125274,157114,11330,-0.097,1.014,0.21,-0.976,0.305,0.549,652.684
125274,157076,11265,-0.096,1.017,0.208,-0.976,0.305,0.549,652.69
125256,157114,11330,-0.096,1.017,0.208,-0.976,0.305,0.549,652.694
125256,157070,11278,-0.098,1.019,0.214,-0.244,0.549,0.488,652.7
125267,157114,11330,-0.098,1.019,0.214,-0.244,0.549,0.488,652.704
125267,157080,11284,-0.092,1.025,0.217,0.854,0.183,0.366,652.71
125276,157114,11330,-0.092,1.025,0.217,0.854,0.183,0.366,652.714
125276,157057,11290,-0.092,1.024,0.221,0.793,-0.183,0.122,652.72
125279,157114,11330,-0.092,1.024,0.221,0.793,-0.183,0.122,652.724
125279,157049,11285,-0.089,1.016,0.218,0.366,-0.305,-0.122,652.73
125283,157114,11330,-0.089,1.016,0.218,0.366,-0.305,-0.122,652.734
125283,157081,11260,-0.089,1.016,0.221,-0.366,-0.122,-0.122,652.74
125266,157114,11330,-0.089,1.016,0.221,-0.366,-0.122,-0.122,652.743
125266,157084,11289,-0.09,1.017,0.224,-1.159,0.122,0.183,652.75
125286,157114,11330,-0.09,1.017,0.224,-1.159,0.122,0.183,652.753
125286,157091,11273,-0.089,1.021,0.219,-1.341,0.061,0.488,652.759
125284,157114,11330,-0.089,1.021,0.219,-1.341,0.061,0.488,652.763
125284,157073,11288,-0.089,1.018,0.216,-1.098,0,0.366,652.769
125282,157114,11330,-0.089,1.018,0.216,-1.098,0,0.366,652.773
125282,157075,11288,-0.09,1.025,0.205,-1.159,0.183,0.427,652.779
125287,157114,11330,-0.09,1.025,0.205,-1.159,0.183,0.427,652.783
125287,157078,11290,-0.097,1.021,0.209,-1.585,0.366,0.671,652.789
125294,157114,11330,-0.097,1.021,0.209,-1.585,0.366,0.671,652.793
125294,157095,11289,-0.093,1.02,0.207,-1.341,-0.122,0.854,652.799
125299,157114,11330,-0.093,1.02,0.207,-1.341,-0.122,0.854,652.803
125299,157092,11272,-0.092,1.026,0.214,-1.463,-0.549,0.793,652.809
125298,157114,11330,-0.092,1.026,0.214,-1.463,-0.549,0.793,652.813
125298,157094,11286,-0.094,1.022,0.22,-0.854,-0.61,0.488,652.819
125300,157114,11330,-0.094,1.022,0.22,-0.854,-0.61,0.488,652.823
125300,157092,11285,-0.096,1.021,0.225,-0.061,-0.488,0.427,652.829
125303,157114,11330,-0.096,1.021,0.225,-0.061,-0.488,0.427,652.833
125303,157078,11289,-0.099,1.019,0.224,-0.488,0.183,0.61,652.839
125294,157114,11330,-0.097,1.025,0.218,-0.488,0.183,0.61,652.842
125294,157083,11282,-0.097,1.026,0.222,-0.488,0.793,0.366,652.849
125293,157114,11330,-0.098,1.025,0.226,-0.488,0.793,0.366,652.852
125293,157069,11291,-0.093,1.026,0.227,0,0.427,-0.122,652.859
125281,157114,11330,-0.091,1.023,0.225,0,0.427,-0.122,652.862
125281,157054,11285,-0.091,1.011,0.233,0.244,0.244,-0.183,652.868
125285,157114,11330,-0.091,1.003,0.226,0.244,0.244,-0.183,652.872
125285,157048,11282,-0.09,1.001,0.225,0.793,0.488,-0.183,652.878
125288,157114,11330,-0.089,1.004,0.228,0.793,0.488,-0.183,652.882
125288,157058,11284,-0.089,1.008,0.229,1.341,0.854,0.061,652.888
125310,157114,11330,-0.092,1.016,0.222,1.341,0.854,0.061,652.892
125310,157062,11290,-0.091,1.023,0.22,1.463,1.037,0.427,652.898
125278,157114,11330,-0.091,1.025,0.217,1.463,1.037,0.427,652.902
125278,157058,11296,-0.091,1.023,0.211,0.427,0.976,0.793,652.908
125305,157114,11330,-0.096,1.026,0.21,0.427,0.976,0.793,652.912
125305,157055,11275,-0.097,1.024,0.211,-1.22,0.549,0.976,652.918
125305,157114,11330,-0.093,1.022,0.211,-1.22,0.549,0.976,652.922
125305,157057,11298,-0.097,1.016,0.213,-1.646,-0.061,0.976,652.928
125309,157114,11330,-0.094,1.013,0.209,-1.646,-0.061,0.976,652.932
125309,157060,11283,-0.094,1.014,0.209,-0.732,-0.061,1.037,652.938
125318,157114,11330,-0.098,1.022,0.212,-0.732,-0.061,1.037,652.941
125318,157056,11292,-0.094,1.025,0.221,0.854,0.427,0.854,652.948
125300,157114,11330,-0.094,1.028,0.22,0.854,0.427,0.854,652.951
125300,157051,11282,-0.097,1.034,0.22,1.829,0.915,0.549,652.957
125306,157114,11330,-0.095,1.032,0.219,1.829,0.915,0.549,652.961
125306,157060,11285,-0.096,1.027,0.226,1.341,0.976,0.244,652.967
125288,157114,11330,-0.092,1.024,0.223,1.341,0.976,0.244,652.971
125288,157059,11295,-0.09,1.023,0.216,0.488,0.732,0.122,652.977
125273,157114,11330,-0.091,1.02,0.209,0.488,0.732,0.122,652.981
125273,157045,11299,-0.088,1.017,0.208,0,0.732,0,652.987
125288,157114,11330,-0.089,1.014,0.218,0,0.732,0,652.991
125288,157049,11292,-0.086,1.012,0.218,0.061,0.671,0.122,652.997
125302,157114,11330,-0.083,1.013,0.222,0.061,0.671,0.122,653.001
125302,157054,11292,-0.088,1.015,0.218,-0.427,0.732,0.488,653.007
125298,157114,11330,-0.089,1.018,0.22,-0.427,0.732,0.488,653.011
125298,157068,11294,-0.086,1.019,0.222,-0.915,0.549,0.549,653.017
125275,157114,11330,-0.087,1.023,0.216,-0.915,0.549,0.549,653.021
125275,157075,11286,-0.088,1.022,0.214,-1.22,0.793,0.61,653.027
125320,157114,11330,-0.093,1.022,0.213,-1.22,0.793,0.61,653.03
125320,157097,11272,-0.096,1.022,0.211,-1.768,0.732,0.732,653.037
125289,157114,11330,-0.095,1.019,0.213,-1.768,0.732,0.732,653.04
125289,157098,11296,-0.098,1.017,0.212,-2.073,0.427,0.61,653.047
125255,157114,11330,-0.098,1.016,0.207,-2.073,0.427,0.61,653.05
125255,157099,11276,-0.099,1.018,0.205,-1.402,0.183,0.549,653.056
125237,157114,11330,-0.097,1.015,0.212,-1.402,0.183,0.549,653.06
125237,157087,11271,-0.097,1.016,0.216,-0.061,-0.061,0.61,653.066
125233,157114,11330,-0.094,1.02,0.22,-0.061,-0.061,0.61,653.07
125233,157085,11277,-0.094,1.026,0.225,0.183,0,0.61,653.076
125186,157114,11330,-0.097,1.021,0.226,0.183,0,0.61,653.08
125186,157069,11277,-0.095,1.022,0.226,-0.244,0.244,0.488,653.086
125185,157114,11330,-0.094,1.027,0.223,-0.244,0.244,0.488,653.09
125185,157085,11267,-0.093,1.027,0.222,-1.037,0.305,0.366,653.096
125176,157114,11330,-0.093,1.025,0.219,-1.037,0.305,0.366,653.1
125176,157094,11260,-0.092,1.016,0.218,-0.976,0.427,0.183,653.106
125188,157114,11330,-0.092,1.011,0.216,-0.976,0.427,0.183,653.11
125188,157084,11276,-0.092,1.014,0.219,-0.305,0.488,0.061,653.116
125196,157114,11330,-0.092,1.015,0.221,-0.305,0.488,0.061,653.12
125196,157079,11274,-0.091,1.02,0.224,0.305,0.732,0.244,653.126
125217,157114,11330,-0.091,1.026,0.221,0.305,0.732,0.244,653.129
125217,157055,11264,-0.088,1.025,0.224,0.488,0.732,0.244,653.136
125224,157114,11330,-0.086,1.02,0.221,0.488,0.732,0.244,653.139
125224,157054,11271,-0.087,1.018,0.222,-0.061,0.488,0.244,653.146
125257,157114,11330,-0.089,1.021,0.222,-0.061,0.488,0.244,653.149
125257,157053,11273,-0.091,1.025,0.214,-0.854,0.793,0.305,653.155
125266,157114,11330,-0.092,1.022,0.213,-0.854,0.793,0.305,653.159
125266,157056,11271,-0.09,1.008,0.211,-0.427,0.915,0.183,653.165
125272,157114,11330,-0.089,1.006,0.206,-0.427,0.915,0.183,653.169
125272,157063,11284,-0.09,1.005,0.203,0.854,0.671,0.244,653.175
125253,157114,11330,-0.095,1.013,0.209,0.854,0.671,0.244,653.179
125253,157032,11277,-0.098,1.021,0.216,1.22,0.427,0.549,653.185
125271,157114,11330,-0.098,1.031,0.221,1.22,0.427,0.549,653.189
125271,157045,11267,-0.096,1.035,0.22,0.732,0.305,0.671,653.195
125255,157114,11330,-0.095,1.035,0.222,0.732,0.305,0.671,653.199
125255,157044,11273,-0.092,1.031,0.217,-0.854,0.122,0.488,653.205
125272,157114,11330,-0.092,1.028,0.215,-0.854,0.122,0.488,653.209
125272,157035,11299,-0.092,1.029,0.215,-1.768,0.061,0.244,653.215
125271,157114,11330,-0.088,1.023,0.214,-1.768,0.061,0.244,653.219
125271,157015,11279,-0.087,1.007,0.217,-0.427,0.183,-0.122,653.225
125290,157114,11330,-0.09,0.996,0.22,-0.427,0.183,-0.122,653.228
125290,157027,11277,-0.094,1.001,0.214,0.976,0.854,0.061,653.235
125303,157114,11330,-0.096,1.014,0.214,0.976,0.854,0.061,653.238
125303,157029,11280,-0.098,1.025,0.217,1.402,1.22,0.366,653.245
125289,157114,11330,-0.097,1.031,0.224,1.402,1.22,0.366,653.248
125289,157016,11287,-0.092,1.036,0.221,1.524,0.732,0.305,653.254
125305,157114,11330,-0.091,1.039,0.218,1.524,0.732,0.305,653.258
125305,157018,11284,-0.089,1.034,0.219,-0.183,0.244,0.122,653.264
125281,157114,11330,-0.089,1.024,0.217,-0.183,0.244,0.122,653.268
125281,157026,11293,-0.088,1.013,0.216,-1.159,0.183,-0.061,653.274
125288,157114,11330,-0.088,1.013,0.216,-1.159,0.183,-0.061,653.278
125288,157024,11283,-0.095,1,0.213,-0.671,0.305,0.061,653.284
125290,157114,11330,-0.095,1,0.213,-0.671,0.305,0.061,653.288
125290,157003,11283,-0.093,1.008,0.211,0.793,0.61,0.427,653.294
125281,157114,11330,-0.093,1.008,0.211,0.793,0.61,0.427,653.298
125281,157025,11284,-0.093,1.03,0.216,1.463,0.793,0.793,653.304
