120782,154373,10716,-0.103,1.032,0.135,-1.28,-0.061,0.427,258.145
120742,154554,11330,-0.1,1.03,0.135,-1.22,-0.061,0.061,258.148
120742,154376,10721,-0.097,1.025,0.144,-1.22,-0.061,0.061,258.155
120734,154298,11330,-0.098,1.026,0.15,-0.183,-0.061,0.061,258.158
120734,154365,10719,-0.099,1.033,0.145,-0.183,-0.061,0.061,258.165
120719,154298,11330,-0.093,1.041,0.14,-0.244,0.366,0.305,258.168
120719,154363,10704,-0.093,1.044,0.141,-0.244,0.366,0.305,258.174
120727,154554,11330,-0.091,1.036,0.147,-1.037,0.427,0.427,258.178
120727,154368,10701,-0.09,1.029,0.146,-1.037,0.427,0.427,258.184
120724,154298,11330,-0.093,1.026,0.129,-2.073,0.305,0.488,258.188
120724,154345,10729,-0.092,1.024,0.118,-2.073,0.305,0.488,258.194
120744,154298,11330,-0.094,1.025,0.125,-2.5,0.366,0.427,258.198
120744,154342,10719,-0.094,1.032,0.136,-2.5,0.366,0.427,258.204
120746,154554,11330,-0.094,1.044,0.135,-1.524,0.122,0.427,258.208
120746,154373,10723,-0.094,1.044,0.133,-1.524,0.122,0.427,258.214
120756,154298,11330,-0.097,1.043,0.136,-1.646,0.122,0.427,258.218
120756,154353,10723,-0.102,1.037,0.143,-1.646,0.122,0.427,258.224
120756,154554,11330,-0.104,1.036,0.147,-2.073,0.122,0.183,258.228
120756,154375,10747,-0.102,1.038,0.147,-2.073,0.122,0.183,258.234
120792,154554,11330,-0.103,1.038,0.153,-1.951,-0.244,0.122,258.238
120792,154400,10725,-0.095,1.028,0.158,-1.951,-0.244,0.122,258.244
120797,154554,11330,-0.094,1.019,0.161,-1.341,-0.244,0.427,258.247
120797,154368,10734,-0.098,1.021,0.151,-1.341,-0.244,0.427,258.254
120800,154554,11330,-0.099,1.026,0.14,-2.012,0.305,0.915,258.257
120800,154389,10731,-0.099,1.023,0.137,-2.012,0.305,0.915,258.264
120819,154554,11330,-0.096,1.022,0.143,-2.5,0.366,0.915,258.267
120819,154428,10713,-0.098,1.024,0.143,-2.5,0.366,0.915,258.273
120836,154554,11330,-0.099,1.021,0.134,-2.195,0.244,1.159,258.277
120836,154442,10740,-0.101,1.026,0.123,-2.195,0.244,1.159,258.283
120863,154554,11330,-0.108,1.034,0.123,-2.561,0.366,1.646,258.287
120863,154451,10728,-0.107,1.04,0.132,-2.561,0.366,1.646,258.293
120849,154554,11330,-0.104,1.039,0.135,-2.561,-0.305,1.402,258.297
120849,154478,10731,-0.103,1.041,0.127,-2.561,-0.305,1.402,258.303
120875,154554,11330,-0.098,1.042,0.137,-2.073,-1.159,0.976,258.307
120875,154465,10729,-0.1,1.037,0.147,-2.073,-1.159,0.976,258.313
120862,154554,11330,-0.097,1.034,0.147,-1.89,-1.707,0.427,258.317
120862,154473,10738,-0.099,1.034,0.141,-1.89,-1.707,0.427,258.323
120846,154554,11330,-0.1,1.035,0.14,-1.951,-1.89,0.122,258.327
120846,154464,10734,-0.1,1.037,0.136,-1.951,-1.89,0.122,258.333
120853,154554,11330,-0.102,1.035,0.135,-1.951,-1.585,-0.122,258.337
120853,154467,10704,-0.101,1.03,0.141,-1.951,-1.585,-0.122,258.343
120828,154554,11330,-0.101,1.027,0.139,-2.378,-1.646,-0.305,258.346
120828,154428,10723,-0.103,1.028,0.132,-2.378,-1.646,-0.305,258.353
120830,154554,11330,-0.104,1.026,0.126,-3.354,-1.89,0,258.356
120830,154452,10749,-0.107,1.025,0.125,-3.354,-1.89,0,258.363
120840,154554,11330,-0.103,1.026,0.124,-3.049,-1.768,0.244,258.366
120840,154422,10722,-0.104,1.028,0.132,-3.049,-1.768,0.244,258.372
120820,154554,11330,-0.104,1.03,0.136,-2.256,-2.073,0.244,258.376
120820,154430,10732,-0.1,1.037,0.142,-2.256,-2.073,0.244,258.382
120843,154554,11330,-0.098,1.041,0.147,-2.317,-2.195,0.305,258.386
120843,154426,10715,-0.095,1.04,0.146,-2.317,-2.195,0.305,258.392
120845,154554,11330,-0.093,1.036,0.149,-2.927,-1.951,0.183,258.396
120845,154426,10718,-0.093,1.035,0.153,-2.927,-1.951,0.183,258.402
120837,154554,11330,-0.093,1.035,0.153,-2.927,-1.951,0.183,258.406
120837,154449,10750,-0.095,1.034,0.147,-4.085,-1.646,0.122,258.412
120881,154554,11330,-0.095,1.034,0.147,-4.085,-1.646,0.122,258.416
120881,154471,10743,-0.09,1.026,0.163,-5.305,-1.28,0.061,258.422
120906,154554,11330,-0.09,1.026,0.163,-5.305,-1.28,0.061,258.426
120906,154486,10750,-0.092,1.03,0.16,-5.61,-1.402,0.061,258.432
120922,154554,11330,-0.092,1.03,0.16,-5.61,-1.402,0.061,258.436
120922,154494,10737,-0.09,1.03,0.173,-5.61,-1.098,0,258.442
120957,154554,11330,-0.09,1.03,0.173,-5.61,-1.098,0,258.445
120957,154503,10740,-0.09,1.023,0.176,-4.451,-0.549,-0.427,258.452
120921,154554,11330,-0.09,1.023,0.176,-4.451,-0.549,-0.427,258.455
120921,154510,10728,-0.091,1.028,0.168,-3.293,0.122,-0.549,258.461
120914,154554,11330,-0.091,1.028,0.168,-3.293,0.122,-0.549,258.465
120914,154488,10742,-0.094,1.022,0.159,-2.134,0.976,-0.61,258.471
120914,154554,11330,-0.094,1.022,0.159,-2.134,0.976,-0.61,258.475
120914,154497,10735,-0.098,1.025,0.149,-1.524,1.463,-0.488,258.481
120871,154554,11330,-0.098,1.025,0.149,-1.524,1.463,-0.488,258.485
120871,154463,10735,-0.098,1.021,0.14,-2.012,1.585,0.061,258.491
120870,154554,11330,-0.098,1.021,0.14,-2.012,1.585,0.061,258.495
120870,154476,10734,-0.098,1.024,0.143,-1.89,1.402,0.305,258.501
120884,154554,11330,-0.098,1.024,0.143,-1.89,1.402,0.305,258.505
120884,154485,10727,-0.097,1.03,0.149,-1.707,1.098,0.671,258.511
120882,154554,11330,-0.097,1.03,0.149,-1.707,1.098,0.671,258.515
120882,154464,10727,-0.1,1.033,0.147,-0.976,1.037,0.793,258.521
120811,154554,11330,-0.1,1.033,0.147,-0.976,1.037,0.793,258.525
120811,154424,10711,-0.095,1.035,0.161,-0.366,1.159,0.732,258.531
120810,154554,11330,-0.095,1.035,0.161,-0.366,1.159,0.732,258.535
120810,154378,10727,-0.099,1.044,0.162,0.488,1.341,0.488,258.541
120734,154554,11330,-0.099,1.044,0.162,0.488,1.341,0.488,258.544
120734,154376,10721,-0.098,1.042,0.153,0.366,1.707,0.366,258.551
120720,154298,11330,-0.097,1.041,0.149,0.366,1.707,0.366,258.554
120720,154346,10694,-0.099,1.037,0.143,-0.061,2.012,0,258.56
120695,154298,11330,-0.1,1.03,0.145,-0.061,2.012,0,258.564
120695,154336,10712,-0.098,1.026,0.146,-0.305,1.768,-0.183,258.57
120631,154298,11330,-0.099,1.025,0.148,-0.305,1.768,-0.183,258.574
120631,154289,10709,-0.094,1.024,0.152,0.305,1.341,-0.122,258.58
120593,154298,11330,-0.092,1.025,0.145,0.305,1.341,-0.122,258.584
120593,154227,10693,-0.095,1.031,0.134,0.976,1.28,-0.183,258.59
120494,154298,11330,-0.099,1.036,0.14,0.976,1.28,-0.183,258.594
120494,154132,10679,-0.1,1.035,0.152,0.305,1.159,-0.061,258.6
120375,154042,11330,-0.1,1.031,0.148,0.305,1.159,-0.061,258.604
120375,154056,10664,-0.098,1.026,0.141,-0.61,0.854,0.305,258.61
120283,154042,11330,-0.097,1.024,0.141,-0.61,0.854,0.305,258.614
120283,154000,10643,-0.1,1.027,0.144,-0.793,0.488,0.427,258.62
120179,154042,11330,-0.103,1.031,0.144,-0.793,0.488,0.427,258.624
120179,153892,10648,-0.105,1.032,0.141,-0.244,0.122,0.427,258.63
120099,153786,11330,-0.103,1.036,0.151,-0.244,0.122,0.427,258.634
120099,153847,10640,-0.103,1.04,0.157,0.061,0.061,0.366,258.64
120043,153786,11330,-0.104,1.041,0.156,0.061,0.061,0.366,258.643
120043,153833,10634,-0.103,1.035,0.147,-0.427,0.061,0.244,258.65
120027,153786,11330,-0.103,1.03,0.145,-0.427,0.061,0.244,258.653
120027,153791,10622,-0.105,1.026,0.151,-1.159,0,0.122,258.659
120017,153786,11330,-0.103,1.028,0.151,-1.159,0,0.122,258.663
120017,153786,10611,-0.101,1.033,0.146,-1.28,0.061,0.122,258.669
120022,153786,11330,-0.099,1.034,0.144,-1.28,0.061,0.122,258.673
120022,153796,10611,-0.102,1.034,0.152,-1.28,0.183,0.061,258.679
120024,153786,11330,-0.102,1.027,0.153,-1.28,0.183,0.061,258.683
120024,153797,10635,-0.098,1.024,0.15,-0.671,0.183,-0.061,258.689
120061,153786,11330,-0.099,1.029,0.148,-0.671,0.183,-0.061,258.693
120061,153830,10631,-0.094,1.029,0.155,-0.183,0.061,0,258.699
120122,154042,11330,-0.094,1.027,0.161,-0.183,0.061,0,258.703
120122,153890,10628,-0.092,1.03,0.164,0.305,0,0.244,258.709
120145,154042,11330,-0.089,1.032,0.156,0.305,0,0.244,258.713
120145,153925,10627,-0.092,1.032,0.157,-0.122,0.427,0.366,258.719
120186,154042,11330,-0.094,1.031,0.16,-0.122,0.427,0.366,258.723
120186,153927,10645,-0.096,1.03,0.158,-1.22,0.549,0.549,258.729
120201,154042,11330,-0.094,1.028,0.146,-1.22,0.549,0.549,258.733
120201,153956,10643,-0.095,1.024,0.142,-1.829,0.488,0.61,258.739
120238,154042,11330,-0.093,1.018,0.154,-1.829,0.488,0.61,258.742
120238,153969,10644,-0.099,1.021,0.158,-0.854,0.732,0.671,258.749
120256,154042,11330,-0.102,1.027,0.149,-0.854,0.732,0.671,258.752
120256,153986,10650,-0.101,1.029,0.144,-0.549,0.61,0.732,258.758
120270,154042,11330,-0.101,1.029,0.141,-0.549,0.61,0.732,258.762
120270,154031,10647,-0.103,1.032,0.143,0.122,0.366,0.488,258.768
120327,154042,11330,-0.103,1.036,0.146,0.122,0.366,0.488,258.772
120327,154045,10665,-0.104,1.036,0.145,0.183,0.244,0.488,258.778
120376,154042,11330,-0.106,1.038,0.14,0.183,0.244,0.488,258.782
120376,154093,10659,-0.108,1.035,0.144,-0.305,0.061,0.427,258.788
120404,154298,11330,-0.104,1.028,0.154,-0.305,0.061,0.427,258.792
120404,154137,10655,-0.1,1.028,0.161,-0.122,-0.244,0.183,258.798
120449,154298,11330,-0.098,1.028,0.161,-0.122,-0.244,0.183,258.802
120449,154161,10662,-0.096,1.034,0.157,-0.122,0.122,0.305,258.808
120468,154298,11330,-0.098,1.037,0.158,-0.122,0.122,0.305,258.812
120468,154162,10666,-0.094,1.036,0.162,0.183,0.671,0.122,258.818
120500,154298,11330,-0.092,1.031,0.165,0.183,0.671,0.122,258.822
120500,154188,10677,-0.094,1.031,0.16,-0.183,0.915,0.122,258.828
120543,154298,11330,-0.094,1.028,0.15,-0.183,0.915,0.122,258.831
120543,154245,10681,-0.093,1.021,0.147,-1.037,1.037,0.183,258.838
120560,154298,11330,-0.095,1.019,0.149,-1.037,1.037,0.183,258.841
120560,154269,10684,-0.097,1.02,0.147,-0.732,1.037,0.488,258.848
120548,154298,11330,-0.101,1.02,0.148,-0.732,1.037,0.488,258.851
120548,154241,10666,-0.097,1.023,0.146,-0.366,1.159,0.854,258.857
120577,154298,11330,-0.101,1.028,0.143,-0.366,1.159,0.854,258.861
120577,154260,10685,-0.1,1.034,0.146,-0.183,1.037,0.854,258.867
120589,154298,11330,-0.1,1.033,0.146,-0.183,1.037,0.854,258.871
120589,154273,10685,-0.103,1.033,0.146,-0.488,0.671,0.915,258.877
120608,154298,11330,-0.101,1.036,0.149,-0.488,0.671,0.915,258.881
120608,154295,10687,-0.105,1.035,0.146,-0.854,0.671,0.976,258.887
120607,154298,11330,-0.105,1.033,0.15,-0.854,0.671,0.976,258.891
120607,154320,10694,-0.102,1.033,0.155,-0.427,0.61,0.549,258.897
120643,154298,11330,-0.099,1.036,0.154,-0.427,0.61,0.549,258.901
120643,154298,10690,-0.097,1.034,0.157,0.244,0.427,0.305,258.907
120627,154298,11330,-0.098,1.035,0.16,0.244,0.427,0.305,258.911
120627,154308,10696,-0.093,1.033,0.161,0.671,0.549,0.122,258.917
120648,154298,11330,-0.095,1.034,0.157,0.671,0.549,0.122,258.921
120648,154354,10690,-0.095,1.033,0.158,0.427,0.793,0,258.927
120680,154298,11330,-0.095,1.028,0.157,0.427,0.793,0,258.93
120680,154354,10696,-0.096,1.028,0.157,-0.122,0.976,-0.061,258.937
120693,154554,11330,-0.092,1.031,0.152,-0.122,0.976,-0.061,258.94
120693,154375,10711,-0.092,1.03,0.146,-0.61,1.037,0.061,258.947
120727,154554,11330,-0.094,1.025,0.143,-0.61,1.037,0.061,258.95
120727,154380,10714,-0.098,1.025,0.141,-0.61,0.854,0.305,258.956
120760,154554,11330,-0.101,1.023,0.144,-0.61,0.854,0.305,258.96
120760,154420,10713,-0.104,1.021,0.14,-0.671,0.793,0.61,258.966
120791,154554,11330,-0.106,1.024,0.14,-0.671,0.793,0.61,258.97
120791,154426,10717,-0.102,1.033,0.145,-0.732,0.427,0.854,258.976
120815,154554,11330,-0.099,1.036,0.148,-0.732,0.427,0.854,258.98
120815,154458,10725,-0.098,1.037,0.149,-0.61,-0.061,0.976,258.986
120820,154554,11330,-0.098,1.037,0.149,-0.61,-0.061,0.976,258.99
120820,154511,10727,-0.107,1.037,0.139,-0.976,-0.122,0.976,258.996
120835,154554,11330,-0.107,1.037,0.139,-0.976,-0.122,0.976,259
120835,154493,10743,-0.11,1.035,0.141,-1.524,-0.732,0.732,259.006
120856,154554,11330,-0.11,1.035,0.141,-1.524,-0.732,0.732,259.01
120856,154515,10737,-0.097,1.034,0.162,-1.22,-1.951,0.549,259.016
120865,154554,11330,-0.097,1.034,0.162,-1.22,-1.951,0.549,259.02
120865,154504,10733,-0.093,1.026,0.158,-1.341,-1.768,0.732,259.026
120878,154554,11330,-0.093,1.026,0.158,-1.341,-1.768,0.732,259.029
120878,154514,10731,-0.1,1.035,0.155,-1.28,-0.854,0.427,259.036
120891,154554,11330,-0.1,1.035,0.155,-1.28,-0.854,0.427,259.039
120891,154516,10728,-0.099,1.036,0.167,-0.671,-0.854,0.366,259.046
120881,154554,11330,-0.099,1.036,0.167,-0.671,-0.854,0.366,259.049
120881,154515,10733,-0.097,1.027,0.156,-0.976,-0.732,0.305,259.055
120901,154554,11330,-0.097,1.027,0.156,-0.976,-0.732,0.305,259.059
120901,154540,10744,-0.096,1.03,0.167,-1.22,-0.305,0.488,259.065
120903,154554,11330,-0.096,1.03,0.167,-1.22,-0.305,0.488,259.069
120903,154546,10733,-0.098,1.026,0.154,-1.585,0.122,0.549,259.075
120882,154554,11330,-0.098,1.026,0.154,-1.585,0.122,0.549,259.079
120882,154534,10734,-0.102,1.021,0.142,-1.951,0.366,0.671,259.085
120903,154554,11330,-0.102,1.021,0.142,-1.951,0.366,0.671,259.089
120903,154533,10747,-0.1,1.02,0.141,-1.28,0.122,0.976,259.095
120892,154554,11330,-0.1,1.02,0.141,-1.28,0.122,0.976,259.099
120892,154543,10736,-0.099,1.033,0.141,-0.732,-0.305,1.098,259.105
120891,154554,11330,-0.099,1.033,0.141,-0.732,-0.305,1.098,259.109
120891,154541,10746,-0.1,1.038,0.147,-0.732,-0.183,1.037,259.115
120891,154554,11330,-0.1,1.038,0.147,-0.732,-0.183,1.037,259.119
120891,154515,10739,-0.097,1.036,0.164,-0.732,-0.244,0.732,259.125
120907,154554,11330,-0.097,1.036,0.164,-0.732,-0.244,0.732,259.128
120907,154505,10747,-0.096,1.032,0.169,-0.732,-0.244,0.732,259.135
120907,154554,11330,-0.091,1.032,0.173,-0.671,0,0.671,259.138
120907,154516,10758,-0.091,1.039,0.173,-0.671,0,0.671,259.145
120929,154554,11330,-0.092,1.037,0.168,-0.793,0.549,0.488,259.148
120929,154557,10739,-0.091,1.032,0.163,-0.793,0.549,0.488,259.154
120926,154554,11330,-0.089,1.029,0.151,-0.732,1.098,0,259.158
120926,154539,10745,-0.091,1.023,0.154,-0.732,1.098,0,259.164
120954,154554,11330,-0.092,1.019,0.153,-1.159,1.402,0.061,259.168
120954,154594,10746,-0.093,1.012,0.156,-1.159,1.402,0.061,259.174
120997,154554,11330,-0.093,1.011,0.149,-0.732,1.22,0.305,259.178
120997,154601,10755,-0.092,1.017,0.148,-0.732,1.22,0.305,259.184
121007,154810,11330,-0.093,1.028,0.146,0.244,1.28,0.427,259.188
121007,154627,10732,-0.095,1.043,0.147,0.244,1.28,0.427,259.194
121040,154810,11330,-0.098,1.045,0.153,0.915,1.22,0.366,259.198
121040,154652,10766,-0.101,1.041,0.154,0.915,1.22,0.366,259.204
121050,154810,11330,-0.106,1.03,0.157,0.427,1.037,0.244,259.208
121050,154660,10751,-0.105,1.024,0.153,0.427,1.037,0.244,259.214
121053,154810,11330,-0.102,1.023,0.155,-0.122,0.976,0.427,259.218
121053,154645,10748,-0.1,1.023,0.158,-0.122,0.976,0.427,259.224
121069,154810,11330,-0.098,1.028,0.166,0.793,0.793,0.488,259.227
121069,154663,10759,-0.098,1.028,0.165,0.793,0.793,0.488,259.234
121054,154810,11330,-0.098,1.026,0.15,1.707,0.854,0.549,259.237
121054,154643,10758,-0.1,1.027,0.154,1.707,0.854,0.549,259.244
121060,154810,11330,-0.102,1.031,0.159,1.28,0.976,0.61,259.247
121060,154658,10755,-0.099,1.032,0.166,1.28,0.976,0.61,259.253
121078,154810,11330,-0.094,1.029,0.158,1.159,0.732,0.61,259.257
121078,154682,10783,-0.091,1.031,0.148,1.159,0.732,0.61,259.263
121106,154810,11330,-0.094,1.036,0.148,0.854,0.61,0.549,259.267
121106,154712,10777,-0.096,1.036,0.15,0.854,0.61,0.549,259.273
121245,154810,11330,-0.098,1.035,0.146,0.244,0.732,0.549,259.277
121245,154830,10770,-0.098,1.031,0.141,0.244,0.732,0.549,259.283
121441,155066,11330,-0.099,1.031,0.142,-0.183,0.488,0.488,259.287
121441,154990,10817,-0.097,1.029,0.143,-0.183,0.488,0.488,259.293
121656,155322,11330,-0.099,1.033,0.146,-0.122,0.244,0.549,259.297
121656,155158,10830,-0.099,1.033,0.15,-0.122,0.244,0.549,259.303
121859,155322,11330,-0.099,1.037,0.148,0.183,0.122,0.549,259.307
121859,155337,10847,-0.098,1.039,0.146,0.183,0.122,0.549,259.313
121999,155578,11330,-0.097,1.037,0.149,0.305,0.122,0.366,259.317
121999,155428,10890,-0.102,1.036,0.152,0.305,0.122,0.366,259.323
122107,155578,11330,-0.101,1.029,0.158,0.122,0.244,0.244,259.326
122107,155495,10902,-0.1,1.028,0.16,0.122,0.244,0.244,259.333
122156,155578,11330,-0.099,1.027,0.165,-0.061,0.244,0.427,259.336
122156,155549,10907,-0.095,1.024,0.161,-0.061,0.244,0.427,259.342
122148,155578,11330,-0.093,1.022,0.162,0,0.305,0.488,259.346
122148,155563,10898,-0.095,1.021,0.164,0,0.305,0.488,259.352
122169,155578,11330,-0.096,1.025,0.158,0.183,0.366,0.671,259.356
122169,155587,10910,-0.095,1.029,0.155,0.183,0.366,0.671,259.362
122192,155578,11330,-0.097,1.027,0.152,0,0.427,0.671,259.366
122192,155600,10901,-0.098,1.027,0.152,0,0.427,0.671,259.372
122211,155578,11330,-0.1,1.033,0.147,-0.305,0.488,0.732,259.376
122211,155612,10916,-0.101,1.035,0.143,-0.305,0.488,0.732,259.382
122244,155578,11330,-0.097,1.039,0.152,-1.037,0.488,0.976,259.386
122244,155638,10906,-0.094,1.042,0.152,-1.037,0.488,0.976,259.392
122289,155834,11330,-0.092,1.04,0.146,-0.61,0.244,0.61,259.396
122289,155660,10925,-0.092,1.036,0.144,-0.61,0.244,0.61,259.402
122309,155578,11330,-0.098,1.031,0.148,0.366,0.183,0.244,259.406
122309,155643,10925,-0.098,1.029,0.148,0.366,0.183,0.244,259.412
122314,155834,11330,-0.099,1.028,0.147,1.22,0.427,0,259.416
122314,155701,10929,-0.096,1.03,0.152,1.22,0.427,0,259.422
122349,155834,11330,-0.095,1.027,0.155,1.829,0.488,0.122,259.425
122349,155729,10932,-0.094,1.029,0.155,1.829,0.488,0.122,259.432
122360,155834,11330,-0.095,1.032,0.158,1.524,0.366,0.305,259.435
122360,155725,10935,-0.095,1.036,0.159,1.524,0.366,0.305,259.442
122389,155834,11330,-0.092,1.031,0.158,0.671,0.61,0.549,259.445
122389,155736,10940,-0.094,1.026,0.157,0.671,0.61,0.549,259.451
122366,155834,11330,-0.095,1.025,0.15,0.122,0.854,0.732,259.455
122366,155754,10955,-0.095,1.029,0.15,0.122,0.854,0.732,259.461
122374,155834,11330,-0.096,1.031,0.148,-0.183,0.976,0.854,259.465
122374,155735,10937,-0.093,1.03,0.15,-0.183,0.976,0.854,259.471
122373,155834,11330,-0.094,1.031,0.143,-0.061,0.854,0.854,259.475
122373,155735,10934,-0.099,1.034,0.139,-0.061,0.854,0.854,259.481
122349,155834,11330,-0.103,1.03,0.138,-0.793,0.61,0.793,259.485
122349,155722,10933,-0.1,1.026,0.137,-0.793,0.61,0.793,259.491
122340,155834,11330,-0.099,1.026,0.141,-0.61,0.183,0.671,259.495
122340,155676,10947,-0.101,1.03,0.146,-0.61,0.183,0.671,259.501
122275,155834,11330,-0.099,1.031,0.142,0.244,-0.122,0.671,259.505
122275,155656,10932,-0.102,1.035,0.143,0.244,-0.122,0.671,259.511
122274,155578,11330,-0.1,1.04,0.151,0.854,-0.183,0.366,259.515
122274,155644,10921,-0.099,1.042,0.161,0.854,-0.183,0.366,259.521
122227,155578,11330,-0.098,1.043,0.168,0.671,-0.366,0.183,259.524
122227,155587,10921,-0.097,1.037,0.167,0.671,-0.366,0.183,259.531
122159,155578,11330,-0.093,1.029,0.167,0.488,-0.61,-0.061,259.534
122159,155555,10911,-0.092,1.024,0.162,0.488,-0.61,-0.061,259.54
122109,155578,11330,-0.095,1.023,0.16,0.671,-0.244,-0.183,259.544
122109,155533,10912,-0.091,1.026,0.162,0.671,-0.244,-0.183,259.55
122083,155578,11330,-0.092,1.027,0.16,0.854,0.305,-0.061,259.554
122083,155494,10908,-0.093,1.024,0.149,0.854,0.305,-0.061,259.56
122064,155578,11330,-0.094,1.026,0.148,0.61,0.671,0.244,259.564
122064,155496,10886,-0.095,1.026,0.145,0.61,0.671,0.244,259.57
122058,155578,11330,-0.095,1.026,0.145,0.61,0.671,0.244,259.574
122058,155464,10902,-0.098,1.019,0.144,0.122,0.549,0.427,259.58
122057,155578,11330,-0.098,1.019,0.144,0.122,0.549,0.427,259.584
122057,155468,10892,-0.1,1.03,0.143,0.427,0.183,0.671,259.59
122079,155578,11330,-0.1,1.03,0.143,0.427,0.183,0.671,259.594
122079,155478,10896,-0.099,1.042,0.144,0.793,0.183,0.915,259.6
122054,155578,11330,-0.099,1.042,0.144,0.793,0.183,0.915,259.604
122054,155482,10901,-0.1,1.041,0.152,0.793,0.183,0.793,259.61
122056,155578,11330,-0.1,1.041,0.152,0.793,0.183,0.793,259.614
122056,155486,10892,-0.101,1.032,0.152,0.305,0.183,0.671,259.62
122074,155578,11330,-0.101,1.032,0.152,0.305,0.183,0.671,259.623
122074,155474,10892,-0.095,1.027,0.159,0.122,0.366,0.488,259.63
122072,155578,11330,-0.095,1.027,0.159,0.122,0.366,0.488,259.633
122072,155479,10897,-0.093,1.027,0.164,1.159,0.549,0.244,259.639
122053,155578,11330,-0.093,1.027,0.164,1.159,0.549,0.244,259.643
122053,155471,10896,-0.096,1.038,0.166,1.707,0.915,0.305,259.649
122061,155578,11330,-0.096,1.038,0.166,1.707,0.915,0.305,259.653
122061,155467,10890,-0.092,1.026,0.147,0.915,1.28,0.183,259.659
122049,155578,11330,-0.092,1.026,0.147,0.915,1.28,0.183,259.663
122049,155459,10889,-0.096,1.023,0.143,0.244,1.098,0.061,259.669
122061,155578,11330,-0.096,1.023,0.143,0.244,1.098,0.061,259.673
122061,155464,10899,-0.095,1.021,0.141,-0.122,0.854,0.305,259.679
122030,155578,11330,-0.095,1.021,0.141,-0.122,0.854,0.305,259.683
122030,155456,10877,-0.095,1.028,0.138,-0.122,0.549,0.549,259.689
122050,155578,11330,-0.095,1.028,0.138,-0.122,0.549,0.549,259.693
122050,155449,10883,-0.099,1.045,0.136,0.183,0.305,0.671,259.699
122015,155578,11330,-0.099,1.045,0.136,0.183,0.305,0.671,259.703
122015,155437,10908,-0.1,1.038,0.147,0,0,0.61,259.709
121985,155578,11330,-0.1,1.038,0.147,0,0,0.61,259.712
121985,155421,10888,-0.104,1.037,0.146,-0.183,-0.244,0.488,259.719
121958,155322,11330,-0.101,1.032,0.141,-0.183,-0.244,0.488,259.722
121958,155378,10892,-0.101,1.031,0.142,-0.854,-0.427,0.366,259.729
121927,155322,11330,-0.101,1.034,0.151,-0.854,-0.427,0.366,259.732
121927,155343,10874,-0.097,1.035,0.162,-0.671,-0.427,0.366,259.738
121893,155322,11330,-0.096,1.037,0.169,-0.671,-0.427,0.366,259.742
121893,155369,10870,-0.095,1.037,0.164,-0.61,-0.122,0.305,259.748
121864,155322,11330,-0.095,1.033,0.153,-0.61,-0.122,0.305,259.752
121864,155301,10885,-0.094,1.032,0.148,-0.366,0.427,0,259.758
121820,155322,11330,-0.096,1.03,0.146,-0.366,0.427,0,259.762
121820,155288,10857,-0.094,1.028,0.146,-0.122,0.793,0,259.768
121807,155322,11330,-0.095,1.02,0.149,-0.122,0.793,0,259.772
121807,155272,10849,-0.091,1.016,0.157,0.549,0.854,0.305,259.778
121786,155322,11330,-0.091,1.02,0.156,0.549,0.854,0.305,259.782
121786,155244,10856,-0.09,1.023,0.151,0.427,0.976,0.732,259.788
121782,155322,11330,-0.092,1.026,0.152,0.427,0.976,0.732,259.792
121782,155235,10847,-0.094,1.026,0.154,-0.061,0.976,1.159,259.798
121704,155322,11330,-0.092,1.028,0.154,-0.061,0.976,1.159,259.802
121704,155184,10853,-0.092,1.023,0.154,0.122,0.305,1.463,259.808
121670,155322,11330,-0.092,1.026,0.151,0.122,0.305,1.463,259.812
121670,155159,10830,-0.092,1.032,0.148,0.183,0.305,1.463,259.818
121604,155066,11330,-0.093,1.034,0.148,0.183,0.305,1.463,259.821
121604,155086,10817,-0.096,1.034,0.143,1.098,0.366,1.037,259.828
121525,155066,11330,-0.099,1.033,0.139,1.098,0.366,1.037,259.831
121525,155047,10810,-0.103,1.033,0.132,1.524,0.366,0.61,259.837
121489,155066,11330,-0.103,1.038,0.136,1.524,0.366,0.61,259.841
121489,155001,10820,-0.103,1.038,0.142,1.341,0.427,0.305,259.847
121442,155066,11330,-0.101,1.032,0.14,1.341,0.427,0.305,259.851
121442,154994,10797,-0.099,1.035,0.133,1.22,0.183,0.366,259.857
121424,155066,11330,-0.099,1.037,0.137,1.22,0.183,0.366,259.861
121424,154904,10802,-0.1,1.034,0.144,1.159,0.183,0.305,259.867
121367,155066,11330,-0.104,1.036,0.147,1.159,0.183,0.305,259.871
121367,154918,10796,-0.101,1.034,0.148,1.037,0.427,0.183,259.877
121329,155066,11330,-0.099,1.031,0.15,1.037,0.427,0.183,259.881
121329,154895,10798,-0.101,1.026,0.153,0.549,0.366,0.122,259.887
121301,154810,11330,-0.098,1.026,0.148,0.549,0.366,0.122,259.891
121301,154825,10793,-0.098,1.022,0.148,0.061,0.366,0.244,259.897
121278,154810,11330,-0.099,1.025,0.15,0.061,0.366,0.244,259.901
121278,154826,10788,-0.095,1.029,0.15,0.183,0.427,0.488,259.907
121255,154810,11330,-0.095,1.029,0.157,0.183,0.427,0.488,259.91
121255,154814,10790,-0.092,1.032,0.157,0,0.366,0.61,259.917
121188,154810,11330,-0.091,1.032,0.151,0,0.366,0.61,259.92
121188,154758,10773,-0.089,1.03,0.148,-0.122,0.305,0.732,259.927
121165,154810,11330,-0.089,1.029,0.148,-0.122,0.305,0.732,259.93
121165,154724,10768,-0.09,1.031,0.141,0.305,0.366,0.549,259.936
121114,154810,11330,-0.091,1.033,0.141,0.305,0.366,0.549,259.94
121114,154693,10765,-0.091,1.032,0.147,0.61,0.366,0.366,259.946
121039,154810,11330,-0.093,1.032,0.147,0.61,0.366,0.366,259.95
121039,154627,10744,-0.09,1.033,0.148,0.549,0.427,0.549,259.956
120968,154554,11330,-0.092,1.036,0.146,0.549,0.427,0.549,259.96
120968,154585,10752,-0.093,1.037,0.143,0.305,0.488,0.427,259.966
120931,154554,11330,-0.095,1.036,0.14,0.305,0.488,0.427,259.97
120931,154541,10740,-0.096,1.034,0.141,0.488,0.549,0.122,259.976
120881,154554,11330,-0.099,1.03,0.145,0.488,0.549,0.122,259.98
120881,154496,10732,-0.103,1.034,0.144,0.366,0.793,0.366,259.986
120830,154554,11330,-0.099,1.039,0.143,0.366,0.793,0.366,259.99
120830,154442,10715,-0.098,1.036,0.141,-0.305,0.732,0.305,259.996
120757,154554,11330,-0.098,1.032,0.144,-0.305,0.732,0.305,260
120757,154397,10703,-0.097,1.03,0.151,-0.305,0.488,0.305,260.006
120695,154298,11330,-0.096,1.031,0.158,-0.305,0.488,0.305,260.009
120695,154354,10709,-0.094,1.03,0.16,0.183,0.671,0.122,260.016
120615,154298,11330,-0.095,1.029,0.157,0.183,0.671,0.122,260.019
120615,154301,10692,-0.095,1.03,0.158,1.037,1.22,0.061,260.026
120553,154298,11330,-0.093,1.025,0.158,1.037,1.22,0.061,260.029
120553,154211,10689,-0.093,1.021,0.151,1.768,1.28,0.061,260.035
120479,154298,11330,-0.093,1.022,0.144,1.768,1.28,0.061,260.039
120479,154181,10685,-0.097,1.026,0.142,1.829,1.463,0.122,260.045
120358,154042,11330,-0.096,1.031,0.143,1.829,1.463,0.122,260.049
120358,154069,10649,-0.096,1.029,0.143,0.915,1.341,0.427,260.055
120269,154042,11330,-0.096,1.035,0.145,0.915,1.341,0.427,260.059
120269,153976,10647,-0.096,1.037,0.143,-0.122,0.793,0.671,260.065
120160,154042,11330,-0.093,1.038,0.142,-0.122,0.793,0.671,260.069
120160,153882,10627,-0.093,1.037,0.144,-0.793,0.488,0.61,260.075
120018,153786,11330,-0.094,1.036,0.144,-0.793,0.488,0.61,260.079
120018,153767,10621,-0.095,1.032,0.142,-0.183,0.732,0.305,260.085
119879,153786,11330,-0.097,1.032,0.142,-0.183,0.732,0.305,260.089
119879,153681,10595,-0.098,1.036,0.144,0.488,1.159,0.183,260.095
119738,153530,11330,-0.098,1.04,0.142,0.488,1.159,0.183,260.099
119738,153571,10588,-0.1,1.031,0.145,0.366,1.341,0,260.105
119659,153530,11330,-0.1,1.03,0.142,0.366,1.341,0,260.108
119659,153481,10574,-0.101,1.036,0.143,0.244,1.098,-0.183,260.115
119573,153530,11330,-0.099,1.034,0.142,0.244,1.098,-0.183,260.118
119573,153445,10570,-0.098,1.026,0.144,0.366,0.976,0.061,260.125
119501,153530,11330,-0.097,1.022,0.145,0.366,0.976,0.061,260.128
119501,153368,10563,-0.097,1.026,0.141,-0.122,0.793,0.183,260.134
119479,153530,11330,-0.098,1.022,0.145,-0.122,0.793,0.183,260.138
119479,153350,10536,-0.099,1.018,0.149,-0.305,0.671,0.305,260.144
119445,153274,11330,-0.094,1.023,0.15,-0.305,0.671,0.305,260.148
119445,153318,10535,-0.094,1.031,0.148,0.671,0.488,0.549,260.154
119394,153274,11330,-0.094,1.031,0.148,0.671,0.488,0.549,260.158
119394,153315,10529,-0.089,1.034,0.147,1.037,0.366,0.732,260.164
119381,153274,11330,-0.089,1.034,0.147,1.037,0.366,0.732,260.168
119381,153259,10536,-0.093,1.039,0.137,0.183,0.305,0.671,260.174
119352,153274,11330,-0.093,1.039,0.137,0.183,0.305,0.671,260.178
119352,153264,10512,-0.097,1.032,0.127,-0.305,0.305,0.427,260.184
119357,153274,11330,-0.097,1.032,0.127,-0.305,0.305,0.427,260.188
119357,153274,10537,-0.1,1.033,0.138,0.122,0,0.366,260.194
119339,153274,11330,-0.1,1.033,0.138,0.122,0,0.366,260.198
119339,153263,10530,-0.093,1.041,0.145,0.854,-0.183,0.305,260.204
119366,153274,11330,-0.093,1.041,0.145,0.854,-0.183,0.305,260.207
119366,153285,10553,-0.098,1.04,0.15,0.671,0.183,0.122,260.214
119370,153274,11330,-0.098,1.04,0.15,0.671,0.183,0.122,260.217
119370,153306,10546,-0.098,1.028,0.146,-0.122,0.305,0.061,260.224
119422,153274,11330,-0.098,1.028,0.146,-0.122,0.305,0.061,260.227
119422,153334,10528,-0.095,1.023,0.148,-0.183,0.061,0.183,260.233
119451,153530,11330,-0.095,1.023,0.148,-0.183,0.061,0.183,260.237
119451,153347,10556,-0.093,1.023,0.145,0,0.244,0.427,260.243
119477,153530,11330,-0.093,1.023,0.145,0,0.244,0.427,260.247
119477,153368,10551,-0.099,1.025,0.146,-0.122,0.427,0.488,260.253
119502,153530,11330,-0.099,1.025,0.146,-0.122,0.427,0.488,260.257
119502,153397,10568,-0.099,1.023,0.145,-0.366,0.122,0.549,260.263
119544,153530,11330,-0.099,1.023,0.145,-0.366,0.122,0.549,260.267
119544,153423,10546,-0.094,1.029,0.151,0.244,0,0.61,260.273
119567,153530,11330,-0.094,1.029,0.151,0.244,0,0.61,260.277
119567,153428,10557,-0.095,1.031,0.153,1.037,0.061,0.549,260.283
119595,153530,11330,-0.095,1.031,0.153,1.037,0.061,0.549,260.287
119595,153456,10565,-0.094,1.04,0.145,0.976,0.305,0.488,260.293
119625,153530,11330,-0.094,1.04,0.145,0.976,0.305,0.488,260.297
119625,153486,10572,-0.095,1.036,0.144,0.976,0.305,0.488,260.303
119621,153530,11330,-0.095,1.032,0.142,0.61,0.244,0.305,260.306
119621,153488,10570,-0.096,1.032,0.141,0.61,0.244,0.305,260.313
119630,153530,11330,-0.094,1.032,0.139,0.244,0.244,0.366,260.316
119630,153509,10578,-0.095,1.03,0.139,0.244,0.244,0.366,260.323
119665,153530,11330,-0.091,1.03,0.144,0.183,0.244,0.305,260.326
119665,153527,10572,-0.094,1.035,0.14,0.183,0.244,0.305,260.332
119685,153530,11330,-0.097,1.036,0.141,0.244,0.244,0.427,260.336
119685,153501,10572,-0.096,1.038,0.144,0.244,0.244,0.427,260.342
119664,153530,11330,-0.096,1.036,0.144,0.061,0.549,0.244,260.346
119664,153538,10581,-0.096,1.039,0.146,0.061,0.549,0.244,260.352
119705,153530,11330,-0.095,1.034,0.144,-0.061,0.61,0.183,260.356
119705,153540,10593,-0.097,1.032,0.138,-0.061,0.61,0.183,260.362
119726,153530,11330,-0.101,1.033,0.142,-0.061,0.854,0.122,260.366
119726,153575,10595,-0.104,1.032,0.145,-0.061,0.854,0.122,260.372
119765,153786,11330,-0.101,1.027,0.148,-0.305,0.793,0.244,260.376
119765,153617,10592,-0.099,1.025,0.145,-0.305,0.793,0.244,260.382
119797,153786,11330,-0.097,1.026,0.148,-0.183,0.671,0.427,260.386
119797,153629,10604,-0.095,1.028,0.148,-0.183,0.671,0.427,260.392
119812,153786,11330,-0.094,1.027,0.144,0.122,0.61,0.427,260.396
119812,153651,10595,-0.095,1.028,0.146,0.122,0.61,0.427,260.402
119822,153786,11330,-0.094,1.029,0.146,0.366,0.549,0.305,260.405
119822,153659,10603,-0.094,1.032,0.139,0.366,0.549,0.305,260.412
119844,153786,11330,-0.093,1.032,0.136,-0.122,0.366,0.366,260.415
119844,153654,10593,-0.092,1.034,0.142,-0.122,0.366,0.366,260.422
119841,153786,11330,-0.09,1.032,0.141,-0.427,0.244,0.244,260.425
119841,153672,10595,-0.091,1.032,0.141,-0.427,0.244,0.244,260.431
119840,153786,11330,-0.094,1.038,0.143,-0.427,0.244,0.366,260.435
119840,153674,10595,-0.095,1.037,0.14,-0.427,0.244,0.366,260.441
119846,153786,11330,-0.096,1.037,0.139,-0.61,0.366,0.366,260.445
119846,153663,10579,-0.092,1.036,0.145,-0.61,0.366,0.366,260.451
119859,153786,11330,-0.092,1.036,0.144,-0.61,0.183,0.122,260.455
119859,153686,10609,-0.097,1.034,0.139,-0.61,0.183,0.122,260.461
119842,153786,11330,-0.099,1.031,0.137,-0.915,0.244,0.122,260.465
119842,153664,10591,-0.101,1.032,0.139,-0.915,0.244,0.122,260.471
119851,153786,11330,-0.101,1.031,0.144,-0.732,0.488,0.061,260.475
119851,153675,10600,-0.1,1.03,0.143,-0.732,0.488,0.061,260.481
119828,153786,11330,-0.1,1.034,0.139,-0.549,0.366,0,260.485
119828,153656,10586,-0.101,1.032,0.133,-0.549,0.366,0,260.491
119805,153786,11330,-0.099,1.031,0.139,-0.549,0.244,0.183,260.495
119805,153620,10589,-0.097,1.033,0.144,-0.549,0.244,0.183,260.501
119784,153786,11330,-0.098,1.034,0.15,-0.183,0.183,0.305,260.504
119784,153632,10602,-0.095,1.033,0.147,-0.183,0.183,0.305,260.511
119756,153530,11330,-0.097,1.031,0.146,-0.488,0.427,0.305,260.514
119756,153589,10589,-0.096,1.028,0.143,-0.488,0.427,0.305,260.521
119753,153530,11330,-0.091,1.029,0.146,-0.305,0.61,0.305,260.524
119753,153597,10579,-0.094,1.03,0.15,-0.305,0.61,0.305,260.53
119725,153530,11330,-0.097,1.03,0.147,0.122,0.671,0.427,260.534
119725,153581,10578,-0.095,1.031,0.145,0.122,0.671,0.427,260.54
119750,153530,11330,-0.097,1.029,0.144,-0.122,0.793,0.488,260.544
119750,153590,10594,-0.095,1.025,0.143,-0.122,0.793,0.488,260.55
119726,153530,11330,-0.097,1.024,0.146,0.061,0.732,0.549,260.554
119726,153582,10576,-0.094,1.022,0.151,0.061,0.732,0.549,260.56
119719,153530,11330,-0.095,1.027,0.143,0.732,0.732,0.61,260.564
119719,153573,10592,-0.096,1.033,0.14,0.732,0.732,0.61,260.57
119751,153530,11330,-0.1,1.037,0.14,1.951,0.732,0.488,260.574
119751,153571,10569,-0.101,1.032,0.144,1.951,0.732,0.488,260.58
119739,153530,11330,-0.098,1.032,0.142,3.232,0.488,0.183,260.584
119739,153569,10593,-0.096,1.031,0.136,3.232,0.488,0.183,260.59
119727,153530,11330,-0.097,1.028,0.138,5.122,0.305,0.061,260.594
119727,153579,10583,-0.098,1.024,0.133,5.122,0.305,0.061,260.6
119718,153530,11330,-0.096,1.018,0.125,8.78,0.366,-0.305,260.603
119718,153572,10589,-0.098,1.015,0.119,8.78,0.366,-0.305,260.61
119724,153530,11330,-0.102,1.023,0.124,12.683,0.61,-0.793,260.613
119724,153561,10590,-0.101,1.035,0.134,12.683,0.61,-0.793,260.62
119734,153530,11330,-0.099,1.043,0.148,13.659,0.671,-0.793,260.623
119734,153577,10579,-0.097,1.051,0.151,13.659,0.671,-0.793,260.629
119750,153530,11330,-0.097,1.06,0.153,8.841,0.671,-0.366,260.633
119750,153564,10604,-0.094,1.056,0.159,8.841,0.671,-0.366,260.639
119759,153530,11330,-0.093,1.046,0.156,0.793,0.915,0.366,260.643
119759,153568,10589,-0.095,1.04,0.145,0.793,0.915,0.366,260.649
119734,153530,11330,-0.092,1.032,0.139,-4.878,1.037,0.915,260.653
119734,153564,10587,-0.09,1.023,0.14,-4.878,1.037,0.915,260.659
119721,153530,11330,-0.093,1.016,0.138,-5.549,1.159,1.037,260.663
119721,153582,10574,-0.093,1.013,0.127,-5.549,1.159,1.037,260.669
119759,153530,11330,-0.093,1.016,0.118,-3.293,1.28,0.793,260.673
119759,153553,10583,-0.095,1.025,0.115,-3.293,1.28,0.793,260.679
119760,153530,11330,-0.099,1.028,0.12,-0.732,1.159,0.61,260.683
119760,153580,10592,-0.101,1.032,0.116,-0.732,1.159,0.61,260.689
119798,153786,11330,-0.099,1.03,0.116,0.732,0.427,0.488,260.693
119798,153608,10592,-0.1,1.027,0.114,0.732,0.427,0.488,260.699
119823,153786,11330,-0.102,1.029,0.12,1.28,-0.183,0.549,260.702
119823,153625,10607,-0.101,1.035,0.129,1.28,-0.183,0.549,260.709
119850,153786,11330,-0.097,1.039,0.138,2.683,-0.671,0.488,260.712
119850,153666,10622,-0.094,1.041,0.138,2.683,-0.671,0.488,260.719
119861,153786,11330,-0.094,1.041,0.141,4.207,-0.488,0.061,260.722
119861,153661,10609,-0.096,1.041,0.146,4.207,-0.488,0.061,260.728
119874,153786,11330,-0.097,1.041,0.145,5.244,0.183,-0.244,260.732
119874,153663,10594,-0.098,1.04,0.14,5.244,0.183,-0.244,260.738
119871,153786,11330,-0.098,1.04,0.14,5.244,0.183,-0.244,260.742
119871,153650,10617,-0.094,1.031,0.138,5,0.61,-0.488,260.748
119873,153786,11330,-0.094,1.031,0.138,5,0.61,-0.488,260.752
119873,153665,10595,-0.095,1.029,0.141,4.634,0.671,-0.488,260.758
119877,153786,11330,-0.095,1.029,0.141,4.634,0.671,-0.488,260.762
119877,153688,10614,-0.092,1.035,0.135,2.805,0.915,-0.183,260.768
119892,153786,11330,-0.092,1.035,0.135,2.805,0.915,-0.183,260.772
119892,153697,10599,-0.098,1.022,0.128,0.793,1.037,0.061,260.778
119880,153786,11330,-0.098,1.022,0.128,0.793,1.037,0.061,260.782
119880,153721,10611,-0.099,1.015,0.115,-0.305,1.098,0.61,260.788
119882,153786,11330,-0.099,1.015,0.115,-0.305,1.098,0.61,260.792
119882,153707,10605,-0.098,1.02,0.114,1.341,0.976,0.854,260.798
119931,153786,11330,-0.098,1.02,0.114,1.341,0.976,0.854,260.801
119931,153708,10602,-0.099,1.036,0.119,4.268,0.61,0.854,260.808
119935,153786,11330,-0.099,1.036,0.119,4.268,0.61,0.854,260.811
119935,153742,10609,-0.099,1.052,0.132,5.793,0.183,0.915,260.818
119961,153786,11330,-0.099,1.052,0.132,5.793,0.183,0.915,260.821
119961,153764,10610,-0.094,1.057,0.14,5.183,-0.061,0.61,260.827
120013,153786,11330,-0.094,1.057,0.14,5.183,-0.061,0.61,260.831
120013,153774,10628,-0.092,1.05,0.142,2.744,0.061,0.366,260.837
120032,153786,11330,-0.092,1.05,0.142,2.744,0.061,0.366,260.841
120032,153808,10614,-0.093,1.035,0.135,-0.671,0.549,0.244,260.847
120055,153786,11330,-0.093,1.035,0.135,-0.671,0.549,0.244,260.851
120055,153841,10619,-0.092,1.03,0.132,-2.744,0.915,0.305,260.857
120066,153786,11330,-0.092,1.03,0.132,-2.744,0.915,0.305,260.861
120066,153812,10634,-0.096,1.032,0.128,-3.72,1.159,0.366,260.867
120068,153786,11330,-0.096,1.032,0.128,-3.72,1.159,0.366,260.871
120068,153826,10629,-0.097,1.032,0.133,-4.085,1.341,0.366,260.877
120069,153786,11330,-0.097,1.028,0.129,-4.085,1.341,0.366,260.881
120069,153839,10632,-0.1,1.026,0.128,-4.268,1.22,0.366,260.887
120118,154042,11330,-0.101,1.021,0.12,-4.268,1.22,0.366,260.891
120118,153870,10636,-0.103,1.013,0.12,-3.049,0.976,0.427,260.897
120129,154042,11330,-0.102,1.013,0.122,-3.049,0.976,0.427,260.9
120129,153918,10643,-0.099,1.021,0.126,-0.183,0.732,0.549,260.907
120189,154042,11330,-0.1,1.034,0.13,-0.183,0.732,0.549,260.91
120189,153930,10637,-0.098,1.045,0.134,1.707,0.488,0.488,260.917
120234,154042,11330,-0.098,1.044,0.134,1.707,0.488,0.488,260.92
120234,153946,10657,-0.103,1.04,0.132,0.915,0.366,0.671,260.926
120234,154042,11330,-0.104,1.041,0.125,0.915,0.366,0.671,260.93
120234,153967,10651,-0.104,1.037,0.133,-1.402,0.122,0.732,260.936
120199,154042,11330,-0.097,1.032,0.137,-1.402,0.122,0.732,260.94
120199,153943,10646,-0.093,1.031,0.138,-1.463,-0.183,0.549,260.946
120209,154042,11330,-0.091,1.032,0.136,-1.463,-0.183,0.549,260.95
120209,153943,10655,-0.094,1.041,0.133,-1.159,0.122,0.427,260.956
120200,154042,11330,-0.094,1.044,0.138,-1.159,0.122,0.427,260.96
120200,153954,10637,-0.095,1.045,0.137,-1.524,0.732,0.244,260.966
120205,154042,11330,-0.091,1.043,0.139,-1.524,0.732,0.244,260.97
120205,153957,10640,-0.093,1.039,0.135,-2.927,0.671,0.183,260.976
120204,154042,11330,-0.095,1.032,0.127,-2.927,0.671,0.183,260.98
120204,153952,10638,-0.093,1.03,0.123,-3.476,0.732,0.366,260.986
120198,154042,11330,-0.09,1.021,0.124,-3.476,0.732,0.366,260.99
120198,153910,10625,-0.093,1.013,0.116,-1.585,0.732,0,260.996
120209,154042,11330,-0.096,1.021,0.112,-1.585,0.732,0,260.999
120209,153936,10659,-0.097,1.024,0.114,1.159,0.732,0,261.006
120197,154042,11330,-0.098,1.031,0.12,1.159,0.732,0,261.009
120197,153938,10654,-0.098,1.04,0.127,3.354,0.488,0.122,261.015
120205,154042,11330,-0.097,1.042,0.132,3.354,0.488,0.122,261.019
120205,153941,10651,-0.099,1.045,0.13,3.049,0.366,0,261.025
120181,154042,11330,-0.102,1.045,0.133,3.049,0.366,0,261.029
120181,153935,10640,-0.098,1.039,0.134,1.22,0.305,0.183,261.035
120211,154042,11330,-0.095,1.034,0.132,1.22,0.305,0.183,261.039
120211,153935,10638,-0.094,1.031,0.136,0.366,0.122,0.183,261.045
120221,154042,11330,-0.098,1.032,0.138,0.366,0.122,0.183,261.049
120221,153946,10652,-0.096,1.037,0.135,0.305,0.488,0,261.055
120242,154042,11330,-0.093,1.042,0.137,0.305,0.488,0,261.059
120242,153987,10658,-0.094,1.037,0.139,0.183,0.488,-0.305,261.065
120256,154042,11330,-0.092,1.034,0.138,0.183,0.488,-0.305,261.069
120256,154014,10657,-0.095,1.036,0.126,-0.305,0.366,-0.488,261.075
120306,154042,11330,-0.098,1.033,0.127,-0.305,0.366,-0.488,261.079
120306,154045,10647,-0.099,1.031,0.127,-0.427,0.427,-0.732,261.085
120364,154042,11330,-0.099,1.03,0.124,-0.427,0.427,-0.732,261.089
120364,154094,10661,-0.096,1.029,0.122,0.488,0.549,-0.732,261.095
120406,154042,11330,-0.099,1.034,0.118,0.488,0.549,-0.732,261.098
120406,154108,10667,-0.1,1.032,0.115,1.646,0.549,-0.732,261.105
120423,154298,11330,-0.101,1.028,0.116,1.646,0.549,-0.732,261.108
120423,154118,10676,-0.102,1.026,0.118,3.963,0.366,-1.037,261.115
120458,154298,11330,-0.102,1.025,0.118,3.963,0.366,-1.037,261.118
120458,154144,10677,-0.103,1.026,0.122,6.037,0.244,-1.22,261.124
120444,154298,11330,-0.104,1.026,0.127,6.037,0.244,-1.22,261.128
120444,154155,10674,-0.103,1.028,0.131,7.988,0.305,-1.22,261.134
120425,154298,11330,-0.105,1.034,0.131,7.988,0.305,-1.22,261.138
120425,154144,10656,-0.105,1.036,0.13,9.024,0.61,-1.22,261.144
120455,154298,11330,-0.102,1.039,0.135,9.024,0.61,-1.22,261.148
120455,154163,10671,-0.102,1.045,0.141,7.622,1.098,-1.037,261.154
120443,154298,11330,-0.1,1.044,0.142,7.622,1.098,-1.037,261.158
120443,154168,10665,-0.098,1.038,0.14,4.024,1.341,-0.488,261.164
120474,154298,11330,-0.098,1.037,0.143,4.024,1.341,-0.488,261.168
120474,154175,10669,-0.095,1.036,0.148,-0.366,1.341,-0.122,261.174
120481,154298,11330,-0.09,1.031,0.145,-0.366,1.341,-0.122,261.178
120481,154199,10679,-0.088,1.029,0.144,-3.415,1.341,0.305,261.184
120520,154298,11330,-0.086,1.026,0.14,-3.415,1.341,0.305,261.188
120520,154209,10685,-0.084,1.026,0.13,-4.573,1.646,0.549,261.194
120553,154298,11330,-0.087,1.019,0.122,-4.573,1.646,0.549,261.197
120553,154240,10689,-0.093,1.016,0.12,-3.78,2.073,0.488,261.204
120592,154298,11330,-0.096,1.016,0.11,-3.78,2.073,0.488,261.207
120592,154287,10678,-0.101,1.02,0.104,-1.89,2.256,0.366,261.214
120610,154298,11330,-0.105,1.021,0.105,-1.89,2.256,0.366,261.217
120610,154295,10701,-0.103,1.03,0.102,-0.061,1.646,0.549,261.223
120623,154298,11330,-0.103,1.037,0.096,-0.061,1.646,0.549,261.227
120623,154313,10706,-0.107,1.046,0.097,1.098,0.732,0.427,261.233
120642,154298,11330,-0.104,1.051,0.105,1.098,0.732,0.427,261.237
120642,154329,10711,-0.103,1.056,0.104,1.22,0.305,0.427,261.243
120667,154298,11330,-0.106,1.059,0.114,1.22,0.305,0.427,261.247
120667,154341,10695,-0.107,1.055,0.118,0.366,0.305,0.122,261.253
120666,154298,11330,-0.103,1.049,0.122,0.366,0.305,0.122,261.257
120666,154350,10702,-0.101,1.045,0.118,-0.732,0.183,-0.305,261.263
120708,154298,11330,-0.101,1.039,0.123,-0.732,0.183,-0.305,261.267
120708,154354,10719,-0.103,1.033,0.131,-0.915,0.488,-0.488,261.273
120734,154554,11330,-0.099,1.03,0.133,-0.915,0.488,-0.488,261.277
120734,154379,10699,-0.096,1.026,0.13,-0.122,0.793,-0.366,261.283
120756,154554,11330,-0.096,1.025,0.129,-0.122,0.793,-0.366,261.286
120756,154406,10713,-0.095,1.025,0.123,1.098,0.793,-0.488,261.293
120799,154554,11330,-0.094,1.023,0.117,1.098,0.793,-0.488,261.296
120799,154462,10718,-0.097,1.023,0.114,2.073,0.854,-0.366,261.303
120847,154554,11330,-0.1,1.019,0.109,2.073,0.854,-0.366,261.306
120847,154452,10716,-0.106,1.017,0.102,2.439,0.854,-0.122,261.312
120867,154554,11330,-0.106,1.017,0.102,2.439,0.854,-0.122,261.316
120867,154462,10739,-0.109,1.019,0.104,2.5,0.305,0.305,261.322
120856,154554,11330,-0.109,1.019,0.104,2.5,0.305,0.305,261.326
120856,154491,10728,-0.103,1.029,0.112,3.415,-0.976,0.61,261.332
120876,154554,11330,-0.103,1.029,0.112,3.415,-0.976,0.61,261.336
120876,154504,10741,-0.098,1.043,0.139,4.695,-1.585,0.549,261.342
120897,154554,11330,-0.098,1.043,0.139,4.695,-1.585,0.549,261.346
120897,154513,10743,-0.098,1.053,0.146,3.11,-0.549,0.671,261.352
120903,154554,11330,-0.098,1.053,0.146,3.11,-0.549,0.671,261.356
120903,154529,10728,-0.096,1.038,0.157,-0.915,0.854,0.854,261.362
120933,154554,11330,-0.096,1.038,0.157,-0.915,0.854,0.854,261.366
120933,154552,10737,-0.094,1.027,0.148,-4.817,2.5,1.341,261.372
120977,154554,11330,-0.094,1.027,0.148,-4.817,2.5,1.341,261.376
120977,154576,10745,-0.097,1.024,0.156,-7.256,4.207,2.073,261.382
121015,154810,11330,-0.097,1.024,0.156,-7.256,4.207,2.073,261.385
121015,154626,10752,-0.099,1.026,0.141,-10.244,5.244,2.683,261.392
121047,154810,11330,-0.099,1.026,0.141,-10.244,5.244,2.683,261.395
121047,154665,10752,-0.106,1.01,0.127,-12.012,5.732,3.293,261.402
121138,154810,11330,-0.106,1.01,0.127,-12.012,5.732,3.293,261.405
121138,154711,10770,-0.11,1.004,0.108,-10.488,5.549,3.659,261.411
121186,154810,11330,-0.11,1.004,0.108,-10.488,5.549,3.659,261.415
121186,154774,10768,-0.102,1.014,0.104,-3.841,4.939,3.537,261.421
121280,154810,11330,-0.102,1.014,0.104,-3.841,4.939,3.537,261.425
121280,154805,10775,-0.094,1.049,0.121,3.537,4.39,2.927,261.431
121316,154810,11330,-0.094,1.049,0.121,3.537,4.39,2.927,261.435
121316,154849,10795,-0.089,1.064,0.118,7.5,4.085,1.951,261.441
121336,154810,11330,-0.089,1.064,0.118,7.5,4.085,1.951,261.445
121336,154857,10782,-0.085,1.056,0.118,8.232,3.841,0.854,261.451
121303,154810,11330,-0.085,1.056,0.118,8.232,3.841,0.854,261.455
121303,154840,10788,-0.081,1.052,0.126,8.232,3.841,0.854,261.461
121276,154810,11330,-0.078,1.044,0.137,8.78,3.232,0.122,261.465
121276,154796,10795,-0.074,1.041,0.131,8.78,3.232,0.122,261.471
121230,154810,11330,-0.076,1.042,0.119,7.561,2.744,-0.427,261.475
121230,154778,10773,-0.086,1.042,0.114,7.561,2.744,-0.427,261.481
121243,154810,11330,-0.091,1.048,0.115,4.451,2.988,-0.854,261.484
121243,154797,10779,-0.096,1.049,0.115,4.451,2.988,-0.854,261.491
121279,154810,11330,-0.103,1.042,0.103,-0.122,2.683,-0.793,261.494
121279,154788,10780,-0.11,1.031,0.087,-0.122,2.683,-0.793,261.501
121291,154810,11330,-0.113,1.02,0.078,-4.024,1.646,-0.305,261.504
121291,154808,10790,-0.12,1.013,0.073,-4.024,1.646,-0.305,261.51
121310,154810,11330,-0.121,1.012,0.082,-4.146,0.61,0.305,261.514
121310,154819,10786,-0.12,1.015,0.085,-4.146,0.61,0.305,261.52
121317,154810,11330,-0.118,1.024,0.09,-0.854,-0.488,0.61,261.524
121317,154831,10775,-0.119,1.035,0.096,-0.854,-0.488,0.61,261.53
121328,154810,11330,-0.115,1.044,0.102,1.951,-1.341,0.854,261.534
121328,154855,10782,-0.114,1.049,0.114,1.951,-1.341,0.854,261.54
121344,154810,11330,-0.112,1.05,0.125,2.5,-1.89,0.732,261.544
121344,154863,10782,-0.105,1.047,0.133,2.5,-1.89,0.732,261.55
121321,154810,11330,-0.102,1.047,0.136,1.159,-2.134,0.488,261.554
121321,154866,10775,-0.099,1.045,0.131,1.159,-2.134,0.488,261.56
121330,154810,11330,-0.096,1.037,0.125,-0.793,-1.829,0.488,261.564
121330,154861,10781,-0.093,1.04,0.125,-0.793,-1.829,0.488,261.57
121280,154810,11330,-0.092,1.033,0.128,-1.463,-1.585,0,261.574
121280,154835,10782,-0.085,1.029,0.131,-1.463,-1.585,0,261.58
121291,154810,11330,-0.087,1.035,0.129,-1.463,-1.524,-0.305,261.583
121291,154814,10784,-0.089,1.039,0.123,-1.463,-1.524,-0.305,261.59
121284,154810,11330,-0.09,1.04,0.122,-2.134,-1.037,-0.122,261.593
121284,154804,10777,-0.089,1.04,0.125,-2.134,-1.037,-0.122,261.6
121235,154810,11330,-0.092,1.033,0.129,-2.866,-1.159,-0.305,261.603
121235,154765,10771,-0.093,1.025,0.126,-2.866,-1.159,-0.305,261.609
121205,154810,11330,-0.092,1.018,0.119,-2.927,-1.22,-0.061,261.613
121205,154725,10767,-0.092,1.019,0.126,-2.927,-1.22,-0.061,261.619
121110,154810,11330,-0.093,1.018,0.133,-1.524,-0.915,0.244,261.623
121110,154701,10766,-0.091,1.023,0.137,-1.524,-0.915,0.244,261.629
121100,154810,11330,-0.093,1.03,0.132,0.183,-0.366,0.183,261.633
121100,154662,10744,-0.1,1.034,0.127,0.183,-0.366,0.183,261.639
121092,154810,11330,-0.102,1.037,0.13,-0.366,0.183,0.305,261.643
121092,154666,10781,-0.102,1.034,0.133,-0.366,0.183,0.305,261.649
121122,154810,11330,-0.101,1.033,0.134,-1.22,0.183,0.549,261.653
121122,154675,10757,-0.1,1.03,0.138,-1.22,0.183,0.549,261.659
121143,154810,11330,-0.097,1.031,0.136,-1.524,0.122,0.488,261.663
121143,154724,10754,-0.097,1.036,0.14,-1.524,0.122,0.488,261.669
121176,154810,11330,-0.093,1.04,0.138,-1.341,0.671,0.427,261.673
121176,154745,10759,-0.094,1.039,0.135,-1.341,0.671,0.427,261.679
121225,154810,11330,-0.095,1.038,0.133,-1.159,1.463,0.366,261.682
121225,154736,10772,-0.096,1.036,0.126,-1.159,1.463,0.366,261.689
121235,154810,11330,-0.102,1.036,0.123,-1.89,1.768,0.305,261.692
121235,154768,10776,-0.099,1.029,0.121,-1.89,1.768,0.305,261.699
121218,154810,11330,-0.096,1.025,0.117,-1.951,1.585,0.244,261.702
121218,154763,10766,-0.098,1.026,0.109,-1.951,1.585,0.244,261.708
121225,154810,11330,-0.098,1.027,0.108,-0.915,0.976,0.244,261.712
121225,154736,10779,-0.097,1.032,0.113,-0.915,0.976,0.244,261.718
121234,154810,11330,-0.097,1.037,0.116,0.976,0.976,0.244,261.722
121234,154763,10767,-0.101,1.039,0.106,0.976,0.976,0.244,261.728
121222,154810,11330,-0.101,1.045,0.107,1.585,0.976,0,261.732
121222,154729,10749,-0.103,1.043,0.109,1.585,0.976,0,261.738
121175,154810,11330,-0.101,1.037,0.109,0.671,0.427,0.061,261.742
121175,154708,10766,-0.102,1.03,0.114,0.671,0.427,0.061,261.748
121129,154810,11330,-0.105,1.026,0.11,0,0,0.244,261.752
121129,154667,10760,-0.107,1.032,0.115,0,0,0.244,261.758
121094,154810,11330,-0.103,1.032,0.117,-0.122,-0.305,0.305,261.762
121094,154646,10741,-0.104,1.035,0.115,-0.122,-0.305,0.305,261.768
121064,154554,11330,-0.104,1.042,0.118,0.244,-0.366,0.305,261.772
121064,154618,10748,-0.102,1.04,0.124,0.244,-0.366,0.305,261.778
121030,154554,11330,-0.102,1.039,0.13,-0.061,-0.549,0.488,261.781
121030,154614,10742,-0.1,1.038,0.129,-0.061,-0.549,0.488,261.788
121008,154554,11330,-0.096,1.037,0.126,-1.22,-0.671,0.488,261.791
121008,154593,10725,-0.099,1.033,0.129,-1.22,-0.671,0.488,261.798
121008,154554,11330,-0.097,1.026,0.135,-1.707,-0.61,0.244,261.801
121008,154601,10737,-0.095,1.026,0.131,-1.707,-0.61,0.244,261.807
121019,154554,11330,-0.098,1.029,0.127,-1.341,-0.427,0.183,261.811
121019,154614,10739,-0.097,1.029,0.128,-1.341,-0.427,0.183,261.817
121046,154554,11330,-0.094,1.031,0.128,-0.427,-0.244,0.122,261.821
121046,154588,10748,-0.093,1.028,0.127,-0.427,-0.244,0.122,261.827
121063,154810,11330,-0.095,1.03,0.129,0.427,-0.305,0.122,261.831
121063,154641,10750,-0.093,1.033,0.126,0.427,-0.305,0.122,261.837
121112,154810,11330,-0.097,1.032,0.119,0.427,-0.183,0.122,261.841
121112,154685,10747,-0.097,1.029,0.117,0.427,-0.183,0.122,261.847
121170,154810,11330,-0.098,1.029,0.12,0.122,-0.061,0.305,261.851
121170,154699,10755,-0.099,1.034,0.127,0.122,-0.061,0.305,261.857
121192,154810,11330,-0.097,1.039,0.129,-0.671,-0.183,0.549,261.861
121192,154733,10768,-0.098,1.042,0.127,-0.671,-0.183,0.549,261.867
121233,154810,11330,-0.095,1.046,0.126,-0.976,-0.122,0.61,261.871
121233,154750,10774,-0.097,1.04,0.131,-0.976,-0.122,0.61,261.877
121255,154810,11330,-0.1,1.037,0.137,-0.732,0.122,0.427,261.88
121255,154760,10766,-0.1,1.036,0.13,-0.732,0.122,0.427,261.887
121240,154810,11330,-0.094,1.033,0.133,-0.976,0.549,0.427,261.89
121240,154761,10764,-0.095,1.027,0.136,-0.976,0.549,0.427,261.897
121246,154810,11330,-0.095,1.027,0.136,-0.976,0.549,0.427,261.9
121246,154765,10771,-0.095,1.033,0.129,-0.427,0.854,0.183,261.906
121255,154810,11330,-0.095,1.033,0.129,-0.427,0.854,0.183,261.91
121255,154779,10760,-0.097,1.029,0.126,-0.427,1.22,0.305,261.916
121281,154810,11330,-0.097,1.029,0.126,-0.427,1.22,0.305,261.92
121281,154788,10755,-0.1,1.033,0.118,-0.427,1.341,0.488,261.926
121263,154810,11330,-0.1,1.033,0.118,-0.427,1.341,0.488,261.93
121263,154794,10769,-0.101,1.024,0.12,-0.366,1.098,0.671,261.936
121294,154810,11330,-0.101,1.024,0.12,-0.366,1.098,0.671,261.94
121294,154805,10784,-0.105,1.03,0.12,0.183,0.915,0.671,261.946
121308,154810,11330,-0.105,1.03,0.12,0.183,0.915,0.671,261.95
121308,154814,10784,-0.104,1.04,0.128,0.183,0.732,0.793,261.956
121336,154810,11330,-0.104,1.04,0.128,0.183,0.732,0.793,261.96
121336,154855,10790,-0.1,1.043,0.127,0.305,0.427,0.793,261.966
121382,154810,11330,-0.1,1.043,0.127,0.305,0.427,0.793,261.97
121382,154850,10788,-0.099,1.04,0.118,-0.305,0.427,0.671,261.976
121377,154810,11330,-0.099,1.04,0.118,-0.305,0.427,0.671,261.979
121377,154858,10773,-0.098,1.037,0.118,-0.915,0.488,0.549,261.986
121385,155066,11330,-0.098,1.037,0.118,-0.915,0.488,0.549,261.989
121385,154884,10793,-0.093,1.039,0.115,-1.463,0.305,0.427,261.996
121372,154810,11330,-0.093,1.039,0.115,-1.463,0.305,0.427,261.999
121372,154872,10773,-0.092,1.038,0.122,-1.098,0.122,0,262.005
121397,155066,11330,-0.092,1.038,0.122,-1.098,0.122,0,262.009
121397,154882,10799,-0.093,1.041,0.127,-0.671,0.061,-0.061,262.015
121399,155066,11330,-0.093,1.041,0.127,-0.671,0.061,-0.061,262.019
121399,154913,10787,-0.088,1.031,0.128,-0.61,0.244,-0.122,262.025
121429,155066,11330,-0.088,1.031,0.128,-0.61,0.244,-0.122,262.029
121429,154911,10790,-0.098,1.02,0.125,-0.793,0.427,-0.183,262.035
121406,155066,11330,-0.098,1.02,0.125,-0.793,0.427,-0.183,262.039
121406,154893,10790,-0.099,1.017,0.119,-0.61,0.671,0.122,262.045
121425,155066,11330,-0.099,1.017,0.119,-0.61,0.671,0.122,262.049
121425,154909,10800,-0.098,1.021,0.124,1.22,0.671,0.244,262.055
121401,155066,11330,-0.094,1.032,0.129,1.22,0.671,0.244,262.059
121401,154917,10794,-0.099,1.041,0.126,2.256,0.549,0.366,262.065
121416,155066,11330,-0.104,1.048,0.125,2.256,0.549,0.366,262.069
121416,154918,10784,-0.107,1.043,0.12,0.488,0.671,0.671,262.075
121444,155066,11330,-0.106,1.04,0.122,0.488,0.671,0.671,262.078
121444,154942,10792,-0.104,1.034,0.12,-1.341,0.488,0.671,262.085
121451,155066,11330,-0.102,1.03,0.119,-1.341,0.488,0.671,262.088
121451,154935,10800,-0.1,1.026,0.124,-1.585,0.122,0.732,262.095
121462,155066,11330,-0.099,1.028,0.124,-1.585,0.122,0.732,262.098
121462,154948,10797,-0.101,1.039,0.118,-1.037,0.305,0.671,262.104
121470,155066,11330,-0.104,1.042,0.114,-1.037,0.305,0.671,262.108
121470,154949,10788,-0.106,1.035,0.12,-0.61,0.549,0.366,262.114
121485,155066,11330,-0.104,1.03,0.125,-0.61,0.549,0.366,262.118
121485,154951,10810,-0.103,1.033,0.126,0,0.122,0.244,262.124
121486,155066,11330,-0.1,1.036,0.131,0,0.122,0.244,262.128
121486,154966,10805,-0.098,1.039,0.134,0.305,0,0.244,262.134
121519,155066,11330,-0.095,1.032,0.134,0.305,0,0.244,262.138
121519,154975,10806,-0.095,1.033,0.131,0.61,0.183,0,262.144
121521,155066,11330,-0.097,1.034,0.127,0.61,0.183,0,262.148
121521,154981,10803,-0.096,1.025,0.129,-0.427,0.244,0.061,262.154
121543,155066,11330,-0.094,1.02,0.131,-0.427,0.244,0.061,262.158
121543,154983,10816,-0.096,1.02,0.131,-0.671,0.061,0.122,262.164
121502,155066,11330,-0.096,1.023,0.127,-0.671,0.061,0.122,262.168
121502,154976,10803,-0.096,1.03,0.123,-0.366,0,0.305,262.174
121506,155066,11330,-0.096,1.038,0.121,-0.366,0,0.305,262.177
121506,154979,10806,-0.098,1.038,0.121,-0.671,0.244,0.488,262.184
121495,155066,11330,-0.1,1.037,0.115,-0.671,0.244,0.488,262.187
121495,154988,10798,-0.104,1.038,0.111,-1.707,0.305,0.671,262.194
121521,155066,11330,-0.106,1.033,0.115,-1.707,0.305,0.671,262.197
121521,154990,10792,-0.103,1.028,0.12,-1.829,0,0.915,262.203
121545,155066,11330,-0.102,1.029,0.117,-1.829,0,0.915,262.207
121545,154981,10801,-0.102,1.037,0.125,-1.28,-0.244,0.915,262.213
121538,155066,11330,-0.101,1.046,0.131,-1.28,-0.244,0.915,262.217
121538,154990,10815,-0.098,1.048,0.131,-1.28,-0.122,0.854,262.223
121553,155066,11330,-0.095,1.043,0.128,-1.28,-0.122,0.854,262.227
121553,154995,10810,-0.095,1.035,0.131,-0.732,0.122,0.488,262.233
121559,155066,11330,-0.099,1.028,0.128,-0.732,0.122,0.488,262.237
121559,155016,10804,-0.098,1.027,0.129,-0.061,0.366,0.183,262.243
121563,155066,11330,-0.094,1.027,0.132,-0.061,0.366,0.183,262.247
121563,155016,10818,-0.088,1.026,0.131,0.854,0.366,-0.061,262.253
121583,155066,11330,-0.089,1.026,0.131,0.854,0.366,-0.061,262.257
121583,155006,10814,-0.096,1.033,0.133,1.22,0.427,0.122,262.263
121583,155066,11330,-0.093,1.036,0.133,1.22,0.427,0.122,262.267
121583,155022,10822,-0.093,1.034,0.129,0.183,0.61,0.366,262.273
121597,155066,11330,-0.093,1.028,0.125,0.183,0.61,0.366,262.276
121597,155047,10817,-0.097,1.025,0.125,-1.037,0.366,0.549,262.283
121608,155066,11330,-0.099,1.026,0.122,-1.037,0.366,0.549,262.286
121608,155024,10812,-0.099,1.03,0.123,-1.341,0.427,0.732,262.293
121596,155066,11330,-0.097,1.032,0.123,-1.341,0.427,0.732,262.296
121596,155056,10814,-0.1,1.038,0.118,-1.037,0.488,0.793,262.302
121597,155066,11330,-0.099,1.039,0.115,-1.037,0.488,0.793,262.306
121597,155027,10820,-0.099,1.038,0.115,-0.671,0.427,0.732,262.312
121593,155066,11330,-0.103,1.039,0.12,-0.671,0.427,0.732,262.316
121593,155032,10825,-0.102,1.036,0.125,-0.427,0.183,0.549,262.322
121581,155066,11330,-0.102,1.038,0.123,-0.427,0.183,0.549,262.326
121581,155020,10810,-0.101,1.037,0.121,0.122,0.183,0.427,262.332
121573,155066,11330,-0.102,1.031,0.121,0.122,0.183,0.427,262.336
121573,155023,10810,-0.099,1.032,0.13,1.22,0.305,0.061,262.342
121602,155066,11330,-0.098,1.039,0.133,1.22,0.305,0.061,262.346
121602,155048,10805,-0.096,1.043,0.134,1.585,0.305,0,262.352
121578,155066,11330,-0.095,1.039,0.135,1.585,0.305,0,262.356
121578,155015,10807,-0.094,1.036,0.136,0.549,0.61,0,262.362
121598,155066,11330,-0.094,1.029,0.128,0.549,0.61,0,262.366
121598,155013,10810,-0.096,1.028,0.12,-1.22,0.732,0.061,262.372
121590,155066,11330,-0.095,1.026,0.124,-1.22,0.732,0.061,262.375
121590,155028,10821,-0.097,1.028,0.127,-1.768,0.61,0.183,262.382
121620,155066,11330,-0.095,1.024,0.124,-1.768,0.61,0.183,262.385
121620,155050,10807,-0.096,1.027,0.121,-1.037,0.488,0.366,262.391
121632,155066,11330,-0.095,1.028,0.119,-1.037,0.488,0.366,262.395
121632,155021,10805,-0.099,1.031,0.119,-0.61,0.427,0.488,262.401
121586,155066,11330,-0.1,1.036,0.116,-0.61,0.427,0.488,262.405
121586,155027,10815,-0.101,1.036,0.121,-0.61,0.427,0.427,262.411
121591,155066,11330,-0.099,1.033,0.129,-0.61,0.427,0.427,262.415
121591,155029,10806,-0.101,1.036,0.12,-1.098,0.122,0.671,262.421
121594,155066,11330,-0.101,1.036,0.117,-1.098,0.122,0.671,262.425
121594,155025,10807,-0.099,1.034,0.117,-0.976,-0.122,0.61,262.431
121569,155066,11330,-0.099,1.032,0.12,-0.976,-0.122,0.61,262.435
121569,155017,10804,-0.105,1.036,0.126,0.488,-0.061,0.305,262.441
121585,155066,11330,-0.104,1.042,0.125,0.488,-0.061,0.305,262.445
121585,155023,10814,-0.102,1.042,0.129,0.732,0.122,0.244,262.451
121576,155066,11330,-0.099,1.039,0.129,0.732,0.122,0.244,262.455
121576,155048,10806,-0.095,1.036,0.13,0.366,0.122,0.061,262.461
121578,155066,11330,-0.094,1.031,0.132,0.366,0.122,0.061,262.464
121578,155030,10809,-0.097,1.027,0.136,0.122,0.244,0.122,262.471
121563,155066,11330,-0.093,1.027,0.136,0.122,0.244,0.122,262.474
121563,155011,10797,-0.098,1.03,0.129,-0.427,0.732,0.305,262.481
121563,155066,11330,-0.098,1.03,0.129,-0.427,0.732,0.305,262.484
121563,154988,10801,-0.093,1.027,0.13,-0.305,0.915,0.427,262.49
121548,155066,11330,-0.093,1.027,0.13,-0.305,0.915,0.427,262.494
121548,155000,10809,-0.095,1.024,0.123,0.183,0.854,0.671,262.5
121557,155066,11330,-0.095,1.024,0.123,0.183,0.854,0.671,262.504
121557,155000,10818,-0.1,1.024,0.122,0.427,0.915,0.854,262.51
121542,155066,11330,-0.1,1.024,0.122,0.427,0.915,0.854,262.514
121542,154959,10805,-0.103,1.03,0.115,0.183,0.793,1.098,262.52
121526,155066,11330,-0.103,1.03,0.115,0.183,0.793,1.098,262.524
121526,154950,10799,-0.099,1.037,0.124,0.366,0.244,1.159,262.53
121516,155066,11330,-0.099,1.037,0.124,0.366,0.244,1.159,262.534
121516,154948,10786,-0.099,1.045,0.131,0.61,0.061,1.037,262.54
121502,155066,11330,-0.099,1.045,0.131,0.61,0.061,1.037,262.544
121502,154945,10796,-0.098,1.046,0.118,0.854,0.366,0.732,262.55
121489,155066,11330,-0.098,1.046,0.118,0.854,0.366,0.732,262.554
121489,154918,10788,-0.094,1.038,0.125,1.463,0.488,0.427,262.56
121461,155066,11330,-0.094,1.038,0.125,1.463,0.488,0.427,262.563
121461,154914,10791,-0.093,1.036,0.126,1.829,0.549,0.183,262.57
121463,155066,11330,-0.093,1.036,0.126,1.829,0.549,0.183,262.573
121463,154930,10789,-0.091,1.035,0.124,1.22,0.61,0.122,262.58
121504,155066,11330,-0.091,1.035,0.124,1.22,0.61,0.122,262.583
121504,154928,10775,-0.095,1.031,0.123,0,0.732,0.244,262.589
121459,155066,11330,-0.095,1.031,0.123,0,0.732,0.244,262.593
121459,154933,10793,-0.094,1.025,0.121,-1.037,0.549,0.488,262.599
121447,155066,11330,-0.094,1.025,0.121,-1.037,0.549,0.488,262.603
121447,154920,10789,-0.098,1.029,0.114,-1.037,0.427,0.488,262.609
121447,155066,11330,-0.098,1.029,0.114,-1.037,0.427,0.488,262.613
121447,154914,10775,-0.102,1.033,0.121,-0.427,0.244,0.549,262.619
121434,155066,11330,-0.102,1.033,0.121,-0.427,0.244,0.549,262.623
121434,154917,10777,-0.103,1.034,0.117,-0.427,0.244,0.549,262.629
121442,155066,11330,-0.102,1.036,0.12,0,0.122,0.61,262.633
121442,154893,10793,-0.098,1.037,0.125,0,0.122,0.61,262.639
121419,155066,11330,-0.098,1.036,0.125,0.549,-0.183,0.366,262.643
121419,154889,10785,-0.099,1.036,0.127,0.549,-0.183,0.366,262.649
121429,155066,11330,-0.097,1.037,0.129,0.854,-0.122,0.244,262.653
121429,154881,10785,-0.1,1.039,0.131,0.854,-0.122,0.244,262.659
121414,154810,11330,-0.102,1.037,0.129,0.488,0.061,0.061,262.662
121414,154870,10797,-0.097,1.033,0.128,0.488,0.061,0.061,262.669
121434,154810,11330,-0.097,1.031,0.128,0.549,0,-0.122,262.672
121434,154877,10785,-0.096,1.029,0.124,0.549,0,-0.122,262.679
121435,155066,11330,-0.096,1.028,0.12,1.159,-0.061,-0.305,262.682
121435,154909,10787,-0.094,1.032,0.12,1.159,-0.061,-0.305,262.688
121405,154810,11330,-0.094,1.037,0.121,1.768,0.122,-0.244,262.692
121405,154863,10779,-0.093,1.037,0.123,1.768,0.122,-0.244,262.698
121402,154810,11330,-0.093,1.029,0.125,1.707,0.183,-0.122,262.702
121402,154857,10797,-0.095,1.025,0.117,1.707,0.183,-0.122,262.708
121384,154810,11330,-0.098,1.032,0.114,1.28,0.244,0.061,262.712
121384,154866,10783,-0.099,1.031,0.118,1.28,0.244,0.061,262.718
121377,154810,11330,-0.098,1.033,0.122,1.098,0.183,0.366,262.722
121377,154831,10769,-0.1,1.034,0.125,1.098,0.183,0.366,262.728
121370,154810,11330,-0.105,1.034,0.121,0.61,0.183,0.549,262.732
121370,154817,10771,-0.108,1.036,0.12,0.61,0.183,0.549,262.738
121335,154810,11330,-0.106,1.038,0.122,-0.183,0.366,0.61,262.742
121335,154816,10741,-0.106,1.034,0.126,-0.183,0.366,0.61,262.748
121305,154810,11330,-0.104,1.029,0.129,-0.305,0.244,0.549,262.752
121305,154808,10778,-0.101,1.029,0.131,-0.305,0.244,0.549,262.758
121309,154810,11330,-0.1,1.034,0.125,0.061,0.366,0.61,262.761
121309,154818,10773,-0.098,1.036,0.117,0.061,0.366,0.61,262.768
121283,154810,11330,-0.097,1.036,0.115,0.122,0.549,0.549,262.771
121283,154785,10765,-0.1,1.035,0.116,0.122,0.549,0.549,262.778
121274,154810,11330,-0.099,1.034,0.119,-0.732,0.305,0.549,262.781
121274,154752,10765,-0.095,1.035,0.117,-0.732,0.305,0.549,262.787
121251,154810,11330,-0.094,1.03,0.117,-1.524,-0.122,0.61,262.791
121251,154753,10753,-0.088,1.024,0.114,-1.524,-0.122,0.61,262.797
121239,154810,11330,-0.087,1.029,0.117,-0.122,-0.549,0.488,262.801
121239,154759,10752,-0.089,1.038,0.125,-0.122,-0.549,0.488,262.807
121226,154810,11330,-0.089,1.045,0.132,1.646,-0.366,0.305,262.811
121226,154734,10760,-0.087,1.048,0.126,1.646,-0.366,0.305,262.817
121210,154810,11330,-0.09,1.044,0.125,1.524,0.122,0.244,262.821
121210,154705,10734,-0.092,1.042,0.128,1.524,0.122,0.244,262.827
121185,154810,11330,-0.096,1.039,0.125,0,0.305,0.122,262.831
121185,154687,10756,-0.097,1.033,0.126,0,0.305,0.122,262.837
121119,154810,11330,-0.096,1.029,0.126,-1.341,0.183,0.183,262.841
121119,154653,10737,-0.096,1.026,0.13,-1.341,0.183,0.183,262.847
121097,154810,11330,-0.096,1.031,0.13,-1.829,0.122,0.305,262.851
121097,154628,10720,-0.097,1.032,0.125,-1.829,0.122,0.305,262.857
121065,154554,11330,-0.097,1.03,0.123,-1.585,0.427,0.305,262.86
121065,154584,10724,-0.097,1.029,0.121,-1.585,0.427,0.305,262.867
121046,154554,11330,-0.1,1.026,0.115,-0.793,0.488,0.244,262.87
121046,154575,10729,-0.104,1.025,0.12,-0.793,0.488,0.244,262.877
120997,154554,11330,-0.102,1.029,0.123,-0.122,0.427,0.427,262.88
120997,154535,10729,-0.102,1.04,0.121,-0.122,0.427,0.427,262.886
121010,154554,11330,-0.098,1.041,0.111,-0.122,0.244,0.61,262.89
121010,154561,10741,-0.101,1.04,0.113,-0.122,0.244,0.61,262.896
121015,154554,11330,-0.104,1.036,0.107,-0.427,0,0.488,262.9
121015,154547,10728,-0.103,1.033,0.109,-0.427,0,0.488,262.906
121029,154554,11330,-0.1,1.032,0.115,-0.549,-0.244,0.305,262.91
121029,154552,10718,-0.099,1.025,0.122,-0.549,-0.244,0.305,262.916
121010,154554,11330,-0.098,1.029,0.121,0.793,-0.488,0.366,262.92
121010,154547,10735,-0.096,1.035,0.122,0.793,-0.488,0.366,262.926
121030,154554,11330,-0.094,1.041,0.124,1.22,-0.427,0.305,262.93
121030,154562,10725,-0.096,1.044,0.134,1.22,-0.427,0.305,262.936
121028,154554,11330,-0.096,1.037,0.137,0.488,0,0.366,262.94
121028,154579,10718,-0.096,1.032,0.127,0.488,0,0.366,262.946
121019,154554,11330,-0.099,1.032,0.116,-1.28,0.183,0.732,262.95
121019,154561,10730,-0.099,1.031,0.112,-1.28,0.183,0.732,262.956
121013,154554,11330,-0.101,1.032,0.117,-2.073,-0.061,0.732,262.959
121013,154578,10729,-0.098,1.038,0.124,-2.073,-0.061,0.732,262.966
121021,154554,11330,-0.098,1.037,0.129,-1.585,-0.366,0.732,262.969
121021,154556,10740,-0.098,1.033,0.128,-1.585,-0.366,0.732,262.975
120995,154554,11330,-0.097,1.028,0.123,-1.463,-0.122,0.793,262.979
120995,154560,10730,-0.099,1.029,0.118,-1.463,-0.122,0.793,262.985
120972,154554,11330,-0.099,1.029,0.121,-0.854,0.061,0.671,262.989
120972,154542,10718,-0.098,1.032,0.12,-0.854,0.061,0.671,262.995
120994,154554,11330,-0.1,1.031,0.12,0.305,0,0.549,262.999
120994,154529,10734,-0.099,1.035,0.121,0.305,0,0.549,263.005
120987,154554,11330,-0.099,1.037,0.123,0.976,0.183,0.61,263.009
120987,154534,10721,-0.099,1.038,0.124,0.976,0.183,0.61,263.015
120992,154554,11330,-0.099,1.042,0.116,0.61,0.183,0.549,263.019
120992,154535,10723,-0.103,1.043,0.11,0.61,0.183,0.549,263.025
120989,154554,11330,-0.101,1.033,0.12,-0.061,0.183,0.366,263.029
120989,154531,10717,-0.1,1.031,0.117,-0.061,0.183,0.366,263.035
121000,154554,11330,-0.1,1.034,0.114,-0.244,0,0.427,263.039
121000,154532,10721,-0.099,1.035,0.118,-0.244,0,0.427,263.045
121001,154554,11330,-0.101,1.03,0.125,-0.122,-0.061,0.488,263.049
121001,154518,10724,-0.096,1.035,0.126,-0.122,-0.061,0.488,263.055
121001,154554,11330,-0.097,1.035,0.124,0.061,0,0.549,263.058
121001,154523,10727,-0.098,1.037,0.126,0.061,0,0.549,263.065
120975,154554,11330,-0.098,1.037,0.126,0.061,0,0.549,263.068
120975,154513,10729,-0.093,1.03,0.133,-0.366,0.061,0.488,263.074
120960,154554,11330,-0.093,1.03,0.133,-0.366,0.061,0.488,263.078
120960,154494,10722,-0.093,1.038,0.129,0,0.122,0.305,263.084
120916,154554,11330,-0.093,1.038,0.129,0,0.122,0.305,263.088
