125590,157831,11278,-0.094,1.03,0.199,-1.524,0.061,0.61,539.557
125602,157882,11330,-0.092,1.032,0.199,-1.524,0.061,0.61,539.561
125602,157848,11272,-0.094,1.027,0.201,-1.341,0.366,0.427,539.567
125603,157882,11330,-0.096,1.023,0.197,-1.341,0.366,0.427,539.571
125603,157837,11277,-0.099,1.025,0.196,-1.768,1.098,0.305,539.577
125628,157882,11330,-0.104,1.025,0.197,-1.768,1.098,0.305,539.581
125628,157869,11282,-0.104,1.026,0.194,-2.683,1.159,0.366,539.587
125662,157882,11330,-0.106,1.022,0.197,-2.683,1.159,0.366,539.591
125662,157841,11298,-0.102,1.022,0.199,-3.415,0.427,0.305,539.597
125629,157882,11330,-0.101,1.023,0.19,-3.415,0.427,0.305,539.601
125629,157824,11288,-0.101,1.026,0.19,-4.573,0.061,0.61,539.607
125623,157882,11330,-0.103,1.022,0.196,-4.573,0.061,0.61,539.611
125623,157856,11272,-0.102,1.013,0.206,-4.573,-0.122,0.732,539.617
125618,157882,11330,-0.1,1.011,0.213,-4.573,-0.122,0.732,539.621
125618,157853,11285,-0.097,1.016,0.21,-3.11,-0.427,0.793,539.627
125605,157882,11330,-0.093,1.016,0.205,-3.11,-0.427,0.793,539.63
125605,157815,11287,-0.089,1.022,0.202,-2.012,-0.183,0.671,539.637
125587,157882,11330,-0.092,1.026,0.206,-2.012,-0.183,0.671,539.64
125587,157812,11282,-0.089,1.032,0.207,-1.524,0.122,0.61,539.646
125599,157882,11330,-0.09,1.027,0.209,-1.524,0.122,0.61,539.65
125599,157811,11270,-0.091,1.019,0.211,-1.341,0.244,0.61,539.656
125585,157882,11330,-0.091,1.019,0.211,-1.341,0.244,0.61,539.66
125585,157809,11279,-0.091,1.019,0.206,-2.134,0.366,0.671,539.666
125581,157882,11330,-0.091,1.019,0.206,-2.134,0.366,0.671,539.67
125581,157807,11282,-0.088,1.022,0.208,-2.622,0.366,0.793,539.676
125571,157882,11330,-0.088,1.022,0.208,-2.622,0.366,0.793,539.68
125571,157812,11264,-0.088,1.02,0.212,-2.378,0.427,0.915,539.686
125576,157882,11330,-0.088,1.02,0.212,-2.378,0.427,0.915,539.69
125576,157818,11281,-0.094,1.02,0.211,-1.89,0.732,0.549,539.696
125572,157882,11330,-0.094,1.02,0.211,-1.89,0.732,0.549,539.7
125572,157810,11287,-0.099,1.018,0.205,-1.22,0.976,0.488,539.706
125581,157882,11330,-0.099,1.018,0.205,-1.22,0.976,0.488,539.71
125581,157806,11270,-0.102,1.02,0.202,-0.976,0.854,0.549,539.716
125604,157882,11330,-0.102,1.02,0.202,-0.976,0.854,0.549,539.72
125604,157812,11287,-0.101,1.023,0.209,-0.732,0.549,0.488,539.726
125577,157882,11330,-0.101,1.023,0.209,-0.732,0.549,0.488,539.729
125577,157837,11277,-0.098,1.031,0.212,-0.854,0.427,0.61,539.736
125588,157882,11330,-0.098,1.031,0.212,-0.854,0.427,0.61,539.739
125588,157814,11287,-0.094,1.018,0.205,-1.585,0.732,0.488,539.745
125587,157882,11330,-0.094,1.018,0.205,-1.585,0.732,0.488,539.749
125587,157820,11279,-0.104,1.011,0.192,-1.768,0.915,0.366,539.755
125604,157882,11330,-0.104,1.011,0.192,-1.768,0.915,0.366,539.759
125604,157819,11279,-0.105,1.015,0.202,-1.037,0.61,0.61,539.765
125586,157882,11330,-0.105,1.015,0.202,-1.037,0.61,0.61,539.769
125586,157821,11284,-0.096,1.021,0.211,-0.122,-0.244,0.793,539.775
125597,157882,11330,-0.096,1.021,0.211,-0.122,-0.244,0.793,539.779
125597,157840,11285,-0.09,1.025,0.216,-0.305,-0.366,0.854,539.785
125593,157882,11330,-0.09,1.025,0.216,-0.305,-0.366,0.854,539.789
125593,157819,11285,-0.094,1.021,0.211,-1.037,0.183,0.854,539.795
125588,157882,11330,-0.094,1.021,0.211,-1.037,0.183,0.854,539.799
125588,157842,11270,-0.094,1.023,0.209,-1.037,0.183,0.854,539.805
125614,157882,11330,-0.094,1.023,0.208,-1.159,0.488,0.732,539.809
125614,157838,11300,-0.092,1.023,0.209,-1.159,0.488,0.732,539.815
125622,157882,11330,-0.092,1.02,0.213,-0.122,0.244,0.549,539.819
125622,157839,11285,-0.094,1.021,0.21,-0.122,0.244,0.549,539.825
125638,157882,11330,-0.094,1.02,0.209,0.671,0.488,0.549,539.828
125638,157849,11279,-0.094,1.022,0.208,0.671,0.488,0.549,539.835
125620,157882,11330,-0.094,1.025,0.207,0.915,0.976,0.427,539.838
125620,157866,11285,-0.095,1.029,0.207,0.915,0.976,0.427,539.844
125640,157882,11330,-0.096,1.03,0.205,0.732,0.915,0.305,539.848
125640,157861,11285,-0.097,1.029,0.204,0.732,0.915,0.305,539.854
125615,157882,11330,-0.096,1.025,0.203,-0.061,0.671,0.488,539.858
125615,157883,11290,-0.098,1.019,0.198,-0.061,0.671,0.488,539.864
125656,157882,11330,-0.093,1.017,0.199,-0.61,0.549,0.488,539.868
125656,157885,11293,-0.095,1.024,0.206,-0.61,0.549,0.488,539.874
125667,157882,11330,-0.095,1.021,0.207,-0.427,0.305,0.488,539.878
125667,157879,11292,-0.091,1.02,0.21,-0.427,0.305,0.488,539.884
125675,157882,11330,-0.094,1.021,0.21,-0.122,0.183,0.61,539.888
125675,157922,11290,-0.093,1.019,0.206,-0.122,0.183,0.61,539.894
125681,157882,11330,-0.093,1.021,0.205,-0.305,0.427,0.61,539.898
125681,157910,11289,-0.093,1.022,0.207,-0.305,0.427,0.61,539.904
125692,158138,11330,-0.097,1.023,0.207,0.122,0.549,0.549,539.908
125692,157955,11275,-0.096,1.023,0.208,0.122,0.549,0.549,539.914
125710,157882,11330,-0.094,1.023,0.207,0.244,0.61,0.488,539.917
125710,157930,11300,-0.092,1.026,0.211,0.244,0.61,0.488,539.924
125716,157882,11330,-0.092,1.025,0.208,0.183,0.427,0.549,539.927
125716,157944,11288,-0.093,1.026,0.208,0.183,0.427,0.549,539.934
125750,158138,11330,-0.092,1.023,0.205,0.122,0.488,0.488,539.937
125750,157974,11296,-0.093,1.023,0.203,0.122,0.488,0.488,539.943
125750,158138,11330,-0.094,1.023,0.205,-0.305,0.915,0.427,539.947
125750,158000,11305,-0.094,1.021,0.202,-0.305,0.915,0.427,539.953
125794,158138,11330,-0.098,1.021,0.2,-0.671,0.915,0.549,539.957
125794,157967,11308,-0.101,1.019,0.202,-0.671,0.915,0.549,539.963
125794,158138,11330,-0.101,1.021,0.203,-0.915,0.671,0.854,539.967
125794,157995,11312,-0.103,1.022,0.207,-0.915,0.671,0.854,539.973
125811,158138,11330,-0.101,1.026,0.207,-1.402,0.427,1.037,539.977
125811,158009,11315,-0.099,1.03,0.21,-1.402,0.427,1.037,539.983
125838,158138,11330,-0.094,1.025,0.212,-1.585,0.305,1.159,539.987
125838,158007,11327,-0.094,1.025,0.214,-1.585,0.305,1.159,539.993
125857,158138,11330,-0.092,1.026,0.213,-1.463,0.244,0.976,539.997
125857,158034,11315,-0.091,1.02,0.217,-1.463,0.244,0.976,540.003
125838,158138,11330,-0.09,1.017,0.219,-1.037,0.61,0.61,540.007
125838,158025,11306,-0.09,1.017,0.222,-1.037,0.61,0.61,540.013
125848,158138,11330,-0.09,1.016,0.222,-0.183,0.854,0.366,540.016
125848,158023,11309,-0.086,1.018,0.221,-0.183,0.854,0.366,540.023
125847,158138,11330,-0.086,1.02,0.219,0.61,0.854,0,540.026
125847,158047,11310,-0.086,1.02,0.222,0.61,0.854,0,540.033
125857,158138,11330,-0.088,1.026,0.217,0.427,0.915,-0.244,540.036
125857,158050,11310,-0.089,1.028,0.212,0.427,0.915,-0.244,540.042
125861,158138,11330,-0.092,1.023,0.21,0,1.22,-0.427,540.046
125861,158037,11314,-0.097,1.019,0.212,0,1.22,-0.427,540.052
125859,158138,11330,-0.102,1.012,0.21,-0.244,1.402,-0.61,540.056
125859,158050,11321,-0.104,1.01,0.209,-0.244,1.402,-0.61,540.062
125878,158138,11330,-0.106,1.009,0.213,-0.244,1.098,-0.488,540.066
125878,158012,11332,-0.105,1.015,0.21,-0.244,1.098,-0.488,540.072
125897,158138,11330,-0.102,1.019,0.207,0.427,0.427,-0.427,540.076
125897,158060,11325,-0.101,1.022,0.199,0.427,0.427,-0.427,540.082
125907,158138,11330,-0.102,1.024,0.201,0.915,0.671,-0.305,540.086
125907,158069,11332,-0.103,1.024,0.202,0.915,0.671,-0.305,540.092
125903,158138,11330,-0.102,1.028,0.199,0.427,1.098,0.183,540.096
125903,158074,11325,-0.103,1.032,0.194,0.427,1.098,0.183,540.102
125902,158138,11330,-0.1,1.03,0.194,-0.549,0.854,0.305,540.106
125902,158062,11333,-0.098,1.026,0.203,-0.549,0.854,0.305,540.112
125923,158138,11330,-0.093,1.02,0.202,-0.305,0.061,0.183,540.115
125923,158063,11333,-0.09,1.017,0.208,-0.305,0.061,0.183,540.122
125930,158138,11330,-0.088,1.024,0.202,0.488,-0.122,0.366,540.125
125930,158058,11329,-0.087,1.026,0.2,0.488,-0.122,0.366,540.132
125946,158138,11330,-0.087,1.026,0.201,1.341,0.549,0.122,540.135
125946,158053,11326,-0.089,1.026,0.208,1.341,0.549,0.122,540.141
125936,158138,11330,-0.09,1.025,0.209,1.829,0.976,0.061,540.145
125936,158063,11333,-0.092,1.026,0.21,1.829,0.976,0.061,540.151
125916,158138,11330,-0.093,1.022,0.208,1.098,0.793,-0.061,540.155
125916,158062,11326,-0.093,1.017,0.211,1.098,0.793,-0.061,540.161
125918,158138,11330,-0.096,1.013,0.213,0.427,0.427,-0.183,540.165
125918,158060,11343,-0.099,1.008,0.215,0.427,0.427,-0.183,540.171
125932,158138,11330,-0.101,1.008,0.214,0.183,0.61,0,540.175
125932,158053,11345,-0.102,1.008,0.21,0.183,0.61,0,540.181
125935,158138,11330,-0.104,1.014,0.211,0.061,0.854,0.061,540.185
125935,158053,11330,-0.105,1.015,0.212,0.061,0.854,0.061,540.191
125913,158138,11330,-0.101,1.016,0.21,0.122,0.671,0.305,540.195
125913,158058,11333,-0.101,1.017,0.206,0.122,0.671,0.305,540.201
125910,158138,11330,-0.102,1.016,0.198,-0.061,0.305,0.671,540.205
125910,158046,11333,-0.099,1.02,0.193,-0.061,0.305,0.671,540.211
125917,158138,11330,-0.099,1.026,0.201,-0.244,0.122,0.854,540.214
125917,158059,11334,-0.095,1.027,0.212,-0.244,0.122,0.854,540.221
125919,158138,11330,-0.092,1.028,0.211,0.244,0,0.915,540.224
125919,158062,11330,-0.09,1.027,0.211,0.244,0,0.915,540.231
125931,158138,11330,-0.087,1.031,0.208,-0.061,0.183,0.915,540.234
125931,158069,11343,-0.088,1.028,0.206,-0.061,0.183,0.915,540.24
125944,158138,11330,-0.088,1.028,0.206,-0.061,0.183,0.915,540.244
125944,158085,11327,-0.092,1.029,0.204,-0.122,0.61,0.915,540.25
125954,158138,11330,-0.092,1.029,0.204,-0.122,0.61,0.915,540.254
125954,158099,11337,-0.094,1.03,0.212,-0.366,1.098,0.793,540.26
125941,158138,11330,-0.094,1.03,0.212,-0.366,1.098,0.793,540.264
125941,158091,11331,-0.096,1.03,0.205,0.061,1.22,0.549,540.27
125926,158138,11330,-0.096,1.03,0.205,0.061,1.22,0.549,540.274
125926,158084,11323,-0.097,1.025,0.197,0.183,1.28,0.183,540.28
125928,158138,11330,-0.097,1.025,0.197,0.183,1.28,0.183,540.284
125928,158069,11336,-0.104,1.016,0.198,-0.061,1.341,0.183,540.29
125943,158138,11330,-0.104,1.016,0.198,-0.061,1.341,0.183,540.294
125943,158050,11346,-0.108,1.016,0.191,0.122,1.341,0.244,540.3
125945,158138,11330,-0.108,1.016,0.191,0.122,1.341,0.244,540.304
125945,158067,11335,-0.109,1.018,0.195,0.427,1.28,0.427,540.31
125952,158138,11330,-0.109,1.018,0.195,0.427,1.28,0.427,540.313
125952,158083,11349,-0.104,1.019,0.205,0.732,0.854,0.61,540.32
125960,158138,11330,-0.104,1.019,0.205,0.732,0.854,0.61,540.323
125960,158083,11338,-0.102,1.028,0.198,0.671,0.183,0.671,540.33
125953,158138,11330,-0.102,1.028,0.198,0.671,0.183,0.671,540.333
125953,158077,11332,-0.1,1.02,0.208,-0.061,0,0.671,540.339
125938,158138,11330,-0.1,1.02,0.208,-0.061,0,0.671,540.343
125938,158098,11340,-0.1,1.019,0.213,-1.463,0.122,0.854,540.349
125954,158138,11330,-0.1,1.019,0.213,-1.463,0.122,0.854,540.353
125954,158089,11331,-0.092,1.024,0.208,-2.256,-0.305,1.159,540.359
125955,158138,11330,-0.092,1.024,0.208,-2.256,-0.305,1.159,540.363
125955,158069,11327,-0.084,1.024,0.209,-1.951,-0.732,0.915,540.369
125961,158138,11330,-0.084,1.024,0.209,-1.951,-0.732,0.915,540.373
125961,158076,11344,-0.092,1.019,0.204,-1.341,-0.671,0.61,540.379
125962,158138,11330,-0.092,1.019,0.204,-1.341,-0.671,0.61,540.383
125962,158074,11357,-0.09,1.02,0.207,-0.671,-0.366,0.366,540.389
125971,158138,11330,-0.092,1.021,0.208,-0.671,-0.366,0.366,540.393
125971,158062,11329,-0.094,1.026,0.208,-0.061,-0.305,0.183,540.399
125952,158138,11330,-0.095,1.027,0.208,-0.061,-0.305,0.183,540.403
125952,158040,11349,-0.093,1.028,0.204,0.488,-0.488,0.061,540.409
125935,158138,11330,-0.093,1.03,0.203,0.488,-0.488,0.061,540.412
125935,158069,11341,-0.094,1.03,0.202,0.244,-0.732,-0.244,540.419
125935,158138,11330,-0.095,1.027,0.206,0.244,-0.732,-0.244,540.422
125935,158051,11342,-0.094,1.023,0.209,-0.122,-0.732,-0.366,540.429
125923,158138,11330,-0.099,1.019,0.209,-0.122,-0.732,-0.366,540.432
125923,158046,11333,-0.101,1.021,0.211,-0.793,-0.366,-0.183,540.438
125903,158138,11330,-0.101,1.023,0.212,-0.793,-0.366,-0.183,540.442
125903,158027,11334,-0.098,1.023,0.21,-1.341,-0.305,-0.183,540.448
125885,158138,11330,-0.095,1.022,0.211,-1.341,-0.305,-0.183,540.452
125885,158037,11335,-0.091,1.026,0.218,-1.585,-0.427,-0.244,540.458
125892,158138,11330,-0.088,1.02,0.225,-1.585,-0.427,-0.244,540.462
125892,157999,11327,-0.09,1.018,0.219,-2.073,-0.366,-0.122,540.468
125911,158138,11330,-0.094,1.015,0.222,-2.073,-0.366,-0.122,540.472
125911,158012,11332,-0.095,1.009,0.224,-3.049,0.305,0,540.478
125915,158138,11330,-0.092,1.011,0.219,-3.049,0.305,0,540.482
125915,158023,11340,-0.092,1.014,0.216,-3.11,0.549,0.244,540.488
125907,158138,11330,-0.092,1.012,0.213,-3.11,0.549,0.244,540.492
125907,158025,11325,-0.089,1.01,0.209,-1.707,0.366,0.427,540.498
125895,158138,11330,-0.092,1.01,0.201,-1.707,0.366,0.427,540.502
125895,158026,11332,-0.096,1.01,0.201,-0.183,0.549,0.488,540.508
125868,158138,11330,-0.098,1.018,0.201,-0.183,0.549,0.488,540.511
125868,158015,11319,-0.099,1.02,0.201,0.488,0.915,0.854,540.518
125846,158138,11330,-0.1,1.026,0.202,0.488,0.915,0.854,540.521
125846,157992,11344,-0.098,1.027,0.207,0.671,0.854,1.159,540.528
125854,158138,11330,-0.098,1.028,0.203,0.671,0.854,1.159,540.531
125854,158006,11323,-0.096,1.024,0.199,0.671,0.488,1.159,540.537
125845,158138,11330,-0.096,1.019,0.198,0.671,0.488,1.159,540.541
125845,158002,11327,-0.099,1.019,0.203,0.488,0.305,1.22,540.547
125875,158138,11330,-0.099,1.022,0.202,0.488,0.305,1.22,540.551
125875,158004,11333,-0.096,1.022,0.206,0.976,0.244,1.159,540.557
125856,158138,11330,-0.096,1.02,0.21,0.976,0.244,1.159,540.561
125856,158018,11330,-0.095,1.025,0.209,1.585,0.244,1.22,540.567
125874,158138,11330,-0.093,1.029,0.212,1.585,0.244,1.22,540.571
125874,158019,11329,-0.093,1.034,0.214,0.915,0.488,1.037,540.577
125875,158138,11330,-0.093,1.033,0.215,0.915,0.488,1.037,540.581
125875,158017,11340,-0.09,1.032,0.213,0.061,0.61,0.61,540.587
125875,158138,11330,-0.089,1.034,0.207,0.061,0.61,0.61,540.591
125875,158011,11327,-0.088,1.026,0.206,-0.122,0.549,0.305,540.597
125891,158138,11330,-0.089,1.016,0.208,-0.122,0.549,0.305,540.601
125891,157982,11314,-0.09,1.014,0.206,0.183,0.427,0.122,540.607
125873,158138,11330,-0.093,1.015,0.203,0.183,0.427,0.122,540.61
125873,158001,11323,-0.092,1.019,0.199,0.61,0.488,0.183,540.617
125863,158138,11330,-0.093,1.026,0.2,0.61,0.488,0.183,540.62
125863,157993,11343,-0.095,1.03,0.202,1.463,0.671,0.183,540.626
125845,158138,11330,-0.091,1.028,0.2,1.463,0.671,0.183,540.63
125845,157991,11328,-0.093,1.029,0.202,1.159,0.427,0.305,540.636
125866,158138,11330,-0.095,1.022,0.203,1.159,0.427,0.305,540.64
125866,157985,11317,-0.094,1.017,0.201,-0.061,0.183,0.671,540.646
125846,158138,11330,-0.096,1.02,0.201,-0.061,0.183,0.671,540.65
125846,157983,11323,-0.097,1.021,0.2,-1.098,0.244,0.854,540.656
125862,158138,11330,-0.096,1.025,0.203,-1.098,0.244,0.854,540.66
125862,157996,11330,-0.093,1.029,0.205,-0.61,0.305,0.732,540.666
125861,158138,11330,-0.094,1.025,0.209,-0.61,0.305,0.732,540.67
125861,157994,11339,-0.095,1.024,0.209,-0.427,0.183,0.549,540.676
125876,158138,11330,-0.096,1.026,0.211,-0.427,0.183,0.549,540.68
125876,157977,11329,-0.1,1.024,0.207,-1.037,0.427,0.61,540.686
125870,158138,11330,-0.101,1.022,0.204,-1.037,0.427,0.61,540.69
125870,158008,11337,-0.101,1.019,0.201,-0.854,0.488,0.549,540.696
125862,158138,11330,-0.099,1.013,0.2,-0.854,0.488,0.549,540.699
125862,157999,11335,-0.098,1.016,0.2,-0.061,0.061,0.61,540.706
125849,158138,11330,-0.097,1.021,0.201,-0.061,0.061,0.61,540.709
125849,158006,11321,-0.102,1.024,0.195,0.244,0.183,0.915,540.716
125844,158138,11330,-0.098,1.028,0.201,0.244,0.183,0.915,540.719
125844,158013,11327,-0.097,1.025,0.208,0.854,0.427,0.793,540.725
125843,158138,11330,-0.098,1.027,0.21,0.854,0.427,0.793,540.729
125843,158014,11327,-0.096,1.028,0.208,0.427,0.244,0.549,540.735
125859,158138,11330,-0.094,1.029,0.208,0.427,0.244,0.549,540.739
125859,158006,11321,-0.093,1.024,0.213,-0.854,-0.122,0.244,540.745
125880,158138,11330,-0.092,1.021,0.216,-0.854,-0.122,0.244,540.749
125880,158012,11335,-0.089,1.025,0.212,-1.707,-0.732,-0.122,540.755
125870,158138,11330,-0.088,1.026,0.207,-1.707,-0.732,-0.122,540.759
125870,158016,11332,-0.086,1.023,0.21,-1.707,-0.976,-0.305,540.765
125854,158138,11330,-0.087,1.019,0.212,-1.707,-0.976,-0.305,540.769
125854,158020,11336,-0.083,1.02,0.211,-1.037,-0.793,-0.61,540.775
125891,158138,11330,-0.086,1.025,0.202,-1.037,-0.793,-0.61,540.779
125891,158023,11334,-0.094,1.025,0.2,-1.341,-0.305,-0.549,540.785
125866,158138,11330,-0.09,1.022,0.196,-1.341,-0.305,-0.549,540.789
125866,158025,11330,-0.095,1.023,0.2,-1.159,0,-0.549,540.795
125881,158138,11330,-0.095,1.03,0.2,-1.159,0,-0.549,540.798
125881,158022,11323,-0.093,1.031,0.2,-1.28,-0.305,-0.427,540.805
125858,158138,11330,-0.09,1.028,0.201,-1.28,-0.305,-0.427,540.808
125858,158041,11334,-0.092,1.023,0.201,-1.707,-0.427,-0.183,540.815
125871,158138,11330,-0.092,1.021,0.208,-1.707,-0.427,-0.183,540.818
125871,158038,11340,-0.094,1.022,0.214,-2.317,-0.549,-0.183,540.824
125883,158138,11330,-0.094,1.022,0.214,-2.317,-0.549,-0.183,540.828
125883,158025,11328,-0.092,1.021,0.221,-2.378,-0.854,-0.427,540.834
125894,158138,11330,-0.092,1.021,0.221,-2.378,-0.854,-0.427,540.838
125894,158019,11336,-0.089,1.021,0.221,-2.073,-1.159,-0.793,540.844
125858,158138,11330,-0.089,1.021,0.221,-2.073,-1.159,-0.793,540.848
125858,158038,11333,-0.085,1.022,0.21,-1.098,-0.732,-0.732,540.854
125888,158138,11330,-0.085,1.022,0.21,-1.098,-0.732,-0.732,540.858
125888,158035,11321,-0.096,1.019,0.204,-0.427,0.122,-0.732,540.864
125892,158138,11330,-0.096,1.019,0.204,-0.427,0.122,-0.732,540.868
125892,158018,11333,-0.106,1.014,0.211,-0.305,0.366,-0.427,540.874
125896,158138,11330,-0.106,1.014,0.211,-0.305,0.366,-0.427,540.878
125896,158036,11333,-0.107,1.019,0.208,-0.305,0.061,0,540.884
125874,158138,11330,-0.107,1.019,0.208,-0.305,0.061,0,540.888
125874,158028,11320,-0.101,1.02,0.202,-0.854,-0.244,0.061,540.894
125897,158138,11330,-0.101,1.02,0.202,-0.854,-0.244,0.061,540.897
125897,158035,11340,-0.102,1.019,0.205,-1.768,-0.183,0.427,540.904
125897,158138,11330,-0.102,1.019,0.205,-1.768,-0.183,0.427,540.907
125897,158033,11334,-0.097,1.021,0.211,-2.561,-0.366,0.427,540.914
125891,158138,11330,-0.097,1.021,0.211,-2.561,-0.366,0.427,540.917
125891,158017,11314,-0.094,1.029,0.216,-2.866,-0.671,0.366,540.923
125878,158138,11330,-0.094,1.029,0.216,-2.866,-0.671,0.366,540.927
125878,158030,11336,-0.092,1.027,0.218,-3.049,-0.366,0.366,540.933
125888,158138,11330,-0.092,1.027,0.218,-3.049,-0.366,0.366,540.937
125888,158031,11335,-0.09,1.017,0.216,-3.232,0.122,0.305,540.943
125870,158138,11330,-0.09,1.017,0.216,-3.232,0.122,0.305,540.947
125870,158027,11330,-0.094,1.013,0.218,-2.622,0.549,0.183,540.953
125884,158138,11330,-0.094,1.013,0.218,-2.622,0.549,0.183,540.957
125884,158039,11335,-0.096,1.014,0.219,-2.622,0.549,0.183,540.963
125901,158138,11330,-0.099,1.013,0.217,-1.463,0.549,0,540.967
125901,158043,11334,-0.099,1.012,0.218,-1.463,0.549,0,540.973
125931,158138,11330,-0.095,1.016,0.223,0.488,0.427,-0.244,540.977
125931,158025,11345,-0.093,1.021,0.223,0.488,0.427,-0.244,540.983
125940,158138,11330,-0.093,1.021,0.219,1.524,0.915,0,540.987
125940,158046,11332,-0.094,1.021,0.22,1.524,0.915,0,540.993
125931,158138,11330,-0.097,1.014,0.217,1.585,1.646,0.183,540.996
125931,158041,11340,-0.097,1.008,0.213,1.585,1.646,0.183,541.003
125942,158138,11330,-0.101,1.007,0.211,0.488,1.89,0.488,541.006
125942,158059,11346,-0.102,1.008,0.214,0.488,1.89,0.488,541.013
125927,158138,11330,-0.098,1.007,0.209,-0.183,1.402,0.854,541.016
125927,158067,11343,-0.099,1.011,0.204,-0.183,1.402,0.854,541.022
125922,158138,11330,-0.097,1.014,0.203,-0.549,1.159,1.341,541.026
125922,158044,11336,-0.097,1.02,0.208,-0.549,1.159,1.341,541.032
125934,158138,11330,-0.1,1.024,0.208,-1.463,1.037,1.89,541.036
125934,158045,11355,-0.104,1.023,0.206,-1.463,1.037,1.89,541.042
125923,158138,11330,-0.098,1.024,0.199,-2.134,0.793,1.951,541.046
125923,158021,11347,-0.099,1.024,0.196,-2.134,0.793,1.951,541.052
125913,158138,11330,-0.101,1.025,0.192,-2.195,0.366,1.646,541.056
125913,158023,11326,-0.101,1.027,0.206,-2.195,0.366,1.646,541.062
125905,158138,11330,-0.099,1.029,0.223,-1.585,-0.366,1.463,541.066
125905,158029,11313,-0.094,1.039,0.22,-1.585,-0.366,1.463,541.072
125904,158138,11330,-0.093,1.04,0.214,-1.22,-0.671,1.402,541.076
125904,158022,11335,-0.093,1.038,0.221,-1.22,-0.671,1.402,541.082
125891,158138,11330,-0.09,1.03,0.231,-1.768,-0.183,0.915,541.086
125891,158041,11327,-0.091,1.026,0.232,-1.768,-0.183,0.915,541.092
125881,158138,11330,-0.092,1.026,0.231,-1.89,0.244,0.61,541.095
125881,158020,11333,-0.09,1.022,0.225,-1.89,0.244,0.61,541.102
125898,158138,11330,-0.089,1.017,0.223,-1.402,0.854,0.244,541.105
125898,158025,11332,-0.085,1.015,0.225,-1.402,0.854,0.244,541.112
125886,158138,11330,-0.085,1.017,0.224,-0.122,1.402,0.183,541.115
125886,158044,11333,-0.084,1.015,0.221,-0.122,1.402,0.183,541.121
125905,158138,11330,-0.09,1.009,0.213,0.305,2.134,0.488,541.125
125905,158023,11324,-0.092,1.006,0.207,0.305,2.134,0.488,541.131
125877,158138,11330,-0.093,1.008,0.206,-0.061,2.683,0.854,541.135
125877,158048,11331,-0.096,1.011,0.204,-0.061,2.683,0.854,541.141
125927,158138,11330,-0.097,1.011,0.204,-0.732,2.195,1.341,541.145
125927,158053,11333,-0.099,1.012,0.206,-0.732,2.195,1.341,541.151
125905,158138,11330,-0.099,1.02,0.201,-1.768,1.646,1.646,541.155
125905,158053,11335,-0.098,1.022,0.206,-1.768,1.646,1.646,541.161
125910,158138,11330,-0.097,1.025,0.208,-2.744,1.037,2.195,541.165
125910,158044,11347,-0.096,1.026,0.211,-2.744,1.037,2.195,541.171
125920,158138,11330,-0.094,1.026,0.211,-2.744,0.549,2.317,541.175
125920,158028,11331,-0.094,1.023,0.21,-2.744,0.549,2.317,541.181
125925,158138,11330,-0.096,1.025,0.207,-2.195,0.61,1.829,541.185
125925,158050,11342,-0.101,1.026,0.208,-2.195,0.61,1.829,541.191
125914,158138,11330,-0.101,1.023,0.21,-1.22,1.159,1.646,541.194
125914,158054,11356,-0.1,1.026,0.214,-1.22,1.159,1.646,541.201
125911,158138,11330,-0.097,1.031,0.215,-0.61,1.707,1.402,541.204
125911,158031,11332,-0.097,1.034,0.217,-0.61,1.707,1.402,541.211
125883,158138,11330,-0.096,1.033,0.214,-1.341,1.829,1.463,541.214
125883,158038,11336,-0.094,1.026,0.213,-1.341,1.829,1.463,541.22
125881,158138,11330,-0.097,1.018,0.214,-3.354,2.134,1.829,541.224
125881,158017,11327,-0.098,1.013,0.218,-3.354,2.134,1.829,541.23
125881,158138,11330,-0.097,1.011,0.216,-4.512,2.073,1.89,541.234
125881,158006,11313,-0.096,1.015,0.216,-4.512,2.073,1.89,541.24
125877,158138,11330,-0.089,1.015,0.223,-3.659,1.341,1.341,541.244
125877,158021,11324,-0.085,1.02,0.224,-3.659,1.341,1.341,541.25
125880,158138,11330,-0.082,1.021,0.227,-2.012,0.671,0.793,541.254
125880,158022,11359,-0.081,1.015,0.223,-2.012,0.671,0.793,541.26
125908,158138,11330,-0.083,1.015,0.219,-1.098,1.098,0.488,541.264
125908,158027,11335,-0.09,1.019,0.212,-1.098,1.098,0.488,541.27
125926,158138,11330,-0.093,1.022,0.211,-1.098,1.89,0.305,541.274
125926,158020,11334,-0.096,1.022,0.209,-1.098,1.89,0.305,541.28
125909,158138,11330,-0.096,1.021,0.21,-0.671,1.341,0.122,541.284
125909,158022,11339,-0.094,1.02,0.211,-0.671,1.341,0.122,541.29
125913,158138,11330,-0.092,1.023,0.211,-0.793,0,0.244,541.293
125913,158033,11337,-0.092,1.021,0.207,-0.793,0,0.244,541.3
125940,158138,11330,-0.092,1.02,0.211,-1.098,-0.427,0.549,541.303
125940,158032,11334,-0.091,1.014,0.215,-1.098,-0.427,0.549,541.31
125936,158138,11330,-0.092,1.012,0.214,-0.671,-0.061,0.549,541.313
125936,158038,11355,-0.095,1.016,0.209,-0.671,-0.061,0.549,541.319
125944,158138,11330,-0.098,1.019,0.213,-0.122,0.122,0.488,541.323
125944,158063,11355,-0.092,1.023,0.222,-0.122,0.122,0.488,541.329
125965,158138,11330,-0.091,1.025,0.233,0.366,-0.244,0.488,541.333
125965,158085,11359,-0.089,1.029,0.228,0.366,-0.244,0.488,541.339
125960,158138,11330,-0.085,1.024,0.226,0.61,-0.244,0.305,541.343
125960,158073,11346,-0.084,1.017,0.226,0.61,-0.244,0.305,541.349
125958,158138,11330,-0.087,1.012,0.223,0.549,0.305,0.305,541.353
125958,158076,11346,-0.089,1.012,0.218,0.549,0.305,0.305,541.359
125921,158138,11330,-0.092,1.012,0.216,0.122,0.854,0.61,541.363
125921,158056,11333,-0.092,1.018,0.216,0.122,0.854,0.61,541.369
125930,158138,11330,-0.09,1.022,0.221,0.244,0.732,0.61,541.373
125930,158052,11327,-0.089,1.026,0.226,0.244,0.732,0.61,541.379
125910,158138,11330,-0.088,1.027,0.226,0.488,0.244,0.366,541.383
125910,158035,11335,-0.085,1.025,0.22,0.488,0.244,0.366,541.389
125875,158138,11330,-0.089,1.024,0.218,-0.061,0.427,0.427,541.392
125875,158044,11317,-0.092,1.022,0.222,-0.061,0.427,0.427,541.399
125870,158138,11330,-0.092,1.022,0.222,-0.061,0.427,0.427,541.402
125870,158021,11343,-0.093,1.016,0.213,-0.793,0.793,0.427,541.408
125869,158138,11330,-0.093,1.016,0.213,-0.793,0.793,0.427,541.412
125869,158023,11331,-0.099,1.016,0.211,-0.732,0.793,0.305,541.418
125830,158138,11330,-0.099,1.016,0.211,-0.732,0.793,0.305,541.422
125830,158009,11328,-0.097,1.019,0.215,-0.549,0.854,0.427,541.428
125853,158138,11330,-0.097,1.019,0.215,-0.549,0.854,0.427,541.432
125853,157997,11330,-0.092,1.02,0.217,-0.488,0.671,0.427,541.438
125815,158138,11330,-0.092,1.02,0.217,-0.488,0.671,0.427,541.442
125815,157994,11324,-0.094,1.017,0.212,-0.793,0.427,0.549,541.448
125806,158138,11330,-0.094,1.017,0.212,-0.793,0.427,0.549,541.452
125806,157998,11318,-0.094,1.017,0.216,-1.098,0.244,0.671,541.458
125768,158138,11330,-0.094,1.017,0.216,-1.098,0.244,0.671,541.462
125768,157983,11318,-0.092,1.032,0.207,-1.28,0.366,0.671,541.468
125793,158138,11330,-0.092,1.032,0.207,-1.28,0.366,0.671,541.472
125793,157969,11329,-0.09,1.022,0.203,-1.341,0.366,0.488,541.478
125772,158138,11330,-0.09,1.022,0.203,-1.341,0.366,0.488,541.482
125772,157973,11310,-0.096,1.014,0.209,-1.22,0,0.366,541.488
125758,158138,11330,-0.096,1.014,0.209,-1.22,0,0.366,541.491
125758,157971,11334,-0.098,1.022,0.225,-1.768,-0.244,0.549,541.498
125731,157882,11330,-0.098,1.022,0.225,-1.768,-0.244,0.549,541.501
125731,157921,11305,-0.087,1.031,0.226,-1.28,-0.488,0.549,541.507
125667,157882,11330,-0.087,1.031,0.226,-1.28,-0.488,0.549,541.511
125667,157895,11300,-0.081,1.039,0.216,-0.427,-0.793,0.244,541.517
125633,157882,11330,-0.081,1.039,0.216,-0.427,-0.793,0.244,541.521
125633,157850,11299,-0.089,1.017,0.218,-0.61,-0.244,-0.183,541.527
125602,157882,11330,-0.089,1.017,0.218,-0.61,-0.244,-0.183,541.531
125602,157838,11293,-0.102,1.003,0.214,-1.159,0.427,-0.488,541.537
125595,157882,11330,-0.102,1.003,0.214,-1.159,0.427,-0.488,541.541
125595,157801,11296,-0.105,1.009,0.214,-1.22,0.366,-0.122,541.547
125590,157882,11330,-0.102,1.012,0.218,-1.22,0.366,-0.122,541.551
125590,157831,11291,-0.095,1.016,0.226,0.183,-0.61,-0.122,541.557
125618,157882,11330,-0.089,1.024,0.223,0.183,-0.61,-0.122,541.561
125618,157854,11300,-0.091,1.03,0.224,0.244,-0.976,-0.122,541.567
125607,157882,11330,-0.092,1.032,0.224,0.244,-0.976,-0.122,541.571
125607,157825,11283,-0.092,1.026,0.229,-1.098,-0.305,0.061,541.577
125617,157882,11330,-0.093,1.02,0.226,-1.098,-0.305,0.061,541.58
125617,157825,11307,-0.091,1.019,0.22,-2.073,-0.122,-0.061,541.587
125607,157882,11330,-0.088,1.016,0.215,-2.073,-0.122,-0.061,541.59
125607,157813,11298,-0.092,1.015,0.212,-1.646,-0.183,-0.183,541.597
125634,157882,11330,-0.092,1.01,0.217,-1.646,-0.183,-0.183,541.6
125634,157842,11308,-0.093,1.006,0.22,-0.427,0,-0.122,541.606
125646,157882,11330,-0.094,1.008,0.217,-0.427,0,-0.122,541.61
125646,157851,11298,-0.096,1.014,0.217,-0.671,0.061,0.183,541.616
125679,157882,11330,-0.096,1.023,0.222,-0.671,0.061,0.183,541.62
125679,157869,11308,-0.091,1.03,0.224,-1.159,-0.61,0.305,541.626
125681,157882,11330,-0.087,1.036,0.233,-1.159,-0.61,0.305,541.63
125681,157893,11292,-0.087,1.029,0.233,-1.646,-1.89,0.305,541.636
125705,157882,11330,-0.087,1.021,0.231,-1.646,-1.89,0.305,541.64
125705,157916,11302,-0.084,1.017,0.227,-3.293,-2.744,0.061,541.646
125709,157882,11330,-0.087,1.02,0.219,-3.293,-2.744,0.061,541.65
125709,157908,11307,-0.088,1.018,0.219,-4.268,-2.439,0,541.656
125674,157882,11330,-0.09,1.019,0.227,-4.268,-2.439,0,541.66
125674,157894,11300,-0.088,1.018,0.233,-4.024,-2.012,-0.061,541.666
125661,157882,11330,-0.087,1.022,0.231,-4.024,-2.012,-0.061,541.67
125661,157890,11291,-0.088,1.023,0.226,-4.207,-1.646,-0.244,541.676
125628,157882,11330,-0.089,1.02,0.223,-4.207,-1.646,-0.244,541.679
125628,157880,11291,-0.094,1.02,0.222,-4.268,-0.976,-0.549,541.686
125624,157882,11330,-0.095,1.023,0.218,-4.268,-0.976,-0.549,541.689
125624,157878,11302,-0.1,1.024,0.214,-4.146,-0.366,-0.671,541.695
125611,157882,11330,-0.098,1.021,0.219,-4.146,-0.366,-0.671,541.699
125611,157859,11294,-0.099,1.021,0.216,-3.293,-0.305,-0.732,541.705
125625,157882,11330,-0.101,1.018,0.217,-3.293,-0.305,-0.732,541.709
125625,157857,11304,-0.102,1.016,0.215,-3.415,-0.366,-0.427,541.715
125596,157882,11330,-0.103,1.015,0.212,-3.415,-0.366,-0.427,541.719
125596,157851,11301,-0.106,1.014,0.21,-4.268,-0.305,-0.305,541.725
125598,157882,11330,-0.101,1.015,0.212,-4.268,-0.305,-0.305,541.729
125598,157853,11285,-0.1,1.012,0.214,-4.329,-0.671,-0.122,541.735
125631,157882,11330,-0.101,1.013,0.216,-4.329,-0.671,-0.122,541.739
125631,157855,11302,-0.096,1.012,0.219,-3.963,-1.037,0.244,541.745
125630,157882,11330,-0.097,1.016,0.219,-3.963,-1.037,0.244,541.749
125630,157862,11300,-0.097,1.017,0.225,-3.963,-1.159,0.61,541.755
125628,157882,11330,-0.097,1.016,0.23,-3.963,-1.159,0.61,541.759
125628,157864,11296,-0.093,1.016,0.234,-4.024,-1.341,0.854,541.765
125645,157882,11330,-0.092,1.016,0.242,-4.024,-1.341,0.854,541.768
125645,157843,11288,-0.092,1.015,0.249,-4.573,-1.646,0.915,541.775
125625,157882,11330,-0.088,1.014,0.248,-4.573,-1.646,0.915,541.778
125625,157875,11297,-0.084,1.014,0.241,-4.39,-1.524,0.854,541.785
125668,157882,11330,-0.083,1.013,0.242,-4.39,-1.524,0.854,541.788
125668,157894,11313,-0.086,1.014,0.247,-3.049,-0.915,0.61,541.794
125653,157882,11330,-0.087,1.013,0.25,-3.049,-0.915,0.61,541.798
125653,157903,11306,-0.086,1.014,0.253,-1.768,-0.183,0.427,541.804
125695,157882,11330,-0.086,1.012,0.25,-1.768,-0.183,0.427,541.808
125695,157905,11308,-0.082,1.016,0.242,-0.61,0.488,0.244,541.814
125694,157882,11330,-0.083,1.024,0.234,-0.61,0.488,0.244,541.818
125694,157936,11310,-0.086,1.028,0.232,-0.366,1.098,0.122,541.824
125742,158138,11330,-0.09,1.02,0.229,-0.366,1.098,0.122,541.828
125742,157957,11310,-0.09,1.017,0.229,-0.366,1.159,-0.061,541.834
125718,157882,11330,-0.092,1.016,0.228,-0.366,1.159,-0.061,541.838
125718,157920,11320,-0.093,1.016,0.225,-0.915,1.159,0.122,541.844
125727,157882,11330,-0.09,1.02,0.228,-0.915,1.159,0.122,541.848
125727,157945,11322,-0.09,1.021,0.231,-0.793,1.037,0.488,541.854
125741,157882,11330,-0.089,1.014,0.227,-0.793,1.037,0.488,541.858
125741,157936,11318,-0.092,1.011,0.221,0,1.159,0.427,541.864
125743,158138,11330,-0.1,1.011,0.226,0,1.159,0.427,541.867
125743,157958,11311,-0.099,1.014,0.232,0.366,1.524,0.549,541.874
125728,157882,11330,-0.095,1.017,0.231,0.366,1.524,0.549,541.877
125728,157943,11317,-0.098,1.021,0.227,0.976,1.463,0.61,541.884
125752,157882,11330,-0.095,1.025,0.227,0.976,1.463,0.61,541.887
125752,157950,11296,-0.094,1.021,0.231,0.915,1.037,0.549,541.893
125721,157882,11330,-0.091,1.02,0.231,0.915,1.037,0.549,541.897
125721,157938,11294,-0.086,1.018,0.229,0.549,0.976,0.61,541.903
125651,157882,11330,-0.084,1.018,0.229,0.549,0.976,0.61,541.907
125651,157893,11296,-0.088,1.021,0.229,0.305,1.463,0.61,541.913
125540,157882,11330,-0.091,1.017,0.227,0.305,1.463,0.61,541.917
125540,157807,11279,-0.09,1.017,0.225,0.244,1.707,0.488,541.923
125431,157882,11330,-0.09,1.022,0.222,0.244,1.707,0.488,541.927
125431,157765,11260,-0.093,1.026,0.22,-0.061,1.402,0.549,541.933
125319,157626,11330,-0.095,1.024,0.227,-0.061,1.402,0.549,541.937
125319,157679,11240,-0.092,1.018,0.23,-0.122,0.976,0.488,541.943
125220,157626,11330,-0.09,1.018,0.23,-0.122,0.976,0.488,541.947
125220,157632,11234,-0.092,1.019,0.226,-0.488,0.732,0.244,541.953
125161,157626,11330,-0.093,1.02,0.224,-0.488,0.732,0.244,541.957
125161,157563,11232,-0.092,1.013,0.228,-0.61,0.793,0.183,541.963
125107,157626,11330,-0.092,1.012,0.226,-0.61,0.793,0.183,541.966
125107,157540,11230,-0.096,1.011,0.222,-0.549,0.732,0.061,541.973
125061,157626,11330,-0.096,1.011,0.222,-0.549,0.732,0.061,541.976
125061,157514,11223,-0.099,1.018,0.228,-1.098,0.488,0.366,541.983
125020,157626,11330,-0.099,1.018,0.228,-1.098,0.488,0.366,541.986
125020,157492,11201,-0.098,1.018,0.238,-0.915,0,0.488,541.992
125030,157626,11330,-0.098,1.018,0.238,-0.915,0,0.488,541.996
125030,157479,11208,-0.091,1.022,0.233,-1.037,-0.061,0.427,542.002
125043,157626,11330,-0.091,1.022,0.233,-1.037,-0.061,0.427,542.006
125043,157493,11219,-0.093,1.018,0.232,-1.22,0.549,0.366,542.012
125052,157626,11330,-0.093,1.018,0.232,-1.22,0.549,0.366,542.016
125052,157535,11207,-0.097,1.011,0.229,-1.037,0.915,0.366,542.022
125070,157626,11330,-0.097,1.011,0.229,-1.037,0.915,0.366,542.026
125070,157547,11216,-0.097,1.016,0.225,-0.854,0.671,0.488,542.032
125124,157626,11330,-0.097,1.016,0.225,-0.854,0.671,0.488,542.036
125124,157547,11214,-0.09,1.015,0.228,-0.305,0.122,0.427,542.042
125111,157626,11330,-0.09,1.015,0.228,-0.305,0.122,0.427,542.046
125111,157559,11232,-0.095,1.02,0.23,-0.915,0.244,0.61,542.052
125121,157626,11330,-0.095,1.02,0.23,-0.915,0.244,0.61,542.056
125121,157576,11231,-0.095,1.022,0.231,-1.159,0.244,0.671,542.062
125132,157626,11330,-0.095,1.022,0.231,-1.159,0.244,0.671,542.065
125132,157577,11223,-0.088,1.013,0.233,-0.854,0.061,0.427,542.072
125162,157626,11330,-0.088,1.013,0.233,-0.854,0.061,0.427,542.075
125162,157604,11222,-0.094,1.018,0.233,-0.793,0.183,0.61,542.082
125162,157626,11330,-0.094,1.018,0.233,-0.793,0.183,0.61,542.085
125162,157605,11228,-0.091,1.015,0.24,-0.244,0.183,0.549,542.091
125198,157626,11330,-0.091,1.015,0.24,-0.244,0.183,0.549,542.095
125198,157639,11226,-0.087,1.017,0.239,-0.305,0.122,0.732,542.101
125237,157626,11330,-0.087,1.017,0.239,-0.305,0.122,0.732,542.105
125237,157651,11257,-0.092,1.019,0.24,-0.671,0.305,0.854,542.111
125241,157626,11330,-0.092,1.019,0.24,-0.671,0.305,0.854,542.115
125241,157672,11242,-0.086,1.015,0.235,-0.671,0.305,0.854,542.121
125278,157626,11330,-0.085,1.013,0.24,-0.488,0.549,0.549,542.125
125278,157673,11240,-0.085,1.015,0.242,-0.488,0.549,0.549,542.131
125271,157626,11330,-0.089,1.012,0.236,-0.61,1.037,0.671,542.135
125271,157667,11251,-0.09,1.012,0.228,-0.61,1.037,0.671,542.141
125295,157626,11330,-0.09,1.014,0.231,-0.488,1.22,0.61,542.145
125295,157673,11247,-0.092,1.016,0.23,-0.488,1.22,0.61,542.151
125311,157882,11330,-0.091,1.019,0.224,0.061,1.037,0.427,542.155
125311,157702,11235,-0.091,1.021,0.22,0.061,1.037,0.427,542.161
125362,157882,11330,-0.092,1.026,0.225,-0.366,0.793,0.488,542.164
125362,157728,11248,-0.09,1.022,0.229,-0.366,0.793,0.488,542.171
125330,157882,11330,-0.092,1.015,0.233,-0.61,0.488,0.488,542.174
125330,157738,11255,-0.097,1.012,0.233,-0.61,0.488,0.488,542.181
125368,157882,11330,-0.094,1.013,0.231,-0.671,0.427,0.366,542.184
125368,157766,11254,-0.097,1.014,0.227,-0.671,0.427,0.366,542.19
125379,157882,11330,-0.097,1.018,0.235,-0.061,0.488,0.366,542.194
125379,157764,11267,-0.092,1.023,0.234,-0.061,0.488,0.366,542.2
125416,157882,11330,-0.09,1.027,0.239,1.159,0.366,0.183,542.204
125416,157774,11259,-0.091,1.022,0.244,1.159,0.366,0.183,542.21
125426,157882,11330,-0.09,1.018,0.244,1.22,0.549,0.061,542.214
125426,157799,11257,-0.09,1.018,0.236,1.22,0.549,0.061,542.22
125420,157882,11330,-0.087,1.017,0.234,0.732,0.793,0.061,542.224
125420,157800,11258,-0.09,1.014,0.236,0.732,0.793,0.061,542.23
125449,157882,11330,-0.09,1.014,0.232,0.732,0.793,-0.122,542.234
125449,157803,11262,-0.091,1.014,0.227,0.732,0.793,-0.122,542.24
125469,157882,11330,-0.091,1.012,0.23,0.366,0.915,0,542.244
125469,157815,11259,-0.09,1.013,0.228,0.366,0.915,0,542.25
125477,157882,11330,-0.092,1.012,0.227,-0.244,0.976,0.366,542.254
125477,157837,11252,-0.094,1.014,0.216,-0.244,0.976,0.366,542.26
125498,157882,11330,-0.093,1.019,0.214,-1.037,0.793,0.488,542.263
125498,157825,11288,-0.097,1.019,0.214,-1.037,0.793,0.488,542.27
125475,157882,11330,-0.098,1.017,0.209,-1.098,0.183,0.549,542.273
125475,157851,11286,-0.092,1.019,0.211,-1.098,0.183,0.549,542.28
125501,157882,11330,-0.095,1.026,0.215,-0.671,-0.488,0.488,542.283
125501,157882,11271,-0.093,1.031,0.218,-0.671,-0.488,0.488,542.289
125540,157882,11330,-0.092,1.035,0.222,-0.305,-0.793,0.244,542.293
125540,157877,11271,-0.092,1.037,0.231,-0.305,-0.793,0.244,542.299
125570,157882,11330,-0.092,1.033,0.235,-0.244,-0.793,0.061,542.303
125570,157877,11286,-0.092,1.028,0.24,-0.244,-0.793,0.061,542.309
125564,157882,11330,-0.091,1.024,0.236,-0.61,-0.732,-0.305,542.313
125564,157894,11280,-0.091,1.021,0.236,-0.61,-0.732,-0.305,542.319
125581,157882,11330,-0.091,1.018,0.243,-0.366,-0.671,-0.732,542.323
125581,157901,11274,-0.088,1.013,0.249,-0.366,-0.671,-0.732,542.329
125576,157882,11330,-0.087,1.01,0.252,0.427,-0.366,-0.915,542.333
125576,157894,11303,-0.084,1.013,0.251,0.427,-0.366,-0.915,542.339
125603,157882,11330,-0.083,1.021,0.248,1.22,0.366,-0.915,542.343
125603,157897,11271,-0.08,1.024,0.236,1.22,0.366,-0.915,542.349
125594,157882,11330,-0.083,1.017,0.23,1.646,1.463,-1.037,542.353
125594,157913,11283,-0.085,1.012,0.226,1.646,1.463,-1.037,542.359
125600,157882,11330,-0.09,1.011,0.222,1.463,1.707,-0.915,542.362
125600,157932,11288,-0.093,1.013,0.225,1.463,1.707,-0.915,542.369
125586,157882,11330,-0.095,1.008,0.228,0.366,1.28,-0.061,542.372
125586,157918,11290,-0.092,1.011,0.231,0.366,1.28,-0.061,542.379
125601,157882,11330,-0.089,1.011,0.228,-0.061,0.915,0.427,542.382
125601,157937,11283,-0.094,1.008,0.224,-0.061,0.915,0.427,542.388
125600,157882,11330,-0.092,1.007,0.219,-0.244,0.854,0.61,542.392
125600,157936,11284,-0.094,1.013,0.215,-0.244,0.854,0.61,542.398
125604,157882,11330,-0.1,1.014,0.223,-0.671,0.793,0.915,542.402
125604,157917,11283,-0.103,1.011,0.218,-0.671,0.793,0.915,542.408
125609,157882,11330,-0.102,1.01,0.223,-0.183,0.427,1.159,542.412
125609,157933,11287,-0.102,1.012,0.227,-0.183,0.427,1.159,542.418
125622,157882,11330,-0.1,1.02,0.229,0.366,0,1.098,542.422
125622,157949,11297,-0.099,1.026,0.231,0.366,0,1.098,542.428
125635,157882,11330,-0.097,1.026,0.229,0.854,-0.183,0.976,542.432
125635,157951,11297,-0.096,1.025,0.232,0.854,-0.183,0.976,542.438
125641,158138,11330,-0.095,1.022,0.234,0.854,-0.183,0.488,542.442
125641,157962,11284,-0.096,1.021,0.235,0.854,-0.183,0.488,542.448
125649,158138,11330,-0.095,1.02,0.234,0.61,0,0.244,542.452
125649,157979,11306,-0.093,1.023,0.227,0.61,0,0.244,542.458
125668,158138,11330,-0.095,1.028,0.221,0.305,0.183,0.061,542.461
125668,157962,11304,-0.091,1.033,0.221,0.305,0.183,0.061,542.468
125661,158138,11330,-0.092,1.027,0.222,-0.122,0.061,-0.122,542.471
125661,157972,11295,-0.092,1.026,0.224,-0.122,0.061,-0.122,542.477
125653,158138,11330,-0.093,1.026,0.226,-1.159,-0.061,-0.183,542.481
125653,157970,11311,-0.095,1.022,0.224,-1.159,-0.061,-0.183,542.487
125657,158138,11330,-0.094,1.016,0.227,-1.829,-0.122,-0.366,542.491
125657,157957,11297,-0.097,1.012,0.228,-1.829,-0.122,-0.366,542.497
125650,158138,11330,-0.094,1.011,0.229,-1.28,-0.183,-0.427,542.501
125650,157967,11295,-0.094,1.01,0.231,-1.28,-0.183,-0.427,542.507
125646,158138,11330,-0.097,1.012,0.23,-0.915,-0.061,-0.122,542.511
125646,157958,11291,-0.096,1.015,0.231,-0.915,-0.061,-0.122,542.517
125638,158138,11330,-0.095,1.015,0.23,-0.305,0,0.061,542.521
125638,157971,11318,-0.095,1.01,0.233,-0.305,0,0.061,542.527
125667,158138,11330,-0.097,1.006,0.232,0.305,-0.244,0.122,542.531
125667,157983,11312,-0.095,1.005,0.237,0.305,-0.244,0.122,542.537
125659,158138,11330,-0.097,1.003,0.237,0.427,-0.427,0.244,542.541
125659,157997,11297,-0.095,1.008,0.237,0.427,-0.427,0.244,542.547
125659,158138,11330,-0.09,1.011,0.236,0.61,-0.305,0.427,542.551
125659,157963,11292,-0.091,1.016,0.234,0.61,-0.305,0.427,542.557
125660,158138,11330,-0.091,1.016,0.234,0.61,-0.305,0.427,542.56
125660,157975,11305,-0.091,1.02,0.237,0.549,-0.122,0.671,542.567
125646,158138,11330,-0.091,1.02,0.237,0.549,-0.122,0.671,542.57
125646,157969,11295,-0.096,1.02,0.234,-0.061,0.122,0.732,542.576
125624,158138,11330,-0.096,1.02,0.234,-0.061,0.122,0.732,542.58
125624,157963,11289,-0.095,1.019,0.233,-1.22,0.305,0.854,542.586
125583,157882,11330,-0.095,1.019,0.233,-1.22,0.305,0.854,542.59
125583,157923,11306,-0.09,1.017,0.241,-1.463,0.122,0.671,542.596
125536,157882,11330,-0.09,1.017,0.241,-1.463,0.122,0.671,542.6
125536,157886,11275,-0.086,1.016,0.239,-0.915,-0.183,0.488,542.606
125517,157882,11330,-0.086,1.016,0.239,-0.915,-0.183,0.488,542.61
125517,157865,11263,-0.086,1.021,0.235,-0.305,0.305,0.427,542.616
125479,157882,11330,-0.086,1.021,0.235,-0.305,0.305,0.427,542.62
125479,157855,11281,-0.09,1.016,0.234,-0.061,0.793,0.305,542.626
125482,157882,11330,-0.09,1.016,0.234,-0.061,0.793,0.305,542.63
125482,157886,11280,-0.089,1.02,0.235,0.244,0.915,0.244,542.636
125482,157882,11330,-0.089,1.02,0.235,0.244,0.915,0.244,542.64
125482,157867,11283,-0.088,1.025,0.23,-0.122,0.793,0.183,542.646
125454,157882,11330,-0.088,1.025,0.23,-0.122,0.793,0.183,542.649
125454,157859,11272,-0.091,1.011,0.224,-0.244,0.732,0.122,542.656
125437,157882,11330,-0.091,1.011,0.224,-0.244,0.732,0.122,542.659
125437,157844,11244,-0.099,1.011,0.223,0,0.793,0.183,542.666
125455,157882,11330,-0.099,1.011,0.223,0,0.793,0.183,542.669
125455,157825,11276,-0.095,1.018,0.225,0,1.159,0.427,542.675
125470,157882,11330,-0.095,1.018,0.225,0,1.159,0.427,542.679
125470,157819,11258,-0.094,1.017,0.233,0.61,0.854,0.488,542.685
125435,157882,11330,-0.094,1.017,0.233,0.61,0.854,0.488,542.689
125435,157828,11270,-0.095,1.018,0.227,0.305,0.488,0.732,542.695
125461,157882,11330,-0.095,1.018,0.227,0.305,0.488,0.732,542.699
125461,157837,11293,-0.098,1.015,0.23,-0.244,0.488,0.915,542.705
125464,157882,11330,-0.096,1.019,0.224,-0.244,0.488,0.915,542.709
125464,157844,11272,-0.096,1.024,0.229,-0.305,0.427,0.854,542.715
125461,157882,11330,-0.096,1.023,0.234,-0.305,0.427,0.854,542.719
125461,157868,11267,-0.094,1.02,0.236,0.366,0.427,0.732,542.725
125491,157882,11330,-0.093,1.013,0.237,0.366,0.427,0.732,542.729
125491,157876,11268,-0.094,1.014,0.234,0.366,0.427,0.61,542.735
125480,157882,11330,-0.093,1.022,0.231,0.366,0.427,0.61,542.739
125480,157871,11284,-0.092,1.023,0.229,-0.366,0.488,0.427,542.745
125500,157882,11330,-0.092,1.024,0.227,-0.366,0.488,0.427,542.749
125500,157897,11283,-0.091,1.018,0.228,-0.732,0.488,0.305,542.755
125528,157882,11330,-0.091,1.016,0.22,-0.732,0.488,0.305,542.758
125528,157894,11290,-0.094,1.017,0.219,-1.402,0,0.427,542.765
125541,157882,11330,-0.096,1.015,0.222,-1.402,0,0.427,542.768
125541,157902,11271,-0.094,1.017,0.232,-2.012,-0.366,0.854,542.774
125545,157882,11330,-0.094,1.019,0.228,-2.012,-0.366,0.854,542.778
125545,157903,11282,-0.091,1.021,0.223,-1.829,-0.732,0.915,542.784
125552,157882,11330,-0.09,1.02,0.219,-1.829,-0.732,0.915,542.788
125552,157922,11279,-0.092,1.023,0.222,-1.646,-0.732,0.549,542.794
125549,157882,11330,-0.093,1.026,0.229,-1.646,-0.732,0.549,542.798
125549,157924,11286,-0.093,1.022,0.239,-1.646,-0.61,0.244,542.804
125569,157882,11330,-0.094,1.02,0.242,-1.646,-0.61,0.244,542.808
125569,157922,11296,-0.092,1.019,0.238,-1.89,-0.305,0.183,542.814
125564,157882,11330,-0.096,1.019,0.237,-1.89,-0.305,0.183,542.818
125564,157931,11279,-0.094,1.02,0.24,-1.829,0.427,0.122,542.824
125576,158138,11330,-0.093,1.019,0.241,-1.829,0.427,0.122,542.828
125576,157955,11279,-0.092,1.017,0.232,-1.22,0.549,-0.122,542.834
125574,157882,11330,-0.092,1.012,0.233,-1.22,0.549,-0.122,542.838
125574,157940,11286,-0.094,1.01,0.23,-0.732,0.671,-0.366,542.844
125598,157882,11330,-0.097,1.009,0.228,-0.732,0.671,-0.366,542.847
125598,157918,11307,-0.097,1.009,0.232,-0.427,0.732,-0.244,542.854
125625,158138,11330,-0.095,1.01,0.228,-0.427,0.732,-0.244,542.857
125625,157955,11309,-0.093,1.012,0.228,-0.244,0.488,0.061,542.864
125617,158138,11330,-0.094,1.014,0.23,-0.244,0.488,0.061,542.867
125617,157979,11290,-0.095,1.016,0.236,-0.61,0.183,0.305,542.873
125621,158138,11330,-0.092,1.016,0.234,-0.61,0.183,0.305,542.877
125621,157969,11302,-0.092,1.015,0.227,-1.159,-0.244,0.671,542.883
125634,158138,11330,-0.088,1.017,0.223,-1.159,-0.244,0.671,542.887
125634,157971,11301,-0.088,1.011,0.226,-1.341,-0.488,0.671,542.893
125633,158138,11330,-0.087,1.009,0.233,-1.341,-0.488,0.671,542.897
125633,157972,11279,-0.089,1.012,0.235,-0.793,-0.61,0.671,542.903
125642,158138,11330,-0.089,1.018,0.238,-0.793,-0.61,0.671,542.907
125642,157982,11291,-0.092,1.019,0.236,-0.183,-0.305,0.976,542.913
125627,158138,11330,-0.089,1.027,0.237,-0.183,-0.305,0.976,542.917
125627,157981,11300,-0.088,1.031,0.236,0.244,-0.061,0.305,542.923
125648,158138,11330,-0.086,1.026,0.239,0.244,-0.061,0.305,542.927
125648,157982,11302,-0.091,1.028,0.234,0.427,-0.122,0.122,542.933
125635,158138,11330,-0.094,1.025,0.233,0.427,-0.122,0.122,542.937
125635,157981,11309,-0.093,1.019,0.24,-0.366,0,0,542.943
125629,158138,11330,-0.093,1.01,0.241,-0.366,0,0,542.946
125629,157962,11300,-0.092,1.005,0.235,-0.122,0,-0.244,542.953
125604,158138,11330,-0.094,1.012,0.231,-0.122,0,-0.244,542.956
125604,157968,11292,-0.093,1.02,0.236,0.488,0.305,0.061,542.963
125606,158138,11330,-0.09,1.023,0.235,0.488,0.305,0.061,542.966
125606,157961,11300,-0.092,1.019,0.228,0.915,0.671,0,542.972
125640,158138,11330,-0.093,1.01,0.23,0.915,0.671,0,542.976
125640,157967,11295,-0.095,1.009,0.231,0.366,0.61,0,542.982
125635,158138,11330,-0.099,1.01,0.228,0.366,0.61,0,542.986
125635,157967,11305,-0.1,1.012,0.231,-0.366,0.61,0.488,542.992
125616,158138,11330,-0.095,1.013,0.237,-0.366,0.61,0.488,542.996
125616,157976,11287,-0.093,1.01,0.241,-0.244,0.244,0.61,543.002
125613,158138,11330,-0.091,1.016,0.234,-0.244,0.244,0.61,543.006
125613,157978,11289,-0.092,1.02,0.23,-0.183,0.244,0.671,543.012
125592,158138,11330,-0.091,1.022,0.23,-0.183,0.244,0.671,543.016
125592,157990,11286,-0.089,1.012,0.235,-0.122,0.549,0.61,543.022
125582,157882,11330,-0.09,1.011,0.23,-0.122,0.549,0.61,543.026
125582,157945,11281,-0.09,1.015,0.228,0.549,0.549,0.366,543.032
125536,157882,11330,-0.093,1.022,0.231,0.549,0.549,0.366,543.036
125536,157906,11269,-0.09,1.024,0.233,1.037,0.61,0.61,543.042
125447,157882,11330,-0.088,1.025,0.236,1.037,0.61,0.61,543.045
125447,157853,11280,-0.09,1.026,0.232,1.037,0.61,0.488,543.052
125373,157882,11330,-0.089,1.022,0.226,1.037,0.61,0.488,543.055
125373,157777,11258,-0.091,1.019,0.224,-0.549,1.037,0.488,543.062
125322,157882,11330,-0.097,1.015,0.222,-0.549,1.037,0.488,543.065
125322,157724,11239,-0.102,1.015,0.224,-2.012,1.098,0.793,543.071
125235,157626,11330,-0.102,1.018,0.228,-2.012,1.098,0.793,543.075
125235,157682,11240,-0.096,1.02,0.233,-1.829,0.671,0.976,543.081
125166,157626,11330,-0.093,1.025,0.232,-1.829,0.671,0.976,543.085
125166,157648,11226,-0.093,1.025,0.23,-0.915,0.427,0.793,543.091
125105,157626,11330,-0.09,1.023,0.232,-0.915,0.427,0.793,543.095
125105,157619,11212,-0.089,1.013,0.231,-0.366,0.854,0.427,543.101
125054,157626,11330,-0.095,1.014,0.234,-0.366,0.854,0.427,543.105
125054,157598,11207,-0.097,1.016,0.235,-0.183,1.22,0.305,543.111
125061,157626,11330,-0.094,1.015,0.233,-0.183,1.22,0.305,543.115
125061,157582,11200,-0.09,1.017,0.237,0.183,1.037,0.427,543.121
125040,157626,11330,-0.088,1.016,0.245,0.183,1.037,0.427,543.125
125040,157547,11208,-0.086,1.015,0.24,0.427,0.915,0.427,543.131
125054,157626,11330,-0.086,1.017,0.233,0.427,0.915,0.427,543.135
125054,157550,11215,-0.09,1.017,0.229,-0.549,1.22,0.549,543.141
125028,157626,11330,-0.09,1.017,0.229,-0.549,1.22,0.549,543.144
125028,157566,11224,-0.095,1.011,0.227,-1.22,1.037,0.488,543.151
125020,157626,11330,-0.095,1.011,0.227,-1.22,1.037,0.488,543.154
125020,157580,11196,-0.097,1.019,0.216,-1.28,0.671,0.61,543.161
125025,157626,11330,-0.097,1.019,0.216,-1.28,0.671,0.61,543.164
125025,157560,11195,-0.094,1.019,0.228,-1.037,0.061,0.732,543.17
125026,157626,11330,-0.094,1.019,0.228,-1.037,0.061,0.732,543.174
125026,157574,11199,-0.091,1.021,0.232,-0.244,-0.732,0.488,543.18
125025,157626,11330,-0.091,1.021,0.232,-0.244,-0.732,0.488,543.184
125025,157575,11217,-0.088,1.021,0.234,0.305,-0.488,0.427,543.19
125052,157626,11330,-0.088,1.021,0.234,0.305,-0.488,0.427,543.194
125052,157579,11215,-0.091,1.023,0.239,0.488,0.427,0.183,543.2
125089,157626,11330,-0.091,1.023,0.239,0.488,0.427,0.183,543.204
125089,157606,11226,-0.097,1.017,0.24,0,0.427,0.061,543.21
125098,157626,11330,-0.097,1.017,0.24,0,0.427,0.061,543.214
125098,157586,11225,-0.091,1.015,0.238,-0.549,0.183,0.061,543.22
125073,157626,11330,-0.091,1.015,0.238,-0.549,0.183,0.061,543.224
125073,157612,11215,-0.091,1.009,0.244,-0.671,0.366,0.122,543.23
125070,157626,11330,-0.091,1.009,0.244,-0.671,0.366,0.122,543.234
125070,157583,11209,-0.092,1.018,0.237,-0.305,0.915,0.366,543.24
125044,157626,11330,-0.092,1.018,0.237,-0.305,0.915,0.366,543.243
125044,157578,11210,-0.088,1.01,0.234,0.244,0.915,0.183,543.25
125058,157626,11330,-0.088,1.01,0.234,0.244,0.915,0.183,543.253
125058,157586,11223,-0.089,1.017,0.229,0.183,0.793,0.305,543.26
125048,157626,11330,-0.089,1.017,0.229,0.183,0.793,0.305,543.263
125048,157599,11209,-0.091,1.02,0.232,-0.366,0.976,0.488,543.269
125038,157626,11330,-0.091,1.02,0.232,-0.366,0.976,0.488,543.273
125038,157592,11191,-0.094,1.012,0.217,-0.976,0.976,0.427,543.279
125050,157626,11330,-0.094,1.012,0.217,-0.976,0.976,0.427,543.283
125050,157563,11199,-0.095,1.016,0.219,-0.976,0.976,0.427,543.289
125067,157626,11330,-0.098,1.02,0.223,-1.159,0.61,0.854,543.293
125067,157604,11200,-0.097,1.026,0.222,-1.159,0.61,0.854,543.299
125070,157626,11330,-0.093,1.025,0.225,-0.305,0.061,0.793,543.303
125070,157615,11205,-0.092,1.022,0.233,-0.305,0.061,0.793,543.309
125095,157626,11330,-0.096,1.019,0.231,0.305,0.122,0.488,543.313
125095,157610,11212,-0.098,1.018,0.226,0.305,0.122,0.488,543.319
125076,157626,11330,-0.099,1.02,0.224,0.183,0.427,0.427,543.323
125076,157619,11214,-0.099,1.021,0.234,0.183,0.427,0.427,543.329
125127,157626,11330,-0.094,1.016,0.244,0.427,0.122,-0.061,543.333
125127,157642,11225,-0.094,1.014,0.24,0.427,0.122,-0.061,543.339
125117,157626,11330,-0.094,1.015,0.233,0.61,0,-0.183,543.342
125117,157643,11230,-0.093,1.017,0.233,0.61,0,-0.183,543.349
125067,157626,11330,-0.091,1.016,0.234,0.183,0.427,-0.122,543.352
125067,157588,11240,-0.088,1.01,0.234,0.183,0.427,-0.122,543.359
125041,157626,11330,-0.092,1.008,0.232,-0.122,0.427,-0.183,543.362
125041,157594,11192,-0.092,1.011,0.236,-0.122,0.427,-0.183,543.368
125021,157626,11330,-0.092,1.009,0.236,-0.488,0.183,0.122,543.372
125021,157600,11199,-0.089,1.014,0.236,-0.488,0.183,0.122,543.378
125004,157626,11330,-0.087,1.017,0.233,-0.549,0.122,0.183,543.382
125004,157559,11210,-0.086,1.016,0.235,-0.549,0.122,0.183,543.388
125010,157626,11330,-0.085,1.015,0.23,-0.488,0.244,0.244,543.392
125010,157562,11199,-0.087,1.015,0.226,-0.488,0.244,0.244,543.398
125033,157626,11330,-0.091,1.02,0.221,-0.732,0.549,0.427,543.402
125033,157567,11202,-0.095,1.02,0.223,-0.732,0.549,0.427,543.408
125020,157626,11330,-0.094,1.018,0.224,-0.61,0.488,0.488,543.412
125020,157607,11206,-0.094,1.019,0.229,-0.61,0.488,0.488,543.418
125062,157626,11330,-0.094,1.018,0.233,-0.366,0.122,0.61,543.422
125062,157617,11198,-0.09,1.029,0.232,-0.366,0.122,0.61,543.428
125076,157626,11330,-0.092,1.029,0.236,-1.037,-0.122,0.671,543.432
125076,157626,11226,-0.09,1.028,0.234,-1.037,-0.122,0.671,543.438
125081,157626,11330,-0.091,1.024,0.229,-1.402,0.244,0.427,543.441
125081,157648,11219,-0.094,1.024,0.229,-1.402,0.244,0.427,543.448
125092,157626,11330,-0.097,1.02,0.227,-1.463,0.549,0.061,543.451
125092,157631,11204,-0.096,1.019,0.228,-1.463,0.549,0.061,543.458
125088,157626,11330,-0.095,1.013,0.234,-0.488,0.244,-0.122,543.461
125088,157612,11212,-0.093,1.01,0.245,-0.488,0.244,-0.122,543.467
125091,157626,11330,-0.09,1.015,0.245,0.732,0,-0.183,543.471
125091,157637,11203,-0.092,1.019,0.236,0.732,0,-0.183,543.477
125090,157626,11330,-0.092,1.022,0.232,0.549,0.915,0,543.481
125090,157647,11225,-0.094,1.02,0.233,0.549,0.915,0,543.487
125116,157626,11330,-0.095,1.018,0.232,-0.061,1.341,0.061,543.491
125116,157612,11222,-0.096,1.017,0.234,-0.061,1.341,0.061,543.497
125070,157626,11330,-0.094,1.013,0.233,-0.488,0.427,0.061,543.501
125070,157620,11211,-0.091,1.008,0.237,-0.488,0.427,0.061,543.507
125075,157626,11330,-0.09,1.008,0.237,-0.488,0.061,0,543.511
125075,157611,11213,-0.091,1.007,0.233,-0.488,0.061,0,543.517
125061,157626,11330,-0.094,1.008,0.229,-0.549,0.61,0.122,543.521
125061,157619,11217,-0.094,1.012,0.23,-0.549,0.61,0.122,543.527
125080,157626,11330,-0.095,1.016,0.233,-0.183,0.549,0.244,543.531
125080,157620,11208,-0.095,1.024,0.235,-0.183,0.549,0.244,543.537
125086,157626,11330,-0.093,1.031,0.229,-0.061,0,0.305,543.54
125086,157643,11220,-0.088,1.033,0.227,-0.061,0,0.305,543.547
125077,157626,11330,-0.092,1.016,0.228,-0.549,-0.122,0.122,543.55
125077,157633,11203,-0.096,1.009,0.229,-0.549,-0.122,0.122,543.557
125091,157626,11330,-0.099,1.006,0.229,-0.915,0.488,0.244,543.56
125091,157654,11215,-0.104,1.009,0.231,-0.915,0.488,0.244,543.566
125098,157626,11330,-0.1,1.015,0.23,-0.305,0.671,0.305,543.57
125098,157625,11210,-0.096,1.021,0.219,-0.305,0.671,0.305,543.576
125093,157626,11330,-0.1,1.03,0.228,0.671,0.427,0.122,543.58
125093,157631,11211,-0.096,1.021,0.261,0.671,0.427,0.122,543.586
125092,157626,11330,-0.085,1.014,0.255,1.159,-0.427,0.244,543.59
125092,157617,11219,-0.087,1.027,0.231,1.159,-0.427,0.244,543.596
125086,157626,11330,-0.088,1.024,0.233,0.061,0.305,0.305,543.6
125086,157626,11218,-0.091,1.009,0.245,0.061,0.305,0.305,543.606
125073,157626,11330,-0.094,1.007,0.231,0.61,1.22,-0.061,543.61
125073,157636,11225,-0.1,1.011,0.225,0.61,1.22,-0.061,543.616
125086,157626,11330,-0.103,1.015,0.226,-1.037,1.402,0.366,543.62
125086,157614,11230,-0.1,1.016,0.226,-1.037,1.402,0.366,543.626
125084,157626,11330,-0.093,1.019,0.229,-1.524,0.305,0.549,543.63
125084,157634,11227,-0.085,1.02,0.228,-1.524,0.305,0.549,543.636
125098,157626,11330,-0.085,1.017,0.238,-1.463,-0.732,0.549,543.639
125098,157637,11211,-0.083,1.017,0.24,-1.463,-0.732,0.549,543.646
125091,157626,11330,-0.082,1.017,0.236,-1.28,-0.183,0.793,543.649
125091,157628,11215,-0.083,1.016,0.229,-1.28,-0.183,0.793,543.656
125104,157626,11330,-0.092,1.015,0.225,-1.768,1.098,0.793,543.659
125104,157649,11229,-0.095,1.015,0.228,-1.768,1.098,0.793,543.665
125125,157626,11330,-0.095,1.018,0.228,-1.707,1.22,0.854,543.669
125125,157674,11216,-0.093,1.022,0.225,-1.707,1.22,0.854,543.675
125163,157626,11330,-0.091,1.026,0.222,-1.524,0.366,0.549,543.679
125163,157684,11244,-0.092,1.026,0.227,-1.524,0.366,0.549,543.685
125170,157626,11330,-0.091,1.026,0.232,-1.22,-0.366,0.305,543.689
125170,157678,11231,-0.087,1.021,0.235,-1.22,-0.366,0.305,543.695
125172,157626,11330,-0.09,1.019,0.233,-1.22,-0.305,0.122,543.699
125172,157669,11231,-0.091,1.017,0.231,-1.22,-0.305,0.122,543.705
125178,157626,11330,-0.094,1.016,0.234,-0.366,0.122,-0.244,543.709
125178,157674,11228,-0.1,1.017,0.237,-0.366,0.122,-0.244,543.715
125177,157882,11330,-0.1,1.017,0.237,-0.366,0.122,-0.244,543.719
125177,157699,11227,-0.097,1.017,0.235,0.732,0.244,-0.61,543.725
125192,157626,11330,-0.097,1.017,0.235,0.732,0.244,-0.61,543.729
125192,157691,11230,-0.096,1.022,0.231,1.159,-0.061,-0.488,543.735
125193,157626,11330,-0.096,1.022,0.231,1.159,-0.061,-0.488,543.738
125193,157691,11233,-0.093,1.019,0.242,0.915,-0.305,-0.305,543.745
125174,157626,11330,-0.093,1.019,0.242,0.915,-0.305,-0.305,543.748
125174,157679,11240,-0.098,1.011,0.237,-0.793,-0.183,-0.122,543.754
125187,157882,11330,-0.098,1.011,0.237,-0.793,-0.183,-0.122,543.758
125187,157707,11234,-0.097,1.004,0.244,-2.561,-0.183,0.122,543.764
125205,157882,11330,-0.097,1.004,0.244,-2.561,-0.183,0.122,543.768
125205,157713,11224,-0.094,1.011,0.24,-3.354,-0.244,0.488,543.774
125212,157882,11330,-0.094,1.011,0.24,-3.354,-0.244,0.488,543.778
125212,157723,11222,-0.091,1.008,0.242,-3.232,-0.122,0.732,543.784
125216,157882,11330,-0.091,1.008,0.242,-3.232,-0.122,0.732,543.788
125216,157720,11224,-0.094,1.014,0.235,-2.866,0.061,0.854,543.794
125243,157882,11330,-0.094,1.014,0.235,-2.866,0.061,0.854,543.798
125243,157750,11245,-0.089,1.003,0.238,-1.829,0,0.854,543.804
125256,157882,11330,-0.089,1.003,0.238,-1.829,0,0.854,543.808
125256,157747,11242,-0.091,1.02,0.231,-0.061,0.122,0.488,543.814
125245,157882,11330,-0.091,1.02,0.231,-0.061,0.122,0.488,543.818
125245,157723,11247,-0.088,1.028,0.239,0.549,0.793,0.549,543.824
125225,157882,11330,-0.088,1.028,0.239,0.549,0.793,0.549,543.828
125225,157723,11242,-0.088,1.031,0.234,1.28,0.549,0.305,543.834
125237,157882,11330,-0.088,1.031,0.234,1.28,0.549,0.305,543.837
125237,157752,11237,-0.093,1.014,0.233,0.366,0.427,0,543.844
125260,157882,11330,-0.093,1.014,0.233,0.366,0.427,0,543.847
125260,157753,11240,-0.097,1.014,0.234,-0.549,0.61,0.061,543.853
125276,157882,11330,-0.097,1.014,0.234,-0.549,0.61,0.061,543.857
125276,157742,11239,-0.095,1.018,0.235,-0.61,0.549,0.061,543.863
125255,157882,11330,-0.096,1.016,0.235,-0.61,0.549,0.061,543.867
125255,157737,11235,-0.094,1.018,0.239,-0.183,0.366,0.122,543.873
125248,157882,11330,-0.095,1.016,0.245,-0.183,0.366,0.122,543.877
125248,157763,11239,-0.093,1.018,0.243,-0.427,0.427,0.244,543.883
125256,157882,11330,-0.095,1.016,0.238,-0.427,0.427,0.244,543.887
125256,157775,11243,-0.097,1.013,0.235,-1.037,0.976,0.366,543.893
125277,157882,11330,-0.094,1.005,0.231,-1.037,0.976,0.366,543.897
125277,157798,11244,-0.094,1.004,0.233,-0.366,1.098,0.122,543.903
125301,157882,11330,-0.095,1.004,0.235,-0.366,1.098,0.122,543.907
125301,157799,11228,-0.095,1.009,0.238,1.28,0.793,0.366,543.913
125285,157882,11330,-0.095,1.014,0.236,1.28,0.793,0.366,543.917
125285,157793,11226,-0.094,1.015,0.235,1.951,0.976,0.488,543.923
125281,157882,11330,-0.096,1.018,0.233,1.951,0.976,0.488,543.927
125281,157800,11267,-0.092,1.021,0.232,1.341,1.22,0.549,543.933
125323,157882,11330,-0.092,1.025,0.236,1.341,1.22,0.549,543.936
125323,157812,11257,-0.091,1.022,0.239,-0.122,0.732,0.854,543.943
125332,157882,11330,-0.092,1.018,0.235,-0.122,0.732,0.854,543.946
125332,157809,11246,-0.091,1.014,0.233,-1.402,0.305,1.037,543.952
125364,157882,11330,-0.089,1.015,0.233,-1.402,0.305,1.037,543.956
125364,157852,11251,-0.09,1.019,0.225,-2.073,0.488,0.915,543.962
125361,157882,11330,-0.09,1.023,0.223,-2.073,0.488,0.915,543.966
125361,157846,11272,-0.092,1.025,0.228,-1.707,0.732,0.793,543.972
125385,157882,11330,-0.095,1.02,0.237,-1.707,0.732,0.793,543.976
125385,157862,11247,-0.095,1.018,0.239,-0.732,0.427,0.549,543.982
125399,157882,11330,-0.094,1.018,0.242,-0.732,0.427,0.549,543.986
125399,157884,11266,-0.089,1.017,0.242,-0.061,0.305,0.366,543.992
125395,157882,11330,-0.089,1.017,0.241,-0.061,0.305,0.366,543.996
125395,157881,11266,-0.09,1.013,0.234,0.671,0.61,0,544.002
125422,157882,11330,-0.094,1.012,0.228,0.671,0.61,0,544.006
125422,157883,11247,-0.1,1.009,0.227,0.793,0.976,-0.183,544.012
125392,157882,11330,-0.099,1.009,0.236,0.793,0.976,-0.183,544.016
125392,157877,11257,-0.1,1.017,0.239,0.549,0.793,0.122,544.022
125384,157882,11330,-0.1,1.019,0.24,0.549,0.793,0.122,544.026
125384,157858,11259,-0.094,1.019,0.24,-0.122,0.244,0.305,544.032
125374,157882,11330,-0.095,1.013,0.239,-0.122,0.244,0.305,544.035
125374,157855,11253,-0.092,1.012,0.233,-0.793,-0.061,0.366,544.042
125367,157882,11330,-0.093,1.013,0.235,-0.793,-0.061,0.366,544.045
125367,157842,11249,-0.092,1.014,0.233,-1.707,0.305,0.427,544.051
125386,157882,11330,-0.092,1.017,0.232,-1.707,0.305,0.427,544.055
125386,157844,11270,-0.092,1.015,0.234,-1.829,0.183,0.366,544.061
125342,157882,11330,-0.091,1.016,0.234,-1.829,0.183,0.366,544.065
125342,157855,11264,-0.091,1.021,0.239,-1.22,-0.244,0.427,544.071
125379,157882,11330,-0.088,1.02,0.238,-1.22,-0.244,0.427,544.075
125379,157850,11259,-0.092,1.017,0.235,-1.22,0.244,0.488,544.081
125384,157882,11330,-0.09,1.018,0.23,-1.22,0.244,0.488,544.085
125384,157868,11266,-0.095,1.019,0.226,-1.768,0.915,0.61,544.091
125420,157882,11330,-0.099,1.02,0.229,-1.768,0.915,0.61,544.095
125420,157891,11267,-0.099,1.02,0.235,-2.805,0.915,0.915,544.101
125431,157882,11330,-0.096,1.024,0.236,-2.805,0.915,0.915,544.105
125431,157852,11271,-0.091,1.03,0.241,-3.72,0,0.854,544.111
125415,157882,11330,-0.09,1.024,0.243,-3.72,0,0.854,544.115
125415,157892,11265,-0.089,1.017,0.24,-4.207,-0.366,0.549,544.121
125387,157882,11330,-0.093,1.007,0.241,-4.207,-0.366,0.549,544.124
125387,157884,11263,-0.097,0.999,0.245,-3.232,0.183,0.366,544.131
125395,157882,11330,-0.097,0.995,0.246,-3.232,0.183,0.366,544.134
125395,157884,11256,-0.097,1.001,0.24,-1.159,0.549,0.305,544.141
125396,157882,11330,-0.096,1.008,0.242,-1.159,0.549,0.305,544.144
125396,157865,11252,-0.091,1.014,0.246,1.402,0.488,0.183,544.15
125383,157882,11330,-0.09,1.019,0.249,1.402,0.488,0.183,544.154
125383,157880,11267,-0.087,1.019,0.249,2.317,0.366,0.061,544.16
125394,157882,11330,-0.091,1.018,0.245,2.317,0.366,0.061,544.164
125394,157867,11259,-0.092,1.014,0.243,0.305,0.854,0.366,544.17
125419,157882,11330,-0.094,1.009,0.243,0.305,0.854,0.366,544.174
125419,157872,11263,-0.091,1.01,0.244,-1.159,0.976,0.488,544.18
125412,157882,11330,-0.09,1.014,0.237,-1.159,0.976,0.488,544.184
125412,157888,11271,-0.088,1.014,0.229,-1.28,0.549,0.61,544.19
125398,157882,11330,-0.088,1.007,0.228,-1.28,0.549,0.61,544.194
125398,157923,11259,-0.09,1.005,0.226,-0.732,0.488,0.61,544.2
125430,157882,11330,-0.096,1.011,0.222,-0.732,0.488,0.61,544.204
125430,157905,11250,-0.102,1.024,0.224,-0.671,0.793,0.854,544.21
125410,157882,11330,-0.101,1.031,0.238,-0.671,0.793,0.854,544.214
125410,157899,11248,-0.094,1.036,0.243,-0.183,0.427,0.976,544.22
125403,157882,11330,-0.094,1.038,0.244,-0.183,0.427,0.976,544.223
125403,157903,11258,-0.085,1.037,0.246,-0.366,-0.488,0.488,544.23
125400,157882,11330,-0.088,1.028,0.239,-0.366,-0.488,0.488,544.233
125400,157894,11257,-0.089,1.012,0.236,-1.098,-0.183,0.122,544.24
125410,157882,11330,-0.094,1.007,0.235,-1.098,-0.183,0.122,544.243
125410,157881,11243,-0.1,1.005,0.234,-0.976,1.037,0.061,544.249
125401,157882,11330,-0.101,1.01,0.232,-0.976,1.037,0.061,544.253
125401,157879,11246,-0.098,1.018,0.236,0.427,1.159,0.061,544.259
125370,157882,11330,-0.093,1.017,0.241,0.427,1.159,0.061,544.263
125370,157877,11254,-0.091,1.017,0.246,1.829,0.488,0.122,544.269
125374,157882,11330,-0.089,1.017,0.247,1.829,0.488,0.122,544.273
125374,157857,11252,-0.089,1.015,0.245,0.854,0.549,0.244,544.279
125395,157882,11330,-0.096,1.012,0.248,0.854,0.549,0.244,544.283
125395,157889,11257,-0.1,1.008,0.247,-1.22,1.098,0.793,544.289
125392,157882,11330,-0.096,1.007,0.247,-1.22,1.098,0.793,544.293
125392,157883,11255,-0.095,1.009,0.247,-2.256,1.037,0.915,544.299
125373,157882,11330,-0.095,1.009,0.247,-2.256,1.037,0.915,544.303
125373,157868,11261,-0.093,1.009,0.243,-2.439,0.549,0.976,544.309
125394,157882,11330,-0.093,1.009,0.243,-2.439,0.549,0.976,544.313
125394,157868,11275,-0.093,1,0.234,-1.829,0.61,1.098,544.319
125389,157882,11330,-0.093,1,0.234,-1.829,0.61,1.098,544.322
125389,157901,11255,-0.096,1.006,0.233,-1.28,0.915,1.341,544.329
125413,157882,11330,-0.096,1.006,0.233,-1.28,0.915,1.341,544.332
125413,157909,11275,-0.093,1.026,0.234,-0.183,0.427,1.707,544.339
125410,157882,11330,-0.093,1.026,0.234,-0.183,0.427,1.707,544.342
125410,157901,11270,-0.088,1.027,0.235,0.244,0,1.585,544.348
125430,157882,11330,-0.088,1.027,0.235,0.244,0,1.585,544.352
125430,157889,11268,-0.086,1.023,0.235,0,0.244,1.22,544.358
125410,157882,11330,-0.086,1.023,0.235,0,0.244,1.22,544.362
125410,157911,11267,-0.094,1.016,0.245,-0.183,0.61,1.098,544.368
125435,157882,11330,-0.094,1.016,0.245,-0.183,0.61,1.098,544.372
125435,157921,11273,-0.094,1.02,0.239,0,0.671,1.098,544.378
125436,157882,11330,-0.094,1.02,0.239,0,0.671,1.098,544.382
125436,157898,11263,-0.092,1.015,0.248,0.793,0.915,0.671,544.388
125395,157882,11330,-0.092,1.015,0.248,0.793,0.915,0.671,544.392
125395,157896,11268,-0.094,1.016,0.244,1.098,1.159,0.366,544.398
125400,157882,11330,-0.094,1.016,0.244,1.098,1.159,0.366,544.402
125400,157881,11261,-0.091,1.016,0.238,0.854,1.28,0.488,544.408
125400,157882,11330,-0.091,1.016,0.238,0.854,1.28,0.488,544.412
125400,157876,11262,-0.095,1.015,0.239,0.427,1.463,0.732,544.418
125409,157882,11330,-0.095,1.015,0.239,0.427,1.463,0.732,544.421
125409,157882,11270,-0.087,1.009,0.242,-0.183,1.098,0.793,544.428
125412,157882,11330,-0.087,1.009,0.242,-0.183,1.098,0.793,544.431
125412,157889,11268,-0.086,1.011,0.23,-0.793,0.976,0.915,544.438
125399,157882,11330,-0.086,1.011,0.23,-0.793,0.976,0.915,544.441
125399,157891,11255,-0.087,1.014,0.231,-0.793,0.976,0.915,544.447
125414,157882,11330,-0.089,1.02,0.227,-0.976,1.098,1.037,544.451
125414,157909,11263,-0.088,1.024,0.229,-0.976,1.098,1.037,544.457
125443,157882,11330,-0.088,1.021,0.232,-1.098,0.793,0.976,544.461
125443,157876,11279,-0.092,1.021,0.228,-1.098,0.793,0.976,544.467
125440,157882,11330,-0.09,1.024,0.228,-1.098,0.427,0.976,544.471
125440,157896,11268,-0.093,1.025,0.229,-1.098,0.427,0.976,544.477
125424,157882,11330,-0.093,1.017,0.235,-0.732,0.183,0.915,544.481
125424,157919,11266,-0.093,1.017,0.235,-0.732,0.183,0.915,544.487
125452,157882,11330,-0.092,1.018,0.233,-0.122,0,0.61,544.491
125452,157928,11261,-0.094,1.021,0.237,-0.122,0,0.61,544.497
125432,157882,11330,-0.094,1.022,0.242,0.183,0.183,0.549,544.501
