112436,148410,11330,-0.09,1.046,0.125,2.439,1.28,-0.61,481.879
112436,148318,9696,-0.091,1.041,0.124,2.439,1.28,-0.61,481.885
112413,148410,11330,-0.092,1.035,0.119,1.646,0.732,-0.549,481.889
112413,148333,9691,-0.089,1.031,0.121,1.646,0.732,-0.549,481.895
112413,148410,11330,-0.09,1.022,0.12,0,0.244,-0.061,481.899
112413,148322,9690,-0.09,1.022,0.11,0,0.244,-0.061,481.905
112411,148410,11330,-0.094,1.027,0.109,-0.549,-0.061,0.244,481.909
112411,148333,9685,-0.095,1.031,0.118,-0.549,-0.061,0.244,481.915
112412,148410,11330,-0.099,1.032,0.129,-0.427,0,0.488,481.919
112412,148333,9684,-0.094,1.03,0.134,-0.427,0,0.488,481.925
112417,148410,11330,-0.093,1.031,0.137,-0.366,0.122,0.671,481.929
112417,148359,9674,-0.095,1.034,0.131,-0.366,0.122,0.671,481.935
112417,148410,11330,-0.095,1.029,0.134,-0.427,0.244,0.793,481.938
112417,148338,9681,-0.097,1.027,0.142,-0.427,0.244,0.793,481.945
112442,148410,11330,-0.103,1.023,0.147,0.183,0.671,0.854,481.948
112442,148359,9702,-0.101,1.03,0.141,0.183,0.671,0.854,481.954
112485,148410,11330,-0.096,1.044,0.144,0.61,0.976,0.915,481.958
112485,148387,9680,-0.098,1.046,0.15,0.61,0.976,0.915,481.964
112512,148410,11330,-0.093,1.044,0.143,0.915,0.854,0.671,481.968
112512,148412,9694,-0.093,1.037,0.133,0.915,0.854,0.671,481.974
112530,148410,11330,-0.095,1.028,0.123,0.854,0.732,0.244,481.978
112530,148418,9705,-0.099,1.027,0.117,0.854,0.732,0.244,481.984
112538,148410,11330,-0.096,1.036,0.11,0.366,0.305,0.305,481.988
112538,148418,9692,-0.094,1.041,0.103,0.366,0.305,0.305,481.994
112541,148410,11330,-0.097,1.048,0.094,-0.61,-0.366,0.244,481.998
112541,148431,9696,-0.098,1.045,0.1,-0.61,-0.366,0.244,482.004
112566,148410,11330,-0.098,1.042,0.103,-2.378,-1.037,0.488,482.008
112566,148441,9702,-0.095,1.038,0.109,-2.378,-1.037,0.488,482.014
112574,148410,11330,-0.094,1.024,0.109,-3.11,-1.463,0.671,482.018
112574,148441,9709,-0.097,1.023,0.114,-3.11,-1.463,0.671,482.024
112549,148410,11330,-0.099,1.03,0.123,-1.768,-1.402,0.427,482.027
112549,148446,9695,-0.098,1.036,0.14,-1.768,-1.402,0.427,482.034
112566,148410,11330,-0.098,1.036,0.14,-1.768,-1.402,0.427,482.037
112566,148461,9698,-0.096,1.036,0.178,0.305,-0.915,0.366,482.044
112588,148666,11330,-0.096,1.036,0.178,0.305,-0.915,0.366,482.047
112588,148481,9719,-0.085,1.04,0.164,1.22,-0.427,0.244,482.053
112611,148410,11330,-0.085,1.04,0.164,1.22,-0.427,0.244,482.057
112611,148450,9725,-0.082,1.035,0.169,1.22,0.061,-0.061,482.063
112636,148410,11330,-0.082,1.035,0.169,1.22,0.061,-0.061,482.067
112636,148478,9711,-0.09,1.019,0.142,1.707,0.915,-0.366,482.073
112647,148666,11330,-0.09,1.019,0.142,1.707,0.915,-0.366,482.077
112647,148495,9723,-0.088,1.025,0.114,0.976,1.341,-0.122,482.083
112640,148666,11330,-0.088,1.025,0.114,0.976,1.341,-0.122,482.087
112640,148493,9707,-0.09,1.034,0.085,0.122,1.037,0.061,482.093
112650,148666,11330,-0.09,1.034,0.085,0.122,1.037,0.061,482.097
112650,148517,9715,-0.09,1.048,0.101,-0.732,0.366,0.488,482.103
112664,148666,11330,-0.09,1.048,0.101,-0.732,0.366,0.488,482.107
112664,148494,9726,-0.093,1.036,0.108,-1.402,-0.671,0.854,482.113
112641,148666,11330,-0.093,1.036,0.108,-1.402,-0.671,0.854,482.117
112641,148498,9726,-0.095,1.033,0.125,-2.256,-1.159,0.793,482.123
112641,148666,11330,-0.095,1.033,0.125,-2.256,-1.159,0.793,482.126
112641,148511,9735,-0.096,1.044,0.149,-1.707,-0.976,0.427,482.133
112672,148666,11330,-0.096,1.044,0.149,-1.707,-0.976,0.427,482.136
112672,148526,9715,-0.095,1.043,0.168,-0.61,-0.427,0.244,482.143
112690,148666,11330,-0.095,1.043,0.168,-0.61,-0.427,0.244,482.146
112690,148549,9719,-0.09,1.036,0.159,-0.122,0.122,-0.061,482.152
112729,148666,11330,-0.09,1.036,0.159,-0.122,0.122,-0.061,482.156
112729,148567,9729,-0.094,1.029,0.147,0.305,0.854,-0.549,482.162
112738,148666,11330,-0.094,1.029,0.147,0.305,0.854,-0.549,482.166
112738,148581,9728,-0.099,1.019,0.115,0.976,1.463,-0.732,482.172
112745,148666,11330,-0.099,1.019,0.115,0.976,1.463,-0.732,482.176
112745,148588,9722,-0.097,1.02,0.108,1.159,1.22,-0.61,482.182
112764,148666,11330,-0.094,1.027,0.106,1.159,1.22,-0.61,482.186
112764,148602,9725,-0.094,1.037,0.105,0.488,0.61,0,482.192
112792,148666,11330,-0.091,1.041,0.099,0.488,0.61,0,482.196
112792,148618,9729,-0.087,1.044,0.103,-0.732,-0.061,0.244,482.202
112785,148666,11330,-0.087,1.045,0.103,-0.732,-0.061,0.244,482.206
112785,148621,9724,-0.089,1.042,0.106,-1.585,-0.854,0.244,482.212
112789,148666,11330,-0.091,1.036,0.113,-1.585,-0.854,0.244,482.216
112789,148596,9743,-0.093,1.036,0.127,-1.524,-0.915,-0.122,482.222
112789,148666,11330,-0.091,1.035,0.144,-1.524,-0.915,-0.122,482.225
112789,148607,9723,-0.09,1.032,0.145,-0.305,-0.61,-0.427,482.232
112809,148666,11330,-0.09,1.04,0.155,-0.305,-0.61,-0.427,482.235
112809,148596,9727,-0.087,1.044,0.164,1.707,0,-1.037,482.242
112818,148666,11330,-0.089,1.045,0.168,1.707,0,-1.037,482.245
112818,148614,9751,-0.096,1.044,0.169,2.195,1.098,-1.28,482.251
112830,148666,11330,-0.101,1.036,0.149,2.195,1.098,-1.28,482.255
112830,148633,9757,-0.099,1.03,0.134,0.488,1.463,-1.28,482.261
112838,148666,11330,-0.097,1.017,0.134,0.488,1.463,-1.28,482.265
112838,148633,9753,-0.1,1.007,0.131,-0.549,1.28,-0.976,482.271
112860,148666,11330,-0.1,1.007,0.124,-0.549,1.28,-0.976,482.275
112860,148641,9758,-0.097,1.012,0.114,-0.305,1.159,-0.488,482.281
112837,148666,11330,-0.097,1.022,0.108,-0.305,1.159,-0.488,482.285
112837,148659,9729,-0.101,1.029,0.105,-0.427,0.671,-0.061,482.291
112856,148666,11330,-0.101,1.03,0.101,-0.427,0.671,-0.061,482.295
112856,148634,9753,-0.102,1.028,0.103,-1.646,-0.061,0.549,482.301
112862,148666,11330,-0.099,1.023,0.109,-1.646,-0.061,0.549,482.305
112862,148657,9743,-0.099,1.02,0.113,-2.866,-0.793,1.098,482.311
112887,148666,11330,-0.096,1.028,0.123,-2.866,-0.793,1.098,482.315
112887,148638,9757,-0.092,1.037,0.141,-2.683,-1.037,1.22,482.321
112833,148666,11330,-0.091,1.041,0.149,-2.683,-1.037,1.22,482.324
112833,148638,9726,-0.094,1.043,0.151,-2.195,-0.61,0.976,482.331
112840,148666,11330,-0.092,1.049,0.164,-2.195,-0.61,0.976,482.334
112840,148646,9740,-0.091,1.049,0.173,-1.402,-0.122,0.671,482.341
112834,148666,11330,-0.09,1.045,0.172,-1.402,-0.122,0.671,482.344
112834,148621,9753,-0.086,1.043,0.166,-0.854,0.732,0.122,482.35
112837,148666,11330,-0.084,1.038,0.153,-0.854,0.732,0.122,482.354
112837,148633,9753,-0.093,1.028,0.151,-1.22,1.524,-0.183,482.36
112848,148666,11330,-0.098,1.024,0.141,-1.22,1.524,-0.183,482.364
112848,148658,9746,-0.1,1.02,0.114,-1.585,2.012,-0.183,482.37
112880,148666,11330,-0.099,1.024,0.101,-1.585,2.012,-0.183,482.374
112880,148665,9748,-0.098,1.018,0.096,-0.976,1.524,-0.122,482.38
112891,148666,11330,-0.102,1.016,0.095,-0.976,1.524,-0.122,482.384
112891,148679,9749,-0.104,1.028,0.09,0.305,0.854,0.305,482.39
112894,148666,11330,-0.099,1.042,0.109,0.305,0.854,0.305,482.394
112894,148665,9763,-0.092,1.047,0.13,0.061,0.244,0.793,482.4
112891,148666,11330,-0.087,1.046,0.137,0.061,0.244,0.793,482.404
112891,148687,9733,-0.085,1.042,0.145,-0.61,0,0.793,482.41
112897,148666,11330,-0.082,1.037,0.17,-0.61,0,0.793,482.414
112897,148670,9746,-0.085,1.026,0.192,-0.305,0.854,0.61,482.42
112889,148666,11330,-0.088,1.03,0.19,-0.305,0.854,0.61,482.423
112889,148690,9745,-0.082,1.045,0.202,1.341,2.134,0.427,482.43
112894,148666,11330,-0.081,1.037,0.2,1.341,2.134,0.427,482.433
112894,148687,9750,-0.084,1.013,0.164,3.415,3.598,-0.366,482.44
112885,148666,11330,-0.092,1.021,0.114,3.415,3.598,-0.366,482.443
112885,148682,9740,-0.099,1.017,0.074,5.061,4.329,-0.61,482.449
112907,148666,11330,-0.101,0.998,0.057,5.061,4.329,-0.61,482.453
112907,148688,9747,-0.109,1.001,0.05,6.159,3.354,-0.427,482.459
112918,148666,11330,-0.115,1.015,0.049,6.159,3.354,-0.427,482.463
112918,148690,9741,-0.108,1.021,0.061,4.329,1.402,0.976,482.469
112952,148666,11330,-0.099,1.033,0.052,4.329,1.402,0.976,482.473
112952,148719,9749,-0.098,1.04,0.035,-0.122,-0.915,2.073,482.479
112971,148666,11330,-0.103,1.049,0.041,-0.122,-0.915,2.073,482.483
112971,148719,9755,-0.108,1.049,0.063,-5.915,-3.354,2.744,482.489
112978,148922,11330,-0.114,1.045,0.098,-5.915,-3.354,2.744,482.493
112978,148752,9748,-0.112,1.042,0.124,-9.451,-4.39,3.171,482.499
112977,148922,11330,-0.113,1.041,0.153,-9.451,-4.39,3.171,482.503
112977,148771,9733,-0.108,1.03,0.181,-10.305,-4.451,3.415,482.509
112982,148922,11330,-0.099,1.022,0.194,-10.305,-4.451,3.415,482.513
112982,148760,9751,-0.096,1.029,0.215,-6.28,-2.988,2.439,482.519
112976,148922,11330,-0.096,1.039,0.247,-6.28,-2.988,2.439,482.522
112976,148740,9768,-0.094,1.044,0.241,0.244,0.183,1.402,482.529
112962,148922,11330,-0.088,1.065,0.217,0.244,0.183,1.402,482.532
112962,148754,9759,-0.081,1.083,0.195,4.146,2.744,0.244,482.538
112965,148666,11330,-0.078,1.066,0.179,4.146,2.744,0.244,482.542
112965,148726,9757,-0.082,1.034,0.15,2.378,3.78,-0.61,482.548
112959,148666,11330,-0.093,1.004,0.129,2.378,3.78,-0.61,482.552
112959,148727,9760,-0.094,0.993,0.101,-2.988,3.659,0.366,482.558
112960,148666,11330,-0.091,1.007,0.087,-2.988,3.659,0.366,482.562
112960,148723,9766,-0.085,1.028,0.085,-5.183,2.683,0.976,482.568
112948,148922,11330,-0.078,1.047,0.099,-5.183,2.683,0.976,482.572
112948,148736,9736,-0.073,1.051,0.12,-4.085,1.402,1.22,482.578
112948,148666,11330,-0.075,1.027,0.129,-4.085,1.402,1.22,482.582
112948,148732,9753,-0.077,1.009,0.132,-2.805,0.61,1.402,482.588
112951,148666,11330,-0.082,1.005,0.144,-2.805,0.61,1.402,482.592
112951,148720,9749,-0.083,1.01,0.155,-0.61,1.037,0.854,482.598
112941,148922,11330,-0.084,1.023,0.165,-0.61,1.037,0.854,482.602
112941,148742,9736,-0.083,1.038,0.168,2.805,2.439,0.671,482.608
112912,148922,11330,-0.083,1.038,0.168,2.805,2.439,0.671,482.612
112912,148740,9749,-0.082,1.044,0.159,3.293,3.049,0.915,482.618
112917,148666,11330,-0.082,1.044,0.159,3.293,3.049,0.915,482.621
112917,148695,9747,-0.096,1.021,0.138,2.012,3.049,0.61,482.628
112882,148666,11330,-0.096,1.021,0.138,2.012,3.049,0.61,482.631
112882,148690,9742,-0.105,1.037,0.111,2.134,3.476,0.61,482.637
112865,148666,11330,-0.105,1.037,0.111,2.134,3.476,0.61,482.641
112865,148692,9736,-0.102,1.061,0.101,2.195,2.805,0.427,482.647
112869,148666,11330,-0.102,1.061,0.101,2.195,2.805,0.427,482.651
112869,148707,9736,-0.105,1.053,0.089,0.427,1.89,0.549,482.657
112874,148666,11330,-0.105,1.053,0.089,0.427,1.89,0.549,482.661
112874,148704,9743,-0.103,1.038,0.093,-1.89,0.732,0.549,482.667
112845,148666,11330,-0.103,1.038,0.093,-1.89,0.732,0.549,482.671
112845,148680,9727,-0.099,1.033,0.101,-2.378,-0.244,0.366,482.677
112829,148666,11330,-0.099,1.033,0.101,-2.378,-0.244,0.366,482.681
112829,148653,9731,-0.094,1.032,0.128,0,-0.549,-0.061,482.687
112795,148666,11330,-0.094,1.032,0.128,0,-0.549,-0.061,482.691
112795,148644,9725,-0.091,1.046,0.165,3.11,-0.244,-0.732,482.697
112731,148666,11330,-0.091,1.046,0.165,3.11,-0.244,-0.732,482.701
112731,148616,9724,-0.088,1.062,0.155,3.537,0.549,-1.159,482.707
112695,148666,11330,-0.088,1.062,0.155,3.537,0.549,-1.159,482.711
112695,148572,9707,-0.089,1.011,0.152,2.256,0.793,-1.098,482.717
112630,148666,11330,-0.089,1.011,0.152,2.256,0.793,-1.098,482.72
112630,148545,9705,-0.091,0.995,0.124,0.793,0.976,-0.671,482.727
112615,148666,11330,-0.091,0.995,0.124,0.793,0.976,-0.671,482.73
112615,148516,9716,-0.092,1.02,0.111,0.549,0.976,-0.244,482.736
112613,148666,11330,-0.092,1.02,0.111,0.549,0.976,-0.244,482.74
112613,148495,9699,-0.098,1.042,0.086,-0.732,0.122,0.488,482.746
112589,148666,11330,-0.098,1.042,0.086,-0.732,0.122,0.488,482.75
112589,148481,9696,-0.099,1.036,0.095,-0.732,0.122,0.488,482.756
112595,148666,11330,-0.1,1.025,0.108,-2.744,-1.28,1.098,482.76
112595,148486,9699,-0.1,1.023,0.104,-2.744,-1.28,1.098,482.766
112572,148666,11330,-0.095,1.028,0.116,-3.171,-1.951,1.524,482.77
112572,148491,9691,-0.092,1.033,0.128,-3.171,-1.951,1.524,482.776
112577,148666,11330,-0.093,1.047,0.144,-1.159,-1.951,1.037,482.78
112577,148487,9693,-0.097,1.055,0.15,-1.159,-1.951,1.037,482.786
112531,148410,11330,-0.097,1.057,0.157,0.793,-1.22,0.427,482.79
112531,148466,9692,-0.095,1.051,0.172,0.793,-1.22,0.427,482.796
112495,148410,11330,-0.096,1.031,0.178,1.037,-0.488,0.122,482.8
112495,148441,9700,-0.095,1.022,0.164,1.037,-0.488,0.122,482.806
112463,148410,11330,-0.091,1.033,0.152,1.341,0.366,-0.122,482.809
112463,148421,9676,-0.088,1.036,0.156,1.341,0.366,-0.122,482.816
112408,148410,11330,-0.092,1.044,0.148,2.744,1.341,-0.793,482.819
112408,148409,9673,-0.096,1.048,0.139,2.744,1.341,-0.793,482.826
112382,148410,11330,-0.093,1.04,0.133,1.707,1.585,-0.61,482.829
112382,148387,9664,-0.095,1.023,0.123,1.707,1.585,-0.61,482.835
112409,148410,11330,-0.092,1.017,0.109,-0.793,1.098,-0.183,482.839
112409,148393,9679,-0.091,1.014,0.106,-0.793,1.098,-0.183,482.845
112386,148410,11330,-0.089,1.019,0.112,-2.134,0.61,0.244,482.849
112386,148383,9664,-0.088,1.027,0.106,-2.134,0.61,0.244,482.855
112393,148410,11330,-0.09,1.031,0.104,-1.646,0.488,0.549,482.859
112393,148390,9667,-0.09,1.032,0.104,-1.646,0.488,0.549,482.865
112392,148410,11330,-0.094,1.036,0.109,-1.159,-0.061,0.732,482.869
112392,148378,9661,-0.094,1.037,0.116,-1.159,-0.061,0.732,482.875
112395,148410,11330,-0.091,1.04,0.127,-0.427,-0.488,0.61,482.879
112395,148378,9673,-0.092,1.042,0.141,-0.427,-0.488,0.61,482.885
112410,148410,11330,-0.098,1.046,0.151,0.061,-0.427,0.427,482.889
112410,148384,9668,-0.098,1.049,0.153,0.061,-0.427,0.427,482.895
112405,148410,11330,-0.095,1.044,0.151,-0.061,0,0.366,482.899
112405,148377,9663,-0.091,1.035,0.149,-0.061,0,0.366,482.905
112404,148410,11330,-0.09,1.035,0.159,0.305,0.427,-0.244,482.908
112404,148396,9682,-0.096,1.035,0.163,0.305,0.427,-0.244,482.915
112423,148410,11330,-0.097,1.036,0.156,0.488,1.28,-0.244,482.918
112423,148408,9674,-0.098,1.036,0.14,0.488,1.28,-0.244,482.925
112446,148410,11330,-0.097,1.03,0.127,-0.244,1.402,-0.366,482.928
112446,148412,9683,-0.097,1.021,0.116,-0.244,1.402,-0.366,482.934
112444,148410,11330,-0.097,1.022,0.108,-0.488,0.976,-0.488,482.938
112444,148423,9678,-0.094,1.027,0.108,-0.488,0.976,-0.488,482.944
112460,148410,11330,-0.095,1.029,0.105,-0.305,0.732,0,482.948
112460,148414,9670,-0.095,1.023,0.093,-0.305,0.732,0,482.954
112479,148410,11330,-0.099,1.026,0.094,-0.244,0,0.244,482.958
112479,148454,9674,-0.096,1.031,0.102,-0.244,0,0.244,482.964
112486,148410,11330,-0.096,1.036,0.115,-0.244,-0.549,0.366,482.968
112486,148436,9680,-0.096,1.04,0.126,-0.244,-0.549,0.366,482.974
112504,148410,11330,-0.095,1.044,0.135,-0.549,-0.549,0.671,482.978
112504,148444,9677,-0.095,1.043,0.148,-0.549,-0.549,0.671,482.984
112515,148410,11330,-0.095,1.038,0.154,-1.159,-0.488,0.61,482.988
112515,148470,9678,-0.095,1.036,0.153,-1.159,-0.488,0.61,482.994
112509,148410,11330,-0.091,1.037,0.154,-0.915,-0.061,0.244,482.998
112509,148474,9682,-0.088,1.038,0.161,-0.915,-0.061,0.244,483.004
112532,148410,11330,-0.086,1.038,0.163,1.28,0.61,-0.183,483.007
112532,148473,9688,-0.089,1.033,0.17,1.28,0.61,-0.183,483.014
112559,148666,11330,-0.091,1.025,0.148,2.317,1.098,-0.549,483.017
112559,148507,9682,-0.089,1.024,0.127,2.317,1.098,-0.549,483.024
112596,148666,11330,-0.089,1.031,0.118,1.707,1.159,-0.854,483.027
112596,148544,9701,-0.095,1.023,0.104,1.707,1.159,-0.854,483.033
112620,148666,11330,-0.098,1.021,0.092,1.098,1.037,-0.488,483.037
112620,148567,9682,-0.1,1.022,0.093,1.098,1.037,-0.488,483.043
112629,148666,11330,-0.097,1.028,0.086,0.488,0.305,0.061,483.047
112629,148565,9698,-0.097,1.037,0.089,0.488,0.305,0.061,483.053
112659,148666,11330,-0.096,1.042,0.093,-0.183,-0.793,0.305,483.057
112659,148569,9691,-0.096,1.044,0.104,-0.183,-0.793,0.305,483.063
112649,148666,11330,-0.094,1.043,0.117,-0.793,-1.341,0.366,483.067
112649,148578,9718,-0.099,1.034,0.129,-0.793,-1.341,0.366,483.073
112630,148666,11330,-0.1,1.031,0.135,-1.341,-1.341,0.427,483.077
112630,148575,9700,-0.099,1.03,0.148,-1.341,-1.341,0.427,483.083
112677,148666,11330,-0.095,1.03,0.168,-1.402,-0.793,0.366,483.087
112677,148606,9694,-0.098,1.035,0.178,-1.402,-0.793,0.366,483.093
112696,148666,11330,-0.096,1.041,0.171,-0.671,0.183,0.183,483.097
112696,148601,9703,-0.098,1.042,0.155,-0.671,0.183,0.183,483.103
112695,148666,11330,-0.095,1.036,0.151,-0.488,0.671,-0.305,483.106
112695,148612,9694,-0.095,1.032,0.149,-0.488,0.671,-0.305,483.113
112725,148666,11330,-0.097,1.015,0.144,0.183,0.976,-0.427,483.116
112725,148609,9709,-0.096,1.008,0.133,0.183,0.976,-0.427,483.122
112749,148666,11330,-0.097,1.025,0.115,1.585,1.402,-0.366,483.126
112749,148648,9720,-0.092,1.033,0.115,1.585,1.402,-0.366,483.132
112761,148666,11330,-0.093,1.035,0.121,2.073,1.22,-0.305,483.136
112761,148652,9720,-0.095,1.039,0.115,2.073,1.22,-0.305,483.142
112781,148666,11330,-0.096,1.034,0.103,0.732,0.549,0.183,483.146
112781,148644,9720,-0.091,1.029,0.103,0.732,0.549,0.183,483.152
112793,148666,11330,-0.089,1.032,0.113,-0.183,-0.183,0.488,483.156
112793,148666,9711,-0.088,1.034,0.119,-0.183,-0.183,0.488,483.162
112782,148666,11330,-0.094,1.035,0.123,0.122,-0.366,0.549,483.166
112782,148652,9720,-0.095,1.036,0.129,0.122,-0.366,0.549,483.172
112784,148666,11330,-0.093,1.037,0.129,-0.549,-0.488,0.671,483.176
112784,148653,9723,-0.094,1.034,0.141,-0.549,-0.488,0.671,483.182
112790,148666,11330,-0.094,1.034,0.141,-0.549,-0.488,0.671,483.186
112790,148668,9721,-0.094,1.031,0.153,-0.976,-0.183,0.61,483.192
112808,148666,11330,-0.094,1.031,0.153,-0.976,-0.183,0.61,483.196
112808,148687,9727,-0.099,1.037,0.157,-0.61,0.488,0.549,483.202
112838,148666,11330,-0.099,1.037,0.157,-0.61,0.488,0.549,483.205
112838,148711,9727,-0.095,1.031,0.146,-0.305,1.098,0.488,483.212
112877,148666,11330,-0.095,1.031,0.146,-0.305,1.098,0.488,483.215
112877,148724,9726,-0.095,1.02,0.13,-0.122,1.22,0.183,483.221
112903,148922,11330,-0.095,1.02,0.13,-0.122,1.22,0.183,483.225
112903,148754,9743,-0.105,1.023,0.101,0.854,1.098,0.122,483.231
112929,148922,11330,-0.105,1.023,0.101,0.854,1.098,0.122,483.235
112929,148757,9746,-0.093,1.05,0.109,1.951,0.671,0.122,483.241
112940,148922,11330,-0.093,1.05,0.109,1.951,0.671,0.122,483.245
112940,148799,9735,-0.092,1.047,0.116,2.073,0.061,0.244,483.251
112953,148922,11330,-0.092,1.047,0.116,2.073,0.061,0.244,483.255
112953,148778,9720,-0.087,1.03,0.128,0.549,-0.793,0.244,483.261
112950,148922,11330,-0.087,1.03,0.128,0.549,-0.793,0.244,483.265
112950,148766,9743,-0.084,1.029,0.139,-0.122,-1.159,0.122,483.271
112932,148922,11330,-0.084,1.029,0.139,-0.122,-1.159,0.122,483.275
112932,148763,9734,-0.088,1.039,0.152,0.732,-0.549,0.122,483.281
112925,148922,11330,-0.088,1.039,0.152,0.732,-0.549,0.122,483.285
112925,148767,9741,-0.092,1.045,0.144,0.488,0.366,0.244,483.291
112925,148922,11330,-0.092,1.045,0.144,0.488,0.366,0.244,483.294
112925,148776,9731,-0.097,1.029,0.144,-1.159,1.037,0.183,483.301
112947,148922,11330,-0.097,1.029,0.144,-1.159,1.037,0.183,483.304
112947,148796,9729,-0.101,1.012,0.112,-2.012,1.402,0.366,483.311
112986,148922,11330,-0.101,1.012,0.112,-2.012,1.402,0.366,483.314
112986,148809,9759,-0.105,1.028,0.105,-0.976,1.585,0.427,483.32
112997,148922,11330,-0.105,1.028,0.105,-0.976,1.585,0.427,483.324
112997,148828,9741,-0.103,1.042,0.111,0.122,1.28,0.488,483.33
113025,148922,11330,-0.105,1.045,0.117,0.122,1.28,0.488,483.334
113025,148828,9762,-0.103,1.04,0.116,-0.427,0.61,0.732,483.34
113026,148922,11330,-0.101,1.038,0.11,-0.427,0.61,0.732,483.344
113026,148825,9741,-0.096,1.031,0.115,-1.341,-0.427,0.671,483.35
113053,148922,11330,-0.091,1.028,0.118,-1.341,-0.427,0.671,483.354
113053,148825,9745,-0.093,1.034,0.131,0.183,-0.488,0.305,483.36
113020,148922,11330,-0.097,1.049,0.133,0.183,-0.488,0.305,483.364
113020,148836,9757,-0.097,1.057,0.136,1.22,-0.244,0.061,483.37
113013,148922,11330,-0.094,1.048,0.136,1.22,-0.244,0.061,483.374
113013,148821,9742,-0.092,1.04,0.137,0.061,-0.183,-0.183,483.38
113054,148922,11330,-0.094,1.033,0.14,0.061,-0.183,-0.183,483.384
113054,148850,9755,-0.093,1.024,0.134,-1.585,0.122,0.061,483.39
113068,148922,11330,-0.092,1.02,0.133,-1.585,0.122,0.061,483.393
113068,148875,9748,-0.093,1.023,0.136,-2.134,0.793,0.122,483.4
113085,148922,11330,-0.097,1.028,0.133,-2.134,0.793,0.122,483.403
113085,148899,9757,-0.1,1.031,0.127,-1.951,1.098,0.305,483.41
113109,148922,11330,-0.098,1.034,0.126,-1.951,1.098,0.305,483.413
113109,148893,9776,-0.094,1.031,0.124,-1.402,0.793,0.305,483.419
113151,148922,11330,-0.096,1.029,0.123,-1.402,0.793,0.305,483.423
113151,148924,9768,-0.101,1.027,0.114,-1.159,0.488,0.427,483.429
113171,148922,11330,-0.1,1.027,0.113,-1.159,0.488,0.427,483.433
113171,148919,9771,-0.094,1.025,0.115,-1.341,0.061,0.61,483.439
113198,148922,11330,-0.098,1.026,0.118,-1.341,0.061,0.61,483.443
113198,148946,9768,-0.094,1.039,0.12,-0.671,-0.305,0.732,483.449
113171,148922,11330,-0.092,1.045,0.127,-0.671,-0.305,0.732,483.453
113171,148929,9756,-0.091,1.047,0.14,0.122,-0.427,0.549,483.459
113180,148922,11330,-0.094,1.049,0.138,0.122,-0.427,0.549,483.463
113180,148932,9755,-0.094,1.048,0.132,0.183,-0.183,0.305,483.469
113175,148922,11330,-0.091,1.043,0.133,0.183,-0.183,0.305,483.473
113175,148935,9756,-0.094,1.039,0.144,-0.183,0.061,0,483.479
113184,148922,11330,-0.094,1.027,0.155,-0.183,0.061,0,483.483
113184,148927,9767,-0.095,1.024,0.151,0,0.732,-0.122,483.489
113215,148922,11330,-0.093,1.03,0.144,0,0.732,-0.122,483.492
113215,148957,9773,-0.092,1.03,0.136,0.183,1.037,-0.183,483.499
113246,148922,11330,-0.095,1.032,0.134,0.183,1.037,-0.183,483.502
113246,148986,9778,-0.1,1.031,0.132,-0.122,1.22,-0.244,483.508
113260,149178,11330,-0.1,1.021,0.129,-0.122,1.22,-0.244,483.512
113260,148998,9767,-0.097,1.018,0.122,-1.341,0.854,0.244,483.518
113298,149178,11330,-0.097,1.013,0.114,-1.341,0.854,0.244,483.522
113298,148998,9777,-0.093,1.015,0.119,-1.585,0.427,0.61,483.528
113320,149178,11330,-0.095,1.026,0.117,-1.585,0.427,0.61,483.532
113320,149016,9784,-0.095,1.037,0.116,-0.427,0.366,0.732,483.538
113342,149178,11330,-0.093,1.045,0.122,-0.427,0.366,0.732,483.542
113342,149054,9783,-0.096,1.046,0.124,0.366,0.244,0.793,483.548
113343,149178,11330,-0.1,1.048,0.127,0.366,0.244,0.793,483.552
113343,149039,9792,-0.1,1.042,0.125,-0.061,-0.183,0.732,483.558
113364,149178,11330,-0.096,1.031,0.132,-0.061,-0.183,0.732,483.562
113364,149081,9792,-0.096,1.025,0.142,0.122,-0.244,0.366,483.568
113384,149178,11330,-0.095,1.031,0.139,0.122,-0.244,0.366,483.572
113384,149085,9789,-0.098,1.04,0.138,1.463,0.305,0.122,483.578
113412,149178,11330,-0.097,1.046,0.137,1.463,0.305,0.122,483.582
113412,149062,9800,-0.097,1.044,0.144,1.768,0.854,-0.244,483.588
113409,149178,11330,-0.099,1.04,0.147,1.768,0.854,-0.244,483.591
113409,149092,9807,-0.099,1.036,0.139,0.305,1.037,-0.061,483.598
113425,149178,11330,-0.096,1.026,0.137,0.305,1.037,-0.061,483.601
113425,149099,9784,-0.089,1.018,0.125,-0.488,0.854,0.061,483.607
113423,149178,11330,-0.09,1.022,0.115,-0.488,0.854,0.061,483.611
113423,149088,9810,-0.094,1.023,0.111,-0.122,0.61,0,483.617
113418,149178,11330,-0.097,1.027,0.108,-0.122,0.61,0,483.621
113418,149088,9792,-0.095,1.028,0.109,-0.122,0.427,0.244,483.627
113425,149178,11330,-0.092,1.031,0.11,-0.122,0.427,0.244,483.631
113425,149075,9790,-0.09,1.038,0.108,-0.732,-0.183,0.427,483.637
113417,149178,11330,-0.09,1.043,0.103,-0.732,-0.183,0.427,483.641
113417,149075,9787,-0.091,1.044,0.11,-1.463,-0.671,0.488,483.647
113447,149178,11330,-0.095,1.045,0.123,-1.463,-0.671,0.488,483.651
113447,149081,9790,-0.095,1.037,0.127,-2.134,-0.732,0.549,483.657
113441,149178,11330,-0.097,1.041,0.127,-2.134,-0.732,0.549,483.661
113441,149050,9793,-0.095,1.043,0.132,-2.561,-0.732,0.183,483.667
113410,149178,11330,-0.093,1.049,0.145,-2.561,-0.732,0.183,483.671
113410,149054,9791,-0.096,1.051,0.151,-2.744,-0.305,-0.061,483.677
113380,149178,11330,-0.097,1.054,0.155,-2.744,-0.305,-0.061,483.681
113380,149058,9798,-0.093,1.052,0.153,-4.146,0.427,-0.183,483.687
113394,149178,11330,-0.094,1.043,0.162,-4.146,0.427,-0.183,483.69
113394,149047,9767,-0.097,1.027,0.163,-5.732,0.915,-0.427,483.697
113387,149178,11330,-0.095,1.014,0.153,-5.732,0.915,-0.427,483.7
113387,149037,9787,-0.095,0.998,0.147,-5.366,1.098,-0.305,483.706
113385,149178,11330,-0.093,0.994,0.139,-5.366,1.098,-0.305,483.71
113385,149048,9799,-0.091,0.997,0.135,-1.037,1.159,-0.305,483.716
113375,149178,11330,-0.093,1.009,0.129,-1.037,1.159,-0.305,483.72
113375,149038,9796,-0.098,1.027,0.122,3.293,1.402,-0.244,483.726
113393,149178,11330,-0.096,1.041,0.127,3.293,1.402,-0.244,483.73
113393,149038,9785,-0.096,1.048,0.126,3.049,1.402,0.244,483.736
113393,149178,11330,-0.094,1.038,0.122,3.049,1.402,0.244,483.74
113393,149034,9778,-0.09,1.035,0.119,0.732,0.488,0.854,483.746
113417,149178,11330,-0.091,1.031,0.116,0.732,0.488,0.854,483.75
113417,149033,9801,-0.093,1.028,0.11,-0.244,-0.061,1.037,483.756
113390,149178,11330,-0.093,1.028,0.11,-0.244,-0.061,1.037,483.76
113390,149047,9786,-0.099,1.039,0.121,0.122,0.122,0.915,483.766
113404,149178,11330,-0.099,1.039,0.121,0.122,0.122,0.915,483.77
113404,149032,9777,-0.098,1.052,0.135,0.061,0.305,0.854,483.776
113406,149178,11330,-0.098,1.052,0.135,0.061,0.305,0.854,483.78
113406,149010,9802,-0.101,1.047,0.146,-0.732,0.244,0.61,483.786
113409,149178,11330,-0.101,1.047,0.146,-0.732,0.244,0.61,483.789
113409,149048,9785,-0.102,1.034,0.151,-1.22,0.305,0.183,483.796
113429,149178,11330,-0.102,1.034,0.151,-1.22,0.305,0.183,483.799
113429,149064,9793,-0.102,1.03,0.142,-0.366,0.732,-0.305,483.805
113422,149178,11330,-0.102,1.03,0.142,-0.366,0.732,-0.305,483.809
113422,149054,9784,-0.099,1.033,0.131,0.549,1.098,-0.61,483.815
113450,149178,11330,-0.099,1.033,0.131,0.549,1.098,-0.61,483.819
113450,149058,9799,-0.102,1.02,0.121,0.305,1.037,-0.488,483.825
113442,149178,11330,-0.102,1.02,0.121,0.305,1.037,-0.488,483.829
113442,149042,9791,-0.101,1.023,0.098,-0.915,0.244,-0.061,483.835
113431,149178,11330,-0.101,1.023,0.098,-0.915,0.244,-0.061,483.839
113431,149078,9781,-0.098,1.038,0.114,-1.585,-0.427,0.244,483.845
113410,149178,11330,-0.098,1.038,0.114,-1.585,-0.427,0.244,483.849
113410,149079,9779,-0.099,1.036,0.123,-1.951,-0.793,0.61,483.855
113431,149178,11330,-0.099,1.036,0.123,-1.951,-0.793,0.61,483.859
113431,149050,9788,-0.097,1.033,0.141,-1.768,-1.159,0.488,483.865
113417,149178,11330,-0.097,1.033,0.141,-1.768,-1.159,0.488,483.869
113417,149054,9787,-0.092,1.031,0.161,-0.671,-0.549,0.366,483.875
113418,149178,11330,-0.092,1.031,0.161,-0.671,-0.549,0.366,483.878
113418,149050,9793,-0.089,1.034,0.162,-0.061,0.183,0.427,483.885
113422,149178,11330,-0.089,1.034,0.162,-0.061,0.183,0.427,483.888
113422,149068,9788,-0.088,1.029,0.151,0.488,0.854,0.183,483.895
113448,149178,11330,-0.088,1.029,0.151,0.488,0.854,0.183,483.898
113448,149070,9799,-0.093,1.031,0.136,0.488,0.854,0.183,483.904
113447,149178,11330,-0.095,1.035,0.13,-0.122,1.341,0.305,483.908
113447,149068,9788,-0.096,1.036,0.125,-0.122,1.341,0.305,483.914
113486,149178,11330,-0.096,1.031,0.107,-0.915,1.22,0.671,483.918
113486,149080,9796,-0.096,1.021,0.099,-0.915,1.22,0.671,483.924
113504,149178,11330,-0.1,1.022,0.099,-0.915,0.671,0.671,483.928
113504,149088,9794,-0.098,1.034,0.104,-0.915,0.671,0.671,483.934
113514,149178,11330,-0.1,1.043,0.114,-0.793,0.122,0.915,483.938
113514,149120,9805,-0.097,1.039,0.123,-0.793,0.122,0.915,483.944
113576,149178,11330,-0.097,1.035,0.118,-0.732,-0.122,1.037,483.948
113576,149153,9807,-0.095,1.036,0.124,-0.732,-0.122,1.037,483.954
113630,149178,11330,-0.097,1.032,0.139,-0.549,-0.305,0.732,483.958
113630,149187,9805,-0.098,1.033,0.149,-0.549,-0.305,0.732,483.964
113693,149434,11330,-0.097,1.035,0.153,0.183,0.061,0.61,483.968
113693,149257,9818,-0.09,1.027,0.157,0.183,0.061,0.61,483.974
113728,149434,11330,-0.092,1.031,0.157,1.28,0.488,0.427,483.977
113728,149259,9823,-0.093,1.035,0.152,1.28,0.488,0.427,483.984
113792,149434,11330,-0.092,1.039,0.155,1.402,1.037,0.122,483.987
113792,149287,9826,-0.094,1.036,0.15,1.402,1.037,0.122,483.994
113830,149434,11330,-0.098,1.032,0.137,0.61,1.463,0.244,483.997
113830,149317,9834,-0.099,1.028,0.129,0.61,1.463,0.244,484.003
113854,149434,11330,-0.101,1.023,0.121,-0.549,1.159,0.427,484.007
113854,149370,9837,-0.097,1.019,0.108,-0.549,1.159,0.427,484.013
113900,149434,11330,-0.097,1.022,0.106,-0.793,0.549,0.488,484.017
113900,149396,9852,-0.096,1.033,0.104,-0.793,0.549,0.488,484.023
113960,149434,11330,-0.093,1.043,0.109,-0.061,0.061,0.61,484.027
113960,149407,9846,-0.094,1.047,0.114,-0.061,0.061,0.61,484.033
113995,149434,11330,-0.097,1.04,0.122,-0.183,-0.427,0.732,484.037
113995,149450,9854,-0.1,1.031,0.121,-0.183,-0.427,0.732,484.043
114037,149434,11330,-0.096,1.029,0.131,-0.305,-0.854,0.427,484.047
114037,149501,9868,-0.092,1.031,0.14,-0.305,-0.854,0.427,484.053
114080,149434,11330,-0.093,1.036,0.15,1.037,-0.549,0.305,484.057
114080,149500,9879,-0.091,1.041,0.156,1.037,-0.549,0.305,484.063
114119,149690,11330,-0.093,1.048,0.152,2.317,0.427,0.061,484.067
114119,149507,9866,-0.095,1.045,0.155,2.317,0.427,0.061,484.073
114119,149690,11330,-0.099,1.04,0.154,2.378,1.22,-0.183,484.076
114119,149533,9881,-0.1,1.031,0.15,2.378,1.22,-0.183,484.083
114140,149690,11330,-0.1,1.031,0.143,1.707,1.524,-0.122,484.086
114140,149548,9869,-0.101,1.024,0.131,1.707,1.524,-0.122,484.093
114176,149690,11330,-0.102,1.021,0.12,1.28,1.524,0,484.096
114176,149564,9873,-0.102,1.025,0.11,1.28,1.524,0,484.102
114178,149690,11330,-0.105,1.026,0.109,0.915,1.28,0.183,484.106
114178,149575,9870,-0.099,1.031,0.094,0.915,1.28,0.183,484.112
114211,149690,11330,-0.101,1.022,0.09,0.61,0.488,0.549,484.116
114211,149596,9887,-0.1,1.019,0.088,0.61,0.488,0.549,484.122
114205,149690,11330,-0.102,1.019,0.084,0.854,-0.854,0.732,484.126
114205,149608,9872,-0.101,1.025,0.089,0.854,-0.854,0.732,484.132
114234,149690,11330,-0.099,1.029,0.097,1.707,-1.707,0.854,484.136
114234,149618,9879,-0.096,1.042,0.114,1.707,-1.707,0.854,484.142
114212,149690,11330,-0.098,1.05,0.128,2.073,-2.134,0.915,484.146
114212,149606,9870,-0.096,1.054,0.132,2.073,-2.134,0.915,484.152
114199,149690,11330,-0.092,1.056,0.136,0.244,-2.622,0.793,484.156
114199,149565,9885,-0.091,1.053,0.151,0.244,-2.622,0.793,484.162
114151,149690,11330,-0.089,1.041,0.169,-1.341,-2.5,0.671,484.166
114151,149566,9864,-0.087,1.038,0.167,-1.341,-2.5,0.671,484.172
114142,149690,11330,-0.084,1.04,0.168,-1.768,-1.646,0.549,484.175
114142,149543,9863,-0.084,1.041,0.18,-1.768,-1.646,0.549,484.182
114119,149690,11330,-0.085,1.029,0.172,-1.768,-0.61,0.244,484.185
114119,149529,9861,-0.088,1.027,0.162,-1.768,-0.61,0.244,484.191
114107,149690,11330,-0.091,1.027,0.153,-1.829,0.183,0.061,484.195
114107,149525,9856,-0.095,1.023,0.139,-1.829,0.183,0.061,484.201
114102,149434,11330,-0.099,1.017,0.119,-1.951,0.61,0.183,484.205
114102,149492,9859,-0.103,1.01,0.109,-1.951,0.61,0.183,484.211
114075,149434,11330,-0.1,1.018,0.111,-2.073,0.244,0.549,484.215
114075,149480,9842,-0.096,1.024,0.113,-2.073,0.244,0.549,484.221
114037,149434,11330,-0.091,1.032,0.107,-1.951,-0.244,1.098,484.225
114037,149469,9855,-0.089,1.039,0.1,-1.951,-0.244,1.098,484.231
114021,149434,11330,-0.09,1.041,0.099,-0.732,-0.915,1.341,484.235
114021,149445,9846,-0.092,1.044,0.115,-0.732,-0.915,1.341,484.241
113982,149434,11330,-0.094,1.044,0.132,-0.122,-1.402,1.037,484.245
113982,149405,9829,-0.096,1.042,0.135,-0.122,-1.402,1.037,484.251
113927,149434,11330,-0.092,1.041,0.14,-0.183,-1.22,0.915,484.255
113927,149399,9851,-0.091,1.041,0.14,-0.183,-1.22,0.915,484.261
113906,149434,11330,-0.089,1.047,0.16,0.183,-0.732,0.793,484.264
113906,149390,9827,-0.093,1.046,0.176,0.183,-0.732,0.793,484.271
113891,149434,11330,-0.097,1.042,0.177,0.122,0.305,0.427,484.274
113891,149363,9832,-0.094,1.038,0.184,0.122,0.305,0.427,484.281
113881,149434,11330,-0.092,1.036,0.192,-0.244,1.159,0,484.284
113881,149367,9828,-0.095,1.028,0.18,-0.244,1.159,0,484.29
113878,149434,11330,-0.093,1.016,0.161,-0.427,1.829,-0.183,484.294
113878,149359,9839,-0.094,1.013,0.137,-0.427,1.829,-0.183,484.3
113891,149434,11330,-0.101,1.014,0.121,0.244,2.317,-0.488,484.304
113891,149333,9840,-0.104,1.019,0.109,0.244,2.317,-0.488,484.31
113890,149434,11330,-0.104,1.027,0.099,0.488,2.256,-0.183,484.314
113890,149361,9824,-0.103,1.03,0.095,0.488,2.256,-0.183,484.32
113870,149434,11330,-0.098,1.035,0.078,-0.122,1.037,0.732,484.324
113870,149341,9827,-0.098,1.031,0.064,-0.122,1.037,0.732,484.33
113819,149434,11330,-0.096,1.027,0.072,-1.402,-0.671,1.28,484.334
113819,149340,9824,-0.099,1.02,0.087,-1.402,-0.671,1.28,484.34
113807,149434,11330,-0.099,1.02,0.087,-1.402,-0.671,1.28,484.344
113807,149304,9816,-0.099,1.028,0.109,-1.646,-1.463,1.341,484.35
113790,149434,11330,-0.099,1.028,0.109,-1.646,-1.463,1.341,484.354
113790,149259,9816,-0.099,1.051,0.146,-1.098,-1.585,1.402,484.36
113766,149434,11330,-0.099,1.051,0.146,-1.098,-1.585,1.402,484.364
113766,149273,9807,-0.102,1.045,0.178,-0.671,-1.28,1.098,484.37
113771,149434,11330,-0.102,1.045,0.178,-0.671,-1.28,1.098,484.373
113771,149280,9826,-0.091,1.033,0.168,-0.488,-0.427,0.854,484.38
113773,149434,11330,-0.091,1.033,0.168,-0.488,-0.427,0.854,484.383
113773,149284,9813,-0.088,1.031,0.188,0.915,0.366,0.549,484.389
113790,149434,11330,-0.088,1.031,0.188,0.915,0.366,0.549,484.393
113790,149305,9801,-0.087,1.045,0.143,1.707,1.463,0.366,484.399
113790,149434,11330,-0.087,1.045,0.143,1.707,1.463,0.366,484.403
113790,149313,9812,-0.086,1.026,0.114,0.122,1.951,0.305,484.409
113822,149434,11330,-0.086,1.026,0.114,0.122,1.951,0.305,484.413
113822,149316,9823,-0.086,1.016,0.107,-1.22,1.707,0.549,484.419
113824,149434,11330,-0.086,1.016,0.107,-1.22,1.707,0.549,484.423
113824,149328,9835,-0.079,1.035,0.103,-1.89,1.524,1.037,484.429
113839,149434,11330,-0.079,1.035,0.103,-1.89,1.524,1.037,484.433
113839,149330,9825,-0.09,1.049,0.102,-1.341,0.976,0.976,484.439
113815,149434,11330,-0.09,1.049,0.102,-1.341,0.976,0.976,484.443
113815,149319,9819,-0.095,1.033,0.119,-0.976,0.488,0.793,484.449
113771,149434,11330,-0.095,1.033,0.119,-0.976,0.488,0.793,484.453
113771,149282,9809,-0.093,1.032,0.136,-0.671,0.122,0.854,484.459
113713,149178,11330,-0.093,1.032,0.136,-0.671,0.122,0.854,484.462
113713,149244,9805,-0.099,1.043,0.149,0.488,0.183,0.61,484.469
113678,149178,11330,-0.099,1.043,0.149,0.488,0.183,0.61,484.472
113678,149188,9791,-0.101,1.049,0.153,0.793,0.732,0.366,484.479
113624,149178,11330,-0.102,1.042,0.163,0.793,0.732,0.366,484.482
113624,149190,9778,-0.1,1.031,0.159,0.061,0.976,0,484.488
113611,149178,11330,-0.097,1.025,0.15,0.061,0.976,0,484.492
113611,149182,9799,-0.099,1.027,0.14,-0.183,1.159,0.122,484.498
113627,149178,11330,-0.099,1.03,0.131,-0.183,1.159,0.122,484.502
113627,149161,9796,-0.101,1.036,0.128,-0.122,1.402,-0.061,484.508
113653,149178,11330,-0.101,1.032,0.119,-0.122,1.402,-0.061,484.512
113653,149193,9801,-0.102,1.029,0.104,-0.488,1.22,-0.061,484.518
113679,149178,11330,-0.102,1.031,0.097,-0.488,1.22,-0.061,484.522
113679,149224,9795,-0.1,1.035,0.103,-1.463,0.366,0.244,484.528
113757,149434,11330,-0.096,1.035,0.11,-1.463,0.366,0.244,484.532
113757,149271,9800,-0.094,1.035,0.113,-2.134,-0.427,0.488,484.538
113858,149434,11330,-0.092,1.036,0.114,-2.134,-0.427,0.488,484.542
113858,149332,9828,-0.091,1.036,0.121,-1.707,-0.915,0.244,484.548
113931,149434,11330,-0.094,1.037,0.133,-1.707,-0.915,0.244,484.552
113931,149413,9847,-0.097,1.034,0.14,-0.915,-0.976,0.061,484.558
114001,149434,11330,-0.094,1.033,0.151,-0.915,-0.976,0.061,484.561
114001,149466,9833,-0.089,1.027,0.159,0.061,-0.488,-0.061,484.568
114085,149434,11330,-0.091,1.028,0.162,0.061,-0.488,-0.061,484.571
114085,149471,9852,-0.091,1.036,0.16,0.671,0.183,-0.061,484.578
114141,149690,11330,-0.091,1.042,0.152,0.671,0.183,-0.061,484.581
114141,149559,9854,-0.091,1.041,0.152,0,0.793,-0.122,484.587
114214,149690,11330,-0.095,1.029,0.147,0,0.793,-0.122,484.591
114214,149565,9859,-0.092,1.021,0.132,-1.585,0.854,0.183,484.597
114263,149690,11330,-0.092,1.018,0.117,-1.585,0.854,0.183,484.601
114263,149629,9872,-0.091,1.021,0.109,-1.768,0.732,0.427,484.607
114308,149690,11330,-0.094,1.023,0.111,-1.768,0.732,0.427,484.611
114308,149657,9878,-0.092,1.028,0.114,-0.61,0.427,0.427,484.617
114354,149690,11330,-0.095,1.035,0.112,-0.61,0.427,0.427,484.621
114354,149703,9893,-0.091,1.034,0.114,-0.183,0.061,0.793,484.627
114420,149690,11330,-0.091,1.032,0.12,-0.183,0.061,0.793,484.631
114420,149745,9892,-0.091,1.034,0.124,0.244,-0.488,0.732,484.637
114483,149946,11330,-0.093,1.036,0.128,0.244,-0.488,0.732,484.641
114483,149768,9900,-0.092,1.042,0.144,0.854,-0.427,0.488,484.647
114483,149946,11330,-0.092,1.042,0.155,0.854,-0.427,0.488,484.651
114483,149790,9893,-0.096,1.042,0.157,1.341,0,0.488,484.657
114482,149946,11330,-0.098,1.04,0.151,1.341,0,0.488,484.66
114482,149778,9902,-0.098,1.04,0.146,0.854,0.488,0.183,484.667
114475,149690,11330,-0.097,1.042,0.146,0.854,0.488,0.183,484.67
114475,149748,9890,-0.094,1.033,0.153,0.061,0.793,-0.061,484.677
114436,149690,11330,-0.096,1.026,0.15,0.061,0.793,-0.061,484.68
114436,149746,9870,-0.096,1.026,0.133,-0.793,0.976,0.366,484.686
114434,149690,11330,-0.097,1.026,0.12,-0.793,0.976,0.366,484.69
114434,149711,9897,-0.099,1.025,0.116,-1.341,0.732,0.183,484.696
114413,149690,11330,-0.099,1.024,0.121,-1.341,0.732,0.183,484.7
114413,149722,9888,-0.097,1.024,0.12,-0.976,0.366,0.366,484.706
114435,149690,11330,-0.097,1.027,0.119,-0.976,0.366,0.366,484.71
114435,149723,9868,-0.091,1.028,0.118,-0.366,0.061,0.793,484.716
114404,149690,11330,-0.089,1.036,0.121,-0.366,0.061,0.793,484.72
114404,149747,9882,-0.092,1.044,0.124,0.183,-0.183,0.61,484.726
114380,149690,11330,-0.091,1.045,0.13,0.183,-0.183,0.61,484.73
114380,149697,9884,-0.097,1.042,0.133,0,-0.122,0.61,484.736
114368,149690,11330,-0.095,1.038,0.136,0,-0.122,0.61,484.74
114368,149680,9876,-0.093,1.035,0.144,-0.793,-0.366,0.549,484.746
114346,149690,11330,-0.089,1.028,0.147,-0.793,-0.366,0.549,484.75
114346,149672,9869,-0.093,1.029,0.143,-0.427,-0.183,0.244,484.756
114334,149690,11330,-0.092,1.037,0.148,-0.427,-0.183,0.244,484.759
114334,149668,9868,-0.093,1.04,0.153,0.427,0.366,0.305,484.766
114319,149690,11330,-0.095,1.041,0.149,0.427,0.366,0.305,484.769
114319,149648,9873,-0.094,1.035,0.146,0,0.61,0.305,484.776
114336,149690,11330,-0.093,1.028,0.143,0,0.61,0.305,484.779
114336,149651,9863,-0.094,1.024,0.133,-1.037,0.61,0.305,484.785
114338,149690,11330,-0.094,1.022,0.127,-1.037,0.61,0.305,484.789
114338,149644,9878,-0.095,1.021,0.122,-1.707,0.61,0.488,484.795
114343,149690,11330,-0.097,1.017,0.123,-1.707,0.61,0.488,484.799
114343,149658,9886,-0.101,1.016,0.107,-1.28,0.488,0.854,484.805
114373,149690,11330,-0.099,1.024,0.098,-1.28,0.488,0.854,484.809
114373,149670,9881,-0.1,1.039,0.103,-0.061,0.061,0.976,484.815
114382,149690,11330,-0.096,1.048,0.117,-0.061,0.061,0.976,484.819
114382,149694,9888,-0.094,1.049,0.129,0.366,-0.671,0.976,484.825
114404,149690,11330,-0.094,1.042,0.135,0.366,-0.671,0.976,484.829
114404,149712,9887,-0.096,1.041,0.151,-0.427,-1.037,1.159,484.835
114406,149690,11330,-0.096,1.041,0.159,-0.427,-1.037,1.159,484.839
114406,149712,9889,-0.089,1.045,0.166,-0.305,-0.549,0.793,484.845
114440,149690,11330,-0.088,1.053,0.167,-0.305,-0.549,0.793,484.849
114440,149754,9883,-0.086,1.051,0.176,1.463,0.366,0.061,484.855
114467,149690,11330,-0.094,1.042,0.168,1.463,0.366,0.061,484.858
114467,149749,9869,-0.099,1.032,0.144,1.707,1.098,-0.122,484.865
114481,149690,11330,-0.093,1.021,0.135,1.707,1.098,-0.122,484.868
114481,149751,9880,-0.087,1.017,0.135,1.341,1.341,-0.305,484.875
114486,149690,11330,-0.096,1.002,0.12,1.341,1.341,-0.305,484.878
114486,149757,9885,-0.102,1.002,0.09,0.549,0.671,0.122,484.884
114477,149690,11330,-0.104,1.025,0.062,0.549,0.671,0.122,484.888
114477,149753,9900,-0.099,1.049,0.051,-1.037,-0.854,0.549,484.894
114487,149690,11330,-0.094,1.055,0.066,-1.037,-0.854,0.549,484.898
114487,149749,9895,-0.094,1.049,0.09,-2.744,-2.317,0.976,484.904
114472,149690,11330,-0.095,1.027,0.096,-2.744,-2.317,0.976,484.908
114472,149740,9891,-0.1,1.012,0.088,-5.793,-3.841,1.768,484.914
114465,149690,11330,-0.1,1.012,0.088,-5.793,-3.841,1.768,484.918
114465,149742,9887,-0.101,1.025,0.122,-6.463,-4.512,1.646,484.924
114455,149690,11330,-0.101,1.025,0.122,-6.463,-4.512,1.646,484.928
114455,149736,9884,-0.1,1.052,0.161,-3.72,-3.232,1.22,484.934
114452,149690,11330,-0.1,1.052,0.161,-3.72,-3.232,1.22,484.938
114452,149716,9893,-0.09,1.045,0.207,-1.341,-2.012,0.732,484.944
114435,149690,11330,-0.09,1.045,0.207,-1.341,-2.012,0.732,484.948
114435,149725,9867,-0.094,1.024,0.202,0.061,-0.671,0.183,484.954
114441,149690,11330,-0.094,1.024,0.202,0.061,-0.671,0.183,484.957
114441,149715,9879,-0.078,1.053,0.168,0.793,0.793,-0.366,484.964
114436,149690,11330,-0.078,1.053,0.168,0.793,0.793,-0.366,484.967
114436,149733,9871,-0.083,1.041,0.161,1.463,1.829,-0.488,484.973
114447,149690,11330,-0.083,1.041,0.161,1.463,1.829,-0.488,484.977
114447,149707,9887,-0.082,1,0.152,-0.671,2.134,-0.305,484.983
114445,149690,11330,-0.082,1,0.152,-0.671,2.134,-0.305,484.987
114445,149754,9887,-0.077,1.031,0.093,-1.585,2.012,0.122,484.993
114442,149690,11330,-0.077,1.031,0.093,-1.585,2.012,0.122,484.997
114442,149754,9882,-0.076,1.052,0.095,0.061,2.012,0,485.003
114471,149690,11330,-0.076,1.052,0.095,0.061,2.012,0,485.007
114471,149738,9879,-0.101,1.018,0.118,-0.488,1.585,0.366,485.013
114462,149690,11330,-0.101,1.018,0.118,-0.488,1.585,0.366,485.017
114462,149728,9882,-0.1,1.003,0.106,-2.256,0.427,0.732,485.023
114457,149690,11330,-0.1,1.003,0.106,-2.256,0.427,0.732,485.027
114457,149717,9887,-0.1,1.026,0.132,-1.402,0.061,0.671,485.033
114436,149690,11330,-0.1,1.026,0.132,-1.402,0.061,0.671,485.037
114436,149707,9890,-0.107,1.034,0.16,0.183,0.488,0.915,485.043
114405,149690,11330,-0.107,1.034,0.16,0.183,0.488,0.915,485.046
114405,149681,9867,-0.104,1.053,0.154,1.037,0.549,0.366,485.053
114372,149690,11330,-0.104,1.053,0.154,1.037,0.549,0.366,485.056
114372,149667,9879,-0.102,1.049,0.167,1.037,0.549,0.366,485.063
114374,149690,11330,-0.103,1.039,0.163,1.159,0.854,-0.061,485.066
114374,149673,9868,-0.108,1.032,0.145,1.159,0.854,-0.061,485.072
114368,149690,11330,-0.102,1.029,0.134,0.61,1.098,-0.122,485.076
114368,149659,9872,-0.095,1.028,0.135,0.61,1.098,-0.122,485.082
114356,149690,11330,-0.093,1.032,0.138,0.915,0.976,-0.305,485.086
114356,149655,9875,-0.096,1.032,0.133,0.915,0.976,-0.305,485.092
114386,149690,11330,-0.101,1.034,0.122,0.305,1.159,-0.061,485.096
114386,149670,9860,-0.096,1.037,0.115,0.305,1.159,-0.061,485.102
114452,149690,11330,-0.087,1.035,0.114,-0.793,0.671,-0.244,485.106
114452,149713,9885,-0.087,1.027,0.118,-0.793,0.671,-0.244,485.112
114521,149946,11330,-0.088,1.024,0.119,-0.488,0.427,0.061,485.116
114521,149773,9883,-0.089,1.023,0.12,-0.488,0.427,0.061,485.122
114586,149946,11330,-0.093,1.021,0.127,-0.488,0.427,0.305,485.126
114586,149850,9901,-0.092,1.027,0.133,-0.488,0.427,0.305,485.132
114644,149946,11330,-0.09,1.026,0.14,-0.793,0.244,0.488,485.136
114644,149870,9915,-0.088,1.027,0.14,-0.793,0.244,0.488,485.142
114682,149946,11330,-0.089,1.031,0.141,-0.488,0.427,0.61,485.145
114682,149903,9902,-0.091,1.032,0.156,-0.488,0.427,0.61,485.152
114743,149946,11330,-0.091,1.027,0.17,0.671,0.549,0.732,485.155
114743,149928,9919,-0.09,1.028,0.166,0.671,0.549,0.732,485.162
114792,149946,11330,-0.087,1.041,0.157,1.829,0.976,0.427,485.165
114792,149992,9914,-0.084,1.05,0.162,1.829,0.976,0.427,485.171
114900,150202,11330,-0.086,1.045,0.157,1.524,1.463,0.366,485.175
114900,150056,9943,-0.091,1.034,0.151,1.524,1.463,0.366,485.181
114925,150202,11330,-0.091,1.024,0.138,-0.488,1.707,0.488,485.185
114925,150084,9926,-0.093,1.024,0.109,-0.488,1.707,0.488,485.191
115007,150202,11330,-0.096,1.027,0.091,-1.341,1.341,0.549,485.195
115007,150122,9953,-0.095,1.037,0.083,-1.341,1.341,0.549,485.201
115056,150202,11330,-0.103,1.045,0.078,-1.098,0.854,0.61,485.205
115056,150163,9960,-0.101,1.044,0.091,-1.098,0.854,0.61,485.211
115125,150202,11330,-0.096,1.037,0.112,-1.402,-0.061,0.732,485.215
115125,150198,9955,-0.099,1.032,0.123,-1.402,-0.061,0.732,485.221
115125,150202,11330,-0.094,1.03,0.122,-1.22,-0.915,0.793,485.225
115125,150221,9964,-0.093,1.039,0.122,-1.22,-0.915,0.793,485.231
115159,150202,11330,-0.092,1.049,0.143,0.183,-0.671,0,485.235
115159,150256,9963,-0.097,1.051,0.16,0.183,-0.671,0,485.241
115187,150458,11330,-0.103,1.045,0.17,0.732,0.305,-0.305,485.244
115187,150272,9965,-0.099,1.035,0.176,0.732,0.305,-0.305,485.251
115155,150202,11330,-0.093,1.027,0.175,0.366,0.671,-0.427,485.254
115155,150246,9964,-0.089,1.028,0.173,0.366,0.671,-0.427,485.261
115144,150202,11330,-0.09,1.03,0.163,0.488,1.341,-0.549,485.264
115144,150226,9966,-0.091,1.035,0.157,0.488,1.341,-0.549,485.27
115168,150202,11330,-0.089,1.032,0.147,0.427,2.073,-0.549,485.274
115168,150249,9969,-0.093,1.027,0.139,0.427,2.073,-0.549,485.28
115173,150202,11330,-0.09,1.02,0.121,-0.122,1.89,-0.427,485.284
115173,150244,9956,-0.089,1.019,0.113,-0.122,1.89,-0.427,485.29
115097,150202,11330,-0.089,1.02,0.105,-0.244,1.28,-0.061,485.294
115097,150180,9964,-0.089,1.022,0.098,-0.244,1.28,-0.061,485.3
115072,150202,11330,-0.092,1.031,0.095,-0.061,0.732,0.305,485.304
115072,150184,9951,-0.091,1.038,0.1,-0.061,0.732,0.305,485.31
115076,150202,11330,-0.094,1.035,0.1,-0.671,0.061,0.671,485.314
115076,150183,9953,-0.097,1.036,0.099,-0.671,0.061,0.671,485.32
115091,150202,11330,-0.098,1.04,0.104,-0.976,-0.732,0.854,485.324
115091,150181,9952,-0.093,1.043,0.129,-0.976,-0.732,0.854,485.33
115100,150202,11330,-0.094,1.04,0.155,0,-0.732,0.671,485.334
115100,150206,9946,-0.097,1.041,0.156,0,-0.732,0.671,485.34
115133,150202,11330,-0.101,1.044,0.157,1.037,-0.244,0.305,485.343
115133,150227,9965,-0.097,1.042,0.172,1.037,-0.244,0.305,485.35
115155,150202,11330,-0.095,1.042,0.177,1.646,0.244,-0.122,485.353
115155,150260,9969,-0.092,1.041,0.173,1.646,0.244,-0.122,485.359
115191,150202,11330,-0.093,1.04,0.173,2.073,1.098,-0.549,485.363
115191,150260,9962,-0.093,1.037,0.163,2.073,1.098,-0.549,485.369
115219,150458,11330,-0.093,1.03,0.148,1.341,1.768,-0.793,485.373
115219,150281,9976,-0.095,1.021,0.138,1.341,1.768,-0.793,485.379
115251,150458,11330,-0.098,1.015,0.114,0.061,1.585,-0.61,485.383
115251,150321,9957,-0.098,1.01,0.094,0.061,1.585,-0.61,485.389
115233,150458,11330,-0.1,1.023,0.087,-0.366,1.28,-0.244,485.393
115233,150303,9980,-0.099,1.033,0.093,-0.366,1.28,-0.244,485.399
115228,150458,11330,-0.094,1.036,0.094,-0.915,0.427,0.244,485.403
115228,150286,9951,-0.1,1.036,0.089,-0.915,0.427,0.244,485.409
115232,150458,11330,-0.099,1.036,0.092,-1.646,-0.732,0.61,485.413
115232,150304,9967,-0.093,1.035,0.113,-1.646,-0.732,0.61,485.419
115234,150458,11330,-0.095,1.039,0.128,-1.159,-1.463,0.671,485.423
115234,150294,9959,-0.093,1.041,0.137,-1.159,-1.463,0.671,485.429
115209,150458,11330,-0.094,1.036,0.152,-0.061,-1.098,0.488,485.433
115209,150293,9958,-0.092,1.032,0.165,-0.061,-1.098,0.488,485.439
115208,150458,11330,-0.087,1.031,0.17,0.915,-0.549,0.244,485.442
115208,150304,9968,-0.093,1.038,0.181,0.915,-0.549,0.244,485.449
115206,150458,11330,-0.092,1.042,0.19,1.646,0.61,0.061,485.452
115206,150291,9961,-0.092,1.039,0.188,1.646,0.61,0.061,485.458
115212,150202,11330,-0.094,1.039,0.17,1.341,1.585,-0.244,485.462
115212,150260,9960,-0.091,1.033,0.153,1.341,1.585,-0.244,485.468
115201,150458,11330,-0.09,1.022,0.137,0.427,1.768,-0.427,485.472
115201,150273,9962,-0.098,1.014,0.121,0.427,1.768,-0.427,485.478
115184,150202,11330,-0.1,1.012,0.104,0.305,1.829,-0.244,485.482
115184,150246,9955,-0.101,1.013,0.092,0.305,1.829,-0.244,485.488
115154,150202,11330,-0.101,1.013,0.092,0.305,1.829,-0.244,485.492
115154,150219,9943,-0.097,1.025,0.084,0.244,1.037,0.244,485.498
115127,150202,11330,-0.097,1.025,0.084,0.244,1.037,0.244,485.502
115127,150202,9960,-0.091,1.035,0.106,0.122,-0.427,0.793,485.508
115089,150202,11330,-0.091,1.035,0.106,0.122,-0.427,0.793,485.512
115089,150209,9935,-0.089,1.033,0.114,-0.793,-1.341,1.402,485.518
115065,150202,11330,-0.089,1.033,0.114,-0.793,-1.341,1.402,485.522
115065,150161,9926,-0.094,1.042,0.137,-0.915,-1.646,1.402,485.528
115042,150202,11330,-0.094,1.042,0.137,-0.915,-1.646,1.402,485.532
115042,150147,9933,-0.096,1.04,0.163,-0.488,-1.28,1.159,485.538
115026,150202,11330,-0.096,1.04,0.163,-0.488,-1.28,1.159,485.541
115026,150153,9931,-0.093,1.037,0.167,-0.122,-0.549,0.976,485.548
115018,150202,11330,-0.093,1.037,0.167,-0.122,-0.549,0.976,485.551
115018,150139,9925,-0.097,1.035,0.161,0.183,0.122,0.671,485.557
115010,150202,11330,-0.097,1.035,0.161,0.183,0.122,0.671,485.561
115010,150125,9943,-0.107,1.03,0.147,0.183,1.037,0.549,485.567
114979,150202,11330,-0.107,1.03,0.147,0.183,1.037,0.549,485.571
114979,150101,9930,-0.103,1.011,0.121,-0.549,1.341,0.671,485.577
114951,150202,11330,-0.103,1.011,0.121,-0.549,1.341,0.671,485.581
114951,150068,9930,-0.101,1.017,0.104,-0.427,0.915,0.854,485.587
114920,150202,11330,-0.101,1.017,0.104,-0.427,0.915,0.854,485.591
114920,150056,9913,-0.089,1.039,0.112,0.549,0.427,1.159,485.597
114882,149946,11330,-0.089,1.039,0.112,0.549,0.427,1.159,485.601
114882,150001,9901,-0.086,1.042,0.121,0.915,-0.183,1.341,485.607
114785,149946,11330,-0.086,1.042,0.121,0.915,-0.183,1.341,485.611
114785,149952,9901,-0.079,1.039,0.123,-0.244,-0.671,1.463,485.617
114710,149946,11330,-0.079,1.039,0.123,-0.244,-0.671,1.463,485.621
114710,149911,9886,-0.083,1.035,0.135,-0.427,-1.159,1.159,485.627
114635,149946,11330,-0.083,1.035,0.135,-0.427,-1.159,1.159,485.631
114635,149851,9886,-0.085,1.042,0.143,0,-0.976,0.854,485.637
114582,149946,11330,-0.086,1.042,0.149,0,-0.976,0.854,485.64
114582,149806,9877,-0.087,1.044,0.148,0,-0.366,0.427,485.647
114518,149690,11330,-0.091,1.046,0.148,0,-0.366,0.427,485.65
114518,149750,9847,-0.096,1.043,0.151,-0.732,0.061,0.122,485.656
114464,149690,11330,-0.097,1.033,0.15,-0.732,0.061,0.122,485.66
114464,149701,9859,-0.099,1.022,0.145,-1.707,0.366,0.061,485.666
114430,149690,11330,-0.101,1.015,0.136,-1.707,0.366,0.061,485.67
114430,149675,9853,-0.102,1.014,0.125,-0.793,0.61,0.183,485.676
114415,149690,11330,-0.107,1.022,0.119,-0.793,0.61,0.183,485.68
114415,149675,9846,-0.104,1.035,0.122,0.549,0.793,0.183,485.686
114383,149690,11330,-0.097,1.045,0.128,0.549,0.793,0.183,485.69
114383,149692,9835,-0.093,1.045,0.128,0.915,0.549,0.549,485.696
114373,149690,11330,-0.095,1.039,0.124,0.915,0.549,0.549,485.7
114373,149683,9852,-0.093,1.034,0.116,0.183,0.183,0.732,485.706
114358,149690,11330,-0.091,1.031,0.118,0.183,0.183,0.732,485.71
114358,149636,9850,-0.09,1.034,0.127,-0.305,0,0.61,485.716
114339,149690,11330,-0.087,1.036,0.132,-0.305,0,0.61,485.72
114339,149629,9834,-0.086,1.037,0.139,0.305,0.183,0.488,485.726
114334,149690,11330,-0.085,1.039,0.136,0.305,0.183,0.488,485.729
114334,149629,9843,-0.084,1.044,0.14,0.122,0.488,0.61,485.736
114316,149690,11330,-0.087,1.043,0.143,0.122,0.488,0.61,485.739
114316,149622,9827,-0.091,1.039,0.15,-0.549,0.732,0.427,485.746
114319,149690,11330,-0.088,1.03,0.145,-0.549,0.732,0.427,485.749
114319,149610,9833,-0.09,1.027,0.141,-0.366,0.854,0.122,485.755
114306,149690,11330,-0.09,1.028,0.141,-0.366,0.854,0.122,485.759
114306,149609,9843,-0.092,1.028,0.144,0.183,0.854,-0.122,485.765
114313,149690,11330,-0.094,1.031,0.14,0.183,0.854,-0.122,485.769
114313,149618,9838,-0.098,1.03,0.136,0.061,1.098,-0.061,485.775
114361,149690,11330,-0.102,1.031,0.129,0.061,1.098,-0.061,485.779
114361,149648,9829,-0.1,1.028,0.125,-0.549,1.098,0.061,485.785
114405,149690,11330,-0.101,1.026,0.116,-0.549,1.098,0.061,485.789
114405,149705,9855,-0.104,1.028,0.11,-1.159,0.793,0.122,485.795
114523,149946,11330,-0.102,1.029,0.107,-1.159,0.793,0.122,485.799
114523,149774,9876,-0.102,1.027,0.12,-1.28,0.427,0.488,485.805
114603,149946,11330,-0.097,1.034,0.124,-1.28,0.427,0.488,485.809
114603,149842,9879,-0.097,1.034,0.127,-0.61,0.122,0.549,485.815
114720,149946,11330,-0.096,1.032,0.13,-0.61,0.122,0.549,485.819
114720,149907,9897,-0.097,1.035,0.135,0.122,0.305,0.366,485.825
114797,149946,11330,-0.094,1.033,0.141,0.122,0.305,0.366,485.828
114797,149985,9904,-0.094,1.029,0.143,0.671,0.427,0.244,485.835
114903,150202,11330,-0.091,1.031,0.155,0.671,0.427,0.244,485.838
114903,150058,9917,-0.09,1.037,0.162,0.976,0.732,0.244,485.845
114962,150202,11330,-0.088,1.038,0.163,0.976,0.732,0.244,485.848
114962,150098,9922,-0.085,1.036,0.15,0.61,1.28,0.366,485.854
115034,150202,11330,-0.085,1.036,0.139,0.61,1.28,0.366,485.858
115034,150150,9924,-0.087,1.029,0.127,0.061,1.524,0.244,485.864
115102,150202,11330,-0.093,1.026,0.119,0.061,1.524,0.244,485.868
115102,150212,9935,-0.098,1.026,0.114,-0.732,1.341,0.427,485.874
115193,150202,11330,-0.093,1.03,0.106,-0.732,1.341,0.427,485.878
115193,150265,9938,-0.09,1.031,0.101,-0.732,0.671,0.671,485.884
115270,150458,11330,-0.09,1.035,0.101,-0.732,0.671,0.671,485.888
115270,150314,9970,-0.092,1.042,0.105,-0.732,0,0.793,485.894
115337,150458,11330,-0.095,1.045,0.122,-0.732,0,0.793,485.898
115337,150380,9979,-0.094,1.038,0.129,-0.793,-0.366,0.671,485.904
115398,150458,11330,-0.092,1.036,0.127,-0.793,-0.366,0.671,485.908
115398,150408,9980,-0.093,1.038,0.127,-0.061,-0.61,0.427,485.914
115460,150458,11330,-0.094,1.038,0.144,-0.061,-0.61,0.427,485.918
115460,150454,9968,-0.097,1.046,0.157,0.305,-0.183,0.183,485.924
115497,150458,11330,-0.095,1.042,0.158,0.305,-0.183,0.183,485.927
115497,150483,9986,-0.094,1.035,0.158,0.305,0.183,0.061,485.934
115543,150458,11330,-0.093,1.03,0.151,0.305,0.183,0.061,485.937
115543,150520,9995,-0.094,1.032,0.139,0.305,0.366,-0.305,485.944
115529,150714,11330,-0.096,1.033,0.143,0.305,0.366,-0.305,485.947
115529,150538,9993,-0.096,1.028,0.144,0.305,0.793,-0.427,485.953
115544,150714,11330,-0.092,1.025,0.136,0.305,0.793,-0.427,485.957
115544,150536,9975,-0.092,1.027,0.126,0.122,0.793,-0.244,485.963
115515,150458,11330,-0.093,1.03,0.117,0.122,0.793,-0.244,485.967
115515,150512,9982,-0.095,1.028,0.11,0,0.427,-0.183,485.973
115502,150458,11330,-0.098,1.027,0.105,0,0.427,-0.183,485.977
115502,150482,9983,-0.096,1.027,0.099,-0.061,-0.122,0.061,485.983
115497,150458,11330,-0.099,1.031,0.109,-0.061,-0.122,0.061,485.987
115497,150476,9966,-0.097,1.035,0.114,-0.61,-1.098,0.549,485.993
115492,150458,11330,-0.093,1.043,0.116,-0.61,-1.098,0.549,485.997
115492,150493,9987,-0.097,1.042,0.123,-1.037,-1.89,0.488,486.003
115509,150458,11330,-0.097,1.04,0.131,-1.037,-1.89,0.488,486.007
115509,150504,9997,-0.094,1.04,0.141,-0.61,-2.195,0.305,486.013
115522,150458,11330,-0.096,1.041,0.155,-0.61,-2.195,0.305,486.017
115522,150501,9986,-0.095,1.035,0.163,0.549,-1.463,0.122,486.023
115499,150458,11330,-0.093,1.032,0.162,0.549,-1.463,0.122,486.026
115499,150514,9979,-0.092,1.037,0.159,1.159,-0.793,-0.244,486.033
115521,150458,11330,-0.09,1.033,0.159,1.159,-0.793,-0.244,486.036
115521,150489,9977,-0.093,1.028,0.16,0.854,0,-0.305,486.043
115500,150458,11330,-0.098,1.021,0.152,0.854,0,-0.305,486.046
115500,150466,9989,-0.101,1.014,0.136,0.244,0.549,0,486.052
115501,150458,11330,-0.102,1.015,0.113,0.244,0.549,0,486.056
115501,150456,9954,-0.102,1.021,0.106,0.305,0.244,0.183,486.062
115473,150458,11330,-0.102,1.029,0.106,0.305,0.244,0.183,486.066
115473,150472,9979,-0.101,1.037,0.103,0.61,-0.488,0.427,486.072
115462,150458,11330,-0.101,1.037,0.103,0.61,-0.488,0.427,486.076
115462,150453,9977,-0.094,1.044,0.101,-0.305,-1.646,0.732,486.082
115425,150458,11330,-0.094,1.044,0.101,-0.305,-1.646,0.732,486.086
115425,150401,9965,-0.091,1.039,0.117,-1.829,-2.439,0.976,486.092
115407,150458,11330,-0.091,1.039,0.117,-1.829,-2.439,0.976,486.096
115407,150415,9954,-0.09,1.04,0.13,-2.378,-2.5,0.854,486.102
115386,150458,11330,-0.09,1.04,0.13,-2.378,-2.5,0.854,486.106
115386,150402,9960,-0.089,1.035,0.159,-1.463,-2.012,0.549,486.112
115370,150458,11330,-0.089,1.035,0.159,-1.463,-2.012,0.549,486.116
115370,150375,9970,-0.09,1.037,0.162,-0.427,-1.159,0.244,486.122
115351,150458,11330,-0.09,1.037,0.162,-0.427,-1.159,0.244,486.125
115351,150360,9946,-0.087,1.037,0.169,0.854,-0.122,-0.122,486.132
115322,150458,11330,-0.087,1.037,0.169,0.854,-0.122,-0.122,486.135
115322,150320,9952,-0.089,1.041,0.15,0.915,0.915,-0.183,486.142
115255,150458,11330,-0.089,1.041,0.15,0.915,0.915,-0.183,486.145
115255,150304,9962,-0.092,1.02,0.14,0.305,1.037,-0.305,486.151
115200,150202,11330,-0.092,1.02,0.14,0.305,1.037,-0.305,486.155
115200,150235,9951,-0.098,1.015,0.118,-0.549,1.28,0.122,486.161
115162,150202,11330,-0.098,1.015,0.118,-0.549,1.28,0.122,486.165
115162,150211,9935,-0.091,1.031,0.119,-0.793,1.037,0.488,486.171
115093,150202,11330,-0.091,1.031,0.119,-0.793,1.037,0.488,486.175
115093,150156,9923,-0.09,1.03,0.11,-0.976,0.854,0.976,486.181
115059,150202,11330,-0.09,1.03,0.11,-0.976,0.854,0.976,486.185
115059,150130,9911,-0.092,1.033,0.125,-1.463,0.427,1.098,486.191
115038,150202,11330,-0.092,1.033,0.125,-1.463,0.427,1.098,486.195
115038,150114,9916,-0.086,1.022,0.133,-1.585,0.244,1.159,486.201
115060,150202,11330,-0.086,1.022,0.133,-1.585,0.244,1.159,486.205
115060,150107,9925,-0.086,1.032,0.144,-0.793,0.488,1.037,486.211
115042,150202,11330,-0.086,1.032,0.144,-0.793,0.488,1.037,486.215
115042,150111,9904,-0.086,1.042,0.155,-0.793,0.488,1.037,486.221
115065,150202,11330,-0.088,1.046,0.158,-0.061,1.159,0.732,486.224
115065,150108,9918,-0.091,1.042,0.154,-0.061,1.159,0.732,486.231
115056,150202,11330,-0.089,1.038,0.15,-0.305,1.585,0.671,486.234
115056,150125,9907,-0.091,1.038,0.143,-0.305,1.585,0.671,486.241
115071,150202,11330,-0.09,1.038,0.136,-0.732,1.646,0.488,486.244
115071,150126,9908,-0.088,1.031,0.131,-0.732,1.646,0.488,486.25
115094,150202,11330,-0.094,1.031,0.13,-0.488,1.646,0.366,486.254
115094,150175,9925,-0.099,1.036,0.119,-0.488,1.646,0.366,486.26
115124,150202,11330,-0.103,1.033,0.11,-0.854,1.524,0.305,486.264
115124,150192,9924,-0.101,1.034,0.109,-0.854,1.524,0.305,486.27
115197,150202,11330,-0.095,1.032,0.115,-1.463,0.61,0.549,486.274
115197,150239,9948,-0.099,1.026,0.115,-1.463,0.61,0.549,486.28
115265,150458,11330,-0.101,1.028,0.115,-1.22,0.366,0.915,486.284
115265,150286,9948,-0.099,1.029,0.122,-1.22,0.366,0.915,486.29
115328,150458,11330,-0.097,1.036,0.127,-0.671,0.549,0.793,486.294
115328,150332,9953,-0.098,1.032,0.131,-0.671,0.549,0.793,486.3
115371,150458,11330,-0.1,1.03,0.138,0.122,0.793,0.732,486.304
115371,150367,9959,-0.098,1.035,0.142,0.122,0.793,0.732,486.31
115376,150458,11330,-0.097,1.035,0.146,0.793,1.22,0.671,486.314
115376,150378,9942,-0.095,1.037,0.144,0.793,1.22,0.671,486.32
115390,150458,11330,-0.096,1.041,0.153,1.159,1.463,0.488,486.323
115390,150381,9960,-0.095,1.042,0.154,1.159,1.463,0.488,486.33
115386,150458,11330,-0.093,1.036,0.143,0.671,1.646,0.366,486.333
115386,150376,9962,-0.088,1.031,0.138,0.671,1.646,0.366,486.34
115371,150458,11330,-0.089,1.033,0.139,0.488,1.646,0.183,486.343
115371,150358,9954,-0.093,1.034,0.134,0.488,1.646,0.183,486.349
115357,150458,11330,-0.093,1.036,0.126,0.671,1.829,0,486.353
115357,150311,9952,-0.089,1.035,0.122,0.671,1.829,0,486.359
115298,150458,11330,-0.087,1.036,0.117,0.793,1.463,-0.122,486.363
115298,150286,9952,-0.091,1.038,0.112,0.793,1.463,-0.122,486.369
115259,150202,11330,-0.094,1.032,0.111,0,0.915,-0.061,486.373
115259,150255,9936,-0.096,1.027,0.105,0,0.915,-0.061,486.379
115245,150202,11330,-0.095,1.025,0.099,-0.854,0.244,0.122,486.383
115245,150225,9946,-0.095,1.024,0.108,-0.854,0.244,0.122,486.389
115227,150202,11330,-0.092,1.031,0.116,-0.183,-0.244,0.366,486.393
115227,150211,9948,-0.088,1.041,0.124,-0.183,-0.244,0.366,486.399
115207,150202,11330,-0.093,1.044,0.128,0.427,-0.366,0.305,486.403
115207,150214,9923,-0.095,1.039,0.132,0.427,-0.366,0.305,486.409
115198,150202,11330,-0.096,1.038,0.135,0.244,-0.488,0.305,486.413
115198,150207,9937,-0.095,1.037,0.141,0.244,-0.488,0.305,486.419
115160,150202,11330,-0.09,1.035,0.152,0,-0.427,0.427,486.422
115160,150174,9934,-0.088,1.036,0.157,0,-0.427,0.427,486.429
115133,150202,11330,-0.086,1.037,0.164,-0.061,0.122,0.427,486.432
115133,150151,9925,-0.089,1.035,0.16,-0.061,0.122,0.427,486.438
115132,150202,11330,-0.094,1.03,0.149,-0.427,0.61,0.366,486.442
115132,150172,9932,-0.094,1.029,0.142,-0.427,0.61,0.366,486.448
115161,150202,11330,-0.095,1.025,0.136,-0.793,0.854,0.183,486.452
115161,150176,9949,-0.098,1.024,0.127,-0.793,0.854,0.183,486.458
115169,150202,11330,-0.097,1.023,0.12,-0.793,0.793,0.366,486.462
115169,150185,9920,-0.092,1.026,0.114,-0.793,0.793,0.366,486.468
115171,150202,11330,-0.096,1.03,0.109,-0.61,0.183,0.488,486.472
115171,150159,9936,-0.097,1.033,0.107,-0.61,0.183,0.488,486.478
115209,150202,11330,-0.096,1.039,0.109,-0.793,-0.671,0.732,486.482
115209,150196,9932,-0.098,1.039,0.11,-0.793,-0.671,0.732,486.488
115217,150202,11330,-0.095,1.033,0.114,-1.159,-1.585,0.793,486.492
115217,150215,9951,-0.094,1.027,0.127,-1.159,-1.585,0.793,486.498
115235,150202,11330,-0.093,1.028,0.137,-0.671,-2.012,0.671,486.502
115235,150233,9944,-0.093,1.037,0.151,-0.671,-2.012,0.671,486.508
115257,150202,11330,-0.094,1.04,0.159,0.244,-1.768,0.488,486.512
115257,150235,9930,-0.095,1.044,0.165,0.244,-1.768,0.488,486.518
115251,150202,11330,-0.09,1.052,0.172,0.732,-1.341,0.305,486.521
115251,150218,9938,-0.086,1.053,0.163,0.732,-1.341,0.305,486.528
115271,150202,11330,-0.081,1.038,0.156,0.366,-0.61,0.061,486.531
115271,150259,9936,-0.08,1.023,0.152,0.366,-0.61,0.061,486.538
115255,150202,11330,-0.089,1.009,0.144,-0.488,-0.061,0.427,486.541
115255,150235,9938,-0.095,1.004,0.133,-0.488,-0.061,0.427,486.547
115256,150202,11330,-0.095,1.01,0.126,-1.341,-0.305,0.976,486.551
115256,150236,9943,-0.091,1.015,0.123,-1.341,-0.305,0.976,486.557
115243,150202,11330,-0.088,1.022,0.115,-2.134,-0.366,1.341,486.561
115243,150222,9932,-0.099,1.026,0.1,-2.134,-0.366,1.341,486.567
115251,150202,11330,-0.106,1.022,0.092,-4.024,-0.854,2.073,486.571
115251,150237,9933,-0.103,1.024,0.099,-4.024,-0.854,2.073,486.577
115262,150202,11330,-0.094,1.039,0.109,-5.061,-1.768,2.317,486.581
115262,150223,9948,-0.087,1.046,0.111,-5.061,-1.768,2.317,486.587
115290,150202,11330,-0.087,1.05,0.114,-3.476,-1.951,2.5,486.591
115290,150247,9945,-0.094,1.051,0.125,-3.476,-1.951,2.5,486.597
115299,150458,11330,-0.097,1.05,0.143,-2.683,-1.89,2.012,486.601
115299,150281,9955,-0.098,1.049,0.159,-2.683,-1.89,2.012,486.607
115310,150458,11330,-0.094,1.049,0.174,-1.951,-1.159,1.341,486.611
115310,150285,9943,-0.084,1.052,0.184,-1.951,-1.159,1.341,486.617
115304,150458,11330,-0.082,1.047,0.185,0.366,0.122,0.427,486.62
115304,150273,9949,-0.081,1.044,0.181,0.366,0.122,0.427,486.627
115322,150458,11330,-0.085,1.044,0.17,2.012,1.585,-0.61,486.63
115322,150284,9944,-0.089,1.034,0.159,2.012,1.585,-0.61,486.636
115309,150458,11330,-0.089,1.035,0.152,1.159,2.744,-0.793,486.64
115309,150279,9956,-0.088,1.035,0.142,1.159,2.744,-0.793,486.646
115295,150202,11330,-0.086,1.028,0.131,-0.732,2.866,-0.488,486.65
115295,150269,9929,-0.086,1.025,0.119,-0.732,2.866,-0.488,486.656
115290,150202,11330,-0.086,1.025,0.119,-0.732,2.866,-0.488,486.66
115290,150241,9928,-0.096,1.018,0.089,-2.012,2.439,-0.122,486.666
115277,150202,11330,-0.096,1.018,0.089,-2.012,2.439,-0.122,486.67
115277,150212,9954,-0.092,1.021,0.091,-1.768,1.22,0.122,486.676
115240,150202,11330,-0.092,1.021,0.091,-1.768,1.22,0.122,486.68
115240,150207,9926,-0.097,1.02,0.102,-0.915,-0.427,0.549,486.686
115227,150202,11330,-0.097,1.02,0.102,-0.915,-0.427,0.549,486.69
115227,150200,9938,-0.094,1.02,0.119,-0.427,-1.28,1.098,486.696
115210,150202,11330,-0.094,1.02,0.119,-0.427,-1.28,1.098,486.7
115210,150165,9930,-0.093,1.032,0.144,0.488,-1.707,1.341,486.706
115203,150202,11330,-0.093,1.032,0.144,0.488,-1.707,1.341,486.71
115203,150164,9928,-0.093,1.035,0.164,0.793,-1.402,1.585,486.716
115191,150202,11330,-0.093,1.035,0.164,0.793,-1.402,1.585,486.719
115191,150168,9928,-0.086,1.045,0.169,1.098,-0.732,1.463,486.726
115205,150202,11330,-0.086,1.045,0.169,1.098,-0.732,1.463,486.729
115205,150164,9955,-0.088,1.051,0.154,1.707,0.244,1.037,486.735
115206,150202,11330,-0.088,1.051,0.154,1.707,0.244,1.037,486.739
115206,150191,9927,-0.093,1.042,0.147,1.707,1.159,0.427,486.745
115253,150202,11330,-0.093,1.042,0.147,1.707,1.159,0.427,486.749
115253,150209,9934,-0.098,1.035,0.12,0.671,1.585,0.183,486.755
115261,150202,11330,-0.098,1.035,0.12,0.671,1.585,0.183,486.759
115261,150233,9929,-0.089,1.038,0.119,-0.793,1.341,-0.061,486.765
115270,150202,11330,-0.089,1.038,0.119,-0.793,1.341,-0.061,486.769
115270,150219,9927,-0.091,1.024,0.111,-1.037,0.915,0,486.775
115278,150202,11330,-0.091,1.024,0.111,-1.037,0.915,0,486.779
115278,150215,9952,-0.094,1.028,0.111,-0.549,0.427,0.061,486.785
115290,150202,11330,-0.094,1.028,0.111,-0.549,0.427,0.061,486.789
115290,150210,9954,-0.088,1.034,0.129,0,0,-0.061,486.795
115275,150202,11330,-0.088,1.034,0.129,0,0,-0.061,486.799
115275,150223,9932,-0.091,1.033,0.129,0.366,-0.061,0.122,486.805
115252,150202,11330,-0.092,1.031,0.135,0.366,-0.061,0.122,486.809
115252,150202,9932,-0.094,1.025,0.143,-0.305,-0.305,0.427,486.815
115213,150202,11330,-0.094,1.028,0.155,-0.305,-0.305,0.427,486.818
115213,150161,9920,-0.094,1.024,0.156,-0.366,0,0.427,486.825
