135721,148564,12484,0.024,-0.97,0.073,-0.671,0.244,-0.671,357.867
135719,148569,38140,0.024,-0.97,0.073,-0.671,0.244,-0.671,357.87
135719,148539,12495,0.025,-0.966,0.075,-0.793,0.488,-0.549,357.877
135718,148569,38140,0.025,-0.966,0.075,-0.793,0.488,-0.549,357.88
135718,148546,12498,0.023,-0.965,0.077,-0.793,0.488,-0.549,357.886
135724,148569,38140,0.023,-0.966,0.077,-0.549,0.61,-0.305,357.89
135724,148538,12495,0.023,-0.967,0.072,-0.549,0.61,-0.305,357.896
135741,148569,38140,0.025,-0.966,0.069,-0.305,0.488,-0.305,357.9
135741,148523,12487,0.023,-0.965,0.071,-0.305,0.488,-0.305,357.906
135720,148569,38140,0.023,-0.96,0.065,-0.183,0.305,-0.183,357.91
135720,148551,12492,0.025,-0.964,0.067,-0.183,0.305,-0.183,357.916
135727,148569,38140,0.026,-0.965,0.07,0.061,0.305,-0.061,357.92
135727,148536,12498,0.025,-0.961,0.071,0.061,0.305,-0.061,357.926
135736,148569,38140,0.024,-0.962,0.067,0.244,0.183,0.244,357.93
135736,148528,12485,0.025,-0.963,0.07,0.244,0.183,0.244,357.936
135724,148569,38140,0.026,-0.966,0.076,0,0.671,0.427,357.94
135724,148514,12482,0.023,-0.967,0.069,0,0.671,0.427,357.946
135737,148569,38140,0.02,-0.965,0.07,-0.122,0.976,0.61,357.95
135737,148529,12483,0.02,-0.962,0.072,-0.122,0.976,0.61,357.956
135714,148569,38140,0.022,-0.961,0.077,-0.183,0.549,1.159,357.959
135714,148525,12470,0.023,-0.96,0.077,-0.183,0.549,1.159,357.966
135709,148569,38140,0.025,-0.964,0.076,-0.183,0.427,1.037,357.969
135709,148529,12478,0.022,-0.969,0.076,-0.183,0.427,1.037,357.976
135698,148569,38140,0.022,-0.973,0.076,-0.244,1.098,0.671,357.979
135698,148524,12490,0.022,-0.969,0.076,-0.244,1.098,0.671,357.985
135724,148569,38140,0.019,-0.965,0.078,-0.427,1.037,1.037,357.989
135724,148509,12476,0.022,-0.962,0.081,-0.427,1.037,1.037,357.995
135734,148569,38140,0.024,-0.96,0.076,-0.244,0.732,1.098,357.999
135734,148540,12495,0.024,-0.961,0.076,-0.244,0.732,1.098,358.005
135726,148569,38140,0.021,-0.964,0.076,-0.061,0.793,0.732,358.009
135726,148553,12483,0.022,-0.966,0.074,-0.061,0.793,0.732,358.015
135739,148569,38140,0.022,-0.963,0.078,0.122,0.61,0.793,358.019
135739,148557,12484,0.02,-0.962,0.076,0.122,0.61,0.793,358.025
135751,148569,38140,0.021,-0.96,0.076,0.183,0.305,0.976,358.029
135751,148529,12489,0.022,-0.961,0.077,0.183,0.305,0.976,358.035
135743,148569,38140,0.02,-0.962,0.08,-0.244,0.305,0.854,358.039
135743,148525,12484,0.019,-0.964,0.075,-0.244,0.305,0.854,358.045
135748,148569,38140,0.018,-0.968,0.072,-0.854,0.549,0.915,358.049
135748,148547,12494,0.018,-0.971,0.08,-0.854,0.549,0.915,358.055
135746,148569,38140,0.019,-0.972,0.081,-0.854,0.488,0.61,358.058
135746,148550,12489,0.021,-0.969,0.078,-0.854,0.488,0.61,358.065
135737,148569,38140,0.017,-0.963,0.071,-0.793,0,0.549,358.068
135737,148516,12491,0.016,-0.962,0.07,-0.793,0,0.549,358.075
135732,148569,38140,0.017,-0.966,0.073,-0.732,-0.061,0.366,358.078
135732,148546,12490,0.02,-0.97,0.07,-0.732,-0.061,0.366,358.084
135721,148569,38140,0.018,-0.974,0.067,-0.915,0.122,0,358.088
135721,148509,12481,0.017,-0.975,0.069,-0.915,0.122,0,358.094
135704,148569,38140,0.018,-0.97,0.064,-0.732,0.671,-0.183,358.098
135704,148529,12484,0.02,-0.965,0.068,-0.732,0.671,-0.183,358.104
135726,148569,38140,0.019,-0.965,0.074,-0.244,0.427,-0.244,358.108
135726,148533,12489,0.021,-0.964,0.079,-0.244,0.427,-0.244,358.114
135745,148569,38140,0.022,-0.962,0.08,0.061,-0.183,-0.183,358.118
135745,148519,12474,0.022,-0.966,0.08,0.061,-0.183,-0.183,358.124
135726,148569,38140,0.024,-0.964,0.073,-0.488,0.183,-0.122,358.128
135726,148528,12479,0.024,-0.967,0.077,-0.488,0.183,-0.122,358.134
135722,148569,38140,0.021,-0.969,0.07,-0.793,0.488,-0.183,358.138
135722,148539,12493,0.021,-0.967,0.07,-0.793,0.488,-0.183,358.144
135716,148569,38140,0.021,-0.959,0.07,-0.732,0.122,0.061,358.148
135716,148517,12473,0.022,-0.956,0.068,-0.732,0.122,0.061,358.154
135733,148569,38140,0.022,-0.959,0.07,-0.488,-0.183,0.061,358.157
135733,148551,12500,0.022,-0.963,0.072,-0.488,-0.183,0.061,358.164
135723,148569,38140,0.021,-0.967,0.07,-0.732,0.061,0.183,358.167
135723,148546,12489,0.022,-0.97,0.066,-0.732,0.061,0.183,358.174
135760,148569,38140,0.025,-0.968,0.069,-0.915,0.732,0.244,358.177
135760,148574,12481,0.021,-0.965,0.071,-0.915,0.732,0.244,358.183
135742,148569,38140,0.022,-0.964,0.071,-0.366,0.671,0.305,358.187
135742,148582,12490,0.025,-0.966,0.072,-0.366,0.671,0.305,358.193
135752,148569,38140,0.027,-0.964,0.077,0.061,0.244,0.61,358.197
135752,148550,12492,0.027,-0.962,0.076,0.061,0.244,0.61,358.203
135768,148569,38140,0.026,-0.965,0.069,-0.183,0.488,0.732,358.207
135768,148569,12478,0.021,-0.968,0.072,-0.183,0.488,0.732,358.213
135762,148569,38140,0.021,-0.967,0.07,-0.366,0.732,0.915,358.217
135762,148572,12494,0.021,-0.97,0.068,-0.366,0.732,0.915,358.223
135782,148569,38140,0.017,-0.968,0.067,-0.305,0.793,1.037,358.227
135782,148582,12505,0.016,-0.971,0.068,-0.305,0.793,1.037,358.233
135751,148569,38140,0.016,-0.967,0.068,0.244,0.915,0.854,358.237
135751,148586,12481,0.014,-0.963,0.069,0.244,0.915,0.854,358.243
135759,148569,38140,0.016,-0.964,0.073,0.793,0.61,0.366,358.247
135759,148542,12495,0.019,-0.97,0.078,0.793,0.61,0.366,358.253
135743,148569,38140,0.023,-0.97,0.076,0.915,0.183,0.122,358.256
135743,148542,12472,0.025,-0.966,0.078,0.915,0.183,0.122,358.263
135749,148569,38140,0.025,-0.964,0.075,0.732,0.488,0.061,358.266
135749,148564,12496,0.025,-0.963,0.078,0.732,0.488,0.061,358.273
135757,148569,38140,0.025,-0.961,0.078,0.732,0.671,0.122,358.276
135757,148568,12474,0.026,-0.96,0.079,0.732,0.671,0.122,358.282
135740,148569,38140,0.024,-0.958,0.078,0.549,0.549,0.488,358.286
135740,148567,12494,0.023,-0.96,0.078,0.549,0.549,0.488,358.292
135760,148569,38140,0.02,-0.964,0.077,0.244,0.793,0.549,358.296
135760,148582,12474,0.019,-0.966,0.076,0.244,0.793,0.549,358.302
135724,148569,38140,0.021,-0.964,0.078,-0.061,1.037,0.854,358.306
135724,148580,12487,0.018,-0.965,0.071,-0.061,1.037,0.854,358.312
135759,148569,38140,0.015,-0.964,0.073,-0.427,0.976,0.976,358.316
135759,148563,12484,0.015,-0.962,0.075,-0.427,0.976,0.976,358.322
135738,148569,38140,0.013,-0.971,0.075,-0.366,0.671,0.732,358.326
135738,148569,12497,0.012,-0.971,0.075,-0.366,0.671,0.732,358.332
135719,148569,38140,0.012,-0.971,0.075,-0.366,0.671,0.732,358.336
135719,148576,12498,0.017,-0.97,0.076,-0.366,0.549,0.427,358.342
135712,148569,38140,0.017,-0.97,0.076,-0.366,0.549,0.427,358.346
135712,148571,12483,0.018,-0.959,0.074,-0.427,0.244,0.061,358.352
135711,148569,38140,0.018,-0.959,0.074,-0.427,0.244,0.061,358.355
135711,148563,12480,0.023,-0.963,0.076,-0.305,-0.244,-0.305,358.362
135728,148569,38140,0.023,-0.963,0.076,-0.305,-0.244,-0.305,358.365
135728,148561,12485,0.024,-0.966,0.077,-0.854,-0.305,-0.488,358.371
135750,148569,38140,0.024,-0.966,0.077,-0.854,-0.305,-0.488,358.375
135750,148573,12472,0.026,-0.962,0.07,-1.28,0.244,-0.488,358.381
135742,148569,38140,0.026,-0.962,0.07,-1.28,0.244,-0.488,358.385
135742,148571,12486,0.025,-0.963,0.077,-0.976,0.305,-0.366,358.391
135717,148569,38140,0.025,-0.963,0.077,-0.976,0.305,-0.366,358.395
135717,148557,12486,0.027,-0.958,0.079,-0.854,-0.183,0,358.401
135730,148569,38140,0.027,-0.958,0.079,-0.854,-0.183,0,358.405
135730,148583,12487,0.026,-0.961,0.079,-1.463,-0.183,0.366,358.411
135727,148569,38140,0.026,-0.961,0.079,-1.463,-0.183,0.366,358.415
135727,148587,12486,0.024,-0.961,0.069,-1.829,0.061,0.732,358.421
135741,148569,38140,0.024,-0.961,0.069,-1.829,0.061,0.732,358.425
135741,148599,12475,0.017,-0.968,0.065,-2.256,0.244,1.037,358.431
135754,148569,38140,0.017,-0.968,0.065,-2.256,0.244,1.037,358.435
135754,148563,12490,0.02,-0.969,0.067,-2.134,0.244,1.159,358.441
135732,148569,38140,0.02,-0.969,0.067,-2.134,0.244,1.159,358.445
135732,148568,12489,0.015,-0.967,0.066,-1.585,0.122,1.098,358.451
135731,148569,38140,0.015,-0.967,0.066,-1.585,0.122,1.098,358.454
135731,148581,12490,0.016,-0.972,0.066,-1.22,0.061,1.037,358.461
135724,148569,38140,0.016,-0.972,0.066,-1.22,0.061,1.037,358.464
135724,148580,12498,0.016,-0.97,0.072,-0.427,0.061,0.793,358.471
135705,148569,38140,0.016,-0.97,0.072,-0.427,0.061,0.793,358.474
135705,148587,12471,0.016,-0.965,0.071,-0.122,-0.122,0.61,358.48
135730,148569,38140,0.016,-0.961,0.07,-0.122,-0.122,0.61,358.484
135730,148591,12479,0.017,-0.96,0.073,-0.488,-0.061,0.305,358.49
135726,148569,38140,0.019,-0.964,0.071,-0.488,-0.061,0.305,358.494
135726,148571,12485,0.02,-0.967,0.071,-0.793,0,-0.061,358.5
135748,148569,38140,0.019,-0.97,0.072,-0.793,0,-0.061,358.504
135748,148589,12472,0.019,-0.968,0.07,-0.976,0.244,0.061,358.51
135733,148569,38140,0.02,-0.964,0.068,-0.976,0.244,0.061,358.514
135733,148597,12497,0.018,-0.964,0.073,-0.793,0.122,0.122,358.52
135716,148569,38140,0.02,-0.965,0.076,-0.793,0.122,0.122,358.524
135716,148588,12493,0.021,-0.967,0.074,-0.671,-0.244,0.122,358.53
135747,148569,38140,0.022,-0.965,0.073,-0.671,-0.244,0.122,358.534
135747,148564,12483,0.022,-0.962,0.069,-0.854,0.183,0.183,358.54
135756,148569,38140,0.022,-0.963,0.066,-0.854,0.183,0.183,358.544
135756,148643,12499,0.025,-0.965,0.068,-0.854,0.244,0.183,358.55
135749,148569,38140,0.024,-0.968,0.069,-0.854,0.244,0.183,358.553
135749,148587,12484,0.021,-0.968,0.064,-0.793,0,0.488,358.56
135746,148569,38140,0.022,-0.963,0.062,-0.793,0,0.488,358.563
135746,148597,12507,0.021,-0.959,0.063,-0.793,0.244,0.549,358.569
135751,148569,38140,0.019,-0.961,0.068,-0.793,0.244,0.549,358.573
135751,148606,12490,0.025,-0.963,0.072,-0.427,0.183,0.671,358.579
135770,148569,38140,0.025,-0.965,0.074,-0.427,0.183,0.671,358.583
135770,148592,12497,0.024,-0.967,0.077,-0.61,0.061,0.854,358.589
135747,148569,38140,0.023,-0.968,0.074,-0.61,0.061,0.854,358.593
135747,148619,12483,0.022,-0.966,0.074,-0.732,0.549,0.732,358.599
135742,148569,38140,0.02,-0.966,0.076,-0.732,0.549,0.732,358.603
135742,148598,12511,0.021,-0.965,0.075,-0.549,0.427,0.671,358.609
135753,148569,38140,0.019,-0.964,0.078,-0.549,0.427,0.671,358.613
135753,148599,12498,0.02,-0.963,0.076,-0.61,0.244,0.671,358.619
135753,148569,38140,0.02,-0.961,0.071,-0.61,0.244,0.671,358.623
135753,148658,12501,0.021,-0.96,0.073,-1.037,0.427,0.549,358.629
135772,148569,38140,0.021,-0.966,0.071,-1.037,0.427,0.549,358.633
135772,148615,12491,0.022,-0.967,0.069,-1.22,0.488,0.427,358.639
135769,148569,38140,0.02,-0.968,0.068,-1.22,0.488,0.427,358.643
135769,148638,12504,0.019,-0.961,0.071,-1.037,0.305,0.549,358.649
135786,148569,38140,0.021,-0.959,0.072,-1.037,0.305,0.549,358.652
135786,148633,12499,0.019,-0.959,0.07,-0.915,0.061,0.732,358.659
135796,148569,38140,0.02,-0.959,0.07,-0.915,0.061,0.732,358.662
135796,148662,12504,0.021,-0.961,0.074,-1.159,0.061,0.549,358.668
135772,148569,38140,0.021,-0.966,0.075,-1.159,0.061,0.549,358.672
135772,148620,12507,0.017,-0.968,0.068,-1.829,0.244,0.549,358.678
135761,148569,38140,0.018,-0.97,0.069,-1.829,0.244,0.549,358.682
135761,148630,12510,0.017,-0.969,0.07,-1.768,0.305,0.488,358.688
135753,148569,38140,0.019,-0.965,0.072,-1.768,0.305,0.488,358.692
135753,148614,12504,0.019,-0.965,0.07,-1.585,-0.183,0.305,358.698
135776,148569,38140,0.02,-0.963,0.065,-1.585,-0.183,0.305,358.702
135776,148616,12506,0.021,-0.966,0.067,-1.707,-0.244,0.305,358.708
135755,148569,38140,0.019,-0.97,0.069,-1.707,-0.244,0.305,358.712
135755,148634,12493,0.019,-0.973,0.061,-1.89,-0.122,0.183,358.718
135760,148569,38140,0.019,-0.974,0.058,-1.89,-0.122,0.183,358.722
135760,148605,12483,0.02,-0.973,0.064,-1.524,-0.183,0.183,358.728
135738,148569,38140,0.019,-0.969,0.063,-1.524,-0.183,0.183,358.732
135738,148602,12482,0.021,-0.965,0.065,-0.732,-0.305,0.244,358.738
135740,148569,38140,0.018,-0.966,0.066,-0.732,-0.305,0.244,358.742
135740,148624,12500,0.021,-0.961,0.064,-0.488,-0.366,0.244,358.748
135728,148569,38140,0.025,-0.957,0.063,-0.488,-0.366,0.244,358.751
135728,148592,12504,0.022,-0.963,0.07,-1.037,-0.061,0.305,358.758
135731,148569,38140,0.019,-0.969,0.071,-1.037,-0.061,0.305,358.761
135731,148618,12486,0.017,-0.965,0.068,-1.037,0,0.305,358.767
135729,148569,38140,0.021,-0.959,0.067,-1.037,0,0.305,358.771
135729,148586,12492,0.017,-0.958,0.066,-0.976,-0.305,0.366,358.777
135744,148569,38140,0.019,-0.957,0.064,-0.976,-0.305,0.366,358.781
135744,148609,12509,0.02,-0.962,0.062,-1.098,-0.244,0.244,358.787
135739,148569,38140,0.019,-0.972,0.061,-1.098,-0.244,0.244,358.791
135739,148625,12506,0.022,-0.971,0.063,-0.976,0.122,0.244,358.797
135705,148569,38140,0.019,-0.964,0.067,-0.976,0.122,0.244,358.801
135705,148617,12491,0.023,-0.962,0.07,-0.915,0.061,0.305,358.807
135740,148569,38140,0.024,-0.962,0.068,-0.915,0.061,0.305,358.811
135740,148600,12498,0.025,-0.966,0.073,-0.915,-0.061,0.366,358.817
135717,148569,38140,0.024,-0.972,0.068,-0.915,-0.061,0.366,358.821
135717,148606,12487,0.021,-0.973,0.065,-1.22,0.61,0.366,358.827
135731,148569,38140,0.022,-0.972,0.062,-1.22,0.61,0.366,358.831
135731,148619,12480,0.024,-0.966,0.06,-0.793,0.61,0.427,358.837
135736,148569,38140,0.021,-0.962,0.065,-0.793,0.61,0.427,358.841
135736,148623,12496,0.025,-0.96,0.064,-0.854,0.061,0.732,358.847
135742,148569,38140,0.026,-0.959,0.056,-0.854,0.061,0.732,358.85
135742,148618,12493,0.015,-0.958,0.059,-1.707,0.915,1.159,358.857
135726,148569,38140,0.021,-0.967,0.063,-1.707,0.915,1.159,358.86
135726,148612,12494,0.02,-0.964,0.063,-2.744,1.463,0.671,358.866
135699,148569,38140,0.012,-0.962,0.058,-2.744,1.463,0.671,358.87
135699,148608,12497,0.016,-0.973,0.062,-1.463,1.524,1.098,358.876
135715,148569,38140,0.022,-0.988,0.072,-1.463,1.524,1.098,358.88
135715,148606,12497,0.024,-0.984,0.078,1.524,0.183,-0.061,358.886
135722,148569,38140,0.021,-0.966,0.074,1.524,0.183,-0.061,358.89
135722,148602,12501,0.021,-0.952,0.064,1.037,-0.305,0.915,358.896
135708,148569,38140,0.026,-0.952,0.066,1.037,-0.305,0.915,358.9
135708,148597,12494,0.026,-0.96,0.062,0.244,0.488,0.549,358.906
135721,148569,38140,0.024,-0.966,0.066,0.244,0.488,0.549,358.91
135721,148623,12492,0.022,-0.972,0.067,0.305,0.854,0.732,358.916
135730,148569,38140,0.022,-0.972,0.067,0.305,0.854,0.732,358.92
135730,148592,12493,0.021,-0.964,0.068,0.488,0.854,1.037,358.926
135730,148569,38140,0.021,-0.964,0.068,0.488,0.854,1.037,358.93
135730,148604,12499,0.022,-0.955,0.07,0.61,0.732,1.098,358.936
135722,148569,38140,0.022,-0.955,0.07,0.61,0.732,1.098,358.939
135722,148599,12496,0.018,-0.958,0.076,0.305,0.427,1.037,358.946
135694,148569,38140,0.018,-0.958,0.076,0.305,0.427,1.037,358.949
135694,148601,12488,0.016,-0.965,0.078,-0.854,0.488,1.037,358.956
135697,148569,38140,0.016,-0.965,0.078,-0.854,0.488,1.037,358.959
135697,148595,12491,0.015,-0.973,0.066,-1.22,0.915,0.793,358.965
135672,148569,38140,0.015,-0.973,0.066,-1.22,0.915,0.793,358.969
135672,148600,12488,0.013,-0.974,0.06,0,0.732,0,358.975
135673,148569,38140,0.013,-0.974,0.06,0,0.732,0,358.979
135673,148573,12490,0.01,-0.953,0.066,0.671,0.244,-0.244,358.985
135659,148569,38140,0.01,-0.953,0.066,0.671,0.244,-0.244,358.989
135659,148586,12486,0.019,-0.96,0.065,-0.915,-0.61,0.488,358.995
135687,148569,38140,0.019,-0.96,0.065,-0.915,-0.61,0.488,358.999
135687,148595,12481,0.026,-0.972,0.064,-1.646,0,-0.183,359.005
135673,148569,38140,0.026,-0.972,0.064,-1.646,0,-0.183,359.009
135673,148595,12487,0.019,-0.975,0.066,-1.28,0.671,-0.244,359.015
135641,148569,38140,0.019,-0.975,0.066,-1.28,0.671,-0.244,359.019
135641,148580,12490,0.02,-0.962,0.072,-0.183,-0.061,0.305,359.025
135689,148569,38140,0.02,-0.962,0.072,-0.183,-0.061,0.305,359.029
135689,148572,12489,0.023,-0.959,0.072,-0.366,-0.183,0.366,359.035
135652,148569,38140,0.023,-0.959,0.072,-0.366,-0.183,0.366,359.038
135652,148611,12484,0.023,-0.966,0.072,-0.976,0,0.183,359.045
135679,148569,38140,0.023,-0.966,0.072,-0.976,0,0.183,359.048
135679,148572,12479,0.022,-0.964,0.072,-0.976,0,0.183,359.055
135676,148569,38140,0.024,-0.967,0.069,-1.524,-0.061,0.61,359.058
135676,148590,12484,0.022,-0.962,0.067,-1.524,-0.061,0.61,359.064
135664,148569,38140,0.02,-0.961,0.068,-1.524,-0.122,0.854,359.068
135664,148587,12499,0.02,-0.959,0.062,-1.524,-0.122,0.854,359.074
135677,148569,38140,0.018,-0.963,0.061,-1.768,0.122,0.976,359.078
135677,148582,12486,0.016,-0.968,0.063,-1.768,0.122,0.976,359.084
135644,148569,38140,0.015,-0.97,0.063,-1.707,0.122,0.854,359.088
135644,148570,12479,0.016,-0.969,0.066,-1.707,0.122,0.854,359.094
135643,148569,38140,0.014,-0.969,0.065,-1.402,-0.122,0.549,359.098
135643,148570,12493,0.014,-0.967,0.067,-1.402,-0.122,0.549,359.104
135652,148569,38140,0.014,-0.965,0.065,-1.098,-0.244,0.244,359.108
135652,148538,12480,0.014,-0.964,0.061,-1.098,-0.244,0.244,359.114
135680,148569,38140,0.014,-0.965,0.059,-1.037,-0.244,-0.061,359.118
135680,148604,12486,0.021,-0.966,0.064,-1.037,-0.244,-0.061,359.124
135690,148569,38140,0.018,-0.971,0.061,-0.976,-0.122,-0.305,359.128
135690,148583,12496,0.018,-0.972,0.058,-0.976,-0.122,-0.305,359.134
135732,148569,38140,0.017,-0.972,0.055,-1.22,0.183,-0.427,359.137
135732,148622,12491,0.017,-0.968,0.057,-1.22,0.183,-0.427,359.144
135735,148569,38140,0.021,-0.969,0.057,-0.793,0.244,-0.61,359.147
135735,148657,12503,0.021,-0.97,0.061,-0.793,0.244,-0.61,359.154
135731,148569,38140,0.023,-0.969,0.064,-0.183,-0.122,-0.671,359.157
135731,148636,12503,0.022,-0.965,0.063,-0.183,-0.122,-0.671,359.163
135750,148569,38140,0.023,-0.966,0.059,0,0.061,-0.305,359.167
135750,148632,12488,0.021,-0.97,0.057,0,0.061,-0.305,359.173
135763,148569,38140,0.021,-0.972,0.057,0.305,0.549,-0.122,359.177
135763,148636,12514,0.021,-0.968,0.059,0.305,0.549,-0.122,359.183
135777,148569,38140,0.021,-0.961,0.059,0.732,0.427,0.061,359.187
135777,148653,12494,0.022,-0.954,0.06,0.732,0.427,0.061,359.193
135764,148569,38140,0.025,-0.954,0.063,0.671,0.183,0.122,359.197
135764,148656,12503,0.026,-0.959,0.066,0.671,0.183,0.122,359.203
135760,148569,38140,0.027,-0.962,0.068,0.366,0.122,0.122,359.207
135760,148643,12514,0.026,-0.964,0.061,0.366,0.122,0.122,359.213
135752,148569,38140,0.023,-0.969,0.059,-0.427,0.549,0.488,359.217
135752,148636,12506,0.024,-0.97,0.058,-0.427,0.549,0.488,359.223
135766,148569,38140,0.021,-0.969,0.058,-0.427,0.915,0.61,359.227
135766,148598,12494,0.017,-0.966,0.052,-0.427,0.915,0.61,359.233
135733,148569,38140,0.018,-0.963,0.059,0.244,0.915,0.732,359.236
135733,148604,12495,0.02,-0.964,0.062,0.244,0.915,0.732,359.243
135740,148569,38140,0.022,-0.967,0.065,0.854,0.671,0.671,359.246
135740,148628,12489,0.021,-0.966,0.066,0.854,0.671,0.671,359.253
135771,148569,38140,0.02,-0.966,0.062,0.671,0.732,0.549,359.256
135771,148631,12498,0.021,-0.963,0.063,0.671,0.732,0.549,359.262
135746,148569,38140,0.018,-0.963,0.064,0.488,1.159,0.732,359.266
135746,148637,12493,0.018,-0.97,0.064,0.488,1.159,0.732,359.272
135744,148569,38140,0.017,-0.972,0.066,0.793,1.22,0.61,359.276
135744,148608,12512,0.016,-0.973,0.066,0.793,1.22,0.61,359.282
135731,148569,38140,0.019,-0.966,0.069,0.976,0.976,0.488,359.286
135731,148598,12501,0.018,-0.963,0.063,0.976,0.976,0.488,359.292
135740,148569,38140,0.017,-0.965,0.065,1.22,0.732,0.427,359.296
135740,148594,12494,0.018,-0.969,0.073,1.22,0.732,0.427,359.302
135700,148569,38140,0.02,-0.965,0.07,1.28,0.732,0.305,359.306
135700,148592,12505,0.017,-0.96,0.07,1.28,0.732,0.305,359.312
135693,148569,38140,0.019,-0.969,0.069,0.976,0.732,0.244,359.316
135693,148580,12502,0.021,-0.967,0.064,0.976,0.732,0.244,359.322
135696,148569,38140,0.021,-0.963,0.064,0.915,0.732,0.305,359.326
135696,148592,12497,0.019,-0.964,0.07,0.915,0.732,0.305,359.332
135678,148569,38140,0.019,-0.964,0.068,0.915,0.671,0.122,359.335
135678,148541,12474,0.019,-0.965,0.066,0.915,0.671,0.122,359.342
135684,148569,38140,0.017,-0.965,0.065,0.61,0.488,0.061,359.345
135684,148585,12498,0.016,-0.965,0.069,0.61,0.488,0.061,359.352
135659,148569,38140,0.02,-0.964,0.064,0.793,0.305,-0.122,359.355
135659,148581,12504,0.019,-0.966,0.07,0.793,0.305,-0.122,359.361
135629,148569,38140,0.021,-0.967,0.07,0.549,0.122,-0.366,359.365
135629,148558,12488,0.02,-0.965,0.067,0.549,0.122,-0.366,359.371
135661,148569,38140,0.016,-0.966,0.067,0.244,0.488,-0.366,359.375
135661,148554,12483,0.018,-0.969,0.073,0.244,0.488,-0.366,359.381
135638,148569,38140,0.022,-0.961,0.068,0.244,0.366,-0.427,359.385
135638,148572,12481,0.019,-0.961,0.065,0.244,0.366,-0.427,359.391
135645,148569,38140,0.018,-0.961,0.066,0,0.061,-0.366,359.395
135645,148571,12496,0.021,-0.96,0.065,0,0.061,-0.366,359.401
135636,148569,38140,0.023,-0.962,0.068,0.061,0.122,-0.488,359.405
135636,148561,12495,0.023,-0.964,0.071,0.061,0.122,-0.488,359.411
135663,148569,38140,0.023,-0.966,0.068,-0.061,0.061,-0.549,359.415
135663,148546,12494,0.024,-0.969,0.064,-0.061,0.061,-0.549,359.421
135633,148569,38140,0.027,-0.967,0.064,-0.122,0.427,-0.427,359.425
135633,148567,12471,0.026,-0.963,0.062,-0.122,0.427,-0.427,359.431
135646,148569,38140,0.026,-0.964,0.062,0.061,0.61,-0.244,359.434
135646,148575,12477,0.025,-0.968,0.065,0.061,0.61,-0.244,359.441
135659,148569,38140,0.025,-0.969,0.065,0.549,0.488,0,359.444
135659,148556,12485,0.025,-0.97,0.062,0.549,0.488,0,359.451
135689,148569,38140,0.026,-0.967,0.061,0.732,0.671,0.366,359.454
135689,148594,12497,0.024,-0.961,0.056,0.732,0.671,0.366,359.46
135672,148569,38140,0.023,-0.965,0.06,0.976,1.037,0.488,359.464
135672,148592,12505,0.022,-0.968,0.064,0.976,1.037,0.488,359.47
135684,148569,38140,0.018,-0.968,0.067,1.402,1.037,0.549,359.474
135684,148573,12484,0.022,-0.967,0.068,1.402,1.037,0.549,359.48
135646,148569,38140,0.025,-0.962,0.067,1.341,0.732,0.61,359.484
135646,148566,12498,0.024,-0.958,0.062,1.341,0.732,0.61,359.49
135677,148569,38140,0.024,-0.958,0.062,1.341,0.732,0.61,359.494
135677,148593,12483,0.022,-0.964,0.069,0.854,0.854,1.098,359.5
135656,148569,38140,0.022,-0.964,0.069,0.854,0.854,1.098,359.504
135656,148606,12486,0.022,-0.964,0.062,0.366,0.976,1.646,359.51
135678,148569,38140,0.022,-0.964,0.062,0.366,0.976,1.646,359.514
135678,148613,12498,0.019,-0.97,0.068,0.671,1.098,1.707,359.52
135671,148569,38140,0.019,-0.97,0.068,0.671,1.098,1.707,359.524
135671,148571,12493,0.024,-0.962,0.081,2.988,0.976,0.61,359.53
135689,148569,38140,0.024,-0.962,0.081,2.988,0.976,0.61,359.533
135689,148583,12479,0.018,-0.95,0.074,2.5,0.915,-0.061,359.54
135667,148569,38140,0.018,-0.95,0.074,2.5,0.915,-0.061,359.543
135667,148602,12487,0.015,-0.972,0.073,0.427,1.341,0.732,359.55
135685,148569,38140,0.015,-0.972,0.073,0.427,1.341,0.732,359.553
135685,148577,12491,0.018,-0.971,0.068,0.671,1.585,0.732,359.559
135674,148569,38140,0.018,-0.971,0.068,0.671,1.585,0.732,359.563
135674,148578,12482,0.014,-0.959,0.071,1.037,1.159,0.427,359.569
135687,148569,38140,0.014,-0.959,0.071,1.037,1.159,0.427,359.573
135687,148566,12493,0.017,-0.965,0.073,1.159,0.671,0.671,359.579
135671,148569,38140,0.017,-0.965,0.073,1.159,0.671,0.671,359.583
135671,148570,12491,0.018,-0.969,0.075,1.463,0.61,0.732,359.589
135678,148569,38140,0.018,-0.969,0.075,1.463,0.61,0.732,359.593
135678,148593,12495,0.021,-0.961,0.076,1.159,0.427,0.671,359.599
135690,148569,38140,0.021,-0.961,0.076,1.159,0.427,0.671,359.603
135690,148605,12498,0.023,-0.97,0.072,-0.122,0.244,0.061,359.609
135699,148569,38140,0.023,-0.97,0.072,-0.122,0.244,0.061,359.613
135699,148567,12501,0.018,-0.97,0.067,-0.549,0.366,-0.122,359.619
135684,148569,38140,0.018,-0.97,0.067,-0.549,0.366,-0.122,359.623
135684,148601,12498,0.02,-0.968,0.076,-0.61,0.488,0.244,359.629
135666,148569,38140,0.02,-0.968,0.076,-0.61,0.488,0.244,359.632
135666,148576,12494,0.02,-0.964,0.075,-0.427,0.183,-0.061,359.639
135670,148569,38140,0.024,-0.962,0.073,-0.427,0.183,-0.061,359.642
135670,148600,12488,0.024,-0.963,0.076,-0.427,0.061,0.061,359.648
135703,148569,38140,0.022,-0.964,0.076,-0.427,0.061,0.061,359.652
135703,148559,12481,0.022,-0.965,0.076,-0.671,0.061,0.183,359.658
135687,148569,38140,0.021,-0.963,0.074,-0.671,0.061,0.183,359.662
135687,148614,12502,0.021,-0.96,0.074,-0.915,0.061,0.244,359.668
135702,148569,38140,0.022,-0.961,0.073,-0.915,0.061,0.244,359.672
135702,148610,12478,0.02,-0.962,0.071,-1.159,0.183,0.427,359.678
135706,148569,38140,0.018,-0.96,0.07,-1.159,0.183,0.427,359.682
135706,148602,12502,0.018,-0.961,0.072,-1.341,0.122,0.488,359.688
135708,148569,38140,0.016,-0.96,0.071,-1.341,0.122,0.488,359.692
135708,148604,12500,0.02,-0.964,0.07,-1.402,-0.183,0.305,359.698
135704,148569,38140,0.021,-0.967,0.069,-1.402,-0.183,0.305,359.702
135704,148603,12496,0.02,-0.97,0.07,-1.646,-0.305,0.183,359.708
135727,148569,38140,0.02,-0.973,0.069,-1.646,-0.305,0.183,359.712
135727,148618,12510,0.02,-0.975,0.067,-1.768,0.061,-0.061,359.718
135720,148569,38140,0.018,-0.97,0.064,-1.768,0.061,-0.061,359.722
135720,148608,12514,0.018,-0.966,0.065,-1.098,0.122,-0.122,359.728
135711,148569,38140,0.022,-0.965,0.066,-1.098,0.122,-0.122,359.731
135711,148638,12497,0.023,-0.969,0.066,-0.488,-0.244,-0.244,359.738
135741,148569,38140,0.023,-0.971,0.058,-0.488,-0.244,-0.244,359.741
135741,148649,12502,0.023,-0.969,0.055,-1.037,0.244,-0.305,359.747
135747,148569,38140,0.022,-0.972,0.056,-1.037,0.244,-0.305,359.751
135747,148637,12507,0.022,-0.971,0.057,-0.305,0.976,-0.305,359.757
135735,148569,38140,0.021,-0.969,0.068,-0.305,0.976,-0.305,359.761
135735,148649,12497,0.023,-0.966,0.07,0.976,0.488,-0.183,359.767
135753,148569,38140,0.021,-0.966,0.075,0.976,0.488,-0.183,359.771
135753,148651,12492,0.022,-0.963,0.076,1.28,0,-0.061,359.777
135741,148569,38140,0.024,-0.961,0.078,1.28,0,-0.061,359.781
135741,148624,12505,0.024,-0.956,0.075,0.915,0.305,-0.244,359.787
135761,148569,38140,0.024,-0.958,0.077,0.915,0.305,-0.244,359.791
135761,148622,12516,0.024,-0.958,0.078,0.366,0.244,-0.183,359.797
135739,148569,38140,0.03,-0.964,0.077,0.366,0.244,-0.183,359.801
135739,148650,12515,0.026,-0.969,0.075,-0.488,0.183,0.061,359.807
135723,148569,38140,0.023,-0.966,0.068,-0.488,0.183,0.061,359.811
135723,148615,12501,0.024,-0.964,0.061,-1.037,0.915,0.427,359.817
135740,148569,38140,0.022,-0.96,0.059,-1.037,0.915,0.427,359.821
135740,148627,12502,0.022,-0.962,0.062,-0.61,0.976,0.488,359.827
135730,148569,38140,0.021,-0.965,0.064,-0.61,0.976,0.488,359.83
135730,148630,12503,0.022,-0.967,0.064,-0.183,0.61,0.61,359.837
135757,148569,38140,0.024,-0.969,0.065,-0.183,0.61,0.61,359.84
135757,148644,12495,0.021,-0.97,0.062,0,0.61,0.61,359.847
135741,148569,38140,0.022,-0.969,0.064,0,0.61,0.61,359.85
135741,148643,12506,0.019,-0.971,0.067,0.488,0.671,0.488,359.856
135740,148569,38140,0.019,-0.969,0.067,0.488,0.671,0.488,359.86
135740,148662,12502,0.02,-0.968,0.067,0.854,0.732,0.488,359.866
135772,148569,38140,0.021,-0.964,0.073,0.854,0.732,0.488,359.87
135772,148647,12525,0.022,-0.96,0.079,0.976,0.427,0.732,359.876
135743,148569,38140,0.021,-0.96,0.08,0.976,0.427,0.732,359.88
135743,148651,12506,0.022,-0.961,0.081,0.61,0.244,0.854,359.886
135748,148569,38140,0.025,-0.96,0.081,0.61,0.244,0.854,359.89
135748,148628,12503,0.024,-0.961,0.078,0.122,0.366,0.671,359.896
135749,148569,38140,0.022,-0.965,0.08,0.122,0.366,0.671,359.9
135749,148649,12518,0.019,-0.961,0.076,-0.244,0.427,0.549,359.906
135752,148569,38140,0.019,-0.962,0.074,-0.244,0.427,0.549,359.91
135752,148650,12513,0.018,-0.961,0.07,-0.549,0.549,0.61,359.916
135716,148569,38140,0.019,-0.963,0.068,-0.549,0.549,0.61,359.92
135716,148631,12520,0.016,-0.965,0.063,-0.549,0.61,0.732,359.926
135733,148569,38140,0.018,-0.967,0.068,-0.549,0.61,0.732,359.929
135733,148608,12503,0.018,-0.969,0.07,-0.549,0.427,0.671,359.936
135728,148569,38140,0.019,-0.967,0.069,-0.549,0.427,0.671,359.939
135728,148637,12505,0.021,-0.963,0.073,-0.427,0.122,0.61,359.945
135727,148569,38140,0.021,-0.965,0.071,-0.427,0.122,0.61,359.949
135727,148648,12503,0.023,-0.968,0.075,-0.427,0.244,0.366,359.955
135725,148569,38140,0.019,-0.97,0.072,-0.427,0.244,0.366,359.959
135725,148631,12491,0.018,-0.967,0.069,-0.732,0.366,0.244,359.965
135727,148569,38140,0.019,-0.964,0.065,-0.732,0.366,0.244,359.969
135727,148656,12521,0.018,-0.967,0.063,-1.037,0.488,0.122,359.975
135725,148569,38140,0.018,-0.963,0.063,-1.037,0.488,0.122,359.979
135725,148645,12495,0.018,-0.966,0.067,-0.61,0.305,-0.122,359.985
135730,148569,38140,0.021,-0.969,0.068,-0.61,0.305,-0.122,359.989
135730,148625,12519,0.021,-0.968,0.071,-0.244,0,-0.122,359.995
135742,148569,38140,0.021,-0.968,0.068,-0.244,0,-0.122,359.999
135742,148674,12485,0.023,-0.968,0.071,-0.305,0.122,-0.183,360.005
135740,148569,38140,0.021,-0.964,0.067,-0.305,0.122,-0.183,360.009
135740,148664,12501,0.021,-0.961,0.066,-0.488,0.427,-0.061,360.015
135760,148569,38140,0.024,-0.961,0.071,-0.488,0.427,-0.061,360.018
135760,148674,12504,0.025,-0.963,0.071,-0.183,0.244,-0.061,360.025
135753,148569,38140,0.024,-0.964,0.074,-0.183,0.244,-0.061,360.028
135753,148692,12512,0.026,-0.966,0.073,-0.305,0,0.122,360.035
135776,148569,38140,0.026,-0.966,0.073,-0.305,0,0.122,360.038
135776,148705,12507,0.026,-0.967,0.065,-0.854,0.671,0.244,360.044
135762,148569,38140,0.025,-0.965,0.062,-0.854,0.671,0.244,360.048
135762,148693,12530,0.023,-0.965,0.069,-0.549,0.854,0.366,360.054
135782,148569,38140,0.021,-0.966,0.07,-0.549,0.854,0.366,360.058
135782,148677,12503,0.018,-0.966,0.076,-0.244,0.366,0.732,360.064
135774,148569,38140,0.02,-0.963,0.072,-0.244,0.366,0.732,360.068
135774,148713,12508,0.021,-0.966,0.065,-0.427,0.183,0.671,360.074
135790,148569,38140,0.021,-0.966,0.065,-0.427,0.183,0.671,360.078
135790,148713,12523,0.019,-0.968,0.066,-0.488,0.549,0.305,360.084
135782,148569,38140,0.019,-0.968,0.066,-0.488,0.549,0.305,360.088
135782,148732,12521,0.022,-0.969,0.067,-0.061,0.427,0.244,360.094
135812,148825,38140,0.022,-0.969,0.067,-0.061,0.427,0.244,360.098
135812,148744,12514,0.027,-0.961,0.066,0.244,0,0.488,360.104
135848,148825,38140,0.027,-0.961,0.066,0.244,0,0.488,360.108
135848,148749,12513,0.027,-0.957,0.067,-0.061,0.427,0.61,360.114
135811,148825,38140,0.027,-0.957,0.067,-0.061,0.427,0.61,360.118
135811,148740,12515,0.023,-0.963,0.073,-0.244,0.854,0.732,360.124
135821,148825,38140,0.023,-0.963,0.073,-0.244,0.854,0.732,360.127
135821,148772,12524,0.023,-0.966,0.072,-0.122,0.732,1.098,360.134
135842,148825,38140,0.023,-0.966,0.072,-0.122,0.732,1.098,360.137
135842,148757,12521,0.017,-0.968,0.073,-0.183,0.854,1.159,360.143
135831,148825,38140,0.017,-0.968,0.073,-0.183,0.854,1.159,360.147
135831,148757,12511,0.013,-0.974,0.076,-0.122,0.915,0.915,360.153
135831,148569,38140,0.013,-0.974,0.076,-0.122,0.915,0.915,360.157
135831,148734,12519,0.014,-0.969,0.063,-0.183,0.915,0.793,360.163
135813,148825,38140,0.014,-0.969,0.063,-0.183,0.915,0.793,360.167
135813,148742,12536,0.014,-0.96,0.066,0.366,0.61,0.427,360.173
135804,148825,38140,0.014,-0.96,0.066,0.366,0.61,0.427,360.177
135804,148739,12525,0.018,-0.963,0.071,0.488,0,0.061,360.183
135838,148825,38140,0.018,-0.963,0.071,0.488,0,0.061,360.187
135838,148736,12527,0.019,-0.968,0.07,-0.183,0.183,-0.244,360.193
135838,148825,38140,0.019,-0.968,0.07,-0.183,0.183,-0.244,360.197
135838,148756,12510,0.022,-0.966,0.068,-0.61,0.244,-0.549,360.203
135839,148825,38140,0.022,-0.966,0.068,-0.61,0.244,-0.549,360.207
135839,148800,12525,0.024,-0.96,0.071,-0.488,-0.061,-0.427,360.213
135831,148825,38140,0.024,-0.96,0.071,-0.488,-0.061,-0.427,360.216
135831,148743,12518,0.026,-0.962,0.071,-0.488,-0.061,-0.427,360.223
135817,148825,38140,0.029,-0.961,0.074,-0.671,-0.122,-0.244,360.226
135817,148744,12522,0.027,-0.967,0.073,-0.671,-0.122,-0.244,360.233
135823,148825,38140,0.026,-0.969,0.072,-1.098,0.122,0.061,360.236
135823,148776,12505,0.025,-0.969,0.069,-1.098,0.122,0.061,360.242
135833,148825,38140,0.025,-0.968,0.067,-1.22,0.244,0.427,360.246
135833,148780,12524,0.024,-0.963,0.068,-1.22,0.244,0.427,360.252
135825,148825,38140,0.023,-0.962,0.065,-0.793,0.183,0.549,360.256
135825,148755,12534,0.023,-0.965,0.067,-0.793,0.183,0.549,360.262
135847,148825,38140,0.026,-0.966,0.071,-0.549,-0.183,0.671,360.266
135847,148783,12534,0.026,-0.968,0.068,-0.549,-0.183,0.671,360.272
135840,148825,38140,0.022,-0.966,0.068,-0.549,0.183,0.854,360.276
135840,148770,12517,0.022,-0.961,0.072,-0.549,0.183,0.854,360.282
135835,148825,38140,0.019,-0.962,0.074,-0.183,0.366,0.793,360.286
135835,148791,12528,0.02,-0.961,0.077,-0.183,0.366,0.793,360.292
135867,148825,38140,0.02,-0.962,0.075,-0.366,0,0.976,360.296
135867,148766,12515,0.02,-0.959,0.071,-0.366,0,0.976,360.302
135849,148825,38140,0.018,-0.965,0.07,-1.159,0.183,0.854,360.306
135849,148785,12515,0.016,-0.97,0.072,-1.159,0.183,0.854,360.312
135843,148825,38140,0.015,-0.971,0.066,-1.28,0.427,0.427,360.315
135843,148785,12523,0.014,-0.97,0.063,-1.28,0.427,0.427,360.322
135867,148825,38140,0.015,-0.964,0.064,-0.915,0.061,0.122,360.325
135867,148792,12528,0.015,-0.962,0.062,-0.915,0.061,0.122,360.332
135863,148825,38140,0.019,-0.961,0.06,-0.488,-0.183,-0.122,360.335
135863,148787,12523,0.02,-0.963,0.066,-0.488,-0.183,-0.122,360.341
135842,148825,38140,0.021,-0.972,0.065,-0.61,-0.122,-0.305,360.345
135842,148784,12531,0.022,-0.974,0.059,-0.61,-0.122,-0.305,360.351
135860,148825,38140,0.022,-0.973,0.063,-0.915,0.366,-0.244,360.355
135860,148776,12534,0.021,-0.973,0.059,-0.915,0.366,-0.244,360.361
135840,148825,38140,0.02,-0.972,0.061,-0.549,0.915,-0.244,360.365
135840,148799,12525,0.019,-0.973,0.066,-0.549,0.915,-0.244,360.371
135864,148825,38140,0.022,-0.97,0.068,0.732,0.488,-0.305,360.375
135864,148796,12532,0.027,-0.968,0.072,0.732,0.488,-0.305,360.381
135879,148825,38140,0.027,-0.961,0.072,1.159,0,-0.183,360.385
135879,148802,12533,0.026,-0.957,0.073,1.159,0,-0.183,360.391
135875,148825,38140,0.028,-0.959,0.072,0.915,0.427,-0.183,360.395
135875,148802,12515,0.026,-0.964,0.074,0.915,0.427,-0.183,360.401
135846,148825,38140,0.025,-0.962,0.071,0.061,0.671,0,360.405
135846,148803,12529,0.022,-0.963,0.069,0.061,0.671,0,360.411
135870,148825,38140,0.021,-0.964,0.07,-0.427,0.793,0.305,360.415
135870,148809,12525,0.024,-0.967,0.071,-0.427,0.793,0.305,360.421
135856,148825,38140,0.024,-0.968,0.069,-0.122,0.61,0.427,360.424
135856,148816,12546,0.023,-0.964,0.066,-0.122,0.61,0.427,360.431
135868,148825,38140,0.024,-0.962,0.066,0,0.366,0.61,360.434
135868,148820,12526,0.022,-0.963,0.064,0,0.366,0.61,360.44
135845,148825,38140,0.02,-0.961,0.066,0.305,0.366,0.488,360.444
135845,148778,12543,0.02,-0.962,0.071,0.305,0.366,0.488,360.45
135861,148825,38140,0.021,-0.963,0.071,0.305,0.427,0.61,360.454
135861,148797,12529,0.024,-0.963,0.072,0.305,0.427,0.61,360.46
135871,148825,38140,0.021,-0.963,0.068,0.122,0.488,0.549,360.464
135871,148802,12528,0.024,-0.965,0.067,0.122,0.488,0.549,360.47
135862,148825,38140,0.022,-0.963,0.07,0.061,0.549,0.61,360.474
135862,148789,12547,0.022,-0.962,0.07,0.061,0.549,0.61,360.48
135856,148825,38140,0.022,-0.96,0.073,0.244,0.61,0.488,360.484
135856,148783,12536,0.022,-0.963,0.077,0.244,0.61,0.488,360.49
135855,148825,38140,0.023,-0.964,0.075,-0.061,0.427,0.549,360.494
135855,148796,12526,0.023,-0.962,0.075,-0.061,0.427,0.549,360.5
135852,148825,38140,0.023,-0.964,0.074,-0.549,0.61,0.61,360.504
135852,148802,12538,0.021,-0.966,0.067,-0.549,0.61,0.61,360.51
135843,148825,38140,0.02,-0.969,0.068,-0.549,0.671,0.671,360.513
135843,148806,12528,0.018,-0.965,0.072,-0.549,0.671,0.671,360.52
135834,148825,38140,0.019,-0.963,0.068,-0.61,0.366,0.732,360.523
135834,148800,12544,0.021,-0.959,0.072,-0.61,0.366,0.732,360.53
135843,148825,38140,0.019,-0.962,0.066,-0.793,0.305,0.732,360.533
135843,148786,12525,0.02,-0.968,0.068,-0.793,0.305,0.732,360.539
135836,148825,38140,0.021,-0.972,0.071,-0.549,0.244,0.488,360.543
135836,148802,12534,0.021,-0.97,0.061,-0.549,0.244,0.488,360.549
135836,148825,38140,0.021,-0.97,0.062,-0.915,0.366,0.61,360.553
135836,148778,12534,0.018,-0.968,0.062,-0.915,0.366,0.61,360.559
135807,148825,38140,0.02,-0.969,0.067,-0.488,0.549,0.427,360.563
135807,148763,12528,0.02,-0.968,0.066,-0.488,0.549,0.427,360.569
135816,148825,38140,0.018,-0.965,0.069,-0.122,0.061,0.244,360.573
135816,148763,12522,0.019,-0.966,0.07,-0.122,0.061,0.244,360.579
135796,148825,38140,0.021,-0.966,0.064,-0.427,0.244,0.305,360.583
135796,148751,12537,0.021,-0.965,0.067,-0.427,0.244,0.305,360.589
135815,148825,38140,0.019,-0.967,0.069,-0.732,0.488,0,360.593
135815,148770,12529,0.022,-0.97,0.065,-0.732,0.488,0,360.599
135820,148825,38140,0.022,-0.967,0.067,-0.793,0.427,0,360.603
135820,148799,12542,0.02,-0.964,0.071,-0.793,0.427,0,360.609
135810,148825,38140,0.021,-0.963,0.073,-0.427,0,0.061,360.613
135810,148808,12543,0.025,-0.962,0.072,-0.427,0,0.061,360.619
135818,148825,38140,0.022,-0.961,0.071,-0.671,-0.061,0.061,360.622
135818,148757,12504,0.023,-0.965,0.071,-0.671,-0.061,0.061,360.629
135803,148825,38140,0.026,-0.968,0.065,-1.159,0.183,0.061,360.632
135803,148789,12536,0.025,-0.97,0.062,-1.159,0.183,0.061,360.638
135827,148825,38140,0.026,-0.97,0.059,-1.098,0.427,0.183,360.642
135827,148809,12544,0.024,-0.97,0.057,-1.098,0.427,0.183,360.648
135821,148825,38140,0.023,-0.967,0.055,-0.488,0.61,0.427,360.652
135821,148774,12533,0.021,-0.968,0.057,-0.488,0.61,0.427,360.658
135837,148825,38140,0.021,-0.967,0.059,0.183,0.366,0.427,360.662
135837,148784,12534,0.02,-0.965,0.064,0.183,0.366,0.427,360.668
135827,148825,38140,0.02,-0.965,0.064,0.183,0.366,0.427,360.672
135827,148800,12535,0.019,-0.964,0.071,0.488,0.122,0.488,360.678
135843,148825,38140,0.019,-0.964,0.071,0.488,0.122,0.488,360.682
135843,148782,12517,0.022,-0.964,0.071,0.305,0.244,0.305,360.688
135843,148825,38140,0.022,-0.964,0.071,0.305,0.244,0.305,360.692
135843,148804,12541,0.024,-0.965,0.073,0.427,0.366,0,360.698
135860,148825,38140,0.024,-0.965,0.073,0.427,0.366,0,360.702
135860,148816,12535,0.025,-0.966,0.07,0.366,0.305,0.122,360.708
135862,148825,38140,0.025,-0.966,0.07,0.366,0.305,0.122,360.711
135862,148854,12545,0.023,-0.963,0.067,-0.061,0.488,0.366,360.718
135848,148825,38140,0.023,-0.963,0.067,-0.061,0.488,0.366,360.721
135848,148827,12539,0.026,-0.964,0.069,-0.122,0.854,0.427,360.728
135868,148825,38140,0.026,-0.964,0.069,-0.122,0.854,0.427,360.731
135868,148815,12538,0.026,-0.96,0.076,0.244,0.427,0.488,360.737
135855,148825,38140,0.026,-0.96,0.076,0.244,0.427,0.488,360.741
135855,148827,12557,0.022,-0.96,0.073,-0.183,0.549,0.854,360.747
135860,148825,38140,0.022,-0.96,0.073,-0.183,0.549,0.854,360.751
135860,148828,12539,0.018,-0.963,0.067,-0.732,0.793,0.976,360.757
135870,148825,38140,0.018,-0.963,0.067,-0.732,0.793,0.976,360.761
135870,148792,12550,0.016,-0.964,0.06,-1.341,0.549,1.098,360.767
135843,148825,38140,0.016,-0.964,0.06,-1.341,0.549,1.098,360.771
135843,148790,12544,0.016,-0.969,0.063,-1.341,0.488,1.037,360.777
135839,148825,38140,0.016,-0.969,0.063,-1.341,0.488,1.037,360.781
135839,148823,12549,0.015,-0.961,0.067,-0.915,0.244,0.793,360.787
135875,148825,38140,0.015,-0.961,0.067,-0.915,0.244,0.793,360.791
135875,148809,12538,0.022,-0.964,0.076,-0.793,-0.061,0.488,360.797
135838,148825,38140,0.022,-0.964,0.076,-0.793,-0.061,0.488,360.801
135838,148798,12539,0.025,-0.966,0.071,-1.037,-0.305,-0.061,360.807
135852,148825,38140,0.025,-0.966,0.071,-1.037,-0.305,-0.061,360.81
135852,148816,12535,0.024,-0.969,0.068,-1.585,-0.183,-0.122,360.817
135836,148825,38140,0.023,-0.969,0.063,-1.585,-0.183,-0.122,360.82
135836,148801,12538,0.025,-0.968,0.066,-1.768,-0.061,0,360.827
135854,148825,38140,0.026,-0.964,0.065,-1.768,-0.061,0,360.83
135854,148826,12543,0.023,-0.962,0.065,-1.524,-0.183,0.183,360.836
135848,148825,38140,0.024,-0.96,0.068,-1.524,-0.183,0.183,360.84
135848,148802,12546,0.025,-0.966,0.075,-1.463,-0.427,0.183,360.846
135829,148825,38140,0.024,-0.969,0.077,-1.463,-0.427,0.183,360.85
135829,148809,12544,0.025,-0.965,0.067,-1.951,-0.305,0.427,360.856
135840,148825,38140,0.026,-0.959,0.065,-1.951,-0.305,0.427,360.86
135840,148799,12549,0.027,-0.96,0.067,-2.256,-0.305,0.549,360.866
135848,148825,38140,0.025,-0.961,0.067,-2.256,-0.305,0.549,360.87
135848,148810,12536,0.022,-0.957,0.067,-2.134,-0.61,0.854,360.876
135851,148825,38140,0.021,-0.959,0.064,-2.134,-0.61,0.854,360.88
135851,148790,12535,0.021,-0.961,0.064,-2.439,-0.671,1.037,360.886
135836,148825,38140,0.019,-0.964,0.065,-2.439,-0.671,1.037,360.89
135836,148792,12534,0.02,-0.963,0.065,-2.744,-0.61,0.915,360.896
135834,148825,38140,0.021,-0.967,0.066,-2.744,-0.61,0.915,360.9
135834,148775,12543,0.022,-0.967,0.064,-2.988,-0.549,0.854,360.906
135824,148825,38140,0.02,-0.967,0.063,-2.988,-0.549,0.854,360.909
135824,148794,12537,0.021,-0.966,0.061,-2.683,-0.671,0.854,360.916
135845,148825,38140,0.02,-0.968,0.06,-2.683,-0.671,0.854,360.919
135845,148818,12542,0.017,-0.969,0.059,-2.012,-0.854,0.549,360.926
135848,148825,38140,0.019,-0.972,0.06,-2.012,-0.854,0.549,360.929
135848,148811,12535,0.018,-0.972,0.061,-1.524,-0.671,0.183,360.935
135863,148825,38140,0.018,-0.969,0.055,-1.524,-0.671,0.183,360.939
135863,148820,12546,0.022,-0.963,0.054,-1.098,-0.305,-0.061,360.945
135836,148825,38140,0.022,-0.961,0.059,-1.098,-0.305,-0.061,360.949
135836,148817,12554,0.024,-0.969,0.07,-0.366,-0.732,-0.244,360.955
135841,148825,38140,0.028,-0.968,0.064,-0.366,-0.732,-0.244,360.959
135841,148813,12530,0.033,-0.967,0.066,-0.244,-0.61,-0.183,360.965
135844,148825,38140,0.026,-0.969,0.072,-0.244,-0.61,-0.183,360.969
135844,148807,12540,0.023,-0.969,0.064,-0.854,0.61,0.183,360.975
135872,148825,38140,0.026,-0.969,0.063,-0.854,0.61,0.183,360.979
135872,148815,12534,0.023,-0.964,0.07,-0.244,0.366,0.488,360.985
135833,148825,38140,0.021,-0.958,0.072,-0.244,0.366,0.488,360.989
135833,148838,12551,0.024,-0.952,0.063,0.122,-0.244,0.732,360.995
135849,148825,38140,0.024,-0.953,0.064,0.122,-0.244,0.732,360.999
135849,148802,12549,0.023,-0.961,0.066,-0.305,0,0.488,361.005
135860,148825,38140,0.024,-0.964,0.061,-0.305,0,0.488,361.008
135860,148855,12544,0.02,-0.963,0.059,-0.976,0.244,0.549,361.015
135835,148825,38140,0.019,-0.96,0.059,-0.976,0.244,0.549,361.018
135835,148797,12544,0.019,-0.958,0.056,-1.707,0.305,0.61,361.025
135830,148825,38140,0.023,-0.964,0.054,-1.707,0.305,0.61,361.028
135830,148820,12555,0.024,-0.971,0.051,-1.524,-0.061,0.793,361.034
135847,148825,38140,0.025,-0.979,0.048,-1.524,-0.061,0.793,361.038
135847,148820,12552,0.022,-0.979,0.05,-0.915,0.305,1.098,361.044
135863,148825,38140,0.019,-0.977,0.057,-0.915,0.305,1.098,361.048
135863,148837,12552,0.016,-0.973,0.058,0.366,0.488,1.28,361.054
135850,148825,38140,0.015,-0.97,0.062,0.366,0.488,1.28,361.058
135850,148844,12550,0.015,-0.967,0.065,1.28,0.244,1.341,361.064
135831,148825,38140,0.015,-0.964,0.066,1.28,0.244,1.341,361.068
135831,148807,12532,0.012,-0.962,0.063,0.976,0.488,0.976,361.074
135792,148825,38140,0.011,-0.964,0.068,0.976,0.488,0.976,361.078
135792,148786,12548,0.016,-0.972,0.066,0.122,0.427,0.732,361.084
135803,148825,38140,0.012,-0.971,0.063,0.122,0.427,0.732,361.088
135803,148765,12540,0.012,-0.967,0.065,-0.244,0.366,0.854,361.094
135784,148825,38140,0.016,-0.96,0.069,-0.244,0.366,0.854,361.098
135784,148804,12544,0.019,-0.959,0.071,0.122,0.244,0.305,361.104
135793,148825,38140,0.019,-0.955,0.072,0.122,0.244,0.305,361.108
135793,148792,12533,0.02,-0.96,0.072,-0.366,-0.488,0.305,361.114
135775,148825,38140,0.023,-0.962,0.069,-0.366,-0.488,0.305,361.117
135775,148767,12538,0.021,-0.967,0.069,-1.463,-0.061,0.305,361.124
135782,148825,38140,0.017,-0.969,0.064,-1.463,-0.061,0.305,361.127
135782,148774,12510,0.017,-0.969,0.056,-1.951,0.793,0,361.133
135766,148825,38140,0.016,-0.964,0.059,-1.951,0.793,0,361.137
135766,148777,12556,0.017,-0.962,0.064,-1.402,0.122,0.122,361.143
135787,148825,38140,0.018,-0.961,0.067,-1.402,0.122,0.122,361.147
135787,148739,12529,0.021,-0.962,0.063,-0.915,-0.671,0.061,361.153
135753,148825,38140,0.023,-0.961,0.065,-0.915,-0.671,0.061,361.157
135753,148750,12540,0.022,-0.964,0.063,-1.341,-0.061,-0.183,361.163
135726,148825,38140,0.019,-0.968,0.06,-1.341,-0.061,-0.183,361.167
135726,148747,12524,0.019,-0.971,0.061,-1.707,0.671,-0.305,361.173
135692,148825,38140,0.016,-0.967,0.064,-1.707,0.671,-0.305,361.177
135692,148763,12528,0.015,-0.969,0.063,-1.707,0.488,-0.244,361.183
135722,148569,38140,0.017,-0.972,0.067,-1.707,0.488,-0.244,361.187
135722,148714,12534,0.019,-0.971,0.064,-1.707,0.061,-0.488,361.193
135682,148569,38140,0.018,-0.968,0.056,-1.707,0.061,-0.488,361.197
135682,148714,12519,0.02,-0.966,0.061,-1.89,0.061,-0.61,361.203
135666,148569,38140,0.023,-0.969,0.061,-1.89,0.061,-0.61,361.206
135666,148709,12512,0.022,-0.969,0.056,-1.585,-0.122,-0.732,361.213
135671,148569,38140,0.024,-0.968,0.054,-1.585,-0.122,-0.732,361.216
135671,148731,12522,0.025,-0.966,0.052,-1.402,-0.122,-0.671,361.223
135695,148569,38140,0.024,-0.968,0.053,-1.402,-0.122,-0.671,361.226
135695,148706,12507,0.025,-0.968,0.057,-1.037,0.183,-0.732,361.232
135656,148569,38140,0.026,-0.967,0.059,-1.037,0.183,-0.732,361.236
135656,148699,12509,0.026,-0.965,0.057,-0.976,0.183,-0.427,361.242
135661,148569,38140,0.026,-0.969,0.061,-0.976,0.183,-0.427,361.246
135661,148694,12499,0.025,-0.971,0.06,-0.793,0,-0.122,361.252
135619,148569,38140,0.025,-0.971,0.06,-0.793,0,-0.122,361.256
135619,148718,12520,0.024,-0.971,0.059,-0.488,0.061,-0.122,361.262
135622,148569,38140,0.024,-0.971,0.059,-0.488,0.061,-0.122,361.266
135622,148662,12503,0.025,-0.965,0.054,-0.122,0.061,-0.061,361.272
135585,148569,38140,0.025,-0.965,0.054,-0.122,0.061,-0.061,361.276
135585,148660,12520,0.027,-0.962,0.057,0.427,-0.061,0.122,361.282
135584,148569,38140,0.027,-0.962,0.057,0.427,-0.061,0.122,361.286
135584,148654,12488,0.029,-0.964,0.054,0.366,0.061,0.488,361.292
135559,148569,38140,0.029,-0.964,0.054,0.366,0.061,0.488,361.296
135559,148638,12501,0.028,-0.962,0.056,0.366,0.732,0.793,361.302
135570,148569,38140,0.028,-0.962,0.056,0.366,0.732,0.793,361.305
135570,148657,12498,0.028,-0.96,0.06,0.793,1.037,0.976,361.312
135568,148569,38140,0.028,-0.96,0.06,0.793,1.037,0.976,361.315
135568,148647,12504,0.027,-0.956,0.071,0.915,0.671,1.402,361.322
135557,148569,38140,0.027,-0.956,0.071,0.915,0.671,1.402,361.325
135557,148633,12499,0.025,-0.961,0.073,-0.061,0.793,1.585,361.331
135557,148569,38140,0.025,-0.961,0.073,-0.061,0.793,1.585,361.335
135557,148630,12511,0.021,-0.966,0.066,-1.28,1.402,1.585,361.341
135549,148569,38140,0.021,-0.966,0.066,-1.28,1.402,1.585,361.345
135549,148637,12496,0.019,-0.967,0.063,-1.585,1.037,1.707,361.351
135558,148569,38140,0.019,-0.967,0.063,-1.585,1.037,1.707,361.355
135558,148632,12509,0.019,-0.962,0.059,-1.402,0.549,1.768,361.361
135581,148569,38140,0.019,-0.962,0.059,-1.402,0.549,1.768,361.365
135581,148686,12519,0.021,-0.962,0.059,-0.793,0.427,1.037,361.371
135585,148569,38140,0.021,-0.962,0.059,-0.793,0.427,1.037,361.375
135585,148650,12503,0.02,-0.971,0.05,-0.366,0.671,0.549,361.381
135585,148569,38140,0.02,-0.971,0.05,-0.366,0.671,0.549,361.385
135585,148645,12510,0.021,-0.973,0.052,0,0.793,0.427,361.391
135577,148569,38140,0.021,-0.973,0.052,0,0.793,0.427,361.395
135577,148661,12498,0.018,-0.975,0.054,0,0.793,0.427,361.401
135555,148569,38140,0.02,-0.971,0.056,0.488,0.732,0.549,361.404
135555,148648,12501,0.02,-0.968,0.055,0.488,0.732,0.549,361.411
135565,148569,38140,0.021,-0.966,0.055,0.61,0.488,0.732,361.414
135565,148657,12497,0.021,-0.967,0.056,0.61,0.488,0.732,361.421
135558,148569,38140,0.022,-0.968,0.061,0.793,0.366,0.61,361.424
135558,148632,12489,0.026,-0.967,0.061,0.793,0.366,0.61,361.43
135534,148569,38140,0.023,-0.964,0.061,0.549,0.366,0.793,361.434
135534,148608,12486,0.022,-0.959,0.061,0.549,0.366,0.793,361.44
135534,148569,38140,0.023,-0.957,0.063,0.122,0.427,0.976,361.444
135534,148643,12482,0.021,-0.956,0.071,0.122,0.427,0.976,361.45
135528,148569,38140,0.018,-0.959,0.065,-0.488,0.488,1.037,361.454
135528,148625,12502,0.02,-0.967,0.06,-0.488,0.488,1.037,361.46
135527,148569,38140,0.018,-0.967,0.058,-1.098,0.61,0.976,361.464
135527,148607,12493,0.016,-0.969,0.057,-1.098,0.61,0.976,361.47
135532,148569,38140,0.014,-0.969,0.052,-1.037,0.732,0.976,361.474
135532,148635,12490,0.018,-0.969,0.052,-1.037,0.732,0.976,361.48
135549,148569,38140,0.017,-0.969,0.051,-0.244,0.427,0.976,361.484
135549,148638,12504,0.017,-0.97,0.05,-0.244,0.427,0.976,361.49
135539,148569,38140,0.016,-0.97,0.053,0.61,0.305,0.732,361.494
135539,148622,12489,0.016,-0.974,0.058,0.61,0.305,0.732,361.5
135540,148569,38140,0.016,-0.974,0.05,0.854,0.488,0.61,361.503
135540,148641,12501,0.013,-0.97,0.049,0.854,0.488,0.61,361.51
135549,148569,38140,0.013,-0.968,0.053,1.22,0.488,0.61,361.513
135549,148656,12495,0.016,-0.974,0.054,1.22,0.488,0.61,361.52
135566,148569,38140,0.016,-0.972,0.06,1.951,0.366,0.366,361.523
135566,148623,12494,0.016,-0.97,0.061,1.951,0.366,0.366,361.529
135539,148569,38140,0.017,-0.965,0.06,1.951,0.305,0.244,361.533
135539,148633,12502,0.014,-0.964,0.059,1.951,0.305,0.244,361.539
135568,148569,38140,0.014,-0.96,0.061,1.585,0.61,-0.122,361.543
135568,148642,12506,0.016,-0.966,0.064,1.585,0.61,-0.122,361.549
135567,148569,38140,0.014,-0.968,0.064,1.524,0.915,-0.549,361.553
135567,148661,12497,0.016,-0.967,0.067,1.524,0.915,-0.549,361.559
135576,148569,38140,0.017,-0.964,0.067,1.402,0.854,-0.61,361.563
135576,148666,12490,0.021,-0.962,0.066,1.402,0.854,-0.61,361.569
135584,148569,38140,0.024,-0.961,0.068,0.976,0.854,-0.671,361.573
135584,148658,12509,0.022,-0.965,0.066,0.976,0.854,-0.671,361.579
135597,148569,38140,0.022,-0.967,0.067,0.488,1.037,-0.732,361.583
135597,148681,12506,0.023,-0.969,0.066,0.488,1.037,-0.732,361.589
135575,148569,38140,0.023,-0.968,0.065,0.244,1.037,-0.488,361.593
135575,148645,12507,0.027,-0.966,0.065,0.244,1.037,-0.488,361.599
135569,148569,38140,0.026,-0.966,0.06,0.244,0.976,-0.305,361.602
135569,148658,12504,0.023,-0.969,0.06,0.244,0.976,-0.305,361.609
135539,148569,38140,0.022,-0.971,0.062,0.427,1.159,-0.061,361.612
135539,148636,12490,0.022,-0.973,0.062,0.427,1.159,-0.061,361.619
135543,148569,38140,0.019,-0.972,0.055,1.037,1.098,0,361.622
135543,148618,12498,0.019,-0.972,0.056,1.037,1.098,0,361.628
135520,148569,38140,0.023,-0.969,0.056,1.524,1.037,0.122,361.632
135520,148618,12500,0.021,-0.967,0.059,1.524,1.037,0.122,361.638
135535,148569,38140,0.021,-0.966,0.062,2.073,1.037,0,361.642
135535,148621,12495,0.02,-0.961,0.067,2.073,1.037,0,361.648
135538,148569,38140,0.019,-0.958,0.071,2.195,0.732,0.061,361.652
135538,148619,12486,0.023,-0.956,0.074,2.195,0.732,0.061,361.658
135544,148569,38140,0.027,-0.958,0.076,1.768,0.732,0,361.662
135544,148636,12491,0.023,-0.96,0.075,1.768,0.732,0,361.668
135556,148569,38140,0.022,-0.96,0.075,0.915,0.915,0,361.672
135556,148642,12500,0.025,-0.96,0.067,0.915,0.915,0,361.678
135550,148569,38140,0.02,-0.959,0.07,0.122,1.037,0.366,361.682
135550,148628,12492,0.022,-0.956,0.07,0.122,1.037,0.366,361.688
135543,148569,38140,0.021,-0.962,0.071,-0.061,0.732,0.427,361.692
135543,148631,12505,0.024,-0.965,0.068,-0.061,0.732,0.427,361.698
135553,148569,38140,0.023,-0.969,0.066,-0.244,0.488,0.305,361.701
135553,148632,12489,0.023,-0.967,0.068,-0.244,0.488,0.305,361.708
135540,148569,38140,0.023,-0.965,0.063,-0.122,0.61,0.305,361.711
135540,148604,12496,0.023,-0.963,0.061,-0.122,0.61,0.305,361.718
135518,148569,38140,0.024,-0.96,0.063,0,0.427,0.427,361.721
135518,148597,12503,0.025,-0.957,0.06,0,0.427,0.427,361.727
135530,148569,38140,0.025,-0.955,0.069,0.244,0.183,0.427,361.731
135530,148571,12494,0.024,-0.961,0.075,0.244,0.183,0.427,361.737
135526,148569,38140,0.027,-0.966,0.07,-0.427,0.366,0.549,361.741
135526,148618,12491,0.025,-0.969,0.068,-0.427,0.366,0.549,361.747
135522,148569,38140,0.02,-0.969,0.07,-1.159,0.732,0.671,361.751
135522,148617,12485,0.019,-0.968,0.073,-1.159,0.732,0.671,361.757
135541,148569,38140,0.019,-0.961,0.069,-1.098,0.427,0.732,361.761
135541,148613,12490,0.019,-0.959,0.074,-1.098,0.427,0.732,361.767
135528,148569,38140,0.021,-0.96,0.072,-1.463,-0.061,0.732,361.771
135528,148620,12503,0.02,-0.962,0.069,-1.463,-0.061,0.732,361.777
135533,148569,38140,0.022,-0.964,0.068,-2.012,-0.061,0.671,361.781
135533,148627,12497,0.023,-0.967,0.063,-2.012,-0.061,0.671,361.787
135551,148569,38140,0.023,-0.965,0.056,-2.683,0.305,0.671,361.791
135551,148623,12491,0.022,-0.968,0.052,-2.683,0.305,0.671,361.797
135561,148569,38140,0.018,-0.976,0.054,-2.378,0.61,0.671,361.8
135561,148601,12481,0.02,-0.978,0.058,-2.378,0.61,0.671,361.807
135536,148569,38140,0.022,-0.976,0.058,-1.768,0.305,0.854,361.81
135536,148627,12492,0.02,-0.967,0.058,-1.768,0.305,0.854,361.817
135574,148569,38140,0.022,-0.967,0.061,-1.28,0.244,0.976,361.82
135574,148617,12500,0.021,-0.968,0.061,-1.28,0.244,0.976,361.826
135564,148569,38140,0.021,-0.974,0.059,-0.915,0.488,0.671,361.83
135564,148604,12494,0.017,-0.971,0.058,-0.915,0.488,0.671,361.836
135549,148569,38140,0.017,-0.971,0.058,-0.915,0.488,0.671,361.84
135549,148600,12487,0.017,-0.963,0.057,-0.488,0.549,0.549,361.846
135542,148569,38140,0.017,-0.963,0.057,-0.488,0.549,0.549,361.85
135542,148618,12510,0.024,-0.955,0.057,-0.549,0.244,0.305,361.856
135549,148569,38140,0.024,-0.955,0.057,-0.549,0.244,0.305,361.86
135549,148618,12497,0.024,-0.975,0.057,-1.098,0.244,0.427,361.866
135557,148569,38140,0.024,-0.975,0.057,-1.098,0.244,0.427,361.87
135557,148606,12492,0.018,-0.977,0.058,-0.122,0.793,0.366,361.876
135553,148569,38140,0.018,-0.977,0.058,-0.122,0.793,0.366,361.88
135553,148618,12509,0.018,-0.958,0.058,0.488,0.732,0.549,361.886
135562,148569,38140,0.018,-0.958,0.058,0.488,0.732,0.549,361.89
135562,148638,12503,0.025,-0.958,0.052,1.463,0.183,0.671,361.896
135600,148569,38140,0.025,-0.958,0.052,1.463,0.183,0.671,361.899
135600,148633,12508,0.021,-0.967,0.061,1.463,0.305,0.427,361.906
135602,148569,38140,0.021,-0.967,0.061,1.463,0.305,0.427,361.909
135602,148659,12514,0.02,-0.969,0.062,1.098,0.915,0.549,361.915
135597,148569,38140,0.02,-0.969,0.062,1.098,0.915,0.549,361.919
135597,148686,12504,0.016,-0.969,0.07,1.098,1.037,0.793,361.925
135608,148569,38140,0.016,-0.969,0.07,1.098,1.037,0.793,361.929
135608,148641,12504,0.017,-0.964,0.07,1.22,0.793,0.976,361.935
135616,148569,38140,0.017,-0.964,0.07,1.22,0.793,0.976,361.939
135616,148684,12518,0.017,-0.96,0.068,1.341,0.549,0.732,361.945
135624,148569,38140,0.017,-0.96,0.068,1.341,0.549,0.732,361.949
135624,148669,12508,0.02,-0.959,0.067,0.915,0.366,0.366,361.955
135624,148569,38140,0.02,-0.959,0.067,0.915,0.366,0.366,361.959
135624,148642,12515,0.019,-0.974,0.064,0.366,0.488,-0.061,361.965
135638,148569,38140,0.019,-0.974,0.064,0.366,0.488,-0.061,361.969
135638,148669,12514,0.019,-0.972,0.061,0,0.854,-0.183,361.975
135640,148569,38140,0.019,-0.972,0.061,0,0.854,-0.183,361.979
135640,148673,12514,0.022,-0.968,0.061,0.427,0.854,-0.183,361.985
135650,148569,38140,0.022,-0.967,0.064,0.427,0.854,-0.183,361.989
135650,148691,12499,0.024,-0.964,0.068,1.037,0.366,-0.122,361.995
135643,148569,38140,0.027,-0.963,0.068,1.037,0.366,-0.122,361.998
135643,148681,12526,0.028,-0.963,0.067,1.341,0.244,0.061,362.005
135643,148569,38140,0.026,-0.958,0.07,1.341,0.244,0.061,362.008
135643,148680,12510,0.027,-0.958,0.072,0.976,0.427,0.305,362.014
135616,148569,38140,0.026,-0.96,0.074,0.976,0.427,0.305,362.018
135616,148669,12511,0.023,-0.964,0.069,0.366,0.61,0.61,362.024
135617,148569,38140,0.021,-0.965,0.066,0.366,0.61,0.61,362.028
135617,148655,12503,0.017,-0.964,0.062,-0.061,0.793,0.854,362.034
135608,148569,38140,0.018,-0.961,0.067,-0.061,0.793,0.854,362.038
135608,148649,12495,0.018,-0.962,0.067,0,0.671,0.854,362.044
135587,148569,38140,0.021,-0.963,0.063,0,0.671,0.854,362.048
135587,148650,12500,0.019,-0.966,0.065,-0.183,0.244,0.732,362.054
135588,148569,38140,0.017,-0.967,0.064,-0.183,0.244,0.732,362.058
135588,148665,12498,0.015,-0.968,0.065,-0.366,0.244,0.61,362.064
135615,148569,38140,0.021,-0.965,0.06,-0.366,0.244,0.61,362.068
135615,148630,12518,0.015,-0.965,0.065,-0.366,0.244,0.427,362.074
135627,148569,38140,0.018,-0.97,0.062,-0.366,0.244,0.427,362.078
135627,148687,12483,0.022,-0.973,0.067,-0.244,0.122,0.305,362.084
135577,148569,38140,0.019,-0.973,0.067,-0.244,0.122,0.305,362.088
135577,148662,12515,0.018,-0.97,0.063,-0.366,0.244,0,362.094
135591,148569,38140,0.018,-0.972,0.061,-0.366,0.244,0,362.097
135591,148667,12497,0.017,-0.973,0.062,-0.122,0.427,-0.061,362.104
135598,148569,38140,0.02,-0.97,0.065,-0.122,0.427,-0.061,362.107
135598,148696,12514,0.019,-0.966,0.065,0.61,0.183,-0.061,362.113
135603,148569,38140,0.021,-0.96,0.071,0.61,0.183,-0.061,362.117
135603,148702,12494,0.021,-0.958,0.074,0.793,0.061,-0.183,362.123
135607,148569,38140,0.021,-0.961,0.069,0.793,0.061,-0.183,362.127
135607,148687,12510,0.022,-0.964,0.071,0.488,0.305,-0.244,362.133
135632,148569,38140,0.02,-0.966,0.071,0.488,0.305,-0.244,362.137
135632,148683,12505,0.017,-0.966,0.067,0.061,0.305,-0.183,362.143
135620,148569,38140,0.016,-0.964,0.067,0.061,0.305,-0.183,362.147
135620,148701,12504,0.017,-0.964,0.06,-0.183,0.305,-0.244,362.153
135647,148569,38140,0.021,-0.96,0.06,-0.183,0.305,-0.244,362.157
135647,148713,12511,0.022,-0.96,0.067,-0.305,0.061,-0.366,362.163
135643,148569,38140,0.023,-0.958,0.07,-0.305,0.061,-0.366,362.167
135643,148724,12506,0.024,-0.96,0.071,-0.61,-0.305,-0.366,362.173
135676,148569,38140,0.028,-0.959,0.07,-0.61,-0.305,-0.366,362.177
135676,148716,12526,0.026,-0.965,0.066,-1.402,-0.061,-0.244,362.183
135651,148569,38140,0.025,-0.969,0.065,-1.402,-0.061,-0.244,362.187
135651,148704,12509,0.024,-0.971,0.063,-1.707,0.61,0,362.193
135631,148569,38140,0.021,-0.974,0.061,-1.707,0.61,0,362.196
135631,148731,12511,0.02,-0.968,0.063,-1.341,0.61,0.244,362.203
135659,148569,38140,0.023,-0.961,0.06,-1.341,0.61,0.244,362.206
135659,148706,12512,0.025,-0.959,0.063,-0.427,-0.183,0.244,362.212
135660,148569,38140,0.028,-0.96,0.063,-0.427,-0.183,0.244,362.216
135660,148711,12509,0.027,-0.964,0.066,-0.183,-0.427,0.366,362.222
135665,148569,38140,0.026,-0.966,0.061,-0.183,-0.427,0.366,362.226
135665,148708,12516,0.026,-0.967,0.058,-0.427,0.427,0.549,362.232
135665,148569,38140,0.022,-0.966,0.063,-0.427,0.427,0.549,362.236
135665,148719,12514,0.022,-0.964,0.067,0.122,0.549,0.915,362.242
135655,148569,38140,0.023,-0.966,0.067,0.122,0.549,0.915,362.246
135655,148707,12509,0.024,-0.963,0.068,0.488,0.122,1.098,362.252
135688,148569,38140,0.022,-0.961,0.068,0.488,0.122,1.098,362.256
135688,148727,12521,0.023,-0.962,0.069,0.244,0.305,1.037,362.262
135686,148825,38140,0.02,-0.958,0.067,0.244,0.305,1.037,362.266
135686,148741,12503,0.022,-0.963,0.069,-0.061,0.366,1.037,362.272
135680,148569,38140,0.02,-0.964,0.068,-0.061,0.366,1.037,362.276
135680,148722,12521,0.016,-0.97,0.067,-0.183,0.427,1.22,362.282
135670,148569,38140,0.017,-0.97,0.066,-0.183,0.427,1.22,362.285
135670,148690,12538,0.016,-0.968,0.063,-0.488,0.732,1.098,362.292
135679,148569,38140,0.014,-0.967,0.057,-0.488,0.732,1.098,362.295
135679,148717,12532,0.018,-0.964,0.055,-0.244,0.61,0.793,362.302
135700,148569,38140,0.018,-0.968,0.063,-0.244,0.61,0.793,362.305
135700,148703,12511,0.017,-0.969,0.074,0.305,0,0.549,362.311
135699,148569,38140,0.02,-0.963,0.068,0.305,0,0.549,362.315
135699,148709,12529,0.022,-0.959,0.057,-0.061,-0.122,0.671,362.321
135680,148569,38140,0.02,-0.967,0.057,-0.061,-0.122,0.671,362.325
135680,148723,12514,0.018,-0.971,0.064,0.061,0.671,0.366,362.331
135661,148569,38140,0.016,-0.968,0.067,0.061,0.671,0.366,362.335
135661,148719,12511,0.012,-0.963,0.057,0.122,1.037,0.183,362.341
135670,148569,38140,0.015,-0.964,0.062,0.122,1.037,0.183,362.345
135670,148699,12510,0.024,-0.969,0.074,0.427,0.244,-0.061,362.351
135655,148569,38140,0.024,-0.966,0.072,0.427,0.244,-0.061,362.355
135655,148711,12516,0.024,-0.967,0.066,0,0.244,-0.244,362.361
135645,148569,38140,0.023,-0.97,0.068,0,0.244,-0.244,362.365
135645,148705,12520,0.022,-0.969,0.067,-0.549,0.915,-0.061,362.371
135665,148569,38140,0.02,-0.969,0.062,-0.549,0.915,-0.061,362.375
135665,148710,12515,0.019,-0.966,0.062,-0.427,0.915,0.061,362.381
135672,148569,38140,0.017,-0.965,0.064,-0.427,0.915,0.061,362.384
135672,148696,12497,0.016,-0.964,0.061,-0.366,0.549,0.244,362.391
135658,148569,38140,0.015,-0.966,0.059,-0.366,0.549,0.244,362.394
135658,148729,12515,0.018,-0.969,0.064,-0.183,0.427,0,362.401
135674,148825,38140,0.018,-0.972,0.061,-0.183,0.427,0,362.404
135674,148742,12522,0.021,-0.972,0.056,0.122,0.366,-0.244,362.41
135672,148569,38140,0.021,-0.972,0.056,0.122,0.366,-0.244,362.414
135672,148702,12527,0.019,-0.964,0.062,0.549,0.427,-0.366,362.42
135677,148825,38140,0.019,-0.964,0.062,0.549,0.427,-0.366,362.424
135677,148743,12525,0.025,-0.961,0.07,0.732,0.061,-0.366,362.43
135669,148569,38140,0.025,-0.961,0.07,0.732,0.061,-0.366,362.434
135669,148722,12518,0.025,-0.957,0.068,0.305,-0.061,-0.122,362.44
135691,148569,38140,0.025,-0.957,0.068,0.305,-0.061,-0.122,362.444
135691,148728,12519,0.026,-0.966,0.066,-0.244,0.366,-0.061,362.45
135662,148569,38140,0.026,-0.966,0.066,-0.244,0.366,-0.061,362.454
135662,148706,12527,0.024,-0.969,0.066,-0.061,0.854,0.244,362.46
135676,148825,38140,0.024,-0.969,0.066,-0.061,0.854,0.244,362.464
135676,148741,12518,0.023,-0.967,0.071,0.427,0.915,0.61,362.47
135680,148569,38140,0.023,-0.967,0.071,0.427,0.915,0.61,362.474
135680,148724,12504,0.022,-0.965,0.067,0.488,0.854,0.793,362.48
135656,148825,38140,0.022,-0.965,0.067,0.488,0.854,0.793,362.483
135656,148744,12505,0.019,-0.969,0.064,0.061,1.28,0.732,362.49
135688,148569,38140,0.019,-0.969,0.064,0.061,1.28,0.732,362.493
135688,148724,12523,0.018,-0.967,0.063,0.183,1.402,0.732,362.5
135684,148825,38140,0.018,-0.967,0.063,0.183,1.402,0.732,362.503
135684,148769,12513,0.021,-0.965,0.067,0.488,0.488,0.915,362.509
135687,148825,38140,0.021,-0.965,0.067,0.488,0.488,0.915,362.513
135687,148754,12525,0.02,-0.962,0.062,0,0.488,0.549,362.519
135682,148569,38140,0.02,-0.962,0.062,0,0.488,0.549,362.523
135682,148704,12521,0.018,-0.965,0.062,-0.366,0.976,0.366,362.529
135671,148825,38140,0.018,-0.965,0.062,-0.366,0.976,0.366,362.533
135671,148745,12514,0.023,-0.962,0.065,-0.244,0.671,0.366,362.539
135673,148569,38140,0.023,-0.962,0.065,-0.244,0.671,0.366,362.543
135673,148722,12495,0.026,-0.966,0.071,-0.366,0.671,0.488,362.549
135667,148569,38140,0.026,-0.966,0.071,-0.366,0.671,0.488,362.553
135667,148731,12510,0.025,-0.967,0.07,-0.366,0.671,0.488,362.559
135672,148569,38140,0.023,-0.968,0.069,-0.427,0.854,0.671,362.563
135672,148721,12490,0.026,-0.964,0.068,-0.427,0.854,0.671,362.569
135660,148825,38140,0.024,-0.96,0.068,-0.366,0.671,0.976,362.573
135660,148757,12508,0.023,-0.961,0.07,-0.366,0.671,0.976,362.579
135660,148825,38140,0.025,-0.962,0.075,0.061,0.488,0.854,362.582
135660,148762,12502,0.021,-0.964,0.075,0.061,0.488,0.854,362.589
135649,148569,38140,0.022,-0.963,0.073,-0.305,0.61,0.732,362.592
135649,148711,12516,0.019,-0.962,0.07,-0.305,0.61,0.732,362.599
135672,148825,38140,0.017,-0.962,0.069,-1.098,0.793,1.037,362.602
135672,148767,12522,0.021,-0.964,0.073,-1.098,0.793,1.037,362.608
135675,148825,38140,0.018,-0.965,0.07,-1.098,0.61,0.976,362.612
135675,148748,12506,0.018,-0.962,0.068,-1.098,0.61,0.976,362.618
135681,148825,38140,0.017,-0.966,0.07,-1.22,0.305,1.037,362.622
135681,148748,12494,0.016,-0.963,0.067,-1.22,0.305,1.037,362.628
135627,148825,38140,0.016,-0.964,0.064,-1.341,0.244,0.854,362.632
135627,148744,12518,0.017,-0.966,0.063,-1.341,0.244,0.854,362.638
135668,148825,38140,0.015,-0.969,0.062,-1.159,0,0.427,362.642
135668,148761,12523,0.015,-0.974,0.06,-1.159,0,0.427,362.648
135672,148825,38140,0.018,-0.971,0.061,-0.976,-0.183,0.183,362.652
135672,148754,12531,0.016,-0.969,0.061,-0.976,-0.183,0.183,362.658
135704,148825,38140,0.017,-0.966,0.059,-0.915,0,-0.061,362.662
135704,148764,12504,0.02,-0.967,0.062,-0.915,0,-0.061,362.668
135697,148825,38140,0.022,-0.967,0.065,-0.549,-0.061,-0.366,362.672
135697,148788,12516,0.021,-0.966,0.068,-0.549,-0.061,-0.366,362.678
135692,148825,38140,0.02,-0.966,0.065,-0.793,-0.122,-0.427,362.681
135692,148804,12520,0.021,-0.97,0.059,-0.793,-0.122,-0.427,362.688
135716,148825,38140,0.019,-0.971,0.058,-1.28,0.244,-0.427,362.691
135716,148754,12515,0.023,-0.97,0.057,-1.28,0.244,-0.427,362.697
135708,148825,38140,0.02,-0.971,0.059,-0.915,0.244,-0.366,362.701
135708,148779,12520,0.018,-0.97,0.058,-0.915,0.244,-0.366,362.707
135704,148825,38140,0.022,-0.968,0.056,-0.244,0.122,-0.427,362.711
135704,148768,12521,0.022,-0.969,0.057,-0.244,0.122,-0.427,362.717
135702,148825,38140,0.021,-0.967,0.062,0.366,0.061,-0.549,362.721
135702,148769,12514,0.023,-0.965,0.065,0.366,0.061,-0.549,362.727
135707,148825,38140,0.024,-0.963,0.066,0.366,0.183,-0.366,362.731
135707,148779,12509,0.024,-0.961,0.069,0.366,0.183,-0.366,362.737
135700,148825,38140,0.027,-0.962,0.069,0,0.183,-0.061,362.741
135700,148812,12510,0.027,-0.964,0.068,0,0.183,-0.061,362.747
135705,148825,38140,0.027,-0.965,0.065,-0.488,0.427,0.183,362.751
135705,148786,12519,0.023,-0.966,0.063,-0.488,0.427,0.183,362.757
135689,148825,38140,0.024,-0.966,0.063,-0.488,0.732,0.427,362.761
135689,148784,12510,0.024,-0.966,0.062,-0.488,0.732,0.427,362.767
135733,148825,38140,0.023,-0.962,0.062,-0.305,0.549,0.549,362.771
135733,148794,12511,0.024,-0.962,0.06,-0.305,0.549,0.549,362.777
135696,148825,38140,0.024,-0.962,0.06,-0.183,0.549,0.671,362.78
135696,148808,12513,0.022,-0.962,0.061,-0.183,0.549,0.671,362.787
135721,148825,38140,0.023,-0.965,0.061,-0.061,0.732,0.732,362.79
135721,148790,12526,0.023,-0.968,0.062,-0.061,0.732,0.732,362.797
135737,148825,38140,0.02,-0.967,0.062,0.183,1.037,0.793,362.8
135737,148783,12523,0.024,-0.966,0.059,0.183,1.037,0.793,362.806
135727,148825,38140,0.023,-0.969,0.06,0.549,1.037,0.915,362.81
