128933,145134,11134,-0.009,-0.945,0.229,-0.244,0.244,0.488,154.748
128907,144985,38140,-0.009,-0.945,0.229,-0.244,0.244,0.488,154.752
128907,145143,11118,-0.008,-0.947,0.225,-0.305,0.305,0.488,154.758
128912,144985,38140,-0.008,-0.947,0.225,-0.305,0.305,0.488,154.762
128912,145140,11130,-0.01,-0.946,0.227,-0.122,0.305,0.305,154.768
128941,145241,38140,-0.01,-0.946,0.227,-0.122,0.305,0.305,154.772
128941,145152,11121,-0.01,-0.944,0.23,0.061,0.183,0.244,154.778
128917,144985,38140,-0.01,-0.944,0.23,0.061,0.183,0.244,154.781
128917,145135,11130,-0.008,-0.938,0.23,0.183,0.183,0.305,154.788
128921,145241,38140,-0.008,-0.938,0.23,0.183,0.183,0.305,154.791
128921,145153,11108,-0.008,-0.943,0.23,0,0.305,0.305,154.798
128908,144985,38140,-0.008,-0.943,0.23,0,0.305,0.305,154.801
128908,145136,11122,-0.009,-0.948,0.231,0.061,0.488,0.305,154.807
128922,144985,38140,-0.009,-0.948,0.231,0.061,0.488,0.305,154.811
128922,145149,11116,-0.01,-0.941,0.229,-0.122,0.427,0.305,154.817
128899,144985,38140,-0.01,-0.941,0.229,-0.122,0.427,0.305,154.821
128899,145129,11128,-0.014,-0.945,0.227,-0.305,0.427,0.366,154.827
128931,144985,38140,-0.014,-0.945,0.227,-0.305,0.427,0.366,154.831
128931,145150,11118,-0.014,-0.949,0.228,-0.244,0.549,0.549,154.837
128918,145241,38140,-0.014,-0.949,0.228,-0.244,0.549,0.549,154.841
128918,145168,11137,-0.014,-0.95,0.224,0,0.61,0.427,154.847
128957,145241,38140,-0.014,-0.95,0.224,0,0.61,0.427,154.851
128957,145160,11108,-0.016,-0.949,0.223,0.061,0.549,0.427,154.857
128925,144985,38140,-0.016,-0.949,0.223,0.061,0.549,0.427,154.861
128925,145135,11125,-0.013,-0.947,0.222,0.366,0.427,0.549,154.867
128936,145241,38140,-0.014,-0.948,0.227,0.366,0.427,0.549,154.871
128936,145158,11123,-0.014,-0.948,0.227,-0.061,0.244,0.305,154.877
128930,144985,38140,-0.013,-0.949,0.227,-0.061,0.244,0.305,154.88
128930,145142,11126,-0.016,-0.947,0.224,-0.366,0.427,0.183,154.887
128934,145241,38140,-0.016,-0.946,0.223,-0.366,0.427,0.183,154.89
128934,145174,11110,-0.014,-0.946,0.224,-0.427,0.488,0.183,154.896
128929,145241,38140,-0.014,-0.947,0.225,-0.427,0.488,0.183,154.9
128929,145172,11123,-0.012,-0.946,0.228,-0.061,0.305,0,154.906
128932,145241,38140,-0.01,-0.945,0.231,-0.061,0.305,0,154.91
128932,145167,11114,-0.005,-0.937,0.229,0,0.122,-0.183,154.916
128926,145241,38140,-0.006,-0.94,0.228,0,0.122,-0.183,154.92
128926,145153,11123,-0.008,-0.939,0.231,-0.244,0.366,-0.061,154.926
128939,145241,38140,-0.011,-0.942,0.231,-0.244,0.366,-0.061,154.93
128939,145187,11117,-0.011,-0.942,0.233,-0.183,0.671,0.122,154.936
128927,144985,38140,-0.012,-0.945,0.235,-0.183,0.671,0.122,154.94
128927,145151,11117,-0.01,-0.943,0.232,0.183,0.488,-0.061,154.946
128933,145241,38140,-0.007,-0.942,0.233,0.183,0.488,-0.061,154.95
128933,145170,11112,-0.009,-0.941,0.229,0.244,0.244,0.061,154.956
128940,145241,38140,-0.005,-0.938,0.232,0.244,0.244,0.061,154.96
128940,145166,11116,-0.006,-0.938,0.231,0.061,0.366,0.488,154.966
128949,145241,38140,-0.008,-0.941,0.229,0.061,0.366,0.488,154.969
128949,145177,11124,-0.008,-0.943,0.228,-0.122,0.61,0.427,154.976
128949,145241,38140,-0.005,-0.941,0.226,-0.122,0.61,0.427,154.979
128949,145174,11136,-0.006,-0.947,0.229,-0.244,0.61,0.244,154.986
128950,145241,38140,-0.004,-0.946,0.231,-0.244,0.61,0.244,154.989
128950,145187,11119,-0.007,-0.945,0.23,-0.183,0.427,0.305,154.995
128947,145241,38140,-0.01,-0.943,0.23,-0.183,0.427,0.305,154.999
128947,145159,11128,-0.009,-0.943,0.229,-0.305,0.488,0.366,155.005
128938,145241,38140,-0.007,-0.945,0.228,-0.305,0.488,0.366,155.009
128938,145193,11130,-0.011,-0.946,0.228,-0.183,0.61,0.183,155.015
128950,145241,38140,-0.01,-0.944,0.23,-0.183,0.61,0.183,155.019
128950,145185,11124,-0.007,-0.943,0.227,-0.366,0.549,0.183,155.025
128946,145241,38140,-0.01,-0.944,0.226,-0.366,0.549,0.183,155.029
128946,145184,11120,-0.015,-0.945,0.227,-0.61,0.671,0.183,155.035
128940,144985,38140,-0.011,-0.945,0.224,-0.61,0.671,0.183,155.039
128940,145138,11121,-0.01,-0.948,0.228,-0.488,0.61,0.244,155.045
128932,145241,38140,-0.013,-0.945,0.228,-0.488,0.61,0.244,155.049
128932,145172,11118,-0.012,-0.943,0.229,-0.488,0.61,0.183,155.055
128935,145241,38140,-0.012,-0.947,0.23,-0.488,0.61,0.183,155.059
128935,145155,11113,-0.011,-0.943,0.228,-0.305,0.732,0.244,155.065
128933,145241,38140,-0.01,-0.944,0.231,-0.305,0.732,0.244,155.068
128933,145154,11120,-0.011,-0.947,0.229,-0.122,0.549,0.305,155.075
128937,145241,38140,-0.01,-0.946,0.228,-0.122,0.549,0.305,155.078
128937,145188,11116,-0.011,-0.944,0.232,-0.305,0.549,0.122,155.085
128929,145241,38140,-0.013,-0.943,0.225,-0.305,0.549,0.122,155.088
128929,145167,11137,-0.011,-0.946,0.224,-0.366,0.671,0.305,155.094
128927,145241,38140,-0.01,-0.945,0.225,-0.366,0.671,0.305,155.098
128927,145170,11134,-0.013,-0.941,0.224,-0.427,0.671,0.427,155.104
128931,145241,38140,-0.014,-0.946,0.221,-0.427,0.671,0.427,155.108
128931,145166,11114,-0.011,-0.945,0.224,-0.244,0.549,0.244,155.114
128920,144985,38140,-0.01,-0.946,0.228,-0.244,0.549,0.244,155.118
128920,145150,11127,-0.009,-0.949,0.225,-0.061,0.488,0.183,155.124
128919,144985,38140,-0.008,-0.945,0.224,-0.061,0.488,0.183,155.128
128919,145148,11115,-0.009,-0.947,0.224,-0.183,0.488,0.305,155.134
128914,144985,38140,-0.008,-0.942,0.229,-0.183,0.488,0.305,155.138
128914,145131,11133,-0.007,-0.939,0.231,0.061,0.366,0.305,155.144
128909,144985,38140,-0.008,-0.942,0.232,0.061,0.366,0.305,155.148
128909,145149,11122,-0.008,-0.942,0.234,0,0.366,0.183,155.154
128923,145241,38140,-0.007,-0.944,0.236,0,0.366,0.183,155.158
128923,145176,11120,-0.006,-0.944,0.233,-0.427,0.61,0.122,155.164
128911,145241,38140,-0.009,-0.942,0.231,-0.427,0.61,0.122,155.167
128911,145183,11121,-0.01,-0.943,0.23,-0.732,0.732,0.305,155.174
128905,145241,38140,-0.012,-0.944,0.23,-0.732,0.732,0.305,155.177
128905,145152,11117,-0.011,-0.946,0.226,-0.366,0.61,0.488,155.184
128907,144985,38140,-0.009,-0.941,0.23,-0.366,0.61,0.488,155.187
128907,145150,11123,-0.011,-0.938,0.229,0.122,0.488,0.488,155.193
128917,145241,38140,-0.012,-0.94,0.226,0.122,0.488,0.488,155.197
128917,145159,11135,-0.011,-0.938,0.226,0.061,0.549,0.61,155.203
128918,145241,38140,-0.011,-0.942,0.231,0.061,0.549,0.61,155.207
128918,145154,11116,-0.009,-0.942,0.227,0.061,0.61,0.61,155.213
128897,144985,38140,-0.015,-0.946,0.226,0.061,0.61,0.61,155.217
128897,145140,11123,-0.014,-0.948,0.231,-0.183,0.671,0.549,155.223
128917,145241,38140,-0.012,-0.951,0.227,-0.183,0.671,0.549,155.227
128917,145159,11110,-0.014,-0.955,0.23,-0.305,0.61,0.488,155.233
128917,145241,38140,-0.016,-0.951,0.227,-0.305,0.61,0.488,155.237
128917,145169,11120,-0.015,-0.95,0.227,0,0.366,0.488,155.243
128921,145241,38140,-0.014,-0.946,0.226,0,0.366,0.488,155.247
128921,145173,11116,-0.016,-0.942,0.229,0.244,0.122,0.549,155.253
128914,145241,38140,-0.012,-0.943,0.231,0.244,0.122,0.549,155.257
128914,145160,11122,-0.011,-0.939,0.23,0.305,-0.061,0.488,155.263
128910,145241,38140,-0.009,-0.942,0.233,0.305,-0.061,0.488,155.266
128910,145155,11109,-0.01,-0.944,0.228,-0.183,0.061,0.305,155.273
128905,145241,38140,-0.01,-0.944,0.23,-0.183,0.061,0.305,155.276
128905,145173,11127,-0.015,-0.943,0.229,-0.549,0.305,0.366,155.283
128906,144985,38140,-0.014,-0.94,0.229,-0.549,0.305,0.366,155.286
128906,145143,11122,-0.013,-0.945,0.231,-0.549,0.305,0.61,155.292
128934,145241,38140,-0.01,-0.944,0.23,-0.549,0.305,0.61,155.296
128934,145157,11118,-0.005,-0.945,0.228,-0.427,0.061,0.427,155.302
128909,145241,38140,-0.005,-0.945,0.228,-0.427,0.061,0.427,155.306
128909,145182,11126,-0.006,-0.947,0.229,-0.549,0.061,0.183,155.312
128910,144985,38140,-0.006,-0.947,0.229,-0.549,0.061,0.183,155.316
128910,145136,11116,-0.008,-0.944,0.229,-0.793,0.366,0.305,155.322
128912,144985,38140,-0.008,-0.944,0.229,-0.793,0.366,0.305,155.326
128912,145141,11123,-0.01,-0.943,0.23,-0.854,0.427,0.305,155.332
128906,145241,38140,-0.01,-0.943,0.23,-0.854,0.427,0.305,155.336
128906,145171,11126,-0.008,-0.94,0.225,-0.854,0.305,0.244,155.342
128927,145241,38140,-0.008,-0.94,0.225,-0.854,0.305,0.244,155.346
128927,145163,11121,-0.01,-0.941,0.233,-0.549,0.305,0.427,155.352
128900,145241,38140,-0.01,-0.941,0.233,-0.549,0.305,0.427,155.356
128900,145153,11124,-0.011,-0.943,0.229,-0.366,0.366,0.427,155.362
128930,145241,38140,-0.011,-0.943,0.229,-0.366,0.366,0.427,155.365
128930,145160,11124,-0.011,-0.942,0.233,-0.427,0.366,0.488,155.372
128932,145241,38140,-0.011,-0.942,0.233,-0.427,0.366,0.488,155.375
128932,145163,11117,-0.008,-0.941,0.23,-0.366,0.244,0.732,155.382
128937,145241,38140,-0.008,-0.941,0.23,-0.366,0.244,0.732,155.385
128937,145191,11112,-0.007,-0.946,0.226,-0.305,0.061,0.854,155.391
128924,145241,38140,-0.007,-0.946,0.226,-0.305,0.061,0.854,155.395
128924,145176,11134,-0.008,-0.944,0.226,-0.427,0.244,0.854,155.401
128945,145241,38140,-0.008,-0.944,0.226,-0.427,0.244,0.854,155.405
128945,145176,11120,-0.008,-0.945,0.228,-0.488,0.305,0.854,155.411
128920,145241,38140,-0.008,-0.945,0.228,-0.488,0.305,0.854,155.415
128920,145168,11132,-0.007,-0.942,0.232,-0.305,0,0.793,155.421
128933,145241,38140,-0.007,-0.942,0.232,-0.305,0,0.793,155.425
128933,145152,11133,-0.006,-0.946,0.226,-0.305,0.061,0.793,155.431
128913,145241,38140,-0.006,-0.946,0.226,-0.305,0.061,0.793,155.435
128913,145171,11129,-0.006,-0.944,0.227,-0.305,0.244,0.793,155.441
128937,145241,38140,-0.006,-0.944,0.227,-0.305,0.244,0.793,155.445
128937,145179,11125,-0.01,-0.944,0.226,-0.305,0.244,0.793,155.451
128927,145241,38140,-0.009,-0.948,0.228,-0.305,0.305,0.793,155.454
128927,145171,11129,-0.008,-0.946,0.227,-0.305,0.305,0.793,155.461
128909,145241,38140,-0.009,-0.947,0.231,-0.549,0.244,0.549,155.464
128909,145167,11130,-0.013,-0.947,0.228,-0.549,0.244,0.549,155.471
128942,145241,38140,-0.015,-0.943,0.221,-0.915,0.366,0.488,155.474
128942,145162,11133,-0.013,-0.947,0.223,-0.915,0.366,0.488,155.48
128927,145241,38140,-0.015,-0.945,0.226,-0.854,0.366,0.61,155.484
128927,145166,11129,-0.013,-0.946,0.225,-0.854,0.366,0.61,155.49
128950,145241,38140,-0.014,-0.943,0.222,-0.793,0.305,0.671,155.494
128950,145181,11126,-0.014,-0.945,0.227,-0.793,0.305,0.671,155.5
128928,145241,38140,-0.014,-0.946,0.225,-0.61,0.122,0.671,155.504
128928,145182,11118,-0.017,-0.947,0.223,-0.61,0.122,0.671,155.51
128942,145241,38140,-0.016,-0.945,0.224,-0.732,0.122,0.732,155.514
128942,145165,11119,-0.015,-0.947,0.224,-0.732,0.122,0.732,155.52
128929,145241,38140,-0.015,-0.95,0.229,-0.793,0.183,0.671,155.524
128929,145159,11124,-0.015,-0.948,0.227,-0.793,0.183,0.671,155.53
128918,145241,38140,-0.016,-0.946,0.226,-0.915,0.122,0.549,155.534
128918,145166,11137,-0.016,-0.947,0.223,-0.915,0.122,0.549,155.54
128941,145241,38140,-0.015,-0.943,0.223,-0.915,0.122,0.488,155.544
128941,145157,11123,-0.016,-0.942,0.227,-0.915,0.122,0.488,155.55
128915,145241,38140,-0.012,-0.944,0.226,-0.61,0.122,0.427,155.554
128915,145180,11124,-0.01,-0.942,0.227,-0.61,0.122,0.427,155.56
128955,145241,38140,-0.011,-0.944,0.229,-0.366,0.061,0.244,155.563
128955,145182,11116,-0.01,-0.945,0.227,-0.366,0.061,0.244,155.57
128922,145241,38140,-0.009,-0.944,0.228,-0.488,0.122,0.183,155.573
128922,145169,11110,-0.007,-0.943,0.225,-0.488,0.122,0.183,155.579
128920,145241,38140,-0.008,-0.942,0.223,-0.61,0.305,0.427,155.583
128920,145169,11111,-0.011,-0.942,0.228,-0.61,0.305,0.427,155.589
128915,145241,38140,-0.009,-0.946,0.222,-0.549,0.427,0.427,155.593
128915,145195,11120,-0.007,-0.943,0.221,-0.549,0.427,0.427,155.599
128930,145241,38140,-0.009,-0.944,0.227,-0.366,0.305,0.427,155.603
128930,145157,11123,-0.008,-0.945,0.227,-0.366,0.305,0.427,155.609
128915,145241,38140,-0.008,-0.942,0.23,-0.244,0.244,0.488,155.613
128915,145177,11124,-0.009,-0.945,0.229,-0.244,0.244,0.488,155.619
128935,145241,38140,-0.009,-0.945,0.23,-0.732,0.305,0.488,155.623
128935,145179,11135,-0.011,-0.943,0.233,-0.732,0.305,0.488,155.629
128929,145241,38140,-0.01,-0.942,0.226,-1.037,0.61,0.61,155.633
128929,145181,11108,-0.009,-0.945,0.23,-1.037,0.61,0.61,155.639
128908,145241,38140,-0.01,-0.944,0.227,-0.976,0.671,0.488,155.643
128908,145176,11129,-0.015,-0.948,0.229,-0.976,0.671,0.488,155.649
128917,145241,38140,-0.012,-0.948,0.227,-0.976,0.61,0.366,155.653
128917,145179,11114,-0.013,-0.945,0.229,-0.976,0.61,0.366,155.659
128927,145241,38140,-0.011,-0.946,0.225,-1.28,0.488,0.183,155.662
128927,145177,11129,-0.012,-0.943,0.226,-1.28,0.488,0.183,155.669
128923,145241,38140,-0.011,-0.944,0.227,-1.402,0.305,0.061,155.672
128923,145200,11134,-0.015,-0.942,0.225,-1.402,0.305,0.061,155.678
128943,145241,38140,-0.012,-0.945,0.224,-1.159,0.305,0.244,155.682
128943,145192,11128,-0.011,-0.946,0.224,-1.159,0.305,0.244,155.688
128927,145241,38140,-0.009,-0.946,0.224,-1.098,0.305,0.244,155.692
128927,145194,11128,-0.008,-0.944,0.227,-1.098,0.305,0.244,155.698
128934,145241,38140,-0.007,-0.945,0.226,-0.793,0.427,0.244,155.702
128934,145173,11126,-0.01,-0.945,0.227,-0.793,0.427,0.244,155.708
128916,145241,38140,-0.012,-0.942,0.231,-0.61,0.488,0.549,155.712
128916,145166,11131,-0.009,-0.94,0.224,-0.61,0.488,0.549,155.718
128941,145241,38140,-0.011,-0.941,0.223,-0.183,0.488,0.854,155.722
128941,145164,11128,-0.013,-0.941,0.223,-0.183,0.488,0.854,155.728
128897,145241,38140,-0.012,-0.943,0.225,0.305,0.61,1.037,155.732
128897,145164,11122,-0.01,-0.948,0.228,0.305,0.61,1.037,155.738
128918,145241,38140,-0.008,-0.952,0.223,-0.671,0.671,0.671,155.742
128918,145166,11107,-0.012,-0.955,0.218,-0.671,0.671,0.671,155.748
128909,145241,38140,-0.014,-0.959,0.217,-1.829,0.854,0.183,155.751
128909,145161,11126,-0.018,-0.959,0.218,-1.829,0.854,0.183,155.758
128926,145241,38140,-0.018,-0.954,0.216,-1.037,0.854,0.366,155.761
128926,145160,11104,-0.015,-0.949,0.217,-1.037,0.854,0.366,155.768
128898,145241,38140,-0.017,-0.946,0.222,0.305,0.427,0.488,155.771
128898,145170,11130,-0.013,-0.94,0.222,0.305,0.427,0.488,155.777
128922,145241,38140,-0.01,-0.941,0.227,0.305,0.061,0,155.781
128922,145158,11106,-0.009,-0.942,0.231,0.305,0.061,0,155.787
128901,145241,38140,-0.01,-0.944,0.227,-0.976,0.427,-0.244,155.791
128901,145155,11129,-0.01,-0.946,0.224,-0.976,0.427,-0.244,155.797
128908,145241,38140,-0.015,-0.943,0.222,-1.646,0.793,0.122,155.801
128908,145152,11116,-0.016,-0.945,0.224,-1.646,0.793,0.122,155.807
128900,145241,38140,-0.014,-0.943,0.224,-1.159,0.549,0.366,155.811
128900,145176,11127,-0.015,-0.942,0.228,-1.159,0.549,0.366,155.817
128914,145241,38140,-0.012,-0.941,0.229,-0.488,0.244,0.244,155.821
128914,145183,11124,-0.011,-0.94,0.229,-0.488,0.244,0.244,155.827
128906,145241,38140,-0.012,-0.94,0.227,-0.427,0.244,0.305,155.831
128906,145154,11122,-0.01,-0.94,0.231,-0.427,0.244,0.305,155.837
128891,145241,38140,-0.012,-0.941,0.228,-0.732,0.244,0.549,155.841
128891,145152,11110,-0.015,-0.944,0.23,-0.732,0.244,0.549,155.847
128917,145241,38140,-0.015,-0.944,0.228,-0.854,0.183,0.488,155.85
128917,145158,11120,-0.014,-0.943,0.226,-0.854,0.183,0.488,155.857
128912,145241,38140,-0.011,-0.944,0.227,-0.854,0,0.427,155.86
128912,145169,11133,-0.011,-0.946,0.225,-0.854,0,0.427,155.867
128941,145241,38140,-0.01,-0.947,0.228,-0.549,0,0.488,155.87
128941,145165,11108,-0.012,-0.947,0.228,-0.549,0,0.488,155.876
128934,144985,38140,-0.012,-0.947,0.228,-0.549,0,0.488,155.88
128934,145149,11115,-0.01,-0.946,0.223,-0.732,0,0.61,155.886
128914,145241,38140,-0.01,-0.946,0.223,-0.732,0,0.61,155.89
128914,145165,11121,-0.013,-0.945,0.222,-0.854,-0.122,0.671,155.896
128912,145241,38140,-0.013,-0.945,0.222,-0.854,-0.122,0.671,155.9
128912,145154,11106,-0.015,-0.946,0.223,-0.732,-0.183,0.549,155.906
128903,144985,38140,-0.015,-0.946,0.223,-0.732,-0.183,0.549,155.91
128903,145146,11112,-0.012,-0.944,0.224,-0.976,-0.183,0.549,155.916
128910,144985,38140,-0.012,-0.944,0.224,-0.976,-0.183,0.549,155.92
128910,145137,11116,-0.014,-0.947,0.22,-1.28,-0.122,0.488,155.926
128892,145241,38140,-0.014,-0.947,0.22,-1.28,-0.122,0.488,155.93
128892,145161,11121,-0.013,-0.949,0.221,-1.402,-0.061,0.488,155.936
128910,144985,38140,-0.013,-0.949,0.221,-1.402,-0.061,0.488,155.94
128910,145127,11097,-0.011,-0.945,0.22,-1.463,-0.122,0.305,155.946
128901,144985,38140,-0.011,-0.945,0.22,-1.463,-0.122,0.305,155.949
128901,145146,11108,-0.01,-0.946,0.221,-1.22,-0.122,0.244,155.956
128888,145241,38140,-0.01,-0.946,0.221,-1.22,-0.122,0.244,155.959
128888,145154,11123,-0.009,-0.943,0.222,-0.854,0,0.183,155.966
128899,144985,38140,-0.009,-0.943,0.222,-0.854,0,0.183,155.969
128899,145146,11116,-0.009,-0.943,0.219,-1.159,0.122,-0.061,155.975
128890,144985,38140,-0.009,-0.943,0.219,-1.159,0.122,-0.061,155.979
128890,145134,11105,-0.01,-0.949,0.222,-1.524,0.366,-0.061,155.985
128891,144985,38140,-0.01,-0.949,0.222,-1.524,0.366,-0.061,155.989
128891,145125,11114,-0.01,-0.946,0.221,-1.22,0.427,0.122,155.995
128903,144985,38140,-0.01,-0.946,0.221,-1.22,0.427,0.122,155.999
128903,145135,11108,-0.007,-0.943,0.224,-0.976,0.305,0.244,156.005
128888,144985,38140,-0.007,-0.943,0.224,-0.976,0.305,0.244,156.009
128888,145136,11107,-0.011,-0.94,0.228,-0.488,0.183,0.549,156.015
128875,144985,38140,-0.011,-0.94,0.228,-0.488,0.183,0.549,156.019
128875,145141,11097,-0.009,-0.94,0.223,-0.61,0.427,0.671,156.025
128875,144985,38140,-0.013,-0.943,0.219,-0.61,0.427,0.671,156.029
128875,145126,11115,-0.013,-0.943,0.222,-1.098,0.793,0.732,156.035
128891,144985,38140,-0.013,-0.946,0.22,-1.098,0.793,0.732,156.039
128891,145117,11104,-0.015,-0.95,0.218,-1.22,0.854,0.61,156.045
128872,144985,38140,-0.017,-0.952,0.22,-1.22,0.854,0.61,156.048
128872,145121,11098,-0.016,-0.952,0.225,-0.854,0.427,0.488,156.055
128890,144985,38140,-0.013,-0.951,0.22,-0.854,0.427,0.488,156.058
128890,145138,11099,-0.012,-0.946,0.218,-0.488,0.183,0.549,156.064
128863,144985,38140,-0.014,-0.947,0.222,-0.488,0.183,0.549,156.068
128863,145135,11117,-0.01,-0.945,0.221,-0.122,0.122,0.549,156.074
128868,144985,38140,-0.01,-0.948,0.219,-0.122,0.122,0.549,156.078
128868,145127,11119,-0.009,-0.947,0.221,-0.061,0.122,0.488,156.084
128865,144985,38140,-0.009,-0.944,0.224,-0.061,0.122,0.488,156.088
128865,145130,11105,-0.011,-0.944,0.218,-0.061,0.244,0.488,156.094
128868,144985,38140,-0.01,-0.945,0.223,-0.061,0.244,0.488,156.098
128868,145102,11104,-0.009,-0.943,0.221,-0.122,0.244,0.671,156.104
128868,144985,38140,-0.007,-0.941,0.224,-0.122,0.244,0.671,156.108
128868,145113,11113,-0.006,-0.944,0.224,0.122,0.183,0.732,156.114
128858,144985,38140,-0.007,-0.943,0.222,0.122,0.183,0.732,156.118
128858,145109,11101,-0.008,-0.943,0.225,0.305,0.244,0.732,156.124
128853,144985,38140,-0.008,-0.942,0.226,0.305,0.244,0.732,156.128
128853,145101,11104,-0.007,-0.945,0.227,0.366,0.305,0.671,156.134
128868,144985,38140,-0.009,-0.945,0.227,0.366,0.305,0.671,156.138
128868,145093,11092,-0.01,-0.945,0.22,0.427,0.549,0.732,156.144
128861,144985,38140,-0.01,-0.948,0.217,0.427,0.549,0.732,156.147
128861,145099,11108,-0.01,-0.952,0.215,0.122,0.671,0.427,156.154
128875,144985,38140,-0.009,-0.954,0.215,0.122,0.671,0.427,156.157
128875,145092,11103,-0.01,-0.952,0.216,0,0.793,0.183,156.164
128859,144985,38140,-0.009,-0.952,0.216,0,0.793,0.183,156.167
128859,145081,11106,-0.011,-0.951,0.214,0.305,0.854,0.122,156.173
128830,144985,38140,-0.012,-0.951,0.213,0.305,0.854,0.122,156.177
128830,145102,11106,-0.015,-0.947,0.218,0.427,0.732,0.061,156.183
128836,144985,38140,-0.017,-0.945,0.217,0.427,0.732,0.061,156.187
128836,145069,11090,-0.011,-0.942,0.219,0.122,0.854,0,156.193
128848,144985,38140,-0.013,-0.947,0.219,0.122,0.854,0,156.197
128848,145096,11088,-0.012,-0.95,0.22,-0.366,1.037,-0.061,156.203
128848,144985,38140,-0.017,-0.948,0.223,-0.366,1.037,-0.061,156.207
128848,145073,11094,-0.019,-0.944,0.225,-0.366,0.976,0,156.213
128835,144985,38140,-0.017,-0.943,0.226,-0.366,0.976,0,156.217
128835,145104,11101,-0.017,-0.942,0.226,0.122,0.671,0.183,156.223
128840,144985,38140,-0.017,-0.94,0.227,0.122,0.671,0.183,156.227
128840,145085,11088,-0.017,-0.943,0.23,0.671,0.549,0.244,156.233
128829,144985,38140,-0.014,-0.943,0.231,0.671,0.549,0.244,156.237
128829,145070,11101,-0.016,-0.942,0.231,0.488,0.61,0.122,156.243
128823,144985,38140,-0.012,-0.946,0.23,0.488,0.61,0.122,156.246
128823,145080,11098,-0.01,-0.946,0.225,0.122,0.549,0.183,156.253
128813,144985,38140,-0.014,-0.947,0.222,0.122,0.549,0.183,156.256
128813,145071,11096,-0.011,-0.948,0.223,-0.122,0.244,0.427,156.262
128821,144985,38140,-0.01,-0.948,0.223,-0.122,0.244,0.427,156.266
128821,145050,11107,-0.012,-0.944,0.221,-0.122,0,0.366,156.272
128785,144985,38140,-0.012,-0.947,0.22,-0.122,0,0.366,156.276
128785,145045,11104,-0.012,-0.947,0.223,-0.305,0,0.366,156.282
128806,144985,38140,-0.011,-0.944,0.224,-0.305,0,0.366,156.286
128806,145039,11099,-0.013,-0.946,0.218,-0.366,0,0.366,156.292
128783,144985,38140,-0.013,-0.943,0.222,-0.366,0,0.366,156.296
128783,145050,11100,-0.01,-0.945,0.225,-0.488,0,0.244,156.302
128796,144985,38140,-0.007,-0.946,0.226,-0.488,0,0.244,156.306
128796,145037,11102,-0.013,-0.945,0.229,-0.305,0.122,0.305,156.312
128800,144985,38140,-0.013,-0.945,0.222,-0.305,0.122,0.305,156.316
128800,145044,11093,-0.011,-0.942,0.227,-0.061,0.061,0.244,156.322
128796,144985,38140,-0.012,-0.943,0.224,-0.061,0.061,0.244,156.326
128796,145070,11098,-0.015,-0.944,0.224,-0.061,0.061,0.366,156.332
128800,144985,38140,-0.017,-0.942,0.224,-0.061,0.061,0.366,156.336
128800,145024,11092,-0.014,-0.943,0.224,-0.061,0.305,0.366,156.342
128778,144985,38140,-0.015,-0.948,0.225,-0.061,0.305,0.366,156.345
128778,145041,11102,-0.015,-0.944,0.221,-0.122,0.183,0.305,156.352
128793,144985,38140,-0.012,-0.944,0.219,-0.122,0.183,0.305,156.355
128793,145023,11093,-0.012,-0.948,0.219,0,0.061,0.549,156.361
128786,144985,38140,-0.012,-0.946,0.218,0,0.061,0.549,156.365
128786,144997,11078,-0.011,-0.943,0.219,0.305,0.183,0.732,156.371
128764,144985,38140,-0.011,-0.945,0.218,0.305,0.183,0.732,156.375
128764,145016,11089,-0.01,-0.946,0.217,0.244,0.183,0.61,156.381
128781,144985,38140,-0.012,-0.947,0.218,0.244,0.183,0.61,156.385
128781,144995,11075,-0.013,-0.95,0.223,0.305,0.305,0.61,156.391
128756,144985,38140,-0.013,-0.951,0.225,0.305,0.305,0.61,156.395
128756,145020,11099,-0.012,-0.949,0.222,0.366,0.305,0.488,156.401
128755,144985,38140,-0.011,-0.951,0.223,0.366,0.305,0.488,156.405
128755,144992,11075,-0.01,-0.948,0.222,0.488,0.183,0.366,156.411
128717,144985,38140,-0.014,-0.947,0.225,0.488,0.183,0.366,156.415
128717,144994,11089,-0.014,-0.945,0.222,0.366,0.305,0.427,156.421
128723,144985,38140,-0.013,-0.943,0.22,0.366,0.305,0.427,156.425
128723,144988,11085,-0.013,-0.945,0.223,0.244,0.427,0.427,156.431
128741,144985,38140,-0.012,-0.948,0.227,0.244,0.427,0.427,156.434
128741,144980,11075,-0.009,-0.943,0.232,0.244,0.183,0.244,156.441
128716,144985,38140,-0.009,-0.941,0.226,0.244,0.183,0.244,156.444
128716,145008,11085,-0.009,-0.939,0.223,-0.366,0.183,0.244,156.451
128732,144985,38140,-0.01,-0.939,0.224,-0.366,0.183,0.244,156.454
128732,144984,11072,-0.011,-0.948,0.22,-0.366,0.61,0.488,156.46
128736,144985,38140,-0.011,-0.948,0.22,-0.366,0.61,0.488,156.464
128736,144971,11086,-0.01,-0.947,0.221,-0.061,0.549,0.244,156.47
128680,144985,38140,-0.01,-0.947,0.221,-0.061,0.549,0.244,156.474
128680,144978,11069,-0.008,-0.947,0.221,0.427,0.305,0.183,156.48
128682,144985,38140,-0.008,-0.947,0.221,0.427,0.305,0.183,156.484
128682,144952,11080,-0.008,-0.94,0.224,0.671,0.183,0.61,156.49
128667,144985,38140,-0.008,-0.94,0.224,0.671,0.183,0.61,156.494
128667,144945,11086,-0.008,-0.943,0.228,0.488,0.488,0.427,156.5
128657,144985,38140,-0.008,-0.943,0.228,0.488,0.488,0.427,156.504
128657,144936,11075,-0.009,-0.943,0.223,-0.122,0.671,0.061,156.51
128637,144985,38140,-0.009,-0.943,0.223,-0.122,0.671,0.061,156.514
128637,144938,11055,-0.01,-0.95,0.226,-0.366,0.793,0.183,156.52
128662,144985,38140,-0.01,-0.95,0.226,-0.366,0.793,0.183,156.524
128662,144912,11078,-0.013,-0.948,0.221,-0.305,0.732,0.305,156.53
128647,144985,38140,-0.013,-0.948,0.221,-0.305,0.732,0.305,156.533
128647,144936,11073,-0.011,-0.943,0.222,0.061,0.671,0.122,156.54
128654,144985,38140,-0.011,-0.943,0.222,0.061,0.671,0.122,156.543
128654,144960,11062,-0.014,-0.946,0.226,0.305,0.671,0.244,156.55
128654,144985,38140,-0.014,-0.946,0.226,0.305,0.671,0.244,156.553
128654,144922,11068,-0.013,-0.943,0.224,0.244,0.61,0.305,156.559
128640,144985,38140,-0.013,-0.943,0.224,0.244,0.61,0.305,156.563
128640,144926,11061,-0.012,-0.943,0.223,0.122,0.61,0.305,156.569
128633,144985,38140,-0.012,-0.943,0.223,0.122,0.61,0.305,156.573
128633,144932,11064,-0.012,-0.946,0.223,0.122,0.549,0.366,156.579
128635,144985,38140,-0.012,-0.946,0.223,0.122,0.549,0.366,156.583
128635,144918,11066,-0.015,-0.949,0.223,0.122,0.488,0.305,156.589
128624,144985,38140,-0.015,-0.949,0.223,0.122,0.488,0.305,156.593
128624,144904,11059,-0.012,-0.95,0.222,0.122,0.427,0.122,156.599
128643,144985,38140,-0.012,-0.95,0.222,0.122,0.427,0.122,156.603
128643,144914,11061,-0.012,-0.949,0.22,0.122,0.427,0.122,156.609
128617,144985,38140,-0.01,-0.945,0.221,-0.122,0.427,0.122,156.613
128617,144901,11067,-0.009,-0.944,0.221,-0.122,0.427,0.122,156.619
128640,144729,38140,-0.013,-0.945,0.223,-0.244,0.427,0.305,156.623
128640,144893,11071,-0.016,-0.945,0.229,-0.244,0.427,0.305,156.629
128661,144729,38140,-0.013,-0.948,0.228,-0.244,0.488,0.244,156.632
128661,144892,11074,-0.013,-0.946,0.227,-0.244,0.488,0.244,156.639
128621,144985,38140,-0.014,-0.945,0.225,-0.488,0.61,-0.061,156.642
128621,144909,11076,-0.013,-0.943,0.226,-0.488,0.61,-0.061,156.649
128610,144985,38140,-0.013,-0.943,0.228,-0.366,0.671,0.183,156.652
128610,144927,11057,-0.011,-0.943,0.224,-0.366,0.671,0.183,156.658
128616,144985,38140,-0.013,-0.943,0.226,-0.061,0.549,0.427,156.662
128616,144900,11070,-0.014,-0.943,0.225,-0.061,0.549,0.427,156.668
128611,144985,38140,-0.009,-0.945,0.222,-0.061,0.488,0.305,156.672
128611,144905,11067,-0.011,-0.943,0.224,-0.061,0.488,0.305,156.678
128607,144729,38140,-0.013,-0.942,0.225,-0.122,0.61,0.488,156.682
128607,144886,11061,-0.013,-0.947,0.221,-0.122,0.61,0.488,156.688
128578,144729,38140,-0.015,-0.946,0.219,-0.305,0.549,0.671,156.692
128578,144886,11055,-0.017,-0.946,0.222,-0.305,0.549,0.671,156.698
128583,144729,38140,-0.013,-0.948,0.223,0.061,0.427,0.61,156.702
128583,144884,11061,-0.014,-0.949,0.221,0.061,0.427,0.61,156.708
128586,144985,38140,-0.01,-0.948,0.22,0.427,0.244,0.366,156.712
128586,144902,11069,-0.012,-0.946,0.223,0.427,0.244,0.366,156.718
128584,144729,38140,-0.012,-0.945,0.226,0.305,0.122,0.305,156.722
128584,144886,11046,-0.01,-0.945,0.227,0.305,0.122,0.305,156.728
128581,144729,38140,-0.011,-0.945,0.227,-0.183,0.305,0.305,156.731
128581,144865,11068,-0.013,-0.947,0.224,-0.183,0.305,0.305,156.738
128577,144729,38140,-0.012,-0.947,0.223,-0.488,0.488,0.122,156.741
128577,144867,11064,-0.012,-0.948,0.223,-0.488,0.488,0.122,156.748
128586,144729,38140,-0.01,-0.95,0.229,-0.549,0.122,-0.122,156.751
128586,144868,11058,-0.009,-0.947,0.226,-0.549,0.122,-0.122,156.757
128589,144729,38140,-0.011,-0.946,0.228,-0.427,0.061,-0.061,156.761
128589,144887,11050,-0.009,-0.942,0.228,-0.427,0.061,-0.061,156.767
128578,144729,38140,-0.012,-0.943,0.228,-0.244,0.122,0.122,156.771
128578,144859,11049,-0.011,-0.943,0.227,-0.244,0.122,0.122,156.777
128574,144729,38140,-0.008,-0.94,0.224,-0.244,0.305,0.122,156.781
128574,144891,11045,-0.009,-0.94,0.225,-0.244,0.305,0.122,156.787
128578,144729,38140,-0.01,-0.942,0.224,-0.671,0.427,0.122,156.791
128578,144855,11041,-0.01,-0.948,0.221,-0.671,0.427,0.122,156.797
128555,144729,38140,-0.014,-0.95,0.224,-0.732,0.488,0.244,156.801
128555,144873,11052,-0.014,-0.951,0.225,-0.732,0.488,0.244,156.807
128558,144729,38140,-0.015,-0.95,0.22,-0.183,0.549,0.366,156.811
128558,144851,11050,-0.014,-0.947,0.22,-0.183,0.549,0.366,156.817
128565,144729,38140,-0.013,-0.949,0.218,0.244,0.427,0.305,156.821
128565,144865,11064,-0.014,-0.947,0.221,0.244,0.427,0.305,156.827
128543,144729,38140,-0.015,-0.948,0.221,0.549,0.427,0.366,156.83
128543,144851,11036,-0.01,-0.947,0.221,0.549,0.427,0.366,156.837
128558,144729,38140,-0.01,-0.947,0.217,0.244,0.488,0.244,156.84
128558,144852,11055,-0.013,-0.951,0.217,0.244,0.488,0.244,156.847
128550,144729,38140,-0.013,-0.95,0.218,0,0.732,0.061,156.85
128550,144858,11054,-0.014,-0.949,0.218,0,0.732,0.061,156.856
128550,144729,38140,-0.012,-0.95,0.219,0.122,0.793,0.061,156.86
128550,144850,11062,-0.015,-0.948,0.219,0.122,0.793,0.061,156.866
128548,144729,38140,-0.013,-0.942,0.223,0.244,0.671,0.061,156.87
128548,144871,11042,-0.009,-0.942,0.224,0.244,0.671,0.061,156.876
128558,144729,38140,-0.013,-0.943,0.224,0.305,0.61,-0.061,156.88
128558,144843,11058,-0.012,-0.942,0.226,0.305,0.61,-0.061,156.886
128575,144729,38140,-0.008,-0.942,0.226,0.244,0.671,-0.183,156.89
128575,144851,11044,-0.007,-0.944,0.231,0.244,0.671,-0.183,156.896
128536,144729,38140,-0.007,-0.945,0.229,0.427,0.793,-0.183,156.9
128536,144830,11054,-0.008,-0.946,0.226,0.427,0.793,-0.183,156.906
128548,144729,38140,-0.008,-0.945,0.227,0.122,0.915,-0.183,156.91
128548,144839,11046,-0.004,-0.945,0.23,0.122,0.915,-0.183,156.916
128533,144729,38140,-0.007,-0.942,0.227,-0.061,0.915,0.061,156.92
128533,144820,11031,-0.01,-0.94,0.223,-0.061,0.915,0.061,156.926
128540,144729,38140,-0.009,-0.942,0.227,-0.122,0.854,0.244,156.929
128540,144857,11038,-0.006,-0.945,0.224,-0.122,0.854,0.244,156.936
128531,144729,38140,-0.005,-0.944,0.221,-0.122,0.732,0.061,156.939
128531,144842,11053,-0.006,-0.942,0.224,-0.122,0.732,0.061,156.946
128541,144729,38140,-0.008,-0.945,0.231,-0.244,0.671,0.122,156.949
128541,144816,11054,-0.011,-0.948,0.227,-0.244,0.671,0.122,156.955
128541,144729,38140,-0.01,-0.946,0.226,-0.122,0.61,0.366,156.959
128541,144833,11043,-0.011,-0.947,0.226,-0.122,0.61,0.366,156.965
128557,144729,38140,-0.014,-0.945,0.227,0,0.549,0.305,156.969
128557,144845,11048,-0.011,-0.943,0.23,0,0.549,0.305,156.975
128539,144729,38140,-0.013,-0.943,0.229,0.244,0.549,0.244,156.979
128539,144853,11047,-0.012,-0.942,0.231,0.244,0.549,0.244,156.985
128525,144729,38140,-0.011,-0.944,0.229,0,0.549,0.244,156.989
128525,144833,11050,-0.011,-0.945,0.226,0,0.549,0.244,156.995
128536,144729,38140,-0.012,-0.946,0.226,-0.427,0.61,0.305,156.999
128536,144822,11044,-0.013,-0.947,0.225,-0.427,0.61,0.305,157.005
128512,144729,38140,-0.013,-0.948,0.224,-0.305,0.488,0.183,157.009
128512,144820,11052,-0.012,-0.947,0.23,-0.305,0.488,0.183,157.015
128520,144729,38140,-0.012,-0.947,0.228,-0.244,0.366,0.244,157.019
128520,144815,11060,-0.011,-0.943,0.227,-0.244,0.366,0.244,157.025
128514,144729,38140,-0.013,-0.945,0.225,-0.122,0.427,0.305,157.028
128514,144830,11039,-0.013,-0.944,0.225,-0.122,0.427,0.305,157.035
128506,144729,38140,-0.013,-0.943,0.223,0.061,0.305,0.122,157.038
128506,144785,11030,-0.011,-0.946,0.225,0.061,0.305,0.122,157.045
128496,144729,38140,-0.011,-0.946,0.225,0.061,0.305,0.122,157.048
128496,144816,11027,-0.011,-0.946,0.225,-0.061,0.183,0,157.054
128468,144729,38140,-0.011,-0.946,0.225,-0.061,0.183,0,157.058
128468,144801,11042,-0.013,-0.948,0.225,-0.244,0.183,0,157.064
128473,144729,38140,-0.013,-0.948,0.225,-0.244,0.183,0,157.068
128473,144799,11040,-0.008,-0.948,0.224,-0.122,0.244,0,157.074
128469,144729,38140,-0.008,-0.948,0.224,-0.122,0.244,0,157.078
128469,144777,11036,-0.01,-0.945,0.227,-0.061,0.244,0,157.084
128487,144729,38140,-0.01,-0.945,0.227,-0.061,0.244,0,157.088
128487,144776,11057,-0.01,-0.944,0.226,0.061,0.305,0.061,157.094
128480,144729,38140,-0.01,-0.944,0.226,0.061,0.305,0.061,157.098
128480,144790,11032,-0.005,-0.942,0.227,-0.061,0.427,0.183,157.104
128482,144729,38140,-0.005,-0.942,0.227,-0.061,0.427,0.183,157.108
128482,144781,11050,-0.01,-0.944,0.227,0,0.427,0.183,157.114
128469,144729,38140,-0.01,-0.944,0.227,0,0.427,0.183,157.118
128469,144820,11040,-0.009,-0.944,0.224,0.061,0.488,0.183,157.124
128484,144729,38140,-0.009,-0.944,0.224,0.061,0.488,0.183,157.127
128484,144815,11038,-0.011,-0.943,0.224,0.061,0.549,0.366,157.134
128471,144729,38140,-0.011,-0.943,0.224,0.061,0.549,0.366,157.137
128471,144784,11038,-0.008,-0.942,0.224,0.061,0.549,0.305,157.144
128478,144729,38140,-0.008,-0.942,0.224,0.061,0.549,0.305,157.147
128478,144823,11036,-0.009,-0.949,0.227,0.183,0.732,0.183,157.153
128463,144729,38140,-0.009,-0.949,0.227,0.183,0.732,0.183,157.157
128463,144797,11044,-0.01,-0.95,0.225,-0.122,0.854,0.061,157.163
128475,144729,38140,-0.01,-0.95,0.225,-0.122,0.854,0.061,157.167
128475,144801,11036,-0.009,-0.949,0.223,-0.183,0.793,0.122,157.173
128445,144729,38140,-0.009,-0.949,0.223,-0.183,0.793,0.122,157.177
128445,144783,11037,-0.013,-0.945,0.222,0,0.732,0.183,157.183
128442,144729,38140,-0.013,-0.945,0.222,0,0.732,0.183,157.187
128442,144760,11028,-0.011,-0.943,0.223,0.122,0.732,0.427,157.193
128470,144729,38140,-0.012,-0.945,0.227,0.122,0.732,0.427,157.197
128470,144764,11043,-0.011,-0.947,0.227,0.244,0.61,0.244,157.203
128469,144729,38140,-0.011,-0.943,0.229,0.244,0.61,0.244,157.207
128469,144783,11044,-0.011,-0.945,0.23,0.183,0.549,0.061,157.213
128459,144729,38140,-0.012,-0.943,0.23,0.183,0.549,0.061,157.217
128459,144797,11043,-0.013,-0.943,0.229,0.061,0.854,0.061,157.223
128475,144729,38140,-0.01,-0.944,0.23,0.061,0.854,0.061,157.226
128475,144809,11029,-0.008,-0.944,0.231,0.122,0.915,0.061,157.233
128456,144729,38140,-0.011,-0.944,0.229,0.122,0.915,0.061,157.236
128456,144794,11034,-0.011,-0.947,0.228,0.061,0.793,0,157.242
128452,144729,38140,-0.008,-0.945,0.226,0.061,0.793,0,157.246
128452,144794,11049,-0.006,-0.943,0.224,-0.061,0.61,0.061,157.252
128446,144729,38140,-0.009,-0.945,0.225,-0.061,0.61,0.061,157.256
128446,144780,11034,-0.011,-0.944,0.223,-0.122,0.61,0.244,157.262
128440,144729,38140,-0.012,-0.944,0.226,-0.122,0.61,0.244,157.266
128440,144806,11039,-0.011,-0.947,0.224,0.122,0.61,0.183,157.272
128440,144729,38140,-0.011,-0.948,0.223,0.122,0.61,0.183,157.276
128440,144798,11039,-0.011,-0.946,0.227,0.183,0.488,0.183,157.282
128461,144729,38140,-0.008,-0.946,0.225,0.183,0.488,0.183,157.286
128461,144777,11026,-0.009,-0.944,0.228,0.244,0.305,0.122,157.292
128451,144729,38140,-0.008,-0.943,0.224,0.244,0.305,0.122,157.296
128451,144781,11025,-0.004,-0.945,0.224,0.244,0.183,0.305,157.302
128447,144729,38140,-0.005,-0.945,0.223,0.244,0.183,0.305,157.306
128447,144804,11038,-0.005,-0.944,0.226,0.061,0.366,0.244,157.312
128452,144729,38140,-0.009,-0.946,0.225,0.061,0.366,0.244,157.316
128452,144790,11022,-0.007,-0.947,0.225,-0.122,0.549,0.122,157.322
128456,144729,38140,-0.008,-0.945,0.226,-0.122,0.549,0.122,157.325
128456,144813,11039,-0.007,-0.949,0.23,-0.183,0.61,0.061,157.332
128468,144729,38140,-0.009,-0.949,0.228,-0.183,0.61,0.061,157.335
128468,144809,11048,-0.009,-0.947,0.228,-0.122,0.61,0,157.341
128446,144729,38140,-0.007,-0.944,0.23,-0.122,0.61,0,157.345
128446,144810,11043,-0.01,-0.942,0.229,-0.427,0.671,0,157.351
128456,144729,38140,-0.009,-0.941,0.228,-0.427,0.671,0,157.355
128456,144801,11033,-0.009,-0.943,0.228,-0.427,0.671,0.122,157.361
128449,144729,38140,-0.008,-0.943,0.229,-0.427,0.671,0.122,157.365
128449,144809,11033,-0.007,-0.942,0.226,-0.305,0.61,0.061,157.371
128461,144729,38140,-0.011,-0.943,0.226,-0.305,0.61,0.061,157.375
128461,144807,11049,-0.011,-0.945,0.221,-0.122,0.549,0.244,157.381
128471,144729,38140,-0.012,-0.943,0.224,-0.122,0.549,0.244,157.385
128471,144812,11036,-0.012,-0.941,0.224,0.061,0.671,0.427,157.391
128470,144729,38140,-0.013,-0.942,0.23,0.061,0.671,0.427,157.395
128470,144812,11032,-0.014,-0.944,0.23,0.244,0.549,0.366,157.401
128473,144729,38140,-0.013,-0.945,0.23,0.244,0.549,0.366,157.405
128473,144840,11043,-0.013,-0.945,0.227,0.305,0.305,0.366,157.411
128496,144729,38140,-0.009,-0.947,0.229,0.305,0.305,0.366,157.415
128496,144827,11039,-0.011,-0.949,0.225,0.061,0.305,0.427,157.421
128479,144729,38140,-0.011,-0.95,0.226,0.061,0.305,0.427,157.424
128479,144804,11049,-0.009,-0.944,0.224,0.061,0.183,0.427,157.431
128492,144729,38140,-0.012,-0.945,0.228,0.061,0.183,0.427,157.434
128492,144825,11033,-0.009,-0.943,0.227,0,-0.061,0.366,157.441
128480,144729,38140,-0.004,-0.944,0.225,0,-0.061,0.366,157.444
128480,144828,11040,-0.004,-0.941,0.227,0.061,-0.244,0.366,157.45
128459,144729,38140,-0.004,-0.939,0.227,0.061,-0.244,0.366,157.454
128459,144828,11034,-0.005,-0.942,0.227,0.122,-0.122,0.305,157.46
128468,144729,38140,-0.003,-0.944,0.226,0.122,-0.122,0.305,157.464
128468,144829,11044,-0.005,-0.947,0.226,0,0.122,0.244,157.47
128471,144729,38140,-0.006,-0.945,0.223,0,0.122,0.244,157.474
128471,144811,11039,-0.009,-0.945,0.223,-0.122,0.366,0.366,157.48
128465,144729,38140,-0.009,-0.944,0.225,-0.122,0.366,0.366,157.484
128465,144799,11033,-0.009,-0.943,0.229,-0.183,0.244,0.427,157.49
128452,144729,38140,-0.009,-0.944,0.233,-0.183,0.244,0.427,157.494
128452,144815,11058,-0.007,-0.944,0.23,-0.122,-0.061,0.488,157.5
128442,144729,38140,-0.007,-0.943,0.229,-0.122,-0.061,0.488,157.504
128442,144808,11022,-0.007,-0.944,0.228,-0.244,0,0.427,157.51
128429,144729,38140,-0.008,-0.944,0.228,-0.244,0,0.427,157.514
128429,144805,11046,-0.011,-0.945,0.224,-0.244,0.122,0.488,157.52
128429,144729,38140,-0.01,-0.946,0.227,-0.244,0.122,0.488,157.523
128429,144804,11024,-0.011,-0.946,0.228,-0.122,0.244,0.488,157.53
128417,144729,38140,-0.014,-0.948,0.226,-0.122,0.244,0.488,157.533
128417,144789,11048,-0.01,-0.947,0.223,0.244,0.122,0.549,157.539
128429,144729,38140,-0.008,-0.944,0.225,0.244,0.122,0.549,157.543
128429,144807,11035,-0.012,-0.944,0.224,0.244,0.061,0.732,157.549
128417,144729,38140,-0.01,-0.944,0.227,0.244,0.061,0.732,157.553
128417,144785,11036,-0.011,-0.948,0.223,-0.122,0.244,0.732,157.559
128443,144729,38140,-0.011,-0.946,0.226,-0.122,0.244,0.732,157.563
128443,144811,11033,-0.011,-0.949,0.227,-0.427,0.366,0.427,157.569
128435,144729,38140,-0.013,-0.948,0.224,-0.427,0.366,0.427,157.573
128435,144806,11055,-0.015,-0.948,0.225,-0.427,0.427,0.366,157.579
128439,144729,38140,-0.013,-0.945,0.229,-0.427,0.427,0.366,157.583
128439,144801,11025,-0.012,-0.946,0.227,0,0.305,0.366,157.589
128422,144729,38140,-0.011,-0.944,0.226,0,0.305,0.366,157.593
128422,144810,11043,-0.009,-0.943,0.229,0.183,0.305,0.305,157.599
128434,144729,38140,-0.01,-0.942,0.227,0.183,0.305,0.305,157.603
128434,144824,11035,-0.008,-0.941,0.228,0.244,0.366,0.244,157.609
128450,144729,38140,-0.006,-0.942,0.231,0.244,0.366,0.244,157.612
128450,144807,11035,-0.008,-0.944,0.228,0.183,0.427,0.183,157.619
128460,144729,38140,-0.006,-0.943,0.226,0.183,0.427,0.183,157.622
128460,144842,11040,-0.006,-0.943,0.226,-0.061,0.549,0.366,157.629
128469,144729,38140,-0.006,-0.943,0.226,-0.061,0.549,0.366,157.632
128469,144835,11063,-0.004,-0.942,0.226,-0.061,0.549,0.549,157.638
128498,144729,38140,-0.004,-0.942,0.226,-0.061,0.549,0.549,157.642
128498,144839,11039,-0.006,-0.946,0.229,0.061,0.427,0.549,157.648
128498,144729,38140,-0.006,-0.946,0.229,0.061,0.427,0.549,157.652
128498,144861,11049,-0.007,-0.945,0.229,-0.122,0.366,0.549,157.658
128501,144729,38140,-0.007,-0.945,0.229,-0.122,0.366,0.549,157.662
128501,144865,11042,-0.006,-0.946,0.233,-0.122,0.305,0.61,157.668
128475,144729,38140,-0.006,-0.946,0.233,-0.122,0.305,0.61,157.672
128475,144848,11051,-0.008,-0.943,0.23,-0.183,0.427,0.427,157.678
128478,144729,38140,-0.008,-0.943,0.23,-0.183,0.427,0.427,157.682
128478,144886,11046,-0.011,-0.942,0.23,-0.549,0.61,0.366,157.688
128482,144729,38140,-0.011,-0.942,0.23,-0.549,0.61,0.366,157.692
128482,144815,11035,-0.01,-0.944,0.229,-0.488,0.61,0.366,157.698
128492,144729,38140,-0.01,-0.944,0.229,-0.488,0.61,0.366,157.702
128492,144869,11053,-0.008,-0.946,0.229,-0.244,0.305,0.244,157.708
128484,144729,38140,-0.008,-0.946,0.229,-0.244,0.305,0.244,157.711
128484,144842,11050,-0.01,-0.945,0.23,-0.244,0.305,0.244,157.718
128474,144729,38140,-0.01,-0.945,0.23,-0.244,0.305,0.244,157.721
128474,144889,11057,-0.01,-0.94,0.229,-0.122,0.488,0.427,157.728
128516,144729,38140,-0.01,-0.94,0.229,-0.122,0.488,0.427,157.731
128516,144853,11040,-0.013,-0.945,0.229,0,0.549,0.366,157.737
128505,144729,38140,-0.013,-0.945,0.229,0,0.549,0.366,157.741
128505,144869,11054,-0.013,-0.944,0.227,-0.488,0.427,0.305,157.747
128507,144729,38140,-0.013,-0.944,0.227,-0.488,0.427,0.305,157.751
128507,144856,11056,-0.011,-0.945,0.229,-0.366,0.427,0.366,157.757
128482,144729,38140,-0.011,-0.945,0.229,-0.366,0.427,0.366,157.761
128482,144854,11057,-0.01,-0.946,0.229,-0.366,0.427,0.366,157.767
128519,144729,38140,-0.013,-0.945,0.227,-0.122,0.305,0.427,157.771
128519,144850,11054,-0.012,-0.944,0.229,-0.122,0.305,0.427,157.777
128487,144729,38140,-0.013,-0.943,0.228,-0.183,0.305,0.366,157.781
128487,144848,11044,-0.014,-0.945,0.224,-0.183,0.305,0.366,157.787
128485,144729,38140,-0.012,-0.945,0.221,-0.305,0.305,0.366,157.791
128485,144865,11050,-0.011,-0.945,0.224,-0.305,0.305,0.366,157.797
128486,144729,38140,-0.011,-0.948,0.223,-0.305,0.366,0.427,157.801
128486,144856,11062,-0.012,-0.945,0.224,-0.305,0.366,0.427,157.807
128510,144729,38140,-0.012,-0.946,0.228,-0.183,0.244,0.366,157.81
128510,144876,11056,-0.008,-0.945,0.227,-0.183,0.244,0.366,157.817
128503,144729,38140,-0.007,-0.944,0.229,0.183,0.183,0.366,157.82
128503,144892,11070,-0.008,-0.942,0.229,0.183,0.183,0.366,157.827
128532,144985,38140,-0.008,-0.941,0.229,0.244,0.244,0.305,157.83
128532,144905,11070,-0.006,-0.945,0.233,0.244,0.244,0.305,157.836
128517,144985,38140,-0.012,-0.945,0.231,0,0.305,0.183,157.84
128517,144904,11053,-0.007,-0.942,0.234,0,0.305,0.183,157.846
128517,144729,38140,-0.01,-0.941,0.232,-0.305,0.305,0.305,157.85
128517,144861,11065,-0.009,-0.942,0.231,-0.305,0.305,0.305,157.856
128506,144729,38140,-0.008,-0.944,0.23,-0.122,0.305,0.366,157.86
128506,144887,11078,-0.008,-0.946,0.23,-0.122,0.305,0.366,157.866
128531,144985,38140,-0.009,-0.943,0.229,0.183,0.366,0.305,157.87
128531,144905,11064,-0.009,-0.944,0.233,0.183,0.366,0.305,157.876
128537,144985,38140,-0.009,-0.943,0.226,0.061,0.366,0.427,157.88
128537,144902,11080,-0.009,-0.942,0.227,0.061,0.366,0.427,157.886
128529,144729,38140,-0.012,-0.943,0.228,0.122,0.366,0.549,157.89
128529,144891,11060,-0.012,-0.944,0.227,0.122,0.366,0.549,157.896
128533,144985,38140,-0.013,-0.948,0.23,0.122,0.427,0.366,157.9
128533,144932,11073,-0.011,-0.946,0.224,0.122,0.427,0.366,157.906
128557,144729,38140,-0.01,-0.945,0.227,0.061,0.366,0.183,157.909
128557,144889,11084,-0.011,-0.946,0.226,0.061,0.366,0.183,157.916
128551,144985,38140,-0.012,-0.946,0.228,0,0.305,0.244,157.919
128551,144941,11054,-0.01,-0.948,0.231,0,0.305,0.244,157.926
128557,144985,38140,-0.011,-0.945,0.229,-0.061,0.183,0,157.929
128557,144922,11065,-0.014,-0.943,0.225,-0.061,0.183,0,157.935
128562,144985,38140,-0.009,-0.943,0.227,-0.305,0.183,0,157.939
128562,144922,11074,-0.01,-0.945,0.232,-0.305,0.183,0,157.945
128552,144985,38140,-0.012,-0.943,0.228,-0.366,0.122,0.305,157.949
128552,144927,11056,-0.011,-0.941,0.231,-0.366,0.122,0.305,157.955
128562,144985,38140,-0.008,-0.942,0.231,-0.366,0.183,0.244,157.959
128562,144922,11071,-0.007,-0.942,0.228,-0.366,0.183,0.244,157.965
128592,144985,38140,-0.006,-0.942,0.229,-0.549,0.305,0.122,157.969
128592,144947,11075,-0.008,-0.944,0.231,-0.549,0.305,0.122,157.975
128577,144985,38140,-0.007,-0.943,0.23,-0.549,0.244,0.244,157.979
128577,144947,11075,-0.006,-0.939,0.231,-0.549,0.244,0.244,157.985
128567,144985,38140,-0.008,-0.941,0.226,-0.366,0.244,0.366,157.989
128567,144949,11080,-0.005,-0.941,0.23,-0.366,0.244,0.366,157.995
128582,144985,38140,-0.005,-0.944,0.226,-0.244,0.244,0.366,157.999
128582,144931,11061,-0.007,-0.947,0.227,-0.244,0.244,0.366,158.005
128565,144985,38140,-0.008,-0.95,0.23,-0.305,0.427,0.244,158.008
128565,144948,11072,-0.008,-0.951,0.224,-0.305,0.427,0.244,158.015
128564,144985,38140,-0.009,-0.949,0.227,-0.366,0.549,0.244,158.018
128564,144920,11087,-0.006,-0.945,0.225,-0.366,0.549,0.244,158.025
128575,144985,38140,-0.012,-0.946,0.22,-0.305,0.549,0.305,158.028
128575,144943,11084,-0.011,-0.949,0.223,-0.305,0.549,0.305,158.034
128577,144985,38140,-0.01,-0.947,0.226,-0.183,0.427,0.244,158.038
128577,144946,11090,-0.01,-0.945,0.225,-0.183,0.427,0.244,158.044
128595,144985,38140,-0.008,-0.944,0.224,-0.061,0.305,0.244,158.048
128595,144955,11065,-0.01,-0.943,0.227,-0.061,0.305,0.244,158.054
128575,144985,38140,-0.009,-0.945,0.228,0.061,0.305,0.244,158.058
128575,144962,11088,-0.006,-0.942,0.226,0.061,0.305,0.244,158.064
128605,144985,38140,-0.008,-0.942,0.224,-0.061,0.549,0.183,158.068
128605,144978,11077,-0.011,-0.942,0.226,-0.061,0.549,0.183,158.074
128611,144985,38140,-0.01,-0.941,0.227,-0.183,0.671,0.305,158.078
128611,144966,11086,-0.012,-0.942,0.228,-0.183,0.671,0.305,158.084
128611,144985,38140,-0.01,-0.942,0.23,0,0.61,0.366,158.088
128611,144970,11073,-0.008,-0.947,0.229,0,0.61,0.366,158.094
128588,144985,38140,-0.007,-0.947,0.226,-0.122,0.671,0.366,158.098
128588,144964,11094,-0.006,-0.944,0.233,-0.122,0.671,0.366,158.104
128609,144985,38140,-0.011,-0.947,0.231,-0.244,0.915,0.488,158.107
128609,144967,11079,-0.01,-0.95,0.232,-0.244,0.915,0.488,158.114
128597,144985,38140,-0.011,-0.949,0.229,0,0.915,0.549,158.117
128597,144995,11086,-0.011,-0.948,0.224,0,0.915,0.549,158.124
128608,144985,38140,-0.013,-0.944,0.225,0.305,0.793,0.488,158.127
128608,144958,11080,-0.011,-0.945,0.228,0.305,0.793,0.488,158.133
128613,144985,38140,-0.014,-0.942,0.228,0.183,0.671,0.427,158.137
128613,144978,11084,-0.013,-0.945,0.225,0.183,0.671,0.427,158.143
128617,144985,38140,-0.012,-0.947,0.227,-0.122,0.488,0.305,158.147
128617,144982,11074,-0.012,-0.947,0.229,-0.122,0.488,0.305,158.153
128613,144985,38140,-0.011,-0.947,0.225,-0.183,0.305,0,158.157
128613,144999,11098,-0.009,-0.947,0.224,-0.183,0.305,0,158.163
128625,144985,38140,-0.009,-0.947,0.225,-0.061,0.183,0.061,158.167
128625,144973,11061,-0.009,-0.949,0.228,-0.061,0.183,0.061,158.173
128619,144985,38140,-0.008,-0.946,0.233,0,0.061,0.366,158.177
128619,144994,11098,-0.006,-0.943,0.231,0,0.061,0.366,158.183
128617,144985,38140,-0.004,-0.941,0.231,-0.244,0.122,0.244,158.187
128617,144988,11084,-0.008,-0.942,0.23,-0.244,0.122,0.244,158.193
128618,144985,38140,-0.008,-0.943,0.231,-0.427,0.122,0.305,158.197
128618,144986,11084,-0.01,-0.943,0.23,-0.427,0.122,0.305,158.203
128614,144985,38140,-0.01,-0.943,0.23,-0.427,0.122,0.305,158.206
128614,144986,11093,-0.004,-0.943,0.23,-0.366,0.122,0.366,158.213
128629,144985,38140,-0.004,-0.943,0.23,-0.366,0.122,0.366,158.216
128629,144984,11084,-0.005,-0.94,0.229,-0.305,-0.061,0.366,158.222
128597,144985,38140,-0.005,-0.94,0.229,-0.305,-0.061,0.366,158.226
128597,144977,11076,-0.008,-0.939,0.231,-0.244,0,0.488,158.232
128617,144985,38140,-0.008,-0.939,0.231,-0.244,0,0.488,158.236
128617,144974,11099,-0.006,-0.94,0.228,-0.244,0.061,0.671,158.242
128623,144985,38140,-0.006,-0.94,0.228,-0.244,0.061,0.671,158.246
128623,144986,11091,-0.008,-0.939,0.228,-0.122,0.061,0.61,158.252
128619,144985,38140,-0.008,-0.939,0.228,-0.122,0.061,0.61,158.256
128619,145021,11091,-0.011,-0.948,0.229,-0.122,0.183,0.549,158.262
128640,144985,38140,-0.011,-0.948,0.229,-0.122,0.183,0.549,158.266
128640,144992,11088,-0.014,-0.949,0.221,-0.244,0.366,0.61,158.272
128620,144985,38140,-0.014,-0.949,0.221,-0.244,0.366,0.61,158.276
128620,144990,11090,-0.011,-0.951,0.22,-0.305,0.305,0.549,158.282
128642,144985,38140,-0.011,-0.951,0.22,-0.305,0.305,0.549,158.286
128642,145006,11101,-0.013,-0.951,0.222,-0.122,0.183,0.549,158.292
128622,144985,38140,-0.013,-0.951,0.222,-0.122,0.183,0.549,158.296
128622,145022,11104,-0.01,-0.945,0.223,0.122,0,0.488,158.302
128622,144985,38140,-0.01,-0.945,0.223,0.122,0,0.488,158.305
128622,145001,11080,-0.011,-0.943,0.23,-0.244,0.061,0.305,158.312
128635,144985,38140,-0.011,-0.943,0.23,-0.244,0.061,0.305,158.315
128635,145002,11101,-0.009,-0.945,0.226,-0.366,0.183,0.183,158.322
128642,144985,38140,-0.009,-0.945,0.226,-0.366,0.183,0.183,158.325
128642,145020,11097,-0.009,-0.943,0.225,-0.61,0.366,0.244,158.331
128637,144985,38140,-0.009,-0.943,0.225,-0.61,0.366,0.244,158.335
128637,144987,11113,-0.01,-0.944,0.228,-0.61,0.488,0.183,158.341
128647,144985,38140,-0.01,-0.944,0.228,-0.61,0.488,0.183,158.345
128647,145014,11100,-0.009,-0.939,0.227,-0.183,0.427,0.305,158.351
128643,144985,38140,-0.009,-0.939,0.229,-0.183,0.427,0.305,158.355
128643,145004,11093,-0.005,-0.941,0.236,0.061,0.183,0.427,158.361
128635,144985,38140,-0.005,-0.945,0.233,0.061,0.183,0.427,158.365
128635,144996,11100,-0.005,-0.946,0.231,-0.061,0.366,0.244,158.371
128616,144985,38140,-0.004,-0.942,0.23,-0.061,0.366,0.244,158.375
128616,145013,11092,-0.003,-0.942,0.227,-0.427,0.549,0.366,158.381
128625,144985,38140,-0.006,-0.945,0.23,-0.427,0.549,0.366,158.385
128625,144994,11083,-0.004,-0.941,0.232,-0.427,0.61,0.671,158.391
128626,144985,38140,-0.008,-0.944,0.232,-0.427,0.61,0.671,158.395
128626,145021,11116,-0.008,-0.943,0.23,-0.244,0.488,0.671,158.401
128638,144985,38140,-0.008,-0.947,0.232,-0.244,0.488,0.671,158.404
128638,145018,11108,-0.009,-0.944,0.233,-0.244,0.366,0.549,158.411
128661,144985,38140,-0.008,-0.941,0.229,-0.244,0.366,0.549,158.414
128661,145027,11101,-0.008,-0.94,0.229,-0.244,0.427,0.61,158.42
128644,144985,38140,-0.009,-0.942,0.228,-0.244,0.427,0.61,158.424
128644,145008,11127,-0.011,-0.942,0.228,-0.366,0.366,0.671,158.43
128648,144985,38140,-0.012,-0.943,0.231,-0.366,0.366,0.671,158.434
128648,145017,11090,-0.007,-0.946,0.227,-0.549,0.366,0.488,158.44
128647,144985,38140,-0.01,-0.946,0.229,-0.549,0.366,0.488,158.444
128647,145025,11101,-0.007,-0.945,0.228,-0.671,0.427,0.305,158.45
128642,144985,38140,-0.004,-0.943,0.229,-0.671,0.427,0.305,158.454
128642,145009,11104,-0.009,-0.942,0.23,-0.732,0.549,0.61,158.46
128641,144985,38140,-0.012,-0.943,0.226,-0.732,0.549,0.61,158.464
128641,145005,11100,-0.011,-0.944,0.227,-0.61,0.366,0.671,158.47
128623,144985,38140,-0.01,-0.945,0.228,-0.61,0.366,0.671,158.474
128623,144980,11115,-0.013,-0.946,0.228,-0.793,0.488,0.366,158.48
128634,144985,38140,-0.011,-0.944,0.229,-0.793,0.488,0.366,158.484
128634,145017,11094,-0.011,-0.947,0.231,-0.915,0.366,0.305,158.49
128614,144985,38140,-0.012,-0.945,0.231,-0.915,0.366,0.305,158.493
128614,144996,11109,-0.01,-0.945,0.229,-0.549,0.183,0.488,158.5
128628,144985,38140,-0.008,-0.943,0.231,-0.549,0.183,0.488,158.503
128628,144988,11089,-0.011,-0.941,0.231,-0.427,0.183,0.488,158.51
128615,144985,38140,-0.013,-0.942,0.23,-0.427,0.183,0.488,158.513
128615,144994,11106,-0.015,-0.943,0.226,-0.549,0.488,0.366,158.519
128633,144985,38140,-0.013,-0.942,0.224,-0.549,0.488,0.366,158.523
128633,144987,11093,-0.01,-0.943,0.226,-0.671,0.427,0.427,158.529
128607,144985,38140,-0.012,-0.945,0.224,-0.671,0.427,0.427,158.533
128607,144969,11097,-0.011,-0.944,0.222,-0.732,0.244,0.61,158.539
128601,144985,38140,-0.011,-0.942,0.228,-0.732,0.244,0.61,158.543
128601,144995,11104,-0.011,-0.944,0.231,-0.549,0.061,0.671,158.549
128618,144985,38140,-0.008,-0.944,0.226,-0.549,0.061,0.671,158.553
128618,144979,11090,-0.01,-0.946,0.228,-0.549,0.122,0.549,158.559
128600,144985,38140,-0.007,-0.944,0.229,-0.549,0.122,0.549,158.563
128600,144981,11097,-0.008,-0.948,0.228,-0.732,0.366,0.61,158.569
128641,144985,38140,-0.006,-0.947,0.226,-0.732,0.366,0.61,158.573
128641,145001,11097,-0.01,-0.946,0.225,-0.549,0.427,0.549,158.579
128604,144985,38140,-0.011,-0.948,0.226,-0.549,0.427,0.549,158.583
128604,144993,11111,-0.011,-0.944,0.223,-0.427,0.305,0.427,158.589
128615,144985,38140,-0.009,-0.943,0.225,-0.427,0.305,0.427,158.593
128615,144984,11102,-0.005,-0.943,0.227,-0.122,0.305,0.488,158.599
128594,144985,38140,-0.006,-0.944,0.224,-0.122,0.305,0.488,158.602
128594,144979,11105,-0.009,-0.943,0.23,-0.122,0.305,0.427,158.609
128607,144985,38140,-0.011,-0.941,0.231,-0.122,0.305,0.427,158.612
128607,145002,11087,-0.01,-0.944,0.227,-0.427,0.366,0.427,158.618
128626,144985,38140,-0.011,-0.944,0.228,-0.427,0.366,0.427,158.622
128626,144994,11091,-0.012,-0.947,0.23,-0.427,0.366,0.427,158.628
128603,144985,38140,-0.011,-0.944,0.224,-0.427,0.366,0.427,158.632
128603,144989,11091,-0.012,-0.943,0.225,-0.427,0.305,0.488,158.638
128598,144985,38140,-0.012,-0.945,0.226,-0.427,0.305,0.488,158.642
128598,145017,11092,-0.012,-0.945,0.226,0,0.244,0.61,158.648
128612,144985,38140,-0.012,-0.942,0.227,0,0.244,0.61,158.652
128612,144992,11102,-0.012,-0.943,0.225,0.122,0.122,0.549,158.658
128605,144985,38140,-0.009,-0.944,0.226,0.122,0.122,0.549,158.662
128605,145002,11117,-0.007,-0.942,0.225,-0.183,0.183,0.366,158.668
128615,144985,38140,-0.006,-0.941,0.228,-0.183,0.183,0.366,158.672
128615,144983,11096,-0.004,-0.946,0.231,-0.549,0.183,0.488,158.678
128617,144985,38140,-0.006,-0.944,0.23,-0.549,0.183,0.488,158.682
128617,145030,11112,-0.009,-0.944,0.225,-0.793,0.366,0.488,158.688
128621,144985,38140,-0.009,-0.945,0.226,-0.793,0.366,0.488,158.691
128621,145016,11078,-0.007,-0.946,0.229,-0.61,0.427,0.427,158.698
128618,144985,38140,-0.009,-0.949,0.228,-0.61,0.427,0.427,158.701
128618,145005,11117,-0.012,-0.948,0.229,-0.427,0.305,0.305,158.708
128613,144985,38140,-0.01,-0.946,0.232,-0.427,0.305,0.305,158.711
128613,145027,11106,-0.007,-0.945,0.231,-0.793,0.183,0.366,158.717
128610,144985,38140,-0.007,-0.942,0.23,-0.793,0.183,0.366,158.721
128610,145014,11094,-0.007,-0.942,0.226,-1.159,0.366,0.549,158.727
128606,144985,38140,-0.01,-0.945,0.223,-1.159,0.366,0.549,158.731
128606,144991,11100,-0.012,-0.944,0.228,-1.037,0.427,0.488,158.737
128612,144985,38140,-0.012,-0.943,0.226,-1.037,0.427,0.488,158.741
128612,145024,11108,-0.011,-0.946,0.228,-0.915,0.305,0.366,158.747
128623,144985,38140,-0.012,-0.945,0.226,-0.915,0.305,0.366,158.751
128623,145000,11105,-0.013,-0.943,0.224,-0.61,0.427,0.549,158.757
128623,144985,38140,-0.013,-0.939,0.227,-0.61,0.427,0.549,158.761
128623,145004,11096,-0.011,-0.942,0.225,-0.488,0.488,0.732,158.767
128622,144985,38140,-0.01,-0.944,0.223,-0.488,0.488,0.732,158.771
128622,145004,11104,-0.011,-0.947,0.228,-0.427,0.488,0.61,158.777
128612,144985,38140,-0.007,-0.949,0.227,-0.427,0.488,0.61,158.781
128612,145018,11104,-0.011,-0.951,0.224,-0.732,0.549,0.427,158.787
128609,144985,38140,-0.011,-0.951,0.224,-0.732,0.549,0.427,158.79
128609,144996,11117,-0.013,-0.949,0.224,-0.61,0.61,0.488,158.797
128631,144985,38140,-0.013,-0.949,0.224,-0.61,0.61,0.488,158.8
128631,145025,11098,-0.011,-0.951,0.225,-0.244,0.427,0.488,158.807
128620,144985,38140,-0.011,-0.951,0.225,-0.244,0.427,0.488,158.81
128620,145020,11118,-0.008,-0.945,0.223,-0.122,0.305,0.427,158.816
128642,144985,38140,-0.008,-0.945,0.223,-0.122,0.305,0.427,158.82
128642,145035,11105,-0.007,-0.943,0.227,-0.244,0.305,0.427,158.826
128643,144985,38140,-0.007,-0.943,0.227,-0.244,0.305,0.427,158.83
128643,145024,11109,-0.01,-0.945,0.224,-0.549,0.549,0.427,158.836
128631,144985,38140,-0.01,-0.945,0.224,-0.549,0.549,0.427,158.84
128631,145035,11108,-0.012,-0.945,0.224,-0.671,0.61,0.427,158.846
128635,144985,38140,-0.012,-0.945,0.224,-0.671,0.61,0.427,158.85
128635,145026,11103,-0.012,-0.942,0.226,-0.305,0.549,0.366,158.856
128636,144985,38140,-0.012,-0.942,0.226,-0.305,0.549,0.366,158.86
128636,145037,11114,-0.009,-0.943,0.229,-0.061,0.488,0.427,158.866
128663,144985,38140,-0.009,-0.943,0.229,-0.061,0.488,0.427,158.87
128663,145045,11109,-0.012,-0.949,0.227,-0.366,0.61,0.427,158.876
128638,144985,38140,-0.012,-0.949,0.227,-0.366,0.61,0.427,158.88
128638,145055,11118,-0.009,-0.948,0.227,-0.671,0.793,0.305,158.886
128683,144985,38140,-0.009,-0.948,0.227,-0.671,0.793,0.305,158.889
128683,145049,11105,-0.015,-0.948,0.22,-0.793,0.732,0.488,158.896
128670,144985,38140,-0.015,-0.948,0.22,-0.793,0.732,0.488,158.899
128670,145048,11089,-0.014,-0.947,0.224,-0.427,0.366,0.732,158.906
128647,144985,38140,-0.014,-0.947,0.224,-0.427,0.366,0.732,158.909
128647,145033,11127,-0.013,-0.942,0.225,-0.549,0.183,0.61,158.915
128675,144985,38140,-0.013,-0.942,0.225,-0.549,0.183,0.61,158.919
128675,145040,11112,-0.015,-0.943,0.224,-0.732,0.305,0.549,158.925
128672,144985,38140,-0.015,-0.943,0.224,-0.732,0.305,0.549,158.929
128672,145054,11124,-0.013,-0.944,0.225,-0.732,0.305,0.549,158.935
128668,144985,38140,-0.015,-0.944,0.225,-0.671,0.183,0.61,158.939
128668,145039,11117,-0.01,-0.946,0.228,-0.671,0.183,0.61,158.945
128665,144985,38140,-0.012,-0.948,0.227,-0.427,0.122,0.427,158.949
128665,145046,11101,-0.01,-0.947,0.228,-0.427,0.122,0.427,158.955
128679,144985,38140,-0.01,-0.944,0.226,-0.305,0,0.427,158.959
128679,145076,11117,-0.012,-0.947,0.226,-0.305,0,0.427,158.965
128683,144985,38140,-0.011,-0.943,0.229,-0.488,-0.061,0.305,158.969
128683,145054,11108,-0.005,-0.94,0.228,-0.488,-0.061,0.305,158.975
128673,144985,38140,-0.004,-0.945,0.228,-0.549,-0.122,0.427,158.979
128673,145056,11103,-0.006,-0.941,0.229,-0.549,-0.122,0.427,158.985
128666,144985,38140,-0.009,-0.945,0.23,-0.366,-0.061,0.488,158.988
128666,145039,11120,-0.002,-0.942,0.228,-0.366,-0.061,0.488,158.995
128679,144985,38140,-0.004,-0.942,0.224,-0.549,0.122,0.61,158.998
128679,145069,11125,-0.009,-0.942,0.221,-0.549,0.122,0.61,159.005
128686,144985,38140,-0.012,-0.942,0.223,-0.732,0.244,0.732,159.008
128686,145046,11103,-0.01,-0.945,0.223,-0.732,0.244,0.732,159.014
128657,144985,38140,-0.007,-0.945,0.225,-0.549,0.183,0.915,159.018
128657,145081,11116,-0.008,-0.948,0.221,-0.549,0.183,0.915,159.024
128680,144985,38140,-0.009,-0.947,0.219,-0.488,0.183,0.732,159.028
128680,145056,11116,-0.012,-0.948,0.224,-0.488,0.183,0.732,159.034
128685,144985,38140,-0.011,-0.951,0.219,-0.183,0.183,0.671,159.038
128685,145055,11112,-0.01,-0.951,0.218,-0.183,0.183,0.671,159.044
128682,144985,38140,-0.012,-0.949,0.222,-0.122,0.305,0.549,159.048
128682,145048,11126,-0.012,-0.95,0.219,-0.122,0.305,0.549,159.054
128675,144985,38140,-0.014,-0.949,0.215,-0.183,0.427,0.427,159.058
128675,145092,11121,-0.014,-0.947,0.219,-0.183,0.427,0.427,159.064
128678,144985,38140,-0.012,-0.946,0.218,-0.427,0.366,0.549,159.068
128678,145064,11118,-0.015,-0.945,0.222,-0.427,0.366,0.549,159.074
128680,144985,38140,-0.013,-0.946,0.222,-0.366,0.305,0.549,159.078
128680,145048,11110,-0.012,-0.945,0.223,-0.366,0.305,0.549,159.084
128673,144985,38140,-0.012,-0.945,0.226,-0.427,0.305,0.366,159.087
128673,145066,11115,-0.011,-0.947,0.223,-0.427,0.305,0.366,159.094
128671,144985,38140,-0.013,-0.947,0.22,-0.732,0.488,0.427,159.097
128671,145065,11126,-0.014,-0.947,0.219,-0.732,0.488,0.427,159.104
128681,144985,38140,-0.012,-0.949,0.224,-0.549,0.61,0.427,159.107
128681,145067,11120,-0.015,-0.946,0.223,-0.549,0.61,0.427,159.113
128682,144985,38140,-0.01,-0.942,0.225,-0.122,0.366,0.366,159.117
128682,145066,11133,-0.011,-0.941,0.23,-0.122,0.366,0.366,159.123
128692,144985,38140,-0.012,-0.942,0.227,0.244,0.244,0.366,159.127
128692,145045,11120,-0.012,-0.944,0.23,0.244,0.244,0.366,159.133
128654,144985,38140,-0.01,-0.945,0.232,0.244,0.305,0.427,159.137
128654,145069,11130,-0.009,-0.943,0.23,0.244,0.305,0.427,159.143
128670,144985,38140,-0.008,-0.945,0.225,-0.305,0.366,0.427,159.147
128670,145066,11119,-0.007,-0.944,0.228,-0.305,0.366,0.427,159.153
128642,144985,38140,-0.008,-0.945,0.223,-0.671,0.61,0.549,159.157
128642,145037,11127,-0.007,-0.947,0.224,-0.671,0.61,0.549,159.163
128678,144985,38140,-0.012,-0.945,0.226,-0.366,0.488,0.549,159.167
128678,145078,11118,-0.014,-0.946,0.223,-0.366,0.488,0.549,159.173
128681,144985,38140,-0.009,-0.945,0.225,-0.305,0.427,0.366,159.177
128681,145081,11115,-0.008,-0.943,0.231,-0.305,0.427,0.366,159.183
128674,144985,38140,-0.009,-0.945,0.227,-0.183,0.244,0.549,159.186
128674,145058,11126,-0.011,-0.945,0.225,-0.183,0.244,0.549,159.193
128670,144985,38140,-0.012,-0.943,0.224,-0.366,0.183,0.61,159.196
128670,145023,11124,-0.011,-0.945,0.225,-0.366,0.183,0.61,159.203
128662,144985,38140,-0.009,-0.943,0.224,-0.732,0.244,0.61,159.206
128662,145066,11118,-0.01,-0.943,0.225,-0.732,0.244,0.61,159.212
128655,144985,38140,-0.011,-0.946,0.227,-0.61,0.244,0.61,159.216
128655,145043,11114,-0.013,-0.941,0.226,-0.61,0.244,0.61,159.222
128647,144985,38140,-0.013,-0.943,0.225,-0.488,0.183,0.671,159.226
128647,145033,11123,-0.011,-0.942,0.228,-0.488,0.183,0.671,159.232
128650,144985,38140,-0.01,-0.945,0.228,-0.427,0.061,0.61,159.236
128650,145034,11105,-0.011,-0.946,0.227,-0.427,0.061,0.61,159.242
128620,144985,38140,-0.012,-0.945,0.222,-0.549,0.122,0.427,159.246
128620,145017,11134,-0.014,-0.944,0.227,-0.549,0.122,0.427,159.252
128613,144985,38140,-0.014,-0.946,0.228,-0.427,0.366,0.427,159.256
128613,145011,11091,-0.015,-0.947,0.225,-0.427,0.366,0.427,159.262
128611,144985,38140,-0.014,-0.943,0.223,-0.366,0.488,0.366,159.266
128611,145019,11112,-0.012,-0.945,0.221,-0.366,0.488,0.366,159.272
128630,144985,38140,-0.015,-0.947,0.221,-0.549,0.61,0.183,159.276
128630,144999,11110,-0.015,-0.949,0.218,-0.549,0.61,0.183,159.282
128623,144985,38140,-0.012,-0.949,0.218,-0.366,0.61,0.183,159.285
128623,145011,11121,-0.013,-0.946,0.22,-0.366,0.61,0.183,159.292
128608,144985,38140,-0.014,-0.949,0.219,0,0.366,0.244,159.295
128608,144985,11116,-0.012,-0.95,0.225,0,0.366,0.244,159.301
128586,144985,38140,-0.011,-0.947,0.223,0.183,0.366,0.122,159.305
128586,144989,11115,-0.01,-0.947,0.228,0.183,0.366,0.122,159.311
128595,144985,38140,-0.014,-0.949,0.223,-0.122,0.488,0.061,159.315
128595,144963,11083,-0.012,-0.951,0.223,-0.122,0.488,0.061,159.321
128586,144985,38140,-0.013,-0.947,0.227,-0.366,0.427,0.122,159.325
128586,144982,11098,-0.014,-0.945,0.227,-0.366,0.427,0.122,159.331
128570,144985,38140,-0.01,-0.943,0.221,-0.366,0.305,0.183,159.335
128570,144988,11110,-0.013,-0.945,0.223,-0.366,0.305,0.183,159.341
128588,144985,38140,-0.012,-0.944,0.223,-0.244,0.305,0.427,159.345
128588,144983,11113,-0.012,-0.943,0.221,-0.244,0.305,0.427,159.351
128577,144985,38140,-0.011,-0.945,0.219,0,0.305,0.488,159.355
128577,144945,11101,-0.009,-0.942,0.219,0,0.305,0.488,159.361
128576,144985,38140,-0.013,-0.945,0.223,0.122,0.183,0.549,159.365
128576,144950,11095,-0.009,-0.944,0.222,0.122,0.183,0.549,159.371
128555,144985,38140,-0.009,-0.944,0.222,0.122,0.183,0.549,159.375
128555,144955,11095,-0.007,-0.946,0.227,0.122,0,0.61,159.381
128555,144985,38140,-0.007,-0.946,0.227,0.122,0,0.61,159.384
128555,144944,11084,-0.009,-0.947,0.22,0.061,0.122,0.427,159.391
128534,144985,38140,-0.009,-0.947,0.22,0.061,0.122,0.427,159.394
128534,144954,11098,-0.011,-0.948,0.221,-0.061,0.488,0.427,159.401
128529,144985,38140,-0.011,-0.948,0.221,-0.061,0.488,0.427,159.404
128529,144936,11079,-0.011,-0.947,0.229,0.122,0.549,0.488,159.41
128521,144985,38140,-0.011,-0.947,0.229,0.122,0.549,0.488,159.414
128521,144923,11092,-0.014,-0.944,0.226,0.061,0.244,0.427,159.42
128522,144985,38140,-0.014,-0.944,0.226,0.061,0.244,0.427,159.424
128522,144925,11077,-0.013,-0.943,0.224,-0.427,0.244,0.488,159.43
128527,144985,38140,-0.013,-0.943,0.224,-0.427,0.244,0.488,159.434
128527,144935,11080,-0.013,-0.944,0.223,-0.366,0.305,0.549,159.44
128522,144985,38140,-0.013,-0.944,0.223,-0.366,0.305,0.549,159.444
128522,144915,11071,-0.011,-0.944,0.223,0,0.244,0.61,159.45
128516,144985,38140,-0.011,-0.944,0.223,0,0.244,0.61,159.454
128516,144905,11095,-0.014,-0.946,0.225,0,0.244,0.488,159.46
128534,144985,38140,-0.014,-0.946,0.225,0,0.244,0.488,159.464
128534,144937,11093,-0.009,-0.948,0.222,0,0.244,0.549,159.47
128501,144985,38140,-0.009,-0.948,0.222,0,0.244,0.549,159.474
128501,144925,11093,-0.012,-0.947,0.224,-0.061,0.183,0.427,159.48
128525,144985,38140,-0.012,-0.947,0.224,-0.061,0.183,0.427,159.483
128525,144901,11086,-0.009,-0.95,0.226,0.366,0.305,0.305,159.49
128509,144729,38140,-0.009,-0.95,0.226,0.366,0.305,0.305,159.493
128509,144894,11098,-0.01,-0.947,0.222,0.366,0.305,0.305,159.499
128504,144729,38140,-0.01,-0.947,0.222,0.366,0.305,0.305,159.503
128504,144890,11084,-0.01,-0.946,0.219,0.061,0.366,0.305,159.509
128482,144729,38140,-0.01,-0.946,0.219,0.061,0.366,0.305,159.513
128482,144885,11076,-0.011,-0.947,0.221,-0.366,0.549,0.366,159.519
128481,144729,38140,-0.012,-0.948,0.223,-0.366,0.549,0.366,159.523
128481,144877,11078,-0.017,-0.945,0.223,-0.427,0.549,0.366,159.529
128485,144729,38140,-0.015,-0.947,0.229,-0.427,0.549,0.366,159.533
128485,144881,11064,-0.01,-0.947,0.225,-0.183,0.427,0.305,159.539
128465,144729,38140,-0.012,-0.944,0.224,-0.183,0.427,0.305,159.543
128465,144877,11078,-0.011,-0.946,0.224,-0.122,0.183,0.305,159.549
128474,144729,38140,-0.013,-0.943,0.221,-0.122,0.183,0.305,159.553
128474,144864,11091,-0.011,-0.942,0.222,0,0.305,0.366,159.559
128501,144729,38140,-0.01,-0.944,0.218,0,0.305,0.366,159.563
128501,144895,11084,-0.009,-0.947,0.222,0.061,0.427,0.427,159.569
128467,144729,38140,-0.012,-0.945,0.225,0.061,0.427,0.427,159.573
128467,144874,11078,-0.009,-0.945,0.224,0,0.488,0.427,159.579
128468,144729,38140,-0.011,-0.946,0.225,0,0.488,0.427,159.582
128468,144874,11076,-0.014,-0.946,0.227,-0.244,0.488,0.427,159.589
128444,144729,38140,-0.012,-0.943,0.221,-0.244,0.488,0.427,159.592
128444,144850,11068,-0.01,-0.942,0.223,-0.122,0.671,0.549,159.598
128455,144729,38140,-0.01,-0.947,0.228,-0.122,0.671,0.549,159.602
128455,144838,11083,-0.01,-0.949,0.227,0,0.732,0.427,159.608
128433,144729,38140,-0.011,-0.949,0.23,0,0.732,0.427,159.612
128433,144861,11068,-0.011,-0.951,0.228,-0.061,0.793,0.183,159.618
128474,144729,38140,-0.013,-0.949,0.227,-0.061,0.793,0.183,159.622
128474,144869,11063,-0.012,-0.948,0.223,-0.427,0.915,0.244,159.628
128430,144729,38140,-0.016,-0.947,0.221,-0.427,0.915,0.244,159.632
128430,144859,11073,-0.014,-0.945,0.22,-0.061,0.671,0.427,159.638
128455,144729,38140,-0.015,-0.945,0.223,-0.061,0.671,0.427,159.642
128455,144875,11079,-0.018,-0.943,0.224,0.122,0.427,0.427,159.648
128450,144729,38140,-0.017,-0.942,0.223,0.122,0.427,0.427,159.652
128450,144850,11071,-0.017,-0.941,0.23,0.305,0.366,0.366,159.658
128439,144729,38140,-0.014,-0.942,0.228,0.305,0.366,0.366,159.662
128439,144858,11077,-0.014,-0.942,0.227,0.122,0.305,0.488,159.668
128448,144729,38140,-0.014,-0.946,0.228,0.122,0.305,0.488,159.671
128448,144851,11075,-0.014,-0.945,0.228,-0.061,0.305,0.61,159.678
128436,144729,38140,-0.015,-0.945,0.228,-0.061,0.305,0.61,159.681
128436,144875,11071,-0.013,-0.945,0.227,0.183,0.122,0.61,159.688
128438,144729,38140,-0.01,-0.945,0.227,0.183,0.122,0.61,159.691
