134819,148206,12414,-0.02,-0.967,-0.015,0,0.427,0.244,617.154
134837,148057,38140,-0.021,-0.965,-0.019,0,0.427,0.244,617.158
134837,148198,12428,-0.022,-0.962,-0.022,-0.183,0.61,0.427,617.164
134850,148057,38140,-0.023,-0.967,-0.017,-0.183,0.61,0.427,617.167
134850,148180,12424,-0.024,-0.968,-0.016,-0.122,0.488,0.549,617.174
134841,148057,38140,-0.026,-0.966,-0.015,-0.122,0.488,0.549,617.177
134841,148199,12422,-0.027,-0.968,-0.015,-0.61,0.366,0.427,617.183
134818,148057,38140,-0.024,-0.967,-0.019,-0.61,0.366,0.427,617.187
134818,148204,12422,-0.025,-0.968,-0.014,-1.037,0.549,0.549,617.193
134829,148057,38140,-0.026,-0.972,-0.019,-1.037,0.549,0.549,617.197
134829,148185,12421,-0.025,-0.97,-0.018,-0.915,0.671,0.488,617.203
134828,148313,38140,-0.023,-0.973,-0.019,-0.915,0.671,0.488,617.207
134828,148226,12435,-0.025,-0.973,-0.013,-0.915,0.366,0.305,617.213
134830,148057,38140,-0.022,-0.972,-0.012,-0.915,0.366,0.305,617.217
134830,148196,12419,-0.023,-0.973,-0.016,-0.671,0.122,0.305,617.223
134833,148057,38140,-0.022,-0.967,-0.018,-0.671,0.122,0.305,617.227
134833,148196,12426,-0.023,-0.967,-0.016,-0.488,0.244,0.305,617.233
134838,148057,38140,-0.022,-0.969,-0.01,-0.488,0.244,0.305,617.237
134838,148176,12414,-0.022,-0.967,-0.01,-0.122,0.366,0.122,617.243
134813,148057,38140,-0.02,-0.967,-0.008,-0.122,0.366,0.122,617.247
134813,148186,12408,-0.019,-0.965,-0.01,-0.671,0.183,0,617.253
134809,148057,38140,-0.022,-0.966,-0.01,-0.671,0.183,0,617.257
134809,148188,12402,-0.022,-0.968,-0.017,-0.976,0.061,0.122,617.263
134801,148057,38140,-0.022,-0.965,-0.02,-0.976,0.061,0.122,617.266
134801,148200,12412,-0.023,-0.965,-0.02,-0.122,0.061,0.305,617.273
134830,148057,38140,-0.02,-0.963,-0.019,-0.122,0.061,0.305,617.276
134830,148175,12415,-0.022,-0.962,-0.019,0.61,0.183,0.122,617.283
134843,148057,38140,-0.022,-0.967,-0.019,0.61,0.183,0.122,617.286
134843,148197,12413,-0.019,-0.967,-0.019,0.488,0.244,0.122,617.292
134810,148057,38140,-0.02,-0.973,-0.021,0.488,0.244,0.122,617.296
134810,148182,12402,-0.021,-0.972,-0.019,0.122,0.305,0.427,617.302
134805,148057,38140,-0.022,-0.972,-0.011,0.122,0.305,0.427,617.306
134805,148155,12429,-0.021,-0.971,-0.008,-0.244,0.122,0.427,617.312
134797,148057,38140,-0.017,-0.97,-0.01,-0.244,0.122,0.427,617.316
134797,148184,12426,-0.019,-0.966,-0.009,-0.366,-0.122,0.427,617.322
134803,148057,38140,-0.02,-0.966,-0.012,-0.366,-0.122,0.427,617.326
134803,148182,12411,-0.018,-0.966,-0.013,0.183,0.305,0.488,617.332
134792,148057,38140,-0.019,-0.966,-0.017,0.183,0.305,0.488,617.336
134792,148178,12427,-0.02,-0.964,-0.014,0.366,0.61,0.183,617.342
134822,148057,38140,-0.02,-0.964,-0.014,0.366,0.61,0.183,617.346
134822,148177,12411,-0.021,-0.966,-0.015,0,0.366,0.122,617.352
134790,148057,38140,-0.021,-0.966,-0.015,0,0.366,0.122,617.356
134790,148200,12413,-0.02,-0.967,-0.011,-0.488,0.183,0.244,617.362
134823,148057,38140,-0.02,-0.967,-0.011,-0.488,0.183,0.244,617.365
134823,148211,12418,-0.019,-0.966,-0.015,-0.732,0.488,0.061,617.372
134829,148057,38140,-0.019,-0.966,-0.015,-0.732,0.488,0.061,617.375
134829,148209,12413,-0.019,-0.972,-0.023,-0.427,0.671,-0.183,617.381
134831,148057,38140,-0.019,-0.972,-0.023,-0.427,0.671,-0.183,617.385
134831,148213,12415,-0.024,-0.969,-0.015,0,0.671,0.122,617.391
134838,148057,38140,-0.024,-0.969,-0.015,0,0.671,0.122,617.395
134838,148220,12405,-0.022,-0.968,-0.019,-0.183,0.549,0.122,617.401
134834,148057,38140,-0.022,-0.968,-0.019,-0.183,0.549,0.122,617.405
134834,148202,12412,-0.021,-0.971,-0.014,-0.366,0.427,0.122,617.411
134825,148313,38140,-0.021,-0.971,-0.014,-0.366,0.427,0.122,617.415
134825,148240,12416,-0.02,-0.969,-0.016,-0.183,0.366,0.244,617.421
134824,148313,38140,-0.02,-0.969,-0.016,-0.183,0.366,0.244,617.425
134824,148227,12431,-0.012,-0.965,-0.016,-0.183,0.305,0.122,617.431
134840,148313,38140,-0.012,-0.965,-0.016,-0.183,0.305,0.122,617.435
134840,148229,12419,-0.014,-0.963,-0.018,-0.122,0.366,0.244,617.441
134853,148313,38140,-0.014,-0.963,-0.018,-0.122,0.366,0.244,617.445
134853,148240,12423,-0.016,-0.967,-0.022,-0.61,0.61,0.305,617.451
134801,148057,38140,-0.016,-0.967,-0.022,-0.61,0.61,0.305,617.454
134801,148205,12428,-0.017,-0.973,-0.017,-0.671,0.976,0.305,617.461
134832,148057,38140,-0.017,-0.973,-0.017,-0.671,0.976,0.305,617.464
134832,148214,12417,-0.02,-0.97,-0.015,-0.122,0.854,0.366,617.471
134822,148057,38140,-0.02,-0.97,-0.015,-0.122,0.854,0.366,617.474
134822,148217,12426,-0.02,-0.968,-0.012,0.488,0.549,0.671,617.48
134829,148057,38140,-0.02,-0.968,-0.012,0.488,0.549,0.671,617.484
134829,148216,12408,-0.019,-0.968,-0.009,0.488,0.549,0.671,617.49
134827,148057,38140,-0.022,-0.966,-0.009,0.488,0.732,0.549,617.494
134827,148189,12406,-0.024,-0.966,-0.012,0.488,0.732,0.549,617.5
134836,148313,38140,-0.026,-0.966,-0.013,0,0.793,0.488,617.504
134836,148224,12414,-0.029,-0.966,-0.014,0,0.793,0.488,617.51
134810,148057,38140,-0.024,-0.966,-0.014,-0.122,0.427,0.61,617.514
134810,148200,12415,-0.027,-0.968,-0.014,-0.122,0.427,0.61,617.52
134819,148057,38140,-0.024,-0.966,-0.016,0.305,0.305,0.427,617.524
134819,148206,12405,-0.021,-0.966,-0.016,0.305,0.305,0.427,617.53
134815,148057,38140,-0.021,-0.967,-0.015,0.549,0.427,0.427,617.534
134815,148193,12447,-0.023,-0.967,-0.02,0.549,0.427,0.427,617.54
134819,148313,38140,-0.02,-0.969,-0.018,0.244,0.427,0.549,617.544
134819,148253,12418,-0.023,-0.968,-0.015,0.244,0.427,0.549,617.55
134828,148057,38140,-0.021,-0.966,-0.013,-0.061,0.244,0.549,617.554
134828,148222,12434,-0.018,-0.969,-0.016,-0.061,0.244,0.549,617.56
134832,148057,38140,-0.02,-0.969,-0.014,0.061,0,0.549,617.563
134832,148216,12428,-0.017,-0.968,-0.009,0.061,0,0.549,617.57
134822,148057,38140,-0.017,-0.969,-0.005,0.122,-0.061,0.427,617.573
134822,148202,12430,-0.015,-0.968,0.002,0.122,-0.061,0.427,617.579
134835,148057,38140,-0.015,-0.969,-0.005,0,0.061,0.244,617.583
134835,148201,12410,-0.017,-0.965,-0.009,0,0.061,0.244,617.589
134811,148057,38140,-0.017,-0.966,-0.008,-0.305,0.305,0.305,617.593
134811,148187,12437,-0.018,-0.97,-0.013,-0.305,0.305,0.305,617.599
134811,148057,38140,-0.019,-0.969,-0.023,-0.61,0.488,0.427,617.603
134811,148209,12409,-0.021,-0.97,-0.021,-0.61,0.488,0.427,617.609
134831,148057,38140,-0.021,-0.969,-0.019,-0.305,0.366,0.366,617.613
134831,148208,12405,-0.024,-0.969,-0.022,-0.305,0.366,0.366,617.619
134826,148313,38140,-0.024,-0.968,-0.019,-0.183,0.122,0.244,617.623
134826,148226,12418,-0.023,-0.971,-0.018,-0.183,0.122,0.244,617.629
134816,148313,38140,-0.023,-0.969,-0.023,-0.671,0.366,0.305,617.633
134816,148233,12434,-0.024,-0.969,-0.021,-0.671,0.366,0.305,617.639
134854,148313,38140,-0.025,-0.969,-0.018,-0.976,0.549,0.488,617.643
134854,148246,12425,-0.026,-0.973,-0.019,-0.976,0.549,0.488,617.649
134836,148057,38140,-0.025,-0.971,-0.017,-0.488,0.244,0.488,617.652
134836,148217,12435,-0.027,-0.969,-0.018,-0.488,0.244,0.488,617.659
134852,148057,38140,-0.023,-0.97,-0.014,0.183,0.244,0.061,617.662
134852,148208,12421,-0.024,-0.968,-0.015,0.183,0.244,0.061,617.669
134851,148313,38140,-0.026,-0.968,-0.015,0.549,0.305,0.061,617.672
134851,148241,12426,-0.023,-0.967,-0.011,0.549,0.305,0.061,617.678
134835,148313,38140,-0.025,-0.967,-0.015,0.427,0.305,0.122,617.682
134835,148249,12424,-0.023,-0.967,-0.016,0.427,0.305,0.122,617.688
134865,148057,38140,-0.022,-0.97,-0.014,0.183,0.183,-0.122,617.692
134865,148212,12431,-0.02,-0.971,-0.007,0.183,0.183,-0.122,617.698
134845,148313,38140,-0.018,-0.97,-0.007,0.061,0.061,-0.122,617.702
134845,148272,12438,-0.015,-0.966,-0.015,0.061,0.061,-0.122,617.708
134883,148313,38140,-0.016,-0.966,-0.014,-0.549,0.183,0.122,617.712
134883,148248,12428,-0.015,-0.966,-0.015,-0.549,0.183,0.122,617.718
134867,148313,38140,-0.017,-0.966,-0.013,-0.122,0.427,0.366,617.722
134867,148253,12435,-0.018,-0.963,-0.017,-0.122,0.427,0.366,617.728
134896,148313,38140,-0.019,-0.96,-0.018,0.183,0.183,0.244,617.732
134896,148277,12428,-0.013,-0.963,-0.018,0.183,0.183,0.244,617.738
134876,148313,38140,-0.013,-0.961,-0.02,0,0.183,0.183,617.742
134876,148269,12427,-0.016,-0.961,-0.017,0,0.183,0.183,617.748
134895,148313,38140,-0.017,-0.965,-0.013,-0.244,0.366,0.427,617.751
134895,148269,12434,-0.014,-0.968,-0.013,-0.244,0.366,0.427,617.758
134911,148313,38140,-0.015,-0.967,-0.017,-0.61,0.427,0.61,617.761
134911,148268,12426,-0.016,-0.97,-0.017,-0.61,0.427,0.61,617.768
134876,148313,38140,-0.017,-0.971,-0.015,-0.793,0.549,0.671,617.771
134876,148284,12433,-0.019,-0.974,-0.015,-0.793,0.549,0.671,617.777
134863,148313,38140,-0.02,-0.971,-0.015,-0.671,0.732,0.61,617.781
134863,148271,12430,-0.018,-0.97,-0.015,-0.671,0.732,0.61,617.787
134895,148313,38140,-0.021,-0.966,-0.015,-0.366,0.549,0.61,617.791
134895,148276,12422,-0.021,-0.969,-0.015,-0.366,0.549,0.61,617.797
134895,148313,38140,-0.017,-0.969,-0.015,0.122,0.305,0.549,617.801
134895,148250,12441,-0.019,-0.968,-0.021,0.122,0.305,0.549,617.807
134856,148313,38140,-0.019,-0.965,-0.018,0.122,0.305,0.366,617.811
134856,148311,12432,-0.021,-0.97,-0.015,0.122,0.305,0.366,617.817
134874,148313,38140,-0.017,-0.966,-0.013,0.305,0.427,0.366,617.821
134874,148261,12434,-0.018,-0.963,-0.013,0.305,0.427,0.366,617.827
134874,148313,38140,-0.019,-0.964,-0.013,0.061,0.488,0.427,617.831
134874,148281,12437,-0.02,-0.963,-0.01,0.061,0.488,0.427,617.837
134860,148313,38140,-0.019,-0.965,-0.008,0.183,0.61,0.488,617.841
134860,148262,12420,-0.023,-0.965,-0.008,0.183,0.61,0.488,617.847
134838,148313,38140,-0.022,-0.969,-0.011,-0.305,0.671,0.305,617.851
134838,148239,12431,-0.02,-0.971,-0.012,-0.305,0.671,0.305,617.857
134835,148313,38140,-0.022,-0.973,-0.011,-0.671,0.61,0.061,617.86
134835,148227,12427,-0.023,-0.972,-0.012,-0.671,0.61,0.061,617.867
134856,148313,38140,-0.023,-0.973,-0.015,-0.915,0.488,0.122,617.87
134856,148252,12435,-0.022,-0.967,-0.015,-0.915,0.488,0.122,617.876
134898,148313,38140,-0.025,-0.968,-0.016,-0.61,0.549,0.244,617.88
134898,148264,12423,-0.024,-0.968,-0.012,-0.61,0.549,0.244,617.886
134878,148313,38140,-0.026,-0.967,-0.017,-0.488,0.427,0.183,617.89
134878,148242,12440,-0.026,-0.967,-0.022,-0.488,0.427,0.183,617.896
134889,148313,38140,-0.023,-0.967,-0.021,-0.732,0.183,0.061,617.9
134889,148269,12431,-0.023,-0.969,-0.021,-0.732,0.183,0.061,617.906
134861,148313,38140,-0.023,-0.973,-0.018,-0.854,0.427,0.305,617.91
134861,148260,12439,-0.024,-0.967,-0.018,-0.854,0.427,0.305,617.916
134859,148313,38140,-0.02,-0.966,-0.024,-0.549,0.488,0.244,617.92
134859,148261,12433,-0.022,-0.964,-0.022,-0.549,0.488,0.244,617.926
134857,148313,38140,-0.022,-0.964,-0.022,-0.549,0.488,0.244,617.93
134857,148236,12422,-0.019,-0.967,-0.016,-0.122,0.244,0.122,617.936
134853,148313,38140,-0.019,-0.967,-0.016,-0.122,0.244,0.122,617.94
134853,148264,12432,-0.017,-0.968,-0.01,0.061,0.244,0.122,617.946
134874,148313,38140,-0.017,-0.968,-0.01,0.061,0.244,0.122,617.949
134874,148259,12418,-0.018,-0.967,-0.011,-0.366,0.366,0.122,617.956
134867,148313,38140,-0.018,-0.967,-0.011,-0.366,0.366,0.122,617.959
134867,148238,12420,-0.02,-0.968,-0.008,-0.61,0.427,0.305,617.966
134839,148313,38140,-0.02,-0.968,-0.008,-0.61,0.427,0.305,617.969
134839,148241,12447,-0.019,-0.971,-0.016,-0.244,0.366,0.488,617.975
134852,148313,38140,-0.019,-0.971,-0.016,-0.244,0.366,0.488,617.979
134852,148259,12435,-0.017,-0.969,-0.017,0.305,0.427,0.488,617.985
134868,148313,38140,-0.017,-0.969,-0.017,0.305,0.427,0.488,617.989
134868,148266,12414,-0.017,-0.964,-0.015,0.549,0.305,0.549,617.995
134871,148313,38140,-0.017,-0.964,-0.015,0.549,0.305,0.549,617.999
134871,148266,12430,-0.016,-0.964,-0.017,0.305,0.244,0.671,618.005
134889,148313,38140,-0.016,-0.964,-0.017,0.305,0.244,0.671,618.009
134889,148274,12430,-0.02,-0.964,-0.013,0,0.427,0.732,618.015
134876,148313,38140,-0.02,-0.964,-0.013,0,0.427,0.732,618.019
134876,148295,12429,-0.019,-0.967,-0.014,0.061,0.61,0.427,618.025
134870,148313,38140,-0.019,-0.967,-0.014,0.061,0.61,0.427,618.029
134870,148287,12442,-0.024,-0.967,-0.014,-0.183,0.854,0.183,618.035
134877,148313,38140,-0.024,-0.967,-0.014,-0.183,0.854,0.183,618.039
134877,148304,12420,-0.023,-0.971,-0.017,-0.061,0.915,0.305,618.045
134867,148313,38140,-0.023,-0.971,-0.017,-0.061,0.915,0.305,618.049
134867,148286,12448,-0.02,-0.973,-0.018,-0.061,0.671,0.183,618.055
134868,148313,38140,-0.02,-0.973,-0.018,-0.061,0.671,0.183,618.058
134868,148281,12439,-0.021,-0.969,-0.011,-0.061,0.61,0.061,618.065
134870,148313,38140,-0.021,-0.969,-0.011,-0.061,0.61,0.061,618.068
134870,148279,12435,-0.02,-0.967,-0.014,0.122,0.366,0.183,618.074
134882,148313,38140,-0.02,-0.967,-0.014,0.122,0.366,0.183,618.078
134882,148287,12428,-0.017,-0.965,-0.016,-0.427,0.183,0.244,618.084
134899,148313,38140,-0.017,-0.964,-0.017,-0.427,0.183,0.244,618.088
134899,148289,12418,-0.021,-0.966,-0.019,-0.61,0.488,0.305,618.094
134879,148313,38140,-0.02,-0.97,-0.017,-0.61,0.488,0.305,618.098
134879,148304,12430,-0.021,-0.969,-0.014,-0.549,0.671,0.427,618.104
134895,148313,38140,-0.022,-0.968,-0.015,-0.549,0.671,0.427,618.108
134895,148283,12419,-0.023,-0.969,-0.018,-0.671,0.488,0.488,618.114
134867,148313,38140,-0.023,-0.969,-0.016,-0.671,0.488,0.488,618.118
134867,148273,12430,-0.022,-0.97,-0.016,-0.488,0.488,0.549,618.124
134877,148313,38140,-0.02,-0.965,-0.019,-0.488,0.488,0.549,618.128
134877,148283,12433,-0.019,-0.963,-0.018,0,0.488,0.427,618.134
134889,148313,38140,-0.016,-0.963,-0.016,0,0.488,0.427,618.138
134889,148276,12431,-0.016,-0.965,-0.01,0.732,0.183,0.305,618.144
134888,148313,38140,-0.011,-0.965,-0.013,0.732,0.183,0.305,618.147
134888,148313,12418,-0.01,-0.963,-0.016,0.671,0.061,0.244,618.154
134878,148313,38140,-0.009,-0.966,-0.017,0.671,0.061,0.244,618.157
134878,148318,12434,-0.013,-0.966,-0.012,0.061,0.732,0.366,618.164
134903,148313,38140,-0.016,-0.97,-0.01,0.061,0.732,0.366,618.167
134903,148300,12436,-0.017,-0.966,-0.011,-0.244,1.037,0.61,618.173
134887,148313,38140,-0.018,-0.965,-0.008,-0.244,1.037,0.61,618.177
134887,148310,12435,-0.017,-0.966,-0.008,-0.305,0.61,0.61,618.183
134896,148313,38140,-0.023,-0.967,-0.007,-0.305,0.61,0.61,618.187
134896,148315,12438,-0.025,-0.967,-0.008,-0.061,0.61,0.793,618.193
134895,148313,38140,-0.023,-0.966,-0.014,-0.061,0.61,0.793,618.197
134895,148312,12435,-0.028,-0.966,-0.014,0.122,0.915,0.793,618.203
134912,148313,38140,-0.027,-0.967,-0.016,0.122,0.915,0.793,618.207
134912,148295,12448,-0.027,-0.968,-0.016,0.061,0.671,0.793,618.213
134889,148313,38140,-0.025,-0.966,-0.015,0.061,0.671,0.793,618.217
134889,148313,12443,-0.026,-0.969,-0.017,0.122,0.305,0.793,618.223
134878,148313,38140,-0.028,-0.969,-0.015,0.122,0.305,0.793,618.227
134878,148306,12436,-0.028,-0.967,-0.011,-0.061,0.305,0.732,618.233
134904,148313,38140,-0.027,-0.968,-0.011,-0.061,0.305,0.732,618.237
134904,148297,12427,-0.027,-0.973,-0.009,-0.61,0.183,0.549,618.243
134882,148313,38140,-0.025,-0.97,-0.01,-0.61,0.183,0.549,618.247
134882,148298,12420,-0.018,-0.967,-0.007,-1.098,-0.122,0.488,618.253
134886,148313,38140,-0.018,-0.967,-0.014,-1.098,-0.122,0.488,618.256
134886,148324,12445,-0.02,-0.961,-0.011,-0.915,-0.183,0.427,618.263
134909,148313,38140,-0.017,-0.966,-0.008,-0.915,-0.183,0.427,618.266
134909,148306,12444,-0.014,-0.965,-0.009,-0.183,-0.122,0.244,618.272
134914,148313,38140,-0.013,-0.967,-0.013,-0.183,-0.122,0.244,618.276
134914,148302,12439,-0.015,-0.964,-0.012,-0.366,-0.061,0.183,618.282
134903,148313,38140,-0.013,-0.963,-0.014,-0.366,-0.061,0.183,618.286
134903,148326,12449,-0.014,-0.963,-0.02,-0.976,0.061,0.488,618.292
134914,148313,38140,-0.017,-0.963,-0.017,-0.976,0.061,0.488,618.296
134914,148298,12424,-0.017,-0.968,-0.022,-0.854,0.244,0.732,618.302
134907,148313,38140,-0.015,-0.966,-0.02,-0.854,0.244,0.732,618.306
134907,148331,12434,-0.015,-0.968,-0.018,-0.183,0.244,0.854,618.312
134930,148313,38140,-0.017,-0.967,-0.019,-0.183,0.244,0.854,618.316
134930,148313,12437,-0.02,-0.969,-0.021,-0.122,0.061,0.976,618.322
134926,148313,38140,-0.02,-0.971,-0.016,-0.122,0.061,0.976,618.326
134926,148325,12431,-0.023,-0.974,-0.014,-0.427,0.305,1.098,618.332
134925,148313,38140,-0.021,-0.977,-0.012,-0.427,0.305,1.098,618.336
134925,148333,12445,-0.024,-0.976,-0.016,-0.671,0.244,0.976,618.342
134923,148313,38140,-0.025,-0.974,-0.013,-0.671,0.244,0.976,618.345
134923,148323,12442,-0.025,-0.974,-0.014,-0.366,0.244,0.549,618.352
134937,148313,38140,-0.026,-0.972,-0.013,-0.366,0.244,0.549,618.355
134937,148359,12444,-0.028,-0.97,-0.013,0,0.427,0.427,618.362
134947,148313,38140,-0.026,-0.966,-0.013,0,0.427,0.427,618.365
134947,148344,12451,-0.026,-0.962,-0.015,-0.122,0.305,0.366,618.371
134933,148313,38140,-0.027,-0.962,-0.019,-0.122,0.305,0.366,618.375
134933,148353,12450,-0.026,-0.963,-0.017,-0.183,0.183,0.366,618.381
134943,148313,38140,-0.023,-0.961,-0.016,-0.183,0.183,0.366,618.385
134943,148342,12436,-0.022,-0.964,-0.02,-0.244,0,0.244,618.391
134935,148313,38140,-0.024,-0.968,-0.016,-0.244,0,0.244,618.395
134935,148355,12434,-0.022,-0.966,-0.016,-0.305,0.061,0.183,618.401
134924,148313,38140,-0.021,-0.964,-0.018,-0.305,0.061,0.183,618.405
134924,148350,12464,-0.019,-0.969,-0.016,-0.549,0.305,0.427,618.411
134926,148313,38140,-0.02,-0.973,-0.016,-0.549,0.305,0.427,618.415
134926,148319,12456,-0.018,-0.971,-0.014,-0.427,0.305,0.488,618.421
134941,148313,38140,-0.019,-0.969,-0.015,-0.427,0.305,0.488,618.425
134941,148365,12454,-0.019,-0.97,-0.016,-0.244,0.366,0.305,618.431
134931,148313,38140,-0.018,-0.969,-0.012,-0.244,0.366,0.305,618.435
134931,148340,12448,-0.019,-0.968,-0.01,-0.244,0.549,0.366,618.441
134932,148313,38140,-0.019,-0.965,-0.012,-0.244,0.549,0.366,618.445
134932,148340,12445,-0.016,-0.964,-0.015,-0.793,0.488,0.427,618.451
134905,148313,38140,-0.022,-0.964,-0.018,-0.793,0.488,0.427,618.454
134905,148310,12449,-0.022,-0.964,-0.018,-1.037,0.549,0.488,618.461
134912,148313,38140,-0.019,-0.967,-0.02,-1.037,0.549,0.488,618.464
134912,148350,12446,-0.019,-0.969,-0.023,-0.549,0.61,0.366,618.47
134926,148313,38140,-0.023,-0.969,-0.022,-0.549,0.61,0.366,618.474
134926,148337,12434,-0.021,-0.971,-0.021,-0.244,0.549,0.122,618.48
134936,148313,38140,-0.019,-0.966,-0.02,-0.244,0.549,0.122,618.484
134936,148327,12461,-0.021,-0.968,-0.016,-0.183,0.427,0.366,618.49
134924,148313,38140,-0.018,-0.964,-0.016,-0.183,0.427,0.366,618.494
134924,148355,12444,-0.02,-0.961,-0.014,-0.244,0.366,0.549,618.5
134927,148313,38140,-0.021,-0.965,-0.013,-0.244,0.366,0.549,618.504
134927,148346,12448,-0.02,-0.965,-0.01,0.122,0.244,0.427,618.51
134914,148313,38140,-0.018,-0.967,-0.005,0.122,0.244,0.427,618.514
134914,148310,12439,-0.018,-0.964,-0.009,0.244,0.305,0.366,618.52
134913,148313,38140,-0.018,-0.964,-0.009,0.244,0.305,0.366,618.524
134913,148331,12447,-0.017,-0.966,-0.013,0,0.488,0.549,618.53
134906,148313,38140,-0.017,-0.966,-0.013,0,0.488,0.549,618.534
134906,148327,12443,-0.021,-0.966,-0.012,-0.183,0.61,0.854,618.54
134896,148313,38140,-0.021,-0.966,-0.012,-0.183,0.61,0.854,618.544
134896,148325,12447,-0.02,-0.97,-0.011,-0.549,0.488,0.671,618.55
134914,148313,38140,-0.02,-0.97,-0.011,-0.549,0.488,0.671,618.553
134914,148307,12449,-0.022,-0.967,-0.016,-0.549,0.488,0.61,618.56
134894,148313,38140,-0.022,-0.967,-0.016,-0.549,0.488,0.61,618.563
134894,148334,12463,-0.025,-0.973,-0.019,-0.244,0.671,0.671,618.569
134938,148313,38140,-0.025,-0.973,-0.019,-0.244,0.671,0.671,618.573
134938,148311,12441,-0.027,-0.969,-0.016,-0.061,0.427,0.488,618.579
134910,148313,38140,-0.027,-0.969,-0.016,-0.061,0.427,0.488,618.583
134910,148308,12456,-0.023,-0.971,-0.018,-0.427,0.061,0.488,618.589
134919,148313,38140,-0.023,-0.971,-0.018,-0.427,0.061,0.488,618.593
134919,148306,12447,-0.026,-0.969,-0.016,-0.244,-0.061,0.671,618.599
134872,148313,38140,-0.026,-0.969,-0.016,-0.244,-0.061,0.671,618.603
134872,148294,12430,-0.023,-0.97,-0.01,-0.366,0,0.427,618.609
134845,148313,38140,-0.023,-0.97,-0.01,-0.366,0,0.427,618.613
134845,148276,12437,-0.025,-0.964,-0.012,-0.549,0.122,0.305,618.619
134856,148313,38140,-0.025,-0.964,-0.012,-0.549,0.122,0.305,618.623
134856,148273,12433,-0.026,-0.965,-0.01,-0.732,0.061,0.427,618.629
134848,148313,38140,-0.026,-0.965,-0.01,-0.732,0.061,0.427,618.633
134848,148269,12429,-0.022,-0.974,-0.017,-0.976,0.061,0.244,618.639
134868,148313,38140,-0.022,-0.974,-0.017,-0.976,0.061,0.244,618.642
134868,148285,12422,-0.022,-0.97,-0.02,-0.854,0.122,0,618.649
134859,148313,38140,-0.022,-0.97,-0.02,-0.854,0.122,0,618.652
134859,148272,12441,-0.021,-0.969,-0.02,-0.732,-0.061,0.305,618.659
134881,148313,38140,-0.021,-0.969,-0.02,-0.732,-0.061,0.305,618.662
134881,148298,12434,-0.019,-0.965,-0.018,-0.732,-0.061,0.305,618.668
134860,148313,38140,-0.021,-0.964,-0.017,-0.122,-0.183,0.366,618.672
134860,148280,12442,-0.019,-0.966,-0.018,-0.122,-0.183,0.366,618.678
134858,148313,38140,-0.014,-0.967,-0.019,-0.183,-0.122,0.061,618.682
134858,148256,12421,-0.015,-0.968,-0.02,-0.183,-0.122,0.061,618.688
134829,148313,38140,-0.017,-0.967,-0.017,-0.183,0.061,0.305,618.692
134829,148265,12428,-0.018,-0.965,-0.015,-0.183,0.061,0.305,618.698
134832,148313,38140,-0.017,-0.965,-0.017,-0.183,0.061,0.671,618.702
134832,148290,12430,-0.02,-0.967,-0.016,-0.183,0.061,0.671,618.708
134871,148313,38140,-0.02,-0.966,-0.01,0,0.244,0.671,618.712
134871,148277,12426,-0.019,-0.963,-0.013,0,0.244,0.671,618.718
134840,148313,38140,-0.02,-0.964,-0.016,0.244,0.366,0.549,618.722
134840,148274,12444,-0.023,-0.965,-0.014,0.244,0.366,0.549,618.728
134867,148313,38140,-0.022,-0.964,-0.012,0.061,0.305,0.793,618.732
134867,148261,12433,-0.021,-0.966,-0.017,0.061,0.305,0.793,618.738
134856,148313,38140,-0.021,-0.967,-0.022,-0.366,0.427,0.915,618.742
134856,148275,12423,-0.021,-0.969,-0.02,-0.366,0.427,0.915,618.748
134849,148313,38140,-0.022,-0.973,-0.022,-0.427,0.549,0.61,618.751
134849,148292,12451,-0.024,-0.974,-0.019,-0.427,0.549,0.61,618.758
134855,148313,38140,-0.024,-0.972,-0.021,-0.061,0.732,0.549,618.761
134855,148269,12408,-0.025,-0.969,-0.023,-0.061,0.732,0.549,618.767
134845,148313,38140,-0.022,-0.968,-0.02,0.061,0.671,0.549,618.771
134845,148255,12427,-0.025,-0.966,-0.023,0.061,0.671,0.549,618.777
134859,148313,38140,-0.025,-0.97,-0.024,-0.244,0.549,0.427,618.781
134859,148258,12413,-0.025,-0.973,-0.019,-0.244,0.549,0.427,618.787
134815,148313,38140,-0.024,-0.973,-0.016,-0.244,0.366,0.305,618.791
134815,148262,12424,-0.024,-0.971,-0.012,-0.244,0.366,0.305,618.797
134821,148313,38140,-0.022,-0.965,-0.011,0.122,0.122,0.244,618.801
134821,148232,12413,-0.019,-0.964,-0.01,0.122,0.122,0.244,618.807
134816,148313,38140,-0.02,-0.964,-0.012,0.305,0.183,0.244,618.811
134816,148251,12435,-0.018,-0.963,-0.011,0.305,0.183,0.244,618.817
134818,148313,38140,-0.015,-0.965,-0.008,0.122,0.549,0.122,618.821
134818,148232,12421,-0.017,-0.965,-0.013,0.122,0.549,0.122,618.827
134810,148313,38140,-0.021,-0.97,-0.017,-0.61,0.854,0.244,618.831
134810,148256,12421,-0.024,-0.968,-0.016,-0.61,0.854,0.244,618.837
134820,148313,38140,-0.022,-0.966,-0.017,-0.488,0.854,0.488,618.84
134820,148274,12423,-0.022,-0.968,-0.019,-0.488,0.854,0.488,618.847
134819,148313,38140,-0.022,-0.968,-0.016,-0.061,0.793,0.366,618.85
134819,148236,12421,-0.022,-0.967,-0.013,-0.061,0.793,0.366,618.857
134829,148313,38140,-0.026,-0.97,-0.018,-0.061,0.793,0.305,618.86
134829,148232,12431,-0.023,-0.97,-0.02,-0.061,0.793,0.305,618.866
134820,148313,38140,-0.023,-0.971,-0.018,-0.244,0.854,0.61,618.87
134820,148227,12413,-0.025,-0.969,-0.019,-0.244,0.854,0.61,618.876
134799,148057,38140,-0.026,-0.969,-0.018,-0.305,0.732,0.61,618.88
134799,148223,12434,-0.027,-0.969,-0.019,-0.305,0.732,0.61,618.886
134790,148057,38140,-0.028,-0.969,-0.019,-0.427,0.61,0.61,618.89
134790,148216,12422,-0.031,-0.971,-0.017,-0.427,0.61,0.61,618.896
134781,148057,38140,-0.029,-0.97,-0.013,-0.305,0.305,0.366,618.9
134781,148203,12423,-0.024,-0.966,-0.021,-0.305,0.305,0.366,618.906
134793,148057,38140,-0.027,-0.971,-0.015,-0.122,0.183,0.183,618.91
134793,148216,12422,-0.024,-0.968,-0.01,-0.122,0.183,0.183,618.916
134795,148313,38140,-0.023,-0.967,-0.011,0.061,-0.061,0.183,618.92
134795,148234,12416,-0.02,-0.963,-0.01,0.061,-0.061,0.183,618.926
134807,148057,38140,-0.017,-0.963,-0.008,-0.183,-0.244,0.244,618.93
134807,148221,12425,-0.017,-0.966,-0.01,-0.183,-0.244,0.244,618.936
134816,148057,38140,-0.015,-0.965,-0.011,-0.061,-0.061,0.366,618.94
134816,148219,12409,-0.018,-0.965,-0.01,-0.061,-0.061,0.366,618.946
134795,148313,38140,-0.015,-0.968,-0.009,-0.122,0.122,0.366,618.949
134795,148232,12415,-0.016,-0.966,-0.01,-0.122,0.122,0.366,618.956
134827,148313,38140,-0.019,-0.966,-0.013,0,0.244,0.305,618.959
134827,148243,12424,-0.019,-0.965,-0.016,0,0.244,0.305,618.965
134776,148313,38140,-0.02,-0.962,-0.019,0.122,0.305,0.366,618.969
134776,148241,12435,-0.02,-0.966,-0.021,0.122,0.305,0.366,618.975
134809,148057,38140,-0.02,-0.966,-0.017,0.427,0.305,0.671,618.979
134809,148216,12421,-0.022,-0.969,-0.019,0.427,0.305,0.671,618.985
134789,148313,38140,-0.02,-0.97,-0.019,0.305,0.244,0.671,618.989
134789,148232,12422,-0.021,-0.972,-0.014,0.305,0.244,0.671,618.995
134801,148057,38140,-0.024,-0.972,-0.018,-0.061,0.427,0.61,618.999
134801,148218,12411,-0.027,-0.971,-0.02,-0.061,0.427,0.61,619.005
134796,148057,38140,-0.028,-0.969,-0.016,-0.183,0.671,0.671,619.009
134796,148220,12416,-0.026,-0.97,-0.012,-0.183,0.671,0.671,619.015
134811,148313,38140,-0.026,-0.97,-0.016,-0.122,0.488,0.366,619.019
134811,148227,12410,-0.028,-0.972,-0.017,-0.122,0.488,0.366,619.025
134811,148057,38140,-0.027,-0.971,-0.019,-0.244,0.244,0.061,619.029
134811,148218,12418,-0.028,-0.971,-0.02,-0.244,0.244,0.061,619.035
134818,148313,38140,-0.027,-0.969,-0.024,0.061,0.427,0,619.038
134818,148244,12416,-0.03,-0.966,-0.024,0.061,0.427,0,619.045
134820,148313,38140,-0.027,-0.964,-0.022,0.122,0.244,-0.061,619.048
134820,148246,12435,-0.025,-0.962,-0.018,0.122,0.244,-0.061,619.055
134804,148057,38140,-0.021,-0.965,-0.012,0.183,0,0,619.058
134804,148222,12401,-0.02,-0.965,-0.011,0.183,0,0,619.064
134769,148057,38140,-0.018,-0.966,-0.014,0.061,-0.061,0.061,619.068
134769,148206,12421,-0.016,-0.965,-0.01,0.061,-0.061,0.061,619.074
134785,148057,38140,-0.015,-0.969,-0.012,-0.61,0.305,0.061,619.078
134785,148192,12398,-0.016,-0.968,-0.012,-0.61,0.305,0.061,619.084
134774,148057,38140,-0.017,-0.967,-0.016,-0.915,0.671,0.305,619.088
134774,148200,12418,-0.02,-0.966,-0.014,-0.915,0.671,0.305,619.094
134769,148057,38140,-0.022,-0.969,-0.008,-0.305,0.488,0.427,619.098
134769,148195,12408,-0.023,-0.968,-0.008,-0.305,0.488,0.427,619.104
134761,148313,38140,-0.023,-0.968,-0.008,-0.305,0.488,0.427,619.108
134761,148226,12415,-0.02,-0.965,-0.012,0,0.122,0.183,619.114
134774,148057,38140,-0.02,-0.965,-0.012,0,0.122,0.183,619.118
134774,148203,12418,-0.022,-0.968,-0.009,-0.244,0.122,0.244,619.124
134810,148057,38140,-0.022,-0.968,-0.009,-0.244,0.122,0.244,619.128
134810,148215,12414,-0.019,-0.962,-0.018,-0.366,0.366,0.244,619.134
134798,148313,38140,-0.019,-0.962,-0.018,-0.366,0.366,0.244,619.138
134798,148233,12414,-0.022,-0.969,-0.015,-0.61,0.549,0.122,619.144
134797,148057,38140,-0.022,-0.969,-0.015,-0.61,0.549,0.122,619.147
134797,148216,12410,-0.022,-0.966,-0.023,-0.549,0.549,0.122,619.154
134785,148057,38140,-0.022,-0.966,-0.023,-0.549,0.549,0.122,619.157
134785,148214,12409,-0.022,-0.973,-0.023,-1.341,0.549,0.122,619.163
134772,148057,38140,-0.022,-0.973,-0.023,-1.341,0.549,0.122,619.167
134772,148218,12420,-0.018,-0.971,-0.024,-0.976,0.549,0.305,619.173
134790,148057,38140,-0.018,-0.971,-0.024,-0.976,0.549,0.305,619.177
134790,148198,12417,-0.018,-0.967,-0.016,-0.183,0.366,0.244,619.183
134750,148057,38140,-0.018,-0.967,-0.016,-0.183,0.366,0.244,619.187
134750,148190,12415,-0.019,-0.966,-0.013,0.305,0.305,0.305,619.193
134760,148057,38140,-0.019,-0.966,-0.013,0.305,0.305,0.305,619.197
134760,148196,12401,-0.015,-0.965,-0.007,0.305,0.183,0.488,619.203
134760,148057,38140,-0.015,-0.965,-0.007,0.305,0.183,0.488,619.207
134760,148188,12405,-0.018,-0.967,-0.012,-0.244,0.427,0.427,619.213
134744,148057,38140,-0.018,-0.967,-0.012,-0.244,0.427,0.427,619.217
134744,148175,12407,-0.02,-0.968,-0.017,-0.366,0.854,0.427,619.223
134745,148057,38140,-0.02,-0.968,-0.017,-0.366,0.854,0.427,619.227
134745,148171,12402,-0.023,-0.972,-0.019,-0.366,0.915,0.427,619.233
134756,148057,38140,-0.023,-0.972,-0.019,-0.366,0.915,0.427,619.236
134756,148169,12392,-0.024,-0.968,-0.014,-0.061,0.671,0.366,619.243
134756,148057,38140,-0.024,-0.968,-0.014,-0.061,0.671,0.366,619.246
134756,148168,12408,-0.023,-0.967,-0.015,0.305,0.366,0.244,619.253
134744,148057,38140,-0.023,-0.964,-0.015,0.305,0.366,0.244,619.256
134744,148187,12415,-0.024,-0.965,-0.015,0.061,0.427,0.366,619.262
134743,148057,38140,-0.025,-0.969,-0.015,0.061,0.427,0.366,619.266
134743,148158,12391,-0.021,-0.969,-0.018,-0.488,0.732,0.061,619.272
134740,148057,38140,-0.026,-0.972,-0.016,-0.488,0.732,0.061,619.276
134740,148151,12409,-0.024,-0.973,-0.019,-0.732,0.854,-0.122,619.282
134727,148057,38140,-0.025,-0.972,-0.02,-0.732,0.854,-0.122,619.286
134727,148136,12394,-0.025,-0.97,-0.019,-0.488,0.671,0,619.292
134728,148057,38140,-0.024,-0.97,-0.012,-0.488,0.671,0,619.296
134728,148158,12396,-0.024,-0.97,-0.01,0.061,0.427,0.183,619.302
134712,148057,38140,-0.023,-0.967,-0.014,0.061,0.427,0.183,619.306
134712,148136,12391,-0.022,-0.967,-0.009,-0.427,0.122,-0.061,619.312
134729,148057,38140,-0.02,-0.966,-0.015,-0.427,0.122,-0.061,619.316
134729,148161,12393,-0.017,-0.965,-0.015,-0.854,0.244,0,619.322
134731,148057,38140,-0.019,-0.97,-0.019,-0.854,0.244,0,619.326
134731,148138,12380,-0.023,-0.97,-0.02,-0.549,0.488,0.244,619.332
134716,148057,38140,-0.022,-0.965,-0.018,-0.549,0.488,0.244,619.335
134716,148174,12421,-0.023,-0.966,-0.018,0.061,0.366,0.122,619.342
134715,148057,38140,-0.021,-0.969,-0.017,0.061,0.366,0.122,619.345
134715,148125,12385,-0.019,-0.965,-0.014,0.244,0,0.244,619.352
134692,148057,38140,-0.017,-0.963,-0.012,0.244,0,0.244,619.355
134692,148155,12381,-0.019,-0.966,-0.016,0.122,0.061,0.366,619.361
134717,148057,38140,-0.019,-0.971,-0.012,0.122,0.061,0.366,619.365
134717,148131,12383,-0.019,-0.969,-0.01,0.366,0.305,0.427,619.371
134704,148057,38140,-0.022,-0.969,-0.011,0.366,0.305,0.427,619.375
134704,148150,12394,-0.017,-0.968,-0.012,0.366,0.244,0.366,619.381
134686,148057,38140,-0.017,-0.967,-0.012,0.366,0.244,0.366,619.385
134686,148184,12389,-0.017,-0.968,-0.014,0.183,0.305,0.305,619.391
134689,148057,38140,-0.019,-0.966,-0.016,0.183,0.305,0.305,619.395
134689,148123,12374,-0.018,-0.966,-0.017,0.183,0.61,0.366,619.401
134719,148057,38140,-0.018,-0.968,-0.015,0.183,0.61,0.366,619.405
134719,148149,12369,-0.02,-0.969,-0.013,0.244,0.732,0.305,619.411
134711,148057,38140,-0.019,-0.97,-0.013,0.244,0.732,0.305,619.415
134711,148163,12393,-0.018,-0.968,-0.018,-0.061,0.671,0,619.421
134705,148057,38140,-0.022,-0.972,-0.022,-0.061,0.671,0,619.425
134705,148166,12401,-0.022,-0.969,-0.019,-0.488,0.793,0.122,619.431
134729,148057,38140,-0.022,-0.969,-0.02,-0.488,0.793,0.122,619.435
134729,148184,12387,-0.022,-0.967,-0.021,-0.183,0.915,0.244,619.441
134722,148057,38140,-0.018,-0.97,-0.018,-0.183,0.915,0.244,619.444
134722,148153,12397,-0.015,-0.97,-0.014,0.305,0.488,-0.061,619.451
134716,148057,38140,-0.015,-0.97,-0.016,0.305,0.488,-0.061,619.454
134716,148182,12393,-0.011,-0.965,-0.015,0.244,0.427,0.061,619.46
134714,148057,38140,-0.015,-0.964,-0.014,0.244,0.427,0.061,619.464
134714,148156,12391,-0.016,-0.962,-0.018,-0.183,0.854,0.366,619.47
134692,148057,38140,-0.017,-0.965,-0.021,-0.183,0.854,0.366,619.474
134692,148130,12392,-0.018,-0.967,-0.017,-0.549,1.341,0.488,619.48
134684,148057,38140,-0.018,-0.967,-0.017,-0.549,1.341,0.488,619.484
134684,148153,12395,-0.021,-0.964,-0.014,-0.305,1.22,0.549,619.49
134658,148057,38140,-0.022,-0.964,-0.015,-0.305,1.22,0.549,619.494
134658,148134,12388,-0.021,-0.966,-0.015,-0.061,0.915,0.732,619.5
134711,148057,38140,-0.023,-0.97,-0.006,-0.061,0.915,0.732,619.504
134711,148149,12376,-0.022,-0.968,-0.003,0.061,0.976,0.549,619.51
134685,148057,38140,-0.021,-0.967,-0.013,0.061,0.976,0.549,619.514
134685,148135,12382,-0.024,-0.966,-0.018,-1.098,1.28,0.488,619.52
134704,148057,38140,-0.022,-0.97,-0.015,-1.098,1.28,0.488,619.524
134704,148167,12395,-0.02,-0.974,-0.017,-0.61,1.463,0.488,619.53
134721,148057,38140,-0.026,-0.971,-0.02,-0.61,1.463,0.488,619.533
134721,148152,12380,-0.027,-0.967,-0.02,-0.122,1.524,0.122,619.54
134695,148057,38140,-0.028,-0.967,-0.017,-0.122,1.524,0.122,619.543
134695,148140,12398,-0.029,-0.965,-0.019,-0.183,1.28,0.061,619.55
134709,148057,38140,-0.029,-0.967,-0.017,-0.183,1.28,0.061,619.553
134709,148154,12381,-0.026,-0.969,-0.02,-0.305,0.793,0.244,619.559
134723,148057,38140,-0.023,-0.968,-0.021,-0.305,0.793,0.244,619.563
134723,148158,12380,-0.022,-0.974,-0.018,-0.244,0.427,0.305,619.569
134725,148057,38140,-0.02,-0.974,-0.01,-0.244,0.427,0.305,619.573
134725,148158,12385,-0.019,-0.968,-0.01,0.366,0.244,0.244,619.579
134715,148057,38140,-0.019,-0.965,-0.011,0.366,0.244,0.244,619.583
134715,148147,12399,-0.02,-0.963,-0.01,0.305,0.244,0.427,619.589
134728,148057,38140,-0.023,-0.964,-0.011,0.305,0.244,0.427,619.593
134728,148139,12380,-0.021,-0.965,-0.011,0.61,0.427,0.549,619.599
134713,148057,38140,-0.022,-0.965,-0.012,0.61,0.427,0.549,619.603
134713,148188,12398,-0.021,-0.967,-0.011,0.366,0.366,0.488,619.609
134738,148057,38140,-0.02,-0.967,-0.014,0.366,0.366,0.488,619.613
134738,148171,12384,-0.018,-0.964,-0.015,0.122,0.366,0.488,619.619
134716,148057,38140,-0.022,-0.967,-0.016,0.122,0.366,0.488,619.623
134716,148172,12384,-0.024,-0.966,-0.013,0.122,0.122,0.671,619.629
134707,148057,38140,-0.022,-0.968,-0.013,0.122,0.122,0.671,619.632
134707,148162,12384,-0.023,-0.974,-0.013,0.061,0.122,0.61,619.639
134731,148057,38140,-0.024,-0.973,-0.011,0.061,0.122,0.61,619.642
134731,148175,12385,-0.025,-0.971,-0.013,-0.305,0.183,0.488,619.648
134721,148057,38140,-0.026,-0.97,-0.015,-0.305,0.183,0.488,619.652
134721,148170,12386,-0.024,-0.971,-0.015,-0.488,0.183,0.244,619.658
134708,148057,38140,-0.025,-0.974,-0.016,-0.488,0.183,0.244,619.662
134708,148189,12380,-0.027,-0.969,-0.014,-0.366,-0.061,-0.183,619.668
134736,148057,38140,-0.023,-0.97,-0.017,-0.366,-0.061,-0.183,619.672
134736,148173,12399,-0.023,-0.968,-0.017,-0.366,-0.244,-0.366,619.678
134756,148057,38140,-0.024,-0.967,-0.019,-0.366,-0.244,-0.366,619.682
134756,148168,12398,-0.021,-0.962,-0.015,0.183,-0.305,-0.305,619.688
134727,148057,38140,-0.021,-0.962,-0.015,0.183,-0.305,-0.305,619.692
134727,148166,12394,-0.022,-0.966,-0.012,0.366,-0.244,-0.793,619.698
134754,148057,38140,-0.022,-0.966,-0.012,0.366,-0.244,-0.793,619.702
134754,148207,12381,-0.015,-0.966,-0.017,0,-0.122,-0.793,619.708
134752,148057,38140,-0.015,-0.966,-0.017,0,-0.122,-0.793,619.712
134752,148200,12395,-0.017,-0.966,-0.014,-0.427,0.122,-0.061,619.718
134768,148057,38140,-0.017,-0.966,-0.014,-0.427,0.122,-0.061,619.722
134768,148213,12383,-0.015,-0.966,-0.017,-0.427,0.183,0.122,619.728
134775,148057,38140,-0.015,-0.966,-0.017,-0.427,0.183,0.122,619.731
134775,148223,12395,-0.014,-0.972,-0.017,-0.183,0.122,-0.122,619.738
134756,148057,38140,-0.014,-0.972,-0.017,-0.183,0.122,-0.122,619.741
134756,148218,12378,-0.014,-0.967,-0.013,0,-0.061,0,619.748
134762,148057,38140,-0.014,-0.967,-0.013,0,-0.061,0,619.751
134762,148217,12404,-0.011,-0.968,-0.011,-0.244,-0.061,0.122,619.757
134781,148057,38140,-0.011,-0.968,-0.011,-0.244,-0.061,0.122,619.761
134781,148212,12392,-0.008,-0.966,-0.007,-0.61,0.061,0.244,619.767
134775,148057,38140,-0.008,-0.966,-0.007,-0.61,0.061,0.244,619.771
134775,148214,12398,-0.012,-0.964,-0.008,-0.793,0.305,0.366,619.777
134760,148057,38140,-0.012,-0.964,-0.008,-0.793,0.305,0.366,619.781
134760,148214,12409,-0.013,-0.966,-0.017,-1.28,0.488,0.244,619.787
134784,148057,38140,-0.013,-0.966,-0.017,-1.28,0.488,0.244,619.791
134784,148201,12389,-0.018,-0.97,-0.024,-1.402,0.854,0.183,619.797
134764,148313,38140,-0.018,-0.97,-0.024,-1.402,0.854,0.183,619.801
134764,148236,12390,-0.017,-0.97,-0.026,-0.915,0.915,0.305,619.807
134794,148313,38140,-0.017,-0.97,-0.026,-0.915,0.915,0.305,619.811
134794,148245,12389,-0.022,-0.97,-0.02,-0.61,0.793,0.488,619.817
134786,148313,38140,-0.022,-0.97,-0.02,-0.61,0.793,0.488,619.821
134786,148229,12410,-0.025,-0.963,-0.025,-0.732,0.732,0.671,619.827
134786,148057,38140,-0.025,-0.963,-0.025,-0.732,0.732,0.671,619.83
134786,148211,12394,-0.023,-0.968,-0.025,-0.732,0.732,0.671,619.837
134783,148313,38140,-0.019,-0.968,-0.02,-0.305,0.976,0.793,619.84
134783,148230,12391,-0.019,-0.968,-0.017,-0.305,0.976,0.793,619.846
134789,148057,38140,-0.02,-0.97,-0.018,0.183,1.037,0.488,619.85
134789,148198,12382,-0.022,-0.968,-0.019,0.183,1.037,0.488,619.856
134761,148057,38140,-0.021,-0.971,-0.016,0.305,1.037,0.549,619.86
134761,148203,12389,-0.024,-0.969,-0.011,0.305,1.037,0.549,619.866
134763,148057,38140,-0.023,-0.968,-0.009,0.366,0.671,0.732,619.87
134763,148216,12391,-0.021,-0.968,-0.006,0.366,0.671,0.732,619.876
134767,148057,38140,-0.022,-0.967,-0.004,0.366,0.61,0.488,619.88
134767,148206,12383,-0.023,-0.967,-0.011,0.366,0.61,0.488,619.886
134760,148057,38140,-0.023,-0.968,-0.006,0.244,0.549,0.549,619.89
134760,148205,12377,-0.026,-0.966,-0.003,0.244,0.549,0.549,619.896
134771,148057,38140,-0.029,-0.964,-0.011,0.122,0.732,0.549,619.9
134771,148219,12407,-0.024,-0.965,-0.011,0.122,0.732,0.549,619.906
134745,148057,38140,-0.026,-0.964,-0.012,-0.122,0.671,0.366,619.91
134745,148219,12395,-0.025,-0.968,-0.013,-0.122,0.671,0.366,619.916
134755,148057,38140,-0.024,-0.969,-0.009,-0.183,0.366,0.305,619.92
134755,148216,12384,-0.027,-0.969,-0.01,-0.183,0.366,0.305,619.926
134736,148057,38140,-0.026,-0.971,-0.015,-0.305,0.122,0.366,619.929
134736,148186,12381,-0.025,-0.971,-0.014,-0.305,0.122,0.366,619.936
134756,148057,38140,-0.025,-0.969,-0.014,-0.549,0.122,0.183,619.939
134756,148208,12398,-0.025,-0.97,-0.014,-0.549,0.122,0.183,619.945
134759,148057,38140,-0.023,-0.968,-0.017,-0.671,0.061,0.183,619.949
134759,148187,12377,-0.023,-0.968,-0.017,-0.671,0.061,0.183,619.955
134763,148057,38140,-0.026,-0.969,-0.015,-0.793,0,0.122,619.959
134763,148193,12398,-0.023,-0.971,-0.018,-0.793,0,0.122,619.965
134752,148057,38140,-0.024,-0.972,-0.02,-0.671,-0.183,0.183,619.969
134752,148194,12399,-0.024,-0.972,-0.02,-0.671,-0.183,0.183,619.975
134758,148057,38140,-0.019,-0.97,-0.016,-0.366,-0.366,0.244,619.979
134758,148201,12390,-0.019,-0.967,-0.016,-0.366,-0.366,0.244,619.985
134761,148313,38140,-0.017,-0.963,-0.016,-0.366,-0.427,0.183,619.989
134761,148245,12377,-0.016,-0.965,-0.016,-0.366,-0.427,0.183,619.995
134756,148057,38140,-0.015,-0.968,-0.013,-0.61,-0.244,0.244,619.999
134756,148213,12385,-0.017,-0.967,-0.014,-0.61,-0.244,0.244,620.005
134767,148057,38140,-0.016,-0.966,-0.018,-0.549,-0.244,0.183,620.009
134767,148216,12381,-0.015,-0.967,-0.018,-0.549,-0.244,0.183,620.015
134777,148313,38140,-0.014,-0.968,-0.017,-0.427,-0.122,0.427,620.019
134777,148241,12378,-0.012,-0.965,-0.018,-0.427,-0.122,0.427,620.025
134759,148313,38140,-0.014,-0.964,-0.019,-0.061,0.122,0.488,620.028
134759,148224,12385,-0.015,-0.968,-0.02,-0.061,0.122,0.488,620.035
134739,148057,38140,-0.013,-0.97,-0.022,0.061,0.183,0.366,620.038
134739,148207,12386,-0.015,-0.97,-0.023,0.061,0.183,0.366,620.044
134758,148313,38140,-0.017,-0.973,-0.025,-0.061,0.427,0.366,620.048
134758,148226,12385,-0.017,-0.969,-0.025,-0.061,0.427,0.366,620.054
134753,148313,38140,-0.017,-0.969,-0.021,0,0.488,0.671,620.058
134753,148226,12379,-0.019,-0.971,-0.024,0,0.488,0.671,620.064
134775,148313,38140,-0.017,-0.972,-0.02,0.488,0.305,0.793,620.068
134775,148257,12389,-0.017,-0.972,-0.017,0.488,0.305,0.793,620.074
134791,148313,38140,-0.015,-0.97,-0.02,0.732,0.122,0.549,620.078
134791,148259,12385,-0.014,-0.963,-0.016,0.732,0.122,0.549,620.084
134800,148313,38140,-0.017,-0.961,-0.017,0.427,0.305,0.61,620.088
134800,148264,12390,-0.016,-0.964,-0.015,0.427,0.305,0.61,620.094
134801,148313,38140,-0.016,-0.965,-0.012,0.549,0.61,0.732,620.098
134801,148266,12383,-0.016,-0.965,-0.012,0.549,0.61,0.732,620.104
134808,148313,38140,-0.019,-0.968,-0.016,-0.061,0.854,0.305,620.108
134808,148286,12391,-0.018,-0.969,-0.012,-0.061,0.854,0.305,620.114
134800,148313,38140,-0.021,-0.972,-0.014,-0.244,1.159,0.427,620.118
134800,148270,12390,-0.02,-0.968,-0.013,-0.244,1.159,0.427,620.124
134804,148313,38140,-0.022,-0.971,-0.009,0.122,0.976,0.732,620.127
134804,148259,12395,-0.022,-0.968,-0.009,0.122,0.976,0.732,620.134
134806,148313,38140,-0.024,-0.965,-0.008,0.244,0.732,0.61,620.137
134806,148252,12380,-0.025,-0.968,-0.006,0.244,0.732,0.61,620.143
134793,148313,38140,-0.024,-0.968,-0.008,0.305,0.732,0.549,620.147
134793,148260,12385,-0.024,-0.966,-0.01,0.305,0.732,0.549,620.153
134807,148313,38140,-0.026,-0.968,-0.014,-0.183,0.854,0.671,620.157
134807,148251,12390,-0.032,-0.967,-0.017,-0.183,0.854,0.671,620.163
134789,148313,38140,-0.03,-0.969,-0.015,-0.183,0.854,0.488,620.167
134789,148256,12398,-0.031,-0.971,-0.013,-0.183,0.854,0.488,620.173
134802,148313,38140,-0.028,-0.97,-0.013,0.244,0.366,0.366,620.177
134802,148272,12380,-0.024,-0.966,-0.01,0.244,0.366,0.366,620.183
134807,148313,38140,-0.024,-0.965,-0.008,0.061,-0.122,0.061,620.187
134807,148291,12392,-0.02,-0.965,-0.01,0.061,-0.122,0.061,620.193
134804,148313,38140,-0.019,-0.966,-0.013,-0.427,-0.061,-0.061,620.197
134804,148286,12401,-0.016,-0.969,-0.011,-0.427,-0.061,-0.061,620.203
134832,148313,38140,-0.016,-0.968,-0.012,-0.976,0.061,0.061,620.207
134832,148274,12398,-0.016,-0.967,-0.014,-0.976,0.061,0.061,620.213
134809,148313,38140,-0.016,-0.968,-0.014,-1.28,0,0.122,620.216
134809,148258,12401,-0.015,-0.967,-0.012,-1.28,0,0.122,620.223
134828,148313,38140,-0.016,-0.967,-0.019,-0.61,0.122,0.183,620.226
134828,148323,12404,-0.013,-0.962,-0.016,-0.61,0.122,0.183,620.233
134847,148313,38140,-0.015,-0.966,-0.02,-0.488,0.305,0.244,620.236
134847,148300,12395,-0.014,-0.968,-0.017,-0.488,0.305,0.244,620.242
134857,148313,38140,-0.015,-0.967,-0.016,-0.549,0.305,0.427,620.246
134857,148300,12402,-0.016,-0.969,-0.018,-0.549,0.305,0.427,620.252
134860,148313,38140,-0.015,-0.966,-0.015,-0.305,0.122,0.61,620.256
134860,148303,12405,-0.018,-0.966,-0.016,-0.305,0.122,0.61,620.262
134863,148313,38140,-0.02,-0.966,-0.013,-0.122,0.183,0.732,620.266
134863,148312,12396,-0.019,-0.966,-0.015,-0.122,0.183,0.732,620.272
134848,148313,38140,-0.019,-0.966,-0.015,-0.122,0.183,0.732,620.276
134848,148320,12374,-0.022,-0.968,-0.016,-0.305,0.366,0.793,620.282
134857,148313,38140,-0.022,-0.968,-0.016,-0.305,0.366,0.793,620.286
134857,148294,12388,-0.025,-0.972,-0.013,-0.244,0.488,0.915,620.292
134824,148313,38140,-0.025,-0.972,-0.013,-0.244,0.488,0.915,620.296
134824,148318,12412,-0.029,-0.97,-0.018,-0.305,0.366,0.732,620.302
134863,148313,38140,-0.029,-0.97,-0.018,-0.305,0.366,0.732,620.306
134863,148341,12408,-0.026,-0.97,-0.017,0.122,0.427,0.427,620.312
134864,148313,38140,-0.026,-0.97,-0.017,0.122,0.427,0.427,620.316
134864,148332,12416,-0.025,-0.969,-0.02,0.305,0.305,0.366,620.322
134864,148313,38140,-0.025,-0.969,-0.02,0.305,0.305,0.366,620.325
134864,148331,12401,-0.028,-0.97,-0.019,-0.183,0.366,0.366,620.332
134858,148313,38140,-0.028,-0.97,-0.019,-0.183,0.366,0.366,620.335
134858,148338,12396,-0.022,-0.969,-0.019,-0.61,0.305,0.122,620.341
134849,148313,38140,-0.022,-0.969,-0.019,-0.61,0.305,0.122,620.345
134849,148331,12416,-0.021,-0.968,-0.02,-0.793,0,0.122,620.351
134870,148313,38140,-0.021,-0.968,-0.02,-0.793,0,0.122,620.355
134870,148305,12401,-0.018,-0.967,-0.015,-0.488,-0.183,0.488,620.361
134868,148313,38140,-0.018,-0.967,-0.015,-0.488,-0.183,0.488,620.365
134868,148326,12408,-0.016,-0.966,-0.011,-0.122,0.183,0.366,620.371
134872,148313,38140,-0.016,-0.966,-0.011,-0.122,0.183,0.366,620.375
134872,148299,12415,-0.016,-0.968,-0.007,-0.427,0.244,0.122,620.381
134861,148313,38140,-0.016,-0.968,-0.007,-0.427,0.244,0.122,620.385
134861,148357,12417,-0.016,-0.966,-0.01,-0.732,0.122,0.366,620.391
134878,148313,38140,-0.016,-0.966,-0.01,-0.732,0.122,0.366,620.395
134878,148318,12404,-0.018,-0.97,-0.02,-0.915,0.244,0.305,620.401
134864,148313,38140,-0.018,-0.97,-0.02,-0.915,0.244,0.305,620.405
134864,148303,12399,-0.016,-0.969,-0.016,-0.671,0.488,0.122,620.411
134866,148313,38140,-0.016,-0.969,-0.016,-0.671,0.488,0.122,620.414
134866,148312,12378,-0.015,-0.967,-0.019,-0.488,0.305,0,620.421
134839,148313,38140,-0.018,-0.965,-0.022,-0.488,0.305,0,620.424
134839,148341,12401,-0.015,-0.967,-0.022,-0.854,0.244,0.305,620.431
134864,148313,38140,-0.017,-0.967,-0.022,-0.854,0.244,0.305,620.434
134864,148337,12411,-0.018,-0.967,-0.02,-0.671,0.427,0.61,620.44
134855,148313,38140,-0.017,-0.965,-0.021,-0.671,0.427,0.61,620.444
134855,148323,12418,-0.018,-0.967,-0.018,-0.427,0.427,0.488,620.45
134861,148313,38140,-0.016,-0.97,-0.016,-0.427,0.427,0.488,620.454
134861,148335,12409,-0.015,-0.969,-0.019,-0.122,0.427,0.427,620.46
134844,148313,38140,-0.015,-0.966,-0.018,-0.122,0.427,0.427,620.464
134844,148323,12403,-0.016,-0.967,-0.009,0.061,0.549,0.732,620.47
134860,148313,38140,-0.014,-0.966,-0.006,0.061,0.549,0.732,620.474
134860,148325,12407,-0.019,-0.963,-0.012,-0.061,0.488,0.732,620.48
134868,148313,38140,-0.017,-0.965,-0.007,-0.061,0.488,0.732,620.484
134868,148312,12388,-0.016,-0.963,-0.008,-0.488,0.549,0.549,620.49
134866,148313,38140,-0.021,-0.966,-0.012,-0.488,0.549,0.549,620.494
134866,148335,12405,-0.02,-0.971,-0.016,-0.488,0.915,0.671,620.5
134886,148313,38140,-0.02,-0.968,-0.014,-0.488,0.915,0.671,620.504
134886,148345,12416,-0.02,-0.969,-0.014,-0.427,0.854,0.61,620.51
134894,148313,38140,-0.019,-0.966,-0.015,-0.427,0.854,0.61,620.513
134894,148361,12409,-0.022,-0.966,-0.014,-0.061,0.549,0.671,620.52
134899,148313,38140,-0.023,-0.966,-0.014,-0.061,0.549,0.671,620.523
134899,148318,12398,-0.023,-0.968,-0.014,0.061,0.366,0.732,620.53
134882,148313,38140,-0.022,-0.965,-0.012,0.061,0.366,0.732,620.533
134882,148358,12420,-0.022,-0.965,-0.012,-0.061,0.366,0.793,620.539
134876,148313,38140,-0.023,-0.965,-0.016,-0.061,0.366,0.793,620.543
134876,148356,12394,-0.025,-0.969,-0.014,-0.061,0.305,0.793,620.549
134888,148313,38140,-0.026,-0.966,-0.011,-0.061,0.305,0.793,620.553
134888,148348,12415,-0.03,-0.966,-0.017,-0.122,0.305,0.976,620.559
134875,148313,38140,-0.025,-0.97,-0.018,-0.122,0.305,0.976,620.563
134875,148347,12409,-0.023,-0.972,-0.013,-0.122,0.427,0.671,620.569
134870,148313,38140,-0.028,-0.969,-0.016,-0.122,0.427,0.671,620.573
134870,148325,12419,-0.025,-0.967,-0.019,-0.976,0.305,0.488,620.579
134876,148313,38140,-0.023,-0.965,-0.017,-0.976,0.305,0.488,620.583
134876,148343,12408,-0.021,-0.965,-0.015,-1.28,-0.061,0.671,620.589
134873,148313,38140,-0.022,-0.966,-0.009,-1.28,-0.061,0.671,620.593
134873,148328,12400,-0.022,-0.963,-0.005,-1.037,-0.122,0.427,620.599
134903,148313,38140,-0.022,-0.965,-0.002,-1.037,-0.122,0.427,620.603
134903,148353,12408,-0.018,-0.969,-0.009,-1.037,-0.061,-0.122,620.609
134883,148313,38140,-0.02,-0.969,-0.009,-1.037,-0.061,-0.122,620.612
134883,148321,12406,-0.023,-0.973,-0.013,-1.829,0.244,0,620.619
134884,148313,38140,-0.025,-0.974,-0.018,-1.829,0.244,0,620.622
134884,148306,12391,-0.024,-0.974,-0.015,-2.073,0.244,0.366,620.629
134871,148313,38140,-0.025,-0.972,-0.019,-2.073,0.244,0.366,620.632
134871,148335,12403,-0.022,-0.969,-0.015,-1.159,-0.366,0.183,620.638
134872,148313,38140,-0.02,-0.965,-0.02,-1.159,-0.366,0.183,620.642
134872,148321,12402,-0.02,-0.961,-0.019,-0.671,-0.793,0.366,620.648
134873,148313,38140,-0.019,-0.96,-0.022,-0.671,-0.793,0.366,620.652
134873,148314,12405,-0.017,-0.962,-0.025,-0.61,-0.61,0.915,620.658
134872,148313,38140,-0.018,-0.963,-0.025,-0.61,-0.61,0.915,620.662
134872,148333,12395,-0.019,-0.967,-0.021,-0.732,-0.366,1.037,620.668
134882,148313,38140,-0.019,-0.969,-0.024,-0.732,-0.366,1.037,620.672
134882,148345,12421,-0.021,-0.971,-0.022,-1.037,-0.305,0.854,620.678
134883,148313,38140,-0.021,-0.973,-0.026,-1.037,-0.305,0.854,620.682
134883,148344,12398,-0.023,-0.973,-0.029,-0.854,0,0.976,620.688
134899,148313,38140,-0.022,-0.972,-0.03,-0.854,0,0.976,620.692
134899,148354,12416,-0.022,-0.973,-0.024,-0.427,0.122,0.976,620.698
134901,148313,38140,-0.02,-0.972,-0.025,-0.427,0.122,0.976,620.702
134901,148369,12406,-0.021,-0.967,-0.022,-0.061,-0.244,0.793,620.708
134898,148313,38140,-0.018,-0.969,-0.019,-0.061,-0.244,0.793,620.711
134898,148349,12402,-0.016,-0.966,-0.02,-0.183,-0.305,0.549,620.718
134908,148313,38140,-0.014,-0.966,-0.022,-0.183,-0.305,0.549,620.721
134908,148329,12412,-0.017,-0.967,-0.02,-0.366,0.366,0.549,620.728
134885,148313,38140,-0.019,-0.968,-0.021,-0.366,0.366,0.549,620.731
134885,148358,12406,-0.018,-0.967,-0.021,-0.183,0.854,0.488,620.737
134888,148313,38140,-0.021,-0.966,-0.019,-0.183,0.854,0.488,620.741
134888,148344,12413,-0.023,-0.963,-0.019,0.183,0.61,0.488,620.747
134878,148313,38140,-0.024,-0.961,-0.019,0.183,0.61,0.488,620.751
134878,148339,12407,-0.021,-0.964,-0.018,0.854,0.488,0.671,620.757
134885,148313,38140,-0.02,-0.964,-0.018,0.854,0.488,0.671,620.761
134885,148312,12404,-0.023,-0.965,-0.018,1.22,0.793,0.732,620.767
134876,148313,38140,-0.024,-0.964,-0.018,1.22,0.793,0.732,620.771
134876,148361,12404,-0.025,-0.966,-0.012,0.976,0.793,0.793,620.777
134903,148313,38140,-0.027,-0.968,-0.013,0.976,0.793,0.793,620.781
134903,148344,12392,-0.026,-0.969,-0.012,0.488,0.732,0.976,620.787
134868,148313,38140,-0.028,-0.973,-0.009,0.488,0.732,0.976,620.791
134868,148337,12405,-0.029,-0.972,-0.012,0,0.793,0.854,620.797
134886,148313,38140,-0.032,-0.971,-0.014,0,0.793,0.854,620.801
134886,148364,12392,-0.03,-0.972,-0.012,-0.488,0.854,0.488,620.807
134874,148313,38140,-0.028,-0.974,-0.016,-0.488,0.854,0.488,620.81
134874,148324,12403,-0.029,-0.973,-0.01,-0.244,0.427,0.305,620.817
134899,148313,38140,-0.025,-0.967,-0.014,-0.244,0.427,0.305,620.82
134899,148346,12399,-0.025,-0.964,-0.017,-0.183,-0.183,0.244,620.827
134876,148313,38140,-0.02,-0.961,-0.014,-0.183,-0.183,0.244,620.83
134876,148326,12389,-0.018,-0.961,-0.014,-0.488,-0.183,0.061,620.836
134882,148313,38140,-0.019,-0.964,-0.02,-0.488,-0.183,0.061,620.84
134882,148361,12412,-0.02,-0.966,-0.021,-0.793,0.183,0.122,620.846
134891,148313,38140,-0.018,-0.967,-0.021,-0.793,0.183,0.122,620.85
134891,148343,12400,-0.019,-0.966,-0.019,-0.732,0.366,0.183,620.856
134887,148313,38140,-0.019,-0.966,-0.019,-0.732,0.366,0.183,620.86
134887,148319,12399,-0.017,-0.965,-0.017,0.061,0.183,0.305,620.866
134877,148313,38140,-0.017,-0.965,-0.017,0.061,0.183,0.305,620.87
134877,148335,12401,-0.019,-0.965,-0.016,0.61,-0.183,0.549,620.876
134877,148313,38140,-0.019,-0.965,-0.016,0.61,-0.183,0.549,620.88
134877,148327,12409,-0.016,-0.963,-0.011,0.122,-0.183,0.671,620.886
134875,148313,38140,-0.016,-0.963,-0.011,0.122,-0.183,0.671,620.89
134875,148317,12404,-0.018,-0.972,-0.013,-0.549,0,0.671,620.896
134882,148313,38140,-0.018,-0.972,-0.013,-0.549,0,0.671,620.9
134882,148326,12400,-0.021,-0.973,-0.011,-0.793,0.305,0.61,620.906
134877,148313,38140,-0.021,-0.973,-0.011,-0.793,0.305,0.61,620.909
134877,148336,12402,-0.024,-0.968,-0.017,-0.61,0.427,0.671,620.916
134894,148313,38140,-0.024,-0.968,-0.017,-0.61,0.427,0.671,620.919
134894,148320,12417,-0.026,-0.968,-0.018,-0.122,0.122,0.61,620.926
134911,148313,38140,-0.026,-0.968,-0.018,-0.122,0.122,0.61,620.929
134911,148342,12398,-0.028,-0.966,-0.028,-0.366,-0.061,0.671,620.935
134881,148313,38140,-0.028,-0.966,-0.028,-0.366,-0.061,0.671,620.939
134881,148339,12398,-0.03,-0.967,-0.023,-0.244,0.183,0.671,620.945
134888,148313,38140,-0.03,-0.967,-0.023,-0.244,0.183,0.671,620.949
134888,148349,12398,-0.027,-0.969,-0.015,-0.427,-0.061,0.366,620.955
134867,148313,38140,-0.027,-0.969,-0.015,-0.427,-0.061,0.366,620.959
134867,148304,12405,-0.024,-0.968,-0.017,-0.671,-0.366,0.122,620.965
134892,148313,38140,-0.024,-0.968,-0.017,-0.671,-0.366,0.122,620.969
134892,148312,12401,-0.023,-0.969,-0.014,-0.61,-0.122,0.244,620.975
134858,148313,38140,-0.023,-0.969,-0.014,-0.61,-0.122,0.244,620.979
134858,148335,12395,-0.021,-0.972,-0.017,-0.671,0,0.183,620.985
134857,148313,38140,-0.021,-0.972,-0.017,-0.671,0,0.183,620.989
134857,148287,12393,-0.019,-0.966,-0.021,-0.427,-0.122,0.305,620.995
134869,148313,38140,-0.019,-0.966,-0.021,-0.427,-0.122,0.305,620.999
134869,148308,12393,-0.019,-0.963,-0.02,-0.427,-0.122,0.305,621.005
134866,148313,38140,-0.018,-0.971,-0.015,-0.122,-0.183,0.488,621.008
134866,148316,12381,-0.02,-0.971,-0.016,-0.122,-0.183,0.488,621.015
134871,148313,38140,-0.022,-0.97,-0.02,-0.305,0.061,0.305,621.018
134871,148302,12413,-0.019,-0.97,-0.022,-0.305,0.061,0.305,621.025
134864,148313,38140,-0.022,-0.968,-0.022,-1.037,0.366,0.305,621.028
134864,148288,12393,-0.025,-0.965,-0.021,-1.037,0.366,0.305,621.034
134880,148313,38140,-0.024,-0.967,-0.025,-0.671,0.366,0.366,621.038
134880,148295,12399,-0.022,-0.97,-0.027,-0.671,0.366,0.366,621.044
134845,148313,38140,-0.021,-0.966,-0.028,-0.61,0.183,0.183,621.048
134845,148293,12386,-0.021,-0.967,-0.026,-0.61,0.183,0.183,621.054
134840,148313,38140,-0.022,-0.97,-0.021,-0.549,0.305,0,621.058
134840,148286,12391,-0.023,-0.972,-0.02,-0.549,0.305,0,621.064
134822,148313,38140,-0.019,-0.971,-0.02,-0.427,0.183,0.183,621.068
134822,148258,12406,-0.017,-0.97,-0.02,-0.427,0.183,0.183,621.074
134820,148313,38140,-0.021,-0.969,-0.018,0,0.122,0.305,621.078
134820,148271,12398,-0.021,-0.972,-0.015,0,0.122,0.305,621.084
134842,148313,38140,-0.019,-0.965,-0.017,0.488,0.305,0.366,621.088
134842,148260,12389,-0.019,-0.965,-0.017,0.488,0.305,0.366,621.094
134803,148313,38140,-0.02,-0.965,-0.016,0.793,0.488,0.549,621.098
134803,148270,12385,-0.021,-0.967,-0.014,0.793,0.488,0.549,621.104
134842,148313,38140,-0.021,-0.968,-0.018,0.915,0.427,0.671,621.107
134842,148265,12393,-0.021,-0.97,-0.016,0.915,0.427,0.671,621.114
134829,148313,38140,-0.023,-0.969,-0.017,0.793,0.549,0.732,621.117
134829,148258,12396,-0.024,-0.967,-0.016,0.793,0.549,0.732,621.124
134827,148313,38140,-0.024,-0.966,-0.016,0.671,0.671,0.854,621.127
134827,148270,12382,-0.024,-0.968,-0.014,0.671,0.671,0.854,621.133
134818,148313,38140,-0.027,-0.969,-0.013,0.854,0.671,0.915,621.137
134818,148241,12393,-0.024,-0.969,-0.017,0.854,0.671,0.915,621.143
134806,148313,38140,-0.026,-0.965,-0.021,0.793,0.488,0.671,621.147
134806,148272,12388,-0.027,-0.966,-0.019,0.793,0.488,0.671,621.153
134789,148313,38140,-0.025,-0.968,-0.014,0.427,0.854,0.549,621.157
134789,148230,12383,-0.027,-0.969,-0.018,0.427,0.854,0.549,621.163
134798,148313,38140,-0.026,-0.968,-0.016,0,0.915,0.427,621.167
134798,148242,12388,-0.027,-0.969,-0.016,0,0.915,0.427,621.173
134792,148313,38140,-0.028,-0.971,-0.015,-0.244,0.793,0.427,621.177
134792,148246,12390,-0.025,-0.97,-0.015,-0.244,0.793,0.427,621.183
134801,148313,38140,-0.023,-0.966,-0.021,-0.244,0.793,0.305,621.187
134801,148242,12380,-0.028,-0.968,-0.016,-0.244,0.793,0.305,621.193
134797,148057,38140,-0.024,-0.968,-0.011,-0.061,0.671,0.122,621.197
134797,148195,12383,-0.024,-0.965,-0.019,-0.061,0.671,0.122,621.203
134775,148313,38140,-0.023,-0.967,-0.016,-0.061,0.244,0.061,621.206
134775,148256,12371,-0.021,-0.971,-0.014,-0.061,0.244,0.061,621.213
134793,148057,38140,-0.023,-0.969,-0.011,-0.244,0.366,-0.061,621.216
134793,148218,12389,-0.021,-0.963,-0.012,-0.244,0.366,-0.061,621.223
134796,148057,38140,-0.022,-0.962,-0.02,-1.037,0.61,-0.122,621.226
134796,148203,12380,-0.021,-0.966,-0.018,-1.037,0.61,-0.122,621.232
134768,148313,38140,-0.017,-0.969,-0.018,-1.098,0.427,0.061,621.236
134768,148228,12396,-0.019,-0.97,-0.015,-1.098,0.427,0.061,621.242
134778,148057,38140,-0.017,-0.968,-0.018,-0.305,0.305,0.061,621.246
134778,148213,12363,-0.016,-0.969,-0.014,-0.305,0.305,0.061,621.252
134755,148057,38140,-0.017,-0.969,-0.011,0,0.366,0.061,621.256
134755,148193,12383,-0.017,-0.965,-0.008,0,0.366,0.061,621.262
134762,148057,38140,-0.019,-0.96,-0.011,-0.488,0.61,0.122,621.266
134762,148207,12380,-0.019,-0.963,-0.015,-0.488,0.61,0.122,621.272
134750,148057,38140,-0.019,-0.965,-0.016,-1.22,0.854,0.061,621.276
134750,148210,12375,-0.022,-0.967,-0.019,-1.22,0.854,0.061,621.282
134737,148057,38140,-0.024,-0.969,-0.02,-1.037,0.915,-0.061,621.286
134737,148193,12372,-0.019,-0.968,-0.023,-1.037,0.915,-0.061,621.292
134741,148057,38140,-0.018,-0.966,-0.028,-0.488,0.671,-0.244,621.296
134741,148187,12366,-0.016,-0.965,-0.026,-0.488,0.671,-0.244,621.302
134756,148057,38140,-0.017,-0.964,-0.02,-0.061,0.549,0.061,621.305
134756,148186,12364,-0.019,-0.965,-0.021,-0.061,0.549,0.061,621.312
134735,148057,38140,-0.017,-0.965,-0.019,0,0.549,0.244,621.315
134735,148188,12373,-0.019,-0.966,-0.022,0,0.549,0.244,621.322
134733,148057,38140,-0.02,-0.966,-0.019,-0.244,0.854,0.183,621.325
134733,148193,12358,-0.02,-0.969,-0.016,-0.244,0.854,0.183,621.331
134733,148057,38140,-0.025,-0.965,-0.012,-0.122,0.915,0.488,621.335
134733,148197,12376,-0.024,-0.97,-0.016,-0.122,0.915,0.488,621.341
134756,148057,38140,-0.022,-0.969,-0.016,0.244,0.854,0.671,621.345
134756,148193,12361,-0.026,-0.968,-0.015,0.244,0.854,0.671,621.351
134746,148057,38140,-0.028,-0.971,-0.012,0.671,0.793,0.61,621.355
134746,148170,12351,-0.026,-0.969,-0.011,0.671,0.793,0.61,621.361
134716,148057,38140,-0.027,-0.969,-0.01,0.732,0.549,0.732,621.365
134716,148177,12352,-0.028,-0.968,-0.012,0.732,0.549,0.732,621.371
134729,148057,38140,-0.031,-0.966,-0.015,0.488,0.244,0.732,621.375
134729,148158,12361,-0.031,-0.966,-0.014,0.488,0.244,0.732,621.381
134713,148057,38140,-0.029,-0.97,-0.013,0.427,0.183,0.61,621.385
134713,148172,12359,-0.029,-0.969,-0.008,0.427,0.183,0.61,621.391
134687,148057,38140,-0.027,-0.969,-0.009,-0.061,0.305,0.305,621.395
134687,148153,12367,-0.027,-0.966,-0.008,-0.061,0.305,0.305,621.401
134706,148057,38140,-0.024,-0.964,-0.013,-1.098,0,0.244,621.404
134706,148163,12350,-0.021,-0.966,-0.016,-1.098,0,0.244,621.411
134685,148057,38140,-0.021,-0.971,-0.012,-1.28,-0.122,0.183,621.414
134685,148143,12354,-0.021,-0.974,-0.017,-1.28,-0.122,0.183,621.421
134679,148057,38140,-0.021,-0.972,-0.017,-1.341,-0.122,-0.122,621.424
134679,148156,12359,-0.022,-0.968,-0.018,-1.341,-0.122,-0.122,621.43
134679,148057,38140,-0.019,-0.965,-0.021,-1.585,-0.122,-0.183,621.434
134679,148127,12342,-0.018,-0.969,-0.019,-1.585,-0.122,-0.183,621.44
134688,148057,38140,-0.021,-0.966,-0.021,-1.037,-0.244,0.122,621.444
134688,148137,12341,-0.017,-0.966,-0.019,-1.037,-0.244,0.122,621.45
134676,148057,38140,-0.017,-0.966,-0.019,-1.037,-0.244,0.122,621.454
134676,148147,12354,-0.019,-0.967,-0.017,-0.671,-0.244,0.061,621.46
134682,148057,38140,-0.019,-0.967,-0.017,-0.671,-0.244,0.061,621.464
134682,148129,12348,-0.018,-0.967,-0.016,-0.549,-0.061,0.244,621.47
134662,148057,38140,-0.018,-0.967,-0.016,-0.549,-0.061,0.244,621.474
134662,148142,12348,-0.021,-0.965,-0.024,-0.427,-0.061,0.61,621.48
134675,148057,38140,-0.021,-0.965,-0.024,-0.427,-0.061,0.61,621.484
134675,148142,12345,-0.02,-0.967,-0.023,-0.061,0,0.549,621.49
134659,148057,38140,-0.02,-0.967,-0.023,-0.061,0,0.549,621.494
134659,148138,12341,-0.023,-0.971,-0.015,0.305,0.122,0.366,621.5
134691,148057,38140,-0.023,-0.971,-0.015,0.305,0.122,0.366,621.503
134691,148149,12340,-0.023,-0.967,-0.02,0.244,0.183,0.549,621.51
134699,148057,38140,-0.023,-0.967,-0.02,0.244,0.183,0.549,621.513
134699,148141,12344,-0.027,-0.972,-0.019,0.122,0.244,0.366,621.52
134703,148057,38140,-0.027,-0.972,-0.019,0.122,0.244,0.366,621.523
134703,148146,12343,-0.026,-0.97,-0.024,-0.122,0.244,0.061,621.529
134665,148057,38140,-0.026,-0.97,-0.024,-0.122,0.244,0.061,621.533
134665,148142,12340,-0.027,-0.969,-0.024,-0.305,0.427,0.122,621.539
134671,148057,38140,-0.027,-0.969,-0.024,-0.305,0.427,0.122,621.543
134671,148151,12348,-0.025,-0.971,-0.024,0.244,0.305,0.244,621.549
134689,148057,38140,-0.025,-0.971,-0.024,0.244,0.305,0.244,621.553
134689,148123,12356,-0.021,-0.966,-0.024,0.305,0.061,0,621.559
134680,148057,38140,-0.021,-0.966,-0.024,0.305,0.061,0,621.563
134680,148161,12360,-0.021,-0.97,-0.015,0.061,0.244,-0.061,621.569
134709,148057,38140,-0.021,-0.97,-0.015,0.061,0.244,-0.061,621.573
134709,148146,12355,-0.023,-0.968,-0.024,-0.061,0.305,0.183,621.579
134694,148057,38140,-0.023,-0.968,-0.024,-0.061,0.305,0.183,621.583
134694,148164,12354,-0.021,-0.968,-0.019,-0.183,0.366,0.061,621.589
134695,148057,38140,-0.021,-0.968,-0.019,-0.183,0.366,0.061,621.593
134695,148179,12358,-0.021,-0.967,-0.013,0,0.427,0.122,621.599
134708,148057,38140,-0.021,-0.966,-0.012,0,0.427,0.122,621.602
134708,148160,12349,-0.019,-0.963,-0.011,0,0.427,0.183,621.609
134688,148057,38140,-0.018,-0.964,-0.013,0,0.427,0.183,621.612
134688,148157,12355,-0.019,-0.966,-0.019,-0.427,0.549,0.122,621.619
134697,148057,38140,-0.019,-0.968,-0.018,-0.427,0.549,0.122,621.622
134697,148172,12359,-0.018,-0.968,-0.017,-0.488,0.854,0.122,621.628
134687,148057,38140,-0.021,-0.967,-0.019,-0.488,0.854,0.122,621.632
134687,148149,12345,-0.019,-0.965,-0.019,-0.488,0.854,0.244,621.638
134669,148057,38140,-0.021,-0.963,-0.019,-0.488,0.854,0.244,621.642
134669,148137,12347,-0.022,-0.964,-0.015,-0.61,0.793,0.183,621.648
134667,148057,38140,-0.017,-0.967,-0.017,-0.61,0.793,0.183,621.652
134667,148150,12351,-0.019,-0.969,-0.017,-0.488,0.732,0.244,621.658
134673,148057,38140,-0.021,-0.971,-0.02,-0.488,0.732,0.244,621.662
134673,148135,12368,-0.022,-0.972,-0.022,-0.61,0.854,0.244,621.668
134659,148057,38140,-0.019,-0.972,-0.023,-0.61,0.854,0.244,621.672
134659,148123,12353,-0.02,-0.969,-0.018,-0.366,0.976,0.244,621.678
134674,148057,38140,-0.02,-0.965,-0.018,-0.366,0.976,0.244,621.682
134674,148154,12359,-0.021,-0.962,-0.016,0.305,0.732,0.305,621.688
134677,148057,38140,-0.019,-0.963,-0.011,0.305,0.732,0.305,621.692
134677,148131,12357,-0.019,-0.964,-0.013,0.61,0.488,0.366,621.698
134673,148057,38140,-0.017,-0.964,-0.014,0.61,0.488,0.366,621.701
134673,148144,12339,-0.02,-0.967,-0.011,0.549,0.671,0.305,621.708
134674,148057,38140,-0.022,-0.967,-0.014,0.549,0.671,0.305,621.711
134674,148148,12359,-0.02,-0.97,-0.016,0.183,0.976,0.427,621.718
134653,148057,38140,-0.025,-0.973,-0.006,0.183,0.976,0.427,621.721
134653,148152,12346,-0.026,-0.971,-0.008,0.366,0.793,0.488,621.727
134652,148057,38140,-0.026,-0.969,-0.009,0.366,0.793,0.488,621.731
134652,148120,12349,-0.025,-0.965,-0.011,0.366,0.488,0.549,621.737
134681,148057,38140,-0.026,-0.962,-0.02,0.366,0.488,0.549,621.741
134681,148150,12368,-0.028,-0.967,-0.021,0.244,0.61,0.61,621.747
134656,148057,38140,-0.026,-0.968,-0.017,0.244,0.61,0.61,621.751
134656,148112,12345,-0.024,-0.966,-0.016,-0.183,0.549,0.427,621.757
134676,148057,38140,-0.029,-0.968,-0.015,-0.183,0.549,0.427,621.761
134676,148114,12336,-0.026,-0.97,-0.013,-0.549,0.305,0.366,621.767
134651,148057,38140,-0.025,-0.969,-0.016,-0.549,0.305,0.366,621.771
134651,148149,12337,-0.024,-0.969,-0.011,-0.61,0.366,0.366,621.777
134651,148057,38140,-0.025,-0.971,-0.015,-0.61,0.366,0.366,621.781
134651,148124,12342,-0.023,-0.97,-0.018,-0.549,0.427,0.244,621.787
134632,148057,38140,-0.02,-0.968,-0.015,-0.549,0.427,0.244,621.791
134632,148102,12346,-0.022,-0.964,-0.016,-0.671,0.427,0.061,621.797
134643,148057,38140,-0.021,-0.967,-0.015,-0.671,0.427,0.061,621.8
134643,148132,12337,-0.022,-0.968,-0.014,-0.61,0.488,-0.061,621.807
134654,148057,38140,-0.018,-0.971,-0.016,-0.61,0.488,-0.061,621.81
134654,148148,12340,-0.02,-0.967,-0.016,-0.427,0.305,-0.061,621.817
134652,148057,38140,-0.02,-0.969,-0.008,-0.427,0.305,-0.061,621.82
134652,148140,12337,-0.019,-0.968,-0.013,-0.427,0.244,0.122,621.826
134646,148057,38140,-0.021,-0.963,-0.017,-0.427,0.244,0.122,621.83
134646,148139,12353,-0.019,-0.964,-0.013,-0.793,0.305,0.122,621.836
134660,148057,38140,-0.022,-0.965,-0.016,-0.793,0.305,0.122,621.84
134660,148132,12346,-0.019,-0.968,-0.021,-0.61,0.427,0.244,621.846
134653,148057,38140,-0.017,-0.966,-0.017,-0.61,0.427,0.244,621.85
134653,148144,12348,-0.019,-0.966,-0.02,-0.244,0.244,0.427,621.856
134656,148057,38140,-0.02,-0.968,-0.017,-0.244,0.244,0.427,621.86
134656,148141,12344,-0.02,-0.966,-0.02,0,0.183,0.427,621.866
134658,148057,38140,-0.016,-0.966,-0.015,0,0.183,0.427,621.87
134658,148142,12329,-0.019,-0.964,-0.019,-0.061,0.305,0.427,621.876
134657,148057,38140,-0.019,-0.968,-0.018,-0.061,0.305,0.427,621.88
134657,148114,12339,-0.018,-0.968,-0.017,-0.427,0.427,0.305,621.886
134666,148057,38140,-0.017,-0.97,-0.021,-0.427,0.427,0.305,621.89
134666,148142,12346,-0.021,-0.972,-0.019,-0.732,0.671,0.488,621.896
134667,148057,38140,-0.024,-0.973,-0.021,-0.732,0.671,0.488,621.899
134667,148151,12353,-0.026,-0.971,-0.024,-0.488,0.854,0.549,621.906
134653,148057,38140,-0.028,-0.971,-0.018,-0.488,0.854,0.549,621.909
134653,148167,12343,-0.026,-0.97,-0.02,-0.061,0.732,0.061,621.916
134657,148057,38140,-0.024,-0.97,-0.017,-0.061,0.732,0.061,621.919
134657,148132,12344,-0.021,-0.968,-0.019,0.183,0.427,-0.122,621.925
134673,148057,38140,-0.021,-0.969,-0.017,0.183,0.427,-0.122,621.929
134673,148163,12347,-0.021,-0.967,-0.017,-0.183,0.122,0,621.935
134671,148057,38140,-0.017,-0.966,-0.022,-0.183,0.122,0,621.939
134671,148153,12349,-0.018,-0.964,-0.021,-0.549,0.366,-0.061,621.945
134690,148057,38140,-0.019,-0.965,-0.023,-0.549,0.366,-0.061,621.949
134690,148154,12343,-0.022,-0.965,-0.022,-0.305,0.793,-0.061,621.955
134662,148057,38140,-0.021,-0.966,-0.02,-0.305,0.793,-0.061,621.959
134662,148170,12348,-0.023,-0.967,-0.018,0.122,0.793,0.183,621.965
134685,148057,38140,-0.022,-0.965,-0.014,0.122,0.793,0.183,621.969
134685,148153,12355,-0.021,-0.964,-0.016,0,0.61,0.244,621.975
134659,148057,38140,-0.021,-0.967,-0.015,0,0.61,0.244,621.979
134659,148165,12358,-0.024,-0.968,-0.015,-0.183,0.732,0.305,621.985
134647,148057,38140,-0.024,-0.969,-0.011,-0.183,0.732,0.305,621.989
134647,148168,12342,-0.025,-0.969,-0.014,0.061,0.793,0.305,621.995
134659,148057,38140,-0.023,-0.97,-0.017,0.061,0.793,0.305,621.998
134659,148167,12365,-0.025,-0.969,-0.019,0.061,0.61,0.305,622.005
134694,148057,38140,-0.026,-0.968,-0.02,0.061,0.61,0.305,622.008
134694,148173,12344,-0.026,-0.969,-0.017,0.061,0.366,0.366,622.015
134673,148057,38140,-0.027,-0.968,-0.016,0.061,0.366,0.366,622.018
134673,148172,12368,-0.025,-0.969,-0.015,0.061,0.305,0.244,622.024
134679,148057,38140,-0.021,-0.966,-0.014,0.061,0.305,0.244,622.028
134679,148159,12351,-0.024,-0.965,-0.018,-0.366,0.183,-0.061,622.034
134681,148057,38140,-0.024,-0.965,-0.018,-0.366,0.183,-0.061,622.038
134681,148176,12356,-0.019,-0.967,-0.018,-0.488,0.061,0.061,622.044
134689,148057,38140,-0.019,-0.967,-0.018,-0.488,0.061,0.061,622.048
134689,148168,12360,-0.018,-0.967,-0.017,-0.427,0,0.183,622.054
134684,148057,38140,-0.018,-0.967,-0.017,-0.427,0,0.183,622.058
134684,148155,12359,-0.01,-0.968,-0.02,-0.122,0,0.183,622.064
134685,148057,38140,-0.01,-0.968,-0.02,-0.122,0,0.183,622.068
134685,148197,12348,-0.014,-0.963,-0.015,-0.183,0.061,0.305,622.074
134687,148057,38140,-0.014,-0.963,-0.015,-0.183,0.061,0.305,622.078
134687,148187,12355,-0.015,-0.965,-0.017,-0.183,0.183,0.549,622.084
134693,148057,38140,-0.015,-0.965,-0.017,-0.183,0.183,0.549,622.088
134693,148184,12359,-0.015,-0.969,-0.016,-0.122,0.305,0.488,622.094
134678,148057,38140,-0.015,-0.969,-0.016,-0.122,0.305,0.488,622.097
