134050,148054,12275,-0.024,-0.97,-0.022,-1.22,0.427,0.366,636.449
134060,148057,38140,-0.023,-0.97,-0.021,-0.488,0.549,0.244,636.452
134060,148034,12283,-0.022,-0.968,-0.018,-0.488,0.549,0.244,636.458
134039,148057,38140,-0.021,-0.967,-0.02,0,0.366,0.061,636.462
134039,148043,12292,-0.022,-0.966,-0.017,0,0.366,0.061,636.468
134042,148057,38140,-0.022,-0.966,-0.015,-0.366,0.305,0.183,636.472
134042,148027,12278,-0.023,-0.966,-0.021,-0.366,0.305,0.183,636.478
134040,148057,38140,-0.025,-0.967,-0.024,-0.488,0.366,0.244,636.482
134040,148031,12273,-0.023,-0.965,-0.026,-0.488,0.366,0.244,636.488
134046,148057,38140,-0.026,-0.964,-0.022,-0.549,0.549,0.122,636.492
134046,148052,12285,-0.026,-0.964,-0.023,-0.549,0.549,0.122,636.498
134065,148057,38140,-0.023,-0.968,-0.027,-0.427,0.549,0.183,636.502
134065,148047,12286,-0.027,-0.971,-0.022,-0.427,0.549,0.183,636.508
134085,148057,38140,-0.026,-0.97,-0.02,-0.427,0.427,0.244,636.512
134085,148051,12273,-0.027,-0.967,-0.023,-0.427,0.427,0.244,636.518
134069,148057,38140,-0.028,-0.969,-0.025,-0.427,0.427,0.366,636.522
134069,148031,12266,-0.027,-0.97,-0.024,-0.427,0.427,0.366,636.528
134073,148057,38140,-0.026,-0.97,-0.024,-0.244,0.549,0.305,636.531
134073,148041,12267,-0.026,-0.972,-0.023,-0.244,0.549,0.305,636.538
134052,148057,38140,-0.026,-0.97,-0.024,-0.366,0.488,0.244,636.541
134052,148056,12263,-0.027,-0.97,-0.023,-0.366,0.488,0.244,636.548
134022,148057,38140,-0.024,-0.967,-0.018,-0.305,0.305,0.244,636.551
134022,148021,12284,-0.022,-0.964,-0.022,-0.305,0.305,0.244,636.557
134037,148057,38140,-0.024,-0.967,-0.017,-0.183,0.122,0.183,636.561
134037,148001,12295,-0.021,-0.965,-0.02,-0.183,0.122,0.183,636.567
134029,148057,38140,-0.02,-0.963,-0.023,-0.061,0.305,0.122,636.571
134029,148008,12269,-0.024,-0.965,-0.025,-0.061,0.305,0.122,636.577
134049,148057,38140,-0.02,-0.966,-0.024,-0.122,0.549,0.305,636.581
134049,148019,12269,-0.021,-0.967,-0.02,-0.122,0.549,0.305,636.587
134038,148057,38140,-0.021,-0.968,-0.019,-0.244,0.488,0.366,636.591
134038,148020,12303,-0.022,-0.968,-0.019,-0.244,0.488,0.366,636.597
134045,148057,38140,-0.021,-0.971,-0.019,-0.366,0.427,0.488,636.601
134045,148022,12285,-0.023,-0.97,-0.024,-0.366,0.427,0.488,636.607
134025,148057,38140,-0.02,-0.969,-0.021,-0.244,0.488,0.61,636.611
134025,147992,12282,-0.024,-0.969,-0.021,-0.244,0.488,0.61,636.617
134003,148057,38140,-0.024,-0.968,-0.02,0.427,0.549,0.671,636.621
134003,148013,12265,-0.024,-0.966,-0.016,0.427,0.549,0.671,636.627
134012,148057,38140,-0.027,-0.966,-0.02,0.488,0.488,0.549,636.63
134012,148014,12270,-0.027,-0.965,-0.021,0.488,0.488,0.549,636.637
134000,148057,38140,-0.025,-0.966,-0.014,0.244,0.427,0.488,636.64
134000,147999,12283,-0.028,-0.966,-0.016,0.244,0.427,0.488,636.647
134016,148057,38140,-0.027,-0.968,-0.02,-0.061,0.488,0.61,636.65
134016,147972,12267,-0.024,-0.97,-0.014,-0.061,0.488,0.61,636.656
134001,148057,38140,-0.024,-0.968,-0.017,-0.244,0.549,0.488,636.66
134001,147998,12263,-0.025,-0.968,-0.021,-0.244,0.549,0.488,636.666
134026,148057,38140,-0.025,-0.973,-0.023,-0.305,0.61,0.366,636.67
134026,148003,12266,-0.029,-0.97,-0.027,-0.305,0.61,0.366,636.676
134009,148057,38140,-0.029,-0.969,-0.028,-0.061,0.671,0.305,636.68
134009,148001,12274,-0.028,-0.971,-0.025,-0.061,0.671,0.305,636.686
134020,148057,38140,-0.027,-0.97,-0.022,0.122,0.61,0.183,636.69
134020,148004,12272,-0.028,-0.968,-0.022,0.122,0.61,0.183,636.696
134006,148057,38140,-0.025,-0.969,-0.027,-0.244,0.488,0.183,636.7
134006,147974,12272,-0.024,-0.969,-0.027,-0.244,0.488,0.183,636.706
133989,148057,38140,-0.026,-0.971,-0.02,-0.183,0.427,0.122,636.71
133989,148005,12249,-0.024,-0.968,-0.016,-0.183,0.427,0.122,636.716
133996,148057,38140,-0.024,-0.968,-0.016,-0.183,0.427,0.122,636.72
133996,147984,12264,-0.017,-0.968,-0.016,0.244,0.183,-0.244,636.726
133992,148057,38140,-0.017,-0.968,-0.016,0.244,0.183,-0.244,636.729
133992,147979,12267,-0.02,-0.961,-0.017,0.122,0.122,-0.122,636.736
133966,148057,38140,-0.02,-0.961,-0.017,0.122,0.122,-0.122,636.739
133966,147980,12262,-0.023,-0.964,-0.023,-0.183,0.427,0.244,636.746
133963,148057,38140,-0.023,-0.964,-0.023,-0.183,0.427,0.244,636.749
133963,147987,12268,-0.023,-0.963,-0.023,-0.183,0.732,0.305,636.755
133977,147801,38140,-0.023,-0.963,-0.023,-0.183,0.732,0.305,636.759
133977,147957,12255,-0.025,-0.967,-0.021,-0.061,0.671,0.244,636.765
133964,148057,38140,-0.025,-0.967,-0.021,-0.061,0.671,0.244,636.769
133964,147976,12269,-0.025,-0.968,-0.021,-0.122,0.549,0.366,636.775
133964,148057,38140,-0.025,-0.968,-0.021,-0.122,0.549,0.366,636.779
133964,147968,12256,-0.029,-0.97,-0.023,0.061,0.61,0.488,636.785
133960,148057,38140,-0.029,-0.97,-0.023,0.061,0.61,0.488,636.789
133960,147969,12249,-0.028,-0.974,-0.026,0.061,0.671,0.305,636.795
133978,148057,38140,-0.028,-0.974,-0.026,0.061,0.671,0.305,636.799
133978,147980,12285,-0.029,-0.969,-0.026,-0.061,0.61,0.244,636.805
133949,148057,38140,-0.029,-0.969,-0.026,-0.061,0.61,0.244,636.809
133949,147989,12258,-0.028,-0.967,-0.022,0.183,0.427,0.244,636.815
133968,147801,38140,-0.028,-0.967,-0.022,0.183,0.427,0.244,636.819
133968,147948,12258,-0.029,-0.963,-0.019,0.488,0.183,0.244,636.825
133961,147801,38140,-0.029,-0.963,-0.019,0.488,0.183,0.244,636.828
133961,147938,12259,-0.026,-0.966,-0.017,0.244,0.122,0.122,636.835
133976,147801,38140,-0.026,-0.966,-0.017,0.244,0.122,0.122,636.838
133976,147950,12251,-0.023,-0.969,-0.014,-0.183,0.305,0.061,636.844
133961,148057,38140,-0.023,-0.969,-0.014,-0.183,0.305,0.061,636.848
133961,147971,12263,-0.018,-0.966,-0.021,-0.305,0.244,0.122,636.854
133976,147801,38140,-0.018,-0.966,-0.021,-0.305,0.244,0.122,636.858
133976,147957,12259,-0.019,-0.965,-0.016,-0.122,0.061,0.183,636.864
133937,147801,38140,-0.016,-0.968,-0.018,-0.122,0.061,0.183,636.868
133937,147952,12265,-0.02,-0.964,-0.019,0.183,-0.122,0.183,636.874
133965,147801,38140,-0.019,-0.964,-0.022,0.183,-0.122,0.183,636.878
133965,147944,12266,-0.02,-0.964,-0.021,0.183,-0.061,0.244,636.884
133940,147801,38140,-0.018,-0.966,-0.022,0.183,-0.061,0.244,636.888
133940,147959,12252,-0.02,-0.967,-0.019,0.061,0.183,0.488,636.894
133950,147801,38140,-0.021,-0.968,-0.025,0.061,0.183,0.488,636.898
133950,147947,12259,-0.022,-0.967,-0.02,0.122,0.244,0.366,636.904
133943,147801,38140,-0.023,-0.97,-0.023,0.122,0.244,0.366,636.908
133943,147949,12270,-0.024,-0.97,-0.021,-0.061,0.366,0.488,636.914
133952,147801,38140,-0.025,-0.969,-0.021,-0.061,0.366,0.488,636.918
133952,147928,12256,-0.028,-0.97,-0.022,0.244,0.427,0.61,636.924
133936,147801,38140,-0.027,-0.968,-0.025,0.244,0.427,0.61,636.927
133936,147922,12242,-0.026,-0.968,-0.024,0.061,0.427,0.488,636.934
133939,148057,38140,-0.027,-0.973,-0.022,0.061,0.427,0.488,636.937
133939,147969,12269,-0.028,-0.974,-0.022,0.122,0.427,0.183,636.943
133939,147801,38140,-0.029,-0.973,-0.021,0.122,0.427,0.183,636.947
133939,147950,12254,-0.031,-0.968,-0.022,0.122,0.305,0.061,636.953
133942,147801,38140,-0.027,-0.969,-0.018,0.122,0.305,0.061,636.957
133942,147966,12245,-0.032,-0.969,-0.017,0.122,0.122,0.183,636.963
133939,147801,38140,-0.031,-0.968,-0.024,0.122,0.122,0.183,636.967
133939,147947,12256,-0.033,-0.967,-0.026,0.122,0.183,0,636.973
133931,147801,38140,-0.03,-0.969,-0.022,0.122,0.183,0,636.977
133931,147951,12250,-0.029,-0.969,-0.021,0.305,0.366,-0.183,636.983
133927,147801,38140,-0.028,-0.964,-0.027,0.305,0.366,-0.183,636.987
133927,147929,12247,-0.027,-0.966,-0.019,0.122,0.183,-0.061,636.993
133928,147801,38140,-0.022,-0.964,-0.016,0.122,0.183,-0.061,636.997
133928,147956,12256,-0.022,-0.96,-0.02,-0.366,0.122,-0.183,637.003
133946,147801,38140,-0.023,-0.964,-0.019,-0.366,0.122,-0.183,637.007
133946,147955,12253,-0.022,-0.97,-0.02,-0.854,0.488,-0.183,637.013
133939,147801,38140,-0.023,-0.968,-0.021,-0.854,0.488,-0.183,637.017
133939,147964,12261,-0.023,-0.966,-0.021,-0.976,0.61,-0.061,637.023
133925,147801,38140,-0.021,-0.968,-0.02,-0.976,0.61,-0.061,637.026
133925,147942,12249,-0.02,-0.967,-0.022,-0.366,0.305,-0.061,637.033
133943,147801,38140,-0.021,-0.967,-0.019,-0.366,0.305,-0.061,637.036
133943,147949,12239,-0.022,-0.966,-0.015,0.183,0.305,0,637.043
133930,147801,38140,-0.021,-0.962,-0.016,0.183,0.305,0,637.046
133930,147919,12244,-0.021,-0.961,-0.019,-0.061,0.366,0,637.052
133935,147801,38140,-0.021,-0.964,-0.023,-0.061,0.366,0,637.056
133935,147927,12266,-0.021,-0.965,-0.023,-0.305,0.549,0.183,637.062
133925,147801,38140,-0.021,-0.964,-0.02,-0.305,0.549,0.183,637.066
133925,147943,12242,-0.02,-0.967,-0.02,-0.366,0.549,0.183,637.072
133941,147801,38140,-0.023,-0.967,-0.021,-0.366,0.549,0.183,637.076
133941,147951,12256,-0.025,-0.968,-0.022,-0.305,0.427,0.244,637.082
133922,147801,38140,-0.023,-0.966,-0.023,-0.305,0.427,0.244,637.086
133922,147931,12250,-0.023,-0.967,-0.02,-0.122,0.427,0.183,637.092
133935,147801,38140,-0.021,-0.966,-0.02,-0.122,0.427,0.183,637.096
133935,147920,12242,-0.022,-0.966,-0.017,0.244,0.305,0.122,637.102
133896,147801,38140,-0.021,-0.965,-0.019,0.244,0.305,0.122,637.106
133896,147937,12257,-0.022,-0.964,-0.018,0.061,0.366,0.122,637.112
133916,147801,38140,-0.018,-0.964,-0.018,0.061,0.366,0.122,637.116
133916,147923,12248,-0.02,-0.968,-0.018,-0.122,0.488,0.183,637.122
133893,147801,38140,-0.022,-0.965,-0.012,-0.122,0.488,0.183,637.125
133893,147914,12252,-0.018,-0.968,-0.016,-0.427,0.549,0.244,637.132
133910,147801,38140,-0.022,-0.969,-0.015,-0.427,0.549,0.244,637.135
133910,147922,12255,-0.021,-0.97,-0.018,-0.183,0.488,0.122,637.141
133896,147801,38140,-0.019,-0.969,-0.019,-0.183,0.488,0.122,637.145
133896,147910,12239,-0.022,-0.967,-0.017,-0.061,0.488,0.244,637.151
133910,147801,38140,-0.023,-0.969,-0.018,-0.061,0.488,0.244,637.155
133910,147922,12249,-0.023,-0.968,-0.021,0,0.549,0.244,637.161
133906,147801,38140,-0.024,-0.966,-0.022,0,0.549,0.244,637.165
133906,147905,12255,-0.023,-0.963,-0.02,-0.122,0.427,0.244,637.171
133907,147801,38140,-0.025,-0.965,-0.018,-0.122,0.427,0.244,637.175
133907,147930,12256,-0.024,-0.967,-0.016,-0.305,0.183,0.305,637.181
133905,147801,38140,-0.026,-0.969,-0.021,-0.305,0.183,0.305,637.185
133905,147905,12259,-0.026,-0.967,-0.019,-0.549,0.244,0.305,637.191
133903,147801,38140,-0.025,-0.968,-0.019,-0.549,0.244,0.305,637.195
133903,147890,12230,-0.025,-0.97,-0.021,-0.488,0.427,0.183,637.201
133900,147801,38140,-0.029,-0.971,-0.018,-0.488,0.427,0.183,637.205
133900,147934,12251,-0.028,-0.969,-0.021,-0.366,0.488,0.122,637.211
133905,147801,38140,-0.027,-0.969,-0.025,-0.366,0.488,0.122,637.214
133905,147920,12250,-0.027,-0.969,-0.022,-0.244,0.122,0.061,637.221
133881,147801,38140,-0.024,-0.969,-0.02,-0.244,0.122,0.061,637.224
133881,147898,12241,-0.023,-0.969,-0.017,-0.488,0.183,-0.061,637.231
133871,147801,38140,-0.023,-0.969,-0.025,-0.488,0.183,-0.061,637.234
133871,147915,12237,-0.021,-0.968,-0.027,-0.793,0.366,-0.061,637.24
133871,147801,38140,-0.023,-0.969,-0.029,-0.793,0.366,-0.061,637.244
133871,147890,12246,-0.023,-0.969,-0.028,-0.793,0.549,0,637.25
133866,147801,38140,-0.022,-0.968,-0.03,-0.793,0.549,0,637.254
133866,147897,12242,-0.022,-0.965,-0.031,-0.244,0.488,-0.122,637.26
133860,147801,38140,-0.021,-0.965,-0.026,-0.244,0.488,-0.122,637.264
133860,147902,12238,-0.02,-0.966,-0.026,0.122,0.366,-0.122,637.27
133875,147801,38140,-0.019,-0.968,-0.026,0.122,0.366,-0.122,637.274
133875,147914,12238,-0.018,-0.969,-0.021,0.183,0.427,0.122,637.28
133867,147801,38140,-0.019,-0.968,-0.017,0.183,0.427,0.122,637.284
133867,147896,12248,-0.02,-0.967,-0.017,0.305,0.61,0.244,637.29
133883,147801,38140,-0.02,-0.968,-0.014,0.305,0.61,0.244,637.294
133883,147931,12234,-0.02,-0.967,-0.013,0.244,0.61,0.366,637.3
133880,147801,38140,-0.02,-0.967,-0.013,0.244,0.61,0.366,637.304
133880,147907,12247,-0.02,-0.965,-0.015,0.366,0.671,0.427,637.31
133864,147801,38140,-0.02,-0.965,-0.015,0.366,0.671,0.427,637.313
133864,147935,12252,-0.024,-0.965,-0.016,0.488,0.854,0.366,637.32
133884,147801,38140,-0.024,-0.965,-0.016,0.488,0.854,0.366,637.323
133884,147906,12239,-0.024,-0.964,-0.018,0.427,0.793,0.305,637.33
133868,147801,38140,-0.024,-0.964,-0.018,0.427,0.793,0.305,637.333
133868,147915,12249,-0.024,-0.962,-0.016,0.427,0.549,0.305,637.339
133868,147801,38140,-0.024,-0.962,-0.016,0.427,0.549,0.305,637.343
133868,147946,12243,-0.023,-0.969,-0.012,0.122,0.488,0.305,637.349
133902,147801,38140,-0.023,-0.969,-0.012,0.122,0.488,0.305,637.353
133902,147905,12231,-0.024,-0.968,-0.019,-0.122,0.549,0.305,637.359
133887,147801,38140,-0.024,-0.968,-0.019,-0.122,0.549,0.305,637.363
133887,147916,12241,-0.027,-0.967,-0.025,0,0.915,0.366,637.369
133873,147801,38140,-0.027,-0.967,-0.025,0,0.915,0.366,637.373
133873,147947,12239,-0.026,-0.97,-0.022,-0.061,1.037,0.244,637.379
133872,147801,38140,-0.026,-0.97,-0.022,-0.061,1.037,0.244,637.383
133872,147923,12244,-0.026,-0.967,-0.024,-0.305,0.488,0.122,637.389
133883,147801,38140,-0.026,-0.967,-0.024,-0.305,0.488,0.122,637.393
133883,147931,12238,-0.02,-0.97,-0.019,-0.122,0.183,0.183,637.399
133889,147801,38140,-0.02,-0.97,-0.019,-0.122,0.183,0.183,637.403
133889,147924,12236,-0.015,-0.968,-0.019,0.061,0.244,0,637.409
133871,147801,38140,-0.015,-0.968,-0.019,0.061,0.244,0,637.412
133871,147920,12245,-0.017,-0.963,-0.02,-0.305,0.366,0.061,637.419
133877,147801,38140,-0.017,-0.963,-0.02,-0.305,0.366,0.061,637.422
133877,147948,12246,-0.018,-0.966,-0.018,-0.427,0.549,0.122,637.429
133907,147801,38140,-0.018,-0.966,-0.018,-0.427,0.549,0.122,637.432
133907,147962,12245,-0.019,-0.965,-0.019,-0.732,0.427,0.244,637.438
133892,147801,38140,-0.019,-0.965,-0.019,-0.732,0.427,0.244,637.442
133892,147919,12229,-0.017,-0.966,-0.014,-0.732,0.427,0.244,637.448
133885,147801,38140,-0.019,-0.964,-0.014,-0.61,0.427,0.244,637.452
133885,147951,12245,-0.022,-0.963,-0.018,-0.61,0.427,0.244,637.458
133898,147801,38140,-0.021,-0.968,-0.016,-0.366,0.549,0.244,637.462
133898,147935,12239,-0.022,-0.967,-0.018,-0.366,0.549,0.244,637.468
133904,147801,38140,-0.024,-0.966,-0.023,-0.488,0.793,0.305,637.472
133904,147938,12266,-0.026,-0.966,-0.019,-0.488,0.793,0.305,637.478
133900,148057,38140,-0.025,-0.97,-0.023,-0.305,0.793,0.488,637.482
133900,147973,12238,-0.029,-0.969,-0.026,-0.305,0.793,0.488,637.488
133899,147801,38140,-0.029,-0.968,-0.026,-0.122,0.549,0.488,637.492
133899,147949,12249,-0.028,-0.968,-0.021,-0.122,0.549,0.488,637.498
133891,147801,38140,-0.024,-0.968,-0.021,0,0.366,0.488,637.502
133891,147949,12253,-0.029,-0.967,-0.022,0,0.366,0.488,637.508
133909,147801,38140,-0.027,-0.969,-0.021,-0.305,0.488,0.488,637.511
133909,147962,12252,-0.021,-0.971,-0.021,-0.305,0.488,0.488,637.518
133927,148057,38140,-0.022,-0.969,-0.02,-0.366,0.366,0.427,637.521
133927,147978,12260,-0.021,-0.97,-0.019,-0.366,0.366,0.427,637.528
133958,148057,38140,-0.02,-0.969,-0.018,-0.183,0.122,0.366,637.531
133958,147984,12247,-0.018,-0.97,-0.017,-0.183,0.122,0.366,637.537
133956,148057,38140,-0.018,-0.967,-0.016,-0.183,-0.122,0.366,637.541
133956,147990,12246,-0.018,-0.968,-0.016,-0.183,-0.122,0.366,637.547
133970,148057,38140,-0.017,-0.965,-0.018,-0.122,0.061,0.427,637.551
133970,148001,12243,-0.02,-0.964,-0.018,-0.122,0.061,0.427,637.557
133947,148057,38140,-0.02,-0.963,-0.017,0,0.244,0.427,637.561
133947,147969,12235,-0.019,-0.968,-0.02,0,0.244,0.427,637.567
133917,148057,38140,-0.021,-0.973,-0.02,-0.183,0.305,0.427,637.571
133917,147981,12243,-0.021,-0.969,-0.023,-0.183,0.305,0.427,637.577
133944,148057,38140,-0.024,-0.97,-0.022,-0.244,0.183,0.61,637.581
133944,147988,12268,-0.024,-0.967,-0.025,-0.244,0.183,0.61,637.587
133937,148057,38140,-0.025,-0.968,-0.021,0.122,0.122,0.732,637.591
133937,147995,12255,-0.025,-0.966,-0.023,0.122,0.122,0.732,637.597
133934,148057,38140,-0.025,-0.964,-0.022,0,0.061,0.61,637.601
133934,147995,12265,-0.027,-0.963,-0.02,0,0.061,0.61,637.607
133932,148057,38140,-0.03,-0.968,-0.02,-0.183,0,0.488,637.61
133932,147975,12258,-0.03,-0.971,-0.017,-0.183,0,0.488,637.617
133935,148057,38140,-0.026,-0.97,-0.016,-0.061,-0.061,0.488,637.62
133935,148015,12258,-0.028,-0.972,-0.021,-0.061,-0.061,0.488,637.627
133941,148057,38140,-0.026,-0.969,-0.022,0,-0.061,0.488,637.63
133941,147994,12264,-0.024,-0.967,-0.022,0,-0.061,0.488,637.636
133944,148057,38140,-0.025,-0.967,-0.018,0.488,-0.061,0.305,637.64
133944,148012,12272,-0.028,-0.965,-0.019,0.488,-0.061,0.305,637.646
133956,148057,38140,-0.025,-0.965,-0.021,0.183,0,0.183,637.65
133956,148011,12259,-0.024,-0.967,-0.02,0.183,0,0.183,637.656
133959,148057,38140,-0.02,-0.968,-0.026,-0.427,0.122,0.244,637.66
133959,147982,12278,-0.021,-0.965,-0.028,-0.427,0.122,0.244,637.666
133952,148057,38140,-0.021,-0.969,-0.023,-0.671,0.305,0.183,637.67
133952,148019,12260,-0.021,-0.972,-0.025,-0.671,0.305,0.183,637.676
133963,148057,38140,-0.019,-0.971,-0.022,-0.549,0.244,0.122,637.68
133963,148024,12259,-0.019,-0.97,-0.025,-0.549,0.244,0.122,637.686
133967,148057,38140,-0.016,-0.97,-0.023,-0.61,0.244,0.061,637.69
133967,148010,12252,-0.018,-0.968,-0.024,-0.61,0.244,0.061,637.696
133966,148057,38140,-0.016,-0.966,-0.019,-0.488,0.488,0.244,637.7
133966,147997,12256,-0.014,-0.965,-0.02,-0.488,0.488,0.244,637.706
133958,148057,38140,-0.015,-0.966,-0.022,-0.122,0.61,0.366,637.709
133958,147997,12280,-0.016,-0.963,-0.023,-0.122,0.61,0.366,637.716
133961,148057,38140,-0.019,-0.964,-0.02,-0.244,0.793,0.122,637.719
133961,148016,12253,-0.019,-0.968,-0.021,-0.244,0.793,0.122,637.726
133945,148057,38140,-0.021,-0.966,-0.023,-0.183,1.098,0.427,637.729
133945,148027,12260,-0.022,-0.965,-0.025,-0.183,1.098,0.427,637.735
133970,148057,38140,-0.022,-0.966,-0.027,-0.183,1.037,0.488,637.739
133970,148032,12258,-0.021,-0.969,-0.025,-0.183,1.037,0.488,637.745
133956,148057,38140,-0.023,-0.967,-0.019,0.244,0.793,0.488,637.749
133956,148016,12264,-0.024,-0.968,-0.017,0.244,0.793,0.488,637.755
133971,148057,38140,-0.024,-0.968,-0.019,0.244,0.61,0.732,637.759
133971,148059,12250,-0.021,-0.965,-0.015,0.244,0.61,0.732,637.765
133996,148057,38140,-0.024,-0.966,-0.017,0,0.732,0.732,637.769
133996,148033,12270,-0.023,-0.966,-0.015,0,0.732,0.732,637.775
133981,148057,38140,-0.021,-0.966,-0.014,0.122,0.915,0.671,637.779
133981,148034,12272,-0.021,-0.966,-0.014,0.122,0.915,0.671,637.785
133967,148057,38140,-0.023,-0.967,-0.014,0.244,0.732,0.549,637.789
133967,147997,12276,-0.024,-0.966,-0.008,0.244,0.732,0.549,637.795
133958,148057,38140,-0.022,-0.965,-0.011,0.122,0.61,0.427,637.799
133958,148020,12274,-0.02,-0.967,-0.015,0.122,0.61,0.427,637.805
133979,148057,38140,-0.022,-0.968,-0.014,-0.305,0.61,0.366,637.808
133979,148007,12274,-0.023,-0.966,-0.015,-0.305,0.61,0.366,637.815
133961,148057,38140,-0.023,-0.966,-0.015,-0.061,0.549,0.427,637.818
133961,147997,12278,-0.023,-0.967,-0.015,-0.061,0.549,0.427,637.825
133949,148057,38140,-0.025,-0.966,-0.015,-0.061,0.305,0.305,637.828
133949,148031,12267,-0.024,-0.966,-0.016,-0.061,0.305,0.305,637.834
133963,148057,38140,-0.026,-0.966,-0.017,-0.122,0.366,0.427,637.838
133963,148009,12270,-0.026,-0.967,-0.015,-0.122,0.366,0.427,637.844
133966,148057,38140,-0.024,-0.967,-0.021,-0.122,0.427,0.549,637.848
133966,147997,12271,-0.026,-0.968,-0.02,-0.122,0.427,0.549,637.854
133948,148057,38140,-0.03,-0.968,-0.016,-0.183,0.244,0.427,637.858
133948,148031,12271,-0.027,-0.968,-0.017,-0.183,0.244,0.427,637.864
133958,148057,38140,-0.026,-0.966,-0.02,0.122,-0.061,0.427,637.868
133958,148002,12275,-0.026,-0.97,-0.019,0.122,-0.061,0.427,637.874
133963,148057,38140,-0.026,-0.97,-0.019,0.122,-0.061,0.427,637.878
133963,148021,12284,-0.023,-0.968,-0.017,-0.122,0,0.244,637.884
133925,148057,38140,-0.023,-0.968,-0.017,-0.122,0,0.244,637.888
133925,148013,12267,-0.024,-0.967,-0.021,-0.488,0,0.366,637.894
133927,148057,38140,-0.024,-0.967,-0.021,-0.488,0,0.366,637.898
133927,148000,12265,-0.023,-0.969,-0.02,-0.671,-0.122,0.244,637.904
133958,148057,38140,-0.023,-0.969,-0.02,-0.671,-0.122,0.244,637.907
133958,148012,12255,-0.021,-0.966,-0.023,-0.427,-0.061,0.183,637.914
133960,148057,38140,-0.021,-0.966,-0.023,-0.427,-0.061,0.183,637.917
133960,148025,12265,-0.022,-0.966,-0.024,-0.488,0,0.183,637.923
133974,148057,38140,-0.022,-0.966,-0.024,-0.488,0,0.183,637.927
133974,148024,12266,-0.022,-0.963,-0.022,-0.244,0.122,0.183,637.933
133957,148057,38140,-0.022,-0.963,-0.022,-0.244,0.122,0.183,637.937
133957,148033,12279,-0.017,-0.968,-0.02,-0.244,0,0.305,637.943
133972,148057,38140,-0.017,-0.968,-0.02,-0.244,0,0.305,637.947
133972,148027,12268,-0.016,-0.968,-0.021,-0.244,0.061,0.305,637.953
133973,148057,38140,-0.016,-0.968,-0.021,-0.244,0.061,0.305,637.957
133973,148040,12275,-0.018,-0.967,-0.022,-0.549,0.488,0.305,637.963
133965,148057,38140,-0.018,-0.967,-0.022,-0.549,0.488,0.305,637.967
133965,148045,12278,-0.02,-0.971,-0.023,-0.549,0.671,0.305,637.973
133980,148057,38140,-0.02,-0.971,-0.023,-0.549,0.671,0.305,637.977
133980,148045,12280,-0.023,-0.967,-0.021,-0.244,0.549,0.305,637.983
133963,148057,38140,-0.023,-0.967,-0.021,-0.244,0.549,0.305,637.987
133963,148050,12279,-0.023,-0.964,-0.025,-0.122,0.61,0.366,637.993
133979,148057,38140,-0.023,-0.964,-0.025,-0.122,0.61,0.366,637.997
133979,148019,12275,-0.021,-0.966,-0.019,0.061,0.61,0.427,638.003
133977,148057,38140,-0.021,-0.966,-0.019,0.061,0.61,0.427,638.006
133977,148032,12283,-0.026,-0.964,-0.025,0.183,0.671,0.427,638.013
133974,148057,38140,-0.026,-0.964,-0.025,0.183,0.671,0.427,638.016
133974,148029,12277,-0.025,-0.963,-0.022,0.244,0.732,0.488,638.022
133959,148057,38140,-0.023,-0.964,-0.018,0.244,0.732,0.488,638.026
133959,148037,12263,-0.027,-0.966,-0.017,0.549,0.671,0.671,638.032
133963,148057,38140,-0.024,-0.968,-0.017,0.549,0.671,0.671,638.036
133963,148023,12277,-0.024,-0.972,-0.013,0.244,0.488,0.427,638.042
133944,148057,38140,-0.023,-0.968,-0.015,0.244,0.488,0.427,638.046
133944,148030,12277,-0.026,-0.973,-0.019,-0.366,0.549,0.244,638.052
133974,148057,38140,-0.022,-0.974,-0.018,-0.366,0.549,0.244,638.056
133974,148046,12266,-0.025,-0.97,-0.021,-0.244,0.793,0.427,638.062
133958,148057,38140,-0.027,-0.971,-0.018,-0.244,0.793,0.427,638.066
133958,148052,12273,-0.027,-0.971,-0.013,0,0.793,0.305,638.072
133945,148057,38140,-0.029,-0.971,-0.017,0,0.793,0.305,638.076
133945,148014,12276,-0.028,-0.97,-0.019,-0.61,0.488,0.183,638.082
133971,148057,38140,-0.025,-0.968,-0.017,-0.61,0.488,0.183,638.086
133971,148046,12277,-0.022,-0.966,-0.024,-0.732,0.366,0.122,638.092
133960,148057,38140,-0.02,-0.966,-0.022,-0.732,0.366,0.122,638.096
133960,148047,12276,-0.02,-0.964,-0.02,-0.061,0.061,0,638.102
133977,148057,38140,-0.019,-0.966,-0.02,-0.061,0.061,0,638.105
133977,148049,12261,-0.015,-0.963,-0.02,0.366,-0.244,0.061,638.112
133975,148057,38140,-0.014,-0.96,-0.017,0.366,-0.244,0.061,638.115
133975,148037,12275,-0.017,-0.96,-0.019,-0.061,0.183,0.305,638.121
133993,148057,38140,-0.019,-0.964,-0.018,-0.061,0.183,0.305,638.125
133993,148064,12291,-0.015,-0.964,-0.02,-0.549,0.854,0.427,638.131
133986,148057,38140,-0.019,-0.97,-0.021,-0.549,0.854,0.427,638.135
133986,148035,12277,-0.023,-0.971,-0.018,-0.061,0.854,0.427,638.141
133978,148057,38140,-0.021,-0.971,-0.016,-0.061,0.854,0.427,638.145
133978,148069,12275,-0.022,-0.971,-0.013,0.244,0.549,0.488,638.151
133986,148057,38140,-0.025,-0.969,-0.017,0.244,0.549,0.488,638.155
133986,148064,12265,-0.024,-0.968,-0.02,-0.122,0.549,0.671,638.161
133970,148057,38140,-0.026,-0.97,-0.022,-0.122,0.549,0.671,638.165
133970,148053,12279,-0.028,-0.973,-0.024,0.061,0.915,0.732,638.171
133994,148057,38140,-0.026,-0.971,-0.021,0.061,0.915,0.732,638.175
133994,148061,12273,-0.029,-0.965,-0.021,0.183,0.671,0.366,638.181
133979,148057,38140,-0.029,-0.965,-0.025,0.183,0.671,0.366,638.185
133979,148075,12279,-0.029,-0.965,-0.02,0.488,0.305,0.488,638.191
133988,148057,38140,-0.03,-0.962,-0.02,0.488,0.305,0.488,638.195
133988,148079,12269,-0.027,-0.964,-0.016,0.366,0.122,0.427,638.201
134009,148057,38140,-0.024,-0.965,-0.015,0.366,0.122,0.427,638.204
134009,148068,12277,-0.021,-0.966,-0.013,-0.305,0.122,0.122,638.211
134000,148057,38140,-0.018,-0.967,-0.016,-0.305,0.122,0.122,638.214
134000,148110,12278,-0.021,-0.967,-0.021,-0.854,0.122,0.122,638.22
133997,148057,38140,-0.021,-0.969,-0.018,-0.854,0.122,0.122,638.224
133997,148083,12284,-0.018,-0.968,-0.015,-0.671,0.122,0.366,638.23
133986,148057,38140,-0.012,-0.967,-0.017,-0.671,0.122,0.366,638.234
133986,148088,12278,-0.015,-0.964,-0.018,-0.122,-0.061,0.366,638.24
133998,148057,38140,-0.018,-0.966,-0.016,-0.122,-0.061,0.366,638.244
133998,148091,12277,-0.017,-0.963,-0.017,-0.183,-0.061,0.366,638.25
134000,148057,38140,-0.016,-0.966,-0.021,-0.183,-0.061,0.366,638.254
134000,148094,12297,-0.019,-0.966,-0.024,-0.671,0.366,0.488,638.26
134006,148057,38140,-0.019,-0.968,-0.021,-0.671,0.366,0.488,638.264
134006,148063,12290,-0.021,-0.97,-0.024,-0.549,0.549,0.61,638.27
133997,148057,38140,-0.021,-0.971,-0.021,-0.549,0.549,0.61,638.274
133997,148065,12296,-0.021,-0.969,-0.023,-0.244,0.305,0.549,638.28
134011,148057,38140,-0.021,-0.966,-0.029,-0.244,0.305,0.549,638.284
134011,148065,12286,-0.023,-0.971,-0.026,0,0.488,0.671,638.29
134001,148057,38140,-0.025,-0.973,-0.025,0,0.488,0.671,638.293
134001,148095,12295,-0.027,-0.97,-0.02,0.244,0.671,0.61,638.3
134009,148057,38140,-0.03,-0.969,-0.018,0.244,0.671,0.61,638.303
134009,148059,12286,-0.027,-0.966,-0.02,0.122,0.427,0.488,638.31
134005,148057,38140,-0.026,-0.965,-0.021,0.122,0.427,0.488,638.313
134005,148083,12287,-0.028,-0.968,-0.019,-0.122,0.122,0.427,638.319
134000,148057,38140,-0.029,-0.972,-0.021,-0.122,0.122,0.427,638.323
134000,148069,12287,-0.028,-0.968,-0.017,-0.183,0.488,0.122,638.329
133976,148057,38140,-0.024,-0.968,-0.02,-0.183,0.488,0.122,638.333
133976,148065,12283,-0.025,-0.964,-0.021,-0.122,0.488,0.183,638.339
134005,148057,38140,-0.027,-0.965,-0.017,-0.122,0.488,0.183,638.343
134005,148088,12290,-0.026,-0.965,-0.02,-0.366,0.305,0.305,638.349
134006,148057,38140,-0.026,-0.965,-0.021,-0.366,0.305,0.305,638.353
134006,148048,12271,-0.023,-0.965,-0.022,-0.366,0.305,0.244,638.359
133994,148057,38140,-0.022,-0.966,-0.02,-0.366,0.305,0.244,638.363
133994,148093,12282,-0.022,-0.965,-0.016,-0.122,0.305,0.183,638.369
134014,148057,38140,-0.02,-0.966,-0.019,-0.122,0.305,0.183,638.373
134014,148066,12270,-0.016,-0.966,-0.02,-0.122,0.305,0.244,638.379
134007,148057,38140,-0.018,-0.967,-0.021,-0.122,0.305,0.244,638.383
134007,148070,12285,-0.017,-0.968,-0.021,-0.61,0.61,0.427,638.389
134025,148057,38140,-0.017,-0.969,-0.015,-0.61,0.61,0.427,638.392
134025,148108,12287,-0.02,-0.969,-0.02,-0.732,0.61,0.488,638.399
134031,148057,38140,-0.019,-0.969,-0.021,-0.732,0.61,0.488,638.402
134031,148086,12301,-0.019,-0.97,-0.021,-0.366,0.549,0.488,638.409
134028,148057,38140,-0.023,-0.967,-0.021,-0.366,0.549,0.488,638.412
134028,148080,12293,-0.021,-0.969,-0.023,0,0.732,0.488,638.418
134016,148057,38140,-0.021,-0.966,-0.021,0,0.732,0.488,638.422
134016,148093,12291,-0.024,-0.966,-0.021,0.061,0.854,0.549,638.428
134012,148057,38140,-0.024,-0.966,-0.025,0.061,0.854,0.549,638.432
134012,148083,12289,-0.022,-0.964,-0.026,0,0.793,0.61,638.438
134029,148057,38140,-0.022,-0.966,-0.024,0,0.793,0.61,638.442
134029,148097,12293,-0.023,-0.968,-0.02,0.061,0.549,0.549,638.448
134019,148057,38140,-0.025,-0.965,-0.017,0.061,0.549,0.549,638.452
134019,148111,12293,-0.024,-0.965,-0.018,-0.061,0.671,0.488,638.458
134041,148057,38140,-0.024,-0.965,-0.018,-0.061,0.671,0.488,638.462
134041,148094,12290,-0.023,-0.968,-0.015,0.183,0.854,0.549,638.468
134033,148057,38140,-0.023,-0.968,-0.015,0.183,0.854,0.549,638.472
134033,148090,12287,-0.024,-0.967,-0.015,0.366,0.61,0.488,638.478
134011,148057,38140,-0.024,-0.967,-0.015,0.366,0.61,0.488,638.482
134011,148096,12304,-0.021,-0.966,-0.011,0.244,0.427,0.549,638.488
134036,148057,38140,-0.021,-0.966,-0.011,0.244,0.427,0.549,638.491
134036,148083,12281,-0.022,-0.964,-0.012,-0.061,0.427,0.61,638.498
134006,148057,38140,-0.022,-0.964,-0.012,-0.061,0.427,0.61,638.501
134006,148088,12304,-0.024,-0.965,-0.016,-0.244,0.549,0.61,638.508
134036,148057,38140,-0.024,-0.965,-0.016,-0.244,0.549,0.61,638.511
134036,148102,12307,-0.024,-0.969,-0.02,-0.183,0.61,0.488,638.517
134031,148057,38140,-0.024,-0.969,-0.02,-0.183,0.61,0.488,638.521
134031,148084,12280,-0.023,-0.965,-0.019,-0.305,0.366,0.427,638.527
134029,148057,38140,-0.023,-0.965,-0.019,-0.305,0.366,0.427,638.531
134029,148097,12282,-0.027,-0.965,-0.021,-0.183,0.366,0.549,638.537
134020,148057,38140,-0.027,-0.965,-0.021,-0.183,0.366,0.549,638.541
134020,148114,12289,-0.027,-0.968,-0.021,-0.061,0.305,0.488,638.547
134021,148057,38140,-0.027,-0.968,-0.021,-0.061,0.305,0.488,638.551
134021,148100,12279,-0.024,-0.97,-0.021,-0.427,0.061,0.244,638.557
134025,148057,38140,-0.024,-0.97,-0.021,-0.427,0.061,0.244,638.561
134025,148101,12301,-0.027,-0.971,-0.018,-0.61,0.122,0.305,638.567
134021,148057,38140,-0.027,-0.971,-0.018,-0.61,0.122,0.305,638.571
134021,148093,12289,-0.025,-0.967,-0.017,-0.61,0.183,0.244,638.577
134029,148057,38140,-0.025,-0.967,-0.017,-0.61,0.183,0.244,638.581
134029,148096,12292,-0.025,-0.966,-0.02,-0.61,0.183,0.244,638.587
134001,148057,38140,-0.025,-0.966,-0.02,-0.61,0.183,0.244,638.59
134001,148083,12278,-0.024,-0.967,-0.021,-0.305,0.183,0.366,638.597
134017,148057,38140,-0.024,-0.967,-0.021,-0.305,0.183,0.366,638.6
134017,148081,12298,-0.025,-0.966,-0.017,-0.305,0.183,0.366,638.607
134002,148057,38140,-0.023,-0.966,-0.018,-0.122,0.061,0.305,638.61
134002,148072,12287,-0.021,-0.965,-0.022,-0.122,0.061,0.305,638.616
134005,148057,38140,-0.022,-0.964,-0.021,-0.183,0.122,0.488,638.62
134005,148103,12275,-0.022,-0.967,-0.021,-0.183,0.122,0.488,638.626
134033,148057,38140,-0.018,-0.965,-0.02,-0.122,0.244,0.61,638.63
134033,148093,12285,-0.019,-0.966,-0.019,-0.122,0.244,0.61,638.636
134011,148057,38140,-0.018,-0.968,-0.019,-0.122,0.366,0.61,638.64
134011,148111,12278,-0.017,-0.967,-0.023,-0.122,0.366,0.61,638.646
134035,148057,38140,-0.019,-0.966,-0.02,-0.122,0.305,0.732,638.65
134035,148104,12271,-0.018,-0.966,-0.023,-0.122,0.305,0.732,638.656
134009,148057,38140,-0.018,-0.966,-0.018,0.122,0.427,0.793,638.66
134009,148080,12290,-0.019,-0.969,-0.015,0.122,0.427,0.793,638.666
134010,148057,38140,-0.018,-0.966,-0.024,-0.244,0.427,0.732,638.67
134010,148101,12285,-0.019,-0.967,-0.023,-0.244,0.427,0.732,638.676
134012,148057,38140,-0.02,-0.97,-0.025,-0.305,0.549,0.671,638.68
134012,148103,12282,-0.023,-0.969,-0.018,-0.305,0.549,0.671,638.686
133996,148057,38140,-0.026,-0.968,-0.018,-0.122,0.854,0.671,638.689
133996,148098,12290,-0.022,-0.967,-0.024,-0.122,0.854,0.671,638.696
134032,148057,38140,-0.024,-0.969,-0.019,-0.305,0.793,0.671,638.699
134032,148111,12295,-0.024,-0.967,-0.018,-0.305,0.793,0.671,638.706
134027,148057,38140,-0.024,-0.969,-0.02,-0.366,0.671,0.61,638.709
134027,148117,12304,-0.022,-0.965,-0.02,-0.366,0.671,0.61,638.715
134030,148057,38140,-0.021,-0.965,-0.018,-0.366,0.549,0.61,638.719
134030,148116,12276,-0.02,-0.964,-0.013,-0.366,0.549,0.61,638.725
134026,148057,38140,-0.019,-0.965,-0.015,-0.061,0.549,0.671,638.729
134026,148093,12300,-0.021,-0.966,-0.016,-0.061,0.549,0.671,638.735
134025,148057,38140,-0.024,-0.966,-0.015,0,0.61,0.732,638.739
134025,148096,12286,-0.024,-0.965,-0.012,0,0.61,0.732,638.745
134023,148057,38140,-0.027,-0.966,-0.014,-0.488,0.732,0.61,638.749
134023,148099,12276,-0.026,-0.971,-0.017,-0.488,0.732,0.61,638.755
133994,148057,38140,-0.027,-0.971,-0.022,-0.488,0.915,0.671,638.759
133994,148074,12302,-0.026,-0.97,-0.023,-0.488,0.915,0.671,638.765
134012,148057,38140,-0.027,-0.971,-0.025,-0.488,0.793,0.549,638.769
134012,148111,12281,-0.029,-0.97,-0.027,-0.488,0.793,0.549,638.775
133999,148057,38140,-0.027,-0.97,-0.027,-0.427,0.61,0.61,638.779
133999,148109,12276,-0.023,-0.969,-0.027,-0.427,0.61,0.61,638.785
134008,148057,38140,-0.023,-0.967,-0.027,0.183,0.427,0.671,638.788
134008,148074,12286,-0.021,-0.966,-0.028,0.183,0.427,0.671,638.795
133996,148057,38140,-0.023,-0.965,-0.022,0.366,0.366,0.671,638.798
133996,148096,12279,-0.024,-0.968,-0.017,0.366,0.366,0.671,638.805
134011,148057,38140,-0.022,-0.968,-0.017,-0.061,0.549,0.61,638.808
134011,148095,12287,-0.019,-0.968,-0.023,-0.061,0.549,0.61,638.814
134014,148057,38140,-0.022,-0.97,-0.021,-0.427,0.793,0.671,638.818
134014,148092,12297,-0.023,-0.968,-0.018,-0.427,0.793,0.671,638.824
134001,148057,38140,-0.023,-0.965,-0.013,-0.061,0.549,0.793,638.828
134001,148105,12284,-0.022,-0.966,-0.019,-0.061,0.549,0.793,638.834
134021,148057,38140,-0.024,-0.968,-0.015,0.061,0.488,0.793,638.838
134021,148091,12284,-0.027,-0.969,-0.013,0.061,0.488,0.793,638.844
133997,148057,38140,-0.026,-0.969,-0.014,0,0.732,0.915,638.848
133997,148083,12282,-0.03,-0.97,-0.013,0,0.732,0.915,638.854
134005,148057,38140,-0.028,-0.97,-0.011,-0.244,0.671,0.915,638.858
134005,148107,12268,-0.026,-0.968,-0.015,-0.244,0.671,0.915,638.864
134016,148057,38140,-0.028,-0.971,-0.017,-0.305,0.366,0.854,638.868
134016,148093,12296,-0.032,-0.97,-0.017,-0.305,0.366,0.854,638.874
134015,148057,38140,-0.03,-0.97,-0.019,-0.122,0.244,0.854,638.878
134015,148097,12286,-0.032,-0.967,-0.017,-0.122,0.244,0.854,638.884
134019,148057,38140,-0.033,-0.965,-0.02,-0.183,0.305,0.854,638.887
134019,148089,12294,-0.032,-0.965,-0.015,-0.183,0.305,0.854,638.894
134024,148057,38140,-0.031,-0.963,-0.017,-0.366,0.061,0.793,638.897
134024,148116,12280,-0.031,-0.962,-0.016,-0.366,0.061,0.793,638.904
134014,148057,38140,-0.026,-0.964,-0.017,-0.976,-0.122,0.61,638.907
134014,148116,12303,-0.025,-0.967,-0.021,-0.976,-0.122,0.61,638.913
134018,148057,38140,-0.022,-0.97,-0.024,-1.341,-0.061,0.427,638.917
134018,148102,12274,-0.021,-0.97,-0.021,-1.341,-0.061,0.427,638.923
134005,148057,38140,-0.018,-0.969,-0.022,-0.976,0,0.366,638.927
134005,148099,12286,-0.02,-0.971,-0.018,-0.976,0,0.366,638.933
134016,148057,38140,-0.019,-0.967,-0.02,-0.671,-0.061,0.366,638.937
134016,148109,12282,-0.019,-0.968,-0.016,-0.671,-0.061,0.366,638.943
134015,148057,38140,-0.02,-0.967,-0.016,-0.488,-0.305,0.549,638.947
134015,148080,12294,-0.021,-0.963,-0.019,-0.488,-0.305,0.549,638.953
133997,148057,38140,-0.022,-0.962,-0.018,-0.61,-0.305,0.793,638.957
133997,148113,12278,-0.018,-0.967,-0.016,-0.61,-0.305,0.793,638.963
134013,148057,38140,-0.018,-0.969,-0.021,-0.366,-0.122,0.732,638.967
134013,148095,12281,-0.019,-0.968,-0.021,-0.366,-0.122,0.732,638.973
134021,148057,38140,-0.018,-0.969,-0.022,-0.488,0.183,0.549,638.977
134021,148105,12290,-0.02,-0.966,-0.023,-0.488,0.183,0.549,638.983
134020,148057,38140,-0.024,-0.968,-0.022,-0.915,0.549,0.671,638.986
134020,148079,12288,-0.023,-0.969,-0.02,-0.915,0.549,0.671,638.993
134005,148057,38140,-0.027,-0.971,-0.017,-1.28,0.732,0.671,638.996
134005,148099,12294,-0.026,-0.972,-0.02,-1.28,0.732,0.671,639.003
134029,148057,38140,-0.027,-0.976,-0.024,-1.829,0.671,0.305,639.006
134029,148108,12283,-0.029,-0.973,-0.026,-1.829,0.671,0.305,639.012
134003,148057,38140,-0.031,-0.976,-0.022,-1.89,0.732,0.305,639.016
134003,148081,12293,-0.033,-0.973,-0.022,-1.89,0.732,0.305,639.022
134007,148057,38140,-0.032,-0.968,-0.021,-1.22,0.488,0.305,639.026
134007,148070,12291,-0.031,-0.968,-0.021,-1.22,0.488,0.305,639.032
134001,148057,38140,-0.033,-0.964,-0.024,-0.671,0.305,0.122,639.036
134001,148093,12290,-0.032,-0.96,-0.023,-0.671,0.305,0.122,639.042
134035,148057,38140,-0.032,-0.96,-0.023,-0.671,0.305,0.122,639.046
134035,148093,12287,-0.029,-0.96,-0.019,-0.122,0.122,0.305,639.052
134028,148057,38140,-0.029,-0.96,-0.019,-0.122,0.122,0.305,639.056
134028,148114,12292,-0.024,-0.964,-0.018,-0.427,0.061,0.549,639.062
134047,148057,38140,-0.024,-0.964,-0.018,-0.427,0.061,0.549,639.066
134047,148133,12280,-0.023,-0.965,-0.027,-0.671,0.244,0.671,639.072
134041,148057,38140,-0.023,-0.965,-0.027,-0.671,0.244,0.671,639.076
134041,148114,12290,-0.024,-0.968,-0.027,-0.549,0.61,0.976,639.082
134034,148057,38140,-0.024,-0.968,-0.027,-0.549,0.61,0.976,639.085
134034,148108,12295,-0.022,-0.97,-0.025,0.305,0.61,1.28,639.092
134034,148057,38140,-0.022,-0.97,-0.025,0.305,0.61,1.28,639.095
134034,148082,12283,-0.019,-0.967,-0.02,1.22,0.305,1.159,639.102
134010,148057,38140,-0.019,-0.967,-0.02,1.22,0.305,1.159,639.105
134010,148104,12289,-0.025,-0.968,-0.017,1.159,0.305,1.159,639.111
134025,148057,38140,-0.025,-0.968,-0.017,1.159,0.305,1.159,639.115
134025,148084,12268,-0.027,-0.973,-0.02,0.671,0.732,1.28,639.121
133991,148057,38140,-0.027,-0.973,-0.02,0.671,0.732,1.28,639.125
133991,148073,12288,-0.024,-0.97,-0.021,0.244,0.854,1.037,639.131
133997,148057,38140,-0.024,-0.97,-0.021,0.244,0.854,1.037,639.135
133997,148066,12290,-0.025,-0.968,-0.019,0,0.61,0.793,639.141
133996,148057,38140,-0.025,-0.968,-0.019,0,0.61,0.793,639.145
133996,148072,12283,-0.03,-0.964,-0.015,0.183,0.549,0.915,639.151
133974,148057,38140,-0.03,-0.964,-0.015,0.183,0.549,0.915,639.155
133974,148067,12265,-0.023,-0.965,-0.012,0.122,0.427,0.671,639.161
134008,148057,38140,-0.023,-0.965,-0.012,0.122,0.427,0.671,639.165
134008,148077,12272,-0.027,-0.973,-0.019,-0.427,0.427,0.488,639.171
133980,148057,38140,-0.027,-0.973,-0.019,-0.427,0.427,0.488,639.174
133980,148059,12285,-0.034,-0.98,-0.02,-0.061,0.549,0.671,639.181
133991,148057,38140,-0.034,-0.98,-0.02,-0.061,0.549,0.671,639.184
133991,148048,12286,-0.035,-0.979,-0.027,1.159,0.793,0.732,639.191
133982,148057,38140,-0.041,-0.969,-0.021,1.159,0.793,0.732,639.194
133982,148072,12287,-0.037,-0.957,-0.012,1.037,0.61,0.183,639.201
134000,148057,38140,-0.032,-0.947,-0.012,1.037,0.61,0.183,639.204
134000,148092,12290,-0.03,-0.952,-0.012,-0.244,-0.244,0.488,639.21
133981,148057,38140,-0.025,-0.963,-0.011,-0.244,-0.244,0.488,639.214
133981,148041,12288,-0.02,-0.969,-0.015,-1.28,-0.671,0.488,639.22
133973,148057,38140,-0.021,-0.972,-0.019,-1.28,-0.671,0.488,639.224
133973,148033,12275,-0.023,-0.974,-0.02,-2.317,0.122,0.061,639.23
133978,148057,38140,-0.027,-0.975,-0.014,-2.317,0.122,0.061,639.234
133978,148028,12284,-0.032,-0.973,-0.016,-1.098,0.549,0.488,639.24
133978,148057,38140,-0.033,-0.966,-0.021,-1.098,0.549,0.488,639.244
133978,148051,12265,-0.033,-0.966,-0.022,-0.488,0.183,0.732,639.25
133977,148057,38140,-0.032,-0.967,-0.025,-0.488,0.183,0.732,639.254
133977,148071,12288,-0.029,-0.971,-0.031,-0.671,-0.122,0.244,639.26
133981,148057,38140,-0.027,-0.968,-0.028,-0.671,-0.122,0.244,639.264
133981,148056,12271,-0.028,-0.967,-0.027,-0.915,-0.244,0.122,639.27
133964,148057,38140,-0.024,-0.968,-0.032,-0.915,-0.244,0.122,639.273
133964,148047,12272,-0.029,-0.967,-0.025,-1.159,-0.183,0.366,639.28
133973,148057,38140,-0.032,-0.968,-0.024,-1.159,-0.183,0.366,639.283
133973,148053,12266,-0.026,-0.971,-0.023,-1.159,0.061,0.366,639.29
133957,148057,38140,-0.029,-0.971,-0.021,-1.159,0.061,0.366,639.293
133957,148035,12278,-0.03,-0.969,-0.024,-1.159,0.183,0.061,639.299
133949,148057,38140,-0.031,-0.971,-0.018,-1.159,0.183,0.061,639.303
133949,148044,12278,-0.031,-0.968,-0.019,-0.976,0.244,0.183,639.309
133967,148057,38140,-0.031,-0.963,-0.021,-0.976,0.244,0.183,639.313
133967,148027,12277,-0.031,-0.964,-0.018,-1.098,0,0.244,639.319
133964,148057,38140,-0.029,-0.968,-0.016,-1.098,0,0.244,639.323
133964,148028,12263,-0.031,-0.967,-0.015,-0.488,-0.061,0.366,639.329
133955,148057,38140,-0.031,-0.964,-0.016,-0.488,-0.061,0.366,639.333
133955,148058,12266,-0.033,-0.962,-0.017,-0.305,-0.122,0.366,639.339
133958,148057,38140,-0.032,-0.963,-0.016,-0.305,-0.122,0.366,639.343
133958,148056,12274,-0.031,-0.961,-0.02,-0.427,-0.183,0.488,639.349
133953,148057,38140,-0.031,-0.962,-0.024,-0.427,-0.183,0.488,639.353
133953,148018,12264,-0.03,-0.966,-0.025,-0.427,-0.122,0.549,639.359
133947,148057,38140,-0.03,-0.97,-0.024,-0.427,-0.122,0.549,639.363
133947,148015,12277,-0.028,-0.973,-0.023,-0.366,-0.183,0.305,639.369
133933,148057,38140,-0.024,-0.968,-0.027,-0.366,-0.183,0.305,639.372
133933,148017,12263,-0.026,-0.971,-0.029,-0.732,-0.366,0.244,639.379
133905,148057,38140,-0.021,-0.967,-0.03,-0.732,-0.366,0.244,639.382
133905,148002,12252,-0.021,-0.97,-0.026,-0.915,-0.305,0.427,639.389
133920,148057,38140,-0.02,-0.969,-0.027,-0.915,-0.305,0.427,639.392
133920,147974,12281,-0.022,-0.97,-0.024,-0.671,0,0.366,639.398
133896,148057,38140,-0.022,-0.971,-0.02,-0.671,0,0.366,639.402
133896,147979,12250,-0.02,-0.968,-0.018,-1.159,0.061,0.122,639.408
133904,148057,38140,-0.02,-0.97,-0.02,-1.159,0.061,0.122,639.412
133904,147969,12255,-0.019,-0.969,-0.023,-1.402,-0.122,0.061,639.418
133887,148057,38140,-0.015,-0.969,-0.023,-1.402,-0.122,0.061,639.422
133887,147988,12245,-0.016,-0.969,-0.021,-1.037,0.061,0.061,639.428
133876,147801,38140,-0.018,-0.966,-0.023,-1.037,0.061,0.061,639.432
133876,147959,12248,-0.015,-0.963,-0.026,-0.732,0.183,-0.061,639.438
133881,147801,38140,-0.013,-0.962,-0.021,-0.732,0.183,-0.061,639.442
133881,147951,12244,-0.014,-0.963,-0.026,-1.098,0.183,0.244,639.448
133861,147801,38140,-0.013,-0.961,-0.029,-1.098,0.183,0.244,639.452
133861,147945,12247,-0.016,-0.962,-0.028,-0.732,0.244,0.793,639.458
133864,147801,38140,-0.017,-0.964,-0.024,-0.732,0.244,0.793,639.462
133864,147949,12229,-0.019,-0.965,-0.023,-0.122,0.427,0.915,639.468
133855,147801,38140,-0.017,-0.959,-0.022,-0.122,0.427,0.915,639.471
133855,147953,12249,-0.02,-0.958,-0.019,0,0.61,1.159,639.478
133852,147801,38140,-0.024,-0.96,-0.023,0,0.61,1.159,639.481
133852,147952,12249,-0.025,-0.967,-0.021,-0.122,0.854,1.341,639.488
133866,147801,38140,-0.026,-0.969,-0.016,-0.122,0.854,1.341,639.491
133866,147952,12252,-0.028,-0.971,-0.019,-0.305,0.976,1.22,639.497
133836,147801,38140,-0.03,-0.971,-0.023,-0.305,0.976,1.22,639.501
133836,147915,12250,-0.03,-0.971,-0.023,-0.549,0.915,1.463,639.507
133828,147801,38140,-0.033,-0.967,-0.022,-0.549,0.915,1.463,639.511
133828,147944,12245,-0.035,-0.969,-0.02,-0.366,0.671,1.524,639.517
133827,147801,38140,-0.036,-0.973,-0.021,-0.366,0.671,1.524,639.521
133827,147922,12260,-0.036,-0.975,-0.026,-0.061,0.366,1.22,639.527
133841,147801,38140,-0.038,-0.973,-0.025,-0.061,0.366,1.22,639.531
133841,147952,12251,-0.036,-0.969,-0.022,0.549,0.549,1.098,639.537
133864,147801,38140,-0.039,-0.962,-0.022,0.549,0.549,1.098,639.541
133864,147926,12242,-0.037,-0.958,-0.022,0.427,0.427,0.793,639.547
133857,147801,38140,-0.032,-0.958,-0.026,0.427,0.427,0.793,639.551
133857,147949,12248,-0.031,-0.962,-0.025,-0.427,-0.061,0.854,639.557
133841,147801,38140,-0.027,-0.968,-0.019,-0.427,-0.061,0.854,639.561
133841,147920,12237,-0.029,-0.976,-0.019,-0.976,-0.061,0.793,639.567
133821,147801,38140,-0.026,-0.979,-0.025,-0.976,-0.061,0.793,639.57
133821,147944,12240,-0.027,-0.982,-0.031,0.061,0.427,0.793,639.577
133830,147801,38140,-0.031,-0.974,-0.023,0.061,0.427,0.793,639.58
133830,147898,12236,-0.033,-0.966,-0.018,1.463,0.793,0.854,639.587
133814,147801,38140,-0.03,-0.954,-0.016,1.463,0.793,0.854,639.59
133814,147920,12227,-0.024,-0.951,-0.016,1.037,0,0.732,639.596
133826,147801,38140,-0.022,-0.952,-0.024,1.037,0,0.732,639.6
133826,147908,12246,-0.021,-0.962,-0.015,-0.976,-0.366,0.549,639.606
133789,147801,38140,-0.022,-0.957,-0.007,-0.976,-0.366,0.549,639.61
133789,147902,12234,-0.018,-0.951,-0.017,-5.61,0.854,0.061,639.616
133798,147801,38140,-0.025,-0.962,-0.034,-5.61,0.854,0.061,639.62
133798,147883,12224,-0.036,-0.99,-0.028,-7.134,1.402,1.037,639.626
133802,147801,38140,-0.036,-0.99,-0.028,-7.134,1.402,1.037,639.63
133802,147889,12248,-0.031,-1.009,-0.02,-1.524,0.793,0.427,639.636
133828,147801,38140,-0.031,-1.009,-0.02,-1.524,0.793,0.427,639.64
133828,147898,12230,-0.028,-0.957,-0.027,1.037,0,-1.037,639.646
133815,147801,38140,-0.028,-0.957,-0.027,1.037,0,-1.037,639.65
133815,147893,12229,-0.028,-0.94,-0.019,2.317,-0.61,0.793,639.656
133815,147801,38140,-0.028,-0.94,-0.019,2.317,-0.61,0.793,639.66
133815,147887,12241,-0.024,-0.954,-0.021,0.183,-0.427,0.976,639.666
133827,147801,38140,-0.024,-0.954,-0.021,0.183,-0.427,0.976,639.669
133827,147914,12220,-0.022,-0.975,-0.028,-3.049,0.366,-0.305,639.676
133793,147801,38140,-0.022,-0.975,-0.028,-3.049,0.366,-0.305,639.679
133793,147906,12225,-0.037,-0.979,-0.03,-2.439,0.732,0.549,639.686
133793,147801,38140,-0.037,-0.979,-0.03,-2.439,0.732,0.549,639.689
133793,147898,12214,-0.034,-0.973,-0.029,0.122,0.244,1.037,639.695
133788,147801,38140,-0.034,-0.973,-0.029,0.122,0.244,1.037,639.699
133788,147915,12242,-0.029,-0.966,-0.02,1.768,-0.305,0.244,639.705
133816,147801,38140,-0.029,-0.966,-0.02,1.768,-0.305,0.244,639.709
133816,147920,12227,-0.029,-0.964,-0.02,1.037,-0.305,0.549,639.715
133830,147801,38140,-0.029,-0.964,-0.02,1.037,-0.305,0.549,639.719
133830,147902,12232,-0.03,-0.971,-0.011,-0.61,0,0.976,639.725
133827,147801,38140,-0.03,-0.971,-0.011,-0.61,0,0.976,639.729
133827,147899,12236,-0.031,-0.973,-0.013,-1.585,0.244,0.488,639.735
133797,147801,38140,-0.031,-0.973,-0.013,-1.585,0.244,0.488,639.739
133797,147894,12235,-0.03,-0.973,-0.033,-1.524,0.488,0.122,639.745
133802,147801,38140,-0.03,-0.973,-0.033,-1.524,0.488,0.122,639.749
133802,147909,12231,-0.039,-0.972,-0,0.061,0.244,-0.061,639.755
133802,147801,38140,-0.039,-0.972,-0,0.061,0.244,-0.061,639.759
133802,147885,12233,-0.034,-0.954,-0.041,-0.793,-0.61,-0.061,639.765
133775,147801,38140,-0.034,-0.954,-0.041,-0.793,-0.61,-0.061,639.768
133775,147898,12225,-0.036,-0.974,-0.014,-0.793,-0.61,-0.061,639.775
133779,147801,38140,-0.033,-0.971,-0.016,1.037,-0.122,0,639.778
133779,147896,12240,-0.02,-0.951,-0.055,1.037,-0.122,0,639.785
133783,147801,38140,-0.025,-0.952,-0.048,-1.28,-0.366,-0.61,639.788
133783,147880,12230,-0.025,-0.971,-0.027,-1.28,-0.366,-0.61,639.794
133774,147801,38140,-0.031,-0.97,-0.045,-1.524,0.061,-0.061,639.798
133774,147854,12223,-0.034,-0.97,-0.045,-1.524,0.061,-0.061,639.804
133767,147801,38140,-0.034,-0.974,-0.035,-0.427,0.305,0.61,639.808
133767,147865,12241,-0.029,-0.972,-0.032,-0.427,0.305,0.61,639.814
133789,147801,38140,-0.027,-0.966,-0.032,1.159,-0.366,0.061,639.818
133789,147886,12235,-0.024,-0.965,-0.026,1.159,-0.366,0.061,639.824
133782,147801,38140,-0.018,-0.964,-0.023,2.073,-0.854,0.305,639.828
133782,147873,12236,-0.016,-0.961,-0.025,2.073,-0.854,0.305,639.834
133767,147801,38140,-0.015,-0.961,-0.02,1.463,-0.366,0.549,639.838
133767,147855,12228,-0.018,-0.966,-0.016,1.463,-0.366,0.549,639.844
133740,147801,38140,-0.017,-0.968,-0.014,0.732,0.427,0.305,639.848
133740,147835,12211,-0.019,-0.969,-0.017,0.732,0.427,0.305,639.854
133757,147801,38140,-0.022,-0.968,-0.023,-0.305,0.915,0.183,639.858
133757,147849,12218,-0.025,-0.97,-0.026,-0.305,0.915,0.183,639.864
133746,147801,38140,-0.027,-0.968,-0.025,-0.854,1.28,0.244,639.867
133746,147819,12216,-0.031,-0.969,-0.024,-0.854,1.28,0.244,639.874
133732,147801,38140,-0.027,-0.973,-0.027,0,1.098,0,639.877
133732,147839,12226,-0.029,-0.97,-0.024,0,1.098,0,639.884
133756,147801,38140,-0.028,-0.967,-0.019,0.366,0.549,-0.183,639.887
133756,147837,12222,-0.025,-0.96,-0.023,0.366,0.549,-0.183,639.893
133754,147801,38140,-0.022,-0.963,-0.023,0.122,0.732,0,639.897
133754,147854,12226,-0.027,-0.961,-0.021,0.122,0.732,0,639.903
133703,147801,38140,-0.027,-0.962,-0.022,-0.305,1.037,0.122,639.907
133703,147791,12208,-0.027,-0.964,-0.024,-0.305,1.037,0.122,639.913
133711,147801,38140,-0.029,-0.967,-0.025,-0.549,1.159,0.183,639.917
133711,147801,12217,-0.029,-0.97,-0.025,-0.549,1.159,0.183,639.923
133737,147801,38140,-0.033,-0.967,-0.019,-0.305,1.037,0.366,639.927
133737,147799,12211,-0.029,-0.963,-0.02,-0.305,1.037,0.366,639.933
133744,147801,38140,-0.026,-0.964,-0.022,0.122,0.732,0.427,639.937
133744,147845,12222,-0.027,-0.964,-0.022,0.122,0.732,0.427,639.943
133727,147801,38140,-0.027,-0.967,-0.018,0.122,0.427,0.427,639.947
133727,147842,12232,-0.025,-0.966,-0.016,0.122,0.427,0.427,639.953
133711,147801,38140,-0.023,-0.966,-0.019,0.061,0.488,0.427,639.957
133711,147815,12232,-0.022,-0.966,-0.024,0.061,0.488,0.427,639.963
133704,147801,38140,-0.024,-0.964,-0.03,-0.305,0.732,0.549,639.966
133704,147812,12216,-0.027,-0.968,-0.029,-0.305,0.732,0.549,639.973
133693,147801,38140,-0.025,-0.969,-0.033,-0.244,1.037,0.488,639.976
133693,147817,12215,-0.024,-0.974,-0.029,-0.244,1.037,0.488,639.983
133711,147801,38140,-0.025,-0.975,-0.029,-0.061,0.732,0.366,639.986
133711,147785,12200,-0.024,-0.972,-0.03,-0.061,0.732,0.366,639.992
133680,147801,38140,-0.024,-0.968,-0.025,0.061,0.488,0.366,639.996
133680,147776,12216,-0.021,-0.97,-0.023,0.061,0.488,0.366,640.002
133668,147801,38140,-0.025,-0.971,-0.023,0.366,0.549,0.549,640.006
133668,147770,12199,-0.025,-0.965,-0.025,0.366,0.549,0.549,640.012
133663,147801,38140,-0.027,-0.965,-0.024,0.671,0.671,0.427,640.016
133663,147780,12217,-0.029,-0.966,-0.025,0.671,0.671,0.427,640.022
133687,147801,38140,-0.027,-0.968,-0.026,0.671,0.671,0.366,640.026
133687,147771,12200,-0.027,-0.965,-0.024,0.671,0.671,0.366,640.032
133670,147801,38140,-0.029,-0.966,-0.023,0.244,0.793,0.549,640.036
133670,147751,12222,-0.029,-0.963,-0.027,0.244,0.793,0.549,640.042
133707,147801,38140,-0.032,-0.964,-0.026,0,0.732,0.732,640.046
133707,147780,12201,-0.03,-0.968,-0.025,0,0.732,0.732,640.052
133707,147801,38140,-0.031,-0.968,-0.027,0.122,0.61,0.61,640.056
133707,147816,12226,-0.032,-0.968,-0.025,0.122,0.61,0.61,640.062
133727,147801,38140,-0.031,-0.971,-0.021,0.549,0.732,0.488,640.065
133727,147825,12207,-0.032,-0.97,-0.021,0.549,0.732,0.488,640.072
133749,147801,38140,-0.031,-0.971,-0.021,0.976,0.854,0.488,640.075
133749,147818,12205,-0.032,-0.966,-0.02,0.976,0.854,0.488,640.081
133689,147801,38140,-0.032,-0.964,-0.02,0.671,0.732,0.427,640.085
133689,147806,12220,-0.034,-0.966,-0.019,0.671,0.732,0.427,640.091
133716,147801,38140,-0.031,-0.969,-0.016,0.427,0.61,0.305,640.095
133716,147786,12217,-0.031,-0.972,-0.017,0.427,0.61,0.305,640.101
133697,147801,38140,-0.033,-0.973,-0.017,0.244,0.854,0.244,640.105
133697,147790,12209,-0.035,-0.969,-0.022,0.244,0.854,0.244,640.111
133668,147801,38140,-0.034,-0.966,-0.027,-0.305,0.976,0.244,640.115
133668,147766,12208,-0.037,-0.963,-0.023,-0.305,0.976,0.244,640.121
133651,147801,38140,-0.042,-0.965,-0.022,-0.061,0.732,0.305,640.125
133651,147758,12192,-0.035,-0.962,-0.021,-0.061,0.732,0.305,640.131
133668,147801,38140,-0.034,-0.965,-0.016,0.427,0.183,0.244,640.135
133668,147749,12201,-0.033,-0.966,-0.013,0.427,0.183,0.244,640.141
133648,147801,38140,-0.028,-0.966,-0.014,0.061,-0.061,0.061,640.145
133648,147764,12195,-0.026,-0.963,-0.017,0.061,-0.061,0.061,640.151
133640,147801,38140,-0.026,-0.968,-0.017,-0.488,0.183,0.183,640.155
133640,147753,12195,-0.025,-0.97,-0.017,-0.488,0.183,0.183,640.161
133639,147801,38140,-0.027,-0.969,-0.02,-0.549,0.122,0.244,640.164
133639,147762,12198,-0.023,-0.966,-0.022,-0.549,0.122,0.244,640.171
133639,147801,38140,-0.024,-0.965,-0.025,-0.671,0.244,0.183,640.174
133639,147746,12201,-0.025,-0.968,-0.021,-0.671,0.244,0.183,640.181
133638,147801,38140,-0.027,-0.967,-0.019,-0.549,0.183,0.305,640.184
133638,147756,12208,-0.025,-0.965,-0.022,-0.549,0.183,0.305,640.19
133647,147801,38140,-0.021,-0.968,-0.024,-0.549,-0.244,0.244,640.194
133647,147748,12209,-0.023,-0.966,-0.027,-0.549,-0.244,0.244,640.2
133637,147801,38140,-0.025,-0.967,-0.025,-0.549,-0.244,0.183,640.204
133637,147746,12202,-0.025,-0.972,-0.021,-0.549,-0.244,0.183,640.21
133627,147801,38140,-0.025,-0.972,-0.021,-0.549,-0.244,0.183,640.214
133627,147767,12184,-0.027,-0.969,-0.023,-0.122,-0.061,0.366,640.22
133630,147801,38140,-0.027,-0.969,-0.023,-0.122,-0.061,0.366,640.224
133630,147734,12189,-0.023,-0.967,-0.024,-0.366,0,0.122,640.23
133623,147801,38140,-0.023,-0.967,-0.024,-0.366,0,0.122,640.234
133623,147755,12187,-0.025,-0.966,-0.024,-0.61,0.122,0.122,640.24
133644,147801,38140,-0.025,-0.966,-0.024,-0.61,0.122,0.122,640.244
133644,147755,12206,-0.029,-0.965,-0.025,-0.366,0.244,0.305,640.25
133647,147801,38140,-0.029,-0.965,-0.025,-0.366,0.244,0.305,640.254
133647,147764,12201,-0.027,-0.964,-0.027,-0.366,0.305,0.061,640.26
133636,147801,38140,-0.027,-0.964,-0.027,-0.366,0.305,0.061,640.263
133636,147748,12187,-0.029,-0.969,-0.022,-0.671,0.305,0.122,640.27
133626,147801,38140,-0.029,-0.969,-0.022,-0.671,0.305,0.122,640.273
133626,147785,12202,-0.027,-0.968,-0.022,0.061,0.244,0.366,640.28
133616,147801,38140,-0.027,-0.968,-0.022,0.061,0.244,0.366,640.283
133616,147734,12185,-0.026,-0.966,-0.021,-0.122,0.061,0.122,640.289
133621,147801,38140,-0.026,-0.966,-0.021,-0.122,0.061,0.122,640.293
133621,147744,12193,-0.025,-0.969,-0.024,-0.183,0.061,0,640.299
133647,147801,38140,-0.025,-0.969,-0.024,-0.183,0.061,0,640.303
133647,147743,12194,-0.026,-0.97,-0.02,-0.305,0.244,0.183,640.309
133609,147801,38140,-0.026,-0.97,-0.02,-0.305,0.244,0.183,640.313
133609,147735,12178,-0.024,-0.964,-0.025,0,0.183,0.244,640.319
133616,147801,38140,-0.024,-0.964,-0.025,0,0.183,0.244,640.323
133616,147741,12179,-0.026,-0.962,-0.023,0.183,0,0.61,640.329
133606,147801,38140,-0.026,-0.962,-0.023,0.183,0,0.61,640.333
133606,147725,12179,-0.026,-0.97,-0.027,0.732,0.976,0.427,640.339
133604,147545,38140,-0.026,-0.97,-0.027,0.732,0.976,0.427,640.343
133604,147706,12194,-0.024,-0.971,-0.025,0.244,0.671,0.122,640.349
133596,147801,38140,-0.024,-0.971,-0.025,0.244,0.671,0.122,640.353
133596,147716,12197,-0.024,-0.967,-0.024,0.061,0.122,0.366,640.359
133581,147545,38140,-0.028,-0.966,-0.028,0.061,0.122,0.366,640.362
133581,147711,12165,-0.033,-0.967,-0.028,0.671,1.037,0.671,640.369
133575,147545,38140,-0.03,-0.968,-0.022,0.671,1.037,0.671,640.372
133575,147698,12180,-0.028,-0.972,-0.02,0.732,0.976,0.305,640.378
133567,147545,38140,-0.026,-0.969,-0.025,0.732,0.976,0.305,640.382
133567,147682,12175,-0.026,-0.966,-0.026,-0.488,0.427,0.061,640.388
133580,147801,38140,-0.026,-0.968,-0.02,-0.488,0.427,0.061,640.392
133580,147712,12185,-0.025,-0.97,-0.019,-0.305,0.61,0.61,640.398
133566,147545,38140,-0.025,-0.97,-0.018,-0.305,0.61,0.61,640.402
133566,147695,12175,-0.028,-0.967,-0.02,0.122,0.671,0.427,640.408
133560,147545,38140,-0.026,-0.967,-0.016,0.122,0.671,0.427,640.412
133560,147706,12175,-0.024,-0.969,-0.014,0.305,0.61,0.183,640.418
133552,147545,38140,-0.026,-0.965,-0.015,0.305,0.61,0.183,640.422
133552,147669,12185,-0.027,-0.965,-0.021,-0.122,0.732,0.366,640.428
133560,147545,38140,-0.026,-0.965,-0.021,-0.122,0.732,0.366,640.432
133560,147676,12173,-0.025,-0.965,-0.024,-0.427,0.915,0.427,640.438
133550,147545,38140,-0.026,-0.969,-0.025,-0.427,0.915,0.427,640.442
133550,147663,12178,-0.027,-0.966,-0.027,0.122,0.854,0.366,640.448
133558,147545,38140,-0.03,-0.966,-0.026,0.122,0.854,0.366,640.452
133558,147677,12174,-0.03,-0.962,-0.022,0.427,0.671,0.427,640.458
133563,147545,38140,-0.025,-0.966,-0.026,0.427,0.671,0.427,640.461
133563,147658,12164,-0.028,-0.965,-0.026,0.122,0.671,0.549,640.468
133535,147545,38140,-0.028,-0.966,-0.024,0.122,0.671,0.549,640.471
133535,147675,12183,-0.03,-0.969,-0.019,0.244,0.854,0.549,640.478
133538,147545,38140,-0.029,-0.971,-0.02,0.244,0.854,0.549,640.481
133538,147653,12154,-0.033,-0.972,-0.018,0.427,0.671,0.61,640.487
133542,147545,38140,-0.032,-0.969,-0.01,0.427,0.671,0.61,640.491
133542,147676,12161,-0.029,-0.965,-0.011,0.122,0.305,0.488,640.497
133522,147545,38140,-0.031,-0.966,-0.012,0.122,0.305,0.488,640.501
133522,147662,12174,-0.033,-0.969,-0.015,0.244,0.366,0.427,640.507
133521,147545,38140,-0.033,-0.969,-0.019,0.244,0.366,0.427,640.511
133521,147655,12191,-0.033,-0.97,-0.021,0.305,0.671,0.183,640.517
133525,147545,38140,-0.033,-0.966,-0.026,0.305,0.671,0.183,640.521
133525,147636,12176,-0.034,-0.969,-0.023,0.183,0.366,0.244,640.527
133498,147545,38140,-0.034,-0.968,-0.021,0.183,0.366,0.244,640.531
133498,147636,12175,-0.033,-0.969,-0.025,-0.061,0.061,0.305,640.537
133497,147545,38140,-0.029,-0.97,-0.024,-0.061,0.061,0.305,640.541
133497,147661,12167,-0.028,-0.968,-0.021,0,0,0.183,640.547
133504,147545,38140,-0.027,-0.966,-0.023,0,0,0.183,640.551
133504,147628,12162,-0.025,-0.966,-0.024,0,0.061,0.122,640.557
133491,147545,38140,-0.022,-0.969,-0.02,0,0.061,0.122,640.56
133491,147633,12179,-0.025,-0.967,-0.023,-0.061,0.061,0.183,640.567
133512,147545,38140,-0.024,-0.969,-0.023,-0.061,0.061,0.183,640.57
133512,147643,12154,-0.025,-0.971,-0.023,-0.122,0.305,0.183,640.576
133491,147545,38140,-0.027,-0.972,-0.021,-0.122,0.305,0.183,640.58
133491,147652,12178,-0.028,-0.973,-0.021,0,0.366,0.183,640.586
133479,147545,38140,-0.03,-0.971,-0.021,0,0.366,0.183,640.59
133479,147594,12150,-0.029,-0.966,-0.02,-0.122,0.183,0.244,640.596
133480,147545,38140,-0.026,-0.965,-0.024,-0.122,0.183,0.244,640.6
133480,147636,12169,-0.023,-0.969,-0.025,-0.366,0.122,0.061,640.606
133483,147545,38140,-0.026,-0.968,-0.026,-0.366,0.122,0.061,640.61
133483,147633,12155,-0.026,-0.971,-0.028,-0.305,0.244,-0.183,640.616
133498,147545,38140,-0.024,-0.97,-0.026,-0.305,0.244,-0.183,640.62
133498,147629,12142,-0.022,-0.969,-0.025,0.061,0.366,-0.183,640.626
133497,147545,38140,-0.023,-0.965,-0.022,0.061,0.366,-0.183,640.63
133497,147651,12161,-0.023,-0.961,-0.019,0,0.366,-0.061,640.636
133492,147545,38140,-0.025,-0.962,-0.019,0,0.366,-0.061,640.64
133492,147646,12164,-0.024,-0.966,-0.018,-0.427,0.366,0.122,640.646
133486,147545,38140,-0.02,-0.969,-0.021,-0.427,0.366,0.122,640.65
133486,147643,12165,-0.022,-0.969,-0.022,-0.488,0.61,0,640.656
133502,147545,38140,-0.023,-0.969,-0.019,-0.488,0.61,0,640.659
133502,147639,12150,-0.026,-0.965,-0.017,-0.183,0.854,0.122,640.666
133489,147545,38140,-0.027,-0.964,-0.02,-0.183,0.854,0.122,640.669
133489,147625,12159,-0.028,-0.962,-0.02,0.366,0.793,0.366,640.675
133483,147545,38140,-0.028,-0.962,-0.021,0.366,0.793,0.366,640.679
133483,147643,12142,-0.029,-0.963,-0.02,0.183,0.671,0.427,640.685
133454,147545,38140,-0.031,-0.968,-0.021,0.183,0.671,0.427,640.689
133454,147596,12162,-0.026,-0.968,-0.02,0,0.671,0.366,640.695
133462,147545,38140,-0.032,-0.968,-0.021,0,0.671,0.366,640.699
133462,147598,12154,-0.032,-0.968,-0.022,-0.122,0.488,0.549,640.705
133460,147545,38140,-0.032,-0.967,-0.022,-0.122,0.488,0.549,640.709
133460,147621,12159,-0.034,-0.965,-0.02,0.122,0.366,0.671,640.715
133485,147545,38140,-0.033,-0.966,-0.021,0.122,0.366,0.671,640.719
133485,147626,12159,-0.033,-0.965,-0.019,0.122,0.305,0.427,640.725
133470,147545,38140,-0.031,-0.965,-0.022,0.122,0.305,0.427,640.729
133470,147605,12151,-0.032,-0.962,-0.017,-0.488,0.061,0.305,640.735
133463,147545,38140,-0.025,-0.965,-0.016,-0.488,0.061,0.305,640.739
133463,147614,12163,-0.021,-0.967,-0.024,-1.402,0.061,0.366,640.745
133470,147545,38140,-0.023,-0.969,-0.026,-1.402,0.061,0.366,640.749
133470,147612,12154,-0.022,-0.978,-0.026,-1.524,0.122,0.488,640.755
133432,147545,38140,-0.022,-0.982,-0.025,-1.524,0.122,0.488,640.758
133432,147590,12160,-0.026,-0.977,-0.022,-0.427,0.488,0.061,640.765
133414,147545,38140,-0.027,-0.973,-0.022,-0.427,0.488,0.061,640.768
133414,147574,12142,-0.025,-0.966,-0.018,0.366,0.183,0.122,640.774
133418,147545,38140,-0.025,-0.964,-0.02,0.366,0.183,0.122,640.778
133418,147578,12146,-0.024,-0.966,-0.019,0.366,-0.244,0.427,640.784
133436,147545,38140,-0.022,-0.964,-0.017,0.366,-0.244,0.427,640.788
133436,147573,12140,-0.021,-0.968,-0.015,-0.122,-0.122,0.122,640.794
133430,147545,38140,-0.021,-0.968,-0.015,-0.122,-0.122,0.122,640.798
133430,147594,12161,-0.022,-0.968,-0.019,-0.61,0.183,0,640.804
133431,147545,38140,-0.022,-0.968,-0.019,-0.61,0.183,0,640.808
133431,147582,12158,-0.034,-0.969,-0.019,-0.366,0.366,0.488,640.814
133434,147545,38140,-0.034,-0.969,-0.019,-0.366,0.366,0.488,640.818
133434,147580,12151,-0.03,-0.962,-0.021,0.244,0.305,0.488,640.824
133426,147545,38140,-0.03,-0.962,-0.021,0.244,0.305,0.488,640.828
133426,147572,12141,-0.029,-0.966,-0.018,0.427,0,0.427,640.834
133445,147545,38140,-0.029,-0.966,-0.018,0.427,0,0.427,640.838
133445,147587,12150,-0.027,-0.968,-0.02,0.183,-0.183,0.488,640.844
133437,147545,38140,-0.027,-0.968,-0.02,0.183,-0.183,0.488,640.848
133437,147574,12149,-0.029,-0.968,-0.022,-0.183,0.061,0.61,640.854
133429,147545,38140,-0.029,-0.968,-0.022,-0.183,0.061,0.61,640.857
133429,147604,12134,-0.027,-0.968,-0.019,-0.183,0.183,0.549,640.864
133412,147545,38140,-0.027,-0.968,-0.019,-0.183,0.183,0.549,640.867
133412,147571,12166,-0.03,-0.968,-0.023,-0.427,0.122,0.305,640.873
133424,147545,38140,-0.03,-0.968,-0.023,-0.427,0.122,0.305,640.877
133424,147605,12142,-0.029,-0.97,-0.023,-0.671,0.183,0.244,640.883
133447,147545,38140,-0.029,-0.97,-0.023,-0.671,0.183,0.244,640.887
133447,147587,12139,-0.029,-0.967,-0.025,-0.61,0.244,0.061,640.893
133450,147545,38140,-0.029,-0.967,-0.025,-0.61,0.244,0.061,640.897
133450,147615,12154,-0.028,-0.967,-0.024,-0.244,0.183,0.122,640.903
133443,147545,38140,-0.028,-0.967,-0.024,-0.244,0.183,0.122,640.907
133443,147598,12144,-0.026,-0.966,-0.021,0.488,0.061,0.183,640.913
133445,147545,38140,-0.026,-0.966,-0.021,0.488,0.061,0.183,640.917
133445,147603,12141,-0.026,-0.966,-0.011,0.671,0.061,0.122,640.923
133446,147545,38140,-0.026,-0.966,-0.011,0.671,0.061,0.122,640.927
133446,147595,12133,-0.021,-0.966,-0.016,-0.305,0.183,0.122,640.933
133425,147545,38140,-0.021,-0.966,-0.016,-0.305,0.183,0.122,640.937
133425,147596,12138,-0.022,-0.964,-0.019,-0.305,0.183,0.122,640.943
133456,147545,38140,-0.026,-0.966,-0.024,-1.037,0.305,0.366,640.946
133456,147589,12134,-0.027,-0.972,-0.025,-1.037,0.305,0.366,640.953
133431,147545,38140,-0.024,-0.97,-0.021,-0.793,0.427,0.305,640.956
133431,147599,12149,-0.025,-0.97,-0.023,-0.793,0.427,0.305,640.963
133440,147545,38140,-0.026,-0.968,-0.024,-0.732,0.305,0.122,640.966
133440,147618,12135,-0.027,-0.969,-0.026,-0.732,0.305,0.122,640.972
133419,147545,38140,-0.023,-0.965,-0.032,-0.671,0.305,0.244,640.976
133419,147597,12132,-0.027,-0.968,-0.028,-0.671,0.305,0.244,640.982
133451,147545,38140,-0.025,-0.969,-0.025,-0.549,0.244,0.183,640.986
133451,147597,12141,-0.021,-0.968,-0.024,-0.549,0.244,0.183,640.992
133421,147545,38140,-0.02,-0.965,-0.021,-0.122,0.183,0,640.996
133421,147612,12145,-0.022,-0.965,-0.026,-0.122,0.183,0,641.002
133435,147545,38140,-0.022,-0.964,-0.024,-0.061,0.183,0.244,641.006
133435,147584,12142,-0.022,-0.963,-0.023,-0.061,0.183,0.244,641.012
133414,147545,38140,-0.023,-0.965,-0.015,0.061,0.488,0.427,641.016
133414,147581,12145,-0.024,-0.965,-0.019,0.061,0.488,0.427,641.022
133431,147545,38140,-0.024,-0.968,-0.017,0.122,0.61,0.427,641.026
133431,147580,12137,-0.024,-0.966,-0.019,0.122,0.61,0.427,641.032
133413,147545,38140,-0.025,-0.967,-0.018,0,0.732,0.488,641.036
133413,147573,12149,-0.027,-0.969,-0.017,0,0.732,0.488,641.042
133407,147545,38140,-0.027,-0.968,-0.019,0.61,0.671,0.732,641.046
133407,147579,12143,-0.028,-0.968,-0.018,0.61,0.671,0.732,641.052
133411,147545,38140,-0.027,-0.966,-0.018,0.549,0.427,0.549,641.055
133411,147573,12132,-0.028,-0.968,-0.022,0.549,0.427,0.549,641.062
133416,147545,38140,-0.029,-0.966,-0.019,0.183,0.549,0.549,641.065
133416,147569,12132,-0.03,-0.969,-0.018,0.183,0.549,0.549,641.071
133406,147545,38140,-0.031,-0.972,-0.015,0.305,0.793,0.549,641.075
133406,147591,12138,-0.029,-0.969,-0.021,0.305,0.793,0.549,641.081
133412,147545,38140,-0.031,-0.968,-0.019,-0.549,0.793,0.305,641.085
133412,147562,12137,-0.032,-0.97,-0.018,-0.549,0.793,0.305,641.091
133400,147545,38140,-0.032,-0.971,-0.017,-0.732,0.549,0.305,641.095
133400,147609,12141,-0.031,-0.97,-0.015,-0.732,0.549,0.305,641.101
133396,147545,38140,-0.031,-0.968,-0.019,-0.488,0.427,0.183,641.105
133396,147569,12121,-0.03,-0.966,-0.019,-0.488,0.427,0.183,641.111
133384,147545,38140,-0.031,-0.966,-0.017,-0.183,0.366,0.061,641.115
133384,147567,12124,-0.028,-0.966,-0.021,-0.183,0.366,0.061,641.121
133404,147545,38140,-0.026,-0.962,-0.023,0.061,0.244,0.183,641.125
133404,147586,12125,-0.029,-0.964,-0.025,0.061,0.244,0.183,641.131
133388,147545,38140,-0.029,-0.964,-0.025,-0.122,0.244,0.305,641.135
133388,147576,12144,-0.026,-0.965,-0.027,-0.122,0.244,0.305,641.141
133402,147545,38140,-0.026,-0.969,-0.025,-0.061,0.122,0.244,641.144
133402,147574,12122,-0.026,-0.968,-0.026,-0.061,0.122,0.244,641.151
133389,147545,38140,-0.023,-0.967,-0.031,0.061,0,0.244,641.154
133389,147600,12142,-0.023,-0.971,-0.025,0.061,0,0.244,641.161
133407,147545,38140,-0.023,-0.973,-0.023,0.061,0.305,0.244,641.164
133407,147563,12128,-0.026,-0.973,-0.019,0.061,0.305,0.244,641.17
133385,147545,38140,-0.024,-0.974,-0.021,0,0.427,0.244,641.174
133385,147582,12139,-0.027,-0.971,-0.02,0,0.427,0.244,641.18
133402,147545,38140,-0.027,-0.97,-0.021,0.061,0.427,0.305,641.184
133402,147580,12130,-0.031,-0.968,-0.02,0.061,0.427,0.305,641.19
133400,147545,38140,-0.027,-0.968,-0.022,0.488,0.488,0.244,641.194
133400,147573,12121,-0.028,-0.966,-0.02,0.488,0.488,0.244,641.2
133407,147545,38140,-0.027,-0.963,-0.02,0.732,0.305,0,641.204
133407,147573,12127,-0.025,-0.965,-0.022,0.732,0.305,0,641.21
133388,147545,38140,-0.022,-0.962,-0.021,0.366,0.305,0,641.214
133388,147584,12145,-0.025,-0.96,-0.025,0.366,0.305,0,641.22
133403,147545,38140,-0.024,-0.963,-0.027,0.061,0.549,0.244,641.224
133403,147592,12123,-0.025,-0.967,-0.026,0.061,0.549,0.244,641.23
133407,147545,38140,-0.022,-0.964,-0.025,0,0.61,0.122,641.234
133407,147606,12127,-0.026,-0.966,-0.024,0,0.61,0.122,641.24
133385,147545,38140,-0.021,-0.968,-0.018,0.122,0.61,0.061,641.243
133385,147604,12131,-0.024,-0.969,-0.023,0.122,0.61,0.061,641.25
133415,147545,38140,-0.023,-0.97,-0.021,0.183,0.732,0.244,641.253
133415,147600,12132,-0.025,-0.971,-0.015,0.183,0.732,0.244,641.26
133399,147545,38140,-0.025,-0.97,-0.016,0.305,0.732,0.366,641.263
133399,147589,12145,-0.028,-0.968,-0.016,0.305,0.732,0.366,641.269
133410,147545,38140,-0.028,-0.966,-0.014,0.305,0.793,0.427,641.273
133410,147599,12126,-0.028,-0.967,-0.014,0.305,0.793,0.427,641.279
133418,147545,38140,-0.03,-0.965,-0.017,0.122,0.793,0.549,641.283
133418,147612,12146,-0.031,-0.963,-0.02,0.122,0.793,0.549,641.289
133428,147545,38140,-0.032,-0.966,-0.017,-0.244,0.61,0.427,641.293
133428,147573,12130,-0.032,-0.966,-0.017,-0.244,0.61,0.427,641.299
133403,147545,38140,-0.031,-0.968,-0.024,-0.366,0.549,0.305,641.303
133403,147603,12124,-0.029,-0.963,-0.02,-0.366,0.549,0.305,641.309
133421,147545,38140,-0.032,-0.967,-0.02,-0.427,0.488,0.305,641.313
133421,147589,12136,-0.034,-0.968,-0.021,-0.427,0.488,0.305,641.319
133404,147545,38140,-0.029,-0.966,-0.022,-0.244,0.122,0.183,641.323
133404,147605,12124,-0.026,-0.967,-0.022,-0.244,0.122,0.183,641.329
133403,147545,38140,-0.026,-0.97,-0.022,-0.427,-0.183,0.061,641.333
133403,147589,12127,-0.023,-0.971,-0.017,-0.427,-0.183,0.061,641.339
133424,147545,38140,-0.022,-0.969,-0.019,-0.549,-0.122,0.122,641.342
133424,147584,12115,-0.023,-0.966,-0.022,-0.549,-0.122,0.122,641.349
133379,147545,38140,-0.023,-0.969,-0.019,-0.427,0.122,0.244,641.352
133379,147593,12137,-0.023,-0.968,-0.015,-0.427,0.122,0.244,641.359
133396,147545,38140,-0.021,-0.968,-0.018,-0.244,0.244,0.183,641.362
133396,147589,12116,-0.023,-0.966,-0.019,-0.244,0.244,0.183,641.368
133376,147545,38140,-0.023,-0.964,-0.016,-0.183,0.122,0.244,641.372
133376,147574,12120,-0.023,-0.966,-0.019,-0.183,0.122,0.244,641.378
133388,147545,38140,-0.023,-0.966,-0.019,-0.183,0.122,0.244,641.382
133388,147598,12121,-0.021,-0.967,-0.019,-0.305,0.061,0.488,641.388
133397,147545,38140,-0.021,-0.967,-0.019,-0.305,0.061,0.488,641.392
