133158,146521,38140,-0.012,-0.957,-0.097,-0.671,0,-0.244,326.677
133158,146498,12012,-0.013,-0.96,-0.097,-0.671,0,-0.244,326.683
133125,146521,38140,-0.016,-0.959,-0.099,-1.22,0.549,0.061,326.687
133125,146487,12015,-0.016,-0.962,-0.103,-1.22,0.549,0.061,326.693
133123,146521,38140,-0.011,-0.963,-0.104,-1.768,0.427,0,326.697
133123,146459,12008,-0.007,-0.966,-0.102,-1.768,0.427,0,326.703
133122,146521,38140,-0,-0.97,-0.101,-1.524,0,0.122,326.707
133122,146483,12017,-0.001,-0.969,-0.102,-1.524,0,0.122,326.713
133108,146521,38140,0,-0.967,-0.1,-0.244,0,0.488,326.717
133108,146483,12004,0.002,-0.962,-0.096,-0.244,0,0.488,326.723
133119,146521,38140,0.001,-0.956,-0.094,0.793,0,0.732,326.727
133119,146490,12007,0.001,-0.955,-0.092,0.793,0,0.732,326.733
133119,146521,38140,0.003,-0.95,-0.088,0.793,-0.244,0.793,326.736
133119,146440,12011,0.008,-0.952,-0.087,0.793,-0.244,0.793,326.743
133125,146521,38140,0.008,-0.952,-0.087,0.793,-0.244,0.793,326.746
133125,146468,12015,0.007,-0.959,-0.088,-0.244,-0.366,0.793,326.753
133162,146521,38140,0.007,-0.959,-0.088,-0.244,-0.366,0.793,326.756
133162,146471,12010,0.003,-0.964,-0.089,-1.402,-0.183,0.305,326.762
133139,146521,38140,0.003,-0.964,-0.089,-1.402,-0.183,0.305,326.766
133139,146478,12038,-0.004,-0.966,-0.095,-2.256,0.366,0,326.772
133138,146521,38140,-0.004,-0.966,-0.095,-2.256,0.366,0,326.776
133138,146477,12017,-0.007,-0.967,-0.098,-2.073,0.427,0.244,326.782
133144,146521,38140,-0.007,-0.967,-0.098,-2.073,0.427,0.244,326.786
133144,146487,12014,-0.003,-0.959,-0.102,-1.585,-0.366,-0.427,326.792
133113,146521,38140,-0.003,-0.959,-0.102,-1.585,-0.366,-0.427,326.796
133113,146464,12003,-0.012,-0.968,-0.105,-1.829,0.061,-0.915,326.802
133104,146521,38140,-0.012,-0.968,-0.105,-1.829,0.061,-0.915,326.806
133104,146452,12027,-0.011,-0.965,-0.105,-1.037,0.915,-0.061,326.812
133090,146521,38140,-0.011,-0.965,-0.105,-1.037,0.915,-0.061,326.816
133090,146451,12009,-0.011,-0.964,-0.105,-0.366,0.61,0.366,326.822
133060,146265,38140,-0.011,-0.964,-0.105,-0.366,0.61,0.366,326.826
133060,146424,12007,-0.01,-0.967,-0.105,0.305,0.244,0.488,326.832
133046,146265,38140,-0.01,-0.967,-0.105,0.305,0.244,0.488,326.835
133046,146406,12004,-0.007,-0.965,-0.105,0.854,0.427,0.793,326.842
133021,146265,38140,-0.007,-0.965,-0.105,0.854,0.427,0.793,326.845
133021,146398,11997,-0.005,-0.953,-0.095,1.768,0.305,1.037,326.852
133046,146265,38140,-0.005,-0.953,-0.095,1.768,0.305,1.037,326.855
133046,146390,11995,0.001,-0.959,-0.088,2.134,-0.183,1.159,326.861
133061,146521,38140,0.001,-0.959,-0.088,2.134,-0.183,1.159,326.865
133061,146442,11996,0.001,-0.961,-0.098,1.037,0.122,1.22,326.871
133073,146521,38140,0.001,-0.961,-0.098,1.037,0.122,1.22,326.875
133073,146451,11994,-0.001,-0.966,-0.095,-0.732,0.732,1.037,326.881
133106,146265,38140,-0.001,-0.966,-0.095,-0.732,0.732,1.037,326.885
133106,146428,12009,0.002,-0.965,-0.095,-1.402,0.305,0.366,326.891
133084,146521,38140,0.004,-0.965,-0.094,-1.402,0.305,0.366,326.895
133084,146475,12003,0.003,-0.966,-0.092,-1.28,0.122,-0.061,326.901
133092,146521,38140,-0.001,-0.965,-0.096,-1.28,0.122,-0.061,326.905
133092,146439,12008,-0.003,-0.963,-0.095,-0.61,0.488,0.244,326.911
133090,146521,38140,-0.003,-0.96,-0.092,-0.61,0.488,0.244,326.915
133090,146459,12007,-0.004,-0.957,-0.097,-0.671,0.061,-0.549,326.921
133070,146521,38140,-0.003,-0.954,-0.097,-0.671,0.061,-0.549,326.925
133070,146446,12002,-0.005,-0.956,-0.097,-0.732,0.366,-0.488,326.931
133067,146265,38140,-0.008,-0.959,-0.095,-0.732,0.366,-0.488,326.934
133067,146424,12015,-0.01,-0.962,-0.098,-0.671,0.854,0.122,326.941
133047,146265,38140,-0.009,-0.962,-0.103,-0.671,0.854,0.122,326.944
133047,146398,12013,-0.007,-0.961,-0.105,-1.098,0.915,0.061,326.951
133064,146265,38140,-0.007,-0.964,-0.103,-1.098,0.915,0.061,326.954
133064,146405,11992,-0.008,-0.965,-0.103,-0.732,0.732,0.366,326.96
133028,146265,38140,-0.005,-0.97,-0.105,-0.732,0.732,0.366,326.964
133028,146413,12010,-0.002,-0.966,-0.104,0.122,0.61,0.732,326.97
133057,146265,38140,0.001,-0.959,-0.102,0.122,0.61,0.732,326.974
133057,146396,11978,0.001,-0.959,-0.103,0.915,0.61,0.793,326.98
133037,146265,38140,-0,-0.954,-0.097,0.915,0.61,0.793,326.984
133037,146397,12011,0.001,-0.957,-0.092,0.854,0.671,1.037,326.99
133060,146265,38140,0,-0.961,-0.09,0.854,0.671,1.037,326.994
133060,146417,12005,-0.002,-0.961,-0.093,0.244,0.793,1.159,327
133058,146265,38140,-0.003,-0.962,-0.092,0.244,0.793,1.159,327.004
133058,146406,12014,0.001,-0.963,-0.09,-0.183,0.488,0.671,327.01
133057,146265,38140,0,-0.963,-0.091,-0.183,0.488,0.671,327.014
133057,146413,12010,-0.003,-0.959,-0.095,-0.061,0.061,0,327.02
133053,146265,38140,-0.005,-0.963,-0.091,-0.061,0.061,0,327.024
133053,146408,12001,-0.009,-0.963,-0.092,0.122,0.671,-0.061,327.03
133034,146265,38140,-0.011,-0.959,-0.094,0.122,0.671,-0.061,327.033
133034,146404,11989,-0.015,-0.963,-0.096,0.305,1.037,0.305,327.04
133026,146265,38140,-0.017,-0.964,-0.093,0.305,1.037,0.305,327.043
133026,146395,11997,-0.014,-0.96,-0.097,0.183,0.61,0.305,327.049
133007,146265,38140,-0.01,-0.961,-0.099,0.183,0.61,0.305,327.053
133007,146375,11986,-0.009,-0.967,-0.1,-0.549,0.488,0.061,327.059
133005,146265,38140,-0.009,-0.967,-0.096,-0.549,0.488,0.061,327.063
133005,146390,11982,-0.007,-0.97,-0.097,0,0.671,0,327.069
132974,146265,38140,-0.005,-0.965,-0.1,0,0.671,0,327.073
132974,146363,11989,-0.004,-0.961,-0.102,0.488,0.732,0.183,327.079
132968,146265,38140,-0.005,-0.959,-0.093,0.488,0.732,0.183,327.083
132968,146360,11982,-0.006,-0.959,-0.092,1.098,0.549,0.549,327.089
132973,146265,38140,-0.006,-0.956,-0.093,1.098,0.549,0.549,327.093
132973,146349,11992,-0.002,-0.951,-0.088,1.28,0,0.732,327.099
132966,146265,38140,0.002,-0.952,-0.093,1.28,0,0.732,327.103
132966,146352,11983,0.004,-0.948,-0.097,0.244,-0.549,0.244,327.109
132982,146265,38140,0.006,-0.953,-0.096,0.244,-0.549,0.244,327.113
132982,146370,11991,0.005,-0.962,-0.097,-1.098,-0.61,-0.366,327.119
132999,146265,38140,0.006,-0.969,-0.094,-1.098,-0.61,-0.366,327.122
132999,146386,11999,0.003,-0.973,-0.102,-2.012,0.061,-0.915,327.129
133004,146265,38140,-0.001,-0.968,-0.105,-2.012,0.061,-0.915,327.132
133004,146363,11995,-0.005,-0.967,-0.103,-2.134,0.488,-0.671,327.139
133004,146265,38140,-0.007,-0.966,-0.105,-2.134,0.488,-0.671,327.142
133004,146377,12004,-0.005,-0.964,-0.101,-1.037,0.183,-0.183,327.148
133014,146265,38140,-0.004,-0.958,-0.097,-1.037,0.183,-0.183,327.152
133014,146361,11989,-0.004,-0.958,-0.096,-0.305,-0.488,-0.488,327.158
132991,146265,38140,-0,-0.956,-0.092,-0.305,-0.488,-0.488,327.162
132991,146379,11998,0.001,-0.957,-0.094,-0.366,-0.305,-0.427,327.168
132989,146265,38140,-0.004,-0.961,-0.095,-0.366,-0.305,-0.427,327.172
132989,146370,11969,-0.004,-0.966,-0.095,-1.22,0.732,0,327.178
132975,146265,38140,-0.005,-0.975,-0.093,-1.22,0.732,0,327.182
132975,146344,11993,-0.003,-0.973,-0.098,-1.159,1.463,-0.122,327.188
132958,146265,38140,-0.004,-0.97,-0.103,-1.159,1.463,-0.122,327.192
132958,146362,11983,-0.004,-0.968,-0.099,-0.122,1.402,0.122,327.198
132941,146265,38140,-0.001,-0.96,-0.095,-0.122,1.402,0.122,327.202
132941,146344,11990,0.001,-0.956,-0.096,1.89,0.671,0.488,327.208
132939,146265,38140,0.002,-0.951,-0.094,1.89,0.671,0.488,327.212
132939,146328,11978,0.002,-0.947,-0.093,1.829,0.61,0.61,327.218
132970,146265,38140,0.003,-0.947,-0.097,1.829,0.61,0.61,327.222
132970,146357,12004,0.002,-0.95,-0.096,1.037,0.915,0.732,327.228
132974,146265,38140,0.002,-0.952,-0.102,1.037,0.915,0.732,327.231
132974,146367,11982,0,-0.956,-0.091,0.183,0.732,0.427,327.238
132976,146265,38140,-0.001,-0.961,-0.089,0.183,0.732,0.427,327.241
132976,146385,11983,-0.003,-0.963,-0.088,-0.61,0.244,0.488,327.247
133006,146265,38140,-0.005,-0.964,-0.09,-0.61,0.244,0.488,327.251
133006,146388,11987,-0.007,-0.964,-0.101,-0.854,-0.122,0.488,327.257
133015,146265,38140,-0.003,-0.966,-0.096,-0.854,-0.122,0.488,327.261
133015,146397,11986,0.002,-0.966,-0.093,-0.122,0,0.366,327.267
133006,146265,38140,0.003,-0.96,-0.104,-0.122,0,0.366,327.271
133006,146377,12011,0.001,-0.963,-0.102,0.244,0.122,0.488,327.277
133015,146265,38140,0.001,-0.969,-0.096,0.244,0.122,0.488,327.281
133015,146387,11996,-0.004,-0.969,-0.108,0.366,0.549,0.549,327.287
132976,146265,38140,-0.005,-0.967,-0.107,0.366,0.549,0.549,327.291
132976,146365,11998,-0.009,-0.963,-0.105,0.549,0.732,0.793,327.297
132979,146265,38140,-0.008,-0.961,-0.098,0.549,0.732,0.793,327.301
132979,146397,11982,-0.006,-0.962,-0.088,1.585,0.122,1.463,327.307
132972,146265,38140,-0.001,-0.958,-0.094,1.585,0.122,1.463,327.311
132972,146369,11993,0.004,-0.957,-0.094,0.549,0.122,1.28,327.317
132975,146265,38140,0.003,-0.965,-0.1,0.549,0.122,1.28,327.321
132975,146362,11984,-0.004,-0.969,-0.101,-1.037,1.768,0.549,327.327
132975,146265,38140,-0.007,-0.976,-0.097,-1.037,1.768,0.549,327.33
132975,146370,11987,-0.009,-0.97,-0.101,-0.122,1.829,0.305,327.337
132952,146265,38140,-0.009,-0.97,-0.101,-0.122,1.829,0.305,327.34
132952,146355,11981,-0.009,-0.948,-0.09,0.854,0.183,0.488,327.346
132974,146265,38140,-0.009,-0.948,-0.09,0.854,0.183,0.488,327.35
132974,146397,11990,-0.006,-0.938,-0.086,0.793,-0.671,0.427,327.356
132988,146265,38140,-0.006,-0.938,-0.086,0.793,-0.671,0.427,327.36
132988,146358,11985,-0.009,-0.955,-0.09,-1.22,0.061,0.244,327.366
132973,146265,38140,-0.009,-0.955,-0.09,-1.22,0.061,0.244,327.37
132973,146363,11988,-0.009,-0.966,-0.102,-2.744,0.671,-0.122,327.376
132967,146265,38140,-0.009,-0.966,-0.102,-2.744,0.671,-0.122,327.38
132967,146387,11983,-0.005,-0.97,-0.099,-1.951,0.244,-0.061,327.386
132988,146265,38140,-0.005,-0.97,-0.099,-1.951,0.244,-0.061,327.39
132988,146383,11988,-0.007,-0.968,-0.1,-0.427,-0.061,0.549,327.396
132984,146265,38140,-0.007,-0.968,-0.1,-0.427,-0.061,0.549,327.4
132984,146353,11973,0.001,-0.962,-0.101,0.549,0.061,0.671,327.406
132961,146265,38140,0.001,-0.962,-0.101,0.549,0.061,0.671,327.41
132961,146386,11987,0.004,-0.966,-0.1,0.305,0.244,0.61,327.416
132969,146265,38140,0.004,-0.966,-0.1,0.305,0.244,0.61,327.42
132969,146374,11991,0.003,-0.965,-0.093,0.549,0,0.854,327.426
132991,146265,38140,0.003,-0.965,-0.093,0.549,0,0.854,327.429
132991,146358,11975,0.003,-0.961,-0.095,1.037,0,1.037,327.436
132959,146265,38140,0.003,-0.961,-0.095,1.037,0,1.037,327.439
132959,146358,11989,-0.002,-0.96,-0.093,1.524,0.305,0.915,327.445
132957,146265,38140,-0.002,-0.96,-0.093,1.524,0.305,0.915,327.449
132957,146348,11976,-0.004,-0.962,-0.082,1.646,0.183,0.854,327.455
132927,146265,38140,-0.004,-0.962,-0.082,1.646,0.183,0.854,327.459
132927,146355,11986,-0.006,-0.947,-0.089,0.488,-0.305,0.61,327.465
132946,146265,38140,-0.006,-0.947,-0.089,0.488,-0.305,0.61,327.469
132946,146361,11977,-0.007,-0.964,-0.09,-0.793,-0.366,0.122,327.475
132958,146265,38140,-0.007,-0.964,-0.09,-0.793,-0.366,0.122,327.479
132958,146364,11993,-0.011,-0.97,-0.094,-0.793,-0.366,0.122,327.485
132980,146265,38140,-0.012,-0.971,-0.1,-0.976,0.427,-0.061,327.489
132980,146369,11983,-0.014,-0.97,-0.105,-0.976,0.427,-0.061,327.495
132982,146265,38140,-0.012,-0.968,-0.108,-1.098,0.61,0,327.499
132982,146385,11984,-0.012,-0.966,-0.108,-1.098,0.61,0,327.505
132945,146265,38140,-0.008,-0.966,-0.107,-0.305,0.061,0.183,327.509
132945,146330,11984,-0.01,-0.964,-0.105,-0.305,0.061,0.183,327.515
132947,146265,38140,-0.009,-0.963,-0.106,0.244,-0.061,0.305,327.519
132947,146317,11992,-0.006,-0.961,-0.107,0.244,-0.061,0.305,327.525
132867,146265,38140,-0.005,-0.961,-0.104,0.732,0.244,0.488,327.528
132867,146303,11984,-0.003,-0.958,-0.101,0.732,0.244,0.488,327.535
132882,146265,38140,0.001,-0.957,-0.099,1.341,0.061,0.854,327.538
132882,146294,11988,0.004,-0.958,-0.1,1.341,0.061,0.854,327.544
132891,146265,38140,0.006,-0.958,-0.096,1.646,-0.244,0.854,327.548
132891,146296,11974,0.011,-0.954,-0.092,1.646,-0.244,0.854,327.554
132874,146265,38140,0.015,-0.952,-0.09,1.829,-0.122,0.671,327.558
132874,146291,11975,0.012,-0.954,-0.086,1.829,-0.122,0.671,327.564
132919,146265,38140,0.013,-0.957,-0.081,1.098,0.122,0.488,327.568
132919,146332,11967,0.009,-0.955,-0.083,1.098,0.122,0.488,327.574
132921,146265,38140,0.004,-0.961,-0.085,0.305,0.61,0.671,327.578
132921,146369,11985,0.001,-0.964,-0.089,0.305,0.61,0.671,327.584
132935,146265,38140,0.001,-0.964,-0.089,-0.061,0.732,0.488,327.588
132935,146337,11998,0.003,-0.96,-0.089,-0.061,0.732,0.488,327.594
132979,146265,38140,-0.001,-0.959,-0.093,-0.244,0.427,0.671,327.598
132979,146403,11994,-0.004,-0.961,-0.096,-0.244,0.427,0.671,327.604
132980,146265,38140,-0.008,-0.964,-0.096,0.244,0.61,1.098,327.608
132980,146370,11994,-0.008,-0.964,-0.104,0.244,0.61,1.098,327.614
132978,146265,38140,-0.012,-0.967,-0.107,0.122,1.037,0.854,327.617
132978,146396,11992,-0.013,-0.968,-0.104,0.122,1.037,0.854,327.624
132981,146265,38140,-0.011,-0.965,-0.105,0.732,1.159,1.037,327.627
132981,146392,11988,-0.016,-0.963,-0.102,0.732,1.159,1.037,327.634
132942,146265,38140,-0.016,-0.963,-0.104,1.037,0.915,1.28,327.637
132942,146366,11989,-0.013,-0.96,-0.102,1.037,0.915,1.28,327.643
132937,146265,38140,-0.011,-0.962,-0.094,1.098,0.976,0.976,327.647
132937,146346,11987,-0.012,-0.964,-0.094,1.098,0.976,0.976,327.653
132917,146265,38140,-0.012,-0.963,-0.094,0.854,0.915,0.549,327.657
132917,146348,11970,-0.009,-0.963,-0.093,0.854,0.915,0.549,327.663
132941,146265,38140,-0.009,-0.964,-0.091,0.549,1.037,0.549,327.667
132941,146356,11985,-0.008,-0.962,-0.09,0.549,1.037,0.549,327.673
132920,146265,38140,-0.011,-0.962,-0.086,0.427,1.341,0.366,327.677
132920,146342,11991,-0.013,-0.961,-0.085,0.427,1.341,0.366,327.683
132940,146265,38140,-0.01,-0.961,-0.091,-0.244,1.037,-0.366,327.687
132940,146361,11976,-0.006,-0.957,-0.094,-0.244,1.037,-0.366,327.693
132950,146265,38140,-0.008,-0.959,-0.089,-1.22,0.549,-1.28,327.697
132950,146353,11998,-0.007,-0.963,-0.089,-1.22,0.549,-1.28,327.703
132941,146265,38140,-0.006,-0.964,-0.095,-1.159,0.915,-0.915,327.707
132941,146372,11958,-0.011,-0.967,-0.098,-1.159,0.915,-0.915,327.713
132945,146265,38140,-0.009,-0.964,-0.098,-0.732,1.098,-0.793,327.717
132945,146362,11988,-0.008,-0.962,-0.097,-0.732,1.098,-0.793,327.723
132955,146265,38140,-0.007,-0.958,-0.092,-0.671,0.732,-0.915,327.726
132955,146348,11977,-0.008,-0.961,-0.09,-0.671,0.732,-0.915,327.733
132926,146265,38140,-0.006,-0.962,-0.088,-0.305,0.427,-0.183,327.736
132926,146367,11975,-0.008,-0.961,-0.095,-0.305,0.427,-0.183,327.742
132927,146265,38140,-0.006,-0.963,-0.095,-0.244,0.854,0,327.746
132927,146314,11982,-0.008,-0.962,-0.094,-0.244,0.854,0,327.752
132914,146265,38140,-0.009,-0.96,-0.096,0.244,1.159,0.061,327.756
132914,146322,11967,-0.012,-0.961,-0.094,0.244,1.159,0.061,327.762
132906,146265,38140,-0.011,-0.962,-0.094,0.915,0.854,0.366,327.766
132906,146356,11978,-0.009,-0.962,-0.092,0.915,0.854,0.366,327.772
132927,146265,38140,-0.003,-0.96,-0.093,1.341,0.488,0.61,327.776
132927,146350,11985,0.002,-0.958,-0.091,1.341,0.488,0.61,327.782
132929,146265,38140,0.003,-0.956,-0.093,1.28,0.427,0.488,327.786
132929,146326,11971,0.005,-0.959,-0.09,1.28,0.427,0.488,327.792
132918,146265,38140,0.003,-0.962,-0.091,1.28,0.793,0.488,327.796
132918,146354,11994,0.006,-0.962,-0.089,1.28,0.793,0.488,327.802
132923,146265,38140,0.01,-0.959,-0.085,1.28,0.732,0.244,327.806
132923,146330,11969,0.01,-0.956,-0.086,1.28,0.732,0.244,327.812
132923,146265,38140,0.01,-0.955,-0.09,0.427,0.366,-0.244,327.815
132923,146352,11997,0.006,-0.959,-0.09,0.427,0.366,-0.244,327.822
132937,146265,38140,0.003,-0.961,-0.087,-0.244,0.61,0,327.825
132937,146331,11979,0.006,-0.963,-0.088,-0.244,0.61,0,327.832
132939,146265,38140,0.007,-0.966,-0.092,-0.793,1.22,-0.122,327.835
132939,146339,11961,0.005,-0.966,-0.095,-0.793,1.22,-0.122,327.841
132920,146265,38140,0.002,-0.965,-0.094,-1.402,1.098,-0.549,327.845
132920,146319,11989,0.001,-0.965,-0.094,-1.402,1.098,-0.549,327.851
132895,146265,38140,0.003,-0.965,-0.095,-0.61,0.976,-0.244,327.855
132895,146322,11980,0.001,-0.963,-0.099,-0.61,0.976,-0.244,327.861
132876,146265,38140,0.001,-0.962,-0.1,-0.122,1.28,0.061,327.865
132876,146289,11963,0.002,-0.961,-0.095,-0.122,1.28,0.061,327.871
132871,146265,38140,0.001,-0.959,-0.094,0.122,1.159,0.122,327.875
132871,146310,11959,0.002,-0.96,-0.097,0.122,1.159,0.122,327.881
132885,146265,38140,0.003,-0.963,-0.094,0.427,0.732,0.427,327.885
132885,146336,11967,0.001,-0.961,-0.088,0.427,0.732,0.427,327.891
132902,146265,38140,0.003,-0.96,-0.085,0.854,0.854,0.793,327.895
132902,146322,11973,0.001,-0.958,-0.089,0.854,0.854,0.793,327.901
132882,146265,38140,0.004,-0.958,-0.088,1.098,0.915,0.915,327.905
132882,146310,11985,0.005,-0.957,-0.083,1.098,0.915,0.915,327.911
132880,146265,38140,0.005,-0.957,-0.085,1.341,0.671,0.976,327.915
132880,146324,11966,0,-0.957,-0.086,1.341,0.671,0.976,327.921
132879,146265,38140,0,-0.957,-0.086,1.341,0.671,0.976,327.924
132879,146306,11974,0,-0.96,-0.088,0.915,0.549,0.976,327.931
132889,146265,38140,0,-0.96,-0.088,0.915,0.549,0.976,327.934
132889,146315,11957,-0.007,-0.963,-0.087,0.183,0.854,1.037,327.94
132912,146265,38140,-0.007,-0.963,-0.087,0.183,0.854,1.037,327.944
132912,146343,11975,-0.004,-0.959,-0.088,-0.61,0.305,0.671,327.95
132927,146265,38140,-0.004,-0.959,-0.088,-0.61,0.305,0.671,327.954
132927,146327,11966,-0.01,-0.972,-0.09,-2.012,-0.488,0.366,327.96
132912,146265,38140,-0.01,-0.972,-0.09,-2.012,-0.488,0.366,327.964
132912,146357,11975,-0.007,-0.971,-0.099,-2.256,-0.183,0.366,327.97
132904,146265,38140,-0.007,-0.971,-0.099,-2.256,-0.183,0.366,327.974
132904,146335,11964,-0.002,-0.964,-0.104,-1.524,0.366,0.122,327.98
132885,146265,38140,-0.002,-0.964,-0.104,-1.524,0.366,0.122,327.984
132885,146303,11981,-0.003,-0.959,-0.103,-0.244,0.427,0.122,327.99
132912,146265,38140,-0.003,-0.959,-0.103,-0.244,0.427,0.122,327.994
132912,146328,11954,-0.002,-0.957,-0.103,0.122,0.427,0.366,328
132898,146265,38140,-0.002,-0.957,-0.103,0.122,0.427,0.366,328.004
132898,146331,11969,-0.002,-0.962,-0.104,-0.549,0.854,0.488,328.01
132913,146265,38140,-0.002,-0.962,-0.104,-0.549,0.854,0.488,328.014
132913,146343,11971,-0.002,-0.961,-0.107,-0.244,0.976,0.793,328.02
132883,146265,38140,-0.002,-0.961,-0.107,-0.244,0.976,0.793,328.023
132883,146328,11973,-0.009,-0.964,-0.096,0.854,0.915,1.22,328.03
132907,146265,38140,-0.009,-0.964,-0.096,0.854,0.915,1.22,328.033
132907,146352,11985,-0.008,-0.96,-0.09,2.134,0.854,1.402,328.039
132930,146265,38140,-0.008,-0.96,-0.09,2.134,0.854,1.402,328.043
132930,146340,11966,-0.006,-0.958,-0.086,1.829,0.427,1.22,328.049
132930,146265,38140,-0.006,-0.958,-0.086,1.829,0.427,1.22,328.053
132930,146371,11986,-0.015,-0.966,-0.086,1.037,0.183,1.037,328.059
132933,146265,38140,-0.015,-0.966,-0.086,1.037,0.183,1.037,328.063
132933,146397,11981,-0.015,-0.966,-0.085,0.61,0.549,1.037,328.069
132939,146265,38140,-0.014,-0.961,-0.088,0.61,0.549,1.037,328.073
132939,146371,11982,-0.014,-0.955,-0.087,0.305,0.427,0.793,328.079
132944,146265,38140,-0.016,-0.957,-0.084,0.305,0.427,0.793,328.083
132944,146357,11994,-0.015,-0.958,-0.086,-0.122,-0.061,0.61,328.089
132919,146265,38140,-0.015,-0.961,-0.089,-0.122,-0.061,0.61,328.093
132919,146374,11968,-0.012,-0.971,-0.091,-0.854,0.183,0.427,328.099
132928,146265,38140,-0.013,-0.972,-0.099,-0.854,0.183,0.427,328.103
132928,146375,11962,-0.011,-0.974,-0.101,-1.585,0.61,-0.122,328.109
132897,146265,38140,-0.009,-0.977,-0.093,-1.585,0.61,-0.122,328.112
132897,146358,11972,-0.004,-0.969,-0.098,-0.915,0.244,-0.061,328.119
132913,146265,38140,-0.007,-0.961,-0.098,-0.915,0.244,-0.061,328.122
132913,146353,11972,-0.006,-0.964,-0.095,-0.549,0.305,0.305,328.129
132911,146265,38140,-0.007,-0.967,-0.096,-0.549,0.305,0.305,328.132
132911,146331,11991,-0.002,-0.969,-0.095,0.122,0.549,0,328.138
132931,146265,38140,-0.002,-0.967,-0.087,0.122,0.549,0,328.142
132931,146376,11972,0.002,-0.96,-0.09,0.427,0.61,-0.305,328.148
132922,146265,38140,0.003,-0.955,-0.09,0.427,0.61,-0.305,328.152
132922,146370,11972,0.003,-0.955,-0.084,0.549,0.366,0.183,328.158
132959,146265,38140,0.003,-0.957,-0.082,0.549,0.366,0.183,328.162
132959,146388,11978,0.004,-0.96,-0.081,0.427,0.488,0.305,328.168
132926,146265,38140,0.003,-0.955,-0.089,0.427,0.488,0.305,328.172
132926,146391,11984,-0.002,-0.954,-0.093,-0.488,0.793,-0.183,328.178
132936,146265,38140,-0.002,-0.956,-0.089,-0.488,0.793,-0.183,328.182
132936,146399,11998,-0.003,-0.958,-0.087,-0.61,0.427,-0.122,328.188
132977,146265,38140,0.001,-0.957,-0.09,-0.61,0.427,-0.122,328.192
132977,146391,11984,-0.001,-0.962,-0.094,-1.28,0.061,-0.305,328.198
132977,146265,38140,-0.002,-0.963,-0.095,-1.28,0.061,-0.305,328.202
132977,146422,11992,-0.005,-0.966,-0.095,-1.341,0.61,0,328.208
132984,146265,38140,-0.005,-0.969,-0.097,-1.341,0.61,0,328.212
132984,146404,12003,-0.004,-0.968,-0.1,-0.854,1.098,0.122,328.218
132986,146265,38140,-0.005,-0.965,-0.099,-0.854,1.098,0.122,328.221
132986,146412,12001,-0.006,-0.965,-0.096,-0.305,0.671,0.061,328.228
132978,146265,38140,-0.007,-0.962,-0.091,-0.305,0.671,0.061,328.231
132978,146381,11977,-0.004,-0.961,-0.091,0,0.427,0.366,328.237
132949,146265,38140,-0.002,-0.957,-0.093,0,0.427,0.366,328.241
132949,146418,11994,-0.001,-0.955,-0.092,-0.488,0.549,0.366,328.247
132979,146265,38140,0.002,-0.956,-0.089,-0.488,0.549,0.366,328.251
132979,146399,12004,0.002,-0.958,-0.089,-0.915,0.671,0.244,328.257
133033,146521,38140,0,-0.961,-0.088,-0.915,0.671,0.244,328.261
133033,146445,11998,0.002,-0.966,-0.087,-1.098,0.61,0.122,328.267
133024,146521,38140,0.002,-0.964,-0.094,-1.098,0.61,0.122,328.271
133024,146471,12007,0.003,-0.962,-0.091,-0.61,0.366,0.427,328.277
133052,146521,38140,-0,-0.959,-0.087,-0.61,0.366,0.427,328.281
133052,146464,11998,0.001,-0.956,-0.09,0.183,0.244,0.854,328.287
133065,146521,38140,0.002,-0.957,-0.091,0.183,0.244,0.854,328.291
133065,146502,11998,0,-0.96,-0.087,0.671,0.122,0.915,328.297
133057,146521,38140,0.004,-0.958,-0.087,0.671,0.122,0.915,328.301
133057,146487,12002,0.006,-0.954,-0.089,0.244,-0.427,0.671,328.307
133045,146521,38140,0.005,-0.958,-0.087,0.244,-0.427,0.671,328.31
133045,146471,12008,0,-0.961,-0.086,-0.915,-0.305,0.671,328.317
133060,146521,38140,0,-0.964,-0.09,-0.915,-0.305,0.671,328.32
133060,146447,11998,-0.002,-0.966,-0.095,-1.159,0.183,0.793,328.327
133034,146521,38140,-0.003,-0.968,-0.097,-1.159,0.183,0.793,328.33
133034,146452,12006,-0.003,-0.971,-0.092,-0.915,0.244,0.488,328.336
133006,146265,38140,-0.004,-0.967,-0.089,-0.915,0.244,0.488,328.34
133006,146428,12009,-0.004,-0.965,-0.089,-0.61,-0.061,0.549,328.346
133008,146265,38140,-0.005,-0.964,-0.092,-0.61,-0.061,0.549,328.35
133008,146416,11989,-0,-0.964,-0.094,-0.549,-0.305,0.671,328.356
132992,146265,38140,-0.003,-0.962,-0.092,-0.549,-0.305,0.671,328.36
132992,146431,12002,-0.004,-0.96,-0.095,-0.488,-0.122,0.488,328.366
132976,146265,38140,-0.003,-0.958,-0.096,-0.488,-0.122,0.488,328.37
132976,146405,12001,-0.004,-0.958,-0.097,-0.305,0.061,0.671,328.376
132994,146521,38140,-0.003,-0.959,-0.095,-0.305,0.061,0.671,328.38
132994,146451,12000,-0.004,-0.955,-0.099,-0.183,-0.061,1.037,328.386
133005,146521,38140,-0.005,-0.959,-0.098,-0.183,-0.061,1.037,328.39
133005,146437,11987,-0.004,-0.962,-0.097,-0.122,0,0.976,328.396
133013,146265,38140,-0.004,-0.964,-0.095,-0.122,0,0.976,328.4
133013,146410,12019,-0.008,-0.965,-0.094,-0.183,0.183,0.915,328.406
133018,146521,38140,-0.008,-0.969,-0.092,-0.183,0.183,0.915,328.409
133018,146461,11995,-0.006,-0.968,-0.098,-0.122,0.366,0.976,328.416
133031,146521,38140,-0.006,-0.965,-0.094,-0.122,0.366,0.976,328.419
133031,146441,11987,-0.009,-0.968,-0.083,0.244,0.122,0.915,328.426
133043,146521,38140,-0.005,-0.965,-0.089,0.244,0.122,0.915,328.429
133043,146435,11996,-0.004,-0.962,-0.094,0.122,-0.427,0.427,328.435
133068,146521,38140,-0.006,-0.964,-0.079,0.122,-0.427,0.427,328.439
133068,146479,11998,-0.01,-0.968,-0.077,0,-0.366,-0.061,328.445
133053,146521,38140,-0.015,-0.966,-0.082,0,-0.366,-0.061,328.449
133053,146474,11999,-0.017,-0.963,-0.077,-0.793,0.732,-0.122,328.455
133073,146521,38140,-0.015,-0.961,-0.089,-0.793,0.732,-0.122,328.459
133073,146485,11990,-0.009,-0.956,-0.103,-1.341,0.61,-0.183,328.465
133050,146521,38140,0,-0.962,-0.102,-1.341,0.61,-0.183,328.469
133050,146467,12014,0.005,-0.964,-0.098,-1.402,-0.854,-0.61,328.475
133052,146521,38140,0.007,-0.964,-0.099,-1.402,-0.854,-0.61,328.479
133052,146464,12005,0.003,-0.96,-0.106,-1.646,-0.61,-0.244,328.485
133054,146521,38140,-0.004,-0.963,-0.106,-1.646,-0.61,-0.244,328.489
133054,146457,12011,-0.006,-0.963,-0.108,-1.098,0.854,0.488,328.495
133043,146521,38140,-0.011,-0.957,-0.105,-1.098,0.854,0.488,328.499
133043,146455,12018,-0.012,-0.955,-0.105,-0.61,0.915,0.305,328.505
133053,146521,38140,-0.012,-0.955,-0.105,-0.61,0.915,0.305,328.508
133053,146482,11994,-0.01,-0.958,-0.096,-0.122,-0.122,0.427,328.515
133057,146521,38140,-0.01,-0.958,-0.096,-0.122,-0.122,0.427,328.518
133057,146461,11993,-0.002,-0.96,-0.094,-0.427,-0.732,0.61,328.525
133066,146521,38140,-0.002,-0.96,-0.094,-0.427,-0.732,0.61,328.528
133066,146465,11996,0.002,-0.966,-0.089,-0.488,-0.488,0.488,328.534
133064,146521,38140,0.002,-0.966,-0.089,-0.488,-0.488,0.488,328.538
133064,146498,12009,-0.001,-0.964,-0.087,-0.366,-0.244,0.122,328.544
133096,146521,38140,-0.001,-0.964,-0.087,-0.366,-0.244,0.122,328.548
133096,146471,12002,-0.005,-0.962,-0.093,-0.793,-0.122,-0.061,328.554
133099,146521,38140,-0.005,-0.962,-0.093,-0.793,-0.122,-0.061,328.558
133099,146492,12018,-0.006,-0.966,-0.096,-0.793,0,0.122,328.564
133095,146521,38140,-0.006,-0.966,-0.096,-0.793,0,0.122,328.568
133095,146505,12012,-0.007,-0.958,-0.092,-0.122,-0.305,0.122,328.574
133093,146521,38140,-0.007,-0.958,-0.092,-0.122,-0.305,0.122,328.578
133093,146480,12009,-0.006,-0.956,-0.091,0.061,-0.61,0.366,328.584
133111,146521,38140,-0.006,-0.956,-0.091,0.061,-0.61,0.366,328.588
133111,146498,12025,-0.003,-0.959,-0.096,-0.122,-0.366,0.549,328.594
133076,146521,38140,-0.003,-0.959,-0.096,-0.122,-0.366,0.549,328.598
133076,146461,12007,-0.003,-0.966,-0.093,-0.488,-0.122,0.488,328.604
133075,146521,38140,-0.003,-0.966,-0.093,-0.488,-0.122,0.488,328.607
133075,146465,12003,0.003,-0.966,-0.094,-0.488,0.061,0.488,328.614
133071,146521,38140,0.003,-0.966,-0.094,-0.488,0.061,0.488,328.617
133071,146501,12001,0.004,-0.966,-0.093,-0.122,0.061,0.732,328.624
133071,146521,38140,0.004,-0.966,-0.093,-0.122,0.061,0.732,328.627
133071,146482,12004,0.001,-0.966,-0.094,-0.061,0.061,0.61,328.633
133095,146521,38140,0.001,-0.966,-0.094,-0.061,0.061,0.61,328.637
133095,146483,12003,0.002,-0.958,-0.096,-0.366,0.122,0.427,328.643
133118,146521,38140,0.002,-0.958,-0.096,-0.366,0.122,0.427,328.647
133118,146487,12012,0,-0.959,-0.09,-0.366,0.122,0.427,328.653
133120,146521,38140,-0.003,-0.959,-0.089,-0.549,0.305,0.305,328.657
133120,146486,12016,-0.002,-0.96,-0.096,-0.549,0.305,0.305,328.663
133114,146521,38140,0,-0.959,-0.099,-0.915,0.244,0.305,328.667
133114,146497,12003,-0.002,-0.958,-0.103,-0.915,0.244,0.305,328.673
133103,146521,38140,-0,-0.962,-0.098,-1.28,0.061,0.122,328.677
133103,146483,12011,-0.001,-0.963,-0.1,-1.28,0.061,0.122,328.683
133111,146521,38140,0.003,-0.963,-0.098,-1.037,0.122,0,328.687
133111,146514,12009,-0.001,-0.963,-0.102,-1.037,0.122,0,328.693
133111,146521,38140,-0.001,-0.962,-0.101,-0.793,0.427,0.061,328.697
133111,146493,12008,-0.001,-0.962,-0.098,-0.793,0.427,0.061,328.703
133068,146521,38140,-0.007,-0.958,-0.097,-0.244,0.732,0.305,328.706
133068,146488,11999,-0.01,-0.962,-0.094,-0.244,0.732,0.305,328.713
133080,146521,38140,-0.01,-0.961,-0.091,0.061,0.732,0.549,328.716
133080,146477,12011,-0.011,-0.96,-0.092,0.061,0.732,0.549,328.723
133068,146521,38140,-0.011,-0.961,-0.09,0.122,0.671,0.732,328.726
133068,146458,11990,-0.011,-0.959,-0.092,0.122,0.671,0.732,328.732
133070,146521,38140,-0.012,-0.965,-0.094,0.183,0.732,0.915,328.736
133070,146457,12005,-0.01,-0.967,-0.093,0.183,0.732,0.915,328.742
133110,146521,38140,-0.012,-0.966,-0.095,0.244,0.732,0.854,328.746
133110,146534,12005,-0.01,-0.961,-0.095,0.244,0.732,0.854,328.752
133116,146521,38140,-0.014,-0.96,-0.093,0.671,0.671,0.854,328.756
133116,146504,12015,-0.015,-0.961,-0.094,0.671,0.671,0.854,328.762
133147,146521,38140,-0.011,-0.962,-0.089,0.732,0.549,0.793,328.766
133147,146529,12013,-0.012,-0.962,-0.09,0.732,0.549,0.793,328.772
133148,146521,38140,-0.009,-0.964,-0.093,0.183,0.305,0.671,328.776
133148,146527,12028,-0.005,-0.961,-0.093,0.183,0.305,0.671,328.782
133139,146521,38140,-0.002,-0.958,-0.092,-0.549,-0.244,0.488,328.786
133139,146540,12016,-0.004,-0.957,-0.093,-0.549,-0.244,0.488,328.792
133139,146521,38140,-0.002,-0.964,-0.09,-0.915,-0.549,0,328.796
133139,146483,12009,-0.002,-0.964,-0.092,-0.915,-0.549,0,328.802
133108,146521,38140,-0.002,-0.962,-0.091,-0.671,-0.061,0.061,328.805
133108,146531,12003,-0,-0.962,-0.095,-0.671,-0.061,0.061,328.812
133118,146521,38140,-0.001,-0.962,-0.094,-0.671,0.183,0.183,328.815
133118,146485,11982,0,-0.962,-0.089,-0.671,0.183,0.183,328.822
133096,146521,38140,0.001,-0.962,-0.091,-0.549,0,0.183,328.825
133096,146475,11999,-0.001,-0.961,-0.091,-0.549,0,0.183,328.831
133101,146521,38140,-0.001,-0.963,-0.093,-0.488,-0.122,0.244,328.835
133101,146481,11994,-0.001,-0.96,-0.087,-0.488,-0.122,0.244,328.841
133097,146521,38140,-0.001,-0.961,-0.095,-0.732,0,0.305,328.845
133097,146459,12006,-0,-0.96,-0.098,-0.732,0,0.305,328.851
133087,146521,38140,-0.003,-0.964,-0.097,-0.915,0.244,0.427,328.855
133087,146489,11997,-0.005,-0.965,-0.097,-0.915,0.244,0.427,328.861
133093,146521,38140,-0.007,-0.965,-0.098,-0.732,0.427,0.427,328.865
133093,146458,12024,-0.009,-0.963,-0.101,-0.732,0.427,0.427,328.871
133100,146521,38140,-0.008,-0.959,-0.1,-0.244,0.427,0.549,328.875
133100,146456,11997,-0.01,-0.96,-0.099,-0.244,0.427,0.549,328.881
133072,146521,38140,-0.01,-0.963,-0.098,0.244,0,0.488,328.885
133072,146489,12001,-0.004,-0.96,-0.094,0.244,0,0.488,328.891
133116,146521,38140,-0.003,-0.96,-0.097,-0.061,-0.244,-0.061,328.895
133116,146458,12000,-0.006,-0.963,-0.094,-0.061,-0.244,-0.061,328.901
133118,146521,38140,-0.006,-0.965,-0.098,-0.976,0.244,-0.366,328.904
133118,146474,11999,-0.011,-0.964,-0.097,-0.976,0.244,-0.366,328.911
133105,146521,38140,-0.009,-0.965,-0.099,-0.976,0.61,-0.061,328.914
133105,146505,12012,-0.01,-0.964,-0.101,-0.976,0.61,-0.061,328.921
133118,146521,38140,-0.008,-0.963,-0.1,-0.793,0.305,-0.061,328.924
133118,146498,11997,-0.005,-0.961,-0.1,-0.793,0.305,-0.061,328.93
133123,146521,38140,-0.002,-0.96,-0.098,-0.366,-0.061,-0.244,328.934
133123,146500,11995,0.002,-0.963,-0.096,-0.366,-0.061,-0.244,328.94
133114,146521,38140,-0.001,-0.961,-0.095,-0.244,0,-0.122,328.944
133114,146503,12010,0.002,-0.96,-0.093,-0.244,0,-0.122,328.95
133109,146521,38140,0.003,-0.963,-0.099,-0.427,0.305,0.183,328.954
133109,146510,12009,0.005,-0.961,-0.101,-0.427,0.305,0.183,328.96
133122,146521,38140,0.002,-0.963,-0.096,-0.366,0.671,0.366,328.964
133122,146484,12002,0,-0.963,-0.095,-0.366,0.671,0.366,328.97
133118,146521,38140,0.001,-0.962,-0.096,-0.183,0.61,0.488,328.974
133118,146498,11995,-0,-0.964,-0.093,-0.183,0.61,0.488,328.98
133104,146521,38140,0.002,-0.964,-0.092,0,0.427,0.488,328.984
133104,146490,11996,0.002,-0.962,-0.093,0,0.427,0.488,328.99
133086,146521,38140,-0.002,-0.959,-0.095,0.061,0.366,0.427,328.994
133086,146480,12016,-0.004,-0.96,-0.094,0.061,0.366,0.427,329
133093,146521,38140,-0.004,-0.959,-0.094,0.122,0.61,0.61,329.003
133093,146444,11996,-0.005,-0.958,-0.093,0.122,0.61,0.61,329.01
133098,146521,38140,-0.005,-0.961,-0.094,-0.061,0.549,0.549,329.013
133098,146464,11996,-0.007,-0.963,-0.094,-0.061,0.549,0.549,329.02
133095,146521,38140,-0.006,-0.96,-0.095,-0.061,0.366,0.427,329.023
133095,146486,12000,-0.005,-0.962,-0.094,-0.061,0.366,0.427,329.029
133094,146521,38140,-0.008,-0.963,-0.094,-0.183,0.244,0.305,329.033
133094,146462,11994,-0.005,-0.962,-0.096,-0.183,0.244,0.305,329.039
133113,146521,38140,-0.006,-0.962,-0.095,0.122,0.305,0.244,329.043
133113,146484,11995,-0.007,-0.96,-0.094,0.122,0.305,0.244,329.049
133098,146521,38140,-0.003,-0.961,-0.098,0.122,0.549,0.427,329.053
133098,146478,12011,-0.004,-0.96,-0.096,0.122,0.549,0.427,329.059
133099,146521,38140,0,-0.96,-0.099,0.244,0.427,0.488,329.063
133099,146466,11999,-0.001,-0.959,-0.1,0.244,0.427,0.488,329.069
133075,146521,38140,-0.001,-0.96,-0.095,0,0.488,0.488,329.073
133075,146459,12006,0,-0.964,-0.091,0,0.488,0.488,329.079
133083,146521,38140,-0.004,-0.967,-0.096,0.122,0.854,0.61,329.083
133083,146452,11974,-0.002,-0.961,-0.096,0.122,0.854,0.61,329.089
133055,146521,38140,-0.002,-0.961,-0.096,0.122,0.854,0.61,329.093
133055,146444,11995,-0.008,-0.962,-0.095,0.427,0.976,0.671,329.099
133079,146265,38140,-0.008,-0.962,-0.095,0.427,0.976,0.671,329.102
133079,146410,11995,-0.009,-0.964,-0.096,0.244,0.976,0.488,329.109
133056,146521,38140,-0.009,-0.964,-0.096,0.244,0.976,0.488,329.112
133056,146438,11997,-0.008,-0.961,-0.097,0.061,0.793,0.244,329.119
133075,146521,38140,-0.008,-0.961,-0.097,0.061,0.793,0.244,329.122
133075,146439,11974,-0.009,-0.965,-0.093,0.122,0.61,0.122,329.128
133083,146265,38140,-0.009,-0.965,-0.093,0.122,0.61,0.122,329.132
133083,146427,11988,-0.008,-0.959,-0.089,0.122,0.488,0.061,329.138
133100,146521,38140,-0.008,-0.959,-0.089,0.122,0.488,0.061,329.142
133100,146439,11988,-0.01,-0.958,-0.089,-0.061,0.183,0,329.148
133071,146521,38140,-0.01,-0.958,-0.089,-0.061,0.183,0,329.152
133071,146480,11990,-0.01,-0.962,-0.09,-0.549,0.305,0.061,329.158
133074,146265,38140,-0.01,-0.962,-0.09,-0.549,0.305,0.061,329.162
133074,146420,11982,-0.008,-0.967,-0.097,-0.976,0.488,0,329.168
133045,146521,38140,-0.008,-0.967,-0.097,-0.976,0.488,0,329.172
133045,146443,11989,-0.005,-0.964,-0.095,-0.732,0.488,0.061,329.178
133059,146265,38140,-0.005,-0.964,-0.095,-0.732,0.488,0.061,329.182
133059,146412,11988,-0.001,-0.96,-0.098,-0.366,0.366,0.183,329.188
133058,146265,38140,-0.001,-0.96,-0.098,-0.366,0.366,0.183,329.192
133058,146418,11979,-0,-0.962,-0.098,-0.366,0.488,0.244,329.198
133043,146265,38140,-0,-0.962,-0.098,-0.366,0.488,0.244,329.201
133043,146407,11986,0.002,-0.962,-0.094,-0.061,0.427,0.305,329.208
133062,146265,38140,0.002,-0.962,-0.094,-0.061,0.427,0.305,329.211
133062,146406,11962,0.002,-0.956,-0.096,0,0.244,0.488,329.217
133036,146265,38140,0.002,-0.956,-0.096,0,0.244,0.488,329.221
133036,146401,11978,0.001,-0.964,-0.096,-0.183,0.305,0.671,329.227
133040,146265,38140,0.001,-0.964,-0.096,-0.183,0.305,0.671,329.231
133040,146407,11973,-0.002,-0.964,-0.096,0.061,0.549,0.488,329.237
133048,146265,38140,-0.002,-0.96,-0.094,0.061,0.549,0.488,329.241
133048,146413,11964,-0.003,-0.955,-0.095,0.061,0.305,0.549,329.247
133025,146265,38140,-0.003,-0.955,-0.094,0.061,0.305,0.549,329.251
133025,146419,11973,-0.001,-0.958,-0.089,0.732,0,0.854,329.257
133052,146265,38140,-0.002,-0.958,-0.089,0.732,0,0.854,329.261
133052,146411,11970,-0.002,-0.957,-0.092,0.61,-0.122,0.61,329.267
133053,146265,38140,-0.003,-0.959,-0.091,0.61,-0.122,0.61,329.271
133053,146389,11969,0.001,-0.962,-0.094,-0.305,-0.122,0.366,329.277
133044,146521,38140,-0,-0.967,-0.098,-0.305,-0.122,0.366,329.281
133044,146437,11964,-0.001,-0.966,-0.099,-0.122,0.305,0.305,329.287
133036,146265,38140,-0.005,-0.966,-0.097,-0.122,0.305,0.305,329.291
133036,146403,11962,-0.002,-0.965,-0.099,0.244,0.488,0.427,329.297
133041,146265,38140,-0.001,-0.96,-0.1,0.244,0.488,0.427,329.3
133041,146409,11956,-0.003,-0.96,-0.098,0.305,0.427,0.549,329.307
133038,146265,38140,-0.001,-0.963,-0.099,0.305,0.427,0.549,329.31
133038,146431,11944,-0.003,-0.965,-0.097,0,0.671,0.305,329.316
133031,146265,38140,-0.003,-0.968,-0.098,0,0.671,0.305,329.32
133031,146411,11967,-0.004,-0.966,-0.099,-0.366,0.976,0.122,329.326
133040,146265,38140,0,-0.964,-0.094,-0.366,0.976,0.122,329.33
133040,146390,11963,-0,-0.964,-0.097,0,0.793,0.366,329.336
133026,146265,38140,-0.001,-0.962,-0.094,0,0.793,0.366,329.34
133026,146414,11967,0.001,-0.96,-0.093,0.427,0.488,0.427,329.346
133027,146265,38140,0.003,-0.959,-0.093,0.427,0.488,0.427,329.35
133027,146379,11959,0.003,-0.957,-0.092,0.61,0.61,0.427,329.356
133014,146265,38140,0.002,-0.959,-0.091,0.61,0.61,0.427,329.36
133014,146370,11974,0.001,-0.956,-0.091,0.549,0.732,0.488,329.366
133031,146265,38140,-0.003,-0.956,-0.094,0.549,0.732,0.488,329.37
133031,146399,11951,-0.006,-0.957,-0.096,0.122,0.854,0.61,329.376
133034,146265,38140,-0.006,-0.957,-0.097,0.122,0.854,0.61,329.38
133034,146386,11951,-0.006,-0.963,-0.097,0.122,1.098,0.732,329.386
133017,146265,38140,-0.009,-0.966,-0.095,0.122,1.098,0.732,329.39
133017,146416,11946,-0.007,-0.965,-0.096,0.488,1.037,0.732,329.396
133013,146265,38140,-0.006,-0.964,-0.098,0.488,1.037,0.732,329.399
133013,146390,11956,-0.006,-0.962,-0.096,0.244,0.61,0.549,329.406
133012,146265,38140,-0.008,-0.967,-0.093,0.244,0.61,0.549,329.409
133012,146395,11949,-0.01,-0.964,-0.094,-0.122,0.671,0.427,329.415
133017,146265,38140,-0.008,-0.965,-0.097,-0.122,0.671,0.427,329.419
133017,146370,11952,-0.013,-0.966,-0.095,-0.122,1.098,0.366,329.425
132994,146265,38140,-0.014,-0.962,-0.095,-0.122,1.098,0.366,329.429
132994,146373,11944,-0.017,-0.963,-0.093,0,0.976,0.305,329.435
133022,146265,38140,-0.013,-0.959,-0.092,0,0.976,0.305,329.439
133022,146377,11942,-0.01,-0.96,-0.092,0.122,0.488,0.244,329.445
133000,146265,38140,-0.008,-0.961,-0.091,0.122,0.488,0.244,329.449
133000,146388,11949,-0.006,-0.961,-0.09,-0.122,0.427,0,329.455
133029,146265,38140,-0.003,-0.961,-0.091,-0.122,0.427,0,329.459
133029,146393,11951,0.001,-0.958,-0.09,-0.244,0.549,0,329.465
133029,146265,38140,-0,-0.96,-0.09,-0.244,0.549,0,329.469
133029,146401,11958,-0.005,-0.959,-0.092,-0.427,0.61,0.244,329.475
133052,146265,38140,-0.005,-0.959,-0.089,-0.427,0.61,0.244,329.479
133052,146381,11945,-0.006,-0.961,-0.089,-0.305,0.427,0.244,329.485
133027,146265,38140,-0.004,-0.961,-0.09,-0.305,0.427,0.244,329.489
133027,146409,11952,-0.003,-0.959,-0.091,-0.427,0.061,0.183,329.495
133066,146265,38140,-0.001,-0.961,-0.092,-0.427,0.061,0.183,329.498
133066,146396,11945,-0.001,-0.964,-0.093,-0.427,0,0.305,329.505
133032,146265,38140,-0.003,-0.964,-0.094,-0.427,0,0.305,329.508
133032,146408,11964,0.001,-0.961,-0.093,-0.366,-0.244,0.183,329.514
133043,146265,38140,-0.002,-0.96,-0.089,-0.366,-0.244,0.183,329.518
133043,146391,11958,-0.006,-0.961,-0.094,-0.244,-0.244,0.427,329.524
133044,146265,38140,-0.005,-0.959,-0.092,-0.244,-0.244,0.427,329.528
133044,146394,11965,-0.002,-0.959,-0.094,-0.183,-0.183,0.366,329.534
133037,146265,38140,-0.004,-0.966,-0.094,-0.183,-0.183,0.366,329.538
133037,146380,11954,-0.002,-0.964,-0.098,-0.671,-0.122,0,329.544
133038,146265,38140,-0.002,-0.966,-0.098,-0.671,-0.122,0,329.548
133038,146390,11951,-0.004,-0.969,-0.099,-0.793,0,-0.122,329.554
133033,146265,38140,-0.004,-0.964,-0.098,-0.793,0,-0.122,329.558
133033,146384,11950,-0.007,-0.965,-0.102,-0.244,0.244,0.061,329.564
133028,146265,38140,-0.005,-0.963,-0.098,-0.244,0.244,0.061,329.568
133028,146378,11947,-0.005,-0.961,-0.101,0.366,0.305,0,329.574
133014,146265,38140,-0.003,-0.959,-0.101,0.366,0.305,0,329.578
133014,146365,11951,-0.002,-0.958,-0.099,0.61,0.244,0.122,329.584
133015,146265,38140,-0.005,-0.957,-0.096,0.61,0.244,0.122,329.587
133015,146371,11936,-0.001,-0.959,-0.098,0.549,0.366,0.183,329.594
133023,146265,38140,-0.003,-0.96,-0.098,0.549,0.366,0.183,329.597
133023,146385,11952,0.002,-0.961,-0.1,0.244,0.671,0.244,329.604
133012,146265,38140,0.001,-0.963,-0.099,0.244,0.671,0.244,329.607
133012,146377,11951,0.002,-0.963,-0.097,-0.061,0.915,0.488,329.613
133028,146265,38140,0.003,-0.966,-0.092,-0.061,0.915,0.488,329.617
133028,146390,11958,-0.001,-0.967,-0.094,0.061,1.037,0.61,329.623
133036,146265,38140,-0.001,-0.965,-0.095,0.061,1.037,0.61,329.627
133036,146391,11936,-0.001,-0.964,-0.091,0.244,0.915,0.793,329.633
133037,146265,38140,0.001,-0.962,-0.09,0.244,0.915,0.793,329.637
133037,146393,11945,-0,-0.961,-0.087,0.488,0.793,0.732,329.643
133039,146265,38140,0,-0.959,-0.086,0.488,0.793,0.732,329.647
133039,146406,11955,-0.002,-0.961,-0.089,-0.122,0.854,0.488,329.653
133048,146265,38140,-0.003,-0.962,-0.09,-0.122,0.854,0.488,329.657
133048,146385,11942,-0.002,-0.962,-0.092,-0.732,0.854,0.122,329.663
133049,146265,38140,-0.003,-0.958,-0.094,-0.732,0.854,0.122,329.667
133049,146407,11949,-0.004,-0.961,-0.093,-0.915,0.671,-0.244,329.673
133046,146265,38140,-0.004,-0.961,-0.093,-0.915,0.671,-0.244,329.677
133046,146390,11940,-0.006,-0.962,-0.091,-0.793,0.61,-0.122,329.683
133037,146265,38140,-0.006,-0.962,-0.091,-0.793,0.61,-0.122,329.687
133037,146393,11953,-0.007,-0.964,-0.096,-0.915,0.793,0.061,329.693
133025,146265,38140,-0.007,-0.964,-0.096,-0.915,0.793,0.061,329.696
133025,146353,11941,-0.007,-0.966,-0.093,-0.915,0.732,-0.061,329.703
133030,146265,38140,-0.007,-0.966,-0.093,-0.915,0.732,-0.061,329.706
133030,146340,11928,-0.004,-0.964,-0.092,-0.61,0.366,-0.061,329.712
133004,146265,38140,-0.004,-0.964,-0.092,-0.61,0.366,-0.061,329.716
133004,146363,11937,-0.001,-0.964,-0.091,-0.305,0.305,0,329.722
133004,146265,38140,-0.001,-0.964,-0.091,-0.305,0.305,0,329.726
133004,146352,11929,-0.008,-0.967,-0.09,-0.183,0.549,-0.122,329.732
133005,146265,38140,-0.008,-0.967,-0.09,-0.183,0.549,-0.122,329.736
133005,146353,11951,-0.007,-0.959,-0.09,-0.183,0.61,-0.061,329.742
133022,146265,38140,-0.007,-0.959,-0.09,-0.183,0.61,-0.061,329.746
133022,146336,11935,-0.008,-0.959,-0.087,-0.244,0.366,0.061,329.752
133009,146265,38140,-0.008,-0.959,-0.087,-0.244,0.366,0.061,329.756
133009,146362,11936,-0.008,-0.956,-0.093,-0.244,0,-0.244,329.762
133011,146265,38140,-0.008,-0.956,-0.093,-0.244,0,-0.244,329.766
133011,146360,11942,-0.006,-0.954,-0.086,-0.183,-0.183,-0.305,329.772
133021,146265,38140,-0.006,-0.954,-0.086,-0.183,-0.183,-0.305,329.776
133021,146353,11943,-0.005,-0.958,-0.09,-0.366,0,-0.183,329.782
133022,146265,38140,-0.005,-0.958,-0.09,-0.366,0,-0.183,329.786
133022,146369,11957,-0.002,-0.959,-0.097,-0.671,0.305,-0.183,329.792
133006,146265,38140,-0.002,-0.959,-0.097,-0.671,0.305,-0.183,329.795
133006,146358,11929,-0.001,-0.968,-0.099,-0.793,0.305,-0.122,329.802
133032,146265,38140,-0.001,-0.968,-0.099,-0.793,0.305,-0.122,329.805
133032,146350,11919,-0,-0.967,-0.104,-0.61,0.244,-0.061,329.811
133028,146265,38140,-0,-0.967,-0.104,-0.61,0.244,-0.061,329.815
133028,146349,11934,-0.002,-0.966,-0.101,-0.61,0.244,-0.061,329.821
133014,146265,38140,-0.001,-0.964,-0.101,-0.122,0.427,0.305,329.825
133014,146355,11939,0,-0.961,-0.103,-0.122,0.427,0.305,329.831
133012,146265,38140,0.003,-0.96,-0.108,-0.061,0.549,0.366,329.835
133012,146335,11934,0.001,-0.961,-0.105,-0.061,0.549,0.366,329.841
133022,146265,38140,0.002,-0.961,-0.099,-0.183,0.61,0.427,329.845
133022,146348,11929,0.003,-0.958,-0.1,-0.183,0.61,0.427,329.851
133007,146265,38140,0.001,-0.959,-0.099,-0.061,0.366,0.671,329.855
133007,146350,11921,0.003,-0.957,-0.095,-0.061,0.366,0.671,329.861
133034,146265,38140,0.004,-0.958,-0.092,0.183,0.244,0.793,329.865
133034,146351,11927,0.004,-0.956,-0.09,0.183,0.244,0.793,329.871
133044,146265,38140,0.004,-0.958,-0.088,0.305,0.427,0.61,329.875
133044,146339,11925,0.004,-0.956,-0.086,0.305,0.427,0.61,329.881
133013,146265,38140,-0.001,-0.955,-0.088,0.244,0.366,0.366,329.884
133013,146345,11939,-0,-0.957,-0.083,0.244,0.366,0.366,329.891
133025,146265,38140,-0.002,-0.958,-0.09,0.122,0.488,0.61,329.894
133025,146349,11934,-0.001,-0.96,-0.092,0.122,0.488,0.61,329.901
132996,146265,38140,-0.004,-0.962,-0.092,-0.183,0.61,0.732,329.904
132996,146339,11930,-0.003,-0.966,-0.091,-0.183,0.61,0.732,329.91
133017,146265,38140,-0.005,-0.967,-0.091,0,0.427,0.732,329.914
133017,146349,11938,-0.007,-0.965,-0.091,0,0.427,0.732,329.92
133021,146265,38140,-0.002,-0.965,-0.097,0.366,0.366,0.732,329.924
133021,146335,11935,-0.003,-0.965,-0.095,0.366,0.366,0.732,329.93
133032,146265,38140,-0.005,-0.965,-0.091,0.671,0.427,0.915,329.934
133032,146354,11939,-0.006,-0.964,-0.093,0.671,0.427,0.915,329.94
132999,146265,38140,-0.003,-0.96,-0.091,0.854,0.427,0.976,329.944
132999,146356,11933,-0.001,-0.961,-0.095,0.854,0.427,0.976,329.95
133013,146265,38140,0.001,-0.963,-0.091,0.488,0.122,0.793,329.954
133013,146347,11923,-0.002,-0.966,-0.088,0.488,0.122,0.793,329.96
132995,146265,38140,-0.002,-0.964,-0.089,0.366,0.122,0.793,329.964
132995,146331,11928,-0,-0.963,-0.091,0.366,0.122,0.793,329.97
133033,146265,38140,0,-0.96,-0.094,0.244,0.366,0.854,329.974
133033,146374,11938,-0,-0.959,-0.094,0.244,0.366,0.854,329.98
133024,146265,38140,-0.003,-0.965,-0.094,0.183,0.366,0.793,329.984
133024,146372,11930,-0.004,-0.962,-0.096,0.183,0.366,0.793,329.99
133026,146265,38140,-0.005,-0.963,-0.095,0.061,0.244,0.671,329.993
133026,146347,11924,-0.005,-0.964,-0.094,0.061,0.244,0.671,330
133022,146265,38140,-0.004,-0.966,-0.095,-0.488,0.244,0.549,330.003
133022,146365,11917,-0.006,-0.963,-0.095,-0.488,0.244,0.549,330.009
133031,146265,38140,-0.004,-0.963,-0.094,-0.793,0.122,0.183,330.013
133031,146354,11945,-0.004,-0.962,-0.092,-0.793,0.122,0.183,330.019
133053,146265,38140,-0.001,-0.964,-0.086,-0.549,-0.061,0,330.023
133053,146379,11938,0.002,-0.961,-0.09,-0.549,-0.061,0,330.029
133050,146265,38140,0.003,-0.958,-0.094,-0.549,-0.122,-0.122,330.033
133050,146346,11930,0.002,-0.955,-0.092,-0.549,-0.122,-0.122,330.039
133039,146265,38140,0.001,-0.955,-0.094,-0.549,0.427,-0.122,330.043
133039,146391,11927,-0.003,-0.958,-0.095,-0.549,0.427,-0.122,330.049
133050,146265,38140,-0.002,-0.959,-0.096,-0.488,1.037,0.122,330.053
133050,146374,11933,-0.005,-0.961,-0.099,-0.488,1.037,0.122,330.059
133055,146265,38140,-0.004,-0.957,-0.098,-0.488,1.22,0.366,330.063
133055,146376,11922,-0.007,-0.961,-0.102,-0.488,1.22,0.366,330.069
133057,146265,38140,-0.005,-0.963,-0.103,-0.122,0.976,0.61,330.073
133057,146371,11937,-0.007,-0.963,-0.099,-0.122,0.976,0.61,330.079
133059,146265,38140,-0.007,-0.967,-0.097,0.305,0.854,0.915,330.082
133059,146407,11928,-0.008,-0.964,-0.096,0.305,0.854,0.915,330.089
133080,146265,38140,-0.011,-0.962,-0.097,0.671,1.098,1.037,330.092
133080,146409,11933,-0.012,-0.965,-0.095,0.671,1.098,1.037,330.099
133113,146265,38140,-0.01,-0.967,-0.095,0.61,1.159,0.915,330.102
133113,146386,11931,-0.013,-0.966,-0.092,0.61,1.159,0.915,330.108
133096,146265,38140,-0.012,-0.967,-0.094,0.427,0.976,0.732,330.112
133096,146421,11946,-0.011,-0.969,-0.096,0.427,0.976,0.732,330.118
133105,146265,38140,-0.013,-0.965,-0.092,0.305,0.61,0.549,330.122
133105,146423,11943,-0.011,-0.96,-0.091,0.305,0.61,0.549,330.128
133110,146265,38140,-0.008,-0.96,-0.092,0.183,0.427,0.305,330.132
133110,146418,11941,-0.009,-0.961,-0.092,0.183,0.427,0.305,330.138
133120,146265,38140,-0.003,-0.962,-0.087,-0.427,0.366,0.061,330.142
133120,146431,11935,0.001,-0.963,-0.091,-0.427,0.366,0.061,330.148
133100,146265,38140,-0.002,-0.961,-0.089,-0.915,0.305,-0.305,330.152
133100,146423,11942,-0.004,-0.961,-0.088,-0.915,0.305,-0.305,330.158
133111,146265,38140,-0.001,-0.958,-0.091,-1.098,0.305,-0.244,330.162
133111,146413,11937,-0.002,-0.959,-0.094,-1.098,0.305,-0.244,330.168
133110,146265,38140,-0.002,-0.962,-0.089,-0.976,0.305,-0.122,330.172
133110,146409,11944,0.001,-0.963,-0.09,-0.976,0.305,-0.122,330.178
133093,146265,38140,-0.003,-0.961,-0.091,-0.549,0.061,-0.183,330.181
133093,146409,11929,0.001,-0.961,-0.09,-0.549,0.061,-0.183,330.188
133105,146265,38140,0.001,-0.96,-0.092,-0.488,-0.061,0,330.191
133105,146397,11936,0,-0.962,-0.092,-0.488,-0.061,0,330.198
133122,146265,38140,0.001,-0.964,-0.091,-0.305,0.122,0.183,330.201
133122,146404,11935,0,-0.964,-0.089,-0.305,0.122,0.183,330.207
133118,146265,38140,-0.001,-0.963,-0.093,-0.244,0.244,0.122,330.211
133118,146423,11929,-0.001,-0.963,-0.095,-0.244,0.244,0.122,330.217
133134,146265,38140,-0.004,-0.963,-0.095,0.122,0.427,0.244,330.221
133134,146428,11934,-0.005,-0.96,-0.096,0.122,0.427,0.244,330.227
133116,146265,38140,-0.003,-0.959,-0.096,0.305,0.366,0.427,330.231
133116,146411,11967,-0.004,-0.961,-0.097,0.305,0.366,0.427,330.237
133130,146265,38140,-0.006,-0.961,-0.096,0.183,0.305,0.366,330.241
133130,146405,11943,-0.003,-0.96,-0.093,0.183,0.305,0.366,330.247
133131,146521,38140,-0.005,-0.964,-0.095,0,0.427,0.427,330.251
133131,146453,11953,-0.005,-0.965,-0.098,0,0.427,0.427,330.257
133120,146265,38140,-0.005,-0.965,-0.098,0,0.427,0.427,330.261
133120,146424,11946,-0.001,-0.96,-0.099,0.061,0.488,0.366,330.267
133129,146521,38140,-0.001,-0.96,-0.099,0.061,0.488,0.366,330.271
133129,146443,11950,-0.004,-0.957,-0.096,0.366,0.244,0.183,330.277
133154,146265,38140,-0.004,-0.957,-0.096,0.366,0.244,0.183,330.28
133154,146402,11956,-0.003,-0.958,-0.091,0.488,0.122,0.183,330.287
133131,146265,38140,-0.003,-0.958,-0.091,0.488,0.122,0.183,330.29
133131,146426,11957,0.003,-0.96,-0.095,-0.061,0.183,0.122,330.297
133139,146265,38140,0.003,-0.96,-0.095,-0.061,0.183,0.122,330.3
133139,146429,11950,0.004,-0.964,-0.096,-0.427,0.427,0.122,330.306
133122,146265,38140,0.004,-0.964,-0.096,-0.427,0.427,0.122,330.31
133122,146413,11955,0.001,-0.965,-0.095,-0.427,0.793,0.244,330.316
133160,146521,38140,0.001,-0.965,-0.095,-0.427,0.793,0.244,330.32
133160,146450,11961,0.002,-0.959,-0.092,0.061,1.037,0.366,330.326
133124,146521,38140,0.002,-0.959,-0.092,0.061,1.037,0.366,330.33
133124,146445,11961,0.002,-0.959,-0.094,0.488,0.915,0.61,330.336
133152,146521,38140,0.002,-0.959,-0.094,0.488,0.915,0.61,330.34
133152,146437,11955,-0.002,-0.962,-0.089,0.244,1.037,0.671,330.346
133150,146521,38140,-0.002,-0.962,-0.089,0.244,1.037,0.671,330.35
133150,146443,11955,-0.002,-0.965,-0.094,-0.244,1.22,0.671,330.356
133171,146521,38140,-0.002,-0.965,-0.094,-0.244,1.22,0.671,330.36
133171,146435,11951,-0.006,-0.962,-0.091,-0.366,1.22,0.793,330.366
133147,146521,38140,-0.006,-0.962,-0.091,-0.366,1.22,0.793,330.37
133147,146463,11949,-0.004,-0.961,-0.089,-0.061,1.037,0.854,330.376
133163,146521,38140,-0.004,-0.961,-0.089,-0.061,1.037,0.854,330.379
133163,146437,11946,-0.003,-0.958,-0.087,-0.122,0.732,0.549,330.386
133156,146521,38140,-0.003,-0.958,-0.087,-0.122,0.732,0.549,330.389
133156,146448,11952,-0.008,-0.963,-0.087,-0.61,0.854,0.427,330.396
133168,146521,38140,-0.008,-0.963,-0.087,-0.61,0.854,0.427,330.399
133168,146433,11951,-0.01,-0.962,-0.079,-0.854,0.732,0.305,330.405
133168,146521,38140,0,-0.955,-0.105,-0.854,0.732,0.305,330.409
133168,146435,11947,0.005,-0.953,-0.104,-1.037,-0.122,-0.366,330.415
133154,146521,38140,0.001,-0.968,-0.068,-1.037,-0.122,-0.366,330.419
133154,146448,11946,-0,-0.966,-0.076,-0.183,0.061,-0.244,330.425
133152,146265,38140,-0.001,-0.953,-0.105,-0.183,0.061,-0.244,330.429
133152,146423,11942,-0.002,-0.956,-0.094,-0.976,1.098,0.549,330.435
133154,146521,38140,-0.005,-0.963,-0.083,-0.976,1.098,0.549,330.439
133154,146438,11957,-0.005,-0.963,-0.093,-0.427,0.793,0.244,330.445
133173,146265,38140,-0.002,-0.963,-0.091,-0.427,0.793,0.244,330.449
133173,146426,11954,-0.002,-0.961,-0.088,-0.305,0.061,0.366,330.455
133156,146521,38140,-0.004,-0.961,-0.091,-0.305,0.061,0.366,330.459
133156,146451,11973,-0.007,-0.962,-0.091,0.061,0.244,0.488,330.465
133155,146521,38140,-0.006,-0.965,-0.091,0.061,0.244,0.488,330.469
133155,146442,11947,-0.012,-0.962,-0.092,0.183,0.671,0.671,330.475
133172,146521,38140,-0.011,-0.962,-0.093,0.183,0.671,0.671,330.478
133172,146433,11943,-0.009,-0.963,-0.095,-0.183,0.427,0.793,330.485
133172,146265,38140,-0.012,-0.965,-0.093,-0.183,0.427,0.793,330.488
133172,146412,11954,-0.011,-0.964,-0.094,-0.61,0.122,0.427,330.495
133188,146265,38140,-0.008,-0.963,-0.093,-0.61,0.122,0.427,330.498
133188,146418,11966,-0.008,-0.967,-0.096,-0.427,0,0.366,330.504
133158,146521,38140,-0.01,-0.966,-0.096,-0.427,0,0.366,330.508
133158,146450,11945,-0.009,-0.957,-0.095,-0.183,0.244,0.244,330.514
133207,146521,38140,-0.006,-0.959,-0.096,-0.183,0.244,0.244,330.518
133207,146433,11960,-0.008,-0.961,-0.093,-0.244,0.122,0.061,330.524
133172,146521,38140,-0.007,-0.961,-0.091,-0.244,0.122,0.061,330.528
133172,146461,11943,-0.005,-0.962,-0.091,-0.427,0,0.183,330.534
133184,146521,38140,-0.001,-0.961,-0.095,-0.427,0,0.183,330.538
133184,146467,11954,-0.002,-0.96,-0.094,-0.976,0.183,0.244,330.544
133180,146521,38140,-0.002,-0.961,-0.092,-0.976,0.183,0.244,330.548
133180,146459,11947,-0,-0.96,-0.094,-0.854,0.183,0.244,330.554
133188,146521,38140,0.003,-0.963,-0.094,-0.854,0.183,0.244,330.558
133188,146434,11958,0.007,-0.958,-0.095,-0.732,-0.305,-0.122,330.564
133180,146521,38140,0.007,-0.956,-0.099,-0.732,-0.305,-0.122,330.568
133180,146453,11961,0.007,-0.956,-0.1,-0.915,0.061,-0.183,330.574
133183,146521,38140,0.003,-0.958,-0.098,-0.915,0.061,-0.183,330.577
133183,146452,11940,0.005,-0.959,-0.098,-0.793,0.549,0.122,330.584
133176,146521,38140,0.004,-0.959,-0.101,-0.793,0.549,0.122,330.587
133176,146433,11952,0.001,-0.959,-0.1,-0.976,0.427,-0.061,330.594
133167,146521,38140,0.005,-0.961,-0.096,-0.976,0.427,-0.061,330.597
133167,146446,11958,0.002,-0.962,-0.098,-1.28,0.549,0.183,330.603
133181,146521,38140,-0.001,-0.963,-0.097,-1.28,0.549,0.183,330.607
133181,146443,11949,-0.002,-0.968,-0.095,-1.28,0.793,0.305,330.613
133190,146521,38140,-0.003,-0.968,-0.098,-1.28,0.793,0.305,330.617
133190,146452,11946,-0.001,-0.967,-0.098,-0.915,0.976,0.122,330.623
133205,146521,38140,0,-0.966,-0.095,-0.915,0.976,0.122,330.627
133205,146461,11947,-0.001,-0.965,-0.091,-0.549,0.793,0.122,330.633
133196,146521,38140,-0.001,-0.961,-0.091,-0.549,0.793,0.122,330.637
133196,146470,11953,-0.004,-0.959,-0.094,-0.244,0.549,0.061,330.643
133209,146521,38140,-0.004,-0.959,-0.091,-0.244,0.549,0.061,330.647
133209,146473,11949,-0.006,-0.959,-0.09,0.061,0.427,0.122,330.653
133209,146521,38140,-0.006,-0.96,-0.092,0.061,0.427,0.122,330.657
133209,146461,11953,-0.005,-0.959,-0.091,-0.183,0.61,0.427,330.663
133213,146521,38140,-0.005,-0.958,-0.086,-0.183,0.61,0.427,330.667
133213,146478,11955,-0.005,-0.962,-0.089,-0.061,0.549,0.732,330.673
133228,146521,38140,-0.004,-0.958,-0.09,-0.061,0.549,0.732,330.676
133228,146477,11949,0,-0.957,-0.088,-0.305,0.183,0.976,330.683
133272,146521,38140,0,-0.958,-0.092,-0.305,0.183,0.976,330.686
133272,146512,11966,-0.001,-0.965,-0.095,-0.61,0.305,0.671,330.693
133194,146521,38140,-0.003,-0.968,-0.093,-0.61,0.305,0.671,330.696
133194,146447,11952,-0.005,-0.971,-0.096,-0.671,1.098,0.305,330.702
133235,146521,38140,-0.01,-0.969,-0.096,-0.671,1.098,0.305,330.706
133235,146481,11956,-0.008,-0.967,-0.098,-0.732,1.159,0.549,330.712
133215,146521,38140,-0.004,-0.964,-0.098,-0.732,1.159,0.549,330.716
133215,146490,11965,0,-0.96,-0.094,-0.122,0.061,0.671,330.722
133197,146521,38140,0.002,-0.958,-0.091,-0.122,0.061,0.671,330.726
133197,146481,11974,0.005,-0.956,-0.091,0.488,-0.793,0.427,330.732
133208,146521,38140,0.006,-0.953,-0.094,0.488,-0.793,0.427,330.736
133208,146475,11956,0.004,-0.953,-0.09,-0.061,-0.305,0.061,330.742
133212,146521,38140,0,-0.956,-0.086,-0.061,-0.305,0.061,330.746
133212,146472,11957,-0,-0.956,-0.088,-0.305,0.488,0.366,330.752
133219,146521,38140,-0.004,-0.957,-0.091,-0.305,0.488,0.366,330.756
133219,146481,11956,-0,-0.952,-0.093,-0.915,0.549,0.671,330.762
133224,146521,38140,-0.002,-0.958,-0.094,-0.915,0.549,0.671,330.766
133224,146459,11969,-0.004,-0.961,-0.091,-0.732,0.061,0.671,330.772
133209,146521,38140,-0,-0.962,-0.09,-0.732,0.061,0.671,330.775
133209,146483,11961,-0.001,-0.965,-0.093,-0.061,0.122,0.488,330.782
133221,146521,38140,-0.006,-0.965,-0.1,-0.061,0.122,0.488,330.785
133221,146466,11957,-0.006,-0.967,-0.1,-0.488,0.732,0.793,330.792
133221,146521,38140,-0.011,-0.969,-0.104,-0.488,0.732,0.793,330.795
133221,146477,11960,-0.016,-0.968,-0.105,-0.366,0.915,1.098,330.801
133214,146521,38140,-0.015,-0.968,-0.104,-0.366,0.915,1.098,330.805
133214,146469,11948,-0.011,-0.968,-0.106,0.122,0.488,0.915,330.811
133232,146521,38140,-0.012,-0.963,-0.1,0.122,0.488,0.915,330.815
133232,146466,11972,-0.011,-0.96,-0.094,0.549,0,0.732,330.821
133218,146521,38140,-0.009,-0.959,-0.095,0.549,0,0.732,330.825
133218,146460,11957,-0.005,-0.959,-0.089,0.549,-0.061,0.671,330.831
133223,146521,38140,-0.003,-0.961,-0.09,0.549,-0.061,0.671,330.835
133223,146461,11952,-0.001,-0.959,-0.091,-0.366,-0.061,0.244,330.841
133198,146521,38140,-0.001,-0.959,-0.091,-0.366,-0.061,0.244,330.845
133198,146468,11951,0.001,-0.963,-0.093,-1.22,-0.122,-0.244,330.851
133193,146521,38140,0.001,-0.963,-0.093,-1.22,-0.122,-0.244,330.855
133193,146490,11955,-0,-0.965,-0.084,-1.28,-0.122,-0.366,330.861
133216,146521,38140,-0,-0.965,-0.084,-1.28,-0.122,-0.366,330.865
133216,146471,11955,0.006,-0.954,-0.087,-1.402,-0.244,-0.305,330.871
133202,146521,38140,0.006,-0.954,-0.087,-1.402,-0.244,-0.305,330.874
133202,146468,11938,0.004,-0.957,-0.093,-1.707,-0.305,-0.122,330.881
133195,146521,38140,0.004,-0.957,-0.093,-1.707,-0.305,-0.122,330.884
133195,146455,11962,0,-0.965,-0.098,-1.463,0.244,0,330.891
133195,146521,38140,0,-0.965,-0.098,-1.463,0.244,0,330.894
133195,146465,11948,-0.006,-0.964,-0.107,-1.28,0.671,0.183,330.9
133181,146521,38140,-0.006,-0.964,-0.107,-1.28,0.671,0.183,330.904
133181,146449,11950,-0.002,-0.961,-0.105,-0.366,0.305,0.671,330.91
133172,146521,38140,-0.002,-0.961,-0.105,-0.366,0.305,0.671,330.914
133172,146432,11965,-0.007,-0.96,-0.101,0.122,0,0.793,330.92
133188,146521,38140,-0.007,-0.96,-0.101,0.122,0,0.793,330.924
133188,146442,11957,-0.008,-0.964,-0.096,0.122,0.305,0.549,330.93
133207,146521,38140,-0.008,-0.964,-0.096,0.122,0.305,0.549,330.934
133207,146459,11963,-0.007,-0.964,-0.096,0.061,0.488,0.549,330.94
133176,146521,38140,-0.007,-0.964,-0.096,0.061,0.488,0.549,330.944
133176,146441,11960,-0.005,-0.96,-0.1,0.244,0.244,0.732,330.95
133213,146521,38140,-0.005,-0.96,-0.1,0.244,0.244,0.732,330.954
133213,146475,11953,-0.006,-0.963,-0.094,0.183,0.122,0.732,330.96
133202,146521,38140,-0.006,-0.963,-0.094,0.183,0.122,0.732,330.964
133202,146467,11964,-0.005,-0.962,-0.094,0,-0.061,0.244,330.97
133238,146521,38140,-0.005,-0.962,-0.094,0,-0.061,0.244,330.973
133238,146447,11958,-0.003,-0.959,-0.096,-0.549,-0.122,-0.061,330.98
133230,146521,38140,-0.003,-0.959,-0.096,-0.549,-0.122,-0.061,330.983
133230,146462,11960,-0.002,-0.959,-0.096,-0.549,-0.122,-0.061,330.99
133249,146521,38140,-0.004,-0.959,-0.1,-0.976,0.061,-0.061,330.993
133249,146524,11973,-0,-0.961,-0.096,-0.976,0.061,-0.061,330.999
133241,146521,38140,-0,-0.963,-0.091,-0.671,0.183,-0.183,331.003
133241,146484,11968,0.002,-0.961,-0.098,-0.671,0.183,-0.183,331.009
133225,146521,38140,-0.002,-0.962,-0.096,-0.793,0.488,-0.061,331.013
133225,146488,11973,-0.001,-0.964,-0.098,-0.793,0.488,-0.061,331.019
133230,146521,38140,0.003,-0.965,-0.098,-0.671,0.427,0.366,331.023
133230,146455,11968,-0,-0.961,-0.097,-0.671,0.427,0.366,331.029
133233,146521,38140,0.003,-0.961,-0.098,-0.366,0.183,0.488,331.033
133233,146470,11971,-0,-0.961,-0.098,-0.366,0.183,0.488,331.039
133233,146521,38140,0.001,-0.961,-0.092,0.122,0.488,0.671,331.043
133233,146451,11969,-0.002,-0.96,-0.092,0.122,0.488,0.671,331.049
133212,146521,38140,-0.004,-0.959,-0.093,0.366,0.61,0.854,331.053
133212,146452,11966,-0.004,-0.959,-0.095,0.366,0.61,0.854,331.059
133223,146521,38140,-0.004,-0.961,-0.097,0.366,0.427,0.915,331.063
133223,146462,11971,-0.004,-0.961,-0.099,0.366,0.427,0.915,331.069
133221,146521,38140,-0.004,-0.958,-0.095,0.366,0.366,1.098,331.072
133221,146449,11976,-0.006,-0.958,-0.093,0.366,0.366,1.098,331.079
133245,146521,38140,-0.001,-0.959,-0.091,-0.122,0.122,0.915,331.082
133245,146480,11961,-0.003,-0.96,-0.093,-0.122,0.122,0.915,331.089
133246,146521,38140,-0.006,-0.958,-0.097,-0.61,0,0.427,331.092
133246,146473,11963,0.001,-0.963,-0.09,-0.61,0,0.427,331.098
133218,146521,38140,-0.002,-0.959,-0.09,-0.488,0.122,0.244,331.102
133218,146460,11976,-0.001,-0.962,-0.095,-0.488,0.122,0.244,331.108
133225,146521,38140,-0.002,-0.96,-0.099,-0.732,0.427,0.244,331.112
133225,146462,11967,-0.003,-0.961,-0.092,-0.732,0.427,0.244,331.118
133212,146521,38140,-0,-0.963,-0.092,-0.854,0.366,0.244,331.122
133212,146459,11971,-0.003,-0.963,-0.101,-0.854,0.366,0.244,331.128
133224,146521,38140,0,-0.963,-0.099,-0.854,0.366,0.305,331.132
133224,146446,11968,0.001,-0.965,-0.097,-0.854,0.366,0.305,331.138
133218,146265,38140,-0.001,-0.963,-0.094,-0.183,0.61,0.61,331.142
133218,146419,11962,-0.002,-0.96,-0.098,-0.183,0.61,0.61,331.148
133221,146265,38140,-0.004,-0.956,-0.094,0.244,0.549,0.793,331.152
133221,146426,11948,-0.007,-0.957,-0.098,0.244,0.549,0.793,331.158
133180,146265,38140,-0.009,-0.959,-0.095,0.488,0.488,0.854,331.162
133180,146428,11973,-0.009,-0.96,-0.095,0.488,0.488,0.854,331.168
133227,146265,38140,-0.005,-0.96,-0.096,0.183,0.427,0.732,331.171
133227,146422,11973,-0.005,-0.962,-0.093,0.183,0.427,0.732,331.178
133220,146521,38140,-0.007,-0.963,-0.094,-0.183,0.244,0.61,331.181
133220,146451,11980,-0.009,-0.962,-0.097,-0.183,0.244,0.61,331.188
133219,146521,38140,-0.013,-0.963,-0.091,-0.183,0.183,0.61,331.191
133219,146436,11960,-0.01,-0.964,-0.095,-0.183,0.183,0.61,331.197
133223,146265,38140,-0.005,-0.963,-0.095,-0.183,-0.061,0.305,331.201
133223,146425,11970,-0.007,-0.962,-0.095,-0.183,-0.061,0.305,331.207
133207,146265,38140,-0.008,-0.964,-0.098,-0.488,-0.122,0.061,331.211
133207,146423,11955,-0.007,-0.966,-0.094,-0.488,-0.122,0.061,331.217
133230,146521,38140,-0.001,-0.969,-0.096,-0.61,0.122,0,331.221
133230,146432,11965,-0.005,-0.965,-0.097,-0.61,0.122,0,331.227
133223,146265,38140,-0.003,-0.961,-0.097,-0.732,0.183,-0.122,331.231
133223,146424,11950,-0.005,-0.96,-0.097,-0.732,0.183,-0.122,331.237
133216,146521,38140,-0.005,-0.959,-0.095,-0.732,0.122,0.122,331.241
133216,146439,11961,-0.004,-0.959,-0.1,-0.732,0.122,0.122,331.247
133216,146521,38140,-0.001,-0.959,-0.1,-0.915,0.183,0.305,331.251
133216,146440,11956,-0,-0.957,-0.098,-0.915,0.183,0.305,331.257
133226,146265,38140,-0,-0.96,-0.102,-0.915,0.305,0.244,331.261
133226,146424,11954,0,-0.957,-0.099,-0.915,0.305,0.244,331.267
133193,146265,38140,-0.001,-0.958,-0.098,-0.366,0.061,0.427,331.27
133193,146404,11959,0.001,-0.959,-0.096,-0.366,0.061,0.427,331.277
133202,146265,38140,0.001,-0.963,-0.094,0.305,0,0.61,331.28
133202,146405,11940,0.001,-0.961,-0.095,0.305,0,0.61,331.287
133184,146265,38140,0,-0.957,-0.099,0.061,0.061,0.549,331.29
133184,146400,11976,0.001,-0.961,-0.095,0.061,0.061,0.549,331.296
133180,146265,38140,0,-0.961,-0.091,-0.244,0.061,0.366,331.3
133180,146395,11945,0,-0.96,-0.097,-0.244,0.061,0.366,331.306
133172,146265,38140,-0.001,-0.958,-0.096,-0.183,-0.061,0.061,331.31
133172,146423,11958,-0.001,-0.96,-0.097,-0.183,-0.061,0.061,331.316
133185,146265,38140,-0.002,-0.961,-0.096,-0.305,0.244,0.244,331.32
133185,146380,11956,-0.006,-0.963,-0.099,-0.305,0.244,0.244,331.326
133183,146521,38140,-0.004,-0.964,-0.096,-0.183,0.427,0.366,331.33
133183,146436,11955,-0.002,-0.963,-0.1,-0.183,0.427,0.366,331.336
133211,146265,38140,-0.001,-0.962,-0.1,-0.549,0.244,0.122,331.34
133211,146418,11953,0.003,-0.965,-0.102,-0.549,0.244,0.122,331.346
133215,146265,38140,0,-0.964,-0.101,-0.549,0.244,0.122,331.35
133215,146400,11956,-0.002,-0.965,-0.101,-0.549,0.244,0.122,331.356
133210,146265,38140,-0.001,-0.965,-0.102,-0.183,0.61,0.366,331.36
133210,146413,11955,-0.004,-0.96,-0.102,-0.183,0.61,0.366,331.366
133220,146521,38140,-0.004,-0.961,-0.097,0.183,0.793,0.549,331.369
133220,146447,11949,-0.004,-0.963,-0.096,0.183,0.793,0.549,331.376
133209,146265,38140,-0.003,-0.964,-0.099,-0.061,0.671,0.549,331.379
133209,146424,11955,0.001,-0.965,-0.099,-0.061,0.671,0.549,331.386
133214,146265,38140,0,-0.964,-0.095,-0.122,0.732,0.427,331.389
133214,146426,11960,0,-0.962,-0.095,-0.122,0.732,0.427,331.395
133223,146265,38140,0.004,-0.96,-0.098,0.244,0.671,0.244,331.399
133223,146420,11955,0.005,-0.96,-0.096,0.244,0.671,0.244,331.405
133216,146265,38140,0.002,-0.957,-0.092,0.671,0.549,0.183,331.409
133216,146415,11966,0.002,-0.956,-0.089,0.671,0.549,0.183,331.415
133208,146265,38140,0.001,-0.954,-0.095,0.427,0.732,0.305,331.419
133208,146429,11955,-0.002,-0.954,-0.097,0.427,0.732,0.305,331.425
133202,146521,38140,-0.004,-0.955,-0.096,-0.366,0.915,0.427,331.429
133202,146436,11958,-0.005,-0.957,-0.094,-0.366,0.915,0.427,331.435
133219,146265,38140,-0.005,-0.957,-0.094,-0.366,0.915,0.427,331.439
133219,146420,11958,-0.009,-0.963,-0.097,-0.61,0.915,0.61,331.445
133223,146265,38140,-0.009,-0.963,-0.097,-0.61,0.915,0.61,331.449
133223,146391,11963,-0.008,-0.962,-0.097,-0.183,0.732,0.61,331.455
133188,146265,38140,-0.008,-0.962,-0.097,-0.183,0.732,0.61,331.459
133188,146408,11957,-0.011,-0.963,-0.095,0.732,0.793,0.61,331.465
133195,146265,38140,-0.011,-0.963,-0.095,0.732,0.793,0.61,331.468
133195,146397,11964,-0.011,-0.967,-0.094,0.915,0.915,0.915,331.475
133166,146265,38140,-0.011,-0.967,-0.094,0.915,0.915,0.915,331.478
133166,146413,11943,-0.012,-0.965,-0.098,0.732,0.854,0.915,331.485
133184,146265,38140,-0.012,-0.965,-0.098,0.732,0.854,0.915,331.488
133184,146381,11943,-0.012,-0.966,-0.093,0.793,0.671,0.732,331.494
133182,146265,38140,-0.012,-0.966,-0.093,0.793,0.671,0.732,331.498
133182,146400,11961,-0.009,-0.958,-0.094,1.037,0.427,0.732,331.504
133185,146265,38140,-0.009,-0.958,-0.094,1.037,0.427,0.732,331.508
133185,146403,11955,-0.001,-0.954,-0.087,0.915,-0.061,0.366,331.514
133209,146265,38140,-0.001,-0.954,-0.087,0.915,-0.061,0.366,331.518
133209,146421,11952,-0,-0.957,-0.091,0.061,-0.183,0,331.524
133207,146265,38140,-0,-0.957,-0.091,0.061,-0.183,0,331.528
133207,146413,11960,0.002,-0.961,-0.091,-0.671,0.183,0.061,331.534
133206,146265,38140,0.002,-0.961,-0.091,-0.671,0.183,0.061,331.538
133206,146420,11950,0.003,-0.963,-0.094,-1.22,0.305,-0.122,331.544
133213,146265,38140,0.003,-0.963,-0.094,-1.22,0.305,-0.122,331.548
133213,146402,11949,0,-0.965,-0.092,-1.159,0.061,-0.061,331.554
133225,146265,38140,0,-0.965,-0.092,-1.159,0.061,-0.061,331.558
133225,146407,11950,0.002,-0.964,-0.097,-0.671,0,0.061,331.564
133191,146265,38140,0.002,-0.964,-0.097,-0.671,0,0.061,331.567
133191,146395,11966,0,-0.963,-0.096,-0.488,0.244,0.122,331.574
133185,146265,38140,0,-0.963,-0.096,-0.488,0.244,0.122,331.577
133185,146393,11944,-0.002,-0.96,-0.099,-0.549,0.488,0.366,331.584
133178,146265,38140,-0.003,-0.958,-0.102,-0.549,0.488,0.366,331.587
133178,146381,11953,-0.004,-0.961,-0.099,-0.549,0.427,0.427,331.593
133180,146265,38140,-0.006,-0.962,-0.098,-0.549,0.427,0.427,331.597
133180,146362,11943,-0.006,-0.962,-0.099,-0.244,0.366,0.183,331.603
133152,146265,38140,-0.006,-0.962,-0.098,-0.244,0.366,0.183,331.607
133152,146380,11956,-0.006,-0.957,-0.101,0.061,0.427,0.183,331.613
133164,146265,38140,-0.005,-0.957,-0.101,0.061,0.427,0.183,331.617
133164,146373,11950,-0.003,-0.958,-0.102,0.427,0.183,0.244,331.623
