132729,146715,12055,-0.025,-0.951,-0.14,-0.244,0.183,0.061,439.457
132708,146777,38140,-0.025,-0.951,-0.14,-0.244,0.183,0.061,439.461
132708,146693,12055,-0.026,-0.958,-0.138,-0.671,0.244,0.549,439.467
132690,146777,38140,-0.026,-0.958,-0.138,-0.671,0.244,0.549,439.471
132690,146715,12063,-0.025,-0.954,-0.142,-0.915,0.61,0.488,439.477
132711,146777,38140,-0.025,-0.954,-0.142,-0.915,0.61,0.488,439.48
132711,146699,12060,-0.028,-0.954,-0.141,-0.244,0.488,0.549,439.487
132708,146521,38140,-0.028,-0.954,-0.141,-0.244,0.488,0.549,439.49
132708,146675,12061,-0.026,-0.948,-0.142,0.61,0.244,0.61,439.496
132715,146777,38140,-0.026,-0.948,-0.142,0.61,0.244,0.61,439.5
132715,146716,12042,-0.023,-0.944,-0.138,0.183,0.122,0.671,439.506
132721,146777,38140,-0.023,-0.944,-0.138,0.183,0.122,0.671,439.51
132721,146702,12054,-0.025,-0.953,-0.14,-0.427,0.305,0.793,439.516
132713,146777,38140,-0.025,-0.953,-0.14,-0.427,0.305,0.793,439.52
132713,146696,12061,-0.025,-0.963,-0.136,-0.122,0.488,0.549,439.526
132722,146777,38140,-0.025,-0.963,-0.136,-0.122,0.488,0.549,439.53
132722,146707,12062,-0.025,-0.956,-0.142,0.366,0.427,0.671,439.536
132680,146777,38140,-0.025,-0.956,-0.142,0.366,0.427,0.671,439.54
132680,146690,12059,-0.027,-0.956,-0.136,0.671,0.244,0.976,439.546
132700,146521,38140,-0.027,-0.956,-0.136,0.671,0.244,0.976,439.55
132700,146683,12056,-0.027,-0.956,-0.135,0.793,0.183,0.732,439.556
132684,146521,38140,-0.027,-0.956,-0.135,0.793,0.183,0.732,439.56
132684,146678,12067,-0.028,-0.95,-0.14,0.61,0.366,0.671,439.566
132665,146521,38140,-0.028,-0.95,-0.14,0.61,0.366,0.671,439.569
132665,146671,12060,-0.032,-0.952,-0.136,0.61,0.488,0.671,439.576
132652,146521,38140,-0.032,-0.952,-0.136,0.61,0.488,0.671,439.579
132652,146660,12045,-0.03,-0.955,-0.139,0.122,0.305,0.366,439.586
132618,146521,38140,-0.03,-0.955,-0.139,0.122,0.305,0.366,439.589
132618,146637,12057,-0.029,-0.958,-0.138,0.122,0.305,0.366,439.595
132652,146521,38140,-0.032,-0.957,-0.142,-0.427,0.183,0.244,439.599
132652,146608,12041,-0.031,-0.958,-0.139,-0.427,0.183,0.244,439.605
132623,146521,38140,-0.031,-0.957,-0.142,-0.549,0.305,0.244,439.609
132623,146629,12068,-0.03,-0.959,-0.141,-0.549,0.305,0.244,439.615
132625,146521,38140,-0.03,-0.956,-0.138,-0.427,0.244,0.244,439.619
132625,146606,12036,-0.029,-0.954,-0.137,-0.427,0.244,0.244,439.625
132600,146521,38140,-0.025,-0.957,-0.139,-0.61,-0.061,0.244,439.629
132600,146577,12054,-0.027,-0.956,-0.133,-0.61,-0.061,0.244,439.635
132555,146521,38140,-0.025,-0.958,-0.135,-0.915,-0.061,0.183,439.639
132555,146604,12048,-0.023,-0.958,-0.139,-0.915,-0.061,0.183,439.645
132585,146521,38140,-0.024,-0.955,-0.141,-1.098,0.122,0.183,439.649
132585,146599,12041,-0.028,-0.957,-0.141,-1.098,0.122,0.183,439.655
132534,146521,38140,-0.027,-0.956,-0.144,-0.976,0.183,0.183,439.659
132534,146534,12013,-0.027,-0.955,-0.144,-0.976,0.183,0.183,439.665
132528,146521,38140,-0.026,-0.957,-0.143,-0.793,0,0.305,439.668
132528,146571,12030,-0.024,-0.954,-0.143,-0.793,0,0.305,439.675
132555,146521,38140,-0.026,-0.951,-0.143,-0.732,-0.122,0.427,439.678
132555,146553,12027,-0.024,-0.952,-0.141,-0.732,-0.122,0.427,439.685
132525,146521,38140,-0.025,-0.949,-0.14,-0.488,-0.183,0.549,439.688
132525,146536,12033,-0.025,-0.951,-0.138,-0.488,-0.183,0.549,439.694
132496,146521,38140,-0.025,-0.953,-0.138,-0.305,-0.061,0.549,439.698
132496,146550,12017,-0.027,-0.953,-0.14,-0.305,-0.061,0.549,439.704
132486,146521,38140,-0.026,-0.951,-0.14,-0.488,0.061,0.854,439.708
132486,146506,12026,-0.027,-0.954,-0.137,-0.488,0.061,0.854,439.714
132485,146521,38140,-0.029,-0.956,-0.139,-0.366,0.061,1.098,439.718
132485,146499,12036,-0.027,-0.959,-0.142,-0.366,0.061,1.098,439.724
132482,146521,38140,-0.029,-0.961,-0.14,0.244,0.122,0.915,439.728
132482,146526,12020,-0.031,-0.959,-0.141,0.244,0.122,0.915,439.734
132471,146521,38140,-0.028,-0.954,-0.147,0.122,0.244,0.976,439.738
132471,146508,12020,-0.029,-0.956,-0.145,0.122,0.244,0.976,439.744
132478,146521,38140,-0.032,-0.957,-0.141,0.183,0.427,1.098,439.748
132478,146497,12018,-0.031,-0.955,-0.141,0.183,0.427,1.098,439.754
132487,146521,38140,-0.031,-0.957,-0.144,0.366,0.549,0.854,439.758
132487,146514,12027,-0.029,-0.96,-0.145,0.366,0.549,0.854,439.764
132477,146521,38140,-0.029,-0.96,-0.142,0,0.549,0.732,439.767
132477,146502,12010,-0.03,-0.962,-0.143,0,0.549,0.732,439.774
132499,146521,38140,-0.03,-0.964,-0.141,0.061,0.427,0.732,439.777
132499,146507,12024,-0.026,-0.96,-0.137,0.061,0.427,0.732,439.784
132458,146521,38140,-0.025,-0.957,-0.132,0.183,0.122,0.671,439.787
132458,146504,12018,-0.022,-0.956,-0.139,0.183,0.122,0.671,439.793
132464,146521,38140,-0.022,-0.957,-0.138,0.366,0.061,0.549,439.797
132464,146488,12033,-0.023,-0.957,-0.134,0.366,0.061,0.549,439.803
132439,146521,38140,-0.029,-0.955,-0.138,0.305,0.549,0.244,439.807
132439,146487,12013,-0.028,-0.954,-0.135,0.305,0.549,0.244,439.813
132452,146521,38140,-0.027,-0.95,-0.135,0,0.976,0.183,439.817
132452,146463,12010,-0.03,-0.95,-0.14,0,0.976,0.183,439.823
132412,146521,38140,-0.031,-0.953,-0.141,0,1.037,0.061,439.827
132412,146448,11994,-0.032,-0.958,-0.141,0,1.037,0.061,439.833
132384,146265,38140,-0.031,-0.957,-0.143,-0.305,1.098,0.061,439.837
132384,146414,11999,-0.033,-0.958,-0.147,-0.305,1.098,0.061,439.843
132358,146265,38140,-0.031,-0.958,-0.152,-0.915,1.159,0.061,439.847
132358,146415,11999,-0.034,-0.959,-0.149,-0.915,1.159,0.061,439.853
132342,146265,38140,-0.034,-0.959,-0.149,-0.854,0.915,0,439.857
132342,146358,12004,-0.032,-0.963,-0.145,-0.854,0.915,0,439.863
132335,146265,38140,-0.033,-0.961,-0.143,-0.366,0.854,-0.183,439.866
132335,146368,11996,-0.033,-0.958,-0.139,-0.366,0.854,-0.183,439.873
132342,146265,38140,-0.031,-0.955,-0.14,-0.305,0.671,-0.061,439.876
132342,146366,11996,-0.03,-0.955,-0.137,-0.305,0.671,-0.061,439.883
132335,146265,38140,-0.025,-0.956,-0.132,-0.61,0.366,0.061,439.886
132335,146385,11987,-0.023,-0.954,-0.131,-0.61,0.366,0.061,439.892
132331,146265,38140,-0.02,-0.955,-0.135,-1.037,0.366,0.122,439.896
132331,146366,11994,-0.021,-0.953,-0.131,-1.037,0.366,0.122,439.902
132325,146265,38140,-0.02,-0.952,-0.132,-0.854,0.366,0.061,439.906
132325,146388,11984,-0.019,-0.952,-0.135,-0.854,0.366,0.061,439.912
132323,146265,38140,-0.019,-0.948,-0.138,-0.671,0.427,0.244,439.916
132323,146366,11988,-0.022,-0.948,-0.139,-0.671,0.427,0.244,439.922
132333,146265,38140,-0.022,-0.954,-0.135,-0.793,0.488,0.366,439.926
132333,146397,11994,-0.019,-0.952,-0.135,-0.793,0.488,0.366,439.932
132341,146265,38140,-0.021,-0.952,-0.145,-0.976,0.366,0.427,439.936
132341,146400,11993,-0.023,-0.954,-0.144,-0.976,0.366,0.427,439.942
132348,146265,38140,-0.026,-0.956,-0.142,-0.427,0.366,0.732,439.946
132348,146385,11991,-0.028,-0.955,-0.148,-0.427,0.366,0.732,439.952
132364,146265,38140,-0.03,-0.956,-0.143,0.427,0.305,0.976,439.956
132364,146405,11991,-0.031,-0.957,-0.138,0.427,0.305,0.976,439.962
132369,146265,38140,-0.032,-0.95,-0.139,0.671,0,0.976,439.965
132369,146417,11988,-0.03,-0.952,-0.139,0.671,0,0.976,439.972
132355,146265,38140,-0.032,-0.954,-0.137,0.61,0,1.037,439.975
132355,146415,11982,-0.033,-0.956,-0.14,0.61,0,1.037,439.982
132382,146265,38140,-0.032,-0.958,-0.137,0.244,0.305,0.793,439.985
132382,146421,11997,-0.036,-0.958,-0.142,0.244,0.305,0.793,439.991
132383,146265,38140,-0.037,-0.96,-0.14,0,0.61,0.61,439.995
132383,146417,11994,-0.04,-0.962,-0.139,0,0.61,0.61,440.001
132354,146265,38140,-0.039,-0.961,-0.141,0.122,0.488,0.61,440.005
132354,146418,12006,-0.038,-0.959,-0.142,0.122,0.488,0.61,440.011
132381,146521,38140,-0.037,-0.964,-0.135,0.305,0.183,0.488,440.015
132381,146433,11991,-0.036,-0.963,-0.141,0.305,0.183,0.488,440.021
132367,146265,38140,-0.029,-0.96,-0.148,-0.244,0.061,0.366,440.025
132367,146418,11992,-0.034,-0.959,-0.143,-0.244,0.061,0.366,440.031
132385,146265,38140,-0.034,-0.959,-0.143,-0.244,0.061,0.366,440.035
132385,146415,11998,-0.031,-0.959,-0.145,-0.122,0.244,0.427,440.041
132358,146265,38140,-0.031,-0.959,-0.145,-0.122,0.244,0.427,440.045
132358,146413,12001,-0.028,-0.942,-0.143,0.488,0.183,0.122,440.051
132371,146265,38140,-0.028,-0.942,-0.143,0.488,0.183,0.122,440.055
132371,146416,11991,-0.027,-0.951,-0.137,0.305,0,0.061,440.061
132377,146265,38140,-0.027,-0.951,-0.137,0.305,0,0.061,440.064
132377,146406,11982,-0.019,-0.954,-0.146,-0.671,-0.061,-0.061,440.071
132368,146265,38140,-0.019,-0.954,-0.146,-0.671,-0.061,-0.061,440.074
132368,146395,11997,-0.02,-0.959,-0.145,-1.646,0.305,-0.183,440.081
132374,146265,38140,-0.02,-0.959,-0.145,-1.646,0.305,-0.183,440.084
132374,146421,11991,-0.021,-0.96,-0.144,-1.463,0.793,0,440.09
132383,146265,38140,-0.021,-0.96,-0.144,-1.463,0.793,0,440.094
132383,146420,11998,-0.024,-0.957,-0.14,-0.366,0.793,0,440.1
132368,146265,38140,-0.024,-0.957,-0.14,-0.366,0.793,0,440.104
132368,146393,11986,-0.026,-0.95,-0.143,0.305,0.671,0.122,440.11
132401,146521,38140,-0.026,-0.95,-0.143,0.305,0.671,0.122,440.114
132401,146435,11994,-0.026,-0.95,-0.139,0.183,0.732,0.305,440.12
132390,146265,38140,-0.026,-0.95,-0.139,0.183,0.732,0.305,440.124
132390,146394,11992,-0.026,-0.953,-0.139,-0.244,0.854,0.366,440.13
132392,146265,38140,-0.026,-0.953,-0.139,-0.244,0.854,0.366,440.134
132392,146419,12004,-0.027,-0.958,-0.139,-0.793,0.976,0.427,440.14
132395,146265,38140,-0.027,-0.958,-0.139,-0.793,0.976,0.427,440.144
132395,146414,11994,-0.031,-0.961,-0.14,-0.61,1.037,0.488,440.15
132362,146521,38140,-0.031,-0.961,-0.14,-0.61,1.037,0.488,440.154
132362,146445,11991,-0.027,-0.954,-0.138,-0.366,0.793,0.427,440.16
132385,146265,38140,-0.027,-0.954,-0.138,-0.366,0.793,0.427,440.163
132385,146421,11987,-0.028,-0.95,-0.136,0.122,0.488,0.427,440.17
132379,146265,38140,-0.028,-0.95,-0.136,0.122,0.488,0.427,440.173
132379,146425,11991,-0.026,-0.95,-0.136,0.427,0.488,0.488,440.18
132411,146265,38140,-0.023,-0.951,-0.135,0.427,0.488,0.488,440.183
132411,146410,11976,-0.024,-0.95,-0.132,0.549,0.549,0.427,440.189
132405,146521,38140,-0.023,-0.953,-0.137,0.549,0.549,0.427,440.193
132405,146438,11997,-0.027,-0.954,-0.135,-0.061,0.61,0.366,440.199
132397,146521,38140,-0.026,-0.959,-0.136,-0.061,0.61,0.366,440.203
132397,146434,11993,-0.027,-0.961,-0.134,-0.305,0.732,0.427,440.209
132400,146265,38140,-0.027,-0.959,-0.137,-0.305,0.732,0.427,440.213
132400,146407,11997,-0.029,-0.959,-0.139,-0.183,0.61,0.427,440.219
132399,146265,38140,-0.029,-0.959,-0.138,-0.183,0.61,0.427,440.223
132399,146427,11998,-0.029,-0.958,-0.138,0.183,0.427,0.427,440.229
132389,146265,38140,-0.029,-0.957,-0.141,0.183,0.427,0.427,440.233
132389,146423,11993,-0.032,-0.957,-0.139,0.366,0.427,0.366,440.239
132368,146265,38140,-0.033,-0.954,-0.139,0.366,0.427,0.366,440.243
132368,146411,11995,-0.031,-0.953,-0.136,0.366,0.366,0.366,440.249
132390,146265,38140,-0.031,-0.952,-0.139,0.366,0.366,0.366,440.253
132390,146396,11989,-0.031,-0.954,-0.135,-0.061,0.122,0.244,440.259
132367,146265,38140,-0.031,-0.955,-0.135,-0.061,0.122,0.244,440.262
132367,146408,11988,-0.031,-0.956,-0.137,-0.427,0.122,0.122,440.269
132364,146265,38140,-0.031,-0.959,-0.14,-0.427,0.122,0.122,440.272
132364,146405,11987,-0.028,-0.961,-0.139,-0.549,0.305,0,440.279
132358,146265,38140,-0.031,-0.958,-0.14,-0.549,0.305,0,440.282
132358,146396,11981,-0.031,-0.956,-0.142,-0.183,0.488,0.061,440.288
132347,146265,38140,-0.029,-0.954,-0.142,-0.183,0.488,0.061,440.292
132347,146411,11982,-0.03,-0.953,-0.142,-0.122,0.183,0.122,440.298
132348,146265,38140,-0.028,-0.955,-0.137,-0.122,0.183,0.122,440.302
132348,146393,11972,-0.025,-0.959,-0.141,-0.488,-0.061,0.183,440.308
132344,146265,38140,-0.023,-0.958,-0.141,-0.488,-0.061,0.183,440.312
132344,146388,11980,-0.027,-0.956,-0.143,-0.305,0.183,0.305,440.318
132348,146265,38140,-0.027,-0.954,-0.146,-0.305,0.183,0.305,440.322
132348,146385,11964,-0.025,-0.954,-0.142,-0.061,0.305,0.427,440.328
132361,146265,38140,-0.026,-0.953,-0.14,-0.061,0.305,0.427,440.332
132361,146405,11977,-0.024,-0.954,-0.139,0.244,0.244,0.427,440.338
132352,146265,38140,-0.025,-0.955,-0.138,0.244,0.244,0.427,440.342
132352,146401,11979,-0.022,-0.955,-0.14,-0.122,0.183,0.427,440.348
132350,146265,38140,-0.02,-0.955,-0.144,-0.122,0.183,0.427,440.352
132350,146377,11971,-0.021,-0.954,-0.142,-0.488,0.366,0.427,440.358
132348,146265,38140,-0.021,-0.958,-0.144,-0.488,0.366,0.427,440.361
132348,146404,11980,-0.024,-0.958,-0.15,-0.061,0.671,0.427,440.368
132360,146265,38140,-0.023,-0.959,-0.146,-0.061,0.671,0.427,440.371
132360,146403,11987,-0.026,-0.96,-0.147,0.305,0.854,0.366,440.378
132380,146265,38140,-0.031,-0.955,-0.145,0.305,0.854,0.366,440.381
132380,146420,11965,-0.033,-0.957,-0.141,0.488,0.915,0.549,440.387
132378,146265,38140,-0.031,-0.954,-0.138,0.488,0.915,0.549,440.391
132378,146402,11974,-0.03,-0.956,-0.141,0.305,0.671,0.549,440.397
132376,146265,38140,-0.028,-0.957,-0.142,0.305,0.671,0.549,440.401
132376,146431,11978,-0.027,-0.961,-0.137,0.183,0.61,0.305,440.407
132371,146265,38140,-0.027,-0.963,-0.139,0.183,0.61,0.305,440.411
132371,146424,11975,-0.028,-0.956,-0.139,0,0.732,0.366,440.417
132357,146265,38140,-0.027,-0.957,-0.135,0,0.732,0.366,440.421
132357,146422,11966,-0.026,-0.958,-0.136,0.061,0.732,0.244,440.427
132365,146265,38140,-0.023,-0.957,-0.139,0.061,0.732,0.244,440.431
132365,146402,11989,-0.025,-0.961,-0.14,-0.061,0.915,0.183,440.437
132367,146265,38140,-0.025,-0.959,-0.142,-0.061,0.915,0.183,440.441
132367,146404,11980,-0.025,-0.957,-0.138,-0.488,1.098,0.244,440.447
132359,146265,38140,-0.029,-0.96,-0.137,-0.488,1.098,0.244,440.451
132359,146388,11969,-0.03,-0.957,-0.141,-0.183,1.159,0.366,440.457
132359,146265,38140,-0.034,-0.951,-0.141,-0.183,1.159,0.366,440.46
132359,146410,11968,-0.032,-0.95,-0.141,0.549,0.976,0.366,440.467
132373,146265,38140,-0.033,-0.951,-0.138,0.549,0.976,0.366,440.47
132373,146400,11957,-0.035,-0.952,-0.137,0.549,0.915,0.488,440.476
132368,146265,38140,-0.033,-0.951,-0.138,0.549,0.915,0.488,440.48
132368,146411,11957,-0.031,-0.955,-0.138,-0.061,0.854,0.549,440.486
132351,146265,38140,-0.031,-0.958,-0.139,-0.061,0.854,0.549,440.49
132351,146414,11961,-0.034,-0.958,-0.139,-0.488,0.793,0.427,440.496
132365,146265,38140,-0.033,-0.961,-0.138,-0.488,0.793,0.427,440.5
132365,146410,11964,-0.032,-0.961,-0.134,-0.305,0.671,0.305,440.506
132352,146265,38140,-0.031,-0.958,-0.134,-0.305,0.671,0.305,440.51
132352,146411,11965,-0.032,-0.956,-0.136,0.183,0.366,0.183,440.516
132346,146265,38140,-0.03,-0.959,-0.132,0.183,0.366,0.183,440.52
132346,146390,11962,-0.025,-0.962,-0.131,-0.183,-0.061,0.244,440.526
132361,146265,38140,-0.022,-0.959,-0.13,-0.183,-0.061,0.244,440.53
132361,146410,11965,-0.02,-0.956,-0.134,-0.915,-0.122,0.183,440.536
132346,146265,38140,-0.019,-0.96,-0.133,-0.915,-0.122,0.183,440.54
132346,146366,11969,-0.021,-0.956,-0.136,-0.976,0.122,0.061,440.546
132338,146265,38140,-0.023,-0.956,-0.134,-0.976,0.122,0.061,440.549
132338,146399,11951,-0.024,-0.954,-0.137,-0.488,0.183,0,440.556
132362,146265,38140,-0.025,-0.951,-0.14,-0.488,0.183,0,440.559
132362,146392,11960,-0.023,-0.949,-0.14,-0.122,0.061,0.183,440.566
132363,146265,38140,-0.021,-0.948,-0.138,-0.122,0.061,0.183,440.569
132363,146395,11975,-0.021,-0.949,-0.139,-0.366,-0.061,0.366,440.575
132378,146265,38140,-0.021,-0.953,-0.142,-0.366,-0.061,0.366,440.579
132378,146399,11962,-0.024,-0.956,-0.141,-0.366,0.061,0.366,440.585
132339,146265,38140,-0.026,-0.96,-0.138,-0.366,0.061,0.366,440.589
132339,146401,11974,-0.028,-0.96,-0.139,-0.427,0.366,0.488,440.595
132360,146265,38140,-0.027,-0.961,-0.141,-0.427,0.366,0.488,440.599
132360,146381,11950,-0.028,-0.957,-0.144,-0.183,0.549,0.671,440.605
132350,146265,38140,-0.029,-0.96,-0.139,-0.183,0.549,0.671,440.609
132350,146411,11967,-0.031,-0.96,-0.14,0.122,0.427,0.61,440.615
132376,146265,38140,-0.031,-0.96,-0.14,0.122,0.427,0.61,440.619
132376,146400,11946,-0.029,-0.958,-0.137,0.366,0.183,0.549,440.625
132374,146265,38140,-0.029,-0.958,-0.137,0.366,0.183,0.549,440.629
132374,146399,11962,-0.029,-0.958,-0.135,0.488,0.366,0.549,440.635
132391,146265,38140,-0.029,-0.958,-0.135,0.488,0.366,0.549,440.639
132391,146394,11952,-0.034,-0.953,-0.14,0.122,0.549,0.366,440.645
132345,146265,38140,-0.034,-0.953,-0.14,0.122,0.549,0.366,440.648
132345,146423,11971,-0.032,-0.959,-0.14,-0.183,0.488,0.244,440.655
132375,146265,38140,-0.032,-0.959,-0.14,-0.183,0.488,0.244,440.658
132375,146411,11951,-0.029,-0.954,-0.139,-0.305,0.244,0.183,440.665
132362,146265,38140,-0.029,-0.954,-0.139,-0.305,0.244,0.183,440.668
132362,146353,11955,-0.028,-0.955,-0.141,-0.244,0.244,0.244,440.674
132358,146265,38140,-0.028,-0.955,-0.141,-0.244,0.244,0.244,440.678
132358,146393,11964,-0.025,-0.95,-0.141,-0.122,0.488,0.244,440.684
132333,146265,38140,-0.025,-0.95,-0.141,-0.122,0.488,0.244,440.688
132333,146406,11963,-0.023,-0.953,-0.141,-0.488,0.549,0.305,440.694
132360,146265,38140,-0.023,-0.953,-0.141,-0.488,0.549,0.305,440.698
132360,146391,11963,-0.024,-0.956,-0.144,-0.793,0.61,0.549,440.704
132353,146265,38140,-0.024,-0.956,-0.144,-0.793,0.61,0.549,440.708
132353,146390,11977,-0.022,-0.956,-0.136,-0.732,0.671,0.61,440.714
132363,146265,38140,-0.022,-0.956,-0.136,-0.732,0.671,0.61,440.718
132363,146408,11951,-0.025,-0.955,-0.142,-0.549,0.732,0.549,440.724
132358,146265,38140,-0.025,-0.955,-0.142,-0.549,0.732,0.549,440.728
132358,146410,11967,-0.024,-0.955,-0.14,-0.305,0.915,0.488,440.734
132359,146265,38140,-0.024,-0.955,-0.14,-0.305,0.915,0.488,440.738
132359,146404,11955,-0.026,-0.955,-0.135,-0.122,0.915,0.427,440.744
132361,146265,38140,-0.026,-0.955,-0.135,-0.122,0.915,0.427,440.747
132361,146421,11975,-0.028,-0.955,-0.139,-0.671,0.671,0.549,440.754
132366,146265,38140,-0.028,-0.955,-0.139,-0.671,0.671,0.549,440.757
132366,146414,11972,-0.029,-0.963,-0.134,-0.671,0.671,0.549,440.764
132358,146265,38140,-0.027,-0.968,-0.136,-0.549,0.793,0.488,440.767
132358,146412,11977,-0.028,-0.961,-0.143,-0.549,0.793,0.488,440.773
132377,146265,38140,-0.03,-0.961,-0.141,-0.732,0.976,0.427,440.777
132377,146381,11959,-0.033,-0.96,-0.138,-0.732,0.976,0.427,440.783
132348,146265,38140,-0.031,-0.955,-0.138,-0.305,0.854,0.305,440.787
132348,146399,11974,-0.027,-0.955,-0.14,-0.305,0.854,0.305,440.793
132345,146265,38140,-0.026,-0.954,-0.137,0.122,0.549,-0.061,440.797
132345,146416,11969,-0.026,-0.956,-0.137,0.122,0.549,-0.061,440.803
132338,146265,38140,-0.025,-0.956,-0.139,-0.244,0.732,-0.122,440.807
132338,146380,11962,-0.025,-0.955,-0.143,-0.244,0.732,-0.122,440.813
132353,146265,38140,-0.027,-0.955,-0.141,-0.671,0.976,0,440.817
132353,146399,11964,-0.027,-0.96,-0.141,-0.671,0.976,0,440.823
132324,146265,38140,-0.029,-0.958,-0.135,-0.488,1.037,-0.122,440.827
132324,146370,11942,-0.031,-0.957,-0.136,-0.488,1.037,-0.122,440.833
132343,146265,38140,-0.03,-0.955,-0.137,0.061,0.793,0.061,440.837
132343,146360,11961,-0.03,-0.954,-0.137,0.061,0.793,0.061,440.843
132349,146265,38140,-0.034,-0.951,-0.134,0.366,0.366,0.488,440.846
132349,146364,11962,-0.03,-0.952,-0.13,0.366,0.366,0.488,440.853
132345,146265,38140,-0.027,-0.955,-0.13,0.427,0.061,0.427,440.856
132345,146394,11963,-0.029,-0.955,-0.129,0.427,0.061,0.427,440.863
132341,146265,38140,-0.028,-0.954,-0.134,0.061,0,0.122,440.866
132341,146364,11948,-0.028,-0.956,-0.137,0.061,0,0.122,440.872
132318,146265,38140,-0.029,-0.958,-0.135,-0.305,0.427,0.244,440.876
132318,146371,11958,-0.033,-0.959,-0.137,-0.305,0.427,0.244,440.882
132339,146265,38140,-0.034,-0.959,-0.142,-0.427,0.427,0.122,440.886
132339,146373,11943,-0.034,-0.96,-0.138,-0.427,0.427,0.122,440.892
132301,146265,38140,-0.031,-0.959,-0.141,-0.244,0.061,-0.061,440.896
132301,146342,11964,-0.03,-0.954,-0.139,-0.244,0.061,-0.061,440.902
132331,146265,38140,-0.03,-0.955,-0.139,0,-0.244,0,440.906
132331,146353,11959,-0.029,-0.957,-0.14,0,-0.244,0,440.912
132314,146265,38140,-0.028,-0.958,-0.142,-0.122,-0.061,-0.122,440.916
132314,146325,11972,-0.023,-0.956,-0.142,-0.122,-0.061,-0.122,440.922
132323,146265,38140,-0.024,-0.952,-0.143,-0.427,0.244,-0.244,440.926
132323,146340,11941,-0.023,-0.952,-0.143,-0.427,0.244,-0.244,440.932
132309,146265,38140,-0.022,-0.953,-0.148,-0.61,0.488,0,440.936
132309,146356,11950,-0.022,-0.954,-0.144,-0.61,0.488,0,440.942
132311,146265,38140,-0.022,-0.955,-0.143,-0.427,0.488,0,440.945
132311,146363,11932,-0.022,-0.953,-0.143,-0.427,0.488,0,440.952
132316,146265,38140,-0.023,-0.953,-0.143,-0.366,0.305,0,440.955
132316,146336,11945,-0.019,-0.955,-0.141,-0.366,0.305,0,440.962
132312,146265,38140,-0.019,-0.954,-0.138,-0.183,0.305,0.366,440.965
132312,146365,11940,-0.022,-0.955,-0.14,-0.183,0.305,0.366,440.971
132303,146265,38140,-0.02,-0.956,-0.137,0.061,0.244,0.488,440.975
132303,146341,11948,-0.021,-0.954,-0.139,0.061,0.244,0.488,440.981
132324,146265,38140,-0.023,-0.953,-0.139,0.061,0.366,0.549,440.985
132324,146363,11936,-0.021,-0.953,-0.138,0.061,0.366,0.549,440.991
132296,146265,38140,-0.025,-0.955,-0.136,0.183,0.549,0.427,440.995
132296,146333,11958,-0.023,-0.958,-0.138,0.183,0.549,0.427,441.001
132303,146265,38140,-0.025,-0.953,-0.137,-0.061,0.793,0.366,441.005
132303,146381,11933,-0.026,-0.952,-0.145,-0.061,0.793,0.366,441.011
132307,146265,38140,-0.028,-0.957,-0.144,-0.122,0.976,0.427,441.015
132307,146333,11951,-0.027,-0.953,-0.144,-0.122,0.976,0.427,441.021
132302,146265,38140,-0.028,-0.951,-0.15,0,1.037,0.427,441.025
132302,146348,11938,-0.027,-0.954,-0.145,0,1.037,0.427,441.031
132308,146265,38140,-0.026,-0.96,-0.137,0.061,0.976,0.366,441.035
132308,146330,11940,-0.027,-0.96,-0.138,0.061,0.976,0.366,441.041
132291,146265,38140,-0.028,-0.957,-0.144,-0.427,0.854,0.183,441.044
132291,146359,11940,-0.029,-0.964,-0.14,-0.427,0.854,0.183,441.051
132294,146265,38140,-0.03,-0.963,-0.138,-0.427,0.915,0.244,441.054
132294,146334,11941,-0.031,-0.965,-0.135,-0.427,0.915,0.244,441.061
132302,146265,38140,-0.029,-0.964,-0.14,0,0.793,0.061,441.064
132302,146388,11953,-0.028,-0.961,-0.135,0,0.793,0.061,441.07
132310,146265,38140,-0.026,-0.96,-0.133,0.061,0.549,-0.061,441.074
132310,146353,11931,-0.023,-0.955,-0.134,0.061,0.549,-0.061,441.08
132322,146265,38140,-0.021,-0.952,-0.137,0.122,0.183,0.061,441.084
132322,146359,11932,-0.022,-0.95,-0.136,0.122,0.183,0.061,441.09
132320,146265,38140,-0.022,-0.953,-0.137,-0.244,0.305,0.061,441.094
132320,146367,11939,-0.021,-0.951,-0.138,-0.244,0.305,0.061,441.1
132330,146265,38140,-0.026,-0.954,-0.142,-0.61,0.854,0.061,441.104
132330,146368,11942,-0.026,-0.955,-0.143,-0.61,0.854,0.061,441.11
132327,146265,38140,-0.03,-0.956,-0.141,-0.427,1.098,0.183,441.114
132327,146388,11950,-0.028,-0.954,-0.14,-0.427,1.098,0.183,441.12
132303,146265,38140,-0.027,-0.954,-0.139,0.061,0.732,0.244,441.124
132303,146369,11944,-0.029,-0.952,-0.135,0.061,0.732,0.244,441.13
132324,146265,38140,-0.029,-0.948,-0.137,0.366,0.366,0.488,441.134
132324,146353,11945,-0.028,-0.953,-0.134,0.366,0.366,0.488,441.14
132318,146265,38140,-0.027,-0.956,-0.131,0.488,0.183,0.488,441.143
132318,146359,11964,-0.029,-0.956,-0.134,0.488,0.183,0.488,441.15
132339,146265,38140,-0.032,-0.956,-0.136,-0.122,0.488,0.61,441.153
132339,146371,11949,-0.035,-0.955,-0.136,-0.122,0.488,0.61,441.16
132333,146265,38140,-0.036,-0.956,-0.135,-0.488,0.488,0.549,441.163
132333,146356,11956,-0.032,-0.958,-0.137,-0.488,0.488,0.549,441.169
132330,146265,38140,-0.03,-0.96,-0.141,-0.305,0.366,0.183,441.173
132330,146360,11931,-0.03,-0.959,-0.14,-0.305,0.366,0.183,441.179
132315,146265,38140,-0.027,-0.956,-0.139,-0.427,0.244,0.061,441.183
132315,146382,11943,-0.028,-0.958,-0.139,-0.427,0.244,0.061,441.189
132334,146265,38140,-0.023,-0.958,-0.139,-0.732,0,0.183,441.193
132334,146360,11924,-0.021,-0.958,-0.14,-0.732,0,0.183,441.199
132365,146265,38140,-0.021,-0.958,-0.14,-0.732,0,0.183,441.203
132365,146367,11952,-0.02,-0.96,-0.139,-0.976,0,0.061,441.209
132346,146265,38140,-0.02,-0.96,-0.139,-0.976,0,0.061,441.213
132346,146390,11950,-0.022,-0.953,-0.139,-0.671,0.122,0.061,441.219
132368,146265,38140,-0.022,-0.953,-0.139,-0.671,0.122,0.061,441.223
132368,146394,11946,-0.022,-0.953,-0.135,-0.061,0.122,0.305,441.229
132367,146265,38140,-0.022,-0.953,-0.135,-0.061,0.122,0.305,441.233
132367,146383,11938,-0.022,-0.948,-0.133,0.244,0.061,0.366,441.239
132335,146265,38140,-0.022,-0.948,-0.133,0.244,0.061,0.366,441.242
132335,146405,11958,-0.023,-0.951,-0.137,0.244,0.122,0.366,441.249
132355,146265,38140,-0.023,-0.951,-0.137,0.244,0.122,0.366,441.252
132355,146388,11943,-0.027,-0.954,-0.135,-0.305,0.122,0.549,441.259
132359,146265,38140,-0.027,-0.954,-0.135,-0.305,0.122,0.549,441.262
132359,146383,11958,-0.029,-0.96,-0.141,-0.427,0.305,0.61,441.268
132331,146265,38140,-0.029,-0.96,-0.141,-0.427,0.305,0.61,441.272
132331,146401,11944,-0.031,-0.953,-0.144,0.061,0.427,0.427,441.278
132334,146265,38140,-0.031,-0.953,-0.144,0.061,0.427,0.427,441.282
132334,146344,11960,-0.028,-0.958,-0.143,0.244,0.427,0.488,441.288
132296,146265,38140,-0.028,-0.958,-0.143,0.244,0.427,0.488,441.292
132296,146364,11951,-0.026,-0.953,-0.144,0.366,0.305,0.61,441.298
132312,146265,38140,-0.026,-0.953,-0.144,0.366,0.305,0.61,441.302
132312,146371,11951,-0.03,-0.953,-0.141,0.122,0.366,0.671,441.308
132301,146265,38140,-0.03,-0.953,-0.141,0.122,0.366,0.671,441.312
132301,146354,11948,-0.028,-0.962,-0.14,0,0.61,0.549,441.318
132303,146265,38140,-0.028,-0.962,-0.14,0,0.61,0.549,441.322
132303,146357,11942,-0.03,-0.962,-0.141,-0.183,0.732,0.244,441.328
132285,146265,38140,-0.03,-0.962,-0.141,-0.183,0.732,0.244,441.332
132285,146341,11930,-0.026,-0.963,-0.138,-0.305,0.488,0.244,441.338
132293,146265,38140,-0.026,-0.963,-0.138,-0.305,0.488,0.244,441.341
132293,146312,11940,-0.022,-0.959,-0.133,0.061,0.122,0.488,441.348
132303,146265,38140,-0.023,-0.953,-0.136,0.061,0.122,0.488,441.351
132303,146308,11940,-0.02,-0.952,-0.136,-0.061,0,0.366,441.358
132290,146265,38140,-0.019,-0.953,-0.135,-0.061,0,0.366,441.361
132290,146369,11930,-0.02,-0.952,-0.136,-0.183,0.183,0.183,441.367
132297,146265,38140,-0.023,-0.957,-0.137,-0.183,0.183,0.183,441.371
132297,146361,11951,-0.021,-0.956,-0.137,-0.427,0.488,-0.061,441.377
132317,146265,38140,-0.022,-0.953,-0.139,-0.427,0.488,-0.061,441.381
132317,146364,11947,-0.024,-0.954,-0.143,-0.61,0.549,0.122,441.387
132344,146265,38140,-0.028,-0.953,-0.141,-0.61,0.549,0.122,441.391
132344,146365,11947,-0.026,-0.955,-0.137,-0.305,0.305,0.366,441.397
132320,146265,38140,-0.021,-0.958,-0.136,-0.305,0.305,0.366,441.401
132320,146375,11942,-0.025,-0.957,-0.139,-0.427,0.427,0.183,441.407
132357,146265,38140,-0.024,-0.957,-0.138,-0.427,0.427,0.183,441.411
132357,146364,11946,-0.026,-0.959,-0.138,-0.366,0.61,0.366,441.417
132343,146265,38140,-0.031,-0.959,-0.139,-0.366,0.61,0.366,441.421
132343,146382,11939,-0.028,-0.959,-0.136,0,0.732,0.366,441.427
132342,146265,38140,-0.031,-0.953,-0.135,0,0.732,0.366,441.431
132342,146375,11956,-0.03,-0.953,-0.139,0.061,0.549,0.427,441.437
132338,146265,38140,-0.028,-0.952,-0.139,0.061,0.549,0.427,441.44
132338,146376,11948,-0.028,-0.952,-0.135,-0.366,0.366,0.427,441.447
132344,146265,38140,-0.024,-0.955,-0.137,-0.366,0.366,0.427,441.45
132344,146376,11946,-0.022,-0.956,-0.142,-0.549,0.366,0.183,441.457
132341,146265,38140,-0.027,-0.957,-0.141,-0.549,0.366,0.183,441.46
132341,146356,11952,-0.028,-0.954,-0.134,-0.427,0.305,0.183,441.466
132374,146265,38140,-0.024,-0.953,-0.136,-0.427,0.305,0.183,441.47
132374,146416,11937,-0.024,-0.955,-0.135,-0.183,0.366,0.366,441.476
132351,146265,38140,-0.024,-0.955,-0.137,-0.183,0.366,0.366,441.48
132351,146389,11957,-0.023,-0.954,-0.141,-0.244,0.305,0.305,441.486
132364,146265,38140,-0.026,-0.955,-0.14,-0.244,0.305,0.305,441.49
132364,146421,11944,-0.026,-0.956,-0.139,-0.122,0.305,0.366,441.496
132375,146265,38140,-0.026,-0.957,-0.135,-0.122,0.305,0.366,441.5
132375,146416,11942,-0.027,-0.958,-0.135,0.122,0.244,0.305,441.506
132377,146265,38140,-0.029,-0.955,-0.139,0.122,0.244,0.305,441.51
132377,146413,11957,-0.027,-0.953,-0.137,0.061,0.244,0.366,441.516
132396,146265,38140,-0.028,-0.953,-0.137,0.061,0.244,0.366,441.52
132396,146387,11950,-0.031,-0.955,-0.137,0.122,0.244,0.488,441.526
132379,146265,38140,-0.027,-0.957,-0.142,0.122,0.244,0.488,441.53
132379,146420,11962,-0.027,-0.956,-0.14,-0.366,0.244,0.244,441.536
132379,146265,38140,-0.029,-0.958,-0.141,-0.366,0.244,0.244,441.539
132379,146413,11950,-0.028,-0.96,-0.138,-0.671,0.244,0.305,441.546
132357,146265,38140,-0.029,-0.959,-0.142,-0.671,0.244,0.305,441.549
132357,146391,11971,-0.027,-0.959,-0.136,-0.183,0.244,0.366,441.556
132349,146265,38140,-0.028,-0.955,-0.135,-0.183,0.244,0.366,441.559
132349,146373,11952,-0.027,-0.955,-0.139,0,0.183,0.244,441.565
132335,146265,38140,-0.026,-0.956,-0.136,0,0.183,0.244,441.569
132335,146354,11940,-0.029,-0.958,-0.137,-0.366,0.122,0.244,441.575
132299,146265,38140,-0.025,-0.958,-0.135,-0.366,0.122,0.244,441.579
132299,146348,11925,-0.025,-0.956,-0.139,-0.549,0.122,0.183,441.585
132304,146265,38140,-0.024,-0.957,-0.138,-0.549,0.122,0.183,441.589
132304,146306,11946,-0.025,-0.954,-0.142,-0.488,0.183,0.183,441.595
132268,146265,38140,-0.026,-0.955,-0.144,-0.488,0.183,0.183,441.599
132268,146306,11934,-0.025,-0.953,-0.14,-0.488,0.244,0.244,441.605
132247,146265,38140,-0.021,-0.952,-0.147,-0.488,0.244,0.244,441.609
132247,146289,11926,-0.023,-0.954,-0.14,-0.305,0.122,0.122,441.615
132220,146265,38140,-0.024,-0.955,-0.143,-0.305,0.122,0.122,441.619
132220,146274,11926,-0.021,-0.954,-0.144,-0.427,0.244,0.183,441.625
132223,146265,38140,-0.026,-0.956,-0.143,-0.427,0.244,0.183,441.629
132223,146262,11931,-0.025,-0.955,-0.138,-0.122,0.183,0.549,441.635
132233,146265,38140,-0.021,-0.956,-0.141,-0.122,0.183,0.549,441.638
132233,146267,11932,-0.022,-0.955,-0.138,0.122,0.061,0.61,441.645
132229,146265,38140,-0.021,-0.955,-0.137,0.122,0.061,0.61,441.648
132229,146280,11936,-0.026,-0.959,-0.14,0.183,0.244,0.732,441.655
132255,146265,38140,-0.028,-0.957,-0.141,0.183,0.244,0.732,441.658
132255,146291,11920,-0.027,-0.956,-0.142,0.305,0.61,0.793,441.664
132260,146265,38140,-0.027,-0.958,-0.139,0.305,0.61,0.793,441.668
132260,146276,11935,-0.024,-0.956,-0.14,0.183,0.732,0.732,441.674
132252,146265,38140,-0.026,-0.954,-0.14,0.183,0.732,0.732,441.678
132252,146291,11925,-0.026,-0.953,-0.141,0,0.61,0.732,441.684
132261,146265,38140,-0.023,-0.958,-0.144,0,0.61,0.732,441.688
132261,146321,11935,-0.024,-0.96,-0.142,0,0.488,0.671,441.694
132274,146265,38140,-0.025,-0.957,-0.143,0,0.488,0.671,441.698
132274,146312,11929,-0.024,-0.957,-0.142,-0.122,0.732,0.488,441.704
132284,146265,38140,-0.024,-0.956,-0.146,-0.122,0.732,0.488,441.708
132284,146328,11933,-0.026,-0.958,-0.143,0.122,0.976,0.366,441.714
132278,146265,38140,-0.028,-0.958,-0.142,0.122,0.976,0.366,441.718
132278,146316,11932,-0.031,-0.958,-0.145,-0.061,0.854,0.366,441.724
132303,146265,38140,-0.03,-0.956,-0.144,-0.061,0.854,0.366,441.728
132303,146326,11936,-0.028,-0.959,-0.139,-0.122,0.61,0.427,441.734
132313,146265,38140,-0.029,-0.961,-0.135,-0.122,0.61,0.427,441.737
132313,146337,11948,-0.025,-0.959,-0.131,0.183,0.183,0.488,441.744
132324,146265,38140,-0.023,-0.955,-0.129,0.183,0.183,0.488,441.747
132324,146337,11942,-0.024,-0.956,-0.13,0.305,-0.061,0.671,441.754
132322,146265,38140,-0.021,-0.955,-0.13,0.305,-0.061,0.671,441.757
132322,146358,11937,-0.021,-0.956,-0.133,0.183,0.244,0.671,441.763
132335,146265,38140,-0.019,-0.954,-0.132,0.183,0.244,0.671,441.767
132335,146368,11943,-0.021,-0.955,-0.135,-0.427,0.427,0.427,441.773
132349,146265,38140,-0.024,-0.955,-0.133,-0.427,0.427,0.427,441.777
132349,146354,11948,-0.024,-0.951,-0.137,-0.549,0.488,0.305,441.783
132356,146265,38140,-0.024,-0.951,-0.137,-0.549,0.488,0.305,441.787
132356,146359,11945,-0.029,-0.956,-0.143,-0.366,0.61,0.427,441.793
132351,146265,38140,-0.029,-0.956,-0.143,-0.366,0.61,0.427,441.797
132351,146396,11943,-0.029,-0.957,-0.142,-0.61,0.732,0.427,441.803
132361,146265,38140,-0.029,-0.957,-0.142,-0.61,0.732,0.427,441.807
132361,146380,11953,-0.03,-0.961,-0.14,-0.854,0.549,0.427,441.813
132362,146265,38140,-0.03,-0.961,-0.14,-0.854,0.549,0.427,441.817
132362,146381,11959,-0.031,-0.957,-0.142,-0.671,0.427,0.427,441.823
132377,146265,38140,-0.031,-0.957,-0.142,-0.671,0.427,0.427,441.827
132377,146400,11942,-0.032,-0.955,-0.142,-0.488,0.488,0.427,441.833
132367,146265,38140,-0.032,-0.955,-0.142,-0.488,0.488,0.427,441.836
132367,146421,11958,-0.036,-0.954,-0.141,-0.305,0.488,0.305,441.843
132395,146265,38140,-0.036,-0.954,-0.141,-0.305,0.488,0.305,441.846
132395,146409,11978,-0.026,-0.952,-0.138,-0.183,0.061,0.366,441.853
132386,146265,38140,-0.026,-0.952,-0.138,-0.183,0.061,0.366,441.856
132386,146421,11949,-0.024,-0.953,-0.135,-0.305,-0.183,0.305,441.862
132403,146265,38140,-0.024,-0.953,-0.135,-0.305,-0.183,0.305,441.866
132403,146422,11950,-0.022,-0.956,-0.135,-0.61,-0.061,0.427,441.872
132436,146521,38140,-0.022,-0.956,-0.135,-0.61,-0.061,0.427,441.876
132436,146437,11961,-0.023,-0.951,-0.138,-0.732,0,0.61,441.882
132432,146521,38140,-0.023,-0.951,-0.138,-0.732,0,0.61,441.886
132432,146443,11961,-0.022,-0.956,-0.136,-0.427,0,0.61,441.892
132434,146521,38140,-0.022,-0.956,-0.136,-0.427,0,0.61,441.896
132434,146487,11959,-0.019,-0.955,-0.137,-0.305,0.061,0.427,441.902
132464,146521,38140,-0.019,-0.955,-0.137,-0.305,0.061,0.427,441.906
132464,146456,11959,-0.025,-0.956,-0.142,-0.244,0.122,0.732,441.912
132465,146521,38140,-0.025,-0.956,-0.142,-0.244,0.122,0.732,441.916
132465,146454,11965,-0.026,-0.954,-0.142,-0.244,0.122,0.793,441.922
132461,146521,38140,-0.026,-0.954,-0.142,-0.244,0.122,0.793,441.926
132461,146483,11966,-0.03,-0.955,-0.137,-0.244,0.122,0.793,441.932
132469,146521,38140,-0.029,-0.957,-0.138,0.366,0.183,0.732,441.935
132469,146457,11968,-0.027,-0.958,-0.136,0.366,0.183,0.732,441.942
132475,146521,38140,-0.027,-0.955,-0.142,0.427,0.122,0.732,441.945
132475,146463,11947,-0.028,-0.956,-0.141,0.427,0.122,0.732,441.952
132447,146521,38140,-0.033,-0.957,-0.137,0.061,0.244,0.671,441.955
132447,146468,11967,-0.029,-0.96,-0.141,0.061,0.244,0.671,441.961
132482,146521,38140,-0.03,-0.96,-0.144,-0.244,0.366,0.488,441.965
132482,146487,11954,-0.031,-0.96,-0.144,-0.244,0.366,0.488,441.971
132486,146521,38140,-0.034,-0.959,-0.147,-0.427,0.549,0.488,441.975
132486,146490,11975,-0.031,-0.959,-0.148,-0.427,0.549,0.488,441.981
132476,146521,38140,-0.032,-0.957,-0.15,-0.122,0.854,0.488,441.985
132476,146491,11966,-0.031,-0.955,-0.149,-0.122,0.854,0.488,441.991
132513,146521,38140,-0.032,-0.952,-0.151,0.061,0.671,0.366,441.995
132513,146529,11975,-0.03,-0.954,-0.148,0.061,0.671,0.366,442.001
132504,146521,38140,-0.026,-0.954,-0.145,-0.122,0.488,0.305,442.005
132504,146486,11968,-0.027,-0.952,-0.145,-0.122,0.488,0.305,442.011
132499,146521,38140,-0.023,-0.957,-0.142,-0.488,0.549,0.244,442.015
132499,146480,11973,-0.023,-0.96,-0.138,-0.488,0.549,0.244,442.021
132497,146521,38140,-0.022,-0.961,-0.136,-0.61,0.61,0.183,442.025
132497,146500,11974,-0.019,-0.958,-0.135,-0.61,0.61,0.183,442.031
132528,146521,38140,-0.022,-0.958,-0.134,-0.549,0.549,0.305,442.034
132528,146487,11974,-0.019,-0.959,-0.132,-0.549,0.549,0.305,442.041
132507,146521,38140,-0.018,-0.954,-0.133,-0.122,0.61,0.244,442.044
132507,146494,11971,-0.021,-0.951,-0.132,-0.122,0.61,0.244,442.051
132515,146521,38140,-0.025,-0.947,-0.13,0.366,0.732,0.244,442.054
132515,146523,11974,-0.024,-0.944,-0.132,0.366,0.732,0.244,442.06
132518,146521,38140,-0.023,-0.947,-0.136,0.244,0.793,0.305,442.064
132518,146526,11973,-0.023,-0.945,-0.136,0.244,0.793,0.305,442.07
132516,146521,38140,-0.023,-0.948,-0.137,-0.488,0.732,0.549,442.074
132516,146524,11980,-0.026,-0.953,-0.14,-0.488,0.732,0.549,442.08
132540,146521,38140,-0.029,-0.954,-0.138,-1.159,0.793,0.732,442.084
132540,146511,11973,-0.027,-0.956,-0.144,-1.159,0.793,0.732,442.09
132519,146521,38140,-0.032,-0.962,-0.141,-0.793,0.976,0.793,442.094
132519,146541,11982,-0.032,-0.96,-0.139,-0.793,0.976,0.793,442.1
132522,146521,38140,-0.029,-0.958,-0.142,-0.244,0.61,0.671,442.104
132522,146493,11979,-0.033,-0.959,-0.136,-0.244,0.61,0.671,442.11
132532,146521,38140,-0.033,-0.957,-0.137,-0.122,0.427,0.915,442.114
132532,146519,11974,-0.032,-0.955,-0.135,-0.122,0.427,0.915,442.12
132514,146521,38140,-0.028,-0.956,-0.135,-0.061,0.366,0.793,442.124
132514,146509,11974,-0.025,-0.958,-0.135,-0.061,0.366,0.793,442.13
132535,146521,38140,-0.028,-0.956,-0.136,-0.061,0.244,0.549,442.133
132535,146509,11984,-0.025,-0.955,-0.137,-0.061,0.244,0.549,442.14
132517,146521,38140,-0.026,-0.956,-0.133,-0.244,0.244,0.427,442.143
132517,146516,11977,-0.032,-0.957,-0.132,-0.244,0.244,0.427,442.15
132521,146521,38140,-0.028,-0.958,-0.13,-0.061,0.183,0.488,442.153
132521,146508,11973,-0.03,-0.954,-0.13,-0.061,0.183,0.488,442.159
132530,146521,38140,-0.029,-0.956,-0.125,0.183,-0.061,0.366,442.163
132530,146499,11979,-0.027,-0.955,-0.126,0.183,-0.061,0.366,442.169
132510,146521,38140,-0.028,-0.951,-0.131,0.244,-0.366,0.488,442.173
132510,146509,11980,-0.028,-0.951,-0.131,0.244,-0.366,0.488,442.179
132517,146521,38140,-0.027,-0.952,-0.128,-0.183,-0.305,0.549,442.183
132517,146494,11963,-0.027,-0.953,-0.13,-0.183,-0.305,0.549,442.189
132531,146521,38140,-0.028,-0.955,-0.136,-0.549,0,0.366,442.193
132531,146481,11964,-0.03,-0.958,-0.141,-0.549,0,0.366,442.199
132510,146521,38140,-0.032,-0.959,-0.144,-1.098,0.183,0.183,442.203
132510,146503,11980,-0.029,-0.962,-0.14,-1.098,0.183,0.183,442.209
132519,146521,38140,-0.03,-0.963,-0.141,-1.463,0,0.122,442.213
132519,146496,11971,-0.032,-0.961,-0.145,-1.463,0,0.122,442.219
132490,146521,38140,-0.03,-0.96,-0.144,-1.768,-0.122,0,442.223
132490,146470,11973,-0.029,-0.964,-0.145,-1.768,-0.122,0,442.229
132489,146521,38140,-0.029,-0.964,-0.147,-1.524,-0.244,-0.122,442.232
132489,146501,11970,-0.025,-0.961,-0.144,-1.524,-0.244,-0.122,442.239
132521,146521,38140,-0.026,-0.959,-0.14,-1.159,-0.366,-0.305,442.242
132521,146478,11954,-0.026,-0.954,-0.142,-1.159,-0.366,-0.305,442.249
132503,146521,38140,-0.028,-0.952,-0.147,-1.159,-0.244,-0.061,442.252
132503,146474,11969,-0.026,-0.949,-0.142,-1.159,-0.244,-0.061,442.258
132515,146521,38140,-0.025,-0.948,-0.146,-0.915,-0.061,-0.061,442.262
132515,146481,11974,-0.028,-0.947,-0.149,-0.915,-0.061,-0.061,442.268
132504,146521,38140,-0.026,-0.951,-0.147,-0.732,-0.122,-0.183,442.272
132504,146453,11962,-0.022,-0.953,-0.144,-0.732,-0.122,-0.183,442.278
132525,146521,38140,-0.024,-0.951,-0.144,-0.549,-0.244,0.244,442.282
132525,146467,11944,-0.023,-0.95,-0.148,-0.549,-0.244,0.244,442.288
132493,146521,38140,-0.019,-0.953,-0.147,-0.427,-0.183,0.549,442.292
132493,146453,11966,-0.026,-0.953,-0.14,-0.427,-0.183,0.549,442.298
132469,146521,38140,-0.025,-0.952,-0.144,-0.183,0,0.732,442.302
132469,146491,11961,-0.025,-0.954,-0.142,-0.183,0,0.732,442.308
132462,146521,38140,-0.025,-0.956,-0.142,0.122,0.061,0.732,442.312
132462,146459,11968,-0.023,-0.956,-0.139,0.122,0.061,0.732,442.318
132455,146521,38140,-0.028,-0.958,-0.136,0.305,0.122,0.976,442.322
132455,146465,11950,-0.027,-0.956,-0.139,0.305,0.122,0.976,442.328
132493,146521,38140,-0.025,-0.957,-0.137,0.122,0,0.976,442.331
132493,146455,11959,-0.025,-0.957,-0.137,0.122,0,0.976,442.338
132497,146521,38140,-0.024,-0.958,-0.137,-0.122,0.061,0.793,442.341
132497,146478,11957,-0.024,-0.96,-0.138,-0.122,0.061,0.793,442.348
132514,146521,38140,-0.022,-0.962,-0.137,-0.305,0.244,0.732,442.351
132514,146468,11961,-0.022,-0.961,-0.14,-0.305,0.244,0.732,442.357
132485,146521,38140,-0.026,-0.961,-0.142,-0.183,0.549,0.549,442.361
132485,146475,11968,-0.028,-0.963,-0.143,-0.183,0.549,0.549,442.367
132490,146521,38140,-0.028,-0.963,-0.143,-0.183,0.549,0.549,442.371
132490,146446,11954,-0.03,-0.959,-0.144,-0.305,0.671,0.366,442.377
132496,146521,38140,-0.03,-0.959,-0.144,-0.305,0.671,0.366,442.381
132496,146482,11967,-0.031,-0.963,-0.145,-0.427,0.793,0.244,442.387
132503,146521,38140,-0.031,-0.963,-0.145,-0.427,0.793,0.244,442.391
132503,146473,11967,-0.028,-0.958,-0.147,-0.305,0.671,0.122,442.397
132491,146521,38140,-0.028,-0.958,-0.147,-0.305,0.671,0.122,442.401
132491,146449,11962,-0.027,-0.949,-0.142,-0.061,0.366,0.244,442.407
132487,146521,38140,-0.027,-0.949,-0.142,-0.061,0.366,0.244,442.411
132487,146492,11952,-0.022,-0.949,-0.135,0.366,0.183,0.244,442.417
132490,146521,38140,-0.022,-0.949,-0.135,0.366,0.183,0.244,442.421
132490,146449,11938,-0.025,-0.951,-0.14,0.366,0.244,0.061,442.427
132469,146521,38140,-0.025,-0.951,-0.14,0.366,0.244,0.061,442.43
132469,146432,11959,-0.028,-0.954,-0.142,-0.122,0.732,0.244,442.437
132468,146265,38140,-0.028,-0.954,-0.142,-0.122,0.732,0.244,442.44
132468,146429,11949,-0.029,-0.953,-0.137,0.061,0.915,0.549,442.447
132462,146521,38140,-0.029,-0.953,-0.137,0.061,0.915,0.549,442.45
132462,146462,11945,-0.027,-0.952,-0.137,0.488,0.61,0.61,442.456
132483,146521,38140,-0.027,-0.952,-0.137,0.488,0.61,0.61,442.46
132483,146447,11934,-0.031,-0.956,-0.139,0.366,0.305,0.732,442.466
132487,146521,38140,-0.031,-0.956,-0.139,0.366,0.305,0.732,442.47
132487,146434,11952,-0.036,-0.964,-0.139,0,0.61,0.915,442.476
132480,146521,38140,-0.036,-0.964,-0.139,0,0.61,0.915,442.48
132480,146468,11943,-0.036,-0.962,-0.141,-0.122,0.793,0.732,442.486
132498,146521,38140,-0.036,-0.962,-0.141,-0.122,0.793,0.732,442.49
132498,146471,11962,-0.038,-0.957,-0.137,0.061,0.61,0.61,442.496
132495,146521,38140,-0.038,-0.957,-0.137,0.061,0.61,0.61,442.5
132495,146472,11956,-0.029,-0.955,-0.134,0.183,0.122,0.61,442.506
132515,146521,38140,-0.029,-0.955,-0.134,0.183,0.122,0.61,442.51
132515,146463,11951,-0.025,-0.951,-0.132,-0.122,-0.244,0.366,442.516
132491,146521,38140,-0.025,-0.951,-0.132,-0.122,-0.244,0.366,442.52
132491,146473,11951,-0.025,-0.955,-0.132,-0.732,-0.183,0,442.526
132540,146521,38140,-0.023,-0.954,-0.132,-0.732,-0.183,0,442.529
132540,146451,11949,-0.023,-0.955,-0.135,-1.28,0.183,0,442.536
132500,146521,38140,-0.023,-0.953,-0.14,-1.28,0.183,0,442.539
132500,146475,11956,-0.021,-0.957,-0.141,-1.341,0.305,-0.061,442.546
132512,146521,38140,-0.02,-0.956,-0.143,-1.341,0.305,-0.061,442.549
132512,146464,11958,-0.022,-0.955,-0.146,-0.732,0.183,0.122,442.555
132513,146521,38140,-0.022,-0.952,-0.144,-0.732,0.183,0.122,442.559
132513,146487,11947,-0.024,-0.952,-0.141,-0.488,0.061,0.427,442.565
132517,146521,38140,-0.022,-0.955,-0.139,-0.488,0.061,0.427,442.569
132517,146471,11955,-0.019,-0.953,-0.143,-0.305,0.061,0.427,442.575
132490,146521,38140,-0.023,-0.955,-0.143,-0.305,0.061,0.427,442.579
132490,146479,11937,-0.026,-0.959,-0.142,-0.366,0.305,0.488,442.585
132477,146521,38140,-0.025,-0.959,-0.145,-0.366,0.305,0.488,442.589
132477,146454,11965,-0.03,-0.96,-0.15,-0.366,0.488,0.61,442.595
132482,146265,38140,-0.033,-0.961,-0.143,-0.366,0.488,0.61,442.599
132482,146430,11940,-0.03,-0.96,-0.148,-0.183,0.427,0.549,442.605
132472,146521,38140,-0.026,-0.959,-0.146,-0.183,0.427,0.549,442.609
132472,146446,11939,-0.031,-0.959,-0.145,0.305,0.427,0.61,442.615
132474,146521,38140,-0.033,-0.957,-0.143,0.305,0.427,0.61,442.619
132474,146441,11922,-0.033,-0.956,-0.142,0.854,0.61,0.61,442.625
132479,146265,38140,-0.031,-0.953,-0.138,0.854,0.61,0.61,442.628
132479,146421,11944,-0.03,-0.954,-0.142,0.61,0.61,0.244,442.635
132467,146265,38140,-0.031,-0.955,-0.142,0.61,0.61,0.244,442.638
132467,146422,11942,-0.032,-0.96,-0.143,0.122,0.549,0.305,442.645
132472,146521,38140,-0.034,-0.96,-0.14,0.122,0.549,0.305,442.648
132472,146443,11958,-0.032,-0.958,-0.14,0.122,0.793,0.427,442.654
132477,146521,38140,-0.029,-0.958,-0.141,0.122,0.793,0.427,442.658
132477,146460,11939,-0.03,-0.958,-0.138,0.61,0.549,0.305,442.664
132466,146521,38140,-0.03,-0.953,-0.138,0.61,0.549,0.305,442.668
132466,146453,11953,-0.029,-0.953,-0.136,0.854,0.183,0.549,442.674
132481,146521,38140,-0.026,-0.952,-0.138,0.854,0.183,0.549,442.678
132481,146452,11949,-0.027,-0.952,-0.136,0.488,0.183,0.427,442.684
132481,146265,38140,-0.027,-0.957,-0.138,0.488,0.183,0.427,442.688
132481,146426,11927,-0.02,-0.96,-0.141,-0.183,0.549,0.305,442.694
132472,146265,38140,-0.023,-0.957,-0.141,-0.183,0.549,0.305,442.698
132472,146431,11934,-0.026,-0.958,-0.139,-0.488,0.671,0.366,442.704
132477,146521,38140,-0.027,-0.96,-0.135,-0.488,0.671,0.366,442.708
132477,146462,11938,-0.023,-0.957,-0.135,0.183,0.549,0.366,442.714
132484,146521,38140,-0.025,-0.952,-0.138,0.183,0.549,0.366,442.718
132484,146438,11917,-0.026,-0.952,-0.139,0.61,0.305,0.488,442.724
132479,146265,38140,-0.025,-0.949,-0.135,0.61,0.305,0.488,442.727
132479,146428,11936,-0.022,-0.948,-0.14,0.549,0.305,0.488,442.734
132468,146521,38140,-0.023,-0.948,-0.138,0.549,0.305,0.488,442.737
132468,146447,11958,-0.024,-0.953,-0.14,-0.183,0.671,0.427,442.743
132466,146265,38140,-0.027,-0.954,-0.138,-0.183,0.671,0.427,442.747
132466,146411,11934,-0.028,-0.958,-0.138,-0.854,0.793,0.427,442.753
132449,146265,38140,-0.03,-0.96,-0.139,-0.854,0.793,0.427,442.757
132449,146406,11944,-0.029,-0.961,-0.141,-0.671,0.61,0.183,442.763
132467,146265,38140,-0.03,-0.962,-0.142,-0.671,0.61,0.183,442.767
132467,146424,11945,-0.031,-0.961,-0.139,-0.549,0.549,0.183,442.773
132443,146521,38140,-0.028,-0.96,-0.138,-0.549,0.549,0.183,442.777
132443,146435,11941,-0.029,-0.962,-0.134,-0.122,0.549,0.244,442.783
132460,146265,38140,-0.028,-0.958,-0.14,-0.122,0.549,0.244,442.787
132460,146399,11945,-0.026,-0.95,-0.139,-0.122,0.366,0.061,442.793
132447,146265,38140,-0.024,-0.955,-0.137,-0.122,0.366,0.061,442.797
132447,146423,11958,-0.024,-0.955,-0.137,-0.366,0.549,0.183,442.803
132460,146265,38140,-0.023,-0.955,-0.138,-0.366,0.549,0.183,442.807
132460,146414,11946,-0.025,-0.952,-0.142,-0.793,0.793,0.122,442.813
132449,146265,38140,-0.026,-0.951,-0.142,-0.793,0.793,0.122,442.817
132449,146401,11940,-0.028,-0.956,-0.143,-0.793,0.915,0.061,442.823
132450,146265,38140,-0.03,-0.958,-0.144,-0.793,0.915,0.061,442.826
132450,146427,11941,-0.028,-0.958,-0.141,0,1.037,0.244,442.833
132458,146265,38140,-0.029,-0.954,-0.136,0,1.037,0.244,442.836
132458,146424,11947,-0.031,-0.951,-0.139,0.549,0.854,0.427,442.842
132475,146265,38140,-0.032,-0.951,-0.137,0.549,0.854,0.427,442.846
132475,146404,11939,-0.034,-0.953,-0.134,0.549,0.61,0.549,442.852
132468,146265,38140,-0.031,-0.954,-0.133,0.549,0.61,0.549,442.856
132468,146386,11943,-0.029,-0.956,-0.133,0.305,0.549,0.366,442.862
132461,146265,38140,-0.03,-0.96,-0.135,0.305,0.549,0.366,442.866
132461,146407,11934,-0.032,-0.962,-0.137,-0.305,0.671,0.305,442.872
132463,146265,38140,-0.034,-0.959,-0.139,-0.305,0.671,0.305,442.876
132463,146378,11942,-0.034,-0.959,-0.138,-0.244,0.549,0.366,442.882
132446,146265,38140,-0.035,-0.958,-0.135,-0.244,0.549,0.366,442.886
132446,146409,11913,-0.032,-0.954,-0.14,0.183,0.122,0.061,442.892
132434,146265,38140,-0.03,-0.958,-0.143,0.183,0.122,0.061,442.896
132434,146402,11931,-0.03,-0.958,-0.142,0.427,0.122,0.122,442.902
132463,146265,38140,-0.027,-0.954,-0.139,0.427,0.122,0.122,442.906
132463,146365,11941,-0.025,-0.952,-0.139,0.366,0.061,0.244,442.912
132426,146265,38140,-0.026,-0.952,-0.14,0.366,0.061,0.244,442.916
132426,146404,11943,-0.026,-0.953,-0.141,-0.061,0,0.244,442.922
132422,146265,38140,-0.028,-0.956,-0.14,-0.061,0,0.244,442.925
132422,146398,11936,-0.026,-0.957,-0.138,-0.122,0,0.244,442.932
132419,146265,38140,-0.027,-0.958,-0.134,-0.122,0,0.244,442.935
132419,146372,11925,-0.027,-0.954,-0.137,0.122,0.122,0.183,442.941
132383,146265,38140,-0.025,-0.95,-0.141,0.122,0.122,0.183,442.945
132383,146375,11941,-0.023,-0.953,-0.137,0.305,0.061,0.366,442.951
132406,146265,38140,-0.022,-0.954,-0.137,0.305,0.061,0.366,442.955
132406,146371,11914,-0.021,-0.955,-0.137,-0.122,-0.122,0.488,442.961
132413,146265,38140,-0.021,-0.955,-0.137,-0.122,-0.122,0.488,442.965
132413,146386,11924,-0.022,-0.959,-0.137,-0.427,0.183,0.366,442.971
132425,146265,38140,-0.022,-0.959,-0.137,-0.427,0.183,0.366,442.975
132425,146362,11922,-0.024,-0.961,-0.139,-0.488,0.549,0.244,442.981
132411,146265,38140,-0.024,-0.961,-0.139,-0.488,0.549,0.244,442.985
132411,146366,11934,-0.028,-0.956,-0.144,-0.122,0.549,0.305,442.991
132416,146265,38140,-0.028,-0.956,-0.144,-0.122,0.549,0.305,442.995
132416,146373,11930,-0.026,-0.957,-0.141,0.427,0.427,0.183,443.001
132412,146265,38140,-0.026,-0.957,-0.141,0.427,0.427,0.183,443.005
132412,146400,11914,-0.025,-0.952,-0.141,0.305,0.427,0.061,443.011
132419,146265,38140,-0.025,-0.952,-0.141,0.305,0.427,0.061,443.015
132419,146353,11917,-0.025,-0.954,-0.148,-0.427,0.549,0,443.021
132420,146265,38140,-0.025,-0.954,-0.148,-0.427,0.549,0,443.024
132420,146394,11934,-0.025,-0.96,-0.146,-0.549,0.793,-0.183,443.031
132416,146265,38140,-0.025,-0.96,-0.146,-0.549,0.793,-0.183,443.034
132416,146387,11919,-0.028,-0.961,-0.142,-0.671,1.037,-0.183,443.04
132444,146265,38140,-0.028,-0.961,-0.142,-0.671,1.037,-0.183,443.044
132444,146402,11910,-0.03,-0.958,-0.145,-0.488,1.098,0.061,443.05
132420,146265,38140,-0.03,-0.958,-0.145,-0.488,1.098,0.061,443.054
132420,146368,11927,-0.025,-0.959,-0.142,0.366,0.732,0,443.06
132433,146265,38140,-0.025,-0.959,-0.142,0.366,0.732,0,443.064
132433,146380,11900,-0.021,-0.949,-0.135,0.488,0.427,-0.122,443.07
132417,146265,38140,-0.021,-0.949,-0.135,0.488,0.427,-0.122,443.074
132417,146382,11927,-0.019,-0.949,-0.134,-0.061,0.61,0.061,443.08
132427,146265,38140,-0.019,-0.949,-0.134,-0.061,0.61,0.061,443.084
132427,146388,11915,-0.019,-0.951,-0.138,-0.549,1.159,0.122,443.09
132415,146265,38140,-0.019,-0.951,-0.138,-0.549,1.159,0.122,443.094
132415,146387,11917,-0.022,-0.955,-0.138,-0.427,1.159,0.244,443.1
132428,146265,38140,-0.022,-0.955,-0.138,-0.427,1.159,0.244,443.104
132428,146379,11921,-0.026,-0.952,-0.134,-0.427,1.159,0.244,443.11
132417,146265,38140,-0.022,-0.955,-0.136,0.061,0.854,0.549,443.114
132417,146394,11902,-0.024,-0.954,-0.138,0.061,0.854,0.549,443.12
132423,146265,38140,-0.028,-0.955,-0.132,0.549,0.732,0.915,443.123
132423,146367,11924,-0.028,-0.957,-0.128,0.549,0.732,0.915,443.13
132414,146265,38140,-0.029,-0.954,-0.135,0.61,0.61,1.037,443.133
132414,146371,11918,-0.029,-0.955,-0.136,0.61,0.61,1.037,443.14
132408,146265,38140,-0.032,-0.958,-0.135,0.183,0.488,0.976,443.143
132408,146357,11912,-0.033,-0.96,-0.134,0.183,0.488,0.976,443.149
132436,146265,38140,-0.033,-0.959,-0.134,0.61,0.244,0.793,443.153
132436,146378,11895,-0.033,-0.956,-0.129,0.61,0.244,0.793,443.159
132403,146265,38140,-0.034,-0.955,-0.131,0.61,0.183,0.61,443.163
132403,146358,11915,-0.034,-0.955,-0.132,0.61,0.183,0.61,443.169
132416,146265,38140,-0.032,-0.952,-0.132,0.122,0,0.61,443.173
132416,146362,11910,-0.03,-0.958,-0.137,0.122,0,0.61,443.179
132405,146265,38140,-0.026,-0.959,-0.134,-0.488,-0.305,0.488,443.183
132405,146369,11910,-0.024,-0.959,-0.135,-0.488,-0.305,0.488,443.189
132417,146265,38140,-0.026,-0.957,-0.139,-0.915,-0.305,0.488,443.193
132417,146378,11915,-0.026,-0.958,-0.135,-0.915,-0.305,0.488,443.199
132414,146265,38140,-0.023,-0.959,-0.133,-0.549,-0.305,0.427,443.203
132414,146363,11890,-0.021,-0.958,-0.132,-0.549,-0.305,0.427,443.209
132397,146265,38140,-0.022,-0.956,-0.135,-0.305,-0.427,0.183,443.213
132397,146373,11916,-0.023,-0.951,-0.134,-0.305,-0.427,0.183,443.219
132402,146265,38140,-0.02,-0.95,-0.134,-0.305,-0.549,0.244,443.222
132402,146363,11901,-0.023,-0.952,-0.138,-0.305,-0.549,0.244,443.229
132430,146265,38140,-0.022,-0.959,-0.141,-0.488,-0.366,0.305,443.232
132430,146361,11918,-0.023,-0.956,-0.144,-0.488,-0.366,0.305,443.238
132413,146265,38140,-0.027,-0.96,-0.149,-0.671,-0.061,0.122,443.242
132413,146365,11906,-0.028,-0.962,-0.146,-0.671,-0.061,0.122,443.248
132388,146265,38140,-0.03,-0.959,-0.146,-0.366,-0.061,0.244,443.252
132388,146361,11911,-0.029,-0.955,-0.144,-0.366,-0.061,0.244,443.258
132395,146265,38140,-0.029,-0.956,-0.142,0,-0.427,0.366,443.262
132395,146336,11903,-0.026,-0.956,-0.14,0,-0.427,0.366,443.268
132401,146265,38140,-0.026,-0.958,-0.141,0.488,-0.305,0.183,443.272
132401,146338,11898,-0.028,-0.958,-0.14,0.488,-0.305,0.183,443.278
132394,146265,38140,-0.031,-0.955,-0.142,0.427,0.183,0.061,443.282
132394,146358,11914,-0.031,-0.954,-0.143,0.427,0.183,0.061,443.288
132398,146265,38140,-0.034,-0.955,-0.143,0,0.549,0.122,443.292
132398,146386,11923,-0.036,-0.956,-0.142,0,0.549,0.122,443.298
132406,146265,38140,-0.032,-0.961,-0.141,-0.549,0.549,0,443.302
132406,146367,11914,-0.03,-0.963,-0.142,-0.549,0.549,0,443.308
132413,146265,38140,-0.03,-0.964,-0.141,-0.732,0.488,-0.183,443.311
132413,146361,11925,-0.031,-0.959,-0.144,-0.732,0.488,-0.183,443.318
132428,146265,38140,-0.031,-0.953,-0.14,-0.305,0.488,0,443.321
132428,146375,11928,-0.028,-0.956,-0.138,-0.305,0.488,0,443.328
132405,146265,38140,-0.028,-0.954,-0.142,0.427,0.427,0,443.331
132405,146345,11927,-0.025,-0.953,-0.143,0.427,0.427,0,443.337
132408,146265,38140,-0.024,-0.95,-0.138,0.427,0.366,0,443.341
132408,146380,11906,-0.025,-0.946,-0.136,0.427,0.366,0,443.347
132416,146265,38140,-0.023,-0.948,-0.141,0.061,0.427,0.244,443.351
132416,146370,11915,-0.022,-0.951,-0.139,0.061,0.427,0.244,443.357
132432,146265,38140,-0.024,-0.953,-0.134,-0.183,0.61,0.244,443.361
132432,146390,11915,-0.023,-0.955,-0.137,-0.183,0.61,0.244,443.367
132435,146265,38140,-0.023,-0.956,-0.138,-0.305,0.549,0.244,443.371
132435,146381,11910,-0.024,-0.957,-0.136,-0.305,0.549,0.244,443.377
132464,146265,38140,-0.023,-0.958,-0.138,0,0.61,0.244,443.381
132464,146391,11922,-0.027,-0.957,-0.138,0,0.61,0.244,443.387
132455,146265,38140,-0.028,-0.959,-0.137,0.305,0.976,0.366,443.391
132455,146415,11915,-0.026,-0.96,-0.139,0.305,0.976,0.366,443.397
132459,146265,38140,-0.029,-0.959,-0.137,-0.061,0.976,0.366,443.401
132459,146407,11911,-0.028,-0.961,-0.135,-0.061,0.976,0.366,443.407
132469,146265,38140,-0.027,-0.961,-0.137,-0.61,0.732,0.305,443.411
132469,146397,11917,-0.027,-0.961,-0.138,-0.61,0.732,0.305,443.417
132426,146265,38140,-0.029,-0.959,-0.139,-0.732,0.793,0.305,443.42
132426,146396,11919,-0.029,-0.957,-0.138,-0.732,0.793,0.305,443.427
132440,146265,38140,-0.033,-0.956,-0.138,-0.183,0.915,0.183,443.43
132440,146394,11921,-0.028,-0.953,-0.136,-0.183,0.915,0.183,443.436
132432,146265,38140,-0.028,-0.952,-0.136,0,0.671,-0.061,443.44
132432,146385,11924,-0.026,-0.957,-0.136,0,0.671,-0.061,443.446
132429,146265,38140,-0.022,-0.953,-0.138,-0.244,0.61,0,443.45
132429,146400,11920,-0.026,-0.954,-0.136,-0.244,0.61,0,443.456
132438,146265,38140,-0.022,-0.953,-0.137,-0.671,0.488,0,443.46
132438,146376,11906,-0.022,-0.954,-0.137,-0.671,0.488,0,443.466
132426,146265,38140,-0.022,-0.952,-0.141,-0.366,0.61,0,443.47
132426,146362,11930,-0.024,-0.951,-0.137,-0.366,0.61,0,443.476
132407,146265,38140,-0.026,-0.955,-0.135,0.183,0.61,0.183,443.48
132407,146373,11912,-0.025,-0.956,-0.134,0.183,0.61,0.183,443.486
132414,146265,38140,-0.023,-0.954,-0.131,0.122,0.366,0.244,443.49
132414,146346,11919,-0.024,-0.952,-0.133,0.122,0.366,0.244,443.496
132449,146265,38140,-0.022,-0.953,-0.134,0,0.305,0.427,443.5
132449,146377,11892,-0.024,-0.955,-0.132,0,0.305,0.427,443.506
132426,146265,38140,-0.025,-0.954,-0.133,0.244,0.61,0.549,443.509
132426,146363,11920,-0.028,-0.958,-0.135,0.244,0.61,0.549,443.516
132417,146265,38140,-0.028,-0.959,-0.135,0.061,0.671,0.427,443.519
132417,146352,11916,-0.026,-0.96,-0.137,0.061,0.671,0.427,443.526
132420,146265,38140,-0.026,-0.959,-0.139,-0.732,0.488,0.427,443.529
132420,146367,11907,-0.028,-0.959,-0.14,-0.732,0.488,0.427,443.535
132392,146265,38140,-0.028,-0.961,-0.139,-0.854,0.549,0.366,443.539
132392,146338,11918,-0.026,-0.959,-0.139,-0.854,0.549,0.366,443.545
132419,146265,38140,-0.026,-0.959,-0.139,-0.854,0.549,0.366,443.549
132419,146342,11901,-0.027,-0.956,-0.137,-0.183,0.61,0.183,443.555
132400,146265,38140,-0.027,-0.956,-0.137,-0.183,0.61,0.183,443.559
132400,146347,11915,-0.03,-0.953,-0.142,0,0.427,0.061,443.565
132385,146265,38140,-0.03,-0.953,-0.142,0,0.427,0.061,443.569
132385,146355,11910,-0.024,-0.954,-0.138,-0.305,0.183,0.183,443.575
132408,146265,38140,-0.024,-0.954,-0.138,-0.305,0.183,0.183,443.579
132408,146336,11898,-0.024,-0.953,-0.139,-0.244,0.122,0.183,443.585
132402,146265,38140,-0.024,-0.953,-0.139,-0.244,0.122,0.183,443.589
132402,146357,11911,-0.025,-0.954,-0.138,-0.183,0.305,0.183,443.595
132394,146265,38140,-0.025,-0.954,-0.138,-0.183,0.305,0.183,443.599
132394,146328,11912,-0.023,-0.953,-0.141,-0.305,0.305,0.244,443.605
132407,146265,38140,-0.023,-0.953,-0.141,-0.305,0.305,0.244,443.608
132407,146347,11903,-0.024,-0.954,-0.14,-0.427,0.366,0.427,443.615
132391,146265,38140,-0.024,-0.954,-0.14,-0.427,0.366,0.427,443.618
132391,146347,11909,-0.021,-0.954,-0.138,-0.244,0.305,0.366,443.625
132414,146265,38140,-0.021,-0.954,-0.138,-0.244,0.305,0.366,443.628
132414,146343,11902,-0.023,-0.956,-0.137,0,0.305,0.366,443.634
132397,146265,38140,-0.023,-0.956,-0.137,0,0.305,0.366,443.638
132397,146345,11909,-0.022,-0.961,-0.135,0,0.244,0.488,443.644
132398,146265,38140,-0.022,-0.961,-0.135,0,0.244,0.488,443.648
132398,146335,11877,-0.026,-0.957,-0.14,-0.366,0.427,0.427,443.654
132403,146265,38140,-0.026,-0.957,-0.14,-0.366,0.427,0.427,443.658
132403,146339,11908,-0.027,-0.96,-0.14,-0.549,0.549,0.549,443.664
132393,146265,38140,-0.027,-0.96,-0.14,-0.549,0.549,0.549,443.668
132393,146353,11899,-0.026,-0.95,-0.14,0.366,0.671,0.488,443.674
132396,146265,38140,-0.026,-0.95,-0.14,0.366,0.671,0.488,443.678
132396,146342,11896,-0.027,-0.949,-0.137,0.366,0.488,0.488,443.684
132401,146265,38140,-0.027,-0.949,-0.137,0.366,0.488,0.488,443.688
132401,146341,11906,-0.028,-0.955,-0.141,0,0.488,0.549,443.694
132424,146265,38140,-0.023,-0.956,-0.136,0,0.488,0.549,443.698
132424,146383,11899,-0.021,-0.955,-0.139,-0.427,0.427,0.366,443.704
132388,146265,38140,-0.024,-0.96,-0.144,-0.427,0.427,0.366,443.708
132388,146341,11892,-0.026,-0.961,-0.146,-0.244,0.793,0.427,443.714
132428,146265,38140,-0.026,-0.957,-0.143,-0.244,0.793,0.427,443.717
132428,146358,11903,-0.029,-0.958,-0.147,0.061,0.976,0.488,443.724
132431,146265,38140,-0.029,-0.958,-0.139,0.061,0.976,0.488,443.727
132431,146374,11913,-0.026,-0.957,-0.137,0.427,0.732,0.427,443.733
132423,146265,38140,-0.029,-0.958,-0.139,0.427,0.732,0.427,443.737
132423,146375,11915,-0.03,-0.959,-0.14,0.488,0.366,0.305,443.743
132461,146265,38140,-0.029,-0.961,-0.136,0.488,0.366,0.305,443.747
132461,146392,11905,-0.026,-0.958,-0.134,0.488,0.244,0.122,443.753
132442,146265,38140,-0.027,-0.959,-0.134,0.488,0.244,0.122,443.757
132442,146365,11898,-0.026,-0.956,-0.135,0.366,0.305,0.061,443.763
132440,146265,38140,-0.024,-0.956,-0.133,0.366,0.305,0.061,443.767
132440,146388,11903,-0.019,-0.955,-0.133,0,0.366,0,443.773
132456,146265,38140,-0.021,-0.954,-0.134,0,0.366,0,443.777
132456,146387,11900,-0.023,-0.952,-0.139,-0.671,0.671,0.122,443.783
132441,146265,38140,-0.022,-0.955,-0.141,-0.671,0.671,0.122,443.787
132441,146386,11899,-0.021,-0.953,-0.139,-0.549,0.854,0.183,443.793
132451,146265,38140,-0.021,-0.955,-0.137,-0.549,0.854,0.183,443.797
132451,146391,11917,-0.025,-0.953,-0.143,-0.183,0.732,0.061,443.803
132439,146265,38140,-0.023,-0.952,-0.14,-0.183,0.732,0.061,443.806
132439,146392,11898,-0.028,-0.952,-0.139,-0.122,0.793,0.305,443.813
132449,146265,38140,-0.027,-0.953,-0.139,-0.122,0.793,0.305,443.816
132449,146393,11921,-0.028,-0.958,-0.136,0,0.854,0.61,443.823
132473,146265,38140,-0.029,-0.957,-0.138,0,0.854,0.61,443.826
132473,146367,11900,-0.033,-0.959,-0.138,-0.122,0.732,0.549,443.832
132451,146265,38140,-0.032,-0.957,-0.138,-0.122,0.732,0.549,443.836
132451,146406,11907,-0.031,-0.957,-0.138,-0.305,0.549,0.549,443.842
132453,146265,38140,-0.033,-0.955,-0.142,-0.305,0.549,0.549,443.846
132453,146390,11910,-0.034,-0.952,-0.138,-0.061,0.366,0.427,443.852
132464,146265,38140,-0.031,-0.954,-0.136,-0.061,0.366,0.427,443.856
132464,146396,11907,-0.03,-0.951,-0.135,0.122,0.366,0.305,443.862
132459,146265,38140,-0.028,-0.95,-0.132,0.122,0.366,0.305,443.866
132459,146394,11918,-0.025,-0.956,-0.138,-0.427,0.061,0.427,443.872
132460,146265,38140,-0.023,-0.961,-0.136,-0.427,0.061,0.427,443.876
132460,146402,11925,-0.021,-0.958,-0.136,-0.976,0.061,0.488,443.882
132469,146265,38140,-0.02,-0.959,-0.14,-0.976,0.061,0.488,443.886
132469,146424,11908,-0.021,-0.96,-0.137,-0.671,0.305,0.488,443.892
132482,146265,38140,-0.019,-0.954,-0.136,-0.671,0.305,0.488,443.896
132482,146407,11925,-0.019,-0.955,-0.14,0.061,0.427,0.427,443.902
132476,146521,38140,-0.022,-0.954,-0.14,0.061,0.427,0.427,443.905
132476,146436,11913,-0.022,-0.953,-0.139,0.366,0.488,0.366,443.912
132491,146265,38140,-0.021,-0.952,-0.141,0.366,0.488,0.366,443.915
132491,146401,11919,-0.023,-0.948,-0.137,0.183,0.488,0.549,443.922
132482,146265,38140,-0.024,-0.954,-0.139,0.183,0.488,0.549,443.925
132482,146396,11917,-0.023,-0.958,-0.14,-0.122,0.427,0.61,443.931
132480,146265,38140,-0.026,-0.958,-0.136,-0.122,0.427,0.61,443.935
132480,146418,11916,-0.027,-0.959,-0.138,-0.122,0.549,0.427,443.941
132487,146265,38140,-0.03,-0.959,-0.14,-0.122,0.549,0.427,443.945
132487,146412,11921,-0.031,-0.959,-0.138,0,0.793,0.61,443.951
132512,146265,38140,-0.032,-0.963,-0.136,0,0.793,0.61,443.955
132512,146400,11899,-0.031,-0.957,-0.134,0.244,0.732,0.671,443.961
132502,146265,38140,-0.032,-0.957,-0.137,0.244,0.732,0.671,443.965
132502,146417,11899,-0.031,-0.955,-0.135,-0.122,0.488,0.488,443.971
132494,146265,38140,-0.03,-0.954,-0.139,-0.122,0.488,0.488,443.975
132494,146431,11910,-0.027,-0.957,-0.141,-0.305,0.366,0.366,443.981
132497,146265,38140,-0.031,-0.958,-0.139,-0.305,0.366,0.366,443.985
132497,146418,11928,-0.034,-0.958,-0.141,-0.488,0.793,0.244,443.991
132524,146521,38140,-0.034,-0.961,-0.144,-0.488,0.793,0.244,443.995
132524,146444,11912,-0.031,-0.959,-0.143,-0.488,0.793,0.183,444.001
132506,146521,38140,-0.031,-0.957,-0.142,-0.488,0.793,0.183,444.004
132506,146453,11927,-0.029,-0.958,-0.142,-0.183,0.427,0.061,444.011
132518,146521,38140,-0.028,-0.953,-0.143,-0.183,0.427,0.061,444.014
132518,146435,11922,-0.028,-0.951,-0.135,0.122,0.244,0.183,444.021
132525,146265,38140,-0.024,-0.947,-0.134,0.122,0.244,0.183,444.024
132525,146422,11921,-0.023,-0.946,-0.136,0.366,0.183,0.305,444.03
132519,146521,38140,-0.021,-0.95,-0.134,0.366,0.183,0.305,444.034
132519,146433,11923,-0.021,-0.95,-0.133,-0.305,0.366,0.488,444.04
132552,146521,38140,-0.023,-0.949,-0.135,-0.305,0.366,0.488,444.044
132552,146448,11923,-0.023,-0.95,-0.135,-0.915,0.732,0.549,444.05
132561,146521,38140,-0.025,-0.951,-0.135,-0.915,0.732,0.549,444.054
132561,146461,11920,-0.022,-0.953,-0.135,-1.098,0.854,0.427,444.06
132559,146521,38140,-0.024,-0.953,-0.136,-1.098,0.854,0.427,444.064
132559,146461,11927,-0.024,-0.95,-0.139,-1.037,0.732,0.549,444.07
132551,146521,38140,-0.023,-0.949,-0.145,-1.037,0.732,0.549,444.074
132551,146467,11927,-0.024,-0.952,-0.145,-0.671,0.793,0.793,444.08
132577,146521,38140,-0.024,-0.96,-0.142,-0.671,0.793,0.793,444.084
132577,146465,11937,-0.023,-0.967,-0.14,-0.244,0.671,0.854,444.09
132552,146521,38140,-0.024,-0.968,-0.137,-0.244,0.671,0.854,444.094
132552,146474,11927,-0.023,-0.969,-0.139,-0.671,0.183,1.037,444.1
132520,146521,38140,-0.024,-0.971,-0.135,-0.671,0.183,1.037,444.103
132520,146454,11935,-0.023,-0.971,-0.132,0,0.061,1.098,444.11
132547,146521,38140,-0.025,-0.965,-0.134,0,0.061,1.098,444.113
132547,146443,11925,-0.029,-0.962,-0.133,1.037,0.305,0.61,444.12
132531,146521,38140,-0.028,-0.96,-0.129,1.037,0.305,0.61,444.123
132531,146435,11937,-0.025,-0.952,-0.13,1.28,0.427,0.244,444.129
132541,146521,38140,-0.025,-0.952,-0.13,1.28,0.427,0.244,444.133
132541,146450,11921,-0.026,-0.95,-0.137,0,0.244,0.122,444.139
132525,146521,38140,-0.026,-0.95,-0.137,0,0.244,0.122,444.143
132525,146463,11940,-0.023,-0.954,-0.143,-1.098,0.366,0,444.149
132563,146265,38140,-0.023,-0.954,-0.143,-1.098,0.366,0,444.153
132563,146419,11925,-0.025,-0.957,-0.147,-1.28,0.732,-0.183,444.159
132536,146521,38140,-0.025,-0.957,-0.147,-1.28,0.732,-0.183,444.163
132536,146453,11949,-0.031,-0.956,-0.144,-0.488,0.793,0,444.169
132550,146521,38140,-0.031,-0.956,-0.144,-0.488,0.793,0,444.173
132550,146450,11929,-0.029,-0.953,-0.133,0.549,0.305,0.427,444.179
132547,146521,38140,-0.029,-0.953,-0.133,0.549,0.305,0.427,444.183
132547,146438,11930,-0.03,-0.948,-0.133,0.915,-0.183,0.671,444.189
132542,146521,38140,-0.03,-0.948,-0.133,0.915,-0.183,0.671,444.193
132542,146453,11931,-0.026,-0.947,-0.126,0.61,-0.305,0.793,444.199
132540,146521,38140,-0.026,-0.947,-0.126,0.61,-0.305,0.793,444.202
132540,146448,11937,-0.027,-0.954,-0.133,-0.488,-0.061,0.671,444.209
132557,146265,38140,-0.027,-0.954,-0.133,-0.488,-0.061,0.671,444.212
132557,146421,11945,-0.031,-0.964,-0.133,-1.098,0.244,0.793,444.219
132545,146521,38140,-0.031,-0.964,-0.133,-1.098,0.244,0.793,444.222
132545,146443,11935,-0.031,-0.966,-0.142,-1.098,0.122,0.732,444.228
132571,146521,38140,-0.031,-0.966,-0.142,-1.098,0.122,0.732,444.232
132571,146459,11927,-0.029,-0.963,-0.142,-0.488,-0.305,0.61,444.238
132542,146521,38140,-0.029,-0.963,-0.142,-0.488,-0.305,0.61,444.242
132542,146435,11938,-0.027,-0.955,-0.141,-0.061,-0.427,0.366,444.248
132539,146521,38140,-0.027,-0.955,-0.141,-0.061,-0.427,0.366,444.252
132539,146449,11930,-0.027,-0.949,-0.139,0,-0.183,0.061,444.258
132566,146521,38140,-0.027,-0.949,-0.139,0,-0.183,0.061,444.262
132566,146454,11921,-0.026,-0.951,-0.146,-0.244,0.061,-0.061,444.268
132566,146521,38140,-0.026,-0.951,-0.146,-0.244,0.061,-0.061,444.272
132566,146458,11937,-0.025,-0.949,-0.145,-0.244,0.061,-0.061,444.278
132574,146521,38140,-0.022,-0.949,-0.142,-0.732,0.122,0.061,444.282
132574,146463,11913,-0.025,-0.949,-0.144,-0.732,0.122,0.061,444.288
132567,146521,38140,-0.024,-0.949,-0.146,-0.549,0.122,0.244,444.292
132567,146478,11930,-0.022,-0.951,-0.143,-0.549,0.122,0.244,444.298
132576,146521,38140,-0.021,-0.951,-0.14,0.061,0.122,0.427,444.301
132576,146470,11949,-0.024,-0.951,-0.139,0.061,0.122,0.427,444.308
132595,146521,38140,-0.024,-0.947,-0.136,0.183,0.061,0.61,444.311
132595,146468,11921,-0.024,-0.951,-0.14,0.183,0.061,0.61,444.318
132574,146521,38140,-0.022,-0.959,-0.138,-0.244,0.183,0.976,444.321
132574,146463,11933,-0.024,-0.968,-0.133,-0.244,0.183,0.976,444.327
132599,146521,38140,-0.021,-0.969,-0.126,-0.427,0.244,1.098,444.331
132599,146475,11929,-0.021,-0.962,-0.135,-0.427,0.244,1.098,444.337
132585,146521,38140,-0.024,-0.958,-0.139,-1.159,0.305,1.098,444.341
132585,146520,11937,-0.026,-0.964,-0.137,-1.159,0.305,1.098,444.347
132618,146521,38140,-0.027,-0.963,-0.137,-0.244,0.61,1.22,444.351
132618,146523,11927,-0.029,-0.957,-0.141,-0.244,0.61,1.22,444.357
132614,146521,38140,-0.028,-0.955,-0.144,0.183,0.793,0.61,444.361
132614,146506,11935,-0.029,-0.953,-0.142,0.183,0.793,0.61,444.367
132610,146521,38140,-0.028,-0.951,-0.137,-0.488,0.671,0.488,444.371
132610,146497,11942,-0.03,-0.953,-0.144,-0.488,0.671,0.488,444.377
132588,146521,38140,-0.029,-0.952,-0.148,-1.28,0.427,0.488,444.381
132588,146499,11936,-0.03,-0.964,-0.132,-1.28,0.427,0.488,444.387
132593,146521,38140,-0.029,-0.965,-0.132,-1.159,0.305,0.183,444.391
132593,146488,11934,-0.029,-0.957,-0.152,-1.159,0.305,0.183,444.397
132577,146521,38140,-0.032,-0.953,-0.141,-0.732,0.488,0.183,444.4
