136302,147801,38140,0.005,-0.953,-0.174,0,0.366,0.305,620.328
136302,147858,12497,0.002,-0.952,-0.173,0,0.366,0.305,620.334
136303,147801,38140,0.005,-0.954,-0.172,-0.122,0.427,0.427,620.338
136303,147860,12499,0.005,-0.955,-0.171,-0.122,0.427,0.427,620.344
136282,147801,38140,0.006,-0.959,-0.172,-0.488,0.549,0.305,620.348
136282,147882,12505,0.006,-0.958,-0.171,-0.488,0.549,0.305,620.354
136292,147801,38140,0.009,-0.959,-0.169,-0.061,0.671,0.183,620.358
136292,147867,12520,0.008,-0.953,-0.172,-0.061,0.671,0.183,620.364
136288,147801,38140,0.006,-0.95,-0.174,0.732,0.793,0.122,620.367
136288,147862,12502,0.004,-0.952,-0.161,0.732,0.793,0.122,620.374
136280,147801,38140,0.003,-0.953,-0.156,0.915,0.61,0,620.377
136280,147862,12507,0.007,-0.942,-0.173,0.915,0.61,0,620.383
136277,147801,38140,0.006,-0.943,-0.176,-0.244,0.244,0.061,620.387
136277,147878,12507,0.003,-0.945,-0.171,-0.244,0.244,0.061,620.393
136278,147801,38140,0.002,-0.942,-0.18,-0.549,0.976,0.183,620.397
136278,147865,12498,0.005,-0.943,-0.182,-0.549,0.976,0.183,620.403
136268,147801,38140,0.002,-0.948,-0.178,-0.488,1.098,-0.183,620.407
136268,147858,12520,-0.001,-0.948,-0.173,-0.488,1.098,-0.183,620.413
136290,147801,38140,-0.001,-0.945,-0.176,-0.305,0.854,-0.244,620.417
136290,147835,12510,-0.005,-0.941,-0.176,-0.305,0.854,-0.244,620.423
136277,147801,38140,-0.005,-0.943,-0.174,0,0.61,0.305,620.427
136277,147887,12518,-0.004,-0.947,-0.17,0,0.61,0.305,620.433
136278,147801,38140,-0.001,-0.948,-0.169,0.366,0.366,0.183,620.437
136278,147854,12512,0.002,-0.947,-0.171,0.366,0.366,0.183,620.443
136271,147801,38140,0.001,-0.941,-0.167,-0.305,0.061,0.122,620.447
136271,147853,12513,0.002,-0.942,-0.171,-0.305,0.061,0.122,620.453
136272,147801,38140,-0.002,-0.949,-0.173,-0.427,0.366,0.549,620.457
136272,147838,12513,0.001,-0.951,-0.174,-0.427,0.366,0.549,620.463
136268,147801,38140,-0,-0.953,-0.172,0.244,0.488,0.305,620.466
136268,147885,12504,-0,-0.954,-0.169,0.244,0.488,0.305,620.473
136266,147801,38140,-0.001,-0.953,-0.172,0.183,0.366,0.366,620.476
136266,147835,12516,0,-0.95,-0.173,0.183,0.366,0.366,620.482
136252,147801,38140,0,-0.949,-0.172,0.061,0.183,0.671,620.486
136252,147828,12494,0.005,-0.953,-0.173,0.061,0.183,0.671,620.492
136244,147801,38140,0.003,-0.957,-0.169,0.244,0.244,0.427,620.496
136244,147832,12497,0.005,-0.955,-0.167,0.244,0.244,0.427,620.502
136234,147801,38140,0.008,-0.953,-0.169,-0.183,0.305,0.244,620.506
136234,147842,12499,0.008,-0.951,-0.171,-0.183,0.305,0.244,620.512
136228,147801,38140,0.008,-0.95,-0.172,-0.671,0.061,0.122,620.516
136228,147819,12509,0.006,-0.948,-0.174,-0.671,0.061,0.122,620.522
136232,147801,38140,0.009,-0.95,-0.178,-0.305,0.183,0,620.526
136232,147845,12499,0.007,-0.951,-0.178,-0.305,0.183,0,620.532
136248,147801,38140,0.006,-0.949,-0.177,0.061,0.427,0,620.536
136248,147815,12507,0.005,-0.946,-0.177,0.061,0.427,0,620.542
136249,147801,38140,0.006,-0.946,-0.174,-0.061,0.244,-0.061,620.546
136249,147832,12486,0.006,-0.949,-0.171,-0.061,0.244,-0.061,620.552
136207,147801,38140,0.004,-0.947,-0.17,-0.488,0.122,0.061,620.556
136207,147831,12495,0.006,-0.949,-0.171,-0.488,0.122,0.061,620.562
136225,147801,38140,0.006,-0.949,-0.171,-0.488,0.122,0.061,620.565
136225,147826,12496,0.005,-0.947,-0.176,-1.037,0.427,0.183,620.572
136217,147801,38140,0.005,-0.947,-0.176,-1.037,0.427,0.183,620.575
136217,147829,12514,0.004,-0.951,-0.178,-0.976,0.854,0.366,620.581
136240,147801,38140,0.004,-0.951,-0.178,-0.976,0.854,0.366,620.585
136240,147841,12487,0.007,-0.942,-0.179,-0.488,0.793,0.366,620.591
136225,147801,38140,0.007,-0.942,-0.179,-0.488,0.793,0.366,620.595
136225,147827,12499,0.004,-0.949,-0.176,-0.732,0.427,0.305,620.601
136222,147801,38140,0.004,-0.949,-0.176,-0.732,0.427,0.305,620.605
136222,147822,12507,0.007,-0.956,-0.166,-0.427,0.183,0.244,620.611
136228,147801,38140,0.007,-0.956,-0.166,-0.427,0.183,0.244,620.615
136228,147833,12487,0.007,-0.951,-0.17,-0.427,0.305,0.122,620.621
136203,147801,38140,0.007,-0.951,-0.17,-0.427,0.305,0.122,620.625
136203,147806,12503,0.002,-0.95,-0.165,-0.427,0.671,0.427,620.631
136197,147801,38140,0.002,-0.95,-0.165,-0.427,0.671,0.427,620.635
136197,147806,12490,0,-0.949,-0.168,0.244,0.793,0.427,620.641
136194,147801,38140,0,-0.949,-0.168,0.244,0.793,0.427,620.645
136194,147832,12505,0.002,-0.943,-0.166,0.305,0.732,0.366,620.651
136192,147801,38140,0.002,-0.943,-0.166,0.305,0.732,0.366,620.655
136192,147807,12480,0.003,-0.949,-0.177,-0.183,0.366,0.366,620.661
136206,147801,38140,0.003,-0.949,-0.177,-0.183,0.366,0.366,620.664
136206,147807,12508,-0.001,-0.954,-0.183,-0.793,0.305,0.305,620.671
136217,147801,38140,-0.001,-0.954,-0.183,-0.793,0.305,0.305,620.674
136217,147852,12499,0,-0.95,-0.175,-0.488,0.793,0.488,620.68
136220,147801,38140,0,-0.95,-0.175,-0.488,0.793,0.488,620.684
136220,147844,12502,0.003,-0.941,-0.175,0.122,0.793,0.61,620.69
136210,147801,38140,0.003,-0.941,-0.175,0.122,0.793,0.61,620.694
136210,147839,12498,0.007,-0.955,-0.172,-0.061,0.244,0.732,620.7
136227,147801,38140,0.007,-0.955,-0.172,-0.061,0.244,0.732,620.704
136227,147837,12501,0.007,-0.954,-0.172,-0.305,0.244,0.671,620.71
136202,147801,38140,0.003,-0.953,-0.174,-0.305,0.244,0.671,620.714
136202,147815,12497,0.004,-0.952,-0.171,-0.244,0.305,0.305,620.72
136210,147801,38140,0.003,-0.952,-0.174,-0.244,0.305,0.305,620.724
136210,147839,12485,-0.001,-0.953,-0.173,0.61,0.122,0.183,620.73
136210,147801,38140,0.002,-0.953,-0.171,0.61,0.122,0.183,620.734
136210,147808,12493,0.003,-0.947,-0.173,0.915,0.244,0.183,620.74
136212,147801,38140,0.005,-0.946,-0.171,0.915,0.244,0.183,620.744
136212,147829,12505,0.007,-0.945,-0.172,0.183,0.122,0,620.75
136199,147801,38140,0.012,-0.945,-0.173,0.183,0.122,0,620.753
136199,147804,12484,0.011,-0.948,-0.172,-0.854,-0.183,0,620.76
136201,147801,38140,0.009,-0.953,-0.169,-0.854,-0.183,0,620.763
136201,147818,12496,0.009,-0.95,-0.174,-0.732,0.244,0.061,620.77
136195,147801,38140,0.009,-0.946,-0.178,-0.732,0.244,0.061,620.773
136195,147813,12502,0.006,-0.95,-0.18,-0.244,0.854,0.305,620.779
136195,147801,38140,0.005,-0.944,-0.174,-0.244,0.854,0.305,620.783
136195,147819,12491,0.006,-0.946,-0.171,0.549,0.671,0.427,620.789
136205,147801,38140,0.003,-0.947,-0.172,0.549,0.671,0.427,620.793
136205,147826,12478,0.002,-0.948,-0.173,0.244,0.427,0.427,620.799
136197,147801,38140,0.005,-0.947,-0.171,0.244,0.427,0.427,620.803
136197,147842,12493,0.003,-0.949,-0.172,-0.244,0.488,0.549,620.809
136198,147801,38140,-0,-0.951,-0.174,-0.244,0.488,0.549,620.813
136198,147835,12498,0,-0.951,-0.174,-0.488,0.793,0.549,620.819
136225,147801,38140,-0.001,-0.95,-0.179,-0.488,0.793,0.549,620.823
136225,147821,12490,-0.001,-0.949,-0.18,-0.549,0.976,0.549,620.829
136182,147801,38140,0,-0.951,-0.173,-0.549,0.976,0.549,620.833
136182,147820,12491,-0,-0.95,-0.171,-0.183,0.854,0.427,620.839
136192,147801,38140,0.002,-0.949,-0.174,-0.183,0.854,0.427,620.843
136192,147828,12495,0.003,-0.952,-0.172,-0.244,0.549,0.366,620.849
136222,147801,38140,0.008,-0.949,-0.174,-0.244,0.549,0.366,620.853
136222,147806,12498,0.009,-0.949,-0.172,-0.427,0.366,0.305,620.859
136204,147801,38140,0.011,-0.952,-0.167,-0.427,0.366,0.305,620.862
136204,147847,12505,0.008,-0.952,-0.165,-0.061,0.244,0.183,620.869
136219,147801,38140,0.009,-0.949,-0.168,-0.061,0.244,0.183,620.872
136219,147843,12505,0.01,-0.95,-0.168,-0.061,0.183,0,620.878
136223,147801,38140,0.009,-0.949,-0.166,-0.061,0.183,0,620.882
136223,147843,12500,0.007,-0.952,-0.167,0,0.305,0.061,620.888
136206,147801,38140,0.01,-0.953,-0.169,0,0.305,0.061,620.892
136206,147832,12487,0.009,-0.95,-0.17,-0.061,0.427,0,620.898
136189,147801,38140,0.008,-0.949,-0.173,-0.061,0.427,0,620.902
136189,147800,12501,0.008,-0.947,-0.171,0.122,0.244,-0.183,620.908
136216,147801,38140,0.007,-0.947,-0.169,0.122,0.244,-0.183,620.912
136216,147842,12493,0.007,-0.942,-0.173,0.61,0.122,-0.061,620.918
136210,147801,38140,0.007,-0.941,-0.174,0.61,0.122,-0.061,620.922
136210,147813,12497,0.003,-0.945,-0.172,0.244,0.122,-0.061,620.928
136212,147801,38140,0.002,-0.949,-0.169,0.244,0.122,-0.061,620.932
136212,147856,12500,0.004,-0.952,-0.173,-0.061,0.305,0,620.938
136231,147801,38140,0.002,-0.955,-0.172,-0.061,0.305,0,620.942
136231,147840,12493,-0,-0.958,-0.173,-0.427,0.244,0.122,620.948
136226,147801,38140,-0.002,-0.958,-0.173,-0.427,0.244,0.122,620.951
136226,147852,12507,0,-0.958,-0.17,0.244,0,0.183,620.958
136226,147801,38140,0.003,-0.957,-0.17,0.244,0,0.183,620.961
136226,147836,12492,0.003,-0.948,-0.168,0.793,-0.122,0.061,620.968
136223,147801,38140,0.003,-0.948,-0.169,0.793,-0.122,0.061,620.971
136223,147853,12493,0.002,-0.951,-0.163,0.793,0,-0.061,620.977
136242,147801,38140,0.002,-0.949,-0.164,0.793,0,-0.061,620.981
136242,147841,12496,0.004,-0.947,-0.171,0.122,0.122,-0.061,620.987
136210,147801,38140,0.005,-0.946,-0.175,0.122,0.122,-0.061,620.991
136210,147830,12495,0.003,-0.947,-0.176,-0.549,0.305,0.061,620.997
136202,147801,38140,0.008,-0.949,-0.174,-0.549,0.305,0.061,621.001
136202,147838,12503,0.003,-0.949,-0.176,-0.061,0.305,-0.122,621.007
136190,147801,38140,0.005,-0.945,-0.176,-0.061,0.305,-0.122,621.011
136190,147850,12492,0.007,-0.943,-0.173,0.061,0.305,-0.061,621.017
136235,147801,38140,0.005,-0.942,-0.176,0.061,0.305,-0.061,621.021
136235,147854,12504,0.004,-0.945,-0.17,0.183,0.122,0.244,621.027
136230,147801,38140,0.007,-0.943,-0.168,0.183,0.122,0.244,621.031
136230,147851,12488,0.008,-0.945,-0.166,-0.061,0,0.305,621.037
136214,147801,38140,0.01,-0.946,-0.167,-0.061,0,0.305,621.041
136214,147853,12506,0.011,-0.948,-0.166,-0.488,0.244,0.488,621.047
136223,147801,38140,0.012,-0.946,-0.17,-0.488,0.244,0.488,621.05
136223,147870,12504,0.009,-0.948,-0.174,-0.61,0.488,0.549,621.057
136219,147801,38140,0.01,-0.946,-0.17,-0.61,0.488,0.549,621.06
136219,147873,12512,0.009,-0.949,-0.169,-0.427,0.549,0.366,621.067
136240,147801,38140,0.008,-0.953,-0.171,-0.427,0.549,0.366,621.07
136240,147875,12505,0.01,-0.953,-0.173,-0.427,0.61,0.305,621.076
136216,147801,38140,0.006,-0.951,-0.174,-0.427,0.61,0.305,621.08
136216,147854,12502,0.008,-0.946,-0.176,-0.61,0.732,0.427,621.086
136227,147801,38140,0.007,-0.946,-0.178,-0.61,0.732,0.427,621.09
136227,147855,12487,0.005,-0.951,-0.18,-0.61,0.671,0.427,621.096
136216,147801,38140,0.005,-0.95,-0.178,-0.61,0.671,0.427,621.1
136216,147867,12501,0.003,-0.959,-0.177,-0.122,0.854,0.305,621.106
136221,147801,38140,0.002,-0.958,-0.177,-0.122,0.854,0.305,621.11
136221,147863,12495,0.001,-0.948,-0.175,-0.183,0.793,0.305,621.116
136225,147801,38140,0.002,-0.948,-0.172,-0.183,0.793,0.305,621.12
136225,147860,12500,0.008,-0.949,-0.173,-0.549,0.305,0.549,621.126
136209,147801,38140,0.01,-0.948,-0.168,-0.549,0.305,0.549,621.13
136209,147847,12492,0.009,-0.949,-0.164,0,0.061,0.244,621.136
136203,147801,38140,0.008,-0.949,-0.166,0,0.061,0.244,621.14
136203,147837,12496,0.01,-0.947,-0.169,-0.244,0.427,0.061,621.146
136193,147801,38140,0.01,-0.947,-0.169,-0.244,0.427,0.061,621.15
136193,147852,12494,0.003,-0.946,-0.168,-0.427,0.793,0.366,621.156
136201,147801,38140,0.003,-0.946,-0.168,-0.427,0.793,0.366,621.159
136201,147817,12494,0.006,-0.95,-0.168,-0.366,0.732,0.305,621.166
136199,147801,38140,0.006,-0.95,-0.168,-0.366,0.732,0.305,621.169
136199,147848,12490,0.002,-0.952,-0.171,-0.671,0.244,0.244,621.175
136189,147801,38140,0.002,-0.952,-0.171,-0.671,0.244,0.244,621.179
136189,147814,12496,0.004,-0.949,-0.172,-0.061,0.183,0.488,621.185
136203,147801,38140,0.004,-0.949,-0.172,-0.061,0.183,0.488,621.189
136203,147829,12492,0,-0.948,-0.17,0.122,0.488,0.427,621.195
136209,147801,38140,0,-0.948,-0.17,0.122,0.488,0.427,621.199
136209,147859,12504,0.003,-0.947,-0.171,-0.122,0.366,0.366,621.205
136211,147801,38140,0.003,-0.947,-0.171,-0.122,0.366,0.366,621.209
136211,147847,12482,0.002,-0.951,-0.169,-0.305,0.305,0.305,621.215
136164,147801,38140,0.002,-0.951,-0.169,-0.305,0.305,0.305,621.219
136164,147839,12491,0.006,-0.953,-0.17,-0.549,0.305,0.244,621.225
136189,147801,38140,0.006,-0.953,-0.17,-0.549,0.305,0.244,621.229
136189,147827,12497,0.002,-0.949,-0.173,-0.671,0.244,0.244,621.235
136166,147801,38140,0.002,-0.949,-0.173,-0.671,0.244,0.244,621.239
136166,147819,12504,0.006,-0.948,-0.172,0.122,0,0.061,621.245
136168,147801,38140,0.006,-0.948,-0.172,0.122,0,0.061,621.248
136168,147835,12487,0.008,-0.946,-0.171,0.305,-0.061,0.122,621.255
136155,147801,38140,0.008,-0.946,-0.171,0.305,-0.061,0.122,621.258
136155,147821,12491,0.005,-0.944,-0.172,0,0.061,0.305,621.265
136152,147801,38140,0.005,-0.944,-0.172,0,0.061,0.305,621.268
136152,147846,12496,0.009,-0.949,-0.171,-0.427,0,0.061,621.274
136192,147801,38140,0.009,-0.949,-0.171,-0.427,0,0.061,621.278
136192,147843,12501,0.009,-0.948,-0.174,-0.915,0.061,0.183,621.284
136186,147801,38140,0.009,-0.948,-0.174,-0.915,0.061,0.183,621.288
136186,147855,12497,0.011,-0.951,-0.174,-0.915,0.061,0.183,621.294
136183,147801,38140,0.008,-0.951,-0.174,-0.549,0.244,0.366,621.298
136183,147860,12493,0.009,-0.953,-0.178,-0.549,0.244,0.366,621.304
136186,147801,38140,0.009,-0.95,-0.176,-0.305,0.366,0.305,621.308
136186,147843,12494,0.008,-0.957,-0.173,-0.305,0.366,0.305,621.314
136172,147801,38140,0.007,-0.953,-0.175,0,0.427,0.488,621.318
136172,147855,12501,0.009,-0.949,-0.173,0,0.427,0.488,621.324
136204,147801,38140,0.007,-0.946,-0.179,-0.244,0.427,0.61,621.328
136204,147831,12491,0.01,-0.948,-0.18,-0.244,0.427,0.61,621.334
136162,147801,38140,0.01,-0.948,-0.175,-0.183,0.488,0.549,621.338
136162,147846,12494,0.01,-0.951,-0.174,-0.183,0.488,0.549,621.344
136181,147801,38140,0.009,-0.949,-0.173,0,0.61,0.427,621.347
136181,147839,12484,0.006,-0.943,-0.174,0,0.61,0.427,621.354
136192,147801,38140,0.003,-0.947,-0.174,-0.549,0.61,0.427,621.357
136192,147853,12494,0.006,-0.95,-0.174,-0.549,0.61,0.427,621.364
136206,147801,38140,0.007,-0.953,-0.174,-0.427,0.549,0.305,621.367
136206,147879,12504,0.004,-0.953,-0.172,-0.427,0.549,0.305,621.373
136205,147801,38140,0.005,-0.955,-0.171,0.061,0.671,0.305,621.377
136205,147871,12490,0.004,-0.955,-0.172,0.061,0.671,0.305,621.383
136209,147801,38140,0.002,-0.949,-0.176,0.061,0.671,0.488,621.387
136209,147860,12494,0.006,-0.946,-0.172,0.061,0.671,0.488,621.393
136197,147801,38140,0.006,-0.949,-0.168,0.122,0.305,0.549,621.397
136197,147891,12497,0.004,-0.944,-0.175,0.122,0.305,0.549,621.403
136196,147801,38140,0.005,-0.945,-0.177,0.244,0.427,0.366,621.407
136196,147852,12498,0.006,-0.949,-0.172,0.244,0.427,0.366,621.413
136189,147801,38140,0.006,-0.946,-0.172,-0.061,0.793,0.305,621.417
136189,147875,12487,0.005,-0.946,-0.174,-0.061,0.793,0.305,621.423
136203,147801,38140,0.003,-0.947,-0.171,-0.61,0.61,0.366,621.427
136203,147848,12489,0.003,-0.95,-0.165,-0.61,0.61,0.366,621.433
136197,147801,38140,0.007,-0.952,-0.169,-0.427,0.244,0.366,621.437
136197,147905,12498,0.008,-0.949,-0.169,-0.427,0.244,0.366,621.443
136207,147801,38140,0.005,-0.95,-0.171,-0.427,0.244,0.427,621.446
136207,147860,12490,0.004,-0.95,-0.168,-0.427,0.244,0.427,621.453
136202,147801,38140,0.008,-0.949,-0.167,-0.122,0.61,0.488,621.456
136202,147875,12501,0.005,-0.947,-0.169,-0.122,0.61,0.488,621.463
136211,147801,38140,0.003,-0.95,-0.173,-0.122,0.549,0.305,621.466
136211,147882,12506,0.003,-0.95,-0.172,-0.122,0.549,0.305,621.472
136201,147801,38140,0.008,-0.947,-0.169,-0.488,0.488,0.305,621.476
136201,147896,12500,0.008,-0.944,-0.173,-0.488,0.488,0.305,621.482
136207,147801,38140,0.007,-0.949,-0.175,-0.488,0.427,0.427,621.486
136207,147871,12509,0.006,-0.952,-0.172,-0.488,0.427,0.427,621.492
136200,147801,38140,0.007,-0.952,-0.172,-0.183,0.366,0.427,621.496
136200,147916,12502,0.005,-0.953,-0.174,-0.183,0.366,0.427,621.502
136217,147801,38140,0.006,-0.948,-0.17,-0.366,0.183,0.427,621.506
136217,147878,12486,0.005,-0.945,-0.17,-0.366,0.183,0.427,621.512
136198,147801,38140,0.004,-0.943,-0.171,-0.305,-0.122,0.305,621.516
136198,147889,12490,0.005,-0.95,-0.171,-0.305,-0.122,0.305,621.522
136208,147801,38140,0.004,-0.95,-0.171,0.305,0,0.183,621.526
136208,147879,12495,0.005,-0.944,-0.175,0.305,0,0.183,621.532
136200,147801,38140,0.004,-0.944,-0.181,0,0.305,0.244,621.536
136200,147877,12510,0.003,-0.946,-0.178,0,0.305,0.244,621.542
136188,147801,38140,0.003,-0.948,-0.173,0.061,0.305,0.488,621.545
136188,147880,12486,0.006,-0.949,-0.172,0.061,0.305,0.488,621.552
136193,147801,38140,0.007,-0.947,-0.177,-0.305,0.183,0.427,621.555
136193,147868,12500,0.007,-0.956,-0.177,-0.305,0.183,0.427,621.562
136188,147801,38140,0.006,-0.957,-0.172,-0.427,0.366,0.549,621.565
136188,147866,12509,0.003,-0.958,-0.169,-0.427,0.366,0.549,621.571
136194,147801,38140,0.002,-0.958,-0.17,-0.427,0.61,0.732,621.575
136194,147903,12507,0.001,-0.958,-0.174,-0.427,0.61,0.732,621.581
136210,147801,38140,0.003,-0.951,-0.174,-0.244,0.549,0.488,621.585
136210,147896,12497,0.005,-0.949,-0.173,-0.244,0.549,0.488,621.591
136191,147801,38140,0.005,-0.951,-0.171,0.488,0.244,0.244,621.595
136191,147889,12508,0.009,-0.948,-0.171,0.488,0.244,0.244,621.601
136198,147801,38140,0.014,-0.948,-0.172,0.549,0.122,0.244,621.605
136198,147898,12504,0.014,-0.943,-0.176,0.549,0.122,0.244,621.611
136201,147801,38140,0.012,-0.942,-0.176,-0.122,0.122,0.305,621.615
136201,147898,12495,0.012,-0.948,-0.173,-0.122,0.122,0.305,621.621
136201,147801,38140,0.014,-0.948,-0.17,-0.305,0.427,0.366,621.625
136201,147903,12484,0.009,-0.952,-0.174,-0.305,0.427,0.366,621.631
136192,147801,38140,0.007,-0.949,-0.17,-0.183,0.671,0.488,621.635
136192,147875,12490,0.007,-0.945,-0.171,-0.183,0.671,0.488,621.641
136207,147801,38140,0.003,-0.946,-0.174,0,0.732,0.793,621.644
136207,147901,12498,0.005,-0.947,-0.173,0,0.732,0.793,621.651
136211,147801,38140,0.001,-0.945,-0.172,0.427,0.732,0.732,621.654
136211,147891,12488,-0,-0.946,-0.173,0.427,0.732,0.732,621.661
136199,147801,38140,-0.003,-0.947,-0.17,0.61,0.854,0.732,621.664
136199,147880,12509,-0.003,-0.947,-0.171,0.61,0.854,0.732,621.67
136204,147801,38140,-0.003,-0.946,-0.17,0.61,0.793,0.732,621.674
136204,147915,12504,-0.003,-0.95,-0.168,0.61,0.793,0.732,621.68
136200,147801,38140,-0.002,-0.95,-0.168,0,0.732,0.732,621.684
136200,147901,12510,-0,-0.95,-0.172,0,0.732,0.732,621.69
136216,147801,38140,0.004,-0.954,-0.171,-0.366,0.61,0.549,621.694
136216,147881,12500,0.003,-0.953,-0.17,-0.366,0.61,0.549,621.7
136214,147801,38140,0.003,-0.955,-0.167,0,0.427,0.427,621.704
136214,147912,12489,0.006,-0.951,-0.166,0,0.427,0.427,621.71
136200,147801,38140,0.006,-0.95,-0.164,0.244,0.305,0.488,621.714
136200,147918,12496,0.006,-0.949,-0.162,0.244,0.305,0.488,621.72
136207,147801,38140,0.008,-0.947,-0.167,-0.427,0.244,0.61,621.724
136207,147881,12496,0.008,-0.947,-0.172,-0.427,0.244,0.61,621.73
136185,147801,38140,0.008,-0.947,-0.172,-0.427,0.244,0.61,621.734
136185,147899,12497,0.012,-0.957,-0.168,-1.037,0.122,0.488,621.74
136225,147801,38140,0.012,-0.957,-0.168,-1.037,0.122,0.488,621.743
136225,147903,12499,0.008,-0.953,-0.173,-0.61,-0.061,0.183,621.75
136237,147801,38140,0.008,-0.953,-0.173,-0.61,-0.061,0.183,621.753
136237,147925,12493,0.005,-0.943,-0.175,0,0.244,0.366,621.76
136227,147801,38140,0.005,-0.943,-0.175,0,0.244,0.366,621.763
136227,147900,12521,0.006,-0.944,-0.174,0.854,0.366,0.61,621.769
136222,147801,38140,0.006,-0.944,-0.174,0.854,0.366,0.61,621.773
136222,147921,12496,0.006,-0.947,-0.168,0.671,0,0.488,621.779
136189,147801,38140,0.006,-0.947,-0.168,0.671,0,0.488,621.783
136189,147895,12509,0.004,-0.953,-0.174,-0.305,0,0.549,621.789
136195,147801,38140,0.004,-0.953,-0.174,-0.305,0,0.549,621.793
136195,147923,12512,0.002,-0.957,-0.176,-0.915,0.305,0.671,621.799
136226,147801,38140,0.002,-0.957,-0.176,-0.915,0.305,0.671,621.803
136226,147920,12483,-0,-0.956,-0.169,-0.122,0.732,0.549,621.809
136223,147801,38140,-0,-0.956,-0.169,-0.122,0.732,0.549,621.813
136223,147935,12493,-0.003,-0.945,-0.172,0.488,0.549,0.549,621.819
136210,147801,38140,-0.003,-0.945,-0.172,0.488,0.549,0.549,621.823
136210,147910,12496,0.001,-0.948,-0.169,0.671,0.183,0.488,621.829
136220,147801,38140,0.001,-0.948,-0.169,0.671,0.183,0.488,621.833
136220,147940,12508,0,-0.95,-0.172,0.244,0,0.183,621.839
136207,147801,38140,0,-0.95,-0.172,0.244,0,0.183,621.842
136207,147914,12502,0.002,-0.953,-0.171,-0.61,0.244,0.122,621.849
136199,147801,38140,0.002,-0.953,-0.171,-0.61,0.244,0.122,621.852
136199,147888,12504,0.005,-0.951,-0.175,-0.915,0.366,0.122,621.858
136186,147801,38140,0.005,-0.951,-0.175,-0.915,0.366,0.122,621.862
136186,147910,12501,0.007,-0.949,-0.172,-0.244,0.183,0.061,621.868
136190,147801,38140,0.007,-0.949,-0.172,-0.244,0.183,0.061,621.872
136190,147902,12489,0.008,-0.944,-0.174,0.305,-0.122,-0.183,621.878
136212,147801,38140,0.009,-0.938,-0.179,0.305,-0.122,-0.183,621.882
136212,147944,12507,0.007,-0.938,-0.168,0.122,0,0,621.888
136239,147801,38140,0.009,-0.945,-0.16,0.122,0,0,621.892
136239,147918,12508,0.013,-0.942,-0.176,-0.305,0.061,0.122,621.898
136219,147801,38140,0.011,-0.942,-0.178,-0.305,0.061,0.122,621.902
136219,147922,12503,0.012,-0.952,-0.173,-1.89,0.549,0.366,621.908
136202,147801,38140,0.011,-0.958,-0.18,-1.89,0.549,0.366,621.912
136202,147897,12490,0.01,-0.957,-0.183,-1.341,0.854,0.671,621.918
136201,147801,38140,0.011,-0.956,-0.174,-1.341,0.854,0.671,621.922
136201,147904,12517,0.01,-0.951,-0.174,-0.61,0.61,0.488,621.928
136223,147801,38140,0.005,-0.945,-0.179,-0.61,0.61,0.488,621.932
136223,147927,12504,0.005,-0.947,-0.173,0.305,0.427,0.671,621.938
136205,147801,38140,0.008,-0.945,-0.171,0.305,0.427,0.671,621.941
136205,147915,12512,0.01,-0.947,-0.172,0.61,0.549,0.488,621.948
136203,147801,38140,0.008,-0.946,-0.174,0.61,0.549,0.488,621.951
136203,147929,12510,0.006,-0.951,-0.171,-0.732,0.671,0.366,621.958
136196,147801,38140,0.004,-0.955,-0.169,-0.732,0.671,0.366,621.961
136196,147891,12494,0.001,-0.958,-0.175,-1.098,0.793,0.549,621.967
136194,147801,38140,0.003,-0.957,-0.174,-1.098,0.793,0.549,621.971
136194,147928,12494,0.002,-0.952,-0.173,-0.549,0.671,0.488,621.977
136194,147801,38140,0.001,-0.95,-0.168,-0.549,0.671,0.488,621.981
136194,147913,12499,0.006,-0.948,-0.163,0.671,0.366,0.366,621.987
136180,147801,38140,0.006,-0.944,-0.16,0.671,0.366,0.366,621.991
136180,147895,12504,0.006,-0.942,-0.159,0.915,0.061,0.488,621.997
136183,147801,38140,0.008,-0.942,-0.163,0.915,0.061,0.488,622.001
136183,147860,12503,0.006,-0.941,-0.162,0.061,0.244,0.671,622.007
136179,147801,38140,0.006,-0.946,-0.158,0.061,0.244,0.671,622.011
136179,147896,12496,0.007,-0.95,-0.164,-0.488,0.305,0.671,622.017
136173,147801,38140,0.004,-0.948,-0.166,-0.488,0.305,0.671,622.021
136173,147895,12504,0.002,-0.952,-0.165,-0.854,0.244,0.549,622.027
136156,147801,38140,-0,-0.953,-0.168,-0.854,0.244,0.549,622.031
136156,147869,12507,0.002,-0.95,-0.166,-0.427,0.244,0.61,622.037
136210,147801,38140,0,-0.954,-0.166,-0.427,0.244,0.61,622.04
136210,147915,12501,-0.002,-0.953,-0.166,-0.244,0.183,0.549,622.047
136189,147801,38140,0.002,-0.948,-0.173,-0.244,0.183,0.549,622.05
136189,147912,12505,0.005,-0.952,-0.174,-0.549,-0.183,0.427,622.057
136179,147801,38140,0.001,-0.955,-0.17,-0.549,-0.183,0.427,622.06
136179,147892,12506,0.004,-0.954,-0.174,-0.549,-0.305,0.427,622.066
136169,147801,38140,0.005,-0.954,-0.176,-0.549,-0.305,0.427,622.07
136169,147925,12486,0.005,-0.949,-0.177,-0.549,-0.122,0.305,622.076
136172,147801,38140,0.005,-0.949,-0.175,-0.549,-0.122,0.305,622.08
136172,147887,12496,0.005,-0.948,-0.177,-0.366,-0.122,0.366,622.086
136172,147801,38140,0.009,-0.949,-0.176,-0.366,-0.122,0.366,622.09
136172,147884,12499,0.007,-0.949,-0.171,0.061,-0.122,0.122,622.096
136184,147801,38140,0.005,-0.951,-0.17,0.061,-0.122,0.122,622.1
136184,147889,12517,0.006,-0.949,-0.174,-0.183,-0.061,0.183,622.106
136165,147801,38140,0.005,-0.945,-0.173,-0.183,-0.061,0.183,622.11
136165,147913,12509,0.004,-0.946,-0.171,-0.122,-0.244,0.427,622.116
136154,147801,38140,0.006,-0.946,-0.168,-0.122,-0.244,0.427,622.12
136154,147902,12508,0.005,-0.944,-0.17,0.366,-0.427,0.366,622.126
136171,147801,38140,0.005,-0.946,-0.171,0.366,-0.427,0.366,622.13
136171,147915,12496,0.009,-0.944,-0.175,0.244,-0.366,0.366,622.136
136175,147801,38140,0.007,-0.945,-0.176,0.244,-0.366,0.366,622.139
136175,147895,12507,0.005,-0.947,-0.173,-0.122,-0.122,0.61,622.146
136167,147801,38140,0.006,-0.946,-0.174,-0.122,-0.122,0.61,622.149
136167,147907,12493,0.007,-0.947,-0.174,-0.61,0,0.793,622.155
136175,147801,38140,0.006,-0.945,-0.173,-0.61,0,0.793,622.159
136175,147885,12501,0.005,-0.95,-0.172,-0.549,0.122,1.037,622.165
136171,147801,38140,0.005,-0.949,-0.172,-0.549,0.122,1.037,622.169
136171,147923,12502,0.004,-0.95,-0.174,-0.366,0.305,1.037,622.175
136189,147801,38140,0.004,-0.949,-0.173,-0.366,0.305,1.037,622.179
136189,147915,12505,0.003,-0.951,-0.171,-0.427,0.488,0.976,622.185
136191,147801,38140,0.004,-0.949,-0.174,-0.427,0.488,0.976,622.189
136191,147949,12498,0.002,-0.949,-0.173,0,0.244,0.976,622.195
136179,147801,38140,0.004,-0.952,-0.168,0,0.244,0.976,622.199
136179,147932,12489,0.007,-0.95,-0.165,0.183,0.061,0.793,622.205
136193,147801,38140,0.006,-0.95,-0.172,0.183,0.061,0.793,622.209
136193,147913,12501,0.009,-0.951,-0.174,0.183,0.183,0.671,622.215
136195,147801,38140,0.008,-0.947,-0.17,0.183,0.183,0.671,622.219
136195,147936,12497,0.006,-0.95,-0.169,0.244,0.488,0.366,622.225
136196,147801,38140,0.005,-0.951,-0.171,0.244,0.488,0.366,622.228
136196,147911,12506,0.008,-0.951,-0.168,0.061,0.366,0.305,622.235
136169,147801,38140,0.005,-0.95,-0.172,0.061,0.366,0.305,622.238
136169,147914,12489,0.004,-0.947,-0.171,-0.122,0.366,0.488,622.245
136150,147801,38140,0.001,-0.952,-0.171,-0.122,0.366,0.488,622.248
136150,147921,12499,0,-0.952,-0.171,-0.183,0.488,0.549,622.254
136174,147801,38140,0.001,-0.95,-0.175,-0.183,0.488,0.549,622.258
136174,147932,12503,-0.002,-0.951,-0.173,0.183,0.305,0.671,622.264
136173,147801,38140,-0.004,-0.951,-0.174,0.183,0.305,0.671,622.268
136173,147911,12498,-0.003,-0.948,-0.172,0,-0.122,0.732,622.274
136171,147801,38140,-0.002,-0.948,-0.171,0,-0.122,0.732,622.278
136171,147918,12485,-0.003,-0.95,-0.173,-0.244,-0.366,0.793,622.284
136170,147801,38140,-0.002,-0.95,-0.168,-0.244,-0.366,0.793,622.288
136170,147902,12500,0.001,-0.953,-0.165,-0.122,-0.366,0.732,622.294
136163,147801,38140,0.001,-0.951,-0.164,-0.122,-0.366,0.732,622.298
136163,147880,12501,-0.001,-0.953,-0.164,-0.061,-0.488,0.671,622.304
136158,147801,38140,0.001,-0.952,-0.168,-0.061,-0.488,0.671,622.308
136158,147886,12495,0.002,-0.952,-0.167,0.366,-0.61,0.427,622.314
136166,147801,38140,0.002,-0.952,-0.167,0.366,-0.61,0.427,622.318
136166,147884,12493,0.008,-0.947,-0.167,0.122,-0.488,0.305,622.324
136155,147801,38140,0.008,-0.947,-0.167,0.122,-0.488,0.305,622.328
136155,147904,12488,0.002,-0.952,-0.168,-0.183,-0.305,0.427,622.334
136147,147801,38140,0.002,-0.952,-0.168,-0.183,-0.305,0.427,622.337
136147,147889,12503,0,-0.967,-0.172,-0.305,-0.183,0.305,622.344
136173,147801,38140,0,-0.967,-0.172,-0.305,-0.183,0.305,622.347
136173,147911,12492,0.004,-0.944,-0.182,-0.915,-0.244,0.427,622.353
136160,147801,38140,0.004,-0.944,-0.182,-0.915,-0.244,0.427,622.357
136160,147899,12506,-0,-0.949,-0.168,-0.732,-0.488,1.463,622.363
136158,147801,38140,-0,-0.949,-0.168,-0.732,-0.488,1.463,622.367
136158,147925,12499,0.003,-0.933,-0.179,0.366,-0.732,1.098,622.373
136172,147801,38140,0.003,-0.933,-0.179,0.366,-0.732,1.098,622.377
136172,147892,12502,0.006,-0.937,-0.166,1.524,-0.732,1.037,622.383
136153,147801,38140,0.006,-0.937,-0.166,1.524,-0.732,1.037,622.387
136153,147909,12492,0.007,-0.934,-0.172,1.463,-0.061,0.854,622.393
136156,147801,38140,0.007,-0.934,-0.172,1.463,-0.061,0.854,622.397
136156,147895,12510,0.006,-0.952,-0.175,-0.671,0.366,1.159,622.403
136157,147801,38140,0.006,-0.952,-0.175,-0.671,0.366,1.159,622.407
136157,147916,12486,0.008,-0.967,-0.181,-0.549,0.183,1.22,622.413
136144,147801,38140,0.008,-0.967,-0.181,-0.549,0.183,1.22,622.417
136144,147883,12505,0.002,-0.965,-0.18,0.122,0.244,1.098,622.423
136161,147801,38140,0.002,-0.965,-0.18,0.122,0.244,1.098,622.427
136161,147904,12491,-0.003,-0.954,-0.171,1.951,0.61,1.159,622.433
136139,147801,38140,-0.003,-0.954,-0.171,1.951,0.61,1.159,622.436
136139,147908,12503,0.003,-0.951,-0.175,2.683,0.183,0.976,622.443
136149,147801,38140,0.003,-0.951,-0.175,2.683,0.183,0.976,622.446
136149,147912,12494,0.005,-0.947,-0.165,2.256,0,0.244,622.452
136122,147801,38140,0.005,-0.947,-0.165,2.256,0,0.244,622.456
136122,147899,12490,0.006,-0.94,-0.163,2.256,0,0.244,622.462
136109,147801,38140,0.003,-0.942,-0.165,0,0.183,0.183,622.466
136109,147907,12506,0.001,-0.939,-0.165,0,0.183,0.183,622.472
136140,147801,38140,0.004,-0.943,-0.166,-1.341,0.366,0.549,622.476
136140,147897,12486,0.007,-0.95,-0.169,-1.341,0.366,0.549,622.482
136140,147801,38140,0.01,-0.952,-0.172,-1.402,0.671,0.122,622.486
136140,147874,12486,0.009,-0.949,-0.167,-1.402,0.671,0.122,622.492
136117,147801,38140,0.009,-0.946,-0.167,-0.793,0.793,0,622.496
136117,147909,12495,0.009,-0.943,-0.169,-0.793,0.793,0,622.502
136127,147801,38140,0.006,-0.942,-0.17,-0.305,0.915,0.427,622.506
136127,147880,12499,0.006,-0.945,-0.169,-0.305,0.915,0.427,622.512
136120,147801,38140,0.008,-0.95,-0.163,-0.427,0.976,0.549,622.516
136120,147872,12492,0.005,-0.951,-0.167,-0.427,0.976,0.549,622.522
136117,147801,38140,0.002,-0.948,-0.17,-0.915,0.976,0.488,622.525
136117,147891,12484,-0.002,-0.955,-0.171,-0.915,0.976,0.488,622.532
136125,147801,38140,-0.003,-0.953,-0.17,-0.793,1.159,0.854,622.535
136125,147885,12498,-0.009,-0.951,-0.171,-0.793,1.159,0.854,622.542
136138,147801,38140,-0.011,-0.947,-0.171,-0.427,1.037,0.732,622.545
136138,147887,12492,-0.01,-0.945,-0.171,-0.427,1.037,0.732,622.551
136134,147801,38140,-0.009,-0.945,-0.168,-0.549,0.549,0.549,622.555
136134,147878,12485,-0.007,-0.948,-0.168,-0.549,0.549,0.549,622.561
136102,147801,38140,-0.004,-0.947,-0.165,-0.732,0.061,0.427,622.565
136102,147888,12487,0.001,-0.942,-0.167,-0.732,0.061,0.427,622.571
136096,147801,38140,0.005,-0.94,-0.161,-1.646,-0.305,0.183,622.575
136096,147870,12483,0.002,-0.947,-0.16,-1.646,-0.305,0.183,622.581
136075,147801,38140,-0,-0.951,-0.16,-2.012,-0.549,0.305,622.585
136075,147856,12493,0.004,-0.954,-0.168,-2.012,-0.549,0.305,622.591
136074,147801,38140,0.001,-0.958,-0.172,-2.134,-0.244,0.366,622.595
136074,147838,12492,-0.003,-0.963,-0.171,-2.134,-0.244,0.366,622.601
136080,147801,38140,-0.005,-0.958,-0.173,-1.037,0.366,0.244,622.605
136080,147849,12484,-0.006,-0.953,-0.169,-1.037,0.366,0.244,622.611
136057,147801,38140,-0.005,-0.946,-0.169,-0.427,-0.122,0.305,622.615
136057,147845,12482,-0.002,-0.94,-0.176,-0.427,-0.122,0.305,622.621
136056,147801,38140,0.001,-0.943,-0.173,-0.427,-0.732,0.427,622.624
136056,147813,12477,0.001,-0.949,-0.174,-0.427,-0.732,0.427,622.631
136012,147801,38140,0.002,-0.95,-0.174,-0.915,-0.427,0.244,622.634
136012,147801,12484,0.002,-0.954,-0.174,-0.915,-0.427,0.244,622.641
136029,147801,38140,0.001,-0.957,-0.178,-2.073,0.061,0.061,622.644
136029,147785,12475,-0.004,-0.955,-0.186,-2.073,0.061,0.061,622.65
135978,147801,38140,-0.006,-0.955,-0.186,-1.951,0.305,0.183,622.654
135978,147790,12469,-0.005,-0.956,-0.186,-1.951,0.305,0.183,622.66
135990,147801,38140,-0.003,-0.958,-0.181,-0.976,0.183,-0.183,622.664
135990,147769,12469,-0.001,-0.958,-0.178,-0.976,0.183,-0.183,622.67
135966,147801,38140,0.002,-0.954,-0.18,-0.305,-0.061,-0.61,622.674
135966,147756,12467,0.004,-0.953,-0.187,-0.305,-0.061,-0.61,622.68
135965,147801,38140,0.002,-0.954,-0.184,0.549,-0.061,-0.305,622.684
135965,147771,12469,-0.001,-0.955,-0.179,0.549,-0.061,-0.305,622.69
135959,147801,38140,0.004,-0.951,-0.173,1.768,0.366,-0.671,622.694
135959,147748,12453,0.001,-0.939,-0.182,1.768,0.366,-0.671,622.7
135943,147801,38140,-0.001,-0.934,-0.184,-0.061,0.854,-0.854,622.704
135943,147730,12469,-0.004,-0.936,-0.18,-0.061,0.854,-0.854,622.71
135923,147801,38140,-0.003,-0.95,-0.177,-0.976,0.793,-0.183,622.714
135923,147747,12456,0.005,-0.956,-0.18,-0.976,0.793,-0.183,622.72
135929,147801,38140,0.009,-0.953,-0.189,-1.037,0.671,-0.61,622.723
135929,147730,12455,0.011,-0.954,-0.185,-1.037,0.671,-0.61,622.73
135920,147801,38140,0.007,-0.956,-0.179,-0.366,1.159,-0.61,622.733
135920,147714,12472,0.006,-0.947,-0.178,-0.366,1.159,-0.61,622.74
135930,147801,38140,0.006,-0.938,-0.177,0.549,1.463,0.122,622.743
135930,147736,12462,0.009,-0.941,-0.175,0.549,1.463,0.122,622.749
135938,147801,38140,0.01,-0.943,-0.179,0,1.341,0.122,622.753
135938,147720,12444,0.014,-0.947,-0.176,0,1.341,0.122,622.759
135915,147545,38140,0.014,-0.952,-0.173,-0.061,1.28,-0.122,622.763
135915,147711,12456,0.011,-0.954,-0.169,-0.061,1.28,-0.122,622.769
135939,147801,38140,0.012,-0.952,-0.172,-0.122,1.463,0.061,622.773
135939,147737,12457,0.01,-0.945,-0.17,-0.122,1.463,0.061,622.779
135937,147801,38140,0.009,-0.945,-0.167,-0.061,1.646,0.488,622.783
135937,147719,12455,0.012,-0.948,-0.164,-0.061,1.646,0.488,622.789
135924,147801,38140,0.015,-0.947,-0.167,0.305,1.341,0.366,622.793
135924,147715,12476,0.013,-0.948,-0.165,0.305,1.341,0.366,622.799
135933,147801,38140,0.012,-0.947,-0.164,0.061,1.037,0.122,622.803
135933,147733,12456,0.012,-0.945,-0.165,0.061,1.037,0.122,622.809
135921,147801,38140,0.01,-0.945,-0.171,0.061,1.707,0.427,622.813
135921,147758,12468,0.005,-0.944,-0.171,0.061,1.707,0.427,622.819
135938,147801,38140,0.004,-0.947,-0.168,0.061,2.073,0.488,622.822
135938,147724,12453,0.002,-0.944,-0.168,0.061,2.073,0.488,622.829
135934,147545,38140,0.004,-0.946,-0.17,-0.061,1.707,0.427,622.832
135934,147699,12445,0.006,-0.946,-0.171,-0.061,1.707,0.427,622.839
135941,147801,38140,0.002,-0.944,-0.171,-0.427,0.976,0.793,622.842
135941,147730,12453,0.003,-0.945,-0.167,-0.427,0.976,0.793,622.848
135911,147801,38140,0.002,-0.946,-0.164,-0.366,0.915,0.976,622.852
135911,147712,12458,0.006,-0.949,-0.167,-0.366,0.915,0.976,622.858
135900,147545,38140,0.007,-0.946,-0.164,-0.366,0.793,0.915,622.862
135900,147706,12453,0.007,-0.945,-0.164,-0.366,0.793,0.915,622.868
135913,147545,38140,0.008,-0.948,-0.164,-0.549,0.671,0.976,622.872
135913,147687,12460,0.006,-0.949,-0.164,-0.549,0.671,0.976,622.878
135905,147545,38140,0.006,-0.95,-0.168,-0.976,0.61,0.915,622.882
135905,147689,12451,0.008,-0.952,-0.168,-0.976,0.61,0.915,622.888
135884,147545,38140,0.008,-0.952,-0.168,-0.976,0.61,0.915,622.892
135884,147706,12467,0.003,-0.959,-0.166,-1.341,0.671,0.854,622.898
135923,147545,38140,0.003,-0.959,-0.166,-1.341,0.671,0.854,622.902
135923,147682,12465,-0.001,-0.953,-0.168,-1.098,0.732,0.732,622.908
135896,147545,38140,-0.001,-0.953,-0.168,-1.098,0.732,0.732,622.911
135896,147698,12457,-0,-0.952,-0.169,-1.098,0.488,0.488,622.918
135893,147545,38140,-0,-0.952,-0.169,-1.098,0.488,0.488,622.921
135893,147702,12481,-0.001,-0.949,-0.17,-0.915,0.183,0.366,622.928
135898,147545,38140,-0.001,-0.949,-0.17,-0.915,0.183,0.366,622.931
135898,147686,12454,0.001,-0.946,-0.176,-1.402,0.244,0.122,622.938
135897,147545,38140,0.001,-0.946,-0.176,-1.402,0.244,0.122,622.941
135897,147695,12447,-0.008,-0.951,-0.176,-1.768,0.366,0.122,622.947
135888,147545,38140,-0.008,-0.951,-0.176,-1.768,0.366,0.122,622.951
135888,147688,12452,-0.005,-0.947,-0.175,-1.585,0.427,0.183,622.957
135891,147545,38140,-0.005,-0.947,-0.175,-1.585,0.427,0.183,622.961
135891,147698,12451,-0.004,-0.943,-0.179,-1.341,0.183,0.061,622.967
135901,147545,38140,-0.004,-0.943,-0.179,-1.341,0.183,0.061,622.971
135901,147699,12452,-0.004,-0.947,-0.179,-1.098,0.305,0.183,622.977
135930,147545,38140,-0.004,-0.947,-0.179,-1.098,0.305,0.183,622.981
135930,147709,12471,-0.005,-0.949,-0.173,-0.854,0.244,0.366,622.987
135927,147545,38140,-0.005,-0.949,-0.173,-0.854,0.244,0.366,622.991
135927,147693,12449,-0.002,-0.951,-0.177,-1.037,-0.122,0.549,622.997
135907,147801,38140,-0.002,-0.951,-0.177,-1.037,-0.122,0.549,623.001
135907,147738,12448,0.002,-0.951,-0.173,-0.488,-0.427,0.488,623.007
135929,147801,38140,0.002,-0.951,-0.173,-0.488,-0.427,0.488,623.01
135929,147714,12448,0.004,-0.951,-0.173,-0.061,-0.366,0.427,623.017
135918,147801,38140,0.004,-0.951,-0.173,-0.061,-0.366,0.427,623.02
135918,147723,12455,0.006,-0.949,-0.18,-0.122,0.061,0.244,623.027
135932,147801,38140,0.006,-0.949,-0.18,-0.122,0.061,0.244,623.03
135932,147721,12455,0.003,-0.953,-0.179,-0.61,0.183,0,623.036
135908,147801,38140,0.005,-0.953,-0.183,-0.61,0.183,0,623.04
135908,147736,12450,0.006,-0.953,-0.184,-0.366,0.305,-0.244,623.046
135920,147801,38140,0.006,-0.953,-0.187,-0.366,0.305,-0.244,623.05
135920,147718,12443,0.004,-0.949,-0.189,-0.183,0.671,-0.244,623.056
135921,147801,38140,0.004,-0.951,-0.183,-0.183,0.671,-0.244,623.06
135921,147713,12457,0.004,-0.949,-0.181,-0.061,0.671,-0.244,623.066
135910,147801,38140,0.006,-0.947,-0.179,-0.061,0.671,-0.244,623.07
135910,147713,12445,0.007,-0.95,-0.181,-0.244,0.549,-0.183,623.076
135902,147801,38140,0.009,-0.952,-0.179,-0.244,0.549,-0.183,623.08
135902,147735,12459,0.006,-0.946,-0.179,-0.488,0.854,0.061,623.086
135902,147801,38140,0.006,-0.948,-0.179,-0.488,0.854,0.061,623.09
135902,147719,12448,0.002,-0.946,-0.184,-0.61,1.098,0.305,623.096
135915,147801,38140,0.003,-0.944,-0.182,-0.61,1.098,0.305,623.1
135915,147740,12458,-0.001,-0.949,-0.176,0,1.22,0.366,623.106
135924,147801,38140,0.001,-0.946,-0.172,0,1.22,0.366,623.109
135924,147737,12463,0.003,-0.946,-0.168,-0.122,0.854,0.305,623.116
135949,147801,38140,0.002,-0.944,-0.166,-0.122,0.854,0.305,623.119
135949,147748,12448,0.002,-0.944,-0.166,-0.732,0.61,0.549,623.126
135933,147801,38140,0.004,-0.947,-0.175,-0.732,0.61,0.549,623.129
135933,147744,12458,0.004,-0.948,-0.176,-0.793,0.915,0.488,623.135
135915,147801,38140,0.004,-0.952,-0.173,-0.793,0.915,0.488,623.139
135915,147751,12464,-0.002,-0.949,-0.169,-0.183,0.976,0,623.145
135954,147801,38140,0.001,-0.944,-0.168,-0.183,0.976,0,623.149
135954,147729,12454,-0.001,-0.946,-0.172,0.061,0.732,0.183,623.155
135957,147801,38140,0.002,-0.946,-0.17,0.061,0.732,0.183,623.159
135957,147769,12453,0.001,-0.947,-0.166,0.305,0.427,0.305,623.165
135946,147801,38140,0.004,-0.95,-0.172,0.305,0.427,0.305,623.169
135946,147773,12457,0.007,-0.951,-0.166,-0.122,0.061,-0.061,623.175
135955,147801,38140,0.009,-0.948,-0.169,-0.122,0.061,-0.061,623.179
135955,147754,12456,0.01,-0.947,-0.171,-0.61,0.305,0,623.185
135940,147801,38140,0.003,-0.949,-0.17,-0.61,0.305,0,623.189
135940,147741,12467,0.005,-0.951,-0.172,-0.427,0.61,0.305,623.195
135955,147801,38140,0.007,-0.95,-0.178,-0.427,0.61,0.305,623.199
135955,147783,12447,0.006,-0.952,-0.174,-0.549,0.549,0.244,623.205
135961,147801,38140,0.008,-0.953,-0.173,-0.549,0.549,0.244,623.208
135961,147758,12468,0.012,-0.951,-0.178,-0.488,0.244,0.366,623.215
135984,147801,38140,0.01,-0.947,-0.177,-0.488,0.244,0.366,623.218
135984,147777,12479,0.011,-0.945,-0.18,-0.427,0.061,0.61,623.225
135983,147801,38140,0.011,-0.944,-0.18,-0.427,0.061,0.61,623.228
135983,147777,12464,0.009,-0.949,-0.181,-0.122,0.183,0.488,623.234
135979,147801,38140,0.007,-0.949,-0.176,-0.122,0.183,0.488,623.238
135979,147799,12448,0.008,-0.95,-0.178,-0.244,0.488,0.488,623.244
136010,147801,38140,0.005,-0.953,-0.179,-0.244,0.488,0.488,623.248
136010,147792,12449,0.003,-0.953,-0.178,-0.671,0.549,0.671,623.254
136016,147801,38140,0.003,-0.957,-0.18,-0.671,0.549,0.671,623.258
136016,147828,12459,0.003,-0.959,-0.176,-0.305,0.305,0.671,623.264
135969,147801,38140,0.003,-0.958,-0.173,-0.305,0.305,0.671,623.268
135969,147783,12475,0.004,-0.95,-0.175,0.061,-0.061,0.549,623.274
135975,147801,38140,0.002,-0.945,-0.172,0.061,-0.061,0.549,623.278
135975,147797,12460,-0.001,-0.944,-0.174,0.427,-0.305,0.671,623.284
135980,147801,38140,-0.001,-0.942,-0.17,0.427,-0.305,0.671,623.288
135980,147789,12478,0.002,-0.943,-0.171,0.854,0.061,0.671,623.294
135975,147801,38140,0.001,-0.942,-0.174,0.854,0.061,0.671,623.298
135975,147806,12454,-0.004,-0.94,-0.171,0.61,0.427,0.671,623.304
135985,147801,38140,-0.003,-0.939,-0.171,0.61,0.427,0.671,623.307
135985,147784,12453,-0.002,-0.939,-0.173,0.061,0.183,0.854,623.314
135988,147801,38140,0,-0.941,-0.173,0.061,0.183,0.854,623.317
135988,147789,12467,0.001,-0.947,-0.17,0.122,-0.122,0.732,623.324
136007,147801,38140,0.006,-0.95,-0.172,0.122,-0.122,0.732,623.327
136007,147809,12467,0.006,-0.955,-0.171,0.366,-0.061,0.793,623.333
135989,147801,38140,0.007,-0.954,-0.169,0.366,-0.061,0.793,623.337
135989,147804,12472,0.007,-0.953,-0.171,0.366,0.061,0.793,623.343
136005,147801,38140,0.005,-0.953,-0.173,0.366,0.061,0.793,623.347
136005,147798,12456,0.005,-0.948,-0.175,0.244,0.122,0.976,623.353
135981,147801,38140,0,-0.952,-0.175,0.244,0.122,0.976,623.357
135981,147815,12463,-0.001,-0.95,-0.176,0.427,0.305,1.098,623.363
135983,147801,38140,0.002,-0.948,-0.173,0.427,0.305,1.098,623.367
135983,147801,12453,0.004,-0.949,-0.174,0.366,-0.061,0.793,623.373
135984,147801,38140,0.006,-0.945,-0.177,0.366,-0.061,0.793,623.377
135984,147800,12480,0.007,-0.947,-0.175,0,-0.244,0.61,623.383
135981,147801,38140,0.008,-0.951,-0.176,0,-0.244,0.61,623.387
135981,147793,12442,0.009,-0.954,-0.174,-0.427,-0.183,0.427,623.393
135976,147801,38140,0.008,-0.954,-0.179,-0.427,-0.183,0.427,623.397
135976,147813,12446,0.008,-0.953,-0.18,-1.098,0.061,0.427,623.403
135979,147801,38140,0.004,-0.95,-0.18,-1.098,0.061,0.427,623.406
135979,147797,12463,0.003,-0.949,-0.183,-0.427,0.366,0.732,623.413
135978,147801,38140,0.005,-0.948,-0.182,-0.427,0.366,0.732,623.416
135978,147796,12445,0.004,-0.947,-0.177,0.244,0.427,0.549,623.423
135966,147801,38140,0.002,-0.948,-0.178,0.244,0.427,0.549,623.426
135966,147807,12466,0.002,-0.947,-0.177,0.061,0.061,0.488,623.432
135979,147801,38140,0.003,-0.944,-0.174,0.061,0.061,0.488,623.436
135979,147791,12448,-0,-0.946,-0.174,-0.549,0,0.732,623.442
135984,147801,38140,0.001,-0.951,-0.173,-0.549,0,0.732,623.446
135984,147792,12455,-0.001,-0.952,-0.175,-0.793,0.427,0.732,623.452
135987,147801,38140,-0.004,-0.955,-0.175,-0.793,0.427,0.732,623.456
135987,147775,12457,-0.006,-0.953,-0.172,-0.61,0.488,0.61,623.462
135992,147801,38140,-0.006,-0.955,-0.174,-0.61,0.488,0.61,623.466
135992,147827,12487,-0.009,-0.952,-0.178,0.061,0.366,0.427,623.472
136020,147801,38140,-0.009,-0.952,-0.178,0.061,0.366,0.427,623.476
136020,147814,12459,-0.002,-0.947,-0.174,0.61,0.549,0.366,623.482
136008,147801,38140,-0.002,-0.947,-0.174,0.61,0.549,0.366,623.486
136008,147817,12471,-0.002,-0.947,-0.173,0.122,0.366,0.183,623.492
136024,147801,38140,-0.002,-0.947,-0.173,0.122,0.366,0.183,623.496
136024,147823,12464,0.002,-0.95,-0.172,-0.61,0.305,-0.061,623.502
136041,147801,38140,0.002,-0.95,-0.172,-0.61,0.305,-0.061,623.505
136041,147851,12477,0.002,-0.954,-0.177,-1.159,0.549,-0.061,623.512
136020,147801,38140,0.002,-0.954,-0.177,-1.159,0.549,-0.061,623.515
136020,147854,12470,0.002,-0.949,-0.178,-0.671,0.976,0.061,623.522
136049,147801,38140,0.002,-0.949,-0.178,-0.671,0.976,0.061,623.525
136049,147856,12461,0.005,-0.95,-0.174,0.061,0.793,0.061,623.531
136031,147801,38140,0.005,-0.95,-0.174,0.061,0.793,0.061,623.535
136031,147840,12473,0.005,-0.95,-0.172,0.061,0.427,0.244,623.541
136017,147801,38140,0.005,-0.95,-0.172,0.061,0.427,0.244,623.545
136017,147854,12471,0.007,-0.944,-0.17,-0.183,0.183,0.305,623.551
136050,147801,38140,0.007,-0.944,-0.17,-0.183,0.183,0.305,623.555
136050,147872,12467,0.008,-0.947,-0.173,-0.122,0.122,0.122,623.561
136045,147801,38140,0.008,-0.947,-0.173,-0.122,0.122,0.122,623.565
136045,147867,12459,0.006,-0.949,-0.172,0.122,0.61,0.183,623.571
136031,147801,38140,0.006,-0.949,-0.172,0.122,0.61,0.183,623.575
136031,147841,12480,0.001,-0.946,-0.173,0.305,0.854,0.488,623.581
136035,147801,38140,0.001,-0.946,-0.173,0.305,0.854,0.488,623.585
136035,147848,12465,0.003,-0.94,-0.174,0.549,0.61,0.549,623.591
136025,147801,38140,0.003,-0.94,-0.174,0.549,0.61,0.549,623.595
136025,147845,12484,0.003,-0.944,-0.172,0.366,0.305,0.61,623.601
136036,147801,38140,0.003,-0.944,-0.172,0.366,0.305,0.61,623.604
136036,147853,12466,0.003,-0.952,-0.17,0.549,0.427,0.915,623.611
136030,147801,38140,0.003,-0.952,-0.17,0.549,0.427,0.915,623.614
136030,147832,12472,0.002,-0.951,-0.171,0.549,0.427,0.915,623.621
136023,147801,38140,0.004,-0.953,-0.173,0.61,0.183,0.854,623.624
136023,147860,12476,0.002,-0.951,-0.174,0.61,0.183,0.854,623.63
136034,147801,38140,0.001,-0.948,-0.169,1.037,0.183,0.793,623.634
136034,147843,12462,0,-0.946,-0.165,1.037,0.183,0.793,623.64
136019,147801,38140,0.003,-0.943,-0.171,1.159,0.427,0.793,623.644
136019,147856,12481,0,-0.945,-0.172,1.159,0.427,0.793,623.65
136017,147801,38140,0,-0.948,-0.168,0.488,0.366,0.732,623.654
136017,147839,12485,0.002,-0.95,-0.169,0.488,0.366,0.732,623.66
136025,147801,38140,0.004,-0.949,-0.17,-0.061,-0.061,0.488,623.664
136025,147845,12463,0.006,-0.953,-0.173,-0.061,-0.061,0.488,623.67
136016,147801,38140,0.007,-0.955,-0.172,-0.61,-0.061,0.305,623.674
136016,147842,12465,0.008,-0.955,-0.174,-0.61,-0.061,0.305,623.68
136021,147801,38140,0.004,-0.954,-0.172,-0.671,0.488,0.427,623.684
136021,147842,12468,0.004,-0.954,-0.168,-0.671,0.488,0.427,623.69
136018,147801,38140,0.004,-0.947,-0.174,-0.244,0.488,0.61,623.694
136018,147848,12474,0.002,-0.946,-0.171,-0.244,0.488,0.61,623.7
136030,147801,38140,0.005,-0.945,-0.17,0.061,0.061,0.427,623.703
136030,147841,12466,0.007,-0.945,-0.172,0.061,0.061,0.427,623.71
135997,147801,38140,0.007,-0.947,-0.171,-0.366,0.061,0.305,623.713
135997,147830,12478,0.006,-0.949,-0.171,-0.366,0.061,0.305,623.72
136021,147801,38140,0.005,-0.952,-0.176,-0.976,0.366,0.427,623.723
136021,147834,12457,0,-0.954,-0.174,-0.976,0.366,0.427,623.729
136006,147801,38140,-0.002,-0.958,-0.172,-0.976,0.549,0.366,623.733
136006,147805,12479,-0.005,-0.956,-0.176,-0.976,0.549,0.366,623.739
136002,147801,38140,-0.002,-0.953,-0.176,-0.671,0.244,0.305,623.743
136002,147830,12473,-0.003,-0.954,-0.169,-0.671,0.244,0.305,623.749
136009,147801,38140,-0.002,-0.95,-0.166,0.244,-0.244,0.244,623.753
136009,147825,12453,-0.006,-0.946,-0.164,0.244,-0.244,0.244,623.759
136010,147801,38140,-0.003,-0.943,-0.168,0.427,-0.549,0,623.763
136010,147849,12452,-0.003,-0.942,-0.168,0.427,-0.549,0,623.769
136034,147801,38140,-0.006,-0.944,-0.167,0.183,-0.366,0.061,623.773
136034,147823,12459,-0.005,-0.943,-0.171,0.183,-0.366,0.061,623.779
135991,147801,38140,-0.003,-0.946,-0.169,-0.244,-0.061,0.061,623.783
135991,147824,12470,-0.001,-0.946,-0.171,-0.244,-0.061,0.061,623.789
136012,147801,38140,-0.001,-0.946,-0.173,-0.793,-0.061,0.061,623.793
136012,147842,12456,0.002,-0.948,-0.175,-0.793,-0.061,0.061,623.799
136015,147801,38140,0.001,-0.947,-0.176,-0.854,-0.122,0.122,623.802
136015,147837,12470,0.003,-0.946,-0.177,-0.854,-0.122,0.122,623.809
136019,147801,38140,0.002,-0.949,-0.178,-0.305,-0.061,0.122,623.812
136019,147842,12459,0.005,-0.95,-0.179,-0.305,-0.061,0.122,623.819
136006,147801,38140,0.005,-0.945,-0.177,0.061,-0.244,0.305,623.822
136006,147853,12470,0.009,-0.949,-0.18,0.061,-0.244,0.305,623.828
136010,147801,38140,0.011,-0.95,-0.181,-0.305,-0.122,0.549,623.832
136010,147827,12460,0.009,-0.952,-0.174,-0.305,-0.122,0.549,623.838
136026,147801,38140,0.012,-0.952,-0.178,-0.61,0.061,0.671,623.842
136026,147862,12454,0.014,-0.947,-0.184,-0.61,0.061,0.671,623.848
136012,147801,38140,0.012,-0.95,-0.18,-0.61,0.427,0.549,623.852
136012,147848,12457,0.013,-0.951,-0.184,-0.61,0.427,0.549,623.858
136043,147801,38140,0.01,-0.951,-0.184,-0.183,0.976,0.366,623.862
136043,147841,12455,0.01,-0.953,-0.183,-0.183,0.976,0.366,623.868
136014,147801,38140,0.008,-0.951,-0.185,-0.366,1.402,0.366,623.872
136014,147856,12455,0.003,-0.949,-0.187,-0.366,1.402,0.366,623.878
136007,147801,38140,0.007,-0.952,-0.188,-0.854,1.22,0.366,623.882
136007,147839,12457,0.006,-0.954,-0.186,-0.854,1.22,0.366,623.888
136020,147801,38140,0.003,-0.958,-0.179,-0.854,1.037,0.305,623.892
136020,147828,12463,0.005,-0.956,-0.183,-0.854,1.037,0.305,623.898
136003,147801,38140,0.007,-0.952,-0.178,-0.244,1.098,0.244,623.901
136003,147832,12464,0.004,-0.948,-0.177,-0.244,1.098,0.244,623.908
135981,147801,38140,-0,-0.947,-0.174,0.671,1.341,0.427,623.911
135981,147838,12467,0.001,-0.939,-0.17,0.671,1.341,0.427,623.918
136001,147801,38140,-0.002,-0.939,-0.169,0.61,1.341,0.366,623.921
136001,147829,12458,0.001,-0.942,-0.167,0.61,1.341,0.366,623.927
135998,147801,38140,0.001,-0.941,-0.164,0,1.341,0.305,623.931
135998,147810,12457,0.005,-0.941,-0.167,0,1.341,0.305,623.937
135993,147801,38140,0,-0.945,-0.173,-0.61,1.585,0.549,623.941
135993,147853,12467,-0.004,-0.947,-0.169,-0.61,1.585,0.549,623.947
135994,147801,38140,-0.003,-0.946,-0.169,-0.427,1.951,0.732,623.951
135994,147825,12464,-0.004,-0.948,-0.167,-0.427,1.951,0.732,623.957
135999,147801,38140,-0.003,-0.95,-0.17,-0.244,1.585,0.671,623.961
135999,147810,12464,-0.007,-0.948,-0.167,-0.244,1.585,0.671,623.967
135992,147801,38140,-0.004,-0.946,-0.166,0,0.915,0.854,623.971
135992,147842,12460,-0.003,-0.947,-0.165,0,0.915,0.854,623.977
135996,147801,38140,-0.001,-0.949,-0.165,0.427,0.488,0.854,623.981
135996,147853,12462,-0.001,-0.952,-0.166,0.427,0.488,0.854,623.987
135990,147801,38140,0.001,-0.95,-0.164,0.732,0.488,0.854,623.991
135990,147845,12471,0.002,-0.949,-0.164,0.732,0.488,0.854,623.997
136007,147801,38140,-0.001,-0.951,-0.164,0.488,0.427,0.732,624
136007,147852,12446,0.006,-0.95,-0.165,0.488,0.427,0.732,624.007
136009,147801,38140,0.005,-0.949,-0.169,0.366,0.183,0.488,624.01
136009,147854,12468,0.003,-0.952,-0.169,0.366,0.183,0.488,624.017
136013,147801,38140,0.002,-0.953,-0.171,0.488,0.183,0.427,624.02
136013,147847,12461,0.004,-0.95,-0.173,0.488,0.183,0.427,624.026
136007,147801,38140,0.002,-0.949,-0.175,0.122,0.305,0.366,624.03
136007,147854,12451,0.001,-0.952,-0.175,0.122,0.305,0.366,624.036
136011,147801,38140,0.003,-0.951,-0.173,-0.427,0.122,0.305,624.04
136011,147857,12470,0.005,-0.954,-0.176,-0.427,0.122,0.305,624.046
135991,147801,38140,0.008,-0.951,-0.182,-0.854,0.122,0.305,624.05
135991,147841,12441,0.005,-0.95,-0.18,-0.854,0.122,0.305,624.056
136012,147801,38140,0.005,-0.95,-0.18,-0.854,0.122,0.305,624.06
136012,147843,12454,0.004,-0.949,-0.184,-0.366,0.305,0.305,624.066
136014,147801,38140,0.004,-0.949,-0.184,-0.366,0.305,0.305,624.07
136014,147884,12466,0.008,-0.947,-0.172,0.061,0.427,0.183,624.076
136016,147801,38140,0.008,-0.947,-0.172,0.061,0.427,0.183,624.08
136016,147862,12470,0.008,-0.948,-0.18,-0.305,0.244,0.061,624.086
136015,147801,38140,0.008,-0.948,-0.18,-0.305,0.244,0.061,624.09
136015,147842,12471,0.007,-0.953,-0.173,-0.793,0.122,0.244,624.096
136022,147801,38140,0.007,-0.953,-0.173,-0.793,0.122,0.244,624.099
136022,147854,12464,0.008,-0.946,-0.176,-0.366,0.549,0.244,624.106
136027,147801,38140,0.008,-0.946,-0.176,-0.366,0.549,0.244,624.109
136027,147842,12462,0.004,-0.943,-0.176,-0.427,0.854,0.244,624.115
136013,147801,38140,0.004,-0.943,-0.176,-0.427,0.854,0.244,624.119
136013,147866,12472,0.003,-0.946,-0.176,-0.244,0.976,0.427,624.125
136054,147801,38140,0.003,-0.946,-0.176,-0.244,0.976,0.427,624.129
136054,147872,12467,0.002,-0.948,-0.174,-0.732,1.098,0.244,624.135
136046,147801,38140,0.002,-0.948,-0.174,-0.732,1.098,0.244,624.139
136046,147875,12475,-0.001,-0.95,-0.174,-1.037,1.341,0.366,624.145
136049,147801,38140,-0.001,-0.95,-0.174,-1.037,1.341,0.366,624.149
136049,147878,12455,-0.005,-0.947,-0.177,-0.549,1.463,0.549,624.155
136047,147801,38140,-0.005,-0.947,-0.177,-0.549,1.463,0.549,624.159
136047,147894,12461,-0.005,-0.945,-0.175,-0.122,1.402,0.61,624.165
136050,147801,38140,-0.005,-0.945,-0.175,-0.122,1.402,0.61,624.169
136050,147886,12468,-0.002,-0.948,-0.169,0.305,0.976,0.732,624.175
136023,147801,38140,-0.002,-0.948,-0.169,0.305,0.976,0.732,624.179
136023,147869,12463,0,-0.947,-0.176,-0.366,0.427,0.61,624.185
136048,147801,38140,0,-0.947,-0.176,-0.366,0.427,0.61,624.189
136048,147877,12469,0.001,-0.953,-0.172,-1.037,0.488,0.732,624.195
136025,147801,38140,0.001,-0.953,-0.172,-1.037,0.488,0.732,624.198
136025,147888,12482,0.003,-0.955,-0.173,-0.61,0.549,0.488,624.205
136061,147801,38140,-0.001,-0.954,-0.167,-0.61,0.549,0.488,624.208
136061,147878,12467,0.003,-0.954,-0.172,-0.732,0.488,0.244,624.215
136055,147801,38140,0,-0.954,-0.173,-0.732,0.488,0.244,624.218
136055,147878,12470,0.001,-0.957,-0.174,-0.671,0.305,0.305,624.224
136069,147801,38140,0.007,-0.956,-0.175,-0.671,0.305,0.305,624.228
136069,147905,12460,0.005,-0.958,-0.169,-0.366,0.061,0.061,624.234
136035,147801,38140,0.001,-0.956,-0.17,-0.366,0.061,0.061,624.238
136035,147871,12484,0.003,-0.949,-0.176,-0.793,-0.122,0.061,624.244
136028,147801,38140,0.001,-0.949,-0.172,-0.793,-0.122,0.061,624.248
136028,147906,12461,-0.002,-0.947,-0.17,-0.793,0.183,-0.061,624.254
136053,147801,38140,0.005,-0.945,-0.177,-0.793,0.183,-0.061,624.258
136053,147900,12471,0.001,-0.95,-0.175,-0.732,0.305,-0.305,624.264
136028,147801,38140,0.001,-0.949,-0.176,-0.732,0.305,-0.305,624.268
136028,147883,12472,0,-0.95,-0.177,-0.488,0.244,-0.366,624.274
136035,147801,38140,0.001,-0.946,-0.178,-0.488,0.244,-0.366,624.278
136035,147878,12479,0.002,-0.945,-0.178,-0.488,0.061,-0.183,624.284
136042,147801,38140,0,-0.946,-0.177,-0.488,0.061,-0.183,624.288
136042,147853,12468,0.001,-0.945,-0.178,0,-0.061,-0.122,624.294
136047,147801,38140,0.003,-0.945,-0.175,0,-0.061,-0.122,624.297
136047,147895,12477,0.003,-0.949,-0.172,0,0.061,-0.061,624.304
136053,147801,38140,0.001,-0.945,-0.179,0,0.061,-0.061,624.307
136053,147912,12470,-0.003,-0.945,-0.181,-0.305,0.305,0.122,624.313
136054,147801,38140,-0.003,-0.944,-0.181,-0.305,0.305,0.122,624.317
136054,147903,12476,-0,-0.947,-0.184,0.122,0.488,0.366,624.323
136057,147801,38140,0.001,-0.947,-0.187,0.122,0.488,0.366,624.327
136057,147911,12478,0,-0.948,-0.181,0.549,0.366,0.488,624.333
136077,147801,38140,0.001,-0.949,-0.18,0.549,0.366,0.488,624.337
136077,147904,12477,0.001,-0.949,-0.181,0.427,0.122,0.61,624.343
136079,147801,38140,0.005,-0.95,-0.173,0.427,0.122,0.61,624.347
136079,147924,12468,0.006,-0.95,-0.171,0.366,0,0.671,624.353
136080,147801,38140,0.008,-0.95,-0.174,0.366,0,0.671,624.357
136080,147913,12473,0.008,-0.951,-0.171,-0.366,-0.061,0.427,624.363
136047,147801,38140,0.012,-0.952,-0.168,-0.366,-0.061,0.427,624.367
136047,147902,12471,0.011,-0.951,-0.166,-0.305,0.061,0.244,624.373
136072,147801,38140,0.012,-0.948,-0.171,-0.305,0.061,0.244,624.377
136072,147880,12468,0.006,-0.949,-0.172,-0.305,0.793,0.183,624.383
136080,147801,38140,0.005,-0.949,-0.169,-0.305,0.793,0.183,624.387
136080,147932,12474,0.007,-0.946,-0.173,-0.183,1.159,0.305,624.393
136066,147801,38140,0.007,-0.948,-0.179,-0.183,1.159,0.305,624.396
136066,147918,12474,0.008,-0.943,-0.175,-0.854,0.671,0.183,624.403
136077,147801,38140,0.008,-0.947,-0.176,-0.854,0.671,0.183,624.406
136077,147924,12480,0.008,-0.949,-0.177,-1.159,0.61,0.122,624.412
136112,147801,38140,0.009,-0.948,-0.178,-1.159,0.61,0.122,624.416
136112,147923,12472,0.005,-0.949,-0.178,-1.585,0.915,0.122,624.422
136070,147801,38140,0.004,-0.947,-0.18,-1.585,0.915,0.122,624.426
136070,147941,12480,0.003,-0.952,-0.181,-1.89,1.098,0.366,624.432
136112,147801,38140,0.003,-0.957,-0.177,-1.89,1.098,0.366,624.436
136112,147934,12471,0.003,-0.954,-0.179,-1.28,0.976,0.427,624.442
136098,147801,38140,0.004,-0.952,-0.181,-1.28,0.976,0.427,624.446
136098,147892,12483,0.008,-0.949,-0.18,-0.976,0.488,0.488,624.452
136071,147801,38140,0.006,-0.954,-0.175,-0.976,0.488,0.488,624.456
136071,147908,12480,0.006,-0.95,-0.171,0,0.244,0.488,624.462
136073,147801,38140,0.006,-0.944,-0.17,0,0.244,0.488,624.466
136073,147921,12477,0.007,-0.948,-0.17,0,0.671,0.427,624.472
136078,147801,38140,0.004,-0.947,-0.172,0,0.671,0.427,624.476
136078,147880,12488,0.002,-0.946,-0.179,-0.915,0.976,0.549,624.482
136059,147801,38140,-0.001,-0.946,-0.178,-0.915,0.976,0.549,624.486
136059,147904,12467,-0.003,-0.954,-0.174,-0.854,1.037,0.366,624.492
136055,147801,38140,-0.002,-0.952,-0.175,-0.854,1.037,0.366,624.495
136055,147883,12466,0.001,-0.948,-0.175,-0.549,0.976,0,624.502
136043,147801,38140,0,-0.95,-0.171,-0.549,0.976,0,624.505
136043,147873,12478,0.001,-0.95,-0.169,-0.549,0.732,0.122,624.511
136049,147801,38140,0.006,-0.947,-0.172,-0.549,0.732,0.122,624.515
136049,147896,12475,0.005,-0.948,-0.176,-0.305,0.671,0.366,624.521
136051,147801,38140,0.006,-0.949,-0.173,-0.305,0.671,0.366,624.525
136051,147883,12473,0.008,-0.95,-0.171,-0.244,0.854,0.427,624.531
136073,147801,38140,0.009,-0.945,-0.175,-0.244,0.854,0.427,624.535
136073,147893,12484,0.008,-0.943,-0.175,-0.488,0.976,0.549,624.541
136074,147801,38140,0.006,-0.944,-0.173,-0.488,0.976,0.549,624.545
136074,147881,12466,0.006,-0.946,-0.175,-0.244,0.732,0.671,624.551
136061,147801,38140,0.009,-0.944,-0.174,-0.244,0.732,0.671,624.555
136061,147915,12480,0.009,-0.946,-0.174,-0.366,0.671,0.427,624.561
136065,147801,38140,0.011,-0.95,-0.175,-0.366,0.671,0.427,624.565
136065,147903,12472,0.01,-0.952,-0.175,-0.854,0.854,0.549,624.571
136064,147801,38140,0.01,-0.953,-0.18,-0.854,0.854,0.549,624.575
136064,147897,12473,0.008,-0.949,-0.182,-0.854,0.854,0.671,624.581
136065,147801,38140,0.01,-0.944,-0.181,-0.854,0.854,0.671,624.585
136065,147923,12480,0.01,-0.945,-0.183,-0.793,0.976,0.671,624.591
136080,147801,38140,0.009,-0.949,-0.187,-0.793,0.976,0.671,624.594
136080,147901,12465,0.008,-0.944,-0.185,-0.854,1.463,0.671,624.601
136070,147801,38140,0.006,-0.944,-0.188,-0.854,1.463,0.671,624.604
136070,147894,12463,0.006,-0.947,-0.191,-1.098,1.89,0.671,624.61
136078,147801,38140,0.006,-0.952,-0.183,-1.098,1.89,0.671,624.614
136078,147887,12477,0.01,-0.954,-0.18,-1.22,2.134,0.549,624.62
136058,147801,38140,0.007,-0.955,-0.184,-1.22,2.134,0.549,624.624
136058,147889,12465,0.007,-0.957,-0.178,-1.159,2.256,0.61,624.63
136034,147801,38140,0.005,-0.956,-0.177,-1.159,2.256,0.61,624.634
136034,147871,12476,0.004,-0.953,-0.174,-0.61,2.317,0.61,624.64
136040,147801,38140,0.004,-0.953,-0.174,-0.61,2.317,0.61,624.644
136040,147852,12448,0.003,-0.948,-0.168,0.061,2.195,0.488,624.65
136043,147801,38140,0.003,-0.948,-0.168,0.061,2.195,0.488,624.654
136043,147879,12480,0.005,-0.942,-0.172,0.244,2.134,0.366,624.66
136039,147801,38140,0.005,-0.942,-0.172,0.244,2.134,0.366,624.664
136039,147873,12460,0.011,-0.945,-0.174,0.061,2.439,0.366,624.67
136044,147801,38140,0.011,-0.945,-0.174,0.061,2.439,0.366,624.674
136044,147884,12473,0.008,-0.947,-0.173,-0.305,2.5,0.366,624.68
136058,147801,38140,0.008,-0.947,-0.173,-0.305,2.5,0.366,624.683
136058,147902,12458,0.007,-0.942,-0.183,0.122,2.561,0.671,624.69
136067,147801,38140,0.007,-0.942,-0.183,0.122,2.561,0.671,624.693
136067,147916,12465,0.005,-0.943,-0.178,1.159,2.439,0.915,624.7
136091,147801,38140,0.005,-0.943,-0.178,1.159,2.439,0.915,624.703
136091,147901,12466,0.008,-0.941,-0.176,1.28,2.073,0.915,624.709
136068,147801,38140,0.008,-0.941,-0.176,1.28,2.073,0.915,624.713
136068,147905,12461,0.01,-0.943,-0.17,0.732,1.707,1.341,624.719
136050,147801,38140,0.01,-0.943,-0.17,0.732,1.707,1.341,624.723
136050,147893,12464,0.013,-0.952,-0.171,0.244,1.768,1.463,624.729
136070,147801,38140,0.013,-0.952,-0.171,0.244,1.768,1.463,624.733
136070,147896,12455,0.006,-0.952,-0.17,0.427,2.012,1.341,624.739
136075,147801,38140,0.006,-0.952,-0.17,0.427,2.012,1.341,624.743
136075,147884,12446,0.007,-0.953,-0.167,0.549,1.951,1.341,624.749
136057,147801,38140,0.007,-0.953,-0.167,0.549,1.951,1.341,624.753
136057,147888,12461,0.009,-0.95,-0.169,0.305,1.707,1.28,624.759
136050,147801,38140,0.009,-0.95,-0.169,0.305,1.707,1.28,624.763
136050,147894,12469,0.01,-0.951,-0.172,0.305,1.768,1.037,624.769
136060,147801,38140,0.01,-0.951,-0.172,0.305,1.768,1.037,624.773
136060,147905,12455,0.009,-0.95,-0.17,-0.183,1.829,0.732,624.779
136063,147801,38140,0.009,-0.95,-0.17,-0.183,1.829,0.732,624.783
136063,147879,12457,0.011,-0.946,-0.172,-0.183,1.829,0.732,624.789
136047,147801,38140,0.013,-0.943,-0.175,-0.61,2.134,0.732,624.792
136047,147891,12443,0.009,-0.946,-0.177,-0.61,2.134,0.732,624.799
136077,147801,38140,0.007,-0.953,-0.176,-1.341,2.378,0.61,624.802
136077,147895,12454,0.005,-0.956,-0.174,-1.341,2.378,0.61,624.808
136068,147801,38140,0.006,-0.954,-0.183,-1.951,2.5,0.488,624.812
136068,147942,12468,0.003,-0.955,-0.188,-1.951,2.5,0.488,624.818
136086,147801,38140,-0.004,-0.968,-0.183,-1.707,2.744,0.854,624.822
136086,147899,12463,-0.003,-0.967,-0.168,-1.707,2.744,0.854,624.828
136055,147801,38140,0.001,-0.943,-0.185,-1.402,3.049,1.037,624.832
136055,147924,12464,-0.001,-0.912,-0.199,-1.402,3.049,1.037,624.838
136079,147801,38140,-0.004,-0.91,-0.191,-3.11,2.561,2.256,624.842
136079,147922,12475,-0.005,-0.931,-0.182,-3.11,2.561,2.256,624.848
136078,147801,38140,-0.001,-0.95,-0.175,0.61,1.768,1.89,624.852
136078,147904,12476,0.003,-0.947,-0.184,0.61,1.768,1.89,624.858
136082,147801,38140,0,-0.942,-0.193,-0.61,2.927,0.305,624.862
136082,147927,12478,-0.013,-0.943,-0.191,-0.61,2.927,0.305,624.868
136075,147801,38140,-0.019,-0.948,-0.188,-1.22,4.329,2.134,624.872
136075,147932,12474,-0.021,-0.952,-0.182,-1.22,4.329,2.134,624.878
136097,147801,38140,-0.018,-0.953,-0.184,-0.061,3.049,2.683,624.881
136097,147926,12462,-0.012,-0.953,-0.184,-0.061,3.049,2.683,624.888
136099,147801,38140,-0.01,-0.955,-0.174,0.427,1.585,1.768,624.891
136099,147957,12451,-0.009,-0.953,-0.17,0.427,1.585,1.768,624.898
136105,147801,38140,-0.01,-0.948,-0.165,2.073,1.524,2.012,624.901
136105,147920,12463,-0.006,-0.947,-0.161,2.073,1.524,2.012,624.907
136073,147801,38140,-0.008,-0.948,-0.156,1.951,2.073,1.829,624.911
136073,147918,12474,-0.005,-0.954,-0.158,1.951,2.073,1.829,624.917
136082,147801,38140,-0.005,-0.957,-0.159,0.793,2.195,1.159,624.921
136082,147900,12451,-0.006,-0.961,-0.159,0.793,2.195,1.159,624.927
136081,147801,38140,-0.008,-0.96,-0.161,-0.061,1.829,0.915,624.931
136081,147942,12462,-0.007,-0.957,-0.167,-0.061,1.829,0.915,624.937
136088,147801,38140,-0.005,-0.955,-0.167,0.183,1.341,0.488,624.941
136088,147932,12471,-0.003,-0.952,-0.161,0.183,1.341,0.488,624.947
136127,147801,38140,0.003,-0.953,-0.163,1.037,0.915,0,624.951
136127,147944,12467,0.006,-0.947,-0.161,1.037,0.915,0,624.957
136093,147801,38140,0.008,-0.945,-0.17,0.732,0.549,-0.183,624.961
136093,147938,12488,0.01,-0.947,-0.172,0.732,0.549,-0.183,624.967
136120,147801,38140,0.014,-0.946,-0.168,0,0.671,-0.122,624.971
136120,147967,12459,0.014,-0.943,-0.174,0,0.671,-0.122,624.977
136124,147801,38140,0.017,-0.948,-0.178,-1.037,0.976,-0.061,624.981
136124,147938,12473,0.015,-0.952,-0.176,-1.037,0.976,-0.061,624.987
136115,147801,38140,0.017,-0.949,-0.179,-1.524,1.402,0.122,624.99
136115,147948,12466,0.015,-0.949,-0.184,-1.524,1.402,0.122,624.997
136081,147801,38140,0.014,-0.951,-0.185,-1.341,1.768,0.427,625
136081,147944,12474,0.013,-0.95,-0.185,-1.341,1.768,0.427,625.006
136107,147801,38140,0.014,-0.949,-0.191,-1.037,2.012,0.488,625.01
136107,147917,12451,0.013,-0.947,-0.193,-1.037,2.012,0.488,625.016
136071,147801,38140,0.008,-0.946,-0.187,-1.037,2.317,0.427,625.02
136071,147911,12458,0.007,-0.949,-0.183,-1.037,2.317,0.427,625.026
136042,147801,38140,0.002,-0.951,-0.185,-1.159,2.744,0.427,625.03
136042,147918,12463,0.003,-0.95,-0.181,-1.159,2.744,0.427,625.036
136070,147801,38140,0.005,-0.952,-0.181,-1.951,3.171,0.366,625.04
136070,147910,12446,0.006,-0.952,-0.186,-1.951,3.171,0.366,625.046
136048,147801,38140,0.005,-0.951,-0.188,-2.073,3.354,0.366,625.05
136048,147886,12460,0.002,-0.954,-0.184,-2.073,3.354,0.366,625.056
136065,147801,38140,0.002,-0.952,-0.184,-1.28,3.598,0.183,625.06
136065,147899,12459,0.002,-0.945,-0.186,-1.28,3.598,0.183,625.066
136076,147801,38140,0,-0.94,-0.185,-0.854,3.841,0.122,625.07
136076,147905,12476,0.001,-0.935,-0.185,-0.854,3.841,0.122,625.076
136085,147801,38140,-0,-0.936,-0.184,-0.61,3.902,0.244,625.08
136085,147907,12465,0.001,-0.937,-0.182,-0.61,3.902,0.244,625.086
136078,147801,38140,0.002,-0.941,-0.178,-0.427,4.024,0.305,625.089
136078,147912,12469,-0,-0.943,-0.177,-0.427,4.024,0.305,625.096
136088,147801,38140,-0.001,-0.944,-0.179,-0.976,4.085,0.61,625.099
136088,147928,12454,-0.001,-0.948,-0.178,-0.976,4.085,0.61,625.105
136079,147801,38140,0.002,-0.946,-0.174,-0.854,3.963,0.915,625.109
136079,147948,12472,0,-0.947,-0.172,-0.854,3.963,0.915,625.115
136072,147801,38140,0.001,-0.949,-0.168,-0.427,3.78,0.854,625.119
136072,147890,12457,0.002,-0.952,-0.166,-0.427,3.78,0.854,625.125
136074,147801,38140,0.001,-0.95,-0.169,-0.549,3.537,0.915,625.129
136074,147924,12480,-0.001,-0.95,-0.17,-0.549,3.537,0.915,625.135
136124,147801,38140,-0.003,-0.951,-0.168,-0.732,3.659,1.037,625.139
136124,147948,12460,-0.008,-0.95,-0.165,-0.732,3.659,1.037,625.145
136084,147801,38140,-0.006,-0.95,-0.168,-0.671,3.72,0.854,625.149
136084,147926,12461,-0.008,-0.953,-0.172,-0.671,3.72,0.854,625.155
136073,147801,38140,-0.013,-0.955,-0.175,-1.098,3.537,0.671,625.159
136073,147928,12447,-0.011,-0.955,-0.172,-1.098,3.537,0.671,625.165
136053,147801,38140,-0.01,-0.956,-0.172,-0.549,2.927,0.549,625.169
136053,147915,12475,-0.01,-0.954,-0.17,-0.549,2.927,0.549,625.175
136051,147801,38140,-0.005,-0.953,-0.175,-0.488,2.195,0.366,625.178
136051,147901,12454,-0.006,-0.95,-0.175,-0.488,2.195,0.366,625.185
136031,147801,38140,-0.008,-0.947,-0.169,-0.549,1.768,0.366,625.188
136031,147872,12468,-0.008,-0.945,-0.175,-0.549,1.768,0.366,625.195
136028,147801,38140,-0.008,-0.948,-0.177,-0.427,1.646,0.366,625.198
136028,147889,12451,-0.009,-0.946,-0.169,-0.427,1.646,0.366,625.204
136002,147801,38140,-0.007,-0.948,-0.167,-0.366,1.341,0.244,625.208
136002,147872,12469,-0.003,-0.948,-0.168,-0.366,1.341,0.244,625.214
136030,147801,38140,-0.004,-0.95,-0.169,-0.488,0.915,0.488,625.218
136030,147875,12447,-0.005,-0.949,-0.167,-0.488,0.915,0.488,625.224
136020,147801,38140,-0.005,-0.949,-0.167,-0.488,0.915,0.488,625.228
136020,147893,12459,-0.007,-0.947,-0.17,-0.488,0.61,0.732,625.234
136034,147801,38140,-0.007,-0.947,-0.17,-0.488,0.61,0.732,625.238
136034,147877,12451,-0.01,-0.947,-0.176,-0.122,0.61,0.671,625.244
136033,147801,38140,-0.01,-0.947,-0.176,-0.122,0.61,0.671,625.248
136033,147864,12470,-0.016,-0.946,-0.176,0.488,0.488,0.732,625.254
136028,147801,38140,-0.016,-0.946,-0.176,0.488,0.488,0.732,625.258
136028,147891,12449,-0.015,-0.945,-0.174,0.61,0.061,0.793,625.264
136027,147801,38140,-0.015,-0.945,-0.174,0.61,0.061,0.793,625.268
136027,147877,12456,-0.016,-0.948,-0.172,0.305,-0.61,0.732,625.274
