124364,141562,9274,-0.04,-0.993,-0.005,0.183,0.244,0.244,122.138
124364,141355,10691,-0.043,-0.985,0.001,0.061,0.549,0.244,122.144
124349,141562,9274,-0.043,-0.985,0.001,0.061,0.549,0.244,122.148
124349,141356,10693,-0.04,-0.981,-0.005,0.061,0.61,0.305,122.154
124349,141562,9274,-0.04,-0.981,-0.005,0.061,0.61,0.305,122.158
124349,141331,10700,-0.043,-0.983,-0.011,0.305,0.305,0.244,122.164
124374,141562,9274,-0.043,-0.983,-0.011,0.305,0.305,0.244,122.168
124374,141357,10692,-0.043,-0.988,-0.006,0.305,0.305,0.244,122.174
124371,141562,9274,-0.042,-0.989,-0.001,0.122,0.183,0.244,122.178
124371,141347,10716,-0.044,-0.984,0.006,0.122,0.183,0.244,122.184
124350,141562,9274,-0.044,-0.981,0.001,-0.732,0.549,0.366,122.188
124350,141351,10693,-0.045,-0.982,-0.004,-0.732,0.549,0.366,122.194
124343,141562,9274,-0.05,-0.992,-0.002,-0.671,0.549,0.122,122.198
124343,141343,10686,-0.046,-0.996,0.005,-0.671,0.549,0.122,122.204
124360,141562,9274,-0.046,-0.99,0.009,-0.488,0.061,-0.122,122.208
124360,141334,10695,-0.048,-0.98,0.001,-0.488,0.061,-0.122,122.214
124364,141562,9274,-0.048,-0.978,-0.013,-1.646,0.061,-0.305,122.217
124364,141342,10692,-0.046,-0.99,-0.013,-1.646,0.061,-0.305,122.224
124353,141562,9274,-0.043,-0.996,-0,-0.732,0.061,-0.366,122.227
124353,141314,10686,-0.042,-0.99,0.008,-0.732,0.061,-0.366,122.234
124348,141562,9274,-0.038,-0.972,-0,-1.098,0,-0.305,122.237
124348,141335,10700,-0.04,-0.973,-0.006,-1.098,0,-0.305,122.243
124342,141562,9274,-0.048,-0.986,-0.005,-1.159,0.244,0.061,122.247
124342,141326,10696,-0.046,-0.99,-0.018,-1.159,0.244,0.061,122.253
124330,141562,9274,-0.04,-0.982,-0.015,0.061,0.183,-0.061,122.257
124330,141337,10691,-0.04,-0.972,-0.015,0.061,0.183,-0.061,122.263
124318,141562,9274,-0.042,-0.977,-0.02,-0.671,0.244,0.183,122.267
124318,141319,10695,-0.044,-0.984,-0.015,-0.671,0.244,0.183,122.273
124341,141562,9274,-0.041,-0.989,-0.015,0.488,0.427,0.488,122.277
124341,141358,10680,-0.039,-0.984,-0.019,0.488,0.427,0.488,122.283
124350,141562,9274,-0.04,-0.98,-0.013,0.427,0.549,0.549,122.287
124350,141334,10704,-0.043,-0.985,-0.012,0.427,0.549,0.549,122.293
124331,141562,9274,-0.044,-0.984,-0.011,0.793,0.854,0.854,122.297
124331,141334,10694,-0.043,-0.985,-0.009,0.793,0.854,0.854,122.303
124348,141562,9274,-0.044,-0.988,0.001,0.549,0.854,0.732,122.307
124348,141336,10691,-0.043,-0.988,0.004,0.549,0.854,0.732,122.313
124329,141562,9274,-0.044,-0.988,-0.002,-0.244,0.732,0.61,122.316
124329,141337,10695,-0.043,-0.988,-0.008,-0.244,0.732,0.61,122.323
124338,141562,9274,-0.041,-0.995,-0.003,-0.122,0.488,0.427,122.326
124338,141326,10691,-0.04,-0.995,0.002,-0.122,0.488,0.427,122.333
124322,141306,9274,-0.038,-0.988,-0.003,0.671,0.305,0.244,122.336
124322,141302,10691,-0.04,-0.982,0.001,0.671,0.305,0.244,122.342
124329,141562,9274,-0.041,-0.981,0.013,0.244,0.488,0.122,122.346
124329,141344,10692,-0.043,-0.979,0.018,0.244,0.488,0.122,122.352
124334,141562,9274,-0.042,-0.979,0.013,-0.61,0.671,0.305,122.356
124334,141331,10708,-0.043,-0.972,0.004,-0.61,0.671,0.305,122.362
124349,141562,9274,-0.045,-0.974,-0.005,-1.707,0.244,0.305,122.366
124349,141348,10687,-0.047,-0.988,-0.011,-1.707,0.244,0.305,122.372
124333,141562,9274,-0.045,-0.996,-0.013,-0.427,-0.244,0.244,122.376
124333,141337,10707,-0.04,-0.997,-0.014,-0.427,-0.244,0.244,122.382
124322,141562,9274,-0.034,-0.982,-0.017,0.305,-0.244,0.244,122.386
124322,141316,10693,-0.037,-0.972,-0.016,0.305,-0.244,0.244,122.392
124305,141562,9274,-0.041,-0.977,-0.008,0.61,0.61,0.671,122.396
124305,141329,10699,-0.046,-0.978,-0.004,0.61,0.61,0.671,122.402
124340,141562,9274,-0.047,-0.979,-0.01,0.854,0.976,0.732,122.406
124340,141349,10701,-0.048,-0.98,-0.005,0.854,0.976,0.732,122.412
124342,141562,9274,-0.045,-0.98,0,-0.61,0.671,0.549,122.415
124342,141363,10703,-0.043,-0.986,-0.009,-0.61,0.671,0.549,122.422
124332,141562,9274,-0.041,-0.99,-0.006,-1.037,0.732,0.671,122.425
124332,141337,10693,-0.042,-0.993,0,-1.037,0.732,0.671,122.432
124304,141562,9274,-0.045,-0.989,-0.005,-0.366,0.854,0.61,122.435
124304,141323,10700,-0.043,-0.987,-0.003,-0.366,0.854,0.61,122.441
124338,141562,9274,-0.041,-0.982,0.006,0.122,0.854,0.61,122.445
124338,141346,10693,-0.043,-0.975,0.001,0.122,0.854,0.61,122.451
124350,141562,9274,-0.047,-0.976,-0.014,0.061,0.793,0.671,122.455
124350,141322,10690,-0.046,-0.991,-0.007,0.061,0.793,0.671,122.461
124313,141562,9274,-0.048,-1.001,0.006,0.244,0.671,0.549,122.465
124313,141323,10692,-0.049,-0.993,0.003,0.244,0.671,0.549,122.471
124323,141562,9274,-0.045,-0.984,-0.007,-0.732,0.366,0.488,122.475
124323,141330,10687,-0.047,-0.98,-0.009,-0.732,0.366,0.488,122.481
124326,141306,9274,-0.046,-0.983,-0.008,-0.183,0.488,0.427,122.485
124326,141308,10683,-0.047,-0.988,-0.002,-0.183,0.488,0.427,122.491
124304,141562,9274,-0.047,-0.986,-0.006,0.854,0.305,0.061,122.495
124304,141323,10697,-0.045,-0.979,-0.012,0.854,0.305,0.061,122.501
124327,141562,9274,-0.047,-0.983,-0.009,-0.732,0.244,0.122,122.505
124327,141317,10695,-0.046,-0.983,-0.001,-0.732,0.244,0.122,122.511
124303,141306,9274,-0.042,-0.985,0.005,-1.037,0.488,0.244,122.514
124303,141296,10686,-0.044,-0.982,0.007,-1.037,0.488,0.244,122.521
124322,141562,9274,-0.047,-0.974,-0.001,-1.341,0.549,0.183,122.524
124322,141317,10683,-0.048,-0.981,-0.017,-1.341,0.549,0.183,122.531
124321,141306,9274,-0.049,-0.989,-0.014,-1.341,0.427,0.244,122.534
124321,141298,10694,-0.047,-0.991,-0.003,-1.341,0.427,0.244,122.54
124304,141306,9274,-0.04,-0.991,-0.001,-0.488,-0.061,0.366,122.544
124304,141301,10709,-0.039,-0.982,-0.003,-0.488,-0.061,0.366,122.55
124345,141306,9274,-0.039,-0.977,-0.006,-0.732,0.122,0.61,122.554
124345,141299,10681,-0.041,-0.976,-0.006,-0.732,0.122,0.61,122.56
124317,141562,9274,-0.043,-0.982,0.004,-0.305,0.427,0.793,122.564
124317,141331,10678,-0.045,-0.982,0.002,-0.305,0.427,0.793,122.57
124312,141562,9274,-0.046,-0.983,-0.009,-1.159,0.305,0.671,122.574
124312,141333,10694,-0.045,-0.988,-0.004,-1.159,0.305,0.671,122.58
124294,141306,9274,-0.041,-0.992,0.002,-1.463,0.183,0.488,122.584
124294,141291,10692,-0.042,-0.995,-0.004,-1.463,0.183,0.488,122.59
124298,141306,9274,-0.042,-0.988,-0.003,-1.341,0.366,0.305,122.594
124298,141310,10692,-0.041,-0.985,-0,-1.341,0.366,0.305,122.6
124314,141562,9274,-0.046,-0.981,0.003,-1.22,0.549,0.427,122.604
124314,141313,10681,-0.046,-0.983,0.003,-1.22,0.549,0.427,122.61
124290,141562,9274,-0.046,-0.983,0.003,-1.22,0.549,0.427,122.613
124290,141320,10700,-0.049,-0.979,-0.013,-1.159,0.427,0.427,122.62
124304,141306,9274,-0.049,-0.979,-0.013,-1.159,0.427,0.427,122.623
124304,141299,10684,-0.046,-0.988,-0.014,-1.22,0.183,0.244,122.63
124265,141306,9274,-0.046,-0.988,-0.014,-1.22,0.183,0.244,122.633
124265,141296,10697,-0.041,-0.978,-0.008,-1.159,-0.122,0.427,122.639
124270,141306,9274,-0.041,-0.978,-0.008,-1.159,-0.122,0.427,122.643
124270,141293,10684,-0.047,-0.98,-0.019,-1.707,0.061,0.854,122.649
124318,141562,9274,-0.047,-0.98,-0.019,-1.707,0.061,0.854,122.653
124318,141345,10687,-0.046,-0.994,-0.013,-1.159,0.244,0.915,122.659
124342,141562,9274,-0.046,-0.994,-0.013,-1.159,0.244,0.915,122.663
124342,141316,10689,-0.046,-0.984,-0.004,-0.549,0.061,0.793,122.669
124307,141306,9274,-0.046,-0.984,-0.004,-0.549,0.061,0.793,122.673
124307,141289,10683,-0.051,-0.985,-0.015,-1.402,0.488,0.915,122.679
124284,141562,9274,-0.051,-0.985,-0.015,-1.402,0.488,0.915,122.683
124284,141313,10685,-0.049,-1.002,-0.006,-0.854,0.732,0.854,122.689
124298,141306,9274,-0.049,-1.002,-0.006,-0.854,0.732,0.854,122.693
124298,141307,10694,-0.047,-0.987,0,-0.488,0.427,0.61,122.699
124322,141306,9274,-0.047,-0.987,0,-0.488,0.427,0.61,122.703
124322,141306,10695,-0.05,-0.987,-0.01,-0.854,0.61,0.427,122.709
124302,141306,9274,-0.05,-0.987,-0.01,-0.854,0.61,0.427,122.712
124302,141294,10698,-0.046,-0.994,-0.01,0,0.671,0.244,122.719
124298,141306,9274,-0.046,-0.994,-0.01,0,0.671,0.244,122.722
124298,141295,10679,-0.044,-0.978,-0.013,0.61,0.305,0.061,122.729
124285,141306,9274,-0.044,-0.978,-0.013,0.61,0.305,0.061,122.732
124285,141308,10693,-0.044,-0.979,-0.022,0.305,0.244,0.122,122.738
124289,141306,9274,-0.044,-0.979,-0.022,0.305,0.244,0.122,122.742
124289,141297,10689,-0.044,-0.982,-0.009,0.854,0.427,0.244,122.748
124277,141306,9274,-0.044,-0.982,-0.009,0.854,0.427,0.244,122.752
124277,141285,10691,-0.042,-0.978,-0.008,0.549,0.366,0.366,122.758
124290,141306,9274,-0.04,-0.977,-0.008,0.549,0.366,0.366,122.762
124290,141286,10685,-0.042,-0.983,-0.012,0.183,0.488,0.793,122.768
124286,141306,9274,-0.048,-0.991,-0.013,0.183,0.488,0.793,122.772
124286,141300,10693,-0.047,-0.996,-0.014,0.732,0.61,0.61,122.778
124309,141306,9274,-0.043,-0.998,-0,0.732,0.61,0.61,122.782
124309,141311,10689,-0.043,-0.991,0.015,0.732,0.488,0.305,122.788
124299,141306,9274,-0.044,-0.982,0.015,0.732,0.488,0.305,122.792
124299,141304,10703,-0.045,-0.976,0.002,0.122,0.488,0.488,122.798
124284,141306,9274,-0.049,-0.983,-0.006,0.122,0.488,0.488,122.802
124284,141302,10699,-0.052,-0.996,0,0.244,0.366,0.122,122.808
124317,141562,9274,-0.047,-0.999,0.007,0.244,0.366,0.122,122.811
124317,141320,10698,-0.043,-0.987,-0,0.122,-0.488,-0.244,122.818
124315,141562,9274,-0.041,-0.978,-0.01,0.122,-0.488,-0.244,122.821
124315,141331,10708,-0.041,-0.983,-0.011,-0.366,-0.61,-0.061,122.828
124312,141562,9274,-0.043,-0.989,-0.004,-0.366,-0.61,-0.061,122.831
124312,141322,10693,-0.046,-0.988,-0.003,0.549,-0.122,-0.122,122.837
124338,141562,9274,-0.043,-0.977,-0.007,0.549,-0.122,-0.122,122.841
124338,141325,10704,-0.042,-0.974,-0.017,-0.305,-0.244,-0.244,122.847
124346,141562,9274,-0.042,-0.98,-0.017,-0.305,-0.244,-0.244,122.851
124346,141345,10681,-0.037,-0.984,-0.007,0.305,-0.549,0.122,122.857
124359,141562,9274,-0.036,-0.983,0.002,0.305,-0.549,0.122,122.861
124359,141336,10689,-0.037,-0.977,-0,-0.061,-0.427,0.244,122.867
124352,141562,9274,-0.039,-0.978,-0.006,-0.061,-0.427,0.244,122.871
124352,141350,10703,-0.046,-0.984,-0.006,-0.061,0.183,0.366,122.877
124355,141562,9274,-0.045,-0.987,0.005,-0.061,0.183,0.366,122.881
124355,141345,10681,-0.043,-0.979,0.006,-0.122,0,0.244,122.887
124337,141562,9274,-0.039,-0.976,0.001,-0.122,0,0.244,122.891
124337,141325,10707,-0.042,-0.983,-0.002,-1.646,-0.305,0.305,122.897
124373,141562,9274,-0.046,-0.992,-0.009,-1.646,-0.305,0.305,122.901
124373,141339,10694,-0.043,-0.999,-0.009,-0.549,-0.61,0.061,122.907
124356,141562,9274,-0.042,-1.003,0.002,-0.549,-0.61,0.061,122.91
124356,141350,10684,-0.039,-0.987,0.009,-0.305,-0.793,-0.305,122.917
124352,141562,9274,-0.043,-0.971,0.003,-0.305,-0.793,-0.305,122.92
124352,141343,10690,-0.046,-0.971,-0.009,-1.037,-0.305,0,122.927
124349,141562,9274,-0.047,-0.985,-0.016,-1.037,-0.305,0,122.93
124349,141347,10694,-0.044,-1,-0.017,0.244,-0.427,-0.183,122.936
124347,141562,9274,-0.041,-0.995,-0.011,0.244,-0.427,-0.183,122.94
124347,141365,10705,-0.035,-0.978,-0.014,-0.488,-0.793,-0.305,122.946
124361,141562,9274,-0.037,-0.973,-0.016,-0.488,-0.793,-0.305,122.95
124361,141329,10686,-0.039,-0.973,-0.019,-0.549,-0.061,0.366,122.956
124369,141562,9274,-0.04,-0.985,-0.019,-0.549,-0.061,0.366,122.96
124369,141378,10691,-0.043,-0.987,-0.015,1.341,0.366,0.427,122.966
124378,141562,9274,-0.04,-0.983,-0.009,1.341,0.366,0.427,122.97
124378,141371,10694,-0.038,-0.977,-0.004,0.427,0.305,0.427,122.976
124356,141562,9274,-0.043,-0.976,0.003,0.427,0.305,0.427,122.98
124356,141377,10682,-0.046,-0.979,0.01,-0.244,0.549,0.915,122.986
124366,141562,9274,-0.049,-0.981,-0.002,-0.244,0.549,0.915,122.99
124366,141375,10696,-0.049,-0.993,-0.011,-0.854,0.549,0.671,122.996
124369,141562,9274,-0.046,-0.999,-0.006,-0.854,0.549,0.671,123
124369,141373,10712,-0.045,-1.003,0.008,-0.976,0.183,0.427,123.006
124366,141562,9274,-0.041,-0.994,0.008,-0.976,0.183,0.427,123.009
124366,141379,10696,-0.042,-0.985,-0.004,-1.037,0.366,0.366,123.016
124382,141562,9274,-0.045,-0.982,-0.009,-1.037,0.366,0.366,123.019
124382,141359,10699,-0.047,-0.984,-0.013,-0.061,0.732,0.183,123.026
124381,141562,9274,-0.047,-0.987,-0.014,-0.061,0.732,0.183,123.029
124381,141369,10679,-0.047,-0.983,-0.01,0.61,0.427,0,123.035
124365,141562,9274,-0.044,-0.977,-0.015,0.61,0.427,0,123.039
124365,141351,10705,-0.04,-0.977,-0.02,0.244,0.305,0.305,123.045
124384,141562,9274,-0.04,-0.977,-0.02,0.244,0.305,0.305,123.049
124384,141355,10688,-0.04,-0.978,-0.008,0.61,0.732,0.366,123.055
124369,141562,9274,-0.043,-0.977,-0.004,0.61,0.732,0.366,123.059
124369,141359,10697,-0.044,-0.977,-0.005,-0.122,1.159,0.61,123.065
124339,141562,9274,-0.05,-0.979,-0.003,-0.122,1.159,0.61,123.069
124339,141346,10695,-0.047,-0.988,-0.001,-0.61,1.098,0.854,123.075
124340,141562,9274,-0.044,-0.994,0.001,-0.61,1.098,0.854,123.079
124340,141335,10696,-0.044,-0.991,-0.002,0,0.915,0.671,123.085
124346,141562,9274,-0.043,-0.989,-0.009,0,0.915,0.671,123.089
124346,141355,10688,-0.044,-0.99,-0.011,0.061,0.976,0.427,123.095
124345,141562,9274,-0.044,-0.992,-0.005,0.061,0.976,0.427,123.099
124345,141364,10695,-0.047,-0.99,-0.007,0.671,1.159,0.488,123.105
124353,141562,9274,-0.041,-0.984,-0.012,0.671,1.159,0.488,123.108
124353,141383,10695,-0.045,-0.984,-0.01,0.061,1.341,0.183,123.115
124362,141562,9274,-0.046,-0.982,-0.006,0.061,1.341,0.183,123.118
124362,141356,10698,-0.046,-0.983,-0.008,0.183,1.28,0.244,123.125
124373,141562,9274,-0.04,-0.983,-0.013,0.183,1.28,0.244,123.128
124373,141364,10699,-0.038,-0.98,-0.002,0,1.341,0.305,123.134
124342,141562,9274,-0.039,-0.979,-0.005,0,1.341,0.305,123.138
124342,141363,10687,-0.046,-0.976,-0.017,-0.488,1.463,0.305,123.144
124330,141562,9274,-0.046,-0.987,-0.023,-0.488,1.463,0.305,123.148
124330,141356,10697,-0.046,-0.999,-0.01,-0.122,1.037,0.549,123.154
124341,141562,9274,-0.041,-0.996,0.005,-0.122,1.037,0.549,123.158
124341,141371,10694,-0.038,-0.981,0.007,0.366,0.671,0.671,123.164
124324,141562,9274,-0.04,-0.968,-0.009,0.366,0.671,0.671,123.168
124324,141346,10683,-0.045,-0.975,-0.016,-0.244,0.915,0.854,123.174
124327,141562,9274,-0.045,-0.994,-0.004,-0.244,0.915,0.854,123.178
124327,141347,10695,-0.041,-0.996,0.007,0.61,0.366,0.671,123.184
124333,141562,9274,-0.04,-0.988,-0.002,0.61,0.366,0.671,123.188
124333,141358,10693,-0.042,-0.981,-0.015,-0.976,0,0.427,123.194
124318,141562,9274,-0.041,-0.989,-0.019,-0.976,0,0.427,123.198
124318,141322,10688,-0.045,-0.999,-0.013,0.427,0.244,0.549,123.204
124309,141562,9274,-0.045,-0.999,-0.013,0.427,0.244,0.549,123.207
124309,141363,10688,-0.041,-0.979,-0.012,0.976,0.366,0.122,123.214
124362,141562,9274,-0.041,-0.979,-0.012,0.976,0.366,0.122,123.217
124362,141342,10683,-0.041,-0.974,-0.004,0.061,0.793,0.488,123.224
124336,141562,9274,-0.041,-0.974,-0.004,0.061,0.793,0.488,123.227
124336,141354,10689,-0.046,-0.987,-0.009,0.488,1.037,0.61,123.233
124337,141562,9274,-0.046,-0.987,-0.009,0.488,1.037,0.61,123.237
124337,141374,10694,-0.045,-0.988,0.015,0.183,0.793,0.427,123.243
124341,141562,9274,-0.045,-0.988,0.015,0.183,0.793,0.427,123.247
124341,141323,10685,-0.05,-0.981,-0.011,-0.122,0.854,0.488,123.253
124317,141562,9274,-0.05,-0.981,-0.011,-0.122,0.854,0.488,123.257
124317,141342,10682,-0.048,-1.003,-0.01,1.098,0.671,0.305,123.263
124337,141562,9274,-0.048,-1.003,-0.01,1.098,0.671,0.305,123.267
124337,141333,10686,-0.04,-0.981,-0.004,1.768,0.305,0.122,123.273
124337,141562,9274,-0.04,-0.981,-0.004,1.768,0.305,0.122,123.277
124337,141343,10693,-0.05,-0.971,-0.01,0.732,0.61,0.488,123.283
124333,141562,9274,-0.05,-0.971,-0.01,0.732,0.61,0.488,123.287
124333,141328,10690,-0.055,-0.998,-0.002,0.305,0.732,0.305,123.293
124330,141562,9274,-0.055,-0.998,-0.002,0.305,0.732,0.305,123.297
124330,141336,10695,-0.046,-0.981,-0.007,-1.28,0.366,0.061,123.303
124342,141562,9274,-0.046,-0.981,-0.007,-1.28,0.366,0.061,123.306
124342,141338,10687,-0.043,-0.986,0.006,-0.671,0.366,0.366,123.313
124331,141562,9274,-0.043,-0.986,0.006,-0.671,0.366,0.366,123.316
124331,141361,10692,-0.041,-0.98,-0.005,0.183,0.427,0.183,123.323
124336,141562,9274,-0.041,-0.98,-0.005,0.183,0.427,0.183,123.326
124336,141340,10675,-0.045,-0.977,0.003,0.122,0.366,0.244,123.332
124345,141562,9274,-0.045,-0.977,0.003,0.122,0.366,0.244,123.336
124345,141384,10692,-0.045,-0.984,-0.001,-0.061,0.122,0.427,123.342
124335,141562,9274,-0.045,-0.984,-0.001,-0.061,0.122,0.427,123.346
124335,141350,10690,-0.044,-0.986,-0.006,-0.061,0.122,0.427,123.352
124349,141562,9274,-0.043,-0.988,-0.01,-0.488,-0.061,0.183,123.356
124349,141386,10694,-0.042,-0.99,-0.009,-0.488,-0.061,0.183,123.362
124352,141562,9274,-0.04,-0.988,-0.001,0.122,-0.122,0.244,123.366
124352,141388,10698,-0.041,-0.988,-0.001,0.122,-0.122,0.244,123.372
124364,141562,9274,-0.043,-0.983,-0.009,0.793,0.122,0.61,123.376
124364,141385,10696,-0.042,-0.979,-0.01,0.793,0.122,0.61,123.382
124358,141562,9274,-0.04,-0.982,-0.004,0.976,0.366,0.488,123.386
124358,141375,10715,-0.041,-0.985,0.002,0.976,0.366,0.488,123.392
124386,141562,9274,-0.042,-0.977,0,1.28,0.305,0.427,123.396
124386,141397,10696,-0.041,-0.972,-0.007,1.28,0.305,0.427,123.402
124373,141562,9274,-0.045,-0.978,-0.006,0.122,0.366,0.671,123.405
124373,141380,10699,-0.044,-0.988,-0.005,0.122,0.366,0.671,123.412
124359,141562,9274,-0.045,-0.995,-0.008,0.976,0.366,0.671,123.415
124359,141393,10709,-0.046,-0.998,-0.002,0.976,0.366,0.671,123.422
124356,141562,9274,-0.041,-0.989,-0.006,1.341,0.244,0.61,123.425
124356,141365,10696,-0.043,-0.983,-0.011,1.341,0.244,0.61,123.431
124369,141562,9274,-0.042,-0.978,-0.006,1.524,0.488,0.732,123.435
124369,141368,10699,-0.043,-0.982,0.008,1.524,0.488,0.732,123.441
124340,141562,9274,-0.044,-0.978,0.015,1.159,0.671,0.793,123.445
124340,141368,10685,-0.049,-0.973,0.004,1.159,0.671,0.793,123.451
124352,141562,9274,-0.049,-0.98,-0.011,-1.159,0.671,0.61,123.455
124352,141371,10685,-0.049,-0.997,-0.013,-1.159,0.671,0.61,123.461
124340,141562,9274,-0.048,-1.001,-0.01,-0.61,0.122,0.366,123.465
124340,141336,10690,-0.044,-0.993,-0.01,-0.61,0.122,0.366,123.471
124348,141562,9274,-0.041,-0.981,-0.008,-0.61,0.244,0.366,123.475
124348,141371,10688,-0.041,-0.979,-0.005,-0.61,0.244,0.366,123.481
124365,141562,9274,-0.046,-0.978,-0.009,-0.549,0.793,0.793,123.485
124365,141373,10698,-0.048,-0.977,-0.016,-0.549,0.793,0.793,123.491
124368,141562,9274,-0.045,-0.985,-0.013,-0.732,0.793,0.549,123.495
124368,141346,10687,-0.046,-0.988,-0.006,-0.732,0.793,0.549,123.501
124347,141562,9274,-0.046,-0.987,-0.005,-1.037,0.488,0.488,123.504
124347,141346,10695,-0.045,-0.987,0.001,-1.037,0.488,0.488,123.511
124350,141562,9274,-0.044,-0.986,0.007,-1.524,0.671,0.61,123.514
124350,141363,10699,-0.047,-0.982,-0.005,-1.524,0.671,0.61,123.521
124325,141562,9274,-0.05,-0.987,-0.009,-0.915,0.793,0.549,123.524
124325,141334,10694,-0.047,-0.999,0.002,-0.915,0.793,0.549,123.53
124308,141562,9274,-0.047,-0.995,0.026,0.549,0.488,0.366,123.534
124308,141323,10694,-0.042,-0.976,0.03,0.549,0.488,0.366,123.54
124328,141562,9274,-0.047,-0.959,0.002,-1.159,0.549,0.366,123.544
124328,141338,10680,-0.053,-0.972,-0.025,-1.159,0.549,0.366,123.55
124299,141306,9274,-0.052,-1,-0.017,-0.427,0.671,0.366,123.554
124299,141311,10688,-0.049,-1.009,-0.002,-0.427,0.671,0.366,123.56
124311,141306,9274,-0.042,-0.994,-0.006,1.159,-0.305,-0.061,123.564
124311,141309,10689,-0.038,-0.974,-0.022,1.159,-0.305,-0.061,123.57
124307,141306,9274,-0.042,-0.97,-0.017,-0.427,0.061,0.366,123.574
124307,141310,10690,-0.044,-0.976,-0.01,-0.427,0.061,0.366,123.58
124290,141306,9274,-0.045,-0.983,-0.008,1.098,0.793,0.854,123.584
124290,141290,10694,-0.042,-0.98,-0.004,1.098,0.793,0.854,123.59
124273,141306,9274,-0.042,-0.972,-0.009,-0.671,0.366,0.549,123.594
124273,141284,10691,-0.041,-0.98,-0.015,-0.671,0.366,0.549,123.6
124271,141306,9274,-0.039,-0.993,-0.007,-1.22,0.244,1.037,123.603
124271,141291,10686,-0.039,-0.992,-0.009,-1.22,0.244,1.037,123.61
124263,141306,9274,-0.04,-0.994,-0.01,-0.122,0.366,0.854,123.613
124263,141275,10692,-0.04,-0.988,-0.005,-0.122,0.366,0.854,123.62
124251,141306,9274,-0.04,-0.983,-0.001,-0.122,0.61,0.732,123.623
124251,141289,10692,-0.04,-0.982,-0.006,-0.122,0.61,0.732,123.629
124299,141306,9274,-0.042,-0.986,-0.015,0.244,0.671,0.915,123.633
124299,141299,10679,-0.045,-0.99,-0.016,0.244,0.671,0.915,123.639
124285,141306,9274,-0.04,-0.992,-0.012,0.183,0.488,0.549,123.643
124285,141305,10696,-0.038,-0.992,-0.006,0.183,0.488,0.549,123.649
124284,141306,9274,-0.04,-0.987,-0.003,-0.122,0.61,0.488,123.653
124284,141298,10693,-0.042,-0.982,0.005,-0.122,0.61,0.488,123.659
124312,141306,9274,-0.041,-0.978,0.003,-0.671,0.732,0.671,123.663
124312,141297,10689,-0.044,-0.985,-0.004,-0.671,0.732,0.671,123.669
124316,141562,9274,-0.044,-0.994,-0.005,-0.488,0.671,0.488,123.673
124316,141313,10682,-0.043,-0.994,0.006,-0.488,0.671,0.488,123.679
124319,141562,9274,-0.041,-0.987,0.005,0.122,0.244,0.366,123.683
124319,141347,10697,-0.043,-0.976,-0.004,0.122,0.244,0.366,123.689
124372,141562,9274,-0.044,-0.975,-0.011,0.122,0.427,0.61,123.693
124372,141397,10704,-0.046,-0.981,-0.005,0.122,0.427,0.61,123.699
124387,141562,9274,-0.046,-0.984,0,0.732,0.732,0.61,123.702
124387,141377,10694,-0.046,-0.983,0.003,0.732,0.732,0.61,123.709
124401,141562,9274,-0.041,-0.98,0.009,-0.61,0.427,0.549,123.712
124401,141397,10711,-0.043,-0.975,0.005,-0.61,0.427,0.549,123.719
124390,141562,9274,-0.045,-0.982,-0.003,-1.463,0.488,0.732,123.722
124390,141381,10693,-0.047,-0.989,-0.007,-1.463,0.488,0.732,123.728
124427,141562,9274,-0.045,-0.993,-0.005,-1.037,0.427,0.61,123.732
124427,141407,10708,-0.045,-0.992,-0.002,-1.037,0.427,0.61,123.738
124469,141562,9274,-0.046,-0.984,0.001,-0.732,0.244,0.488,123.742
124469,141432,10687,-0.047,-0.983,-0.004,-0.732,0.244,0.488,123.748
124469,141562,9274,-0.045,-0.983,-0.005,-0.61,0.488,0.732,123.752
124469,141450,10722,-0.047,-0.987,0.003,-0.61,0.488,0.732,123.758
124476,141562,9274,-0.049,-0.984,0.007,-0.305,0.61,0.671,123.762
124476,141460,10710,-0.052,-0.979,0.006,-0.305,0.61,0.671,123.768
124481,141562,9274,-0.051,-0.987,0.002,-1.22,0.183,0.671,123.772
124481,141459,10702,-0.052,-0.99,-0.001,-1.22,0.183,0.671,123.778
124472,141562,9274,-0.054,-0.991,-0,-0.732,-0.427,0.549,123.782
124472,141454,10716,-0.051,-0.993,-0.001,-0.732,-0.427,0.549,123.788
124468,141562,9274,-0.051,-0.993,-0.001,-0.732,-0.427,0.549,123.792
124468,141431,10710,-0.048,-0.981,-0.006,-0.061,-0.732,0.061,123.798
124475,141562,9274,-0.048,-0.981,-0.006,-0.061,-0.732,0.061,123.801
124475,141464,10705,-0.051,-0.981,-0.01,-0.244,-0.488,0.183,123.808
124487,141562,9274,-0.051,-0.981,-0.01,-0.244,-0.488,0.183,123.811
124487,141451,10714,-0.052,-0.99,-0.008,-0.122,-0.366,0.244,123.818
124464,141562,9274,-0.052,-0.99,-0.008,-0.122,-0.366,0.244,123.821
124464,141425,10691,-0.052,-0.984,-0.004,0,-0.427,0,123.827
124501,141562,9274,-0.052,-0.984,-0.004,0,-0.427,0,123.831
124501,141470,10721,-0.052,-0.979,0.005,-0.305,0,0.061,123.837
124528,141562,9274,-0.052,-0.979,0.005,-0.305,0,0.061,123.841
124528,141467,10705,-0.052,-0.976,-0.003,-0.671,0.427,0.061,123.847
124527,141562,9274,-0.052,-0.976,-0.003,-0.671,0.427,0.061,123.851
124527,141464,10725,-0.045,-0.987,0.007,-1.463,0.183,0.061,123.857
124512,141562,9274,-0.045,-0.987,0.007,-1.463,0.183,0.061,123.861
124512,141464,10712,-0.039,-0.979,0.015,-1.159,-0.305,0.061,123.867
124515,141562,9274,-0.039,-0.979,0.015,-1.159,-0.305,0.061,123.871
124515,141459,10721,-0.05,-0.979,-0.004,-2.073,-0.244,0.183,123.877
124505,141562,9274,-0.05,-0.979,-0.004,-2.073,-0.244,0.183,123.881
124505,141444,10724,-0.043,-1.001,-0.006,-0.976,-0.427,0.183,123.887
124519,141562,9274,-0.043,-1.001,-0.006,-0.976,-0.427,0.183,123.891
124519,141472,10719,-0.035,-0.979,-0.016,0.793,-1.22,-0.122,123.897
124511,141562,9274,-0.035,-0.979,-0.016,0.793,-1.22,-0.122,123.9
124511,141457,10713,-0.043,-0.98,-0.014,0.061,-0.854,0.122,123.907
124514,141562,9274,-0.043,-0.98,-0.014,0.061,-0.854,0.122,123.91
124514,141463,10711,-0.046,-0.986,-0.004,0.427,-0.305,0.488,123.917
124508,141562,9274,-0.046,-0.986,-0.004,0.427,-0.305,0.488,123.92
124508,141456,10713,-0.044,-0.986,-0.008,-0.549,-0.488,0.183,123.926
124499,141562,9274,-0.044,-0.986,-0.008,-0.549,-0.488,0.183,123.93
124499,141454,10735,-0.044,-0.994,-0.004,-1.28,-0.549,0.183,123.936
124496,141562,9274,-0.042,-0.99,-0,-1.28,-0.549,0.183,123.94
124496,141412,10715,-0.045,-0.986,-0.004,-1.098,-0.427,0.183,123.946
124484,141562,9274,-0.05,-0.987,-0.013,-1.098,-0.427,0.183,123.95
124484,141432,10710,-0.046,-0.985,-0.017,-0.976,-0.366,-0.061,123.956
124495,141562,9274,-0.045,-0.986,-0.009,-0.976,-0.366,-0.061,123.96
124495,141479,10720,-0.04,-0.977,0,-0.122,-0.366,0.061,123.966
124480,141562,9274,-0.036,-0.972,0.003,-0.122,-0.366,0.061,123.97
124480,141453,10726,-0.037,-0.97,-0.004,-1.159,-0.305,0.244,123.976
124516,141562,9274,-0.043,-0.979,-0.011,-1.159,-0.305,0.244,123.98
124516,141439,10715,-0.042,-0.992,-0.015,-1.159,-0.183,0.305,123.986
124480,141562,9274,-0.041,-0.996,-0.01,-1.159,-0.183,0.305,123.99
124480,141428,10718,-0.041,-0.995,-0.006,-0.366,-0.366,0.183,123.996
124489,141562,9274,-0.038,-0.983,-0.009,-0.366,-0.366,0.183,123.999
124489,141440,10702,-0.039,-0.979,-0.006,-0.122,0.061,0.427,124.006
124523,141562,9274,-0.044,-0.981,-0.011,-0.122,0.061,0.427,124.009
124523,141459,10723,-0.047,-0.983,-0.013,0,0.732,0.549,124.016
124497,141562,9274,-0.044,-0.985,-0.018,0,0.732,0.549,124.019
124497,141448,10726,-0.041,-0.991,-0.014,-0.549,0.793,0.366,124.025
124502,141562,9274,-0.04,-0.991,-0.006,-0.549,0.793,0.366,124.029
124502,141450,10715,-0.042,-0.985,-0.01,-0.366,0.671,0.61,124.035
124501,141562,9274,-0.046,-0.981,-0.011,-0.366,0.671,0.61,124.039
124501,141439,10724,-0.051,-0.984,-0.003,-0.305,1.22,0.671,124.045
124478,141562,9274,-0.054,-0.986,-0.003,-0.305,1.22,0.671,124.049
124478,141429,10734,-0.051,-0.989,-0.004,-0.183,1.341,0.549,124.055
124501,141562,9274,-0.048,-0.986,-0.001,-0.183,1.341,0.549,124.059
124501,141443,10714,-0.05,-0.984,-0.005,-0.488,0.732,0.61,124.065
124479,141562,9274,-0.048,-0.984,-0.009,-0.488,0.732,0.61,124.069
124479,141459,10712,-0.045,-0.986,-0.004,-0.183,0.732,0.549,124.075
124492,141562,9274,-0.047,-0.985,0.005,-0.183,0.732,0.549,124.079
124492,141460,10704,-0.051,-0.978,-0.006,-0.244,1.098,0.427,124.085
124478,141562,9274,-0.05,-0.975,-0.03,-0.244,1.098,0.427,124.089
124478,141439,10699,-0.045,-0.986,-0.027,-0.549,1.037,0.427,124.095
124494,141562,9274,-0.041,-0.999,-0.012,-0.549,1.037,0.427,124.098
124494,141449,10714,-0.036,-0.993,-0.005,0.793,0.793,0.244,124.105
124466,141562,9274,-0.035,-0.979,-0.006,0.793,0.793,0.244,124.108
124466,141448,10709,-0.041,-0.973,-0.008,-0.854,1.402,0.427,124.115
124449,141562,9274,-0.044,-0.98,-0.01,-0.854,1.402,0.427,124.118
124449,141437,10697,-0.045,-0.99,-0.004,-0.244,1.646,0.549,124.124
124445,141562,9274,-0.043,-0.989,0.005,-0.244,1.646,0.549,124.128
124445,141392,10711,-0.04,-0.986,0.007,-0.183,0.976,0.183,124.134
124450,141562,9274,-0.037,-0.978,0.015,-0.183,0.976,0.183,124.138
124450,141405,10703,-0.042,-0.976,0.014,-1.159,1.098,0.427,124.144
124453,141562,9274,-0.046,-0.976,0.004,-1.159,1.098,0.427,124.148
124453,141378,10707,-0.051,-0.984,-0.008,-0.793,1.159,0.366,124.154
124459,141562,9274,-0.05,-0.995,-0.006,-0.793,1.159,0.366,124.158
124459,141406,10715,-0.05,-0.996,0.001,-0.061,0.305,0.122,124.164
124452,141562,9274,-0.044,-0.988,-0.005,-0.061,0.305,0.122,124.168
124452,141420,10715,-0.043,-0.98,-0.016,0,0.122,0.244,124.174
124457,141562,9274,-0.044,-0.982,-0.016,0,0.122,0.244,124.178
124457,141432,10719,-0.049,-0.989,-0.013,0.61,0.671,0.366,124.184
124443,141562,9274,-0.05,-0.989,-0.011,0.61,0.671,0.366,124.188
124443,141416,10706,-0.047,-0.982,-0.01,0.671,0.854,0.305,124.194
124447,141562,9274,-0.049,-0.974,-0.01,0.671,0.854,0.305,124.197
124447,141415,10713,-0.049,-0.976,-0.007,-0.854,0.976,0.549,124.204
124463,141562,9274,-0.052,-0.983,-0.01,-0.854,0.976,0.549,124.207
124463,141411,10701,-0.054,-0.994,-0.009,-0.793,0.976,0.61,124.214
124455,141562,9274,-0.054,-1,-0.01,-0.793,0.976,0.61,124.217
124455,141404,10711,-0.051,-0.995,0.001,-0.549,0.61,0.244,124.223
124460,141562,9274,-0.047,-0.988,0.007,-0.549,0.61,0.244,124.227
124460,141418,10712,-0.046,-0.976,0.006,-0.61,0.305,0.427,124.233
124447,141562,9274,-0.048,-0.976,-0.008,-0.61,0.305,0.427,124.237
124447,141427,10713,-0.053,-0.989,-0.006,-0.122,0.61,0.488,124.243
124450,141562,9274,-0.049,-0.996,0,-0.122,0.61,0.488,124.247
124450,141405,10695,-0.047,-0.994,-0.004,0.244,0.061,0.061,124.253
124436,141562,9274,-0.043,-0.981,-0.007,0.244,0.061,0.061,124.257
124436,141419,10712,-0.04,-0.973,-0.011,-0.854,-0.183,0.122,124.263
124462,141562,9274,-0.042,-0.979,-0.014,-0.854,-0.183,0.122,124.267
124462,141423,10709,-0.048,-0.992,-0.008,-0.305,0.244,0.427,124.273
124443,141562,9274,-0.048,-0.995,-0.006,-0.305,0.244,0.427,124.277
124443,141402,10705,-0.046,-0.986,-0.013,-0.244,0.183,0.122,124.283
124463,141562,9274,-0.043,-0.98,-0.012,-0.244,0.183,0.122,124.287
124463,141420,10706,-0.045,-0.983,-0.004,-0.671,0.244,0.183,124.293
124449,141562,9274,-0.043,-0.983,-0.001,-0.671,0.244,0.183,124.296
124449,141403,10715,-0.046,-0.98,-0.001,0.122,0.366,0.244,124.303
124450,141562,9274,-0.046,-0.979,-0.006,0.122,0.366,0.244,124.306
124450,141429,10713,-0.046,-0.982,-0.01,-0.549,0.427,0.183,124.313
124461,141562,9274,-0.048,-0.987,-0.011,-0.549,0.427,0.183,124.316
124461,141410,10721,-0.044,-0.986,-0.009,-0.061,0.305,0.122,124.322
124459,141562,9274,-0.042,-0.987,-0.005,-0.061,0.305,0.122,124.326
124459,141413,10714,-0.039,-0.984,0.005,-0.122,0.122,0.244,124.332
124436,141562,9274,-0.037,-0.98,0.009,-0.122,0.122,0.244,124.336
124436,141424,10717,-0.044,-0.977,0.001,-0.305,0.427,0.61,124.342
124465,141562,9274,-0.052,-0.984,-0.007,-0.305,0.427,0.61,124.346
124465,141405,10712,-0.052,-0.994,-0.003,0.122,0.549,0.488,124.352
124427,141562,9274,-0.051,-0.994,0.001,0.122,0.549,0.488,124.356
124427,141399,10708,-0.047,-0.985,-0.002,0.488,-0.244,0.183,124.362
124435,141562,9274,-0.041,-0.976,-0.016,0.488,-0.244,0.183,124.366
124435,141416,10704,-0.041,-0.976,-0.01,-0.488,-0.305,0.183,124.372
124460,141562,9274,-0.045,-0.985,-0,-0.488,-0.305,0.183,124.376
124460,141423,10717,-0.043,-0.987,-0.003,-0.488,0.061,0.122,124.382
124435,141562,9274,-0.043,-0.987,-0.003,-0.488,0.061,0.122,124.386
124435,141403,10709,-0.044,-0.985,-0.01,-1.22,-0.061,0.122,124.392
124422,141562,9274,-0.044,-0.985,-0.01,-1.22,-0.061,0.122,124.395
124422,141395,10715,-0.04,-0.99,-0.009,-0.61,-0.244,0.244,124.402
124422,141562,9274,-0.04,-0.99,-0.009,-0.61,-0.244,0.244,124.405
124422,141386,10711,-0.04,-0.978,-0.01,-0.366,0.061,0.305,124.412
124423,141562,9274,-0.04,-0.978,-0.01,-0.366,0.061,0.305,124.415
124423,141385,10700,-0.044,-0.977,-0.012,-0.549,0.305,0.549,124.421
124404,141562,9274,-0.044,-0.977,-0.012,-0.549,0.305,0.549,124.425
124404,141364,10688,-0.046,-0.986,-0.02,-0.305,0.244,0.549,124.431
124420,141562,9274,-0.046,-0.986,-0.02,-0.305,0.244,0.549,124.435
124420,141385,10713,-0.04,-0.982,-0.004,-0.549,0.305,0.488,124.441
124423,141562,9274,-0.04,-0.982,-0.004,-0.549,0.305,0.488,124.445
124423,141374,10699,-0.049,-0.979,-0.006,-1.098,0.854,0.61,124.451
124418,141562,9274,-0.049,-0.979,-0.006,-1.098,0.854,0.61,124.455
124418,141400,10710,-0.05,-0.994,-0.01,-0.854,0.671,0.488,124.461
124430,141562,9274,-0.05,-0.994,-0.01,-0.854,0.671,0.488,124.465
124430,141396,10695,-0.044,-0.993,-0.001,-0.366,0.122,0.305,124.471
124424,141562,9274,-0.044,-0.993,-0.001,-0.366,0.122,0.305,124.475
124424,141396,10702,-0.04,-0.979,-0.011,-0.244,0.244,0.366,124.481
124399,141562,9274,-0.04,-0.979,-0.011,-0.244,0.244,0.366,124.485
124399,141394,10706,-0.046,-0.98,-0.004,0.854,0.671,0.488,124.491
124446,141562,9274,-0.046,-0.98,-0.004,0.854,0.671,0.488,124.494
124446,141404,10702,-0.042,-0.973,-0.016,0.183,0.61,0.488,124.501
124420,141562,9274,-0.042,-0.973,-0.016,0.183,0.61,0.488,124.504
124420,141411,10702,-0.044,-0.983,0.005,-0.122,0.366,0.793,124.511
124405,141562,9274,-0.044,-0.983,0.005,-0.122,0.366,0.793,124.514
124405,141402,10705,-0.049,-0.987,-0.02,-0.305,0.549,0.61,124.52
124426,141562,9274,-0.049,-0.987,-0.02,-0.305,0.549,0.61,124.524
124426,141403,10706,-0.047,-0.991,-0.018,-0.305,0.549,0.61,124.53
124405,141562,9274,-0.047,-0.994,-0.001,0.244,0.549,0.549,124.534
124405,141402,10712,-0.048,-0.986,0.002,0.244,0.549,0.549,124.54
124409,141562,9274,-0.044,-0.979,-0.006,-0.244,0.549,0.61,124.544
124409,141378,10703,-0.044,-0.979,-0.015,-0.244,0.549,0.61,124.55
124418,141562,9274,-0.045,-0.987,-0.003,-1.159,0.488,0.671,124.554
124418,141396,10700,-0.046,-0.995,0.004,-1.159,0.488,0.671,124.56
124418,141562,9274,-0.046,-0.992,0.002,-0.427,0.305,0.488,124.564
124418,141386,10712,-0.042,-0.981,-0.003,-0.427,0.305,0.488,124.57
124402,141562,9274,-0.045,-0.978,-0.003,-0.61,0.366,0.488,124.574
124402,141406,10710,-0.05,-0.984,0,-0.61,0.366,0.488,124.58
124404,141562,9274,-0.052,-0.99,-0.005,0.183,0.488,0.549,124.584
124404,141380,10708,-0.053,-0.988,-0.011,0.183,0.488,0.549,124.59
124433,141562,9274,-0.05,-0.989,-0.01,0.427,0.183,0.305,124.593
124433,141415,10697,-0.046,-0.985,0.003,0.427,0.183,0.305,124.6
124425,141562,9274,-0.045,-0.98,-0.001,0,0.244,0.427,124.603
124425,141399,10704,-0.049,-0.977,-0.011,0,0.244,0.427,124.61
124413,141562,9274,-0.05,-0.98,-0.015,-0.061,0.549,0.488,124.613
124413,141379,10703,-0.051,-0.983,-0.018,-0.061,0.549,0.488,124.619
124401,141562,9274,-0.047,-0.983,-0.012,0.305,0.427,0.244,124.623
124401,141385,10686,-0.043,-0.979,0.003,0.305,0.427,0.244,124.629
124400,141562,9274,-0.044,-0.976,0.009,-0.549,0.244,0.549,124.633
124400,141383,10706,-0.047,-0.977,-0.003,-0.549,0.244,0.549,124.639
124390,141562,9274,-0.051,-0.985,-0.013,-0.915,0.549,0.732,124.643
124390,141407,10699,-0.049,-0.995,-0.007,-0.915,0.549,0.732,124.649
124408,141562,9274,-0.048,-1.002,-0.001,0.305,0.183,0.366,124.653
124408,141392,10690,-0.047,-0.988,-0.013,0.305,0.183,0.366,124.659
124408,141562,9274,-0.041,-0.982,-0.021,0.427,0,0.305,124.663
124408,141379,10702,-0.042,-0.983,-0.013,0.427,0,0.305,124.669
124414,141562,9274,-0.045,-0.983,-0.001,0.915,0.305,0.488,124.673
124414,141408,10700,-0.043,-0.979,-0.006,0.915,0.305,0.488,124.679
124408,141562,9274,-0.045,-0.978,-0.016,0.305,0.61,0.366,124.683
124408,141406,10700,-0.045,-0.987,-0.014,0.305,0.61,0.366,124.689
124404,141562,9274,-0.045,-0.99,0.008,0.244,0.427,0.366,124.692
124404,141371,10695,-0.045,-0.984,0.01,0.244,0.427,0.366,124.699
124379,141562,9274,-0.048,-0.982,-0.013,-0.671,0.427,0.305,124.702
124379,141367,10705,-0.046,-0.987,-0.015,-0.671,0.427,0.305,124.709
124380,141562,9274,-0.042,-0.996,-0.005,-0.122,0.244,0.244,124.712
124380,141353,10696,-0.042,-0.995,-0.001,-0.122,0.244,0.244,124.718
124366,141562,9274,-0.045,-0.975,-0.012,0.854,0.244,0.183,124.722
124366,141357,10709,-0.042,-0.968,-0.02,0.854,0.244,0.183,124.728
124383,141562,9274,-0.043,-0.974,-0.019,0.244,0.671,0.488,124.732
124383,141351,10681,-0.044,-0.982,-0.007,0.244,0.671,0.488,124.738
124363,141562,9274,-0.042,-0.983,-0.005,0.549,0.549,0.671,124.742
124363,141346,10710,-0.042,-0.98,-0.005,0.549,0.549,0.671,124.748
124376,141562,9274,-0.039,-0.982,-0,-0.793,0.671,0.61,124.752
124376,141360,10686,-0.04,-0.985,0.001,-0.793,0.671,0.61,124.758
124366,141562,9274,-0.044,-0.987,0.001,-0.366,0.854,0.732,124.762
124366,141353,10700,-0.046,-0.988,-0.004,-0.366,0.854,0.732,124.768
124354,141562,9274,-0.044,-0.986,-0.003,-0.488,0.732,0.671,124.772
124354,141364,10686,-0.045,-0.988,-0.009,-0.488,0.732,0.671,124.778
124347,141562,9274,-0.044,-0.992,-0.008,0.122,0.488,0.549,124.782
124347,141355,10717,-0.042,-0.99,-0.008,0.122,0.488,0.549,124.788
124362,141562,9274,-0.042,-0.982,-0.01,1.159,0.488,0.549,124.791
124362,141362,10702,-0.043,-0.981,-0.01,1.159,0.488,0.549,124.798
124374,141562,9274,-0.05,-0.981,-0.003,0.671,0.976,0.488,124.801
124374,141361,10700,-0.049,-0.983,0.006,0.671,0.976,0.488,124.808
124350,141562,9274,-0.053,-0.978,0.006,-0.488,1.098,0.61,124.811
124350,141356,10694,-0.056,-0.985,-0.009,-0.488,1.098,0.61,124.817
124363,141562,9274,-0.052,-0.993,-0.004,-0.854,0.671,0.366,124.821
124363,141321,10693,-0.046,-0.995,0.004,-0.854,0.671,0.366,124.827
124343,141562,9274,-0.045,-0.981,-0.011,-0.244,0.122,0.244,124.831
124343,141318,10701,-0.044,-0.977,-0.021,-0.244,0.122,0.244,124.837
124338,141562,9274,-0.045,-0.984,-0.012,-0.183,0.427,0.427,124.841
124338,141326,10691,-0.046,-0.986,-0.004,-0.183,0.427,0.427,124.847
124351,141562,9274,-0.048,-0.981,-0.009,0.976,0.549,0.671,124.851
124351,141339,10677,-0.047,-0.976,-0.015,0.976,0.549,0.671,124.857
124314,141562,9274,-0.047,-0.977,-0.011,0,0.488,0.61,124.861
124314,141344,10697,-0.047,-0.985,-0.009,0,0.488,0.61,124.867
124338,141562,9274,-0.045,-0.99,-0.016,0.061,0.549,0.671,124.871
124338,141333,10688,-0.042,-0.989,-0.009,0.061,0.549,0.671,124.877
124310,141562,9274,-0.044,-0.988,0.001,0.061,0.488,0.488,124.881
124310,141336,10694,-0.042,-0.983,0.007,0.061,0.488,0.488,124.887
124334,141562,9274,-0.045,-0.983,0.009,-0.61,0.732,0.61,124.89
124334,141338,10688,-0.046,-0.982,0.009,-0.61,0.732,0.61,124.897
124326,141562,9274,-0.047,-0.982,0.002,-1.037,0.732,0.427,124.9
124326,141315,10680,-0.048,-0.992,-0.005,-1.037,0.732,0.427,124.907
124311,141562,9274,-0.048,-1,0.003,-0.793,0.183,0.061,124.91
124311,141316,10693,-0.042,-0.998,0.008,-0.793,0.183,0.061,124.916
124319,141562,9274,-0.041,-0.983,-0.009,-0.244,-0.366,0.061,124.92
124319,141334,10691,-0.041,-0.976,-0.015,-0.244,-0.366,0.061,124.926
124302,141562,9274,-0.049,-0.981,-0.007,0.427,0.183,0.061,124.93
124302,141330,10680,-0.051,-0.983,-0.007,0.427,0.183,0.061,124.936
124306,141562,9274,-0.046,-0.98,-0.006,1.098,0.305,0,124.94
124306,141312,10687,-0.042,-0.975,0.002,1.098,0.305,0,124.946
124309,141306,9274,-0.046,-0.979,0.007,-0.366,0.061,0.183,124.95
124309,141292,10698,-0.051,-0.977,0.003,-0.366,0.061,0.183,124.956
124297,141562,9274,-0.055,-0.981,-0.012,-0.915,0.183,0.244,124.96
124297,141337,10705,-0.053,-0.993,-0.019,-0.915,0.183,0.244,124.966
124292,141562,9274,-0.053,-0.993,-0.019,-0.915,0.183,0.244,124.97
124292,141334,10689,-0.044,-0.987,0.001,-0.061,0,0,124.976
124298,141562,9274,-0.044,-0.987,0.001,-0.061,0,0,124.98
124298,141322,10685,-0.045,-0.977,-0.01,-0.305,-0.183,0.061,124.986
124301,141562,9274,-0.045,-0.977,-0.01,-0.305,-0.183,0.061,124.989
124301,141327,10689,-0.048,-0.99,-0.014,-0.488,0.244,0.183,124.996
124297,141562,9274,-0.048,-0.99,-0.014,-0.488,0.244,0.183,124.999
124297,141339,10677,-0.043,-0.986,-0.008,0.244,0.122,0.183,125.006
124311,141562,9274,-0.043,-0.986,-0.008,0.244,0.122,0.183,125.009
124311,141324,10693,-0.042,-0.982,-0.012,-0.305,-0.061,0.244,125.015
124307,141562,9274,-0.042,-0.982,-0.012,-0.305,-0.061,0.244,125.019
124307,141345,10694,-0.049,-0.991,-0.013,-0.671,0.244,0.427,125.025
124288,141562,9274,-0.049,-0.991,-0.013,-0.671,0.244,0.427,125.029
124288,141333,10693,-0.047,-0.996,-0.01,-0.061,0.244,0.244,125.035
124306,141562,9274,-0.047,-0.996,-0.01,-0.061,0.244,0.244,125.039
124306,141314,10681,-0.042,-0.979,-0.003,0.366,0.061,0,125.045
124297,141306,9274,-0.042,-0.979,-0.003,0.366,0.061,0,125.049
124297,141305,10678,-0.045,-0.98,-0.012,-0.244,0.488,-0.061,125.055
124304,141562,9274,-0.045,-0.98,-0.012,-0.244,0.488,-0.061,125.059
124304,141343,10694,-0.043,-0.985,0.006,-0.61,0.793,-0.183,125.065
124289,141562,9274,-0.043,-0.985,0.006,-0.61,0.793,-0.183,125.069
124289,141316,10687,-0.044,-0.983,-0.005,-1.707,0.549,-0.244,125.075
124302,141562,9274,-0.044,-0.983,-0.005,-1.707,0.549,-0.244,125.079
124302,141324,10690,-0.043,-0.987,0.001,-1.524,0.488,-0.305,125.085
124269,141306,9274,-0.043,-0.987,0.001,-1.524,0.488,-0.305,125.088
124269,141299,10689,-0.042,-0.975,-0.003,0.061,0.549,-0.366,125.095
124293,141562,9274,-0.042,-0.975,-0.003,0.061,0.549,-0.366,125.098
124293,141319,10708,-0.039,-0.98,0.005,0.366,0.427,-0.244,125.105
124287,141306,9274,-0.039,-0.98,0.005,0.366,0.427,-0.244,125.108
124287,141305,10676,-0.042,-0.976,0,0.183,0.427,0.061,125.114
124287,141306,9274,-0.05,-0.977,-0.019,0.183,0.427,0.061,125.118
124287,141301,10691,-0.052,-0.987,-0.021,-0.61,0.61,0.305,125.124
124272,141306,9274,-0.045,-0.995,-0.01,-0.61,0.61,0.305,125.128
124272,141301,10682,-0.043,-0.991,-0.007,0.976,-0.244,0.305,125.134
124269,141306,9274,-0.039,-0.984,-0.012,0.976,-0.244,0.305,125.138
124269,141300,10689,-0.04,-0.98,-0.022,0.976,0.183,0.427,125.144
124286,141306,9274,-0.044,-0.985,-0.014,0.976,0.183,0.427,125.148
124286,141310,10690,-0.047,-0.985,-0.004,1.098,1.159,0.671,125.154
124263,141306,9274,-0.047,-0.981,-0.002,1.098,1.159,0.671,125.158
124263,141275,10681,-0.044,-0.983,0.002,0.427,0.915,0.61,125.164
124261,141306,9274,-0.041,-0.983,0.007,0.427,0.915,0.61,125.168
124261,141282,10685,-0.04,-0.98,0.009,-1.159,0.427,0.366,125.174
124253,141306,9274,-0.04,-0.982,-0.001,-1.159,0.427,0.366,125.178
124253,141261,10685,-0.044,-0.989,-0.009,-1.098,0.427,0.366,125.184
124244,141306,9274,-0.048,-0.995,-0.006,-1.098,0.427,0.366,125.187
124244,141301,10680,-0.046,-0.99,-0.004,0.122,0.122,0.061,125.194
124244,141306,9274,-0.047,-0.983,-0.003,0.122,0.122,0.061,125.197
124244,141263,10667,-0.043,-0.976,0.001,0,0.183,0.244,125.204
124246,141306,9274,-0.044,-0.977,0.004,0,0.183,0.244,125.207
124246,141274,10683,-0.048,-0.977,-0.005,-0.061,0.183,0.61,125.213
124259,141306,9274,-0.048,-0.979,-0.013,-0.061,0.183,0.61,125.217
124259,141300,10676,-0.05,-0.989,-0.01,-0.488,0.122,0.427,125.223
124240,141306,9274,-0.052,-0.994,0.002,-0.488,0.122,0.427,125.227
124240,141279,10673,-0.05,-0.987,0.004,-0.671,-0.061,0.366,125.233
124233,141306,9274,-0.049,-0.977,-0.005,-0.671,-0.061,0.366,125.237
124233,141273,10696,-0.048,-0.977,-0.015,-1.28,0,0.488,125.243
124254,141306,9274,-0.045,-0.99,-0.015,-1.28,0,0.488,125.247
124254,141303,10680,-0.047,-0.994,-0.006,0.366,-0.122,0.427,125.253
124274,141306,9274,-0.045,-0.987,0.001,0.366,-0.122,0.427,125.257
124274,141269,10702,-0.045,-0.974,0.008,-0.366,0.061,0.305,125.263
124274,141306,9274,-0.046,-0.968,0.013,-0.366,0.061,0.305,125.267
124274,141282,10678,-0.05,-0.973,0.003,-1.89,0.366,0.732,125.273
124272,141562,9274,-0.052,-0.987,-0.004,-1.89,0.366,0.732,125.277
124272,141313,10670,-0.046,-1.003,-0.002,-1.402,0,0.366,125.283
124291,141562,9274,-0.045,-1,0.004,-1.402,0,0.366,125.286
124291,141322,10677,-0.039,-0.985,0,-1.28,-0.732,-0.061,125.293
124276,141306,9274,-0.037,-0.98,-0.012,-1.28,-0.732,-0.061,125.296
124276,141301,10679,-0.041,-0.984,-0.006,-0.366,-0.427,0.183,125.303
124258,141562,9274,-0.044,-0.985,-0.005,-0.366,-0.427,0.183,125.306
124258,141322,10679,-0.048,-0.979,-0.006,0.61,-0.122,0.183,125.312
124290,141306,9274,-0.044,-0.976,-0.008,0.61,-0.122,0.183,125.316
124290,141304,10671,-0.044,-0.979,0.002,-0.915,-0.366,0.366,125.322
124286,141306,9274,-0.046,-0.98,0.002,-0.915,-0.366,0.366,125.326
124286,141295,10680,-0.044,-0.986,-0.014,-0.854,-0.671,0.488,125.332
124285,141306,9274,-0.042,-0.991,-0.016,-0.854,-0.671,0.488,125.336
124285,141297,10682,-0.04,-0.995,-0.002,-0.305,-0.671,0.366,125.342
124282,141562,9274,-0.04,-0.989,0.008,-0.305,-0.671,0.366,125.346
124282,141333,10663,-0.043,-0.974,0.003,-0.549,-0.427,0.305,125.352
124276,141562,9274,-0.046,-0.969,-0.013,-0.549,-0.427,0.305,125.356
124276,141342,10692,-0.049,-0.979,-0.021,-0.854,-0.183,0.488,125.362
124312,141562,9274,-0.045,-0.995,-0.018,-0.854,-0.183,0.488,125.366
124312,141336,10675,-0.04,-1.001,-0.014,0.549,-0.549,0.061,125.372
124277,141562,9274,-0.041,-0.992,-0.018,0.549,-0.549,0.061,125.376
124277,141335,10692,-0.04,-0.98,-0.019,-0.793,-0.488,0.122,125.382
124273,141562,9274,-0.042,-0.984,-0.014,-0.793,-0.488,0.122,125.385
124273,141319,10691,-0.045,-0.984,-0.009,-0.244,0.305,0.549,125.392
124279,141562,9274,-0.043,-0.987,-0.011,-0.244,0.305,0.549,125.395
124279,141317,10680,-0.046,-0.985,-0.014,0.244,0.488,0.305,125.402
124292,141562,9274,-0.048,-0.987,-0.01,0.244,0.488,0.305,125.405
124292,141350,10701,-0.047,-0.989,-0.014,0.061,0.305,0.244,125.411
124320,141562,9274,-0.044,-0.989,-0.015,0.061,0.305,0.244,125.415
124320,141340,10685,-0.039,-0.987,-0.007,0.488,0.183,0.305,125.421
124309,141562,9274,-0.038,-0.982,0,0.488,0.183,0.305,125.425
124309,141336,10687,-0.039,-0.974,-0.003,-0.244,0.549,0.427,125.431
124292,141306,9274,-0.039,-0.978,-0.01,-0.244,0.549,0.427,125.435
124292,141303,10701,-0.046,-0.984,0,-0.122,0.793,0.488,125.441
124279,141562,9274,-0.045,-0.986,0.007,-0.122,0.793,0.488,125.445
124279,141328,10693,-0.043,-0.984,-0.001,-0.427,0.427,0.305,125.451
124268,141306,9274,-0.042,-0.984,-0.003,-0.427,0.427,0.305,125.455
124268,141289,10679,-0.042,-0.989,0,-1.037,0.488,0.427,125.461
124291,141306,9274,-0.044,-0.991,-0.006,-1.037,0.488,0.427,125.465
124291,141287,10689,-0.044,-0.992,-0.016,-0.61,0.732,0.305,125.471
124295,141306,9274,-0.045,-0.993,-0.017,-0.61,0.732,0.305,125.475
124295,141298,10682,-0.044,-0.993,-0.016,0.671,0.549,0.183,125.481
124282,141562,9274,-0.04,-0.983,-0.013,0.671,0.549,0.183,125.484
124282,141348,10688,-0.04,-0.971,-0.012,1.098,0.671,0.305,125.491
124297,141562,9274,-0.043,-0.967,-0.019,1.098,0.671,0.305,125.494
124297,141323,10692,-0.048,-0.975,-0.025,0.61,1.22,0.61,125.501
124298,141562,9274,-0.047,-0.987,-0.023,0.61,1.22,0.61,125.504
124298,141328,10691,-0.038,-0.99,-0.01,0.976,0.976,0.549,125.51
124302,141562,9274,-0.037,-0.985,0.004,0.976,0.976,0.549,125.514
124302,141338,10699,-0.039,-0.977,0.004,0,1.037,0.854,125.52
124320,141562,9274,-0.048,-0.978,-0,0,1.037,0.854,125.524
124320,141335,10696,-0.051,-0.983,-0.002,0,1.768,0.976,125.53
124298,141562,9274,-0.047,-0.992,0.003,0,1.768,0.976,125.534
124298,141321,10686,-0.046,-0.992,-0.001,0.671,1.28,0.61,125.54
124275,141306,9274,-0.044,-0.986,0.003,0.671,1.28,0.61,125.544
124275,141310,10682,-0.042,-0.982,0.002,0.244,0.732,0.61,125.55
124251,141306,9274,-0.042,-0.982,0.002,0.244,0.732,0.61,125.554
124251,141303,10690,-0.048,-0.988,-0.02,-0.183,1.098,0.732,125.56
124266,141562,9274,-0.048,-0.988,-0.02,-0.183,1.098,0.732,125.564
124266,141316,10696,-0.044,-0.99,-0.006,0.122,1.159,0.488,125.57
124282,141562,9274,-0.044,-0.99,-0.006,0.122,1.159,0.488,125.574
124282,141324,10699,-0.048,-0.982,-0.017,0,1.037,0.671,125.58
124301,141306,9274,-0.048,-0.982,-0.017,0,1.037,0.671,125.583
124301,141310,10699,-0.051,-0.987,-0.025,1.098,1.402,0.61,125.59
124278,141562,9274,-0.051,-0.987,-0.025,1.098,1.402,0.61,125.593
124278,141332,10686,-0.048,-0.983,-0.009,1.22,1.28,0.671,125.6
124298,141562,9274,-0.048,-0.983,-0.009,1.22,1.28,0.671,125.603
124298,141313,10690,-0.046,-0.975,-0.004,0.488,1.28,0.976,125.609
124327,141562,9274,-0.046,-0.975,-0.004,0.488,1.28,0.976,125.613
124327,141362,10697,-0.05,-0.982,0.01,0,1.585,0.915,125.619
124329,141562,9274,-0.05,-0.982,0.01,0,1.585,0.915,125.623
124329,141337,10694,-0.053,-0.986,0.005,-0.854,1.524,0.915,125.629
124313,141562,9274,-0.053,-0.986,0.005,-0.854,1.524,0.915,125.633
124313,141352,10703,-0.047,-0.997,-0.001,-0.61,0.671,0.854,125.639
124337,141562,9274,-0.047,-0.997,-0.001,-0.61,0.671,0.854,125.643
124337,141361,10710,-0.045,-0.983,-0.001,0,0.305,0.732,125.649
124375,141562,9274,-0.045,-0.983,-0.001,0,0.305,0.732,125.653
124375,141390,10704,-0.048,-0.984,0.009,0.122,0.732,0.732,125.659
124357,141562,9274,-0.048,-0.984,0.009,0.122,0.732,0.732,125.663
124357,141378,10699,-0.05,-0.985,0.009,-0.183,0.671,0.549,125.669
124338,141562,9274,-0.05,-0.985,0.009,-0.183,0.671,0.549,125.673
124338,141366,10697,-0.048,-0.983,0.007,-1.098,0.183,0.183,125.679
124356,141562,9274,-0.048,-0.983,0.007,-1.098,0.183,0.183,125.682
124356,141374,10716,-0.048,-0.992,-0.006,-0.61,-0.244,0.122,125.689
124343,141562,9274,-0.048,-0.992,-0.006,-0.61,-0.244,0.122,125.692
124343,141390,10709,-0.046,-0.99,-0.005,-0.61,-0.244,0.122,125.699
124338,141562,9274,-0.043,-0.982,-0.004,0,-0.366,-0.183,125.702
124338,141348,10701,-0.045,-0.973,0,0,-0.366,-0.183,125.708
124345,141562,9274,-0.047,-0.971,-0.007,0,-0.183,0.061,125.712
124345,141369,10700,-0.048,-0.977,-0.01,0,-0.183,0.061,125.718
124329,141562,9274,-0.048,-0.982,-0.01,0,-0.122,0.305,125.722
124329,141380,10708,-0.045,-0.981,-0.007,0,-0.122,0.305,125.728
124342,141562,9274,-0.044,-0.985,0,-0.793,-0.244,0.305,125.732
124342,141354,10691,-0.044,-0.988,0.005,-0.793,-0.244,0.305,125.738
124311,141562,9274,-0.05,-0.983,-0.002,-0.854,-0.061,0.61,125.742
124311,141348,10683,-0.052,-0.985,-0.018,-0.854,-0.061,0.61,125.748
124323,141562,9274,-0.048,-0.99,-0.014,0.122,0.061,0.427,125.752
124323,141326,10699,-0.05,-0.991,-0.004,0.122,0.061,0.427,125.758
124300,141562,9274,-0.047,-0.987,-0.007,0.976,-0.244,0.244,125.762
124300,141330,10712,-0.046,-0.983,-0.018,0.976,-0.244,0.244,125.768
124287,141562,9274,-0.049,-0.983,-0.023,0.427,0.122,0.244,125.772
124287,141322,10704,-0.045,-0.99,-0.02,0.427,0.122,0.244,125.778
124306,141562,9274,-0.041,-0.993,-0.01,0.793,0.183,0.244,125.781
124306,141314,10694,-0.041,-0.985,-0.005,0.793,0.183,0.244,125.788
124292,141562,9274,-0.043,-0.978,-0.009,0,0.305,0.366,125.791
124292,141316,10682,-0.044,-0.981,-0.014,0,0.305,0.366,125.798
124267,141562,9274,-0.043,-0.987,-0.014,-0.122,0.427,0.305,125.801
124267,141312,10686,-0.044,-0.99,-0.006,-0.122,0.427,0.305,125.807
124251,141306,9274,-0.043,-0.989,-0.005,0.305,0.244,0.122,125.811
124251,141267,10691,-0.037,-0.987,0.003,0.305,0.244,0.122,125.817
124270,141306,9274,-0.039,-0.979,0.003,-0.244,0.305,0.366,125.821
124270,141301,10698,-0.04,-0.976,-0.004,-0.244,0.305,0.366,125.827
124260,141306,9274,-0.045,-0.982,-0.015,-0.244,0.488,0.549,125.831
124260,141282,10683,-0.042,-0.989,-0.008,-0.244,0.488,0.549,125.837
124254,141562,9274,-0.043,-0.99,0.005,0,0.305,0.244,125.841
124254,141313,10688,-0.042,-0.987,0.003,0,0.305,0.244,125.847
124248,141306,9274,-0.042,-0.983,-0.005,-0.244,0,0.183,125.851
124248,141292,10695,-0.039,-0.983,-0.009,-0.244,0,0.183,125.857
124271,141306,9274,-0.04,-0.985,-0.008,0,0.305,0.305,125.861
124271,141302,10682,-0.045,-0.987,-0.003,0,0.305,0.305,125.867
124266,141306,9274,-0.045,-0.986,-0.005,0.488,0.549,0.183,125.871
124266,141309,10676,-0.045,-0.987,-0.004,0.488,0.549,0.183,125.877
124238,141306,9274,-0.046,-0.986,-0.005,0.427,0.671,0.061,125.88
124238,141274,10691,-0.043,-0.988,-0.001,0.427,0.671,0.061,125.887
124222,141306,9274,-0.044,-0.982,-0.003,0.244,0.793,0.122,125.89
124222,141286,10673,-0.047,-0.979,-0.003,0.244,0.793,0.122,125.897
124215,141306,9274,-0.049,-0.988,0.006,0.122,0.732,0.183,125.9
124215,141269,10690,-0.048,-0.99,0.016,0.122,0.732,0.183,125.906
124173,141306,9274,-0.046,-0.98,0.017,-0.244,0.549,0.061,125.91
124173,141255,10683,-0.047,-0.977,0.013,-0.244,0.549,0.061,125.916
124209,141306,9274,-0.048,-0.977,-0.001,-1.037,0.305,0.061,125.92
124209,141258,10680,-0.049,-0.982,-0.016,-1.037,0.305,0.061,125.926
124197,141306,9274,-0.046,-0.991,-0.023,0.244,-0.061,-0.061,125.93
124197,141264,10685,-0.046,-0.996,-0.017,0.244,-0.061,-0.061,125.936
124184,141306,9274,-0.038,-0.989,-0.013,1.402,-0.549,-0.122,125.94
124184,141253,10666,-0.038,-0.974,-0.014,1.402,-0.549,-0.122,125.946
124188,141306,9274,-0.039,-0.967,-0.018,0.366,0.305,0.549,125.95
124188,141260,10678,-0.044,-0.977,-0.014,0.366,0.305,0.549,125.956
124173,141306,9274,-0.046,-0.987,-0.014,1.159,0.793,1.037,125.96
124173,141264,10668,-0.047,-0.992,-0.014,1.159,0.793,1.037,125.966
124189,141306,9274,-0.047,-0.992,-0.01,1.098,0.61,0.793,125.97
124189,141265,10676,-0.044,-0.986,-0.001,1.098,0.61,0.793,125.976
124181,141306,9274,-0.045,-0.982,0.003,0.244,0.854,0.976,125.979
124181,141245,10674,-0.045,-0.984,-0.001,0.244,0.854,0.976,125.986
124193,141306,9274,-0.048,-0.988,0.008,0.061,1.341,1.037,125.989
124193,141239,10669,-0.05,-0.989,0.026,0.061,1.341,1.037,125.996
124202,141306,9274,-0.055,-0.987,0.012,-0.61,1.22,0.671,125.999
124202,141239,10669,-0.053,-0.986,0.001,-0.61,1.22,0.671,126.005
124199,141306,9274,-0.051,-0.995,0,-1.22,0.732,0.305,126.009
124199,141238,10680,-0.049,-0.998,0.007,-1.22,0.732,0.305,126.015
124189,141306,9274,-0.046,-0.989,0.004,0.061,0.183,0.183,126.019
124189,141237,10683,-0.043,-0.98,0.003,0.061,0.183,0.183,126.025
124193,141306,9274,-0.045,-0.978,0.008,0,0.183,0.061,126.029
124193,141268,10670,-0.05,-0.978,0.005,0,0.183,0.061,126.035
124206,141306,9274,-0.05,-0.979,-0.009,-0.488,0.488,0.183,126.039
124206,141256,10676,-0.051,-0.984,-0.013,-0.488,0.488,0.183,126.045
124236,141306,9274,-0.048,-0.99,-0.011,-0.122,0.122,0.183,126.049
124236,141287,10683,-0.042,-0.987,-0.011,-0.122,0.122,0.183,126.055
124232,141306,9274,-0.044,-0.979,-0.007,0,0,0.183,126.059
124232,141286,10658,-0.045,-0.973,-0.001,0,0,0.183,126.065
124221,141306,9274,-0.045,-0.974,0.003,-0.61,0.549,0.549,126.069
124221,141260,10669,-0.05,-0.981,0.004,-0.61,0.549,0.549,126.075
124226,141306,9274,-0.049,-0.984,-0.002,-0.915,0.488,0.732,126.078
124226,141287,10676,-0.047,-0.988,0.003,-0.915,0.488,0.732,126.085
124230,141306,9274,-0.045,-0.991,0.008,-0.854,-0.061,0.671,126.088
124230,141284,10681,-0.044,-0.99,0.009,-0.854,-0.061,0.671,126.095
124191,141306,9274,-0.048,-0.987,0.008,-0.427,-0.244,0.488,126.098
124191,141281,10683,-0.049,-0.983,0.005,-0.427,-0.244,0.488,126.104
124201,141306,9274,-0.05,-0.984,-0.005,-0.915,-0.061,0.427,126.108
124201,141278,10680,-0.05,-0.99,-0.005,-0.915,-0.061,0.427,126.114
124202,141306,9274,-0.05,-0.995,0.002,-0.366,-0.305,0.183,126.118
124202,141277,10674,-0.044,-0.994,0.009,-0.366,-0.305,0.183,126.124
124215,141306,9274,-0.041,-0.982,0.005,-0.122,-0.732,0,126.128
124215,141274,10655,-0.044,-0.973,-0.002,-0.122,-0.732,0,126.134
124214,141306,9274,-0.047,-0.977,-0.01,-0.366,-0.366,0.183,126.138
124214,141282,10685,-0.048,-0.984,-0.007,-0.366,-0.366,0.183,126.144
124232,141306,9274,-0.048,-0.984,-0.007,-0.366,-0.366,0.183,126.148
124232,141303,10665,-0.046,-0.979,-0.022,-0.244,-0.061,-0.061,126.154
124227,141306,9274,-0.046,-0.979,-0.022,-0.244,-0.061,-0.061,126.158
124227,141298,10675,-0.041,-0.983,-0.016,-0.854,-0.427,-0.122,126.164
124232,141306,9274,-0.041,-0.983,-0.016,-0.854,-0.427,-0.122,126.168
124232,141283,10657,-0.038,-0.977,-0.014,-0.366,-0.549,0.183,126.174
124226,141306,9274,-0.038,-0.977,-0.014,-0.366,-0.549,0.183,126.177
124226,141283,10680,-0.046,-0.987,0.002,-0.427,0.061,0.427,126.184
124218,141306,9274,-0.046,-0.987,0.002,-0.427,0.061,0.427,126.187
124218,141272,10682,-0.049,-0.986,0.002,-0.732,0.305,0.671,126.194
124190,141306,9274,-0.049,-0.986,0.002,-0.732,0.305,0.671,126.197
124190,141275,10669,-0.047,-0.997,-0.004,-1.341,-0.061,0.488,126.203
124215,141306,9274,-0.047,-0.997,-0.004,-1.341,-0.061,0.488,126.207
124215,141304,10682,-0.04,-0.989,0,-0.305,-0.305,0.305,126.213
124230,141306,9274,-0.04,-0.989,0,-0.305,-0.305,0.305,126.217
124230,141279,10681,-0.038,-0.978,-0.021,0.061,-0.183,0.122,126.223
124182,141306,9274,-0.038,-0.978,-0.021,0.061,-0.183,0.122,126.227
124182,141254,10677,-0.04,-0.992,-0.012,0.671,-0.122,0.244,126.233
124197,141306,9274,-0.04,-0.992,-0.012,0.671,-0.122,0.244,126.237
124197,141245,10657,-0.043,-0.975,-0.02,1.28,-0.061,0.305,126.243
124209,141306,9274,-0.043,-0.975,-0.02,1.28,-0.061,0.305,126.247
124209,141259,10680,-0.043,-0.98,-0.019,0.549,0.427,0.488,126.253
124180,141306,9274,-0.043,-0.98,-0.019,0.549,0.427,0.488,126.257
124180,141241,10667,-0.042,-0.986,-0.002,0.244,0.854,0.732,126.263
124174,141306,9274,-0.042,-0.986,-0.002,0.244,0.854,0.732,126.267
124174,141243,10669,-0.042,-0.986,0.005,-0.61,0.976,0.671,126.273
124134,141306,9274,-0.042,-0.986,0.005,-0.61,0.976,0.671,126.276
124134,141223,10677,-0.044,-0.99,0.004,-0.793,1.037,0.793,126.283
124177,141306,9274,-0.044,-0.99,0.004,-0.793,1.037,0.793,126.286
124177,141238,10660,-0.045,-0.991,0.01,-0.244,0.915,0.671,126.293
124163,141306,9274,-0.047,-0.987,0.006,-0.244,0.915,0.671,126.296
124163,141217,10678,-0.042,-0.98,-0.007,0,0.732,0.549,126.302
124183,141306,9274,-0.041,-0.983,-0,0,0.732,0.549,126.306
124183,141213,10675,-0.041,-0.986,0.005,0.305,0.671,0.61,126.312
124168,141306,9274,-0.043,-0.98,-0.003,0.305,0.671,0.61,126.316
124168,141227,10677,-0.044,-0.981,-0.015,-0.183,0.671,0.549,126.322
124182,141306,9274,-0.045,-0.983,-0.006,-0.183,0.671,0.549,126.326
124182,141239,10653,-0.048,-0.987,0.003,-0.183,0.549,0.671,126.332
124188,141306,9274,-0.049,-0.986,-0.009,-0.183,0.549,0.671,126.336
124188,141226,10682,-0.05,-0.99,-0.02,0,0.488,0.549,126.342
124176,141306,9274,-0.049,-0.995,-0.014,0,0.488,0.549,126.346
124176,141224,10668,-0.047,-0.993,-0.006,0.549,0.61,0.488,126.352
124171,141306,9274,-0.042,-0.982,-0.006,0.549,0.61,0.488,126.356
124171,141237,10683,-0.043,-0.976,-0.005,0.122,0.854,0.61,126.362
124172,141306,9274,-0.043,-0.981,0.008,0.122,0.854,0.61,126.366
124172,141258,10665,-0.051,-0.984,0.009,0.061,1.341,0.793,126.372
124189,141306,9274,-0.055,-0.981,-0.001,0.061,1.341,0.793,126.375
124189,141241,10666,-0.054,-0.984,0,-0.915,1.28,0.61,126.382
124177,141306,9274,-0.053,-0.992,0.008,-0.915,1.28,0.61,126.385
124177,141246,10668,-0.053,-1,0.017,-0.488,0.671,0.61,126.392
124205,141306,9274,-0.049,-0.987,0.011,-0.488,0.671,0.61,126.395
124205,141239,10673,-0.047,-0.973,-0.004,-0.305,0.549,0.488,126.401
124189,141306,9274,-0.05,-0.976,-0.017,-0.305,0.549,0.488,126.405
124189,141258,10681,-0.05,-0.985,-0.009,0.366,0.671,0.488,126.411
124180,141306,9274,-0.048,-0.992,-0.005,0.366,0.671,0.488,126.415
124180,141235,10669,-0.046,-0.982,-0.012,0.61,0.488,0.305,126.421
124187,141306,9274,-0.046,-0.975,-0.016,0.61,0.488,0.305,126.425
124187,141263,10673,-0.048,-0.977,-0.011,-0.61,0.427,0.549,126.431
124189,141306,9274,-0.047,-0.985,-0.005,-0.61,0.427,0.549,126.435
124189,141252,10680,-0.048,-0.983,-0.007,-0.366,0.671,0.61,126.441
124207,141306,9274,-0.049,-0.984,-0.009,-0.366,0.671,0.61,126.445
124207,141256,10678,-0.042,-0.99,-0.009,-0.915,0.61,0.549,126.451
124191,141306,9274,-0.043,-0.995,0.001,-0.915,0.61,0.549,126.455
124191,141282,10684,-0.044,-0.996,0.014,-0.183,0.366,0.549,126.461
124210,141306,9274,-0.041,-0.985,0.019,-0.183,0.366,0.549,126.465
124210,141269,10678,-0.044,-0.976,0.011,-0.915,0.366,0.671,126.471
124203,141306,9274,-0.048,-0.984,0.005,-0.915,0.366,0.671,126.474
124203,141238,10688,-0.051,-0.994,0.003,-0.793,0.244,0.366,126.481
124226,141306,9274,-0.047,-0.994,0.013,-0.793,0.244,0.366,126.484
124226,141267,10682,-0.045,-0.985,0.016,-0.915,-0.61,0,126.491
124206,141306,9274,-0.043,-0.974,0.011,-0.915,-0.61,0,126.494
124206,141294,10685,-0.043,-0.976,-0.001,-1.89,-0.976,0.305,126.5
124218,141306,9274,-0.048,-0.987,-0.006,-1.89,-0.976,0.305,126.504
124218,141268,10681,-0.053,-0.99,-0.012,-0.305,-0.976,0.122,126.51
124202,141306,9274,-0.048,-0.99,-0.013,-0.305,-0.976,0.122,126.514
124202,141278,10691,-0.047,-0.987,-0.004,0.305,-1.22,-0.061,126.52
124217,141306,9274,-0.047,-0.979,-0.008,0.305,-1.22,-0.061,126.524
124217,141309,10681,-0.047,-0.973,-0.015,-0.732,-0.915,0.305,126.53
124227,141306,9274,-0.047,-0.979,-0.017,-0.732,-0.915,0.305,126.534
124227,141266,10684,-0.047,-0.989,-0.013,-0.61,-0.61,0.244,126.54
124222,141306,9274,-0.049,-0.991,-0.008,-0.61,-0.61,0.244,126.544
124222,141296,10696,-0.046,-0.986,-0.008,-0.915,-0.488,0.122,126.55
124205,141306,9274,-0.045,-0.984,-0.007,-0.915,-0.488,0.122,126.554
124205,141258,10677,-0.049,-0.983,-0.008,-1.463,-0.244,0.488,126.56
124181,141306,9274,-0.047,-0.986,-0.017,-1.463,-0.244,0.488,126.564
124181,141265,10671,-0.049,-0.988,-0.018,-0.305,-0.183,0.488,126.57
124167,141306,9274,-0.049,-0.995,-0.012,-0.305,-0.183,0.488,126.573
124167,141252,10674,-0.042,-0.993,0.001,0.305,-0.427,0.244,126.58
124191,141306,9274,-0.041,-0.98,0.004,0.305,-0.427,0.244,126.583
124191,141279,10673,-0.043,-0.972,-0.005,-0.122,-0.183,0.549,126.59
124177,141306,9274,-0.05,-0.978,-0.021,-0.122,-0.183,0.549,126.593
124177,141258,10672,-0.053,-0.992,-0.028,0.244,0.305,0.488,126.599
124191,141306,9274,-0.052,-1.002,-0.015,0.244,0.305,0.488,126.603
124191,141269,10676,-0.042,-0.993,-0.002,0.915,0.061,0.122,126.609
124210,141306,9274,-0.038,-0.979,0.003,0.915,0.061,0.122,126.613
124210,141293,10685,-0.039,-0.969,-0.006,-0.915,0.244,0.427,126.619
124211,141306,9274,-0.043,-0.975,-0.019,-0.915,0.244,0.427,126.623
124211,141294,10672,-0.045,-0.993,-0.01,-0.244,0.915,0.488,126.629
124212,141306,9274,-0.042,-0.996,0.005,-0.244,0.915,0.488,126.633
124212,141263,10683,-0.042,-0.985,0.005,-0.122,0.61,0.122,126.639
124205,141306,9274,-0.04,-0.977,0.003,-0.122,0.61,0.122,126.643
124205,141287,10674,-0.04,-0.977,-0.003,-0.976,0.488,0.549,126.649
124178,141306,9274,-0.04,-0.983,-0.005,-0.976,0.488,0.549,126.653
124178,141221,10687,-0.042,-0.99,-0.01,0.671,0.671,0.549,126.659
124197,141306,9274,-0.042,-0.988,-0.011,0.671,0.671,0.549,126.663
124197,141272,10695,-0.043,-0.987,-0.004,1.037,0.61,0.305,126.669
124187,141306,9274,-0.045,-0.984,0.002,1.037,0.61,0.305,126.672
124187,141236,10693,-0.05,-0.982,0,0.671,0.732,0.366,126.679
124181,141306,9274,-0.049,-0.983,0.01,0.671,0.732,0.366,126.682
124181,141233,10681,-0.052,-0.984,0.015,-0.366,0.976,0.427,126.689
124184,141306,9274,-0.052,-0.983,0.006,-0.366,0.976,0.427,126.692
124184,141263,10677,-0.05,-0.988,-0.006,-1.22,0.854,0.122,126.698
124179,141306,9274,-0.049,-0.992,0.001,-1.22,0.854,0.122,126.702
124179,141273,10676,-0.046,-0.993,0.012,-0.549,0.122,0,126.708
124202,141306,9274,-0.045,-0.98,0.011,-0.549,0.122,0,126.712
124202,141269,10681,-0.049,-0.974,0,-0.915,0.366,0.183,126.718
124200,141306,9274,-0.05,-0.979,-0.007,-0.915,0.366,0.183,126.722
124200,141284,10687,-0.051,-0.983,-0.012,-0.488,0.427,0.244,126.728
124212,141306,9274,-0.051,-0.983,-0.012,-0.488,0.427,0.244,126.732
124212,141269,10676,-0.046,-0.983,-0.025,-0.366,-0.244,0.122,126.738
124189,141306,9274,-0.046,-0.983,-0.025,-0.366,-0.244,0.122,126.742
124189,141266,10687,-0.043,-0.982,-0.017,-0.244,-0.244,0.427,126.748
124189,141306,9274,-0.043,-0.982,-0.017,-0.244,-0.244,0.427,126.752
124189,141261,10688,-0.042,-0.982,-0.016,-0.061,0.427,0.671,126.758
124191,141306,9274,-0.042,-0.982,-0.016,-0.061,0.427,0.671,126.762
124191,141235,10673,-0.052,-0.987,0.011,-0.305,0.976,0.732,126.768
124162,141306,9274,-0.052,-0.987,0.011,-0.305,0.976,0.732,126.771
124162,141233,10668,-0.052,-0.983,-0.005,-1.646,1.037,0.732,126.778
124165,141306,9274,-0.052,-0.983,-0.005,-1.646,1.037,0.732,126.781
124165,141217,10682,-0.042,-0.999,0.018,-1.098,0.61,0.488,126.788
124198,141306,9274,-0.042,-0.999,0.018,-1.098,0.61,0.488,126.791
124198,141253,10689,-0.046,-0.98,-0.003,-1.28,0.549,0.183,126.797
124189,141306,9274,-0.046,-0.98,-0.003,-1.28,0.549,0.183,126.801
124189,141237,10678,-0.049,-0.995,-0.006,-0.122,0.488,0.244,126.807
124215,141306,9274,-0.049,-0.995,-0.006,-0.122,0.488,0.244,126.811
124215,141260,10684,-0.041,-0.983,-0.008,0.305,0.061,-0.061,126.817
124227,141306,9274,-0.041,-0.983,-0.008,0.305,0.061,-0.061,126.821
124227,141261,10669,-0.049,-0.976,-0.012,-0.183,0.305,0.244,126.827
124227,141306,9274,-0.049,-0.976,-0.012,-0.183,0.305,0.244,126.831
124227,141255,10676,-0.048,-0.985,-0.013,0.244,0.61,0.305,126.837
124229,141306,9274,-0.048,-0.985,-0.013,0.244,0.61,0.305,126.841
124229,141266,10668,-0.044,-0.982,-0.002,-0.915,0.366,0.427,126.847
124245,141306,9274,-0.044,-0.982,-0.002,-0.915,0.366,0.427,126.851
124245,141304,10672,-0.047,-0.985,-0.001,-0.915,0.427,0.671,126.857
124231,141306,9274,-0.047,-0.985,-0.001,-0.915,0.427,0.671,126.861
124231,141287,10694,-0.048,-0.988,-0.009,-0.488,0.61,0.305,126.867
124237,141306,9274,-0.048,-0.988,-0.009,-0.488,0.61,0.305,126.87
124237,141304,10683,-0.046,-0.986,-0.006,-0.488,0.61,0.305,126.877
124300,141562,9274,-0.049,-0.986,0.009,-0.549,0.549,0.366,126.88
124300,141327,10686,-0.045,-0.987,0.008,-0.549,0.549,0.366,126.887
124301,141562,9274,-0.046,-0.982,0.003,-0.854,0.366,0.427,126.89
124301,141328,10690,-0.049,-0.979,-0.003,-0.854,0.366,0.427,126.896
124305,141562,9274,-0.05,-0.99,-0.012,-1.402,0.488,0.366,126.9
124305,141334,10690,-0.048,-0.998,-0.011,-1.402,0.488,0.366,126.906
124312,141562,9274,-0.046,-0.995,-0.013,-0.122,0.244,0.122,126.91
124312,141352,10701,-0.042,-0.983,-0.015,-0.122,0.244,0.122,126.916
124300,141562,9274,-0.04,-0.979,-0.008,0.427,-0.061,0.244,126.92
124300,141323,10669,-0.045,-0.978,-0.005,0.427,-0.061,0.244,126.926
124295,141562,9274,-0.049,-0.98,-0.004,0.366,0.61,0.427,126.93
124295,141347,10695,-0.052,-0.982,0,0.366,0.61,0.427,126.936
124321,141562,9274,-0.049,-0.986,-0.008,-0.793,0.671,0.427,126.94
124321,141355,10691,-0.047,-0.99,-0.017,-0.793,0.671,0.427,126.946
124325,141562,9274,-0.048,-0.995,-0.013,-0.488,0.122,0.366,126.95
124325,141343,10689,-0.042,-0.992,-0.004,-0.488,0.122,0.366,126.956
124297,141562,9274,-0.039,-0.98,-0,-0.183,0.244,0.305,126.96
124297,141340,10678,-0.044,-0.973,-0.001,-0.183,0.244,0.305,126.966
124277,141306,9274,-0.048,-0.976,-0.002,-0.976,0.732,0.671,126.969
124277,141311,10692,-0.05,-0.983,-0.002,-0.976,0.732,0.671,126.976
124318,141562,9274,-0.046,-0.99,0,-0.488,0.305,0.549,126.979
124318,141321,10685,-0.043,-0.99,0.002,-0.488,0.305,0.549,126.986
124277,141562,9274,-0.046,-0.987,0.002,-1.341,-0.122,0.305,126.989
124277,141313,10684,-0.05,-0.987,-0.013,-1.341,-0.122,0.305,126.995
124272,141562,9274,-0.051,-0.991,-0.017,-0.61,0.122,0.305,126.999
124272,141314,10673,-0.046,-0.994,-0.014,-0.61,0.122,0.305,127.005
124266,141562,9274,-0.044,-0.99,-0.016,0.915,0,0.122,127.009
124266,141315,10683,-0.044,-0.983,-0.015,0.915,0,0.122,127.015
124289,141562,9274,-0.042,-0.977,-0.008,-0.061,0.366,0.061,127.019
124289,141347,10681,-0.043,-0.974,-0.005,-0.061,0.366,0.061,127.025
124304,141562,9274,-0.046,-0.978,-0.008,-0.61,0.61,0.549,127.029
124304,141346,10680,-0.044,-0.984,-0.007,-0.61,0.61,0.549,127.035
124302,141562,9274,-0.046,-0.987,-0.012,-0.915,0.366,0.366,127.039
124302,141344,10687,-0.05,-0.989,-0.008,-0.915,0.366,0.366,127.045
124267,141562,9274,-0.047,-0.99,-0.005,-0.305,0.244,0.122,127.049
124267,141336,10684,-0.045,-0.985,-0.001,-0.305,0.244,0.122,127.055
124262,141562,9274,-0.044,-0.978,0.003,-0.244,0.244,0.488,127.059
124262,141329,10689,-0.046,-0.98,-0.003,-0.244,0.244,0.488,127.065
124250,141306,9274,-0.047,-0.986,-0.005,-0.854,0.366,0.366,127.068
124250,141311,10674,-0.049,-0.994,0.007,-0.854,0.366,0.366,127.075
124255,141562,9274,-0.049,-0.992,0.003,-0.915,0.305,0.244,127.078
124255,141345,10679,-0.048,-0.984,-0.008,-0.915,0.305,0.244,127.085
