124177,141306,9274,-0.046,-0.995,-0.018,-0.488,0.427,0.122,130.207
124177,141293,10672,-0.043,-0.985,-0.015,-0.183,0,0.122,130.213
124200,141306,9274,-0.04,-0.977,-0.013,-0.183,0,0.122,130.217
124200,141273,10651,-0.04,-0.977,0,-0.122,0.244,0.61,130.223
124181,141306,9274,-0.042,-0.977,0.01,-0.122,0.244,0.61,130.227
124181,141255,10673,-0.051,-0.98,0.008,-0.427,0.915,0.732,130.233
124177,141306,9274,-0.057,-0.984,-0.002,-0.427,0.915,0.732,130.237
124177,141272,10665,-0.054,-0.993,-0.002,-1.768,0.793,0.61,130.243
124205,141306,9274,-0.05,-0.996,0.003,-1.768,0.793,0.61,130.247
124205,141293,10663,-0.047,-0.995,0.003,-1.098,-0.244,0.488,130.253
124158,141306,9274,-0.044,-0.991,-0.006,-1.098,-0.244,0.488,130.257
124158,141255,10669,-0.038,-0.986,-0.005,-0.122,-0.305,0.244,130.263
124182,141306,9274,-0.043,-0.983,-0.01,-0.122,-0.305,0.244,130.266
124182,141250,10667,-0.045,-0.977,-0.016,0.732,0.305,0.305,130.273
124189,141306,9274,-0.043,-0.978,-0.016,0.732,0.305,0.305,130.276
124189,141285,10678,-0.044,-0.98,-0.012,0.488,0.427,0.305,130.283
124185,141306,9274,-0.045,-0.978,-0.016,0.488,0.427,0.305,130.286
124185,141253,10660,-0.04,-0.975,-0.022,-0.549,0.244,0.427,130.292
124172,141306,9274,-0.04,-0.975,-0.022,-0.549,0.244,0.427,130.296
124172,141276,10660,-0.043,-0.992,-0.006,-0.427,0.244,0.488,130.302
124203,141306,9274,-0.043,-0.992,-0.006,-0.427,0.244,0.488,130.306
124203,141306,10678,-0.045,-0.984,0.003,-0.366,0.732,0.488,130.312
124192,141306,9274,-0.045,-0.984,0.003,-0.366,0.732,0.488,130.316
124192,141281,10658,-0.049,-0.98,-0.005,-0.732,1.159,0.915,130.322
124166,141306,9274,-0.049,-0.98,-0.005,-0.732,1.159,0.915,130.326
124166,141283,10662,-0.049,-0.992,-0.002,-0.549,0.793,0.793,130.332
124169,141306,9274,-0.049,-0.992,-0.002,-0.549,0.793,0.793,130.336
124169,141265,10652,-0.043,-0.982,0.009,-0.671,0.732,0.671,130.342
124159,141306,9274,-0.043,-0.982,0.009,-0.671,0.732,0.671,130.346
124159,141243,10662,-0.054,-0.986,-0.011,-0.549,1.037,0.915,130.352
124149,141306,9274,-0.054,-0.986,-0.011,-0.549,1.037,0.915,130.356
124149,141228,10665,-0.049,-0.991,0.001,0.915,0.61,0.488,130.362
124150,141306,9274,-0.049,-0.991,0.001,0.915,0.61,0.488,130.365
124150,141262,10659,-0.05,-0.972,-0.02,0.183,0.549,0.427,130.372
124157,141306,9274,-0.05,-0.972,-0.02,0.183,0.549,0.427,130.375
124157,141260,10672,-0.054,-0.994,-0.002,0.366,0.61,0.732,130.382
124161,141306,9274,-0.054,-0.994,-0.002,0.366,0.61,0.732,130.385
124161,141251,10644,-0.056,-0.983,-0.001,-0.488,0.549,0.488,130.391
124127,141306,9274,-0.056,-0.983,-0.001,-0.488,0.549,0.488,130.395
124127,141217,10663,-0.053,-0.986,0.006,-1.098,0.244,0.61,130.401
124144,141306,9274,-0.053,-0.986,0.006,-1.098,0.244,0.61,130.405
124144,141220,10672,-0.051,-0.989,-0.001,-0.244,-0.122,0.366,130.411
124139,141306,9274,-0.051,-0.989,-0.001,-0.244,-0.122,0.366,130.415
124139,141239,10667,-0.046,-0.984,0.004,-1.098,-0.122,0.061,130.421
124139,141306,9274,-0.046,-0.984,0.004,-1.098,-0.122,0.061,130.425
124139,141209,10663,-0.045,-0.976,-0.009,-1.28,-0.122,0.183,130.431
124139,141306,9274,-0.045,-0.976,-0.009,-1.28,-0.122,0.183,130.435
124139,141218,10661,-0.046,-0.983,-0.012,-1.28,-0.122,0.183,130.441
124168,141306,9274,-0.044,-0.988,-0,-1.159,-0.244,0,130.445
124168,141260,10663,-0.046,-0.989,0.002,-1.159,-0.244,0,130.451
124170,141306,9274,-0.043,-0.983,-0.005,-1.768,-0.366,0,130.455
124170,141268,10670,-0.044,-0.985,-0.006,-1.768,-0.366,0,130.461
124164,141306,9274,-0.043,-0.989,-0.002,-1.951,-0.305,0.122,130.464
124164,141270,10655,-0.046,-0.991,-0.009,-1.951,-0.305,0.122,130.471
124176,141306,9274,-0.047,-0.987,-0.021,-0.671,-0.305,0,130.474
124176,141267,10662,-0.045,-0.986,-0.016,-0.671,-0.305,0,130.48
124194,141306,9274,-0.042,-0.989,-0.008,-0.061,-0.427,0.122,130.484
124194,141285,10667,-0.043,-0.983,-0.005,-0.061,-0.427,0.122,130.49
124185,141306,9274,-0.045,-0.974,-0.009,0,0,0.366,130.494
124185,141264,10668,-0.047,-0.972,-0.026,0,0,0.366,130.5
124191,141306,9274,-0.054,-0.986,-0.021,0,0.427,0.366,130.504
124191,141272,10667,-0.052,-0.999,-0.005,0,0.427,0.366,130.51
124142,141306,9274,-0.05,-0.991,0.007,0.244,0.244,0.305,130.514
124142,141275,10677,-0.05,-0.981,0.001,0.244,0.244,0.305,130.52
124186,141306,9274,-0.054,-0.982,-0.011,-1.768,0.122,0.305,130.524
124186,141278,10654,-0.056,-0.994,-0.019,-1.768,0.122,0.305,130.53
124181,141306,9274,-0.053,-1.002,-0.011,-0.244,0.183,0.244,130.534
124181,141276,10654,-0.049,-0.998,-0.002,-0.244,0.183,0.244,130.54
124153,141306,9274,-0.046,-0.984,0.002,0.061,0,-0.061,130.544
124153,141286,10672,-0.047,-0.973,-0.012,0.061,0,-0.061,130.55
124168,141306,9274,-0.047,-0.974,-0.015,-0.793,0.305,0.183,130.554
124168,141284,10664,-0.05,-0.98,-0.01,-0.793,0.305,0.183,130.56
124166,141306,9274,-0.047,-0.985,-0.013,0.244,0.183,0.061,130.563
124166,141280,10672,-0.045,-0.984,-0.016,0.244,0.183,0.061,130.57
124190,141306,9274,-0.044,-0.981,-0.009,-0.549,0.183,0,130.573
124190,141300,10671,-0.043,-0.975,-0.003,-0.549,0.183,0,130.58
124198,141562,9274,-0.046,-0.976,-0.005,-0.976,0.549,0.488,130.583
124198,141339,10670,-0.043,-0.985,-0.009,-0.976,0.549,0.488,130.589
124181,141306,9274,-0.042,-0.992,0.002,-0.183,0.671,0.366,130.593
124181,141302,10670,-0.045,-0.989,0.001,-0.183,0.671,0.366,130.599
124214,141306,9274,-0.045,-0.98,-0.018,-0.305,0.61,0.122,130.603
124214,141304,10680,-0.045,-0.986,-0.026,-0.305,0.61,0.122,130.609
124203,141306,9274,-0.043,-0.995,-0.021,0.549,0.671,0.366,130.613
124203,141290,10667,-0.04,-0.996,-0.012,0.549,0.671,0.366,130.619
124194,141306,9274,-0.037,-0.987,-0.015,1.646,0.671,0.183,130.623
124194,141274,10678,-0.042,-0.978,-0.012,1.646,0.671,0.183,130.629
124193,141562,9274,-0.042,-0.976,-0.005,0.793,1.159,0.305,130.633
124193,141315,10673,-0.044,-0.98,0.005,0.793,1.159,0.305,130.639
124198,141306,9274,-0.046,-0.981,0.004,0.549,1.28,0.549,130.643
124198,141290,10666,-0.051,-0.988,-0.004,0.549,1.28,0.549,130.649
124206,141306,9274,-0.05,-0.99,-0.007,-0.427,0.976,0.122,130.653
124206,141294,10669,-0.048,-0.991,-0.009,-0.427,0.976,0.122,130.659
124182,141306,9274,-0.042,-0.991,-0.013,-0.427,0.732,-0.061,130.662
124182,141278,10678,-0.04,-0.988,-0.017,-0.427,0.732,-0.061,130.669
124194,141306,9274,-0.042,-0.994,-0.016,0.854,0.671,0.061,130.672
124194,141261,10681,-0.044,-0.988,-0.009,0.854,0.671,0.061,130.678
124208,141306,9274,-0.043,-0.975,-0.008,1.159,0.976,0.244,130.682
124208,141270,10681,-0.048,-0.97,-0.014,1.159,0.976,0.244,130.688
124203,141306,9274,-0.051,-0.977,-0.019,0.488,1.22,0.549,130.692
124203,141294,10668,-0.048,-0.987,-0.015,0.488,1.22,0.549,130.698
124191,141306,9274,-0.042,-0.99,-0.005,0.793,0.732,0.366,130.702
124191,141285,10675,-0.041,-0.981,0.002,0.793,0.732,0.366,130.708
124213,141306,9274,-0.042,-0.978,-0.003,-0.305,0.732,0.427,130.712
124213,141272,10674,-0.044,-0.982,-0.01,-0.305,0.732,0.427,130.718
124192,141306,9274,-0.051,-0.988,-0,-0.427,1.341,0.671,130.722
124192,141292,10671,-0.049,-0.993,0.008,-0.427,1.341,0.671,130.728
124203,141306,9274,-0.045,-0.984,0.002,-0.854,1.22,0.366,130.732
124203,141285,10682,-0.048,-0.981,-0.008,-0.854,1.22,0.366,130.738
124221,141306,9274,-0.047,-0.99,0.006,-1.585,0.976,0.366,130.742
124221,141286,10687,-0.047,-0.993,0.015,-1.585,0.976,0.366,130.748
124232,141562,9274,-0.047,-0.99,0.004,-0.793,0.854,0.366,130.752
124232,141320,10682,-0.05,-0.984,-0,-0.793,0.854,0.366,130.758
124246,141306,9274,-0.052,-0.984,-0.007,-0.915,0.854,0.244,130.761
124246,141311,10676,-0.051,-0.987,-0.007,-0.915,0.854,0.244,130.768
124235,141562,9274,-0.05,-0.987,-0.003,0.61,0.427,0.244,130.771
124235,141312,10673,-0.046,-0.981,-0.006,0.61,0.427,0.244,130.778
124255,141562,9274,-0.041,-0.971,-0.004,0.366,0.366,0.244,130.781
124255,141345,10675,-0.047,-0.967,-0.002,0.366,0.366,0.244,130.787
124261,141562,9274,-0.048,-0.974,0.001,-0.427,0.732,0.549,130.791
124261,141327,10689,-0.05,-0.984,0.006,-0.427,0.732,0.549,130.797
124238,141562,9274,-0.052,-0.986,0.007,-0.976,0.549,0.488,130.801
124238,141319,10681,-0.053,-0.989,0.003,-0.976,0.549,0.488,130.807
124271,141562,9274,-0.052,-0.991,-0.004,-1.585,0.183,0.244,130.811
124271,141350,10672,-0.049,-0.996,-0.004,-1.585,0.183,0.244,130.817
124243,141562,9274,-0.048,-0.995,-0.004,-0.366,0.061,0.244,130.821
124243,141344,10672,-0.047,-0.99,-0.007,-0.366,0.061,0.244,130.827
124236,141562,9274,-0.048,-0.982,-0.004,0.549,0.122,0.061,130.831
124236,141330,10675,-0.053,-0.979,-0.009,0.549,0.122,0.061,130.837
124247,141562,9274,-0.052,-0.98,-0.012,0.305,0.488,0,130.841
124247,141361,10683,-0.052,-0.981,-0.014,0.305,0.488,0,130.847
124259,141562,9274,-0.05,-0.986,-0.019,-0.122,0.122,0,130.851
124259,141344,10682,-0.047,-0.986,-0.014,-0.122,0.122,0,130.857
124231,141562,9274,-0.044,-0.985,-0.012,0.122,0.061,-0.061,130.86
124231,141335,10674,-0.039,-0.98,-0.01,0.122,0.061,-0.061,130.867
124240,141562,9274,-0.044,-0.972,-0.011,0.244,0.549,0.122,130.87
124240,141319,10677,-0.045,-0.971,-0.006,0.244,0.549,0.122,130.877
124215,141306,9274,-0.049,-0.975,0.007,0,0.793,0.488,130.88
124215,141308,10683,-0.049,-0.98,-0.002,0,0.793,0.488,130.886
124227,141562,9274,-0.049,-0.98,-0.002,0,0.793,0.488,130.89
124227,141321,10687,-0.053,-0.999,-0.012,-1.098,0.732,0.732,130.896
124212,141562,9274,-0.053,-0.999,-0.012,-1.098,0.732,0.732,130.9
124212,141327,10662,-0.042,-0.996,0.008,0,0.122,0.549,130.906
124204,141306,9274,-0.042,-0.996,0.008,0,0.122,0.549,130.91
124204,141303,10677,-0.044,-0.968,-0.005,0.61,0.061,0.427,130.916
124219,141306,9274,-0.044,-0.968,-0.005,0.61,0.061,0.427,130.92
124219,141289,10660,-0.053,-0.994,-0.009,-0.061,0.854,0.549,130.926
124205,141562,9274,-0.053,-0.994,-0.009,-0.061,0.854,0.549,130.93
124205,141314,10666,-0.046,-0.996,-0.009,0.122,0.488,0.244,130.936
124215,141306,9274,-0.046,-0.996,-0.009,0.122,0.488,0.244,130.94
124215,141310,10666,-0.04,-0.986,-0.01,-0.671,-0.366,0,130.946
124239,141562,9274,-0.04,-0.986,-0.01,-0.671,-0.366,0,130.95
124239,141324,10661,-0.043,-0.982,-0.001,0.122,0.549,0.122,130.956
124216,141306,9274,-0.043,-0.982,-0.001,0.122,0.549,0.122,130.959
124216,141290,10665,-0.044,-0.977,-0.006,0.671,0.976,0,130.966
124196,141306,9274,-0.044,-0.977,-0.006,0.671,0.976,0,130.969
124196,141309,10668,-0.045,-0.975,-0,0,0.915,0.122,130.976
124218,141306,9274,-0.045,-0.975,-0,0,0.915,0.122,130.979
124218,141291,10678,-0.043,-0.978,-0.002,-0.671,0.793,0.183,130.985
124204,141306,9274,-0.043,-0.978,-0.002,-0.671,0.793,0.183,130.989
124204,141302,10677,-0.042,-0.984,-0.02,-0.793,0.549,0.366,130.995
124213,141306,9274,-0.042,-0.984,-0.02,-0.793,0.549,0.366,130.999
124213,141300,10685,-0.042,-0.999,-0.003,0,0.427,0.549,131.005
124204,141306,9274,-0.042,-0.999,-0.003,0,0.427,0.549,131.009
124204,141286,10673,-0.038,-0.975,0.024,0.976,0.732,0.671,131.015
124213,141306,9274,-0.038,-0.975,0.024,0.976,0.732,0.671,131.019
124213,141282,10672,-0.055,-0.977,-0.016,-0.061,1.22,0.915,131.025
124210,141306,9274,-0.055,-0.977,-0.016,-0.061,1.22,0.915,131.029
124210,141276,10671,-0.059,-1.003,-0.027,-0.061,1.098,0.366,131.035
124184,141306,9274,-0.05,-1.016,-0.015,-0.061,1.098,0.366,131.039
124184,141268,10676,-0.042,-1.005,-0.009,0.854,-0.366,-0.244,131.045
124182,141306,9274,-0.037,-0.982,-0.021,0.854,-0.366,-0.244,131.049
124182,141286,10672,-0.036,-0.97,-0.02,-0.061,0,0.061,131.055
124185,141306,9274,-0.039,-0.973,-0.015,-0.061,0,0.061,131.058
124185,141262,10667,-0.043,-0.982,-0.009,0.976,1.098,0.427,131.065
124167,141306,9274,-0.044,-0.979,-0,0.976,1.098,0.427,131.068
124167,141249,10681,-0.046,-0.971,-0,-0.793,1.28,0.305,131.075
124174,141306,9274,-0.047,-0.974,-0.007,-0.793,1.28,0.305,131.078
124174,141272,10672,-0.05,-0.983,-0.008,-1.829,0.854,0.671,131.084
124194,141306,9274,-0.045,-0.991,0.006,-1.829,0.854,0.671,131.088
124194,141265,10665,-0.042,-0.987,0.007,-0.061,0.488,0.671,131.094
124195,141306,9274,-0.042,-0.979,-0.006,-0.061,0.488,0.671,131.098
124195,141298,10670,-0.044,-0.975,-0.022,0.061,0.793,0.732,131.104
124214,141306,9274,-0.046,-0.984,-0.023,0.061,0.793,0.732,131.108
124214,141279,10676,-0.05,-0.986,-0.013,1.463,0.915,0.915,131.114
124205,141306,9274,-0.048,-0.982,-0.009,1.463,0.915,0.915,131.118
124205,141300,10665,-0.049,-0.984,-0.006,0.549,0.854,0.915,131.124
124231,141562,9274,-0.051,-0.986,0.003,0.549,0.854,0.915,131.128
124231,141313,10684,-0.052,-0.991,0.001,-0.915,1.037,1.098,131.134
124243,141562,9274,-0.056,-0.995,-0.006,-0.915,1.037,1.098,131.138
124243,141329,10673,-0.052,-0.998,-0.007,-0.488,0.854,0.671,131.144
124232,141562,9274,-0.049,-1,0.008,-0.488,0.854,0.671,131.148
124232,141326,10675,-0.048,-0.989,0.018,0.244,0.305,0.183,131.154
124224,141306,9274,-0.05,-0.975,0.001,0.244,0.305,0.183,131.157
124224,141311,10683,-0.053,-0.971,-0.018,-0.183,0.488,0.183,131.164
124206,141562,9274,-0.052,-0.983,-0.016,-0.183,0.488,0.183,131.167
124206,141337,10676,-0.051,-0.993,-0.012,0.915,-0.061,0.244,131.174
124252,141562,9274,-0.044,-0.99,-0.009,0.915,-0.061,0.244,131.177
124252,141323,10656,-0.039,-0.977,-0.009,0.061,-0.427,0.305,131.183
124193,141306,9274,-0.042,-0.97,-0.007,0.061,-0.427,0.305,131.187
124193,141281,10681,-0.048,-0.976,-0.008,-0.366,0.366,0.732,131.193
124183,141306,9274,-0.05,-0.986,-0.009,-0.366,0.366,0.732,131.197
124183,141289,10669,-0.051,-0.986,-0.002,0.244,0.61,0.732,131.203
124190,141306,9274,-0.044,-0.981,-0.006,0.244,0.61,0.732,131.207
124190,141280,10663,-0.051,-0.984,-0.013,-0.976,0.183,0.61,131.213
124178,141306,9274,-0.049,-0.996,-0.008,-0.976,0.183,0.61,131.217
124178,141285,10669,-0.042,-1,-0.003,-0.061,0.122,0.549,131.223
124163,141306,9274,-0.045,-0.995,0.002,-0.061,0.122,0.549,131.227
124163,141262,10662,-0.047,-0.986,0.005,0.366,0.366,0.305,131.233
124104,141306,9274,-0.047,-0.976,0.009,0.366,0.366,0.305,131.237
124104,141222,10654,-0.049,-0.974,0.003,-0.427,0.671,0.427,131.243
124052,141306,9274,-0.053,-0.988,-0.007,-0.427,0.671,0.427,131.247
124052,141176,10641,-0.053,-0.996,-0.007,0.183,0.366,0.183,131.253
124011,141306,9274,-0.046,-0.992,-0.005,0.183,0.366,0.183,131.256
124011,141159,10644,-0.043,-0.986,-0,0.427,-0.183,-0.061,131.263
123992,141306,9274,-0.039,-0.978,0.013,0.427,-0.183,-0.061,131.266
123992,141128,10621,-0.042,-0.97,0.013,0.061,0.183,0.366,131.273
123992,141306,9274,-0.053,-0.973,-0,0.061,0.183,0.366,131.276
123992,141132,10628,-0.057,-0.982,-0.016,-0.305,0.61,0.427,131.282
123980,141306,9274,-0.054,-0.997,-0.013,-0.305,0.61,0.427,131.286
123980,141123,10630,-0.047,-0.999,-0.01,0,-0.305,0,131.292
123917,141306,9274,-0.04,-0.99,-0.008,0,-0.305,0,131.296
123917,141074,10636,-0.036,-0.982,-0.007,-0.671,-0.549,0.122,131.302
123936,141306,9274,-0.042,-0.98,-0.01,-0.671,-0.549,0.122,131.306
123936,141097,10635,-0.049,-0.985,-0.015,0.183,0.183,0.488,131.312
123970,141306,9274,-0.047,-0.992,-0.017,0.183,0.183,0.488,131.316
123970,141145,10630,-0.048,-0.989,-0.021,1.098,0.305,0.122,131.322
123957,141306,9274,-0.047,-0.985,-0.02,1.098,0.305,0.122,131.326
123957,141147,10639,-0.041,-0.98,-0.01,0.915,0.061,0.305,131.332
123976,141306,9274,-0.039,-0.982,0.006,0.915,0.061,0.305,131.336
123976,141129,10635,-0.042,-0.979,0.008,0.488,0.488,0.488,131.342
123944,141306,9274,-0.05,-0.981,-0.009,0.488,0.488,0.488,131.346
123944,141111,10635,-0.056,-0.985,-0.016,-0.793,0.915,0.366,131.352
123898,141306,9274,-0.053,-0.995,-0.008,-0.793,0.915,0.366,131.355
123898,141086,10625,-0.045,-0.995,-0.002,-0.244,0.427,0.366,131.362
123901,141306,9274,-0.036,-0.987,0.001,-0.244,0.427,0.366,131.365
123901,141082,10625,-0.038,-0.974,0.006,0,0.061,0.427,131.372
123881,141306,9274,-0.043,-0.971,0.004,0,0.061,0.427,131.375
123881,141086,10634,-0.047,-0.976,-0.002,0.061,0.793,0.488,131.381
123911,141306,9274,-0.051,-0.986,-0.015,0.061,0.793,0.488,131.385
123911,141086,10639,-0.049,-0.993,-0.007,0.488,0.61,0.244,131.391
123918,141306,9274,-0.042,-0.993,0.003,0.488,0.61,0.244,131.395
123918,141079,10628,-0.041,-0.978,-0.001,0.305,-0.061,0.183,131.401
123901,141306,9274,-0.039,-0.976,-0.001,0.305,-0.061,0.183,131.405
123901,141069,10630,-0.04,-0.978,0.003,-0.183,0.427,0.488,131.411
123901,141306,9274,-0.047,-0.983,0.005,-0.183,0.427,0.488,131.415
123901,141099,10642,-0.048,-0.981,-0.001,-0.305,0.671,0.366,131.421
123922,141306,9274,-0.051,-0.98,-0.022,-0.305,0.671,0.366,131.425
123922,141116,10617,-0.048,-0.99,-0.026,-0.366,0.122,0.061,131.431
123877,141306,9274,-0.042,-0.993,-0.01,-0.366,0.122,0.061,131.435
123877,141094,10633,-0.042,-0.988,-0.008,0.305,-0.183,0.122,131.441
123941,141306,9274,-0.041,-0.978,-0.01,0.305,-0.183,0.122,131.445
123941,141103,10641,-0.041,-0.974,-0.008,-0.793,0.427,0.305,131.451
123959,141306,9274,-0.048,-0.98,-0.007,-0.793,0.427,0.305,131.454
123959,141138,10632,-0.052,-0.987,-0.016,-0.61,1.037,0.732,131.461
123933,141306,9274,-0.05,-0.988,-0.012,-0.61,1.037,0.732,131.464
123933,141112,10627,-0.047,-0.988,-0.005,-0.427,0.732,0.549,131.471
123917,141306,9274,-0.046,-0.985,0.009,-0.427,0.732,0.549,131.474
123917,141110,10636,-0.047,-0.979,0.008,-0.671,0.61,0.61,131.48
123915,141306,9274,-0.047,-0.979,0.008,-0.671,0.61,0.61,131.484
123915,141098,10620,-0.047,-0.989,0.007,-0.61,0.915,0.61,131.49
123923,141306,9274,-0.047,-0.989,0.007,-0.61,0.915,0.61,131.494
123923,141111,10627,-0.053,-0.992,-0.002,-0.305,0.61,0.549,131.5
123910,141306,9274,-0.053,-0.992,-0.002,-0.305,0.61,0.549,131.504
123910,141112,10636,-0.046,-0.994,-0.008,-0.244,0.061,0.305,131.51
123892,141306,9274,-0.046,-0.994,-0.008,-0.244,0.061,0.305,131.514
123892,141106,10609,-0.04,-0.987,-0.013,0.61,0.183,0.183,131.52
123887,141306,9274,-0.04,-0.987,-0.013,0.61,0.183,0.183,131.524
123887,141097,10629,-0.042,-0.979,-0.013,0.976,0.671,0.244,131.53
123910,141306,9274,-0.042,-0.979,-0.013,0.976,0.671,0.244,131.534
123910,141112,10610,-0.047,-0.986,-0.017,0.854,1.037,0.244,131.54
123876,141306,9274,-0.047,-0.986,-0.017,0.854,1.037,0.244,131.544
123876,141102,10620,-0.041,-0.987,0.014,0.061,0.976,0.183,131.55
123888,141306,9274,-0.041,-0.987,0.014,0.061,0.976,0.183,131.554
123888,141104,10626,-0.045,-0.973,0.003,-1.159,1.037,0.366,131.56
123914,141306,9274,-0.045,-0.973,0.003,-1.159,1.037,0.366,131.563
123914,141124,10642,-0.047,-0.986,0.007,-0.305,1.098,0.427,131.57
123937,141306,9274,-0.047,-0.986,0.007,-0.305,1.098,0.427,131.573
123937,141126,10627,-0.047,-0.987,-0.007,-0.915,0.61,0.122,131.579
123928,141306,9274,-0.047,-0.987,-0.007,-0.915,0.61,0.122,131.583
123928,141136,10630,-0.044,-0.98,-0.002,-0.244,0.183,0.366,131.589
123975,141306,9274,-0.044,-0.98,-0.002,-0.244,0.183,0.366,131.593
123975,141132,10626,-0.046,-0.982,-0.004,0.427,0.427,0.61,131.599
123978,141306,9274,-0.046,-0.982,-0.004,0.427,0.427,0.61,131.603
123978,141155,10633,-0.052,-0.987,-0.011,0.488,0.671,0.488,131.609
123978,141306,9274,-0.052,-0.987,-0.011,0.488,0.671,0.488,131.613
123978,141127,10623,-0.05,-0.986,-0.001,0.671,0.366,0.549,131.619
123983,141306,9274,-0.05,-0.986,-0.001,0.671,0.366,0.549,131.623
123983,141146,10632,-0.046,-0.986,0.008,0.671,0.366,0.549,131.629
123985,141306,9274,-0.049,-0.984,0.005,0.061,0.305,0.671,131.633
123985,141168,10634,-0.05,-0.982,-0.011,0.061,0.305,0.671,131.639
123980,141306,9274,-0.052,-0.991,-0.019,0.305,0.61,0.427,131.643
123980,141148,10627,-0.05,-0.998,-0.011,0.305,0.61,0.427,131.649
123948,141306,9274,-0.043,-0.99,0.002,1.098,0.488,0.183,131.653
123948,141142,10634,-0.045,-0.973,0.008,1.098,0.488,0.183,131.659
123953,141306,9274,-0.047,-0.971,0.007,-0.732,0.671,0.427,131.662
123953,141156,10634,-0.048,-0.977,0.003,-0.732,0.671,0.427,131.669
123972,141306,9274,-0.051,-0.986,-0.001,-0.732,0.854,0.305,131.672
123972,141140,10633,-0.047,-0.991,0.001,-0.732,0.854,0.305,131.678
123968,141306,9274,-0.046,-0.99,0,-0.488,0.244,0.061,131.682
123968,141154,10646,-0.047,-0.987,-0.004,-0.488,0.244,0.061,131.688
123943,141306,9274,-0.043,-0.984,-0.006,-0.183,-0.122,0.366,131.692
123943,141148,10630,-0.041,-0.98,-0.008,-0.183,-0.122,0.366,131.698
123977,141306,9274,-0.048,-0.982,-0.001,0.793,0.305,0.488,131.702
123977,141182,10639,-0.049,-0.983,0.006,0.793,0.305,0.488,131.708
124028,141306,9274,-0.049,-0.977,-0.002,0.427,0.427,0.549,131.712
124028,141198,10643,-0.052,-0.977,-0.018,0.427,0.427,0.549,131.718
124042,141306,9274,-0.052,-0.991,-0.019,0,0.061,0.488,131.722
124042,141219,10638,-0.048,-1.002,-0.006,0,0.061,0.488,131.728
124037,141306,9274,-0.044,-0.995,-0.003,1.159,0,0.305,131.732
124037,141208,10638,-0.044,-0.985,-0.009,1.159,0,0.305,131.738
124042,141306,9274,-0.048,-0.977,-0.009,0.183,0.549,0.305,131.742
124042,141225,10663,-0.049,-0.98,-0.007,0.183,0.549,0.305,131.748
124025,141306,9274,-0.048,-0.986,-0.005,0.915,0.854,0.549,131.752
124025,141196,10638,-0.046,-0.985,-0.003,0.915,0.854,0.549,131.758
124015,141306,9274,-0.045,-0.985,-0.001,0.061,0.61,0.305,131.761
124015,141165,10650,-0.046,-0.983,0.001,0.061,0.61,0.305,131.768
124011,141306,9274,-0.047,-0.986,-0,-0.976,0.488,0.427,131.771
124011,141171,10633,-0.048,-0.99,0,-0.976,0.488,0.427,131.778
123990,141306,9274,-0.044,-0.991,0.005,-0.366,0.549,0.305,131.781
123990,141172,10649,-0.046,-0.989,0.009,-0.366,0.549,0.305,131.787
123979,141306,9274,-0.048,-0.987,0.007,-0.488,0.488,0.183,131.791
123979,141163,10635,-0.05,-0.983,-0.003,-0.488,0.488,0.183,131.797
123983,141306,9274,-0.051,-0.981,-0.012,-0.366,0.427,0.122,131.801
123983,141141,10627,-0.049,-0.987,-0.015,-0.366,0.427,0.122,131.807
123938,141306,9274,-0.047,-0.991,-0.009,0.549,0.183,0.061,131.811
123938,141110,10624,-0.041,-0.984,-0.006,0.549,0.183,0.061,131.817
123905,141306,9274,-0.039,-0.976,-0.002,0.427,0.183,-0.061,131.821
123905,141105,10622,-0.045,-0.97,-0.012,0.427,0.183,-0.061,131.827
123860,141050,9274,-0.049,-0.979,-0.02,-0.366,1.037,0.305,131.831
123860,141052,10595,-0.048,-0.989,-0.02,-0.366,1.037,0.305,131.837
123825,141050,9274,-0.046,-0.994,-0.011,0.122,0.793,0.305,131.841
123825,141027,10611,-0.039,-0.989,-0.007,0.122,0.793,0.305,131.847
123823,141050,9274,-0.038,-0.981,-0.005,0.122,0.61,0.305,131.851
123823,141018,10619,-0.04,-0.979,-0.004,0.122,0.61,0.305,131.857
123809,141050,9274,-0.042,-0.98,-0.005,0.854,1.159,0.549,131.86
123809,141041,10610,-0.044,-0.981,-0.005,0.854,1.159,0.549,131.867
123805,141050,9274,-0.043,-0.981,-0,1.037,1.341,0.427,131.87
123805,141031,10617,-0.046,-0.981,0,1.037,1.341,0.427,131.877
123814,141306,9274,-0.046,-0.99,0.009,-0.061,0.976,0.427,131.88
123814,141061,10604,-0.042,-0.987,0.009,-0.061,0.976,0.427,131.886
123832,141306,9274,-0.044,-0.985,0.004,-0.854,0.976,0.488,131.89
123832,141062,10615,-0.044,-0.985,0.002,-0.854,0.976,0.488,131.896
123850,141306,9274,-0.048,-0.989,-0.003,-0.549,1.159,0.549,131.9
123850,141069,10610,-0.05,-0.992,0.004,-0.549,1.159,0.549,131.906
123823,141306,9274,-0.045,-0.99,0.011,0.427,1.037,0.427,131.91
123823,141057,10630,-0.045,-0.975,0.005,0.427,1.037,0.427,131.916
123874,141306,9274,-0.048,-0.975,0.001,-0.061,1.037,0.488,131.92
123874,141060,10589,-0.048,-0.983,0,-0.061,1.037,0.488,131.926
123883,141306,9274,-0.053,-0.991,0,0.61,1.098,0.61,131.93
123883,141067,10617,-0.05,-0.99,-0.007,0.61,1.098,0.61,131.936
123835,141050,9274,-0.049,-0.984,-0.004,0.549,0.793,0.366,131.94
123835,141027,10617,-0.051,-0.982,-0.003,0.549,0.793,0.366,131.946
123863,141050,9274,-0.053,-0.982,0.001,0.549,1.037,0.671,131.95
123863,141047,10616,-0.056,-0.985,0.005,0.549,1.037,0.671,131.956
123848,141306,9274,-0.056,-0.986,0.005,0.793,0.976,0.671,131.959
123848,141065,10634,-0.052,-0.985,0.004,0.793,0.976,0.671,131.966
123864,141306,9274,-0.052,-0.984,0.007,-0.061,0.671,0.549,131.969
123864,141072,10620,-0.047,-0.979,0.011,-0.061,0.671,0.549,131.976
123855,141306,9274,-0.051,-0.979,0.003,-0.61,0.549,0.671,131.979
123855,141065,10616,-0.051,-0.984,-0.004,-0.61,0.549,0.671,131.985
123852,141050,9274,-0.05,-0.993,0.003,-0.854,0.488,0.366,131.989
123852,141027,10619,-0.047,-0.994,0.003,-0.854,0.488,0.366,131.995
123888,141306,9274,-0.045,-0.988,-0.001,-0.732,0.183,0.366,131.999
123888,141080,10618,-0.049,-0.981,-0.012,-0.732,0.183,0.366,132.005
123903,141306,9274,-0.05,-0.988,-0.012,0,0,0.488,132.009
123903,141079,10619,-0.047,-0.994,-0.006,0,0,0.488,132.015
123902,141306,9274,-0.044,-0.989,-0.007,0.854,0,0.183,132.019
123902,141070,10608,-0.044,-0.984,0.002,0.854,0,0.183,132.025
123897,141306,9274,-0.048,-0.981,0.008,-0.061,0.305,0.183,132.029
123897,141076,10648,-0.048,-0.978,-0,-0.061,0.305,0.183,132.035
123917,141306,9274,-0.05,-0.982,-0.002,-0.488,0.488,0.305,132.039
123917,141088,10632,-0.046,-0.988,0.004,-0.488,0.488,0.305,132.045
123920,141306,9274,-0.044,-0.985,0,-0.244,0.061,0.183,132.049
123920,141090,10627,-0.044,-0.981,-0.007,-0.244,0.061,0.183,132.055
123939,141306,9274,-0.047,-0.982,-0.004,-0.671,0.061,0.183,132.058
123939,141087,10626,-0.047,-0.984,0.005,-0.671,0.061,0.183,132.065
123922,141306,9274,-0.051,-0.986,0,-0.732,0.305,0.366,132.068
123922,141099,10640,-0.049,-0.986,-0.003,-0.732,0.305,0.366,132.075
123940,141306,9274,-0.049,-0.986,-0.003,-0.732,0.305,0.366,132.078
123940,141114,10634,-0.047,-0.987,-0.003,-0.488,0.305,0.305,132.084
123950,141306,9274,-0.047,-0.987,-0.003,-0.488,0.305,0.305,132.088
123950,141142,10635,-0.047,-0.987,-0.008,0.122,0.183,0.244,132.094
123962,141306,9274,-0.047,-0.987,-0.008,0.122,0.183,0.244,132.098
123962,141146,10637,-0.047,-0.989,-0.005,0.366,0.244,0.366,132.104
123995,141306,9274,-0.047,-0.989,-0.005,0.366,0.244,0.366,132.108
123995,141157,10638,-0.047,-0.983,-0.008,0.488,0.244,0.305,132.114
124026,141306,9274,-0.047,-0.983,-0.008,0.488,0.244,0.305,132.118
124026,141201,10659,-0.046,-0.988,-0,0.183,0.305,0.244,132.124
124038,141306,9274,-0.046,-0.988,-0,0.183,0.305,0.244,132.128
124038,141188,10648,-0.047,-0.98,0.001,0.305,0.366,0.366,132.134
124032,141306,9274,-0.047,-0.98,0.001,0.305,0.366,0.366,132.138
124032,141175,10636,-0.047,-0.984,-0.012,-0.183,0.488,0.366,132.144
124055,141306,9274,-0.047,-0.984,-0.012,-0.183,0.488,0.366,132.148
124055,141200,10640,-0.043,-0.989,0,0.061,0.488,0.305,132.154
124035,141306,9274,-0.043,-0.989,0,0.061,0.488,0.305,132.157
124035,141188,10658,-0.045,-0.977,0,-0.244,0.366,0.183,132.164
124035,141306,9274,-0.045,-0.977,0,-0.244,0.366,0.183,132.167
124035,141182,10656,-0.049,-0.987,-0.003,-0.793,0.61,0.366,132.174
124010,141306,9274,-0.049,-0.987,-0.003,-0.793,0.61,0.366,132.177
124010,141193,10650,-0.043,-0.992,0,0,0.61,0.305,132.183
123996,141306,9274,-0.043,-0.992,0,0,0.61,0.305,132.187
123996,141159,10656,-0.041,-0.977,0.003,-0.122,0.427,0.244,132.193
123952,141306,9274,-0.041,-0.977,0.003,-0.122,0.427,0.244,132.197
123952,141133,10636,-0.042,-0.984,0.004,-0.183,0.61,0.427,132.203
123958,141306,9274,-0.042,-0.984,0.004,-0.183,0.61,0.427,132.207
123958,141142,10630,-0.044,-0.982,0.002,0.549,0.793,0.244,132.213
123940,141306,9274,-0.044,-0.982,0.002,0.549,0.793,0.244,132.217
123940,141108,10634,-0.046,-0.977,0.002,-0.305,0.488,0.305,132.223
123926,141306,9274,-0.045,-0.983,-0.007,-0.305,0.488,0.305,132.227
123926,141095,10623,-0.043,-0.991,-0.006,-0.061,0.183,0.61,132.233
123905,141306,9274,-0.044,-0.994,0.002,-0.061,0.183,0.61,132.237
123905,141079,10625,-0.045,-0.988,0,0.427,0.305,0.366,132.243
123909,141306,9274,-0.046,-0.982,-0.004,0.427,0.305,0.366,132.247
123909,141086,10620,-0.047,-0.978,0.004,0.366,0.671,0.488,132.253
123904,141306,9274,-0.048,-0.979,0.001,0.366,0.671,0.488,132.256
123904,141078,10617,-0.049,-0.983,-0.006,0,0.671,0.549,132.263
123918,141306,9274,-0.049,-0.99,-0.007,0,0.671,0.549,132.266
123918,141096,10622,-0.05,-0.995,-0.006,0.244,0.488,0.244,132.273
123903,141306,9274,-0.049,-0.991,-0.005,0.244,0.488,0.244,132.276
123903,141092,10627,-0.044,-0.984,0.004,0.366,0.549,0.244,132.282
123928,141306,9274,-0.041,-0.976,0.005,0.366,0.549,0.244,132.286
123928,141102,10637,-0.047,-0.971,0.002,0,0.854,0.61,132.292
123964,141306,9274,-0.051,-0.977,-0.006,0,0.854,0.61,132.296
123964,141116,10625,-0.05,-0.991,-0.004,-0.244,0.854,0.427,132.302
123924,141306,9274,-0.047,-0.996,0.003,-0.244,0.854,0.427,132.306
123924,141113,10636,-0.046,-0.99,0,-0.793,0.183,0.305,132.312
123957,141306,9274,-0.042,-0.984,-0.001,-0.793,0.183,0.305,132.316
123957,141142,10614,-0.044,-0.984,0.003,-0.976,0.305,0.488,132.322
123934,141306,9274,-0.044,-0.986,0.008,-0.976,0.305,0.488,132.326
123934,141127,10628,-0.046,-0.992,0.019,0.244,0.671,0.671,132.332
123945,141306,9274,-0.047,-0.984,0.027,0.244,0.671,0.671,132.336
123945,141133,10610,-0.053,-0.971,0.013,-0.732,0.549,0.549,132.342
123941,141306,9274,-0.054,-0.975,-0.012,-0.732,0.549,0.549,132.346
123941,141105,10619,-0.052,-0.991,-0.016,-1.037,-0.061,0.427,132.352
123943,141306,9274,-0.048,-1.003,-0.006,-1.037,-0.061,0.427,132.355
123943,141096,10615,-0.04,-0.999,-0.003,0.732,-0.671,0.122,132.362
123955,141306,9274,-0.039,-0.98,-0.005,0.732,-0.671,0.122,132.365
123955,141120,10622,-0.042,-0.967,-0.009,-0.366,0,0.366,132.372
123957,141306,9274,-0.047,-0.973,-0.008,-0.366,0,0.366,132.375
123957,141134,10624,-0.053,-0.986,-0.006,-0.305,0.854,0.61,132.381
123947,141306,9274,-0.05,-0.99,-0.004,-0.305,0.854,0.61,132.385
123947,141124,10632,-0.047,-0.987,-0.004,-1.098,0.549,0.305,132.391
123964,141306,9274,-0.044,-0.983,0.001,-1.098,0.549,0.305,132.395
123964,141123,10635,-0.046,-0.988,0.017,-1.341,0.305,0.549,132.401
123952,141306,9274,-0.05,-0.984,0.023,-1.341,0.305,0.549,132.405
123952,141120,10617,-0.056,-0.973,0.007,-1.159,0.793,0.488,132.411
123954,141306,9274,-0.058,-0.979,-0.014,-1.159,0.793,0.488,132.415
123954,141101,10632,-0.056,-0.995,-0.019,-0.244,0.366,0.183,132.421
123987,141306,9274,-0.05,-1.004,-0.004,-0.244,0.366,0.183,132.425
123987,141127,10643,-0.041,-0.993,0.007,0.305,-0.671,-0.061,132.431
123971,141306,9274,-0.039,-0.976,0.016,0.305,-0.671,-0.061,132.435
123971,141162,10632,-0.044,-0.967,0.008,-1.829,0,0.366,132.441
123979,141306,9274,-0.053,-0.979,-0.006,-1.829,0,0.366,132.445
123979,141132,10641,-0.056,-0.997,-0.007,-0.793,0.61,0.427,132.451
124001,141306,9274,-0.053,-1.004,0.006,-0.793,0.61,0.427,132.454
124001,141161,10637,-0.045,-0.995,0.011,-0.305,-0.244,-0.122,132.461
123999,141306,9274,-0.043,-0.982,0.005,-0.305,-0.244,-0.122,132.464
123999,141137,10625,-0.044,-0.976,-0.004,-1.037,0.122,0.061,132.471
123992,141306,9274,-0.048,-0.986,-0,-1.037,0.122,0.061,132.474
123992,141135,10630,-0.051,-0.99,-0.009,0.488,0.976,0.366,132.48
123989,141306,9274,-0.048,-0.993,-0.006,0.488,0.976,0.366,132.484
123989,141176,10629,-0.048,-0.987,-0.01,-0.061,1.037,0.244,132.49
123995,141306,9274,-0.048,-0.982,-0.02,-0.061,1.037,0.244,132.494
123995,141151,10636,-0.046,-0.983,-0.014,0.244,0.854,0.61,132.5
123988,141306,9274,-0.046,-0.983,-0.017,0.244,0.854,0.61,132.504
123988,141165,10640,-0.044,-0.98,-0.019,1.524,0.854,0.61,132.51
124009,141306,9274,-0.045,-0.978,-0.02,1.524,0.854,0.61,132.514
124009,141167,10638,-0.044,-0.984,-0.019,1.159,0.976,0.671,132.52
123991,141306,9274,-0.047,-0.985,-0.019,1.159,0.976,0.671,132.524
123991,141181,10624,-0.047,-0.988,-0.01,1.22,1.159,0.671,132.53
123998,141306,9274,-0.047,-0.986,0.009,1.22,1.159,0.671,132.534
123998,141152,10635,-0.048,-0.981,0.019,0.366,1.22,0.61,132.54
124023,141306,9274,-0.047,-0.975,0.011,0.366,1.22,0.61,132.544
124023,141165,10650,-0.049,-0.981,0.008,-0.854,1.22,0.732,132.55
124025,141306,9274,-0.047,-0.988,0.006,-0.854,1.22,0.732,132.554
124025,141189,10652,-0.046,-0.995,0.011,-0.183,0.427,0.427,132.56
124009,141306,9274,-0.041,-0.993,0.014,-0.183,0.427,0.427,132.563
124009,141165,10633,-0.039,-0.981,0.02,0,-0.244,0.366,132.57
124022,141306,9274,-0.04,-0.971,0.008,0,-0.244,0.366,132.573
124022,141183,10650,-0.045,-0.977,-0.012,-0.61,-0.061,0.61,132.579
124030,141306,9274,-0.05,-0.993,-0.011,-0.61,-0.061,0.61,132.583
124030,141198,10643,-0.049,-1.002,-0,0.366,-0.122,0.122,132.589
124032,141306,9274,-0.047,-0.997,-0.009,0.366,-0.122,0.122,132.593
124032,141193,10638,-0.044,-0.989,-0.018,-0.488,-0.244,0,132.599
124022,141306,9274,-0.042,-0.986,-0.008,-0.488,-0.244,0,132.603
124022,141168,10653,-0.046,-0.979,-0.007,-0.305,0.305,0.305,132.609
123969,141306,9274,-0.049,-0.983,-0.017,-0.305,0.305,0.305,132.613
123969,141157,10630,-0.052,-0.987,-0.008,-0.366,1.037,0.122,132.619
123990,141306,9274,-0.052,-0.985,-0.003,-0.366,1.037,0.122,132.623
123990,141176,10625,-0.052,-0.981,-0.002,-0.549,1.159,0.122,132.629
124055,141306,9274,-0.049,-0.981,0.005,-0.549,1.159,0.122,132.633
124055,141207,10643,-0.046,-0.979,0.011,-0.305,0.915,0.366,132.639
124051,141306,9274,-0.041,-0.973,0.004,-0.305,0.915,0.366,132.643
124051,141181,10642,-0.045,-0.975,0.001,-0.183,0.854,0.549,132.649
124029,141306,9274,-0.05,-0.979,-0.001,-0.183,0.854,0.549,132.652
124029,141172,10643,-0.049,-0.985,0.002,0.305,0.549,0.61,132.659
124057,141306,9274,-0.048,-0.986,0.008,0.305,0.549,0.61,132.662
124057,141194,10631,-0.047,-0.981,0.008,-0.244,0.122,0.793,132.669
124044,141306,9274,-0.047,-0.981,0.008,-0.244,0.122,0.793,132.672
124044,141194,10635,-0.041,-0.981,0.01,-1.159,0.244,0.976,132.678
124014,141306,9274,-0.041,-0.981,0.01,-1.159,0.244,0.976,132.682
124014,141149,10640,-0.05,-0.996,-0.002,-0.671,0.122,0.671,132.688
123998,141306,9274,-0.05,-0.996,-0.002,-0.671,0.122,0.671,132.692
123998,141164,10637,-0.047,-0.999,-0.003,0.488,-0.305,0.183,132.698
124052,141306,9274,-0.047,-0.999,-0.003,0.488,-0.305,0.183,132.702
124052,141184,10646,-0.045,-0.982,0.004,0.61,-0.061,0.183,132.708
124008,141306,9274,-0.045,-0.982,0.004,0.61,-0.061,0.183,132.712
124008,141158,10646,-0.049,-0.975,-0.004,-0.305,0.671,0.427,132.718
123995,141306,9274,-0.049,-0.975,-0.004,-0.305,0.671,0.427,132.722
123995,141146,10640,-0.05,-0.989,-0.008,-0.732,0.488,0.183,132.728
123963,141306,9274,-0.05,-0.989,-0.008,-0.732,0.488,0.183,132.732
123963,141138,10620,-0.048,-0.982,-0.003,-0.549,0.244,0.183,132.738
123906,141306,9274,-0.048,-0.982,-0.003,-0.549,0.244,0.183,132.742
123906,141070,10616,-0.046,-0.978,0.003,-0.061,0.793,0.671,132.748
123785,141050,9274,-0.046,-0.978,0.003,-0.061,0.793,0.671,132.752
123785,140967,10612,-0.054,-0.975,0.006,-0.122,1.098,0.732,132.758
123675,141050,9274,-0.054,-0.975,0.006,-0.122,1.098,0.732,132.761
123675,140904,10565,-0.056,-0.988,0.007,-0.549,0.671,0.793,132.768
123556,140794,9274,-0.056,-0.988,0.007,-0.549,0.671,0.793,132.771
123556,140798,10552,-0.053,-0.991,-0.003,-1.037,0.183,0.61,132.777
123456,140794,9274,-0.053,-0.991,-0.003,-1.037,0.183,0.61,132.781
123456,140758,10557,-0.05,-0.998,-0.016,-0.488,-0.183,0.366,132.787
123408,140794,9274,-0.05,-0.998,-0.016,-0.488,-0.183,0.366,132.791
123408,140712,10538,-0.046,-0.996,-0.011,0.366,-0.061,0.244,132.797
123406,140794,9274,-0.046,-0.996,-0.011,0.366,-0.061,0.244,132.801
123406,140722,10535,-0.047,-0.98,-0,-0.61,0.366,0.244,132.807
123358,140794,9274,-0.047,-0.98,-0,-0.61,0.366,0.244,132.811
123358,140674,10530,-0.047,-0.979,0.003,-0.61,0.366,0.244,132.817
123344,140794,9274,-0.05,-0.983,-0.002,-1.524,0.366,0.244,132.821
123344,140666,10537,-0.047,-0.986,-0.004,-1.524,0.366,0.244,132.827
123365,140794,9274,-0.045,-0.99,0.003,-1.707,0,0.061,132.831
123365,140675,10545,-0.044,-0.992,0.007,-1.707,0,0.061,132.837
123388,140794,9274,-0.041,-0.985,-0.005,-1.159,-0.122,0,132.841
123388,140722,10542,-0.045,-0.979,-0.01,-1.159,-0.122,0,132.847
123408,140794,9274,-0.043,-0.983,-0.004,0.366,0.183,-0.061,132.85
123408,140737,10540,-0.046,-0.975,0.004,0.366,0.183,-0.061,132.857
123465,140794,9274,-0.049,-0.97,0.006,0.854,0.427,0.183,132.86
123465,140771,10542,-0.052,-0.971,0.006,0.854,0.427,0.183,132.867
123483,140794,9274,-0.053,-0.974,0.004,-1.098,0.488,0.427,132.87
123483,140787,10563,-0.052,-0.981,-0.004,-1.098,0.488,0.427,132.876
123530,141050,9274,-0.05,-0.994,-0.014,-1.524,-0.061,0.427,132.88
123530,140810,10566,-0.048,-1.002,-0.012,-1.524,-0.061,0.427,132.886
123518,141050,9274,-0.047,-1.003,-0.009,-0.854,-0.122,0.244,132.89
123518,140801,10568,-0.044,-0.995,-0.018,-0.854,-0.122,0.244,132.896
123530,141050,9274,-0.041,-0.987,-0.011,0.305,0.061,0.244,132.9
123530,140810,10565,-0.047,-0.982,-0.006,0.305,0.061,0.244,132.906
123526,140794,9274,-0.046,-0.978,-0.002,1.22,0.732,0.366,132.91
123526,140796,10573,-0.047,-0.975,-0.005,1.22,0.732,0.366,132.916
123514,141050,9274,-0.048,-0.977,-0.006,0.671,0.854,0.305,132.92
123514,140813,10559,-0.047,-0.989,0.001,0.671,0.854,0.305,132.926
123519,141050,9274,-0.048,-0.984,0.004,-0.244,0.244,0.305,132.93
123519,140802,10564,-0.048,-0.98,-0.008,-0.244,0.244,0.305,132.936
123530,141050,9274,-0.05,-0.989,-0.006,-0.793,0.183,0.61,132.94
123530,140802,10587,-0.046,-0.992,0.009,-0.793,0.183,0.61,132.946
123560,141050,9274,-0.046,-0.989,0.002,0.061,0.183,0.366,132.95
123560,140837,10567,-0.049,-0.981,-0.008,0.061,0.183,0.366,132.956
123558,141050,9274,-0.047,-0.98,-0.005,-0.61,0.427,0.183,132.959
123558,140827,10586,-0.052,-0.989,-0.005,-0.61,0.427,0.183,132.966
123612,141050,9274,-0.047,-0.995,-0.002,0.061,0.244,0.244,132.969
123612,140879,10576,-0.043,-0.988,0.006,0.061,0.244,0.244,132.975
123623,141050,9274,-0.044,-0.977,0.01,-0.427,0.122,0.061,132.979
123623,140917,10595,-0.046,-0.973,0.008,-0.427,0.122,0.061,132.985
123626,141050,9274,-0.049,-0.977,-0.001,-1.22,0.61,0.305,132.989
123626,140916,10581,-0.052,-0.99,-0.012,-1.22,0.61,0.305,132.995
123643,141050,9274,-0.05,-0.995,-0.011,-0.183,0.244,0,132.999
123643,140909,10581,-0.044,-0.995,-0.008,-0.183,0.244,0,133.005
123649,141050,9274,-0.042,-0.98,-0.011,-0.122,-0.061,0.061,133.009
123649,140931,10583,-0.039,-0.976,-0.007,-0.122,-0.061,0.061,133.015
123673,141050,9274,-0.042,-0.981,-0.007,-0.122,0.671,0.61,133.019
123673,140932,10590,-0.047,-0.982,-0.004,-0.122,0.671,0.61,133.025
123658,141050,9274,-0.047,-0.983,-0.004,0.793,1.037,0.61,133.029
123658,140905,10594,-0.05,-0.985,-0.004,0.793,1.037,0.61,133.035
123653,141050,9274,-0.048,-0.987,0.004,0.122,1.037,0.427,133.039
123653,140915,10599,-0.046,-0.989,0.018,0.122,1.037,0.427,133.045
123683,141050,9274,-0.045,-0.986,0.021,-0.427,0.732,0.488,133.048
123683,140927,10588,-0.048,-0.982,0.019,-0.427,0.732,0.488,133.055
123670,141050,9274,-0.051,-0.98,0.01,-1.28,0.793,0.305,133.058
123670,140958,10598,-0.051,-0.987,0.003,-1.28,0.793,0.305,133.065
123721,141050,9274,-0.051,-0.994,0.005,-0.671,0.244,0.061,133.068
123721,140989,10599,-0.051,-0.989,0.003,-0.671,0.244,0.061,133.075
123715,141050,9274,-0.046,-0.982,-0.009,-1.037,-0.366,-0.244,133.078
123715,140951,10587,-0.046,-0.982,-0.009,-1.037,-0.366,-0.244,133.084
123703,141050,9274,-0.045,-0.982,-0,-0.915,-0.488,-0.061,133.088
123703,140953,10597,-0.042,-0.979,-0.009,-0.915,-0.488,-0.061,133.094
123684,141050,9274,-0.042,-0.975,-0.016,-0.244,-0.061,0.244,133.098
123684,140932,10608,-0.046,-0.981,-0.027,-0.244,-0.061,0.244,133.104
123698,141050,9274,-0.046,-0.991,-0.031,-0.061,0.305,0.488,133.108
123698,140948,10588,-0.045,-0.991,-0.018,-0.061,0.305,0.488,133.114
123711,141050,9274,-0.042,-0.986,-0.003,-0.305,0.488,0.488,133.118
123711,140948,10584,-0.044,-0.977,0.001,-0.305,0.488,0.488,133.124
123710,141050,9274,-0.045,-0.973,-0.01,-0.671,0.793,0.915,133.128
123710,140930,10579,-0.048,-0.984,-0.012,-0.671,0.793,0.915,133.134
123705,141050,9274,-0.052,-0.995,-0.007,-0.122,1.098,0.732,133.138
123705,140934,10588,-0.049,-1,0.006,-0.122,1.098,0.732,133.144
123693,141050,9274,-0.052,-0.991,0.014,-1.037,1.28,0.244,133.148
123693,140908,10579,-0.052,-0.982,0.009,-1.037,1.28,0.244,133.154
123730,141050,9274,-0.049,-0.985,-0.005,-1.402,0.915,0.61,133.157
123730,140980,10597,-0.048,-0.996,-0.007,-1.402,0.915,0.61,133.164
123757,141050,9274,-0.046,-0.995,0.001,0.61,0.732,0.061,133.167
123757,140975,10595,-0.045,-0.983,0.005,0.61,0.732,0.061,133.173
123763,141050,9274,-0.046,-0.974,0.003,-0.183,0.488,0,133.177
123763,141016,10603,-0.047,-0.973,-0.009,-0.183,0.488,0,133.183
123756,141050,9274,-0.045,-0.981,-0.011,-0.61,-0.061,0.549,133.187
123756,140985,10594,-0.042,-0.994,-0.01,-0.61,-0.061,0.549,133.193
123747,141050,9274,-0.041,-0.992,-0.002,0.366,-0.061,0.244,133.197
123747,141013,10586,-0.04,-0.982,0,0.366,-0.061,0.244,133.203
123760,141050,9274,-0.044,-0.97,-0.001,0,0.427,0.61,133.207
123760,140994,10588,-0.048,-0.971,0.009,0,0.427,0.61,133.213
123748,141050,9274,-0.052,-0.985,0.015,-0.061,0.793,0.671,133.217
123748,141007,10599,-0.055,-0.995,0.004,-0.061,0.793,0.671,133.223
123774,141050,9274,-0.052,-0.999,-0.006,-1.037,0.305,0.061,133.227
123774,140998,10587,-0.046,-0.995,-0.007,-1.037,0.305,0.061,133.233
123757,141050,9274,-0.044,-0.993,-0.007,-0.915,-0.244,0.122,133.237
123757,140996,10600,-0.044,-0.988,-0.005,-0.915,-0.244,0.122,133.243
123786,141050,9274,-0.042,-0.986,-0.003,0.122,0.183,0.122,133.247
123786,141017,10608,-0.046,-0.978,-0.014,0.122,0.183,0.122,133.253
123759,141050,9274,-0.045,-0.973,-0.019,0.183,0.671,0.305,133.256
123759,141006,10593,-0.05,-0.977,-0.009,0.183,0.671,0.305,133.263
123753,141050,9274,-0.05,-0.977,-0.009,0.183,0.671,0.305,133.266
123753,141005,10599,-0.045,-0.977,-0.007,0.488,0.366,0.671,133.273
123794,141050,9274,-0.045,-0.977,-0.007,0.488,0.366,0.671,133.276
123794,141033,10608,-0.044,-0.986,-0.005,-0.183,0.244,0.793,133.282
123803,141050,9274,-0.044,-0.986,-0.005,-0.183,0.244,0.793,133.286
123803,141026,10613,-0.053,-0.986,-0.006,-0.244,0.793,0.671,133.292
123795,141050,9274,-0.053,-0.986,-0.006,-0.244,0.793,0.671,133.296
123795,141041,10595,-0.049,-0.989,0.001,0.244,0.976,0.732,133.302
123809,141050,9274,-0.049,-0.989,0.001,0.244,0.976,0.732,133.306
123809,141004,10611,-0.048,-0.983,0.005,0.793,0.732,0.549,133.312
123788,141050,9274,-0.048,-0.983,0.005,0.793,0.732,0.549,133.316
123788,141016,10610,-0.05,-0.982,0.001,0.183,0.732,0.488,133.322
123788,141050,9274,-0.05,-0.982,0.001,0.183,0.732,0.488,133.326
123788,141007,10608,-0.047,-0.994,0.005,-0.366,0.549,0.488,133.332
123770,141050,9274,-0.047,-0.994,0.005,-0.366,0.549,0.488,133.336
123770,140989,10587,-0.043,-0.984,0.001,-0.793,0,0.244,133.342
123781,141050,9274,-0.043,-0.984,0.001,-0.793,0,0.244,133.346
123781,141015,10601,-0.048,-0.984,0.007,-0.854,-0.061,0.305,133.352
123815,141050,9274,-0.048,-0.984,0.007,-0.854,-0.061,0.305,133.355
123815,141010,10609,-0.049,-0.98,0.002,0.305,0.061,0.244,133.362
123824,141050,9274,-0.049,-0.98,0.002,0.305,0.061,0.244,133.365
123824,141042,10609,-0.049,-0.986,-0.008,-0.305,0,0.183,133.372
123854,141050,9274,-0.049,-0.986,-0.008,-0.305,0,0.183,133.375
123854,141051,10603,-0.046,-0.991,-0.018,-0.183,-0.244,0,133.381
123880,141306,9274,-0.046,-0.991,-0.018,-0.183,-0.244,0,133.385
123880,141092,10603,-0.038,-0.986,-0.01,0.366,-0.427,0,133.391
123866,141306,9274,-0.038,-0.986,-0.01,0.366,-0.427,0,133.395
123866,141080,10628,-0.046,-0.976,0.003,0.671,0.244,0.488,133.401
123862,141306,9274,-0.046,-0.976,0.003,0.671,0.244,0.488,133.405
123862,141077,10629,-0.051,-0.975,-0.018,0.061,0.915,0.549,133.411
123904,141306,9274,-0.05,-0.989,-0.014,0.061,0.915,0.549,133.415
123904,141121,10606,-0.045,-0.998,0.009,0.488,0.305,0.305,133.421
123866,141306,9274,-0.042,-0.985,0.008,0.488,0.305,0.305,133.425
123866,141071,10605,-0.044,-0.973,-0.004,-0.732,0.061,0.488,133.431
123863,141306,9274,-0.05,-0.981,-0.007,-0.732,0.061,0.488,133.435
123863,141077,10608,-0.052,-0.994,0.01,-0.671,0.549,0.549,133.441
123899,141306,9274,-0.05,-0.996,0.007,-0.671,0.549,0.549,133.445
123899,141072,10610,-0.048,-0.986,-0.016,-0.366,0.427,0.183,133.451
123838,141050,9274,-0.048,-0.988,-0.022,-0.366,0.427,0.183,133.454
123838,141034,10616,-0.046,-0.996,-0.009,-0.305,-0.061,0.122,133.461
123846,141050,9274,-0.045,-0.992,-0.005,-0.305,-0.061,0.122,133.464
123846,141054,10595,-0.042,-0.985,-0.005,0.488,0.244,0.183,133.471
123873,141306,9274,-0.044,-0.976,0.001,0.488,0.244,0.183,133.474
123873,141056,10598,-0.048,-0.973,0,-0.366,0.854,0.244,133.48
123831,141306,9274,-0.053,-0.977,-0.005,-0.366,0.854,0.244,133.484
123831,141065,10607,-0.05,-0.982,-0.005,-0.549,0.61,0.427,133.49
123813,141050,9274,-0.044,-0.988,-0.001,-0.549,0.61,0.427,133.494
123813,141027,10591,-0.044,-0.986,0.003,-0.671,-0.061,0.366,133.5
123811,141306,9274,-0.042,-0.984,0.007,-0.671,-0.061,0.366,133.504
123811,141057,10607,-0.045,-0.98,0.006,-0.61,0.122,0.671,133.51
123857,141050,9274,-0.047,-0.981,-0.001,-0.61,0.122,0.671,133.514
123857,141050,10607,-0.05,-0.985,0.004,0.122,0.488,0.732,133.52
123841,141306,9274,-0.052,-0.989,0.006,0.122,0.488,0.732,133.524
123841,141057,10612,-0.051,-0.984,-0.001,-0.427,0.427,0.427,133.53
123832,141050,9274,-0.046,-0.986,0.003,-0.427,0.427,0.427,133.534
123832,141041,10585,-0.046,-0.991,0.012,-0.915,0,0.427,133.54
123842,141050,9274,-0.046,-0.988,0.003,-0.915,0,0.427,133.544
123842,141049,10607,-0.05,-0.987,-0.011,-0.488,-0.061,0.305,133.55
123842,141050,9274,-0.05,-0.99,-0.007,-0.488,-0.061,0.305,133.553
123842,141055,10608,-0.046,-0.984,-0.004,0.061,0,0.183,133.56
123856,141306,9274,-0.047,-0.983,-0.008,0.061,0,0.183,133.563
123856,141057,10608,-0.047,-0.979,-0.006,-0.244,0.183,0.366,133.57
123876,141306,9274,-0.047,-0.978,0.001,-0.244,0.183,0.366,133.573
123876,141080,10609,-0.046,-0.979,0.006,-0.427,0.183,0.671,133.579
123865,141306,9274,-0.048,-0.98,-0.002,-0.427,0.183,0.671,133.583
123865,141072,10609,-0.052,-0.985,-0.012,-0.671,0.427,0.671,133.589
123866,141306,9274,-0.058,-0.993,-0.016,-0.671,0.427,0.671,133.593
123866,141075,10620,-0.054,-0.998,-0.013,0.427,0.305,0.427,133.599
123843,141306,9274,-0.049,-0.989,-0.001,0.427,0.305,0.427,133.603
123843,141061,10616,-0.048,-0.979,0.002,0.488,0.061,0.427,133.609
123875,141050,9274,-0.049,-0.974,-0.005,0.488,0.061,0.427,133.613
123875,141053,10612,-0.052,-0.979,-0.01,0,0.305,0.793,133.619
123874,141306,9274,-0.053,-0.989,-0.006,0,0.305,0.793,133.623
123874,141064,10622,-0.051,-0.986,-0.002,0,0.305,0.488,133.629
123856,141306,9274,-0.051,-0.986,-0.006,0,0.305,0.488,133.633
123856,141057,10626,-0.045,-0.983,-0.007,-1.402,0.061,0.427,133.639
123862,141306,9274,-0.042,-0.988,-0.001,-1.402,0.061,0.427,133.643
123862,141065,10611,-0.043,-0.987,0.004,-0.854,0.183,0.549,133.649
123883,141306,9274,-0.042,-0.982,-0.001,-0.854,0.183,0.549,133.652
123883,141091,10609,-0.045,-0.981,-0.002,-0.732,0.61,0.488,133.659
123879,141306,9274,-0.046,-0.985,0.01,-0.732,0.61,0.488,133.662
123879,141098,10604,-0.046,-0.981,0.012,-0.183,0.61,0.671,133.669
123874,141306,9274,-0.042,-0.98,0.005,-0.183,0.61,0.671,133.672
123874,141087,10615,-0.045,-0.977,-0.004,-0.305,0.305,0.549,133.678
123864,141306,9274,-0.047,-0.985,-0.007,-0.305,0.305,0.549,133.682
123864,141067,10615,-0.045,-0.994,-0.005,0.366,0.244,0.366,133.688
123883,141306,9274,-0.04,-0.994,0.002,0.366,0.244,0.366,133.692
123883,141083,10607,-0.042,-0.984,0.002,0.488,0.183,0.427,133.698
123863,141306,9274,-0.044,-0.981,0.002,0.488,0.183,0.427,133.702
123863,141077,10630,-0.047,-0.984,-0.001,0,0.305,0.488,133.708
123876,141306,9274,-0.049,-0.985,-0.004,0,0.305,0.488,133.712
123876,141069,10619,-0.048,-0.988,-0.003,-0.305,0.305,0.122,133.718
123871,141306,9274,-0.05,-0.992,-0.003,-0.305,0.305,0.122,133.722
123871,141103,10620,-0.05,-0.991,0.002,-1.341,0,0.061,133.728
123918,141306,9274,-0.048,-0.987,0.005,-1.341,0,0.061,133.732
123918,141129,10630,-0.048,-0.986,-0.004,-1.22,-0.244,0.183,133.738
123917,141306,9274,-0.048,-0.985,-0.018,-1.22,-0.244,0.183,133.742
123917,141111,10619,-0.051,-0.988,-0.016,-0.732,0.183,-0.122,133.748
123894,141306,9274,-0.051,-0.99,-0.012,-0.732,0.183,-0.122,133.751
123894,141098,10623,-0.047,-0.984,-0.012,-0.061,0,-0.061,133.758
123882,141306,9274,-0.046,-0.976,-0.007,-0.061,0,-0.061,133.761
123882,141098,10622,-0.046,-0.977,-0.004,-0.915,-0.061,0.305,133.768
123897,141306,9274,-0.051,-0.98,-0.011,-0.915,-0.061,0.305,133.771
123897,141097,10615,-0.051,-0.984,-0.017,-1.098,0.305,0.366,133.777
123908,141306,9274,-0.051,-0.992,-0.018,-1.098,0.305,0.366,133.781
123908,141098,10608,-0.049,-0.994,-0.006,-0.793,0.122,0.366,133.787
123908,141306,9274,-0.043,-0.986,0.001,-0.793,0.122,0.366,133.791
123908,141098,10619,-0.045,-0.981,-0.007,-0.671,0.305,0.305,133.797
123901,141306,9274,-0.047,-0.982,-0.01,-0.671,0.305,0.305,133.801
123901,141082,10635,-0.046,-0.988,-0.004,-0.427,0.854,0.488,133.807
123898,141306,9274,-0.048,-0.99,0.001,-0.427,0.854,0.488,133.811
123898,141101,10629,-0.045,-0.99,0.003,-0.305,0.61,0.366,133.817
123910,141306,9274,-0.047,-0.981,0.006,-0.305,0.61,0.366,133.821
123910,141094,10626,-0.049,-0.98,0.001,-1.037,0.427,0.427,133.827
123933,141306,9274,-0.05,-0.98,-0.01,-1.037,0.427,0.427,133.831
123933,141111,10620,-0.046,-0.991,-0.009,-0.244,0.549,0.305,133.837
123906,141306,9274,-0.044,-0.99,0.002,-0.244,0.549,0.305,133.841
123906,141116,10631,-0.043,-0.981,0.01,0.122,0.305,0.122,133.847
123919,141306,9274,-0.043,-0.981,0.01,0.122,0.305,0.122,133.85
123919,141113,10628,-0.047,-0.97,0.01,-1.585,0.427,0.488,133.857
123916,141306,9274,-0.047,-0.97,0.01,-1.585,0.427,0.488,133.86
123916,141104,10636,-0.052,-0.999,-0.009,-1.037,0.427,0.122,133.867
123932,141306,9274,-0.052,-0.999,-0.009,-1.037,0.427,0.122,133.87
123932,141117,10624,-0.044,-0.987,-0.005,-0.549,-0.488,-0.122,133.876
123949,141306,9274,-0.044,-0.987,-0.005,-0.549,-0.488,-0.122,133.88
123949,141131,10638,-0.044,-0.982,-0.009,0.183,-0.183,0.244,133.886
123918,141306,9274,-0.044,-0.982,-0.009,0.183,-0.183,0.244,133.89
123918,141111,10639,-0.048,-0.979,0.009,0.549,0.61,0.305,133.896
123937,141306,9274,-0.048,-0.979,0.009,0.549,0.61,0.305,133.9
123937,141112,10629,-0.057,-0.979,-0.013,-0.854,0.549,0.366,133.906
123941,141306,9274,-0.057,-0.979,-0.013,-0.854,0.549,0.366,133.91
123941,141137,10629,-0.046,-0.989,0.013,-0.854,-0.122,0.305,133.916
123953,141306,9274,-0.046,-0.989,0.013,-0.854,-0.122,0.305,133.92
123953,141121,10635,-0.045,-0.973,-0.024,-1.524,-0.061,0.305,133.926
123958,141306,9274,-0.045,-0.973,-0.024,-1.524,-0.061,0.305,133.93
123958,141107,10641,-0.046,-1.001,-0.004,0.244,0,0.305,133.936
123954,141306,9274,-0.046,-1.001,-0.004,0.244,0,0.305,133.94
123954,141132,10625,-0.044,-0.979,-0.016,-0.244,0,0.305,133.946
123944,141306,9274,-0.044,-0.979,-0.016,-0.244,0,0.305,133.949
123944,141105,10632,-0.046,-0.99,-0.014,-0.061,0.549,0.427,133.956
123955,141306,9274,-0.046,-0.99,-0.014,-0.061,0.549,0.427,133.959
123955,141144,10626,-0.041,-0.99,-0.005,0.183,0.366,0.183,133.966
123968,141306,9274,-0.041,-0.99,-0.005,0.183,0.366,0.183,133.969
123968,141130,10637,-0.046,-0.987,-0.012,-0.732,0.366,0.244,133.975
123948,141306,9274,-0.046,-0.987,-0.012,-0.732,0.366,0.244,133.979
123948,141161,10639,-0.045,-0.982,0.007,-0.549,0.488,0.305,133.985
123977,141306,9274,-0.045,-0.982,0.007,-0.549,0.488,0.305,133.989
123977,141125,10633,-0.049,-0.979,-0.013,-2.012,0.427,0.122,133.995
123962,141306,9274,-0.049,-0.979,-0.013,-2.012,0.427,0.122,133.999
123962,141148,10647,-0.051,-0.995,-0.006,-2.012,0.427,0.122,134.005
123972,141306,9274,-0.043,-1,-0.008,-0.61,0,0,134.009
123972,141131,10626,-0.038,-0.991,-0.003,-0.61,0,0,134.015
123976,141306,9274,-0.039,-0.975,0.001,-0.366,0.122,0.122,134.019
123976,141143,10636,-0.043,-0.971,0,-0.366,0.122,0.122,134.025
123976,141306,9274,-0.048,-0.98,-0.002,-0.061,0.732,0.488,134.029
123976,141178,10647,-0.053,-0.984,-0.005,-0.061,0.732,0.488,134.035
123995,141306,9274,-0.052,-0.985,-0.005,0.122,0.549,0.244,134.039
123995,141149,10636,-0.048,-0.984,-0.012,0.122,0.549,0.244,134.045
123980,141306,9274,-0.047,-0.988,-0.013,-0.671,0.122,0.183,134.048
123980,141181,10642,-0.046,-0.991,-0.009,-0.671,0.122,0.183,134.055
124001,141306,9274,-0.042,-0.987,-0.003,0.122,0.122,0.366,134.058
124001,141167,10651,-0.04,-0.98,-0.007,0.122,0.122,0.366,134.065
124003,141306,9274,-0.044,-0.976,-0.004,-0.061,0.732,0.549,134.068
124003,141192,10644,-0.05,-0.982,-0.005,-0.061,0.732,0.549,134.074
123993,141306,9274,-0.051,-0.99,0,-0.549,0.915,0.671,134.078
123993,141160,10648,-0.049,-0.992,0.001,-0.549,0.915,0.671,134.084
123991,141306,9274,-0.048,-0.986,-0.007,-1.28,0.488,0.427,134.088
123991,141165,10634,-0.046,-0.984,-0.011,-1.28,0.488,0.427,134.094
123976,141306,9274,-0.047,-0.993,-0.004,-0.671,0.244,0.427,134.098
123976,141161,10636,-0.045,-0.995,-0.001,-0.671,0.244,0.427,134.104
123968,141306,9274,-0.047,-0.988,-0.004,0.854,0.488,0.305,134.108
123968,141159,10620,-0.051,-0.979,-0.005,0.854,0.488,0.305,134.114
123962,141306,9274,-0.051,-0.981,-0.001,0.549,0.793,0.305,134.118
123962,141148,10639,-0.05,-0.983,0.001,0.549,0.793,0.305,134.124
123940,141306,9274,-0.05,-0.978,-0.003,0.305,0.427,0.427,134.128
123940,141111,10622,-0.048,-0.977,-0.011,0.305,0.427,0.427,134.134
123925,141306,9274,-0.047,-0.986,-0.012,-0.854,0.061,0.427,134.138
123925,141107,10629,-0.048,-0.995,-0.01,-0.854,0.061,0.427,134.144
123976,141306,9274,-0.041,-0.994,-0.004,-0.244,0.061,0.488,134.147
123976,141140,10627,-0.042,-0.987,0.004,-0.244,0.061,0.488,134.154
123998,141306,9274,-0.044,-0.977,-0.006,0.183,0.488,0.427,134.157
123998,141140,10644,-0.047,-0.975,-0.011,0.183,0.488,0.427,134.164
123991,141306,9274,-0.05,-0.981,-0.008,0.61,0.732,0.549,134.167
123991,141155,10627,-0.053,-0.989,-0.006,0.61,0.732,0.549,134.173
123981,141306,9274,-0.049,-0.991,0,0.61,0.244,0.427,134.177
123981,141130,10623,-0.043,-0.987,-0.003,0.61,0.244,0.427,134.183
123977,141306,9274,-0.042,-0.983,-0.008,-0.122,0.061,0.366,134.187
123977,141140,10635,-0.046,-0.984,-0.001,-0.122,0.061,0.366,134.193
123964,141306,9274,-0.047,-0.991,0.004,-0.122,0.427,0.427,134.197
123964,141139,10629,-0.048,-0.988,0.003,-0.122,0.427,0.427,134.203
123980,141306,9274,-0.053,-0.985,-0.003,-0.732,0.549,0.305,134.207
123980,141173,10656,-0.049,-0.986,-0.017,-0.732,0.549,0.305,134.213
123997,141306,9274,-0.045,-0.992,-0.007,-0.854,0,0.305,134.217
123997,141176,10629,-0.042,-0.995,0.007,-0.854,0,0.305,134.223
124011,141306,9274,-0.042,-0.984,0.008,0.244,0,0.183,134.227
124011,141155,10637,-0.044,-0.972,-0.014,0.244,0,0.183,134.233
124002,141306,9274,-0.05,-0.974,-0.009,0.122,0.549,0.183,134.237
124002,141168,10643,-0.051,-0.982,0.017,0.122,0.549,0.183,134.243
123996,141306,9274,-0.048,-0.981,0.014,0.122,0.366,0.305,134.246
123996,141166,10635,-0.048,-0.976,-0.016,0.122,0.366,0.305,134.253
124001,141306,9274,-0.047,-0.985,-0.023,-1.22,-0.122,0.244,134.256
124001,141151,10639,-0.047,-1,-0.011,-1.22,-0.122,0.244,134.263
123969,141306,9274,-0.043,-1.002,-0.011,0.244,-0.366,0.305,134.266
123969,141119,10618,-0.043,-0.987,-0.016,0.244,-0.366,0.305,134.272
123975,141306,9274,-0.048,-0.978,-0.016,0,0.305,0.366,134.276
123975,141160,10629,-0.049,-0.979,-0.005,0,0.305,0.366,134.282
124007,141306,9274,-0.049,-0.981,-0.002,0.427,0.915,0.61,134.286
124007,141162,10626,-0.048,-0.983,-0,0.427,0.915,0.61,134.292
123988,141306,9274,-0.044,-0.982,-0.004,-0.122,0.732,0.244,134.296
123988,141146,10638,-0.043,-0.984,0.001,-0.122,0.732,0.244,134.302
123978,141306,9274,-0.043,-0.988,0.012,-0.854,0.366,0.244,134.306
123978,141123,10637,-0.041,-0.982,0.011,-0.854,0.366,0.244,134.312
123973,141306,9274,-0.042,-0.979,0.003,-1.037,0.549,0.305,134.316
123973,141160,10629,-0.046,-0.983,-0.003,-1.037,0.549,0.305,134.322
124006,141306,9274,-0.047,-0.989,-0.007,-0.427,0.366,0.366,134.326
124006,141147,10638,-0.049,-0.987,-0.009,-0.427,0.366,0.366,134.332
124003,141306,9274,-0.044,-0.982,-0.009,0.183,-0.122,0.488,134.336
124003,141166,10632,-0.041,-0.983,-0.01,0.183,-0.122,0.488,134.342
123989,141306,9274,-0.047,-0.981,-0.012,-0.183,0.183,0.854,134.345
123989,141144,10639,-0.05,-0.985,-0.018,-0.183,0.183,0.854,134.352
123998,141306,9274,-0.053,-0.993,-0.02,0.244,0.549,0.732,134.355
123998,141142,10638,-0.054,-0.991,-0.016,0.244,0.549,0.732,134.362
123990,141306,9274,-0.049,-0.987,-0.014,0.488,0.366,0.488,134.365
123990,141150,10638,-0.047,-0.982,-0.016,0.488,0.366,0.488,134.371
124007,141306,9274,-0.048,-0.982,-0.007,0.732,0.61,0.61,134.375
124007,141174,10631,-0.053,-0.985,-0.008,0.732,0.61,0.61,134.381
124010,141306,9274,-0.054,-0.988,-0.001,0.793,1.037,0.671,134.385
124010,141160,10642,-0.055,-0.979,0.008,0.793,1.037,0.671,134.391
123989,141306,9274,-0.053,-0.976,0.005,-0.244,1.037,0.732,134.395
123989,141150,10637,-0.054,-0.976,0,-0.244,1.037,0.732,134.401
123988,141306,9274,-0.053,-0.982,-0.004,-0.61,0.793,0.793,134.405
123988,141167,10637,-0.051,-0.99,-0.001,-0.61,0.793,0.793,134.411
124007,141306,9274,-0.047,-0.992,0.007,0.183,0.305,0.61,134.415
124007,141183,10631,-0.045,-0.985,0.005,0.183,0.305,0.61,134.421
124018,141306,9274,-0.042,-0.977,0.004,0.183,0.244,0.732,134.425
124018,141188,10632,-0.042,-0.976,0.003,0.183,0.244,0.732,134.431
123988,141306,9274,-0.048,-0.977,-0.01,0.244,0.549,0.915,134.435
123988,141171,10635,-0.048,-0.988,-0.013,0.244,0.549,0.915,134.441
124018,141306,9274,-0.048,-0.988,-0.013,0.244,0.549,0.915,134.445
124018,141161,10632,-0.043,-0.992,-0.002,0.244,0.427,0.549,134.451
123989,141306,9274,-0.043,-0.992,-0.002,0.244,0.427,0.549,134.454
123989,141147,10647,-0.044,-0.989,-0.001,0,0.122,0.427,134.461
124002,141306,9274,-0.044,-0.989,-0.001,0,0.122,0.427,134.464
124002,141158,10628,-0.042,-0.986,0.006,0,0.488,0.366,134.47
124014,141306,9274,-0.042,-0.986,0.006,0,0.488,0.366,134.474
124014,141159,10630,-0.047,-0.982,-0.005,-0.305,0.793,0.183,134.48
123986,141306,9274,-0.047,-0.982,-0.005,-0.305,0.793,0.183,134.484
123986,141133,10637,-0.047,-0.986,-0.003,-0.427,0.61,0.122,134.49
124004,141306,9274,-0.047,-0.986,-0.003,-0.427,0.61,0.122,134.494
124004,141163,10650,-0.046,-0.978,0.004,0.305,0.366,0.183,134.5
123994,141306,9274,-0.046,-0.978,0.004,0.305,0.366,0.183,134.504
123994,141148,10638,-0.047,-0.974,-0.002,-0.244,0.244,0.427,134.51
123998,141306,9274,-0.047,-0.974,-0.002,-0.244,0.244,0.427,134.514
123998,141171,10635,-0.053,-0.993,-0.009,-0.793,0.183,0.61,134.52
123987,141306,9274,-0.053,-0.993,-0.009,-0.793,0.183,0.61,134.524
123987,141129,10625,-0.052,-0.992,-0.009,-0.061,-0.122,0.61,134.53
124010,141306,9274,-0.052,-0.992,-0.009,-0.061,-0.122,0.61,134.534
124010,141167,10638,-0.049,-0.985,-0.01,0.244,-0.122,0.61,134.54
124031,141306,9274,-0.049,-0.985,-0.01,0.244,-0.122,0.61,134.544
124031,141202,10636,-0.051,-0.982,-0.01,0.549,0.183,0.549,134.55
124024,141306,9274,-0.051,-0.982,-0.01,0.549,0.183,0.549,134.553
124024,141168,10656,-0.048,-0.986,-0.005,0.305,0.427,0.488,134.56
123991,141306,9274,-0.048,-0.986,-0.005,0.305,0.427,0.488,134.563
123991,141146,10642,-0.051,-0.99,-0.011,-0.549,0.549,0.488,134.569
124001,141306,9274,-0.051,-0.99,-0.011,-0.549,0.549,0.488,134.573
124001,141150,10650,-0.046,-0.995,-0.006,-0.244,0.366,0.305,134.579
124003,141306,9274,-0.046,-0.995,-0.006,-0.244,0.366,0.305,134.583
124003,141145,10638,-0.048,-0.991,-0.005,0.244,0.549,0.305,134.589
123983,141306,9274,-0.047,-0.985,-0.006,0.244,0.549,0.305,134.593
123983,141121,10637,-0.049,-0.982,-0.003,0.671,0.854,0.183,134.599
123986,141306,9274,-0.051,-0.98,0.001,0.671,0.854,0.183,134.603
123986,141145,10639,-0.052,-0.975,0.001,0.488,0.854,0.183,134.609
124007,141306,9274,-0.046,-0.975,-0.005,0.488,0.854,0.183,134.613
124007,141183,10627,-0.043,-0.981,-0.007,-0.427,0.549,0.305,134.619
124000,141306,9274,-0.045,-0.987,-0.001,-0.427,0.549,0.305,134.623
124000,141172,10652,-0.046,-0.991,-0.004,0.183,0.61,0.244,134.629
124010,141306,9274,-0.044,-0.984,-0.004,0.183,0.61,0.244,134.633
124010,141197,10652,-0.046,-0.981,0.002,0.366,0.854,0.427,134.639
124022,141306,9274,-0.045,-0.98,0.005,0.366,0.854,0.427,134.643
124022,141191,10633,-0.044,-0.979,0.002,0.854,0.671,0.671,134.649
124024,141306,9274,-0.045,-0.983,0.006,0.854,0.671,0.671,134.652
124024,141182,10646,-0.047,-0.984,0.005,0.488,0.61,0.732,134.659
124041,141306,9274,-0.045,-0.982,-0.003,0.488,0.61,0.732,134.662
124041,141186,10647,-0.048,-0.986,-0.01,-0.122,0.488,0.854,134.668
124005,141306,9274,-0.048,-0.994,0.002,-0.122,0.488,0.854,134.672
124005,141162,10642,-0.048,-0.994,0.012,0.732,0.366,0.61,134.678
123998,141306,9274,-0.047,-0.981,0.001,0.732,0.366,0.61,134.682
123998,141168,10645,-0.05,-0.976,-0.012,0.061,0.549,0.488,134.688
124012,141306,9274,-0.053,-0.985,-0.006,0.061,0.549,0.488,134.692
124012,141164,10643,-0.05,-0.993,0.002,0.305,0.549,0.488,134.698
124027,141306,9274,-0.047,-0.992,0.003,0.305,0.549,0.488,134.702
124027,141178,10660,-0.043,-0.984,0.002,-0.488,0.366,0.244,134.708
124019,141306,9274,-0.047,-0.98,-0.001,-0.488,0.366,0.244,134.712
124019,141172,10655,-0.05,-0.986,-0.009,-1.037,0.549,0.427,134.718
124044,141306,9274,-0.052,-0.992,-0.009,-1.037,0.549,0.427,134.722
124044,141196,10661,-0.054,-0.991,-0.011,0.244,0.61,0.244,134.728
124063,141306,9274,-0.048,-0.988,-0.015,0.244,0.61,0.244,134.732
124063,141226,10652,-0.045,-0.983,-0.007,0.793,0.427,0.183,134.738
124074,141306,9274,-0.048,-0.976,0.001,0.793,0.427,0.183,134.742
124074,141208,10659,-0.045,-0.971,-0.001,0.61,0.854,0.61,134.748
124054,141306,9274,-0.051,-0.971,-0.006,0.61,0.854,0.61,134.751
124054,141222,10662,-0.053,-0.981,-0,-0.427,1.098,0.671,134.758
124087,141306,9274,-0.051,-0.988,-0.001,-0.427,1.098,0.671,134.761
124087,141227,10664,-0.05,-0.992,-0,-0.61,0.61,0.549,134.768
124104,141306,9274,-0.051,-0.991,-0.01,-0.61,0.61,0.549,134.771
124104,141263,10666,-0.046,-0.989,-0.01,-0.244,0.488,0.61,134.777
124109,141306,9274,-0.042,-0.989,-0.003,-0.244,0.488,0.61,134.781
124109,141246,10662,-0.042,-0.984,0.004,0.915,0.549,0.488,134.787
124126,141306,9274,-0.044,-0.984,0.002,0.915,0.549,0.488,134.791
124126,141268,10660,-0.049,-0.98,0.004,0.549,1.037,0.549,134.797
124190,141306,9274,-0.052,-0.986,0.009,0.549,1.037,0.549,134.801
124190,141277,10666,-0.053,-0.99,0.006,-0.061,1.098,0.427,134.807
124184,141306,9274,-0.052,-0.989,-0,-0.061,1.098,0.427,134.811
124184,141300,10684,-0.05,-0.989,0.002,-0.976,0.427,0.122,134.817
124197,141306,9274,-0.043,-0.989,-0.003,-0.976,0.427,0.122,134.821
124197,141307,10675,-0.042,-0.986,-0.001,-0.61,0.183,0,134.827
124199,141306,9274,-0.043,-0.981,0.005,-0.61,0.183,0,134.831
124199,141284,10676,-0.045,-0.981,0.005,-0.244,0.549,0.122,134.837
124189,141306,9274,-0.049,-0.981,0.01,-0.244,0.549,0.122,134.84
124189,141305,10674,-0.05,-0.98,0.016,-0.183,0.61,0.305,134.847
124197,141562,9274,-0.051,-0.977,0.003,-0.183,0.61,0.305,134.85
124197,141316,10684,-0.05,-0.979,-0.009,-0.976,0.061,0.427,134.857
124199,141306,9274,-0.045,-0.989,-0.01,-0.976,0.061,0.427,134.86
124199,141296,10672,-0.043,-0.996,-0.009,0.305,-0.549,0.244,134.866
124183,141306,9274,-0.043,-0.989,-0.002,0.305,-0.549,0.244,134.87
124183,141286,10688,-0.049,-0.979,0.005,0.488,-0.244,0.366,134.876
124162,141306,9274,-0.053,-0.974,-0.002,0.488,-0.244,0.366,134.88
124162,141290,10663,-0.055,-0.978,-0.006,-0.122,0.427,0.549,134.886
124182,141306,9274,-0.055,-0.984,-0.001,-0.122,0.427,0.549,134.89
124182,141290,10661,-0.053,-0.992,0.003,-0.488,0.122,0.305,134.896
124174,141306,9274,-0.051,-0.992,-0.003,-0.488,0.122,0.305,134.9
124174,141298,10673,-0.049,-0.995,-0.011,-1.463,-0.244,0.244,134.906
124194,141306,9274,-0.048,-0.998,-0.004,-1.463,-0.244,0.244,134.91
124194,141305,10662,-0.046,-0.994,-0.007,-0.122,0.183,0.061,134.916
124149,141306,9274,-0.045,-0.984,-0.014,-0.122,0.183,0.061,134.92
124149,141264,10672,-0.046,-0.981,-0.009,0.305,0.488,0,134.926
124159,141306,9274,-0.05,-0.983,-0.001,0.305,0.488,0,134.93
124159,141248,10661,-0.051,-0.984,0.006,0.976,0.488,0.183,134.936
124143,141306,9274,-0.048,-0.978,0.004,0.976,0.488,0.183,134.94
124143,141262,10682,-0.05,-0.972,-0.005,-0.366,0.488,0.366,134.946
124168,141306,9274,-0.052,-0.981,-0.005,-0.366,0.488,0.366,134.949
124168,141282,10670,-0.05,-0.99,-0.001,-0.61,0.305,0.427,134.956
124173,141306,9274,-0.046,-0.993,-0,-0.61,0.305,0.427,134.959
124173,141269,10669,-0.041,-0.987,-0.002,-0.061,-0.061,0.305,134.965
124170,141306,9274,-0.044,-0.982,-0.002,-0.061,-0.061,0.305,134.969
124170,141303,10673,-0.05,-0.98,-0.002,-0.122,0.244,0.305,134.975
124171,141306,9274,-0.055,-0.988,-0.005,-0.122,0.244,0.305,134.979
124171,141284,10668,-0.049,-0.987,-0.003,-0.183,0.488,0.183,134.985
124152,141306,9274,-0.045,-0.991,-0.003,-0.183,0.488,0.183,134.989
124152,141277,10671,-0.042,-0.991,0.008,-0.366,0.122,0.183,134.995
124170,141306,9274,-0.043,-0.987,0.018,-0.366,0.122,0.183,134.999
124170,141287,10677,-0.045,-0.977,0.005,-1.037,0.427,0.244,135.005
124184,141306,9274,-0.045,-0.977,-0.004,-1.037,0.427,0.244,135.009
124184,141280,10680,-0.044,-0.988,-0.003,-0.61,0.61,0.244,135.015
124178,141306,9274,-0.044,-0.995,0.012,-0.61,0.61,0.244,135.019
124178,141271,10669,-0.042,-0.988,0.023,0.061,0.061,0.061,135.025
124159,141306,9274,-0.044,-0.971,0.014,0.061,0.061,0.061,135.029
124159,141255,10669,-0.045,-0.968,-0.001,-1.22,0.061,0.366,135.035
124171,141306,9274,-0.045,-0.968,-0.001,-1.22,0.061,0.366,135.039
124171,141269,10666,-0.05,-1.002,-0.009,0.122,0.061,0.305,135.045
124196,141306,9274,-0.05,-1.002,-0.009,0.122,0.061,0.305,135.048
124196,141253,10676,-0.042,-0.979,-0.013,0.061,-0.488,0,135.055
124170,141306,9274,-0.042,-0.979,-0.013,0.061,-0.488,0,135.058
124170,141282,10678,-0.043,-0.978,-0.026,-0.061,-0.122,0.549,135.065
124172,141306,9274,-0.043,-0.978,-0.026,-0.061,-0.122,0.549,135.068
124172,141259,10678,-0.049,-0.991,-0.007,0.549,0.488,0.427,135.074
124150,141306,9274,-0.049,-0.991,-0.007,0.549,0.488,0.427,135.078
124150,141253,10685,-0.046,-0.981,-0.013,-0.732,0.61,0.549,135.084
124154,141306,9274,-0.046,-0.981,-0.013,-0.732,0.61,0.549,135.088
124154,141249,10663,-0.045,-0.99,-0.001,-1.159,0.671,0.61,135.094
124146,141306,9274,-0.045,-0.99,-0.001,-1.159,0.671,0.61,135.098
124146,141246,10676,-0.044,-0.989,0.006,-0.61,0.732,0.427,135.104
124145,141306,9274,-0.044,-0.989,0.006,-0.61,0.732,0.427,135.108
124145,141262,10677,-0.042,-0.979,0,-0.488,0.61,0.366,135.114
124122,141306,9274,-0.042,-0.979,0,-0.488,0.61,0.366,135.118
124122,141245,10671,-0.051,-0.991,-0.002,0.061,0.549,0.488,135.124
124099,141306,9274,-0.051,-0.991,-0.002,0.061,0.549,0.488,135.128
124099,141209,10657,-0.05,-0.979,0.001,-0.244,0.427,0.488,135.134
124136,141306,9274,-0.05,-0.979,0.001,-0.244,0.427,0.488,135.138
124136,141241,10662,-0.05,-0.981,-0.004,-0.793,0.427,0.549,135.144
124135,141306,9274,-0.05,-0.981,-0.004,-0.793,0.427,0.549,135.147
124135,141256,10682,-0.048,-0.992,0.003,-0.244,0.305,0.671,135.154
