123213,140794,9274,-0.035,-0.981,0.146,-0.244,0.488,0.366,283.399
123213,140571,10486,-0.033,-0.977,0.144,-0.244,0.488,0.366,283.405
123213,140794,9274,-0.035,-0.974,0.149,0.488,0.61,0.427,283.409
123213,140577,10489,-0.039,-0.973,0.146,0.488,0.61,0.427,283.415
123222,140794,9274,-0.036,-0.973,0.146,0.549,0.854,0.366,283.419
123222,140568,10486,-0.034,-0.973,0.149,0.549,0.854,0.366,283.425
123229,140794,9274,-0.033,-0.974,0.152,-0.366,0.61,0.427,283.429
123229,140562,10474,-0.032,-0.972,0.147,-0.366,0.61,0.427,283.435
123221,140794,9274,-0.033,-0.977,0.144,-0.854,0.366,0.366,283.439
123221,140575,10471,-0.031,-0.98,0.151,-0.854,0.366,0.366,283.445
123240,140794,9274,-0.033,-0.978,0.153,-0.366,0.732,0.366,283.449
123240,140571,10482,-0.035,-0.978,0.151,-0.366,0.732,0.366,283.455
123230,140794,9274,-0.035,-0.972,0.151,-0.061,0.854,0.427,283.458
123230,140562,10483,-0.034,-0.975,0.152,-0.061,0.854,0.427,283.465
123243,140794,9274,-0.034,-0.975,0.148,0.061,0.732,0.488,283.468
123243,140569,10492,-0.035,-0.976,0.149,0.061,0.732,0.488,283.475
123244,140794,9274,-0.035,-0.978,0.15,-0.061,0.61,0.427,283.478
123244,140554,10479,-0.034,-0.978,0.149,-0.061,0.61,0.427,283.484
123237,140794,9274,-0.033,-0.975,0.15,-0.244,0.549,0.427,283.488
123237,140562,10485,-0.032,-0.978,0.15,-0.244,0.549,0.427,283.494
123221,140538,9274,-0.033,-0.975,0.147,0.061,0.671,0.61,283.498
123221,140541,10487,-0.037,-0.977,0.145,0.061,0.671,0.61,283.504
123221,140794,9274,-0.039,-0.979,0.149,0.305,0.854,0.61,283.508
123221,140555,10477,-0.038,-0.98,0.148,0.305,0.854,0.61,283.514
123219,140794,9274,-0.039,-0.978,0.146,0.122,0.671,0.427,283.518
123219,140563,10489,-0.039,-0.979,0.142,0.122,0.671,0.427,283.524
123220,140794,9274,-0.04,-0.982,0.146,-0.061,0.427,0.427,283.528
123220,140551,10489,-0.039,-0.98,0.146,-0.061,0.427,0.427,283.534
123219,140794,9274,-0.039,-0.98,0.145,0,0.427,0.427,283.538
123219,140556,10492,-0.04,-0.977,0.147,0,0.427,0.427,283.544
123223,140794,9274,-0.037,-0.974,0.145,-0.366,0.61,0.366,283.548
123223,140563,10480,-0.039,-0.972,0.149,-0.366,0.61,0.366,283.554
123226,140794,9274,-0.037,-0.972,0.152,-0.549,0.549,0.366,283.557
123226,140549,10471,-0.036,-0.974,0.15,-0.549,0.549,0.366,283.564
123232,140794,9274,-0.034,-0.976,0.151,-0.915,0.488,0.183,283.567
123232,140568,10490,-0.036,-0.973,0.152,-0.915,0.488,0.183,283.574
123228,140794,9274,-0.036,-0.975,0.152,-0.976,0.427,0.183,283.577
123228,140549,10477,-0.032,-0.974,0.151,-0.976,0.427,0.183,283.583
123225,140794,9274,-0.032,-0.972,0.152,-0.61,0.549,0.183,283.587
123225,140549,10482,-0.034,-0.974,0.156,-0.61,0.549,0.183,283.593
123228,140794,9274,-0.033,-0.972,0.156,-0.183,0.427,0.305,283.597
123228,140561,10495,-0.032,-0.973,0.155,-0.183,0.427,0.305,283.603
123214,140794,9274,-0.037,-0.975,0.155,-0.061,0.305,0.427,283.607
123214,140553,10484,-0.035,-0.975,0.156,-0.061,0.305,0.427,283.613
123228,140794,9274,-0.035,-0.975,0.156,-0.122,0.122,0.427,283.617
123228,140546,10490,-0.037,-0.974,0.15,-0.122,0.122,0.427,283.623
123234,140794,9274,-0.036,-0.974,0.154,-0.183,0.061,0.427,283.627
123234,140550,10489,-0.039,-0.974,0.156,-0.183,0.061,0.427,283.633
123225,140794,9274,-0.04,-0.977,0.149,-0.488,-0.061,0.366,283.637
123225,140557,10492,-0.038,-0.976,0.151,-0.488,-0.061,0.366,283.643
123210,140794,9274,-0.038,-0.978,0.15,-0.793,-0.305,0.305,283.647
123210,140575,10502,-0.037,-0.98,0.15,-0.793,-0.305,0.305,283.653
123228,140794,9274,-0.037,-0.981,0.151,-0.671,-0.244,0.244,283.656
123228,140571,10481,-0.037,-0.98,0.151,-0.671,-0.244,0.244,283.663
123213,140794,9274,-0.036,-0.976,0.15,-0.793,-0.305,0.183,283.666
123213,140569,10487,-0.037,-0.974,0.15,-0.793,-0.305,0.183,283.673
123225,140794,9274,-0.039,-0.974,0.152,-0.793,-0.366,0.244,283.676
123225,140548,10489,-0.037,-0.979,0.148,-0.793,-0.366,0.244,283.682
123222,140794,9274,-0.036,-0.982,0.146,-0.976,-0.305,0.244,283.686
123222,140571,10497,-0.038,-0.982,0.149,-0.976,-0.305,0.244,283.692
123235,140794,9274,-0.036,-0.979,0.149,-0.793,-0.488,0.183,283.696
123235,140544,10480,-0.035,-0.977,0.144,-0.793,-0.488,0.183,283.702
123216,140794,9274,-0.034,-0.975,0.146,-0.61,-0.366,0.244,283.706
123216,140571,10501,-0.034,-0.974,0.148,-0.61,-0.366,0.244,283.712
123218,140794,9274,-0.035,-0.979,0.144,-0.549,-0.122,0.183,283.716
123218,140588,10487,-0.031,-0.975,0.145,-0.549,-0.122,0.183,283.722
123229,140538,9274,-0.032,-0.975,0.141,-0.549,-0.183,0.244,283.726
123229,140542,10475,-0.03,-0.976,0.141,-0.549,-0.183,0.244,283.732
123223,140794,9274,-0.031,-0.978,0.145,-0.61,-0.183,0.305,283.736
123223,140549,10491,-0.034,-0.98,0.15,-0.61,-0.183,0.305,283.742
123220,140794,9274,-0.032,-0.979,0.144,-0.732,-0.122,0.305,283.746
123220,140565,10481,-0.031,-0.977,0.146,-0.732,-0.122,0.305,283.752
123191,140794,9274,-0.03,-0.974,0.146,-0.732,0,0.244,283.755
123191,140549,10498,-0.03,-0.972,0.145,-0.732,0,0.244,283.762
123204,140794,9274,-0.032,-0.975,0.149,-0.366,0.305,0.183,283.765
123204,140545,10482,-0.033,-0.972,0.15,-0.366,0.305,0.183,283.772
123202,140794,9274,-0.032,-0.974,0.149,-0.366,0.305,0.183,283.775
123202,140559,10492,-0.032,-0.974,0.149,-0.366,0.305,0.183,283.781
123200,140794,9274,-0.032,-0.974,0.149,-0.366,0.305,0.183,283.785
123200,140555,10482,-0.031,-0.98,0.152,-0.549,0.244,0.244,283.791
123212,140538,9274,-0.031,-0.98,0.152,-0.549,0.244,0.244,283.795
123212,140543,10469,-0.034,-0.976,0.145,-0.427,0.305,0.305,283.801
123196,140538,9274,-0.034,-0.976,0.145,-0.427,0.305,0.305,283.805
123196,140541,10492,-0.033,-0.977,0.148,-0.122,0.366,0.427,283.811
123199,140538,9274,-0.033,-0.977,0.148,-0.122,0.366,0.427,283.815
123199,140539,10482,-0.035,-0.977,0.146,0.122,0.366,0.488,283.821
123182,140538,9274,-0.035,-0.977,0.146,0.122,0.366,0.488,283.825
123182,140517,10479,-0.036,-0.975,0.143,0.183,0.671,0.427,283.831
123172,140538,9274,-0.036,-0.975,0.143,0.183,0.671,0.427,283.835
123172,140532,10489,-0.033,-0.974,0.145,-0.061,0.61,0.427,283.841
123166,140538,9274,-0.033,-0.974,0.145,-0.061,0.61,0.427,283.845
123166,140521,10476,-0.036,-0.977,0.147,-0.427,0.61,0.488,283.851
123155,140538,9274,-0.036,-0.977,0.147,-0.427,0.61,0.488,283.854
123155,140497,10476,-0.035,-0.979,0.145,-0.671,0.732,0.488,283.861
123165,140538,9274,-0.035,-0.979,0.145,-0.671,0.732,0.488,283.864
123165,140518,10480,-0.035,-0.978,0.146,-0.61,0.671,0.366,283.871
123156,140538,9274,-0.035,-0.978,0.146,-0.61,0.671,0.366,283.874
123156,140516,10476,-0.036,-0.974,0.155,-0.732,0.732,0.366,283.88
123176,140538,9274,-0.036,-0.974,0.155,-0.732,0.732,0.366,283.884
123176,140506,10481,-0.035,-0.974,0.145,-0.671,0.793,0.427,283.89
123164,140538,9274,-0.035,-0.974,0.145,-0.671,0.793,0.427,283.894
123164,140526,10475,-0.035,-0.977,0.151,-0.366,0.793,0.366,283.9
123166,140538,9274,-0.035,-0.977,0.151,-0.366,0.793,0.366,283.904
123166,140505,10474,-0.037,-0.974,0.15,-0.366,0.732,0.305,283.91
123181,140538,9274,-0.037,-0.974,0.15,-0.366,0.732,0.305,283.914
123181,140518,10464,-0.035,-0.974,0.15,-0.854,0.671,0.427,283.92
123162,140538,9274,-0.035,-0.974,0.15,-0.854,0.671,0.427,283.924
123162,140529,10492,-0.033,-0.978,0.15,-0.61,0.61,0.61,283.93
123206,140538,9274,-0.033,-0.978,0.15,-0.61,0.61,0.61,283.934
123206,140518,10470,-0.038,-0.978,0.151,-0.122,0.549,0.488,283.94
123176,140538,9274,-0.038,-0.974,0.149,-0.122,0.549,0.488,283.944
123176,140534,10487,-0.035,-0.97,0.148,-0.183,0.61,0.427,283.95
123200,140794,9274,-0.036,-0.972,0.145,-0.183,0.61,0.427,283.953
123200,140557,10494,-0.04,-0.98,0.144,-0.305,0.549,0.488,283.96
123218,140794,9274,-0.037,-0.981,0.15,-0.305,0.549,0.488,283.963
123218,140548,10490,-0.036,-0.979,0.148,-0.671,0.427,0.427,283.97
123204,140794,9274,-0.036,-0.978,0.144,-0.671,0.427,0.427,283.973
123204,140552,10487,-0.035,-0.979,0.145,-0.671,0.366,0.305,283.979
123214,140794,9274,-0.036,-0.979,0.149,-0.671,0.366,0.305,283.983
123214,140552,10477,-0.038,-0.976,0.155,-0.427,0.305,0.366,283.989
123210,140794,9274,-0.037,-0.973,0.15,-0.427,0.305,0.366,283.993
123210,140552,10486,-0.038,-0.975,0.151,-0.488,0.244,0.366,283.999
123203,140538,9274,-0.037,-0.979,0.146,-0.488,0.244,0.366,284.003
123203,140530,10480,-0.038,-0.975,0.146,-0.427,0.244,0.244,284.009
123231,140794,9274,-0.038,-0.975,0.15,-0.427,0.244,0.244,284.013
123231,140554,10491,-0.036,-0.974,0.148,-0.488,0.183,0.244,284.019
123221,140794,9274,-0.034,-0.971,0.149,-0.488,0.183,0.244,284.023
123221,140570,10482,-0.035,-0.975,0.148,-0.549,0,0.488,284.029
123216,140794,9274,-0.035,-0.976,0.147,-0.549,0,0.488,284.033
123216,140565,10494,-0.036,-0.976,0.149,-0.549,0.061,0.549,284.039
123216,140794,9274,-0.039,-0.98,0.145,-0.549,0.061,0.549,284.043
123216,140560,10484,-0.035,-0.982,0.142,-0.61,0.122,0.366,284.049
123212,140538,9274,-0.034,-0.982,0.145,-0.61,0.122,0.366,284.053
123212,140531,10478,-0.034,-0.982,0.142,-0.305,0,0.427,284.059
123207,140794,9274,-0.034,-0.977,0.146,-0.305,0,0.427,284.062
123207,140560,10473,-0.034,-0.979,0.145,-0.183,0.061,0.366,284.069
123225,140794,9274,-0.036,-0.979,0.143,-0.183,0.061,0.366,284.072
123225,140547,10477,-0.036,-0.978,0.144,-0.061,0.244,0.366,284.078
123199,140794,9274,-0.037,-0.974,0.146,-0.061,0.244,0.366,284.082
123199,140556,10497,-0.037,-0.975,0.147,-0.183,0.122,0.427,284.088
123212,140794,9274,-0.036,-0.975,0.148,-0.183,0.122,0.427,284.092
123212,140544,10482,-0.037,-0.98,0.151,-0.488,-0.122,0.366,284.098
123204,140794,9274,-0.035,-0.978,0.15,-0.488,-0.122,0.366,284.102
123204,140545,10491,-0.035,-0.977,0.148,-0.793,-0.122,0.305,284.108
123216,140538,9274,-0.036,-0.977,0.146,-0.793,-0.122,0.305,284.112
123216,140540,10491,-0.035,-0.976,0.149,-0.793,0,0.305,284.118
123215,140794,9274,-0.033,-0.978,0.147,-0.793,0,0.305,284.122
123215,140561,10481,-0.034,-0.98,0.146,-0.366,0,0.366,284.128
123219,140794,9274,-0.031,-0.977,0.151,-0.366,0,0.366,284.132
123219,140560,10493,-0.032,-0.97,0.15,-0.244,0,0.366,284.138
123211,140794,9274,-0.035,-0.971,0.147,-0.244,0,0.366,284.142
123211,140547,10495,-0.035,-0.972,0.142,-0.488,0.122,0.427,284.148
123206,140794,9274,-0.035,-0.974,0.143,-0.488,0.122,0.427,284.151
123206,140547,10466,-0.032,-0.979,0.146,-0.61,0,0.427,284.158
123215,140538,9274,-0.034,-0.981,0.144,-0.61,0,0.427,284.161
123215,140538,10471,-0.032,-0.98,0.142,-0.549,-0.061,0.305,284.168
123210,140538,9274,-0.034,-0.98,0.142,-0.549,-0.061,0.305,284.171
123210,140536,10484,-0.033,-0.977,0.144,-0.488,0.244,0.488,284.177
123233,140794,9274,-0.035,-0.977,0.149,-0.488,0.244,0.488,284.181
123233,140553,10485,-0.034,-0.979,0.145,-0.122,0.305,0.549,284.187
123198,140538,9274,-0.035,-0.98,0.144,-0.122,0.305,0.549,284.191
123198,140543,10475,-0.037,-0.979,0.145,-0.183,0.122,0.366,284.197
123203,140538,9274,-0.037,-0.978,0.148,-0.183,0.122,0.366,284.201
123203,140526,10471,-0.033,-0.974,0.147,-0.183,0.183,0.427,284.207
123232,140794,9274,-0.034,-0.975,0.147,-0.183,0.183,0.427,284.211
123232,140553,10480,-0.035,-0.973,0.145,-0.061,0.427,0.427,284.217
123203,140794,9274,-0.034,-0.973,0.143,-0.061,0.427,0.427,284.221
123203,140563,10480,-0.037,-0.976,0.145,0,0.427,0.427,284.227
123239,140794,9274,-0.035,-0.974,0.147,0,0.427,0.427,284.231
123239,140548,10484,-0.035,-0.975,0.149,-0.122,0.305,0.366,284.237
123232,140794,9274,-0.032,-0.971,0.146,-0.122,0.305,0.366,284.241
123232,140580,10479,-0.032,-0.972,0.148,-0.488,0.305,0.488,284.247
123233,140538,9274,-0.032,-0.977,0.15,-0.488,0.305,0.488,284.251
123233,140542,10493,-0.031,-0.977,0.151,-0.305,0.366,0.427,284.257
123201,140794,9274,-0.036,-0.979,0.147,-0.305,0.366,0.427,284.26
123201,140554,10496,-0.036,-0.981,0.145,-0.183,0.549,0.488,284.267
123237,140794,9274,-0.036,-0.979,0.147,-0.183,0.549,0.488,284.27
123237,140568,10478,-0.038,-0.978,0.148,-0.061,0.549,0.549,284.276
123216,140794,9274,-0.036,-0.978,0.146,-0.061,0.549,0.549,284.28
123216,140578,10491,-0.036,-0.979,0.141,-0.366,0.427,0.61,284.286
123234,140794,9274,-0.033,-0.978,0.141,-0.366,0.427,0.61,284.29
123234,140558,10478,-0.035,-0.98,0.138,-0.183,0.427,0.488,284.296
123227,140794,9274,-0.037,-0.98,0.144,-0.183,0.427,0.488,284.3
123227,140584,10471,-0.041,-0.979,0.147,-0.183,0.549,0.427,284.306
123231,140794,9274,-0.038,-0.975,0.143,-0.183,0.549,0.427,284.31
123231,140562,10490,-0.04,-0.975,0.143,-0.244,0.427,0.305,284.316
123228,140794,9274,-0.04,-0.976,0.148,-0.244,0.427,0.305,284.32
123228,140584,10486,-0.041,-0.978,0.149,-0.366,0.488,0.366,284.326
123246,140794,9274,-0.041,-0.98,0.151,-0.366,0.488,0.366,284.33
123246,140561,10488,-0.04,-0.979,0.144,-0.549,0.488,0.366,284.336
123234,140794,9274,-0.035,-0.975,0.144,-0.549,0.488,0.366,284.34
123234,140566,10486,-0.035,-0.974,0.145,-0.488,0.488,0.244,284.346
123253,140794,9274,-0.035,-0.977,0.151,-0.488,0.488,0.244,284.349
123253,140563,10470,-0.036,-0.977,0.151,-0.366,0.488,0.122,284.356
123237,140794,9274,-0.033,-0.972,0.149,-0.366,0.488,0.122,284.359
123237,140552,10483,-0.032,-0.972,0.149,-0.488,0.305,0.244,284.366
123254,140794,9274,-0.034,-0.974,0.146,-0.488,0.305,0.244,284.369
123254,140566,10501,-0.034,-0.974,0.146,-0.549,0.305,0.305,284.376
123240,140794,9274,-0.034,-0.974,0.146,-0.549,0.305,0.305,284.379
123240,140567,10491,-0.033,-0.978,0.149,-0.549,0.305,0.305,284.385
123237,140794,9274,-0.033,-0.978,0.149,-0.549,0.305,0.305,284.389
123237,140558,10493,-0.032,-0.975,0.151,-0.427,0.305,0.244,284.395
123254,140794,9274,-0.032,-0.975,0.151,-0.427,0.305,0.244,284.399
123254,140566,10489,-0.034,-0.971,0.146,-0.305,0.427,0.244,284.405
123224,140794,9274,-0.034,-0.971,0.146,-0.305,0.427,0.244,284.409
123224,140574,10487,-0.035,-0.975,0.149,-0.183,0.488,0.305,284.415
123234,140794,9274,-0.035,-0.975,0.149,-0.183,0.488,0.305,284.419
123234,140557,10477,-0.036,-0.971,0.146,-0.305,0.183,0.427,284.425
123244,140794,9274,-0.036,-0.971,0.146,-0.305,0.183,0.427,284.429
123244,140573,10483,-0.033,-0.974,0.149,-0.427,0.244,0.549,284.435
123257,140794,9274,-0.033,-0.974,0.149,-0.427,0.244,0.549,284.439
123257,140570,10482,-0.037,-0.98,0.142,-0.122,0.366,0.366,284.445
123259,140794,9274,-0.037,-0.98,0.142,-0.122,0.366,0.366,284.449
123259,140580,10495,-0.038,-0.982,0.147,-0.244,0.183,0.244,284.455
123252,140794,9274,-0.038,-0.982,0.147,-0.244,0.183,0.244,284.458
123252,140579,10498,-0.037,-0.978,0.142,-0.488,0.183,0.305,284.465
123262,140794,9274,-0.037,-0.978,0.142,-0.488,0.183,0.305,284.468
123262,140589,10487,-0.035,-0.979,0.141,-0.427,0.183,0.427,284.474
123262,140794,9274,-0.035,-0.979,0.141,-0.427,0.183,0.427,284.478
123262,140575,10485,-0.039,-0.98,0.14,-0.305,0.183,0.366,284.484
123265,140794,9274,-0.039,-0.98,0.14,-0.305,0.183,0.366,284.488
123265,140558,10493,-0.037,-0.975,0.144,-0.244,0.183,0.305,284.494
123254,140794,9274,-0.037,-0.975,0.144,-0.244,0.183,0.305,284.498
123254,140546,10498,-0.032,-0.975,0.145,-0.427,0.183,0.244,284.504
123237,140794,9274,-0.032,-0.975,0.145,-0.427,0.183,0.244,284.508
123237,140560,10496,-0.035,-0.976,0.142,-0.244,0.305,0.305,284.514
123266,140794,9274,-0.035,-0.976,0.142,-0.244,0.305,0.305,284.518
123266,140553,10498,-0.04,-0.978,0.146,-0.244,0.305,0.305,284.524
123252,140794,9274,-0.036,-0.977,0.142,-0.366,0.427,0.488,284.528
123252,140581,10490,-0.034,-0.977,0.147,-0.366,0.427,0.488,284.534
123270,140794,9274,-0.035,-0.976,0.149,-0.305,0.427,0.427,284.538
123270,140604,10496,-0.036,-0.976,0.148,-0.305,0.427,0.427,284.544
123248,140794,9274,-0.033,-0.976,0.146,-0.122,0.549,0.305,284.548
123248,140564,10499,-0.036,-0.977,0.147,-0.122,0.549,0.305,284.554
123259,140794,9274,-0.037,-0.973,0.144,0,0.671,0.244,284.557
123259,140576,10487,-0.036,-0.972,0.146,0,0.671,0.244,284.564
123262,140794,9274,-0.039,-0.976,0.146,-0.122,0.671,0.305,284.567
123262,140576,10501,-0.039,-0.975,0.151,-0.122,0.671,0.305,284.574
123260,140794,9274,-0.037,-0.979,0.152,-0.122,0.549,0.366,284.577
123260,140594,10495,-0.035,-0.981,0.145,-0.122,0.549,0.366,284.583
123255,140794,9274,-0.035,-0.977,0.149,-0.122,0.427,0.305,284.587
123255,140599,10488,-0.036,-0.976,0.149,-0.122,0.427,0.305,284.593
123241,140794,9274,-0.035,-0.975,0.145,0.183,0.549,0.305,284.597
123241,140602,10507,-0.036,-0.974,0.147,0.183,0.549,0.305,284.603
123262,140794,9274,-0.037,-0.977,0.148,0.366,0.61,0.305,284.607
123262,140584,10487,-0.035,-0.976,0.149,0.366,0.61,0.305,284.613
123225,140794,9274,-0.035,-0.974,0.149,0.183,0.488,0.366,284.617
123225,140592,10487,-0.036,-0.975,0.152,0.183,0.488,0.366,284.623
123249,140794,9274,-0.038,-0.974,0.151,-0.061,0.305,0.427,284.627
123249,140578,10482,-0.035,-0.976,0.144,-0.061,0.305,0.427,284.633
123222,140794,9274,-0.035,-0.973,0.145,-0.305,0.244,0.549,284.637
123222,140570,10485,-0.033,-0.977,0.143,-0.305,0.244,0.549,284.643
123232,140794,9274,-0.031,-0.978,0.142,-0.061,0.244,0.366,284.647
123232,140551,10482,-0.036,-0.979,0.143,-0.061,0.244,0.366,284.653
123215,140794,9274,-0.038,-0.98,0.143,0.366,0.366,0.244,284.656
123215,140548,10473,-0.034,-0.976,0.146,0.366,0.366,0.244,284.663
123220,140794,9274,-0.038,-0.973,0.145,-0.122,0.244,0.305,284.666
123220,140548,10482,-0.037,-0.973,0.145,-0.122,0.244,0.305,284.672
123236,140794,9274,-0.036,-0.977,0.139,-0.549,0.122,0.427,284.676
123236,140563,10478,-0.034,-0.979,0.144,-0.549,0.122,0.427,284.682
123236,140794,9274,-0.031,-0.981,0.145,-0.488,0.122,0.244,284.686
123236,140561,10491,-0.032,-0.98,0.142,-0.488,0.122,0.244,284.692
123231,140794,9274,-0.033,-0.978,0.143,-0.488,0.366,0.183,284.696
123231,140577,10493,-0.034,-0.978,0.148,-0.488,0.366,0.183,284.702
123238,140794,9274,-0.038,-0.976,0.15,-0.488,0.488,0.305,284.706
123238,140555,10480,-0.036,-0.978,0.147,-0.488,0.488,0.305,284.712
123226,140794,9274,-0.031,-0.975,0.147,-0.183,0.305,0.366,284.716
123226,140550,10478,-0.033,-0.977,0.149,-0.183,0.305,0.366,284.722
123241,140794,9274,-0.033,-0.975,0.15,-0.122,0.305,0.366,284.726
123241,140567,10487,-0.034,-0.976,0.151,-0.122,0.305,0.366,284.732
123235,140794,9274,-0.034,-0.975,0.15,0,0.366,0.488,284.736
123235,140576,10477,-0.036,-0.974,0.145,0,0.366,0.488,284.742
123252,140794,9274,-0.035,-0.975,0.143,0.122,0.305,0.427,284.746
123252,140571,10476,-0.033,-0.98,0.147,0.122,0.305,0.427,284.752
123244,140794,9274,-0.034,-0.98,0.155,0.427,0.366,0.427,284.755
123244,140566,10497,-0.033,-0.976,0.151,0.427,0.366,0.427,284.762
123259,140794,9274,-0.035,-0.97,0.148,0.305,0.305,0.427,284.765
123259,140581,10492,-0.034,-0.97,0.148,0.305,0.305,0.427,284.772
123254,140794,9274,-0.034,-0.972,0.146,-0.427,0.427,0.427,284.775
123254,140569,10475,-0.037,-0.981,0.147,-0.427,0.427,0.427,284.781
123241,140794,9274,-0.033,-0.987,0.141,-0.366,0.366,0.366,284.785
123241,140582,10484,-0.034,-0.984,0.145,-0.366,0.366,0.366,284.791
123253,140794,9274,-0.035,-0.978,0.144,-0.183,0.305,0.183,284.795
123253,140585,10480,-0.036,-0.971,0.144,-0.183,0.305,0.183,284.801
123240,140794,9274,-0.037,-0.971,0.146,0.244,0.61,0.366,284.805
123240,140556,10486,-0.036,-0.972,0.145,0.244,0.61,0.366,284.811
123255,140794,9274,-0.038,-0.974,0.144,0.427,0.61,0.488,284.815
123255,140583,10483,-0.035,-0.977,0.144,0.427,0.61,0.488,284.821
123248,140794,9274,-0.033,-0.975,0.147,0,0.305,0.488,284.825
123248,140568,10486,-0.033,-0.976,0.147,0,0.305,0.488,284.831
123241,140794,9274,-0.034,-0.977,0.146,0.183,0.305,0.549,284.835
123241,140567,10497,-0.036,-0.979,0.147,0.183,0.305,0.549,284.841
123260,140794,9274,-0.038,-0.982,0.146,0.427,0.488,0.427,284.845
123260,140571,10473,-0.037,-0.983,0.146,0.427,0.488,0.427,284.851
123223,140794,9274,-0.035,-0.98,0.147,0.244,0.488,0.427,284.854
123223,140559,10487,-0.036,-0.979,0.15,0.244,0.488,0.427,284.861
123259,140794,9274,-0.032,-0.977,0.151,0,0.366,0.427,284.864
123259,140567,10485,-0.033,-0.972,0.148,0,0.366,0.427,284.87
123217,140794,9274,-0.036,-0.971,0.148,-0.122,0.427,0.427,284.874
123217,140573,10476,-0.036,-0.972,0.144,-0.122,0.427,0.427,284.88
123244,140794,9274,-0.038,-0.975,0.145,0.122,0.366,0.427,284.884
123244,140556,10482,-0.037,-0.977,0.15,0.122,0.366,0.427,284.89
123237,140794,9274,-0.037,-0.976,0.15,0.244,0.244,0.366,284.894
123237,140564,10498,-0.032,-0.975,0.147,0.244,0.244,0.366,284.9
123234,140794,9274,-0.032,-0.972,0.145,0.305,0.305,0.366,284.904
123234,140554,10469,-0.034,-0.975,0.147,0.305,0.305,0.366,284.91
123231,140794,9274,-0.035,-0.976,0.147,0.305,0.427,0.427,284.914
123231,140564,10480,-0.037,-0.976,0.147,0.305,0.427,0.427,284.92
123244,140794,9274,-0.036,-0.975,0.146,-0.061,0.488,0.488,284.924
123244,140586,10481,-0.038,-0.977,0.146,-0.061,0.488,0.488,284.93
123263,140794,9274,-0.036,-0.979,0.147,0.366,0.366,0.427,284.934
123263,140571,10486,-0.034,-0.978,0.146,0.366,0.366,0.427,284.94
123242,140794,9274,-0.035,-0.978,0.145,0.549,0.427,0.305,284.944
123242,140582,10493,-0.036,-0.978,0.146,0.549,0.427,0.305,284.95
123256,140794,9274,-0.038,-0.975,0.146,0.183,0.549,0.427,284.953
123256,140561,10477,-0.039,-0.975,0.148,0.183,0.549,0.427,284.96
123253,140794,9274,-0.036,-0.976,0.15,0,0.305,0.305,284.963
123253,140569,10483,-0.037,-0.977,0.149,0,0.305,0.305,284.97
123257,140794,9274,-0.037,-0.977,0.149,0,0.305,0.305,284.973
123257,140579,10505,-0.036,-0.977,0.145,-0.122,0.183,0.366,284.979
123245,140794,9274,-0.036,-0.977,0.145,-0.122,0.183,0.366,284.983
123245,140555,10497,-0.036,-0.981,0.149,0.122,0.305,0.366,284.989
123274,140794,9274,-0.036,-0.981,0.149,0.122,0.305,0.366,284.993
123274,140559,10492,-0.036,-0.973,0.15,0.305,0.366,0.305,284.999
123239,140794,9274,-0.036,-0.973,0.15,0.305,0.366,0.305,285.003
123239,140544,10479,-0.032,-0.969,0.15,0.305,0.244,0.427,285.009
123246,140794,9274,-0.032,-0.969,0.15,0.305,0.244,0.427,285.013
123246,140562,10486,-0.032,-0.977,0.148,0,0.183,0.488,285.019
123251,140794,9274,-0.032,-0.977,0.148,0,0.183,0.488,285.023
123251,140549,10492,-0.032,-0.975,0.148,0,0.183,0.427,285.029
123252,140794,9274,-0.032,-0.975,0.148,0,0.183,0.427,285.033
123252,140565,10494,-0.034,-0.978,0.148,0.061,0.366,0.488,285.039
123240,140538,9274,-0.034,-0.978,0.148,0.061,0.366,0.488,285.043
123240,140539,10496,-0.033,-0.979,0.144,0.244,0.366,0.488,285.049
123242,140794,9274,-0.033,-0.979,0.144,0.244,0.366,0.488,285.052
123242,140555,10481,-0.034,-0.977,0.146,0.061,0.488,0.366,285.059
123242,140794,9274,-0.034,-0.977,0.146,0.061,0.488,0.366,285.062
123242,140557,10495,-0.034,-0.98,0.148,-0.366,0.488,0.427,285.069
123254,140794,9274,-0.034,-0.98,0.148,-0.366,0.488,0.427,285.072
123254,140584,10476,-0.034,-0.976,0.146,-0.305,0.488,0.549,285.078
123268,140794,9274,-0.034,-0.976,0.146,-0.305,0.488,0.549,285.082
123268,140578,10491,-0.039,-0.976,0.145,0.061,0.61,0.366,285.088
123257,140794,9274,-0.039,-0.976,0.145,0.061,0.61,0.366,285.092
123257,140584,10495,-0.04,-0.98,0.151,0.427,0.732,0.366,285.098
123255,140794,9274,-0.04,-0.98,0.151,0.427,0.732,0.366,285.102
123255,140572,10486,-0.038,-0.975,0.146,0.366,0.61,0.366,285.108
123253,140794,9274,-0.038,-0.975,0.146,0.366,0.61,0.366,285.112
123253,140575,10512,-0.037,-0.972,0.146,0.366,0.488,0.427,285.118
123255,140794,9274,-0.039,-0.975,0.147,0.366,0.488,0.427,285.122
123255,140570,10487,-0.039,-0.977,0.148,0.305,0.427,0.427,285.128
123256,140794,9274,-0.037,-0.975,0.148,0.305,0.427,0.427,285.132
123256,140568,10491,-0.034,-0.976,0.148,0.061,0.488,0.305,285.138
123250,140794,9274,-0.034,-0.977,0.148,0.061,0.488,0.305,285.142
123250,140581,10501,-0.034,-0.977,0.148,-0.061,0.366,0.366,285.148
123271,140794,9274,-0.033,-0.974,0.15,-0.061,0.366,0.366,285.151
123271,140562,10472,-0.034,-0.974,0.145,-0.244,0.366,0.244,285.158
123262,140794,9274,-0.034,-0.978,0.146,-0.244,0.366,0.244,285.161
123262,140576,10497,-0.032,-0.98,0.151,-0.427,0.366,0.183,285.168
123245,140794,9274,-0.033,-0.976,0.153,-0.427,0.366,0.183,285.171
123245,140583,10497,-0.032,-0.973,0.152,-0.61,0.305,0.183,285.177
123261,140794,9274,-0.03,-0.971,0.15,-0.61,0.305,0.183,285.181
123261,140564,10477,-0.032,-0.973,0.153,-0.61,0.488,0.366,285.187
123253,140794,9274,-0.033,-0.975,0.148,-0.61,0.488,0.366,285.191
123253,140569,10499,-0.034,-0.978,0.149,-0.061,0.61,0.366,285.197
123241,140794,9274,-0.033,-0.978,0.151,-0.061,0.61,0.366,285.201
123241,140571,10497,-0.035,-0.973,0.156,-0.061,0.488,0.244,285.207
123265,140794,9274,-0.036,-0.972,0.156,-0.061,0.488,0.244,285.211
123265,140577,10496,-0.035,-0.97,0.152,-0.305,0.488,0.488,285.217
123247,140794,9274,-0.039,-0.973,0.152,-0.305,0.488,0.488,285.221
123247,140594,10493,-0.041,-0.978,0.151,-0.488,0.549,0.488,285.227
123259,140794,9274,-0.038,-0.981,0.151,-0.488,0.549,0.488,285.231
123259,140579,10492,-0.041,-0.982,0.154,-0.244,0.244,0.305,285.237
123254,140794,9274,-0.04,-0.983,0.149,-0.244,0.244,0.305,285.241
123254,140571,10486,-0.038,-0.982,0.143,-0.122,0,0.244,285.247
123251,140794,9274,-0.038,-0.981,0.144,-0.122,0,0.244,285.25
123251,140566,10491,-0.038,-0.977,0.144,0.183,0.366,0.244,285.257
123266,140794,9274,-0.037,-0.976,0.146,0.183,0.366,0.244,285.26
123266,140588,10485,-0.039,-0.972,0.144,0,0.488,0.366,285.267
123233,140794,9274,-0.037,-0.974,0.143,0,0.488,0.366,285.27
123233,140607,10492,-0.038,-0.974,0.149,-0.244,0.122,0.305,285.276
123283,140794,9274,-0.038,-0.977,0.146,-0.244,0.122,0.305,285.28
123283,140587,10480,-0.036,-0.978,0.142,-0.244,0.305,0.122,285.286
123270,140794,9274,-0.036,-0.979,0.141,-0.244,0.305,0.122,285.29
123270,140586,10491,-0.036,-0.982,0.147,-0.122,0.549,0.061,285.296
123257,140794,9274,-0.039,-0.977,0.152,-0.122,0.549,0.061,285.3
123257,140593,10505,-0.036,-0.977,0.151,-0.122,0.549,0.183,285.306
123262,140794,9274,-0.037,-0.976,0.152,-0.122,0.549,0.183,285.31
123262,140590,10487,-0.034,-0.975,0.148,-0.122,0.488,0.244,285.316
123252,140794,9274,-0.032,-0.972,0.15,-0.122,0.488,0.244,285.32
123252,140560,10501,-0.033,-0.974,0.151,-0.183,0.549,0.305,285.326
123235,140794,9274,-0.033,-0.976,0.151,-0.183,0.549,0.305,285.33
123235,140588,10503,-0.031,-0.974,0.152,-0.122,0.427,0.305,285.336
123236,140794,9274,-0.03,-0.976,0.149,-0.122,0.427,0.305,285.34
123236,140574,10496,-0.035,-0.981,0.145,-0.061,0.549,0.183,285.346
123251,140794,9274,-0.035,-0.978,0.147,-0.061,0.549,0.183,285.349
123251,140588,10497,-0.035,-0.977,0.149,-0.122,0.671,0.122,285.356
123273,140794,9274,-0.037,-0.971,0.15,-0.122,0.671,0.122,285.359
123273,140549,10507,-0.034,-0.972,0.15,-0.183,0.488,0.366,285.366
123245,140794,9274,-0.032,-0.975,0.15,-0.183,0.488,0.366,285.369
123245,140591,10498,-0.032,-0.976,0.148,0.061,0.305,0.366,285.375
123235,140794,9274,-0.034,-0.976,0.15,0.061,0.305,0.366,285.379
123235,140558,10501,-0.036,-0.97,0.148,0.061,0.549,0.183,285.385
123238,140794,9274,-0.036,-0.973,0.147,0.061,0.549,0.183,285.389
123238,140554,10485,-0.034,-0.975,0.149,0.427,0.549,0.244,285.395
123227,140794,9274,-0.035,-0.975,0.149,0.427,0.549,0.244,285.399
123227,140549,10496,-0.035,-0.976,0.149,0.122,0.366,0.427,285.405
123206,140794,9274,-0.033,-0.977,0.149,0.122,0.366,0.427,285.409
123206,140544,10501,-0.035,-0.98,0.146,-0.244,0.305,0.488,285.415
123216,140538,9274,-0.038,-0.983,0.149,-0.244,0.305,0.488,285.419
123216,140536,10497,-0.036,-0.984,0.151,0,0.244,0.366,285.425
123237,140538,9274,-0.031,-0.983,0.15,0,0.244,0.366,285.429
123237,140531,10486,-0.035,-0.978,0.147,-0.122,0.244,0.183,285.435
123231,140794,9274,-0.033,-0.974,0.15,-0.122,0.244,0.183,285.439
123231,140548,10508,-0.034,-0.976,0.145,-0.305,0.427,0.122,285.445
123216,140538,9274,-0.032,-0.972,0.145,-0.305,0.427,0.122,285.448
123216,140538,10482,-0.035,-0.975,0.147,-0.488,0.305,0.244,285.455
123232,140538,9274,-0.035,-0.975,0.146,-0.488,0.305,0.244,285.458
123232,140535,10485,-0.032,-0.974,0.145,-0.427,0.366,0.305,285.465
123239,140538,9274,-0.033,-0.975,0.148,-0.427,0.366,0.305,285.468
123239,140531,10482,-0.033,-0.975,0.146,-0.549,0.549,0.427,285.474
123229,140538,9274,-0.035,-0.978,0.142,-0.549,0.549,0.427,285.478
123229,140528,10499,-0.032,-0.981,0.148,-0.244,0.549,0.488,285.484
123217,140538,9274,-0.033,-0.978,0.151,-0.244,0.549,0.488,285.488
123217,140535,10489,-0.034,-0.978,0.149,-0.244,0.488,0.366,285.494
123223,140538,9274,-0.035,-0.977,0.154,-0.244,0.488,0.366,285.498
123223,140531,10488,-0.032,-0.976,0.148,-0.244,0.488,0.427,285.504
123225,140794,9274,-0.035,-0.975,0.153,-0.244,0.488,0.427,285.508
123225,140547,10480,-0.035,-0.978,0.155,-0.183,0.366,0.488,285.514
123223,140538,9274,-0.035,-0.973,0.153,-0.183,0.366,0.488,285.518
123223,140540,10479,-0.035,-0.977,0.155,-0.305,0.244,0.366,285.524
123230,140794,9274,-0.034,-0.976,0.149,-0.305,0.244,0.366,285.528
123230,140562,10490,-0.037,-0.976,0.15,-0.366,0.061,0.366,285.534
123234,140794,9274,-0.037,-0.976,0.151,-0.366,0.061,0.366,285.538
123234,140554,10482,-0.036,-0.976,0.154,-0.488,0,0.366,285.544
123229,140794,9274,-0.038,-0.975,0.151,-0.488,0,0.366,285.547
123229,140558,10494,-0.038,-0.974,0.148,-0.61,-0.061,0.427,285.554
123237,140794,9274,-0.041,-0.974,0.145,-0.61,-0.061,0.427,285.557
123237,140551,10492,-0.039,-0.977,0.147,-0.488,0,0.488,285.564
123251,140794,9274,-0.039,-0.977,0.147,-0.488,0,0.488,285.567
123251,140567,10482,-0.041,-0.975,0.152,-0.122,0,0.366,285.573
123230,140794,9274,-0.041,-0.975,0.152,-0.122,0,0.366,285.577
123230,140548,10487,-0.036,-0.975,0.15,-0.244,-0.061,0.488,285.583
123238,140794,9274,-0.036,-0.975,0.15,-0.244,-0.061,0.488,285.587
123238,140557,10503,-0.039,-0.978,0.149,-0.183,-0.122,0.488,285.593
123235,140794,9274,-0.039,-0.978,0.149,-0.183,-0.122,0.488,285.597
123235,140566,10482,-0.034,-0.979,0.146,-0.732,0.061,0.366,285.603
123238,140794,9274,-0.034,-0.979,0.146,-0.732,0.061,0.366,285.607
123238,140577,10494,-0.036,-0.982,0.15,-0.488,0.061,0.366,285.613
123216,140794,9274,-0.036,-0.982,0.15,-0.488,0.061,0.366,285.617
123216,140562,10485,-0.036,-0.973,0.143,-0.244,0,0.183,285.623
123252,140794,9274,-0.036,-0.973,0.143,-0.244,0,0.183,285.627
123252,140593,10493,-0.037,-0.974,0.149,0.122,0.244,0.244,285.633
123245,140794,9274,-0.037,-0.974,0.149,0.122,0.244,0.244,285.637
123245,140563,10484,-0.036,-0.976,0.145,0.061,0.244,0.305,285.643
123234,140794,9274,-0.036,-0.976,0.145,0.061,0.244,0.305,285.646
123234,140566,10490,-0.033,-0.977,0.146,-0.549,0,0.427,285.653
123234,140794,9274,-0.033,-0.977,0.146,-0.549,0,0.427,285.656
123234,140553,10480,-0.035,-0.979,0.153,-0.427,0.183,0.427,285.663
123234,140794,9274,-0.035,-0.979,0.153,-0.427,0.183,0.427,285.666
123234,140564,10496,-0.036,-0.984,0.147,-0.061,0.244,0.366,285.672
123241,140794,9274,-0.036,-0.984,0.147,-0.061,0.244,0.366,285.676
123241,140572,10487,-0.031,-0.979,0.145,0.122,0.366,0.244,285.682
123241,140794,9274,-0.031,-0.979,0.145,0.122,0.366,0.244,285.686
123241,140570,10495,-0.033,-0.973,0.151,0.183,0.305,0.305,285.692
123261,140794,9274,-0.033,-0.973,0.151,0.183,0.305,0.305,285.696
123261,140564,10486,-0.034,-0.973,0.15,0.061,0.427,0.366,285.702
123243,140794,9274,-0.034,-0.973,0.15,0.061,0.427,0.366,285.706
123243,140579,10500,-0.036,-0.973,0.153,0.061,0.427,0.366,285.712
123247,140794,9274,-0.034,-0.978,0.149,-0.061,0.427,0.305,285.716
123247,140549,10511,-0.033,-0.979,0.149,-0.061,0.427,0.305,285.722
123247,140794,9274,-0.031,-0.974,0.151,-0.366,0.488,0.366,285.726
123247,140571,10491,-0.032,-0.974,0.152,-0.366,0.488,0.366,285.732
123260,140794,9274,-0.03,-0.978,0.144,-0.183,0.427,0.366,285.736
123260,140565,10491,-0.032,-0.975,0.147,-0.183,0.427,0.366,285.742
123256,140794,9274,-0.033,-0.976,0.153,0.183,0.488,0.366,285.746
123256,140580,10504,-0.035,-0.975,0.15,0.183,0.488,0.366,285.752
123267,140794,9274,-0.035,-0.974,0.149,0.122,0.488,0.488,285.755
123267,140559,10489,-0.033,-0.972,0.149,0.122,0.488,0.488,285.762
123255,140794,9274,-0.032,-0.976,0.146,-0.183,0.488,0.61,285.765
123255,140569,10501,-0.033,-0.974,0.145,-0.183,0.488,0.61,285.771
123250,140794,9274,-0.034,-0.978,0.145,-0.122,0.488,0.549,285.775
123250,140562,10490,-0.034,-0.98,0.143,-0.122,0.488,0.549,285.781
123237,140794,9274,-0.033,-0.979,0.146,-0.061,0.61,0.549,285.785
123237,140568,10498,-0.035,-0.981,0.15,-0.061,0.61,0.549,285.791
123246,140794,9274,-0.034,-0.979,0.149,-0.183,0.549,0.488,285.795
123246,140589,10495,-0.033,-0.981,0.149,-0.183,0.549,0.488,285.801
123239,140794,9274,-0.035,-0.976,0.15,-0.244,0.488,0.488,285.805
123239,140552,10488,-0.035,-0.976,0.153,-0.244,0.488,0.488,285.811
123261,140794,9274,-0.037,-0.978,0.155,-0.305,0.488,0.427,285.815
123261,140569,10488,-0.038,-0.975,0.153,-0.305,0.488,0.427,285.821
123227,140794,9274,-0.037,-0.975,0.152,-0.061,0.366,0.427,285.825
123227,140545,10484,-0.035,-0.975,0.15,-0.061,0.366,0.427,285.831
123229,140794,9274,-0.034,-0.969,0.147,0.183,0.366,0.305,285.835
123229,140582,10490,-0.036,-0.968,0.149,0.183,0.366,0.305,285.841
123250,140794,9274,-0.037,-0.974,0.15,-0.061,0.427,0.488,285.845
123250,140549,10495,-0.038,-0.974,0.149,-0.061,0.427,0.488,285.851
123223,140538,9274,-0.041,-0.974,0.152,-0.366,0.549,0.61,285.854
123223,140534,10484,-0.04,-0.979,0.148,-0.366,0.549,0.61,285.861
123223,140538,9274,-0.04,-0.981,0.147,-0.244,0.61,0.671,285.864
123223,140536,10475,-0.038,-0.975,0.146,-0.244,0.61,0.671,285.87
123212,140538,9274,-0.036,-0.976,0.146,0,0.61,0.61,285.874
123212,140538,10479,-0.036,-0.979,0.145,0,0.61,0.61,285.88
123249,140794,9274,-0.035,-0.981,0.15,0.244,0.793,0.488,285.884
123249,140548,10500,-0.036,-0.981,0.146,0.244,0.793,0.488,285.89
123235,140794,9274,-0.037,-0.981,0.149,0.061,0.915,0.366,285.894
123235,140556,10499,-0.036,-0.975,0.15,0.061,0.915,0.366,285.9
123247,140794,9274,-0.036,-0.977,0.148,-0.061,0.793,0.305,285.904
123247,140565,10486,-0.039,-0.979,0.152,-0.061,0.793,0.305,285.91
123251,140794,9274,-0.039,-0.981,0.152,0,0.671,0.305,285.914
123251,140568,10499,-0.035,-0.979,0.147,0,0.671,0.305,285.92
123265,140794,9274,-0.038,-0.98,0.146,-0.122,0.488,0.244,285.924
123265,140574,10489,-0.04,-0.978,0.148,-0.122,0.488,0.244,285.93
123242,140794,9274,-0.039,-0.974,0.145,0.366,0.488,0.305,285.934
123242,140573,10501,-0.036,-0.971,0.15,0.366,0.488,0.305,285.94
123241,140794,9274,-0.035,-0.97,0.155,0.305,0.488,0.305,285.944
123241,140544,10469,-0.036,-0.97,0.151,0.305,0.488,0.305,285.95
123242,140794,9274,-0.035,-0.972,0.143,-0.183,0.305,0.366,285.953
123242,140571,10492,-0.034,-0.977,0.146,-0.183,0.305,0.366,285.96
123233,140794,9274,-0.031,-0.982,0.149,-0.488,0.244,0.305,285.963
123233,140544,10491,-0.036,-0.979,0.148,-0.488,0.244,0.305,285.97
123243,140794,9274,-0.033,-0.976,0.149,-0.61,0.427,0.183,285.973
123243,140545,10496,-0.029,-0.975,0.15,-0.61,0.427,0.183,285.979
123228,140794,9274,-0.03,-0.971,0.148,-0.061,0.427,0.244,285.983
123228,140544,10494,-0.032,-0.973,0.152,-0.061,0.427,0.244,285.989
123229,140794,9274,-0.033,-0.977,0.156,0,0.366,0.305,285.993
123229,140555,10484,-0.033,-0.976,0.156,0,0.366,0.305,285.999
123254,140538,9274,-0.031,-0.973,0.15,-0.427,0.305,0.366,286.003
123254,140539,10488,-0.033,-0.972,0.155,-0.427,0.305,0.366,286.009
123258,140794,9274,-0.039,-0.973,0.158,-0.61,0.183,0.427,286.013
123258,140571,10477,-0.038,-0.976,0.156,-0.61,0.183,0.427,286.019
123260,140794,9274,-0.036,-0.98,0.152,-0.488,0.305,0.366,286.023
123260,140577,10494,-0.037,-0.978,0.149,-0.488,0.305,0.366,286.029
123235,140794,9274,-0.036,-0.975,0.147,-0.244,0.305,0.366,286.033
123235,140583,10498,-0.039,-0.975,0.146,-0.244,0.305,0.366,286.039
123254,140794,9274,-0.04,-0.977,0.146,0.183,0.244,0.366,286.043
123254,140570,10483,-0.04,-0.973,0.146,0.183,0.244,0.366,286.049
123249,140794,9274,-0.037,-0.977,0.15,0.305,0.244,0.427,286.052
123249,140574,10495,-0.034,-0.978,0.147,0.305,0.244,0.427,286.059
123265,140794,9274,-0.035,-0.976,0.145,0.122,0.183,0.549,286.062
123265,140561,10486,-0.035,-0.978,0.146,0.122,0.183,0.549,286.069
123253,140794,9274,-0.036,-0.984,0.143,-0.122,0.366,0.488,286.072
123253,140553,10496,-0.034,-0.98,0.143,-0.122,0.366,0.488,286.078
123269,140794,9274,-0.036,-0.98,0.145,-0.305,0.366,0.427,286.082
123269,140563,10491,-0.034,-0.981,0.149,-0.305,0.366,0.427,286.088
123244,140794,9274,-0.032,-0.976,0.144,-0.366,0.427,0.427,286.092
123244,140561,10478,-0.032,-0.975,0.147,-0.366,0.427,0.427,286.098
123254,140794,9274,-0.036,-0.974,0.153,-0.061,0.671,0.366,286.102
123254,140570,10497,-0.036,-0.975,0.153,-0.061,0.671,0.366,286.108
123247,140794,9274,-0.037,-0.973,0.15,-0.183,0.549,0.305,286.112
123247,140571,10501,-0.035,-0.975,0.148,-0.183,0.549,0.305,286.118
123276,140794,9274,-0.038,-0.977,0.149,-0.122,0.305,0.305,286.122
123276,140558,10501,-0.038,-0.977,0.153,-0.122,0.305,0.305,286.128
123243,140794,9274,-0.036,-0.979,0.152,-0.305,0.305,0.305,286.132
123243,140554,10481,-0.036,-0.977,0.149,-0.305,0.305,0.305,286.138
123245,140794,9274,-0.036,-0.975,0.148,-0.366,0.244,0.305,286.142
123245,140559,10487,-0.035,-0.97,0.148,-0.366,0.244,0.305,286.148
123255,140794,9274,-0.038,-0.973,0.15,0.061,0.305,0.305,286.151
123255,140571,10498,-0.037,-0.974,0.147,0.061,0.305,0.305,286.158
123250,140794,9274,-0.037,-0.974,0.147,0.061,0.305,0.305,286.161
123250,140566,10487,-0.037,-0.97,0.151,0.244,0.549,0.183,286.168
123247,140794,9274,-0.037,-0.97,0.151,0.244,0.549,0.183,286.171
123247,140554,10480,-0.032,-0.976,0.151,-0.427,0.61,0.244,286.177
123243,140794,9274,-0.032,-0.976,0.151,-0.427,0.61,0.244,286.181
123243,140550,10485,-0.032,-0.981,0.15,-0.427,0.427,0.305,286.187
123226,140794,9274,-0.032,-0.981,0.15,-0.427,0.427,0.305,286.191
123226,140552,10478,-0.035,-0.976,0.154,-0.061,0.488,0.305,286.197
123218,140538,9274,-0.035,-0.976,0.154,-0.061,0.488,0.305,286.201
123218,140529,10493,-0.036,-0.975,0.152,0.244,0.549,0.488,286.207
123231,140538,9274,-0.036,-0.975,0.152,0.244,0.549,0.488,286.211
123231,140527,10480,-0.034,-0.98,0.152,0.183,0.488,0.488,286.217
123206,140538,9274,-0.034,-0.98,0.152,0.183,0.488,0.488,286.221
123206,140543,10489,-0.034,-0.98,0.149,0.244,0.427,0.244,286.227
123209,140538,9274,-0.034,-0.98,0.149,0.244,0.427,0.244,286.231
123209,140519,10486,-0.038,-0.975,0.147,0.061,0.366,0.244,286.237
123211,140538,9274,-0.038,-0.975,0.147,0.061,0.366,0.244,286.241
123211,140541,10492,-0.034,-0.977,0.145,-0.244,0.305,0.305,286.247
123221,140538,9274,-0.034,-0.977,0.145,-0.244,0.305,0.305,286.25
123221,140525,10479,-0.035,-0.979,0.142,-0.732,0.305,0.183,286.257
123200,140538,9274,-0.035,-0.979,0.142,-0.732,0.305,0.183,286.26
123200,140518,10477,-0.036,-0.972,0.146,-0.915,0.366,0.183,286.267
123191,140538,9274,-0.036,-0.972,0.146,-0.915,0.366,0.183,286.27
123191,140512,10479,-0.034,-0.973,0.153,-0.488,0.305,0.366,286.276
123219,140538,9274,-0.034,-0.973,0.153,-0.488,0.305,0.366,286.28
123219,140507,10479,-0.035,-0.975,0.148,-0.244,0.427,0.305,286.286
123219,140538,9274,-0.035,-0.975,0.148,-0.244,0.427,0.305,286.29
123219,140525,10473,-0.036,-0.972,0.153,-0.183,0.61,0.366,286.296
123199,140538,9274,-0.036,-0.972,0.153,-0.183,0.61,0.366,286.3
123199,140536,10492,-0.035,-0.974,0.152,-0.244,0.61,0.366,286.306
123211,140538,9274,-0.034,-0.974,0.154,-0.244,0.61,0.366,286.31
123211,140532,10466,-0.031,-0.978,0.153,-0.732,0.549,0.427,286.316
123221,140538,9274,-0.034,-0.976,0.148,-0.732,0.549,0.427,286.32
123221,140511,10488,-0.036,-0.976,0.152,-0.427,0.549,0.427,286.326
123209,140538,9274,-0.035,-0.978,0.153,-0.427,0.549,0.427,286.33
123209,140541,10490,-0.035,-0.974,0.151,-0.183,0.488,0.366,286.336
123218,140538,9274,-0.034,-0.976,0.151,-0.183,0.488,0.366,286.34
123218,140538,10484,-0.036,-0.976,0.15,-0.183,0.244,0.305,286.346
123236,140794,9274,-0.037,-0.977,0.15,-0.183,0.244,0.305,286.349
123236,140558,10471,-0.036,-0.978,0.15,-0.244,0.366,0.183,286.356
123243,140794,9274,-0.036,-0.975,0.15,-0.244,0.366,0.183,286.359
123243,140558,10480,-0.036,-0.976,0.148,-0.427,0.427,0.305,286.366
123229,140794,9274,-0.037,-0.98,0.149,-0.427,0.427,0.305,286.369
123229,140564,10478,-0.037,-0.98,0.147,-0.366,0.244,0.305,286.375
123230,140538,9274,-0.035,-0.976,0.144,-0.366,0.244,0.305,286.379
123230,140541,10497,-0.034,-0.975,0.149,-0.183,0.366,0.366,286.385
123252,140794,9274,-0.033,-0.974,0.149,-0.183,0.366,0.366,286.389
123252,140553,10481,-0.034,-0.973,0.15,-0.061,0.488,0.366,286.395
123252,140538,9274,-0.036,-0.974,0.153,-0.061,0.488,0.366,286.399
123252,140542,10482,-0.035,-0.977,0.148,-0.183,0.427,0.427,286.405
123228,140538,9274,-0.033,-0.982,0.146,-0.183,0.427,0.427,286.409
123228,140535,10501,-0.036,-0.981,0.147,-0.427,0.366,0.488,286.415
123223,140538,9274,-0.036,-0.982,0.145,-0.427,0.366,0.488,286.419
123223,140520,10479,-0.033,-0.979,0.144,-0.122,0.244,0.427,286.425
123232,140538,9274,-0.034,-0.973,0.15,-0.122,0.244,0.427,286.429
123232,140530,10490,-0.037,-0.968,0.15,0.244,0.427,0.427,286.435
123230,140538,9274,-0.04,-0.97,0.148,0.244,0.427,0.427,286.439
123230,140540,10472,-0.041,-0.973,0.146,-0.061,0.488,0.427,286.445
123238,140538,9274,-0.04,-0.978,0.15,-0.061,0.488,0.427,286.448
123238,140531,10489,-0.037,-0.978,0.149,-0.549,0.183,0.366,286.455
123226,140538,9274,-0.035,-0.978,0.15,-0.549,0.183,0.366,286.458
123226,140527,10472,-0.037,-0.979,0.151,-0.976,0.061,0.366,286.465
123249,140538,9274,-0.035,-0.976,0.153,-0.976,0.061,0.366,286.468
123249,140541,10478,-0.033,-0.973,0.148,-1.037,0.183,0.305,286.474
123210,140794,9274,-0.031,-0.974,0.15,-1.037,0.183,0.305,286.478
123210,140554,10485,-0.037,-0.978,0.153,-0.61,0.122,0.366,286.484
123226,140538,9274,-0.036,-0.975,0.151,-0.61,0.122,0.366,286.488
123226,140529,10476,-0.037,-0.976,0.149,-0.549,0.061,0.305,286.494
123217,140538,9274,-0.037,-0.978,0.153,-0.549,0.061,0.305,286.498
123217,140536,10481,-0.037,-0.975,0.153,-0.366,0.061,0.305,286.504
123243,140538,9274,-0.035,-0.977,0.153,-0.366,0.061,0.305,286.508
123243,140530,10478,-0.034,-0.975,0.151,-0.305,0.061,0.366,286.514
123221,140538,9274,-0.036,-0.972,0.151,-0.305,0.061,0.366,286.518
123221,140515,10489,-0.034,-0.974,0.147,-0.366,0.122,0.427,286.524
123243,140794,9274,-0.032,-0.976,0.148,-0.366,0.122,0.427,286.528
123243,140561,10477,-0.036,-0.976,0.141,-0.244,0.183,0.366,286.534
123216,140794,9274,-0.034,-0.98,0.143,-0.244,0.183,0.366,286.538
123216,140556,10493,-0.029,-0.982,0.145,-0.183,0.183,0.305,286.544
123235,140538,9274,-0.034,-0.978,0.142,-0.183,0.183,0.305,286.547
123235,140533,10470,-0.034,-0.977,0.143,-0.244,0.305,0.427,286.554
123219,140794,9274,-0.035,-0.976,0.143,-0.244,0.305,0.427,286.557
123219,140544,10482,-0.033,-0.977,0.144,0.122,0.366,0.366,286.564
123243,140794,9274,-0.032,-0.976,0.142,0.122,0.366,0.366,286.567
123243,140552,10495,-0.033,-0.974,0.147,-0.183,0.366,0.244,286.573
123229,140538,9274,-0.033,-0.974,0.151,-0.183,0.366,0.244,286.577
123229,140537,10473,-0.034,-0.974,0.15,-0.549,0.61,0.366,286.583
123198,140794,9274,-0.031,-0.977,0.149,-0.549,0.61,0.366,286.587
123198,140552,10481,-0.032,-0.978,0.148,-0.671,0.549,0.366,286.593
123226,140538,9274,-0.034,-0.975,0.146,-0.671,0.549,0.366,286.597
123226,140529,10483,-0.035,-0.978,0.148,-0.671,0.427,0.305,286.603
123223,140538,9274,-0.036,-0.979,0.151,-0.671,0.427,0.305,286.607
123223,140542,10487,-0.036,-0.975,0.148,-0.427,0.427,0.305,286.613
123216,140794,9274,-0.034,-0.976,0.149,-0.427,0.427,0.305,286.617
123216,140566,10487,-0.033,-0.976,0.15,-0.305,0.488,0.427,286.623
123239,140538,9274,-0.033,-0.974,0.154,-0.305,0.488,0.427,286.627
123239,140532,10482,-0.035,-0.972,0.15,-0.305,0.549,0.427,286.633
123223,140538,9274,-0.033,-0.97,0.147,-0.305,0.549,0.427,286.637
123223,140534,10484,-0.033,-0.972,0.145,-0.488,0.488,0.488,286.643
123244,140538,9274,-0.034,-0.977,0.148,-0.488,0.488,0.488,286.646
123244,140538,10482,-0.033,-0.977,0.153,-0.305,0.305,0.488,286.653
123222,140538,9274,-0.033,-0.978,0.15,-0.305,0.305,0.488,286.656
123222,140523,10482,-0.034,-0.978,0.146,-0.305,0.488,0.427,286.663
123239,140538,9274,-0.035,-0.976,0.146,-0.305,0.488,0.427,286.666
123239,140522,10483,-0.034,-0.974,0.147,-0.122,0.671,0.427,286.672
123233,140538,9274,-0.036,-0.975,0.146,-0.122,0.671,0.427,286.676
123233,140534,10493,-0.036,-0.976,0.149,0,0.61,0.488,286.682
123230,140538,9274,-0.036,-0.98,0.15,0,0.61,0.488,286.686
123230,140541,10481,-0.036,-0.977,0.152,-0.183,0.488,0.427,286.692
123249,140538,9274,-0.033,-0.975,0.145,-0.183,0.488,0.427,286.696
123249,140538,10478,-0.034,-0.974,0.147,-0.61,0.549,0.488,286.702
123244,140538,9274,-0.035,-0.976,0.151,-0.61,0.549,0.488,286.706
123244,140539,10495,-0.034,-0.977,0.148,-0.122,0.732,0.549,286.712
123248,140538,9274,-0.035,-0.977,0.147,-0.122,0.732,0.549,286.716
123248,140535,10493,-0.036,-0.977,0.147,0,0.793,0.488,286.722
123241,140794,9274,-0.041,-0.975,0.148,0,0.793,0.488,286.726
123241,140545,10483,-0.04,-0.976,0.15,0.061,0.732,0.549,286.732
123255,140538,9274,-0.035,-0.976,0.147,0.061,0.732,0.549,286.736
123255,140532,10502,-0.038,-0.977,0.145,-0.183,0.671,0.61,286.742
123232,140794,9274,-0.04,-0.977,0.145,-0.183,0.671,0.61,286.746
123232,140558,10493,-0.04,-0.983,0.144,-0.305,0.61,0.488,286.752
123247,140794,9274,-0.04,-0.983,0.144,-0.305,0.61,0.488,286.755
123247,140552,10477,-0.037,-0.979,0.143,-0.366,0.488,0.305,286.762
123238,140794,9274,-0.037,-0.979,0.143,-0.366,0.488,0.305,286.765
123238,140570,10489,-0.033,-0.978,0.148,0,0.61,0.366,286.771
123262,140794,9274,-0.033,-0.978,0.148,0,0.61,0.366,286.775
123262,140570,10481,-0.034,-0.969,0.149,-0.244,0.671,0.366,286.781
123256,140794,9274,-0.034,-0.969,0.149,-0.244,0.671,0.366,286.785
123256,140581,10486,-0.035,-0.976,0.152,-0.915,0.671,0.305,286.791
123268,140794,9274,-0.035,-0.976,0.152,-0.915,0.671,0.305,286.795
123268,140579,10481,-0.033,-0.981,0.15,-1.159,0.488,0.244,286.801
123268,140794,9274,-0.033,-0.981,0.15,-1.159,0.488,0.244,286.805
123268,140567,10494,-0.031,-0.972,0.156,-0.732,0.427,0.244,286.811
123264,140794,9274,-0.031,-0.972,0.156,-0.732,0.427,0.244,286.815
123264,140584,10488,-0.034,-0.97,0.153,-0.244,0.61,0.366,286.821
123271,140794,9274,-0.034,-0.97,0.153,-0.244,0.61,0.366,286.825
123271,140577,10487,-0.036,-0.973,0.153,-0.305,0.549,0.427,286.831
123276,140794,9274,-0.036,-0.973,0.153,-0.305,0.549,0.427,286.835
123276,140583,10492,-0.033,-0.975,0.152,-0.488,0.122,0.366,286.841
123275,140794,9274,-0.033,-0.975,0.152,-0.488,0.122,0.366,286.845
123275,140596,10483,-0.037,-0.979,0.149,-0.61,0,0.427,286.851
123282,140794,9274,-0.037,-0.979,0.149,-0.61,0,0.427,286.854
123282,140574,10484,-0.038,-0.977,0.147,-0.488,0.122,0.427,286.861
123310,140794,9274,-0.038,-0.977,0.147,-0.488,0.122,0.427,286.864
123310,140580,10487,-0.037,-0.976,0.146,-0.427,0,0.427,286.87
123273,140794,9274,-0.037,-0.976,0.146,-0.427,0,0.427,286.874
123273,140574,10493,-0.036,-0.973,0.144,-0.427,0.061,0.427,286.88
123281,140794,9274,-0.036,-0.973,0.144,-0.427,0.061,0.427,286.884
123281,140588,10494,-0.036,-0.982,0.15,-0.305,0,0.305,286.89
123275,140794,9274,-0.036,-0.982,0.15,-0.305,0,0.305,286.894
123275,140593,10491,-0.036,-0.98,0.147,-0.305,0,0.305,286.9
123274,140794,9274,-0.04,-0.976,0.147,-0.549,0,0.366,286.904
123274,140583,10485,-0.035,-0.978,0.143,-0.549,0,0.366,286.91
123282,140794,9274,-0.036,-0.979,0.147,-0.61,0.122,0.366,286.914
123282,140579,10482,-0.036,-0.979,0.146,-0.61,0.122,0.366,286.92
123284,140794,9274,-0.037,-0.98,0.143,-0.732,0.183,0.244,286.924
123284,140585,10497,-0.035,-0.981,0.145,-0.732,0.183,0.244,286.93
123269,140794,9274,-0.037,-0.98,0.149,-0.61,0.183,0.244,286.934
123269,140596,10498,-0.037,-0.973,0.149,-0.61,0.183,0.244,286.94
123278,140794,9274,-0.036,-0.975,0.146,-0.549,0.366,0.244,286.944
123278,140597,10477,-0.036,-0.975,0.147,-0.549,0.366,0.244,286.95
123281,140794,9274,-0.036,-0.973,0.146,-0.549,0.305,0.244,286.953
123281,140595,10492,-0.036,-0.976,0.147,-0.549,0.305,0.244,286.96
123281,140794,9274,-0.034,-0.976,0.15,-0.305,0.183,0.305,286.963
123281,140583,10488,-0.033,-0.973,0.151,-0.305,0.183,0.305,286.97
123280,140794,9274,-0.031,-0.973,0.153,-0.366,0.122,0.305,286.973
123280,140575,10505,-0.031,-0.97,0.145,-0.366,0.122,0.305,286.979
123283,140794,9274,-0.031,-0.974,0.148,-0.488,0.244,0.305,286.983
123283,140578,10493,-0.031,-0.978,0.146,-0.488,0.244,0.305,286.989
123286,140794,9274,-0.032,-0.979,0.149,-0.427,0.366,0.244,286.993
123286,140574,10504,-0.031,-0.979,0.149,-0.427,0.366,0.244,286.999
123278,140538,9274,-0.03,-0.977,0.15,-0.427,0.305,0.366,287.003
123278,140543,10476,-0.032,-0.976,0.148,-0.427,0.305,0.366,287.009
123287,140794,9274,-0.032,-0.974,0.149,-0.244,0.427,0.366,287.013
123287,140567,10487,-0.036,-0.974,0.152,-0.244,0.427,0.366,287.019
123266,140794,9274,-0.036,-0.975,0.147,-0.061,0.61,0.488,287.023
123266,140552,10493,-0.037,-0.972,0.148,-0.061,0.61,0.488,287.029
123271,140794,9274,-0.039,-0.974,0.15,-0.488,0.427,0.488,287.033
123271,140566,10490,-0.035,-0.978,0.147,-0.488,0.427,0.488,287.039
123268,140794,9274,-0.034,-0.982,0.147,-0.61,0.427,0.427,287.043
123268,140547,10501,-0.037,-0.981,0.146,-0.61,0.427,0.427,287.049
123249,140538,9274,-0.037,-0.979,0.146,-0.549,0.549,0.305,287.052
123249,140534,10487,-0.038,-0.976,0.147,-0.549,0.549,0.305,287.059
123242,140538,9274,-0.036,-0.977,0.147,-0.671,0.488,0.427,287.062
123242,140529,10479,-0.036,-0.981,0.146,-0.671,0.488,0.427,287.069
123259,140538,9274,-0.034,-0.981,0.142,-0.61,0.366,0.305,287.072
123259,140531,10496,-0.034,-0.98,0.143,-0.61,0.366,0.305,287.078
123240,140538,9274,-0.039,-0.978,0.145,-0.488,0.305,0.244,287.082
123240,140535,10483,-0.037,-0.974,0.145,-0.488,0.305,0.244,287.088
123243,140538,9274,-0.036,-0.973,0.144,-0.305,0.549,0.244,287.092
123243,140524,10468,-0.036,-0.975,0.146,-0.305,0.549,0.244,287.098
123228,140538,9274,-0.034,-0.978,0.147,-0.122,0.427,0.305,287.102
123228,140488,10481,-0.037,-0.975,0.142,-0.122,0.427,0.305,287.108
123217,140538,9274,-0.036,-0.973,0.143,-0.61,0.366,0.305,287.112
123217,140524,10489,-0.037,-0.976,0.146,-0.61,0.366,0.305,287.118
123245,140538,9274,-0.036,-0.978,0.152,-0.854,0.366,0.305,287.122
123245,140539,10474,-0.032,-0.98,0.154,-0.854,0.366,0.305,287.128
123243,140538,9274,-0.036,-0.978,0.152,-0.976,0.305,0.244,287.132
123243,140538,10498,-0.034,-0.977,0.148,-0.976,0.305,0.244,287.138
123255,140538,9274,-0.032,-0.978,0.149,-0.915,0.427,0.244,287.142
123255,140539,10480,-0.036,-0.975,0.151,-0.915,0.427,0.244,287.148
123256,140538,9274,-0.035,-0.973,0.151,-0.366,0.427,0.244,287.151
123256,140538,10495,-0.037,-0.973,0.146,-0.366,0.427,0.244,287.158
123288,140794,9274,-0.035,-0.971,0.148,-0.427,0.122,0.366,287.161
123288,140553,10499,-0.037,-0.974,0.148,-0.427,0.122,0.366,287.168
123249,140794,9274,-0.036,-0.974,0.146,-0.793,-0.061,0.427,287.171
123249,140554,10471,-0.038,-0.975,0.147,-0.793,-0.061,0.427,287.177
123288,140794,9274,-0.035,-0.978,0.144,-0.793,0.061,0.427,287.181
123288,140569,10484,-0.036,-0.979,0.145,-0.793,0.061,0.427,287.187
123277,140794,9274,-0.033,-0.979,0.142,-0.732,0.183,0.366,287.191
123277,140549,10485,-0.035,-0.978,0.143,-0.732,0.183,0.366,287.197
123271,140794,9274,-0.039,-0.979,0.147,-0.549,0.061,0.366,287.201
123271,140566,10484,-0.035,-0.977,0.146,-0.549,0.061,0.366,287.207
123283,140794,9274,-0.035,-0.978,0.151,-0.366,0.183,0.305,287.211
123283,140558,10484,-0.037,-0.978,0.144,-0.366,0.183,0.305,287.217
123273,140794,9274,-0.036,-0.977,0.138,-0.366,0.183,0.305,287.221
123273,140553,10473,-0.037,-0.977,0.146,-0.366,0.183,0.305,287.227
123274,140538,9274,-0.036,-0.978,0.145,-0.427,0.183,0.305,287.231
123274,140534,10484,-0.036,-0.978,0.146,-0.427,0.183,0.305,287.237
123269,140794,9274,-0.035,-0.975,0.148,-0.427,0.061,0.366,287.241
123269,140573,10484,-0.034,-0.974,0.147,-0.427,0.061,0.366,287.247
123265,140794,9274,-0.038,-0.976,0.149,-0.793,0.183,0.427,287.25
123265,140570,10496,-0.037,-0.979,0.148,-0.793,0.183,0.427,287.257
123262,140794,9274,-0.038,-0.977,0.146,-0.793,0.183,0.305,287.26
123262,140576,10473,-0.038,-0.979,0.147,-0.793,0.183,0.305,287.267
123276,140794,9274,-0.039,-0.978,0.147,-0.854,-0.061,0.305,287.27
123276,140558,10487,-0.039,-0.977,0.149,-0.854,-0.061,0.305,287.276
123281,140794,9274,-0.038,-0.974,0.147,-0.671,0,0.366,287.28
123281,140563,10476,-0.04,-0.976,0.141,-0.671,0,0.366,287.286
123279,140794,9274,-0.035,-0.974,0.144,-0.366,0.183,0.244,287.29
123279,140563,10474,-0.036,-0.975,0.144,-0.366,0.183,0.244,287.296
123257,140794,9274,-0.038,-0.979,0.144,-0.244,0.122,0.305,287.3
123257,140554,10494,-0.037,-0.985,0.146,-0.244,0.122,0.305,287.306
123264,140794,9274,-0.037,-0.979,0.146,-0.427,0,0.366,287.31
123264,140570,10474,-0.037,-0.975,0.142,-0.427,0,0.366,287.316
123277,140794,9274,-0.033,-0.974,0.143,-0.549,0.061,0.305,287.32
123277,140565,10496,-0.034,-0.98,0.145,-0.549,0.061,0.305,287.326
123269,140794,9274,-0.037,-0.978,0.149,-0.122,0.244,0.305,287.33
123269,140569,10472,-0.035,-0.977,0.147,-0.122,0.244,0.305,287.336
123300,140794,9274,-0.035,-0.979,0.146,-0.244,0.061,0.305,287.34
123300,140576,10504,-0.033,-0.978,0.149,-0.244,0.061,0.305,287.346
123281,140794,9274,-0.033,-0.973,0.145,-0.488,0.061,0.305,287.349
123281,140582,10493,-0.033,-0.973,0.147,-0.488,0.061,0.305,287.356
123282,140794,9274,-0.033,-0.973,0.147,-0.488,0.061,0.305,287.359
123282,140571,10494,-0.037,-0.979,0.148,-0.793,0.244,0.366,287.366
123272,140794,9274,-0.037,-0.979,0.148,-0.793,0.244,0.366,287.369
123272,140565,10490,-0.036,-0.979,0.147,-0.61,0.061,0.244,287.375
123282,140794,9274,-0.036,-0.979,0.147,-0.61,0.061,0.244,287.379
123282,140573,10493,-0.035,-0.978,0.142,-0.488,0.061,0.122,287.385
123286,140794,9274,-0.035,-0.978,0.142,-0.488,0.061,0.122,287.389
123286,140574,10476,-0.036,-0.975,0.145,-0.122,0.244,0.244,287.395
123258,140794,9274,-0.036,-0.975,0.145,-0.122,0.244,0.244,287.399
123258,140556,10481,-0.034,-0.972,0.146,-0.366,0,0.305,287.405
123261,140794,9274,-0.034,-0.972,0.146,-0.366,0,0.305,287.409
123261,140558,10470,-0.033,-0.978,0.145,-0.549,0.061,0.427,287.415
123265,140794,9274,-0.033,-0.978,0.145,-0.549,0.061,0.427,287.419
123265,140556,10476,-0.033,-0.979,0.142,-0.183,0.122,0.427,287.425
123244,140794,9274,-0.033,-0.979,0.142,-0.183,0.122,0.427,287.429
123244,140558,10489,-0.038,-0.981,0.146,-0.366,0.183,0.305,287.435
123248,140538,9274,-0.038,-0.981,0.146,-0.366,0.183,0.305,287.439
123248,140524,10474,-0.03,-0.973,0.142,-0.488,0.305,0.244,287.445
123245,140538,9274,-0.03,-0.973,0.142,-0.488,0.305,0.244,287.449
123245,140540,10486,-0.035,-0.973,0.151,-0.427,0.244,0.244,287.455
123274,140794,9274,-0.035,-0.973,0.151,-0.427,0.244,0.244,287.458
123274,140564,10482,-0.032,-0.974,0.145,-0.366,0.305,0.427,287.465
123265,140794,9274,-0.032,-0.974,0.145,-0.366,0.305,0.427,287.468
123265,140548,10477,-0.033,-0.977,0.144,-0.549,0.366,0.427,287.474
123284,140794,9274,-0.033,-0.977,0.144,-0.549,0.366,0.427,287.478
123284,140559,10480,-0.034,-0.977,0.142,-0.488,0.488,0.305,287.484
123274,140794,9274,-0.034,-0.977,0.142,-0.488,0.488,0.305,287.488
123274,140557,10478,-0.035,-0.977,0.144,-0.061,0.549,0.305,287.494
123266,140794,9274,-0.035,-0.977,0.144,-0.061,0.549,0.305,287.498
123266,140557,10484,-0.033,-0.974,0.148,-0.061,0.488,0.427,287.504
123280,140794,9274,-0.034,-0.972,0.147,-0.061,0.488,0.427,287.508
123280,140557,10491,-0.034,-0.975,0.142,-0.122,0.427,0.488,287.514
123282,140538,9274,-0.033,-0.979,0.144,-0.122,0.427,0.488,287.518
123282,140540,10483,-0.034,-0.979,0.141,-0.061,0.671,0.61,287.524
123278,140794,9274,-0.039,-0.981,0.14,-0.061,0.671,0.61,287.528
123278,140561,10486,-0.039,-0.984,0.144,-0.061,0.854,0.549,287.534
123301,140794,9274,-0.037,-0.984,0.14,-0.061,0.854,0.549,287.538
123301,140555,10490,-0.039,-0.982,0.143,0.061,0.732,0.366,287.544
123269,140794,9274,-0.036,-0.978,0.143,0.061,0.732,0.366,287.548
123269,140556,10486,-0.038,-0.976,0.142,0.183,0.732,0.366,287.554
123272,140794,9274,-0.04,-0.976,0.145,0.183,0.732,0.366,287.557
123272,140547,10487,-0.038,-0.975,0.145,0,0.793,0.427,287.564
123296,140794,9274,-0.041,-0.971,0.149,0,0.793,0.427,287.567
123296,140547,10483,-0.041,-0.968,0.148,-0.671,0.488,0.366,287.574
123305,140794,9274,-0.037,-0.974,0.149,-0.671,0.488,0.366,287.577
123305,140573,10509,-0.033,-0.976,0.143,-0.854,0.366,0.427,287.583
123297,140794,9274,-0.036,-0.979,0.148,-0.854,0.366,0.427,287.587
123297,140554,10478,-0.037,-0.983,0.151,-0.549,0.366,0.305,287.593
123291,140794,9274,-0.036,-0.98,0.152,-0.549,0.366,0.305,287.597
123291,140574,10493,-0.037,-0.975,0.15,-0.427,0.244,0.183,287.603
123287,140794,9274,-0.034,-0.971,0.147,-0.427,0.244,0.183,287.607
123287,140564,10485,-0.03,-0.974,0.148,-0.61,0.305,0.305,287.613
123283,140794,9274,-0.032,-0.979,0.152,-0.61,0.305,0.305,287.617
123283,140590,10495,-0.033,-0.976,0.149,-0.854,0.305,0.366,287.623
123294,140794,9274,-0.033,-0.976,0.147,-0.854,0.305,0.366,287.627
123294,140572,10485,-0.03,-0.973,0.146,-0.671,0.244,0.305,287.633
123270,140794,9274,-0.032,-0.971,0.147,-0.671,0.244,0.305,287.637
123270,140559,10484,-0.033,-0.972,0.146,0.061,0.305,0.305,287.643
123292,140794,9274,-0.035,-0.973,0.143,0.061,0.305,0.305,287.647
123292,140590,10491,-0.034,-0.972,0.142,0,0.366,0.366,287.653
123295,140794,9274,-0.037,-0.981,0.145,0,0.366,0.366,287.656
123295,140579,10494,-0.035,-0.98,0.146,-0.427,0,0.366,287.663
123291,140794,9274,-0.034,-0.976,0.144,-0.427,0,0.366,287.666
123291,140570,10493,-0.037,-0.977,0.143,-0.671,-0.061,0.549,287.673
123286,140794,9274,-0.036,-0.981,0.144,-0.671,-0.061,0.549,287.676
123286,140569,10496,-0.037,-0.985,0.143,-0.427,0.122,0.427,287.682
123289,140794,9274,-0.037,-0.98,0.143,-0.427,0.122,0.427,287.686
123289,140574,10484,-0.038,-0.979,0.143,-0.549,0.061,0.305,287.692
123293,140794,9274,-0.04,-0.984,0.141,-0.549,0.061,0.305,287.696
123293,140565,10481,-0.039,-0.979,0.142,-0.366,-0.061,0.366,287.702
123307,140794,9274,-0.041,-0.983,0.142,-0.366,-0.061,0.366,287.706
123307,140584,10492,-0.038,-0.981,0.14,-0.244,-0.244,0.305,287.712
123299,140794,9274,-0.035,-0.975,0.142,-0.244,-0.244,0.305,287.716
123299,140564,10470,-0.035,-0.977,0.144,-0.61,-0.122,0.244,287.722
123302,140794,9274,-0.038,-0.978,0.146,-0.61,-0.122,0.244,287.726
123302,140575,10497,-0.037,-0.975,0.139,-0.671,-0.061,0.244,287.732
123300,140794,9274,-0.036,-0.973,0.134,-0.671,-0.061,0.244,287.736
123300,140593,10497,-0.039,-0.973,0.139,-0.549,0.061,0.305,287.742
123308,140794,9274,-0.037,-0.975,0.142,-0.549,0.061,0.305,287.746
123308,140572,10496,-0.037,-0.978,0.141,-0.366,0.183,0.427,287.752
123293,140794,9274,-0.037,-0.98,0.143,-0.366,0.183,0.427,287.755
123293,140575,10498,-0.034,-0.979,0.142,-0.244,0.244,0.366,287.762
123311,140794,9274,-0.035,-0.979,0.141,-0.244,0.244,0.366,287.765
123311,140591,10485,-0.032,-0.976,0.146,0.244,0.244,0.366,287.772
123301,140794,9274,-0.032,-0.973,0.146,0.244,0.244,0.366,287.775
123301,140569,10481,-0.034,-0.974,0.14,0.488,0.427,0.366,287.781
123312,140794,9274,-0.036,-0.972,0.142,0.488,0.427,0.366,287.785
123312,140577,10500,-0.037,-0.974,0.144,0.549,0.61,0.305,287.791
123319,140794,9274,-0.033,-0.976,0.146,0.549,0.61,0.305,287.795
123319,140580,10499,-0.035,-0.979,0.148,0.244,0.61,0.366,287.801
123314,140794,9274,-0.032,-0.977,0.146,0.244,0.61,0.366,287.805
123314,140590,10504,-0.033,-0.981,0.15,0,0.61,0.488,287.811
123322,140794,9274,-0.035,-0.979,0.149,0,0.61,0.488,287.815
123322,140577,10496,-0.033,-0.977,0.147,0.061,0.671,0.366,287.821
123293,140794,9274,-0.032,-0.976,0.15,0.061,0.671,0.366,287.825
123293,140569,10505,-0.033,-0.974,0.149,0.793,0.61,0.549,287.831
123280,140794,9274,-0.032,-0.975,0.146,0.793,0.61,0.549,287.835
123280,140571,10500,-0.036,-0.976,0.149,0.854,0.61,0.61,287.841
123281,140538,9274,-0.037,-0.977,0.143,0.854,0.61,0.61,287.845
123281,140540,10497,-0.036,-0.976,0.139,0.488,0.61,0.427,287.851
123269,140794,9274,-0.033,-0.979,0.141,0.488,0.61,0.427,287.854
123269,140548,10503,-0.032,-0.982,0.137,0.366,0.549,0.488,287.861
123282,140794,9274,-0.031,-0.981,0.138,0.366,0.549,0.488,287.864
123282,140547,10479,-0.033,-0.979,0.137,0.549,0.732,0.366,287.871
123265,140538,9274,-0.034,-0.977,0.136,0.549,0.732,0.366,287.874
123265,140540,10500,-0.031,-0.976,0.137,0.549,1.037,0.366,287.88
123265,140538,9274,-0.029,-0.979,0.143,0.549,1.037,0.366,287.884
123265,140535,10484,-0.03,-0.978,0.143,0.244,0.976,0.183,287.89
123259,140538,9274,-0.029,-0.98,0.143,0.244,0.976,0.183,287.894
123259,140525,10483,-0.031,-0.979,0.142,-0.366,1.159,0.244,287.9
123256,140538,9274,-0.031,-0.976,0.145,-0.366,1.159,0.244,287.904
123256,140539,10485,-0.031,-0.975,0.146,-0.427,1.159,0.305,287.91
123275,140538,9274,-0.034,-0.972,0.147,-0.427,1.159,0.305,287.914
123275,140522,10494,-0.037,-0.974,0.149,-0.061,1.037,0.244,287.92
123269,140794,9274,-0.035,-0.977,0.155,-0.061,1.037,0.244,287.924
123269,140547,10480,-0.035,-0.975,0.152,-0.061,0.793,0.305,287.93
123266,140538,9274,-0.037,-0.975,0.152,-0.061,0.793,0.305,287.934
123266,140537,10498,-0.038,-0.973,0.155,-0.488,0.61,0.366,287.94
123300,140794,9274,-0.035,-0.974,0.156,-0.488,0.61,0.366,287.944
123300,140562,10463,-0.038,-0.973,0.152,-0.854,0.549,0.488,287.95
123291,140538,9274,-0.038,-0.973,0.152,-0.854,0.549,0.488,287.953
123291,140542,10485,-0.035,-0.98,0.15,-0.671,0.305,0.366,287.96
123282,140538,9274,-0.035,-0.98,0.15,-0.671,0.305,0.366,287.963
123282,140537,10479,-0.036,-0.976,0.144,-0.549,0.244,0.244,287.97
123291,140794,9274,-0.036,-0.976,0.144,-0.549,0.244,0.244,287.973
123291,140559,10479,-0.037,-0.973,0.143,-0.305,0.366,0.427,287.979
123268,140794,9274,-0.037,-0.973,0.143,-0.305,0.366,0.427,287.983
123268,140556,10498,-0.038,-0.976,0.149,-0.122,0.305,0.366,287.989
123309,140794,9274,-0.038,-0.976,0.149,-0.122,0.305,0.366,287.993
123309,140551,10480,-0.036,-0.978,0.147,-0.61,0.244,0.305,287.999
123303,140794,9274,-0.036,-0.978,0.147,-0.61,0.244,0.305,288.003
123303,140576,10490,-0.039,-0.977,0.147,-0.793,0.183,0.427,288.009
123302,140794,9274,-0.039,-0.977,0.147,-0.793,0.183,0.427,288.013
123302,140584,10484,-0.037,-0.981,0.146,-0.549,0.122,0.366,288.019
123308,140794,9274,-0.037,-0.981,0.146,-0.549,0.122,0.366,288.023
123308,140579,10468,-0.038,-0.98,0.146,-0.427,0.061,0.244,288.029
123281,140794,9274,-0.038,-0.98,0.146,-0.427,0.061,0.244,288.033
123281,140574,10484,-0.038,-0.977,0.146,-0.122,0,0.305,288.039
123292,140794,9274,-0.038,-0.977,0.146,-0.122,0,0.305,288.043
123292,140586,10489,-0.038,-0.976,0.145,-0.244,0.183,0.244,288.049
123292,140794,9274,-0.038,-0.976,0.145,-0.244,0.183,0.244,288.053
123292,140567,10473,-0.039,-0.978,0.146,-0.122,0,0.244,288.059
123289,140794,9274,-0.039,-0.978,0.146,-0.122,0,0.244,288.062
123289,140562,10486,-0.036,-0.977,0.146,-0.122,-0.061,0.305,288.069
123299,140794,9274,-0.036,-0.977,0.146,-0.122,-0.061,0.305,288.072
123299,140572,10484,-0.036,-0.978,0.145,-0.061,-0.061,0.305,288.078
123289,140538,9274,-0.036,-0.978,0.145,-0.061,-0.061,0.305,288.082
123289,140537,10475,-0.034,-0.978,0.141,-0.061,-0.122,0.305,288.088
123256,140538,9274,-0.034,-0.978,0.141,-0.061,-0.122,0.305,288.092
123256,140535,10480,-0.035,-0.981,0.141,-0.061,-0.122,0.305,288.098
123246,140538,9274,-0.034,-0.979,0.144,-0.183,-0.061,0.427,288.102
123246,140504,10478,-0.032,-0.98,0.146,-0.183,-0.061,0.427,288.108
123230,140538,9274,-0.034,-0.977,0.145,-0.183,0.061,0.549,288.112
123230,140514,10494,-0.033,-0.978,0.143,-0.183,0.061,0.549,288.118
123230,140538,9274,-0.035,-0.977,0.139,0.183,0.061,0.549,288.122
123230,140539,10479,-0.037,-0.982,0.138,0.183,0.061,0.549,288.128
123251,140538,9274,-0.034,-0.986,0.14,0.976,0.122,0.305,288.132
123251,140529,10476,-0.035,-0.982,0.142,0.976,0.122,0.305,288.138
123228,140538,9274,-0.034,-0.978,0.142,0.976,0.305,0.122,288.142
123228,140516,10479,-0.034,-0.974,0.139,0.976,0.305,0.122,288.148
123245,140538,9274,-0.033,-0.971,0.136,0.976,0.427,0.122,288.151
123245,140528,10488,-0.033,-0.974,0.14,0.976,0.427,0.122,288.158
123237,140538,9274,-0.036,-0.977,0.144,0.854,0.549,0.183,288.161
123237,140510,10471,-0.034,-0.983,0.146,0.854,0.549,0.183,288.168
123253,140538,9274,-0.033,-0.982,0.145,0.61,0.671,0.122,288.171
123253,140531,10476,-0.032,-0.975,0.141,0.61,0.671,0.122,288.177
123245,140538,9274,-0.033,-0.975,0.143,0.488,0.671,0.244,288.181
123245,140539,10482,-0.031,-0.975,0.152,0.488,0.671,0.244,288.187
123249,140538,9274,-0.033,-0.976,0.155,0.549,0.732,0.244,288.191
123249,140526,10484,-0.035,-0.977,0.151,0.549,0.732,0.244,288.197
123256,140538,9274,-0.033,-0.977,0.152,0.061,0.61,0.305,288.201
123256,140534,10467,-0.029,-0.975,0.153,0.061,0.61,0.305,288.207
123260,140794,9274,-0.028,-0.972,0.147,-0.427,0.366,0.305,288.211
123260,140551,10482,-0.029,-0.973,0.15,-0.427,0.366,0.305,288.217
123230,140794,9274,-0.031,-0.978,0.154,-0.427,0.244,0.427,288.221
123230,140544,10477,-0.033,-0.981,0.153,-0.427,0.244,0.427,288.227
123244,140538,9274,-0.032,-0.978,0.147,-0.305,0.183,0.244,288.231
123244,140537,10472,-0.032,-0.974,0.143,-0.305,0.183,0.244,288.237
123264,140794,9274,-0.034,-0.973,0.148,-0.549,0.183,0.305,288.241
123264,140549,10471,-0.033,-0.976,0.15,-0.549,0.183,0.305,288.247
123259,140794,9274,-0.031,-0.975,0.148,-0.366,0.183,0.366,288.251
123259,140548,10471,-0.033,-0.976,0.144,-0.366,0.183,0.366,288.257
123249,140538,9274,-0.032,-0.975,0.145,-0.183,0.183,0.366,288.26
123249,140527,10482,-0.03,-0.973,0.146,-0.183,0.183,0.366,288.267
123261,140794,9274,-0.033,-0.974,0.142,-0.061,0.427,0.427,288.27
123261,140559,10482,-0.035,-0.973,0.146,-0.061,0.427,0.427,288.276
123275,140538,9274,-0.035,-0.975,0.147,-0.183,0.61,0.549,288.28
123275,140540,10470,-0.034,-0.981,0.144,-0.183,0.61,0.549,288.286
123272,140794,9274,-0.034,-0.982,0.143,-0.244,0.61,0.549,288.29
123272,140582,10482,-0.035,-0.979,0.141,-0.244,0.61,0.549,288.296
123283,140794,9274,-0.034,-0.983,0.146,-0.305,0.671,0.549,288.3
123283,140563,10482,-0.039,-0.985,0.148,-0.305,0.671,0.549,288.306
123287,140794,9274,-0.039,-0.985,0.146,0,0.793,0.427,288.31
123287,140577,10490,-0.037,-0.978,0.145,0,0.793,0.427,288.316
123264,140794,9274,-0.038,-0.977,0.144,-0.122,0.793,0.366,288.32
123264,140575,10484,-0.04,-0.977,0.145,-0.122,0.793,0.366,288.326
123282,140794,9274,-0.041,-0.975,0.144,0.061,0.854,0.366,288.33
123282,140567,10495,-0.038,-0.978,0.144,0.061,0.854,0.366,288.336
123282,140794,9274,-0.037,-0.98,0.147,-0.244,0.671,0.244,288.34
123282,140560,10494,-0.036,-0.976,0.15,-0.244,0.671,0.244,288.346
