123325,140794,9274,-0.038,-0.978,0.15,-0.061,0.61,0.305,260.024
123325,140720,10548,-0.038,-0.981,0.153,-0.061,0.61,0.305,260.03
123324,140794,9274,-0.036,-0.979,0.151,-0.305,0.488,0.305,260.034
123324,140745,10551,-0.04,-0.975,0.153,-0.305,0.488,0.305,260.04
123332,140794,9274,-0.041,-0.974,0.152,-0.305,0.549,0.488,260.044
123332,140740,10550,-0.042,-0.976,0.153,-0.305,0.549,0.488,260.05
123323,140794,9274,-0.041,-0.977,0.152,-0.305,0.427,0.366,260.053
123323,140738,10542,-0.039,-0.978,0.147,-0.305,0.427,0.366,260.06
123337,140794,9274,-0.039,-0.979,0.147,-0.61,0.305,0.183,260.063
123337,140742,10543,-0.039,-0.982,0.149,-0.61,0.305,0.183,260.07
123335,140794,9274,-0.037,-0.981,0.151,-0.366,0.305,0.183,260.073
123335,140737,10550,-0.039,-0.977,0.154,-0.366,0.305,0.183,260.079
123326,140794,9274,-0.039,-0.97,0.151,-0.305,0.427,0.183,260.083
123326,140761,10558,-0.04,-0.971,0.148,-0.305,0.427,0.183,260.089
123328,140794,9274,-0.04,-0.971,0.148,-0.305,0.427,0.183,260.093
123328,140728,10557,-0.039,-0.975,0.156,-0.061,0.549,0.305,260.099
123320,140794,9274,-0.039,-0.975,0.156,-0.061,0.549,0.305,260.103
123320,140707,10543,-0.038,-0.977,0.149,0.122,0.366,0.244,260.109
123308,140794,9274,-0.038,-0.977,0.149,0.122,0.366,0.244,260.113
123308,140750,10548,-0.04,-0.98,0.149,-0.366,0.366,0.366,260.119
123341,140794,9274,-0.04,-0.98,0.149,-0.366,0.366,0.366,260.123
123341,140761,10552,-0.036,-0.975,0.152,-0.488,0.366,0.366,260.129
123312,140794,9274,-0.036,-0.975,0.152,-0.488,0.366,0.366,260.133
123312,140752,10550,-0.037,-0.977,0.152,-0.549,0.488,0.244,260.139
123319,140794,9274,-0.037,-0.977,0.152,-0.549,0.488,0.244,260.143
123319,140759,10541,-0.035,-0.972,0.15,-0.366,0.61,0.183,260.149
123322,140794,9274,-0.035,-0.972,0.15,-0.366,0.61,0.183,260.152
123322,140735,10545,-0.036,-0.975,0.152,-0.366,0.671,0.244,260.159
123325,140794,9274,-0.036,-0.975,0.152,-0.366,0.671,0.244,260.162
123325,140744,10524,-0.037,-0.977,0.154,-0.549,0.732,0.305,260.169
123307,140794,9274,-0.037,-0.977,0.154,-0.549,0.732,0.305,260.172
123307,140738,10549,-0.038,-0.975,0.154,-0.488,0.61,0.305,260.178
123323,140794,9274,-0.038,-0.975,0.154,-0.488,0.61,0.305,260.182
123323,140731,10544,-0.036,-0.979,0.157,-0.366,0.427,0.488,260.188
123298,140794,9274,-0.036,-0.979,0.157,-0.366,0.427,0.488,260.192
123298,140705,10536,-0.037,-0.976,0.153,0.122,0.488,0.427,260.198
123279,140794,9274,-0.037,-0.976,0.153,0.122,0.488,0.427,260.202
123279,140702,10554,-0.036,-0.974,0.151,-0.061,0.488,0.244,260.208
123300,140794,9274,-0.036,-0.974,0.151,-0.061,0.488,0.244,260.212
123300,140711,10550,-0.041,-0.977,0.149,-0.488,0.488,0.427,260.218
123316,140794,9274,-0.041,-0.977,0.149,-0.488,0.488,0.427,260.222
123316,140708,10541,-0.037,-0.983,0.152,-0.732,0.244,0.305,260.228
123298,140794,9274,-0.037,-0.983,0.152,-0.732,0.244,0.305,260.232
123298,140712,10540,-0.038,-0.982,0.148,-0.732,0.183,0.183,260.238
123289,140794,9274,-0.037,-0.98,0.147,-0.732,0.183,0.183,260.242
123289,140691,10551,-0.037,-0.982,0.146,-0.488,0.366,0.183,260.248
123285,140794,9274,-0.038,-0.978,0.149,-0.488,0.366,0.183,260.251
123285,140713,10537,-0.039,-0.973,0.154,-0.183,0.427,0.183,260.258
123312,140794,9274,-0.039,-0.971,0.154,-0.183,0.427,0.183,260.261
123312,140697,10538,-0.04,-0.971,0.152,-0.549,0.488,0.305,260.268
123293,140794,9274,-0.036,-0.966,0.15,-0.549,0.488,0.305,260.271
123293,140709,10538,-0.038,-0.967,0.153,-0.732,0.183,0.427,260.277
123309,140794,9274,-0.038,-0.973,0.152,-0.732,0.183,0.427,260.281
123309,140728,10553,-0.035,-0.975,0.155,-0.671,0.061,0.305,260.287
123322,140794,9274,-0.041,-0.977,0.154,-0.671,0.061,0.305,260.291
123322,140700,10548,-0.041,-0.977,0.153,-0.671,0.244,0.305,260.297
123310,140794,9274,-0.04,-0.975,0.156,-0.671,0.244,0.305,260.301
123310,140733,10542,-0.039,-0.975,0.154,-0.61,0.244,0.427,260.307
123320,140794,9274,-0.041,-0.977,0.151,-0.61,0.244,0.427,260.311
123320,140742,10533,-0.038,-0.977,0.148,-0.671,0.183,0.366,260.317
123311,140794,9274,-0.036,-0.976,0.15,-0.671,0.183,0.366,260.321
123311,140714,10534,-0.036,-0.977,0.15,-0.915,0.061,0.183,260.327
123319,140794,9274,-0.037,-0.979,0.151,-0.915,0.061,0.183,260.331
123319,140715,10540,-0.04,-0.975,0.15,-0.732,0.122,0.305,260.337
123328,140794,9274,-0.038,-0.973,0.149,-0.732,0.122,0.305,260.341
123328,140750,10540,-0.039,-0.973,0.151,-0.671,0.061,0.488,260.347
123331,140794,9274,-0.042,-0.973,0.154,-0.671,0.061,0.488,260.35
123331,140752,10541,-0.038,-0.975,0.151,-1.159,0.061,0.366,260.357
123315,140794,9274,-0.038,-0.975,0.146,-1.159,0.061,0.366,260.36
123315,140758,10544,-0.038,-0.978,0.155,-1.402,0.061,0.366,260.367
123319,140794,9274,-0.038,-0.976,0.156,-1.402,0.061,0.366,260.37
123319,140748,10544,-0.039,-0.976,0.154,-1.159,-0.061,0.427,260.376
123333,140794,9274,-0.037,-0.977,0.152,-1.159,-0.061,0.427,260.38
123333,140738,10546,-0.037,-0.975,0.152,-0.549,-0.061,0.366,260.386
123322,140794,9274,-0.038,-0.975,0.15,-0.549,-0.061,0.366,260.39
123322,140748,10547,-0.041,-0.974,0.148,-0.244,0,0.305,260.396
123335,140794,9274,-0.04,-0.974,0.152,-0.244,0,0.305,260.4
123335,140756,10531,-0.041,-0.976,0.147,-0.732,-0.183,0.366,260.406
123334,140794,9274,-0.037,-0.979,0.144,-0.732,-0.183,0.366,260.41
123334,140754,10530,-0.037,-0.976,0.145,-0.732,-0.183,0.366,260.416
123328,140794,9274,-0.038,-0.977,0.148,-0.732,-0.183,0.366,260.42
123328,140769,10533,-0.038,-0.979,0.15,-0.427,0.061,0.244,260.426
123329,140794,9274,-0.035,-0.976,0.146,-0.427,0.061,0.244,260.43
123329,140751,10540,-0.038,-0.974,0.151,-0.244,-0.122,0.305,260.436
123320,140794,9274,-0.035,-0.976,0.147,-0.244,-0.122,0.305,260.44
123320,140756,10537,-0.035,-0.974,0.145,-0.488,-0.122,0.305,260.446
123312,140794,9274,-0.036,-0.976,0.147,-0.488,-0.122,0.305,260.449
123312,140718,10532,-0.04,-0.979,0.148,-0.671,0.061,0.305,260.456
123325,140794,9274,-0.038,-0.974,0.148,-0.671,0.061,0.305,260.459
123325,140766,10542,-0.038,-0.976,0.146,-1.22,-0.061,0.305,260.466
123293,140794,9274,-0.036,-0.976,0.147,-1.22,-0.061,0.305,260.469
123293,140743,10548,-0.037,-0.976,0.147,-1.098,0.061,0.305,260.475
123331,140794,9274,-0.038,-0.977,0.147,-1.098,0.061,0.305,260.479
123331,140730,10547,-0.039,-0.979,0.15,-0.732,0.122,0.305,260.485
123313,140794,9274,-0.041,-0.976,0.151,-0.732,0.122,0.305,260.489
123313,140740,10544,-0.04,-0.973,0.148,-0.549,0,0.244,260.495
123320,140794,9274,-0.039,-0.974,0.147,-0.549,0,0.244,260.499
123320,140748,10542,-0.039,-0.975,0.15,-0.732,0.061,0.305,260.505
123323,140794,9274,-0.039,-0.974,0.149,-0.732,0.061,0.305,260.509
123323,140736,10546,-0.035,-0.975,0.15,-0.61,0.061,0.366,260.515
123349,140794,9274,-0.035,-0.977,0.148,-0.61,0.061,0.366,260.519
123349,140756,10539,-0.036,-0.977,0.147,-0.305,0.061,0.427,260.525
123317,140794,9274,-0.035,-0.977,0.146,-0.305,0.061,0.427,260.529
123317,140724,10533,-0.037,-0.975,0.148,-0.183,0.366,0.305,260.535
123301,140794,9274,-0.041,-0.975,0.15,-0.183,0.366,0.305,260.539
123301,140753,10537,-0.036,-0.973,0.147,-0.366,0.305,0.305,260.545
123307,140794,9274,-0.036,-0.976,0.147,-0.366,0.305,0.305,260.548
123307,140729,10534,-0.039,-0.976,0.146,-0.61,0.244,0.366,260.555
123315,140794,9274,-0.038,-0.976,0.151,-0.61,0.244,0.366,260.558
123315,140736,10531,-0.038,-0.975,0.147,-0.488,0.305,0.305,260.565
123322,140794,9274,-0.039,-0.974,0.147,-0.488,0.305,0.305,260.568
123322,140720,10543,-0.041,-0.978,0.149,-0.61,0.366,0.427,260.574
123320,140794,9274,-0.037,-0.981,0.144,-0.61,0.366,0.427,260.578
123320,140717,10545,-0.035,-0.977,0.144,-0.122,0.183,0.427,260.584
123343,140794,9274,-0.038,-0.977,0.146,-0.122,0.183,0.427,260.588
123343,140716,10548,-0.039,-0.976,0.145,-0.183,0.305,0.366,260.594
123327,140794,9274,-0.042,-0.977,0.149,-0.183,0.305,0.366,260.598
123327,140710,10546,-0.04,-0.979,0.15,-0.427,0.244,0.427,260.604
123331,140794,9274,-0.038,-0.975,0.147,-0.427,0.244,0.427,260.608
123331,140754,10544,-0.035,-0.974,0.145,-0.732,0.061,0.366,260.614
123343,140794,9274,-0.034,-0.975,0.141,-0.732,0.061,0.366,260.618
123343,140760,10545,-0.036,-0.977,0.147,-0.671,0.244,0.305,260.624
123326,140794,9274,-0.038,-0.978,0.149,-0.671,0.244,0.305,260.628
123326,140734,10534,-0.038,-0.976,0.152,-0.244,0.488,0.244,260.634
123340,140794,9274,-0.038,-0.976,0.149,-0.244,0.488,0.244,260.638
123340,140761,10529,-0.034,-0.973,0.147,-0.183,0.488,0.366,260.644
123333,140794,9274,-0.036,-0.973,0.146,-0.183,0.488,0.366,260.647
123333,140739,10551,-0.039,-0.977,0.149,-0.061,0.549,0.488,260.654
123344,140794,9274,-0.04,-0.977,0.153,-0.061,0.549,0.488,260.657
123344,140746,10539,-0.038,-0.975,0.149,-0.061,0.488,0.61,260.664
123328,140794,9274,-0.037,-0.977,0.148,-0.061,0.488,0.61,260.667
123328,140746,10560,-0.037,-0.979,0.146,0.061,0.366,0.61,260.673
123346,140794,9274,-0.037,-0.979,0.146,0.061,0.366,0.61,260.677
123346,140719,10541,-0.039,-0.979,0.145,0.183,0.61,0.427,260.683
123338,140794,9274,-0.039,-0.979,0.145,0.183,0.61,0.427,260.687
123338,140727,10540,-0.04,-0.98,0.148,0.305,0.61,0.366,260.693
123328,140794,9274,-0.04,-0.98,0.148,0.305,0.61,0.366,260.697
123328,140731,10548,-0.042,-0.972,0.143,0,0.488,0.488,260.703
123337,140794,9274,-0.042,-0.972,0.143,0,0.488,0.488,260.707
123337,140752,10532,-0.043,-0.978,0.147,0,0.427,0.366,260.713
123352,140794,9274,-0.043,-0.978,0.147,0,0.427,0.366,260.717
123352,140756,10535,-0.04,-0.978,0.15,-0.549,0.549,0.366,260.723
123343,140794,9274,-0.04,-0.978,0.15,-0.549,0.549,0.366,260.727
123343,140745,10544,-0.044,-0.975,0.149,-0.61,0.427,0.305,260.733
123357,140794,9274,-0.044,-0.975,0.149,-0.61,0.427,0.305,260.737
123357,140747,10545,-0.037,-0.973,0.149,-0.549,0.244,0.122,260.743
123337,140794,9274,-0.037,-0.973,0.149,-0.549,0.244,0.122,260.746
123337,140732,10543,-0.04,-0.977,0.148,-0.61,0.122,0.244,260.753
123360,140794,9274,-0.04,-0.977,0.148,-0.61,0.122,0.244,260.756
123360,140742,10539,-0.036,-0.977,0.149,-0.854,0.183,0.305,260.763
123356,140794,9274,-0.036,-0.977,0.149,-0.854,0.183,0.305,260.766
123356,140759,10541,-0.034,-0.974,0.15,-0.427,0.183,0.244,260.772
123360,140794,9274,-0.034,-0.974,0.15,-0.427,0.183,0.244,260.776
123360,140749,10552,-0.035,-0.972,0.151,0.061,0.305,0.244,260.782
123351,140794,9274,-0.035,-0.972,0.151,0.061,0.305,0.244,260.786
123351,140749,10545,-0.038,-0.976,0.151,0.305,0.366,0.244,260.792
123361,140794,9274,-0.038,-0.976,0.151,0.305,0.366,0.244,260.796
123361,140755,10545,-0.039,-0.975,0.147,0,0.122,0.366,260.802
123350,140794,9274,-0.039,-0.975,0.147,0,0.122,0.366,260.806
123350,140751,10541,-0.037,-0.974,0.149,-0.305,0,0.366,260.812
123333,140794,9274,-0.037,-0.974,0.149,-0.305,0,0.366,260.816
123333,140768,10546,-0.038,-0.976,0.151,-0.305,0,0.366,260.822
123328,140794,9274,-0.04,-0.978,0.148,-0.488,0.244,0.366,260.826
123328,140772,10545,-0.041,-0.979,0.143,-0.488,0.244,0.366,260.832
123342,140794,9274,-0.04,-0.979,0.145,-0.488,0.305,0.427,260.836
123342,140756,10544,-0.039,-0.977,0.149,-0.488,0.305,0.427,260.842
123337,140794,9274,-0.041,-0.979,0.153,-0.427,0,0.366,260.845
123337,140772,10555,-0.037,-0.98,0.147,-0.427,0,0.366,260.852
123353,140794,9274,-0.038,-0.978,0.149,-0.549,0.061,0.305,260.855
123353,140766,10534,-0.041,-0.976,0.147,-0.549,0.061,0.305,260.862
123344,140794,9274,-0.039,-0.977,0.146,-0.671,0.061,0.427,260.865
123344,140757,10552,-0.038,-0.981,0.145,-0.671,0.061,0.427,260.871
123355,140794,9274,-0.041,-0.979,0.144,-0.671,-0.122,0.244,260.875
123355,140752,10539,-0.039,-0.98,0.143,-0.671,-0.122,0.244,260.881
123342,140794,9274,-0.039,-0.98,0.143,-0.488,-0.061,0.061,260.885
123342,140753,10547,-0.039,-0.977,0.147,-0.488,-0.061,0.061,260.891
123355,140794,9274,-0.039,-0.973,0.146,-0.305,0.122,0.183,260.895
123355,140758,10541,-0.038,-0.974,0.148,-0.305,0.122,0.183,260.901
123344,140794,9274,-0.038,-0.97,0.148,-0.305,0.244,0.244,260.905
123344,140743,10559,-0.041,-0.973,0.148,-0.305,0.244,0.244,260.911
123345,140794,9274,-0.037,-0.973,0.146,-0.61,0.244,0.366,260.915
123345,140773,10546,-0.036,-0.974,0.146,-0.61,0.244,0.366,260.921
123352,140794,9274,-0.035,-0.978,0.148,-0.854,0.122,0.305,260.925
123352,140737,10558,-0.034,-0.979,0.148,-0.854,0.122,0.305,260.931
123328,140794,9274,-0.034,-0.979,0.149,-0.549,0.244,0.244,260.935
123328,140771,10536,-0.036,-0.972,0.148,-0.549,0.244,0.244,260.941
123357,140794,9274,-0.036,-0.971,0.145,-0.183,0.549,0.305,260.944
123357,140749,10529,-0.033,-0.976,0.15,-0.183,0.549,0.305,260.951
123341,140794,9274,-0.036,-0.975,0.151,0.061,0.671,0.366,260.954
123341,140758,10548,-0.035,-0.974,0.149,0.061,0.671,0.366,260.961
123343,140794,9274,-0.035,-0.976,0.151,-0.122,0.549,0.244,260.964
123343,140780,10555,-0.032,-0.976,0.15,-0.122,0.549,0.244,260.97
123358,140794,9274,-0.032,-0.977,0.147,0.061,0.488,0.305,260.974
123358,140760,10540,-0.032,-0.977,0.149,0.061,0.488,0.305,260.98
123337,140794,9274,-0.034,-0.981,0.149,1.037,0.427,0.488,260.984
123337,140756,10551,-0.036,-0.982,0.153,1.037,0.427,0.488,260.99
123342,140794,9274,-0.035,-0.974,0.151,1.707,0.366,0.488,260.994
123342,140725,10530,-0.036,-0.968,0.143,1.707,0.366,0.488,261
123326,140794,9274,-0.038,-0.964,0.142,0.61,0.549,0.427,261.004
123326,140732,10543,-0.042,-0.971,0.142,0.61,0.549,0.427,261.01
123330,140794,9274,-0.044,-0.981,0.145,-0.244,0.549,0.671,261.014
123330,140736,10546,-0.039,-0.986,0.148,-0.244,0.549,0.671,261.02
123322,140794,9274,-0.039,-0.986,0.149,-0.671,0,0.427,261.024
123322,140742,10536,-0.039,-0.984,0.148,-0.671,0,0.427,261.03
123319,140794,9274,-0.037,-0.981,0.146,-0.549,0.366,0.366,261.034
123319,140720,10525,-0.038,-0.978,0.145,-0.549,0.366,0.366,261.04
123294,140794,9274,-0.042,-0.976,0.143,0,0.854,0.366,261.043
123294,140712,10546,-0.041,-0.974,0.145,0,0.854,0.366,261.05
123303,140794,9274,-0.04,-0.974,0.147,0.305,0.61,0.305,261.053
123303,140740,10534,-0.039,-0.97,0.152,0.305,0.61,0.305,261.06
123311,140794,9274,-0.036,-0.97,0.15,0,0.427,0.305,261.063
123311,140733,10545,-0.039,-0.971,0.152,0,0.427,0.305,261.069
123314,140794,9274,-0.04,-0.973,0.151,-0.427,0.549,0.366,261.073
123314,140715,10534,-0.038,-0.974,0.154,-0.427,0.549,0.366,261.079
123310,140794,9274,-0.038,-0.974,0.155,-0.854,0.427,0.549,261.083
123310,140707,10533,-0.038,-0.974,0.152,-0.854,0.427,0.549,261.089
123332,140794,9274,-0.037,-0.98,0.154,-0.793,0.122,0.549,261.093
123332,140716,10537,-0.038,-0.982,0.154,-0.793,0.122,0.549,261.099
123328,140794,9274,-0.037,-0.98,0.151,-0.305,0.122,0.427,261.103
123328,140739,10538,-0.038,-0.979,0.151,-0.305,0.122,0.427,261.109
123332,140794,9274,-0.04,-0.974,0.147,-0.122,0.183,0.183,261.113
123332,140738,10535,-0.037,-0.974,0.151,-0.122,0.183,0.183,261.119
123333,140794,9274,-0.04,-0.971,0.152,-0.183,0.122,0.305,261.123
123333,140737,10538,-0.035,-0.97,0.148,-0.183,0.122,0.305,261.129
123336,140794,9274,-0.036,-0.972,0.146,-0.305,0,0.366,261.133
123336,140728,10537,-0.036,-0.974,0.152,-0.305,0,0.366,261.139
123337,140794,9274,-0.038,-0.977,0.152,-0.244,0.122,0.427,261.142
123337,140728,10540,-0.041,-0.976,0.147,-0.244,0.122,0.427,261.149
123338,140794,9274,-0.039,-0.978,0.15,-0.305,0,0.366,261.152
123338,140731,10550,-0.04,-0.978,0.151,-0.305,0,0.366,261.159
123348,140794,9274,-0.037,-0.978,0.148,-0.244,-0.061,0.183,261.162
123348,140741,10542,-0.037,-0.974,0.145,-0.244,-0.061,0.183,261.168
123342,140794,9274,-0.039,-0.974,0.151,-0.427,0.061,0.244,261.172
123342,140739,10554,-0.038,-0.981,0.147,-0.427,0.061,0.244,261.178
123337,140794,9274,-0.038,-0.981,0.143,-0.549,-0.061,0.244,261.182
123337,140730,10533,-0.041,-0.979,0.149,-0.549,-0.061,0.244,261.188
123344,140794,9274,-0.036,-0.977,0.146,-0.488,-0.061,0.183,261.192
123344,140761,10540,-0.037,-0.974,0.146,-0.488,-0.061,0.183,261.198
123349,140794,9274,-0.038,-0.972,0.149,-0.427,0.122,0.183,261.202
123349,140740,10548,-0.036,-0.977,0.143,-0.427,0.122,0.183,261.208
123324,140794,9274,-0.036,-0.978,0.143,-0.427,0.122,0.183,261.212
123324,140762,10528,-0.037,-0.981,0.142,-0.427,0.122,0.183,261.218
123341,140794,9274,-0.036,-0.976,0.143,-0.366,0.122,0.183,261.222
123341,140762,10526,-0.038,-0.975,0.143,-0.366,0.122,0.183,261.228
123333,140794,9274,-0.037,-0.974,0.143,0,0.427,0.183,261.232
123333,140764,10533,-0.036,-0.971,0.143,0,0.427,0.183,261.238
123349,140794,9274,-0.038,-0.976,0.143,0.244,0.549,0.366,261.241
123349,140763,10548,-0.038,-0.977,0.143,0.244,0.549,0.366,261.248
123347,140794,9274,-0.037,-0.975,0.143,0.305,0.488,0.305,261.251
123347,140773,10540,-0.037,-0.976,0.145,0.305,0.488,0.305,261.258
123334,140794,9274,-0.038,-0.979,0.141,0.244,0.61,0.366,261.261
123334,140745,10526,-0.039,-0.978,0.146,0.244,0.61,0.366,261.267
123319,140794,9274,-0.039,-0.978,0.146,0.244,0.61,0.366,261.271
123319,140733,10553,-0.039,-0.98,0.146,0.427,0.671,0.488,261.277
123315,140794,9274,-0.039,-0.98,0.146,0.427,0.671,0.488,261.281
123315,140761,10541,-0.037,-0.979,0.148,0.183,0.671,0.427,261.287
123336,140794,9274,-0.037,-0.979,0.148,0.183,0.671,0.427,261.291
123336,140736,10537,-0.035,-0.98,0.145,0.061,0.61,0.244,261.297
123343,140794,9274,-0.035,-0.98,0.145,0.061,0.61,0.244,261.301
123343,140754,10553,-0.037,-0.975,0.149,0.366,0.671,0.244,261.307
123356,140794,9274,-0.037,-0.975,0.149,0.366,0.671,0.244,261.311
123356,140737,10542,-0.037,-0.97,0.149,0.549,0.793,0.366,261.317
123346,140794,9274,-0.037,-0.97,0.149,0.549,0.793,0.366,261.321
123346,140743,10532,-0.04,-0.973,0.151,0.305,0.854,0.366,261.327
123311,140794,9274,-0.04,-0.973,0.151,0.305,0.854,0.366,261.331
123311,140724,10545,-0.035,-0.98,0.151,-0.122,0.671,0.366,261.337
123327,140794,9274,-0.035,-0.98,0.151,-0.122,0.671,0.366,261.34
123327,140723,10533,-0.036,-0.979,0.146,-0.122,0.549,0.427,261.347
123343,140794,9274,-0.036,-0.979,0.146,-0.122,0.549,0.427,261.35
123343,140749,10539,-0.034,-0.973,0.154,0.305,0.61,0.488,261.357
123315,140794,9274,-0.034,-0.973,0.154,0.305,0.61,0.488,261.36
123315,140729,10548,-0.037,-0.975,0.151,0.366,0.732,0.427,261.366
123336,140794,9274,-0.037,-0.975,0.151,0.366,0.732,0.427,261.37
123336,140734,10517,-0.038,-0.977,0.146,0.427,0.671,0.427,261.376
123346,140794,9274,-0.038,-0.977,0.146,0.427,0.671,0.427,261.38
123346,140747,10539,-0.037,-0.977,0.151,0,0.549,0.366,261.386
123344,140794,9274,-0.037,-0.977,0.151,0,0.549,0.366,261.39
123344,140728,10533,-0.036,-0.974,0.152,0,0.488,0.305,261.396
123339,140794,9274,-0.036,-0.974,0.152,0,0.488,0.305,261.4
123339,140745,10535,-0.039,-0.976,0.148,0.244,0.61,0.305,261.406
123343,140794,9274,-0.039,-0.976,0.148,0.244,0.61,0.305,261.41
123343,140736,10524,-0.038,-0.975,0.148,0.305,0.732,0.366,261.416
123332,140794,9274,-0.039,-0.974,0.15,0.305,0.732,0.366,261.42
123332,140723,10542,-0.041,-0.978,0.149,0.183,0.671,0.488,261.426
123343,140794,9274,-0.039,-0.979,0.147,0.183,0.671,0.488,261.43
123343,140769,10543,-0.04,-0.979,0.147,0.305,0.549,0.61,261.436
123334,140794,9274,-0.038,-0.977,0.148,0.305,0.549,0.61,261.439
123334,140763,10539,-0.038,-0.978,0.146,0.366,0.671,0.549,261.446
123321,140794,9274,-0.042,-0.978,0.151,0.366,0.671,0.549,261.449
123321,140737,10536,-0.041,-0.978,0.153,0.427,0.732,0.549,261.456
123323,140794,9274,-0.038,-0.976,0.155,0.427,0.732,0.549,261.459
123323,140746,10539,-0.042,-0.977,0.154,-0.061,0.732,0.427,261.465
123338,140794,9274,-0.043,-0.976,0.149,-0.061,0.732,0.427,261.469
123338,140745,10540,-0.044,-0.982,0.148,-0.122,0.671,0.366,261.475
123358,140794,9274,-0.042,-0.981,0.147,-0.122,0.671,0.366,261.479
123358,140767,10522,-0.043,-0.976,0.153,0.183,0.488,0.305,261.485
123324,140794,9274,-0.041,-0.975,0.153,0.183,0.488,0.305,261.489
123324,140759,10548,-0.044,-0.974,0.153,0.366,0.366,0.305,261.495
123377,140794,9274,-0.039,-0.969,0.151,0.366,0.366,0.305,261.499
123377,140785,10537,-0.039,-0.97,0.149,0.061,0.305,0.244,261.505
123351,140794,9274,-0.04,-0.973,0.147,0.061,0.305,0.244,261.509
123351,140758,10534,-0.036,-0.974,0.149,-0.549,0.366,0.305,261.515
123352,140794,9274,-0.036,-0.978,0.152,-0.549,0.366,0.305,261.519
123352,140758,10537,-0.033,-0.979,0.15,-0.793,0.061,0.366,261.525
123357,140794,9274,-0.035,-0.977,0.152,-0.793,0.061,0.366,261.529
123357,140779,10537,-0.035,-0.975,0.155,-0.732,0,0.244,261.535
123365,140794,9274,-0.034,-0.972,0.155,-0.732,0,0.244,261.539
123365,140748,10540,-0.036,-0.976,0.154,-0.549,0.244,0.427,261.545
123348,140794,9274,-0.035,-0.974,0.154,-0.549,0.244,0.427,261.548
123348,140752,10537,-0.038,-0.978,0.151,-0.122,0.183,0.305,261.555
123353,140794,9274,-0.036,-0.977,0.151,-0.122,0.183,0.305,261.558
123353,140745,10533,-0.035,-0.974,0.151,0,0,0.183,261.564
123355,140794,9274,-0.038,-0.973,0.148,0,0,0.183,261.568
123355,140775,10537,-0.038,-0.974,0.151,0.122,0.061,0.305,261.574
123353,140794,9274,-0.038,-0.976,0.153,0.122,0.061,0.305,261.578
123353,140748,10534,-0.037,-0.978,0.152,0.183,0.061,0.366,261.584
123339,140794,9274,-0.038,-0.977,0.153,0.183,0.061,0.366,261.588
123339,140787,10553,-0.038,-0.975,0.147,-0.366,-0.122,0.305,261.594
123347,140794,9274,-0.041,-0.976,0.148,-0.366,-0.122,0.305,261.598
123347,140739,10544,-0.041,-0.978,0.151,-0.305,0,0.305,261.604
123337,140794,9274,-0.041,-0.978,0.152,-0.305,0,0.305,261.608
123337,140741,10542,-0.039,-0.977,0.148,-0.305,-0.061,0.366,261.614
123340,140794,9274,-0.038,-0.972,0.145,-0.305,-0.061,0.366,261.618
123340,140753,10547,-0.037,-0.976,0.144,-0.488,-0.122,0.488,261.624
123344,140794,9274,-0.039,-0.976,0.15,-0.488,-0.122,0.488,261.628
123344,140758,10532,-0.037,-0.978,0.149,-0.427,-0.122,0.366,261.634
123321,140794,9274,-0.038,-0.979,0.148,-0.427,-0.122,0.366,261.638
123321,140738,10540,-0.037,-0.979,0.147,-0.427,-0.122,0.366,261.644
123324,140794,9274,-0.035,-0.979,0.144,-0.427,-0.122,0.366,261.647
123324,140760,10549,-0.036,-0.977,0.143,-0.122,-0.061,0.244,261.654
123346,140794,9274,-0.038,-0.978,0.147,-0.122,-0.061,0.244,261.657
123346,140744,10549,-0.04,-0.978,0.146,0.122,0.366,0.183,261.663
123349,140794,9274,-0.037,-0.975,0.147,0.122,0.366,0.183,261.667
123349,140752,10544,-0.037,-0.975,0.141,-0.122,0.366,0.244,261.673
123345,140794,9274,-0.037,-0.975,0.146,-0.122,0.366,0.244,261.677
123345,140748,10546,-0.036,-0.978,0.147,-0.061,0.488,0.244,261.683
123344,140794,9274,-0.038,-0.977,0.145,-0.061,0.488,0.244,261.687
123344,140775,10558,-0.037,-0.976,0.145,0.122,0.61,0.244,261.693
123343,140794,9274,-0.036,-0.971,0.149,0.122,0.61,0.244,261.697
123343,140753,10544,-0.034,-0.97,0.15,0.183,0.427,0.366,261.703
123349,140794,9274,-0.035,-0.974,0.15,0.183,0.427,0.366,261.707
123349,140767,10539,-0.035,-0.974,0.154,0.061,0.671,0.427,261.713
123320,140794,9274,-0.034,-0.977,0.152,0.061,0.671,0.427,261.717
123320,140754,10532,-0.034,-0.974,0.147,-0.122,0.732,0.366,261.723
123325,140794,9274,-0.033,-0.975,0.149,-0.122,0.732,0.366,261.727
123325,140769,10553,-0.037,-0.975,0.147,0.305,0.671,0.366,261.733
123322,140794,9274,-0.032,-0.975,0.15,0.305,0.671,0.366,261.737
123322,140766,10536,-0.034,-0.978,0.149,0.671,0.793,0.427,261.743
123338,140794,9274,-0.035,-0.978,0.15,0.671,0.793,0.427,261.746
123338,140750,10543,-0.037,-0.975,0.154,0.671,0.915,0.366,261.753
123323,140794,9274,-0.039,-0.973,0.151,0.671,0.915,0.366,261.756
123323,140767,10546,-0.038,-0.975,0.149,-0.061,0.976,0.488,261.762
123328,140794,9274,-0.037,-0.978,0.152,-0.061,0.976,0.488,261.766
123328,140727,10541,-0.035,-0.98,0.151,0,0.793,0.488,261.772
123284,140794,9274,-0.037,-0.979,0.15,0,0.793,0.488,261.776
123284,140730,10543,-0.036,-0.977,0.15,0.122,0.732,0.305,261.782
123306,140794,9274,-0.038,-0.977,0.151,0.122,0.732,0.305,261.786
123306,140732,10536,-0.04,-0.976,0.149,0.366,0.793,0.427,261.792
123307,140794,9274,-0.037,-0.973,0.148,0.366,0.793,0.427,261.796
123307,140717,10558,-0.038,-0.973,0.155,0.122,0.793,0.549,261.802
123325,140794,9274,-0.039,-0.975,0.154,0.122,0.793,0.549,261.806
123325,140703,10533,-0.038,-0.974,0.152,-0.244,0.671,0.488,261.812
123297,140794,9274,-0.039,-0.98,0.153,-0.244,0.671,0.488,261.816
123297,140724,10537,-0.039,-0.979,0.15,-0.244,0.61,0.366,261.822
123313,140794,9274,-0.038,-0.982,0.15,-0.244,0.61,0.366,261.826
123313,140704,10543,-0.039,-0.98,0.148,0.122,0.671,0.427,261.832
123315,140794,9274,-0.038,-0.978,0.149,0.122,0.671,0.427,261.836
123315,140729,10537,-0.036,-0.975,0.149,0.427,0.732,0.427,261.842
123320,140794,9274,-0.036,-0.974,0.151,0.427,0.732,0.427,261.845
123320,140693,10536,-0.037,-0.971,0.151,0.305,0.732,0.366,261.852
123300,140794,9274,-0.037,-0.971,0.151,0.305,0.732,0.366,261.855
123300,140713,10536,-0.039,-0.976,0.149,-0.061,0.671,0.366,261.861
123324,140794,9274,-0.039,-0.976,0.149,-0.061,0.671,0.366,261.865
123324,140722,10534,-0.037,-0.977,0.15,-0.366,0.61,0.427,261.871
123318,140794,9274,-0.037,-0.977,0.15,-0.366,0.61,0.427,261.875
123318,140738,10533,-0.037,-0.979,0.15,-0.244,0.61,0.488,261.881
123323,140794,9274,-0.037,-0.979,0.15,-0.244,0.61,0.488,261.885
123323,140715,10517,-0.039,-0.975,0.153,-0.183,0.671,0.305,261.891
123316,140794,9274,-0.039,-0.975,0.153,-0.183,0.671,0.305,261.895
123316,140746,10530,-0.039,-0.972,0.153,-0.061,0.793,0.366,261.901
123321,140794,9274,-0.039,-0.972,0.153,-0.061,0.793,0.366,261.905
123321,140744,10522,-0.039,-0.974,0.15,0.122,0.549,0.366,261.911
123329,140794,9274,-0.039,-0.974,0.15,0.122,0.549,0.366,261.915
123329,140760,10535,-0.038,-0.976,0.156,0.122,0.366,0.366,261.921
123339,140794,9274,-0.038,-0.976,0.156,0.122,0.366,0.366,261.925
123339,140742,10533,-0.038,-0.976,0.146,0.183,0.488,0.366,261.931
123342,140794,9274,-0.038,-0.976,0.146,0.183,0.488,0.366,261.935
123342,140767,10538,-0.042,-0.976,0.149,0.549,0.549,0.427,261.941
123336,140794,9274,-0.042,-0.976,0.149,0.549,0.549,0.427,261.944
123336,140750,10558,-0.039,-0.974,0.151,0.305,0.305,0.427,261.951
123341,140794,9274,-0.039,-0.974,0.151,0.305,0.305,0.427,261.954
123341,140765,10520,-0.039,-0.973,0.15,0.122,0.244,0.366,261.96
123328,140794,9274,-0.039,-0.973,0.15,0.122,0.244,0.366,261.964
123328,140764,10530,-0.036,-0.978,0.153,-0.183,0.305,0.427,261.97
123345,140794,9274,-0.036,-0.978,0.153,-0.183,0.305,0.427,261.974
123345,140760,10525,-0.038,-0.979,0.155,-0.122,0.183,0.366,261.98
123325,140794,9274,-0.038,-0.979,0.155,-0.122,0.183,0.366,261.984
123325,140757,10528,-0.037,-0.977,0.149,-0.122,0.244,0.366,261.99
123328,140794,9274,-0.037,-0.977,0.149,-0.122,0.244,0.366,261.994
123328,140790,10526,-0.039,-0.975,0.153,-0.122,0.244,0.366,262
123316,140794,9274,-0.04,-0.975,0.156,0,0.305,0.366,262.004
123316,140755,10522,-0.037,-0.977,0.155,0,0.305,0.366,262.01
123317,140794,9274,-0.039,-0.975,0.153,0.122,0.183,0.366,262.014
123317,140764,10531,-0.04,-0.972,0.152,0.122,0.183,0.366,262.02
123322,140794,9274,-0.037,-0.972,0.153,0,0.061,0.427,262.024
123322,140734,10534,-0.037,-0.974,0.154,0,0.061,0.427,262.03
123312,140794,9274,-0.038,-0.974,0.155,0,-0.061,0.488,262.034
123312,140759,10531,-0.039,-0.972,0.151,0,-0.061,0.488,262.04
123319,140794,9274,-0.037,-0.974,0.15,-0.122,0.122,0.427,262.043
123319,140732,10539,-0.038,-0.979,0.149,-0.122,0.122,0.427,262.05
123314,140794,9274,-0.04,-0.979,0.151,0.061,0.122,0.427,262.053
123314,140752,10503,-0.037,-0.977,0.151,0.061,0.122,0.427,262.059
123345,140794,9274,-0.034,-0.977,0.146,-0.061,0.183,0.427,262.063
123345,140749,10527,-0.034,-0.978,0.145,-0.061,0.183,0.427,262.069
123308,140794,9274,-0.036,-0.978,0.15,-0.122,0.183,0.427,262.073
123308,140730,10533,-0.033,-0.978,0.15,-0.122,0.183,0.427,262.079
123302,140794,9274,-0.032,-0.977,0.149,-0.244,0.244,0.305,262.083
123302,140712,10537,-0.036,-0.976,0.151,-0.244,0.244,0.305,262.089
123317,140794,9274,-0.037,-0.975,0.148,-0.488,0.305,0.305,262.093
123317,140737,10527,-0.035,-0.979,0.15,-0.488,0.305,0.305,262.099
123329,140794,9274,-0.037,-0.979,0.15,0,0.366,0.427,262.103
123329,140727,10523,-0.036,-0.975,0.149,0,0.366,0.427,262.109
123320,140794,9274,-0.036,-0.974,0.148,0.061,0.549,0.244,262.113
123320,140732,10542,-0.037,-0.972,0.147,0.061,0.549,0.244,262.119
123316,140794,9274,-0.038,-0.973,0.151,0.122,0.732,0.305,262.123
123316,140731,10534,-0.037,-0.972,0.151,0.122,0.732,0.305,262.129
123323,140794,9274,-0.037,-0.976,0.153,0.061,0.732,0.366,262.133
123323,140743,10541,-0.039,-0.976,0.155,0.061,0.732,0.366,262.139
123314,140794,9274,-0.039,-0.976,0.155,0.061,0.671,0.488,262.142
123314,140728,10534,-0.04,-0.975,0.157,0.061,0.671,0.488,262.149
123320,140794,9274,-0.036,-0.977,0.154,-0.183,0.488,0.427,262.152
123320,140735,10539,-0.033,-0.976,0.154,-0.183,0.488,0.427,262.159
123330,140794,9274,-0.035,-0.98,0.15,-0.305,0.427,0.366,262.162
123330,140719,10541,-0.036,-0.977,0.154,-0.305,0.427,0.366,262.168
123332,140794,9274,-0.036,-0.975,0.152,-0.061,0.488,0.305,262.172
123332,140732,10526,-0.039,-0.974,0.151,-0.061,0.488,0.305,262.178
123328,140794,9274,-0.04,-0.973,0.152,-0.061,0.671,0.427,262.182
123328,140756,10533,-0.038,-0.978,0.152,-0.061,0.671,0.427,262.188
123306,140794,9274,-0.038,-0.983,0.15,-0.122,0.61,0.366,262.192
123306,140734,10526,-0.038,-0.978,0.152,-0.122,0.61,0.366,262.198
123313,140794,9274,-0.035,-0.978,0.151,-0.366,0.427,0.427,262.202
123313,140723,10527,-0.037,-0.976,0.151,-0.366,0.427,0.427,262.208
123318,140794,9274,-0.037,-0.974,0.149,-0.183,0.427,0.549,262.212
123318,140733,10522,-0.039,-0.971,0.153,-0.183,0.427,0.549,262.218
123294,140794,9274,-0.039,-0.973,0.15,0,0.671,0.549,262.222
123294,140719,10536,-0.04,-0.976,0.151,0,0.671,0.549,262.228
123318,140794,9274,-0.042,-0.975,0.155,0.061,0.671,0.549,262.232
123318,140717,10529,-0.042,-0.971,0.153,0.061,0.671,0.549,262.238
123312,140794,9274,-0.044,-0.973,0.152,-0.244,0.549,0.549,262.241
123312,140751,10531,-0.042,-0.978,0.153,-0.244,0.549,0.549,262.248
123317,140794,9274,-0.04,-0.979,0.154,-0.305,0.427,0.549,262.251
123317,140728,10526,-0.045,-0.982,0.152,-0.305,0.427,0.549,262.257
123339,140794,9274,-0.037,-0.98,0.149,-0.183,0.305,0.366,262.261
123339,140731,10519,-0.04,-0.981,0.151,-0.183,0.305,0.366,262.267
123303,140794,9274,-0.041,-0.979,0.149,-0.122,0.244,0.244,262.271
123303,140702,10535,-0.04,-0.975,0.149,-0.122,0.244,0.244,262.277
123297,140794,9274,-0.038,-0.975,0.148,-0.305,0.305,0.244,262.281
123297,140747,10536,-0.038,-0.973,0.149,-0.305,0.305,0.244,262.287
123288,140794,9274,-0.036,-0.974,0.147,-0.488,0.305,0.244,262.291
123288,140729,10515,-0.037,-0.977,0.15,-0.488,0.305,0.244,262.297
123304,140794,9274,-0.036,-0.975,0.15,-0.671,0.366,0.244,262.301
123304,140707,10524,-0.035,-0.973,0.154,-0.671,0.366,0.244,262.307
123287,140794,9274,-0.037,-0.974,0.151,-0.671,0.244,0.305,262.311
123287,140690,10536,-0.035,-0.972,0.154,-0.671,0.244,0.305,262.317
123309,140794,9274,-0.035,-0.974,0.154,-0.549,0.305,0.244,262.321
123309,140724,10526,-0.035,-0.978,0.159,-0.549,0.305,0.244,262.327
123301,140794,9274,-0.034,-0.973,0.157,-0.305,0.244,0.305,262.331
123301,140720,10525,-0.037,-0.97,0.157,-0.305,0.244,0.305,262.337
123304,140794,9274,-0.041,-0.974,0.158,-0.244,0.183,0.427,262.34
123304,140743,10528,-0.039,-0.974,0.153,-0.244,0.183,0.427,262.347
123323,140794,9274,-0.04,-0.976,0.155,-0.305,0.183,0.427,262.35
123323,140743,10535,-0.042,-0.979,0.155,-0.305,0.183,0.427,262.357
123314,140794,9274,-0.046,-0.977,0.15,-0.427,0.061,0.427,262.36
123314,140733,10535,-0.04,-0.976,0.15,-0.427,0.061,0.427,262.366
123307,140794,9274,-0.041,-0.976,0.153,-0.244,-0.244,0.427,262.37
123307,140731,10510,-0.041,-0.977,0.149,-0.244,-0.244,0.427,262.376
123307,140794,9274,-0.039,-0.978,0.15,-0.305,-0.183,0.366,262.38
123307,140742,10539,-0.039,-0.976,0.155,-0.305,-0.183,0.366,262.386
123319,140794,9274,-0.042,-0.977,0.15,-0.427,-0.061,0.305,262.39
123319,140723,10524,-0.039,-0.975,0.145,-0.427,-0.061,0.305,262.396
123293,140794,9274,-0.038,-0.977,0.144,-0.305,-0.061,0.244,262.4
123293,140733,10518,-0.038,-0.976,0.142,-0.305,-0.061,0.244,262.406
123315,140794,9274,-0.037,-0.979,0.143,-0.122,0.183,0.366,262.41
123315,140714,10526,-0.037,-0.977,0.148,-0.122,0.183,0.366,262.416
123308,140794,9274,-0.039,-0.974,0.151,-0.122,0.305,0.244,262.42
123308,140723,10536,-0.037,-0.976,0.148,-0.122,0.305,0.244,262.426
123295,140794,9274,-0.035,-0.975,0.149,-0.183,0.305,0.244,262.43
123295,140736,10534,-0.038,-0.975,0.151,-0.183,0.305,0.244,262.436
123316,140794,9274,-0.035,-0.976,0.147,-0.244,0.427,0.244,262.439
123316,140720,10532,-0.037,-0.977,0.148,-0.244,0.427,0.244,262.446
123311,140794,9274,-0.037,-0.977,0.148,-0.244,0.427,0.244,262.449
123311,140713,10535,-0.037,-0.979,0.149,-0.244,0.488,0.244,262.455
123311,140794,9274,-0.037,-0.979,0.149,-0.244,0.488,0.244,262.459
123311,140737,10518,-0.035,-0.975,0.145,-0.183,0.305,0.427,262.465
123307,140794,9274,-0.035,-0.975,0.145,-0.183,0.305,0.427,262.469
123307,140712,10538,-0.04,-0.977,0.155,0.061,0.427,0.488,262.475
123329,140794,9274,-0.04,-0.977,0.155,0.061,0.427,0.488,262.479
123329,140716,10531,-0.036,-0.969,0.152,-0.061,0.427,0.305,262.485
123305,140794,9274,-0.036,-0.969,0.152,-0.061,0.427,0.305,262.489
123305,140749,10537,-0.037,-0.977,0.153,-0.671,0.244,0.427,262.495
123314,140794,9274,-0.037,-0.977,0.153,-0.671,0.244,0.427,262.499
123314,140725,10526,-0.036,-0.976,0.154,-0.549,0.366,0.427,262.505
123297,140794,9274,-0.036,-0.976,0.154,-0.549,0.366,0.427,262.509
123297,140698,10528,-0.038,-0.973,0.153,-0.61,0.427,0.183,262.515
123289,140794,9274,-0.038,-0.973,0.153,-0.61,0.427,0.183,262.519
123289,140701,10534,-0.038,-0.974,0.154,-0.305,0.488,0.366,262.525
123303,140794,9274,-0.038,-0.974,0.154,-0.305,0.488,0.366,262.529
123303,140695,10536,-0.039,-0.974,0.151,0,0.427,0.427,262.535
123306,140794,9274,-0.039,-0.974,0.151,0,0.427,0.427,262.538
123306,140699,10537,-0.038,-0.98,0.149,-0.122,0.366,0.427,262.545
123293,140794,9274,-0.038,-0.98,0.149,-0.122,0.366,0.427,262.548
123293,140685,10535,-0.042,-0.98,0.152,0,0.366,0.366,262.555
123268,140794,9274,-0.042,-0.98,0.152,0,0.366,0.366,262.558
123268,140687,10522,-0.039,-0.972,0.15,0.183,0.305,0.427,262.564
123284,140794,9274,-0.039,-0.972,0.15,0.183,0.305,0.427,262.568
123284,140693,10526,-0.039,-0.978,0.145,0.122,0.366,0.366,262.574
123289,140794,9274,-0.039,-0.978,0.145,0.122,0.366,0.366,262.578
123289,140704,10518,-0.038,-0.979,0.15,-0.244,0.366,0.183,262.584
123283,140794,9274,-0.038,-0.979,0.15,-0.244,0.366,0.183,262.588
123283,140690,10515,-0.037,-0.974,0.149,-0.671,0.244,0.366,262.594
123281,140794,9274,-0.035,-0.972,0.152,-0.671,0.244,0.366,262.598
123281,140686,10523,-0.035,-0.973,0.148,-0.488,0.427,0.366,262.604
123267,140794,9274,-0.036,-0.972,0.149,-0.488,0.427,0.366,262.608
123267,140713,10531,-0.036,-0.975,0.152,-0.244,0.488,0.366,262.614
123265,140794,9274,-0.037,-0.979,0.152,-0.244,0.488,0.366,262.618
123265,140691,10523,-0.038,-0.976,0.156,-0.305,0.366,0.305,262.624
123262,140794,9274,-0.038,-0.977,0.155,-0.305,0.366,0.305,262.628
123262,140679,10515,-0.036,-0.974,0.151,-0.427,0.183,0.366,262.634
123264,140794,9274,-0.037,-0.973,0.151,-0.427,0.183,0.366,262.637
123264,140680,10530,-0.036,-0.976,0.15,-0.366,0.427,0.427,262.644
123289,140794,9274,-0.037,-0.973,0.154,-0.366,0.427,0.427,262.647
123289,140716,10525,-0.039,-0.973,0.151,-0.183,0.488,0.488,262.653
123294,140794,9274,-0.039,-0.978,0.152,-0.183,0.488,0.488,262.657
123294,140699,10530,-0.038,-0.978,0.15,-0.061,0.183,0.366,262.663
123292,140794,9274,-0.041,-0.979,0.151,-0.061,0.183,0.366,262.667
123292,140716,10533,-0.04,-0.977,0.151,-0.427,0.183,0.305,262.673
123311,140794,9274,-0.041,-0.975,0.147,-0.427,0.183,0.305,262.677
123311,140713,10519,-0.036,-0.974,0.15,-0.488,0.305,0.366,262.683
123309,140794,9274,-0.038,-0.975,0.147,-0.488,0.305,0.366,262.687
123309,140739,10530,-0.036,-0.976,0.151,-0.122,0.366,0.305,262.693
123313,140794,9274,-0.038,-0.974,0.153,-0.122,0.366,0.305,262.697
123313,140723,10514,-0.04,-0.974,0.152,-0.061,0.427,0.183,262.703
123304,140794,9274,-0.038,-0.972,0.147,-0.061,0.427,0.183,262.707
123304,140746,10517,-0.038,-0.978,0.149,0,0.488,0.244,262.713
123304,140794,9274,-0.035,-0.976,0.152,0,0.488,0.244,262.717
123304,140712,10524,-0.034,-0.973,0.153,-0.122,0.244,0.427,262.723
123292,140794,9274,-0.038,-0.976,0.147,-0.122,0.244,0.427,262.727
123292,140718,10521,-0.038,-0.976,0.146,-0.366,0.244,0.549,262.733
123293,140794,9274,-0.041,-0.979,0.15,-0.366,0.244,0.549,262.736
123293,140715,10518,-0.039,-0.978,0.153,-0.183,0.427,0.488,262.743
123295,140794,9274,-0.036,-0.979,0.148,-0.183,0.427,0.488,262.746
123295,140716,10524,-0.037,-0.976,0.149,0,0.305,0.305,262.753
123308,140794,9274,-0.036,-0.974,0.148,0,0.305,0.305,262.756
123308,140700,10514,-0.039,-0.978,0.151,0.061,0.488,0.366,262.762
123292,140794,9274,-0.039,-0.976,0.157,0.061,0.488,0.366,262.766
123292,140695,10523,-0.037,-0.979,0.15,-0.061,0.488,0.305,262.772
123314,140794,9274,-0.038,-0.974,0.152,-0.061,0.488,0.305,262.776
123314,140710,10525,-0.038,-0.974,0.153,-0.305,0.427,0.183,262.782
123295,140794,9274,-0.039,-0.976,0.15,-0.305,0.427,0.183,262.786
123295,140692,10526,-0.039,-0.975,0.153,-0.122,0.61,0.183,262.792
123305,140794,9274,-0.04,-0.971,0.153,-0.122,0.61,0.183,262.796
123305,140700,10517,-0.039,-0.967,0.154,-0.427,0.61,0.305,262.802
123286,140794,9274,-0.039,-0.972,0.155,-0.427,0.61,0.305,262.806
123286,140700,10528,-0.037,-0.974,0.151,-0.244,0.488,0.366,262.812
123303,140794,9274,-0.036,-0.976,0.154,-0.244,0.488,0.366,262.816
123303,140709,10519,-0.038,-0.976,0.155,-0.366,0.488,0.244,262.822
123316,140794,9274,-0.038,-0.976,0.155,-0.366,0.488,0.244,262.826
123316,140678,10538,-0.038,-0.974,0.151,-0.366,0.549,0.366,262.832
123298,140794,9274,-0.035,-0.973,0.152,-0.366,0.549,0.366,262.835
123298,140726,10518,-0.037,-0.974,0.15,0.061,0.549,0.427,262.842
123312,140794,9274,-0.033,-0.976,0.147,0.061,0.549,0.427,262.845
123312,140721,10520,-0.036,-0.973,0.15,0.427,0.671,0.244,262.852
123328,140794,9274,-0.035,-0.974,0.149,0.427,0.671,0.244,262.855
123328,140699,10517,-0.038,-0.976,0.153,0.549,0.732,0.366,262.861
123303,140794,9274,-0.037,-0.974,0.144,0.549,0.732,0.366,262.865
123303,140708,10513,-0.034,-0.972,0.145,0,0.671,0.366,262.871
123304,140794,9274,-0.034,-0.974,0.148,0,0.671,0.366,262.875
123304,140700,10524,-0.036,-0.976,0.148,-0.366,0.854,0.488,262.881
123285,140794,9274,-0.036,-0.977,0.148,-0.366,0.854,0.488,262.885
123285,140689,10515,-0.036,-0.978,0.146,-0.305,0.976,0.549,262.891
123298,140794,9274,-0.037,-0.977,0.149,-0.305,0.976,0.549,262.895
123298,140718,10530,-0.037,-0.975,0.152,-0.305,0.732,0.61,262.901
123327,140794,9274,-0.036,-0.975,0.149,-0.305,0.732,0.61,262.905
123327,140700,10514,-0.04,-0.976,0.15,-0.366,0.732,0.732,262.911
123300,140794,9274,-0.042,-0.977,0.151,-0.366,0.732,0.732,262.915
123300,140705,10524,-0.042,-0.982,0.152,-0.427,0.671,0.732,262.921
123294,140794,9274,-0.041,-0.979,0.149,-0.427,0.671,0.732,262.925
123294,140698,10523,-0.044,-0.978,0.15,-0.488,0.488,0.732,262.931
123299,140794,9274,-0.041,-0.976,0.152,-0.488,0.488,0.732,262.934
123299,140703,10511,-0.041,-0.979,0.152,-0.671,0.366,0.61,262.941
123309,140794,9274,-0.042,-0.975,0.153,-0.671,0.366,0.61,262.944
123309,140710,10508,-0.045,-0.974,0.153,-0.732,0.366,0.549,262.951
123303,140794,9274,-0.042,-0.975,0.152,-0.732,0.366,0.549,262.954
123303,140695,10527,-0.043,-0.975,0.158,-0.61,0.183,0.427,262.96
123294,140794,9274,-0.041,-0.975,0.157,-0.61,0.183,0.427,262.964
123294,140710,10505,-0.046,-0.971,0.158,-0.671,0.244,0.305,262.97
123303,140794,9274,-0.043,-0.972,0.156,-0.671,0.244,0.305,262.974
123303,140714,10518,-0.043,-0.973,0.153,-0.793,0.305,0.366,262.98
123300,140794,9274,-0.043,-0.977,0.152,-0.793,0.305,0.366,262.984
123300,140718,10510,-0.042,-0.977,0.153,-0.61,0,0.366,262.99
123287,140794,9274,-0.043,-0.975,0.153,-0.61,0,0.366,262.994
123287,140719,10518,-0.04,-0.975,0.154,-0.366,-0.061,0.427,263
123322,140794,9274,-0.043,-0.976,0.151,-0.366,-0.061,0.427,263.004
123322,140691,10515,-0.042,-0.975,0.149,-0.061,0,0.488,263.01
123289,140794,9274,-0.042,-0.975,0.149,-0.061,0,0.488,263.014
123289,140713,10524,-0.041,-0.979,0.15,-0.122,0.061,0.488,263.02
123317,140794,9274,-0.041,-0.981,0.145,-0.122,0.061,0.488,263.024
123317,140716,10511,-0.038,-0.979,0.144,-0.183,0.061,0.427,263.03
123303,140794,9274,-0.038,-0.979,0.144,-0.183,0.061,0.427,263.033
123303,140732,10527,-0.039,-0.981,0.144,-0.183,0.061,0.305,263.04
123317,140794,9274,-0.039,-0.981,0.144,-0.183,0.061,0.305,263.043
123317,140684,10523,-0.037,-0.974,0.146,0,0.061,0.305,263.049
123309,140794,9274,-0.037,-0.974,0.146,0,0.061,0.305,263.053
123309,140687,10507,-0.038,-0.975,0.151,-0.061,0.244,0.244,263.059
123289,140794,9274,-0.038,-0.975,0.151,-0.061,0.244,0.244,263.063
123289,140727,10504,-0.035,-0.978,0.142,-0.488,0.305,0.183,263.069
123292,140794,9274,-0.035,-0.978,0.142,-0.488,0.305,0.183,263.073
123292,140721,10528,-0.034,-0.976,0.148,-0.915,0.244,0.305,263.079
123291,140794,9274,-0.034,-0.976,0.148,-0.915,0.244,0.305,263.083
123291,140690,10516,-0.034,-0.975,0.148,-0.793,0.305,0.183,263.089
123294,140794,9274,-0.034,-0.975,0.148,-0.793,0.305,0.183,263.093
123294,140701,10522,-0.032,-0.977,0.151,-0.244,0.244,0.122,263.099
123295,140794,9274,-0.032,-0.977,0.151,-0.244,0.244,0.122,263.103
123295,140669,10526,-0.034,-0.972,0.153,-0.122,0.366,0.244,263.109
123306,140794,9274,-0.034,-0.972,0.153,-0.122,0.366,0.244,263.113
123306,140718,10512,-0.034,-0.973,0.154,-0.366,0.427,0.183,263.119
123310,140794,9274,-0.034,-0.973,0.154,-0.366,0.427,0.183,263.123
123310,140696,10510,-0.038,-0.973,0.154,-0.549,0.366,0.183,263.129
123298,140794,9274,-0.038,-0.973,0.154,-0.549,0.366,0.183,263.132
123298,140703,10516,-0.037,-0.975,0.152,-0.549,0.366,0.183,263.139
123306,140794,9274,-0.037,-0.975,0.152,-0.549,0.366,0.183,263.142
123306,140732,10512,-0.04,-0.976,0.149,-0.549,0.488,0.244,263.148
123283,140794,9274,-0.04,-0.976,0.149,-0.549,0.488,0.244,263.152
123283,140711,10529,-0.038,-0.974,0.154,-0.061,0.488,0.366,263.158
123291,140794,9274,-0.038,-0.974,0.154,-0.061,0.488,0.366,263.162
123291,140725,10521,-0.038,-0.973,0.148,0.061,0.61,0.366,263.168
123302,140794,9274,-0.038,-0.973,0.148,0.061,0.61,0.366,263.172
123302,140702,10525,-0.04,-0.977,0.147,0.061,0.61,0.366,263.178
123292,140794,9274,-0.039,-0.982,0.147,-0.061,0.549,0.366,263.182
123292,140701,10514,-0.041,-0.981,0.151,-0.061,0.549,0.366,263.188
123307,140794,9274,-0.037,-0.98,0.151,0,0.305,0.366,263.192
123307,140692,10500,-0.034,-0.976,0.151,0,0.305,0.366,263.198
123281,140794,9274,-0.037,-0.973,0.146,-0.061,0.488,0.549,263.202
123281,140691,10522,-0.039,-0.976,0.143,-0.061,0.488,0.549,263.208
123287,140794,9274,-0.042,-0.979,0.146,-0.244,0.61,0.427,263.212
123287,140691,10515,-0.041,-0.983,0.144,-0.244,0.61,0.427,263.218
123291,140794,9274,-0.042,-0.982,0.145,-0.244,0.427,0.244,263.222
123291,140698,10516,-0.038,-0.975,0.149,-0.244,0.427,0.244,263.228
123309,140794,9274,-0.038,-0.973,0.15,-0.488,0.427,0.305,263.231
123309,140672,10519,-0.041,-0.972,0.149,-0.488,0.427,0.305,263.238
123310,140794,9274,-0.041,-0.972,0.15,-0.671,0.549,0.366,263.241
123310,140699,10509,-0.042,-0.976,0.153,-0.671,0.549,0.366,263.247
123285,140794,9274,-0.041,-0.978,0.151,-0.915,0.366,0.305,263.251
123285,140721,10509,-0.038,-0.976,0.151,-0.915,0.366,0.305,263.257
123294,140794,9274,-0.038,-0.972,0.152,-1.037,0.183,0.244,263.261
123294,140684,10526,-0.036,-0.975,0.156,-1.037,0.183,0.244,263.267
123300,140794,9274,-0.033,-0.975,0.156,-0.305,0.305,0.244,263.271
123300,140693,10514,-0.037,-0.972,0.154,-0.305,0.305,0.244,263.277
123284,140794,9274,-0.037,-0.972,0.154,0.122,0.549,0.305,263.281
123284,140679,10516,-0.039,-0.974,0.156,0.122,0.549,0.305,263.287
123290,140794,9274,-0.037,-0.973,0.151,0.061,0.549,0.366,263.291
123290,140680,10525,-0.037,-0.973,0.149,0.061,0.549,0.366,263.297
123293,140794,9274,-0.038,-0.977,0.15,-0.244,0.488,0.427,263.301
123293,140678,10514,-0.037,-0.979,0.149,-0.244,0.488,0.427,263.307
123286,140794,9274,-0.036,-0.979,0.151,0,0.305,0.427,263.311
123286,140682,10508,-0.036,-0.977,0.154,0,0.305,0.427,263.317
123296,140794,9274,-0.034,-0.972,0.153,-0.061,0.305,0.427,263.321
123296,140707,10523,-0.033,-0.972,0.15,-0.061,0.305,0.427,263.327
123296,140794,9274,-0.035,-0.976,0.15,-0.183,0.488,0.427,263.33
123296,140701,10508,-0.039,-0.978,0.148,-0.183,0.488,0.427,263.337
123282,140794,9274,-0.039,-0.977,0.148,-0.61,0.488,0.427,263.34
123282,140708,10508,-0.037,-0.976,0.151,-0.61,0.488,0.427,263.347
123283,140794,9274,-0.038,-0.982,0.149,-0.793,0.183,0.427,263.35
123283,140690,10515,-0.038,-0.98,0.15,-0.793,0.183,0.427,263.356
123285,140794,9274,-0.038,-0.977,0.151,-0.488,0.305,0.366,263.36
123285,140675,10522,-0.039,-0.975,0.147,-0.488,0.305,0.366,263.366
123273,140794,9274,-0.04,-0.972,0.146,-0.488,0.671,0.366,263.37
123273,140680,10509,-0.041,-0.974,0.153,-0.488,0.671,0.366,263.376
123245,140794,9274,-0.042,-0.974,0.148,-0.549,0.366,0.305,263.38
123245,140679,10517,-0.04,-0.974,0.15,-0.549,0.366,0.305,263.386
123254,140794,9274,-0.041,-0.977,0.152,-0.793,0.061,0.244,263.39
123254,140663,10493,-0.038,-0.976,0.152,-0.793,0.061,0.244,263.396
123246,140794,9274,-0.04,-0.976,0.149,-1.22,0,0.305,263.4
123246,140659,10521,-0.038,-0.976,0.154,-1.22,0,0.305,263.406
123250,140794,9274,-0.039,-0.978,0.153,-0.915,0,0.305,263.41
123250,140664,10497,-0.038,-0.975,0.152,-0.915,0,0.305,263.416
123274,140794,9274,-0.039,-0.972,0.155,-0.366,-0.122,0.244,263.42
123274,140666,10499,-0.037,-0.972,0.153,-0.366,-0.122,0.244,263.426
123263,140794,9274,-0.038,-0.974,0.152,-0.244,-0.122,0.305,263.429
123263,140655,10504,-0.041,-0.973,0.149,-0.244,-0.122,0.305,263.436
123256,140794,9274,-0.037,-0.973,0.149,-0.671,-0.122,0.366,263.439
123256,140657,10498,-0.036,-0.978,0.151,-0.671,-0.122,0.366,263.445
123275,140794,9274,-0.035,-0.979,0.147,-0.61,-0.061,0.366,263.449
123275,140653,10500,-0.034,-0.977,0.147,-0.61,-0.061,0.366,263.455
123272,140794,9274,-0.035,-0.976,0.142,-0.488,0,0.366,263.459
123272,140671,10503,-0.034,-0.974,0.144,-0.488,0,0.366,263.465
123267,140794,9274,-0.037,-0.977,0.15,-0.366,0.183,0.488,263.469
123267,140681,10505,-0.036,-0.978,0.148,-0.366,0.183,0.488,263.475
123248,140794,9274,-0.036,-0.981,0.144,-0.549,0.366,0.427,263.479
123248,140669,10506,-0.036,-0.979,0.144,-0.549,0.366,0.427,263.485
123278,140794,9274,-0.037,-0.976,0.143,-1.037,0.366,0.305,263.489
123278,140660,10521,-0.039,-0.98,0.145,-1.037,0.366,0.305,263.495
123255,140794,9274,-0.038,-0.983,0.149,-0.549,0.305,0.305,263.499
123255,140672,10494,-0.038,-0.983,0.151,-0.549,0.305,0.305,263.505
123255,140794,9274,-0.037,-0.977,0.151,-0.183,0.366,0.122,263.509
123255,140650,10495,-0.038,-0.97,0.15,-0.183,0.366,0.122,263.515
123269,140794,9274,-0.036,-0.971,0.15,-0.244,0.549,0.061,263.519
123269,140656,10499,-0.036,-0.972,0.147,-0.244,0.549,0.061,263.525
123256,140794,9274,-0.035,-0.977,0.149,-0.427,0.488,0.122,263.528
123256,140663,10495,-0.035,-0.978,0.151,-0.427,0.488,0.122,263.535
123256,140794,9274,-0.037,-0.972,0.15,-0.732,0.427,0.244,263.538
123256,140682,10498,-0.035,-0.97,0.147,-0.732,0.427,0.244,263.545
123245,140794,9274,-0.038,-0.973,0.15,-0.793,0.61,0.488,263.548
123245,140667,10505,-0.038,-0.977,0.15,-0.793,0.61,0.488,263.554
123255,140794,9274,-0.038,-0.978,0.149,-0.305,0.549,0.366,263.558
123255,140658,10501,-0.037,-0.977,0.148,-0.305,0.549,0.366,263.564
123249,140794,9274,-0.038,-0.98,0.148,-0.122,0.366,0.366,263.568
123249,140674,10517,-0.04,-0.978,0.151,-0.122,0.366,0.366,263.574
123269,140794,9274,-0.04,-0.974,0.148,0.305,0.427,0.488,263.578
123269,140676,10505,-0.037,-0.972,0.147,0.305,0.427,0.488,263.584
123262,140794,9274,-0.04,-0.969,0.146,0.244,0.671,0.549,263.588
123262,140674,10507,-0.041,-0.975,0.145,0.244,0.671,0.549,263.594
123278,140794,9274,-0.039,-0.98,0.145,-0.122,0.549,0.427,263.598
123278,140668,10491,-0.04,-0.98,0.145,-0.122,0.549,0.427,263.604
123283,140794,9274,-0.038,-0.981,0.144,-0.244,0.366,0.244,263.608
123283,140691,10495,-0.037,-0.978,0.145,-0.244,0.366,0.244,263.614
123291,140794,9274,-0.037,-0.975,0.15,-0.244,0.549,0.244,263.618
123291,140674,10507,-0.035,-0.974,0.149,-0.244,0.549,0.244,263.624
123266,140794,9274,-0.035,-0.974,0.149,-0.244,0.549,0.244,263.627
123266,140682,10502,-0.038,-0.972,0.151,0.122,0.61,0.305,263.634
123256,140794,9274,-0.038,-0.972,0.151,0.122,0.61,0.305,263.637
123256,140691,10504,-0.036,-0.971,0.15,0.183,0.61,0.183,263.643
123270,140794,9274,-0.036,-0.971,0.15,0.183,0.61,0.183,263.647
123270,140674,10492,-0.038,-0.974,0.148,-0.183,0.732,0.305,263.653
123266,140794,9274,-0.038,-0.974,0.148,-0.183,0.732,0.305,263.657
123266,140673,10503,-0.035,-0.972,0.152,-0.244,0.671,0.366,263.663
123266,140794,9274,-0.035,-0.972,0.152,-0.244,0.671,0.366,263.667
123266,140650,10501,-0.039,-0.975,0.152,-0.183,0.549,0.427,263.673
123262,140794,9274,-0.039,-0.975,0.152,-0.183,0.549,0.427,263.677
123262,140689,10505,-0.039,-0.977,0.151,-0.183,0.549,0.488,263.683
123266,140794,9274,-0.039,-0.977,0.151,-0.183,0.549,0.488,263.687
123266,140664,10495,-0.041,-0.977,0.152,-0.244,0.427,0.427,263.693
123274,140794,9274,-0.041,-0.977,0.152,-0.244,0.427,0.427,263.697
123274,140674,10498,-0.038,-0.974,0.148,-0.183,0.305,0.366,263.703
123266,140794,9274,-0.038,-0.974,0.148,-0.183,0.305,0.366,263.707
123266,140661,10494,-0.038,-0.973,0.151,0.061,0.244,0.427,263.713
123293,140794,9274,-0.038,-0.973,0.151,0.061,0.244,0.427,263.717
123293,140668,10507,-0.035,-0.97,0.148,0,0.305,0.427,263.723
123291,140794,9274,-0.035,-0.97,0.148,0,0.305,0.427,263.726
123291,140671,10507,-0.037,-0.975,0.145,-0.305,0.244,0.305,263.733
123273,140794,9274,-0.037,-0.975,0.145,-0.305,0.244,0.305,263.736
123273,140697,10509,-0.036,-0.976,0.152,-0.366,0.305,0.244,263.743
123288,140794,9274,-0.036,-0.976,0.152,-0.366,0.305,0.244,263.746
123288,140709,10489,-0.038,-0.975,0.152,-0.732,0.488,0.366,263.752
123293,140794,9274,-0.038,-0.975,0.152,-0.732,0.488,0.366,263.756
123293,140664,10500,-0.035,-0.974,0.15,-0.732,0.488,0.427,263.762
123305,140794,9274,-0.035,-0.974,0.15,-0.732,0.488,0.427,263.766
123305,140717,10503,-0.037,-0.975,0.15,-0.61,0.671,0.427,263.772
123315,140794,9274,-0.038,-0.979,0.15,-0.61,0.671,0.427,263.776
123315,140694,10512,-0.04,-0.979,0.15,-0.427,0.793,0.366,263.782
123288,140794,9274,-0.04,-0.976,0.15,-0.427,0.793,0.366,263.786
123288,140689,10505,-0.039,-0.977,0.151,-0.305,0.671,0.427,263.792
123290,140794,9274,-0.041,-0.974,0.151,-0.305,0.671,0.427,263.796
123290,140712,10500,-0.039,-0.971,0.146,-0.366,0.488,0.61,263.802
123285,140794,9274,-0.039,-0.97,0.144,-0.366,0.488,0.61,263.806
123285,140698,10506,-0.038,-0.977,0.146,-0.488,0.549,0.61,263.812
123297,140794,9274,-0.037,-0.979,0.147,-0.488,0.549,0.61,263.816
123297,140674,10517,-0.037,-0.978,0.147,-0.427,0.549,0.488,263.822
123295,140794,9274,-0.039,-0.982,0.146,-0.427,0.549,0.488,263.825
123295,140698,10516,-0.038,-0.979,0.148,-0.305,0.427,0.549,263.832
123298,140794,9274,-0.039,-0.973,0.148,-0.305,0.427,0.549,263.835
123298,140710,10509,-0.037,-0.975,0.147,-0.244,0.549,0.427,263.841
123319,140794,9274,-0.038,-0.977,0.151,-0.244,0.549,0.427,263.845
123319,140710,10512,-0.04,-0.979,0.153,-0.244,0.61,0.244,263.851
123312,140794,9274,-0.036,-0.977,0.149,-0.244,0.61,0.244,263.855
123312,140710,10500,-0.036,-0.977,0.145,-0.854,0.427,0.244,263.861
123314,140794,9274,-0.038,-0.976,0.149,-0.854,0.427,0.244,263.865
123314,140695,10502,-0.035,-0.975,0.151,-0.915,0.366,0.305,263.871
123305,140794,9274,-0.036,-0.975,0.151,-0.915,0.366,0.305,263.875
123305,140713,10515,-0.039,-0.971,0.153,-0.854,0.366,0.244,263.881
123313,140794,9274,-0.038,-0.97,0.15,-0.854,0.366,0.244,263.885
123313,140674,10504,-0.04,-0.973,0.151,-0.793,0.305,0.305,263.891
123327,140794,9274,-0.036,-0.974,0.153,-0.793,0.305,0.305,263.895
123327,140702,10510,-0.037,-0.972,0.151,-0.732,0.183,0.305,263.901
123314,140794,9274,-0.039,-0.972,0.151,-0.732,0.183,0.305,263.905
123314,140695,10511,-0.037,-0.976,0.149,-0.671,0.183,0.427,263.911
123321,140794,9274,-0.04,-0.98,0.148,-0.671,0.183,0.427,263.915
123321,140698,10506,-0.039,-0.982,0.146,-0.671,0.122,0.488,263.921
123303,140794,9274,-0.04,-0.984,0.148,-0.671,0.122,0.488,263.924
123303,140699,10511,-0.042,-0.982,0.15,-0.366,0.061,0.427,263.931
123292,140794,9274,-0.041,-0.982,0.147,-0.366,0.061,0.427,263.934
123292,140690,10516,-0.043,-0.979,0.146,-0.244,0.061,0.305,263.941
123308,140794,9274,-0.043,-0.98,0.145,-0.244,0.061,0.305,263.944
123308,140699,10503,-0.044,-0.979,0.148,-0.488,0.122,0.305,263.95
123317,140794,9274,-0.042,-0.977,0.145,-0.488,0.122,0.305,263.954
123317,140708,10508,-0.043,-0.98,0.141,-0.915,0.061,0.366,263.96
123317,140794,9274,-0.043,-0.983,0.146,-0.915,0.061,0.366,263.964
123317,140694,10503,-0.038,-0.979,0.143,-0.915,-0.244,0.244,263.97
123302,140794,9274,-0.038,-0.977,0.143,-0.915,-0.244,0.244,263.974
123302,140693,10510,-0.042,-0.975,0.144,-0.671,-0.183,0.244,263.98
123320,140794,9274,-0.042,-0.974,0.141,-0.671,-0.183,0.244,263.984
123320,140713,10513,-0.043,-0.975,0.144,-0.427,0.061,0.244,263.99
123310,140794,9274,-0.042,-0.975,0.143,-0.427,0.061,0.244,263.994
123310,140688,10512,-0.038,-0.976,0.147,-0.427,0,0.244,264
123303,140794,9274,-0.036,-0.976,0.142,-0.427,0,0.244,264.004
123303,140697,10514,-0.039,-0.979,0.144,-0.61,0,0.366,264.01
123312,140794,9274,-0.041,-0.982,0.147,-0.61,0,0.366,264.014
123312,140690,10515,-0.04,-0.984,0.15,-0.488,0.183,0.244,264.02
123304,140794,9274,-0.037,-0.979,0.149,-0.488,0.183,0.244,264.023
123304,140700,10510,-0.036,-0.975,0.15,-0.305,0.122,0.183,264.03
123317,140794,9274,-0.038,-0.975,0.148,-0.305,0.122,0.183,264.033
123317,140717,10511,-0.038,-0.978,0.149,0.244,0.183,0.183,264.04
123317,140794,9274,-0.037,-0.973,0.151,0.244,0.183,0.183,264.043
123317,140685,10510,-0.038,-0.973,0.145,0.488,0.366,0.183,264.049
123305,140794,9274,-0.038,-0.973,0.144,0.488,0.366,0.183,264.053
123305,140685,10519,-0.039,-0.974,0.144,0.061,0.366,0.183,264.059
123308,140794,9274,-0.04,-0.976,0.144,0.061,0.366,0.183,264.063
123308,140721,10533,-0.04,-0.976,0.146,0.244,0.183,0.183,264.069
123318,140794,9274,-0.038,-0.98,0.145,0.244,0.183,0.183,264.073
123318,140724,10513,-0.04,-0.978,0.146,0.61,0.183,0.366,264.079
123295,140794,9274,-0.038,-0.975,0.143,0.61,0.183,0.366,264.083
123295,140701,10501,-0.038,-0.974,0.144,0.732,0.427,0.488,264.089
123313,140794,9274,-0.041,-0.974,0.148,0.732,0.427,0.488,264.093
123313,140724,10506,-0.039,-0.977,0.146,0.793,0.427,0.305,264.099
123291,140794,9274,-0.037,-0.98,0.147,0.793,0.427,0.305,264.103
123291,140676,10508,-0.035,-0.979,0.145,0.549,0.122,0.244,264.109
123303,140794,9274,-0.033,-0.976,0.148,0.549,0.122,0.244,264.113
123303,140700,10502,-0.034,-0.976,0.148,0.183,0.305,0.183,264.119
123291,140794,9274,-0.033,-0.975,0.145,0.183,0.305,0.183,264.122
123291,140691,10508,-0.035,-0.973,0.146,-0.183,0.61,0.183,264.129
123279,140794,9274,-0.037,-0.979,0.147,-0.183,0.61,0.183,264.132
123279,140685,10522,-0.035,-0.978,0.148,-0.183,0.488,0.305,264.139
123270,140794,9274,-0.034,-0.978,0.149,-0.183,0.488,0.305,264.142
123270,140686,10497,-0.035,-0.976,0.147,-0.366,0.305,0.183,264.148
123257,140794,9274,-0.034,-0.976,0.15,-0.366,0.305,0.183,264.152
123257,140686,10493,-0.035,-0.974,0.147,-0.305,0.305,0.305,264.158
123274,140794,9274,-0.033,-0.974,0.148,-0.305,0.305,0.305,264.162
123274,140680,10507,-0.036,-0.977,0.145,-0.122,0.488,0.427,264.168
123273,140794,9274,-0.036,-0.978,0.144,-0.122,0.488,0.427,264.172
123273,140679,10508,-0.036,-0.976,0.146,0.366,0.488,0.427,264.178
123275,140794,9274,-0.036,-0.972,0.15,0.366,0.488,0.427,264.182
123275,140679,10497,-0.037,-0.974,0.146,0.427,0.549,0.427,264.188
123263,140794,9274,-0.039,-0.974,0.147,0.427,0.549,0.427,264.192
123263,140688,10491,-0.039,-0.975,0.148,0.122,0.671,0.427,264.198
123294,140794,9274,-0.039,-0.977,0.149,0.122,0.671,0.427,264.202
123294,140686,10500,-0.038,-0.977,0.148,0,0.549,0.488,264.208
123301,140794,9274,-0.038,-0.977,0.148,0,0.549,0.488,264.212
123301,140693,10500,-0.035,-0.976,0.148,-0.183,0.671,0.427,264.218
123276,140794,9274,-0.035,-0.976,0.148,-0.183,0.671,0.427,264.221
123276,140689,10492,-0.039,-0.978,0.148,-0.061,0.793,0.305,264.228
123290,140794,9274,-0.039,-0.978,0.148,-0.061,0.793,0.305,264.231
123290,140677,10492,-0.038,-0.972,0.149,0,0.793,0.183,264.238
123310,140794,9274,-0.038,-0.972,0.149,0,0.793,0.183,264.241
123310,140675,10486,-0.04,-0.973,0.153,-0.122,0.61,0.305,264.247
123295,140794,9274,-0.04,-0.973,0.153,-0.122,0.61,0.305,264.251
123295,140675,10497,-0.039,-0.97,0.157,0,0.427,0.244,264.257
123306,140794,9274,-0.039,-0.97,0.157,0,0.427,0.244,264.261
123306,140668,10493,-0.04,-0.975,0.149,-0.427,0.366,0.427,264.267
123297,140794,9274,-0.04,-0.975,0.149,-0.427,0.366,0.427,264.271
123297,140669,10498,-0.041,-0.98,0.146,-0.366,0.244,0.427,264.277
123293,140794,9274,-0.041,-0.98,0.146,-0.366,0.244,0.427,264.281
123293,140679,10489,-0.039,-0.977,0.15,0.061,0.244,0.305,264.287
123282,140794,9274,-0.039,-0.977,0.15,0.061,0.244,0.305,264.291
123282,140647,10487,-0.037,-0.973,0.152,0.244,0.183,0.427,264.297
123271,140794,9274,-0.037,-0.973,0.152,0.244,0.183,0.427,264.301
123271,140677,10482,-0.039,-0.975,0.147,0.244,0.122,0.488,264.307
123287,140794,9274,-0.039,-0.975,0.147,0.244,0.122,0.488,264.311
123287,140667,10489,-0.04,-0.978,0.149,-0.366,0.183,0.427,264.317
123287,140794,9274,-0.04,-0.978,0.149,-0.366,0.183,0.427,264.32
123287,140687,10485,-0.037,-0.981,0.146,-0.366,0,0.366,264.327
123269,140794,9274,-0.037,-0.981,0.146,-0.366,0,0.366,264.33
123269,140697,10492,-0.038,-0.98,0.147,0.122,0.122,0.305,264.337
123307,140794,9274,-0.038,-0.98,0.147,0.122,0.122,0.305,264.34
123307,140681,10499,-0.036,-0.973,0.151,0.244,0.488,0.305,264.346
123292,140794,9274,-0.036,-0.973,0.151,0.244,0.488,0.305,264.35
123292,140676,10487,-0.038,-0.972,0.147,0.305,0.488,0.244,264.356
123294,140794,9274,-0.038,-0.972,0.147,0.305,0.488,0.244,264.36
123294,140673,10493,-0.035,-0.976,0.148,0.305,0.488,0.244,264.366
123291,140794,9274,-0.04,-0.979,0.148,0.061,0.366,0.244,264.37
123291,140686,10495,-0.037,-0.977,0.149,0.061,0.366,0.244,264.376
123264,140794,9274,-0.038,-0.977,0.15,-0.122,0.305,0.366,264.38
123264,140671,10508,-0.038,-0.975,0.146,-0.122,0.305,0.366,264.386
123291,140794,9274,-0.036,-0.975,0.148,-0.305,0.244,0.366,264.39
123291,140685,10489,-0.037,-0.977,0.15,-0.305,0.244,0.366,264.396
123293,140794,9274,-0.036,-0.982,0.15,-0.061,0.305,0.244,264.4
123293,140684,10494,-0.039,-0.979,0.148,-0.061,0.305,0.244,264.406
123274,140794,9274,-0.037,-0.975,0.149,0.244,0.305,0.244,264.41
123274,140698,10489,-0.036,-0.975,0.145,0.244,0.305,0.244,264.416
123295,140794,9274,-0.037,-0.974,0.149,0.488,0.427,0.244,264.419
123295,140681,10495,-0.038,-0.972,0.147,0.488,0.427,0.244,264.426
123286,140794,9274,-0.037,-0.972,0.149,0.183,0.671,0.305,264.429
123286,140666,10493,-0.036,-0.975,0.146,0.183,0.671,0.305,264.436
123299,140794,9274,-0.035,-0.975,0.144,0.061,0.427,0.244,264.439
123299,140675,10484,-0.034,-0.974,0.147,0.061,0.427,0.244,264.445
123298,140794,9274,-0.034,-0.976,0.152,0.244,0.549,0.366,264.449
123298,140688,10492,-0.036,-0.972,0.15,0.244,0.549,0.366,264.455
123281,140794,9274,-0.037,-0.974,0.146,0,0.854,0.366,264.459
123281,140672,10493,-0.038,-0.98,0.146,0,0.854,0.366,264.465
123285,140794,9274,-0.039,-0.978,0.146,0.061,0.671,0.244,264.469
123285,140662,10487,-0.035,-0.975,0.154,0.061,0.671,0.244,264.475
123272,140794,9274,-0.033,-0.976,0.154,0.061,0.427,0.366,264.479
123272,140652,10484,-0.034,-0.974,0.154,0.061,0.427,0.366,264.485
123282,140794,9274,-0.033,-0.971,0.156,-0.183,0.488,0.427,264.489
123282,140667,10494,-0.035,-0.974,0.152,-0.183,0.488,0.427,264.495
123280,140794,9274,-0.034,-0.975,0.15,0,0.671,0.366,264.499
123280,140673,10495,-0.034,-0.977,0.147,0,0.671,0.366,264.505
123283,140794,9274,-0.038,-0.978,0.145,0.061,0.732,0.305,264.509
123283,140666,10503,-0.037,-0.981,0.149,0.061,0.732,0.305,264.515
123282,140794,9274,-0.037,-0.982,0.149,0.244,0.61,0.305,264.518
123282,140691,10484,-0.036,-0.977,0.151,0.244,0.61,0.305,264.525
123272,140794,9274,-0.036,-0.972,0.15,0.305,0.61,0.427,264.528
123272,140653,10492,-0.036,-0.974,0.148,0.305,0.61,0.427,264.535
123285,140794,9274,-0.038,-0.973,0.148,0.244,0.671,0.671,264.538
123285,140642,10492,-0.037,-0.976,0.147,0.244,0.671,0.671,264.544
123281,140794,9274,-0.041,-0.977,0.15,-0.061,0.61,0.61,264.548
123281,140648,10480,-0.04,-0.978,0.151,-0.061,0.61,0.61,264.554
123276,140794,9274,-0.039,-0.98,0.151,-0.244,0.793,0.366,264.558
123276,140672,10484,-0.04,-0.98,0.15,-0.244,0.793,0.366,264.564
123296,140794,9274,-0.04,-0.98,0.149,-0.122,0.732,0.488,264.568
123296,140653,10493,-0.042,-0.979,0.151,-0.122,0.732,0.488,264.574
123307,140794,9274,-0.042,-0.977,0.149,0.061,0.732,0.488,264.578
123307,140681,10491,-0.044,-0.979,0.149,0.061,0.732,0.488,264.584
123288,140794,9274,-0.043,-0.978,0.15,0.122,0.671,0.366,264.588
123288,140671,10502,-0.04,-0.973,0.147,0.122,0.671,0.366,264.594
123281,140794,9274,-0.041,-0.974,0.147,-0.366,0.427,0.305,264.598
123281,140688,10496,-0.039,-0.977,0.15,-0.366,0.427,0.305,264.604
123303,140794,9274,-0.041,-0.981,0.148,-0.854,0.366,0.305,264.608
123303,140686,10513,-0.04,-0.983,0.146,-0.854,0.366,0.305,264.614
123296,140794,9274,-0.035,-0.979,0.148,-1.037,0.305,0.061,264.617
123296,140660,10501,-0.035,-0.977,0.153,-1.037,0.305,0.061,264.624
123276,140794,9274,-0.038,-0.973,0.154,-0.488,0.305,0.061,264.627
123276,140667,10494,-0.035,-0.968,0.153,-0.488,0.305,0.061,264.634
123288,140794,9274,-0.036,-0.967,0.152,0.122,0.427,0.244,264.637
123288,140645,10500,-0.036,-0.968,0.151,0.122,0.427,0.244,264.643
123286,140794,9274,-0.034,-0.974,0.157,-0.061,0.366,0.244,264.647
123286,140666,10502,-0.037,-0.976,0.158,-0.061,0.366,0.244,264.653
123294,140794,9274,-0.037,-0.975,0.156,-0.671,0.244,0.244,264.657
123294,140666,10491,-0.038,-0.973,0.153,-0.671,0.244,0.244,264.663
123287,140794,9274,-0.04,-0.974,0.153,-0.732,0.061,0.488,264.667
123287,140695,10498,-0.037,-0.977,0.152,-0.732,0.061,0.488,264.673
123297,140794,9274,-0.04,-0.977,0.149,-0.061,0.061,0.549,264.677
123297,140686,10493,-0.042,-0.981,0.144,-0.061,0.061,0.549,264.683
123296,140794,9274,-0.04,-0.98,0.146,0.305,0.122,0.244,264.687
123296,140666,10485,-0.04,-0.98,0.15,0.305,0.122,0.244,264.693
123296,140794,9274,-0.043,-0.979,0.147,0.122,0,0.183,264.697
123296,140681,10502,-0.04,-0.974,0.144,0.122,0,0.183,264.703
123295,140794,9274,-0.042,-0.976,0.146,-0.488,-0.122,0.305,264.707
123295,140684,10499,-0.042,-0.979,0.147,-0.488,-0.122,0.305,264.713
123305,140794,9274,-0.042,-0.98,0.147,-0.61,-0.061,0.183,264.717
123305,140672,10482,-0.04,-0.981,0.148,-0.61,-0.061,0.183,264.723
123283,140794,9274,-0.042,-0.978,0.15,-0.732,-0.061,0.061,264.726
123283,140706,10497,-0.041,-0.975,0.147,-0.732,-0.061,0.061,264.733
123310,140794,9274,-0.039,-0.975,0.144,-0.488,0.122,0.183,264.736
123310,140694,10486,-0.037,-0.973,0.148,-0.488,0.122,0.183,264.742
123309,140794,9274,-0.038,-0.974,0.148,-0.122,0.122,0.244,264.746
123309,140669,10504,-0.039,-0.971,0.152,-0.122,0.122,0.244,264.752
123303,140794,9274,-0.04,-0.973,0.15,-0.305,0.183,0.366,264.756
123303,140700,10504,-0.038,-0.976,0.151,-0.305,0.183,0.366,264.762
123300,140794,9274,-0.033,-0.979,0.155,-0.305,0.061,0.305,264.766
123300,140677,10504,-0.033,-0.978,0.157,-0.305,0.061,0.305,264.772
123295,140794,9274,-0.038,-0.976,0.147,-0.305,0.183,0.305,264.776
123295,140671,10502,-0.036,-0.976,0.144,-0.305,0.183,0.305,264.782
123320,140794,9274,-0.034,-0.981,0.144,-0.244,0.183,0.305,264.786
123320,140697,10503,-0.036,-0.979,0.145,-0.244,0.183,0.305,264.792
123311,140794,9274,-0.036,-0.981,0.149,0.122,0.061,0.122,264.796
123311,140712,10495,-0.037,-0.978,0.152,0.122,0.061,0.122,264.802
123326,140794,9274,-0.036,-0.969,0.15,0.122,0.305,0.122,264.806
123326,140706,10506,-0.035,-0.972,0.147,0.122,0.305,0.122,264.812
123297,140794,9274,-0.035,-0.972,0.147,0.122,0.305,0.122,264.815
123297,140698,10496,-0.037,-0.972,0.149,-0.305,0.488,0.061,264.822
123310,140794,9274,-0.037,-0.972,0.149,-0.305,0.488,0.061,264.825
123310,140716,10497,-0.033,-0.974,0.15,-0.549,0.427,0.183,264.832
123314,140794,9274,-0.033,-0.974,0.15,-0.549,0.427,0.183,264.835
123314,140695,10511,-0.035,-0.972,0.153,-0.122,0.488,0.305,264.841
123305,140794,9274,-0.035,-0.972,0.153,-0.122,0.488,0.305,264.845
123305,140690,10505,-0.035,-0.974,0.147,0.122,0.671,0.488,264.851
123313,140794,9274,-0.035,-0.974,0.147,0.122,0.671,0.488,264.855
123313,140674,10508,-0.036,-0.978,0.148,0.305,0.732,0.488,264.861
123289,140794,9274,-0.036,-0.978,0.148,0.305,0.732,0.488,264.865
123289,140695,10498,-0.037,-0.975,0.148,0.122,0.427,0.427,264.871
123310,140794,9274,-0.037,-0.975,0.148,0.122,0.427,0.427,264.875
123310,140686,10489,-0.039,-0.98,0.15,-0.061,0.427,0.427,264.881
123293,140794,9274,-0.039,-0.98,0.15,-0.061,0.427,0.427,264.885
123293,140690,10497,-0.038,-0.978,0.146,0.061,0.61,0.244,264.891
123282,140794,9274,-0.038,-0.978,0.146,0.061,0.61,0.244,264.895
123282,140680,10510,-0.036,-0.974,0.148,-0.183,0.671,0.244,264.901
123288,140794,9274,-0.036,-0.974,0.148,-0.183,0.671,0.244,264.905
123288,140642,10491,-0.034,-0.976,0.149,-0.305,0.549,0.427,264.911
123280,140794,9274,-0.034,-0.976,0.149,-0.305,0.549,0.427,264.915
123280,140654,10500,-0.037,-0.974,0.151,-0.244,0.549,0.366,264.921
123267,140794,9274,-0.037,-0.974,0.151,-0.244,0.549,0.366,264.924
123267,140666,10502,-0.037,-0.978,0.147,-0.427,0.671,0.366,264.931
123279,140794,9274,-0.037,-0.978,0.147,-0.427,0.671,0.366,264.934
123279,140663,10497,-0.038,-0.977,0.152,-0.366,0.61,0.427,264.94
123277,140794,9274,-0.038,-0.977,0.152,-0.366,0.61,0.427,264.944
123277,140672,10481,-0.04,-0.976,0.152,0.183,0.671,0.488,264.95
123293,140794,9274,-0.04,-0.976,0.152,0.183,0.671,0.488,264.954
123293,140676,10487,-0.039,-0.972,0.151,0.122,0.732,0.427,264.96
123287,140794,9274,-0.04,-0.973,0.15,0.122,0.732,0.427,264.964
123287,140692,10511,-0.041,-0.978,0.15,0,0.671,0.427,264.97
