126342,143006,10825,-0.071,-0.986,0.072,0.549,0.427,0.305,290.638
126342,142857,10887,-0.068,-0.988,0.074,0.549,0.427,0.305,290.644
126361,142750,10825,-0.066,-0.983,0.068,0.427,0.366,0.183,290.648
126361,142842,10873,-0.07,-0.984,0.055,0.427,0.366,0.183,290.654
126352,142750,10825,-0.069,-0.989,0.062,0.122,0.427,0.305,290.658
126352,142824,10883,-0.066,-0.993,0.076,0.122,0.427,0.305,290.664
126342,143006,10825,-0.065,-0.987,0.076,1.159,0.671,0.244,290.668
126342,142848,10876,-0.063,-0.971,0.069,1.159,0.671,0.244,290.674
126354,142750,10825,-0.067,-0.969,0.059,0.61,0.854,0.122,290.678
126354,142834,10880,-0.065,-0.971,0.055,0.61,0.854,0.122,290.684
126350,143006,10825,-0.065,-0.983,0.055,0.427,0.732,0.549,290.687
126350,142867,10889,-0.065,-0.987,0.058,0.427,0.732,0.549,290.694
126340,142750,10825,-0.063,-0.982,0.056,-0.915,0.366,0.244,290.697
126340,142839,10877,-0.061,-0.979,0.053,-0.915,0.366,0.244,290.704
126343,143006,10825,-0.061,-0.983,0.054,-1.159,0.183,0.488,290.707
126343,142852,10876,-0.064,-0.986,0.052,-1.159,0.183,0.488,290.713
126349,143006,10825,-0.061,-0.985,0.054,0.671,0.305,0.61,290.717
126349,142860,10866,-0.063,-0.982,0.057,0.671,0.305,0.61,290.723
126337,142750,10825,-0.063,-0.977,0.056,0.488,0.793,0.427,290.727
126337,142836,10884,-0.068,-0.974,0.062,0.488,0.793,0.427,290.733
126317,142750,10825,-0.068,-0.976,0.065,-0.122,0.915,0.732,290.737
126317,142804,10876,-0.069,-0.982,0.064,-0.122,0.915,0.732,290.743
126293,142750,10825,-0.063,-0.987,0.059,-0.793,0.305,0.671,290.747
126293,142826,10881,-0.06,-0.992,0.065,-0.793,0.305,0.671,290.753
126324,142750,10825,-0.058,-0.99,0.064,-0.793,0.122,0.427,290.757
126324,142801,10861,-0.062,-0.984,0.053,-0.793,0.122,0.427,290.763
126284,142750,10825,-0.065,-0.982,0.05,-0.671,0.61,0.366,290.767
126284,142815,10873,-0.069,-0.985,0.053,-0.671,0.61,0.366,290.773
126280,142750,10825,-0.065,-0.981,0.051,0.488,0.61,0.244,290.777
126280,142788,10886,-0.066,-0.975,0.055,0.488,0.61,0.244,290.783
126305,142750,10825,-0.064,-0.971,0.057,0,0.488,0.122,290.786
126305,142800,10874,-0.063,-0.974,0.06,0,0.488,0.122,290.793
126319,142750,10825,-0.065,-0.976,0.063,-0.61,0.61,0.61,290.796
126319,142809,10861,-0.068,-0.983,0.066,-0.61,0.61,0.61,290.803
126281,142750,10825,-0.068,-0.99,0.061,-1.037,0.549,0.61,290.806
126281,142822,10881,-0.062,-0.989,0.058,-1.037,0.549,0.61,290.812
126303,142750,10825,-0.062,-0.988,0.058,-0.671,0.366,0.427,290.816
126303,142780,10853,-0.061,-0.991,0.065,-0.671,0.366,0.427,290.822
126270,142750,10825,-0.06,-0.987,0.066,0.732,0.488,0.488,290.826
126270,142808,10870,-0.062,-0.976,0.066,0.732,0.488,0.488,290.832
126296,142750,10825,-0.062,-0.973,0.068,0.061,0.732,0.366,290.836
126296,142797,10873,-0.066,-0.978,0.067,0.061,0.732,0.366,290.842
126297,142750,10825,-0.068,-0.981,0.064,-0.732,0.854,0.366,290.846
126297,142809,10861,-0.069,-0.981,0.067,-0.732,0.854,0.366,290.852
126278,142750,10825,-0.065,-0.987,0.065,-0.854,0.549,0.305,290.856
126278,142814,10873,-0.062,-0.989,0.057,-0.854,0.549,0.305,290.862
126289,142750,10825,-0.067,-0.99,0.052,-0.366,0.549,0.122,290.866
126289,142814,10845,-0.069,-0.99,0.059,-0.366,0.549,0.122,290.872
126273,142750,10825,-0.069,-0.99,0.06,0.488,0.793,-0.183,290.876
126273,142776,10867,-0.069,-0.981,0.058,0.488,0.793,-0.183,290.882
126260,142750,10825,-0.067,-0.975,0.056,0.366,0.976,-0.061,290.885
126260,142818,10874,-0.073,-0.972,0.056,0.366,0.976,-0.061,290.892
126262,142750,10825,-0.071,-0.976,0.057,-0.366,0.671,0.244,290.895
126262,142790,10864,-0.069,-0.981,0.055,-0.366,0.671,0.244,290.902
126249,142750,10825,-0.066,-0.985,0.057,-0.549,0.305,0,290.905
126249,142787,10862,-0.063,-0.986,0.059,-0.549,0.305,0,290.911
126249,142750,10825,-0.062,-0.982,0.061,-0.488,0.244,0.061,290.915
126249,142788,10860,-0.065,-0.981,0.059,-0.488,0.244,0.061,290.921
126256,142750,10825,-0.067,-0.982,0.056,-0.366,0.549,0.427,290.925
126256,142764,10865,-0.066,-0.985,0.059,-0.366,0.549,0.427,290.931
126258,142750,10825,-0.065,-0.983,0.055,0.061,0.732,0.671,290.935
126258,142754,10869,-0.065,-0.984,0.058,0.061,0.732,0.671,290.941
126261,142750,10825,-0.061,-0.987,0.056,0.732,0.427,0.488,290.945
126261,142770,10861,-0.062,-0.984,0.057,0.732,0.427,0.488,290.951
126256,142750,10825,-0.063,-0.98,0.053,0.915,0.366,0.305,290.955
126256,142740,10871,-0.064,-0.975,0.051,0.915,0.366,0.305,290.961
126272,142750,10825,-0.067,-0.981,0.057,0.488,0.793,0.366,290.965
126272,142786,10857,-0.07,-0.986,0.066,0.488,0.793,0.366,290.971
126265,142750,10825,-0.067,-0.979,0.063,0.366,0.732,0.366,290.975
126265,142752,10852,-0.064,-0.979,0.064,0.366,0.732,0.366,290.981
126247,142750,10825,-0.063,-0.987,0.072,-0.549,0.61,0.305,290.984
126247,142751,10873,-0.063,-0.987,0.068,-0.549,0.61,0.305,290.991
126271,142750,10825,-0.064,-0.988,0.067,-0.549,0.671,0.244,290.994
126271,142786,10869,-0.063,-0.988,0.064,-0.549,0.671,0.244,291.001
126276,142750,10825,-0.059,-0.99,0.07,-0.549,0.61,0.061,291.004
126276,142793,10869,-0.061,-0.982,0.072,-0.549,0.61,0.061,291.01
126242,142750,10825,-0.065,-0.977,0.06,0.183,0.549,0.183,291.014
126242,142782,10854,-0.063,-0.979,0.06,0.183,0.549,0.183,291.02
126251,142750,10825,-0.064,-0.984,0.057,0.122,0.549,0,291.024
126251,142768,10880,-0.067,-0.986,0.059,0.122,0.549,0,291.03
126249,142750,10825,-0.068,-0.982,0.056,-0.183,0.305,-0.061,291.034
126249,142777,10868,-0.064,-0.981,0.053,-0.183,0.305,-0.061,291.04
126252,142750,10825,-0.064,-0.984,0.054,-0.244,0.244,-0.061,291.044
126252,142757,10855,-0.063,-0.983,0.069,-0.244,0.244,-0.061,291.05
126282,142750,10825,-0.063,-0.976,0.061,0.976,0.549,0.122,291.054
126282,142786,10863,-0.063,-0.972,0.061,0.976,0.549,0.122,291.06
126264,142750,10825,-0.067,-0.978,0.075,0.915,0.61,0.061,291.064
126264,142768,10870,-0.072,-0.98,0.076,0.915,0.61,0.061,291.07
126259,142750,10825,-0.074,-0.98,0.073,0,0.488,0.427,291.074
126259,142772,10875,-0.072,-0.98,0.06,0,0.488,0.427,291.08
126257,142750,10825,-0.065,-0.984,0.055,-1.585,-0.183,0.488,291.083
126257,142764,10845,-0.06,-0.988,0.051,-1.585,-0.183,0.488,291.09
126253,142750,10825,-0.06,-0.988,0.051,-1.585,-0.183,0.488,291.093
126253,142788,10864,-0.053,-0.984,0.058,-0.671,-0.488,0.366,291.1
126270,142750,10825,-0.053,-0.984,0.058,-0.671,-0.488,0.366,291.103
126270,142765,10869,-0.062,-0.978,0.055,0.488,-0.061,0.305,291.109
126241,142750,10825,-0.062,-0.978,0.055,0.488,-0.061,0.305,291.113
126241,142751,10854,-0.067,-0.973,0.052,0.61,0.854,0.549,291.119
126266,142750,10825,-0.067,-0.973,0.052,0.61,0.854,0.549,291.123
126266,142773,10863,-0.058,-0.976,0.051,-0.244,0.549,0.671,291.129
126262,142750,10825,-0.058,-0.976,0.051,-0.244,0.549,0.671,291.133
126262,142760,10874,-0.056,-0.988,0.055,-0.976,-0.183,0.549,291.139
126300,142750,10825,-0.056,-0.988,0.055,-0.976,-0.183,0.549,291.143
126300,142790,10877,-0.061,-0.99,0.07,-0.549,0.122,0.61,291.149
126285,142750,10825,-0.061,-0.99,0.07,-0.549,0.122,0.61,291.153
126285,142781,10866,-0.063,-0.983,0.071,-0.244,0.549,0.732,291.159
126292,142750,10825,-0.063,-0.983,0.071,-0.244,0.549,0.732,291.163
126292,142796,10866,-0.067,-0.991,0.063,-0.732,0.793,0.732,291.169
126287,142750,10825,-0.067,-0.991,0.063,-0.732,0.793,0.732,291.173
126287,142787,10865,-0.059,-0.992,0.061,-0.61,0.549,0.366,291.179
126275,142750,10825,-0.059,-0.992,0.061,-0.61,0.549,0.366,291.183
126275,142770,10868,-0.059,-0.969,0.063,0.488,0.244,-0.122,291.189
126304,142750,10825,-0.059,-0.969,0.063,0.488,0.244,-0.122,291.192
126304,142794,10846,-0.068,-0.97,0.073,-0.061,0.61,0.122,291.199
126286,142750,10825,-0.068,-0.97,0.073,-0.061,0.61,0.122,291.202
126286,142795,10861,-0.07,-0.978,0.068,-1.159,0.854,0.244,291.208
126285,142750,10825,-0.07,-0.978,0.068,-1.159,0.854,0.244,291.212
126285,142779,10865,-0.068,-0.992,0.065,-3.049,0.244,0.061,291.218
126314,142750,10825,-0.068,-0.992,0.065,-3.049,0.244,0.061,291.222
126314,142787,10868,-0.062,-0.991,0.064,-2.195,-0.244,0.427,291.228
126287,142750,10825,-0.062,-0.991,0.064,-2.195,-0.244,0.427,291.232
126287,142797,10872,-0.066,-0.987,0.07,-0.122,-0.183,0.549,291.238
126306,142750,10825,-0.066,-0.978,0.063,-0.122,-0.183,0.549,291.242
126306,142821,10872,-0.072,-0.977,0.051,0.366,0.488,0.488,291.248
126295,142750,10825,-0.07,-0.98,0.056,0.366,0.488,0.488,291.252
126295,142795,10867,-0.063,-0.984,0.067,0.671,0.366,0.61,291.258
126315,142750,10825,-0.064,-0.982,0.065,0.671,0.366,0.61,291.262
126315,142815,10868,-0.067,-0.979,0.056,0,0.183,0.671,291.268
126293,142750,10825,-0.067,-0.979,0.057,0,0.183,0.671,291.272
126293,142797,10873,-0.074,-0.989,0.047,-0.488,0.671,0.671,291.278
126310,142750,10825,-0.072,-1,0.05,-0.488,0.671,0.671,291.282
126310,142813,10880,-0.066,-0.994,0.053,1.098,0.488,0.427,291.288
126293,142750,10825,-0.063,-0.978,0.059,1.098,0.488,0.427,291.291
126293,142802,10866,-0.062,-0.964,0.064,0.488,-0.122,0.549,291.298
126284,142750,10825,-0.06,-0.964,0.061,0.488,-0.122,0.549,291.301
126284,142794,10867,-0.065,-0.976,0.063,0.427,0.305,0.671,291.308
126299,142750,10825,-0.07,-0.988,0.058,0.427,0.305,0.671,291.311
126299,142807,10867,-0.071,-0.994,0.052,0.366,0.427,0,291.317
126304,142750,10825,-0.067,-0.993,0.057,0.366,0.427,0,291.321
126304,142810,10864,-0.062,-0.989,0.062,-0.061,-0.183,0,291.327
126308,142750,10825,-0.065,-0.982,0.061,-0.061,-0.183,0,291.331
126308,142810,10879,-0.067,-0.974,0.063,0.183,0.122,0.427,291.337
126289,142750,10825,-0.064,-0.968,0.05,0.183,0.122,0.427,291.341
126289,142792,10876,-0.064,-0.972,0.041,-0.671,0.305,0.427,291.347
126285,142750,10825,-0.063,-0.978,0.05,-0.671,0.305,0.427,291.351
126285,142790,10886,-0.057,-0.986,0.057,-1.22,-0.244,0.366,291.357
126275,142750,10825,-0.057,-0.993,0.063,-1.22,-0.244,0.366,291.361
126275,142812,10878,-0.058,-0.995,0.071,-1.341,-0.183,0.244,291.367
126318,142750,10825,-0.065,-0.99,0.077,-1.341,-0.183,0.244,291.371
126318,142786,10863,-0.069,-0.982,0.061,-0.976,0.61,0.671,291.377
126308,142750,10825,-0.068,-0.986,0.043,-0.976,0.61,0.671,291.381
126308,142817,10861,-0.063,-0.998,0.06,1.341,0.61,0.427,291.387
126288,142750,10825,-0.063,-0.994,0.075,1.341,0.61,0.427,291.39
126288,142824,10872,-0.062,-0.975,0.069,2.439,0.183,-0.061,291.397
126299,142750,10825,-0.064,-0.957,0.065,2.439,0.183,-0.061,291.4
126299,142789,10859,-0.068,-0.962,0.064,0.244,0.732,0.488,291.407
126312,142750,10825,-0.069,-0.979,0.056,0.244,0.732,0.488,291.41
126312,142787,10873,-0.067,-0.99,0.046,0.427,0.305,0.488,291.416
126310,142750,10825,-0.063,-0.988,0.045,0.427,0.305,0.488,291.42
126310,142826,10869,-0.056,-0.986,0.047,-0.366,-0.305,0.122,291.426
126295,142750,10825,-0.058,-0.985,0.051,-0.366,-0.305,0.122,291.43
126295,142814,10880,-0.061,-0.98,0.052,0.61,0.427,0.305,291.436
126293,142750,10825,-0.065,-0.975,0.056,0.61,0.427,0.305,291.44
126293,142796,10861,-0.067,-0.975,0.059,1.28,1.098,0.61,291.446
126309,142750,10825,-0.07,-0.979,0.055,1.28,1.098,0.61,291.45
126309,142827,10863,-0.065,-0.978,0.056,0.915,0.976,0.549,291.456
126303,142750,10825,-0.065,-0.977,0.057,0.915,0.976,0.549,291.46
126303,142822,10866,-0.065,-0.979,0.062,-0.366,0.793,0.854,291.466
126328,142750,10825,-0.062,-0.978,0.066,-0.366,0.793,0.854,291.47
126328,142818,10869,-0.06,-0.979,0.071,-0.488,0.549,0.976,291.476
126313,142750,10825,-0.062,-0.982,0.064,-0.488,0.549,0.976,291.48
126313,142797,10871,-0.065,-0.986,0.053,-0.549,0.488,0.915,291.486
126274,142750,10825,-0.065,-0.991,0.057,-0.549,0.488,0.915,291.49
126274,142793,10878,-0.064,-0.991,0.069,0.61,0.427,0.854,291.496
126276,142750,10825,-0.064,-0.98,0.06,0.61,0.427,0.854,291.499
126276,142778,10862,-0.061,-0.973,0.056,1.037,0.61,0.854,291.506
126279,142750,10825,-0.061,-0.976,0.071,1.037,0.61,0.854,291.509
126279,142784,10873,-0.063,-0.982,0.093,0.793,0.671,1.037,291.515
126260,142750,10825,-0.067,-0.987,0.117,0.793,0.671,1.037,291.519
126260,142788,10872,-0.071,-0.979,0.104,-1.037,0.854,0.671,291.525
126267,142750,10825,-0.076,-0.985,0.068,-1.037,0.854,0.671,291.529
126267,142780,10862,-0.072,-0.997,0.038,-2.256,0.854,0.244,291.535
126262,142750,10825,-0.072,-1.008,0.028,-2.256,0.854,0.244,291.539
126262,142778,10869,-0.064,-1.013,0.046,0.671,-0.183,-0.366,291.545
126288,142750,10825,-0.06,-0.994,0.052,0.671,-0.183,-0.366,291.549
126288,142797,10869,-0.056,-0.959,0.041,0.793,-0.122,-0.305,291.555
126316,142750,10825,-0.062,-0.944,0.043,0.793,-0.122,-0.305,291.559
126316,142819,10868,-0.068,-0.959,0.049,0.061,1.098,0.61,291.565
126297,142750,10825,-0.071,-0.98,0.055,0.061,1.098,0.61,291.569
126297,142804,10866,-0.069,-0.987,0.059,-0.061,1.037,0.244,291.575
126306,142750,10825,-0.066,-0.986,0.057,-0.061,1.037,0.244,291.579
126306,142812,10851,-0.066,-0.985,0.056,-1.28,0.366,0.061,291.585
126327,142750,10825,-0.068,-0.986,0.065,-1.28,0.366,0.061,291.588
126327,142826,10857,-0.066,-0.986,0.066,0.732,0.305,0.854,291.595
126323,142750,10825,-0.061,-0.985,0.071,0.732,0.305,0.854,291.598
126323,142823,10890,-0.063,-0.979,0.085,1.707,0.244,0.732,291.605
126334,142750,10825,-0.062,-0.974,0.087,1.707,0.244,0.732,291.608
126334,142835,10859,-0.067,-0.972,0.079,1.159,0.244,0.732,291.615
126315,142750,10825,-0.071,-0.975,0.07,1.159,0.244,0.732,291.618
126315,142816,10877,-0.067,-0.982,0.064,0.427,0.122,0.61,291.624
126330,142750,10825,-0.066,-0.989,0.063,0.427,0.122,0.61,291.628
126330,142825,10853,-0.065,-0.985,0.055,0.366,-0.488,0.305,291.634
126291,142750,10825,-0.062,-0.984,0.043,0.366,-0.488,0.305,291.638
126291,142797,10864,-0.066,-0.988,0.043,0.244,-0.183,0.183,291.644
126254,142750,10825,-0.07,-0.99,0.053,0.244,-0.183,0.183,291.648
126254,142792,10865,-0.066,-0.989,0.042,0.305,0.366,0.061,291.654
126274,142750,10825,-0.063,-0.989,0.044,0.305,0.366,0.061,291.658
126274,142775,10855,-0.067,-0.985,0.051,0.122,0.488,-0.061,291.664
126259,142750,10825,-0.07,-0.984,0.059,0.122,0.488,-0.061,291.668
126259,142796,10863,-0.068,-0.982,0.058,0.427,0.854,0.183,291.674
126246,142750,10825,-0.069,-0.982,0.075,0.427,0.854,0.183,291.678
126246,142765,10850,-0.065,-0.973,0.076,0.061,0.976,0.183,291.684
126260,142750,10825,-0.065,-0.973,0.076,0.061,0.976,0.183,291.688
126260,142783,10846,-0.064,-0.972,0.069,-0.671,0.671,0.549,291.694
126259,142750,10825,-0.064,-0.972,0.069,-0.671,0.671,0.549,291.697
126259,142817,10866,-0.066,-0.982,0.075,-0.671,0.061,0.61,291.704
126287,142750,10825,-0.066,-0.982,0.075,-0.671,0.061,0.61,291.707
126287,142821,10863,-0.062,-0.981,0.074,-1.28,-0.122,0.488,291.714
126268,142750,10825,-0.062,-0.981,0.074,-1.28,-0.122,0.488,291.717
126268,142805,10862,-0.068,-0.986,0.064,-0.854,-0.183,0.549,291.723
126263,142750,10825,-0.068,-0.986,0.064,-0.854,-0.183,0.549,291.727
126263,142777,10860,-0.061,-0.979,0.048,-0.061,-0.061,0.488,291.733
126253,142750,10825,-0.061,-0.979,0.048,-0.061,-0.061,0.488,291.737
126253,142762,10853,-0.056,-0.973,0.035,0.549,0.122,0.61,291.743
126236,142750,10825,-0.056,-0.973,0.035,0.549,0.122,0.61,291.747
126236,142790,10854,-0.064,-0.98,0.06,1.951,0.61,0.244,291.753
126240,142750,10825,-0.064,-0.98,0.06,1.951,0.61,0.244,291.757
126240,142758,10856,-0.07,-0.975,0.062,-0.061,0.976,0.427,291.763
126217,142750,10825,-0.07,-0.975,0.062,-0.061,0.976,0.427,291.767
126217,142773,10860,-0.066,-1.003,0.06,-0.854,0.671,0.671,291.773
126238,142750,10825,-0.066,-1.003,0.06,-0.854,0.671,0.671,291.777
126238,142792,10846,-0.061,-1,0.063,0,0.244,0.244,291.783
126239,142750,10825,-0.061,-1,0.063,0,0.244,0.244,291.787
126239,142757,10859,-0.058,-0.975,0.073,1.159,0.427,0.366,291.793
126192,142750,10825,-0.058,-0.975,0.073,1.159,0.427,0.366,291.796
126192,142749,10852,-0.066,-0.97,0.067,1.768,0.915,0.488,291.803
126169,142750,10825,-0.066,-0.97,0.067,1.768,0.915,0.488,291.806
126169,142755,10854,-0.069,-0.969,0.081,0.244,0.793,0.427,291.812
126234,142750,10825,-0.069,-0.969,0.081,0.244,0.793,0.427,291.816
126234,142787,10860,-0.068,-0.987,0.061,-1.098,0.305,0.549,291.822
126241,142750,10825,-0.068,-0.987,0.061,-1.098,0.305,0.549,291.826
126241,142810,10859,-0.064,-0.989,0.062,-0.61,0.061,0.427,291.832
126259,142750,10825,-0.064,-0.989,0.062,-0.61,0.061,0.427,291.836
126259,142785,10855,-0.062,-0.982,0.058,-0.61,0.061,0.427,291.842
126214,142750,10825,-0.062,-0.975,0.055,-0.976,0.122,0.549,291.846
126214,142769,10860,-0.062,-0.974,0.049,-0.976,0.122,0.549,291.852
126220,142750,10825,-0.062,-0.981,0.052,-0.61,0.427,0.549,291.856
126220,142751,10867,-0.069,-0.99,0.064,-0.61,0.427,0.549,291.862
126197,142750,10825,-0.07,-0.984,0.073,-0.549,0.488,0.122,291.866
126197,142761,10853,-0.07,-0.979,0.073,-0.549,0.488,0.122,291.872
126203,142750,10825,-0.067,-0.977,0.071,-1.463,0.488,0.427,291.876
126203,142741,10855,-0.066,-0.984,0.08,-1.463,0.488,0.427,291.882
126170,142750,10825,-0.064,-0.986,0.085,-0.61,0.305,0.732,291.886
126170,142710,10840,-0.065,-0.984,0.073,-0.61,0.305,0.732,291.892
126162,142750,10825,-0.068,-0.983,0.065,-0.61,0.305,0.366,291.895
126162,142728,10845,-0.068,-0.979,0.065,-0.61,0.305,0.366,291.902
126179,142750,10825,-0.066,-0.974,0.061,-0.366,0.061,0.549,291.905
126179,142713,10852,-0.063,-0.975,0.051,-0.366,0.061,0.549,291.912
126196,142750,10825,-0.064,-0.979,0.053,0.183,-0.122,0.671,291.915
126196,142740,10864,-0.063,-0.979,0.055,0.183,-0.122,0.671,291.921
126239,142750,10825,-0.066,-0.977,0.05,0.366,0.244,0.488,291.925
126239,142766,10843,-0.067,-0.976,0.051,0.366,0.244,0.488,291.931
126250,142750,10825,-0.069,-0.982,0.06,0.183,0.549,0.793,291.935
126250,142750,10847,-0.069,-0.984,0.057,0.183,0.549,0.793,291.941
126239,142750,10825,-0.066,-0.986,0.062,-0.244,0.549,0.915,291.945
126239,142764,10857,-0.066,-0.985,0.062,-0.244,0.549,0.915,291.951
126202,142750,10825,-0.065,-0.985,0.065,-0.549,0.427,0.793,291.955
126202,142726,10857,-0.064,-0.987,0.066,-0.549,0.427,0.793,291.961
126195,142750,10825,-0.064,-0.983,0.07,-0.061,0.305,0.732,291.965
126195,142726,10860,-0.066,-0.979,0.066,-0.061,0.305,0.732,291.971
126208,142750,10825,-0.069,-0.978,0.066,-0.427,0.366,0.915,291.975
126208,142724,10850,-0.068,-0.98,0.072,-0.427,0.366,0.915,291.981
126168,142750,10825,-0.064,-0.984,0.078,-0.366,0.183,0.976,291.985
126168,142729,10857,-0.064,-0.983,0.083,-0.366,0.183,0.976,291.991
126171,142750,10825,-0.062,-0.979,0.07,-1.28,0.122,0.671,291.994
126171,142715,10852,-0.065,-0.979,0.057,-1.28,0.122,0.671,292.001
126186,142750,10825,-0.067,-0.984,0.056,-1.768,0,0.671,292.004
126186,142707,10851,-0.067,-0.99,0.059,-1.768,0,0.671,292.011
126187,142750,10825,-0.062,-0.991,0.058,-0.793,-0.305,0.305,292.014
126187,142727,10856,-0.063,-0.982,0.047,-0.793,-0.305,0.305,292.02
126214,142750,10825,-0.069,-0.979,0.054,-0.976,0,0.305,292.024
126214,142759,10860,-0.072,-0.983,0.06,-0.976,0,0.305,292.03
126201,142750,10825,-0.072,-0.985,0.054,-0.244,0.305,0.671,292.034
126201,142748,10862,-0.068,-0.986,0.04,-0.244,0.305,0.671,292.04
126192,142750,10825,-0.069,-0.983,0.04,-0.122,0.244,0.366,292.044
126192,142735,10868,-0.067,-0.987,0.055,-0.122,0.244,0.366,292.05
126204,142750,10825,-0.067,-0.985,0.063,0.976,0.122,0.305,292.054
126204,142754,10855,-0.068,-0.981,0.066,0.976,0.122,0.305,292.06
126190,142750,10825,-0.072,-0.974,0.063,0.122,0.549,0.427,292.064
126190,142738,10866,-0.067,-0.968,0.064,0.122,0.549,0.427,292.07
126197,142750,10825,-0.07,-0.972,0.064,-0.183,0.61,0.854,292.074
126197,142737,10842,-0.068,-0.98,0.065,-0.183,0.61,0.854,292.08
126182,142750,10825,-0.068,-0.983,0.068,0.305,0.305,0.61,292.084
126182,142721,10839,-0.067,-0.973,0.066,0.305,0.305,0.61,292.09
126159,142750,10825,-0.066,-0.974,0.065,-0.854,0.061,0.671,292.094
126159,142720,10849,-0.067,-0.983,0.073,-0.854,0.061,0.671,292.1
126165,142750,10825,-0.065,-0.986,0.072,-0.671,0.061,0.915,292.103
126165,142707,10842,-0.067,-0.987,0.072,-0.671,0.061,0.915,292.11
126169,142750,10825,-0.069,-0.983,0.072,-0.732,0.122,0.854,292.113
126169,142723,10853,-0.069,-0.98,0.061,-0.732,0.122,0.854,292.119
126175,142750,10825,-0.068,-0.984,0.054,-0.366,0,0.732,292.123
126175,142718,10844,-0.065,-0.984,0.053,-0.366,0,0.732,292.129
126191,142750,10825,-0.065,-0.984,0.059,0.183,-0.183,0.549,292.133
126191,142717,10840,-0.068,-0.986,0.066,0.183,-0.183,0.549,292.139
126160,142750,10825,-0.07,-0.984,0.067,-0.61,0.244,0.366,292.143
126160,142703,10850,-0.074,-0.979,0.058,-0.61,0.244,0.366,292.149
126121,142750,10825,-0.073,-0.982,0.056,-2.012,0.427,0.366,292.153
126121,142669,10847,-0.069,-0.99,0.054,-2.012,0.427,0.366,292.159
126119,142750,10825,-0.068,-0.991,0.06,-1.28,0,0.305,292.163
126119,142679,10841,-0.063,-0.987,0.062,-1.28,0,0.305,292.169
126088,142750,10825,-0.063,-0.979,0.061,-0.366,0.122,0.305,292.173
126088,142662,10851,-0.066,-0.976,0.064,-0.366,0.122,0.305,292.179
126089,142750,10825,-0.066,-0.975,0.07,0.366,0.488,0.549,292.183
126089,142662,10851,-0.068,-0.974,0.072,0.366,0.488,0.549,292.189
126115,142750,10825,-0.069,-0.975,0.07,0.183,0.366,0.427,292.193
126115,142641,10841,-0.068,-0.98,0.063,0.183,0.366,0.427,292.199
126098,142750,10825,-0.067,-0.983,0.054,-0.854,0.122,0.183,292.202
126098,142656,10848,-0.067,-0.988,0.053,-0.854,0.122,0.183,292.209
126113,142750,10825,-0.064,-0.987,0.061,-0.854,0.061,0.366,292.212
126113,142663,10825,-0.063,-0.982,0.053,-0.854,0.061,0.366,292.218
126099,142750,10825,-0.061,-0.975,0.039,-0.488,0.122,0.427,292.222
126099,142648,10836,-0.062,-0.976,0.048,-0.488,0.122,0.427,292.228
126098,142750,10825,-0.065,-0.983,0.057,-0.183,0.549,0.488,292.232
126098,142647,10836,-0.07,-0.984,0.053,-0.183,0.549,0.488,292.238
126088,142750,10825,-0.067,-0.984,0.047,-1.098,0.915,0.549,292.242
126088,142633,10835,-0.063,-0.98,0.05,-1.098,0.915,0.549,292.248
126074,142750,10825,-0.067,-0.983,0.049,-1.159,0.976,0.793,292.252
126074,142640,10842,-0.067,-0.986,0.056,-1.159,0.976,0.793,292.258
126085,142750,10825,-0.068,-0.987,0.064,-0.366,1.037,0.732,292.262
126085,142641,10836,-0.067,-0.988,0.066,-0.366,1.037,0.732,292.268
126090,142750,10825,-0.065,-0.981,0.071,-0.549,1.22,0.61,292.272
126090,142604,10842,-0.072,-0.977,0.073,-0.549,1.22,0.61,292.278
126087,142750,10825,-0.074,-0.982,0.066,-0.854,1.159,0.732,292.282
126087,142651,10842,-0.072,-0.987,0.061,-0.854,1.159,0.732,292.288
126118,142750,10825,-0.072,-0.987,0.061,-0.854,1.159,0.732,292.292
126118,142647,10846,-0.062,-0.988,0.073,0.244,0.671,0.427,292.298
126099,142750,10825,-0.062,-0.988,0.073,0.244,0.671,0.427,292.301
126099,142640,10858,-0.063,-0.974,0.085,0.305,0.244,0.366,292.308
126101,142750,10825,-0.063,-0.974,0.085,0.305,0.244,0.366,292.311
126101,142632,10833,-0.066,-0.982,0.072,-0.427,0.488,0.61,292.318
126109,142750,10825,-0.066,-0.982,0.072,-0.427,0.488,0.61,292.321
126109,142656,10857,-0.064,-0.975,0.056,0.183,0.427,0.427,292.327
126091,142750,10825,-0.064,-0.975,0.056,0.183,0.427,0.427,292.331
126091,142659,10847,-0.062,-0.965,0.047,-0.061,-0.122,0.183,292.337
126096,142750,10825,-0.062,-0.965,0.047,-0.061,-0.122,0.183,292.341
126096,142650,10845,-0.067,-0.977,0.057,0.183,0.122,0.61,292.347
126098,142750,10825,-0.067,-0.977,0.057,0.183,0.122,0.61,292.351
126098,142655,10853,-0.073,-0.994,0.051,-0.244,0.854,0.671,292.357
126120,142750,10825,-0.073,-0.994,0.051,-0.244,0.854,0.671,292.361
126120,142643,10833,-0.072,-0.997,0.056,-1.037,1.28,0.671,292.367
126094,142750,10825,-0.072,-0.997,0.056,-1.037,1.28,0.671,292.371
126094,142658,10846,-0.068,-0.985,0.061,-0.183,0.976,1.037,292.377
126091,142750,10825,-0.068,-0.985,0.061,-0.183,0.976,1.037,292.381
126091,142639,10843,-0.07,-0.976,0.052,1.22,1.159,0.732,292.387
126090,142750,10825,-0.07,-0.976,0.052,1.22,1.159,0.732,292.391
126090,142643,10847,-0.069,-0.979,0.061,1.341,1.463,0.427,292.397
126087,142750,10825,-0.069,-0.979,0.061,1.341,1.463,0.427,292.4
126087,142628,10845,-0.068,-0.974,0.06,0.061,0.915,0.488,292.407
126115,142750,10825,-0.068,-0.974,0.06,0.061,0.915,0.488,292.41
126115,142654,10856,-0.073,-0.987,0.06,-1.646,0.793,0.61,292.417
126095,142750,10825,-0.073,-0.987,0.06,-1.646,0.793,0.61,292.42
126095,142643,10850,-0.065,-0.988,0.064,-0.427,0.671,0.366,292.426
126100,142750,10825,-0.065,-0.988,0.064,-0.427,0.671,0.366,292.43
126100,142658,10852,-0.066,-0.975,0.067,0.122,0.549,0.122,292.436
126104,142750,10825,-0.068,-0.966,0.062,0.122,0.549,0.122,292.44
126104,142645,10843,-0.069,-0.964,0.058,-0.488,0.671,0.732,292.446
126104,142750,10825,-0.068,-0.979,0.056,-0.488,0.671,0.732,292.45
126104,142637,10848,-0.068,-0.989,0.058,0.183,0.488,0.366,292.456
126084,142750,10825,-0.066,-0.988,0.065,0.183,0.488,0.366,292.46
126084,142621,10844,-0.069,-0.982,0.056,-0.915,0.305,-0.061,292.466
126068,142750,10825,-0.066,-0.985,0.058,-0.915,0.305,-0.061,292.47
126068,142622,10846,-0.065,-0.991,0.076,-1.159,0.183,0.671,292.476
126070,142750,10825,-0.067,-0.986,0.074,-1.159,0.183,0.671,292.48
126070,142615,10849,-0.067,-0.982,0.063,-0.183,0.183,0.61,292.486
126060,142750,10825,-0.07,-0.981,0.062,-0.183,0.183,0.61,292.49
126060,142613,10863,-0.065,-0.981,0.07,0.427,0.305,0.183,292.496
126083,142750,10825,-0.067,-0.976,0.08,0.427,0.305,0.183,292.499
126083,142616,10841,-0.065,-0.967,0.068,0.488,0.183,0.366,292.506
126088,142750,10825,-0.064,-0.969,0.058,0.488,0.183,0.366,292.509
126088,142653,10844,-0.066,-0.98,0.059,-0.183,0.183,0.61,292.516
126072,142750,10825,-0.066,-0.988,0.055,-0.183,0.183,0.61,292.519
126072,142632,10849,-0.068,-0.988,0.049,-0.61,0.061,0.305,292.525
126088,142750,10825,-0.071,-0.982,0.052,-0.61,0.061,0.305,292.529
126088,142626,10834,-0.066,-0.98,0.05,-1.707,0.061,0.366,292.535
126096,142750,10825,-0.066,-0.983,0.048,-1.707,0.061,0.366,292.539
126096,142648,10848,-0.067,-0.987,0.047,-0.488,0.366,0.488,292.545
126095,142750,10825,-0.067,-0.986,0.048,-0.488,0.366,0.488,292.549
126095,142633,10858,-0.067,-0.985,0.057,0.122,0.549,0.122,292.555
126082,142750,10825,-0.073,-0.983,0.076,0.122,0.549,0.122,292.559
126082,142598,10842,-0.069,-0.978,0.077,-0.122,0.793,0.366,292.565
126079,142750,10825,-0.068,-0.975,0.079,-0.122,0.793,0.366,292.569
126079,142627,10848,-0.07,-0.975,0.076,-0.549,0.671,0.488,292.575
126085,142750,10825,-0.071,-0.985,0.063,-0.549,0.671,0.488,292.579
126085,142641,10845,-0.071,-0.996,0.059,-0.183,0.488,0,292.585
126046,142750,10825,-0.069,-0.994,0.064,-0.183,0.488,0,292.589
126046,142598,10827,-0.064,-0.987,0.059,-0.244,-0.061,-0.122,292.595
126046,142750,10825,-0.065,-0.979,0.048,-0.244,-0.061,-0.122,292.598
126046,142620,10848,-0.064,-0.976,0.061,-0.305,0.061,0,292.605
126065,142750,10825,-0.069,-0.968,0.058,-0.305,0.061,0,292.608
126065,142621,10835,-0.067,-0.969,0.051,-0.366,0.671,0.305,292.615
126077,142750,10825,-0.066,-0.977,0.05,-0.366,0.671,0.305,292.618
126077,142623,10856,-0.061,-0.984,0.055,0,0.305,0.305,292.624
126103,142750,10825,-0.062,-0.983,0.059,0,0.305,0.305,292.628
126103,142631,10848,-0.065,-0.979,0.059,-0.793,0,0.305,292.634
126116,142750,10825,-0.063,-0.98,0.066,-0.793,0,0.305,292.638
126116,142624,10841,-0.066,-0.983,0.067,-1.463,0.366,0.854,292.644
126133,142750,10825,-0.066,-0.988,0.064,-1.463,0.366,0.854,292.648
126133,142668,10854,-0.063,-0.986,0.067,-0.427,0.183,0.732,292.654
126126,142750,10825,-0.064,-0.985,0.065,-0.427,0.183,0.732,292.658
126126,142673,10839,-0.067,-0.982,0.068,-0.366,0,0.427,292.664
126152,142750,10825,-0.07,-0.979,0.065,-0.366,0,0.427,292.668
126152,142699,10859,-0.07,-0.981,0.055,-0.244,0.122,0.427,292.674
126200,142750,10825,-0.068,-0.981,0.051,-0.244,0.122,0.427,292.678
126200,142734,10841,-0.068,-0.987,0.059,0.061,-0.183,0.366,292.684
126173,142750,10825,-0.067,-0.983,0.065,0.061,-0.183,0.366,292.688
126173,142719,10860,-0.061,-0.979,0.052,-0.305,-0.183,0.244,292.694
126183,142750,10825,-0.063,-0.981,0.05,-0.305,-0.183,0.244,292.697
126183,142733,10867,-0.067,-0.989,0.063,0.122,0.244,0.305,292.704
126235,142750,10825,-0.069,-0.991,0.071,0.122,0.244,0.305,292.707
126235,142741,10850,-0.07,-0.983,0.07,0.305,0.366,0.244,292.714
126223,142750,10825,-0.068,-0.975,0.071,0.305,0.366,0.244,292.717
126223,142733,10855,-0.069,-0.979,0.067,-0.732,0.183,0.549,292.723
126273,142750,10825,-0.067,-0.985,0.061,-0.732,0.183,0.549,292.727
126273,142763,10859,-0.07,-0.987,0.064,-0.061,-0.244,0.244,292.733
126269,142750,10825,-0.069,-0.983,0.068,-0.061,-0.244,0.244,292.737
126269,142763,10860,-0.068,-0.976,0.064,-0.549,-0.488,-0.061,292.743
126269,142750,10825,-0.067,-0.975,0.066,-0.549,-0.488,-0.061,292.747
126269,142768,10849,-0.065,-0.979,0.07,-0.793,-0.488,0.488,292.753
126232,142750,10825,-0.066,-0.979,0.067,-0.793,-0.488,0.488,292.757
126232,142750,10858,-0.064,-0.981,0.059,-0.183,-0.976,0.549,292.763
126225,142750,10825,-0.06,-0.982,0.056,-0.183,-0.976,0.549,292.767
126225,142740,10860,-0.059,-0.979,0.062,0.793,-1.159,0.549,292.773
126198,142750,10825,-0.06,-0.976,0.06,0.793,-1.159,0.549,292.777
126198,142711,10862,-0.059,-0.975,0.052,2.378,-0.671,0.854,292.783
126221,142750,10825,-0.063,-0.975,0.048,2.378,-0.671,0.854,292.787
126221,142732,10866,-0.062,-0.977,0.051,2.5,-0.427,0.854,292.793
126260,142750,10825,-0.063,-0.979,0.057,2.5,-0.427,0.854,292.796
126260,142772,10856,-0.063,-0.98,0.053,2.073,-0.671,1.22,292.803
126241,142750,10825,-0.062,-0.988,0.061,2.073,-0.671,1.22,292.806
126241,142754,10867,-0.061,-0.99,0.067,1.463,-0.671,1.037,292.813
126270,142750,10825,-0.065,-0.985,0.077,1.463,-0.671,1.037,292.816
126270,142765,10870,-0.07,-0.989,0.08,0.244,-0.427,0.793,292.822
126274,142750,10825,-0.074,-1,0.081,0.244,-0.427,0.793,292.826
126274,142761,10875,-0.074,-1.007,0.087,-1.28,-1.22,0.549,292.832
126251,142750,10825,-0.074,-1.019,0.102,-1.28,-1.22,0.549,292.836
126251,142787,10854,-0.071,-1.019,0.109,-2.256,-2.622,-0.549,292.842
126260,142750,10825,-0.074,-1.005,0.102,-2.256,-2.622,-0.549,292.846
126260,142753,10861,-0.079,-0.995,0.088,-4.512,-3.537,-1.646,292.852
126269,142750,10825,-0.082,-0.995,0.077,-4.512,-3.537,-1.646,292.856
126269,142767,10864,-0.083,-0.999,0.07,-5.305,-4.146,-2.317,292.862
126263,142750,10825,-0.08,-0.998,0.058,-5.305,-4.146,-2.317,292.866
126263,142799,10863,-0.072,-0.993,0.053,-5.183,-5.366,-3.659,292.872
126286,142750,10825,-0.068,-0.984,0.043,-5.183,-5.366,-3.659,292.876
126286,142789,10867,-0.068,-0.972,0.04,-4.329,-5.427,-4.085,292.882
126258,142750,10825,-0.068,-0.972,0.04,-4.329,-5.427,-4.085,292.886
126258,142768,10857,-0.072,-0.965,0.041,-3.415,-4.329,-3.598,292.892
126277,142750,10825,-0.072,-0.965,0.041,-3.415,-4.329,-3.598,292.895
126277,142779,10876,-0.074,-0.967,0.034,-3.171,-3.78,-3.232,292.902
126305,142750,10825,-0.074,-0.967,0.034,-3.171,-3.78,-3.232,292.905
126305,142806,10866,-0.07,-0.965,0.023,-2.317,-3.537,-2.561,292.912
126279,142750,10825,-0.07,-0.965,0.023,-2.317,-3.537,-2.561,292.915
126279,142785,10864,-0.059,-0.964,0.022,0.122,-2.927,-1.646,292.921
126287,142750,10825,-0.059,-0.964,0.022,0.122,-2.927,-1.646,292.925
126287,142798,10856,-0.063,-0.953,0.034,2.439,-1.89,-0.61,292.931
126274,142750,10825,-0.063,-0.953,0.034,2.439,-1.89,-0.61,292.935
126274,142777,10856,-0.07,-0.959,0.042,3.232,-0.793,0.427,292.941
126272,142750,10825,-0.07,-0.959,0.042,3.232,-0.793,0.427,292.945
126272,142767,10871,-0.07,-0.971,0.069,3.232,-0.305,1.341,292.951
126277,142750,10825,-0.07,-0.971,0.069,3.232,-0.305,1.341,292.955
126277,142793,10861,-0.067,-0.982,0.074,2.439,-0.244,1.89,292.961
126299,142750,10825,-0.067,-0.982,0.074,2.439,-0.244,1.89,292.965
126299,142787,10869,-0.071,-1.001,0.08,2.561,-0.061,1.829,292.971
126291,142750,10825,-0.071,-1.001,0.08,2.561,-0.061,1.829,292.975
126291,142774,10871,-0.073,-0.998,0.089,1.585,-0.366,1.463,292.981
126300,142750,10825,-0.073,-0.998,0.089,1.585,-0.366,1.463,292.985
126300,142820,10872,-0.068,-0.994,0.076,-0.122,-1.037,1.098,292.991
126273,142750,10825,-0.068,-0.994,0.076,-0.122,-1.037,1.098,292.995
126273,142775,10864,-0.064,-1.007,0.078,-0.061,-1.768,0.183,293.001
126282,142750,10825,-0.064,-1.007,0.078,-0.061,-1.768,0.183,293.004
126282,142790,10855,-0.06,-0.991,0.071,-1.402,-2.073,-0.61,293.011
126288,142750,10825,-0.06,-0.991,0.071,-1.402,-2.073,-0.61,293.014
126288,142786,10867,-0.062,-0.976,0.075,-2.317,-2.317,-0.549,293.02
126276,142750,10825,-0.062,-0.976,0.075,-2.317,-2.317,-0.549,293.024
126276,142790,10876,-0.06,-0.971,0.053,-2.988,-2.317,-0.976,293.03
126270,142750,10825,-0.06,-0.971,0.053,-2.988,-2.317,-0.976,293.034
126270,142797,10859,-0.057,-0.971,0.042,-2.988,-2.317,-0.976,293.04
126283,142750,10825,-0.059,-0.971,0.037,-3.598,-2.256,-1.037,293.044
126283,142789,10875,-0.057,-0.973,0.041,-3.598,-2.256,-1.037,293.05
126285,142750,10825,-0.051,-0.97,0.031,-2.5,-1.89,-0.488,293.054
126285,142813,10857,-0.05,-0.965,0.023,-2.5,-1.89,-0.488,293.06
126289,142750,10825,-0.051,-0.964,0.026,-0.915,-1.098,-0.122,293.064
126289,142813,10876,-0.052,-0.966,0.03,-0.915,-1.098,-0.122,293.07
126279,142750,10825,-0.051,-0.962,0.025,0.976,0.183,0.427,293.074
126279,142798,10881,-0.052,-0.961,0.016,0.976,0.183,0.427,293.08
126309,142750,10825,-0.057,-0.973,0.028,2.256,1.28,1.037,293.084
126309,142804,10867,-0.058,-0.981,0.043,2.256,1.28,1.037,293.09
126290,142750,10825,-0.055,-0.981,0.045,3.415,1.951,1.159,293.094
126290,142809,10885,-0.055,-0.975,0.046,3.415,1.951,1.159,293.1
126290,142750,10825,-0.055,-0.982,0.052,1.951,2.561,1.707,293.103
126290,142797,10863,-0.054,-0.992,0.057,1.951,2.561,1.707,293.11
126268,142750,10825,-0.054,-0.998,0.062,2.439,2.988,1.951,293.113
126268,142799,10866,-0.053,-0.998,0.064,2.439,2.988,1.951,293.12
126253,142750,10825,-0.052,-0.995,0.062,2.317,3.049,1.28,293.123
126253,142802,10879,-0.055,-0.995,0.067,2.317,3.049,1.28,293.129
126256,142750,10825,-0.059,-0.989,0.075,1.768,3.293,1.037,293.133
126256,142820,10873,-0.062,-0.986,0.07,1.768,3.293,1.037,293.139
126281,142750,10825,-0.06,-0.985,0.063,0.305,2.927,1.159,293.143
126281,142804,10874,-0.058,-0.99,0.066,0.305,2.927,1.159,293.149
126323,142750,10825,-0.06,-0.995,0.063,0.183,2.317,0.549,293.153
126323,142842,10889,-0.059,-0.993,0.072,0.183,2.317,0.549,293.159
126341,142750,10825,-0.064,-0.984,0.074,0.427,2.073,0.061,293.163
126341,142842,10864,-0.067,-0.979,0.067,0.427,2.073,0.061,293.169
126333,142750,10825,-0.069,-0.975,0.065,0.427,2.195,0.366,293.173
126333,142838,10882,-0.069,-0.973,0.067,0.427,2.195,0.366,293.179
126355,143006,10825,-0.072,-0.97,0.07,-0.244,2.073,0.61,293.183
126355,142860,10868,-0.073,-0.967,0.07,-0.244,2.073,0.61,293.189
126365,143006,10825,-0.076,-0.974,0.064,-2.561,1.463,0.549,293.193
126365,142863,10892,-0.075,-0.983,0.064,-2.561,1.463,0.549,293.199
126361,143006,10825,-0.073,-0.988,0.065,-2.256,0.915,0.793,293.202
126361,142861,10888,-0.071,-0.987,0.07,-2.256,0.915,0.793,293.209
126350,143006,10825,-0.071,-0.984,0.074,-1.402,0.793,0.854,293.212
126350,142849,10875,-0.071,-0.98,0.075,-1.402,0.793,0.854,293.219
126364,142750,10825,-0.075,-0.979,0.076,-0.61,1.28,0.854,293.222
126364,142842,10890,-0.077,-0.976,0.063,-0.61,1.28,0.854,293.228
126316,142750,10825,-0.073,-0.979,0.058,-0.061,1.402,0.732,293.232
126316,142783,10890,-0.072,-0.99,0.064,-0.061,1.402,0.732,293.238
126310,142750,10825,-0.066,-0.989,0.062,0.427,0.915,0.488,293.242
126310,142818,10883,-0.066,-0.984,0.062,0.427,0.915,0.488,293.248
126318,142750,10825,-0.071,-0.982,0.061,0.61,0.854,0.366,293.252
126318,142787,10892,-0.069,-0.986,0.059,0.61,0.854,0.366,293.258
126273,142750,10825,-0.066,-0.988,0.068,0.793,0.976,0.366,293.262
126273,142763,10885,-0.063,-0.982,0.067,0.793,0.976,0.366,293.268
126291,142750,10825,-0.062,-0.978,0.061,-0.122,0.61,0,293.272
126291,142791,10888,-0.062,-0.978,0.061,-0.122,0.61,0,293.278
126316,142750,10825,-0.062,-0.985,0.062,-0.976,0.427,0.122,293.282
126316,142798,10874,-0.059,-0.989,0.064,-0.976,0.427,0.122,293.288
126293,142750,10825,-0.059,-0.991,0.057,-1.22,0.183,0.183,293.292
126293,142805,10885,-0.058,-0.991,0.056,-1.22,0.183,0.183,293.298
126313,142750,10825,-0.059,-0.988,0.065,-0.793,-0.122,0.122,293.301
126313,142781,10883,-0.059,-0.981,0.067,-0.793,-0.122,0.122,293.308
126303,142750,10825,-0.059,-0.977,0.064,-0.305,-0.183,0.366,293.311
126303,142801,10872,-0.058,-0.977,0.057,-0.305,-0.183,0.366,293.318
126345,142750,10825,-0.059,-0.978,0.061,-0.305,-0.122,0.305,293.321
126345,142818,10877,-0.064,-0.986,0.067,-0.305,-0.122,0.305,293.327
126343,142750,10825,-0.065,-0.988,0.064,-0.732,-0.305,0.244,293.331
126343,142844,10892,-0.063,-0.988,0.062,-0.732,-0.305,0.244,293.337
126373,142750,10825,-0.066,-0.989,0.065,-1.159,-0.793,0.366,293.341
126373,142816,10879,-0.067,-0.986,0.061,-1.159,-0.793,0.366,293.347
126366,142750,10825,-0.068,-0.981,0.056,-0.976,-0.915,0.427,293.351
126366,142842,10892,-0.063,-0.977,0.056,-0.976,-0.915,0.427,293.357
126392,143006,10825,-0.061,-0.976,0.05,-0.854,-0.915,0.244,293.361
126392,142859,10899,-0.062,-0.981,0.053,-0.854,-0.915,0.244,293.367
126379,143006,10825,-0.068,-0.983,0.058,-0.671,-0.793,0.244,293.371
126379,142852,10892,-0.068,-0.983,0.059,-0.671,-0.793,0.244,293.377
126389,143006,10825,-0.068,-0.979,0.055,-0.61,-0.427,0.244,293.381
126389,142859,10896,-0.066,-0.977,0.051,-0.61,-0.427,0.244,293.387
126356,142750,10825,-0.071,-0.977,0.047,-0.915,-0.244,0.366,293.391
126356,142846,10880,-0.07,-0.975,0.046,-0.915,-0.244,0.366,293.397
126369,142750,10825,-0.07,-0.98,0.044,-0.183,-0.122,0.366,293.4
126369,142839,10882,-0.067,-0.983,0.048,-0.183,-0.122,0.366,293.407
126355,142750,10825,-0.07,-0.985,0.05,-0.122,0,0,293.41
126355,142816,10888,-0.073,-0.985,0.05,-0.122,0,0,293.417
126357,143006,10825,-0.076,-0.984,0.053,0.183,0.488,0.061,293.42
126357,142854,10882,-0.071,-0.984,0.051,0.183,0.488,0.061,293.426
126382,142750,10825,-0.073,-0.985,0.058,0,0.671,0.183,293.43
126382,142828,10866,-0.073,-0.989,0.056,0,0.671,0.183,293.436
126357,142750,10825,-0.065,-0.991,0.06,0.366,0.427,0.244,293.44
126357,142833,10885,-0.065,-0.988,0.058,0.366,0.427,0.244,293.446
126350,142750,10825,-0.064,-0.988,0.054,1.28,0.305,0.305,293.45
126350,142826,10891,-0.062,-0.986,0.056,1.28,0.305,0.305,293.456
126366,142750,10825,-0.061,-0.977,0.057,2.256,0.488,0.305,293.46
126366,142847,10871,-0.063,-0.969,0.059,2.256,0.488,0.305,293.466
126344,142750,10825,-0.064,-0.97,0.062,1.463,0.671,0.488,293.47
126344,142834,10889,-0.065,-0.974,0.061,1.463,0.671,0.488,293.476
126367,143006,10825,-0.064,-0.977,0.059,0.427,0.488,0.61,293.48
126367,142848,10882,-0.064,-0.98,0.062,0.427,0.488,0.61,293.486
126376,143006,10825,-0.064,-0.98,0.062,0.427,0.488,0.61,293.49
126376,142862,10886,-0.06,-0.981,0.065,-0.427,0.366,0.732,293.496
126363,143006,10825,-0.06,-0.981,0.065,-0.427,0.366,0.732,293.499
126363,142852,10891,-0.061,-0.987,0.063,-0.244,0.305,0.976,293.506
126368,143006,10825,-0.061,-0.987,0.063,-0.244,0.305,0.976,293.509
126368,142880,10891,-0.063,-0.981,0.056,0.244,0.427,0.732,293.516
126381,143006,10825,-0.063,-0.981,0.056,0.244,0.427,0.732,293.519
126381,142871,10888,-0.065,-0.985,0.062,0.488,0.549,0.488,293.525
126377,143006,10825,-0.065,-0.985,0.062,0.488,0.549,0.488,293.529
126377,142849,10885,-0.062,-0.98,0.066,0.854,0.427,0.549,293.535
126382,143006,10825,-0.062,-0.98,0.066,0.854,0.427,0.549,293.539
126382,142854,10893,-0.066,-0.981,0.07,0,0.366,0.488,293.545
126356,143006,10825,-0.066,-0.981,0.07,0,0.366,0.488,293.549
126356,142869,10896,-0.064,-0.98,0.071,-0.488,0.427,0.732,293.555
126359,142750,10825,-0.064,-0.98,0.071,-0.488,0.427,0.732,293.559
126359,142845,10879,-0.064,-0.98,0.062,-0.793,0.366,0.793,293.565
126368,142750,10825,-0.064,-0.98,0.062,-0.793,0.366,0.793,293.569
126368,142841,10883,-0.065,-0.987,0.074,-0.427,0.244,0.915,293.575
126355,143006,10825,-0.065,-0.987,0.074,-0.427,0.244,0.915,293.579
126355,142852,10886,-0.067,-0.981,0.071,0.366,0.183,1.037,293.585
126365,142750,10825,-0.067,-0.981,0.071,0.366,0.183,1.037,293.589
126365,142839,10874,-0.068,-0.979,0.06,0.732,0.366,1.159,293.595
126350,142750,10825,-0.068,-0.979,0.06,0.732,0.366,1.159,293.598
126350,142832,10878,-0.067,-0.979,0.06,1.524,0.488,1.341,293.605
126347,143006,10825,-0.067,-0.979,0.06,1.524,0.488,1.341,293.608
126347,142849,10898,-0.069,-0.976,0.056,1.524,0.305,1.037,293.615
126352,143006,10825,-0.069,-0.976,0.056,1.524,0.305,1.037,293.618
126352,142848,10886,-0.071,-0.982,0.056,0.976,0.671,0.915,293.624
126369,143006,10825,-0.071,-0.982,0.056,0.976,0.671,0.915,293.628
126369,142851,10895,-0.068,-0.985,0.056,0.549,1.098,0.61,293.634
126357,142750,10825,-0.067,-0.988,0.062,0.549,1.098,0.61,293.638
126357,142835,10887,-0.065,-0.993,0.066,1.037,0.976,0.793,293.644
126383,143006,10825,-0.065,-0.991,0.07,1.037,0.976,0.793,293.648
126383,142871,10877,-0.066,-0.984,0.067,2.378,1.037,0.732,293.654
126378,143006,10825,-0.07,-0.979,0.076,2.378,1.037,0.732,293.658
126378,142859,10883,-0.07,-0.979,0.076,3.598,1.22,0.793,293.664
126359,142750,10825,-0.069,-0.977,0.065,3.598,1.22,0.793,293.668
126359,142843,10886,-0.068,-0.979,0.062,3.476,1.22,0.854,293.674
126391,143006,10825,-0.066,-0.979,0.069,3.476,1.22,0.854,293.678
126391,142877,10889,-0.064,-0.978,0.068,2.744,0.854,0.671,293.684
126397,143006,10825,-0.062,-0.977,0.064,2.744,0.854,0.671,293.688
126397,142849,10891,-0.064,-0.974,0.07,1.829,0.732,0.732,293.694
126392,143006,10825,-0.063,-0.978,0.07,1.829,0.732,0.732,293.697
126392,142851,10902,-0.064,-0.98,0.068,1.159,0.488,0.854,293.704
126367,142750,10825,-0.064,-0.979,0.057,1.159,0.488,0.854,293.707
126367,142844,10898,-0.065,-0.984,0.051,0.793,0.366,0.854,293.714
126365,142750,10825,-0.063,-0.989,0.059,0.793,0.366,0.854,293.717
126365,142837,10899,-0.061,-0.984,0.06,1.159,0.183,0.61,293.723
126362,143006,10825,-0.061,-0.976,0.058,1.159,0.183,0.61,293.727
126362,142866,10895,-0.062,-0.976,0.063,-0.061,0.305,0.671,293.733
126375,142750,10825,-0.061,-0.978,0.066,-0.061,0.305,0.671,293.737
126375,142830,10893,-0.06,-0.977,0.068,-0.549,0.305,0.671,293.743
126368,142750,10825,-0.062,-0.978,0.074,-0.549,0.305,0.671,293.747
126368,142842,10887,-0.062,-0.98,0.074,-1.463,0.122,0.549,293.753
126379,143006,10825,-0.064,-0.986,0.064,-1.463,0.122,0.549,293.757
126379,142850,10889,-0.065,-0.99,0.066,-1.402,0.122,0.549,293.763
126365,142750,10825,-0.065,-0.991,0.072,-1.402,0.122,0.549,293.767
126365,142831,10877,-0.067,-0.991,0.076,-0.549,0.122,0.122,293.773
126370,143006,10825,-0.066,-0.985,0.073,-0.549,0.122,0.122,293.777
126370,142850,10886,-0.068,-0.979,0.063,-0.732,0.122,0.183,293.783
126361,142750,10825,-0.067,-0.983,0.058,-0.732,0.122,0.183,293.787
126361,142841,10882,-0.065,-0.986,0.055,0.427,0.122,0.183,293.793
126392,143006,10825,-0.068,-0.984,0.056,0.427,0.122,0.183,293.796
126392,142858,10892,-0.065,-0.983,0.061,0.732,0.244,-0.122,293.803
126393,143006,10825,-0.07,-0.977,0.068,0.732,0.244,-0.122,293.806
126393,142856,10908,-0.071,-0.969,0.062,0.122,0.488,0.183,293.813
126393,142750,10825,-0.069,-0.974,0.057,0.122,0.488,0.183,293.816
126393,142845,10883,-0.068,-0.983,0.065,-0.122,0.488,0.366,293.822
126387,142750,10825,-0.068,-0.98,0.065,-0.122,0.488,0.366,293.826
126387,142837,10886,-0.065,-0.979,0.064,-0.305,0.427,0.183,293.832
126381,143006,10825,-0.066,-0.976,0.068,-0.305,0.427,0.183,293.836
126381,142856,10886,-0.069,-0.981,0.069,-0.488,0.61,0.488,293.842
126367,143006,10825,-0.069,-0.984,0.067,-0.488,0.61,0.488,293.846
126367,142855,10880,-0.07,-0.985,0.067,-0.061,0.671,0.549,293.852
126342,142750,10825,-0.068,-0.99,0.065,-0.061,0.671,0.549,293.856
126342,142831,10876,-0.068,-0.989,0.069,0.061,0.427,0.427,293.862
126327,142750,10825,-0.069,-0.982,0.066,0.061,0.427,0.427,293.866
126327,142816,10884,-0.067,-0.977,0.064,0.183,0.366,0.366,293.872
126292,142750,10825,-0.065,-0.984,0.081,0.183,0.366,0.366,293.876
126292,142773,10864,-0.074,-0.987,0.079,-0.366,0.488,0.305,293.882
126273,142750,10825,-0.072,-0.988,0.072,-0.366,0.488,0.305,293.886
126273,142765,10877,-0.069,-0.989,0.07,-1.037,0.671,-0.122,293.892
126260,142750,10825,-0.07,-0.994,0.066,-1.037,0.671,-0.122,293.895
126260,142734,10880,-0.072,-0.993,0.067,-0.732,0.366,-0.427,293.902
126237,142750,10825,-0.067,-0.991,0.054,-0.732,0.366,-0.427,293.905
126237,142720,10863,-0.067,-0.983,0.057,0.549,0.488,-0.366,293.912
126194,142750,10825,-0.069,-0.976,0.07,0.549,0.488,-0.366,293.915
126194,142696,10876,-0.066,-0.965,0.061,1.098,0.427,-0.366,293.921
126150,142750,10825,-0.067,-0.964,0.061,1.098,0.427,-0.366,293.925
126150,142691,10848,-0.065,-0.967,0.066,1.22,0.549,-0.061,293.931
126115,142750,10825,-0.064,-0.971,0.073,1.22,0.549,-0.061,293.935
126115,142638,10862,-0.065,-0.97,0.064,0.671,0.366,0.122,293.941
126093,142750,10825,-0.064,-0.972,0.066,0.671,0.366,0.122,293.945
126093,142640,10841,-0.065,-0.978,0.064,-0.549,0.183,0.366,293.951
126073,142750,10825,-0.065,-0.982,0.056,-0.549,0.183,0.366,293.955
126073,142622,10834,-0.06,-0.984,0.059,-0.549,0.183,0.427,293.961
126046,142494,10825,-0.061,-0.984,0.059,-0.549,0.183,0.427,293.965
126046,142589,10845,-0.067,-0.99,0.055,-1.037,0.366,0.244,293.971
126031,142494,10825,-0.068,-0.993,0.058,-1.037,0.366,0.244,293.975
126031,142570,10827,-0.067,-0.997,0.062,-0.671,0.793,0.122,293.981
126013,142494,10825,-0.067,-0.988,0.059,-0.671,0.793,0.122,293.985
126013,142571,10835,-0.067,-0.978,0.061,-0.61,0.854,0,293.991
126041,142494,10825,-0.065,-0.98,0.066,-0.61,0.854,0,293.994
126041,142580,10838,-0.065,-0.981,0.072,-0.61,0.915,0.183,294.001
126044,142494,10825,-0.067,-0.98,0.072,-0.61,0.915,0.183,294.004
126044,142565,10837,-0.064,-0.977,0.072,-0.671,0.61,0,294.011
126039,142494,10825,-0.062,-0.979,0.078,-0.671,0.61,0,294.014
126039,142575,10823,-0.061,-0.974,0.07,-0.366,0.549,-0.122,294.02
126041,142494,10825,-0.06,-0.973,0.055,-0.366,0.549,-0.122,294.024
126041,142567,10835,-0.06,-0.979,0.064,-0.366,0.427,0.244,294.03
126047,142494,10825,-0.062,-0.983,0.078,-0.366,0.427,0.244,294.034
126047,142572,10845,-0.066,-0.985,0.077,0.122,0.305,0.427,294.04
126078,142494,10825,-0.066,-0.985,0.068,0.122,0.305,0.427,294.044
126078,142578,10836,-0.065,-0.983,0.068,-0.122,0.549,0.183,294.05
126050,142494,10825,-0.066,-0.98,0.067,-0.122,0.549,0.183,294.054
126050,142569,10844,-0.065,-0.988,0.066,0.122,0.549,0.061,294.06
126080,142494,10825,-0.063,-0.99,0.072,0.122,0.549,0.061,294.064
126080,142577,10839,-0.062,-0.991,0.073,-0.305,0.427,0.061,294.07
126102,142750,10825,-0.062,-0.991,0.073,-0.305,0.427,0.061,294.074
126102,142625,10847,-0.07,-0.985,0.066,-1.098,0.488,-0.122,294.08
126100,142750,10825,-0.07,-0.985,0.066,-1.098,0.488,-0.122,294.084
126100,142599,10862,-0.063,-0.983,0.072,-0.854,0.671,-0.427,294.09
126099,142750,10825,-0.063,-0.983,0.072,-0.854,0.671,-0.427,294.093
126099,142639,10840,-0.057,-0.976,0.081,-0.244,0.427,-0.488,294.1
126117,142750,10825,-0.057,-0.976,0.081,-0.244,0.427,-0.488,294.103
126117,142624,10840,-0.066,-0.978,0.065,0.183,0.427,-0.244,294.11
126135,142750,10825,-0.066,-0.978,0.065,0.183,0.427,-0.244,294.113
126135,142657,10854,-0.066,-0.986,0.064,1.098,0.61,-0.244,294.119
126117,142750,10825,-0.066,-0.986,0.064,1.098,0.61,-0.244,294.123
126117,142635,10843,-0.06,-0.968,0.065,2.012,0.244,-0.244,294.129
126132,142750,10825,-0.06,-0.968,0.065,2.012,0.244,-0.244,294.133
126132,142640,10843,-0.069,-0.961,0.068,1.159,0.488,0.427,294.139
126159,142750,10825,-0.069,-0.961,0.068,1.159,0.488,0.427,294.143
126159,142671,10850,-0.068,-0.985,0.074,0.854,0.671,0.549,294.149
126143,142750,10825,-0.068,-0.985,0.074,0.854,0.671,0.549,294.153
126143,142644,10858,-0.066,-0.995,0.079,0,0.122,0.305,294.159
126155,142750,10825,-0.066,-0.995,0.079,0,0.122,0.305,294.163
126155,142662,10843,-0.068,-0.994,0.054,-0.061,0.122,0.488,294.169
126138,142750,10825,-0.068,-0.994,0.054,-0.061,0.122,0.488,294.173
126138,142652,10854,-0.063,-0.985,0.057,0.244,0.427,0.427,294.179
126177,142750,10825,-0.063,-0.985,0.057,0.244,0.427,0.427,294.183
126177,142670,10845,-0.061,-0.982,0.058,0.183,0.305,0.122,294.189
126148,142750,10825,-0.061,-0.982,0.058,0.183,0.305,0.122,294.192
126148,142641,10864,-0.069,-0.982,0.053,-0.976,0.854,0.122,294.199
126155,142750,10825,-0.069,-0.982,0.053,-0.976,0.854,0.122,294.202
126155,142667,10850,-0.068,-0.992,0.058,-1.646,0.976,-0.061,294.209
126146,142750,10825,-0.068,-0.992,0.058,-1.646,0.976,-0.061,294.212
126146,142620,10855,-0.063,-0.99,0.057,-1.646,0.976,-0.061,294.218
126118,142750,10825,-0.057,-0.978,0.056,-0.732,0.305,-0.366,294.222
126118,142616,10851,-0.058,-0.972,0.059,-0.732,0.305,-0.366,294.228
126117,142750,10825,-0.062,-0.969,0.066,0.244,0.61,-0.244,294.232
126117,142648,10854,-0.068,-0.969,0.067,0.244,0.61,-0.244,294.238
126157,142750,10825,-0.069,-0.97,0.067,0.183,1.098,0.244,294.242
126157,142649,10851,-0.067,-0.973,0.068,0.183,1.098,0.244,294.248
126159,142750,10825,-0.063,-0.976,0.074,-0.366,0.183,0.549,294.252
126159,142655,10849,-0.062,-0.98,0.068,-0.366,0.183,0.549,294.258
126177,142750,10825,-0.059,-0.981,0.057,0.427,-0.183,0.488,294.262
126177,142689,10863,-0.062,-0.977,0.047,0.427,-0.183,0.488,294.268
126207,142750,10825,-0.062,-0.979,0.056,0.488,0.427,0.549,294.272
126207,142664,10851,-0.064,-0.982,0.065,0.488,0.427,0.549,294.278
126169,142750,10825,-0.065,-0.979,0.068,0.61,0.427,0.549,294.282
126169,142674,10854,-0.065,-0.979,0.066,0.61,0.427,0.549,294.288
126156,142750,10825,-0.065,-0.981,0.063,-0.976,0.61,0.488,294.291
126156,142669,10841,-0.068,-0.989,0.061,-0.976,0.61,0.488,294.298
126161,142750,10825,-0.065,-1,0.071,-0.732,0.671,0.61,294.301
126161,142652,10841,-0.063,-0.998,0.077,-0.732,0.671,0.61,294.308
126169,142750,10825,-0.059,-0.988,0.075,-0.244,0.488,0.366,294.311
126169,142660,10843,-0.058,-0.979,0.082,-0.244,0.488,0.366,294.317
126158,142750,10825,-0.063,-0.975,0.087,-0.549,0.854,0.549,294.321
126158,142672,10852,-0.068,-0.975,0.074,-0.549,0.854,0.549,294.327
126142,142750,10825,-0.069,-0.981,0.067,-0.244,0.976,0.305,294.331
126142,142648,10851,-0.066,-0.984,0.069,-0.244,0.976,0.305,294.337
126147,142750,10825,-0.068,-0.984,0.071,-0.915,0.427,-0.366,294.341
126147,142656,10851,-0.063,-0.976,0.069,-0.915,0.427,-0.366,294.347
126153,142750,10825,-0.062,-0.973,0.064,-2.134,0.183,0,294.351
126153,142668,10845,-0.063,-0.974,0.061,-2.134,0.183,0,294.357
126139,142750,10825,-0.062,-0.984,0.06,-1.646,0.366,0.427,294.361
126139,142626,10863,-0.062,-0.986,0.065,-1.646,0.366,0.427,294.367
126099,142750,10825,-0.061,-0.982,0.072,-0.366,0.488,0.183,294.371
126099,142611,10849,-0.066,-0.978,0.063,-0.366,0.488,0.183,294.377
126092,142494,10825,-0.069,-0.974,0.061,-0.671,0.854,0.305,294.381
126092,142588,10829,-0.069,-0.978,0.057,-0.671,0.854,0.305,294.387
126074,142750,10825,-0.068,-0.983,0.06,-0.183,0.549,0.793,294.39
126074,142601,10831,-0.063,-0.987,0.067,-0.183,0.549,0.793,294.397
126069,142494,10825,-0.061,-0.984,0.068,0.671,0.122,0.61,294.4
126069,142582,10818,-0.059,-0.983,0.067,0.671,0.122,0.61,294.407
126038,142750,10825,-0.067,-0.978,0.068,0.244,0.366,0.549,294.41
126038,142596,10835,-0.068,-0.978,0.059,0.244,0.366,0.549,294.416
126041,142494,10825,-0.068,-0.987,0.067,0.061,0.61,0.854,294.42
126041,142578,10816,-0.064,-0.995,0.077,0.061,0.61,0.854,294.426
126017,142494,10825,-0.063,-0.992,0.068,0.671,0.244,0.549,294.43
126017,142537,10827,-0.064,-0.989,0.062,0.671,0.244,0.549,294.436
126018,142494,10825,-0.064,-0.986,0.061,0.427,0.488,0.183,294.44
126018,142563,10820,-0.065,-0.98,0.063,0.427,0.488,0.183,294.446
126032,142494,10825,-0.062,-0.976,0.069,0.549,0.61,0.427,294.45
126032,142575,10821,-0.06,-0.968,0.061,0.549,0.61,0.427,294.456
126016,142494,10825,-0.061,-0.969,0.058,-0.305,0.488,0.183,294.46
126016,142565,10831,-0.062,-0.975,0.06,-0.305,0.488,0.183,294.466
126044,142494,10825,-0.063,-0.978,0.061,-1.28,0.427,0,294.47
126044,142563,10822,-0.061,-0.984,0.064,-1.28,0.427,0,294.476
126029,142494,10825,-0.063,-0.987,0.072,-1.89,0.488,0,294.48
126029,142579,10811,-0.067,-0.982,0.066,-1.89,0.488,0,294.486
126022,142494,10825,-0.07,-0.978,0.061,-2.256,0.549,0.183,294.489
126022,142550,10829,-0.069,-0.984,0.064,-2.256,0.549,0.183,294.496
126021,142494,10825,-0.062,-0.992,0.07,-1.037,0.183,0.244,294.499
126021,142571,10811,-0.065,-0.993,0.073,-1.037,0.183,0.244,294.506
125984,142494,10825,-0.065,-0.984,0.065,0.305,-0.122,0,294.509
125984,142533,10818,-0.065,-0.975,0.064,0.305,-0.122,0,294.515
125982,142494,10825,-0.067,-0.979,0.064,0.61,0.366,0.183,294.519
125982,142549,10815,-0.068,-0.982,0.065,0.61,0.366,0.183,294.525
125966,142494,10825,-0.069,-0.982,0.072,1.28,0.549,0.549,294.529
125966,142507,10799,-0.066,-0.977,0.065,1.28,0.549,0.549,294.535
125984,142494,10825,-0.066,-0.974,0.061,0.427,0.122,0.549,294.539
125984,142553,10827,-0.064,-0.975,0.065,0.427,0.122,0.549,294.545
126019,142494,10825,-0.064,-0.98,0.058,0.488,0.122,0.732,294.549
126019,142566,10828,-0.063,-0.984,0.058,0.488,0.122,0.732,294.555
126030,142494,10825,-0.066,-0.986,0.065,0.671,0.427,0.732,294.559
126030,142565,10816,-0.067,-0.983,0.06,0.671,0.427,0.732,294.565
126035,142494,10825,-0.069,-0.983,0.047,-0.122,0.549,0.732,294.569
126035,142585,10831,-0.067,-0.984,0.055,-0.122,0.549,0.732,294.575
126051,142494,10825,-0.067,-0.991,0.07,-0.488,0.488,0.427,294.579
126051,142583,10829,-0.066,-0.988,0.069,-0.488,0.488,0.427,294.585
126038,142750,10825,-0.063,-0.978,0.069,-0.854,0.366,0.366,294.588
126038,142594,10826,-0.061,-0.975,0.073,-0.854,0.366,0.366,294.595
126054,142494,10825,-0.061,-0.98,0.072,-1.524,0.427,0.488,294.598
126054,142584,10824,-0.065,-0.981,0.075,-1.524,0.427,0.488,294.605
126056,142494,10825,-0.062,-0.981,0.069,-1.341,0.427,0.305,294.608
126056,142573,10830,-0.061,-0.978,0.069,-1.341,0.427,0.305,294.614
126044,142750,10825,-0.059,-0.98,0.081,-1.768,0.122,0.244,294.618
126044,142612,10843,-0.061,-0.98,0.088,-1.768,0.122,0.244,294.624
126074,142750,10825,-0.062,-0.982,0.078,-1.402,0.122,0.427,294.628
126074,142601,10833,-0.066,-0.99,0.065,-1.402,0.122,0.427,294.634
126059,142750,10825,-0.071,-0.996,0.058,-0.427,0.549,0.061,294.638
126059,142602,10841,-0.071,-0.996,0.064,-0.427,0.549,0.061,294.644
126066,142750,10825,-0.072,-0.991,0.061,1.341,0.366,-0.122,294.648
126066,142592,10832,-0.069,-0.982,0.052,1.341,0.366,-0.122,294.654
126058,142750,10825,-0.069,-0.982,0.052,1.341,0.366,-0.122,294.658
126058,142610,10839,-0.064,-0.98,0.057,1.463,0.305,-0.061,294.664
126072,142750,10825,-0.064,-0.98,0.057,1.463,0.305,-0.061,294.668
126072,142616,10836,-0.063,-0.975,0.057,1.585,0.427,-0.122,294.674
126056,142750,10825,-0.063,-0.975,0.057,1.585,0.427,-0.122,294.678
126056,142617,10831,-0.064,-0.97,0.054,0.488,0.671,-0.061,294.684
126039,142750,10825,-0.064,-0.97,0.054,0.488,0.671,-0.061,294.687
126039,142608,10836,-0.063,-0.976,0.058,-0.549,0.488,0.488,294.694
126033,142494,10825,-0.063,-0.976,0.058,-0.549,0.488,0.488,294.697
126033,142585,10824,-0.063,-0.984,0.068,-0.427,0.305,0.549,294.704
126042,142750,10825,-0.063,-0.984,0.068,-0.427,0.305,0.549,294.707
126042,142604,10844,-0.063,-0.987,0.084,-0.244,0.305,0.488,294.713
126042,142750,10825,-0.063,-0.987,0.084,-0.244,0.305,0.488,294.717
126042,142599,10841,-0.067,-0.988,0.074,-0.061,0.793,0.732,294.723
126065,142494,10825,-0.067,-0.988,0.074,-0.061,0.793,0.732,294.727
126065,142585,10836,-0.065,-0.996,0.096,-0.061,1.037,0.732,294.733
126045,142494,10825,-0.065,-0.996,0.096,-0.061,1.037,0.732,294.737
126045,142575,10830,-0.057,-0.986,0.056,0.305,0.244,0,294.743
126068,142494,10825,-0.057,-0.986,0.056,0.305,0.244,0,294.747
126068,142573,10836,-0.064,-0.992,0.058,1.646,0.427,-0.976,294.753
126055,142494,10825,-0.064,-0.992,0.058,1.646,0.427,-0.976,294.757
126055,142572,10833,-0.065,-0.967,0.05,3.902,1.037,-1.098,294.763
126082,142494,10825,-0.065,-0.967,0.05,3.902,1.037,-1.098,294.767
126082,142586,10833,-0.066,-0.965,0.043,1.341,1.159,-1.037,294.773
126049,142494,10825,-0.066,-0.965,0.043,1.341,1.159,-1.037,294.777
126049,142565,10841,-0.06,-0.983,0.055,-0.366,0.549,-0.915,294.783
126061,142494,10825,-0.06,-0.983,0.055,-0.366,0.549,-0.915,294.786
126061,142581,10816,-0.063,-0.993,0.064,-0.244,0.732,-0.732,294.793
126049,142494,10825,-0.063,-0.993,0.064,-0.244,0.732,-0.732,294.796
126049,142556,10829,-0.067,-0.974,0.104,0.976,1.28,-0.122,294.803
126048,142750,10825,-0.067,-0.974,0.104,0.976,1.28,-0.122,294.806
126048,142593,10832,-0.071,-0.969,0.096,1.585,1.463,0.671,294.812
126059,142494,10825,-0.076,-0.975,0.082,1.585,1.463,0.671,294.816
126059,142582,10827,-0.074,-0.988,0.078,1.707,1.037,0.549,294.822
126054,142750,10825,-0.066,-0.996,0.073,1.707,1.037,0.549,294.826
126054,142615,10838,-0.058,-0.991,0.079,1.768,-0.366,0.122,294.832
126105,142750,10825,-0.056,-0.979,0.083,1.768,-0.366,0.122,294.836
126105,142605,10832,-0.053,-0.97,0.072,0.61,-0.61,0.732,294.842
126094,142750,10825,-0.054,-0.974,0.064,0.61,-0.61,0.732,294.846
126094,142631,10854,-0.061,-0.982,0.061,1.463,0.183,1.037,294.852
126121,142750,10825,-0.063,-0.983,0.038,1.463,0.183,1.037,294.856
126121,142633,10834,-0.062,-0.98,0.033,1.341,0.427,0.549,294.862
126129,142750,10825,-0.061,-0.982,0.05,1.341,0.427,0.549,294.866
126129,142645,10837,-0.062,-0.981,0.057,1.22,0.244,0.61,294.872
126120,142750,10825,-0.061,-0.973,0.06,1.22,0.244,0.61,294.876
126120,142657,10840,-0.062,-0.971,0.064,-0.427,0.427,0.854,294.882
126124,142750,10825,-0.061,-0.977,0.067,-0.427,0.427,0.854,294.885
126124,142654,10844,-0.061,-0.986,0.074,-1.22,0.488,1.037,294.892
126120,142750,10825,-0.057,-0.993,0.088,-1.22,0.488,1.037,294.895
126120,142639,10844,-0.057,-0.988,0.091,-0.732,0.244,0.854,294.902
126092,142750,10825,-0.056,-0.979,0.09,-0.732,0.244,0.854,294.905
126092,142617,10833,-0.059,-0.98,0.09,-0.061,0.305,0.732,294.911
126114,142750,10825,-0.063,-0.981,0.081,-0.061,0.305,0.732,294.915
126114,142643,10855,-0.066,-0.979,0.076,-0.305,0.122,0.427,294.921
126112,142750,10825,-0.063,-0.976,0.068,-0.305,0.122,0.427,294.925
126112,142624,10845,-0.062,-0.982,0.062,-1.22,-0.183,0.366,294.931
126115,142750,10825,-0.063,-0.985,0.055,-1.22,-0.183,0.366,294.935
126115,142621,10856,-0.063,-0.987,0.047,-0.366,-0.061,0.061,294.941
126113,142750,10825,-0.067,-0.981,0.04,-0.366,-0.061,0.061,294.945
126113,142644,10831,-0.069,-0.98,0.043,-0.305,0.61,0.061,294.951
126129,142750,10825,-0.068,-0.979,0.046,-0.305,0.61,0.061,294.955
126129,142615,10820,-0.065,-0.979,0.051,-0.183,0.793,0.61,294.961
126112,142750,10825,-0.065,-0.985,0.06,-0.183,0.793,0.61,294.965
126112,142627,10845,-0.068,-0.982,0.068,0.122,0.854,0.671,294.971
126119,142750,10825,-0.067,-0.981,0.079,0.122,0.854,0.671,294.975
126119,142618,10845,-0.063,-0.977,0.086,0.122,1.22,0.915,294.981
126123,142750,10825,-0.067,-0.977,0.085,0.122,1.22,0.915,294.984
126123,142619,10845,-0.065,-0.977,0.078,0.305,1.037,1.22,294.991
126119,142750,10825,-0.067,-0.98,0.075,0.305,1.037,1.22,294.994
126119,142645,10846,-0.065,-0.975,0.074,0.427,0.549,1.037,295.001
126123,142750,10825,-0.061,-0.977,0.082,0.427,0.549,1.037,295.004
126123,142610,10826,-0.061,-0.976,0.087,0.427,0.427,1.098,295.01
126065,142494,10825,-0.062,-0.976,0.082,0.427,0.427,1.098,295.014
126065,142588,10836,-0.061,-0.975,0.074,0.061,0.427,1.463,295.02
126077,142750,10825,-0.062,-0.982,0.072,0.061,0.427,1.463,295.024
126077,142617,10839,-0.064,-0.987,0.074,-0.122,0.366,1.22,295.03
126136,142750,10825,-0.062,-0.987,0.075,-0.122,0.366,1.22,295.034
126136,142651,10852,-0.062,-0.982,0.068,-0.61,0.244,0.976,295.04
126142,142750,10825,-0.064,-0.982,0.069,-0.61,0.244,0.976,295.044
126142,142652,10840,-0.065,-0.984,0.08,-1.037,0.122,1.098,295.05
126123,142750,10825,-0.065,-0.987,0.08,-1.037,0.122,1.098,295.054
126123,142612,10852,-0.064,-0.984,0.076,-1.22,-0.061,0.854,295.06
126104,142750,10825,-0.061,-0.984,0.071,-1.22,-0.061,0.854,295.064
126104,142612,10842,-0.063,-0.987,0.074,-1.829,-0.122,0.732,295.07
126083,142750,10825,-0.066,-0.994,0.078,-1.829,-0.122,0.732,295.074
126083,142598,10839,-0.07,-0.996,0.079,-1.22,-0.183,0.488,295.08
126009,142494,10825,-0.071,-0.993,0.077,-1.22,-0.183,0.488,295.083
126009,142539,10820,-0.07,-0.984,0.068,-1.585,-0.183,0.305,295.09
125984,142494,10825,-0.07,-0.98,0.06,-1.585,-0.183,0.305,295.093
125984,142501,10824,-0.066,-0.986,0.064,-1.28,-0.244,0.488,295.1
125980,142494,10825,-0.064,-0.988,0.063,-1.28,-0.244,0.488,295.103
125980,142516,10812,-0.061,-0.982,0.068,-0.671,-0.549,0.183,295.109
125950,142494,10825,-0.067,-0.975,0.064,-0.671,-0.549,0.183,295.113
125950,142489,10820,-0.066,-0.976,0.064,-1.037,-0.488,0.427,295.119
125969,142494,10825,-0.069,-0.976,0.058,-1.037,-0.488,0.427,295.123
125969,142483,10802,-0.071,-0.977,0.061,-0.61,-0.183,0.793,295.129
125966,142494,10825,-0.066,-0.971,0.06,-0.61,-0.183,0.793,295.133
125966,142502,10816,-0.064,-0.969,0.051,-1.341,-0.244,0.793,295.139
126000,142494,10825,-0.062,-0.979,0.048,-1.341,-0.244,0.793,295.143
126000,142532,10817,-0.062,-0.985,0.061,-1.463,-0.427,0.732,295.149
125989,142494,10825,-0.058,-0.984,0.071,-1.463,-0.427,0.732,295.153
125989,142524,10817,-0.056,-0.974,0.068,-1.098,-0.183,0.854,295.159
126011,142494,10825,-0.057,-0.972,0.057,-1.098,-0.183,0.854,295.163
126011,142558,10828,-0.062,-0.983,0.066,-1.341,0.366,0.915,295.169
126001,142494,10825,-0.066,-0.996,0.072,-1.341,0.366,0.915,295.173
126001,142540,10815,-0.069,-1.001,0.065,-0.305,0.671,0.488,295.179
125970,142494,10825,-0.069,-0.993,0.06,-0.305,0.671,0.488,295.182
125970,142552,10828,-0.067,-0.989,0.065,-0.732,0.549,0.183,295.189
125993,142494,10825,-0.061,-0.988,0.071,-0.732,0.549,0.183,295.192
125993,142533,10801,-0.059,-0.98,0.068,0.244,0.244,0.305,295.199
125979,142494,10825,-0.062,-0.977,0.065,0.244,0.244,0.305,295.202
125979,142548,10823,-0.066,-0.979,0.07,-0.244,0.671,0.244,295.208
126027,142494,10825,-0.069,-0.986,0.072,-0.244,0.671,0.244,295.212
126027,142568,10823,-0.072,-0.984,0.076,-0.61,0.61,0,295.218
126067,142494,10825,-0.073,-0.978,0.077,-0.61,0.61,0,295.222
126067,142564,10830,-0.071,-0.981,0.078,-0.976,0.183,0.244,295.228
126068,142494,10825,-0.07,-0.982,0.075,-0.976,0.183,0.244,295.232
126068,142564,10846,-0.069,-0.979,0.075,-0.793,-0.061,0.549,295.238
126075,142750,10825,-0.069,-0.978,0.077,-0.793,-0.061,0.549,295.242
126075,142609,10828,-0.069,-0.985,0.077,-0.671,-0.366,0.366,295.248
126057,142494,10825,-0.069,-0.985,0.077,-0.671,-0.366,0.366,295.252
126057,142574,10823,-0.074,-0.986,0.076,-0.427,-0.488,0.366,295.258
126037,142494,10825,-0.074,-0.986,0.076,-0.427,-0.488,0.366,295.262
126037,142572,10818,-0.072,-0.995,0.066,-0.793,-0.793,0.244,295.268
126070,142750,10825,-0.072,-0.995,0.066,-0.793,-0.793,0.244,295.272
126070,142607,10826,-0.067,-0.997,0.07,-0.671,-0.976,0.061,295.278
126069,142494,10825,-0.067,-0.997,0.07,-0.671,-0.976,0.061,295.281
126069,142583,10829,-0.067,-0.985,0.074,0,-0.732,-0.122,295.288
126051,142750,10825,-0.067,-0.985,0.074,0,-0.732,-0.122,295.291
126051,142601,10833,-0.069,-0.981,0.055,0.854,-0.366,-0.244,295.298
126065,142750,10825,-0.069,-0.981,0.055,0.854,-0.366,-0.244,295.301
126065,142609,10843,-0.069,-0.97,0.057,1.098,-0.305,-0.244,295.307
126076,142750,10825,-0.069,-0.97,0.057,1.098,-0.305,-0.244,295.311
126076,142601,10835,-0.066,-0.957,0.052,0.183,-0.366,0.122,295.317
126102,142750,10825,-0.066,-0.957,0.052,0.183,-0.366,0.122,295.321
126102,142601,10834,-0.066,-0.965,0.064,-0.854,-0.305,0.427,295.327
126104,142750,10825,-0.066,-0.965,0.064,-0.854,-0.305,0.427,295.331
126104,142599,10821,-0.065,-0.977,0.054,-1.89,-0.488,0.427,295.337
126093,142750,10825,-0.065,-0.977,0.054,-1.89,-0.488,0.427,295.341
126093,142612,10847,-0.063,-0.994,0.07,-0.61,-0.305,0.366,295.347
126080,142750,10825,-0.063,-0.994,0.07,-0.61,-0.305,0.366,295.351
126080,142627,10826,-0.062,-0.978,0.058,0.061,0.244,0.427,295.357
126095,142750,10825,-0.062,-0.978,0.058,0.061,0.244,0.427,295.361
126095,142612,10847,-0.066,-0.988,0.06,0.915,0.488,0.549,295.367
126071,142750,10825,-0.066,-0.988,0.06,0.915,0.488,0.549,295.371
126071,142622,10846,-0.063,-0.987,0.071,0.793,0.122,0.366,295.377
126111,142750,10825,-0.063,-0.987,0.071,0.793,0.122,0.366,295.38
126111,142627,10830,-0.064,-0.986,0.051,-1.22,0.183,0.366,295.387
126116,142750,10825,-0.064,-0.986,0.051,-1.22,0.183,0.366,295.39
126116,142636,10846,-0.063,-0.998,0.051,-1.22,0.183,0.366,295.397
126147,142750,10825,-0.061,-1.009,0.058,-0.122,0.183,0.122,295.4
126147,142641,10845,-0.065,-1.004,0.068,-0.122,0.183,0.122,295.406
126140,142750,10825,-0.065,-0.989,0.071,0.671,0.427,-0.61,295.41
126140,142636,10853,-0.062,-0.972,0.072,0.671,0.427,-0.61,295.416
126150,142750,10825,-0.069,-0.967,0.07,0.427,0.671,-0.427,295.42
126150,142661,10851,-0.067,-0.971,0.071,0.427,0.671,-0.427,295.426
126161,142750,10825,-0.063,-0.974,0.078,-0.061,0.549,-0.244,295.43
126161,142634,10847,-0.06,-0.977,0.082,-0.061,0.549,-0.244,295.436
126159,142750,10825,-0.059,-0.976,0.083,-1.402,0.061,-0.366,295.44
126159,142638,10844,-0.059,-0.975,0.077,-1.402,0.061,-0.366,295.446
126172,142750,10825,-0.063,-0.976,0.07,-1.463,-0.061,-0.061,295.45
126172,142699,10854,-0.062,-0.978,0.068,-1.463,-0.061,-0.061,295.456
126188,142750,10825,-0.06,-0.978,0.07,-0.244,-0.305,0.183,295.46
126188,142677,10851,-0.057,-0.974,0.077,-0.244,-0.305,0.183,295.466
126182,142750,10825,-0.055,-0.967,0.081,0.244,-0.366,0.122,295.47
126182,142695,10858,-0.056,-0.959,0.073,0.244,-0.366,0.122,295.476
126228,142750,10825,-0.06,-0.965,0.058,-0.854,0.122,0.732,295.48
126228,142699,10861,-0.062,-0.981,0.049,-0.854,0.122,0.732,295.486
126187,142750,10825,-0.063,-0.996,0.056,-0.793,0.244,0.549,295.489
126187,142672,10853,-0.06,-0.997,0.054,-0.793,0.244,0.549,295.496
126160,142750,10825,-0.054,-0.99,0.054,-0.854,-0.122,0.061,295.499
126160,142689,10850,-0.052,-0.988,0.057,-0.854,-0.122,0.061,295.505
126197,142750,10825,-0.051,-0.987,0.055,0.793,0.183,0.427,295.509
126197,142686,10844,-0.052,-0.981,0.054,0.793,0.183,0.427,295.515
126176,142750,10825,-0.061,-0.976,0.061,1.28,1.22,0.61,295.519
126176,142670,10858,-0.067,-0.974,0.06,1.28,1.22,0.61,295.525
126195,142750,10825,-0.068,-0.978,0.062,0.488,1.646,0.793,295.529
126195,142704,10866,-0.066,-0.981,0.064,0.488,1.646,0.793,295.535
126229,142750,10825,-0.064,-0.986,0.076,0,0.915,0.61,295.539
126229,142726,10855,-0.063,-0.993,0.078,0,0.915,0.61,295.545
126276,142750,10825,-0.062,-0.993,0.076,-1.28,0.549,0.366,295.549
126276,142748,10849,-0.062,-0.987,0.071,-1.28,0.549,0.366,295.555
126278,142750,10825,-0.064,-0.985,0.067,-1.524,1.037,0.366,295.559
126278,142759,10862,-0.064,-0.989,0.072,-1.524,1.037,0.366,295.565
126279,142750,10825,-0.06,-0.984,0.072,0.244,0.915,0.061,295.569
126279,142783,10870,-0.058,-0.974,0.065,0.244,0.915,0.061,295.575
126319,142750,10825,-0.063,-0.968,0.064,-0.305,1.098,0.061,295.579
126319,142765,10855,-0.064,-0.969,0.064,-0.305,1.098,0.061,295.585
