124321,140794,9274,-0.073,-0.976,0.127,0,0.244,0.305,250.114
124321,140632,10673,-0.073,-0.978,0.13,0.122,0.427,0.427,250.12
124304,140794,9274,-0.074,-0.979,0.128,0.122,0.427,0.427,250.124
124304,140637,10675,-0.07,-0.974,0.128,0,0.427,0.427,250.13
124348,140794,9274,-0.07,-0.974,0.128,0,0.427,0.427,250.134
124348,140654,10669,-0.072,-0.972,0.132,-0.183,0.366,0.427,250.14
124345,140794,9274,-0.072,-0.972,0.132,-0.183,0.366,0.427,250.144
124345,140656,10675,-0.071,-0.977,0.132,-0.122,0.671,0.427,250.15
124337,140794,9274,-0.071,-0.977,0.132,-0.122,0.671,0.427,250.154
124337,140674,10682,-0.072,-0.979,0.131,-0.183,0.793,0.488,250.16
124369,140794,9274,-0.072,-0.979,0.131,-0.183,0.793,0.488,250.164
124369,140667,10671,-0.075,-0.981,0.133,0.122,0.549,0.488,250.17
124355,140794,9274,-0.075,-0.981,0.133,0.122,0.549,0.488,250.174
124355,140681,10662,-0.073,-0.974,0.136,0.488,0.427,0.427,250.18
124353,140794,9274,-0.073,-0.974,0.136,0.488,0.427,0.427,250.184
124353,140690,10670,-0.071,-0.972,0.133,0.549,0.488,0.366,250.19
124355,140794,9274,-0.071,-0.972,0.133,0.549,0.488,0.366,250.193
124355,140674,10657,-0.073,-0.977,0.136,0.305,0.366,0.183,250.2
124353,140794,9274,-0.073,-0.977,0.136,0.305,0.366,0.183,250.203
124353,140703,10662,-0.073,-0.977,0.133,-0.244,0.488,0.244,250.21
124385,140794,9274,-0.073,-0.977,0.133,-0.244,0.488,0.244,250.213
124385,140691,10668,-0.072,-0.973,0.127,-0.549,0.549,0.305,250.219
124380,140794,9274,-0.072,-0.973,0.127,-0.549,0.549,0.305,250.223
124380,140693,10678,-0.072,-0.972,0.132,-0.427,0.427,0.488,250.229
124348,140794,9274,-0.072,-0.972,0.132,-0.427,0.427,0.488,250.233
124348,140689,10663,-0.074,-0.978,0.129,-0.488,0.488,0.671,250.239
124378,140794,9274,-0.074,-0.978,0.129,-0.488,0.488,0.671,250.243
124378,140690,10669,-0.074,-0.975,0.127,-0.549,0.488,0.732,250.249
124373,140794,9274,-0.074,-0.975,0.127,-0.549,0.488,0.732,250.253
124373,140692,10666,-0.073,-0.978,0.127,-0.427,0.488,0.915,250.259
124374,140794,9274,-0.073,-0.978,0.127,-0.427,0.488,0.915,250.263
124374,140695,10660,-0.074,-0.978,0.13,-0.305,0.427,1.037,250.269
124371,140794,9274,-0.074,-0.978,0.13,-0.305,0.427,1.037,250.273
124371,140705,10673,-0.075,-0.979,0.131,-0.305,0.427,1.037,250.279
124393,140794,9274,-0.072,-0.978,0.129,-0.549,0.183,0.854,250.283
124393,140685,10681,-0.071,-0.979,0.127,-0.549,0.183,0.854,250.289
124404,140794,9274,-0.073,-0.977,0.131,-0.427,0.244,0.793,250.292
124404,140714,10675,-0.075,-0.98,0.135,-0.427,0.244,0.793,250.299
124401,140794,9274,-0.078,-0.976,0.134,-0.427,0.732,0.854,250.302
124401,140707,10652,-0.079,-0.975,0.13,-0.427,0.732,0.854,250.309
124402,140794,9274,-0.079,-0.974,0.131,-0.793,0.793,0.793,250.312
124402,140709,10659,-0.074,-0.978,0.138,-0.793,0.793,0.793,250.318
124391,140794,9274,-0.069,-0.982,0.142,-1.402,0.305,0.671,250.322
124391,140745,10672,-0.076,-0.982,0.137,-1.402,0.305,0.671,250.328
124395,140794,9274,-0.081,-0.977,0.126,-1.585,0.671,0.671,250.332
124395,140705,10661,-0.085,-0.969,0.127,-1.585,0.671,0.671,250.338
124387,140794,9274,-0.087,-0.974,0.121,-1.707,0.854,0.427,250.342
124387,140692,10672,-0.083,-0.991,0.123,-1.707,0.854,0.427,250.348
124414,140794,9274,-0.078,-0.995,0.128,-1.159,0.244,-0.244,250.352
124414,140722,10681,-0.079,-0.99,0.12,-1.159,0.244,-0.244,250.358
124397,140794,9274,-0.076,-0.979,0.12,-0.244,0.244,-0.488,250.362
124397,140720,10668,-0.075,-0.971,0.119,-0.244,0.244,-0.488,250.368
124413,140794,9274,-0.077,-0.97,0.119,0.427,0.671,-0.366,250.372
124413,140725,10665,-0.073,-0.976,0.12,0.427,0.671,-0.366,250.378
124388,140794,9274,-0.073,-0.975,0.125,1.402,0.427,-0.244,250.382
124388,140714,10689,-0.07,-0.97,0.129,1.402,0.427,-0.244,250.388
124393,140794,9274,-0.069,-0.968,0.129,0.732,0.366,-0.427,250.391
124393,140707,10664,-0.07,-0.976,0.131,0.732,0.366,-0.427,250.398
124397,140794,9274,-0.072,-0.981,0.133,0.61,0.427,0.061,250.401
124397,140723,10678,-0.073,-0.983,0.136,0.61,0.427,0.061,250.408
124393,140794,9274,-0.07,-0.982,0.137,0.549,-0.061,0.183,250.411
124393,140707,10674,-0.07,-0.979,0.137,0.549,-0.061,0.183,250.417
124377,140794,9274,-0.07,-0.978,0.135,0.122,-0.122,0.122,250.421
124377,140712,10672,-0.072,-0.979,0.136,0.122,-0.122,0.122,250.427
124414,140794,9274,-0.075,-0.979,0.141,0.122,0,0.244,250.431
124414,140712,10682,-0.075,-0.979,0.147,0.122,0,0.244,250.437
124402,140794,9274,-0.071,-0.973,0.123,-0.183,-0.122,0.305,250.441
124402,140725,10672,-0.064,-0.976,0.12,-0.183,-0.122,0.305,250.447
124409,140794,9274,-0.069,-0.977,0.132,0.061,0,0.122,250.451
124409,140699,10684,-0.079,-0.969,0.13,0.061,0,0.122,250.457
124378,140794,9274,-0.081,-0.97,0.12,-1.22,0.427,0.366,250.461
124378,140704,10661,-0.076,-0.982,0.121,-1.22,0.427,0.366,250.467
124387,140794,9274,-0.074,-0.979,0.126,-1.159,-0.183,0.549,250.471
124387,140686,10670,-0.07,-0.981,0.121,-1.159,-0.183,0.549,250.477
124380,140794,9274,-0.066,-0.977,0.122,-0.244,0.061,0.366,250.481
124380,140702,10669,-0.07,-0.974,0.129,-0.244,0.061,0.366,250.487
124387,140794,9274,-0.071,-0.973,0.13,0.183,0.549,0.61,250.49
124387,140714,10678,-0.075,-0.972,0.129,0.183,0.549,0.61,250.497
124407,140794,9274,-0.074,-0.974,0.126,0.122,0.549,0.549,250.5
124407,140707,10681,-0.075,-0.975,0.131,0.122,0.549,0.549,250.507
124378,140794,9274,-0.077,-0.984,0.13,0.061,0.549,0.427,250.51
124378,140695,10674,-0.078,-0.985,0.126,0.061,0.549,0.427,250.516
124404,140794,9274,-0.075,-0.984,0.126,-0.183,0.488,0.366,250.52
124404,140726,10664,-0.074,-0.983,0.125,-0.183,0.488,0.366,250.526
124380,140794,9274,-0.07,-0.983,0.127,-0.122,0.366,0.183,250.53
124380,140721,10684,-0.068,-0.98,0.131,-0.122,0.366,0.183,250.536
124400,140794,9274,-0.071,-0.978,0.125,0.61,0.61,0,250.54
124400,140705,10675,-0.07,-0.971,0.125,0.61,0.61,0,250.546
124365,140794,9274,-0.071,-0.971,0.13,0.61,0.793,0.122,250.55
124365,140702,10684,-0.072,-0.972,0.132,0.61,0.793,0.122,250.556
124388,140794,9274,-0.07,-0.975,0.127,-0.305,0.366,0.122,250.56
124388,140719,10681,-0.069,-0.974,0.128,-0.305,0.366,0.122,250.566
124385,140794,9274,-0.069,-0.978,0.132,-0.976,0.244,0.244,250.57
124385,140703,10671,-0.07,-0.983,0.13,-0.976,0.244,0.244,250.576
124352,140794,9274,-0.073,-0.982,0.123,-0.976,0.549,0.244,250.58
124352,140690,10674,-0.068,-0.983,0.128,-0.976,0.549,0.244,250.586
124350,140794,9274,-0.071,-0.98,0.128,-0.061,0.549,0.305,250.589
124350,140685,10667,-0.074,-0.972,0.13,-0.061,0.549,0.305,250.596
124355,140794,9274,-0.071,-0.971,0.131,0.854,0.671,0.366,250.599
124355,140682,10670,-0.072,-0.972,0.131,0.854,0.671,0.366,250.606
124367,140794,9274,-0.073,-0.97,0.131,0.854,0.61,0.549,250.609
124367,140709,10675,-0.073,-0.971,0.133,0.854,0.61,0.549,250.615
124382,140794,9274,-0.073,-0.973,0.132,0,0.61,0.488,250.619
124382,140710,10664,-0.073,-0.972,0.133,0,0.61,0.488,250.625
124407,140794,9274,-0.072,-0.976,0.132,-0.61,0.732,0.427,250.629
124407,140712,10671,-0.076,-0.981,0.131,-0.61,0.732,0.427,250.635
124381,140794,9274,-0.077,-0.989,0.132,-0.488,0.549,0.488,250.639
124381,140717,10673,-0.076,-0.987,0.135,-0.488,0.549,0.488,250.645
124354,140794,9274,-0.078,-0.985,0.132,0.061,0.488,0.427,250.649
124354,140683,10666,-0.077,-0.978,0.127,0.061,0.488,0.427,250.655
124339,140794,9274,-0.076,-0.973,0.129,0.305,0.488,0.305,250.659
124339,140656,10668,-0.077,-0.975,0.139,0.305,0.488,0.305,250.665
124319,140794,9274,-0.075,-0.974,0.134,0.305,0.366,0.305,250.669
124319,140654,10661,-0.08,-0.974,0.134,0.305,0.366,0.305,250.675
124301,140794,9274,-0.076,-0.979,0.126,-0.244,0.427,0.305,250.679
124301,140653,10672,-0.075,-0.98,0.13,-0.244,0.427,0.305,250.685
124298,140794,9274,-0.075,-0.98,0.13,-0.427,0.244,-0.061,250.688
124298,140662,10659,-0.073,-0.979,0.129,-0.427,0.244,-0.061,250.695
124293,140794,9274,-0.075,-0.978,0.131,-0.366,0.061,-0.061,250.698
124293,140631,10654,-0.074,-0.976,0.13,-0.366,0.061,-0.061,250.705
124260,140794,9274,-0.073,-0.974,0.129,-0.122,0.183,0.061,250.708
124260,140613,10668,-0.07,-0.971,0.126,-0.122,0.183,0.061,250.714
124281,140794,9274,-0.072,-0.973,0.127,0.183,0.244,0.061,250.718
124281,140638,10641,-0.072,-0.975,0.129,0.183,0.244,0.061,250.724
124281,140794,9274,-0.072,-0.975,0.129,0.183,0.244,0.061,250.728
124281,140625,10655,-0.072,-0.976,0.133,0,0.305,0.183,250.734
124271,140794,9274,-0.072,-0.976,0.133,0,0.305,0.183,250.738
124271,140635,10660,-0.071,-0.981,0.13,-0.61,0.244,0.244,250.744
124266,140794,9274,-0.071,-0.981,0.13,-0.61,0.244,0.244,250.748
124266,140636,10661,-0.072,-0.981,0.137,-0.488,0.183,0.244,250.754
124268,140794,9274,-0.072,-0.981,0.137,-0.488,0.183,0.244,250.758
124268,140629,10652,-0.074,-0.977,0.13,-0.122,0.244,0.305,250.764
124255,140794,9274,-0.074,-0.977,0.13,-0.122,0.244,0.305,250.768
124255,140639,10661,-0.072,-0.976,0.131,0.244,0.366,0.305,250.774
124241,140794,9274,-0.072,-0.976,0.131,0.244,0.366,0.305,250.778
124241,140608,10647,-0.072,-0.976,0.132,0.366,0.427,0.244,250.784
124254,140794,9274,-0.072,-0.976,0.132,0.366,0.427,0.244,250.788
124254,140630,10659,-0.072,-0.979,0.126,0,0.427,0.305,250.794
124232,140794,9274,-0.072,-0.979,0.126,0,0.427,0.305,250.797
124232,140607,10654,-0.071,-0.979,0.134,-0.183,0.244,0.366,250.804
124233,140794,9274,-0.071,-0.979,0.134,-0.183,0.244,0.366,250.807
124233,140586,10660,-0.073,-0.975,0.135,0.183,0.305,0.427,250.813
124224,140794,9274,-0.073,-0.975,0.135,0.183,0.305,0.427,250.817
124224,140604,10630,-0.073,-0.972,0.133,0,0.305,0.427,250.823
124208,140794,9274,-0.073,-0.972,0.133,0,0.305,0.427,250.827
124208,140600,10644,-0.074,-0.981,0.13,-0.305,0.122,0.427,250.833
124186,140794,9274,-0.074,-0.981,0.13,-0.305,0.122,0.427,250.837
124186,140568,10640,-0.072,-0.979,0.136,-0.549,0.122,0.488,250.843
124198,140794,9274,-0.072,-0.979,0.136,-0.549,0.122,0.488,250.847
124198,140584,10652,-0.073,-0.981,0.127,-0.488,0.244,0.427,250.853
124210,140794,9274,-0.073,-0.981,0.127,-0.488,0.244,0.427,250.857
124210,140575,10663,-0.07,-0.98,0.127,-0.549,0.183,0.366,250.863
124195,140794,9274,-0.07,-0.98,0.127,-0.549,0.183,0.366,250.867
124195,140579,10642,-0.072,-0.979,0.131,-0.305,0.244,0.366,250.873
124166,140794,9274,-0.07,-0.977,0.123,-0.305,0.244,0.366,250.877
124166,140571,10657,-0.071,-0.976,0.127,0,0.305,0.366,250.883
124170,140794,9274,-0.072,-0.979,0.136,0,0.305,0.366,250.886
124170,140569,10646,-0.074,-0.979,0.138,-0.244,0.366,0.366,250.893
124205,140794,9274,-0.075,-0.976,0.128,-0.244,0.366,0.366,250.896
124205,140565,10636,-0.074,-0.975,0.123,-0.549,0.732,0.305,250.903
124206,140794,9274,-0.077,-0.98,0.127,-0.549,0.732,0.305,250.906
124206,140551,10646,-0.075,-0.985,0.129,-0.305,0.61,0.244,250.912
124195,140794,9274,-0.073,-0.984,0.129,-0.305,0.61,0.244,250.916
124195,140587,10639,-0.069,-0.979,0.131,-0.061,0.366,0.061,250.922
124213,140794,9274,-0.067,-0.975,0.13,-0.061,0.366,0.061,250.926
124213,140564,10648,-0.074,-0.97,0.133,0.366,0.549,-0.061,250.932
124203,140794,9274,-0.07,-0.969,0.133,0.366,0.549,-0.061,250.936
124203,140574,10635,-0.07,-0.975,0.131,0.305,0.732,0.122,250.942
124212,140794,9274,-0.071,-0.976,0.132,0.305,0.732,0.122,250.946
124212,140569,10645,-0.069,-0.975,0.133,-0.305,0.427,0.244,250.952
124216,140794,9274,-0.073,-0.981,0.143,-0.305,0.427,0.244,250.956
124216,140591,10645,-0.07,-0.969,0.127,-0.549,0.366,0.427,250.962
124211,140794,9274,-0.061,-0.969,0.109,-0.549,0.366,0.427,250.966
124211,140600,10650,-0.063,-0.98,0.133,0.244,0.671,0.366,250.972
124224,140794,9274,-0.079,-0.978,0.145,0.244,0.671,0.366,250.976
124224,140571,10639,-0.084,-0.976,0.128,-1.159,0.976,0.488,250.982
124222,140794,9274,-0.076,-0.982,0.124,-1.159,0.976,0.488,250.986
124222,140581,10649,-0.07,-0.988,0.132,-1.768,0.244,0.427,250.992
124224,140794,9274,-0.069,-0.989,0.134,-1.768,0.244,0.427,250.995
124224,140569,10662,-0.071,-0.98,0.13,-1.037,0.488,0.244,251.002
124212,140794,9274,-0.071,-0.975,0.131,-1.037,0.488,0.244,251.005
124212,140568,10654,-0.072,-0.973,0.131,-0.427,0.732,0.488,251.011
124224,140794,9274,-0.075,-0.974,0.129,-0.427,0.732,0.488,251.015
124224,140598,10636,-0.078,-0.973,0.124,0.183,0.305,0.427,251.021
124220,140794,9274,-0.073,-0.969,0.126,0.183,0.305,0.427,251.025
124220,140578,10653,-0.076,-0.972,0.126,-0.122,0.244,0.366,251.031
124230,140794,9274,-0.076,-0.977,0.122,-0.122,0.244,0.366,251.035
124230,140584,10651,-0.076,-0.984,0.121,-0.366,0.244,0.366,251.041
124207,140794,9274,-0.072,-0.98,0.125,-0.366,0.244,0.366,251.045
124207,140566,10650,-0.07,-0.981,0.128,0,-0.122,0.488,251.051
124238,140794,9274,-0.069,-0.977,0.125,0,-0.122,0.488,251.055
124238,140585,10652,-0.068,-0.971,0.127,0.549,0.183,0.549,251.061
124231,140794,9274,-0.071,-0.973,0.126,0.549,0.183,0.549,251.065
124231,140600,10658,-0.072,-0.974,0.136,0.671,0.427,0.61,251.071
124248,140794,9274,-0.074,-0.978,0.135,0.671,0.427,0.61,251.075
124248,140588,10652,-0.077,-0.98,0.13,-0.183,0.305,0.549,251.081
124272,140794,9274,-0.071,-0.98,0.127,-0.183,0.305,0.549,251.084
124272,140615,10652,-0.071,-0.982,0.128,-0.854,0.183,0.488,251.091
124267,140794,9274,-0.072,-0.987,0.131,-0.854,0.183,0.488,251.094
124267,140631,10670,-0.074,-0.986,0.135,-0.305,0.305,0.488,251.101
124278,140794,9274,-0.073,-0.98,0.135,-0.305,0.305,0.488,251.104
124278,140637,10662,-0.071,-0.976,0.137,-0.061,0.366,0.366,251.11
124297,140794,9274,-0.072,-0.97,0.135,-0.061,0.366,0.366,251.114
124297,140630,10662,-0.075,-0.965,0.136,0.183,0.427,0.427,251.12
124286,140794,9274,-0.072,-0.968,0.133,0.183,0.427,0.427,251.124
124286,140638,10664,-0.071,-0.968,0.126,-0.244,0.61,0.488,251.13
124334,140794,9274,-0.075,-0.97,0.125,-0.244,0.61,0.488,251.134
124334,140682,10661,-0.075,-0.975,0.127,-0.915,0.488,0.549,251.14
124317,140794,9274,-0.074,-0.979,0.125,-0.915,0.488,0.549,251.144
124317,140659,10671,-0.074,-0.983,0.127,-0.854,0.305,0.549,251.15
124350,140794,9274,-0.072,-0.983,0.124,-0.854,0.305,0.549,251.154
124350,140678,10664,-0.071,-0.981,0.126,-0.366,0.427,0.427,251.16
124372,140794,9274,-0.071,-0.98,0.128,-0.366,0.427,0.427,251.164
124372,140700,10682,-0.075,-0.979,0.128,0.732,0.549,0.549,251.17
124404,140794,9274,-0.073,-0.979,0.127,0.732,0.549,0.549,251.174
124404,140745,10681,-0.071,-0.981,0.128,0.488,0.488,0.488,251.18
124413,140794,9274,-0.075,-0.981,0.137,0.488,0.488,0.488,251.184
124413,140756,10696,-0.078,-0.976,0.143,-0.122,0.549,0.305,251.19
124447,140794,9274,-0.076,-0.973,0.135,-0.122,0.549,0.305,251.193
124447,140764,10681,-0.075,-0.973,0.128,-0.854,0.549,0.244,251.2
124440,140794,9274,-0.076,-0.976,0.128,-0.854,0.549,0.244,251.203
124440,140757,10693,-0.073,-0.978,0.132,-0.549,0.244,0.305,251.209
124428,140794,9274,-0.074,-0.977,0.125,-0.549,0.244,0.305,251.213
124428,140732,10675,-0.071,-0.978,0.13,-0.183,0.061,0.244,251.219
124438,140794,9274,-0.071,-0.978,0.131,-0.183,0.061,0.244,251.223
124438,140741,10678,-0.074,-0.977,0.132,-0.244,0.366,0.244,251.229
124400,140794,9274,-0.075,-0.973,0.132,-0.244,0.366,0.244,251.233
124400,140759,10686,-0.074,-0.969,0.128,-0.366,0.732,0.549,251.239
124470,140794,9274,-0.073,-0.971,0.128,-0.366,0.732,0.549,251.243
124470,140774,10683,-0.077,-0.976,0.128,-0.366,0.488,0.61,251.249
124457,140794,9274,-0.073,-0.977,0.124,-0.366,0.488,0.61,251.253
124457,140759,10691,-0.073,-0.979,0.126,-0.732,0.305,0.549,251.259
124478,140794,9274,-0.071,-0.987,0.123,-0.732,0.305,0.549,251.263
124478,140775,10692,-0.072,-0.989,0.13,-0.366,0.61,0.305,251.269
124478,140794,9274,-0.073,-0.986,0.128,-0.366,0.61,0.305,251.273
124478,140764,10697,-0.075,-0.982,0.126,0.305,0.61,0.244,251.279
124456,140794,9274,-0.073,-0.978,0.13,0.305,0.61,0.244,251.282
124456,140779,10685,-0.078,-0.976,0.131,0.427,0.488,0.305,251.289
124455,140794,9274,-0.076,-0.974,0.128,0.427,0.488,0.305,251.292
124455,140773,10691,-0.074,-0.975,0.124,0.061,0.427,0.305,251.299
124475,140794,9274,-0.073,-0.975,0.128,0.061,0.427,0.305,251.302
124475,140771,10698,-0.078,-0.976,0.133,-0.366,0.305,0.122,251.309
124464,140794,9274,-0.078,-0.976,0.133,-0.366,0.305,0.122,251.312
124464,140791,10676,-0.073,-0.975,0.132,-0.549,0.244,0.061,251.318
124471,140794,9274,-0.073,-0.975,0.132,-0.549,0.244,0.061,251.322
124471,140781,10689,-0.072,-0.98,0.134,-0.183,0.122,0.061,251.328
124466,140794,9274,-0.072,-0.98,0.134,-0.183,0.122,0.061,251.332
124466,140752,10693,-0.068,-0.977,0.134,0.122,0.061,0.183,251.338
124452,140794,9274,-0.068,-0.977,0.134,0.122,0.061,0.183,251.342
124452,140760,10694,-0.066,-0.974,0.136,0,0.244,0.183,251.348
124444,140794,9274,-0.066,-0.974,0.136,0,0.244,0.183,251.352
124444,140765,10676,-0.073,-0.973,0.128,-0.366,0.366,0.305,251.358
124441,140794,9274,-0.073,-0.973,0.128,-0.366,0.366,0.305,251.362
124441,140786,10705,-0.068,-0.979,0.13,-0.61,0.305,0.305,251.368
124435,140794,9274,-0.068,-0.979,0.13,-0.61,0.305,0.305,251.372
124435,140768,10689,-0.07,-0.982,0.129,-0.244,0.366,0.305,251.378
124421,140794,9274,-0.07,-0.982,0.129,-0.244,0.366,0.305,251.382
124421,140746,10688,-0.071,-0.972,0.126,0.305,0.488,0.366,251.388
124445,140794,9274,-0.071,-0.972,0.126,0.305,0.488,0.366,251.391
124445,140747,10679,-0.073,-0.978,0.131,0.488,0.488,0.427,251.398
124410,140794,9274,-0.073,-0.978,0.131,0.488,0.488,0.427,251.401
124410,140750,10692,-0.077,-0.98,0.131,0.305,0.366,0.244,251.407
124421,140794,9274,-0.077,-0.98,0.131,0.305,0.366,0.244,251.411
124421,140746,10678,-0.075,-0.98,0.129,-0.061,0.488,0.244,251.417
124406,140794,9274,-0.075,-0.98,0.129,-0.061,0.488,0.244,251.421
124406,140733,10686,-0.073,-0.979,0.126,-0.061,0.488,0.122,251.427
124431,140794,9274,-0.073,-0.979,0.126,-0.061,0.488,0.122,251.431
124431,140754,10690,-0.077,-0.982,0.125,0.305,0.488,0.122,251.437
124441,140794,9274,-0.077,-0.982,0.125,0.305,0.488,0.122,251.441
124441,140751,10700,-0.071,-0.977,0.133,0.366,0.366,0,251.447
124439,140794,9274,-0.071,-0.977,0.133,0.366,0.366,0,251.451
124439,140721,10677,-0.073,-0.969,0.126,-0.061,0.427,0.305,251.457
124413,140794,9274,-0.073,-0.969,0.126,-0.061,0.427,0.305,251.461
124413,140751,10689,-0.073,-0.969,0.131,-0.061,0.427,0.305,251.467
124420,140794,9274,-0.071,-0.976,0.131,-0.366,0.244,0.366,251.471
124420,140722,10690,-0.072,-0.979,0.131,-0.366,0.244,0.366,251.477
124416,140794,9274,-0.071,-0.98,0.133,-0.305,0.244,0.366,251.481
124416,140752,10685,-0.07,-0.983,0.126,-0.305,0.244,0.366,251.487
124431,140794,9274,-0.071,-0.983,0.125,-0.427,0.305,0.305,251.49
124431,140732,10682,-0.071,-0.976,0.125,-0.427,0.305,0.305,251.497
124398,140794,9274,-0.069,-0.975,0.125,-0.305,0.305,0.427,251.5
124398,140715,10678,-0.07,-0.974,0.129,-0.305,0.305,0.427,251.507
124376,140794,9274,-0.07,-0.976,0.13,-0.122,0.183,0.488,251.51
124376,140708,10698,-0.071,-0.978,0.129,-0.122,0.183,0.488,251.516
124407,140794,9274,-0.072,-0.979,0.127,-0.305,0.366,0.427,251.52
124407,140702,10673,-0.072,-0.979,0.13,-0.305,0.366,0.427,251.526
124374,140794,9274,-0.073,-0.977,0.133,0.122,0.366,0.366,251.53
124374,140697,10686,-0.074,-0.979,0.133,0.122,0.366,0.366,251.536
124393,140794,9274,-0.072,-0.978,0.135,0.305,0.427,0.366,251.54
124393,140700,10679,-0.077,-0.975,0.13,0.305,0.427,0.366,251.546
124360,140794,9274,-0.076,-0.973,0.131,0.183,0.732,0.305,251.55
124360,140690,10688,-0.073,-0.974,0.135,0.183,0.732,0.305,251.556
124364,140794,9274,-0.074,-0.976,0.129,-0.061,0.732,0.244,251.56
124364,140699,10676,-0.074,-0.975,0.132,-0.061,0.732,0.244,251.566
124356,140794,9274,-0.073,-0.977,0.131,-0.427,0.366,0.427,251.57
124356,140666,10678,-0.072,-0.979,0.127,-0.427,0.366,0.427,251.576
124353,140794,9274,-0.072,-0.976,0.133,0,0.305,0.427,251.58
124353,140641,10676,-0.073,-0.975,0.134,0,0.305,0.427,251.586
124348,140794,9274,-0.074,-0.974,0.134,0.183,0.427,0.366,251.589
124348,140660,10681,-0.074,-0.975,0.133,0.183,0.427,0.366,251.596
124349,140794,9274,-0.076,-0.976,0.131,-0.244,0.427,0.427,251.599
124349,140668,10677,-0.072,-0.975,0.127,-0.244,0.427,0.427,251.606
124344,140794,9274,-0.071,-0.979,0.127,-0.427,0.183,0.366,251.609
124344,140685,10675,-0.071,-0.981,0.132,-0.427,0.183,0.366,251.615
124338,140794,9274,-0.071,-0.983,0.13,-0.305,0.061,0.305,251.619
124338,140682,10693,-0.072,-0.982,0.129,-0.305,0.061,0.305,251.625
124330,140794,9274,-0.073,-0.979,0.127,-0.549,0.305,0.305,251.629
124330,140661,10675,-0.073,-0.98,0.126,-0.549,0.305,0.305,251.635
124344,140794,9274,-0.071,-0.977,0.128,-0.244,0.366,0.244,251.639
124344,140675,10672,-0.07,-0.973,0.13,-0.244,0.366,0.244,251.645
124351,140794,9274,-0.072,-0.97,0.132,0,0.305,0.244,251.649
124351,140680,10655,-0.069,-0.97,0.131,0,0.305,0.244,251.655
124341,140794,9274,-0.068,-0.974,0.133,-0.427,0.305,0.366,251.659
124341,140672,10662,-0.074,-0.975,0.132,-0.427,0.305,0.366,251.665
124344,140794,9274,-0.071,-0.978,0.127,-0.61,0.244,0.427,251.669
124344,140681,10667,-0.073,-0.984,0.128,-0.61,0.244,0.427,251.675
124333,140794,9274,-0.074,-0.984,0.128,-0.61,0.183,0.305,251.679
124333,140682,10676,-0.071,-0.981,0.126,-0.61,0.183,0.305,251.685
124347,140794,9274,-0.071,-0.978,0.13,-0.427,0.244,0.366,251.688
124347,140672,10667,-0.073,-0.978,0.131,-0.427,0.244,0.366,251.695
124337,140794,9274,-0.074,-0.977,0.134,0.244,0.488,0.366,251.698
124337,140679,10678,-0.073,-0.977,0.133,0.244,0.488,0.366,251.705
124340,140794,9274,-0.074,-0.974,0.135,0.061,0.366,0.366,251.708
124340,140671,10663,-0.074,-0.971,0.133,0.061,0.366,0.366,251.714
124339,140794,9274,-0.071,-0.977,0.132,-0.793,0.244,0.427,251.718
124339,140697,10674,-0.07,-0.981,0.134,-0.793,0.244,0.427,251.724
124353,140794,9274,-0.075,-0.979,0.134,-0.61,0.244,0.427,251.728
124353,140659,10660,-0.073,-0.979,0.132,-0.61,0.244,0.427,251.734
124318,140794,9274,-0.074,-0.976,0.132,-0.793,0.183,0.366,251.738
124318,140666,10669,-0.073,-0.98,0.128,-0.793,0.183,0.366,251.744
124335,140794,9274,-0.07,-0.979,0.13,-0.488,0.244,0.427,251.748
124335,140663,10670,-0.072,-0.979,0.129,-0.488,0.244,0.427,251.754
124331,140794,9274,-0.071,-0.978,0.127,-0.244,0.244,0.549,251.758
124331,140671,10648,-0.074,-0.98,0.124,-0.244,0.244,0.549,251.764
124320,140794,9274,-0.073,-0.975,0.129,-0.427,0.183,0.427,251.768
124320,140638,10668,-0.073,-0.974,0.131,-0.427,0.183,0.427,251.774
124314,140794,9274,-0.073,-0.971,0.131,-0.427,0.244,0.488,251.778
124314,140675,10663,-0.071,-0.973,0.126,-0.427,0.244,0.488,251.784
124350,140794,9274,-0.072,-0.977,0.129,-0.061,0.366,0.549,251.787
124350,140652,10675,-0.074,-0.977,0.127,-0.061,0.366,0.549,251.794
124326,140794,9274,-0.074,-0.983,0.125,-0.366,0.366,0.427,251.797
124326,140667,10685,-0.075,-0.984,0.131,-0.366,0.366,0.427,251.804
124348,140794,9274,-0.075,-0.981,0.13,-0.732,0.366,0.305,251.807
124348,140683,10679,-0.072,-0.984,0.129,-0.732,0.366,0.305,251.813
124318,140794,9274,-0.073,-0.981,0.131,-0.488,0.366,0.305,251.817
124318,140668,10665,-0.076,-0.976,0.128,-0.488,0.366,0.305,251.823
124336,140794,9274,-0.072,-0.976,0.128,0.122,0.305,0.366,251.827
124336,140681,10680,-0.071,-0.974,0.127,0.122,0.305,0.366,251.833
124337,140794,9274,-0.073,-0.973,0.126,0.366,0.122,0.244,251.837
124337,140682,10662,-0.075,-0.976,0.129,0.366,0.122,0.244,251.843
124329,140794,9274,-0.074,-0.979,0.132,-0.122,0.122,0.183,251.847
124329,140674,10679,-0.073,-0.98,0.124,-0.122,0.122,0.183,251.853
124339,140794,9274,-0.073,-0.978,0.129,-0.671,0.183,0.183,251.857
124339,140709,10668,-0.072,-0.98,0.13,-0.671,0.183,0.183,251.863
124342,140794,9274,-0.071,-0.979,0.131,-0.488,0.244,0.183,251.867
124342,140662,10650,-0.072,-0.976,0.129,-0.488,0.244,0.183,251.873
124332,140794,9274,-0.07,-0.977,0.13,-0.183,0.244,0.244,251.877
124332,140679,10664,-0.071,-0.975,0.132,-0.183,0.244,0.244,251.883
124346,140794,9274,-0.075,-0.976,0.135,0.183,0.488,0.305,251.886
124346,140682,10673,-0.073,-0.975,0.137,0.183,0.488,0.305,251.893
124351,140794,9274,-0.077,-0.975,0.133,0.061,0.427,0.366,251.896
124351,140683,10668,-0.075,-0.974,0.131,0.061,0.427,0.366,251.903
124340,140794,9274,-0.075,-0.974,0.131,0.061,0.427,0.366,251.906
124340,140687,10666,-0.072,-0.98,0.127,-0.793,0.366,0.183,251.912
124362,140794,9274,-0.072,-0.98,0.127,-0.793,0.366,0.183,251.916
124362,140693,10666,-0.075,-0.982,0.124,-0.854,0.305,0,251.922
124362,140794,9274,-0.075,-0.982,0.124,-0.854,0.305,0,251.926
124362,140687,10684,-0.071,-0.974,0.123,-0.183,0.366,0.183,251.932
124339,140794,9274,-0.071,-0.974,0.123,-0.183,0.366,0.183,251.936
124339,140698,10675,-0.07,-0.97,0.126,0.305,0.366,0.244,251.942
124370,140794,9274,-0.07,-0.97,0.126,0.305,0.366,0.244,251.946
124370,140701,10665,-0.072,-0.971,0.122,0.427,0.488,0.244,251.952
124334,140794,9274,-0.072,-0.971,0.122,0.427,0.488,0.244,251.956
124334,140690,10673,-0.069,-0.983,0.131,0.061,0.366,0.244,251.962
124356,140794,9274,-0.069,-0.983,0.131,0.061,0.366,0.244,251.966
124356,140664,10669,-0.069,-0.982,0.137,-0.305,0.122,0.244,251.972
124361,140794,9274,-0.069,-0.982,0.137,-0.305,0.122,0.244,251.976
124361,140682,10668,-0.071,-0.978,0.138,-0.915,0.183,0.427,251.982
124353,140794,9274,-0.071,-0.978,0.138,-0.915,0.183,0.427,251.985
124353,140692,10673,-0.071,-0.974,0.138,-0.427,0.244,0.488,251.992
124356,140794,9274,-0.071,-0.974,0.138,-0.427,0.244,0.488,251.995
124356,140667,10679,-0.072,-0.978,0.131,-0.427,0.183,0.366,252.002
124361,140794,9274,-0.072,-0.978,0.131,-0.427,0.183,0.366,252.005
124361,140685,10673,-0.07,-0.973,0.126,-0.305,0.122,0.305,252.011
124373,140794,9274,-0.07,-0.973,0.126,-0.305,0.122,0.305,252.015
124373,140685,10678,-0.071,-0.973,0.124,-0.122,0.061,0.366,252.021
124336,140794,9274,-0.071,-0.973,0.124,-0.122,0.061,0.366,252.025
124336,140689,10673,-0.074,-0.979,0.124,-0.427,0.305,0.427,252.031
124358,140794,9274,-0.074,-0.979,0.124,-0.427,0.305,0.427,252.035
124358,140676,10680,-0.068,-0.979,0.128,-0.671,0.244,0.366,252.041
124354,140794,9274,-0.068,-0.979,0.128,-0.671,0.244,0.366,252.045
124354,140678,10683,-0.071,-0.983,0.133,-0.61,0.122,0.488,252.051
124336,140794,9274,-0.071,-0.983,0.133,-0.61,0.122,0.488,252.055
124336,140679,10666,-0.067,-0.98,0.122,-0.244,0.427,0.488,252.061
124359,140794,9274,-0.071,-0.977,0.129,-0.244,0.427,0.488,252.065
124359,140664,10682,-0.077,-0.978,0.133,0.122,0.549,0.549,252.071
124360,140794,9274,-0.078,-0.979,0.133,0.122,0.549,0.549,252.075
124360,140699,10670,-0.073,-0.98,0.125,-0.366,0.488,0.488,252.081
124347,140794,9274,-0.073,-0.985,0.129,-0.366,0.488,0.488,252.084
124347,140689,10675,-0.073,-0.982,0.132,-0.122,0.305,0.549,252.091
124342,140794,9274,-0.072,-0.977,0.127,-0.122,0.305,0.549,252.094
124342,140661,10663,-0.074,-0.976,0.128,-0.061,0.366,0.427,252.101
124349,140794,9274,-0.076,-0.971,0.126,-0.061,0.366,0.427,252.104
124349,140669,10678,-0.072,-0.969,0.126,-0.732,0.366,0.305,252.11
124331,140794,9274,-0.071,-0.974,0.128,-0.732,0.366,0.305,252.114
124331,140660,10669,-0.071,-0.979,0.129,-1.28,0.244,0.305,252.12
124347,140794,9274,-0.068,-0.981,0.133,-1.28,0.244,0.305,252.124
124347,140674,10685,-0.069,-0.983,0.128,-1.402,0.244,0.183,252.13
124337,140794,9274,-0.07,-0.983,0.125,-1.402,0.244,0.183,252.134
124337,140671,10668,-0.07,-0.981,0.131,-0.61,0.305,0.244,252.14
124348,140794,9274,-0.07,-0.981,0.133,-0.61,0.305,0.244,252.144
124348,140671,10675,-0.072,-0.976,0.128,0,0.427,0.366,252.15
124346,140794,9274,-0.072,-0.975,0.131,0,0.427,0.366,252.154
124346,140684,10685,-0.069,-0.977,0.131,0.122,0.244,0.305,252.16
124341,140794,9274,-0.071,-0.977,0.137,0.122,0.244,0.305,252.164
124341,140668,10675,-0.068,-0.969,0.137,-0.122,0.305,0.427,252.17
124350,140794,9274,-0.068,-0.968,0.131,-0.122,0.305,0.427,252.174
124350,140657,10679,-0.073,-0.971,0.127,-0.122,0.305,0.61,252.18
124335,140794,9274,-0.072,-0.972,0.124,-0.122,0.305,0.61,252.183
124335,140668,10675,-0.073,-0.972,0.128,0.366,0.366,0.671,252.19
124334,140794,9274,-0.075,-0.973,0.136,0.366,0.366,0.671,252.193
124334,140693,10680,-0.073,-0.973,0.134,-0.244,0.305,0.61,252.2
124356,140794,9274,-0.073,-0.979,0.131,-0.244,0.305,0.61,252.203
124356,140667,10679,-0.074,-0.984,0.127,-1.22,0.061,0.61,252.209
124359,140794,9274,-0.077,-0.989,0.133,-1.22,0.061,0.61,252.213
124359,140675,10670,-0.078,-0.987,0.13,-1.098,0.122,0.61,252.219
124349,140794,9274,-0.077,-0.987,0.127,-1.098,0.122,0.61,252.223
124349,140659,10675,-0.077,-0.985,0.124,-0.366,0.244,0.488,252.229
124350,140794,9274,-0.077,-0.973,0.123,-0.366,0.244,0.488,252.233
124350,140688,10664,-0.078,-0.971,0.121,0.183,0.183,0.366,252.239
124355,140794,9274,-0.073,-0.973,0.122,0.183,0.183,0.366,252.243
124355,140680,10680,-0.074,-0.979,0.129,0.244,0.183,0.244,252.249
124332,140794,9274,-0.075,-0.979,0.127,0.244,0.183,0.244,252.253
124332,140685,10672,-0.074,-0.978,0.126,-0.305,0.183,0.244,252.259
124322,140794,9274,-0.073,-0.975,0.127,-0.305,0.183,0.244,252.263
124322,140665,10673,-0.071,-0.973,0.124,-0.305,0.305,0.305,252.269
124321,140794,9274,-0.072,-0.975,0.123,-0.305,0.305,0.305,252.273
124321,140661,10678,-0.074,-0.98,0.127,0.061,0.549,0.244,252.279
124331,140794,9274,-0.073,-0.977,0.13,0.061,0.549,0.244,252.282
124331,140648,10668,-0.073,-0.976,0.129,0,0.488,0.244,252.289
124313,140794,9274,-0.071,-0.972,0.128,0,0.488,0.244,252.292
124313,140672,10677,-0.069,-0.976,0.128,-0.488,0.305,0.244,252.299
124355,140794,9274,-0.07,-0.979,0.129,-0.488,0.305,0.244,252.302
124355,140706,10678,-0.073,-0.981,0.132,-0.427,0.427,0.244,252.308
124326,140794,9274,-0.073,-0.982,0.134,-0.427,0.427,0.244,252.312
124326,140681,10679,-0.071,-0.981,0.133,-0.488,0.366,0.122,252.318
124360,140794,9274,-0.07,-0.979,0.134,-0.488,0.366,0.122,252.322
124360,140701,10682,-0.069,-0.979,0.129,-0.183,0.305,0.244,252.328
124337,140794,9274,-0.068,-0.973,0.134,-0.183,0.305,0.244,252.332
124337,140686,10674,-0.07,-0.971,0.135,0.488,0.427,0.244,252.338
124331,140794,9274,-0.074,-0.973,0.13,0.488,0.427,0.244,252.342
124331,140672,10674,-0.073,-0.974,0.125,0.366,0.488,0.366,252.348
124318,140794,9274,-0.071,-0.976,0.126,0.366,0.488,0.366,252.352
124318,140653,10674,-0.071,-0.975,0.135,0,0.488,0.366,252.358
124308,140794,9274,-0.071,-0.978,0.132,0,0.488,0.366,252.362
124308,140650,10681,-0.074,-0.977,0.132,-0.183,0.427,0.366,252.368
124299,140794,9274,-0.071,-0.977,0.135,-0.183,0.427,0.366,252.372
124299,140644,10682,-0.073,-0.977,0.135,-0.427,0.366,0.366,252.378
124298,140794,9274,-0.074,-0.977,0.133,-0.427,0.366,0.366,252.381
124298,140639,10665,-0.073,-0.976,0.132,-0.244,0.366,0.488,252.388
124302,140794,9274,-0.075,-0.98,0.133,-0.244,0.366,0.488,252.391
124302,140641,10668,-0.075,-0.983,0.13,-0.183,0.122,0.488,252.398
124275,140794,9274,-0.074,-0.978,0.127,-0.183,0.122,0.488,252.401
124275,140624,10662,-0.074,-0.976,0.129,-0.488,0,0.488,252.407
124293,140794,9274,-0.071,-0.977,0.123,-0.488,0,0.488,252.411
124293,140630,10673,-0.072,-0.979,0.122,-0.549,0.183,0.305,252.417
124272,140794,9274,-0.072,-0.978,0.13,-0.549,0.183,0.305,252.421
124272,140642,10674,-0.074,-0.979,0.128,-0.488,0.122,0.305,252.427
124258,140794,9274,-0.073,-0.977,0.12,-0.488,0.122,0.305,252.431
124258,140622,10660,-0.071,-0.977,0.12,-0.366,0.122,0.244,252.437
124253,140794,9274,-0.07,-0.976,0.125,-0.366,0.122,0.244,252.441
124253,140614,10662,-0.072,-0.978,0.129,-0.061,0.366,0.305,252.447
124250,140794,9274,-0.072,-0.978,0.132,-0.061,0.366,0.305,252.451
124250,140612,10668,-0.074,-0.977,0.128,-0.427,0.427,0.244,252.457
124260,140794,9274,-0.072,-0.974,0.125,-0.427,0.427,0.244,252.461
124260,140611,10672,-0.069,-0.976,0.126,-0.244,0.366,0.305,252.467
124240,140794,9274,-0.07,-0.976,0.127,-0.244,0.366,0.305,252.471
124240,140631,10680,-0.073,-0.976,0.127,-0.122,0.61,0.366,252.477
124264,140794,9274,-0.071,-0.976,0.131,-0.122,0.61,0.366,252.48
124264,140617,10667,-0.073,-0.979,0.129,-0.122,0.732,0.427,252.487
124253,140794,9274,-0.07,-0.975,0.129,-0.122,0.732,0.427,252.49
124253,140622,10672,-0.07,-0.977,0.125,-0.122,0.549,0.305,252.497
124272,140794,9274,-0.07,-0.977,0.125,-0.122,0.549,0.305,252.5
124272,140608,10648,-0.073,-0.977,0.135,0,0.671,0.366,252.506
124259,140794,9274,-0.073,-0.977,0.135,0,0.671,0.366,252.51
124259,140595,10676,-0.07,-0.974,0.13,-0.061,0.61,0.427,252.516
124260,140794,9274,-0.07,-0.974,0.13,-0.061,0.61,0.427,252.52
124260,140623,10666,-0.073,-0.978,0.131,-0.244,0.549,0.427,252.526
124272,140794,9274,-0.073,-0.978,0.131,-0.244,0.549,0.427,252.53
124272,140613,10656,-0.071,-0.98,0.126,-0.427,0.488,0.549,252.536
124268,140794,9274,-0.071,-0.98,0.126,-0.427,0.488,0.549,252.54
124268,140618,10668,-0.073,-0.98,0.129,-0.244,0.427,0.61,252.546
124270,140794,9274,-0.073,-0.98,0.129,-0.244,0.427,0.61,252.55
124270,140626,10657,-0.072,-0.973,0.128,0.122,0.366,0.61,252.556
124270,140794,9274,-0.072,-0.973,0.128,0.122,0.366,0.61,252.56
124270,140601,10662,-0.072,-0.972,0.137,0.305,0.366,0.671,252.566
124264,140794,9274,-0.072,-0.972,0.137,0.305,0.366,0.671,252.57
124264,140626,10661,-0.073,-0.972,0.13,-0.183,0.305,0.61,252.576
124266,140794,9274,-0.073,-0.972,0.13,-0.183,0.305,0.61,252.579
124266,140623,10679,-0.073,-0.981,0.132,-0.549,0.183,0.488,252.586
124281,140794,9274,-0.073,-0.981,0.132,-0.549,0.183,0.488,252.589
124281,140605,10669,-0.076,-0.983,0.128,-0.732,0.061,0.427,252.596
124266,140794,9274,-0.076,-0.983,0.128,-0.732,0.061,0.427,252.599
124266,140629,10675,-0.074,-0.982,0.122,-0.183,-0.061,0.366,252.605
124287,140794,9274,-0.074,-0.982,0.122,-0.183,-0.061,0.366,252.609
124287,140615,10649,-0.074,-0.978,0.131,0.122,0.183,0.183,252.615
124267,140794,9274,-0.074,-0.978,0.131,0.122,0.183,0.183,252.619
124267,140610,10665,-0.075,-0.976,0.129,-0.366,0.122,0.183,252.625
124282,140794,9274,-0.075,-0.976,0.129,-0.366,0.122,0.183,252.629
124282,140605,10664,-0.075,-0.979,0.127,-0.488,0.183,0.183,252.635
124283,140794,9274,-0.075,-0.979,0.127,-0.488,0.183,0.183,252.639
124283,140595,10668,-0.075,-0.981,0.127,-0.488,0.183,0.183,252.645
124274,140794,9274,-0.072,-0.979,0.127,-0.671,0.183,0.061,252.649
124274,140617,10661,-0.074,-0.975,0.127,-0.671,0.183,0.061,252.655
124269,140794,9274,-0.072,-0.975,0.128,-0.488,0.305,0.122,252.659
124269,140593,10670,-0.072,-0.976,0.129,-0.488,0.305,0.122,252.665
124261,140794,9274,-0.074,-0.975,0.129,-0.366,0.488,0.183,252.669
124261,140607,10668,-0.071,-0.974,0.132,-0.366,0.488,0.183,252.675
124266,140794,9274,-0.072,-0.976,0.132,-0.366,0.61,0.183,252.678
124266,140605,10666,-0.073,-0.975,0.137,-0.366,0.61,0.183,252.685
124272,140794,9274,-0.071,-0.977,0.131,-0.793,0.549,0.244,252.688
124272,140610,10649,-0.072,-0.979,0.134,-0.793,0.549,0.244,252.695
124269,140794,9274,-0.07,-0.983,0.132,-0.61,0.244,0.183,252.698
124269,140622,10667,-0.07,-0.982,0.129,-0.61,0.244,0.183,252.704
124288,140794,9274,-0.07,-0.978,0.126,-0.488,0.427,0.244,252.708
124288,140627,10666,-0.071,-0.974,0.124,-0.488,0.427,0.244,252.714
124278,140794,9274,-0.073,-0.978,0.125,-0.732,0.488,0.244,252.718
124278,140593,10668,-0.073,-0.978,0.129,-0.732,0.488,0.244,252.724
124285,140794,9274,-0.071,-0.978,0.127,-0.732,0.122,0.366,252.728
124285,140605,10665,-0.07,-0.977,0.127,-0.732,0.122,0.366,252.734
124279,140794,9274,-0.07,-0.978,0.129,-0.427,-0.061,0.305,252.738
124279,140619,10699,-0.07,-0.976,0.127,-0.427,-0.061,0.305,252.744
124294,140794,9274,-0.074,-0.976,0.127,-0.427,0.244,0.305,252.748
124294,140639,10663,-0.073,-0.976,0.125,-0.427,0.244,0.305,252.754
124300,140794,9274,-0.073,-0.981,0.127,-0.549,0.488,0.366,252.758
124300,140642,10664,-0.072,-0.98,0.131,-0.549,0.488,0.366,252.764
124298,140794,9274,-0.07,-0.979,0.13,-0.61,0.305,0.305,252.768
124298,140604,10666,-0.071,-0.975,0.129,-0.61,0.305,0.305,252.774
124276,140794,9274,-0.07,-0.974,0.129,-0.366,0.549,0.427,252.777
124276,140614,10664,-0.071,-0.976,0.128,-0.366,0.549,0.427,252.784
124274,140794,9274,-0.07,-0.974,0.131,-0.427,0.427,0.549,252.787
124274,140590,10663,-0.073,-0.977,0.133,-0.427,0.427,0.549,252.794
124260,140794,9274,-0.071,-0.979,0.13,-0.671,0.183,0.488,252.797
124260,140616,10668,-0.075,-0.979,0.133,-0.671,0.183,0.488,252.803
124288,140794,9274,-0.072,-0.978,0.129,-0.854,0.305,0.366,252.807
124288,140604,10660,-0.071,-0.978,0.123,-0.854,0.305,0.366,252.813
124294,140794,9274,-0.069,-0.98,0.121,-0.732,0.305,0.427,252.817
124294,140623,10670,-0.069,-0.983,0.118,-0.732,0.305,0.427,252.823
124302,140794,9274,-0.074,-0.982,0.123,-0.061,0.366,0.427,252.827
124302,140601,10673,-0.072,-0.977,0.129,-0.061,0.366,0.427,252.833
124288,140794,9274,-0.072,-0.972,0.124,0.244,0.488,0.305,252.837
124288,140621,10675,-0.072,-0.97,0.126,0.244,0.488,0.305,252.843
124304,140794,9274,-0.073,-0.97,0.127,0.183,0.61,0.427,252.847
124304,140633,10667,-0.073,-0.973,0.128,0.183,0.61,0.427,252.853
124284,140794,9274,-0.074,-0.98,0.125,-0.915,0.61,0.61,252.857
124284,140623,10666,-0.072,-0.985,0.128,-0.915,0.61,0.61,252.863
124288,140794,9274,-0.069,-0.988,0.128,-1.463,0.427,0.732,252.867
124288,140623,10669,-0.069,-0.987,0.125,-1.463,0.427,0.732,252.873
124292,140794,9274,-0.075,-0.982,0.127,-0.793,0.671,0.854,252.876
124292,140616,10664,-0.072,-0.978,0.126,-0.793,0.671,0.854,252.883
124282,140794,9274,-0.072,-0.972,0.123,0.122,0.854,0.854,252.886
124282,140634,10681,-0.075,-0.973,0.123,0.122,0.854,0.854,252.893
124300,140794,9274,-0.075,-0.971,0.128,0.427,0.732,0.732,252.896
124300,140627,10677,-0.076,-0.973,0.133,0.427,0.732,0.732,252.902
124292,140794,9274,-0.075,-0.977,0.132,-0.183,0.671,0.61,252.906
124292,140653,10678,-0.076,-0.98,0.129,-0.183,0.671,0.61,252.912
124309,140794,9274,-0.079,-0.979,0.128,-0.854,0.549,0.61,252.916
124309,140643,10677,-0.075,-0.979,0.124,-0.854,0.549,0.61,252.922
124303,140794,9274,-0.072,-0.978,0.124,-0.793,0.488,0.488,252.926
124303,140645,10677,-0.073,-0.979,0.122,-0.793,0.488,0.488,252.932
124312,140794,9274,-0.072,-0.98,0.124,-0.122,0.488,0.427,252.936
124312,140649,10683,-0.072,-0.978,0.124,-0.122,0.488,0.427,252.942
124296,140794,9274,-0.072,-0.979,0.125,0.061,0.671,0.244,252.946
124296,140626,10684,-0.075,-0.973,0.125,0.061,0.671,0.244,252.952
124315,140794,9274,-0.075,-0.971,0.126,-0.427,0.549,0.305,252.956
124315,140630,10677,-0.07,-0.974,0.126,-0.427,0.549,0.305,252.962
124284,140794,9274,-0.069,-0.976,0.131,-0.732,0.488,0.305,252.966
124284,140638,10675,-0.071,-0.981,0.128,-0.732,0.488,0.305,252.972
124292,140794,9274,-0.074,-0.98,0.129,-0.305,0.61,0.305,252.975
124292,140620,10675,-0.076,-0.981,0.131,-0.305,0.61,0.305,252.982
124293,140794,9274,-0.074,-0.979,0.129,-0.183,0.61,0.427,252.985
124293,140642,10685,-0.074,-0.978,0.132,-0.183,0.61,0.427,252.992
124302,140794,9274,-0.074,-0.979,0.131,0.061,0.488,0.427,252.995
124302,140630,10668,-0.074,-0.976,0.134,0.061,0.488,0.427,253.001
124288,140794,9274,-0.076,-0.975,0.135,0.244,0.488,0.549,253.005
124288,140608,10671,-0.076,-0.972,0.133,0.244,0.488,0.549,253.011
124291,140794,9274,-0.075,-0.973,0.129,-0.183,0.549,0.549,253.015
124291,140639,10664,-0.074,-0.979,0.127,-0.183,0.549,0.549,253.021
124281,140794,9274,-0.076,-0.975,0.126,-0.305,0.305,0.488,253.025
124281,140631,10673,-0.076,-0.979,0.128,-0.305,0.305,0.488,253.031
124288,140794,9274,-0.074,-0.983,0.129,-0.61,0.244,0.366,253.035
124288,140620,10686,-0.076,-0.984,0.126,-0.61,0.244,0.366,253.041
124278,140794,9274,-0.075,-0.983,0.122,-0.732,0.244,0.305,253.045
124278,140619,10665,-0.076,-0.983,0.122,-0.732,0.244,0.305,253.051
124254,140794,9274,-0.073,-0.98,0.12,-0.244,0,0.183,253.055
124254,140613,10672,-0.074,-0.979,0.126,-0.244,0,0.183,253.061
124276,140794,9274,-0.078,-0.976,0.124,0.183,0.244,0.244,253.065
124276,140605,10672,-0.077,-0.974,0.115,0.183,0.244,0.244,253.071
124272,140794,9274,-0.076,-0.976,0.118,-0.427,0.549,0.061,253.075
124272,140643,10682,-0.073,-0.976,0.126,-0.427,0.549,0.061,253.081
124291,140794,9274,-0.072,-0.976,0.125,-0.671,0.122,0.122,253.084
124291,140614,10660,-0.072,-0.981,0.123,-0.671,0.122,0.122,253.091
124262,140794,9274,-0.072,-0.981,0.123,-0.671,0.122,0.122,253.094
124262,140622,10673,-0.072,-0.979,0.122,-0.732,0.244,0.122,253.1
124282,140794,9274,-0.072,-0.979,0.122,-0.732,0.244,0.122,253.104
124282,140641,10667,-0.072,-0.977,0.124,-0.366,0.488,0.122,253.11
124262,140794,9274,-0.072,-0.977,0.124,-0.366,0.488,0.122,253.114
124262,140616,10674,-0.075,-0.979,0.13,0,0.366,0.244,253.12
124249,140794,9274,-0.075,-0.979,0.13,0,0.366,0.244,253.124
124249,140622,10671,-0.068,-0.974,0.135,0.122,0.549,0.427,253.13
124281,140794,9274,-0.068,-0.974,0.135,0.122,0.549,0.427,253.134
124281,140642,10671,-0.071,-0.974,0.133,-0.244,0.488,0.305,253.14
124269,140794,9274,-0.071,-0.974,0.133,-0.244,0.488,0.305,253.144
124269,140629,10665,-0.071,-0.977,0.131,0.122,0.549,0.366,253.15
124285,140794,9274,-0.071,-0.977,0.131,0.122,0.549,0.366,253.154
124285,140622,10688,-0.072,-0.975,0.129,0.183,0.61,0.366,253.16
124286,140794,9274,-0.072,-0.975,0.129,0.183,0.61,0.366,253.164
124286,140636,10680,-0.073,-0.975,0.127,0.183,0.61,0.427,253.17
124271,140794,9274,-0.073,-0.975,0.127,0.183,0.61,0.427,253.173
124271,140613,10683,-0.072,-0.976,0.127,-0.427,0.427,0.488,253.18
124276,140794,9274,-0.072,-0.976,0.127,-0.427,0.427,0.488,253.183
124276,140616,10681,-0.075,-0.979,0.126,-0.427,0.427,0.61,253.19
124261,140794,9274,-0.075,-0.979,0.126,-0.427,0.427,0.61,253.193
124261,140614,10669,-0.075,-0.979,0.126,-0.061,0.488,0.488,253.199
124258,140794,9274,-0.075,-0.979,0.126,-0.061,0.488,0.488,253.203
124258,140617,10669,-0.073,-0.979,0.127,-0.061,0.427,0.366,253.209
124249,140794,9274,-0.073,-0.979,0.127,-0.061,0.427,0.366,253.213
124249,140596,10668,-0.075,-0.978,0.127,-0.427,0.488,0.366,253.219
124272,140794,9274,-0.075,-0.978,0.127,-0.427,0.488,0.366,253.223
124272,140603,10678,-0.076,-0.974,0.123,-0.183,0.488,0.366,253.229
124241,140794,9274,-0.076,-0.974,0.123,-0.183,0.488,0.366,253.233
124241,140621,10666,-0.073,-0.975,0.125,-0.427,0.61,0.488,253.239
124264,140794,9274,-0.073,-0.976,0.127,-0.427,0.61,0.488,253.243
124264,140604,10680,-0.071,-0.979,0.127,-0.732,0.488,0.488,253.249
124232,140794,9274,-0.071,-0.979,0.125,-0.732,0.488,0.488,253.253
124232,140609,10677,-0.069,-0.98,0.124,-0.427,0.427,0.366,253.259
124254,140794,9274,-0.072,-0.982,0.128,-0.427,0.427,0.366,253.263
124254,140605,10668,-0.073,-0.98,0.123,-0.061,0.427,0.427,253.269
124241,140794,9274,-0.073,-0.976,0.127,-0.061,0.427,0.427,253.273
124241,140595,10669,-0.073,-0.976,0.129,-0.183,0.427,0.427,253.279
124223,140794,9274,-0.071,-0.977,0.13,-0.183,0.427,0.427,253.282
124223,140581,10671,-0.076,-0.978,0.131,-0.366,0.366,0.488,253.289
124225,140794,9274,-0.072,-0.976,0.131,-0.366,0.366,0.488,253.292
124225,140582,10658,-0.071,-0.977,0.125,-0.854,0.366,0.549,253.298
124253,140794,9274,-0.072,-0.975,0.124,-0.854,0.366,0.549,253.302
124253,140586,10657,-0.072,-0.976,0.129,-0.732,0.305,0.488,253.308
124256,140794,9274,-0.074,-0.977,0.128,-0.732,0.305,0.488,253.312
124256,140587,10662,-0.075,-0.976,0.127,-0.061,0.366,0.549,253.318
124293,140794,9274,-0.076,-0.975,0.125,-0.061,0.366,0.549,253.322
124293,140598,10680,-0.076,-0.974,0.131,0.061,0.366,0.427,253.328
124281,140794,9274,-0.074,-0.974,0.132,0.061,0.366,0.427,253.332
124281,140579,10685,-0.075,-0.974,0.132,-0.366,0.366,0.427,253.338
124266,140794,9274,-0.075,-0.976,0.129,-0.366,0.366,0.427,253.342
124266,140610,10674,-0.076,-0.978,0.125,-0.61,0.366,0.488,253.348
124300,140794,9274,-0.076,-0.981,0.125,-0.61,0.366,0.488,253.352
124300,140598,10670,-0.072,-0.981,0.129,-0.427,0.244,0.427,253.358
124284,140794,9274,-0.073,-0.98,0.131,-0.427,0.244,0.427,253.362
124284,140608,10669,-0.076,-0.978,0.13,-0.244,0.183,0.366,253.368
124278,140794,9274,-0.073,-0.978,0.13,-0.244,0.183,0.366,253.372
124278,140617,10663,-0.071,-0.978,0.13,-0.183,0.305,0.244,253.378
124279,140794,9274,-0.072,-0.975,0.123,-0.183,0.305,0.244,253.381
124279,140647,10668,-0.073,-0.975,0.121,-0.244,0.305,0.305,253.388
124279,140794,9274,-0.074,-0.98,0.126,-0.244,0.305,0.305,253.391
124279,140629,10667,-0.071,-0.982,0.126,-0.183,0.305,0.366,253.398
124269,140794,9274,-0.072,-0.979,0.122,-0.183,0.305,0.366,253.401
124269,140640,10672,-0.073,-0.977,0.123,-0.183,0.366,0.366,253.407
124286,140794,9274,-0.074,-0.972,0.126,-0.183,0.366,0.366,253.411
124286,140629,10675,-0.072,-0.972,0.125,0.061,0.427,0.427,253.417
124281,140794,9274,-0.073,-0.972,0.129,0.061,0.427,0.427,253.421
124281,140637,10699,-0.072,-0.973,0.127,0.305,0.488,0.427,253.427
124301,140794,9274,-0.075,-0.975,0.128,0.305,0.488,0.427,253.431
124301,140636,10674,-0.077,-0.976,0.132,0.183,0.427,0.366,253.437
124303,140794,9274,-0.074,-0.981,0.128,0.183,0.427,0.366,253.441
124303,140639,10680,-0.076,-0.982,0.127,-0.427,0.427,0.427,253.447
124292,140794,9274,-0.077,-0.983,0.126,-0.427,0.427,0.427,253.451
124292,140661,10684,-0.074,-0.985,0.129,-0.549,0.427,0.305,253.457
124308,140794,9274,-0.076,-0.985,0.125,-0.549,0.427,0.305,253.461
124308,140620,10676,-0.076,-0.984,0.128,-0.122,0.366,0.244,253.467
124301,140794,9274,-0.076,-0.979,0.129,-0.122,0.366,0.244,253.471
124301,140653,10687,-0.074,-0.977,0.129,0.427,0.366,0.244,253.477
124314,140794,9274,-0.078,-0.974,0.13,0.427,0.366,0.244,253.48
124314,140642,10691,-0.074,-0.969,0.128,0.488,0.366,0.122,253.487
124310,140794,9274,-0.076,-0.969,0.123,0.488,0.366,0.122,253.49
124310,140644,10680,-0.078,-0.972,0.125,-0.366,0.427,0.061,253.496
124310,140794,9274,-0.077,-0.975,0.124,-0.366,0.427,0.061,253.5
124310,140643,10669,-0.075,-0.979,0.121,-0.732,0.427,0.061,253.506
124307,140794,9274,-0.076,-0.984,0.126,-0.732,0.427,0.061,253.51
124307,140641,10686,-0.074,-0.983,0.132,-0.305,0.305,0,253.516
124320,140794,9274,-0.073,-0.981,0.129,-0.305,0.305,0,253.52
124320,140623,10661,-0.071,-0.976,0.133,0.427,0.244,-0.061,253.526
124307,140794,9274,-0.073,-0.975,0.131,0.427,0.244,-0.061,253.53
124307,140639,10692,-0.072,-0.974,0.129,0.732,0.488,-0.061,253.536
124307,140794,9274,-0.074,-0.973,0.132,0.732,0.488,-0.061,253.54
124307,140642,10684,-0.069,-0.977,0.132,0.427,0.427,-0.061,253.546
124304,140794,9274,-0.074,-0.98,0.131,0.427,0.427,-0.061,253.55
124304,140628,10675,-0.072,-0.979,0.128,0.305,0.244,0,253.556
124310,140794,9274,-0.066,-0.98,0.127,0.305,0.244,0,253.56
124310,140633,10683,-0.068,-0.977,0.126,0.061,0.305,0.061,253.566
124311,140794,9274,-0.069,-0.978,0.127,0.061,0.305,0.061,253.57
124311,140622,10669,-0.071,-0.977,0.121,-0.183,0.427,0.183,253.576
124310,140794,9274,-0.07,-0.978,0.119,-0.183,0.427,0.183,253.579
124310,140654,10687,-0.072,-0.985,0.121,-0.122,0.427,0.244,253.586
124317,140794,9274,-0.072,-0.985,0.125,-0.122,0.427,0.244,253.589
124317,140604,10694,-0.07,-0.98,0.128,-0.427,0.244,0.183,253.596
124344,140794,9274,-0.068,-0.98,0.129,-0.427,0.244,0.183,253.599
124344,140642,10669,-0.066,-0.973,0.127,-0.366,0.305,0.305,253.605
124307,140794,9274,-0.068,-0.968,0.132,-0.366,0.305,0.305,253.609
124307,140626,10695,-0.069,-0.971,0.131,0.183,0.305,0.549,253.615
124307,140794,9274,-0.072,-0.973,0.129,0.183,0.305,0.549,253.619
124307,140645,10687,-0.071,-0.974,0.127,0,0.427,0.427,253.625
124338,140794,9274,-0.072,-0.976,0.125,0,0.427,0.427,253.629
124338,140647,10693,-0.073,-0.982,0.126,-0.549,0.366,0.427,253.635
124332,140794,9274,-0.074,-0.985,0.124,-0.549,0.366,0.427,253.639
124332,140654,10682,-0.073,-0.986,0.127,-0.488,0.244,0.549,253.645
124332,140794,9274,-0.072,-0.979,0.128,-0.488,0.244,0.549,253.649
124332,140660,10689,-0.072,-0.976,0.126,0,0.305,0.549,253.655
124356,140794,9274,-0.074,-0.974,0.121,0,0.305,0.549,253.659
124356,140650,10690,-0.073,-0.972,0.126,0.427,0.61,0.61,253.665
124326,140794,9274,-0.075,-0.975,0.126,0.427,0.61,0.61,253.669
124326,140659,10679,-0.072,-0.979,0.124,0.061,0.61,0.488,253.675
124339,140794,9274,-0.072,-0.979,0.124,0.061,0.61,0.488,253.678
124339,140681,10669,-0.074,-0.986,0.126,-0.366,0.549,0.366,253.685
124344,140794,9274,-0.074,-0.986,0.126,-0.366,0.549,0.366,253.688
124344,140671,10682,-0.074,-0.976,0.126,-0.183,0.732,0.366,253.694
124336,140794,9274,-0.074,-0.976,0.126,-0.183,0.732,0.366,253.698
124336,140664,10683,-0.074,-0.976,0.125,0.244,0.732,0.366,253.704
124339,140794,9274,-0.074,-0.976,0.125,0.244,0.732,0.366,253.708
124339,140677,10689,-0.075,-0.98,0.124,0.427,0.488,0.305,253.714
124313,140794,9274,-0.075,-0.98,0.124,0.427,0.488,0.305,253.718
124313,140676,10681,-0.072,-0.978,0.135,0.305,0.427,0.244,253.724
124325,140794,9274,-0.072,-0.978,0.135,0.305,0.427,0.244,253.728
124325,140657,10678,-0.073,-0.974,0.128,-0.061,0.488,0.305,253.734
124313,140794,9274,-0.073,-0.974,0.128,-0.061,0.488,0.305,253.738
124313,140661,10685,-0.071,-0.979,0.128,-0.122,0.305,0.366,253.744
124334,140794,9274,-0.071,-0.979,0.128,-0.122,0.305,0.366,253.748
124334,140657,10674,-0.072,-0.976,0.126,-0.305,0.366,0.366,253.754
124328,140794,9274,-0.072,-0.976,0.126,-0.305,0.366,0.366,253.758
124328,140633,10677,-0.068,-0.977,0.132,-0.427,0.305,0.366,253.764
124324,140794,9274,-0.068,-0.977,0.132,-0.427,0.305,0.366,253.768
124324,140619,10672,-0.072,-0.972,0.134,-0.61,0,0.427,253.774
124318,140794,9274,-0.072,-0.972,0.134,-0.61,0,0.427,253.777
124318,140666,10674,-0.072,-0.978,0.125,-0.122,0.061,0.427,253.784
124368,140794,9274,-0.072,-0.978,0.125,-0.122,0.061,0.427,253.787
124368,140665,10680,-0.073,-0.982,0.126,0.061,0.183,0.427,253.794
124330,140794,9274,-0.073,-0.982,0.126,0.061,0.183,0.427,253.797
124330,140663,10698,-0.074,-0.975,0.13,-0.183,0.122,0.366,253.803
124338,140794,9274,-0.074,-0.975,0.13,-0.183,0.122,0.366,253.807
124338,140673,10697,-0.074,-0.977,0.132,-0.244,0.061,0.244,253.813
124351,140794,9274,-0.074,-0.977,0.132,-0.244,0.061,0.244,253.817
124351,140653,10684,-0.076,-0.979,0.132,-0.244,0.061,0.244,253.823
124336,140794,9274,-0.078,-0.98,0.133,-0.122,0.183,0.244,253.827
124336,140673,10693,-0.077,-0.979,0.125,-0.122,0.183,0.244,253.833
124350,140794,9274,-0.075,-0.978,0.126,0,0.183,0.183,253.837
124350,140676,10681,-0.071,-0.977,0.124,0,0.183,0.183,253.843
124329,140794,9274,-0.073,-0.973,0.125,0.244,0.183,0.122,253.847
124329,140653,10691,-0.074,-0.976,0.128,0.244,0.183,0.122,253.853
124341,140794,9274,-0.073,-0.978,0.125,-0.061,0.305,0.183,253.857
124341,140673,10694,-0.077,-0.978,0.125,-0.061,0.305,0.183,253.863
124361,140794,9274,-0.073,-0.978,0.127,-0.366,0.061,0.122,253.867
124361,140658,10680,-0.072,-0.981,0.127,-0.366,0.061,0.122,253.873
124332,140794,9274,-0.071,-0.98,0.124,-0.122,0,0.061,253.876
124332,140675,10698,-0.07,-0.98,0.125,-0.122,0,0.061,253.883
124343,140794,9274,-0.07,-0.976,0.121,0.671,0.183,0,253.886
124343,140676,10671,-0.07,-0.975,0.121,0.671,0.183,0,253.892
124334,140794,9274,-0.073,-0.98,0.129,0.671,0.488,0.061,253.896
124334,140691,10696,-0.074,-0.982,0.133,0.671,0.488,0.061,253.902
124362,140794,9274,-0.074,-0.976,0.131,-0.183,0.366,0.061,253.906
124362,140665,10687,-0.07,-0.974,0.131,-0.183,0.366,0.061,253.912
124351,140794,9274,-0.067,-0.975,0.13,-0.976,0.122,0.183,253.916
124351,140680,10683,-0.067,-0.981,0.128,-0.976,0.122,0.183,253.922
124355,140794,9274,-0.068,-0.984,0.13,-0.488,0.305,0.183,253.926
124355,140672,10684,-0.071,-0.981,0.127,-0.488,0.305,0.183,253.932
124351,140794,9274,-0.071,-0.976,0.128,0.061,0.488,0.305,253.936
124351,140684,10687,-0.069,-0.972,0.131,0.061,0.488,0.305,253.942
124352,140794,9274,-0.072,-0.97,0.128,0.366,0.488,0.305,253.946
124352,140684,10690,-0.071,-0.971,0.128,0.366,0.488,0.305,253.952
124333,140794,9274,-0.068,-0.976,0.13,0.305,0.488,0.488,253.956
124333,140685,10693,-0.07,-0.977,0.133,0.305,0.488,0.488,253.962
124366,140794,9274,-0.071,-0.976,0.129,-0.244,0.488,0.488,253.965
124366,140675,10690,-0.069,-0.98,0.126,-0.244,0.488,0.488,253.972
124337,140794,9274,-0.071,-0.981,0.128,-0.122,0.427,0.488,253.975
124337,140658,10694,-0.072,-0.979,0.132,-0.122,0.427,0.488,253.982
124333,140794,9274,-0.07,-0.979,0.13,0.183,0.488,0.427,253.985
124333,140686,10685,-0.074,-0.978,0.132,0.183,0.488,0.427,253.992
124322,140794,9274,-0.072,-0.979,0.129,0,0.549,0.427,253.995
124322,140672,10689,-0.072,-0.982,0.133,0,0.549,0.427,254.001
124312,140794,9274,-0.075,-0.979,0.13,-0.244,0.366,0.427,254.005
124312,140652,10691,-0.074,-0.977,0.126,-0.244,0.366,0.427,254.011
124301,140794,9274,-0.074,-0.98,0.127,-0.305,0.305,0.366,254.015
124301,140652,10681,-0.072,-0.977,0.13,-0.305,0.305,0.366,254.021
124305,140794,9274,-0.076,-0.977,0.126,0,0.305,0.366,254.025
124305,140638,10684,-0.074,-0.976,0.128,0,0.305,0.366,254.031
124318,140794,9274,-0.07,-0.975,0.126,-0.305,0.366,0.366,254.035
124318,140645,10673,-0.073,-0.976,0.127,-0.305,0.366,0.366,254.041
124290,140794,9274,-0.068,-0.978,0.131,-0.122,0.366,0.427,254.045
124290,140637,10675,-0.07,-0.982,0.126,-0.122,0.366,0.427,254.051
124298,140794,9274,-0.071,-0.979,0.123,-0.122,0.183,0.427,254.055
124298,140632,10682,-0.069,-0.98,0.131,-0.122,0.183,0.427,254.061
124314,140794,9274,-0.07,-0.98,0.132,0.061,0.366,0.488,254.065
124314,140632,10685,-0.072,-0.976,0.13,0.061,0.366,0.488,254.071
124307,140794,9274,-0.072,-0.977,0.133,0.244,0.61,0.488,254.074
124307,140655,10699,-0.073,-0.979,0.133,0.244,0.61,0.488,254.081
124317,140794,9274,-0.074,-0.98,0.134,0,0.427,0.488,254.084
124317,140633,10690,-0.075,-0.977,0.125,0,0.427,0.488,254.09
124324,140794,9274,-0.07,-0.98,0.125,-0.244,0.244,0.488,254.094
124324,140651,10682,-0.071,-0.985,0.129,-0.244,0.244,0.488,254.1
124320,140794,9274,-0.072,-0.978,0.131,0.244,0.427,0.305,254.104
124320,140627,10697,-0.074,-0.974,0.131,0.244,0.427,0.305,254.11
124320,140794,9274,-0.074,-0.975,0.131,0.061,0.488,0.366,254.114
124320,140640,10691,-0.073,-0.971,0.136,0.061,0.488,0.366,254.12
124330,140794,9274,-0.072,-0.969,0.135,0.122,0.183,0.549,254.124
124330,140646,10675,-0.07,-0.968,0.134,0.122,0.183,0.549,254.13
124314,140794,9274,-0.076,-0.974,0.13,-0.427,0.244,0.488,254.134
124314,140650,10689,-0.078,-0.98,0.129,-0.427,0.244,0.488,254.14
124316,140794,9274,-0.077,-0.979,0.127,-0.854,0.427,0.366,254.144
124316,140629,10679,-0.076,-0.983,0.129,-0.854,0.427,0.366,254.15
124360,140794,9274,-0.073,-0.989,0.132,-1.28,0.061,0.183,254.154
124360,140666,10683,-0.071,-0.986,0.126,-1.28,0.061,0.183,254.16
124339,140794,9274,-0.072,-0.983,0.123,-0.366,0.061,0.305,254.163
124339,140651,10683,-0.073,-0.974,0.124,-0.366,0.061,0.305,254.17
124321,140794,9274,-0.074,-0.975,0.132,0.061,0.549,0.244,254.173
124321,140646,10675,-0.075,-0.972,0.132,0.061,0.549,0.244,254.18
124309,140794,9274,-0.071,-0.973,0.128,-0.061,0.366,0.366,254.183
124309,140637,10682,-0.075,-0.976,0.131,-0.061,0.366,0.366,254.19
124320,140794,9274,-0.072,-0.976,0.127,-0.488,0.305,0.244,254.193
124320,140634,10689,-0.073,-0.976,0.126,-0.488,0.305,0.244,254.199
124338,140794,9274,-0.071,-0.975,0.123,-0.732,0.366,0.183,254.203
124338,140641,10683,-0.071,-0.979,0.127,-0.732,0.366,0.183,254.209
124331,140794,9274,-0.075,-0.977,0.135,-0.183,0.122,0.366,254.213
124331,140646,10694,-0.074,-0.976,0.133,-0.183,0.122,0.366,254.219
124324,140794,9274,-0.074,-0.976,0.13,-0.061,0.183,0.366,254.223
124324,140643,10688,-0.071,-0.975,0.121,-0.061,0.183,0.366,254.229
124323,140794,9274,-0.071,-0.977,0.123,-0.183,0.244,0.244,254.233
124323,140635,10672,-0.072,-0.981,0.131,-0.183,0.244,0.244,254.239
124313,140794,9274,-0.072,-0.98,0.129,-0.122,0.183,0.305,254.243
124313,140653,10696,-0.073,-0.977,0.125,-0.122,0.183,0.305,254.249
124343,140794,9274,-0.073,-0.978,0.128,-0.244,0.305,0.305,254.253
124343,140658,10692,-0.071,-0.981,0.132,-0.244,0.305,0.305,254.259
124335,140794,9274,-0.071,-0.976,0.133,-0.366,0.488,0.183,254.263
124335,140628,10694,-0.073,-0.977,0.129,-0.366,0.488,0.183,254.269
124339,140794,9274,-0.073,-0.977,0.129,-0.366,0.488,0.183,254.272
124339,140658,10672,-0.073,-0.982,0.126,-0.793,0.244,0.244,254.279
124332,140794,9274,-0.073,-0.982,0.126,-0.793,0.244,0.244,254.282
124332,140666,10689,-0.072,-0.979,0.128,-0.793,0.061,0.305,254.288
124328,140794,9274,-0.072,-0.979,0.128,-0.793,0.061,0.305,254.292
124328,140659,10672,-0.074,-0.972,0.131,-0.549,0.183,0.244,254.298
124335,140794,9274,-0.074,-0.972,0.131,-0.549,0.183,0.244,254.302
124335,140673,10686,-0.073,-0.969,0.134,-0.244,0.244,0.305,254.308
124351,140794,9274,-0.073,-0.969,0.134,-0.244,0.244,0.305,254.312
124351,140685,10678,-0.073,-0.975,0.129,-0.427,0.244,0.305,254.318
124357,140794,9274,-0.073,-0.975,0.129,-0.427,0.244,0.305,254.322
124357,140702,10692,-0.07,-0.981,0.12,-0.671,0.305,0.183,254.328
124357,140794,9274,-0.07,-0.981,0.12,-0.671,0.305,0.183,254.332
124357,140686,10693,-0.073,-0.987,0.146,-0.671,0.244,0.183,254.338
124360,140794,9274,-0.073,-0.987,0.146,-0.671,0.244,0.183,254.342
124360,140679,10698,-0.074,-0.972,0.122,-0.427,0.244,0.183,254.348
124350,140794,9274,-0.074,-0.972,0.122,-0.427,0.244,0.183,254.352
124350,140701,10682,-0.067,-0.973,0.133,0.122,0.244,0.305,254.358
124344,140794,9274,-0.067,-0.973,0.133,0.122,0.244,0.305,254.361
124344,140681,10687,-0.07,-0.977,0.124,0.305,0.305,0,254.368
124357,140794,9274,-0.07,-0.977,0.124,0.305,0.305,0,254.371
124357,140693,10692,-0.07,-0.985,0.128,-1.159,0.488,0.183,254.378
124336,140794,9274,-0.07,-0.985,0.128,-1.159,0.488,0.183,254.381
124336,140678,10693,-0.07,-0.979,0.122,-0.488,0.061,0.427,254.388
124308,140794,9274,-0.07,-0.979,0.122,-0.488,0.061,0.427,254.391
124308,140677,10696,-0.069,-0.975,0.124,-0.366,0.305,0.244,254.397
124313,140794,9274,-0.069,-0.975,0.124,-0.366,0.305,0.244,254.401
124313,140636,10667,-0.07,-0.973,0.127,0.061,0.244,0.427,254.407
124312,140794,9274,-0.07,-0.973,0.127,0.061,0.244,0.427,254.411
124312,140658,10679,-0.07,-0.974,0.128,0.244,0.061,0.427,254.417
124311,140794,9274,-0.071,-0.974,0.127,0.244,0.061,0.427,254.421
124311,140671,10687,-0.069,-0.973,0.124,0.122,0.244,0.488,254.427
124340,140794,9274,-0.07,-0.976,0.13,0.122,0.244,0.488,254.431
124340,140657,10691,-0.072,-0.973,0.133,-0.183,0.244,0.61,254.437
124316,140794,9274,-0.072,-0.979,0.131,-0.183,0.244,0.61,254.441
124316,140663,10686,-0.07,-0.978,0.125,-0.366,0.122,0.732,254.447
124316,140794,9274,-0.067,-0.978,0.125,-0.366,0.122,0.732,254.451
124316,140657,10680,-0.07,-0.982,0.125,-0.671,0.366,0.671,254.457
124328,140794,9274,-0.076,-0.987,0.128,-0.671,0.366,0.671,254.461
124328,140657,10675,-0.073,-0.982,0.13,-0.488,0.488,0.732,254.467
124337,140794,9274,-0.07,-0.977,0.126,-0.488,0.488,0.732,254.47
124337,140649,10691,-0.078,-0.976,0.129,-0.244,0.61,0.732,254.477
124321,140794,9274,-0.076,-0.974,0.125,-0.244,0.61,0.732,254.48
124321,140654,10694,-0.074,-0.973,0.125,-0.122,0.793,0.732,254.486
124343,140794,9274,-0.073,-0.98,0.127,-0.122,0.793,0.732,254.49
124343,140661,10688,-0.075,-0.981,0.13,0.122,0.793,0.61,254.496
124317,140794,9274,-0.074,-0.981,0.125,0.122,0.793,0.61,254.5
124317,140657,10689,-0.074,-0.98,0.125,0.183,0.793,0.366,254.506
124338,140794,9274,-0.073,-0.98,0.128,0.183,0.793,0.366,254.51
124338,140662,10686,-0.075,-0.975,0.121,-0.122,0.61,0.244,254.516
124315,140794,9274,-0.073,-0.977,0.126,-0.122,0.61,0.244,254.52
124315,140654,10684,-0.071,-0.977,0.133,0.061,0.427,0.305,254.526
124337,140794,9274,-0.072,-0.975,0.134,0.061,0.427,0.305,254.53
124337,140682,10688,-0.074,-0.974,0.13,-0.244,0.427,0.122,254.536
124324,140794,9274,-0.07,-0.973,0.13,-0.244,0.427,0.122,254.54
124324,140662,10689,-0.071,-0.971,0.132,-0.854,0.427,0.122,254.546
124346,140794,9274,-0.069,-0.975,0.13,-0.854,0.427,0.122,254.55
124346,140678,10695,-0.067,-0.977,0.13,-0.732,0.183,0.305,254.556
124332,140794,9274,-0.07,-0.979,0.132,-0.732,0.183,0.305,254.56
124332,140667,10690,-0.07,-0.981,0.129,-0.305,0.183,0.305,254.566
124327,140794,9274,-0.072,-0.981,0.129,-0.305,0.183,0.305,254.569
124327,140645,10674,-0.072,-0.977,0.131,0.122,0.366,0.305,254.576
124308,140794,9274,-0.07,-0.972,0.129,0.122,0.366,0.305,254.579
124308,140639,10691,-0.07,-0.969,0.135,0.244,0.488,0.305,254.586
124304,140794,9274,-0.075,-0.971,0.13,0.244,0.488,0.305,254.589
124304,140636,10693,-0.076,-0.975,0.131,0.305,0.427,0.305,254.595
124309,140794,9274,-0.074,-0.976,0.132,0.305,0.427,0.305,254.599
124309,140647,10684,-0.073,-0.978,0.13,-0.061,0.244,0.366,254.605
124342,140794,9274,-0.072,-0.979,0.129,-0.061,0.244,0.366,254.609
124342,140684,10693,-0.07,-0.979,0.129,-0.305,0.244,0.244,254.615
124291,140794,9274,-0.074,-0.979,0.129,-0.305,0.244,0.244,254.619
124291,140620,10695,-0.076,-0.979,0.13,-0.122,0.305,0.305,254.625
124303,140794,9274,-0.075,-0.977,0.128,-0.122,0.305,0.305,254.629
124303,140656,10684,-0.072,-0.975,0.127,-0.122,0.305,0.244,254.635
124302,140794,9274,-0.075,-0.975,0.125,-0.122,0.305,0.244,254.639
124302,140613,10682,-0.076,-0.976,0.122,-0.061,0.244,0.244,254.645
124300,140794,9274,-0.074,-0.982,0.127,-0.061,0.244,0.244,254.649
124300,140641,10678,-0.074,-0.98,0.125,0.122,0.183,0.244,254.655
124298,140794,9274,-0.072,-0.98,0.129,0.122,0.183,0.244,254.659
124298,140636,10689,-0.07,-0.975,0.127,-0.244,0.183,0.061,254.665
124305,140794,9274,-0.072,-0.974,0.126,-0.244,0.183,0.061,254.668
124305,140629,10683,-0.075,-0.976,0.126,-0.427,0.183,0,254.675
124301,140794,9274,-0.075,-0.977,0.127,-0.427,0.183,0,254.678
124301,140613,10682,-0.075,-0.976,0.125,-0.366,0.244,0.244,254.684
124289,140794,9274,-0.074,-0.978,0.124,-0.366,0.244,0.244,254.688
124289,140624,10677,-0.071,-0.977,0.127,-0.183,0.183,0.183,254.694
124279,140794,9274,-0.069,-0.977,0.129,-0.183,0.183,0.183,254.698
124279,140625,10675,-0.071,-0.976,0.126,-0.061,0.366,0.122,254.704
124270,140794,9274,-0.074,-0.976,0.126,-0.061,0.366,0.122,254.708
124270,140584,10694,-0.074,-0.978,0.13,-0.427,0.488,0.183,254.714
124285,140794,9274,-0.071,-0.983,0.131,-0.427,0.488,0.183,254.718
124285,140617,10672,-0.073,-0.982,0.136,-0.244,0.305,0.244,254.724
124267,140794,9274,-0.07,-0.976,0.133,-0.244,0.305,0.244,254.728
124267,140606,10695,-0.069,-0.973,0.13,-0.183,0.366,0.305,254.734
124272,140794,9274,-0.069,-0.972,0.131,-0.183,0.366,0.305,254.738
124272,140624,10676,-0.07,-0.978,0.129,0.061,0.488,0.305,254.744
124264,140794,9274,-0.073,-0.98,0.128,0.061,0.488,0.305,254.748
124264,140639,10694,-0.071,-0.979,0.13,0.305,0.549,0.183,254.754
124287,140794,9274,-0.071,-0.978,0.13,0.305,0.549,0.183,254.758
124287,140604,10682,-0.069,-0.977,0.131,0.305,0.549,0.305,254.764
124260,140794,9274,-0.072,-0.973,0.129,0.305,0.549,0.305,254.767
124260,140608,10689,-0.07,-0.974,0.127,0.244,0.488,0.366,254.774
124264,140794,9274,-0.07,-0.976,0.129,0.244,0.488,0.366,254.777
124264,140617,10685,-0.073,-0.978,0.128,0.244,0.427,0.305,254.784
124259,140794,9274,-0.071,-0.979,0.132,0.244,0.427,0.305,254.787
124259,140599,10677,-0.074,-0.976,0.132,0.061,0.366,0.305,254.793
124253,140794,9274,-0.071,-0.973,0.134,0.061,0.366,0.305,254.797
124253,140592,10682,-0.07,-0.975,0.132,0,0.183,0.366,254.803
124249,140794,9274,-0.069,-0.978,0.134,0,0.183,0.366,254.807
124249,140571,10675,-0.073,-0.978,0.129,0.122,0.122,0.427,254.813
124238,140794,9274,-0.073,-0.978,0.13,0.122,0.122,0.427,254.817
124238,140585,10686,-0.073,-0.974,0.127,-0.183,0.244,0.366,254.823
124224,140794,9274,-0.07,-0.978,0.125,-0.183,0.244,0.366,254.827
124224,140562,10677,-0.073,-0.982,0.127,0,0.061,0.427,254.833
124247,140794,9274,-0.07,-0.979,0.124,0,0.061,0.427,254.837
124247,140582,10681,-0.07,-0.978,0.123,-0.244,0.122,0.305,254.843
124226,140794,9274,-0.072,-0.977,0.123,-0.244,0.122,0.305,254.847
124226,140566,10676,-0.071,-0.979,0.128,-0.183,0.366,0.305,254.853
124237,140794,9274,-0.071,-0.979,0.128,-0.183,0.366,0.305,254.857
124237,140587,10678,-0.07,-0.975,0.129,0.061,0.366,0.366,254.863
124214,140794,9274,-0.07,-0.975,0.129,0.061,0.366,0.366,254.866
124214,140548,10665,-0.07,-0.976,0.131,0.122,0.305,0.305,254.873
124232,140794,9274,-0.07,-0.976,0.131,0.122,0.305,0.305,254.876
124232,140553,10665,-0.072,-0.974,0.128,0,0.427,0.427,254.883
124228,140794,9274,-0.072,-0.974,0.128,0,0.427,0.427,254.886
124228,140558,10682,-0.073,-0.977,0.132,-0.183,0.488,0.427,254.892
124257,140794,9274,-0.073,-0.977,0.132,-0.183,0.488,0.427,254.896
124257,140597,10664,-0.07,-0.977,0.129,-0.305,0.61,0.305,254.902
124243,140794,9274,-0.07,-0.977,0.129,-0.305,0.61,0.305,254.906
124243,140578,10677,-0.071,-0.973,0.131,-0.488,0.671,0.244,254.912
124240,140794,9274,-0.071,-0.973,0.131,-0.488,0.671,0.244,254.916
124240,140580,10682,-0.074,-0.975,0.128,-0.671,0.61,0.366,254.922
124247,140794,9274,-0.074,-0.975,0.128,-0.671,0.61,0.366,254.926
124247,140595,10681,-0.073,-0.98,0.13,-0.61,0.488,0.305,254.932
124263,140794,9274,-0.073,-0.98,0.13,-0.61,0.488,0.305,254.936
124263,140589,10681,-0.071,-0.979,0.134,-0.122,0.427,0.427,254.942
124260,140794,9274,-0.071,-0.979,0.134,-0.122,0.427,0.427,254.946
124260,140590,10681,-0.072,-0.974,0.134,0.244,0.427,0.488,254.952
124244,140794,9274,-0.072,-0.974,0.134,0.244,0.427,0.488,254.956
124244,140590,10687,-0.073,-0.973,0.137,0.061,0.427,0.488,254.962
124273,140794,9274,-0.073,-0.973,0.137,0.061,0.427,0.488,254.965
124273,140588,10670,-0.071,-0.975,0.132,-0.732,0.183,0.488,254.972
124259,140794,9274,-0.071,-0.975,0.132,-0.732,0.183,0.488,254.975
124259,140592,10672,-0.074,-0.981,0.132,-0.976,0.244,0.549,254.982
124263,140794,9274,-0.074,-0.981,0.132,-0.976,0.244,0.549,254.985
124263,140613,10685,-0.073,-0.98,0.124,-0.427,0.183,0.61,254.991
124263,140794,9274,-0.073,-0.98,0.124,-0.427,0.183,0.61,254.995
124263,140579,10689,-0.072,-0.977,0.127,0.305,0.183,0.549,255.001
124250,140794,9274,-0.072,-0.977,0.127,0.305,0.183,0.549,255.005
124250,140575,10692,-0.075,-0.973,0.127,0.305,0.183,0.549,255.011
124247,140794,9274,-0.073,-0.971,0.126,0.366,0.244,0.488,255.015
124247,140601,10692,-0.075,-0.974,0.129,0.366,0.244,0.488,255.021
124265,140794,9274,-0.075,-0.978,0.131,0,0.244,0.488,255.025
124265,140610,10664,-0.073,-0.978,0.127,0,0.244,0.488,255.031
124271,140794,9274,-0.072,-0.978,0.123,-0.366,0.122,0.427,255.035
124271,140613,10683,-0.073,-0.977,0.12,-0.366,0.122,0.427,255.041
124293,140794,9274,-0.072,-0.98,0.124,-0.244,0.305,0.305,255.045
124293,140588,10685,-0.075,-0.982,0.126,-0.244,0.305,0.305,255.051
124290,140794,9274,-0.074,-0.978,0.12,0.122,0.549,0.183,255.055
124290,140591,10677,-0.071,-0.978,0.128,0.122,0.549,0.183,255.061
