124271,140607,10732,-0.077,-0.978,0.132,0.244,0.61,0.122,234.032
124286,140794,9274,-0.079,-0.979,0.135,0.244,0.549,0,234.035
124286,140604,10722,-0.078,-0.977,0.135,0.244,0.549,0,234.042
124256,140794,9274,-0.076,-0.971,0.132,-0.122,0.427,0.122,234.045
124256,140600,10732,-0.075,-0.974,0.134,-0.122,0.427,0.122,234.052
124282,140794,9274,-0.078,-0.972,0.138,-0.122,0.366,0.183,234.055
124282,140573,10738,-0.078,-0.973,0.136,-0.122,0.366,0.183,234.061
124295,140794,9274,-0.074,-0.975,0.138,-0.244,0.305,0.183,234.065
124295,140594,10740,-0.075,-0.972,0.139,-0.244,0.305,0.183,234.071
124275,140794,9274,-0.076,-0.974,0.139,-0.488,0.122,0.061,234.075
124275,140565,10719,-0.075,-0.976,0.136,-0.488,0.122,0.061,234.081
124283,140794,9274,-0.076,-0.982,0.136,-0.854,0.122,0.122,234.085
124283,140612,10738,-0.076,-0.98,0.135,-0.854,0.122,0.122,234.091
124292,140794,9274,-0.074,-0.979,0.126,-0.976,0.122,0.305,234.095
124292,140636,10732,-0.073,-0.981,0.128,-0.976,0.122,0.305,234.101
124308,140794,9274,-0.073,-0.981,0.128,-0.976,0.122,0.305,234.105
124308,140637,10738,-0.074,-0.974,0.131,0.183,-0.061,0.305,234.111
124313,140794,9274,-0.074,-0.974,0.131,0.183,-0.061,0.305,234.115
124313,140627,10741,-0.073,-0.973,0.127,0.305,0.244,0.427,234.121
124329,140794,9274,-0.073,-0.973,0.127,0.305,0.244,0.427,234.125
124329,140645,10731,-0.076,-0.977,0.133,0.183,0.305,0.488,234.131
124303,140794,9274,-0.076,-0.977,0.133,0.183,0.305,0.488,234.135
124303,140618,10735,-0.078,-0.979,0.131,0.061,0.244,0.366,234.141
124293,140794,9274,-0.078,-0.979,0.131,0.061,0.244,0.366,234.144
124293,140627,10758,-0.074,-0.983,0.14,-0.854,0.549,0.366,234.151
124327,140794,9274,-0.074,-0.983,0.14,-0.854,0.549,0.366,234.154
124327,140618,10726,-0.076,-0.978,0.139,-0.793,0.549,0.366,234.16
124300,140794,9274,-0.076,-0.978,0.139,-0.793,0.549,0.366,234.164
124300,140620,10733,-0.078,-0.972,0.137,0.366,0.61,0.427,234.17
124332,140794,9274,-0.078,-0.972,0.137,0.366,0.61,0.427,234.174
124332,140648,10731,-0.078,-0.964,0.136,0.793,0.671,0.366,234.18
124338,140794,9274,-0.078,-0.964,0.136,0.793,0.671,0.366,234.184
124338,140634,10744,-0.076,-0.976,0.134,-0.976,0.549,0.366,234.19
124348,140794,9274,-0.076,-0.976,0.134,-0.976,0.549,0.366,234.194
124348,140659,10734,-0.078,-0.984,0.131,-2.012,0.183,0.488,234.2
124353,140794,9274,-0.078,-0.984,0.131,-2.012,0.183,0.488,234.204
124353,140634,10744,-0.075,-0.983,0.132,-1.098,0.244,0.61,234.21
124350,140794,9274,-0.075,-0.983,0.132,-1.098,0.244,0.61,234.214
124350,140635,10730,-0.076,-0.975,0.13,0.427,0.427,0.549,234.22
124336,140794,9274,-0.076,-0.975,0.13,0.427,0.427,0.549,234.224
124336,140640,10738,-0.076,-0.969,0.136,0.976,0.427,0.549,234.23
124341,140794,9274,-0.076,-0.969,0.136,0.976,0.427,0.549,234.233
124341,140648,10721,-0.076,-0.969,0.137,0.793,0.366,0.549,234.24
124341,140794,9274,-0.076,-0.969,0.137,0.793,0.366,0.549,234.243
124341,140637,10737,-0.074,-0.977,0.132,-0.244,0.244,0.61,234.25
124335,140794,9274,-0.074,-0.977,0.132,-0.244,0.244,0.61,234.253
124335,140665,10742,-0.076,-0.981,0.134,-1.28,0.305,0.732,234.259
124345,140794,9274,-0.076,-0.98,0.129,-1.28,0.305,0.732,234.263
124345,140652,10738,-0.076,-0.982,0.126,-1.402,0.244,0.671,234.269
124345,140794,9274,-0.076,-0.981,0.129,-1.402,0.244,0.671,234.273
124345,140640,10725,-0.079,-0.982,0.13,-0.671,0.244,0.671,234.279
124338,140794,9274,-0.079,-0.978,0.131,-0.671,0.244,0.671,234.283
124338,140615,10735,-0.078,-0.975,0.131,-0.183,0.305,0.671,234.289
124327,140794,9274,-0.078,-0.974,0.127,-0.183,0.305,0.671,234.293
124327,140646,10743,-0.079,-0.974,0.126,-0.183,0.427,0.549,234.299
124326,140794,9274,-0.081,-0.978,0.13,-0.183,0.427,0.549,234.303
124326,140610,10730,-0.08,-0.981,0.133,-0.122,0.427,0.427,234.309
124342,140794,9274,-0.079,-0.978,0.133,-0.122,0.427,0.427,234.313
124342,140630,10729,-0.077,-0.976,0.132,-0.183,0.244,0.366,234.319
124304,140794,9274,-0.077,-0.973,0.129,-0.183,0.244,0.366,234.323
124304,140626,10736,-0.076,-0.973,0.127,-0.122,0.183,0.305,234.329
124309,140794,9274,-0.076,-0.977,0.129,-0.122,0.183,0.305,234.333
124309,140641,10739,-0.075,-0.977,0.13,-0.183,0.305,0.488,234.339
124317,140794,9274,-0.077,-0.978,0.131,-0.183,0.305,0.488,234.342
124317,140625,10724,-0.08,-0.979,0.132,-0.427,0.305,0.488,234.349
124302,140794,9274,-0.078,-0.979,0.13,-0.427,0.305,0.488,234.352
124302,140621,10732,-0.074,-0.976,0.13,-0.671,0.183,0.488,234.358
124315,140794,9274,-0.073,-0.979,0.133,-0.671,0.183,0.488,234.362
124315,140627,10731,-0.077,-0.98,0.136,-0.671,0.244,0.61,234.368
124287,140794,9274,-0.081,-0.981,0.132,-0.671,0.244,0.61,234.372
124287,140635,10751,-0.077,-0.981,0.131,-0.305,0.305,0.671,234.378
124310,140794,9274,-0.076,-0.976,0.134,-0.305,0.305,0.671,234.382
124310,140603,10728,-0.076,-0.975,0.137,-0.244,0.183,0.61,234.388
124312,140794,9274,-0.077,-0.973,0.136,-0.244,0.183,0.61,234.392
124312,140609,10725,-0.077,-0.967,0.132,-0.915,0.244,0.671,234.398
124296,140794,9274,-0.075,-0.967,0.129,-0.915,0.244,0.671,234.402
124296,140644,10733,-0.075,-0.967,0.129,-1.707,0.305,0.732,234.408
124307,140794,9274,-0.077,-0.973,0.131,-1.707,0.305,0.732,234.412
124307,140633,10720,-0.077,-0.983,0.134,-1.524,0.183,0.732,234.418
124307,140794,9274,-0.078,-0.985,0.137,-1.524,0.183,0.732,234.422
124307,140636,10730,-0.079,-0.982,0.137,-0.793,0.244,0.61,234.428
124284,140794,9274,-0.079,-0.978,0.134,-0.793,0.244,0.61,234.431
124284,140614,10727,-0.076,-0.973,0.132,-0.183,0.427,0.549,234.438
124278,140794,9274,-0.08,-0.976,0.133,-0.183,0.427,0.549,234.441
124278,140599,10704,-0.081,-0.973,0.137,0.122,0.671,0.61,234.448
124310,140794,9274,-0.08,-0.975,0.135,0.122,0.671,0.61,234.451
124310,140600,10735,-0.08,-0.976,0.131,0.122,0.61,0.61,234.458
124303,140794,9274,-0.08,-0.975,0.132,0.122,0.61,0.61,234.461
124303,140590,10734,-0.079,-0.973,0.134,-0.061,0.427,0.488,234.467
124302,140794,9274,-0.079,-0.974,0.137,-0.061,0.427,0.488,234.471
124302,140603,10731,-0.08,-0.974,0.134,-0.305,0.549,0.427,234.477
124313,140794,9274,-0.077,-0.975,0.132,-0.305,0.549,0.427,234.481
124313,140624,10739,-0.081,-0.98,0.135,-0.061,0.488,0.488,234.487
124311,140794,9274,-0.084,-0.981,0.133,-0.061,0.488,0.488,234.491
124311,140621,10722,-0.081,-0.979,0.129,-0.488,0.488,0.305,234.497
124298,140794,9274,-0.081,-0.978,0.13,-0.488,0.488,0.305,234.501
124298,140601,10737,-0.078,-0.979,0.133,-0.427,0.549,0.244,234.507
124286,140794,9274,-0.078,-0.978,0.132,-0.427,0.549,0.244,234.511
124286,140594,10725,-0.078,-0.976,0.131,0.244,0.305,0.366,234.517
124299,140794,9274,-0.078,-0.977,0.129,0.244,0.305,0.366,234.521
124299,140590,10722,-0.08,-0.973,0.131,0,0.122,0.305,234.527
124272,140794,9274,-0.077,-0.969,0.13,0,0.122,0.305,234.531
124272,140569,10721,-0.077,-0.978,0.13,-1.585,0.183,0.305,234.537
124290,140794,9274,-0.073,-0.981,0.13,-1.585,0.183,0.305,234.54
124290,140596,10725,-0.076,-0.984,0.125,-2.134,0.061,0.305,234.547
124281,140794,9274,-0.073,-0.983,0.125,-2.134,0.061,0.305,234.55
124281,140590,10733,-0.074,-0.982,0.127,-0.915,0.183,0.366,234.556
124294,140794,9274,-0.075,-0.98,0.129,-0.915,0.183,0.366,234.56
124294,140589,10715,-0.077,-0.975,0.128,0.488,0.549,0.366,234.566
124273,140794,9274,-0.076,-0.972,0.131,0.488,0.549,0.366,234.57
124273,140585,10725,-0.076,-0.972,0.136,0.793,0.732,0.427,234.576
124273,140794,9274,-0.077,-0.968,0.136,0.793,0.732,0.427,234.58
124273,140570,10719,-0.074,-0.966,0.135,0.427,0.61,0.488,234.586
124267,140794,9274,-0.077,-0.971,0.133,0.427,0.61,0.488,234.59
124267,140565,10738,-0.076,-0.974,0.137,-0.061,0.427,0.61,234.596
124251,140794,9274,-0.079,-0.98,0.141,-0.061,0.427,0.61,234.6
124251,140560,10731,-0.081,-0.982,0.139,-0.549,0.549,0.732,234.606
124266,140794,9274,-0.083,-0.983,0.134,-0.549,0.549,0.732,234.61
124266,140569,10719,-0.083,-0.985,0.134,-0.61,0.671,0.671,234.616
124261,140794,9274,-0.083,-0.981,0.131,-0.61,0.671,0.671,234.62
124261,140569,10720,-0.082,-0.978,0.132,-0.244,0.61,0.488,234.626
124264,140794,9274,-0.083,-0.978,0.128,-0.244,0.61,0.488,234.629
124264,140574,10727,-0.085,-0.979,0.13,0.061,0.488,0.366,234.636
124237,140794,9274,-0.082,-0.972,0.134,0.061,0.488,0.366,234.639
124237,140585,10714,-0.082,-0.972,0.13,-0.183,0.427,0.427,234.646
124246,140794,9274,-0.081,-0.972,0.129,-0.183,0.427,0.427,234.649
124246,140568,10722,-0.078,-0.98,0.13,-0.183,0.061,0.366,234.655
124260,140794,9274,-0.079,-0.981,0.13,-0.183,0.061,0.366,234.659
124260,140590,10725,-0.081,-0.982,0.132,-0.244,0.122,0.244,234.665
124226,140794,9274,-0.081,-0.98,0.133,-0.244,0.122,0.244,234.669
124226,140563,10716,-0.078,-0.978,0.13,-0.366,0.122,0.244,234.675
124245,140794,9274,-0.079,-0.975,0.13,-0.366,0.122,0.244,234.679
124245,140579,10714,-0.077,-0.976,0.131,-0.183,0.061,0.305,234.685
124228,140794,9274,-0.078,-0.975,0.131,-0.183,0.061,0.305,234.689
124228,140586,10721,-0.079,-0.976,0.134,-0.183,0.244,0.305,234.695
124230,140794,9274,-0.079,-0.976,0.134,-0.183,0.244,0.305,234.699
124230,140581,10725,-0.08,-0.974,0.132,-0.488,0.183,0.366,234.705
124248,140794,9274,-0.08,-0.974,0.132,-0.488,0.183,0.366,234.709
124248,140546,10710,-0.078,-0.976,0.132,-0.61,0.061,0.244,234.715
124199,140794,9274,-0.078,-0.976,0.132,-0.61,0.061,0.244,234.719
124199,140561,10720,-0.077,-0.975,0.133,-0.549,0.183,0.244,234.725
124216,140538,9274,-0.077,-0.975,0.133,-0.549,0.183,0.244,234.729
124216,140515,10717,-0.076,-0.975,0.13,-0.122,0.305,0.244,234.735
124199,140538,9274,-0.076,-0.975,0.13,-0.122,0.305,0.244,234.738
124199,140515,10721,-0.079,-0.978,0.128,0,0.427,0.183,234.745
124193,140538,9274,-0.079,-0.978,0.128,0,0.427,0.183,234.748
124193,140519,10720,-0.076,-0.978,0.133,0,0.366,0.244,234.754
124186,140538,9274,-0.076,-0.978,0.133,0,0.366,0.244,234.758
124186,140522,10714,-0.078,-0.979,0.133,0.366,0.366,0.244,234.764
124192,140538,9274,-0.078,-0.979,0.133,0.366,0.366,0.244,234.768
124192,140512,10718,-0.078,-0.976,0.133,0.244,0.366,0.244,234.774
124157,140538,9274,-0.078,-0.976,0.133,0.244,0.366,0.244,234.778
124157,140487,10716,-0.078,-0.975,0.13,-0.061,0.366,0.183,234.784
124150,140538,9274,-0.078,-0.975,0.13,-0.061,0.366,0.183,234.788
124150,140474,10699,-0.079,-0.98,0.133,-0.061,0.305,0.244,234.794
124153,140538,9274,-0.079,-0.98,0.133,-0.061,0.305,0.244,234.798
124153,140493,10719,-0.078,-0.975,0.133,-0.366,0.244,0.183,234.804
124165,140538,9274,-0.078,-0.975,0.133,-0.366,0.244,0.183,234.808
124165,140488,10714,-0.076,-0.975,0.133,-0.427,0.305,0.183,234.814
124162,140538,9274,-0.076,-0.975,0.133,-0.427,0.305,0.183,234.818
124162,140489,10731,-0.071,-0.98,0.134,-0.427,0.244,0.183,234.824
124180,140538,9274,-0.071,-0.98,0.134,-0.427,0.244,0.183,234.827
124180,140499,10718,-0.083,-0.976,0.133,-0.976,0.183,0.427,234.834
124177,140538,9274,-0.083,-0.976,0.133,-0.976,0.183,0.427,234.837
124177,140532,10700,-0.074,-0.98,0.124,-0.976,0.183,0.427,234.844
124170,140538,9274,-0.073,-0.978,0.133,-0.549,-0.061,0.305,234.847
124170,140492,10707,-0.075,-0.974,0.135,-0.549,-0.061,0.305,234.853
124149,140538,9274,-0.076,-0.977,0.131,-0.488,0.183,0.366,234.857
124149,140497,10703,-0.077,-0.978,0.131,-0.488,0.183,0.366,234.863
124157,140538,9274,-0.078,-0.976,0.128,-0.488,0.244,0.61,234.867
124157,140486,10710,-0.078,-0.977,0.125,-0.488,0.244,0.61,234.873
124159,140538,9274,-0.076,-0.979,0.128,-0.305,0.183,0.549,234.877
124159,140471,10701,-0.076,-0.976,0.133,-0.305,0.183,0.549,234.883
124149,140538,9274,-0.078,-0.974,0.128,-0.244,0.366,0.549,234.887
124149,140496,10708,-0.079,-0.976,0.127,-0.244,0.366,0.549,234.893
124172,140538,9274,-0.076,-0.977,0.129,-0.183,0.366,0.549,234.897
124172,140511,10705,-0.077,-0.977,0.133,-0.183,0.366,0.549,234.903
124163,140538,9274,-0.078,-0.979,0.133,-0.244,0.366,0.549,234.907
124163,140518,10711,-0.081,-0.978,0.133,-0.244,0.366,0.549,234.913
124170,140538,9274,-0.078,-0.979,0.135,-0.488,0.488,0.549,234.917
124170,140505,10683,-0.077,-0.98,0.135,-0.488,0.488,0.549,234.923
124166,140538,9274,-0.077,-0.979,0.135,-0.549,0.366,0.549,234.927
124166,140500,10698,-0.077,-0.975,0.138,-0.549,0.366,0.549,234.933
124185,140538,9274,-0.077,-0.975,0.131,-0.549,0.427,0.549,234.936
124185,140527,10708,-0.078,-0.973,0.129,-0.549,0.427,0.549,234.943
124173,140538,9274,-0.08,-0.972,0.131,-0.61,0.549,0.549,234.946
124173,140509,10712,-0.079,-0.975,0.135,-0.61,0.549,0.549,234.952
124200,140794,9274,-0.08,-0.976,0.13,-0.61,0.427,0.549,234.956
124200,140545,10703,-0.077,-0.975,0.131,-0.61,0.427,0.549,234.962
124184,140538,9274,-0.076,-0.979,0.136,-0.488,0.366,0.549,234.966
124184,140525,10709,-0.077,-0.979,0.134,-0.488,0.366,0.549,234.972
124192,140538,9274,-0.081,-0.979,0.129,0.244,0.305,0.427,234.976
124192,140514,10709,-0.079,-0.978,0.13,0.244,0.305,0.427,234.982
124210,140538,9274,-0.078,-0.974,0.125,0,0.183,0.488,234.986
124210,140520,10699,-0.079,-0.976,0.125,0,0.183,0.488,234.992
124193,140538,9274,-0.077,-0.977,0.127,-1.098,0.244,0.549,234.996
124193,140521,10708,-0.077,-0.979,0.13,-1.098,0.244,0.549,235.002
124202,140538,9274,-0.075,-0.981,0.131,-0.793,0.183,0.549,235.006
124202,140531,10705,-0.078,-0.979,0.131,-0.793,0.183,0.549,235.012
124202,140538,9274,-0.079,-0.975,0.131,-0.305,0.244,0.671,235.016
124202,140500,10704,-0.079,-0.971,0.132,-0.305,0.244,0.671,235.022
124189,140538,9274,-0.077,-0.968,0.13,0,0.305,0.671,235.025
124189,140526,10711,-0.078,-0.972,0.126,0,0.305,0.671,235.032
124214,140538,9274,-0.08,-0.976,0.129,0.183,0.366,0.671,235.035
124214,140516,10702,-0.081,-0.98,0.131,0.183,0.366,0.671,235.042
124203,140538,9274,-0.08,-0.98,0.131,-0.366,0.244,0.549,235.045
124203,140534,10703,-0.079,-0.981,0.128,-0.366,0.244,0.549,235.051
124186,140538,9274,-0.078,-0.979,0.13,-0.366,0.122,0.488,235.055
124186,140538,10700,-0.076,-0.978,0.129,-0.366,0.122,0.488,235.061
124205,140794,9274,-0.08,-0.974,0.128,0,0.122,0.488,235.065
124205,140544,10702,-0.079,-0.976,0.134,0,0.122,0.488,235.071
124211,140538,9274,-0.078,-0.978,0.128,0.122,0.305,0.366,235.075
124211,140540,10712,-0.08,-0.978,0.125,0.122,0.305,0.366,235.081
124209,140538,9274,-0.08,-0.975,0.128,0,0.366,0.305,235.085
124209,140532,10713,-0.08,-0.978,0.128,0,0.366,0.305,235.091
124180,140538,9274,-0.078,-0.978,0.132,-0.061,0.488,0.244,235.095
124180,140520,10704,-0.078,-0.976,0.13,-0.061,0.488,0.244,235.101
124211,140794,9274,-0.08,-0.974,0.136,-0.122,0.427,0.244,235.105
124211,140545,10701,-0.078,-0.973,0.135,-0.122,0.427,0.244,235.111
124236,140538,9274,-0.081,-0.972,0.132,-0.305,0.366,0.244,235.115
124236,140528,10714,-0.079,-0.976,0.134,-0.305,0.366,0.244,235.121
124213,140538,9274,-0.078,-0.975,0.134,-0.366,0.366,0.305,235.125
124213,140528,10710,-0.077,-0.977,0.129,-0.366,0.366,0.305,235.131
124226,140538,9274,-0.079,-0.977,0.131,-0.061,0.244,0.305,235.134
124226,140534,10696,-0.08,-0.978,0.134,-0.061,0.244,0.305,235.141
124199,140538,9274,-0.076,-0.978,0.133,0.183,0.244,0.183,235.144
124199,140518,10717,-0.075,-0.974,0.134,0.183,0.244,0.183,235.15
124228,140538,9274,-0.074,-0.97,0.132,0.244,0.305,0.305,235.154
124228,140523,10711,-0.078,-0.973,0.132,0.244,0.305,0.305,235.16
124215,140794,9274,-0.077,-0.973,0.131,0,0.366,0.366,235.164
124215,140544,10708,-0.077,-0.976,0.135,0,0.366,0.366,235.17
124200,140538,9274,-0.079,-0.978,0.135,-0.366,0.305,0.427,235.174
124200,140525,10701,-0.078,-0.979,0.133,-0.366,0.305,0.427,235.18
124215,140538,9274,-0.076,-0.977,0.13,-0.854,0.366,0.488,235.184
124215,140536,10727,-0.076,-0.979,0.127,-0.854,0.366,0.488,235.19
124199,140538,9274,-0.078,-0.977,0.128,-0.671,0.488,0.549,235.194
124199,140510,10705,-0.074,-0.973,0.129,-0.671,0.488,0.549,235.2
124208,140538,9274,-0.077,-0.971,0.125,-0.244,0.549,0.793,235.204
124208,140531,10696,-0.079,-0.975,0.127,-0.244,0.549,0.793,235.21
124199,140538,9274,-0.079,-0.978,0.129,0.061,0.61,0.915,235.214
124199,140528,10699,-0.082,-0.982,0.127,0.061,0.61,0.915,235.22
124223,140538,9274,-0.08,-0.981,0.127,0,0.61,0.854,235.223
124223,140537,10696,-0.08,-0.976,0.129,0,0.61,0.854,235.23
124199,140538,9274,-0.083,-0.978,0.127,-0.366,0.671,0.732,235.233
124199,140523,10700,-0.084,-0.983,0.129,-0.366,0.671,0.732,235.24
124180,140538,9274,-0.082,-0.981,0.133,-0.183,0.671,0.549,235.243
124180,140498,10711,-0.082,-0.984,0.13,-0.183,0.671,0.549,235.249
124202,140538,9274,-0.082,-0.98,0.13,-0.61,0.427,0.305,235.253
124202,140511,10700,-0.079,-0.974,0.131,-0.61,0.427,0.305,235.259
124213,140538,9274,-0.081,-0.973,0.133,-0.671,0.305,0.183,235.263
124213,140526,10711,-0.079,-0.97,0.135,-0.671,0.305,0.183,235.269
124237,140538,9274,-0.08,-0.972,0.131,-0.61,0.305,0.183,235.273
124237,140522,10693,-0.076,-0.974,0.128,-0.61,0.305,0.183,235.279
124204,140794,9274,-0.076,-0.974,0.128,-0.61,0.305,0.183,235.283
124204,140551,10721,-0.076,-0.975,0.136,-0.671,0.122,0.183,235.289
124222,140538,9274,-0.076,-0.975,0.136,-0.671,0.122,0.183,235.293
124222,140536,10703,-0.078,-0.975,0.13,-0.854,0.183,0.122,235.299
124228,140538,9274,-0.078,-0.975,0.13,-0.854,0.183,0.122,235.303
124228,140526,10708,-0.076,-0.977,0.129,-0.854,0.305,0.244,235.309
124211,140538,9274,-0.076,-0.977,0.129,-0.854,0.305,0.244,235.313
124211,140525,10701,-0.078,-0.978,0.135,-0.061,0.366,0.305,235.319
124207,140538,9274,-0.078,-0.978,0.135,-0.061,0.366,0.305,235.323
124207,140530,10709,-0.076,-0.971,0.134,0.366,0.427,0.244,235.329
124211,140538,9274,-0.076,-0.971,0.134,0.366,0.427,0.244,235.332
124211,140514,10711,-0.077,-0.975,0.133,0.061,0.366,0.244,235.339
124208,140794,9274,-0.077,-0.975,0.133,0.061,0.366,0.244,235.342
124208,140544,10701,-0.079,-0.98,0.131,-0.244,0.488,0.366,235.348
124221,140538,9274,-0.079,-0.98,0.131,-0.244,0.488,0.366,235.352
124221,140543,10711,-0.078,-0.976,0.13,-0.305,0.488,0.427,235.358
124206,140538,9274,-0.078,-0.976,0.13,-0.305,0.488,0.427,235.362
124206,140540,10708,-0.075,-0.98,0.134,-0.61,0.305,0.488,235.368
124239,140794,9274,-0.075,-0.98,0.134,-0.61,0.305,0.488,235.372
124239,140553,10707,-0.083,-0.978,0.133,-0.183,0.244,0.427,235.378
124212,140538,9274,-0.083,-0.978,0.133,-0.183,0.244,0.427,235.382
124212,140526,10703,-0.085,-0.974,0.127,0.061,0.488,0.366,235.388
124195,140538,9274,-0.085,-0.974,0.127,0.061,0.488,0.366,235.392
124195,140530,10700,-0.081,-0.977,0.125,-0.122,0.488,0.183,235.398
124204,140538,9274,-0.081,-0.977,0.125,-0.122,0.488,0.183,235.402
124204,140516,10704,-0.082,-0.984,0.132,-0.427,0.183,0.122,235.408
124229,140538,9274,-0.082,-0.984,0.132,-0.427,0.183,0.122,235.412
124229,140541,10677,-0.078,-0.98,0.129,-0.732,0.244,0.122,235.418
124213,140538,9274,-0.078,-0.98,0.129,-0.732,0.244,0.122,235.422
124213,140542,10712,-0.078,-0.972,0.132,-0.549,0.305,0.061,235.428
124203,140794,9274,-0.078,-0.972,0.132,-0.549,0.305,0.061,235.431
124203,140545,10715,-0.08,-0.975,0.125,-0.244,0.366,0.122,235.438
124224,140794,9274,-0.08,-0.977,0.127,-0.244,0.366,0.122,235.441
124224,140545,10715,-0.079,-0.977,0.129,0.061,0.305,0.061,235.448
124208,140794,9274,-0.08,-0.977,0.13,0.061,0.305,0.061,235.451
124208,140550,10706,-0.079,-0.974,0.126,-0.061,0.305,0.122,235.457
124230,140538,9274,-0.076,-0.973,0.129,-0.061,0.305,0.122,235.461
124230,140540,10706,-0.077,-0.973,0.133,-0.244,0.305,0.183,235.467
124216,140794,9274,-0.073,-0.972,0.126,-0.244,0.305,0.183,235.471
124216,140549,10714,-0.072,-0.973,0.121,0,0.305,0.183,235.477
124223,140538,9274,-0.074,-0.979,0.138,0,0.305,0.183,235.481
124223,140526,10704,-0.081,-0.978,0.14,-0.061,0.549,0.122,235.487
124215,140794,9274,-0.086,-0.973,0.129,-0.061,0.549,0.122,235.491
124215,140547,10706,-0.077,-0.975,0.132,-0.671,0.61,0.244,235.497
124231,140538,9274,-0.071,-0.977,0.134,-0.671,0.61,0.244,235.501
124231,140536,10714,-0.074,-0.976,0.138,-0.061,0.305,0.061,235.507
124211,140538,9274,-0.075,-0.98,0.135,-0.061,0.305,0.061,235.511
124211,140527,10722,-0.078,-0.983,0.135,-0.366,0.488,0.183,235.517
124218,140538,9274,-0.079,-0.98,0.133,-0.366,0.488,0.183,235.521
124218,140536,10713,-0.079,-0.977,0.127,-0.427,0.488,0.427,235.527
124192,140538,9274,-0.079,-0.979,0.134,-0.427,0.488,0.427,235.53
124192,140514,10709,-0.079,-0.98,0.13,0.427,0.183,0.244,235.537
124199,140538,9274,-0.079,-0.976,0.133,0.427,0.183,0.244,235.54
124199,140499,10695,-0.078,-0.97,0.13,0.122,0.305,0.183,235.547
124175,140538,9274,-0.078,-0.971,0.129,0.122,0.305,0.183,235.55
124175,140509,10695,-0.081,-0.974,0.129,-0.915,0.366,0.122,235.556
124199,140538,9274,-0.079,-0.975,0.132,-0.915,0.366,0.122,235.56
124199,140484,10715,-0.078,-0.977,0.129,-1.098,0.183,0.183,235.566
124185,140538,9274,-0.081,-0.978,0.136,-1.098,0.183,0.183,235.57
124185,140530,10693,-0.077,-0.981,0.131,-0.976,0.061,0.122,235.576
124180,140538,9274,-0.075,-0.977,0.13,-0.976,0.061,0.122,235.58
124180,140519,10693,-0.074,-0.972,0.135,-0.732,0,0.305,235.586
124192,140538,9274,-0.075,-0.973,0.13,-0.732,0,0.305,235.59
124192,140516,10704,-0.077,-0.979,0.133,-0.732,0.244,0.305,235.596
124197,140538,9274,-0.079,-0.978,0.132,-0.732,0.244,0.305,235.6
124197,140497,10712,-0.078,-0.98,0.133,-0.732,0.305,0.366,235.606
124180,140538,9274,-0.079,-0.982,0.131,-0.732,0.305,0.366,235.61
124180,140516,10693,-0.077,-0.983,0.123,-0.915,0.244,0.244,235.616
124204,140538,9274,-0.076,-0.981,0.126,-0.915,0.244,0.244,235.62
124204,140504,10681,-0.076,-0.976,0.124,-0.366,0.366,0.244,235.626
124181,140538,9274,-0.078,-0.976,0.13,-0.366,0.366,0.244,235.629
124181,140494,10688,-0.075,-0.972,0.133,0.244,0.366,0.244,235.636
124197,140538,9274,-0.075,-0.973,0.13,0.244,0.366,0.244,235.639
124197,140521,10701,-0.076,-0.974,0.126,0.122,0.366,0.183,235.646
124228,140538,9274,-0.077,-0.977,0.13,0.122,0.366,0.183,235.649
124228,140501,10690,-0.08,-0.979,0.132,-0.305,0.488,0.183,235.655
124191,140538,9274,-0.078,-0.978,0.131,-0.305,0.488,0.183,235.659
124191,140499,10709,-0.08,-0.98,0.13,-1.037,0.549,0.122,235.665
124213,140538,9274,-0.079,-0.981,0.127,-1.037,0.549,0.122,235.669
124213,140501,10697,-0.079,-0.98,0.13,-0.793,0.305,0.183,235.675
124204,140538,9274,-0.077,-0.977,0.132,-0.793,0.305,0.183,235.679
124204,140527,10704,-0.073,-0.975,0.129,-0.244,0.305,0.305,235.685
124225,140538,9274,-0.075,-0.976,0.131,-0.244,0.305,0.305,235.689
124225,140522,10700,-0.081,-0.976,0.13,0.488,0.488,0.305,235.695
124210,140538,9274,-0.08,-0.974,0.132,0.488,0.488,0.305,235.699
124210,140521,10697,-0.077,-0.972,0.132,-0.061,0.305,0.366,235.705
124196,140538,9274,-0.076,-0.974,0.127,-0.061,0.305,0.366,235.709
124196,140519,10699,-0.077,-0.975,0.13,-0.671,0.183,0.366,235.715
124212,140538,9274,-0.077,-0.98,0.129,-0.671,0.183,0.366,235.719
124212,140495,10707,-0.076,-0.979,0.128,-0.854,0.244,0.305,235.725
124216,140538,9274,-0.078,-0.981,0.126,-0.854,0.244,0.305,235.728
124216,140520,10693,-0.08,-0.982,0.126,-0.732,0.366,0.488,235.735
124211,140538,9274,-0.076,-0.98,0.134,-0.732,0.366,0.488,235.738
124211,140529,10692,-0.078,-0.978,0.133,-0.244,0.244,0.549,235.745
124220,140538,9274,-0.078,-0.978,0.134,-0.244,0.244,0.549,235.748
124220,140536,10687,-0.079,-0.976,0.135,-0.061,0.183,0.427,235.754
124226,140538,9274,-0.076,-0.974,0.126,-0.061,0.183,0.427,235.758
124226,140537,10697,-0.075,-0.974,0.128,-0.244,0.183,0.305,235.764
124224,140538,9274,-0.075,-0.978,0.122,-0.244,0.183,0.305,235.768
124224,140538,10703,-0.08,-0.981,0.121,-0.305,0.244,0.305,235.774
124234,140538,9274,-0.081,-0.984,0.126,-0.305,0.244,0.305,235.778
124234,140525,10688,-0.079,-0.982,0.129,-0.061,0.122,0.244,235.784
124221,140538,9274,-0.079,-0.982,0.13,-0.061,0.122,0.244,235.788
124221,140537,10699,-0.077,-0.975,0.131,0.427,0.122,0.061,235.794
124243,140538,9274,-0.075,-0.97,0.136,0.427,0.122,0.061,235.798
124243,140532,10695,-0.075,-0.968,0.129,0.488,0.366,0.122,235.804
124256,140794,9274,-0.075,-0.97,0.127,0.488,0.366,0.122,235.808
124256,140555,10699,-0.079,-0.975,0.129,-0.183,0.488,0.305,235.814
124217,140538,9274,-0.079,-0.981,0.132,-0.183,0.488,0.305,235.818
124217,140511,10700,-0.079,-0.982,0.13,-0.549,0.305,0.244,235.824
124216,140538,9274,-0.078,-0.98,0.127,-0.549,0.305,0.244,235.827
124216,140541,10708,-0.074,-0.98,0.121,-0.427,0.244,0.183,235.834
124237,140794,9274,-0.078,-0.974,0.125,-0.427,0.244,0.183,235.837
124237,140563,10678,-0.078,-0.973,0.129,0.183,0.366,0.183,235.844
124238,140794,9274,-0.078,-0.973,0.128,0.183,0.366,0.183,235.847
124238,140566,10703,-0.075,-0.974,0.126,0.305,0.488,0.183,235.853
124272,140538,9274,-0.077,-0.977,0.129,0.305,0.488,0.183,235.857
124272,140539,10695,-0.077,-0.981,0.128,0.122,0.305,0.122,235.863
124241,140794,9274,-0.075,-0.977,0.126,0.122,0.305,0.122,235.867
124241,140573,10708,-0.073,-0.977,0.128,-0.244,0.366,0.244,235.873
124253,140538,9274,-0.073,-0.977,0.128,-0.244,0.366,0.244,235.877
124253,140543,10713,-0.076,-0.978,0.129,0,0.488,0.305,235.883
124257,140794,9274,-0.076,-0.978,0.129,0,0.488,0.305,235.887
124257,140562,10707,-0.073,-0.974,0.132,0,0.549,0.366,235.893
124256,140794,9274,-0.073,-0.974,0.132,0,0.549,0.366,235.897
124256,140573,10701,-0.076,-0.973,0.129,0.366,0.366,0.366,235.903
124250,140794,9274,-0.076,-0.973,0.129,0.366,0.366,0.366,235.907
124250,140567,10701,-0.075,-0.974,0.139,0.427,0.488,0.427,235.913
124268,140794,9274,-0.075,-0.974,0.139,0.427,0.488,0.427,235.917
124268,140569,10695,-0.076,-0.979,0.131,-0.122,0.427,0.488,235.923
124254,140794,9274,-0.076,-0.979,0.131,-0.122,0.427,0.488,235.926
124254,140571,10706,-0.079,-0.976,0.134,-0.671,0.305,0.61,235.933
124264,140794,9274,-0.079,-0.976,0.134,-0.671,0.305,0.61,235.936
124264,140579,10697,-0.077,-0.984,0.132,-0.427,0.305,0.61,235.943
124253,140794,9274,-0.077,-0.984,0.132,-0.427,0.305,0.61,235.946
124253,140568,10691,-0.079,-0.979,0.126,0.061,0.427,0.61,235.952
124266,140794,9274,-0.079,-0.979,0.126,0.061,0.427,0.61,235.956
124266,140576,10711,-0.078,-0.977,0.128,0.244,0.427,0.549,235.962
124273,140794,9274,-0.078,-0.977,0.128,0.244,0.427,0.549,235.966
124273,140570,10697,-0.08,-0.974,0.124,-0.061,0.549,0.671,235.972
124260,140794,9274,-0.08,-0.974,0.124,-0.061,0.549,0.671,235.976
124260,140576,10706,-0.082,-0.981,0.126,-0.183,0.793,0.488,235.982
124272,140794,9274,-0.082,-0.981,0.126,-0.183,0.793,0.488,235.986
124272,140564,10713,-0.08,-0.98,0.124,-0.122,0.671,0.488,235.992
124273,140794,9274,-0.08,-0.98,0.124,-0.122,0.671,0.488,235.996
124273,140584,10690,-0.08,-0.981,0.127,0,0.549,0.427,236.002
124287,140794,9274,-0.08,-0.981,0.127,0,0.549,0.427,236.006
124287,140584,10696,-0.08,-0.978,0.132,0.061,0.61,0.366,236.012
124307,140794,9274,-0.08,-0.978,0.132,0.061,0.61,0.366,236.016
124307,140592,10690,-0.079,-0.973,0.131,0,0.488,0.366,236.022
124299,140794,9274,-0.079,-0.973,0.131,0,0.488,0.366,236.025
124299,140595,10707,-0.076,-0.974,0.131,0,0.488,0.366,236.032
124308,140794,9274,-0.076,-0.975,0.127,0.244,0.366,0.305,236.035
124308,140581,10695,-0.075,-0.977,0.126,0.244,0.366,0.305,236.042
124301,140794,9274,-0.077,-0.976,0.132,-0.061,0.427,0.305,236.045
124301,140598,10704,-0.075,-0.978,0.13,-0.061,0.427,0.305,236.051
124308,140794,9274,-0.079,-0.98,0.135,-0.671,0.549,0.244,236.055
124308,140599,10712,-0.08,-0.982,0.139,-0.671,0.549,0.244,236.061
124285,140794,9274,-0.075,-0.978,0.136,-0.488,0.427,0.305,236.065
124285,140623,10708,-0.076,-0.976,0.133,-0.488,0.427,0.305,236.071
124293,140794,9274,-0.077,-0.974,0.13,-0.244,0.366,0.244,236.075
124293,140587,10692,-0.075,-0.972,0.129,-0.244,0.366,0.244,236.081
124281,140794,9274,-0.077,-0.975,0.131,0.244,0.427,0.305,236.085
124281,140588,10709,-0.078,-0.98,0.133,0.244,0.427,0.305,236.091
124298,140794,9274,-0.079,-0.982,0.134,0.427,0.427,0.488,236.095
124298,140594,10706,-0.078,-0.977,0.137,0.427,0.427,0.488,236.101
124304,140794,9274,-0.078,-0.972,0.136,0,0.244,0.366,236.105
124304,140575,10703,-0.077,-0.971,0.13,0,0.244,0.366,236.111
124309,140794,9274,-0.077,-0.976,0.136,0.061,0.244,0.427,236.115
124309,140592,10706,-0.081,-0.979,0.13,0.061,0.244,0.427,236.121
124291,140794,9274,-0.079,-0.981,0.127,0,0.305,0.488,236.124
124291,140588,10703,-0.085,-0.987,0.13,0,0.305,0.488,236.131
124311,140794,9274,-0.083,-0.984,0.13,0,0.366,0.244,236.134
124311,140579,10698,-0.08,-0.982,0.126,0,0.366,0.244,236.141
124308,140794,9274,-0.08,-0.977,0.126,-0.061,0.305,0.183,236.144
124308,140597,10710,-0.082,-0.972,0.125,-0.061,0.305,0.183,236.15
124313,140794,9274,-0.08,-0.976,0.125,-0.122,0.244,0.183,236.154
124313,140638,10696,-0.08,-0.975,0.126,-0.122,0.244,0.183,236.16
124287,140794,9274,-0.076,-0.977,0.125,-0.244,0.305,0.183,236.164
124287,140619,10690,-0.076,-0.975,0.126,-0.244,0.305,0.183,236.17
124302,140794,9274,-0.077,-0.976,0.128,-0.183,0.183,0.183,236.174
124302,140641,10702,-0.079,-0.982,0.129,-0.183,0.183,0.183,236.18
124316,140794,9274,-0.078,-0.982,0.132,0.366,0.244,0.061,236.184
124316,140629,10703,-0.079,-0.977,0.137,0.366,0.244,0.061,236.19
124308,140794,9274,-0.077,-0.975,0.134,0.061,0.366,0.061,236.194
124308,140618,10730,-0.077,-0.973,0.131,0.061,0.366,0.061,236.2
124312,140794,9274,-0.076,-0.972,0.135,0.061,0.244,0.122,236.204
124312,140596,10703,-0.078,-0.97,0.133,0.061,0.244,0.122,236.21
124303,140794,9274,-0.078,-0.974,0.134,-0.061,0.183,0.122,236.214
124303,140620,10718,-0.078,-0.977,0.133,-0.061,0.183,0.122,236.22
124333,140794,9274,-0.076,-0.982,0.135,-0.549,0.244,0,236.223
124333,140635,10706,-0.075,-0.98,0.137,-0.549,0.244,0,236.23
124319,140794,9274,-0.075,-0.978,0.134,-0.366,0.244,0.122,236.233
124319,140588,10717,-0.073,-0.974,0.135,-0.366,0.244,0.122,236.24
124323,140794,9274,-0.073,-0.974,0.133,0.244,0.305,0.061,236.243
124323,140612,10707,-0.076,-0.973,0.132,0.244,0.305,0.061,236.249
124315,140794,9274,-0.077,-0.974,0.126,0.305,0.488,0.061,236.253
124315,140622,10716,-0.074,-0.977,0.123,0.305,0.488,0.061,236.259
124321,140794,9274,-0.075,-0.978,0.128,0.061,0.427,0.061,236.263
124321,140618,10715,-0.075,-0.98,0.134,0.061,0.427,0.061,236.269
124312,140794,9274,-0.075,-0.979,0.136,0.183,0.366,0,236.273
124312,140611,10708,-0.076,-0.976,0.135,0.183,0.366,0,236.279
124301,140794,9274,-0.076,-0.971,0.13,0.061,0.427,0.183,236.283
124301,140609,10706,-0.078,-0.975,0.131,0.061,0.427,0.183,236.289
124293,140794,9274,-0.077,-0.976,0.134,-0.183,0.427,0.305,236.293
124293,140595,10699,-0.077,-0.979,0.134,-0.183,0.427,0.305,236.299
124288,140794,9274,-0.079,-0.978,0.131,-0.427,0.305,0.244,236.303
124288,140566,10709,-0.077,-0.981,0.127,-0.427,0.305,0.244,236.309
124279,140794,9274,-0.075,-0.981,0.127,-0.61,0.183,0.183,236.313
124279,140567,10698,-0.073,-0.978,0.13,-0.61,0.183,0.183,236.319
124282,140794,9274,-0.073,-0.974,0.129,0,0.122,0.244,236.323
124282,140570,10709,-0.074,-0.976,0.127,0,0.122,0.244,236.329
124297,140794,9274,-0.076,-0.978,0.129,0.427,0.183,0.366,236.332
124297,140574,10688,-0.074,-0.976,0.13,0.427,0.183,0.366,236.339
124278,140794,9274,-0.073,-0.974,0.133,-0.244,0.244,0.305,236.342
124278,140565,10691,-0.074,-0.974,0.129,-0.244,0.244,0.305,236.348
124272,140794,9274,-0.071,-0.976,0.127,-0.61,0.183,0.366,236.352
124272,140565,10710,-0.072,-0.975,0.124,-0.61,0.183,0.366,236.358
124298,140794,9274,-0.074,-0.974,0.129,-0.305,0.244,0.427,236.362
124298,140587,10703,-0.077,-0.98,0.127,-0.305,0.244,0.427,236.368
124276,140794,9274,-0.076,-0.979,0.131,-0.061,0.549,0.427,236.372
124276,140578,10701,-0.078,-0.973,0.134,-0.061,0.549,0.427,236.378
124297,140794,9274,-0.075,-0.973,0.131,-0.305,0.61,0.305,236.382
124297,140579,10701,-0.076,-0.974,0.13,-0.305,0.61,0.305,236.388
124291,140794,9274,-0.078,-0.976,0.133,-0.427,0.549,0.305,236.392
124291,140570,10706,-0.075,-0.977,0.132,-0.427,0.549,0.305,236.398
124308,140794,9274,-0.081,-0.979,0.131,-0.305,0.549,0.305,236.402
124308,140589,10699,-0.081,-0.977,0.13,-0.305,0.549,0.305,236.408
124324,140794,9274,-0.079,-0.98,0.134,-0.244,0.61,0.244,236.412
124324,140590,10706,-0.074,-0.981,0.136,-0.244,0.61,0.244,236.418
124299,140794,9274,-0.077,-0.976,0.134,0,0.488,0.305,236.422
124299,140580,10705,-0.076,-0.973,0.133,0,0.488,0.305,236.428
124318,140794,9274,-0.073,-0.973,0.137,0.061,0.549,0.427,236.431
124318,140590,10707,-0.076,-0.971,0.137,0.061,0.549,0.427,236.438
124319,140794,9274,-0.074,-0.973,0.131,-0.183,0.427,0.488,236.441
124319,140601,10697,-0.079,-0.976,0.13,-0.183,0.427,0.488,236.448
124308,140794,9274,-0.082,-0.978,0.126,-0.61,0.366,0.549,236.451
124308,140622,10701,-0.079,-0.981,0.125,-0.61,0.366,0.549,236.457
124314,140794,9274,-0.075,-0.984,0.125,-0.793,0.366,0.549,236.461
124314,140601,10696,-0.073,-0.98,0.128,-0.793,0.366,0.549,236.467
124304,140794,9274,-0.078,-0.979,0.128,-0.671,0.244,0.488,236.471
124304,140621,10701,-0.077,-0.982,0.128,-0.671,0.244,0.488,236.477
124292,140794,9274,-0.077,-0.982,0.128,-0.671,0.244,0.488,236.481
124292,140586,10699,-0.077,-0.973,0.133,-0.366,0.244,0.427,236.487
124324,140794,9274,-0.077,-0.973,0.133,-0.366,0.244,0.427,236.491
124324,140605,10692,-0.077,-0.972,0.129,0,0.183,0.488,236.497
124315,140794,9274,-0.077,-0.972,0.129,0,0.183,0.488,236.501
124315,140576,10717,-0.077,-0.973,0.128,-0.366,0.183,0.366,236.507
124326,140794,9274,-0.077,-0.973,0.128,-0.366,0.183,0.366,236.511
124326,140610,10697,-0.077,-0.983,0.13,-0.671,0.122,0.488,236.517
124332,140794,9274,-0.077,-0.983,0.13,-0.671,0.122,0.488,236.521
124332,140592,10697,-0.078,-0.98,0.132,-0.61,0.061,0.305,236.527
124335,140794,9274,-0.078,-0.98,0.132,-0.61,0.061,0.305,236.53
124335,140617,10699,-0.077,-0.976,0.128,-0.366,0.183,0.305,236.537
124320,140794,9274,-0.077,-0.976,0.128,-0.366,0.183,0.305,236.54
124320,140592,10708,-0.079,-0.971,0.131,0.244,0.305,0.244,236.546
124321,140794,9274,-0.079,-0.971,0.131,0.244,0.305,0.244,236.55
124321,140597,10684,-0.079,-0.978,0.129,0.122,0.366,0.305,236.556
124333,140794,9274,-0.079,-0.978,0.129,0.122,0.366,0.305,236.56
124333,140616,10695,-0.075,-0.979,0.124,-0.244,0.366,0.183,236.566
124319,140794,9274,-0.075,-0.979,0.124,-0.244,0.366,0.183,236.57
124319,140629,10701,-0.079,-0.979,0.13,-0.183,0.305,0.183,236.576
124323,140794,9274,-0.079,-0.979,0.13,-0.183,0.305,0.183,236.58
124323,140602,10688,-0.08,-0.978,0.135,0.427,0.366,0.183,236.586
124325,140794,9274,-0.08,-0.978,0.135,0.427,0.366,0.183,236.59
124325,140611,10709,-0.078,-0.973,0.135,0.427,0.61,0.183,236.596
124332,140794,9274,-0.078,-0.973,0.135,0.427,0.61,0.183,236.6
124332,140616,10707,-0.078,-0.979,0.132,0,0.549,0.183,236.606
124319,140794,9274,-0.078,-0.979,0.132,0,0.549,0.183,236.61
124319,140616,10695,-0.077,-0.981,0.126,-0.427,0.427,0.183,236.616
124314,140794,9274,-0.077,-0.981,0.126,-0.427,0.427,0.183,236.62
124314,140598,10706,-0.079,-0.979,0.128,-0.671,0.366,0.061,236.626
124322,140794,9274,-0.075,-0.978,0.136,-0.671,0.366,0.061,236.629
124322,140588,10699,-0.076,-0.973,0.135,-0.122,0.183,0.122,236.636
124310,140794,9274,-0.075,-0.973,0.131,-0.122,0.183,0.122,236.639
124310,140596,10690,-0.077,-0.976,0.135,0,0.122,0.305,236.646
124334,140794,9274,-0.074,-0.975,0.134,0,0.122,0.305,236.649
124334,140601,10705,-0.078,-0.972,0.129,-0.183,0.244,0.305,236.655
124311,140794,9274,-0.077,-0.975,0.126,-0.183,0.244,0.305,236.659
124311,140622,10711,-0.072,-0.979,0.125,-0.305,0.122,0.305,236.665
124343,140794,9274,-0.076,-0.98,0.128,-0.305,0.122,0.305,236.669
124343,140590,10699,-0.079,-0.981,0.13,-0.122,0.244,0.427,236.675
124320,140794,9274,-0.079,-0.982,0.128,-0.122,0.244,0.427,236.679
124320,140609,10714,-0.078,-0.984,0.13,0,0.305,0.366,236.685
124328,140794,9274,-0.076,-0.98,0.135,0,0.305,0.366,236.689
124328,140606,10689,-0.075,-0.973,0.134,0,0.366,0.244,236.695
124319,140794,9274,-0.074,-0.973,0.13,0,0.366,0.244,236.699
124319,140616,10695,-0.076,-0.974,0.127,0,0.488,0.305,236.705
124323,140794,9274,-0.078,-0.976,0.134,0,0.488,0.305,236.709
124323,140603,10705,-0.078,-0.98,0.132,-0.061,0.366,0.305,236.715
124302,140794,9274,-0.077,-0.98,0.13,-0.061,0.366,0.305,236.719
124302,140618,10682,-0.077,-0.979,0.131,-0.427,0.244,0.244,236.725
124340,140794,9274,-0.074,-0.979,0.132,-0.427,0.244,0.244,236.728
124340,140620,10699,-0.074,-0.979,0.134,-0.183,0.244,0.305,236.735
124324,140794,9274,-0.074,-0.975,0.132,-0.183,0.244,0.305,236.738
124324,140621,10708,-0.075,-0.971,0.133,0,0.244,0.427,236.745
124346,140794,9274,-0.075,-0.972,0.13,0,0.244,0.427,236.748
124346,140631,10696,-0.078,-0.979,0.135,0.061,0.244,0.366,236.754
124338,140794,9274,-0.076,-0.98,0.133,0.061,0.244,0.366,236.758
124338,140605,10703,-0.075,-0.98,0.13,-0.427,0.427,0.488,236.764
124323,140794,9274,-0.076,-0.981,0.123,-0.427,0.427,0.488,236.768
124323,140620,10701,-0.076,-0.983,0.121,-0.671,0.427,0.549,236.774
124345,140794,9274,-0.074,-0.978,0.125,-0.671,0.427,0.549,236.778
124345,140616,10687,-0.073,-0.98,0.125,-0.244,0.549,0.61,236.784
124337,140794,9274,-0.077,-0.979,0.128,-0.244,0.549,0.61,236.788
124337,140593,10694,-0.078,-0.977,0.132,-0.122,0.793,0.61,236.794
124336,140794,9274,-0.08,-0.98,0.133,-0.122,0.793,0.61,236.798
124336,140608,10703,-0.078,-0.979,0.13,-0.122,0.671,0.61,236.804
124349,140794,9274,-0.075,-0.978,0.131,-0.122,0.671,0.61,236.808
124349,140615,10702,-0.079,-0.98,0.13,-0.305,0.732,0.61,236.814
124343,140794,9274,-0.079,-0.983,0.126,-0.305,0.732,0.61,236.818
124343,140600,10699,-0.081,-0.983,0.127,-0.244,0.793,0.61,236.824
124316,140794,9274,-0.081,-0.979,0.129,-0.244,0.793,0.61,236.827
124316,140606,10703,-0.08,-0.976,0.13,-0.122,0.671,0.488,236.834
124331,140794,9274,-0.079,-0.973,0.132,-0.122,0.671,0.488,236.837
124331,140603,10703,-0.078,-0.971,0.135,0.122,0.549,0.488,236.844
124310,140794,9274,-0.076,-0.973,0.138,0.122,0.549,0.488,236.847
124310,140591,10703,-0.078,-0.975,0.135,0.305,0.427,0.427,236.853
124322,140794,9274,-0.076,-0.977,0.13,0.305,0.427,0.427,236.857
124322,140603,10708,-0.077,-0.978,0.133,-0.366,0.366,0.427,236.863
124308,140794,9274,-0.078,-0.981,0.134,-0.366,0.366,0.427,236.867
124308,140572,10698,-0.077,-0.984,0.135,-0.671,0.244,0.305,236.873
124309,140794,9274,-0.076,-0.979,0.131,-0.671,0.244,0.305,236.877
124309,140589,10701,-0.075,-0.977,0.13,-0.61,0.183,0.366,236.883
124329,140794,9274,-0.076,-0.977,0.132,-0.61,0.183,0.366,236.887
124329,140590,10701,-0.077,-0.977,0.135,-0.061,0.366,0.427,236.893
124338,140794,9274,-0.079,-0.978,0.135,-0.061,0.366,0.427,236.897
124338,140624,10698,-0.079,-0.974,0.134,0,0.488,0.244,236.903
124323,140794,9274,-0.078,-0.973,0.129,0,0.488,0.244,236.907
124323,140597,10709,-0.077,-0.975,0.131,-0.183,0.305,0.305,236.913
124327,140794,9274,-0.079,-0.979,0.133,-0.183,0.305,0.305,236.917
124327,140617,10714,-0.08,-0.981,0.134,0.061,0.183,0.305,236.923
124320,140794,9274,-0.079,-0.977,0.138,0.061,0.183,0.305,236.926
124320,140618,10709,-0.081,-0.976,0.133,0,0.366,0.305,236.933
124340,140794,9274,-0.082,-0.976,0.13,0,0.366,0.305,236.936
124340,140608,10714,-0.08,-0.977,0.126,0.244,0.366,0.244,236.943
124338,140794,9274,-0.079,-0.977,0.131,0.244,0.366,0.244,236.946
124338,140614,10697,-0.077,-0.98,0.13,0.366,0.244,0.183,236.952
124337,140794,9274,-0.077,-0.983,0.129,0.366,0.244,0.183,236.956
124337,140612,10694,-0.076,-0.983,0.129,0.183,0.305,0.061,236.962
124344,140794,9274,-0.077,-0.979,0.136,0.183,0.305,0.061,236.966
124344,140605,10702,-0.078,-0.976,0.133,0.244,0.305,0.061,236.972
124313,140794,9274,-0.076,-0.973,0.13,0.244,0.305,0.061,236.976
124313,140604,10711,-0.077,-0.973,0.129,-0.061,0.244,0.122,236.982
124341,140794,9274,-0.075,-0.975,0.129,-0.061,0.244,0.122,236.986
124341,140569,10690,-0.077,-0.98,0.129,-0.305,0.122,0.183,236.992
124331,140794,9274,-0.077,-0.982,0.128,-0.305,0.122,0.183,236.996
124331,140600,10702,-0.075,-0.979,0.126,-0.122,0.122,0.122,237.002
124322,140794,9274,-0.078,-0.98,0.126,-0.122,0.122,0.122,237.006
124322,140606,10697,-0.076,-0.979,0.126,0,0.366,0.183,237.012
124313,140794,9274,-0.075,-0.976,0.13,0,0.366,0.183,237.016
124313,140602,10699,-0.077,-0.973,0.127,0.183,0.427,0.122,237.022
124319,140794,9274,-0.074,-0.971,0.131,0.183,0.427,0.122,237.025
124319,140603,10702,-0.076,-0.975,0.129,0.183,0.427,0.122,237.032
124326,140794,9274,-0.073,-0.976,0.131,0.183,0.427,0.122,237.035
124326,140610,10693,-0.072,-0.977,0.134,-0.366,0.427,0.183,237.042
124325,140794,9274,-0.077,-0.977,0.135,-0.366,0.427,0.183,237.045
124325,140633,10701,-0.076,-0.975,0.138,-0.671,0.366,0.122,237.051
124324,140794,9274,-0.072,-0.977,0.135,-0.671,0.366,0.122,237.055
124324,140606,10720,-0.075,-0.978,0.134,-0.427,0.305,0.244,237.061
124325,140794,9274,-0.074,-0.977,0.132,-0.427,0.305,0.244,237.065
124325,140616,10706,-0.075,-0.981,0.135,0.061,0.427,0.366,237.071
124325,140794,9274,-0.075,-0.981,0.135,0.061,0.427,0.366,237.075
124325,140619,10715,-0.075,-0.973,0.13,0.122,0.427,0.305,237.081
124313,140794,9274,-0.075,-0.973,0.13,0.122,0.427,0.305,237.085
124313,140580,10701,-0.074,-0.971,0.133,0.488,0.244,0.244,237.091
124302,140794,9274,-0.074,-0.971,0.133,0.488,0.244,0.244,237.095
124302,140597,10701,-0.075,-0.979,0.129,0.305,0.305,0.305,237.101
124330,140794,9274,-0.075,-0.979,0.129,0.305,0.305,0.305,237.105
124330,140580,10699,-0.075,-0.98,0.127,0.122,0.366,0.244,237.111
124309,140794,9274,-0.075,-0.98,0.127,0.122,0.366,0.244,237.115
124309,140572,10707,-0.077,-0.972,0.138,-0.183,0.488,0.183,237.121
124284,140794,9274,-0.077,-0.972,0.138,-0.183,0.488,0.183,237.124
124284,140558,10710,-0.079,-0.979,0.131,-0.366,0.427,0.366,237.131
124285,140794,9274,-0.079,-0.979,0.131,-0.366,0.427,0.366,237.134
124285,140573,10718,-0.075,-0.977,0.128,-0.549,0.244,0.244,237.141
124282,140794,9274,-0.075,-0.977,0.128,-0.549,0.244,0.244,237.144
124282,140547,10701,-0.073,-0.983,0.133,-0.427,0.244,0.183,237.15
124285,140794,9274,-0.073,-0.983,0.133,-0.427,0.244,0.183,237.154
124285,140547,10707,-0.076,-0.977,0.132,-0.183,0.427,0.244,237.16
124289,140794,9274,-0.076,-0.977,0.132,-0.183,0.427,0.244,237.164
124289,140549,10685,-0.076,-0.977,0.129,-0.122,0.305,0.427,237.17
124272,140794,9274,-0.076,-0.977,0.129,-0.122,0.305,0.427,237.174
124272,140574,10693,-0.072,-0.974,0.128,0.122,0.427,0.366,237.18
124288,140794,9274,-0.072,-0.974,0.128,0.122,0.427,0.366,237.184
124288,140558,10691,-0.077,-0.976,0.132,-0.122,0.488,0.366,237.19
124287,140794,9274,-0.077,-0.976,0.132,-0.122,0.488,0.366,237.194
124287,140563,10697,-0.076,-0.979,0.125,-0.427,0.549,0.366,237.2
124286,140794,9274,-0.076,-0.979,0.125,-0.427,0.549,0.366,237.204
124286,140564,10688,-0.078,-0.983,0.137,-0.305,0.61,0.488,237.21
124283,140794,9274,-0.078,-0.983,0.137,-0.305,0.61,0.488,237.214
124283,140565,10687,-0.073,-0.977,0.133,-0.305,0.61,0.488,237.22
124297,140794,9274,-0.076,-0.973,0.137,0.061,0.61,0.427,237.223
124297,140562,10681,-0.074,-0.971,0.134,0.061,0.61,0.427,237.23
124312,140794,9274,-0.076,-0.971,0.137,0.061,0.61,0.427,237.233
124312,140570,10690,-0.077,-0.972,0.139,0.061,0.61,0.427,237.24
124315,140794,9274,-0.074,-0.974,0.139,-0.305,0.549,0.488,237.243
124315,140574,10695,-0.08,-0.979,0.135,-0.305,0.549,0.488,237.249
124305,140794,9274,-0.078,-0.98,0.135,-0.976,0.488,0.549,237.253
124305,140569,10715,-0.075,-0.98,0.129,-0.976,0.488,0.549,237.259
124301,140794,9274,-0.078,-0.981,0.134,-0.61,0.305,0.427,237.263
124301,140589,10687,-0.076,-0.978,0.137,-0.61,0.305,0.427,237.269
124325,140794,9274,-0.076,-0.979,0.133,0.122,0.427,0.427,237.273
124325,140557,10688,-0.076,-0.975,0.136,0.122,0.427,0.427,237.279
124326,140794,9274,-0.078,-0.975,0.135,0.183,0.488,0.488,237.283
124326,140597,10688,-0.082,-0.972,0.134,0.183,0.488,0.488,237.289
124327,140794,9274,-0.077,-0.971,0.137,-0.183,0.305,0.488,237.293
124327,140589,10691,-0.075,-0.976,0.132,-0.183,0.305,0.488,237.299
124347,140794,9274,-0.078,-0.976,0.128,-0.488,0.244,0.366,237.303
124347,140608,10683,-0.078,-0.978,0.126,-0.488,0.244,0.366,237.309
124336,140794,9274,-0.077,-0.979,0.125,-0.427,0.366,0.305,237.313
124336,140607,10695,-0.079,-0.979,0.124,-0.427,0.366,0.305,237.319
124335,140794,9274,-0.077,-0.976,0.126,-0.366,0.366,0.366,237.323
124335,140617,10677,-0.075,-0.979,0.123,-0.366,0.366,0.366,237.329
124333,140794,9274,-0.078,-0.982,0.129,-0.305,0.244,0.244,237.332
124333,140617,10708,-0.079,-0.981,0.13,-0.305,0.244,0.244,237.339
124355,140794,9274,-0.079,-0.979,0.132,-0.122,0.305,0.305,237.342
124355,140594,10701,-0.077,-0.979,0.132,-0.122,0.305,0.305,237.348
124339,140794,9274,-0.074,-0.979,0.128,0.183,0.305,0.366,237.352
124339,140619,10697,-0.077,-0.979,0.134,0.183,0.305,0.366,237.358
124367,140794,9274,-0.076,-0.975,0.133,0.061,0.366,0.366,237.362
124367,140603,10699,-0.077,-0.973,0.131,0.061,0.366,0.366,237.368
124337,140794,9274,-0.077,-0.978,0.135,-0.427,0.366,0.305,237.372
124337,140615,10707,-0.076,-0.98,0.133,-0.427,0.366,0.305,237.378
124372,140794,9274,-0.076,-0.983,0.135,-0.366,0.244,0.244,237.382
124372,140642,10699,-0.078,-0.98,0.132,-0.366,0.244,0.244,237.388
124374,140794,9274,-0.077,-0.975,0.131,0.183,0.366,0.244,237.392
124374,140629,10705,-0.076,-0.973,0.133,0.183,0.366,0.244,237.398
124369,140794,9274,-0.076,-0.97,0.135,0.549,0.488,0.305,237.402
124369,140633,10672,-0.078,-0.972,0.133,0.549,0.488,0.305,237.408
124367,140794,9274,-0.074,-0.972,0.135,0.183,0.488,0.183,237.412
124367,140629,10685,-0.075,-0.973,0.132,0.183,0.488,0.183,237.418
124379,140794,9274,-0.074,-0.974,0.13,-0.793,0.488,0.183,237.421
124379,140610,10700,-0.076,-0.977,0.128,-0.793,0.488,0.183,237.428
124380,140794,9274,-0.074,-0.981,0.129,-0.549,0.427,0.366,237.431
124380,140628,10700,-0.076,-0.983,0.137,-0.549,0.427,0.366,237.438
124366,140794,9274,-0.075,-0.979,0.126,-0.183,0.427,0.244,237.441
124366,140648,10703,-0.072,-0.978,0.125,-0.183,0.427,0.244,237.447
124390,140794,9274,-0.073,-0.98,0.13,0.183,0.427,0.183,237.451
124390,140631,10701,-0.074,-0.978,0.133,0.183,0.427,0.183,237.457
124373,140794,9274,-0.076,-0.98,0.132,0.305,0.427,0.183,237.461
124373,140615,10710,-0.078,-0.976,0.13,0.305,0.427,0.183,237.467
124401,140794,9274,-0.075,-0.974,0.128,-0.244,0.427,0.183,237.471
124401,140624,10695,-0.075,-0.976,0.131,-0.244,0.427,0.183,237.477
124376,140794,9274,-0.078,-0.979,0.136,-0.305,0.244,0.305,237.481
124376,140643,10700,-0.077,-0.98,0.137,-0.305,0.244,0.305,237.487
124386,140794,9274,-0.077,-0.981,0.135,-0.366,0.244,0.244,237.491
124386,140629,10700,-0.077,-0.974,0.134,-0.366,0.244,0.244,237.497
124358,140794,9274,-0.077,-0.977,0.13,-0.427,0.244,0.244,237.501
124358,140604,10703,-0.076,-0.978,0.133,-0.427,0.244,0.244,237.507
124358,140794,9274,-0.074,-0.975,0.133,-0.366,0.183,0.427,237.511
124358,140640,10687,-0.074,-0.976,0.132,-0.366,0.183,0.427,237.517
124368,140794,9274,-0.073,-0.973,0.132,-0.366,0.305,0.427,237.521
124368,140635,10687,-0.074,-0.97,0.129,-0.366,0.305,0.427,237.527
124374,140794,9274,-0.075,-0.972,0.129,-0.244,0.366,0.488,237.53
124374,140621,10702,-0.075,-0.974,0.134,-0.244,0.366,0.488,237.537
124397,140794,9274,-0.077,-0.976,0.133,-0.366,0.488,0.61,237.54
124397,140640,10696,-0.076,-0.979,0.131,-0.366,0.488,0.61,237.546
124387,140794,9274,-0.077,-0.981,0.131,-0.305,0.488,0.61,237.55
124387,140634,10705,-0.078,-0.981,0.131,-0.305,0.488,0.61,237.556
124377,140794,9274,-0.077,-0.979,0.132,0,0.549,0.549,237.56
124377,140621,10685,-0.081,-0.983,0.129,0,0.549,0.549,237.566
124348,140794,9274,-0.077,-0.98,0.131,0,0.488,0.61,237.57
124348,140621,10697,-0.075,-0.98,0.129,0,0.488,0.61,237.576
124399,140794,9274,-0.078,-0.981,0.128,0.061,0.488,0.549,237.58
124399,140638,10690,-0.078,-0.98,0.136,0.061,0.488,0.549,237.586
124380,140794,9274,-0.074,-0.977,0.137,0.183,0.305,0.366,237.59
124380,140623,10696,-0.073,-0.974,0.134,0.183,0.305,0.366,237.596
124388,140794,9274,-0.075,-0.974,0.134,-0.122,0.305,0.366,237.6
124388,140633,10692,-0.077,-0.972,0.133,-0.122,0.305,0.366,237.606
124393,140794,9274,-0.076,-0.971,0.134,-0.488,0.427,0.427,237.61
124393,140644,10691,-0.076,-0.975,0.135,-0.488,0.427,0.427,237.616
124391,140794,9274,-0.074,-0.976,0.127,-0.793,0.366,0.488,237.62
124391,140626,10695,-0.076,-0.979,0.128,-0.793,0.366,0.488,237.626
124371,140794,9274,-0.075,-0.978,0.129,-0.732,0.305,0.61,237.629
124371,140631,10693,-0.072,-0.978,0.132,-0.732,0.305,0.61,237.636
124388,140794,9274,-0.076,-0.98,0.132,-0.183,0.488,0.488,237.639
124388,140618,10700,-0.077,-0.979,0.128,-0.183,0.488,0.488,237.646
124356,140794,9274,-0.076,-0.979,0.135,0.305,0.732,0.488,237.649
124356,140631,10694,-0.078,-0.975,0.135,0.305,0.732,0.488,237.655
124377,140794,9274,-0.078,-0.978,0.14,0.305,0.671,0.61,237.659
124377,140657,10700,-0.08,-0.974,0.137,0.305,0.671,0.61,237.665
124362,140794,9274,-0.08,-0.974,0.137,0.305,0.671,0.61,237.669
124362,140620,10701,-0.079,-0.98,0.132,-0.244,0.549,0.732,237.675
124341,140794,9274,-0.079,-0.98,0.132,-0.244,0.549,0.732,237.679
124341,140608,10697,-0.079,-0.984,0.132,-0.61,0.549,0.61,237.685
124330,140794,9274,-0.079,-0.984,0.132,-0.61,0.549,0.61,237.689
124330,140610,10685,-0.079,-0.98,0.132,-0.305,0.427,0.488,237.695
124329,140794,9274,-0.079,-0.98,0.132,-0.305,0.427,0.488,237.699
124329,140582,10698,-0.077,-0.975,0.133,-0.366,0.122,0.488,237.705
124334,140794,9274,-0.077,-0.975,0.133,-0.366,0.122,0.488,237.709
124334,140600,10699,-0.074,-0.973,0.129,-0.732,0.061,0.427,237.715
124342,140794,9274,-0.074,-0.973,0.129,-0.732,0.061,0.427,237.719
124342,140600,10677,-0.079,-0.979,0.135,-0.732,0,0.366,237.725
124318,140794,9274,-0.079,-0.979,0.135,-0.732,0,0.366,237.728
124318,140585,10695,-0.075,-0.976,0.132,-0.488,0.061,0.244,237.735
124328,140794,9274,-0.075,-0.976,0.132,-0.488,0.061,0.244,237.738
124328,140595,10697,-0.071,-0.974,0.135,-0.244,0.122,0.122,237.744
124325,140794,9274,-0.071,-0.974,0.135,-0.244,0.122,0.122,237.748
124325,140598,10702,-0.078,-0.974,0.136,0.061,0.305,0.183,237.754
124335,140794,9274,-0.078,-0.974,0.136,0.061,0.305,0.183,237.758
124335,140612,10681,-0.076,-0.976,0.134,-0.244,0.305,0.305,237.764
124336,140794,9274,-0.076,-0.976,0.134,-0.244,0.305,0.305,237.768
124336,140594,10696,-0.076,-0.977,0.132,-0.244,0.244,0.305,237.774
124332,140794,9274,-0.076,-0.977,0.132,-0.244,0.244,0.305,237.778
124332,140576,10706,-0.077,-0.98,0.13,-0.183,0.366,0.366,237.784
124338,140794,9274,-0.077,-0.98,0.13,-0.183,0.366,0.366,237.788
124338,140603,10718,-0.078,-0.981,0.132,-0.122,0.427,0.366,237.794
124345,140794,9274,-0.078,-0.981,0.132,-0.122,0.427,0.366,237.798
124345,140586,10703,-0.08,-0.975,0.126,0,0.366,0.244,237.804
124369,140794,9274,-0.08,-0.975,0.126,0,0.366,0.244,237.808
124369,140604,10685,-0.078,-0.974,0.125,-0.183,0.366,0.183,237.814
124349,140794,9274,-0.08,-0.979,0.123,-0.183,0.366,0.183,237.818
124349,140590,10689,-0.077,-0.981,0.124,0.061,0.366,0.122,237.824
124353,140794,9274,-0.078,-0.982,0.13,0.061,0.366,0.122,237.827
124353,140608,10704,-0.081,-0.981,0.131,0.183,0.366,0.122,237.834
124355,140794,9274,-0.08,-0.981,0.13,0.183,0.366,0.122,237.837
124355,140605,10682,-0.08,-0.977,0.134,0.061,0.427,0.061,237.844
124346,140794,9274,-0.079,-0.975,0.136,0.061,0.427,0.061,237.847
124346,140600,10700,-0.076,-0.978,0.129,0.061,0.366,-0.061,237.853
124351,140794,9274,-0.077,-0.976,0.129,0.061,0.366,-0.061,237.857
124351,140620,10693,-0.077,-0.975,0.132,0.183,0.427,0,237.863
124359,140794,9274,-0.076,-0.978,0.133,0.183,0.427,0,237.867
124359,140609,10709,-0.076,-0.975,0.131,0.061,0.488,0.061,237.873
124352,140794,9274,-0.073,-0.972,0.135,0.061,0.488,0.061,237.877
124352,140636,10705,-0.074,-0.973,0.133,-0.366,0.366,0.122,237.883
124364,140794,9274,-0.075,-0.976,0.133,-0.366,0.366,0.122,237.887
124364,140619,10710,-0.075,-0.975,0.135,-0.61,0.244,0.244,237.893
124343,140794,9274,-0.071,-0.976,0.132,-0.61,0.244,0.244,237.897
124343,140630,10701,-0.075,-0.978,0.128,-0.427,0.244,0.305,237.903
124364,140794,9274,-0.076,-0.979,0.134,-0.427,0.244,0.305,237.907
124364,140651,10696,-0.072,-0.979,0.136,0.061,0.366,0.366,237.913
124356,140794,9274,-0.074,-0.974,0.131,0.061,0.366,0.366,237.917
124356,140641,10699,-0.073,-0.974,0.135,0.061,0.488,0.366,237.923
124357,140794,9274,-0.073,-0.975,0.133,0.061,0.488,0.366,237.926
124357,140607,10710,-0.075,-0.975,0.134,-0.061,0.488,0.366,237.933
124363,140794,9274,-0.077,-0.978,0.135,-0.061,0.488,0.366,237.936
124363,140615,10689,-0.075,-0.979,0.13,-0.305,0.488,0.366,237.943
124345,140794,9274,-0.076,-0.98,0.129,-0.305,0.488,0.366,237.946
124345,140585,10688,-0.073,-0.978,0.13,-0.122,0.488,0.305,237.952
124344,140794,9274,-0.075,-0.98,0.133,-0.122,0.488,0.305,237.956
124344,140610,10702,-0.077,-0.978,0.137,0.183,0.61,0.305,237.962
124341,140794,9274,-0.08,-0.973,0.132,0.183,0.61,0.305,237.966
124341,140601,10695,-0.077,-0.975,0.133,0.305,0.61,0.305,237.972
124334,140794,9274,-0.076,-0.975,0.135,0.305,0.61,0.305,237.976
124334,140610,10700,-0.075,-0.972,0.132,0,0.488,0.244,237.982
124331,140794,9274,-0.076,-0.972,0.135,0,0.488,0.244,237.986
124331,140596,10695,-0.076,-0.975,0.133,-0.488,0.427,0.244,237.992
124327,140794,9274,-0.077,-0.977,0.13,-0.488,0.427,0.244,237.996
124327,140585,10700,-0.076,-0.981,0.136,-0.732,0.427,0.427,238.002
124326,140794,9274,-0.073,-0.984,0.13,-0.732,0.427,0.427,238.006
124326,140590,10695,-0.077,-0.981,0.133,-0.427,0.244,0.366,238.012
124331,140794,9274,-0.074,-0.975,0.134,-0.427,0.244,0.366,238.016
124331,140583,10685,-0.072,-0.976,0.133,0.061,0.122,0.366,238.022
124309,140794,9274,-0.074,-0.975,0.13,0.061,0.122,0.366,238.025
124309,140591,10703,-0.074,-0.978,0.128,0.061,0.244,0.427,238.032
124324,140794,9274,-0.074,-0.976,0.131,0.061,0.244,0.427,238.035
124324,140584,10694,-0.074,-0.979,0.129,-0.244,0.244,0.427,238.042
124323,140794,9274,-0.074,-0.978,0.131,-0.244,0.244,0.427,238.045
124323,140598,10703,-0.073,-0.978,0.128,-0.488,0.122,0.488,238.051
124335,140794,9274,-0.075,-0.979,0.132,-0.488,0.122,0.488,238.055
124335,140606,10673,-0.076,-0.977,0.131,-0.305,0.305,0.427,238.061
124310,140794,9274,-0.077,-0.974,0.128,-0.305,0.305,0.427,238.065
124310,140609,10688,-0.078,-0.971,0.131,-0.305,0.549,0.488,238.071
124329,140794,9274,-0.077,-0.972,0.131,-0.305,0.549,0.488,238.075
124329,140584,10687,-0.074,-0.974,0.129,-0.244,0.549,0.427,238.081
124338,140794,9274,-0.074,-0.976,0.131,-0.244,0.549,0.427,238.085
124338,140580,10690,-0.078,-0.975,0.134,-0.671,0.488,0.427,238.091
124334,140794,9274,-0.078,-0.979,0.131,-0.671,0.488,0.427,238.095
124334,140608,10691,-0.08,-0.98,0.13,-1.098,0.61,0.427,238.101
124345,140794,9274,-0.081,-0.979,0.136,-1.098,0.61,0.427,238.105
124345,140593,10678,-0.077,-0.979,0.135,-0.488,0.549,0.427,238.111
124339,140794,9274,-0.073,-0.975,0.131,-0.488,0.549,0.427,238.115
124339,140561,10682,-0.073,-0.972,0.131,0.305,0.305,0.305,238.121
124330,140794,9274,-0.075,-0.972,0.131,0.305,0.305,0.305,238.124
124330,140609,10701,-0.077,-0.976,0.134,0.549,0.427,0.427,238.131
124356,140794,9274,-0.078,-0.978,0.137,0.549,0.427,0.427,238.134
124356,140589,10679,-0.079,-0.978,0.135,-0.122,0.366,0.427,238.141
124344,140794,9274,-0.077,-0.978,0.132,-0.122,0.366,0.427,238.144
124344,140601,10700,-0.077,-0.979,0.13,-0.671,0.183,0.427,238.15
124334,140794,9274,-0.073,-0.981,0.129,-0.671,0.183,0.427,238.154
124334,140585,10676,-0.072,-0.981,0.129,-0.305,0.183,0.549,238.16
124344,140794,9274,-0.076,-0.976,0.127,-0.305,0.183,0.549,238.164
124344,140594,10679,-0.077,-0.976,0.132,0.366,0.305,0.488,238.17
124337,140794,9274,-0.077,-0.975,0.132,0.366,0.305,0.488,238.174
124337,140582,10687,-0.074,-0.975,0.137,0.183,0.366,0.488,238.18
124343,140794,9274,-0.074,-0.97,0.131,0.183,0.366,0.488,238.184
124343,140611,10690,-0.075,-0.973,0.126,-0.732,0.305,0.549,238.19
124341,140794,9274,-0.077,-0.977,0.127,-0.732,0.305,0.549,238.194
124341,140603,10697,-0.079,-0.98,0.127,-0.976,0.366,0.61,238.2
124335,140794,9274,-0.08,-0.982,0.127,-0.976,0.366,0.61,238.204
124335,140603,10687,-0.078,-0.984,0.133,-0.671,0.244,0.549,238.21
124372,140794,9274,-0.078,-0.983,0.133,-0.671,0.244,0.549,238.214
124372,140589,10677,-0.076,-0.98,0.127,-0.122,0.244,0.61,238.22
124350,140794,9274,-0.081,-0.976,0.129,-0.122,0.244,0.61,238.223
124350,140595,10680,-0.078,-0.976,0.133,0.244,0.366,0.427,238.23
124348,140794,9274,-0.077,-0.972,0.131,0.244,0.366,0.427,238.233
124348,140620,10683,-0.077,-0.978,0.128,0.305,0.366,0.366,238.24
124337,140794,9274,-0.076,-0.974,0.131,0.305,0.366,0.366,238.243
124337,140587,10681,-0.079,-0.975,0.131,0.183,0.244,0.305,238.249
124352,140794,9274,-0.079,-0.975,0.131,0.183,0.244,0.305,238.253
124352,140599,10685,-0.077,-0.973,0.137,-0.061,0.305,0.305,238.259
124337,140794,9274,-0.077,-0.973,0.137,-0.061,0.305,0.305,238.263
124337,140577,10700,-0.076,-0.972,0.137,-0.427,0.305,0.366,238.269
124358,140794,9274,-0.076,-0.972,0.137,-0.427,0.305,0.366,238.273
124358,140629,10680,-0.077,-0.982,0.136,-0.122,0.305,0.366,238.279
124357,140794,9274,-0.077,-0.982,0.136,-0.122,0.305,0.366,238.283
124357,140638,10691,-0.076,-0.977,0.134,0.061,0.366,0.244,238.289
124359,140794,9274,-0.076,-0.977,0.134,0.061,0.366,0.244,238.293
124359,140621,10698,-0.077,-0.979,0.133,-0.061,0.488,0.244,238.299
124353,140794,9274,-0.077,-0.979,0.133,-0.061,0.488,0.244,238.303
124353,140614,10687,-0.076,-0.974,0.131,-0.122,0.427,0.244,238.309
124350,140794,9274,-0.076,-0.974,0.131,-0.122,0.427,0.244,238.313
124350,140618,10677,-0.078,-0.973,0.131,-0.61,0.427,0.244,238.319
124356,140794,9274,-0.078,-0.973,0.131,-0.61,0.427,0.244,238.322
124356,140595,10672,-0.076,-0.979,0.132,-0.732,0.366,0.427,238.329
124354,140794,9274,-0.076,-0.979,0.132,-0.732,0.366,0.427,238.332
124354,140619,10693,-0.075,-0.976,0.129,-0.671,0.305,0.366,238.339
124353,140794,9274,-0.075,-0.976,0.129,-0.671,0.305,0.366,238.342
124353,140598,10698,-0.075,-0.978,0.13,-0.183,0.366,0.366,238.348
124352,140794,9274,-0.075,-0.978,0.13,-0.183,0.366,0.366,238.352
124352,140598,10682,-0.075,-0.976,0.13,-0.122,0.305,0.549,238.358
124342,140794,9274,-0.075,-0.976,0.13,-0.122,0.305,0.549,238.362
124342,140609,10692,-0.076,-0.978,0.132,-0.183,0.183,0.427,238.368
124344,140794,9274,-0.076,-0.978,0.132,-0.183,0.183,0.427,238.372
124344,140604,10679,-0.075,-0.978,0.13,-0.549,0.244,0.427,238.378
124349,140794,9274,-0.075,-0.978,0.13,-0.549,0.244,0.427,238.382
124349,140613,10685,-0.075,-0.979,0.128,-0.488,0.366,0.549,238.388
124368,140794,9274,-0.075,-0.979,0.128,-0.488,0.366,0.549,238.392
124368,140598,10675,-0.074,-0.975,0.127,-0.122,0.427,0.61,238.398
124357,140794,9274,-0.074,-0.975,0.127,-0.122,0.427,0.61,238.402
124357,140590,10691,-0.074,-0.974,0.125,-0.122,0.427,0.61,238.408
124348,140794,9274,-0.075,-0.973,0.129,0.061,0.61,0.671,238.412
124348,140593,10681,-0.078,-0.977,0.131,0.061,0.61,0.671,238.418
124338,140794,9274,-0.075,-0.977,0.129,-0.183,0.671,0.671,238.421
124338,140595,10677,-0.075,-0.975,0.125,-0.183,0.671,0.671,238.428
124342,140794,9274,-0.076,-0.975,0.126,-0.366,0.671,0.732,238.431
124342,140596,10689,-0.077,-0.978,0.129,-0.366,0.671,0.732,238.438
124369,140794,9274,-0.08,-0.982,0.135,-0.061,0.732,0.61,238.441
124369,140606,10685,-0.08,-0.981,0.139,-0.061,0.732,0.61,238.447
124342,140794,9274,-0.079,-0.979,0.133,-0.305,0.549,0.488,238.451
124342,140595,10693,-0.073,-0.978,0.136,-0.305,0.549,0.488,238.457
124347,140794,9274,-0.074,-0.973,0.134,-0.244,0.549,0.549,238.461
124347,140587,10688,-0.074,-0.975,0.13,-0.244,0.549,0.549,238.467
124346,140794,9274,-0.079,-0.972,0.137,-0.427,0.793,0.61,238.471
124346,140630,10693,-0.075,-0.975,0.135,-0.427,0.793,0.61,238.477
124361,140794,9274,-0.078,-0.976,0.13,-0.549,0.793,0.549,238.481
124361,140624,10690,-0.076,-0.977,0.128,-0.549,0.793,0.549,238.487
124340,140794,9274,-0.073,-0.977,0.134,-0.671,0.61,0.61,238.491
124340,140621,10693,-0.075,-0.974,0.134,-0.671,0.61,0.61,238.497
124361,140794,9274,-0.078,-0.975,0.132,-0.244,0.671,0.732,238.501
124361,140616,10698,-0.077,-0.974,0.132,-0.244,0.671,0.732,238.507
124338,140794,9274,-0.079,-0.975,0.14,0.061,0.671,0.854,238.511
124338,140605,10695,-0.078,-0.974,0.136,0.061,0.671,0.854,238.517
124340,140794,9274,-0.079,-0.975,0.132,-0.122,0.549,0.793,238.52
124340,140611,10681,-0.079,-0.98,0.131,-0.122,0.549,0.793,238.527
124328,140794,9274,-0.078,-0.982,0.129,-0.61,0.61,0.671,238.53
124328,140599,10688,-0.08,-0.983,0.131,-0.61,0.61,0.671,238.537
124336,140794,9274,-0.079,-0.982,0.128,-0.488,0.61,0.671,238.54
124336,140589,10680,-0.08,-0.982,0.129,-0.488,0.61,0.671,238.546
124331,140794,9274,-0.08,-0.978,0.125,-0.305,0.549,0.61,238.55
124331,140600,10685,-0.081,-0.977,0.131,-0.305,0.549,0.61,238.556
124329,140794,9274,-0.078,-0.978,0.133,-0.244,0.549,0.488,238.56
124329,140591,10683,-0.077,-0.978,0.134,-0.244,0.549,0.488,238.566
124354,140794,9274,-0.078,-0.98,0.13,-0.366,0.854,0.366,238.57
124354,140609,10676,-0.078,-0.977,0.128,-0.366,0.854,0.366,238.576
124335,140794,9274,-0.082,-0.974,0.13,-0.61,1.22,0.244,238.58
124335,140609,10688,-0.08,-0.973,0.131,-0.61,1.22,0.244,238.586
124336,140794,9274,-0.077,-0.977,0.138,-0.244,0.61,0.244,238.59
124336,140613,10673,-0.075,-0.974,0.132,-0.244,0.61,0.244,238.596
124340,140794,9274,-0.075,-0.974,0.131,-0.122,0.244,0.183,238.6
124340,140600,10696,-0.077,-0.975,0.133,-0.122,0.244,0.183,238.606
124352,140794,9274,-0.077,-0.975,0.133,-0.244,0.427,0.183,238.61
124352,140618,10675,-0.075,-0.975,0.133,-0.244,0.427,0.183,238.616
124356,140794,9274,-0.074,-0.976,0.13,-0.305,0.244,0.183,238.62
124356,140612,10689,-0.07,-0.974,0.133,-0.305,0.244,0.183,238.626
124363,140794,9274,-0.075,-0.973,0.129,-0.366,0.122,0.183,238.629
124363,140592,10664,-0.074,-0.974,0.129,-0.366,0.122,0.183,238.636
124347,140794,9274,-0.074,-0.977,0.131,-0.244,0.183,0.366,238.639
124347,140607,10685,-0.078,-0.978,0.129,-0.244,0.183,0.366,238.645
124360,140794,9274,-0.078,-0.978,0.131,-0.122,0.122,0.427,238.649
124360,140624,10681,-0.077,-0.978,0.129,-0.122,0.122,0.427,238.655
124337,140794,9274,-0.077,-0.979,0.129,-0.61,0.122,0.488,238.659
124337,140627,10692,-0.078,-0.977,0.13,-0.61,0.122,0.488,238.665
124358,140794,9274,-0.079,-0.982,0.131,-0.793,0.305,0.427,238.669
124358,140630,10685,-0.079,-0.98,0.13,-0.793,0.305,0.427,238.675
124340,140794,9274,-0.08,-0.98,0.132,-0.732,0.366,0.427,238.679
124340,140603,10681,-0.079,-0.982,0.136,-0.732,0.366,0.427,238.685
124351,140794,9274,-0.078,-0.978,0.135,-0.549,0.305,0.366,238.689
124351,140611,10684,-0.083,-0.98,0.134,-0.549,0.305,0.366,238.695
124325,140794,9274,-0.077,-0.977,0.132,-0.427,0.244,0.366,238.699
124325,140606,10687,-0.078,-0.977,0.131,-0.427,0.244,0.366,238.705
124365,140794,9274,-0.08,-0.975,0.129,-0.427,0.244,0.427,238.709
124365,140639,10685,-0.08,-0.976,0.127,-0.427,0.244,0.427,238.715
124359,140794,9274,-0.076,-0.977,0.12,-0.549,0.183,0.305,238.718
124359,140617,10692,-0.074,-0.977,0.124,-0.549,0.183,0.305,238.725
124356,140794,9274,-0.075,-0.979,0.124,-0.244,0.122,0.244,238.728
124356,140614,10685,-0.079,-0.981,0.129,-0.244,0.122,0.244,238.735
124366,140794,9274,-0.079,-0.978,0.126,-0.061,0.366,0.305,238.738
124366,140597,10681,-0.075,-0.978,0.125,-0.061,0.366,0.305,238.744
124339,140794,9274,-0.075,-0.979,0.126,-0.122,0.427,0.244,238.748
124339,140611,10701,-0.078,-0.974,0.128,-0.122,0.427,0.244,238.754
124365,140794,9274,-0.077,-0.977,0.127,-0.122,0.488,0.305,238.758
124365,140615,10693,-0.076,-0.978,0.134,-0.122,0.488,0.305,238.764
124352,140794,9274,-0.075,-0.976,0.131,-0.183,0.549,0.427,238.768
124352,140630,10688,-0.076,-0.975,0.131,-0.183,0.549,0.427,238.774
124349,140794,9274,-0.075,-0.975,0.129,-0.549,0.488,0.427,238.778
124349,140618,10685,-0.076,-0.978,0.132,-0.549,0.488,0.427,238.784
124360,140794,9274,-0.078,-0.98,0.132,-0.61,0.549,0.366,238.788
124360,140624,10691,-0.077,-0.981,0.13,-0.61,0.549,0.366,238.794
124338,140794,9274,-0.074,-0.978,0.132,-0.305,0.671,0.305,238.798
124338,140604,10697,-0.076,-0.978,0.133,-0.305,0.671,0.305,238.804
124350,140794,9274,-0.076,-0.974,0.134,-0.122,0.549,0.305,238.808
124350,140630,10695,-0.077,-0.97,0.132,-0.122,0.549,0.305,238.814
124357,140794,9274,-0.074,-0.972,0.13,-0.122,0.549,0.366,238.818
124357,140614,10686,-0.074,-0.974,0.136,-0.122,0.549,0.366,238.824
124341,140794,9274,-0.078,-0.974,0.134,-0.122,0.61,0.366,238.827
124341,140612,10692,-0.08,-0.976,0.127,-0.122,0.61,0.366,238.834
124362,140794,9274,-0.077,-0.977,0.128,-0.61,0.488,0.427,238.837
124362,140597,10671,-0.078,-0.975,0.126,-0.61,0.488,0.427,238.843
124351,140794,9274,-0.078,-0.975,0.126,-0.61,0.488,0.427,238.847
124351,140639,10695,-0.078,-0.979,0.129,-0.183,0.366,0.427,238.853
124360,140794,9274,-0.078,-0.979,0.129,-0.183,0.366,0.427,238.857
124360,140603,10680,-0.078,-0.977,0.132,0.061,0.427,0.366,238.863
124355,140794,9274,-0.078,-0.977,0.132,0.061,0.427,0.366,238.867
124355,140602,10689,-0.075,-0.976,0.125,-0.427,0.366,0.366,238.873
124356,140794,9274,-0.075,-0.976,0.125,-0.427,0.366,0.366,238.877
124356,140593,10684,-0.075,-0.983,0.127,-0.732,0.244,0.305,238.883
124356,140794,9274,-0.075,-0.983,0.127,-0.732,0.244,0.305,238.887
124356,140617,10688,-0.078,-0.982,0.134,-0.732,0.244,0.244,238.893
124344,140794,9274,-0.078,-0.982,0.134,-0.732,0.244,0.244,238.897
124344,140609,10689,-0.074,-0.976,0.127,-0.61,0.244,0.244,238.903
124344,140794,9274,-0.074,-0.976,0.127,-0.61,0.244,0.244,238.907
124344,140602,10679,-0.074,-0.972,0.126,-0.244,0.366,0.305,238.913
124323,140794,9274,-0.074,-0.972,0.126,-0.244,0.366,0.305,238.917
124323,140593,10680,-0.079,-0.977,0.129,-0.122,0.366,0.427,238.923
124330,140794,9274,-0.079,-0.977,0.129,-0.122,0.366,0.427,238.926
124330,140605,10676,-0.077,-0.977,0.128,-0.061,0.366,0.366,238.933
124309,140794,9274,-0.077,-0.977,0.128,-0.061,0.366,0.366,238.936
124309,140598,10689,-0.078,-0.978,0.132,-0.427,0.427,0.305,238.943
124334,140794,9274,-0.078,-0.978,0.132,-0.427,0.427,0.305,238.946
124334,140589,10669,-0.077,-0.979,0.134,-0.427,0.488,0.305,238.952
124332,140794,9274,-0.077,-0.979,0.134,-0.427,0.488,0.305,238.956
124332,140594,10683,-0.077,-0.975,0.13,-0.427,0.488,0.366,238.962
124348,140794,9274,-0.077,-0.975,0.13,-0.427,0.488,0.366,238.966
124348,140582,10681,-0.075,-0.973,0.132,-0.122,0.549,0.366,238.972
124327,140794,9274,-0.075,-0.973,0.132,-0.122,0.549,0.366,238.976
