127402,143947,11077,-0.029,-0.969,0.19,-0.183,0.488,0.671,99.828
127409,144030,10825,-0.027,-0.969,0.183,-0.915,0.122,0.366,99.831
127409,143952,11065,-0.029,-0.969,0.173,-0.915,0.122,0.366,99.838
127409,144030,10825,-0.026,-0.968,0.168,-0.488,0.244,0.061,99.841
127409,143969,11063,-0.025,-0.97,0.18,-0.488,0.244,0.061,99.847
127397,144030,10825,-0.028,-0.969,0.19,-0.183,0.427,0.366,99.851
127397,143945,11061,-0.031,-0.966,0.191,-0.183,0.427,0.366,99.857
127363,144030,10825,-0.037,-0.964,0.183,-1.037,0.793,0.488,99.861
127363,143921,11052,-0.031,-0.97,0.187,-1.037,0.793,0.488,99.867
127385,144030,10825,-0.032,-0.981,0.194,-1.098,0.427,0.366,99.871
127385,143921,11070,-0.033,-0.975,0.198,-1.098,0.427,0.366,99.877
127399,144030,10825,-0.032,-0.967,0.198,-1.768,0.427,0,99.881
127399,143958,11072,-0.027,-0.973,0.207,-1.768,0.427,0,99.887
127463,144030,10825,-0.029,-0.98,0.196,-1.524,0.061,0.915,99.891
127463,143981,11070,-0.031,-0.979,0.174,-1.524,0.061,0.915,99.897
127440,144030,10825,-0.03,-0.979,0.171,2.073,0.122,0.976,99.901
127440,144005,11071,-0.03,-0.979,0.212,2.073,0.122,0.976,99.907
127454,144030,10825,-0.031,-0.979,0.267,2.195,0.976,0.183,99.911
127454,143995,11086,-0.043,-0.961,0.243,2.195,0.976,0.183,99.917
127432,144030,10825,-0.046,-0.927,0.135,-2.988,1.159,0.061,99.921
127432,143955,11074,-0.039,-0.951,0.105,-2.988,1.159,0.061,99.927
127441,144030,10825,-0.029,-1,0.193,-2.195,-0.061,0.488,99.93
127441,143996,11052,-0.025,-1.005,0.224,-2.195,-0.061,0.488,99.937
127429,144030,10825,-0.031,-0.978,0.166,-0.244,-0.183,-0.549,99.94
127429,143959,11082,-0.035,-0.966,0.146,-0.244,-0.183,-0.549,99.947
127422,144030,10825,-0.027,-0.989,0.196,-0.793,1.22,-0.122,99.95
127422,143979,11068,-0.02,-0.994,0.248,-0.793,1.22,-0.122,99.956
127452,144030,10825,-0.023,-0.95,0.205,0.976,1.463,-0.488,99.96
127452,144002,11065,-0.037,-0.922,0.133,0.976,1.463,-0.488,99.966
127443,144030,10825,-0.036,-0.939,0.125,-1.951,1.22,0.061,99.97
127443,144016,11088,-0.033,-0.969,0.159,-1.951,1.22,0.061,99.976
127462,144030,10825,-0.031,-0.983,0.18,2.134,0.793,0.061,99.98
127462,144020,11064,-0.032,-0.981,0.168,2.134,0.793,0.061,99.986
127457,144030,10825,-0.028,-0.976,0.157,-1.22,0.61,-0.366,99.99
127457,144007,11066,-0.022,-0.977,0.159,-1.22,0.61,-0.366,99.996
127450,144030,10825,-0.017,-0.979,0.171,1.22,0.671,0.488,100
127450,144006,11071,-0.02,-0.974,0.191,1.22,0.671,0.488,100.006
127471,144030,10825,-0.02,-0.974,0.191,1.22,0.671,0.488,100.01
127471,144042,11089,-0.029,-0.942,0.204,2.195,1.829,0.061,100.016
127482,144030,10825,-0.029,-0.942,0.204,2.195,1.829,0.061,100.02
127482,144032,11074,-0.029,-0.986,0.206,-0.366,1.463,0.793,100.026
127508,144030,10825,-0.029,-0.986,0.206,-0.366,1.463,0.793,100.029
127508,144026,11083,-0.021,-0.977,0.224,1.402,0.061,0.549,100.036
127491,144030,10825,-0.021,-0.977,0.224,1.402,0.061,0.549,100.039
127491,144020,11089,-0.028,-0.96,0.181,-0.915,-0.183,0.061,100.046
127529,144030,10825,-0.028,-0.96,0.181,-0.915,-0.183,0.061,100.049
127529,144072,11095,-0.04,-0.98,0.21,-0.122,0.671,0.244,100.055
127542,144030,10825,-0.04,-0.98,0.21,-0.122,0.671,0.244,100.059
127542,144069,11096,-0.035,-0.97,0.168,-0.915,0.305,-0.183,100.065
127539,144030,10825,-0.035,-0.97,0.168,-0.915,0.305,-0.183,100.069
127539,144070,11096,-0.021,-0.966,0.187,-0.732,-0.671,0,100.075
127537,144030,10825,-0.021,-0.966,0.187,-0.732,-0.671,0,100.079
127537,144037,11097,-0.02,-0.939,0.175,2.683,-0.305,0.061,100.085
127522,144030,10825,-0.02,-0.939,0.175,2.683,-0.305,0.061,100.089
127522,144046,11090,-0.042,-0.951,0.181,2.073,0.915,0.366,100.095
127494,144030,10825,-0.042,-0.951,0.181,2.073,0.915,0.366,100.099
127494,144044,11074,-0.043,-0.988,0.206,-0.244,1.463,0.61,100.105
127520,144030,10825,-0.043,-0.988,0.206,-0.244,1.463,0.61,100.109
127520,144042,11089,-0.035,-0.995,0.2,-3.659,-0.122,0.671,100.115
127540,144030,10825,-0.035,-0.995,0.2,-3.659,-0.122,0.671,100.119
127540,144056,11096,-0.023,-0.99,0.192,-2.195,-1.402,0.915,100.125
127525,144030,10825,-0.023,-0.99,0.192,-2.195,-1.402,0.915,100.128
127525,144056,11089,-0.036,-0.952,0.17,2.378,0.122,-0.244,100.135
127525,144030,10825,-0.036,-0.952,0.17,2.378,0.122,-0.244,100.138
127525,144037,11085,-0.033,-0.965,0.18,2.805,1.341,-0.305,100.145
127484,144030,10825,-0.033,-0.965,0.18,2.805,1.341,-0.305,100.148
127484,144011,11086,-0.031,-0.973,0.187,1.463,0.488,-0.122,100.154
127440,144030,10825,-0.026,-0.973,0.184,1.463,0.488,-0.122,100.158
127440,144000,11086,-0.027,-0.962,0.163,-1.402,0.366,-0.244,100.164
127416,144030,10825,-0.022,-0.96,0.158,-1.402,0.366,-0.244,100.168
127416,143995,11071,-0.021,-0.969,0.175,-0.366,0.61,0,100.174
127465,144030,10825,-0.022,-0.973,0.179,-0.366,0.61,0,100.178
127465,144000,11070,-0.022,-0.965,0.176,0.793,1.098,-0.488,100.184
127400,144030,10825,-0.025,-0.963,0.192,0.793,1.098,-0.488,100.188
127400,143955,11055,-0.029,-0.963,0.195,-1.159,1.463,-0.183,100.194
127377,144030,10825,-0.026,-0.961,0.186,-1.159,1.463,-0.183,100.198
127377,143955,11054,-0.019,-0.96,0.186,-1.402,0.976,0.305,100.204
127485,144030,10825,-0.018,-0.964,0.196,-1.402,0.976,0.305,100.208
127485,144017,11077,-0.02,-0.97,0.196,0.122,0.183,0.549,100.214
127455,144030,10825,-0.02,-0.972,0.2,0.122,0.183,0.549,100.218
127455,143996,11071,-0.028,-0.968,0.204,1.037,0.61,0.488,100.224
127460,144030,10825,-0.034,-0.964,0.203,1.037,0.61,0.488,100.227
127460,144030,11088,-0.04,-0.963,0.195,-0.793,0.976,0.793,100.234
127421,144030,10825,-0.038,-0.977,0.191,-0.793,0.976,0.793,100.237
127421,143961,11060,-0.035,-0.991,0.198,-0.549,0.122,0.854,100.244
127431,144030,10825,-0.032,-0.998,0.209,-0.549,0.122,0.854,100.247
127431,143991,11063,-0.031,-0.987,0.207,-0.061,-0.427,0.183,100.253
127460,144030,10825,-0.034,-0.97,0.191,-0.061,-0.427,0.183,100.257
127460,143994,11065,-0.032,-0.963,0.185,-0.793,0,0.122,100.263
127472,144030,10825,-0.029,-0.966,0.181,-0.793,0,0.122,100.267
127472,144010,11078,-0.028,-0.971,0.175,0.854,-0.061,0.183,100.273
127490,144030,10825,-0.029,-0.967,0.181,0.854,-0.061,0.183,100.277
127490,144008,11087,-0.03,-0.959,0.188,0.244,0.122,0.122,100.283
127458,144030,10825,-0.032,-0.955,0.189,0.244,0.122,0.122,100.287
127458,143979,11069,-0.027,-0.963,0.187,-1.098,0.366,0.549,100.293
127405,144030,10825,-0.028,-0.971,0.186,-1.098,0.366,0.549,100.297
127405,143948,11060,-0.027,-0.971,0.203,-1.159,0.183,0.061,100.303
127432,144030,10825,-0.026,-0.969,0.228,-1.159,0.183,0.061,100.307
127432,143993,11056,-0.034,-0.962,0.205,-3.293,-0.305,0.488,100.313
127417,144030,10825,-0.032,-0.966,0.163,-3.293,-0.305,0.488,100.317
127417,143952,11058,-0.025,-0.979,0.155,0.122,-0.366,1.28,100.323
127412,144030,10825,-0.022,-0.981,0.173,0.122,-0.366,1.28,100.326
127412,143962,11058,-0.027,-0.966,0.183,3.659,0.183,0.61,100.333
127392,144030,10825,-0.036,-0.947,0.17,3.659,0.183,0.61,100.336
127392,143943,11055,-0.038,-0.946,0.162,1.768,1.646,0.793,100.343
127374,144030,10825,-0.034,-0.965,0.173,1.768,1.646,0.793,100.346
127374,143961,11064,-0.029,-0.978,0.187,1.768,0.854,1.098,100.352
127370,144030,10825,-0.029,-0.983,0.191,1.768,0.854,1.098,100.356
127370,143948,11051,-0.033,-0.982,0.184,-1.159,0.305,0.427,100.362
127365,144030,10825,-0.033,-0.989,0.192,-1.159,0.305,0.427,100.366
127365,143916,11041,-0.03,-0.995,0.193,-2.622,0.427,0.305,100.372
127353,144030,10825,-0.032,-0.996,0.19,-2.622,0.427,0.305,100.376
127353,143894,11045,-0.03,-0.992,0.189,-0.976,0,-0.183,100.382
127334,144030,10825,-0.023,-0.974,0.191,-0.976,0,-0.183,100.386
127334,143927,11048,-0.016,-0.959,0.211,0.305,0,-0.549,100.392
127366,144030,10825,-0.018,-0.955,0.226,0.305,0,-0.549,100.396
127366,143937,11044,-0.024,-0.956,0.217,-0.122,0.183,-0.183,100.402
127383,144030,10825,-0.026,-0.957,0.19,-0.122,0.183,-0.183,100.406
127383,143954,11060,-0.027,-0.958,0.195,-1.585,-0.183,0.183,100.412
127358,144030,10825,-0.033,-0.966,0.202,-1.585,-0.183,0.183,100.416
127358,143929,11049,-0.035,-0.977,0.186,-1.89,-0.61,0.488,100.422
127354,144030,10825,-0.033,-0.984,0.176,-1.89,-0.61,0.488,100.425
127354,143913,11043,-0.033,-0.973,0.15,1.341,-0.549,0.183,100.432
127341,144030,10825,-0.029,-0.965,0.16,1.341,-0.549,0.183,100.435
127341,143899,11043,-0.019,-0.958,0.188,3.841,0.244,0.488,100.442
127359,144030,10825,-0.028,-0.939,0.174,3.841,0.244,0.488,100.445
127359,143931,11050,-0.041,-0.935,0.147,1.951,1.707,0.488,100.451
127374,144030,10825,-0.042,-0.946,0.143,1.951,1.707,0.488,100.455
127374,143931,11046,-0.038,-0.972,0.149,0.122,1.951,0.793,100.461
127368,144030,10825,-0.033,-0.996,0.164,0.122,1.951,0.793,100.465
127368,143934,11058,-0.026,-1.003,0.186,0.61,0.976,0.61,100.471
127371,144030,10825,-0.02,-0.99,0.187,0.61,0.976,0.61,100.475
127371,143939,11054,-0.017,-0.972,0.187,0.732,1.28,0.549,100.481
127363,144030,10825,-0.015,-0.96,0.2,0.732,1.28,0.549,100.485
127363,143918,11047,-0.017,-0.959,0.218,1.707,2.195,0.488,100.491
127350,144030,10825,-0.024,-0.968,0.231,1.707,2.195,0.488,100.495
127350,143925,11059,-0.026,-0.988,0.24,0.854,1.341,0.671,100.501
127360,144030,10825,-0.03,-1.009,0.275,0.854,1.341,0.671,100.505
127360,143919,11040,-0.036,-1.003,0.257,0.061,-0.061,0.915,100.511
127367,144030,10825,-0.04,-0.967,0.176,0.061,-0.061,0.915,100.515
127367,143915,11054,-0.037,-0.954,0.123,-1.341,-0.061,0.061,100.521
127368,144030,10825,-0.022,-0.978,0.156,-1.341,-0.061,0.061,100.524
127368,143945,11058,-0.016,-0.99,0.205,5.488,-0.549,-0.427,100.531
127362,144030,10825,-0.018,-0.971,0.225,5.488,-0.549,-0.427,100.534
127362,143971,11057,-0.026,-0.923,0.203,2.378,1.037,-0.793,100.541
127385,144030,10825,-0.035,-0.909,0.143,2.378,1.037,-0.793,100.544
127385,143928,11054,-0.044,-0.95,0.134,-1.89,2.012,1.098,100.55
127362,144030,10825,-0.037,-0.985,0.166,-1.89,2.012,1.098,100.554
127362,143928,11064,-0.033,-0.984,0.18,2.073,0.732,0.854,100.56
127336,144030,10825,-0.036,-0.967,0.163,2.073,0.732,0.854,100.564
127336,143916,11035,-0.034,-0.961,0.155,-1.402,0.427,0.793,100.57
127358,144030,10825,-0.026,-0.975,0.171,-1.402,0.427,0.793,100.574
127358,143939,11048,-0.021,-0.971,0.195,2.134,0.793,1.159,100.58
127324,144030,10825,-0.021,-0.95,0.204,2.134,0.793,1.159,100.584
127324,143926,11045,-0.032,-0.936,0.201,1.89,1.768,0.976,100.59
127401,144030,10825,-0.032,-0.936,0.201,1.89,1.768,0.976,100.594
127401,143979,11057,-0.04,-0.968,0.223,0.061,1.463,1.707,100.6
127453,144030,10825,-0.04,-0.968,0.223,0.061,1.463,1.707,100.604
127453,144017,11072,-0.036,-1.017,0.208,-0.244,0.061,0.915,100.61
127427,144030,10825,-0.036,-1.017,0.208,-0.244,0.061,0.915,100.614
127427,143968,11068,-0.03,-0.982,0.176,-0.732,-0.061,0.427,100.62
127428,144030,10825,-0.03,-0.982,0.176,-0.732,-0.061,0.427,100.623
127428,143993,11076,-0.023,-0.977,0.185,2.012,0.976,0.183,100.63
127416,144030,10825,-0.023,-0.977,0.185,2.012,0.976,0.183,100.633
127416,143997,11065,-0.033,-0.963,0.188,3.537,1.341,-0.732,100.64
127408,144030,10825,-0.033,-0.963,0.188,3.537,1.341,-0.732,100.643
127408,143971,11046,-0.023,-0.959,0.183,0.305,0.976,-0.488,100.649
127408,144030,10825,-0.023,-0.959,0.183,0.305,0.976,-0.488,100.653
127408,143998,11064,-0.014,-0.968,0.206,3.415,0.488,-0.61,100.659
127405,144030,10825,-0.014,-0.968,0.206,3.415,0.488,-0.61,100.663
127405,143968,11048,-0.03,-0.945,0.231,-0.061,1.22,-0.305,100.669
127317,144030,10825,-0.03,-0.945,0.231,-0.061,1.22,-0.305,100.673
127317,143909,11057,-0.046,-0.962,0.173,-1.89,1.707,0.549,100.679
127326,144030,10825,-0.046,-0.962,0.173,-1.89,1.707,0.549,100.683
127326,143906,11050,-0.033,-0.989,0.198,0.366,-0.183,0.671,100.689
127307,144030,10825,-0.033,-0.989,0.198,0.366,-0.183,0.671,100.693
127307,143930,11048,-0.029,-0.969,0.189,0.793,-0.61,0.427,100.699
127363,144030,10825,-0.029,-0.969,0.189,0.793,-0.61,0.427,100.703
127363,143949,11053,-0.032,-0.96,0.21,1.89,0.793,0.61,100.709
127403,144030,10825,-0.032,-0.96,0.21,1.89,0.793,0.61,100.713
127403,143958,11058,-0.043,-0.958,0.184,-0.305,0.854,0.549,100.719
127375,144030,10825,-0.043,-0.958,0.184,-0.305,0.854,0.549,100.722
127375,143939,11056,-0.03,-0.981,0.193,-2.012,-0.366,0.122,100.729
127376,144030,10825,-0.03,-0.981,0.193,-2.012,-0.366,0.122,100.732
127376,143952,11050,-0.028,-0.983,0.186,-2.012,-0.366,0.122,100.739
127405,144030,10825,-0.025,-0.983,0.18,-1.89,-0.793,0,100.742
127405,143960,11060,-0.023,-0.977,0.179,-1.89,-0.793,0,100.748
127346,144030,10825,-0.021,-0.959,0.187,0.122,0.244,0.061,100.752
127346,143938,11063,-0.028,-0.95,0.184,0.122,0.244,0.061,100.758
127332,144030,10825,-0.03,-0.956,0.193,0.61,0.915,0.366,100.762
127332,143887,11054,-0.029,-0.968,0.215,0.61,0.915,0.366,100.768
127294,144030,10825,-0.027,-0.971,0.215,0.488,0.183,0.244,100.772
127294,143886,11046,-0.029,-0.966,0.194,0.488,0.183,0.244,100.778
127280,143774,10825,-0.029,-0.96,0.175,-2.012,-0.061,0.427,100.782
127280,143868,11034,-0.029,-0.962,0.188,-2.012,-0.061,0.427,100.788
127277,144030,10825,-0.027,-0.97,0.197,0.61,0,0.976,100.792
127277,143884,11043,-0.027,-0.965,0.188,0.61,0,0.976,100.798
127352,144030,10825,-0.023,-0.954,0.185,2.622,0.061,0.61,100.802
127352,143939,11049,-0.023,-0.955,0.2,2.622,0.061,0.61,100.808
127338,144030,10825,-0.023,-0.966,0.235,1.22,0.305,0.854,100.812
127338,143911,11048,-0.034,-0.967,0.227,1.22,0.305,0.854,100.818
127278,143774,10825,-0.045,-0.964,0.175,-2.5,0.488,0.976,100.821
127278,143856,11047,-0.044,-0.976,0.151,-2.5,0.488,0.976,100.828
127331,144030,10825,-0.032,-1.003,0.175,-2.683,-0.183,0.793,100.831
127331,143909,11050,-0.024,-1.008,0.193,-2.683,-0.183,0.793,100.838
127328,144030,10825,-0.02,-0.99,0.177,0.122,-0.61,-0.122,100.841
127328,143895,11036,-0.015,-0.976,0.151,0.122,-0.61,-0.122,100.847
127335,144030,10825,-0.02,-0.983,0.167,2.195,0.671,-0.305,100.851
127335,143905,11047,-0.024,-0.971,0.194,2.195,0.671,-0.305,100.857
127334,144030,10825,-0.035,-0.941,0.19,2.5,2.439,-0.366,100.861
127334,143905,11060,-0.037,-0.94,0.194,2.5,2.439,-0.366,100.867
127276,143774,10825,-0.03,-0.967,0.214,0.61,1.22,0.549,100.871
127276,143843,11034,-0.023,-0.98,0.217,0.61,1.22,0.549,100.877
127272,143774,10825,-0.018,-0.987,0.221,2.988,-0.305,0,100.881
127272,143865,11045,-0.017,-0.972,0.243,2.988,-0.305,0,100.887
127319,144030,10825,-0.033,-0.941,0.219,-0.976,0.366,-0.305,100.891
127319,143894,11031,-0.045,-0.927,0.17,-0.976,0.366,-0.305,100.897
127328,144030,10825,-0.039,-0.945,0.182,-2.866,1.22,0.854,100.901
127328,143884,11039,-0.036,-0.975,0.215,-2.866,1.22,0.854,100.907
127312,144030,10825,-0.034,-0.983,0.204,-0.122,-0.305,0.61,100.911
127312,143908,11045,-0.028,-0.974,0.18,-0.122,-0.305,0.61,100.917
127288,144030,10825,-0.022,-0.967,0.179,-1.037,-0.671,0.305,100.92
127288,143887,11041,-0.02,-0.963,0.186,-1.037,-0.671,0.305,100.927
127321,144030,10825,-0.025,-0.965,0.181,1.402,0.61,0.732,100.93
127321,143906,11037,-0.035,-0.964,0.183,1.402,0.61,0.732,100.937
127308,144030,10825,-0.04,-0.963,0.182,1.402,1.524,0.488,100.94
127308,143890,11039,-0.041,-0.966,0.183,1.402,1.524,0.488,100.946
127266,144030,10825,-0.036,-0.974,0.188,-1.22,1.159,0.488,100.95
127266,143874,11031,-0.027,-0.986,0.202,-1.22,1.159,0.488,100.956
127307,144030,10825,-0.018,-0.986,0.206,0.183,0.061,0.183,100.96
127307,143907,11042,-0.011,-0.982,0.218,0.183,0.061,0.183,100.966
127330,144030,10825,-0.018,-0.971,0.249,0.732,0.366,-0.122,100.97
127330,143912,11044,-0.037,-0.949,0.236,0.732,0.366,-0.122,100.976
127312,144030,10825,-0.047,-0.938,0.191,-2.561,1.341,0.305,100.98
127312,143897,11062,-0.045,-0.956,0.182,-2.561,1.341,0.305,100.986
127269,143774,10825,-0.035,-0.992,0.2,-2.317,-0.061,0.183,100.99
127269,143866,11029,-0.027,-0.997,0.194,-2.317,-0.061,0.183,100.996
127275,144030,10825,-0.021,-0.978,0.18,-0.854,-1.037,-0.549,101
127275,143876,11042,-0.019,-0.955,0.166,-0.854,-1.037,-0.549,101.006
127316,144030,10825,-0.019,-0.949,0.159,-0.061,0.61,0.183,101.01
127316,143911,11034,-0.022,-0.949,0.159,-0.061,0.61,0.183,101.016
127343,144030,10825,-0.021,-0.937,0.149,3.415,1.951,0.671,101.019
127343,143925,11034,-0.023,-0.934,0.165,3.415,1.951,0.671,101.026
127340,144030,10825,-0.034,-0.951,0.193,0.732,2.012,0.732,101.029
127340,143907,11045,-0.035,-0.968,0.202,0.732,2.012,0.732,101.036
127313,144030,10825,-0.034,-0.982,0.205,-2.744,1.402,0.976,101.039
127313,143895,11049,-0.027,-0.991,0.216,-2.744,1.402,0.976,101.045
127309,144030,10825,-0.026,-0.998,0.219,-4.451,0.427,0.671,101.049
127309,143893,11022,-0.024,-1.004,0.22,-4.451,0.427,0.671,101.055
127327,144030,10825,-0.025,-1.009,0.228,-2.5,0.305,0,101.059
127327,143897,11039,-0.032,-1.001,0.225,-2.5,0.305,0,101.065
127328,144030,10825,-0.036,-0.992,0.2,-1.341,0.549,-0.183,101.069
127328,143877,11021,-0.034,-0.99,0.186,-1.341,0.549,-0.183,101.075
127300,144030,10825,-0.029,-0.978,0.178,-0.488,0.183,-0.915,101.079
127300,143875,11037,-0.024,-0.967,0.18,-0.488,0.183,-0.915,101.085
127269,143774,10825,-0.021,-0.96,0.196,0.854,-0.183,-1.098,101.089
127269,143865,11006,-0.021,-0.948,0.198,0.854,-0.183,-1.098,101.095
127277,143774,10825,-0.024,-0.936,0.18,1.951,0.244,-0.427,101.099
127277,143870,11033,-0.022,-0.928,0.176,1.951,0.244,-0.427,101.105
127341,144030,10825,-0.03,-0.925,0.172,0.488,0.793,0,101.109
127341,143899,11022,-0.032,-0.937,0.173,0.488,0.793,0,101.115
127338,144030,10825,-0.036,-0.959,0.191,-0.976,0.488,0.488,101.118
127338,143921,11037,-0.039,-0.968,0.213,-0.976,0.488,0.488,101.125
127365,144030,10825,-0.036,-0.966,0.21,-2.012,-0.061,1.037,101.128
127365,143949,11052,-0.033,-0.967,0.196,-2.012,-0.061,1.037,101.135
127333,144030,10825,-0.031,-0.978,0.196,-1.707,-0.122,0.976,101.138
127333,143892,11025,-0.027,-0.982,0.21,-1.707,-0.122,0.976,101.144
127339,144030,10825,-0.033,-0.972,0.208,-0.488,0.122,0.61,101.148
127339,143897,11056,-0.038,-0.967,0.194,-0.488,0.122,0.61,101.154
127378,144030,10825,-0.037,-0.969,0.196,-1.463,0.488,0.915,101.158
127378,143962,11052,-0.03,-0.979,0.193,-1.463,0.488,0.915,101.164
127360,144030,10825,-0.026,-0.991,0.193,-1.037,-0.183,0.732,101.168
127360,143928,11045,-0.02,-0.993,0.196,-1.037,-0.183,0.732,101.174
127355,144030,10825,-0.021,-0.975,0.192,-0.305,-0.305,0.549,101.178
127355,143932,11040,-0.021,-0.959,0.197,-0.305,-0.305,0.549,101.184
127343,144030,10825,-0.021,-0.959,0.197,-0.305,-0.305,0.549,101.188
127343,143924,11051,-0.027,-0.948,0.199,0.183,0.671,1.159,101.194
127337,144030,10825,-0.027,-0.948,0.199,0.183,0.671,1.159,101.198
127337,143938,11048,-0.022,-0.948,0.17,1.22,0.732,1.098,101.204
127315,144030,10825,-0.022,-0.948,0.17,1.22,0.732,1.098,101.208
127315,143892,11046,-0.028,-0.965,0.203,-0.183,0.305,1.037,101.214
127278,143774,10825,-0.028,-0.965,0.203,-0.183,0.305,1.037,101.217
127278,143871,11041,-0.033,-0.97,0.182,-1.341,0.183,1.524,101.224
127296,144030,10825,-0.033,-0.97,0.182,-1.341,0.183,1.524,101.227
127296,143874,11034,-0.028,-0.972,0.182,-1.402,0.183,1.707,101.234
127323,144030,10825,-0.028,-0.972,0.182,-1.402,0.183,1.707,101.237
127323,143893,11049,-0.028,-0.983,0.197,-0.183,-0.244,1.829,101.243
127296,144030,10825,-0.028,-0.983,0.197,-0.183,-0.244,1.829,101.247
127296,143878,11037,-0.04,-0.965,0.189,0.183,-0.061,2.012,101.253
127314,144030,10825,-0.04,-0.965,0.189,0.183,-0.061,2.012,101.257
127314,143886,11031,-0.03,-0.979,0.194,-0.915,0.366,2.134,101.263
127343,144030,10825,-0.03,-0.979,0.194,-0.915,0.366,2.134,101.267
127343,143937,11058,-0.027,-0.975,0.191,-1.159,-0.122,1.585,101.273
127392,144030,10825,-0.027,-0.975,0.191,-1.159,-0.122,1.585,101.277
127392,143944,11043,-0.032,-0.992,0.208,-2.5,-0.427,1.402,101.283
127379,144030,10825,-0.032,-0.992,0.208,-2.5,-0.427,1.402,101.287
127379,143923,11049,-0.034,-0.957,0.151,-1.646,0,1.037,101.293
127354,144030,10825,-0.034,-0.957,0.151,-1.646,0,1.037,101.297
127354,143901,11034,-0.024,-0.978,0.186,-2.012,0,1.159,101.303
127321,144030,10825,-0.024,-0.978,0.186,-2.012,0,1.159,101.307
127321,143895,11033,-0.032,-0.958,0.182,0.61,0.183,0.976,101.313
127314,144030,10825,-0.032,-0.958,0.182,0.61,0.183,0.976,101.316
127314,143880,11044,-0.034,-0.972,0.179,-1.28,1.098,0.732,101.323
127316,144030,10825,-0.034,-0.972,0.179,-1.28,1.098,0.732,101.326
127316,143933,11052,-0.033,-0.968,0.188,-1.341,1.28,0.549,101.333
127358,144030,10825,-0.03,-0.956,0.187,-1.341,1.28,0.549,101.336
127358,143950,11043,-0.026,-0.963,0.2,-2.927,0.549,1.098,101.342
127342,144030,10825,-0.027,-0.976,0.213,-2.927,0.549,1.098,101.346
127342,143943,11050,-0.031,-0.978,0.207,0.122,0.061,1.829,101.352
127371,144030,10825,-0.032,-0.975,0.205,0.122,0.061,1.829,101.356
127371,143956,11053,-0.035,-0.962,0.219,1.037,0.488,1.28,101.362
127367,144030,10825,-0.042,-0.951,0.212,1.037,0.488,1.28,101.366
127367,143930,11059,-0.043,-0.958,0.196,0.061,0.183,1.646,101.372
127341,144030,10825,-0.036,-0.966,0.18,0.061,0.183,1.646,101.376
127341,143936,11040,-0.029,-0.98,0.171,-0.549,-0.732,1.098,101.382
127354,144030,10825,-0.03,-0.985,0.173,-0.549,-0.732,1.098,101.386
127354,143900,11039,-0.033,-0.984,0.182,-1.037,-0.427,0.488,101.392
127351,144030,10825,-0.033,-0.982,0.19,-1.037,-0.427,0.488,101.396
127351,143918,11043,-0.036,-0.981,0.193,-0.854,0.427,0.732,101.402
127342,144030,10825,-0.036,-0.977,0.185,-0.854,0.427,0.732,101.406
127342,143922,11050,-0.03,-0.971,0.182,1.22,0.488,0.183,101.412
127353,144030,10825,-0.028,-0.962,0.182,1.22,0.488,0.183,101.415
127353,143923,11068,-0.03,-0.953,0.177,0.671,1.037,-0.122,101.422
127375,144030,10825,-0.03,-0.958,0.171,0.671,1.037,-0.122,101.425
127375,143946,11044,-0.032,-0.966,0.178,-0.366,1.646,0.244,101.432
127371,144030,10825,-0.035,-0.966,0.194,-0.366,1.646,0.244,101.435
127371,143918,11038,-0.031,-0.967,0.197,0.183,1.707,0.915,101.441
127394,144030,10825,-0.032,-0.967,0.197,0.183,1.707,0.915,101.445
127394,143960,11053,-0.033,-0.963,0.194,1.402,1.159,1.585,101.451
127415,144030,10825,-0.037,-0.957,0.195,1.402,1.159,1.585,101.455
127415,143967,11064,-0.047,-0.96,0.206,2.195,1.585,2.012,101.461
127385,144030,10825,-0.052,-0.965,0.209,2.195,1.585,2.012,101.465
127385,143947,11045,-0.054,-0.974,0.199,0.976,1.159,1.951,101.471
127393,144030,10825,-0.052,-0.983,0.186,0.976,1.159,1.951,101.475
127393,143942,11061,-0.04,-0.988,0.191,0.488,-0.793,1.463,101.481
127412,144030,10825,-0.032,-0.99,0.202,0.488,-0.793,1.463,101.485
127412,143957,11056,-0.033,-0.989,0.206,0.854,-1.402,0.61,101.491
127386,144030,10825,-0.035,-0.979,0.201,0.854,-1.402,0.61,101.495
127386,143931,11042,-0.036,-0.973,0.194,0.366,-0.488,0.061,101.501
127401,144030,10825,-0.037,-0.977,0.195,0.366,-0.488,0.061,101.505
127401,143953,11057,-0.036,-0.977,0.194,-0.671,-0.549,-0.366,101.511
127406,144030,10825,-0.031,-0.973,0.178,-0.671,-0.549,-0.366,101.515
127406,143977,11054,-0.024,-0.978,0.181,-0.732,-1.098,-0.732,101.521
127407,144030,10825,-0.019,-0.981,0.194,-0.732,-1.098,-0.732,101.524
127407,143952,11040,-0.022,-0.972,0.191,0.549,-0.732,-0.915,101.531
127390,144030,10825,-0.026,-0.968,0.194,0.549,-0.732,-0.915,101.534
127390,143927,11038,-0.03,-0.952,0.187,-0.122,0.427,-0.61,101.54
127373,144030,10825,-0.038,-0.938,0.172,-0.122,0.427,-0.61,101.544
127373,143929,11054,-0.036,-0.947,0.186,-1.585,0.976,0.244,101.55
127375,144030,10825,-0.032,-0.97,0.214,-1.585,0.976,0.244,101.554
127375,143941,11049,-0.034,-0.985,0.208,0.305,0.244,0,101.56
127364,144030,10825,-0.036,-0.981,0.195,0.305,0.244,0,101.564
127364,143938,11050,-0.035,-0.956,0.181,-0.122,0.366,-0.366,101.57
127363,144030,10825,-0.034,-0.95,0.158,-0.122,0.366,-0.366,101.574
127363,143954,11056,-0.037,-0.975,0.196,0.732,0.915,0,101.58
127372,144030,10825,-0.039,-0.999,0.249,0.732,0.915,0,101.584
127372,143930,11046,-0.041,-0.975,0.221,0.61,0.366,0.061,101.59
127341,144030,10825,-0.045,-0.945,0.139,0.61,0.366,0.061,101.594
127341,143918,11050,-0.042,-0.971,0.134,-3.415,0.427,0.427,101.6
127382,144030,10825,-0.03,-1.004,0.197,-3.415,0.427,0.427,101.604
127382,143935,11049,-0.032,-0.994,0.209,2.927,1.037,-0.671,101.61
127347,144030,10825,-0.041,-0.958,0.159,2.927,1.037,-0.671,101.613
127347,143923,11039,-0.049,-0.959,0.126,-0.427,2.195,-1.098,101.62
127326,144030,10825,-0.037,-0.985,0.129,-0.427,2.195,-1.098,101.623
127326,143900,11044,-0.027,-1.001,0.157,4.329,1.89,-0.732,101.63
127301,143774,10825,-0.024,-0.992,0.192,4.329,1.89,-0.732,101.633
127301,143861,11032,-0.027,-0.97,0.196,3.537,2.012,-1.829,101.639
127265,143774,10825,-0.033,-0.964,0.198,3.537,2.012,-1.829,101.643
127265,143817,11031,-0.031,-0.971,0.214,3.232,1.829,-0.915,101.649
127259,143774,10825,-0.029,-0.974,0.219,3.232,1.829,-0.915,101.653
127259,143844,11033,-0.025,-0.969,0.211,4.39,1.524,-1.951,101.659
127319,143774,10825,-0.022,-0.961,0.244,4.39,1.524,-1.951,101.663
127319,143864,11042,-0.029,-0.965,0.284,0.061,1.28,-2.012,101.669
127320,144030,10825,-0.041,-0.96,0.269,0.061,1.28,-2.012,101.673
127320,143879,11030,-0.043,-0.95,0.184,-3.902,0.793,-1.28,101.679
127377,144030,10825,-0.031,-0.959,0.129,-3.902,0.793,-1.28,101.683
127377,143899,11049,-0.014,-0.976,0.156,-0.366,-0.61,-1.707,101.689
127433,144030,10825,-0.005,-0.974,0.191,-0.366,-0.61,-1.707,101.693
127433,143960,11051,-0.01,-0.953,0.173,5,-0.549,-1.585,101.699
127506,144030,10825,-0.023,-0.94,0.137,5,-0.549,-1.585,101.703
127506,144005,11071,-0.028,-0.946,0.129,6.585,1.768,-0.122,101.709
127570,144030,10825,-0.03,-0.964,0.154,6.585,1.768,-0.122,101.713
127570,144041,11055,-0.037,-0.985,0.194,8.963,2.683,0.366,101.719
127555,144030,10825,-0.05,-0.996,0.218,8.963,2.683,0.366,101.722
127555,144056,11076,-0.054,-0.991,0.218,7.622,2.317,0.183,101.729
127558,144030,10825,-0.041,-0.969,0.2,7.622,2.317,0.183,101.732
127558,144016,11061,-0.029,-0.961,0.22,4.817,1.951,-0.488,101.738
127525,144030,10825,-0.022,-0.966,0.257,4.817,1.951,-0.488,101.742
127525,144009,11070,-0.027,-0.97,0.275,2.439,1.159,-1.341,101.748
127516,144030,10825,-0.034,-0.979,0.28,2.439,1.159,-1.341,101.752
127516,144009,11079,-0.04,-0.977,0.267,-2.988,0.305,-1.159,101.758
127517,144030,10825,-0.047,-0.969,0.208,-2.988,0.305,-1.159,101.762
127517,144036,11065,-0.039,-0.973,0.172,-3.659,-0.976,-1.707,101.768
127498,144030,10825,-0.026,-0.986,0.203,-3.659,-0.976,-1.707,101.772
127498,144009,11064,-0.018,-0.968,0.188,0.427,-2.256,-2.195,101.778
127484,144030,10825,-0.018,-0.968,0.188,0.427,-2.256,-2.195,101.782
127484,144000,11061,-0.004,-0.949,0.113,1.768,-1.22,-1.585,101.788
127512,144030,10825,-0.004,-0.949,0.113,1.768,-1.22,-1.585,101.792
127512,144040,11064,-0.025,-0.956,0.212,4.512,1.402,-0.793,101.798
127524,144030,10825,-0.025,-0.956,0.212,4.512,1.402,-0.793,101.802
127524,144006,11063,-0.047,-0.916,0.158,0.366,2.988,0.061,101.808
127498,144030,10825,-0.047,-0.916,0.158,0.366,2.988,0.061,101.811
127498,143965,11052,-0.025,-0.964,0.214,1.098,1.098,0.427,101.818
127446,144030,10825,-0.025,-0.964,0.214,1.098,1.098,0.427,101.821
127446,143954,11052,-0.03,-0.979,0.207,-0.976,0,-0.244,101.828
127409,144030,10825,-0.03,-0.979,0.207,-0.976,0,-0.244,101.831
127409,143929,11041,-0.031,-0.985,0.204,-0.244,0.915,0.488,101.838
127439,144030,10825,-0.031,-0.985,0.204,-0.244,0.915,0.488,101.841
127439,143950,11054,-0.022,-0.97,0.216,3.78,1.22,0,101.847
127457,144030,10825,-0.022,-0.97,0.216,3.78,1.22,0,101.851
127457,143983,11041,-0.025,-0.949,0.227,3.902,1.098,0.122,101.857
127466,144030,10825,-0.025,-0.949,0.227,3.902,1.098,0.122,101.861
127466,143981,11061,-0.026,-0.941,0.195,2.012,1.159,0,101.867
127524,144030,10825,-0.026,-0.941,0.195,2.012,1.159,0,101.871
127524,144018,11069,-0.018,-0.967,0.209,-0.366,0.183,-0.366,101.877
127547,144030,10825,-0.018,-0.967,0.209,-0.366,0.183,-0.366,101.881
127547,144058,11063,-0.024,-0.964,0.205,-1.159,-0.183,-0.122,101.887
127535,144030,10825,-0.024,-0.964,0.205,-1.159,-0.183,-0.122,101.891
127535,144028,11052,-0.013,-0.967,0.205,-0.976,0,0,101.897
127559,144030,10825,-0.013,-0.967,0.205,-0.976,0,0,101.901
127559,144035,11057,-0.015,-0.962,0.214,-0.183,0.061,0,101.907
127529,144030,10825,-0.015,-0.962,0.214,-0.183,0.061,0,101.911
127529,144015,11061,-0.024,-0.964,0.221,-0.915,0.122,0.549,101.917
127471,144030,10825,-0.024,-0.964,0.221,-0.915,0.122,0.549,101.92
127471,143964,11040,-0.029,-0.971,0.232,-0.915,0.122,0.549,101.927
127460,144030,10825,-0.024,-0.979,0.237,-0.183,-0.183,0.915,101.93
127460,143980,11047,-0.022,-0.97,0.218,-0.183,-0.183,0.915,101.936
127439,144030,10825,-0.026,-0.966,0.215,-0.122,-1.159,0.732,101.94
127439,143931,11037,-0.027,-0.974,0.253,-0.122,-1.159,0.732,101.946
127365,144030,10825,-0.036,-0.962,0.238,-0.305,-0.671,0.488,101.95
127365,143884,11021,-0.046,-0.953,0.172,-0.305,-0.671,0.488,101.956
127441,144030,10825,-0.046,-0.961,0.173,-1.707,-0.305,0.305,101.96
127441,143975,11042,-0.037,-0.961,0.183,-1.707,-0.305,0.305,101.966
127489,144030,10825,-0.025,-0.962,0.188,0.183,-1.159,0.366,101.97
127489,143984,11042,-0.019,-0.964,0.182,0.183,-1.159,0.366,101.976
127452,144030,10825,-0.017,-0.958,0.157,0.427,-0.488,0.244,101.98
127452,143991,11050,-0.012,-0.947,0.152,0.427,-0.488,0.244,101.986
127519,144030,10825,-0.013,-0.937,0.179,0.976,0.671,1.463,101.99
127519,143984,11054,-0.022,-0.945,0.204,0.976,0.671,1.463,101.996
127457,144030,10825,-0.035,-0.953,0.196,1.098,1.341,2.378,102
127457,143972,11055,-0.037,-0.956,0.174,1.098,1.341,2.378,102.006
127444,144030,10825,-0.034,-0.977,0.201,-0.061,0.732,2.622,102.009
127444,143986,11044,-0.033,-0.996,0.257,-0.061,0.732,2.622,102.016
127407,144030,10825,-0.037,-0.988,0.254,-0.671,-0.427,2.073,102.019
127407,143908,11035,-0.04,-0.972,0.219,-0.671,-0.427,2.073,102.026
127367,144030,10825,-0.04,-0.984,0.217,-1.707,-0.915,1.707,102.029
127367,143915,11021,-0.033,-1.009,0.262,-1.707,-0.915,1.707,102.035
127372,144030,10825,-0.037,-1.012,0.297,-0.122,-1.28,0.488,102.039
127372,143943,11025,-0.045,-0.981,0.244,-0.122,-1.28,0.488,102.045
127451,144030,10825,-0.042,-0.962,0.16,-4.39,-1.768,-0.244,102.049
127451,143991,11036,-0.026,-0.974,0.157,-4.39,-1.768,-0.244,102.055
127467,144030,10825,-0.014,-0.979,0.19,-1.098,-2.622,-0.854,102.059
127467,144010,11049,-0.01,-0.964,0.175,-1.098,-2.622,-0.854,102.065
127500,144030,10825,-0.014,-0.942,0.145,0.427,-1.89,-1.098,102.069
127500,143998,11042,-0.007,-0.94,0.131,0.427,-1.89,-1.098,102.075
127425,144030,10825,-0.005,-0.954,0.153,1.951,-0.671,-0.122,102.079
127425,143971,11038,-0.013,-0.961,0.205,1.951,-0.671,-0.122,102.085
127447,144030,10825,-0.028,-0.939,0.212,1.463,1.28,0,102.089
127447,143976,11043,-0.038,-0.931,0.196,1.463,1.28,0,102.095
127445,144030,10825,-0.037,-0.955,0.209,-2.561,1.402,1.037,102.099
127445,143979,11059,-0.032,-0.989,0.229,-2.561,1.402,1.037,102.105
127471,144030,10825,-0.027,-0.991,0.23,-1.037,-0.427,0.732,102.109
127471,143996,11050,-0.024,-0.987,0.224,-1.037,-0.427,0.732,102.115
127465,144030,10825,-0.029,-0.989,0.232,-2.622,-0.854,0.305,102.118
127465,143975,11031,-0.033,-0.991,0.231,-2.622,-0.854,0.305,102.125
127416,144030,10825,-0.033,-0.985,0.23,-0.061,-0.427,0.549,102.128
127416,143965,11046,-0.035,-0.974,0.224,-0.061,-0.427,0.549,102.134
127398,144030,10825,-0.035,-0.966,0.206,1.585,-0.549,0.488,102.138
127398,143917,11040,-0.033,-0.947,0.174,1.585,-0.549,0.488,102.144
127402,144030,10825,-0.025,-0.941,0.151,1.22,-0.61,0.183,102.148
127402,143959,11030,-0.022,-0.961,0.179,1.22,-0.61,0.183,102.154
127445,144030,10825,-0.026,-0.979,0.193,-0.122,-0.488,0,102.158
127445,143973,11041,-0.032,-0.972,0.134,-0.122,-0.488,0,102.164
127447,144030,10825,-0.028,-0.975,0.146,0.061,0.183,0.549,102.168
127447,143979,11052,-0.022,-0.99,0.217,0.061,0.183,0.549,102.174
127465,144030,10825,-0.028,-0.971,0.225,2.317,1.159,0.549,102.178
127465,144011,11025,-0.036,-0.945,0.182,2.317,1.159,0.549,102.184
127428,144030,10825,-0.038,-0.944,0.175,0.549,1.829,0.305,102.188
127428,143982,11051,-0.034,-0.959,0.182,0.549,1.829,0.305,102.194
127420,144030,10825,-0.031,-0.974,0.185,-0.122,1.159,-0.183,102.198
127420,143993,11037,-0.031,-0.984,0.204,-0.122,1.159,-0.183,102.204
127403,144030,10825,-0.028,-0.987,0.222,-2.5,0.549,-0.061,102.207
127403,143983,11025,-0.027,-0.986,0.209,-2.5,0.549,-0.061,102.214
127449,144030,10825,-0.022,-0.979,0.206,-1.463,0.549,0.183,102.217
127449,143996,11036,-0.017,-0.973,0.221,-1.463,0.549,0.183,102.224
127466,144030,10825,-0.019,-0.96,0.234,0.915,0.915,-0.61,102.227
127466,144028,11040,-0.025,-0.948,0.232,0.915,0.915,-0.61,102.234
127508,144030,10825,-0.026,-0.945,0.207,0.061,0.488,-0.427,102.237
127508,144060,11054,-0.023,-0.951,0.187,0.061,0.488,-0.427,102.243
127554,144030,10825,-0.019,-0.964,0.188,0.122,-0.671,-0.244,102.247
127554,144079,11052,-0.019,-0.977,0.193,0.122,-0.671,-0.244,102.253
127537,144030,10825,-0.018,-0.971,0.197,0.61,-0.549,-0.488,102.257
127537,144089,11057,-0.019,-0.96,0.182,0.61,-0.549,-0.488,102.263
127519,144030,10825,-0.018,-0.96,0.186,1.585,0.305,0.427,102.267
127519,144059,11047,-0.021,-0.964,0.202,1.585,0.305,0.427,102.273
127496,144030,10825,-0.031,-0.96,0.21,3.354,1.22,0.305,102.277
127496,144026,11051,-0.033,-0.955,0.221,3.354,1.22,0.305,102.283
127495,144030,10825,-0.039,-0.956,0.223,0.244,1.463,0.915,102.287
127495,144051,11061,-0.039,-0.975,0.216,0.244,1.463,0.915,102.293
127481,144030,10825,-0.039,-0.983,0.21,-0.549,0.488,0.976,102.297
127481,144037,11060,-0.039,-0.98,0.207,-0.549,0.488,0.976,102.303
127499,144030,10825,-0.038,-0.98,0.206,-1.402,0.061,0.427,102.307
127499,144033,11057,-0.035,-0.98,0.191,-1.402,0.061,0.427,102.313
127455,144030,10825,-0.029,-0.98,0.186,-0.183,-0.122,0.122,102.316
127455,144013,11046,-0.027,-0.975,0.191,-0.183,-0.122,0.122,102.323
127507,144030,10825,-0.025,-0.962,0.201,1.159,0.183,-0.061,102.326
127507,144043,11055,-0.023,-0.953,0.208,1.159,0.183,-0.061,102.332
127507,144030,10825,-0.02,-0.946,0.193,0.915,0.549,-0.061,102.336
127507,144044,11051,-0.024,-0.946,0.187,0.915,0.549,-0.061,102.342
127531,144030,10825,-0.022,-0.957,0.203,-0.305,0.427,0.061,102.346
127531,144053,11048,-0.026,-0.967,0.215,-0.305,0.427,0.061,102.352
127562,144030,10825,-0.027,-0.969,0.218,-1.341,0.244,0.183,102.356
127562,144066,11057,-0.022,-0.983,0.23,-1.341,0.244,0.183,102.362
127516,144030,10825,-0.022,-0.983,0.23,-1.341,0.244,0.183,102.366
127516,144009,11041,-0.029,-0.993,0.226,-2.622,-0.061,0.671,102.372
127475,144030,10825,-0.029,-0.993,0.226,-2.622,-0.061,0.671,102.376
127475,144005,11053,-0.027,-0.939,0.146,-3.11,0.183,0.183,102.382
127511,144030,10825,-0.027,-0.939,0.146,-3.11,0.183,0.183,102.386
127511,144027,11034,-0.026,-0.98,0.219,-1.22,0.305,0.61,102.392
127492,144030,10825,-0.026,-0.98,0.219,-1.22,0.305,0.61,102.396
127492,144015,11035,-0.015,-0.94,0.172,3.232,0.183,0.061,102.402
127461,144030,10825,-0.015,-0.94,0.172,3.232,0.183,0.061,102.405
127461,144000,11034,-0.017,-0.942,0.183,0.549,0.976,0.061,102.412
127439,144030,10825,-0.017,-0.942,0.183,0.549,0.976,0.061,102.415
127439,143974,11039,-0.031,-0.964,0.212,0.976,1.402,0.976,102.422
127458,144030,10825,-0.031,-0.964,0.212,0.976,1.402,0.976,102.425
127458,143986,11038,-0.032,-0.975,0.197,-0.976,1.037,1.646,102.432
127451,144030,10825,-0.032,-0.975,0.197,-0.976,1.037,1.646,102.435
127451,144005,11033,-0.022,-0.99,0.242,-1.098,0.305,1.463,102.441
127503,144030,10825,-0.022,-0.99,0.242,-1.098,0.305,1.463,102.445
127503,143994,11045,-0.04,-0.967,0.205,-0.183,-0.183,1.037,102.451
127445,144030,10825,-0.04,-0.967,0.205,-0.183,-0.183,1.037,102.455
127445,143994,11036,-0.044,-0.98,0.223,-0.854,0.61,0.915,102.461
127464,144030,10825,-0.044,-0.98,0.223,-0.854,0.61,0.915,102.465
127464,144019,11043,-0.036,-0.986,0.201,-1.402,0.305,0.427,102.471
127461,144030,10825,-0.036,-0.986,0.201,-1.402,0.305,0.427,102.475
127461,144016,11039,-0.021,-0.973,0.198,-0.732,-1.159,-0.305,102.481
127457,144030,10825,-0.021,-0.973,0.198,-0.732,-1.159,-0.305,102.485
127457,143993,11031,-0.018,-0.947,0.209,0.549,-0.549,-0.671,102.491
127422,144030,10825,-0.018,-0.947,0.209,0.549,-0.549,-0.671,102.495
127422,143971,11033,-0.024,-0.968,0.214,0.854,0.183,0,102.501
127382,144030,10825,-0.024,-0.968,0.214,0.854,0.183,0,102.505
127382,143927,11021,-0.03,-0.941,0.166,-0.305,0.122,0.732,102.511
127311,144030,10825,-0.03,-0.922,0.138,-0.305,0.122,0.732,102.514
127311,143876,11015,-0.027,-0.946,0.18,-1.402,0.183,1.341,102.521
127373,144030,10825,-0.028,-0.975,0.217,-1.402,0.183,1.341,102.524
127373,143916,11010,-0.026,-0.971,0.195,2.683,-0.305,1.341,102.53
127361,144030,10825,-0.025,-0.954,0.177,2.683,-0.305,1.341,102.534
127361,143918,11028,-0.027,-0.954,0.196,0.854,0.549,1.098,102.54
127380,144030,10825,-0.027,-0.974,0.24,0.854,0.549,1.098,102.544
127380,143941,11015,-0.037,-0.982,0.268,-0.488,1.524,1.28,102.55
127360,144030,10825,-0.047,-0.966,0.227,-0.488,1.524,1.28,102.554
127360,143899,11023,-0.037,-0.971,0.165,-4.695,0.366,1.646,102.56
127342,144030,10825,-0.027,-1.008,0.179,-4.695,0.366,1.646,102.564
127342,143907,11023,-0.021,-1.027,0.227,-0.732,-0.915,1.159,102.57
127379,144030,10825,-0.025,-1.015,0.258,-0.732,-0.915,1.159,102.574
127379,143922,11011,-0.03,-0.973,0.241,0.305,0.488,-0.061,102.58
127374,144030,10825,-0.036,-0.935,0.184,0.305,0.488,-0.061,102.584
127374,143949,11036,-0.031,-0.931,0.149,-1.341,1.159,0.427,102.59
127400,144030,10825,-0.021,-0.948,0.162,-1.341,1.159,0.427,102.594
127400,143970,11039,-0.014,-0.964,0.192,2.927,0.061,0.244,102.6
127427,144030,10825,-0.019,-0.963,0.209,2.927,0.061,0.244,102.604
127427,143959,11032,-0.027,-0.956,0.199,0.671,0.366,0.183,102.61
127406,144030,10825,-0.028,-0.953,0.17,0.671,0.366,0.183,102.613
127406,143962,11051,-0.03,-0.963,0.156,0.427,0.915,1.098,102.62
127410,144030,10825,-0.027,-0.981,0.197,0.427,0.915,1.098,102.623
127410,143961,11015,-0.034,-0.975,0.241,2.988,1.524,0.671,102.63
127410,144030,10825,-0.039,-0.955,0.225,2.988,1.524,0.671,102.633
127410,143951,11028,-0.036,-0.946,0.197,-0.671,1.463,0.732,102.639
127398,144030,10825,-0.032,-0.961,0.189,-0.671,1.463,0.732,102.643
127398,143976,11030,-0.025,-0.978,0.211,0,0.305,0.976,102.649
127405,144030,10825,-0.024,-0.968,0.222,0,0.305,0.976,102.653
127405,143971,11000,-0.035,-0.959,0.198,-1.341,0.549,0.366,102.659
127402,144030,10825,-0.04,-0.974,0.188,-1.341,0.549,0.366,102.663
127402,143974,11033,-0.035,-0.993,0.194,-0.244,0.854,0.61,102.669
127398,144030,10825,-0.027,-0.999,0.2,-0.244,0.854,0.61,102.673
127398,143964,11029,-0.022,-0.979,0.192,2.012,0.61,-0.549,102.679
127393,144030,10825,-0.026,-0.96,0.177,2.012,0.61,-0.549,102.683
127393,143938,11023,-0.027,-0.964,0.185,0.732,1.28,-0.427,102.689
127376,144030,10825,-0.031,-0.971,0.207,0.732,1.28,-0.427,102.693
127376,143954,11028,-0.038,-0.97,0.208,1.159,1.768,-0.427,102.699
127348,144030,10825,-0.039,-0.964,0.19,1.159,1.768,-0.427,102.703
127348,143948,11014,-0.034,-0.97,0.193,-1.951,1.037,-0.915,102.709
127384,144030,10825,-0.022,-0.987,0.209,-1.951,1.037,-0.915,102.712
127384,143958,11006,-0.014,-0.982,0.21,-0.244,-0.061,-0.854,102.719
127377,144030,10825,-0.013,-0.963,0.193,-0.244,-0.061,-0.854,102.722
127377,143954,11019,-0.018,-0.952,0.201,1.829,0.427,-0.549,102.728
127419,144030,10825,-0.023,-0.95,0.217,1.829,0.427,-0.549,102.732
127419,143981,11033,-0.03,-0.951,0.238,2.988,1.463,0,102.738
127409,144030,10825,-0.037,-0.953,0.254,2.988,1.463,0,102.742
127409,143958,11031,-0.033,-0.958,0.263,-0.061,0.854,0.061,102.748
127437,144030,10825,-0.027,-0.965,0.242,-0.061,0.854,0.061,102.752
127437,143993,11030,-0.025,-0.962,0.203,-3.049,-1.037,-0.183,102.758
127421,144030,10825,-0.023,-0.957,0.191,-3.049,-1.037,-0.183,102.762
127421,143976,11020,-0.021,-0.959,0.197,-2.195,-0.915,-0.244,102.768
127380,144030,10825,-0.025,-0.965,0.197,-2.195,-0.915,-0.244,102.772
127380,143918,11008,-0.031,-0.968,0.172,-0.61,-0.183,-0.183,102.778
127338,144030,10825,-0.029,-0.97,0.158,-0.61,-0.183,-0.183,102.782
127338,143921,11021,-0.024,-0.97,0.17,0.976,0.122,-0.183,102.788
127363,144030,10825,-0.021,-0.966,0.192,0.976,0.122,-0.183,102.792
127363,143935,11027,-0.022,-0.952,0.196,1.463,1.28,-0.427,102.798
127369,144030,10825,-0.022,-0.947,0.193,1.463,1.28,-0.427,102.802
127369,143919,11020,-0.021,-0.957,0.2,-0.427,1.829,0.183,102.808
127396,144030,10825,-0.022,-0.982,0.214,-0.427,1.829,0.183,102.811
127396,143959,11048,-0.022,-0.981,0.221,-0.854,1.28,0.122,102.818
127378,144030,10825,-0.023,-0.959,0.218,-0.854,1.28,0.122,102.821
127378,143935,11027,-0.018,-0.95,0.239,-2.683,1.098,0.793,102.828
127387,144030,10825,-0.016,-0.969,0.257,-2.683,1.098,0.793,102.831
127387,143951,11018,-0.016,-0.983,0.258,2.622,0.122,1.585,102.837
127461,144030,10825,-0.02,-0.973,0.276,2.622,0.122,1.585,102.841
127461,144027,11043,-0.029,-0.948,0.277,2.439,0.183,1.098,102.847
127458,144030,10825,-0.042,-0.918,0.203,2.439,0.183,1.098,102.851
127458,143999,11022,-0.047,-0.923,0.137,-2.927,0.244,1.768,102.857
127420,144030,10825,-0.037,-0.967,0.147,-2.927,0.244,1.768,102.861
127420,144018,11035,-0.028,-1,0.181,-0.122,-1.463,1.524,102.867
127480,144030,10825,-0.028,-0.996,0.171,-0.122,-1.463,1.524,102.871
127480,144004,11040,-0.032,-0.982,0.167,-0.549,-1.098,0.488,102.877
127445,144030,10825,-0.03,-0.979,0.177,-0.549,-1.098,0.488,102.881
127445,144001,11057,-0.026,-0.979,0.184,1.22,0.488,0.793,102.887
127463,144030,10825,-0.031,-0.975,0.204,1.22,0.488,0.793,102.891
127463,144017,11040,-0.03,-0.966,0.214,2.256,0.915,0.183,102.897
127472,144030,10825,-0.036,-0.954,0.204,2.256,0.915,0.183,102.901
127472,144000,11040,-0.04,-0.957,0.205,-2.195,0.854,0.427,102.907
127429,144030,10825,-0.035,-0.975,0.225,-2.195,0.854,0.427,102.91
127429,143982,11042,-0.028,-0.98,0.234,-2.256,-0.488,0.305,102.917
127485,144030,10825,-0.022,-0.984,0.238,-2.256,-0.488,0.305,102.92
127485,144030,11029,-0.019,-0.978,0.248,-1.037,-1.402,-0.183,102.926
127458,144030,10825,-0.023,-0.961,0.238,-1.037,-1.402,-0.183,102.93
127458,144005,11027,-0.025,-0.949,0.227,-1.037,-1.037,0,102.936
127454,144030,10825,-0.027,-0.951,0.215,-1.037,-1.037,0,102.94
127454,144011,11028,-0.031,-0.955,0.216,0.671,-0.915,0.671,102.946
127443,144030,10825,-0.03,-0.949,0.214,0.671,-0.915,0.671,102.95
127443,144013,11035,-0.032,-0.94,0.181,0.427,-1.402,0.976,102.956
127411,144030,10825,-0.032,-0.94,0.181,0.427,-1.402,0.976,102.96
127411,143998,11025,-0.029,-0.969,0.173,-0.549,-1.28,1.037,102.966
127354,144030,10825,-0.029,-0.969,0.173,-0.549,-1.28,1.037,102.97
127354,143935,11022,-0.039,-0.983,0.195,-0.549,-0.183,0.732,102.976
127315,144030,10825,-0.039,-0.983,0.195,-0.549,-0.183,0.732,102.98
127315,143926,11012,-0.024,-0.974,0.195,-3.11,0.366,0.732,102.986
127335,144030,10825,-0.024,-0.974,0.195,-3.11,0.366,0.732,102.99
127335,143926,11017,-0.021,-0.981,0.179,-0.305,0.061,0.976,102.996
127309,144030,10825,-0.021,-0.981,0.179,-0.305,0.061,0.976,103
127309,143923,11027,-0.031,-0.965,0.193,2.195,1.098,0.793,103.006
127285,144030,10825,-0.031,-0.965,0.193,2.195,1.098,0.793,103.009
127285,143879,11006,-0.032,-0.962,0.198,2.317,1.037,1.098,103.016
127231,143774,10825,-0.032,-0.962,0.198,2.317,1.037,1.098,103.019
127231,143810,11004,-0.022,-0.959,0.198,2.195,0.305,0.976,103.026
127207,143774,10825,-0.022,-0.959,0.198,2.195,0.305,0.976,103.029
127207,143831,10996,-0.03,-0.954,0.214,0.305,0.549,0.549,103.035
127243,143774,10825,-0.03,-0.954,0.214,0.305,0.549,0.549,103.039
127243,143834,10979,-0.032,-0.978,0.225,-1.341,-0.122,0.549,103.045
127252,143774,10825,-0.032,-0.978,0.225,-1.341,-0.122,0.549,103.049
127252,143844,10997,-0.022,-0.98,0.214,-1.707,-1.159,0.061,103.055
127288,143774,10825,-0.022,-0.98,0.214,-1.707,-1.159,0.061,103.059
127288,143871,11006,-0.016,-0.957,0.194,-1.646,-0.915,0.183,103.065
127280,144030,10825,-0.016,-0.957,0.194,-1.646,-0.915,0.183,103.069
127280,143882,11015,-0.022,-0.968,0.236,-0.488,-0.244,0.244,103.075
127236,143774,10825,-0.022,-0.968,0.236,-0.488,-0.244,0.244,103.079
127236,143820,10990,-0.035,-0.96,0.179,-2.073,0.244,0,103.085
127247,143774,10825,-0.035,-0.96,0.179,-2.073,0.244,0,103.089
127247,143849,11015,-0.016,-0.988,0.217,-0.61,-0.427,0.244,103.095
127241,143774,10825,-0.016,-0.988,0.217,-0.61,-0.427,0.244,103.099
127241,143850,11001,-0.015,-0.978,0.206,-0.61,-0.427,0.244,103.105
127229,143774,10825,-0.021,-0.96,0.194,0.366,-0.305,0,103.108
127229,143804,10990,-0.025,-0.952,0.193,0.366,-0.305,0,103.115
127208,143774,10825,-0.029,-0.954,0.176,0.976,0.732,0.61,103.118
127208,143795,11000,-0.027,-0.961,0.176,0.976,0.732,0.61,103.124
127167,143774,10825,-0.029,-0.974,0.201,1.585,0.549,0.549,103.128
127167,143785,10978,-0.033,-0.982,0.208,1.585,0.549,0.549,103.134
127259,143774,10825,-0.036,-0.981,0.208,0.122,0.732,0.732,103.138
127259,143839,11003,-0.039,-0.978,0.208,0.122,0.732,0.732,103.144
127312,144030,10825,-0.038,-0.976,0.201,-0.671,0.915,0.671,103.148
127312,143890,11004,-0.035,-0.976,0.214,-0.671,0.915,0.671,103.154
127325,144030,10825,-0.031,-0.978,0.23,0.793,0.488,0.122,103.158
127325,143907,11018,-0.035,-0.972,0.24,0.793,0.488,0.122,103.164
127316,144030,10825,-0.037,-0.964,0.244,-0.427,0.61,-0.61,103.168
127316,143924,11023,-0.037,-0.958,0.221,-0.427,0.61,-0.61,103.174
127319,143774,10825,-0.034,-0.95,0.181,-1.829,0.244,-0.671,103.178
127319,143858,11011,-0.022,-0.954,0.16,-1.829,0.244,-0.671,103.184
127277,144030,10825,-0.014,-0.968,0.179,-0.244,-0.854,-0.61,103.188
127277,143892,11016,-0.011,-0.974,0.212,-0.244,-0.854,-0.61,103.194
127304,143774,10825,-0.023,-0.955,0.194,0.061,-0.122,-0.488,103.198
127304,143853,11012,-0.031,-0.95,0.16,0.061,-0.122,-0.488,103.204
127285,144030,10825,-0.026,-0.956,0.16,-0.61,1.28,0.244,103.207
127285,143885,11005,-0.02,-0.961,0.182,-0.61,1.28,0.244,103.214
127266,143774,10825,-0.017,-0.958,0.202,0.976,0.671,0.122,103.217
127266,143854,11008,-0.017,-0.954,0.211,0.976,0.671,0.122,103.224
127254,144030,10825,-0.026,-0.962,0.209,0.061,0.732,0.61,103.227
127254,143890,11000,-0.027,-0.979,0.225,0.061,0.732,0.61,103.233
127309,144030,10825,-0.03,-0.983,0.247,1.159,1.159,1.22,103.237
127309,143913,11003,-0.038,-0.969,0.233,1.159,1.159,1.22,103.243
127359,144030,10825,-0.042,-0.968,0.242,-0.549,1.098,0.915,103.247
127359,143949,11025,-0.041,-0.979,0.27,-0.549,1.098,0.915,103.253
127366,144030,10825,-0.044,-0.979,0.228,-1.585,0.183,0.793,103.257
127366,143958,11003,-0.043,-0.978,0.179,-1.585,0.183,0.793,103.263
127365,144030,10825,-0.034,-0.987,0.183,-1.159,-0.488,0.122,103.267
127365,143963,11026,-0.026,-0.989,0.203,-1.159,-0.488,0.122,103.273
127422,144030,10825,-0.021,-0.968,0.193,2.134,-0.671,-0.61,103.277
127422,143976,11017,-0.019,-0.945,0.165,2.134,-0.671,-0.61,103.283
127369,144030,10825,-0.015,-0.935,0.158,2.5,0.488,-0.488,103.287
127369,143926,11025,-0.018,-0.944,0.177,2.5,0.488,-0.488,103.293
127353,144030,10825,-0.027,-0.95,0.2,2.683,1.463,0,103.297
127353,143920,11001,-0.035,-0.947,0.202,2.683,1.463,0,103.303
127300,143774,10825,-0.036,-0.949,0.207,-0.976,1.402,0.549,103.306
127300,143850,11004,-0.033,-0.967,0.213,-0.976,1.402,0.549,103.313
127269,143774,10825,-0.026,-0.98,0.216,-0.793,0.061,0.976,103.316
127269,143841,11006,-0.024,-0.98,0.22,-0.793,0.061,0.976,103.323
127270,143774,10825,-0.022,-0.967,0.222,0.366,-0.366,0.549,103.326
127270,143858,10995,-0.026,-0.958,0.242,0.366,-0.366,0.549,103.332
127304,143774,10825,-0.034,-0.964,0.261,-0.183,-0.061,0.61,103.336
127304,143871,11007,-0.045,-0.971,0.244,-0.183,-0.061,0.61,103.342
127300,144030,10825,-0.042,-0.981,0.222,-1.22,-0.427,0.61,103.346
127300,143884,11002,-0.029,-0.997,0.245,-1.22,-0.427,0.61,103.352
127296,144030,10825,-0.027,-0.992,0.267,-2.256,-2.073,0.488,103.356
127296,143886,11007,-0.034,-0.967,0.221,-2.256,-2.073,0.488,103.362
127291,144030,10825,-0.031,-0.952,0.161,-3.78,-2.012,0.061,103.366
127291,143888,11016,-0.028,-0.964,0.151,-3.78,-2.012,0.061,103.372
127323,144030,10825,-0.022,-0.982,0.16,0.427,-1.524,0.061,103.376
127323,143918,11004,-0.016,-0.98,0.165,0.427,-1.524,0.061,103.382
127298,143774,10825,-0.019,-0.96,0.173,2.683,-0.793,-0.61,103.386
127298,143869,11012,-0.028,-0.937,0.183,2.683,-0.793,-0.61,103.392
127321,144030,10825,-0.032,-0.933,0.186,0.671,0.732,0.427,103.396
127321,143913,11012,-0.028,-0.939,0.186,0.671,0.732,0.427,103.402
127336,144030,10825,-0.027,-0.947,0.193,-0.305,0.549,0.61,103.405
127336,143898,11005,-0.026,-0.96,0.22,-0.305,0.549,0.61,103.412
127299,144030,10825,-0.028,-0.974,0.24,-2.744,-0.427,0.854,103.415
127299,143897,11004,-0.035,-0.983,0.236,-2.744,-0.427,0.854,103.422
127327,144030,10825,-0.035,-0.99,0.218,-2.683,-0.976,1.098,103.425
127327,143901,11001,-0.031,-0.991,0.217,-2.683,-0.976,1.098,103.431
127296,144030,10825,-0.026,-0.987,0.217,0.244,-1.159,0.549,103.435
127296,143891,11012,-0.02,-0.975,0.192,0.244,-1.159,0.549,103.441
127266,144030,10825,-0.021,-0.968,0.189,1.89,-0.915,-0.061,103.445
127266,143872,11003,-0.023,-0.963,0.203,1.89,-0.915,-0.061,103.451
127294,144030,10825,-0.03,-0.964,0.206,1.22,-0.122,-0.183,103.455
127294,143907,11006,-0.033,-0.964,0.196,1.22,-0.122,-0.183,103.461
127322,144030,10825,-0.026,-0.968,0.206,-1.402,-0.244,-0.549,103.465
127322,143934,11014,-0.019,-0.968,0.213,-1.402,-0.244,-0.549,103.471
127311,144030,10825,-0.012,-0.968,0.214,-3.11,-1.037,-0.732,103.475
127311,143916,11005,-0.01,-0.967,0.212,-3.11,-1.037,-0.732,103.481
127344,144030,10825,-0.015,-0.963,0.207,-2.805,-1.159,-0.305,103.485
127344,143934,11021,-0.018,-0.967,0.214,-2.805,-1.159,-0.305,103.491
127327,144030,10825,-0.028,-0.967,0.213,-0.732,-0.488,0.183,103.495
127327,143937,11009,-0.032,-0.961,0.212,-0.732,-0.488,0.183,103.501
127312,144030,10825,-0.03,-0.963,0.213,0.244,-0.366,0.244,103.504
127312,143915,11017,-0.028,-0.958,0.21,0.244,-0.366,0.244,103.511
127312,144030,10825,-0.026,-0.956,0.196,0.488,-0.732,0.183,103.514
127312,143891,11022,-0.025,-0.957,0.191,0.488,-0.732,0.183,103.521
127284,143774,10825,-0.021,-0.956,0.178,0.244,-0.427,0.244,103.524
127284,143839,11004,-0.025,-0.95,0.158,0.244,-0.427,0.244,103.53
127266,144030,10825,-0.026,-0.965,0.186,0.366,-0.183,0.427,103.534
127266,143893,10977,-0.032,-0.977,0.221,0.366,-0.183,0.427,103.54
127310,144030,10825,-0.032,-0.977,0.221,0.366,-0.183,0.427,103.544
127310,143906,11002,-0.04,-0.975,0.19,0.305,0.305,0.366,103.55
127305,144030,10825,-0.04,-0.975,0.19,0.305,0.305,0.366,103.554
127305,143916,10998,-0.019,-0.971,0.202,-0.244,0.122,0.366,103.56
127321,144030,10825,-0.019,-0.971,0.202,-0.244,0.122,0.366,103.564
127321,143894,11013,-0.03,-0.966,0.224,-0.366,-0.183,0,103.57
127288,143774,10825,-0.03,-0.966,0.224,-0.366,-0.183,0,103.574
127288,143861,11000,-0.037,-0.979,0.223,-1.524,0,0.183,103.58
127268,143774,10825,-0.037,-0.979,0.223,-1.524,0,0.183,103.584
127268,143871,11011,-0.021,-0.973,0.233,-1.585,-0.488,0.366,103.59
127269,144030,10825,-0.021,-0.973,0.233,-1.585,-0.488,0.366,103.594
127269,143874,11004,-0.019,-0.947,0.181,-2.195,-1.341,-0.244,103.6
127279,144030,10825,-0.019,-0.947,0.181,-2.195,-1.341,-0.244,103.603
127279,143884,11024,-0.016,-0.974,0.189,-0.854,-1.402,0.122,103.61
127258,143774,10825,-0.016,-0.974,0.189,-0.854,-1.402,0.122,103.613
127258,143863,10995,-0.023,-0.95,0.174,0.366,-0.61,-0.244,103.62
127259,144030,10825,-0.023,-0.95,0.174,0.366,-0.61,-0.244,103.623
127259,143902,11005,-0.019,-0.965,0.223,-1.89,0.366,0.366,103.629
127256,144030,10825,-0.019,-0.965,0.223,-1.89,0.366,0.366,103.633
127256,143888,11004,-0.024,-0.955,0.17,-0.305,0.061,0.549,103.639
127291,144030,10825,-0.024,-0.955,0.17,-0.305,0.061,0.549,103.643
127291,143894,11012,-0.026,-0.968,0.215,-0.61,0.488,0.488,103.649
127355,144030,10825,-0.026,-0.968,0.215,-0.61,0.488,0.488,103.653
127355,143947,11020,-0.027,-0.973,0.203,-0.122,0.488,0.854,103.659
127345,144030,10825,-0.027,-0.973,0.203,-0.122,0.488,0.854,103.663
127345,143946,11016,-0.02,-0.966,0.222,-0.183,0.305,0.854,103.669
127325,144030,10825,-0.02,-0.966,0.222,-0.183,0.305,0.854,103.673
127325,143911,11028,-0.022,-0.967,0.218,-0.488,0.366,0.854,103.679
127324,144030,10825,-0.022,-0.967,0.218,-0.488,0.366,0.854,103.683
127324,143920,11014,-0.027,-0.98,0.197,-0.671,0.061,0.732,103.689
127303,144030,10825,-0.027,-0.98,0.197,-0.671,0.061,0.732,103.693
127303,143886,10993,-0.025,-0.986,0.197,-0.244,-0.305,0.61,103.699
127282,144030,10825,-0.025,-0.978,0.198,-0.244,-0.305,0.61,103.702
127282,143916,11024,-0.024,-0.969,0.202,1.037,-0.244,0.427,103.709
127292,144030,10825,-0.023,-0.957,0.206,1.037,-0.244,0.427,103.712
127292,143932,11014,-0.023,-0.943,0.204,1.524,0.183,0.488,103.719
127314,144030,10825,-0.03,-0.932,0.196,1.524,0.183,0.488,103.722
127314,143923,11019,-0.031,-0.941,0.2,-0.732,0.488,0.915,103.728
127284,144030,10825,-0.033,-0.962,0.212,-0.732,0.488,0.915,103.732
127284,143948,11007,-0.031,-0.967,0.205,-1.463,-0.366,1.28,103.738
127322,144030,10825,-0.03,-0.967,0.194,-1.463,-0.366,1.28,103.742
127322,143911,11021,-0.03,-0.972,0.204,-2.378,-1.098,1.463,103.748
127298,144030,10825,-0.025,-0.977,0.204,-2.378,-1.098,1.463,103.752
127298,143926,11007,-0.025,-0.977,0.197,-0.427,-0.793,1.098,103.758
127297,144030,10825,-0.028,-0.973,0.207,-0.427,-0.793,1.098,103.762
127297,143905,11015,-0.031,-0.973,0.229,-0.244,-0.427,0.854,103.768
127256,143774,10825,-0.029,-0.975,0.236,-0.244,-0.427,0.854,103.772
127256,143867,11004,-0.031,-0.97,0.214,-2.134,-0.305,0.732,103.778
127228,143774,10825,-0.034,-0.963,0.176,-2.134,-0.305,0.732,103.782
127228,143851,11007,-0.029,-0.963,0.171,-3.78,-0.671,0.854,103.788
127199,143774,10825,-0.017,-0.99,0.21,-3.78,-0.671,0.854,103.792
127199,143825,10993,-0.012,-1.008,0.234,-0.61,-0.915,0.488,103.798
127182,143774,10825,-0.014,-0.984,0.211,-0.61,-0.915,0.488,103.801
127182,143810,11002,-0.024,-0.947,0.157,-0.488,0.427,0.305,103.808
127212,143774,10825,-0.025,-0.942,0.16,-0.488,0.427,0.305,103.811
127212,143822,10986,-0.018,-0.956,0.217,1.646,1.28,1.28,103.818
127150,143774,10825,-0.021,-0.946,0.22,1.646,1.28,1.28,103.821
127150,143800,10986,-0.04,-0.925,0.174,-0.549,1.28,1.037,103.827
127199,143774,10825,-0.044,-0.935,0.154,-0.549,1.28,1.037,103.831
127199,143831,11007,-0.035,-0.971,0.171,-2.683,0.854,1.951,103.837
127170,143774,10825,-0.025,-0.989,0.182,-2.683,0.854,1.951,103.841
127170,143805,10986,-0.024,-0.979,0.186,-0.671,0.122,0.732,103.847
127163,143774,10825,-0.024,-0.969,0.193,-0.671,0.122,0.732,103.851
127163,143779,10984,-0.026,-0.973,0.209,-1.402,0.427,1.159,103.857
127147,143774,10825,-0.028,-0.979,0.218,-1.402,0.427,1.159,103.861
127147,143791,10983,-0.03,-0.977,0.215,0.732,0.854,1.22,103.867
127140,143774,10825,-0.029,-0.974,0.216,0.732,0.854,1.22,103.871
127140,143767,10983,-0.027,-0.975,0.23,0.061,0.488,0.732,103.877
127171,143774,10825,-0.03,-0.978,0.222,0.061,0.488,0.732,103.881
127171,143792,10984,-0.03,-0.986,0.215,-0.305,-0.305,0.549,103.887
127201,143774,10825,-0.024,-0.984,0.208,-0.305,-0.305,0.549,103.891
127201,143809,10983,-0.022,-0.979,0.199,-0.061,-0.793,0,103.897
127191,143774,10825,-0.02,-0.97,0.194,-0.061,-0.793,0,103.9
127191,143809,11015,-0.016,-0.961,0.19,0.427,-0.549,0.061,103.907
127196,143774,10825,-0.021,-0.955,0.191,0.427,-0.549,0.061,103.91
127196,143846,10992,-0.024,-0.956,0.204,0.61,0.061,0.183,103.917
127246,144030,10825,-0.031,-0.958,0.209,0.61,0.061,0.183,103.92
127246,143879,10995,-0.039,-0.958,0.197,-0.671,0.427,0.366,103.926
127235,143774,10825,-0.042,-0.955,0.186,-0.671,0.427,0.366,103.93
127235,143847,10996,-0.036,-0.96,0.194,-2.317,0.122,0.732,103.936
127233,144030,10825,-0.032,-0.977,0.208,-2.317,0.122,0.732,103.94
127233,143882,10994,-0.032,-0.98,0.221,-1.159,-0.61,0.549,103.946
127217,143774,10825,-0.033,-0.973,0.221,-1.159,-0.61,0.549,103.95
127217,143850,10989,-0.034,-0.961,0.211,-1.037,-0.671,0.732,103.956
127198,143774,10825,-0.033,-0.957,0.194,-1.037,-0.671,0.732,103.96
127198,143864,10999,-0.027,-0.969,0.198,-0.305,-0.671,0.793,103.966
127251,144030,10825,-0.03,-0.977,0.215,-0.305,-0.671,0.793,103.97
127251,143899,10992,-0.037,-0.984,0.239,-0.183,-0.732,0.366,103.976
127269,144030,10825,-0.042,-0.984,0.254,-0.183,-0.732,0.366,103.98
127269,143904,11019,-0.042,-0.968,0.202,-3.049,-1.22,0.732,103.986
127222,144030,10825,-0.032,-0.96,0.123,-3.049,-1.22,0.732,103.99
127222,143874,11002,-0.016,-0.983,0.13,-1.22,-2.073,0.122,103.996
127205,143774,10825,-0.011,-1.005,0.199,-1.22,-2.073,0.122,103.999
127205,143841,10986,-0.023,-0.973,0.21,2.866,-0.915,-0.366,104.006
127181,143774,10825,-0.036,-0.928,0.163,2.866,-0.915,-0.366,104.009
127181,143794,10999,-0.037,-0.936,0.152,-1.037,1.646,0.549,104.016
127188,143774,10825,-0.026,-0.965,0.179,-1.037,1.646,0.549,104.019
127188,143847,10981,-0.014,-0.969,0.194,2.378,0.793,0.305,104.025
127226,143774,10825,-0.011,-0.949,0.212,2.378,0.793,0.305,104.029
127226,143853,11008,-0.015,-0.939,0.222,-0.793,0.305,0.305,104.035
127243,144030,10825,-0.027,-0.952,0.214,-0.793,0.305,0.305,104.039
127243,143876,11003,-0.033,-0.964,0.197,-1.89,0.976,1.402,104.045
127237,144030,10825,-0.031,-0.972,0.191,-1.89,0.976,1.402,104.049
127237,143882,11007,-0.025,-0.975,0.203,-0.793,0.366,1.402,104.055
127266,144030,10825,-0.026,-0.981,0.221,-0.793,0.366,1.402,104.059
127266,143911,11017,-0.028,-0.977,0.215,0.366,-0.366,1.28,104.065
127312,144030,10825,-0.029,-0.969,0.207,0.366,-0.366,1.28,104.069
127312,143913,11008,-0.03,-0.963,0.202,0.244,0.122,1.098,104.075
127311,144030,10825,-0.035,-0.967,0.189,0.244,0.122,1.098,104.079
127311,143922,11015,-0.035,-0.984,0.188,-0.549,0,0.732,104.085
127315,144030,10825,-0.034,-1.008,0.223,-0.549,0,0.732,104.089
127315,143900,10994,-0.038,-1.009,0.251,-1.829,-0.488,0.244,104.095
127253,143774,10825,-0.044,-0.978,0.196,-1.829,-0.488,0.244,104.098
127253,143865,11013,-0.034,-0.958,0.138,-4.634,-0.244,0,104.105
127293,144030,10825,-0.017,-0.981,0.165,-4.634,-0.244,0,104.108
127293,143896,11006,-0.006,-0.998,0.215,0.732,-0.793,-0.61,104.115
127325,144030,10825,-0.012,-0.969,0.21,0.732,-0.793,-0.61,104.118
127325,143920,11013,-0.027,-0.929,0.186,1.159,0.488,-0.915,104.124
127320,144030,10825,-0.031,-0.922,0.186,1.159,0.488,-0.915,104.128
127320,143939,11020,-0.027,-0.945,0.189,-0.549,1.463,0.427,104.134
127315,144030,10825,-0.027,-0.945,0.189,-0.549,1.463,0.427,104.138
127315,143918,10995,-0.016,-0.963,0.206,0.671,0.244,0.244,104.144
127294,144030,10825,-0.016,-0.963,0.206,0.671,0.244,0.244,104.148
127294,143913,11015,-0.032,-0.954,0.221,-1.585,0.488,0.915,104.154
127278,144030,10825,-0.032,-0.954,0.221,-1.585,0.488,0.915,104.158
127278,143890,11006,-0.03,-0.967,0.186,-0.549,0.427,1.341,104.164
127270,144030,10825,-0.03,-0.967,0.186,-0.549,0.427,1.341,104.168
127270,143928,11011,-0.016,-0.969,0.216,1.463,-0.549,0.671,104.174
127314,144030,10825,-0.016,-0.969,0.216,1.463,-0.549,0.671,104.178
127314,143907,10995,-0.03,-0.956,0.198,-0.366,0.427,1.037,104.184
127293,144030,10825,-0.03,-0.956,0.198,-0.366,0.427,1.037,104.188
127293,143937,10998,-0.032,-0.989,0.22,-0.854,0.549,1.22,104.194
127279,144030,10825,-0.032,-0.989,0.22,-0.854,0.549,1.22,104.197
127279,143910,11005,-0.032,-0.967,0.156,-2.317,0.488,0.854,104.204
127272,144030,10825,-0.032,-0.967,0.156,-2.317,0.488,0.854,104.207
127272,143909,11009,-0.019,-0.99,0.191,0.244,0.488,0.366,104.214
127289,144030,10825,-0.019,-0.99,0.191,0.244,0.488,0.366,104.217
127289,143939,11011,-0.027,-0.968,0.193,0.732,1.22,0.183,104.223
127260,144030,10825,-0.027,-0.968,0.193,0.732,1.22,0.183,104.227
127260,143886,11001,-0.026,-0.974,0.185,0.61,1.951,0.244,104.233
127251,144030,10825,-0.026,-0.974,0.185,0.61,1.951,0.244,104.237
127251,143908,10997,-0.026,-0.969,0.21,0.732,1.829,-0.183,104.243
127246,144030,10825,-0.026,-0.969,0.21,0.732,1.829,-0.183,104.247
127246,143908,11011,-0.026,-0.976,0.218,0,1.037,0.427,104.253
127208,143774,10825,-0.026,-0.976,0.218,0,1.037,0.427,104.257
127208,143851,11001,-0.023,-0.983,0.206,1.951,0.793,-0.061,104.263
127277,144030,10825,-0.023,-0.983,0.206,1.951,0.793,-0.061,104.267
127277,143935,11016,-0.022,-0.974,0.258,0,0.854,-0.305,104.273
127336,144030,10825,-0.022,-0.974,0.258,0,0.854,-0.305,104.277
127336,143963,11025,-0.028,-0.964,0.244,0,0.854,-0.305,104.283
127294,144030,10825,-0.029,-0.953,0.165,-1.951,0.122,0.244,104.287
127294,143922,11011,-0.018,-0.953,0.131,-1.951,0.122,0.244,104.293
127323,144030,10825,-0.001,-0.96,0.162,0.244,-0.366,-0.305,104.296
127323,143924,11015,0.002,-0.959,0.203,0.244,-0.366,-0.305,104.303
127292,144030,10825,-0.012,-0.945,0.211,0.549,0.671,-0.976,104.306
127292,143910,11017,-0.028,-0.927,0.199,0.549,0.671,-0.976,104.313
127277,144030,10825,-0.028,-0.925,0.177,-3.659,2.012,0.122,104.316
127277,143894,11000,-0.018,-0.943,0.171,-3.659,2.012,0.122,104.322
127280,144030,10825,-0.007,-0.961,0.182,-3.476,1.159,0.183,104.326
127280,143931,11016,-0.006,-0.965,0.186,-3.476,1.159,0.183,104.332
127298,144030,10825,-0.009,-0.963,0.196,-2.927,0.976,-0.305,104.336
127298,143921,11027,-0.019,-0.971,0.213,-2.927,0.976,-0.305,104.342
127262,144030,10825,-0.022,-0.973,0.217,-1.402,2.012,0.488,104.346
127262,143889,11009,-0.02,-0.97,0.212,-1.402,2.012,0.488,104.352
127291,144030,10825,-0.016,-0.961,0.217,0.976,2.134,0.61,104.356
127291,143939,11001,-0.02,-0.953,0.232,0.976,2.134,0.61,104.362
127309,144030,10825,-0.027,-0.956,0.236,0.915,2.195,0.915,104.366
127309,143921,11001,-0.035,-0.96,0.219,0.915,2.195,0.915,104.372
127250,144030,10825,-0.041,-0.967,0.194,-0.488,1.89,1.28,104.376
127250,143901,11027,-0.04,-0.978,0.192,-0.488,1.89,1.28,104.382
127329,144030,10825,-0.037,-0.986,0.195,-0.061,1.28,1.646,104.386
127329,143950,11013,-0.031,-0.981,0.188,-0.061,1.28,1.646,104.392
127317,144030,10825,-0.031,-0.975,0.192,1.585,1.159,1.463,104.395
127317,143941,11014,-0.04,-0.968,0.197,1.585,1.159,1.463,104.402
127290,144030,10825,-0.048,-0.959,0.197,1.463,2.317,1.22,104.405
127290,143941,11018,-0.057,-0.958,0.193,1.463,2.317,1.22,104.412
127287,144030,10825,-0.054,-0.96,0.2,-0.61,2.561,1.098,104.415
127287,143931,11003,-0.057,-0.974,0.207,-0.61,2.561,1.098,104.421
127299,144030,10825,-0.059,-0.979,0.208,-1.829,1.402,0.976,104.425
127299,143934,11014,-0.055,-0.98,0.2,-1.829,1.402,0.976,104.431
127256,144030,10825,-0.052,-0.973,0.198,-1.585,0.854,0.61,104.435
127256,143904,10994,-0.058,-0.977,0.211,-1.585,0.854,0.61,104.441
127285,144030,10825,-0.063,-0.975,0.221,-0.122,1.098,0.427,104.445
127285,143910,11014,-0.066,-0.963,0.213,-0.122,1.098,0.427,104.451
127295,144030,10825,-0.065,-0.961,0.191,0.122,0.61,0.488,104.455
127295,143933,11001,-0.063,-0.964,0.195,0.122,0.61,0.488,104.461
127284,144030,10825,-0.063,-0.963,0.203,-0.732,-0.244,0.183,104.465
127284,143932,11012,-0.06,-0.964,0.21,-0.732,-0.244,0.183,104.471
127295,144030,10825,-0.06,-0.966,0.217,-2.073,-0.793,0.366,104.475
127295,143935,11006,-0.053,-0.975,0.219,-2.073,-0.793,0.366,104.481
127355,144030,10825,-0.043,-0.981,0.233,-2.5,-1.585,0.305,104.485
127355,143999,11022,-0.042,-0.977,0.252,-2.5,-1.585,0.305,104.491
127365,144030,10825,-0.043,-0.961,0.224,-3.537,-2.439,0.061,104.494
127365,143999,11026,-0.043,-0.947,0.166,-3.537,-2.439,0.061,104.501
127383,144030,10825,-0.031,-0.952,0.148,-3.476,-2.439,-0.366,104.504
127383,144003,11034,-0.023,-0.976,0.187,-3.476,-2.439,-0.366,104.511
127421,144030,10825,-0.021,-0.978,0.191,0.793,-2.988,-0.122,104.514
127421,144028,11032,-0.015,-0.957,0.172,0.793,-2.988,-0.122,104.52
127381,144030,10825,-0.015,-0.941,0.173,0.244,-2.134,-0.305,104.524
127381,143994,11026,-0.013,-0.946,0.185,0.244,-2.134,-0.305,104.53
127385,144030,10825,-0.007,-0.955,0.204,0.793,-1.098,0.061,104.534
127385,143999,11007,-0.01,-0.951,0.213,0.793,-1.098,0.061,104.54
127393,144030,10825,-0.015,-0.948,0.218,-1.524,-1.22,0.122,104.544
127393,143986,11011,-0.014,-0.962,0.22,-1.524,-1.22,0.122,104.55
127317,144030,10825,-0.015,-0.993,0.239,-4.39,-1.951,0.549,104.554
127317,143932,10992,-0.009,-1.016,0.253,-4.39,-1.951,0.549,104.56
127368,144030,10825,-0.009,-1.008,0.239,-3.049,-3.171,0.244,104.564
127368,143977,11014,-0.01,-1,0.237,-3.049,-3.171,0.244,104.57
127422,144030,10825,-0.011,-0.984,0.229,-3.11,-2.805,-0.122,104.574
127422,144010,11039,-0.015,-0.969,0.193,-3.11,-2.805,-0.122,104.58
127364,144030,10825,-0.015,-0.968,0.148,-1.463,-2.5,-0.549,104.584
127364,143974,11013,-0.005,-0.98,0.143,-1.463,-2.5,-0.549,104.59
127389,144030,10825,-0.001,-0.984,0.172,2.683,-2.866,-1.037,104.593
127389,143998,11023,-0.012,-0.97,0.173,2.683,-2.866,-1.037,104.6
127432,144030,10825,-0.024,-0.954,0.152,1.159,-1.28,-1.159,104.603
127432,144022,11022,-0.031,-0.954,0.155,1.159,-1.28,-1.159,104.61
127431,144030,10825,-0.029,-0.961,0.167,-1.098,0.061,-0.915,104.613
127431,144019,11031,-0.023,-0.962,0.172,-1.098,0.061,-0.915,104.619
127438,144030,10825,-0.019,-0.969,0.196,-3.049,-0.976,-1.22,104.623
127438,144038,11033,-0.022,-0.984,0.214,-3.049,-0.976,-1.22,104.629
127433,144030,10825,-0.022,-0.991,0.22,-3.537,-2.012,-1.037,104.633
127433,144028,11026,-0.023,-0.976,0.203,-3.537,-2.012,-1.037,104.639
127411,144030,10825,-0.026,-0.973,0.191,-3.171,-1.89,-0.854,104.643
127411,144026,11018,-0.026,-0.978,0.202,-3.171,-1.89,-0.854,104.649
127452,144030,10825,-0.025,-0.971,0.212,-0.671,-1.707,-1.098,104.653
127452,144044,11039,-0.023,-0.954,0.199,-0.671,-1.707,-1.098,104.659
127461,144030,10825,-0.024,-0.949,0.191,-0.183,-1.89,-0.488,104.663
127461,144064,11028,-0.019,-0.948,0.182,-0.183,-1.89,-0.488,104.669
127468,144030,10825,-0.017,-0.946,0.165,1.585,-1.768,0.305,104.673
127468,144064,11042,-0.02,-0.94,0.155,1.585,-1.768,0.305,104.679
127460,144030,10825,-0.023,-0.947,0.156,0.732,-0.793,0.305,104.683
127460,144055,11035,-0.027,-0.956,0.16,0.732,-0.793,0.305,104.689
127458,144030,10825,-0.027,-0.969,0.161,-0.976,0.122,0.61,104.692
127458,144062,11036,-0.022,-0.977,0.17,-0.976,0.122,0.61,104.699
127476,144030,10825,-0.016,-0.992,0.195,-2.012,0.183,0.366,104.702
127476,144052,11037,-0.013,-1,0.231,-2.012,0.183,0.366,104.709
127515,144030,10825,-0.014,-0.989,0.208,-2.195,0.183,0.122,104.712
127515,144106,11057,-0.018,-0.977,0.161,-2.195,0.183,0.122,104.718
127517,144030,10825,-0.018,-0.977,0.161,-2.195,0.183,0.122,104.722
127517,144118,11041,-0.012,-0.981,0.186,-1.829,1.159,0.061,104.728
127544,144030,10825,-0.012,-0.981,0.186,-1.829,1.159,0.061,104.732
127544,144082,11059,-0.015,-0.974,0.189,0.915,1.098,-0.183,104.738
127529,144030,10825,-0.015,-0.974,0.189,0.915,1.098,-0.183,104.742
127529,144117,11045,-0.016,-0.944,0.16,1.037,1.707,-0.366,104.748
127515,144030,10825,-0.016,-0.944,0.16,1.037,1.707,-0.366,104.752
127515,144080,11046,-0.012,-0.956,0.181,1.28,2.439,0.549,104.758
127510,144030,10825,-0.012,-0.956,0.181,1.28,2.439,0.549,104.762
127510,144083,11043,-0.019,-0.948,0.182,2.988,2.134,0.915,104.768
127460,144030,10825,-0.019,-0.948,0.182,2.988,2.134,0.915,104.772
