111152,139416,18577,0.014,-0.962,-0.091,-0.976,0.122,0.549,105.426
111152,139273,8546,0.017,-0.963,-0.094,-0.793,0.061,0.427,105.433
111152,139416,18577,0.016,-0.961,-0.094,-0.793,0.061,0.427,105.436
111152,139271,8542,0.014,-0.96,-0.089,-0.427,0.122,0.366,105.442
111163,139416,18577,0.016,-0.959,-0.089,-0.427,0.122,0.366,105.446
111163,139271,8539,0.019,-0.961,-0.092,-0.122,0.366,0.305,105.452
111136,139416,18577,0.019,-0.96,-0.085,-0.122,0.366,0.305,105.456
111136,139290,8543,0.019,-0.957,-0.082,0.183,0.427,0.305,105.462
111138,139416,18577,0.02,-0.954,-0.08,0.183,0.427,0.305,105.466
111138,139294,8537,0.02,-0.956,-0.082,0.183,0.427,0.305,105.472
111133,139416,18577,0.02,-0.956,-0.082,0.183,0.427,0.305,105.476
111133,139300,8554,0.016,-0.957,-0.083,-0.122,0.488,0.549,105.482
111156,139416,18577,0.016,-0.957,-0.083,-0.122,0.488,0.549,105.486
111156,139293,8539,0.016,-0.962,-0.083,-0.183,0.366,0.549,105.492
111166,139416,18577,0.016,-0.962,-0.083,-0.183,0.366,0.549,105.496
111166,139300,8538,0.016,-0.959,-0.082,-0.244,0.366,0.488,105.502
111148,139416,18577,0.016,-0.959,-0.082,-0.244,0.366,0.488,105.506
111148,139309,8532,0.016,-0.963,-0.087,-0.244,0.427,0.366,105.512
111148,139416,18577,0.016,-0.963,-0.087,-0.244,0.427,0.366,105.515
111148,139279,8540,0.017,-0.967,-0.087,-0.244,0.549,0.305,105.522
111148,139416,18577,0.017,-0.967,-0.087,-0.244,0.549,0.305,105.525
111148,139298,8559,0.016,-0.961,-0.082,0.061,0.549,0.183,105.532
111175,139416,18577,0.016,-0.961,-0.082,0.061,0.549,0.183,105.535
111175,139294,8547,0.018,-0.953,-0.079,0,0.488,0.244,105.541
111148,139416,18577,0.018,-0.953,-0.079,0,0.488,0.244,105.545
111148,139297,8536,0.017,-0.954,-0.084,-0.427,0.366,0.366,105.551
111154,139416,18577,0.017,-0.954,-0.084,-0.427,0.366,0.366,105.555
111154,139314,8531,0.017,-0.957,-0.092,-0.671,0.366,0.427,105.561
111138,139416,18577,0.017,-0.957,-0.092,-0.671,0.366,0.427,105.565
111138,139315,8536,0.018,-0.96,-0.088,-0.61,0.366,0.427,105.571
111141,139416,18577,0.018,-0.96,-0.088,-0.61,0.366,0.427,105.575
111141,139280,8533,0.018,-0.963,-0.09,-0.488,0.427,0.488,105.581
111114,139416,18577,0.018,-0.963,-0.09,-0.488,0.427,0.488,105.585
111114,139277,8532,0.015,-0.961,-0.082,-0.427,0.549,0.549,105.591
111112,139160,18577,0.015,-0.961,-0.082,-0.427,0.549,0.549,105.595
111112,139252,8534,0.015,-0.959,-0.084,-0.244,0.366,0.488,105.601
111105,139416,18577,0.015,-0.959,-0.084,-0.244,0.366,0.488,105.605
111105,139267,8527,0.018,-0.961,-0.085,-0.244,0.366,0.488,105.611
111103,139416,18577,0.018,-0.961,-0.086,-0.305,0.244,0.488,105.614
111103,139277,8543,0.019,-0.962,-0.085,-0.305,0.244,0.488,105.621
111129,139416,18577,0.02,-0.957,-0.085,-0.183,0.122,0.61,105.624
111129,139269,8533,0.02,-0.951,-0.088,-0.183,0.122,0.61,105.631
111114,139416,18577,0.018,-0.952,-0.087,-0.244,0.122,0.549,105.634
111114,139264,8542,0.015,-0.959,-0.094,-0.244,0.122,0.549,105.64
111143,139416,18577,0.017,-0.968,-0.097,-0.549,0.366,0.549,105.644
111143,139271,8533,0.014,-0.969,-0.09,-0.549,0.366,0.549,105.65
111117,139416,18577,0.017,-0.966,-0.087,-0.244,0.549,0.427,105.654
111117,139277,8541,0.014,-0.963,-0.087,-0.244,0.549,0.427,105.66
111111,139160,18577,0.017,-0.955,-0.087,0.305,0.549,0.305,105.664
111111,139230,8544,0.016,-0.953,-0.085,0.305,0.549,0.305,105.67
111116,139160,18577,0.018,-0.958,-0.073,0.366,0.549,0.244,105.674
111116,139255,8532,0.019,-0.959,-0.071,0.366,0.549,0.244,105.68
111087,139160,18577,0.019,-0.955,-0.072,0,0.305,0.366,105.684
111087,139251,8542,0.017,-0.949,-0.076,0,0.305,0.366,105.69
111074,139160,18577,0.015,-0.954,-0.091,-0.793,0.122,0.488,105.694
111074,139205,8542,0.012,-0.967,-0.09,-0.793,0.122,0.488,105.7
111097,139160,18577,0.012,-0.969,-0.087,-0.854,0.183,0.427,105.704
111097,139205,8534,0.018,-0.961,-0.089,-0.854,0.183,0.427,105.71
111087,139160,18577,0.022,-0.955,-0.093,-0.549,0.122,0.305,105.713
111087,139219,8522,0.017,-0.958,-0.094,-0.549,0.122,0.305,105.72
111083,139160,18577,0.014,-0.962,-0.093,0,0.427,0.305,105.723
111083,139218,8530,0.016,-0.962,-0.091,0,0.427,0.305,105.729
111109,139160,18577,0.015,-0.96,-0.084,0.061,0.61,0.305,105.733
111109,139222,8531,0.015,-0.956,-0.077,0.061,0.61,0.305,105.739
111105,139160,18577,0.017,-0.955,-0.08,-0.122,0.427,0.366,105.743
111105,139239,8535,0.016,-0.956,-0.086,-0.122,0.427,0.366,105.749
111100,139160,18577,0.016,-0.96,-0.086,-0.549,0.305,0.244,105.753
111100,139215,8525,0.017,-0.961,-0.086,-0.549,0.305,0.244,105.759
111110,139160,18577,0.021,-0.966,-0.089,-0.549,0.061,0.305,105.763
111110,139209,8530,0.018,-0.965,-0.087,-0.549,0.061,0.305,105.769
111096,139160,18577,0.018,-0.961,-0.091,-0.366,0.305,0.244,105.773
111096,139206,8538,0.018,-0.961,-0.094,-0.366,0.305,0.244,105.779
111089,139160,18577,0.016,-0.962,-0.092,0,0.488,0.122,105.783
111089,139232,8536,0.02,-0.964,-0.088,0,0.488,0.122,105.789
111095,139160,18577,0.019,-0.967,-0.083,0,0.488,0.183,105.793
111095,139210,8532,0.018,-0.959,-0.078,0,0.488,0.183,105.799
111104,139160,18577,0.016,-0.955,-0.076,0.061,0.488,0.244,105.803
111104,139202,8531,0.017,-0.957,-0.082,0.061,0.488,0.244,105.809
111100,139160,18577,0.017,-0.958,-0.084,-0.244,0.488,0.366,105.812
111100,139207,8533,0.018,-0.957,-0.085,-0.244,0.488,0.366,105.819
111099,139160,18577,0.019,-0.956,-0.088,-0.427,0.244,0.488,105.822
111099,139192,8531,0.019,-0.96,-0.086,-0.427,0.244,0.488,105.829
111082,139160,18577,0.018,-0.959,-0.086,-0.305,0.305,0.488,105.832
111082,139221,8542,0.015,-0.959,-0.086,-0.305,0.305,0.488,105.838
111088,139160,18577,0.013,-0.96,-0.088,-0.183,0.244,0.549,105.842
111088,139198,8536,0.017,-0.963,-0.087,-0.183,0.244,0.549,105.848
111088,139160,18577,0.018,-0.96,-0.088,-0.122,0.244,0.488,105.852
111088,139192,8533,0.018,-0.96,-0.089,-0.122,0.244,0.488,105.858
111092,139160,18577,0.016,-0.958,-0.091,0.061,0.305,0.488,105.862
111092,139190,8522,0.016,-0.96,-0.089,0.061,0.305,0.488,105.868
111074,139160,18577,0.017,-0.964,-0.087,0,0.427,0.488,105.872
111074,139206,8543,0.018,-0.961,-0.09,0,0.427,0.488,105.878
111104,139160,18577,0.021,-0.958,-0.092,0.183,0.61,0.488,105.882
111104,139214,8541,0.02,-0.957,-0.087,0.183,0.61,0.488,105.888
111079,139160,18577,0.016,-0.956,-0.085,0.427,0.732,0.427,105.892
111079,139200,8538,0.016,-0.954,-0.089,0.427,0.732,0.427,105.898
111088,139160,18577,0.017,-0.958,-0.087,-0.061,0.549,0.366,105.902
111088,139222,8542,0.013,-0.966,-0.08,-0.061,0.549,0.366,105.908
111065,139160,18577,0.014,-0.964,-0.081,-0.244,0.488,0.244,105.911
111065,139195,8540,0.02,-0.96,-0.083,-0.244,0.488,0.244,105.918
111059,139160,18577,0.019,-0.958,-0.085,-0.061,0.427,0.183,105.921
111059,139183,8535,0.017,-0.963,-0.08,-0.061,0.427,0.183,105.928
111057,139160,18577,0.017,-0.962,-0.081,0,0.549,0.183,105.931
111057,139179,8537,0.016,-0.958,-0.088,0,0.549,0.183,105.937
111074,139160,18577,0.02,-0.962,-0.091,-0.244,0.549,0.061,105.941
111074,139181,8543,0.02,-0.959,-0.094,-0.244,0.549,0.061,105.947
111092,139160,18577,0.016,-0.958,-0.093,-0.122,0.732,0.122,105.951
111092,139200,8538,0.016,-0.959,-0.093,-0.122,0.732,0.122,105.957
111086,139160,18577,0.017,-0.957,-0.084,0.366,0.915,0.183,105.961
111086,139195,8544,0.018,-0.953,-0.084,0.366,0.915,0.183,105.967
111092,139160,18577,0.019,-0.95,-0.085,0.244,0.793,0.427,105.971
111092,139195,8534,0.018,-0.949,-0.083,0.244,0.793,0.427,105.977
111080,139160,18577,0.012,-0.954,-0.082,-0.122,0.854,0.427,105.981
111080,139228,8538,0.014,-0.96,-0.08,-0.122,0.854,0.427,105.987
111074,139160,18577,0.017,-0.958,-0.076,-0.488,0.61,0.549,105.991
111074,139181,8528,0.018,-0.953,-0.078,-0.488,0.61,0.549,105.997
111062,139160,18577,0.016,-0.954,-0.081,-0.854,0.305,0.61,106.001
111062,139192,8545,0.016,-0.958,-0.081,-0.854,0.305,0.61,106.007
111076,139160,18577,0.014,-0.964,-0.089,-0.915,0.244,0.61,106.01
111076,139183,8539,0.015,-0.968,-0.089,-0.915,0.244,0.61,106.017
111075,139160,18577,0.017,-0.967,-0.088,-0.915,0.183,0.427,106.02
111075,139207,8538,0.018,-0.967,-0.092,-0.915,0.183,0.427,106.027
111072,139160,18577,0.016,-0.965,-0.09,-0.671,0.244,0.305,106.03
111072,139192,8540,0.015,-0.966,-0.092,-0.671,0.244,0.305,106.036
111077,139160,18577,0.016,-0.962,-0.095,-0.244,0.488,0.183,106.04
111077,139186,8537,0.019,-0.961,-0.094,-0.244,0.488,0.183,106.046
111081,139160,18577,0.019,-0.961,-0.09,0.366,0.427,0.122,106.05
111081,139195,8537,0.02,-0.958,-0.086,0.366,0.427,0.122,106.056
111079,139160,18577,0.02,-0.958,-0.086,0.366,0.427,0.122,106.06
111079,139191,8537,0.019,-0.953,-0.087,0.488,0.488,0.183,106.066
111082,139160,18577,0.019,-0.953,-0.087,0.488,0.488,0.183,106.07
111082,139217,8558,0.016,-0.959,-0.085,0.061,0.488,0.183,106.076
111094,139160,18577,0.016,-0.959,-0.085,0.061,0.488,0.183,106.08
111094,139214,8539,0.02,-0.957,-0.078,-0.305,0.366,0.122,106.086
111090,139160,18577,0.02,-0.957,-0.078,-0.305,0.366,0.122,106.09
111090,139217,8542,0.016,-0.96,-0.086,-0.61,0.366,0.122,106.096
111089,139160,18577,0.016,-0.96,-0.086,-0.61,0.366,0.122,106.1
111089,139235,8545,0.017,-0.963,-0.085,-0.793,0.366,0.183,106.106
111100,139160,18577,0.017,-0.963,-0.085,-0.793,0.366,0.183,106.109
111100,139195,8526,0.019,-0.955,-0.084,-0.671,0.183,0.244,106.116
111093,139160,18577,0.019,-0.955,-0.084,-0.671,0.183,0.244,106.119
111093,139227,8533,0.019,-0.954,-0.09,-0.61,-0.061,0.366,106.126
111080,139160,18577,0.019,-0.954,-0.09,-0.61,-0.061,0.366,106.129
111080,139226,8540,0.015,-0.951,-0.09,-0.61,-0.061,0.427,106.135
111081,139160,18577,0.015,-0.951,-0.09,-0.61,-0.061,0.427,106.139
111081,139226,8535,0.019,-0.956,-0.091,-0.61,-0.061,0.488,106.145
111094,139160,18577,0.019,-0.956,-0.091,-0.61,-0.061,0.488,106.149
111094,139220,8539,0.016,-0.954,-0.088,-0.61,0.183,0.427,106.155
111088,139160,18577,0.016,-0.954,-0.088,-0.61,0.183,0.427,106.159
111088,139224,8547,0.017,-0.968,-0.083,-0.61,0.488,0.488,106.165
111112,139160,18577,0.017,-0.968,-0.083,-0.61,0.488,0.488,106.169
111112,139259,8527,0.017,-0.963,-0.086,-0.488,0.488,0.488,106.175
111092,139160,18577,0.017,-0.963,-0.086,-0.488,0.488,0.488,106.179
111092,139252,8544,0.017,-0.964,-0.085,-0.427,0.305,0.366,106.185
111131,139160,18577,0.017,-0.964,-0.085,-0.427,0.305,0.366,106.189
111131,139250,8551,0.018,-0.962,-0.087,-0.061,0.244,0.427,106.195
111115,139416,18577,0.018,-0.962,-0.087,-0.061,0.244,0.427,106.199
111115,139286,8547,0.019,-0.96,-0.086,0.061,0.305,0.427,106.205
111130,139416,18577,0.016,-0.962,-0.088,0.061,0.305,0.427,106.208
111130,139265,8549,0.016,-0.96,-0.084,-0.061,0.488,0.305,106.215
111135,139416,18577,0.018,-0.961,-0.083,-0.061,0.488,0.305,106.218
111135,139275,8542,0.017,-0.958,-0.082,-0.122,0.549,0.183,106.225
111161,139416,18577,0.016,-0.959,-0.082,-0.122,0.549,0.183,106.228
111161,139306,8534,0.014,-0.957,-0.08,0.061,0.488,0.183,106.234
111159,139416,18577,0.017,-0.956,-0.083,0.061,0.488,0.183,106.238
111159,139283,8549,0.021,-0.953,-0.087,-0.122,0.183,0.244,106.244
111128,139416,18577,0.024,-0.954,-0.091,-0.122,0.183,0.244,106.248
111128,139293,8545,0.02,-0.955,-0.091,-0.427,0.061,0.488,106.254
111151,139416,18577,0.018,-0.957,-0.088,-0.427,0.061,0.488,106.258
111151,139289,8547,0.02,-0.959,-0.091,-0.549,0.427,0.671,106.264
111127,139416,18577,0.018,-0.954,-0.09,-0.549,0.427,0.671,106.268
111127,139286,8534,0.016,-0.956,-0.092,-0.61,0.427,0.793,106.274
111131,139416,18577,0.014,-0.961,-0.089,-0.61,0.427,0.793,106.278
111131,139286,8555,0.016,-0.96,-0.089,-0.61,0.366,0.732,106.284
111115,139416,18577,0.012,-0.961,-0.089,-0.61,0.366,0.732,106.288
111115,139273,8554,0.015,-0.963,-0.087,-0.549,0.305,0.671,106.294
111108,139160,18577,0.015,-0.962,-0.086,-0.549,0.305,0.671,106.298
111108,139256,8538,0.015,-0.958,-0.088,-0.427,0.305,0.61,106.304
111097,139416,18577,0.015,-0.958,-0.087,-0.427,0.305,0.61,106.307
111097,139278,8533,0.017,-0.962,-0.084,-0.305,0.305,0.488,106.314
111095,139160,18577,0.016,-0.963,-0.083,-0.305,0.305,0.488,106.317
111095,139257,8528,0.015,-0.959,-0.079,-0.488,0.305,0.305,106.324
111097,139160,18577,0.017,-0.962,-0.077,-0.488,0.305,0.305,106.327
111097,139233,8543,0.015,-0.964,-0.082,-0.671,0.244,0.122,106.333
111086,139416,18577,0.011,-0.969,-0.087,-0.671,0.244,0.122,106.337
111086,139283,8539,0.012,-0.97,-0.089,-0.793,0.305,-0.122,106.343
111108,139416,18577,0.017,-0.965,-0.089,-0.793,0.305,-0.122,106.347
111108,139268,8544,0.02,-0.959,-0.087,-0.549,0.183,-0.183,106.353
111112,139416,18577,0.02,-0.958,-0.089,-0.549,0.183,-0.183,106.357
111112,139273,8547,0.019,-0.955,-0.094,-0.427,0.183,-0.244,106.363
111122,139416,18577,0.018,-0.953,-0.094,-0.427,0.183,-0.244,106.367
111122,139287,8552,0.019,-0.954,-0.09,-0.549,0.122,-0.122,106.373
111109,139416,18577,0.02,-0.95,-0.086,-0.549,0.122,-0.122,106.377
111109,139276,8555,0.019,-0.95,-0.087,-0.671,0.183,0.061,106.383
111117,139416,18577,0.016,-0.954,-0.084,-0.671,0.183,0.061,106.387
111117,139282,8534,0.017,-0.955,-0.085,-0.854,0.122,0.244,106.393
111080,139160,18577,0.016,-0.954,-0.085,-0.854,0.122,0.244,106.397
111080,139248,8536,0.019,-0.957,-0.085,-1.28,-0.061,0.366,106.403
111073,139160,18577,0.018,-0.961,-0.088,-1.28,-0.061,0.366,106.406
111073,139241,8535,0.015,-0.964,-0.087,-1.341,-0.183,0.427,106.413
111114,139416,18577,0.017,-0.962,-0.085,-1.341,-0.183,0.427,106.416
111114,139270,8541,0.019,-0.96,-0.092,-1.22,-0.122,0.488,106.423
111092,139160,18577,0.018,-0.965,-0.093,-1.22,-0.122,0.488,106.426
111092,139262,8542,0.017,-0.968,-0.089,-0.854,-0.122,0.244,106.432
111096,139160,18577,0.016,-0.964,-0.09,-0.854,-0.122,0.244,106.436
111096,139260,8543,0.016,-0.96,-0.091,-0.732,0,0.183,106.442
111106,139416,18577,0.02,-0.961,-0.09,-0.732,0,0.183,106.446
111106,139265,8540,0.019,-0.959,-0.09,-0.549,0.061,0.183,106.452
111072,139416,18577,0.018,-0.962,-0.093,-0.549,0.061,0.183,106.456
111072,139268,8552,0.017,-0.96,-0.091,-0.427,0.183,0.061,106.462
111073,139160,18577,0.019,-0.954,-0.089,-0.427,0.183,0.061,106.466
111073,139244,8532,0.018,-0.949,-0.092,-0.244,0.183,0.183,106.472
111083,139160,18577,0.018,-0.952,-0.091,-0.244,0.183,0.183,106.476
111083,139232,8534,0.019,-0.949,-0.089,-0.366,0.305,0.183,106.482
111089,139160,18577,0.014,-0.952,-0.091,-0.366,0.305,0.183,106.486
111089,139231,8528,0.018,-0.959,-0.087,-0.427,0.183,0.305,106.492
111081,139160,18577,0.022,-0.956,-0.08,-0.427,0.183,0.305,106.496
111081,139207,8545,0.017,-0.957,-0.082,-0.732,-0.122,0.488,106.502
111072,139160,18577,0.017,-0.958,-0.086,-0.732,-0.122,0.488,106.505
111072,139223,8531,0.016,-0.962,-0.09,-1.098,-0.061,0.549,106.512
111074,139160,18577,0.016,-0.967,-0.089,-1.098,-0.061,0.549,106.515
111074,139199,8525,0.017,-0.968,-0.089,-1.22,-0.061,0.427,106.522
111051,139160,18577,0.018,-0.969,-0.086,-1.22,-0.061,0.427,106.525
111051,139212,8529,0.019,-0.966,-0.087,-0.915,-0.122,0.244,106.531
111069,139160,18577,0.019,-0.965,-0.092,-0.915,-0.122,0.244,106.535
111069,139196,8539,0.02,-0.963,-0.097,-0.427,0.122,0.244,106.541
111034,139160,18577,0.021,-0.961,-0.089,-0.427,0.122,0.244,106.545
111034,139193,8531,0.018,-0.96,-0.09,-0.305,0.244,0.366,106.551
111046,139160,18577,0.02,-0.959,-0.091,-0.305,0.244,0.366,106.555
111046,139178,8531,0.016,-0.955,-0.095,-0.122,0.549,0.366,106.561
111052,139160,18577,0.016,-0.957,-0.091,-0.122,0.549,0.366,106.565
111052,139184,8530,0.017,-0.958,-0.09,0.061,0.61,0.305,106.571
111040,139160,18577,0.017,-0.954,-0.086,0.061,0.61,0.305,106.575
111040,139156,8530,0.017,-0.958,-0.085,0.122,0.61,0.244,106.581
111029,139160,18577,0.016,-0.958,-0.09,0.122,0.61,0.244,106.585
111029,139182,8521,0.013,-0.96,-0.09,-0.244,0.488,0.244,106.591
111038,139160,18577,0.016,-0.961,-0.09,-0.244,0.488,0.244,106.595
111038,139157,8534,0.021,-0.957,-0.09,-0.366,0.305,0.244,106.601
111002,139160,18577,0.017,-0.953,-0.09,-0.366,0.305,0.244,106.604
111002,139160,8542,0.016,-0.955,-0.091,-0.305,0.305,0.305,106.611
111015,139160,18577,0.017,-0.959,-0.094,-0.305,0.305,0.305,106.614
111015,139139,8531,0.018,-0.96,-0.092,-0.183,0.427,0.305,106.621
110992,139160,18577,0.021,-0.955,-0.089,-0.183,0.427,0.305,106.624
110992,139129,8542,0.019,-0.955,-0.088,-0.366,0.366,0.366,106.63
110983,139160,18577,0.018,-0.96,-0.088,-0.366,0.366,0.366,106.634
110983,139131,8524,0.016,-0.964,-0.085,-0.427,0.427,0.305,106.64
110998,139160,18577,0.016,-0.964,-0.085,-0.427,0.427,0.305,106.644
110998,139095,8536,0.018,-0.958,-0.089,-0.244,0.427,0.305,106.65
110990,139160,18577,0.018,-0.958,-0.089,-0.244,0.427,0.305,106.654
110990,139111,8527,0.018,-0.964,-0.087,-0.183,0.366,0.305,106.66
110980,139160,18577,0.018,-0.964,-0.087,-0.183,0.366,0.305,106.664
110980,139111,8528,0.016,-0.96,-0.087,-0.183,0.366,0.244,106.67
110971,139160,18577,0.016,-0.96,-0.087,-0.183,0.366,0.244,106.674
110971,139104,8538,0.015,-0.959,-0.089,0,0.305,0.244,106.68
110976,139160,18577,0.015,-0.959,-0.089,0,0.305,0.244,106.684
110976,139103,8521,0.017,-0.958,-0.09,0.061,0.427,0.305,106.69
110954,139160,18577,0.017,-0.958,-0.09,0.061,0.427,0.305,106.694
110954,139089,8530,0.022,-0.955,-0.093,0.061,0.305,0.244,106.7
110958,139160,18577,0.022,-0.955,-0.093,0.061,0.305,0.244,106.703
110958,139086,8516,0.02,-0.954,-0.089,0.183,0.427,0.366,106.71
110944,139160,18577,0.02,-0.954,-0.089,0.183,0.427,0.366,106.713
110944,139067,8509,0.017,-0.954,-0.093,0.183,0.427,0.427,106.72
110923,139160,18577,0.017,-0.954,-0.093,0.183,0.427,0.427,106.723
110923,139020,8523,0.02,-0.957,-0.091,-0.122,0.488,0.427,106.729
110906,139160,18577,0.02,-0.957,-0.091,-0.122,0.488,0.427,106.733
110906,139048,8533,0.02,-0.96,-0.093,-0.122,0.671,0.488,106.739
110905,139160,18577,0.02,-0.96,-0.093,-0.122,0.671,0.488,106.743
110905,139008,8531,0.016,-0.954,-0.09,0.061,0.854,0.671,106.749
110894,139160,18577,0.016,-0.954,-0.09,0.061,0.854,0.671,106.753
110894,139045,8531,0.018,-0.962,-0.084,0.122,0.854,0.671,106.759
110919,139160,18577,0.018,-0.962,-0.084,0.122,0.854,0.671,106.763
110919,139035,8526,0.019,-0.958,-0.079,0.061,0.732,0.671,106.769
110917,139160,18577,0.019,-0.958,-0.079,0.061,0.732,0.671,106.773
110917,139022,8531,0.013,-0.958,-0.091,-0.244,0.671,0.61,106.779
110902,139160,18577,0.013,-0.958,-0.091,-0.244,0.671,0.61,106.783
110902,139008,8519,0.014,-0.97,-0.087,-0.244,0.549,0.488,106.789
110921,139160,18577,0.014,-0.97,-0.087,-0.244,0.549,0.488,106.793
110921,139014,8515,0.017,-0.963,-0.09,-0.244,0.549,0.488,106.799
110904,138904,18577,0.018,-0.96,-0.09,-0.061,0.549,0.427,106.802
110904,138996,8528,0.015,-0.961,-0.091,-0.061,0.549,0.427,106.809
110906,138904,18577,0.011,-0.961,-0.093,0.305,0.549,0.305,106.812
110906,139002,8514,0.012,-0.962,-0.094,0.305,0.549,0.305,106.819
110870,139160,18577,0.016,-0.959,-0.091,0.305,0.427,0.244,106.822
110870,139008,8528,0.016,-0.957,-0.092,0.305,0.427,0.244,106.828
110899,138904,18577,0.015,-0.958,-0.089,0.183,0.549,0.061,106.832
110899,138981,8507,0.018,-0.957,-0.092,0.183,0.549,0.061,106.838
110887,138904,18577,0.022,-0.952,-0.087,0.122,0.427,-0.061,106.842
110887,139005,8518,0.017,-0.952,-0.089,0.122,0.427,-0.061,106.848
110895,138904,18577,0.02,-0.962,-0.089,0,0.366,0.061,106.852
110895,139005,8538,0.02,-0.962,-0.088,0,0.366,0.061,106.858
110896,138904,18577,0.02,-0.958,-0.086,-0.244,0.305,0.061,106.862
110896,138976,8521,0.022,-0.959,-0.086,-0.244,0.305,0.061,106.868
110886,138904,18577,0.02,-0.961,-0.084,-0.366,0.366,0.244,106.872
110886,139001,8509,0.019,-0.964,-0.088,-0.366,0.366,0.244,106.878
110888,138904,18577,0.019,-0.965,-0.088,-0.305,0.305,0.244,106.882
110888,139001,8526,0.017,-0.966,-0.089,-0.305,0.305,0.244,106.888
110876,138904,18577,0.015,-0.965,-0.094,-0.122,0.244,0.305,106.892
110876,138988,8520,0.017,-0.966,-0.092,-0.122,0.244,0.305,106.898
110895,138904,18577,0.014,-0.968,-0.091,0.183,0.366,0.183,106.901
110895,138984,8526,0.016,-0.965,-0.094,0.183,0.366,0.183,106.908
110912,138904,18577,0.017,-0.96,-0.093,0.61,0.488,0.061,106.911
110912,138983,8522,0.014,-0.955,-0.09,0.61,0.488,0.061,106.918
110875,138904,18577,0.013,-0.951,-0.089,0.732,0.488,0.061,106.921
110875,138987,8511,0.018,-0.951,-0.089,0.732,0.488,0.061,106.927
110865,138904,18577,0.017,-0.948,-0.092,0.488,0.427,0.061,106.931
110865,138974,8521,0.018,-0.946,-0.088,0.488,0.427,0.061,106.937
110858,138904,18577,0.018,-0.95,-0.089,0.183,0.427,0.122,106.941
110858,138984,8522,0.016,-0.95,-0.088,0.183,0.427,0.122,106.947
110881,138904,18577,0.014,-0.946,-0.086,-0.122,0.427,0.305,106.951
110881,138973,8514,0.016,-0.946,-0.085,-0.122,0.427,0.305,106.957
110838,138904,18577,0.018,-0.95,-0.086,-0.366,0.427,0.427,106.961
110838,138961,8519,0.018,-0.958,-0.087,-0.366,0.427,0.427,106.967
110855,138904,18577,0.016,-0.968,-0.086,-0.793,0.366,0.305,106.971
110855,138980,8501,0.019,-0.968,-0.088,-0.793,0.366,0.305,106.977
110850,138904,18577,0.023,-0.969,-0.09,-0.671,0.183,0.244,106.981
110850,138978,8517,0.024,-0.968,-0.087,-0.671,0.183,0.244,106.987
110852,138904,18577,0.021,-0.966,-0.091,-0.427,0.183,0.305,106.991
110852,138965,8516,0.021,-0.966,-0.088,-0.427,0.183,0.305,106.997
110853,138904,18577,0.023,-0.967,-0.091,-0.183,0.305,0.305,107
110853,138969,8520,0.021,-0.967,-0.093,-0.183,0.305,0.305,107.007
110874,138904,18577,0.021,-0.968,-0.088,0.244,0.671,0.244,107.01
110874,138977,8524,0.021,-0.962,-0.093,0.244,0.671,0.244,107.017
110856,138904,18577,0.018,-0.96,-0.091,0.61,0.854,0.244,107.02
110856,138994,8516,0.015,-0.959,-0.087,0.61,0.854,0.244,107.026
110855,138904,18577,0.016,-0.954,-0.083,0.732,0.732,0.366,107.03
110855,138960,8522,0.016,-0.952,-0.087,0.732,0.732,0.366,107.036
110832,138904,18577,0.018,-0.953,-0.084,0.549,0.61,0.549,107.04
110832,138951,8513,0.014,-0.952,-0.079,0.549,0.61,0.549,107.046
110813,138904,18577,0.011,-0.951,-0.081,0.122,0.427,0.427,107.05
110813,138942,8506,0.015,-0.954,-0.081,0.122,0.427,0.427,107.056
110792,138904,18577,0.017,-0.949,-0.084,-0.488,0.183,0.549,107.06
110792,138949,8516,0.017,-0.954,-0.09,-0.488,0.183,0.549,107.066
110792,138904,18577,0.016,-0.959,-0.09,-0.976,0,0.488,107.07
110792,138934,8500,0.018,-0.964,-0.095,-0.976,0,0.488,107.076
110781,138904,18577,0.018,-0.963,-0.097,-0.976,0,0.427,107.08
110781,138948,8489,0.017,-0.965,-0.092,-0.976,0,0.427,107.086
110804,138904,18577,0.016,-0.967,-0.091,-0.366,0.244,0.305,107.09
110804,138907,8509,0.016,-0.964,-0.087,-0.366,0.244,0.305,107.096
110765,138904,18577,0.018,-0.963,-0.087,-0.061,0.427,0.183,107.099
110765,138921,8504,0.019,-0.965,-0.091,-0.061,0.427,0.183,107.106
110780,138904,18577,0.019,-0.963,-0.089,0.061,0.61,0.061,107.109
110780,138908,8503,0.021,-0.964,-0.088,0.061,0.61,0.061,107.116
110758,138904,18577,0.019,-0.959,-0.083,0.366,0.732,0.122,107.119
110758,138942,8494,0.021,-0.954,-0.084,0.366,0.732,0.122,107.125
110787,138904,18577,0.021,-0.951,-0.088,0.244,0.732,0.244,107.129
110787,138948,8498,0.017,-0.955,-0.088,0.244,0.732,0.244,107.135
110792,138904,18577,0.017,-0.958,-0.087,0,0.61,0.244,107.139
110792,138929,8513,0.019,-0.955,-0.09,0,0.61,0.244,107.145
110796,138904,18577,0.021,-0.95,-0.088,-0.183,0.488,0.366,107.149
110796,138952,8498,0.017,-0.948,-0.083,-0.183,0.488,0.366,107.155
110794,138904,18577,0.015,-0.958,-0.087,-0.549,0.305,0.488,107.159
110794,138940,8516,0.015,-0.965,-0.092,-0.549,0.305,0.488,107.165
110806,138904,18577,0.013,-0.964,-0.089,-0.793,0.244,0.366,107.169
110806,138950,8493,0.02,-0.96,-0.087,-0.793,0.244,0.366,107.175
110779,138904,18577,0.021,-0.961,-0.088,-0.732,0.122,0.305,107.179
110779,138957,8510,0.018,-0.963,-0.091,-0.732,0.122,0.305,107.185
110809,138904,18577,0.019,-0.965,-0.089,-0.488,0.244,0.244,107.189
110809,138953,8511,0.017,-0.964,-0.086,-0.488,0.244,0.244,107.195
110805,138904,18577,0.018,-0.961,-0.085,-0.427,0.244,0.244,107.198
110805,138961,8505,0.02,-0.956,-0.089,-0.427,0.244,0.244,107.205
110830,138904,18577,0.019,-0.961,-0.089,-0.305,0.244,0.183,107.208
110830,138994,8504,0.018,-0.962,-0.091,-0.305,0.244,0.183,107.215
110817,138904,18577,0.018,-0.96,-0.087,-0.122,0.305,0.244,107.218
110817,138999,8505,0.018,-0.951,-0.089,-0.122,0.305,0.244,107.224
110830,139160,18577,0.019,-0.95,-0.092,-0.183,0.427,0.305,107.228
110830,139014,8509,0.02,-0.959,-0.089,-0.183,0.427,0.305,107.234
110817,138904,18577,0.02,-0.959,-0.089,-0.183,0.427,0.305,107.238
110817,138996,8518,0.017,-0.96,-0.094,-0.244,0.427,0.366,107.244
110845,138904,18577,0.017,-0.96,-0.094,-0.244,0.427,0.366,107.248
110845,138972,8502,0.018,-0.957,-0.086,-0.122,0.366,0.488,107.254
110811,138904,18577,0.018,-0.957,-0.086,-0.122,0.366,0.488,107.258
110811,138977,8505,0.018,-0.96,-0.088,-0.122,0.427,0.427,107.264
110832,138904,18577,0.018,-0.96,-0.088,-0.122,0.427,0.427,107.268
110832,138976,8517,0.019,-0.966,-0.085,-0.366,0.366,0.366,107.274
110817,138904,18577,0.019,-0.966,-0.085,-0.366,0.366,0.366,107.278
110817,138968,8506,0.018,-0.963,-0.092,-0.366,0.305,0.305,107.284
110827,138904,18577,0.018,-0.963,-0.092,-0.366,0.305,0.305,107.288
110827,138968,8501,0.017,-0.96,-0.087,-0.244,0.305,0.244,107.294
110826,138904,18577,0.017,-0.96,-0.087,-0.244,0.305,0.244,107.298
110826,138967,8516,0.02,-0.955,-0.09,-0.061,0.366,0.183,107.304
110830,138904,18577,0.02,-0.955,-0.09,-0.061,0.366,0.183,107.307
110830,138964,8505,0.015,-0.951,-0.086,0.122,0.427,0.183,107.314
110816,138904,18577,0.015,-0.951,-0.086,0.122,0.427,0.183,107.317
110816,138975,8510,0.017,-0.951,-0.091,-0.061,0.122,0.244,107.323
110834,138904,18577,0.017,-0.951,-0.091,-0.061,0.122,0.244,107.327
110834,138972,8507,0.017,-0.955,-0.091,-0.427,0,0.366,107.333
110815,138904,18577,0.017,-0.955,-0.091,-0.427,0,0.366,107.337
110815,138958,8507,0.019,-0.968,-0.088,-0.732,0.122,0.305,107.343
110798,138904,18577,0.019,-0.968,-0.088,-0.732,0.122,0.305,107.347
110798,138964,8499,0.018,-0.97,-0.09,-0.732,0.244,0.183,107.353
110795,138904,18577,0.018,-0.97,-0.09,-0.732,0.244,0.183,107.357
110795,138959,8506,0.019,-0.965,-0.087,-0.61,0.305,0,107.363
110811,138904,18577,0.019,-0.965,-0.087,-0.61,0.305,0,107.367
110811,138974,8490,0.018,-0.964,-0.088,-0.366,0.244,0,107.373
110793,138904,18577,0.018,-0.964,-0.088,-0.366,0.244,0,107.377
110793,138988,8500,0.021,-0.958,-0.089,0,0.305,0.061,107.383
110817,138904,18577,0.022,-0.954,-0.086,0,0.305,0.061,107.387
110817,138977,8509,0.02,-0.952,-0.089,-0.061,0.244,0.061,107.393
110814,138904,18577,0.019,-0.95,-0.088,-0.061,0.244,0.061,107.396
110814,138973,8489,0.015,-0.955,-0.091,-0.366,0.183,0.244,107.403
110817,138904,18577,0.017,-0.956,-0.096,-0.366,0.183,0.244,107.406
110817,138992,8509,0.018,-0.957,-0.089,-0.61,0.305,0.244,107.413
110813,138904,18577,0.018,-0.958,-0.092,-0.61,0.305,0.244,107.416
110813,138980,8519,0.02,-0.963,-0.094,-0.488,0.366,0.183,107.422
110829,138904,18577,0.021,-0.965,-0.091,-0.488,0.366,0.183,107.426
110829,138989,8495,0.02,-0.962,-0.091,-0.366,0.549,0.244,107.432
110816,138904,18577,0.019,-0.96,-0.092,-0.366,0.549,0.244,107.436
110816,138994,8490,0.02,-0.961,-0.086,-0.244,0.549,0.244,107.442
110800,138904,18577,0.02,-0.963,-0.088,-0.244,0.549,0.244,107.446
110800,139002,8507,0.017,-0.962,-0.086,-0.305,0.366,0.183,107.452
110814,138904,18577,0.016,-0.96,-0.085,-0.305,0.366,0.183,107.456
110814,138977,8516,0.017,-0.959,-0.085,-0.549,0.366,0.122,107.462
110803,138904,18577,0.015,-0.958,-0.086,-0.549,0.366,0.122,107.466
110803,138989,8511,0.017,-0.959,-0.086,-0.732,0.183,0,107.472
110805,138904,18577,0.017,-0.958,-0.087,-0.732,0.183,0,107.476
110805,138989,8513,0.016,-0.958,-0.086,-0.61,0.061,0.061,107.482
110807,138904,18577,0.017,-0.954,-0.09,-0.61,0.061,0.061,107.486
110807,138988,8514,0.019,-0.953,-0.091,-0.854,0.122,0.122,107.492
110808,138904,18577,0.019,-0.953,-0.09,-0.854,0.122,0.122,107.495
110808,139006,8498,0.02,-0.956,-0.089,-0.671,0.183,0.183,107.502
110786,138904,18577,0.021,-0.953,-0.09,-0.671,0.183,0.183,107.505
110786,138987,8501,0.02,-0.958,-0.092,-0.793,0.244,0.305,107.512
110787,138904,18577,0.016,-0.964,-0.09,-0.793,0.244,0.305,107.515
110787,138983,8512,0.017,-0.966,-0.09,-0.671,0.305,0.244,107.521
110813,138904,18577,0.021,-0.961,-0.095,-0.671,0.305,0.244,107.525
110813,138964,8510,0.019,-0.964,-0.086,-0.61,0.427,0.183,107.531
110807,138904,18577,0.017,-0.969,-0.082,-0.61,0.427,0.183,107.535
110807,138987,8492,0.015,-0.969,-0.085,-0.549,0.549,0.061,107.541
110793,138904,18577,0.015,-0.966,-0.096,-0.549,0.549,0.061,107.545
110793,138993,8511,0.018,-0.966,-0.091,-0.61,0.305,-0.061,107.551
110820,138904,18577,0.018,-0.961,-0.089,-0.61,0.305,-0.061,107.555
110820,138976,8516,0.021,-0.953,-0.093,-0.305,0.061,-0.244,107.561
110825,138904,18577,0.023,-0.951,-0.094,-0.305,0.061,-0.244,107.565
110825,138978,8511,0.025,-0.949,-0.092,0,0.122,-0.061,107.571
110825,138904,18577,0.023,-0.947,-0.087,0,0.122,-0.061,107.575
110825,138998,8507,0.02,-0.946,-0.086,-0.122,0.305,0.244,107.581
110813,138904,18577,0.02,-0.947,-0.089,-0.122,0.305,0.244,107.585
110813,138996,8505,0.021,-0.952,-0.086,-0.671,0.305,0.244,107.591
110805,138904,18577,0.02,-0.957,-0.092,-0.671,0.305,0.244,107.594
110805,139002,8509,0.018,-0.965,-0.095,-1.159,0.122,0.305,107.601
110823,138904,18577,0.023,-0.966,-0.091,-1.159,0.122,0.305,107.604
110823,138999,8509,0.026,-0.967,-0.089,-0.854,0.183,0.427,107.611
110821,139160,18577,0.022,-0.96,-0.089,-0.854,0.183,0.427,107.614
110821,139021,8519,0.021,-0.961,-0.092,-0.549,0.427,0.488,107.62
110828,139160,18577,0.02,-0.966,-0.091,-0.549,0.427,0.488,107.624
110828,139011,8489,0.02,-0.959,-0.092,-0.305,0.61,0.549,107.63
110794,139160,18577,0.02,-0.961,-0.098,-0.305,0.61,0.549,107.634
110794,139017,8519,0.019,-0.967,-0.093,0.122,0.549,0.61,107.64
110825,138904,18577,0.021,-0.958,-0.093,0.122,0.549,0.61,107.644
110825,138990,8510,0.019,-0.951,-0.081,0.488,0.671,0.61,107.65
110823,139160,18577,0.018,-0.948,-0.081,0.488,0.671,0.61,107.654
110823,139028,8505,0.015,-0.949,-0.084,0.366,0.61,0.793,107.66
110811,139160,18577,0.012,-0.952,-0.088,0.366,0.61,0.793,107.664
110811,139019,8509,0.016,-0.959,-0.089,-0.244,0.183,0.793,107.67
110824,139160,18577,0.02,-0.962,-0.089,-0.244,0.183,0.793,107.674
110824,139011,8505,0.018,-0.959,-0.089,-0.305,0.061,0.549,107.68
110824,139160,18577,0.016,-0.959,-0.09,-0.305,0.061,0.549,107.684
110824,139019,8509,0.016,-0.964,-0.094,-0.549,0.122,0.488,107.69
110821,139160,18577,0.015,-0.966,-0.093,-0.549,0.122,0.488,107.693
110821,139030,8494,0.019,-0.969,-0.094,-0.61,0.366,0.244,107.7
110830,139160,18577,0.018,-0.97,-0.092,-0.61,0.366,0.244,107.703
110830,139023,8519,0.022,-0.964,-0.093,-0.366,0.488,0,107.71
110820,139160,18577,0.024,-0.964,-0.093,-0.366,0.488,0,107.713
110820,139032,8510,0.021,-0.962,-0.088,-0.061,0.671,0,107.719
110810,139160,18577,0.019,-0.961,-0.083,-0.061,0.671,0,107.723
110810,139013,8521,0.021,-0.958,-0.087,0.244,0.549,0.061,107.729
110810,139160,18577,0.023,-0.954,-0.087,0.244,0.549,0.061,107.733
110810,139037,8512,0.024,-0.953,-0.087,0.244,0.183,0.244,107.739
110837,139160,18577,0.019,-0.953,-0.086,0.244,0.183,0.244,107.743
110837,139019,8498,0.018,-0.955,-0.084,-0.122,0.244,0.366,107.749
110815,139160,18577,0.019,-0.955,-0.087,-0.122,0.244,0.366,107.753
110815,139029,8498,0.02,-0.953,-0.092,-0.488,0.244,0.366,107.759
110809,139160,18577,0.018,-0.96,-0.092,-0.488,0.244,0.366,107.763
110809,139039,8506,0.018,-0.966,-0.091,-0.61,0.244,0.366,107.769
110801,139160,18577,0.015,-0.967,-0.089,-0.61,0.244,0.366,107.773
110801,139031,8496,0.017,-0.961,-0.09,-0.183,0.244,0.366,107.779
110786,139160,18577,0.02,-0.955,-0.094,-0.183,0.244,0.366,107.783
110786,139042,8499,0.018,-0.959,-0.092,0.305,0.427,0.366,107.789
110789,138904,18577,0.02,-0.96,-0.091,0.305,0.427,0.366,107.792
110789,139005,8490,0.021,-0.956,-0.087,0.244,0.488,0.305,107.799
110793,139160,18577,0.021,-0.953,-0.089,0.244,0.488,0.305,107.802
110793,139016,8507,0.017,-0.95,-0.091,0.305,0.549,0.305,107.809
110778,139160,18577,0.019,-0.95,-0.087,0.305,0.549,0.305,107.812
110778,139016,8493,0.017,-0.954,-0.092,0.183,0.671,0.366,107.818
110775,139160,18577,0.017,-0.954,-0.092,0.183,0.671,0.366,107.822
110775,139016,8519,0.02,-0.956,-0.09,0.183,0.488,0.366,107.828
110774,139160,18577,0.02,-0.956,-0.09,0.183,0.488,0.366,107.832
110774,139027,8494,0.019,-0.957,-0.094,0.122,0.244,0.488,107.838
110796,139160,18577,0.019,-0.957,-0.094,0.122,0.244,0.488,107.842
110796,139031,8502,0.02,-0.961,-0.09,-0.061,0.244,0.61,107.848
110760,139160,18577,0.02,-0.961,-0.09,-0.061,0.244,0.61,107.852
110760,139026,8527,0.019,-0.969,-0.088,0,0.366,0.61,107.858
110783,139160,18577,0.019,-0.969,-0.088,0,0.366,0.61,107.862
110783,139032,8482,0.021,-0.965,-0.087,0.305,0.366,0.488,107.868
110796,139160,18577,0.021,-0.965,-0.087,0.305,0.366,0.488,107.872
110796,139034,8509,0.023,-0.968,-0.087,0.549,0.427,0.366,107.878
110804,139160,18577,0.023,-0.968,-0.087,0.549,0.427,0.366,107.882
110804,139029,8507,0.02,-0.962,-0.089,0.61,0.793,0.366,107.888
110794,139160,18577,0.02,-0.962,-0.089,0.61,0.793,0.366,107.891
110794,139067,8511,0.025,-0.953,-0.092,0.732,0.915,0.488,107.898
110794,139160,18577,0.025,-0.953,-0.092,0.732,0.915,0.488,107.901
110794,139021,8515,0.017,-0.956,-0.089,0.549,1.037,0.671,107.908
110790,139160,18577,0.017,-0.956,-0.089,0.549,1.037,0.671,107.911
110790,139067,8502,0.019,-0.953,-0.091,0.427,0.793,0.854,107.917
110788,139160,18577,0.019,-0.953,-0.091,0.427,0.793,0.854,107.921
110788,139065,8506,0.017,-0.952,-0.081,0.122,0.488,0.793,107.927
110777,139160,18577,0.017,-0.952,-0.081,0.122,0.488,0.793,107.931
110777,139056,8501,0.016,-0.964,-0.088,-0.183,0.488,0.793,107.937
110769,139160,18577,0.016,-0.964,-0.088,-0.183,0.488,0.793,107.941
110769,139048,8506,0.014,-0.962,-0.085,-0.305,0.305,0.549,107.947
110765,139160,18577,0.014,-0.962,-0.085,-0.305,0.305,0.549,107.951
110765,139026,8501,0.019,-0.961,-0.089,-0.244,0.244,0.427,107.957
110767,139160,18577,0.019,-0.961,-0.089,-0.244,0.244,0.427,107.961
110767,139042,8506,0.017,-0.962,-0.09,-0.244,0.244,0.427,107.967
110756,139160,18577,0.018,-0.963,-0.083,-0.061,0.366,0.305,107.971
110756,139037,8502,0.017,-0.96,-0.085,-0.061,0.366,0.305,107.977
110772,139160,18577,0.021,-0.957,-0.087,0.122,0.366,0.244,107.981
110772,139038,8494,0.021,-0.953,-0.09,0.122,0.366,0.244,107.987
110798,139160,18577,0.018,-0.956,-0.086,0.061,0.488,0.305,107.99
110798,139079,8499,0.017,-0.956,-0.085,0.061,0.488,0.305,107.997
110806,139160,18577,0.018,-0.952,-0.085,-0.061,0.427,0.244,108
110806,139055,8513,0.019,-0.954,-0.085,-0.061,0.427,0.244,108.007
110788,139160,18577,0.018,-0.956,-0.084,-0.366,0.366,0.244,108.01
110788,139063,8493,0.019,-0.954,-0.079,-0.366,0.366,0.244,108.016
110798,139160,18577,0.021,-0.952,-0.081,-0.732,0.183,0.366,108.02
110798,139077,8515,0.017,-0.958,-0.087,-0.732,0.183,0.366,108.026
110798,139160,18577,0.017,-0.963,-0.09,-1.22,0,0.305,108.03
110798,139081,8496,0.017,-0.962,-0.088,-1.22,0,0.305,108.036
110794,139160,18577,0.021,-0.963,-0.092,-1.402,0,0.305,108.04
110794,139080,8506,0.017,-0.965,-0.087,-1.402,0,0.305,108.046
110801,139160,18577,0.018,-0.961,-0.083,-1.22,0,0.488,108.05
110801,139080,8518,0.02,-0.958,-0.09,-1.22,0,0.488,108.056
110813,139160,18577,0.021,-0.96,-0.089,-1.402,-0.061,0.366,108.06
110813,139094,8509,0.018,-0.964,-0.092,-1.402,-0.061,0.366,108.066
110815,139160,18577,0.018,-0.962,-0.088,-1.159,0,0.305,108.07
110815,139085,8509,0.018,-0.958,-0.09,-1.159,0,0.305,108.076
110812,139160,18577,0.014,-0.954,-0.09,-0.854,-0.122,0.366,108.08
110812,139123,8516,0.016,-0.958,-0.09,-0.854,-0.122,0.366,108.086
110824,139160,18577,0.018,-0.959,-0.097,-0.671,0.061,0.366,108.089
110824,139111,8506,0.021,-0.957,-0.096,-0.671,0.061,0.366,108.096
110834,139160,18577,0.02,-0.958,-0.092,-0.732,0.183,0.244,108.099
110834,139113,8505,0.013,-0.958,-0.094,-0.732,0.183,0.244,108.106
110840,139160,18577,0.014,-0.959,-0.094,-0.732,0.305,0.244,108.109
110840,139123,8512,0.016,-0.96,-0.09,-0.732,0.305,0.244,108.115
110852,139160,18577,0.016,-0.96,-0.088,-0.671,0.183,0.244,108.119
110852,139123,8506,0.018,-0.96,-0.083,-0.671,0.183,0.244,108.125
110864,139160,18577,0.023,-0.956,-0.09,-0.427,-0.061,0.305,108.129
110864,139128,8509,0.019,-0.956,-0.089,-0.427,-0.061,0.305,108.135
110861,139160,18577,0.02,-0.955,-0.091,-0.549,-0.061,0.366,108.139
110861,139129,8521,0.02,-0.955,-0.093,-0.549,-0.061,0.366,108.145
110866,139160,18577,0.018,-0.959,-0.095,-0.488,-0.122,0.427,108.149
110866,139129,8513,0.02,-0.961,-0.091,-0.488,-0.122,0.427,108.155
110851,139160,18577,0.02,-0.958,-0.09,-0.488,-0.122,0.488,108.159
110851,139118,8516,0.021,-0.955,-0.089,-0.488,-0.122,0.488,108.165
110868,139160,18577,0.019,-0.955,-0.09,-0.671,-0.061,0.427,108.169
110868,139132,8510,0.017,-0.956,-0.095,-0.671,-0.061,0.427,108.175
110867,139160,18577,0.02,-0.961,-0.095,-0.854,0.061,0.366,108.179
110867,139126,8512,0.019,-0.963,-0.095,-0.854,0.061,0.366,108.185
110889,139160,18577,0.018,-0.963,-0.093,-0.488,0.061,0.366,108.188
110889,139135,8541,0.018,-0.964,-0.094,-0.488,0.061,0.366,108.195
110903,139160,18577,0.018,-0.963,-0.094,-0.061,0.183,0.427,108.198
110903,139140,8513,0.016,-0.958,-0.095,-0.061,0.183,0.427,108.205
110908,139160,18577,0.021,-0.956,-0.095,0.061,0.244,0.366,108.208
110908,139160,8523,0.022,-0.958,-0.082,0.061,0.244,0.366,108.214
110895,139160,18577,0.02,-0.961,-0.082,0.061,0.427,0.427,108.218
110895,139114,8513,0.017,-0.959,-0.092,0.061,0.427,0.427,108.224
110862,139160,18577,0.014,-0.958,-0.091,-0.244,0.61,0.305,108.228
110862,139109,8520,0.019,-0.96,-0.087,-0.244,0.61,0.305,108.234
110861,139160,18577,0.018,-0.957,-0.083,-0.061,0.305,0.305,108.238
110861,139132,8520,0.021,-0.957,-0.089,-0.061,0.305,0.305,108.244
110869,139160,18577,0.02,-0.951,-0.091,0.061,0.183,0.244,108.248
110869,139120,8520,0.019,-0.95,-0.095,0.061,0.183,0.244,108.254
110849,139160,18577,0.019,-0.95,-0.093,0,0,0.427,108.258
110849,139119,8513,0.017,-0.955,-0.093,0,0,0.427,108.264
110878,139160,18577,0.023,-0.955,-0.091,-0.122,0.122,0.61,108.268
110878,139094,8528,0.023,-0.954,-0.093,-0.122,0.122,0.61,108.274
110883,139160,18577,0.018,-0.958,-0.093,-0.183,0.244,0.732,108.278
110883,139106,8512,0.018,-0.964,-0.09,-0.183,0.244,0.732,108.284
110887,139160,18577,0.02,-0.964,-0.087,-0.122,0.244,0.915,108.287
110887,139115,8529,0.018,-0.963,-0.087,-0.122,0.244,0.915,108.294
110884,139160,18577,0.016,-0.959,-0.089,-0.122,0.305,0.854,108.297
110884,139124,8535,0.018,-0.964,-0.093,-0.122,0.305,0.854,108.304
110876,139160,18577,0.017,-0.966,-0.089,-0.183,0.122,0.793,108.307
110876,139092,8516,0.018,-0.968,-0.088,-0.183,0.122,0.793,108.313
110855,139160,18577,0.019,-0.955,-0.086,-0.122,0.061,0.732,108.317
110855,139085,8524,0.017,-0.954,-0.092,-0.122,0.061,0.732,108.323
110835,139160,18577,0.017,-0.959,-0.097,0,0.244,0.793,108.327
110835,139099,8520,0.014,-0.96,-0.098,0,0.244,0.793,108.333
110829,139160,18577,0.012,-0.964,-0.097,0,0.549,0.549,108.337
110829,139074,8501,0.015,-0.963,-0.089,0,0.549,0.549,108.343
110812,139160,18577,0.017,-0.959,-0.09,0.061,0.427,0.488,108.347
110812,139071,8533,0.019,-0.958,-0.09,0.061,0.427,0.488,108.353
110813,139160,18577,0.015,-0.96,-0.088,0.183,0.366,0.427,108.357
110813,139066,8505,0.017,-0.963,-0.09,0.183,0.366,0.427,108.363
110814,139160,18577,0.021,-0.958,-0.094,0.122,0.244,0.427,108.367
110814,139051,8512,0.023,-0.953,-0.092,0.122,0.244,0.427,108.373
110818,139160,18577,0.021,-0.951,-0.085,-0.061,0.244,0.488,108.377
110818,139061,8506,0.018,-0.952,-0.089,-0.061,0.244,0.488,108.383
110811,139160,18577,0.017,-0.953,-0.087,-0.183,0.183,0.671,108.386
110811,139048,8524,0.018,-0.958,-0.088,-0.183,0.183,0.671,108.393
110787,139160,18577,0.019,-0.963,-0.087,-0.366,0.305,0.793,108.396
110787,139033,8528,0.018,-0.963,-0.091,-0.366,0.305,0.793,108.403
110793,139160,18577,0.018,-0.963,-0.091,-0.366,0.305,0.793,108.406
110793,139037,8504,0.015,-0.964,-0.092,-0.305,0.122,0.671,108.412
110810,139160,18577,0.015,-0.964,-0.092,-0.305,0.122,0.671,108.416
110810,139048,8527,0.015,-0.965,-0.091,-0.183,0.122,0.427,108.422
110806,138904,18577,0.015,-0.965,-0.091,-0.183,0.122,0.427,108.426
110806,138985,8515,0.02,-0.961,-0.094,-0.061,0.244,0.122,108.432
110793,139160,18577,0.02,-0.961,-0.094,-0.061,0.244,0.122,108.436
110793,139030,8510,0.019,-0.964,-0.088,-0.061,0.366,0.122,108.442
110800,139160,18577,0.019,-0.964,-0.088,-0.061,0.366,0.122,108.446
110800,139039,8521,0.017,-0.954,-0.09,0.061,0.488,0.061,108.452
110792,139160,18577,0.017,-0.954,-0.09,0.061,0.488,0.061,108.456
110792,139020,8523,0.019,-0.958,-0.09,0.122,0.61,0.061,108.462
110785,139160,18577,0.019,-0.958,-0.09,0.122,0.61,0.061,108.466
110785,139014,8517,0.024,-0.953,-0.095,0.183,0.549,0.122,108.472
110793,139160,18577,0.024,-0.953,-0.095,0.183,0.549,0.122,108.476
110793,139019,8507,0.02,-0.956,-0.085,0.122,0.732,0.244,108.482
110793,138904,18577,0.02,-0.956,-0.085,0.122,0.732,0.244,108.485
110793,139003,8505,0.015,-0.956,-0.087,0.061,0.915,0.488,108.492
110771,139160,18577,0.015,-0.956,-0.087,0.061,0.915,0.488,108.495
110771,139008,8514,0.015,-0.96,-0.089,-0.122,0.793,0.488,108.502
110792,139160,18577,0.015,-0.96,-0.089,-0.122,0.793,0.488,108.505
110792,139009,8505,0.016,-0.961,-0.08,-0.305,0.366,0.427,108.511
110778,138904,18577,0.016,-0.961,-0.08,-0.305,0.366,0.427,108.515
110778,138998,8538,0.014,-0.959,-0.083,-0.488,0.122,0.427,108.521
110785,138904,18577,0.014,-0.959,-0.083,-0.488,0.122,0.427,108.525
110785,139000,8521,0.016,-0.962,-0.092,-0.671,0.061,0.244,108.531
110798,138904,18577,0.016,-0.962,-0.092,-0.671,0.061,0.244,108.535
110798,138994,8504,0.018,-0.964,-0.095,-0.793,0.122,0.122,108.541
110785,138904,18577,0.018,-0.964,-0.095,-0.793,0.122,0.122,108.545
110785,138993,8502,0.016,-0.966,-0.093,-0.427,0.366,0,108.551
110777,138904,18577,0.017,-0.969,-0.089,-0.427,0.366,0,108.555
110777,139006,8516,0.019,-0.965,-0.091,0,0.549,0,108.561
110768,139160,18577,0.019,-0.96,-0.092,0,0.549,0,108.565
110768,139011,8532,0.017,-0.96,-0.088,0.366,0.671,-0.183,108.571
110777,138904,18577,0.017,-0.962,-0.089,0.366,0.671,-0.183,108.575
110777,139000,8509,0.02,-0.959,-0.085,0.305,0.793,-0.305,108.581
110767,139160,18577,0.02,-0.957,-0.09,0.305,0.793,-0.305,108.584
110767,139011,8508,0.021,-0.958,-0.089,-0.183,0.732,-0.488,108.591
110776,138904,18577,0.019,-0.958,-0.091,-0.183,0.732,-0.488,108.594
110776,138994,8515,0.02,-0.955,-0.093,-0.183,0.61,-0.366,108.601
110749,138904,18577,0.021,-0.951,-0.089,-0.183,0.61,-0.366,108.604
110749,138969,8519,0.02,-0.955,-0.089,-0.122,0.549,-0.122,108.61
110768,138904,18577,0.019,-0.955,-0.084,-0.122,0.549,-0.122,108.614
110768,138963,8528,0.02,-0.951,-0.085,-0.488,0.427,0,108.62
110747,138904,18577,0.019,-0.947,-0.085,-0.488,0.427,0,108.624
110747,138968,8513,0.021,-0.952,-0.086,-0.732,0.244,0.122,108.63
110747,138904,18577,0.017,-0.955,-0.089,-0.732,0.244,0.122,108.634
110747,138967,8516,0.017,-0.955,-0.092,-1.037,0.061,0.244,108.64
110736,138904,18577,0.021,-0.957,-0.095,-1.037,0.061,0.244,108.644
110736,138954,8507,0.021,-0.958,-0.096,-0.854,0.061,0.427,108.65
110746,138904,18577,0.019,-0.963,-0.094,-0.854,0.061,0.427,108.654
110746,138970,8517,0.017,-0.964,-0.096,-0.549,0.183,0.427,108.66
110753,138904,18577,0.02,-0.964,-0.094,-0.549,0.183,0.427,108.664
110753,138939,8506,0.015,-0.96,-0.093,-0.244,0.305,0.305,108.67
110734,138904,18577,0.017,-0.961,-0.09,-0.244,0.305,0.305,108.674
110734,138942,8531,0.015,-0.963,-0.09,-0.122,0.549,0.305,108.68
110725,138904,18577,0.016,-0.965,-0.092,-0.122,0.549,0.305,108.683
110725,138942,8526,0.017,-0.965,-0.09,-0.122,0.61,0.244,108.69
110731,138904,18577,0.018,-0.96,-0.088,-0.122,0.61,0.244,108.693
110731,138948,8513,0.019,-0.957,-0.092,0.122,0.488,0.183,108.7
110752,138904,18577,0.02,-0.959,-0.092,0.122,0.488,0.183,108.703
110752,138933,8525,0.021,-0.958,-0.091,0.244,0.366,0.183,108.709
110717,138904,18577,0.018,-0.957,-0.093,0.244,0.366,0.183,108.713
110717,138931,8510,0.018,-0.957,-0.092,0.122,0.427,0.183,108.719
110743,138904,18577,0.021,-0.956,-0.096,0.122,0.427,0.183,108.723
110743,138952,8498,0.022,-0.959,-0.097,0.183,0.671,0.122,108.729
110754,138904,18577,0.018,-0.963,-0.096,0.183,0.671,0.122,108.733
110754,138940,8518,0.017,-0.956,-0.09,0.366,0.793,0.183,108.739
110746,138904,18577,0.023,-0.957,-0.087,0.366,0.793,0.183,108.743
110746,138953,8508,0.022,-0.955,-0.089,0.61,0.671,0.366,108.749
110756,138904,18577,0.019,-0.957,-0.083,0.61,0.671,0.366,108.753
110756,138965,8502,0.022,-0.958,-0.081,0.366,0.732,0.427,108.759
110751,138904,18577,0.022,-0.957,-0.084,0.366,0.732,0.427,108.763
110751,138961,8520,0.018,-0.959,-0.085,0.061,0.732,0.61,108.769
110739,138904,18577,0.019,-0.962,-0.085,0.061,0.732,0.61,108.773
110739,138959,8528,0.019,-0.961,-0.083,0,0.732,0.61,108.779
110747,138904,18577,0.018,-0.962,-0.087,0,0.732,0.61,108.782
110747,138946,8511,0.018,-0.961,-0.091,-0.122,0.549,0.732,108.789
110730,138904,18577,0.015,-0.961,-0.089,-0.122,0.549,0.732,108.792
110730,138943,8513,0.011,-0.965,-0.085,-0.122,0.61,0.671,108.798
110737,138904,18577,0.015,-0.962,-0.089,-0.122,0.61,0.671,108.802
110737,138943,8518,0.017,-0.958,-0.093,0,0.488,0.488,108.808
110725,138904,18577,0.018,-0.958,-0.091,0,0.488,0.488,108.812
110725,138935,8523,0.018,-0.957,-0.088,-0.061,0.488,0.427,108.818
110742,138904,18577,0.019,-0.959,-0.09,-0.061,0.488,0.427,108.822
110742,138921,8516,0.016,-0.959,-0.088,-0.183,0.549,0.244,108.828
110698,138904,18577,0.018,-0.958,-0.094,-0.183,0.549,0.244,108.832
110698,138916,8519,0.019,-0.957,-0.091,-0.122,0.549,0.183,108.838
110728,138904,18577,0.021,-0.959,-0.089,-0.122,0.549,0.183,108.842
110728,138906,8522,0.021,-0.953,-0.09,-0.122,0.61,0.122,108.848
110718,138904,18577,0.021,-0.954,-0.09,-0.122,0.61,0.122,108.852
110718,138935,8530,0.021,-0.959,-0.088,-0.183,0.671,0.244,108.858
110729,138904,18577,0.02,-0.961,-0.085,-0.183,0.671,0.244,108.862
110729,138926,8505,0.019,-0.962,-0.088,-0.305,0.488,0.244,108.868
110728,138904,18577,0.021,-0.961,-0.089,-0.305,0.488,0.244,108.872
110728,138938,8505,0.019,-0.959,-0.086,-0.366,0.366,0.305,108.878
110739,138904,18577,0.02,-0.96,-0.084,-0.366,0.366,0.305,108.881
110739,138943,8500,0.021,-0.958,-0.087,-0.488,0.244,0.488,108.888
110725,138904,18577,0.02,-0.955,-0.091,-0.488,0.244,0.488,108.891
110725,138944,8519,0.021,-0.96,-0.092,-0.61,0.183,0.549,108.898
110729,138904,18577,0.02,-0.964,-0.088,-0.61,0.183,0.549,108.901
110729,138940,8505,0.016,-0.966,-0.087,-0.488,0.305,0.488,108.907
110726,138904,18577,0.017,-0.96,-0.089,-0.488,0.305,0.488,108.911
110726,138937,8508,0.019,-0.96,-0.092,-0.488,0.366,0.366,108.917
110726,138904,18577,0.016,-0.963,-0.09,-0.488,0.366,0.366,108.921
110726,138944,8509,0.015,-0.967,-0.09,-0.549,0.427,0.244,108.927
110726,138904,18577,0.014,-0.966,-0.088,-0.549,0.427,0.244,108.931
110726,138951,8516,0.016,-0.96,-0.086,-0.366,0.427,0.122,108.937
110719,138904,18577,0.02,-0.953,-0.089,-0.366,0.427,0.122,108.941
110719,138919,8507,0.02,-0.956,-0.085,-0.61,0.244,0.061,108.947
110716,138904,18577,0.019,-0.956,-0.091,-0.61,0.244,0.061,108.951
110716,138909,8523,0.018,-0.955,-0.096,-0.61,0.122,0.183,108.957
110711,138904,18577,0.019,-0.956,-0.093,-0.61,0.122,0.183,108.961
110711,138919,8512,0.022,-0.955,-0.094,-0.427,0.061,0.305,108.967
110716,138904,18577,0.021,-0.959,-0.094,-0.427,0.061,0.305,108.971
110716,138911,8510,0.021,-0.959,-0.094,-0.305,0.183,0.427,108.977
110733,138904,18577,0.017,-0.958,-0.094,-0.305,0.183,0.427,108.98
110733,138909,8499,0.016,-0.963,-0.089,-0.305,0.305,0.366,108.987
110721,138904,18577,0.018,-0.965,-0.085,-0.305,0.305,0.366,108.99
110721,138908,8531,0.02,-0.959,-0.087,-0.305,0.244,0.305,108.996
110753,138904,18577,0.02,-0.959,-0.087,-0.305,0.244,0.305,109
110753,138925,8516,0.019,-0.96,-0.089,-0.488,0.305,0.183,109.006
110752,138904,18577,0.019,-0.96,-0.089,-0.488,0.305,0.183,109.01
110752,138953,8507,0.021,-0.959,-0.09,-0.488,0.244,0.183,109.016
110751,138904,18577,0.021,-0.959,-0.09,-0.488,0.244,0.183,109.02
110751,138951,8504,0.022,-0.956,-0.092,-0.427,0.183,0.366,109.026
110750,138904,18577,0.022,-0.956,-0.092,-0.427,0.183,0.366,109.03
110750,138970,8522,0.019,-0.957,-0.092,-0.305,0.427,0.366,109.036
110745,138904,18577,0.019,-0.957,-0.092,-0.305,0.427,0.366,109.04
110745,138969,8519,0.021,-0.961,-0.094,-0.305,0.427,0.488,109.046
110736,138904,18577,0.021,-0.961,-0.094,-0.305,0.427,0.488,109.05
110736,138948,8510,0.018,-0.965,-0.094,-0.244,0.488,0.427,109.056
110755,138904,18577,0.018,-0.965,-0.094,-0.244,0.488,0.427,109.06
110755,138938,8503,0.016,-0.967,-0.092,0,0.671,0.183,109.066
110732,138904,18577,0.016,-0.967,-0.092,0,0.671,0.183,109.07
110732,138926,8515,0.019,-0.961,-0.092,0.427,0.61,0.122,109.076
110745,138904,18577,0.019,-0.961,-0.092,0.427,0.61,0.122,109.079
110745,138923,8507,0.018,-0.952,-0.089,0.366,0.732,0,109.086
110742,138904,18577,0.018,-0.952,-0.089,0.366,0.732,0,109.089
110742,138919,8519,0.024,-0.945,-0.09,0.183,0.671,0.244,109.095
110740,138904,18577,0.024,-0.945,-0.09,0.183,0.671,0.244,109.099
110740,138910,8506,0.02,-0.95,-0.083,-0.366,0.549,0.549,109.105
110740,138904,18577,0.02,-0.95,-0.083,-0.366,0.549,0.549,109.109
110740,138931,8513,0.019,-0.954,-0.091,-0.671,0.305,0.61,109.115
110740,138904,18577,0.019,-0.954,-0.091,-0.671,0.305,0.61,109.119
110740,138939,8517,0.016,-0.96,-0.097,-0.732,0.366,0.671,109.125
110749,138904,18577,0.016,-0.96,-0.097,-0.732,0.366,0.671,109.129
110749,138939,8510,0.017,-0.968,-0.093,-0.427,0.366,0.793,109.135
110732,138904,18577,0.017,-0.968,-0.093,-0.427,0.366,0.793,109.139
110732,138939,8509,0.015,-0.967,-0.091,-0.427,0.366,0.793,109.145
110737,138904,18577,0.016,-0.97,-0.093,-0.183,0.488,0.61,109.149
110737,138932,8507,0.019,-0.968,-0.092,-0.183,0.488,0.61,109.155
110723,138904,18577,0.021,-0.969,-0.09,0.183,0.549,0.427,109.159
110723,138910,8519,0.019,-0.967,-0.088,0.183,0.549,0.427,109.165
110725,138904,18577,0.016,-0.961,-0.088,0.671,0.61,0.366,109.169
110725,138918,8504,0.018,-0.956,-0.087,0.671,0.61,0.366,109.175
110724,138904,18577,0.022,-0.95,-0.087,0.732,0.549,0.305,109.178
110724,138948,8491,0.021,-0.947,-0.09,0.732,0.549,0.305,109.185
110716,138904,18577,0.02,-0.955,-0.086,0.244,0.488,0.305,109.188
110716,138914,8514,0.02,-0.961,-0.09,0.244,0.488,0.305,109.194
110712,138904,18577,0.019,-0.955,-0.089,-0.244,0.549,0.305,109.198
110712,138925,8505,0.02,-0.952,-0.088,-0.244,0.549,0.305,109.204
110731,138904,18577,0.019,-0.956,-0.091,-0.366,0.549,0.427,109.208
110731,138919,8508,0.017,-0.959,-0.093,-0.366,0.549,0.427,109.214
110722,138904,18577,0.016,-0.963,-0.093,-0.427,0.549,0.366,109.218
110722,138917,8502,0.017,-0.962,-0.09,-0.427,0.549,0.366,109.224
110718,138904,18577,0.018,-0.96,-0.092,-0.244,0.366,0.427,109.228
110718,138933,8483,0.021,-0.954,-0.092,-0.244,0.366,0.427,109.234
110712,138904,18577,0.016,-0.955,-0.091,0.061,0.366,0.366,109.238
110712,138899,8507,0.014,-0.957,-0.087,0.061,0.366,0.366,109.244
110701,138904,18577,0.016,-0.954,-0.09,0.244,0.244,0.244,109.248
110701,138933,8511,0.02,-0.949,-0.091,0.244,0.244,0.244,109.254
110712,138904,18577,0.021,-0.95,-0.091,0.061,0.183,0.305,109.258
110712,138905,8521,0.018,-0.957,-0.091,0.061,0.183,0.305,109.264
110724,138904,18577,0.016,-0.958,-0.095,0,0.427,0.427,109.268
110724,138933,8503,0.019,-0.956,-0.09,0,0.427,0.427,109.274
110733,138904,18577,0.022,-0.957,-0.093,-0.183,0.61,0.488,109.277
110733,138923,8507,0.019,-0.961,-0.091,-0.183,0.61,0.488,109.284
110737,138904,18577,0.016,-0.962,-0.094,-0.183,0.488,0.488,109.287
110737,138924,8508,0.019,-0.966,-0.094,-0.183,0.488,0.488,109.294
110735,138904,18577,0.019,-0.97,-0.092,0,0.61,0.488,109.297
110735,138935,8513,0.02,-0.965,-0.086,0,0.61,0.488,109.303
110719,138904,18577,0.019,-0.962,-0.086,0.366,0.671,0.488,109.307
110719,138932,8514,0.017,-0.96,-0.086,0.366,0.671,0.488,109.313
110714,138904,18577,0.019,-0.959,-0.085,0.488,0.732,0.488,109.317
110714,138933,8501,0.022,-0.96,-0.085,0.488,0.732,0.488,109.323
110698,138904,18577,0.018,-0.96,-0.088,0.671,0.732,0.488,109.327
110698,138953,8514,0.017,-0.955,-0.09,0.671,0.732,0.488,109.333
110726,138904,18577,0.018,-0.953,-0.084,0.61,0.793,0.488,109.337
110726,138945,8507,0.017,-0.96,-0.08,0.61,0.793,0.488,109.343
110707,138904,18577,0.018,-0.959,-0.089,0.061,0.671,0.488,109.347
110707,138949,8499,0.015,-0.955,-0.088,0.061,0.671,0.488,109.353
110742,138904,18577,0.016,-0.957,-0.085,-0.061,0.549,0.488,109.357
110742,138963,8492,0.014,-0.957,-0.087,-0.061,0.549,0.488,109.363
110746,138904,18577,0.017,-0.959,-0.089,-0.061,0.305,0.488,109.367
110746,138968,8506,0.016,-0.964,-0.091,-0.061,0.305,0.488,109.373
110727,138904,18577,0.014,-0.967,-0.092,-0.061,0.366,0.427,109.376
110727,138972,8513,0.016,-0.963,-0.092,-0.061,0.366,0.427,109.383
110756,138904,18577,0.017,-0.961,-0.093,0,0.305,0.366,109.386
110756,138973,8504,0.018,-0.963,-0.089,0,0.305,0.366,109.393
110749,138904,18577,0.021,-0.959,-0.093,0.305,0.366,0.305,109.396
110749,138962,8502,0.018,-0.957,-0.094,0.305,0.366,0.305,109.402
110753,138904,18577,0.017,-0.959,-0.086,0.122,0.671,0.244,109.406
110753,138947,8520,0.019,-0.96,-0.086,0.122,0.671,0.244,109.412
110737,138904,18577,0.02,-0.96,-0.089,-0.183,0.549,0.122,109.416
110737,138963,8502,0.021,-0.959,-0.089,-0.183,0.549,0.122,109.422
110738,138904,18577,0.023,-0.961,-0.089,-0.427,0.61,0,109.426
110738,138964,8496,0.019,-0.96,-0.091,-0.427,0.61,0,109.432
110745,138904,18577,0.02,-0.958,-0.09,-0.366,0.61,0.061,109.436
110745,138964,8507,0.022,-0.957,-0.096,-0.366,0.61,0.061,109.442
110736,138904,18577,0.022,-0.959,-0.091,-0.305,0.61,0.122,109.446
110736,138977,8503,0.019,-0.959,-0.089,-0.305,0.61,0.122,109.452
110771,138904,18577,0.023,-0.958,-0.089,-0.122,0.671,0.183,109.456
110771,138993,8519,0.021,-0.958,-0.085,-0.122,0.671,0.183,109.462
110764,138904,18577,0.021,-0.956,-0.087,-0.183,0.732,0.244,109.466
110764,139005,8519,0.019,-0.958,-0.089,-0.183,0.732,0.244,109.472
110778,138904,18577,0.016,-0.964,-0.087,-0.305,0.793,0.183,109.475
110778,139005,8520,0.018,-0.96,-0.089,-0.305,0.793,0.183,109.482
110795,139160,18577,0.018,-0.956,-0.088,-0.122,0.671,0.244,109.485
110795,139041,8513,0.021,-0.954,-0.091,-0.122,0.671,0.244,109.492
110814,139160,18577,0.018,-0.955,-0.093,0.122,0.549,0.183,109.495
110814,139022,8507,0.018,-0.955,-0.095,0.122,0.549,0.183,109.501
110797,139160,18577,0.021,-0.958,-0.099,0.061,0.61,0.183,109.505
110797,139012,8534,0.019,-0.96,-0.099,0.061,0.61,0.183,109.511
110800,139160,18577,0.02,-0.958,-0.096,0.366,0.793,0.122,109.515
110800,139040,8518,0.02,-0.956,-0.093,0.366,0.793,0.122,109.521
110784,139160,18577,0.02,-0.957,-0.088,0.61,0.793,0.244,109.525
110784,139047,8504,0.02,-0.955,-0.089,0.61,0.793,0.244,109.531
110803,139160,18577,0.02,-0.955,-0.089,0.671,0.793,0.305,109.535
110803,139051,8509,0.017,-0.958,-0.084,0.671,0.793,0.305,109.541
110802,139160,18577,0.018,-0.961,-0.083,0.244,0.854,0.305,109.545
110802,139063,8525,0.021,-0.958,-0.086,0.244,0.854,0.305,109.551
110830,139160,18577,0.02,-0.958,-0.085,-0.183,0.671,0.427,109.555
110830,139049,8512,0.021,-0.957,-0.085,-0.183,0.671,0.427,109.561
110837,139160,18577,0.021,-0.959,-0.083,-0.183,0.549,0.549,109.565
110837,139053,8525,0.02,-0.963,-0.078,-0.183,0.549,0.549,109.571
110845,139160,18577,0.022,-0.96,-0.084,-0.244,0.671,0.549,109.574
110845,139079,8511,0.021,-0.96,-0.086,-0.244,0.671,0.549,109.581
110840,139160,18577,0.021,-0.96,-0.086,-0.244,0.671,0.549,109.584
110840,139062,8522,0.02,-0.96,-0.085,-0.244,0.61,0.61,109.59
110856,139160,18577,0.02,-0.96,-0.085,-0.244,0.61,0.61,109.594
110856,139060,8518,0.023,-0.959,-0.092,-0.061,0.488,0.671,109.6
110851,139160,18577,0.023,-0.959,-0.092,-0.061,0.488,0.671,109.604
110851,139073,8522,0.02,-0.962,-0.086,0,0.427,0.793,109.61
110869,139160,18577,0.02,-0.962,-0.086,0,0.427,0.793,109.614
110869,139085,8517,0.019,-0.96,-0.094,0.183,0.427,0.854,109.62
110852,139160,18577,0.019,-0.96,-0.094,0.183,0.427,0.854,109.624
110852,139064,8525,0.015,-0.958,-0.09,0.122,0.61,0.854,109.63
110854,139160,18577,0.015,-0.958,-0.09,0.122,0.61,0.854,109.634
110854,139054,8523,0.021,-0.962,-0.084,0.183,0.549,0.732,109.64
110820,139160,18577,0.021,-0.962,-0.084,0.183,0.549,0.732,109.644
110820,139070,8533,0.018,-0.958,-0.088,0,0.427,0.61,109.65
110827,139160,18577,0.018,-0.958,-0.088,0,0.427,0.61,109.654
110827,139051,8526,0.014,-0.962,-0.089,-0.122,0.488,0.427,109.66
110842,139160,18577,0.014,-0.962,-0.089,-0.122,0.488,0.427,109.664
110842,139061,8530,0.02,-0.959,-0.088,-0.366,0.427,0.244,109.67
110825,139160,18577,0.02,-0.959,-0.088,-0.366,0.427,0.244,109.673
110825,139045,8527,0.019,-0.96,-0.092,-0.549,0.305,0.122,109.68
110827,139160,18577,0.019,-0.96,-0.092,-0.549,0.305,0.122,109.683
110827,139089,8521,0.018,-0.961,-0.088,-0.366,0.305,0.122,109.69
110840,139160,18577,0.018,-0.961,-0.088,-0.366,0.305,0.122,109.693
110840,139099,8504,0.018,-0.957,-0.083,-0.305,0.427,0.122,109.699
110874,139160,18577,0.018,-0.957,-0.083,-0.305,0.427,0.122,109.703
110874,139101,8520,0.021,-0.955,-0.087,-0.305,0.366,0.061,109.709
110862,139160,18577,0.021,-0.955,-0.087,-0.305,0.366,0.061,109.713
110862,139123,8535,0.02,-0.955,-0.085,-0.244,0.427,0.183,109.719
110907,139160,18577,0.02,-0.955,-0.085,-0.244,0.427,0.183,109.723
110907,139145,8525,0.02,-0.953,-0.091,-0.427,0.366,0.366,109.729
110898,139160,18577,0.018,-0.954,-0.094,-0.427,0.366,0.366,109.733
110898,139137,8543,0.015,-0.963,-0.093,-0.549,0.305,0.366,109.739
110955,139160,18577,0.018,-0.964,-0.087,-0.549,0.305,0.366,109.743
110955,139178,8533,0.019,-0.961,-0.083,-0.549,0.183,0.427,109.749
110932,139160,18577,0.018,-0.956,-0.087,-0.549,0.183,0.427,109.753
110932,139180,8531,0.018,-0.957,-0.086,-0.671,0.305,0.427,109.759
110946,139160,18577,0.019,-0.962,-0.087,-0.671,0.305,0.427,109.763
110946,139173,8531,0.018,-0.964,-0.088,-0.732,0.244,0.366,109.769
110941,139160,18577,0.016,-0.967,-0.085,-0.732,0.244,0.366,109.772
110941,139202,8528,0.017,-0.964,-0.088,-0.854,0.122,0.244,109.779
110972,139160,18577,0.02,-0.964,-0.087,-0.854,0.122,0.244,109.782
110972,139183,8538,0.022,-0.96,-0.091,-0.732,0.122,0.183,109.789
110975,139160,18577,0.02,-0.963,-0.093,-0.732,0.122,0.183,109.792
110975,139206,8541,0.017,-0.961,-0.093,-0.61,0.183,0.244,109.798
110973,139160,18577,0.02,-0.961,-0.092,-0.61,0.183,0.244,109.802
110973,139203,8533,0.024,-0.957,-0.093,-0.244,0.183,0.183,109.808
110979,139160,18577,0.021,-0.956,-0.095,-0.244,0.183,0.183,109.812
110979,139208,8545,0.019,-0.956,-0.096,0,0.244,0.305,109.818
110989,139160,18577,0.017,-0.956,-0.094,0,0.244,0.305,109.822
110989,139194,8534,0.018,-0.955,-0.091,0.305,0.305,0.366,109.828
110979,139160,18577,0.021,-0.953,-0.091,0.305,0.305,0.366,109.832
110979,139186,8542,0.023,-0.948,-0.093,0.488,0.244,0.488,109.838
110987,139160,18577,0.017,-0.948,-0.095,0.488,0.244,0.488,109.842
110987,139204,8533,0.017,-0.958,-0.087,0.183,0.427,0.549,109.848
110987,139160,18577,0.014,-0.959,-0.087,0.183,0.427,0.549,109.852
110987,139179,8522,0.017,-0.959,-0.09,-0.183,0.305,0.549,109.858
110973,139160,18577,0.018,-0.958,-0.087,-0.183,0.305,0.549,109.862
110973,139189,8534,0.016,-0.964,-0.081,-0.366,0.183,0.488,109.868
110976,139160,18577,0.017,-0.965,-0.084,-0.366,0.183,0.488,109.871
110976,139183,8527,0.018,-0.968,-0.087,-0.305,0.305,0.366,109.878
110958,139160,18577,0.018,-0.965,-0.087,-0.305,0.305,0.366,109.881
110958,139202,8533,0.018,-0.959,-0.091,-0.366,0.366,0.305,109.888
110964,139160,18577,0.023,-0.959,-0.086,-0.366,0.366,0.305,109.891
110964,139214,8515,0.023,-0.962,-0.087,-0.122,0.366,0.183,109.897
110965,139160,18577,0.02,-0.963,-0.092,-0.122,0.366,0.183,109.901
110965,139213,8527,0.019,-0.961,-0.094,-0.122,0.61,0.244,109.907
110967,139160,18577,0.02,-0.961,-0.09,-0.122,0.61,0.244,109.911
110967,139182,8536,0.022,-0.957,-0.091,0.183,0.671,0.305,109.917
110965,139160,18577,0.017,-0.955,-0.089,0.183,0.671,0.305,109.921
110965,139194,8529,0.014,-0.956,-0.086,0.305,0.732,0.305,109.927
110970,139160,18577,0.015,-0.956,-0.089,0.305,0.732,0.305,109.931
110970,139149,8535,0.016,-0.958,-0.087,0.183,0.732,0.061,109.937
110950,139160,18577,0.021,-0.962,-0.085,0.183,0.732,0.061,109.941
110950,139189,8521,0.019,-0.959,-0.085,0.061,0.427,0.122,109.947
110955,139160,18577,0.019,-0.954,-0.088,0.061,0.427,0.122,109.951
110955,139175,8528,0.019,-0.956,-0.089,-0.183,0.366,0.061,109.957
110943,139160,18577,0.021,-0.961,-0.089,-0.183,0.366,0.061,109.961
110943,139178,8532,0.021,-0.962,-0.09,-0.488,0.366,0.183,109.967
110967,139160,18577,0.023,-0.961,-0.092,-0.488,0.366,0.183,109.97
110967,139203,8536,0.024,-0.962,-0.09,-0.488,0.366,0.305,109.977
110950,139160,18577,0.019,-0.96,-0.086,-0.488,0.366,0.305,109.98
110950,139200,8539,0.02,-0.956,-0.094,-0.244,0.488,0.366,109.987
110963,139160,18577,0.019,-0.958,-0.094,-0.244,0.488,0.366,109.99
110963,139172,8524,0.017,-0.964,-0.095,-0.122,0.61,0.366,109.996
110951,139160,18577,0.019,-0.966,-0.091,-0.122,0.61,0.366,110
110951,139191,8530,0.019,-0.958,-0.091,0.305,0.549,0.305,110.006
110961,139160,18577,0.017,-0.955,-0.093,0.305,0.549,0.305,110.01
110961,139198,8529,0.013,-0.957,-0.088,0.671,0.549,0.305,110.016
110943,139160,18577,0.016,-0.96,-0.085,0.671,0.549,0.305,110.02
110943,139180,8533,0.019,-0.956,-0.085,0.488,0.488,0.305,110.026
110926,139160,18577,0.021,-0.955,-0.088,0.488,0.488,0.305,110.03
110926,139164,8527,0.018,-0.956,-0.084,0.061,0.305,0.305,110.036
110943,139160,18577,0.017,-0.954,-0.084,0.061,0.305,0.305,110.04
110943,139179,8531,0.018,-0.956,-0.085,-0.366,0.488,0.366,110.046
110903,139160,18577,0.022,-0.958,-0.088,-0.366,0.488,0.366,110.05
110903,139166,8531,0.022,-0.955,-0.089,-0.671,0.427,0.427,110.056
110930,139160,18577,0.02,-0.961,-0.087,-0.671,0.427,0.427,110.06
110930,139162,8533,0.021,-0.964,-0.087,-0.61,0.366,0.427,110.066
110923,139160,18577,0.025,-0.961,-0.088,-0.61,0.366,0.427,110.069
110923,139159,8531,0.021,-0.959,-0.089,-0.305,0.427,0.549,110.076
110916,139160,18577,0.019,-0.96,-0.089,-0.305,0.427,0.549,110.079
110916,139158,8520,0.021,-0.963,-0.089,0,0.427,0.671,110.086
110897,139160,18577,0.018,-0.966,-0.09,0,0.427,0.671,110.089
110897,139150,8524,0.02,-0.963,-0.087,0.244,0.366,0.549,110.095
110900,139160,18577,0.019,-0.959,-0.089,0.244,0.366,0.549,110.099
110900,139177,8521,0.016,-0.961,-0.091,0.183,0.61,0.427,110.105
110924,139160,18577,0.015,-0.96,-0.086,0.183,0.61,0.427,110.109
110924,139162,8528,0.016,-0.96,-0.088,-0.244,0.488,0.305,110.115
110902,139160,18577,0.016,-0.958,-0.088,-0.244,0.488,0.305,110.119
110902,139173,8534,0.015,-0.962,-0.087,-0.549,0.366,0.183,110.125
110935,139160,18577,0.017,-0.958,-0.089,-0.549,0.366,0.183,110.129
110935,139161,8528,0.021,-0.954,-0.088,-0.488,0.183,0.122,110.135
110901,139160,18577,0.022,-0.956,-0.094,-0.488,0.183,0.122,110.139
110901,139164,8519,0.022,-0.958,-0.095,-0.427,0.244,0.183,110.145
110901,139160,18577,0.018,-0.956,-0.095,-0.427,0.244,0.183,110.149
110901,139172,8528,0.02,-0.956,-0.096,-0.183,0.305,0.244,110.155
110909,139160,18577,0.021,-0.954,-0.096,-0.183,0.305,0.244,110.159
110909,139166,8528,0.021,-0.954,-0.093,0.061,0.427,0.366,110.165
110898,139160,18577,0.017,-0.96,-0.092,0.061,0.427,0.366,110.168
110898,139177,8521,0.016,-0.964,-0.089,0.244,0.671,0.427,110.175
110911,139160,18577,0.016,-0.964,-0.089,0.244,0.671,0.427,110.178
110911,139171,8533,0.019,-0.958,-0.081,0.122,0.61,0.427,110.185
110906,139160,18577,0.019,-0.958,-0.081,0.122,0.61,0.427,110.188
110906,139175,8516,0.015,-0.96,-0.082,-0.122,0.305,0.183,110.194
110916,139160,18577,0.015,-0.96,-0.082,-0.122,0.305,0.183,110.198
110916,139156,8521,0.019,-0.964,-0.092,-0.488,0.183,0.122,110.204
110916,139160,18577,0.019,-0.964,-0.092,-0.488,0.183,0.122,110.208
110916,139177,8521,0.021,-0.953,-0.085,-0.244,0.061,0.122,110.214
110920,139160,18577,0.021,-0.953,-0.085,-0.244,0.061,0.122,110.218
110920,139183,8533,0.02,-0.955,-0.089,-0.061,0.305,0.244,110.224
110921,139160,18577,0.02,-0.955,-0.089,-0.061,0.305,0.244,110.228
110921,139188,8528,0.021,-0.959,-0.089,-0.366,0.366,0.366,110.234
110913,139160,18577,0.021,-0.959,-0.089,-0.366,0.366,0.366,110.238
110913,139188,8530,0.021,-0.957,-0.09,-0.488,0.122,0.305,110.244
110921,139160,18577,0.021,-0.957,-0.09,-0.488,0.122,0.305,110.248
110921,139165,8523,0.021,-0.961,-0.093,-0.183,0.244,0.488,110.254
110933,139160,18577,0.021,-0.961,-0.093,-0.183,0.244,0.488,110.258
110933,139180,8533,0.018,-0.962,-0.087,-0.183,0.366,0.488,110.264
110924,139160,18577,0.018,-0.962,-0.087,-0.183,0.366,0.488,110.267
110924,139207,8527,0.022,-0.962,-0.089,-0.305,0.488,0.244,110.274
110934,139160,18577,0.022,-0.962,-0.089,-0.305,0.488,0.244,110.277
110934,139192,8517,0.019,-0.962,-0.087,-0.427,0.427,0.183,110.284
110944,139160,18577,0.019,-0.962,-0.087,-0.427,0.427,0.183,110.287
110944,139207,8529,0.018,-0.96,-0.084,-0.305,0.488,0.183,110.293
110956,139160,18577,0.018,-0.96,-0.084,-0.305,0.488,0.183,110.297
110956,139200,8523,0.017,-0.956,-0.088,0,0.427,0.183,110.303
110944,139160,18577,0.017,-0.956,-0.088,0,0.427,0.183,110.307
110944,139222,8521,0.02,-0.95,-0.084,0.122,0.122,0.244,110.313
110953,139160,18577,0.02,-0.95,-0.084,0.122,0.122,0.244,110.317
110953,139219,8533,0.021,-0.947,-0.089,0.122,0.122,0.244,110.323
110952,139160,18577,0.02,-0.953,-0.089,-0.183,0,0.305,110.327
110952,139223,8540,0.013,-0.958,-0.093,-0.183,0,0.305,110.333
110962,139160,18577,0.016,-0.964,-0.096,-0.427,0.061,0.183,110.337
110962,139192,8520,0.019,-0.964,-0.095,-0.427,0.061,0.183,110.343
110948,139160,18577,0.021,-0.966,-0.092,-0.244,0.061,0,110.347
110948,139225,8529,0.019,-0.965,-0.084,-0.244,0.061,0,110.353
110933,139160,18577,0.017,-0.963,-0.089,-0.244,0.244,-0.122,110.357
110933,139219,8547,0.019,-0.967,-0.09,-0.244,0.244,-0.122,110.363
110960,139160,18577,0.02,-0.969,-0.089,-0.305,0.488,-0.366,110.366
110960,139230,8533,0.026,-0.967,-0.088,-0.305,0.488,-0.366,110.373
