109397,136344,18577,0.06,-0.958,-0.023,-1.22,-0.61,-0.793,378.117
109397,136400,8473,0.059,-0.959,-0.025,-1.22,-0.61,-0.793,378.123
109447,136344,18577,0.054,-0.958,-0.03,-1.341,-0.366,-0.549,378.126
109447,136392,8481,0.056,-0.961,-0.028,-1.341,-0.366,-0.549,378.133
109452,136344,18577,0.056,-0.959,-0.024,-1.037,-0.305,-0.305,378.136
109452,136406,8473,0.055,-0.956,-0.031,-1.037,-0.305,-0.305,378.143
109465,136344,18577,0.055,-0.958,-0.034,-0.854,-0.305,0.061,378.146
109465,136411,8487,0.051,-0.969,-0.022,-0.854,-0.305,0.061,378.152
109467,136344,18577,0.054,-0.967,-0.018,-0.549,-0.366,0.305,378.156
109467,136399,8489,0.056,-0.96,-0.033,-0.549,-0.366,0.305,378.162
109470,136344,18577,0.055,-0.965,-0.036,-0.61,-0.122,0.488,378.166
109470,136423,8475,0.055,-0.967,-0.028,-0.61,-0.122,0.488,378.172
109473,136344,18577,0.055,-0.967,-0.029,-0.549,0.061,0.488,378.176
109473,136409,8497,0.057,-0.966,-0.035,-0.549,0.061,0.488,378.182
109487,136344,18577,0.054,-0.971,-0.036,-0.549,0.305,0.488,378.186
109487,136421,8497,0.051,-0.972,-0.034,-0.549,0.305,0.488,378.192
109510,136344,18577,0.051,-0.969,-0.027,-0.061,0.732,0.549,378.196
109510,136427,8488,0.055,-0.964,-0.023,-0.061,0.732,0.549,378.202
109524,136344,18577,0.053,-0.955,-0.023,0.671,0.915,0.732,378.206
109524,136409,8487,0.048,-0.956,-0.026,0.671,0.915,0.732,378.212
109494,136344,18577,0.046,-0.963,-0.021,0.488,0.976,0.793,378.216
109494,136425,8500,0.048,-0.96,-0.024,0.488,0.976,0.793,378.222
109450,136344,18577,0.054,-0.962,-0.028,0.122,0.732,0.732,378.225
109450,136383,8472,0.049,-0.962,-0.03,0.122,0.732,0.732,378.232
109446,136344,18577,0.043,-0.969,-0.027,0.122,0.732,0.732,378.235
109446,136364,8481,0.045,-0.97,-0.022,0.122,0.732,0.732,378.242
109404,136344,18577,0.049,-0.966,-0.025,0.061,0.671,0.671,378.245
109404,136356,8482,0.048,-0.964,-0.03,0.061,0.671,0.671,378.251
109397,136344,18577,0.048,-0.961,-0.023,0.183,0.549,0.549,378.255
109397,136338,8475,0.048,-0.956,-0.026,0.183,0.549,0.549,378.261
109381,136344,18577,0.053,-0.954,-0.029,0.488,0.244,0.671,378.265
109381,136343,8476,0.051,-0.953,-0.03,0.488,0.244,0.671,378.271
109366,136344,18577,0.048,-0.958,-0.021,0.549,0.305,0.61,378.275
109366,136337,8480,0.049,-0.953,-0.023,0.549,0.305,0.61,378.281
109358,136344,18577,0.049,-0.956,-0.022,0.244,0.488,0.671,378.285
109358,136327,8466,0.05,-0.958,-0.019,0.244,0.488,0.671,378.291
109379,136344,18577,0.052,-0.959,-0.028,-0.427,0.549,0.61,378.295
109379,136322,8471,0.051,-0.967,-0.022,-0.427,0.549,0.61,378.301
109404,136344,18577,0.049,-0.972,-0.023,-0.488,0.549,0.488,378.305
109404,136327,8479,0.052,-0.972,-0.028,-0.488,0.549,0.488,378.311
109391,136344,18577,0.053,-0.971,-0.028,-0.183,0.488,0.549,378.315
109391,136330,8471,0.057,-0.971,-0.027,-0.183,0.488,0.549,378.321
109389,136344,18577,0.054,-0.967,-0.022,0.488,0.61,0.549,378.324
109389,136301,8477,0.05,-0.968,-0.017,0.488,0.61,0.549,378.331
109409,136344,18577,0.048,-0.969,-0.02,0.549,1.037,0.366,378.334
109409,136322,8477,0.045,-0.975,-0.024,0.549,1.037,0.366,378.341
109391,136344,18577,0.046,-0.97,-0.025,0.427,0.976,0.061,378.344
109391,136311,8485,0.047,-0.966,-0.024,0.427,0.976,0.061,378.35
109392,136344,18577,0.045,-0.964,-0.027,0.732,0.488,0.061,378.354
109392,136308,8483,0.047,-0.958,-0.029,0.732,0.488,0.061,378.36
109377,136344,18577,0.047,-0.956,-0.031,0.366,0.244,0,378.364
109377,136317,8478,0.045,-0.956,-0.032,0.366,0.244,0,378.37
109368,136344,18577,0.046,-0.96,-0.028,0.183,0.244,-0.122,378.374
109368,136314,8481,0.049,-0.959,-0.023,0.183,0.244,-0.122,378.38
109373,136344,18577,0.048,-0.954,-0.023,-0.061,0.305,0.061,378.384
109373,136292,8483,0.047,-0.954,-0.024,-0.061,0.305,0.061,378.39
109370,136344,18577,0.048,-0.958,-0.017,-0.183,0.427,0.122,378.394
109370,136299,8480,0.047,-0.96,-0.02,-0.183,0.427,0.122,378.4
109364,136344,18577,0.051,-0.961,-0.02,-0.427,0.305,0.244,378.404
109364,136287,8465,0.053,-0.96,-0.021,-0.427,0.305,0.244,378.41
109368,136344,18577,0.057,-0.957,-0.018,-0.427,0.244,0.427,378.414
109368,136293,8484,0.057,-0.963,-0.019,-0.427,0.244,0.427,378.42
109381,136344,18577,0.057,-0.963,-0.019,-0.427,0.244,0.427,378.423
109381,136301,8491,0.057,-0.966,-0.024,-0.549,0.366,0.61,378.43
109344,136344,18577,0.057,-0.966,-0.024,-0.549,0.366,0.61,378.433
109344,136258,8474,0.052,-0.967,-0.026,-0.366,0.305,0.732,378.44
109335,136344,18577,0.052,-0.967,-0.026,-0.366,0.305,0.732,378.443
109335,136251,8470,0.048,-0.97,-0.033,0,0.305,0.915,378.449
109321,136344,18577,0.048,-0.97,-0.033,0,0.305,0.915,378.453
109321,136260,8480,0.05,-0.963,-0.028,0.366,0.305,0.854,378.459
109334,136344,18577,0.05,-0.963,-0.028,0.366,0.305,0.854,378.463
109334,136284,8469,0.043,-0.962,-0.026,0.488,0.366,0.854,378.469
109318,136344,18577,0.043,-0.962,-0.026,0.488,0.366,0.854,378.473
109318,136267,8471,0.05,-0.957,-0.022,0.061,0.488,0.61,378.479
109327,136344,18577,0.05,-0.957,-0.022,0.061,0.488,0.61,378.483
109327,136256,8464,0.048,-0.964,-0.02,-0.549,0.244,0.305,378.489
109333,136344,18577,0.048,-0.964,-0.02,-0.549,0.244,0.305,378.493
109333,136249,8466,0.05,-0.956,-0.017,-0.61,0,0.366,378.499
109336,136344,18577,0.05,-0.956,-0.017,-0.61,0,0.366,378.503
109336,136238,8476,0.054,-0.958,-0.025,-0.427,-0.183,0.427,378.509
109325,136344,18577,0.054,-0.958,-0.025,-0.427,-0.183,0.427,378.513
109325,136232,8482,0.051,-0.961,-0.02,-0.183,-0.183,0.366,378.519
109306,136344,18577,0.051,-0.961,-0.02,-0.183,-0.183,0.366,378.522
109306,136243,8463,0.054,-0.965,-0.021,-0.244,-0.122,0.488,378.529
109322,136344,18577,0.054,-0.965,-0.021,-0.244,-0.122,0.488,378.532
109322,136231,8461,0.044,-0.976,-0.023,-0.366,0.183,0.488,378.539
109307,136344,18577,0.044,-0.976,-0.023,-0.366,0.183,0.488,378.542
109307,136233,8478,0.045,-0.974,-0.023,-0.305,0.305,0.244,378.548
109301,136344,18577,0.045,-0.974,-0.023,-0.305,0.305,0.244,378.552
109301,136231,8459,0.049,-0.963,-0.025,0.061,0.061,-0.061,378.558
109320,136344,18577,0.049,-0.963,-0.025,0.061,0.061,-0.061,378.562
109320,136223,8472,0.048,-0.966,-0.026,0.244,0,-0.366,378.568
109303,136344,18577,0.049,-0.967,-0.027,0.244,0,-0.366,378.572
109303,136206,8462,0.048,-0.961,-0.031,0.366,-0.061,-0.549,378.578
109269,136344,18577,0.044,-0.957,-0.036,0.366,-0.061,-0.549,378.582
109269,136223,8470,0.045,-0.955,-0.032,0.427,-0.061,-0.549,378.588
109297,136344,18577,0.046,-0.956,-0.034,0.427,-0.061,-0.549,378.592
109297,136217,8465,0.048,-0.955,-0.033,0.366,-0.305,-0.488,378.598
109258,136344,18577,0.047,-0.953,-0.022,0.366,-0.305,-0.488,378.602
109258,136213,8459,0.051,-0.951,-0.015,0.244,-0.183,-0.305,378.608
109280,136088,18577,0.054,-0.949,-0.013,0.244,-0.183,-0.305,378.612
109280,136191,8474,0.054,-0.943,-0.022,-0.305,-0.366,0,378.618
109248,136088,18577,0.051,-0.952,-0.017,-0.305,-0.366,0,378.621
109248,136186,8470,0.05,-0.961,-0.018,-1.159,-0.549,0.244,378.628
109248,136344,18577,0.056,-0.968,-0.033,-1.159,-0.549,0.244,378.631
109248,136200,8462,0.055,-0.979,-0.031,-1.402,-0.671,0.183,378.638
109245,136344,18577,0.051,-0.982,-0.027,-1.402,-0.671,0.183,378.641
109245,136192,8456,0.053,-0.975,-0.032,-0.61,-0.427,0.244,378.647
109236,136344,18577,0.058,-0.97,-0.027,-0.61,-0.427,0.244,378.651
109236,136204,8454,0.056,-0.971,-0.023,-0.122,0.244,0.244,378.657
109199,136088,18577,0.051,-0.974,-0.018,-0.122,0.244,0.244,378.661
109199,136161,8457,0.053,-0.969,-0.017,-0.061,0.488,0.122,378.667
109197,136088,18577,0.054,-0.968,-0.026,-0.061,0.488,0.122,378.671
109197,136155,8453,0.054,-0.966,-0.023,-0.061,0.488,0.183,378.677
109178,136088,18577,0.051,-0.958,-0.019,-0.061,0.488,0.183,378.681
109178,136153,8435,0.047,-0.953,-0.028,0.061,0.366,0.122,378.687
109161,136088,18577,0.048,-0.949,-0.038,0.061,0.366,0.122,378.691
109161,136121,8466,0.049,-0.954,-0.035,0.061,0.305,0.061,378.697
109140,136088,18577,0.047,-0.958,-0.035,0.061,0.305,0.061,378.701
109140,136146,8445,0.049,-0.955,-0.035,0,0.366,0,378.707
109139,136088,18577,0.052,-0.949,-0.026,0,0.366,0,378.711
109139,136109,8454,0.049,-0.954,-0.02,-0.061,0.305,0.183,378.717
109133,136088,18577,0.052,-0.953,-0.019,-0.061,0.305,0.183,378.72
109133,136110,8444,0.054,-0.956,-0.02,-0.488,0.183,0.366,378.727
109135,136088,18577,0.052,-0.962,-0.015,-0.488,0.183,0.366,378.73
109135,136097,8452,0.053,-0.964,-0.011,-1.037,0.122,0.366,378.737
109145,136088,18577,0.057,-0.966,-0.018,-1.037,0.122,0.366,378.74
109145,136095,8467,0.053,-0.971,-0.024,-1.098,0,0.366,378.746
109152,136088,18577,0.047,-0.971,-0.027,-1.098,0,0.366,378.75
109152,136115,8447,0.047,-0.974,-0.029,-0.549,0.061,0.488,378.756
109136,136088,18577,0.049,-0.977,-0.026,-0.549,0.061,0.488,378.76
109136,136103,8449,0.052,-0.974,-0.031,0.183,0.305,0.305,378.766
109093,136088,18577,0.053,-0.969,-0.032,0.183,0.305,0.305,378.77
109093,136097,8463,0.049,-0.968,-0.027,0.61,0.671,-0.061,378.776
109117,136088,18577,0.05,-0.963,-0.029,0.61,0.671,-0.061,378.78
109117,136088,8450,0.055,-0.959,-0.031,0.488,0.915,-0.305,378.786
109089,136088,18577,0.052,-0.957,-0.027,0.488,0.915,-0.305,378.79
109089,136068,8457,0.048,-0.954,-0.024,0.427,0.793,-0.244,378.796
109090,136088,18577,0.05,-0.948,-0.028,0.427,0.793,-0.244,378.8
109090,136040,8431,0.053,-0.945,-0.027,-0.183,0.61,-0.061,378.806
109054,136088,18577,0.053,-0.949,-0.028,-0.183,0.61,-0.061,378.81
109054,136040,8453,0.054,-0.959,-0.032,-0.793,0.549,0.061,378.816
109059,136088,18577,0.049,-0.962,-0.02,-0.793,0.549,0.061,378.819
109059,136044,8439,0.053,-0.96,-0.022,-0.549,0.61,0.305,378.826
109040,136088,18577,0.056,-0.958,-0.025,-0.549,0.61,0.305,378.829
109040,136025,8448,0.056,-0.961,-0.018,-0.244,0.488,0.61,378.836
109031,136088,18577,0.054,-0.963,-0.016,-0.244,0.488,0.61,378.839
109031,136040,8441,0.052,-0.962,-0.013,-0.305,0.366,0.732,378.845
109022,136088,18577,0.053,-0.965,-0.023,-0.305,0.366,0.732,378.849
109022,136031,8445,0.053,-0.97,-0.028,-0.488,0.427,0.854,378.855
109058,136088,18577,0.048,-0.975,-0.024,-0.488,0.427,0.854,378.859
109058,136040,8440,0.05,-0.971,-0.019,-0.305,0.549,0.732,378.865
109056,136088,18577,0.052,-0.969,-0.027,-0.305,0.549,0.732,378.869
109056,136040,8445,0.048,-0.972,-0.027,-0.061,0.732,0.671,378.875
109067,136088,18577,0.046,-0.97,-0.019,-0.061,0.732,0.671,378.879
109067,136060,8459,0.047,-0.97,-0.022,-0.061,0.854,0.305,378.885
109066,136088,18577,0.047,-0.966,-0.022,-0.061,0.854,0.305,378.889
109066,136044,8449,0.047,-0.96,-0.023,-0.061,0.61,0,378.895
109028,136088,18577,0.046,-0.962,-0.028,-0.061,0.61,0,378.899
109028,136054,8452,0.051,-0.959,-0.03,-0.183,0.549,-0.122,378.905
109032,136088,18577,0.049,-0.958,-0.028,-0.183,0.549,-0.122,378.909
109032,136039,8444,0.05,-0.957,-0.033,-0.061,0.488,-0.183,378.915
109005,136088,18577,0.049,-0.951,-0.029,-0.061,0.488,-0.183,378.918
109005,135991,8447,0.048,-0.951,-0.023,0,0.549,0.061,378.925
109039,136088,18577,0.053,-0.958,-0.025,0,0.549,0.061,378.928
109039,136038,8442,0.052,-0.958,-0.025,-0.427,0.366,0.061,378.935
109003,136088,18577,0.05,-0.96,-0.02,-0.427,0.366,0.061,378.938
109003,136040,8437,0.053,-0.96,-0.015,-0.549,0.183,0.305,378.944
109033,136088,18577,0.049,-0.958,-0.018,-0.549,0.183,0.305,378.948
109033,136044,8451,0.05,-0.962,-0.024,-0.915,0.122,0.366,378.954
109025,136088,18577,0.053,-0.97,-0.018,-0.915,0.122,0.366,378.958
109025,136044,8443,0.051,-0.974,-0.024,-0.976,-0.061,0.122,378.964
109032,136088,18577,0.051,-0.974,-0.021,-0.976,-0.061,0.122,378.968
109032,136047,8426,0.052,-0.967,-0.018,-0.671,-0.061,0,378.974
109038,136088,18577,0.049,-0.965,-0.019,-0.671,-0.061,0,378.978
109038,136049,8459,0.05,-0.967,-0.021,-0.244,-0.122,0,378.984
109071,136088,18577,0.051,-0.962,-0.021,-0.244,-0.122,0,378.988
109071,136082,8450,0.051,-0.959,-0.028,-0.183,-0.366,0.061,378.994
109075,136088,18577,0.05,-0.958,-0.03,-0.183,-0.366,0.061,378.998
109075,136066,8459,0.047,-0.96,-0.033,-0.244,-0.244,-0.061,379.004
109074,136088,18577,0.047,-0.96,-0.033,-0.244,-0.244,-0.061,379.008
109074,136083,8450,0.052,-0.953,-0.034,-0.549,-0.244,-0.061,379.014
109071,136088,18577,0.052,-0.953,-0.034,-0.549,-0.244,-0.061,379.017
109071,136079,8459,0.053,-0.959,-0.038,-0.854,0.061,0,379.024
109041,136088,18577,0.053,-0.959,-0.038,-0.854,0.061,0,379.027
109041,136089,8465,0.052,-0.961,-0.03,-0.854,0.183,0.122,379.034
109024,136088,18577,0.052,-0.961,-0.03,-0.854,0.183,0.122,379.037
109024,136056,8447,0.057,-0.969,-0.025,-0.488,0.305,0.183,379.043
109007,136088,18577,0.057,-0.969,-0.025,-0.488,0.305,0.183,379.047
109007,136081,8458,0.054,-0.965,-0.03,-0.244,0.305,0.122,379.053
109035,136088,18577,0.054,-0.965,-0.03,-0.244,0.305,0.122,379.057
109035,136089,8465,0.057,-0.976,-0.028,0.183,0.427,0.061,379.063
109072,136088,18577,0.057,-0.976,-0.028,0.183,0.427,0.061,379.067
109072,136098,8447,0.059,-0.963,-0.024,0.793,0.671,0.061,379.073
109080,136088,18577,0.059,-0.963,-0.024,0.793,0.671,0.061,379.077
109080,136135,8463,0.055,-0.96,-0.026,1.22,0.915,0.244,379.083
109106,136088,18577,0.055,-0.96,-0.026,1.22,0.915,0.244,379.087
109106,136112,8461,0.053,-0.96,-0.019,0.976,1.098,0.366,379.093
109109,136088,18577,0.053,-0.96,-0.019,0.976,1.098,0.366,379.097
109109,136142,8447,0.053,-0.953,-0.019,0.671,1.037,0.488,379.103
109115,136088,18577,0.053,-0.953,-0.019,0.671,1.037,0.488,379.107
109115,136160,8473,0.049,-0.952,-0.027,0.305,0.793,0.61,379.113
109129,136088,18577,0.049,-0.952,-0.027,0.305,0.793,0.61,379.116
109129,136164,8461,0.048,-0.961,-0.024,0.061,0.427,0.671,379.123
109111,136088,18577,0.048,-0.961,-0.024,0.061,0.427,0.671,379.126
109111,136189,8471,0.053,-0.955,-0.026,-0.061,0.183,0.915,379.133
109135,136088,18577,0.053,-0.955,-0.026,-0.061,0.183,0.915,379.136
109135,136152,8453,0.047,-0.962,-0.02,-0.488,0.366,1.037,379.142
109111,136088,18577,0.047,-0.962,-0.02,-0.488,0.366,1.037,379.146
109111,136183,8468,0.053,-0.964,-0.024,-0.488,0.366,1.037,379.152
109097,136088,18577,0.054,-0.964,-0.021,-0.732,0.427,1.037,379.156
109097,136152,8461,0.054,-0.968,-0.02,-0.732,0.427,1.037,379.162
109082,136088,18577,0.055,-0.969,-0.018,-0.549,0.427,1.037,379.166
109082,136167,8446,0.055,-0.973,-0.016,-0.549,0.427,1.037,379.172
109099,136088,18577,0.054,-0.97,-0.025,-0.061,0.61,0.976,379.176
109099,136140,8458,0.051,-0.972,-0.022,-0.061,0.61,0.976,379.182
109124,136088,18577,0.051,-0.973,-0.029,0.305,0.732,0.732,379.186
109124,136153,8444,0.051,-0.973,-0.031,0.305,0.732,0.732,379.192
109106,136344,18577,0.053,-0.971,-0.021,0.427,0.732,0.488,379.196
109106,136195,8462,0.051,-0.968,-0.022,0.427,0.732,0.488,379.202
109116,136088,18577,0.047,-0.964,-0.024,0.549,0.671,0.183,379.206
109116,136175,8460,0.047,-0.958,-0.022,0.549,0.671,0.183,379.212
109110,136344,18577,0.047,-0.957,-0.023,0.427,0.366,0.183,379.215
109110,136210,8460,0.051,-0.954,-0.024,0.427,0.366,0.183,379.222
109137,136344,18577,0.049,-0.951,-0.027,0.061,0.122,0.244,379.225
109137,136221,8456,0.046,-0.948,-0.026,0.061,0.122,0.244,379.232
109159,136344,18577,0.041,-0.946,-0.027,-0.122,-0.061,0.366,379.235
109159,136218,8449,0.043,-0.944,-0.028,-0.122,-0.061,0.366,379.241
109133,136088,18577,0.045,-0.953,-0.02,-0.183,-0.183,0.427,379.245
109133,136189,8468,0.046,-0.958,-0.02,-0.183,-0.183,0.427,379.251
109111,136088,18577,0.048,-0.961,-0.019,-0.854,-0.305,0.366,379.255
109111,136190,8464,0.046,-0.968,-0.019,-0.854,-0.305,0.366,379.261
109117,136344,18577,0.05,-0.969,-0.018,-1.463,-0.305,0.366,379.265
109117,136207,8452,0.053,-0.971,-0.015,-1.463,-0.305,0.366,379.271
109083,136088,18577,0.057,-0.969,-0.017,-1.402,-0.366,0.366,379.275
109083,136166,8459,0.057,-0.968,-0.022,-1.402,-0.366,0.366,379.281
109069,136088,18577,0.058,-0.969,-0.023,-0.854,-0.183,0.427,379.285
109069,136189,8437,0.058,-0.963,-0.03,-0.854,-0.183,0.427,379.291
109073,136344,18577,0.061,-0.96,-0.026,-0.366,0.122,0.61,379.295
109073,136204,8458,0.059,-0.962,-0.027,-0.366,0.122,0.61,379.301
109100,136344,18577,0.057,-0.966,-0.029,-0.061,0.244,0.671,379.305
109100,136204,8455,0.053,-0.972,-0.032,-0.061,0.244,0.671,379.311
109106,136344,18577,0.052,-0.973,-0.022,-0.061,0.488,0.488,379.314
109106,136214,8451,0.053,-0.971,-0.023,-0.061,0.488,0.488,379.321
109137,136344,18577,0.048,-0.967,-0.034,0.122,0.427,0.366,379.324
109137,136229,8456,0.045,-0.969,-0.035,0.122,0.427,0.366,379.331
109135,136344,18577,0.046,-0.97,-0.028,0.061,0.366,0.244,379.334
109135,136253,8454,0.049,-0.968,-0.028,0.061,0.366,0.244,379.34
109166,136344,18577,0.056,-0.963,-0.032,0.183,0.183,0.122,379.344
109166,136245,8454,0.054,-0.961,-0.033,0.183,0.183,0.122,379.35
109155,136344,18577,0.052,-0.956,-0.029,0.549,0.366,0.122,379.354
109155,136238,8460,0.055,-0.95,-0.028,0.549,0.366,0.122,379.36
109172,136344,18577,0.057,-0.951,-0.02,0.427,0.427,0.305,379.364
109172,136251,8459,0.057,-0.949,-0.018,0.427,0.427,0.305,379.37
109146,136344,18577,0.053,-0.952,-0.027,-0.122,0.61,0.488,379.374
109146,136246,8468,0.053,-0.959,-0.027,-0.122,0.61,0.488,379.38
109143,136344,18577,0.057,-0.961,-0.019,-0.427,0.366,0.732,379.384
109143,136232,8455,0.057,-0.966,-0.02,-0.427,0.366,0.732,379.39
109152,136344,18577,0.054,-0.969,-0.023,-0.061,0.488,0.976,379.394
109152,136229,8457,0.05,-0.964,-0.019,-0.061,0.488,0.976,379.4
109139,136344,18577,0.054,-0.965,-0.013,0.061,0.671,1.098,379.404
109139,136240,8467,0.05,-0.969,-0.011,0.061,0.671,1.098,379.41
109175,136344,18577,0.047,-0.968,-0.023,-0.244,0.61,0.793,379.413
109175,136217,8464,0.044,-0.973,-0.029,-0.244,0.61,0.793,379.42
109156,136344,18577,0.042,-0.979,-0.027,-0.671,0.488,0.549,379.423
109156,136249,8465,0.047,-0.979,-0.026,-0.671,0.488,0.549,379.43
109149,136344,18577,0.051,-0.969,-0.031,0.183,0.183,0.183,379.433
109149,136208,8462,0.047,-0.959,-0.037,0.183,0.183,0.183,379.439
109131,136344,18577,0.045,-0.959,-0.039,0.61,0.549,0.122,379.443
109131,136217,8443,0.046,-0.962,-0.034,0.61,0.549,0.122,379.449
109086,136344,18577,0.05,-0.956,-0.029,0.671,0.671,-0.122,379.453
109086,136199,8446,0.054,-0.954,-0.023,0.671,0.671,-0.122,379.459
109104,136088,18577,0.057,-0.946,-0.019,0.671,0.549,-0.061,379.463
109104,136190,8454,0.051,-0.947,-0.023,0.671,0.549,-0.061,379.469
109082,136088,18577,0.05,-0.954,-0.025,0.061,0.488,0.061,379.473
109082,136167,8445,0.054,-0.957,-0.021,0.061,0.488,0.061,379.479
109087,136088,18577,0.057,-0.954,-0.018,-0.366,0.244,0.122,379.483
109087,136175,8450,0.056,-0.955,-0.023,-0.366,0.244,0.122,379.489
109089,136088,18577,0.055,-0.964,-0.022,-0.61,0.305,0.305,379.493
109089,136168,8452,0.051,-0.97,-0.026,-0.61,0.305,0.305,379.499
109083,136088,18577,0.055,-0.973,-0.024,-0.915,0.366,0.244,379.503
109083,136152,8460,0.057,-0.975,-0.024,-0.915,0.366,0.244,379.509
109077,136088,18577,0.057,-0.977,-0.025,-0.854,0.305,0.061,379.512
109077,136148,8442,0.052,-0.977,-0.025,-0.854,0.305,0.061,379.519
109033,136088,18577,0.05,-0.981,-0.017,-0.122,0.549,0.122,379.522
109033,136148,8449,0.052,-0.973,-0.014,-0.122,0.549,0.122,379.529
109045,136088,18577,0.054,-0.962,-0.02,0.427,0.549,0.061,379.532
109045,136135,8449,0.054,-0.96,-0.026,0.427,0.549,0.061,379.538
109018,136088,18577,0.049,-0.958,-0.026,0.427,0.61,-0.061,379.542
109018,136104,8450,0.047,-0.958,-0.022,0.427,0.61,-0.061,379.548
109006,136088,18577,0.046,-0.96,-0.029,0.122,0.549,-0.061,379.552
109006,136098,8452,0.05,-0.956,-0.032,0.122,0.549,-0.061,379.558
108991,136088,18577,0.048,-0.953,-0.034,0.061,0.305,0.061,379.562
108991,136087,8448,0.044,-0.95,-0.025,0.061,0.305,0.061,379.568
108994,136088,18577,0.046,-0.946,-0.029,0.366,0.183,0.244,379.572
108994,136096,8450,0.046,-0.947,-0.032,0.366,0.183,0.244,379.578
108987,136088,18577,0.049,-0.953,-0.026,-0.244,0.122,0.244,379.582
108987,136089,8447,0.049,-0.958,-0.025,-0.244,0.122,0.244,379.588
108999,136088,18577,0.05,-0.959,-0.026,-0.854,0.122,0.305,379.592
108999,136086,8445,0.051,-0.961,-0.024,-0.854,0.122,0.305,379.598
108970,136088,18577,0.051,-0.961,-0.024,-0.854,0.122,0.305,379.602
108970,136103,8451,0.055,-0.975,-0.026,-1.037,0.061,0.366,379.608
108980,136088,18577,0.055,-0.975,-0.026,-1.037,0.061,0.366,379.611
108980,136050,8440,0.062,-0.969,-0.025,-0.61,0.061,0.305,379.618
108989,136088,18577,0.062,-0.969,-0.025,-0.61,0.061,0.305,379.621
108989,136099,8466,0.055,-0.969,-0.02,0.122,0.305,0.549,379.628
108990,136088,18577,0.055,-0.969,-0.02,0.122,0.305,0.549,379.631
108990,136102,8451,0.059,-0.961,-0.017,0.366,0.305,0.671,379.637
108987,136088,18577,0.059,-0.961,-0.017,0.366,0.305,0.671,379.641
108987,136120,8448,0.055,-0.958,-0.012,0.61,0.305,0.793,379.647
108984,136088,18577,0.055,-0.958,-0.012,0.61,0.305,0.793,379.651
108984,136098,8452,0.045,-0.968,-0.028,0.183,0.549,0.793,379.657
109002,136088,18577,0.045,-0.968,-0.028,0.183,0.549,0.793,379.661
109002,136090,8442,0.05,-0.967,-0.027,-0.244,0.427,0.549,379.667
108993,136088,18577,0.05,-0.967,-0.027,-0.244,0.427,0.549,379.671
108993,136081,8447,0.048,-0.96,-0.042,-0.061,0.366,0.366,379.677
108973,136088,18577,0.048,-0.96,-0.042,-0.061,0.366,0.366,379.681
108973,136091,8442,0.052,-0.966,-0.03,-0.061,0.61,0.244,379.687
108948,136088,18577,0.052,-0.966,-0.03,-0.061,0.61,0.244,379.691
108948,136064,8449,0.053,-0.956,-0.026,-0.061,0.732,0.122,379.697
108960,136088,18577,0.053,-0.956,-0.026,-0.061,0.732,0.122,379.701
108960,136045,8447,0.05,-0.953,-0.017,0.183,0.671,0.244,379.707
108927,136088,18577,0.05,-0.953,-0.017,0.183,0.671,0.244,379.71
108927,136050,8449,0.053,-0.959,-0.017,-0.183,0.549,0.366,379.717
108929,136088,18577,0.053,-0.959,-0.017,-0.183,0.549,0.366,379.72
108929,136060,8462,0.048,-0.963,-0.02,-0.61,0.305,0.549,379.727
108949,136088,18577,0.048,-0.963,-0.02,-0.61,0.305,0.549,379.73
108949,136071,8452,0.048,-0.971,-0.023,-0.61,0.122,0.61,379.736
108962,136088,18577,0.048,-0.971,-0.023,-0.61,0.122,0.61,379.74
108962,136071,8464,0.051,-0.975,-0.018,-0.366,-0.061,0.488,379.746
108985,136088,18577,0.052,-0.971,-0.019,-0.366,-0.061,0.488,379.75
108985,136074,8447,0.05,-0.968,-0.028,-0.122,0.122,0.183,379.756
108980,136088,18577,0.048,-0.97,-0.029,-0.122,0.122,0.183,379.76
108980,136079,8452,0.045,-0.97,-0.024,0.244,0.183,0.061,379.766
108960,136088,18577,0.052,-0.97,-0.023,0.244,0.183,0.061,379.77
108960,136070,8452,0.052,-0.964,-0.027,0.183,0.122,-0.061,379.776
108938,136088,18577,0.047,-0.962,-0.03,0.183,0.122,-0.061,379.78
108938,136058,8447,0.045,-0.961,-0.027,0.061,0.305,-0.061,379.786
108945,136088,18577,0.051,-0.951,-0.027,0.061,0.305,-0.061,379.79
108945,136037,8443,0.054,-0.947,-0.023,-0.061,0,-0.122,379.796
108925,136088,18577,0.051,-0.952,-0.027,-0.061,0,-0.122,379.8
108925,136046,8455,0.05,-0.955,-0.032,-0.366,-0.061,0,379.806
108922,136088,18577,0.055,-0.958,-0.026,-0.366,-0.061,0,379.809
108922,136048,8436,0.055,-0.957,-0.026,-0.549,-0.122,0.122,379.816
108912,136088,18577,0.054,-0.959,-0.031,-0.549,-0.122,0.122,379.819
108912,136041,8448,0.053,-0.97,-0.025,-1.037,0,0.366,379.826
108915,136088,18577,0.052,-0.975,-0.019,-1.037,0,0.366,379.829
108915,136059,8441,0.054,-0.975,-0.02,-0.976,-0.061,0.305,379.835
108913,136088,18577,0.054,-0.976,-0.023,-0.976,-0.061,0.305,379.839
108913,136049,8429,0.05,-0.974,-0.02,-0.366,0,0.305,379.845
108923,136088,18577,0.05,-0.972,-0.02,-0.366,0,0.305,379.849
108923,136067,8447,0.054,-0.972,-0.023,0.183,-0.122,0.183,379.855
108922,136088,18577,0.053,-0.966,-0.026,0.183,-0.122,0.183,379.859
108922,136089,8450,0.056,-0.963,-0.027,0.366,-0.061,0.061,379.865
108910,136088,18577,0.049,-0.956,-0.028,0.366,-0.061,0.061,379.869
108910,136060,8458,0.051,-0.952,-0.027,0.366,0.122,0.122,379.875
108906,136088,18577,0.048,-0.952,-0.026,0.366,0.122,0.122,379.879
108906,136063,8446,0.047,-0.952,-0.026,-0.122,0.122,0.122,379.885
108903,136088,18577,0.049,-0.952,-0.026,-0.122,0.122,0.122,379.889
108903,136021,8454,0.051,-0.953,-0.033,-0.549,0,0.122,379.895
108892,136088,18577,0.05,-0.953,-0.034,-0.549,0,0.122,379.899
108892,136047,8447,0.049,-0.962,-0.028,-0.793,0.122,0.305,379.905
108906,136088,18577,0.05,-0.962,-0.026,-0.793,0.122,0.305,379.908
108906,136049,8447,0.053,-0.961,-0.027,-0.671,0.244,0.305,379.915
108893,136088,18577,0.056,-0.961,-0.028,-0.671,0.244,0.305,379.918
108893,136044,8431,0.053,-0.965,-0.03,-0.305,0.305,0.427,379.925
108863,136088,18577,0.052,-0.968,-0.028,-0.305,0.305,0.427,379.928
108863,136047,8454,0.055,-0.966,-0.029,-0.183,0.244,0.427,379.934
108875,136088,18577,0.054,-0.965,-0.032,-0.183,0.244,0.427,379.938
108875,136047,8444,0.055,-0.966,-0.028,-0.061,0.427,0.427,379.944
108867,136088,18577,0.056,-0.968,-0.031,-0.061,0.427,0.427,379.948
108867,136027,8447,0.054,-0.969,-0.027,0.183,0.61,0.305,379.954
108869,136088,18577,0.055,-0.966,-0.024,0.183,0.61,0.305,379.958
108869,136044,8447,0.054,-0.963,-0.025,0.61,0.671,0.366,379.964
108894,136088,18577,0.055,-0.961,-0.02,0.61,0.671,0.366,379.968
108894,136064,8450,0.056,-0.957,-0.018,0.793,0.549,0.488,379.974
108903,136088,18577,0.06,-0.953,-0.014,0.793,0.549,0.488,379.978
108903,136071,8441,0.054,-0.956,-0.02,0.244,0.732,0.549,379.984
108893,136088,18577,0.05,-0.961,-0.022,0.244,0.732,0.549,379.988
108893,136078,8448,0.052,-0.969,-0.022,-0.122,0.793,0.488,379.994
108883,136088,18577,0.052,-0.972,-0.018,-0.122,0.793,0.488,379.998
108883,136075,8438,0.052,-0.967,-0.017,-0.061,0.549,0.549,380.004
108891,136088,18577,0.049,-0.962,-0.017,-0.061,0.549,0.549,380.007
108891,136095,8436,0.048,-0.961,-0.019,0.183,0.549,0.549,380.014
108853,136088,18577,0.047,-0.962,-0.023,0.183,0.549,0.549,380.017
108853,136067,8444,0.047,-0.967,-0.024,-0.122,0.305,0.549,380.024
108848,136088,18577,0.052,-0.968,-0.027,-0.122,0.305,0.549,380.027
108848,136059,8438,0.054,-0.961,-0.036,-0.061,0.122,0.427,380.033
108832,136088,18577,0.048,-0.962,-0.031,-0.061,0.122,0.427,380.037
108832,136043,8444,0.047,-0.96,-0.03,0.366,0.305,0.549,380.043
108893,136088,18577,0.052,-0.952,-0.03,0.366,0.305,0.549,380.047
108893,136064,8446,0.053,-0.955,-0.024,0.366,0.549,0.61,380.053
108856,136088,18577,0.051,-0.958,-0.021,0.366,0.549,0.61,380.057
108856,136070,8437,0.053,-0.96,-0.022,0,0.671,0.488,380.063
108852,136088,18577,0.055,-0.962,-0.018,0,0.671,0.488,380.067
108852,136061,8439,0.053,-0.961,-0.022,-0.244,0.671,0.549,380.073
108845,136088,18577,0.05,-0.966,-0.024,-0.244,0.671,0.549,380.077
108845,136082,8433,0.048,-0.973,-0.021,-0.244,0.549,0.549,380.083
108866,136088,18577,0.05,-0.972,-0.021,-0.244,0.549,0.549,380.087
108866,136075,8428,0.057,-0.973,-0.025,0.122,0.305,0.549,380.093
108848,136088,18577,0.053,-0.973,-0.029,0.122,0.305,0.549,380.097
108848,136091,8447,0.047,-0.977,-0.021,0.671,0.488,0.305,380.103
108871,136088,18577,0.051,-0.974,-0.023,0.671,0.488,0.305,380.106
108871,136088,8439,0.05,-0.965,-0.025,0.793,0.61,0,380.113
108889,136088,18577,0.051,-0.963,-0.022,0.793,0.61,0,380.116
108889,136090,8442,0.051,-0.962,-0.026,0.61,0.549,-0.183,380.123
108898,136088,18577,0.049,-0.958,-0.022,0.61,0.549,-0.183,380.126
108898,136095,8434,0.052,-0.951,-0.022,0.244,0.549,-0.305,380.132
108889,136088,18577,0.053,-0.949,-0.026,0.244,0.549,-0.305,380.136
108889,136105,8440,0.055,-0.948,-0.027,-0.366,0.549,-0.244,380.142
108861,136088,18577,0.053,-0.949,-0.032,-0.366,0.549,-0.244,380.146
108861,136093,8447,0.049,-0.951,-0.031,-0.549,0.549,0,380.152
108848,136088,18577,0.048,-0.959,-0.026,-0.549,0.549,0,380.156
108848,136105,8447,0.055,-0.959,-0.02,-0.305,0.244,0.183,380.162
108859,136088,18577,0.053,-0.955,-0.018,-0.305,0.244,0.183,380.166
108859,136085,8417,0.05,-0.959,-0.017,-0.305,0.244,0.366,380.172
108853,136088,18577,0.049,-0.967,-0.012,-0.305,0.244,0.366,380.176
108853,136099,8444,0.048,-0.97,-0.019,-0.61,0.244,0.427,380.182
108853,136088,18577,0.048,-0.97,-0.019,-0.61,0.244,0.427,380.186
108853,136091,8439,0.057,-0.981,-0.018,-0.732,-0.061,0.183,380.192
108833,136088,18577,0.057,-0.981,-0.018,-0.732,-0.061,0.183,380.196
108833,136110,8435,0.054,-0.976,-0.028,-0.183,-0.061,0.122,380.202
108855,136088,18577,0.054,-0.976,-0.028,-0.183,-0.061,0.122,380.205
108855,136084,8435,0.059,-0.967,-0.023,0.244,0.244,0,380.212
108858,136088,18577,0.059,-0.967,-0.023,0.244,0.244,0,380.215
108858,136094,8433,0.053,-0.966,-0.031,0.427,0.549,-0.061,380.222
108880,136088,18577,0.053,-0.966,-0.031,0.427,0.549,-0.061,380.225
108880,136117,8465,0.054,-0.956,-0.026,0.671,0.61,0.061,380.231
108911,136088,18577,0.054,-0.956,-0.026,0.671,0.61,0.061,380.235
108911,136141,8450,0.047,-0.941,-0.021,0.854,0.671,0.244,380.241
108921,136088,18577,0.047,-0.941,-0.021,0.854,0.671,0.244,380.245
108921,136111,8444,0.048,-0.949,-0.024,0.061,0.488,0.427,380.251
108913,136088,18577,0.048,-0.949,-0.024,0.061,0.488,0.427,380.255
108913,136142,8460,0.049,-0.959,-0.012,-0.671,0.244,0.427,380.261
108929,136088,18577,0.049,-0.959,-0.012,-0.671,0.244,0.427,380.265
108929,136107,8454,0.05,-0.957,-0.024,-1.22,-0.183,0.61,380.271
108930,136088,18577,0.05,-0.957,-0.024,-1.22,-0.183,0.61,380.275
108930,136119,8447,0.053,-0.972,-0.02,-1.341,-0.366,0.549,380.281
108933,136088,18577,0.053,-0.972,-0.02,-1.341,-0.366,0.549,380.285
108933,136122,8463,0.054,-0.976,-0.022,-1.037,-0.366,0.366,380.291
108940,136088,18577,0.054,-0.976,-0.022,-1.037,-0.366,0.366,380.295
108940,136137,8447,0.057,-0.976,-0.026,-0.549,-0.183,0.488,380.301
108925,136088,18577,0.057,-0.976,-0.026,-0.549,-0.183,0.488,380.304
108925,136111,8446,0.055,-0.962,-0.033,-0.244,0.061,0.366,380.311
108901,136088,18577,0.055,-0.962,-0.033,-0.244,0.061,0.366,380.314
108901,136103,8453,0.049,-0.972,-0.029,0.183,0.366,0.122,380.321
108905,136088,18577,0.049,-0.972,-0.029,0.183,0.366,0.122,380.324
108905,136113,8447,0.053,-0.963,-0.028,0.183,0.366,0.122,380.33
108923,136088,18577,0.053,-0.951,-0.027,0.488,0.488,0.061,380.334
108923,136104,8454,0.049,-0.948,-0.028,0.488,0.488,0.061,380.34
108922,136088,18577,0.047,-0.956,-0.023,0.244,0.671,0.122,380.344
108922,136100,8450,0.048,-0.958,-0.024,0.244,0.671,0.122,380.35
108891,136088,18577,0.048,-0.955,-0.023,-0.305,0.61,-0.061,380.354
108891,136102,8452,0.053,-0.96,-0.021,-0.305,0.61,-0.061,380.36
108906,136088,18577,0.054,-0.962,-0.022,-0.183,0.427,0,380.364
108906,136100,8439,0.05,-0.958,-0.024,-0.183,0.427,0,380.37
108909,136088,18577,0.052,-0.958,-0.021,0.122,0.305,0.061,380.374
108909,136087,8457,0.055,-0.955,-0.019,0.122,0.305,0.061,380.38
108920,136088,18577,0.06,-0.953,-0.022,0.122,0.122,0.183,380.384
108920,136086,8456,0.056,-0.96,-0.021,0.122,0.122,0.183,380.39
108879,136088,18577,0.053,-0.965,-0.023,-0.244,0.183,0.366,380.394
108879,136080,8438,0.057,-0.968,-0.025,-0.244,0.183,0.366,380.4
108899,136088,18577,0.057,-0.968,-0.024,-0.244,0.183,0.366,380.403
108899,136111,8452,0.059,-0.97,-0.023,-0.244,0.183,0.366,380.41
108880,136088,18577,0.056,-0.968,-0.024,-0.122,0.305,0.488,380.413
108880,136085,8443,0.054,-0.973,-0.023,-0.122,0.305,0.488,380.42
108906,136088,18577,0.055,-0.972,-0.025,-0.061,0.732,0.427,380.423
108906,136105,8451,0.052,-0.967,-0.029,-0.061,0.732,0.427,380.429
108928,136088,18577,0.051,-0.968,-0.024,0.122,0.793,0.305,380.433
108928,136123,8443,0.05,-0.968,-0.023,0.122,0.793,0.305,380.439
108927,136088,18577,0.049,-0.964,-0.029,0.305,0.854,0.183,380.443
108927,136107,8425,0.05,-0.966,-0.022,0.305,0.854,0.183,380.449
108944,136088,18577,0.054,-0.968,-0.02,0.305,0.793,0,380.453
108944,136113,8442,0.051,-0.961,-0.022,0.305,0.793,0,380.459
108912,136088,18577,0.05,-0.956,-0.027,0.244,0.549,0,380.463
108912,136104,8458,0.048,-0.958,-0.021,0.244,0.549,0,380.469
108924,136088,18577,0.049,-0.958,-0.02,0.061,0.305,0.122,380.473
108924,136113,8465,0.051,-0.949,-0.025,0.061,0.305,0.122,380.479
108911,136088,18577,0.051,-0.955,-0.031,-0.122,0,0.244,380.483
108911,136119,8438,0.048,-0.959,-0.022,-0.122,0,0.244,380.489
108927,136088,18577,0.049,-0.956,-0.026,-0.305,0.122,0.183,380.493
108927,136097,8453,0.054,-0.961,-0.026,-0.305,0.122,0.183,380.499
108909,136088,18577,0.053,-0.96,-0.015,-0.488,0.061,0.305,380.502
108909,136118,8460,0.054,-0.959,-0.018,-0.488,0.061,0.305,380.509
108919,136088,18577,0.056,-0.964,-0.023,-0.549,0.183,0.305,380.512
108919,136131,8464,0.057,-0.964,-0.022,-0.549,0.183,0.305,380.518
108964,136088,18577,0.058,-0.966,-0.029,-0.671,0.244,0.366,380.522
108964,136137,8453,0.059,-0.97,-0.031,-0.671,0.244,0.366,380.528
108945,136088,18577,0.053,-0.972,-0.027,-0.061,0.366,0.488,380.532
108945,136154,8476,0.054,-0.968,-0.028,-0.061,0.366,0.488,380.538
108945,136088,18577,0.055,-0.967,-0.027,0.305,0.61,0.488,380.542
108945,136129,8462,0.052,-0.97,-0.022,0.305,0.61,0.488,380.548
108902,136088,18577,0.052,-0.966,-0.021,0.549,0.549,0.427,380.552
108902,136104,8449,0.051,-0.961,-0.02,0.549,0.549,0.427,380.558
108890,136088,18577,0.048,-0.959,-0.022,0.305,0.549,0.305,380.562
108890,136101,8460,0.046,-0.966,-0.027,0.305,0.549,0.305,380.568
108858,136088,18577,0.049,-0.965,-0.028,-0.122,0.427,0.122,380.572
108858,136055,8449,0.053,-0.957,-0.028,-0.122,0.427,0.122,380.578
108826,136088,18577,0.055,-0.95,-0.029,-0.061,0.122,0.183,380.582
108826,136053,8444,0.056,-0.948,-0.033,-0.061,0.122,0.183,380.588
108851,136088,18577,0.05,-0.95,-0.026,0.183,0.305,0.244,380.592
108851,136043,8456,0.052,-0.953,-0.021,0.183,0.305,0.244,380.598
108856,136088,18577,0.053,-0.959,-0.02,-0.366,0.488,0.366,380.601
108856,136032,8436,0.055,-0.958,-0.029,-0.366,0.488,0.366,380.608
108880,136088,18577,0.055,-0.96,-0.022,-0.549,0.549,0.305,380.611
108880,136072,8470,0.057,-0.959,-0.022,-0.549,0.549,0.305,380.618
108914,136088,18577,0.057,-0.963,-0.02,-0.427,0.366,0.549,380.621
108914,136098,8453,0.055,-0.968,-0.019,-0.427,0.366,0.549,380.627
108903,136088,18577,0.055,-0.968,-0.031,-0.305,0.61,0.732,380.631
108903,136126,8462,0.056,-0.971,-0.033,-0.305,0.61,0.732,380.637
108911,136088,18577,0.052,-0.976,-0.027,0.061,0.793,0.732,380.641
108911,136095,8444,0.056,-0.975,-0.02,0.061,0.793,0.732,380.647
108894,136088,18577,0.057,-0.969,-0.02,0.488,0.854,0.732,380.651
108894,136094,8444,0.053,-0.966,-0.022,0.488,0.854,0.732,380.657
108893,136088,18577,0.049,-0.966,-0.014,0.549,1.098,0.671,380.661
108893,136079,8446,0.048,-0.969,-0.009,0.549,1.098,0.671,380.667
108913,136088,18577,0.048,-0.966,-0.016,0.366,0.915,0.488,380.671
108913,136090,8467,0.052,-0.965,-0.016,0.366,0.915,0.488,380.677
108913,136088,18577,0.048,-0.968,-0.021,0.427,0.61,0.244,380.681
108913,136108,8459,0.05,-0.965,-0.023,0.427,0.61,0.244,380.687
108936,136088,18577,0.053,-0.955,-0.03,0.671,0.305,0.183,380.691
108936,136135,8464,0.051,-0.954,-0.029,0.671,0.305,0.183,380.697
108931,136088,18577,0.049,-0.955,-0.031,0.732,0.305,0.183,380.7
108931,136126,8464,0.049,-0.955,-0.034,0.732,0.305,0.183,380.707
108944,136088,18577,0.052,-0.954,-0.035,0.366,0.427,0.061,380.71
108944,136144,8463,0.051,-0.958,-0.021,0.366,0.427,0.061,380.716
108954,136088,18577,0.05,-0.955,-0.019,0,0.366,0.305,380.72
108954,136141,8452,0.049,-0.954,-0.022,0,0.366,0.305,380.726
108940,136088,18577,0.05,-0.96,-0.016,-0.427,0.427,0.427,380.73
108940,136165,8447,0.052,-0.961,-0.004,-0.427,0.427,0.427,380.736
108936,136088,18577,0.049,-0.959,-0.011,-0.793,0,0.427,380.74
108936,136162,8465,0.049,-0.966,-0.018,-0.793,0,0.427,380.746
108937,136088,18577,0.048,-0.973,-0.011,-1.037,-0.183,0.305,380.75
108937,136152,8473,0.051,-0.969,-0.018,-1.037,-0.183,0.305,380.756
108955,136088,18577,0.057,-0.964,-0.022,-0.854,-0.366,0.122,380.76
108955,136133,8456,0.057,-0.967,-0.024,-0.854,-0.366,0.122,380.766
108950,136088,18577,0.057,-0.967,-0.024,-0.854,-0.366,0.122,380.77
108950,136154,8460,0.057,-0.969,-0.03,-0.366,-0.305,0.122,380.776
108952,136088,18577,0.057,-0.969,-0.03,-0.366,-0.305,0.122,380.78
108952,136150,8472,0.061,-0.964,-0.019,-0.366,0.061,0.183,380.786
108943,136088,18577,0.061,-0.964,-0.019,-0.366,0.061,0.183,380.79
108943,136144,8460,0.055,-0.959,-0.026,-0.183,0.305,0.122,380.796
108930,136088,18577,0.055,-0.959,-0.026,-0.183,0.305,0.122,380.799
108930,136118,8455,0.053,-0.956,-0.024,-0.305,0.366,0.305,380.806
108886,136088,18577,0.053,-0.956,-0.024,-0.305,0.366,0.305,380.809
108886,136125,8464,0.05,-0.956,-0.03,-0.793,0.305,0.244,380.815
108884,136088,18577,0.05,-0.956,-0.03,-0.793,0.305,0.244,380.819
108884,136109,8443,0.05,-0.957,-0.037,-0.671,0.122,0.244,380.825
108884,136088,18577,0.05,-0.957,-0.037,-0.671,0.122,0.244,380.829
108884,136137,8448,0.055,-0.963,-0.038,-0.488,-0.061,0.305,380.835
108880,136088,18577,0.055,-0.963,-0.038,-0.488,-0.061,0.305,380.839
108880,136110,8455,0.058,-0.96,-0.035,-0.061,0.122,0.305,380.845
108861,136088,18577,0.058,-0.96,-0.035,-0.061,0.122,0.305,380.849
108861,136114,8466,0.055,-0.962,-0.027,0.671,0.549,0.488,380.855
108881,136088,18577,0.055,-0.962,-0.027,0.671,0.549,0.488,380.859
108881,136124,8457,0.059,-0.959,-0.018,0.793,0.732,0.671,380.865
108896,136088,18577,0.059,-0.959,-0.018,0.793,0.732,0.671,380.869
108896,136116,8445,0.058,-0.962,-0.016,0.732,0.854,0.732,380.875
108886,136088,18577,0.058,-0.962,-0.016,0.732,0.854,0.732,380.879
108886,136123,8459,0.055,-0.971,-0.008,0.305,0.915,0.854,380.885
108882,136088,18577,0.055,-0.971,-0.008,0.305,0.915,0.854,380.889
108882,136120,8463,0.053,-0.969,-0.024,0.122,0.732,0.854,380.895
108861,136088,18577,0.053,-0.969,-0.024,0.122,0.732,0.854,380.898
108861,136161,8463,0.047,-0.973,-0.017,0.183,0.854,0.61,380.905
108878,136088,18577,0.047,-0.973,-0.017,0.183,0.854,0.61,380.908
108878,136129,8455,0.052,-0.965,-0.028,0.549,0.976,0.488,380.914
108874,136088,18577,0.054,-0.963,-0.024,0.549,0.976,0.488,380.918
108874,136135,8466,0.052,-0.959,-0.018,0.793,0.976,0.61,380.924
108881,136088,18577,0.052,-0.952,-0.026,0.793,0.976,0.61,380.928
108881,136137,8450,0.053,-0.951,-0.032,0.854,0.976,0.61,380.934
108874,136088,18577,0.053,-0.952,-0.02,0.854,0.976,0.61,380.938
108874,136159,8460,0.053,-0.948,-0.018,0.915,0.854,0.854,380.944
108885,136088,18577,0.052,-0.943,-0.027,0.915,0.854,0.854,380.948
108885,136163,8450,0.052,-0.946,-0.021,0.427,0.61,1.28,380.954
108887,136088,18577,0.048,-0.951,-0.012,0.427,0.61,1.28,380.958
108887,136179,8444,0.047,-0.958,-0.014,-0.183,0.366,1.402,380.964
108856,136088,18577,0.047,-0.968,-0.022,-0.183,0.366,1.402,380.968
108856,136169,8448,0.047,-0.973,-0.017,-0.976,0.122,1.28,380.974
108860,136088,18577,0.049,-0.98,-0.014,-0.976,0.122,1.28,380.978
108860,136158,8457,0.052,-0.981,-0.02,-1.159,-0.244,1.098,380.984
108867,136088,18577,0.054,-0.976,-0.021,-1.159,-0.244,1.098,380.988
108867,136165,8457,0.049,-0.974,-0.025,-0.732,-0.244,0.732,380.994
108877,136088,18577,0.053,-0.976,-0.028,-0.732,-0.244,0.732,380.997
108877,136178,8453,0.054,-0.978,-0.029,-0.244,-0.061,0.488,381.004
108891,136088,18577,0.056,-0.974,-0.032,-0.244,-0.061,0.488,381.007
108891,136189,8448,0.054,-0.97,-0.029,0.61,0.183,0.244,381.013
108880,136344,18577,0.052,-0.961,-0.028,0.61,0.183,0.244,381.017
108880,136201,8463,0.053,-0.956,-0.025,1.341,0.61,0.183,381.023
108881,136088,18577,0.052,-0.949,-0.016,1.341,0.61,0.183,381.027
108881,136182,8444,0.053,-0.945,-0.017,1.341,0.61,0.305,381.033
108845,136088,18577,0.05,-0.941,-0.017,1.341,0.61,0.305,381.037
108845,136149,8447,0.049,-0.948,-0.013,0.427,0.61,0.366,381.043
108864,136088,18577,0.048,-0.955,-0.012,0.427,0.61,0.366,381.047
108864,136150,8448,0.049,-0.956,-0.018,-0.366,0.183,0.549,381.053
108846,136088,18577,0.05,-0.961,-0.019,-0.366,0.183,0.549,381.057
108846,136185,8452,0.049,-0.963,-0.019,-0.671,-0.183,0.61,381.063
108869,136088,18577,0.052,-0.966,-0.023,-0.671,-0.183,0.61,381.067
108869,136176,8449,0.053,-0.971,-0.028,-0.61,-0.244,0.549,381.073
108874,136088,18577,0.053,-0.976,-0.029,-0.61,-0.244,0.549,381.077
108874,136157,8434,0.052,-0.976,-0.029,-0.305,-0.122,0.244,381.083
108833,136088,18577,0.053,-0.978,-0.031,-0.305,-0.122,0.244,381.086
108833,136161,8455,0.055,-0.981,-0.022,0.427,0.122,0.061,381.093
108824,136088,18577,0.052,-0.976,-0.025,0.427,0.122,0.061,381.096
108824,136139,8436,0.051,-0.969,-0.024,0.976,0.488,0.061,381.103
108810,136088,18577,0.052,-0.967,-0.021,0.976,0.488,0.061,381.106
108810,136137,8440,0.053,-0.964,-0.02,1.098,0.732,-0.061,381.112
108816,136088,18577,0.054,-0.958,-0.016,1.098,0.732,-0.061,381.116
108816,136144,8439,0.053,-0.952,-0.02,0.854,0.549,-0.122,381.122
108857,136088,18577,0.054,-0.951,-0.018,0.854,0.549,-0.122,381.126
108857,136156,8439,0.052,-0.955,-0.015,0.366,0.549,0,381.132
108857,136088,18577,0.053,-0.958,-0.021,0.366,0.549,0,381.136
108857,136177,8454,0.056,-0.957,-0.02,0.061,0.671,0.183,381.142
108913,136344,18577,0.054,-0.953,-0.006,0.061,0.671,0.183,381.146
108913,136211,8466,0.053,-0.95,-0.014,0.183,0.488,0.427,381.152
108921,136344,18577,0.051,-0.951,-0.023,0.183,0.488,0.427,381.156
108921,136193,8447,0.049,-0.958,-0.024,-0.549,0.366,0.61,381.162
108923,136344,18577,0.049,-0.965,-0.014,-0.549,0.366,0.61,381.166
108923,136222,8448,0.051,-0.968,-0.011,-1.402,0.183,0.671,381.172
108914,136344,18577,0.053,-0.967,-0.019,-1.402,0.183,0.671,381.176
108914,136218,8440,0.054,-0.969,-0.026,-1.28,0.061,0.671,381.182
108908,136344,18577,0.049,-0.971,-0.023,-1.28,0.061,0.671,381.186
108908,136202,8453,0.049,-0.972,-0.019,-0.793,0,0.61,381.192
108913,136344,18577,0.053,-0.965,-0.025,-0.793,0,0.61,381.195
108913,136205,8452,0.051,-0.963,-0.028,-0.488,-0.061,0.671,381.202
108892,136088,18577,0.052,-0.966,-0.024,-0.488,-0.061,0.671,381.205
108892,136183,8442,0.05,-0.967,-0.024,-0.061,0.061,0.671,381.211
108900,136088,18577,0.053,-0.963,-0.021,-0.061,0.061,0.671,381.215
108900,136186,8448,0.053,-0.961,-0.018,0.183,0.122,0.549,381.221
108904,136344,18577,0.05,-0.964,-0.018,0.183,0.122,0.549,381.225
108904,136197,8455,0.049,-0.962,-0.019,0,0.122,0.488,381.231
108892,136088,18577,0.048,-0.962,-0.017,0,0.122,0.488,381.235
108892,136178,8451,0.048,-0.961,-0.021,-0.366,0,0.244,381.241
108870,136088,18577,0.052,-0.962,-0.027,-0.366,0,0.244,381.245
108870,136165,8444,0.052,-0.966,-0.029,-0.732,0,0.122,381.251
108857,136088,18577,0.05,-0.97,-0.025,-0.732,0,0.122,381.255
108857,136169,8439,0.049,-0.964,-0.028,-0.61,0.061,0.122,381.261
108862,136088,18577,0.052,-0.96,-0.022,-0.61,0.061,0.122,381.265
108862,136156,8464,0.054,-0.961,-0.024,-0.244,0.122,0.122,381.271
108861,136088,18577,0.054,-0.963,-0.023,-0.244,0.122,0.122,381.275
108861,136139,8428,0.051,-0.965,-0.023,-0.244,0.244,0.061,381.281
108864,136088,18577,0.052,-0.964,-0.024,-0.244,0.244,0.061,381.285
108864,136175,8454,0.052,-0.961,-0.024,-0.061,0.122,0.244,381.291
108882,136088,18577,0.057,-0.951,-0.017,-0.061,0.122,0.244,381.294
108882,136187,8457,0.054,-0.945,-0.02,0.305,0,0.427,381.301
108903,136344,18577,0.052,-0.953,-0.019,0.305,0,0.427,381.304
108903,136216,8462,0.047,-0.963,-0.024,-0.305,0.122,0.427,381.31
108942,136344,18577,0.05,-0.968,-0.028,-0.305,0.122,0.427,381.314
108942,136242,8454,0.053,-0.971,-0.024,-0.671,0.122,0.244,381.32
108926,136088,18577,0.053,-0.967,-0.023,-0.671,0.122,0.244,381.324
108926,136183,8454,0.053,-0.964,-0.025,-0.122,0.122,0.183,381.33
108941,136344,18577,0.052,-0.969,-0.024,-0.122,0.122,0.183,381.334
108941,136209,8458,0.049,-0.974,-0.019,-0.061,0.366,0.183,381.34
108921,136344,18577,0.054,-0.973,-0.017,-0.061,0.366,0.183,381.344
108921,136203,8460,0.059,-0.963,-0.019,0.122,0.366,0.183,381.35
108939,136344,18577,0.059,-0.963,-0.019,0.122,0.366,0.183,381.354
108939,136220,8459,0.055,-0.956,-0.016,0.549,0.305,0.366,381.36
108957,136344,18577,0.055,-0.956,-0.016,0.549,0.305,0.366,381.364
108957,136203,8464,0.056,-0.954,-0.019,0.183,0.366,0.427,381.37
108991,136344,18577,0.056,-0.954,-0.019,0.183,0.366,0.427,381.374
108991,136212,8461,0.049,-0.967,-0.014,-0.549,0.549,0.366,381.38
109001,136344,18577,0.049,-0.967,-0.014,-0.549,0.549,0.366,381.383
109001,136246,8472,0.054,-0.966,-0.028,-0.61,0.305,0.427,381.39
109028,136344,18577,0.054,-0.966,-0.028,-0.61,0.305,0.427,381.393
109028,136263,8466,0.051,-0.966,-0.026,-0.305,0.366,0.305,381.4
109038,136344,18577,0.051,-0.966,-0.026,-0.305,0.366,0.305,381.403
109038,136290,8468,0.05,-0.971,-0.025,-0.061,0.671,0.305,381.409
109059,136344,18577,0.05,-0.971,-0.025,-0.061,0.671,0.305,381.413
109059,136269,8474,0.052,-0.959,-0.03,0.488,0.427,0.305,381.419
109071,136344,18577,0.052,-0.959,-0.03,0.488,0.427,0.305,381.423
109071,136297,8471,0.047,-0.961,-0.025,0.488,0.671,0.183,381.429
109067,136344,18577,0.047,-0.961,-0.025,0.488,0.671,0.183,381.433
109067,136272,8463,0.052,-0.958,-0.026,0.183,0.427,0.183,381.439
109057,136344,18577,0.052,-0.958,-0.026,0.183,0.427,0.183,381.443
109057,136274,8468,0.048,-0.955,-0.02,-0.183,0.488,0.183,381.449
109058,136344,18577,0.048,-0.955,-0.02,-0.183,0.488,0.183,381.453
109058,136281,8465,0.054,-0.958,-0.021,-0.366,0.549,0.183,381.459
109025,136344,18577,0.054,-0.958,-0.021,-0.366,0.549,0.183,381.463
109025,136273,8452,0.055,-0.966,-0.021,-0.488,0.305,0.244,381.469
109053,136344,18577,0.055,-0.966,-0.021,-0.488,0.305,0.244,381.473
109053,136260,8470,0.059,-0.96,-0.012,-0.061,0.305,0.427,381.479
109012,136344,18577,0.059,-0.96,-0.012,-0.061,0.305,0.427,381.483
109012,136250,8480,0.054,-0.961,-0.019,0.061,0.61,0.61,381.489
109023,136344,18577,0.054,-0.961,-0.019,0.061,0.61,0.61,381.492
109023,136247,8471,0.047,-0.968,-0.021,0.061,0.61,0.61,381.499
108988,136344,18577,0.05,-0.97,-0.025,-0.305,0.671,0.549,381.502
108988,136258,8472,0.055,-0.97,-0.028,-0.305,0.671,0.549,381.508
109001,136344,18577,0.054,-0.974,-0.025,-0.244,0.61,0.244,381.512
109001,136236,8455,0.05,-0.971,-0.024,-0.244,0.61,0.244,381.518
108992,136344,18577,0.05,-0.965,-0.026,0.122,0.976,0,381.522
108992,136233,8461,0.053,-0.964,-0.023,0.122,0.976,0,381.528
108972,136344,18577,0.052,-0.966,-0.017,-0.061,1.098,-0.122,381.532
108972,136203,8473,0.049,-0.959,-0.012,-0.061,1.098,-0.122,381.538
108980,136344,18577,0.052,-0.956,-0.015,-0.183,0.793,-0.061,381.542
108980,136234,8462,0.052,-0.955,-0.02,-0.183,0.793,-0.061,381.548
108983,136344,18577,0.049,-0.956,-0.02,-0.061,0.61,0.122,381.552
108983,136222,8463,0.049,-0.954,-0.019,-0.061,0.61,0.122,381.558
108991,136344,18577,0.051,-0.957,-0.019,0.122,0.244,0.366,381.562
108991,136248,8473,0.055,-0.955,-0.031,0.122,0.244,0.366,381.568
109039,136344,18577,0.051,-0.958,-0.029,0.305,0.244,0.488,381.572
109039,136249,8470,0.046,-0.963,-0.016,0.305,0.244,0.488,381.578
109051,136344,18577,0.052,-0.961,-0.014,0.061,0.488,0.488,381.581
109051,136280,8483,0.05,-0.962,-0.021,0.061,0.488,0.488,381.588
109065,136344,18577,0.047,-0.965,-0.018,-0.244,0.61,0.427,381.591
109065,136296,8481,0.045,-0.972,-0.021,-0.244,0.61,0.427,381.598
109055,136344,18577,0.046,-0.977,-0.016,-0.305,0.244,0.244,381.601
109055,136301,8471,0.048,-0.973,-0.017,-0.305,0.244,0.244,381.607
109084,136344,18577,0.054,-0.968,-0.021,-0.366,-0.122,0,381.611
109084,136307,8471,0.053,-0.965,-0.026,-0.366,-0.122,0,381.617
109094,136344,18577,0.051,-0.969,-0.025,-0.122,0.122,-0.122,381.621
109094,136318,8482,0.051,-0.968,-0.022,-0.122,0.122,-0.122,381.627
109142,136344,18577,0.053,-0.959,-0.027,0.122,0.427,-0.244,381.631
109142,136321,8495,0.056,-0.96,-0.025,0.122,0.427,-0.244,381.637
109144,136344,18577,0.056,-0.964,-0.018,-0.061,0.671,-0.488,381.641
109144,136342,8487,0.057,-0.961,-0.021,-0.061,0.671,-0.488,381.647
109134,136344,18577,0.052,-0.961,-0.022,-0.305,0.671,-0.488,381.651
109134,136306,8484,0.054,-0.962,-0.017,-0.305,0.671,-0.488,381.657
109108,136344,18577,0.059,-0.957,-0.022,-0.244,0.427,-0.244,381.661
109108,136302,8479,0.058,-0.956,-0.021,-0.244,0.427,-0.244,381.667
109089,136344,18577,0.057,-0.956,-0.016,0,0.366,0.122,381.671
109089,136260,8478,0.059,-0.949,-0.017,0,0.366,0.122,381.677
109091,136344,18577,0.056,-0.944,-0.026,-0.366,0.244,0.488,381.681
109091,136281,8482,0.051,-0.951,-0.028,-0.366,0.244,0.488,381.687
109096,136344,18577,0.05,-0.957,-0.029,-0.732,0,0.61,381.69
109096,136289,8480,0.053,-0.96,-0.023,-0.732,0,0.61,381.697
109100,136344,18577,0.052,-0.963,-0.027,-0.976,-0.183,0.549,381.7
109100,136294,8483,0.053,-0.968,-0.032,-0.976,-0.183,0.549,381.706
109087,136344,18577,0.051,-0.973,-0.019,-0.732,0,0.61,381.71
109087,136311,8494,0.05,-0.976,-0.014,-0.732,0,0.61,381.716
109151,136344,18577,0.054,-0.98,-0.021,-0.366,0.061,0.488,381.72
109151,136336,8491,0.054,-0.978,-0.015,-0.366,0.061,0.488,381.726
109140,136344,18577,0.053,-0.97,-0.008,-0.122,0.122,0.244,381.73
109140,136340,8475,0.061,-0.962,-0.014,-0.122,0.122,0.244,381.736
109166,136344,18577,0.055,-0.961,-0.023,-0.183,0.183,0.244,381.74
109166,136361,8488,0.054,-0.965,-0.03,-0.183,0.183,0.244,381.746
109190,136344,18577,0.056,-0.968,-0.031,-0.122,0.427,0.183,381.75
109190,136339,8487,0.055,-0.961,-0.028,-0.122,0.427,0.183,381.756
109179,136344,18577,0.057,-0.955,-0.033,0.366,0.549,0.122,381.76
109179,136379,8494,0.054,-0.955,-0.032,0.366,0.549,0.122,381.766
109175,136344,18577,0.053,-0.958,-0.034,0.244,1.159,0,381.77
109175,136389,8486,0.052,-0.961,-0.027,0.244,1.159,0,381.776
109176,136344,18577,0.059,-0.961,-0.017,-0.183,1.037,0.122,381.779
109176,136381,8507,0.054,-0.958,-0.016,-0.183,1.037,0.122,381.786
109198,136344,18577,0.052,-0.958,-0.01,-0.183,0.976,0.305,381.789
109198,136370,8484,0.051,-0.958,-0.005,-0.183,0.976,0.305,381.796
109185,136344,18577,0.051,-0.961,-0.004,-0.183,0.854,0.366,381.799
109185,136397,8507,0.052,-0.959,-0.01,-0.183,0.854,0.366,381.805
109219,136344,18577,0.05,-0.962,-0.023,-0.427,0.366,0.549,381.809
109219,136376,8500,0.051,-0.962,-0.021,-0.427,0.366,0.549,381.815
109184,136344,18577,0.051,-0.963,-0.026,-0.061,0.122,0.61,381.819
109184,136382,8493,0.049,-0.971,-0.029,-0.061,0.122,0.61,381.825
109184,136344,18577,0.049,-0.971,-0.026,0.366,0.122,0.61,381.829
109184,136344,8484,0.05,-0.965,-0.02,0.366,0.122,0.61,381.835
109140,136344,18577,0.05,-0.963,-0.021,0.61,0.305,0.61,381.839
109140,136344,8486,0.05,-0.963,-0.011,0.61,0.305,0.61,381.845
109147,136344,18577,0.051,-0.961,-0.007,0.305,0.305,0.549,381.849
109147,136335,8475,0.05,-0.956,-0.01,0.305,0.305,0.549,381.855
109142,136344,18577,0.048,-0.959,-0.012,-0.61,0.244,0.488,381.859
109142,136365,8482,0.053,-0.961,-0.021,-0.61,0.244,0.488,381.865
109146,136344,18577,0.052,-0.961,-0.028,-1.159,0.061,0.427,381.869
109146,136322,8482,0.048,-0.962,-0.023,-1.159,0.061,0.427,381.875
109117,136344,18577,0.053,-0.963,-0.027,-1.037,0.122,0.305,381.878
109117,136336,8492,0.055,-0.96,-0.033,-1.037,0.122,0.305,381.885
109128,136344,18577,0.055,-0.967,-0.028,-0.976,0,0.244,381.888
109128,136312,8493,0.056,-0.966,-0.024,-0.976,0,0.244,381.895
109117,136344,18577,0.059,-0.964,-0.026,-0.61,0.183,0.183,381.898
109117,136305,8486,0.06,-0.965,-0.026,-0.61,0.183,0.183,381.904
109065,136344,18577,0.056,-0.963,-0.015,-0.366,0.244,0.427,381.908
109065,136265,8471,0.056,-0.96,-0.019,-0.366,0.244,0.427,381.914
109069,136344,18577,0.05,-0.962,-0.019,-0.427,0.183,0.61,381.918
109069,136267,8488,0.05,-0.969,-0.013,-0.427,0.183,0.61,381.924
109059,136344,18577,0.054,-0.967,-0.01,-0.366,0.061,0.549,381.928
109059,136284,8462,0.05,-0.96,-0.021,-0.366,0.061,0.549,381.934
109034,136344,18577,0.05,-0.96,-0.021,-0.366,0.061,0.549,381.938
109034,136273,8468,0.044,-0.967,-0.025,-0.305,0,0.366,381.944
109044,136344,18577,0.044,-0.967,-0.025,-0.305,0,0.366,381.948
109044,136273,8484,0.055,-0.965,-0.032,-0.549,-0.061,0.122,381.954
109026,136344,18577,0.055,-0.965,-0.032,-0.549,-0.061,0.122,381.958
109026,136284,8470,0.051,-0.96,-0.022,-0.427,0,0.061,381.964
109061,136344,18577,0.051,-0.96,-0.022,-0.427,0,0.061,381.968
109061,136313,8469,0.052,-0.953,-0.026,-0.183,0.183,0.122,381.974
109066,136344,18577,0.052,-0.953,-0.026,-0.183,0.183,0.122,381.977
109066,136293,8472,0.053,-0.969,-0.017,-0.122,0.366,0.122,381.984
109076,136344,18577,0.053,-0.969,-0.017,-0.122,0.366,0.122,381.987
109076,136298,8475,0.056,-0.961,-0.023,-0.244,0.244,0.122,381.994
109086,136344,18577,0.056,-0.961,-0.023,-0.244,0.244,0.122,381.997
109086,136293,8477,0.057,-0.966,-0.022,-0.061,0.305,0.122,382.003
109070,136344,18577,0.057,-0.966,-0.022,-0.061,0.305,0.122,382.007
109070,136315,8462,0.06,-0.958,-0.021,0.061,0.61,0.122,382.013
109055,136344,18577,0.06,-0.958,-0.021,0.061,0.61,0.122,382.017
109055,136301,8480,0.051,-0.973,-0.02,-0.061,0.61,0.183,382.023
109060,136344,18577,0.051,-0.973,-0.02,-0.061,0.61,0.183,382.027
109060,136298,8478,0.055,-0.965,-0.028,-0.061,0.549,0.244,382.033
109069,136344,18577,0.055,-0.965,-0.028,-0.061,0.549,0.244,382.037
109069,136284,8455,0.049,-0.964,-0.027,-0.122,0.244,0.183,382.043
109062,136344,18577,0.049,-0.964,-0.027,-0.122,0.244,0.183,382.047
109062,136291,8469,0.049,-0.96,-0.031,0.061,0.427,0.122,382.053
109043,136344,18577,0.049,-0.96,-0.031,0.061,0.427,0.122,382.057
109043,136284,8465,0.053,-0.957,-0.025,0,0.305,0.183,382.063
109049,136344,18577,0.053,-0.957,-0.025,0,0.305,0.183,382.067
109049,136277,8450,0.054,-0.955,-0.021,0.061,0.427,0.061,382.073
109010,136344,18577,0.054,-0.955,-0.021,0.061,0.427,0.061,382.076
109010,136242,8473,0.056,-0.956,-0.014,-0.061,0.427,0.244,382.083
108985,136344,18577,0.06,-0.957,-0.015,-0.061,0.427,0.244,382.086
108985,136249,8452,0.058,-0.959,-0.014,-0.122,0.488,0.488,382.093
108982,136344,18577,0.055,-0.961,-0.013,-0.122,0.488,0.488,382.096
108982,136231,8454,0.054,-0.959,-0.015,-0.366,0.427,0.732,382.102
108946,136344,18577,0.054,-0.962,-0.019,-0.366,0.427,0.732,382.106
108946,136236,8466,0.052,-0.968,-0.025,-0.549,0.366,0.793,382.112
108947,136344,18577,0.056,-0.974,-0.024,-0.549,0.366,0.793,382.116
108947,136224,8462,0.054,-0.973,-0.023,-0.427,0.366,0.671,382.122
108974,136344,18577,0.052,-0.972,-0.023,-0.427,0.366,0.671,382.126
108974,136245,8456,0.05,-0.971,-0.022,0.061,0.427,0.427,382.132
108966,136344,18577,0.048,-0.969,-0.023,0.061,0.427,0.427,382.136
108966,136204,8446,0.053,-0.966,-0.028,0.305,0.549,0.244,382.142
108938,136344,18577,0.054,-0.961,-0.027,0.305,0.549,0.244,382.146
108938,136207,8447,0.053,-0.956,-0.022,0.305,0.427,0.122,382.152
108942,136088,18577,0.056,-0.956,-0.017,0.305,0.427,0.122,382.156
108942,136189,8445,0.057,-0.951,-0.017,0.183,0.305,0.244,382.162
108898,136088,18577,0.053,-0.953,-0.025,0.183,0.305,0.244,382.166
108898,136184,8433,0.052,-0.958,-0.025,-0.305,0.244,0.366,382.172
108890,136088,18577,0.052,-0.961,-0.019,-0.305,0.244,0.366,382.175
108890,136133,8444,0.057,-0.958,-0.021,-0.244,0.122,0.488,382.182
108851,136088,18577,0.059,-0.958,-0.019,-0.244,0.122,0.488,382.185
108851,136143,8444,0.058,-0.961,-0.017,-0.183,0.183,0.488,382.192
108865,136088,18577,0.056,-0.968,-0.021,-0.183,0.183,0.488,382.195
108865,136140,8451,0.048,-0.969,-0.022,-0.549,0.427,0.549,382.201
108852,136088,18577,0.054,-0.974,-0.019,-0.549,0.427,0.549,382.205
108852,136104,8442,0.052,-0.971,-0.019,-0.366,0.427,0.61,382.211
108827,136088,18577,0.053,-0.969,-0.022,-0.366,0.427,0.61,382.215
108827,136118,8436,0.049,-0.961,-0.02,0.183,0.305,0.671,382.221
108829,136088,18577,0.051,-0.957,-0.019,0.183,0.305,0.671,382.225
108829,136098,8442,0.051,-0.961,-0.02,0.183,0.122,0.488,382.231
108833,136088,18577,0.049,-0.965,-0.025,0.183,0.122,0.488,382.235
108833,136103,8440,0.047,-0.964,-0.026,0.061,0.061,0.305,382.241
108827,136088,18577,0.051,-0.965,-0.025,0.061,0.061,0.305,382.245
108827,136103,8435,0.054,-0.967,-0.021,0.366,0.061,0.183,382.251
108798,136088,18577,0.052,-0.966,-0.02,0.366,0.061,0.183,382.255
108798,136106,8433,0.055,-0.966,-0.021,0.549,0.122,0.122,382.261
108807,136088,18577,0.057,-0.964,-0.023,0.549,0.122,0.122,382.265
108807,136102,8436,0.053,-0.96,-0.026,0.305,0.183,0.061,382.271
108845,136088,18577,0.055,-0.959,-0.022,0.305,0.183,0.061,382.274
108845,136096,8442,0.058,-0.955,-0.024,0.122,0.183,0.244,382.281
108822,136088,18577,0.054,-0.957,-0.024,0.122,0.183,0.244,382.284
108822,136098,8444,0.054,-0.958,-0.023,0,0.366,0.366,382.291
108828,136088,18577,0.053,-0.954,-0.033,0,0.366,0.366,382.294
108828,136106,8443,0.053,-0.961,-0.036,-0.183,0.488,0.427,382.3
108816,136088,18577,0.05,-0.969,-0.029,-0.183,0.488,0.427,382.304
108816,136096,8439,0.051,-0.967,-0.024,0,0.488,0.305,382.31
108822,136088,18577,0.054,-0.966,-0.025,0,0.488,0.305,382.314
108822,136086,8451,0.052,-0.963,-0.026,0.305,0.549,0.305,382.32
108807,136088,18577,0.052,-0.965,-0.021,0.305,0.549,0.305,382.324
108807,136064,8423,0.053,-0.969,-0.015,0.488,0.671,0.305,382.33
108775,136088,18577,0.06,-0.967,-0.014,0.488,0.671,0.305,382.334
108775,136062,8435,0.064,-0.962,-0.018,0.549,0.427,0.366,382.34
108799,136088,18577,0.063,-0.967,-0.014,0.549,0.427,0.366,382.344
108799,136104,8440,0.063,-0.964,-0.015,0.854,0.305,0.61,382.35
108801,136088,18577,0.058,-0.96,-0.024,0.854,0.305,0.61,382.354
108801,136101,8446,0.054,-0.964,-0.023,1.037,0.427,0.854,382.36
108819,136088,18577,0.057,-0.969,-0.021,1.037,0.427,0.854,382.364
108819,136131,8442,0.056,-0.965,-0.026,1.159,0.305,0.854,382.37
108816,136088,18577,0.057,-0.965,-0.027,1.159,0.305,0.854,382.373
108816,136135,8434,0.052,-0.969,-0.029,1.341,0.61,0.854,382.38
108838,136088,18577,0.053,-0.967,-0.024,1.341,0.61,0.854,382.383
108838,136118,8423,0.055,-0.963,-0.022,1.402,1.037,0.732,382.39
108821,136088,18577,0.052,-0.957,-0.015,1.402,1.037,0.732,382.393
108821,136129,8435,0.051,-0.955,-0.011,0.915,1.22,0.793,382.399
108831,136088,18577,0.049,-0.958,-0.017,0.915,1.22,0.793,382.403
108831,136103,8423,0.046,-0.969,-0.014,0.122,1.159,0.671,382.409
108826,136088,18577,0.049,-0.965,-0.016,0.122,1.159,0.671,382.413
108826,136114,8447,0.05,-0.965,-0.021,0.122,0.793,0.61,382.419
108828,136088,18577,0.052,-0.962,-0.009,0.122,0.793,0.61,382.423
108828,136101,8456,0.05,-0.957,-0.01,0.549,0.427,0.915,382.429
108799,136088,18577,0.048,-0.957,-0.02,0.549,0.427,0.915,382.433
108799,136085,8436,0.046,-0.961,-0.02,0.366,0.732,0.732,382.439
108813,136088,18577,0.048,-0.968,-0.015,0.366,0.732,0.732,382.443
108813,136089,8428,0.051,-0.97,-0.011,0.183,0.366,0.549,382.449
108798,136088,18577,0.05,-0.972,-0.015,0.183,0.366,0.549,382.453
108798,136074,8445,0.05,-0.972,-0.028,0.244,0.244,0.549,382.459
108827,136088,18577,0.052,-0.969,-0.031,0.244,0.244,0.549,382.463
108827,136096,8448,0.051,-0.966,-0.022,0.732,0.427,0.488,382.469
108805,136088,18577,0.053,-0.964,-0.02,0.732,0.427,0.488,382.472
108805,136074,8443,0.054,-0.959,-0.02,0.793,0.427,0.427,382.479
108799,136088,18577,0.047,-0.961,-0.016,0.793,0.427,0.427,382.482
108799,136117,8444,0.047,-0.962,-0.02,0.183,0.793,0.122,382.488
108808,136088,18577,0.047,-0.965,-0.022,0.183,0.793,0.122,382.492
108808,136098,8439,0.045,-0.968,-0.015,0.183,0.61,-0.061,382.498
108811,136088,18577,0.048,-0.966,-0.009,0.183,0.61,-0.061,382.502
108811,136114,8442,0.05,-0.96,-0.016,0.366,0.305,-0.122,382.508
108825,136088,18577,0.051,-0.963,-0.016,0.366,0.305,-0.122,382.512
108825,136102,8444,0.048,-0.966,-0.012,0.244,0.244,-0.244,382.518
108828,136088,18577,0.048,-0.966,-0.012,0.244,0.244,-0.244,382.522
108828,136112,8446,0.052,-0.964,-0.011,0.122,0,-0.183,382.528
108855,136088,18577,0.052,-0.964,-0.011,0.122,0,-0.183,382.532
108855,136124,8427,0.057,-0.949,-0.017,0.061,-0.122,-0.122,382.538
108845,136088,18577,0.057,-0.949,-0.017,0.061,-0.122,-0.122,382.542
108845,136110,8450,0.053,-0.957,-0.022,-0.549,-0.061,0.061,382.548
108879,136088,18577,0.053,-0.957,-0.022,-0.549,-0.061,0.061,382.552
108879,136123,8448,0.056,-0.961,-0.02,-0.915,0,0.122,382.558
108864,136088,18577,0.056,-0.961,-0.02,-0.915,0,0.122,382.562
108864,136137,8460,0.051,-0.959,-0.025,-0.793,0.244,0.366,382.568
108872,136088,18577,0.051,-0.959,-0.025,-0.793,0.244,0.366,382.571
108872,136140,8450,0.055,-0.966,-0.019,-0.305,0.366,0.366,382.578
108869,136088,18577,0.055,-0.966,-0.019,-0.305,0.366,0.366,382.581
108869,136136,8446,0.061,-0.968,-0.018,-0.061,0.244,0.366,382.588
108888,136088,18577,0.061,-0.968,-0.018,-0.061,0.244,0.366,382.591
108888,136158,8455,0.056,-0.968,-0.023,0.061,0.305,0.427,382.597
108913,136344,18577,0.056,-0.968,-0.023,0.061,0.305,0.427,382.601
108913,136197,8445,0.056,-0.969,-0.022,-0.061,0.366,0.366,382.607
108920,136344,18577,0.056,-0.969,-0.022,-0.061,0.366,0.366,382.611
108920,136209,8453,0.052,-0.966,-0.015,-0.122,0.244,0.183,382.617
108922,136344,18577,0.052,-0.966,-0.015,-0.122,0.244,0.183,382.621
108922,136215,8460,0.055,-0.964,-0.021,-0.366,0.305,0.183,382.627
108911,136344,18577,0.055,-0.964,-0.021,-0.366,0.305,0.183,382.631
108911,136201,8462,0.058,-0.961,-0.017,-0.244,0.366,0.122,382.637
108897,136344,18577,0.058,-0.961,-0.017,-0.244,0.366,0.122,382.641
108897,136205,8438,0.055,-0.955,-0.019,-0.183,0.366,0.366,382.647
108877,136088,18577,0.055,-0.955,-0.019,-0.183,0.366,0.366,382.651
108877,136191,8456,0.056,-0.957,-0.022,-0.183,0.671,0.549,382.657
108883,136344,18577,0.056,-0.957,-0.022,-0.183,0.671,0.549,382.661
108883,136197,8434,0.056,-0.959,-0.023,-0.183,0.671,0.549,382.667
108877,136088,18577,0.054,-0.958,-0.021,-0.366,0.793,0.671,382.67
108877,136187,8449,0.051,-0.961,-0.019,-0.366,0.793,0.671,382.677
108894,136344,18577,0.054,-0.96,-0.017,-0.427,0.732,0.793,382.68
108894,136202,8457,0.048,-0.962,-0.013,-0.427,0.732,0.793,382.687
108889,136088,18577,0.047,-0.967,-0.01,-0.183,0.732,0.854,382.69
108889,136184,8447,0.048,-0.968,-0.01,-0.183,0.732,0.854,382.696
108892,136344,18577,0.046,-0.965,-0.01,-0.183,0.366,0.732,382.7
108892,136193,8457,0.05,-0.962,-0.011,-0.183,0.366,0.732,382.706
108883,136344,18577,0.049,-0.963,-0.014,-0.366,0,0.671,382.71
108883,136217,8450,0.05,-0.964,-0.017,-0.366,0,0.671,382.716
108860,136088,18577,0.048,-0.964,-0.022,-0.732,-0.366,0.61,382.72
108860,136188,8467,0.05,-0.967,-0.027,-0.732,-0.366,0.61,382.726
108856,136088,18577,0.054,-0.968,-0.025,-0.976,-0.305,0.366,382.73
108856,136165,8443,0.054,-0.964,-0.023,-0.976,-0.305,0.366,382.736
108839,136088,18577,0.054,-0.96,-0.023,-0.976,-0.122,0.244,382.74
108839,136160,8455,0.053,-0.963,-0.027,-0.976,-0.122,0.244,382.746
108865,136088,18577,0.053,-0.968,-0.026,-0.854,0.183,0.244,382.75
108865,136178,8445,0.055,-0.97,-0.021,-0.854,0.183,0.244,382.756
108878,136344,18577,0.06,-0.962,-0.02,-0.305,0.427,0.244,382.76
108878,136197,8442,0.059,-0.962,-0.017,-0.305,0.427,0.244,382.766
108890,136344,18577,0.057,-0.958,-0.019,0.183,0.732,0.305,382.769
108890,136217,8468,0.054,-0.96,-0.019,0.183,0.732,0.305,382.776
108898,136344,18577,0.057,-0.963,-0.017,0,0.854,0.427,382.779
108898,136201,8456,0.054,-0.964,-0.016,0,0.854,0.427,382.786
108891,136344,18577,0.05,-0.969,-0.018,-0.061,0.61,0.366,382.789
108891,136203,8453,0.053,-0.967,-0.023,-0.061,0.61,0.366,382.795
108870,136088,18577,0.051,-0.963,-0.024,0.061,0.549,0.305,382.799
108870,136179,8449,0.047,-0.967,-0.017,0.061,0.549,0.305,382.805
108835,136344,18577,0.051,-0.963,-0.02,0.244,0.244,0.366,382.809
108835,136201,8446,0.052,-0.958,-0.024,0.244,0.244,0.366,382.815
108868,136088,18577,0.049,-0.958,-0.025,0,0.183,0.305,382.819
108868,136185,8443,0.048,-0.958,-0.022,0,0.183,0.305,382.825
108870,136344,18577,0.051,-0.951,-0.022,-0.122,0.061,0.244,382.829
108870,136199,8438,0.053,-0.951,-0.017,-0.122,0.061,0.244,382.835
108854,136344,18577,0.053,-0.957,-0.012,-0.488,0.244,0.305,382.839
108854,136200,8439,0.053,-0.958,-0.015,-0.488,0.244,0.305,382.845
108869,136088,18577,0.054,-0.965,-0.011,-0.915,0.366,0.305,382.849
108869,136174,8438,0.055,-0.968,-0.013,-0.915,0.366,0.305,382.855
108843,136088,18577,0.054,-0.965,-0.017,-0.976,0.183,0.488,382.859
108843,136178,8454,0.057,-0.971,-0.014,-0.976,0.183,0.488,382.865
108860,136088,18577,0.054,-0.974,-0.011,-0.366,0.061,0.61,382.868
108860,136176,8443,0.053,-0.972,-0.016,-0.366,0.061,0.61,382.875
108859,136344,18577,0.052,-0.969,-0.023,0.122,0.183,0.488,382.878
108859,136195,8446,0.052,-0.969,-0.027,0.122,0.183,0.488,382.885
108858,136088,18577,0.049,-0.97,-0.026,0.122,0.244,0.244,382.888
108858,136190,8439,0.05,-0.971,-0.025,0.122,0.244,0.244,382.894
108866,136344,18577,0.055,-0.963,-0.027,0.061,0.366,0.061,382.898
108866,136210,8441,0.051,-0.963,-0.023,0.061,0.366,0.061,382.904
108870,136344,18577,0.051,-0.959,-0.028,0,0.488,0.061,382.908
108870,136201,8450,0.049,-0.96,-0.021,0,0.488,0.061,382.914
108889,136344,18577,0.049,-0.959,-0.019,0.061,0.549,0.061,382.918
108889,136203,8435,0.052,-0.952,-0.014,0.061,0.549,0.061,382.924
108865,136344,18577,0.053,-0.949,-0.016,-0.122,0.488,0.122,382.928
108865,136202,8436,0.057,-0.955,-0.015,-0.122,0.488,0.122,382.934
108850,136088,18577,0.054,-0.953,-0.016,-0.366,0.183,0.305,382.938
108850,136188,8439,0.053,-0.952,-0.02,-0.366,0.183,0.305,382.944
108836,136344,18577,0.057,-0.958,-0.02,-0.793,0.061,0.488,382.948
108836,136195,8447,0.056,-0.967,-0.023,-0.793,0.061,0.488,382.954
108854,136088,18577,0.056,-0.973,-0.02,-0.671,0.305,0.488,382.958
108854,136145,8436,0.055,-0.974,-0.018,-0.671,0.305,0.488,382.964
108829,136344,18577,0.057,-0.97,-0.019,-0.305,0.549,0.549,382.967
108829,136198,8428,0.057,-0.971,-0.019,-0.305,0.549,0.549,382.974
108832,136088,18577,0.055,-0.972,-0.017,0,0.671,0.427,382.977
108832,136167,8442,0.052,-0.974,-0.019,0,0.671,0.427,382.983
108833,136088,18577,0.056,-0.965,-0.014,0.305,0.61,0.427,382.987
108833,136150,8420,0.053,-0.958,-0.018,0.305,0.61,0.427,382.993
108806,136088,18577,0.046,-0.957,-0.025,0.366,0.549,0.427,382.997
108806,136140,8445,0.045,-0.963,-0.025,0.366,0.549,0.427,383.003
108815,136088,18577,0.05,-0.957,-0.029,0.061,0.366,0.244,383.007
108815,136149,8427,0.055,-0.954,-0.028,0.061,0.366,0.244,383.013
108802,136088,18577,0.052,-0.962,-0.021,0,0.061,0.122,383.017
108802,136130,8434,0.049,-0.963,-0.019,0,0.061,0.122,383.023
108821,136088,18577,0.05,-0.956,-0.021,-0.061,0.183,0.122,383.027
108821,136137,8432,0.052,-0.961,-0.021,-0.061,0.183,0.122,383.033
108839,136088,18577,0.054,-0.963,-0.018,-0.366,0.244,0.061,383.037
108839,136158,8443,0.059,-0.962,-0.01,-0.366,0.244,0.061,383.043
108820,136088,18577,0.054,-0.965,-0.005,-0.488,0.305,0.183,383.047
108820,136152,8452,0.054,-0.962,-0.015,-0.488,0.305,0.183,383.053
108832,136088,18577,0.053,-0.964,-0.021,-0.915,0.244,0.366,383.057
108832,136167,8443,0.053,-0.973,-0.02,-0.915,0.244,0.366,383.063
