109160,137368,18577,0.068,-0.962,0.089,-0.122,0.366,0.427,625.412
109160,137408,8441,0.067,-0.963,0.093,-0.305,0.427,0.305,625.418
109122,137368,18577,0.067,-0.963,0.093,-0.305,0.427,0.305,625.422
109122,137390,8430,0.07,-0.969,0.09,-0.305,0.427,0.122,625.428
109108,137368,18577,0.07,-0.969,0.09,-0.305,0.427,0.122,625.432
109108,137379,8424,0.069,-0.959,0.092,0.122,0.549,0.061,625.438
109111,137368,18577,0.069,-0.959,0.092,0.122,0.549,0.061,625.442
109111,137399,8441,0.064,-0.956,0.089,0.122,0.549,0.183,625.448
109108,137368,18577,0.064,-0.956,0.089,0.122,0.549,0.183,625.452
109108,137376,8444,0.068,-0.957,0.089,0,0.427,0,625.458
109133,137368,18577,0.068,-0.957,0.089,0,0.427,0,625.462
109133,137393,8441,0.065,-0.957,0.094,-0.061,0.366,0.122,625.468
109104,137368,18577,0.065,-0.957,0.094,-0.061,0.366,0.122,625.471
109104,137403,8437,0.063,-0.954,0.092,-0.061,0.305,0.122,625.478
109126,137368,18577,0.063,-0.954,0.092,-0.061,0.305,0.122,625.481
109126,137391,8424,0.066,-0.952,0.096,-0.061,0.305,0.122,625.487
109111,137368,18577,0.064,-0.96,0.094,-0.061,0.427,0.366,625.491
109111,137367,8430,0.066,-0.96,0.092,-0.061,0.427,0.366,625.497
109112,137368,18577,0.069,-0.963,0.088,-0.122,0.183,0.427,625.501
109112,137388,8431,0.07,-0.964,0.096,-0.122,0.183,0.427,625.507
109116,137368,18577,0.072,-0.962,0.098,-0.244,0,0.427,625.511
109116,137393,8440,0.073,-0.964,0.093,-0.244,0,0.427,625.517
109097,137368,18577,0.069,-0.968,0.094,-0.305,0.061,0.305,625.521
109097,137393,8443,0.07,-0.968,0.093,-0.305,0.061,0.305,625.527
109117,137368,18577,0.069,-0.966,0.089,-0.183,0.366,0.122,625.531
109117,137402,8417,0.068,-0.964,0.09,-0.183,0.366,0.122,625.537
109127,137368,18577,0.068,-0.959,0.088,-0.244,0.244,0.122,625.541
109127,137398,8429,0.072,-0.957,0.085,-0.244,0.244,0.122,625.547
109124,137368,18577,0.073,-0.959,0.08,-0.122,0.183,0.122,625.551
109124,137401,8420,0.068,-0.963,0.085,-0.122,0.183,0.122,625.557
109144,137368,18577,0.066,-0.961,0.088,-0.183,0.488,0,625.561
109144,137403,8428,0.067,-0.961,0.087,-0.183,0.488,0,625.567
109133,137368,18577,0.067,-0.962,0.089,-0.366,0.488,0,625.57
109133,137416,8437,0.071,-0.963,0.089,-0.366,0.488,0,625.577
109144,137368,18577,0.069,-0.959,0.089,-0.122,0.488,0.122,625.58
109144,137403,8427,0.069,-0.953,0.092,-0.122,0.488,0.122,625.587
109151,137368,18577,0.068,-0.949,0.092,0.305,0.671,0.305,625.59
109151,137431,8423,0.066,-0.953,0.097,0.305,0.671,0.305,625.596
109153,137368,18577,0.066,-0.955,0.096,0.244,0.61,0.488,625.6
109153,137414,8424,0.069,-0.958,0.092,0.244,0.61,0.488,625.606
109170,137368,18577,0.073,-0.96,0.094,-0.122,0.366,0.549,625.61
109170,137423,8434,0.066,-0.958,0.092,-0.122,0.366,0.549,625.616
109164,137368,18577,0.065,-0.96,0.088,0.122,0.61,0.61,625.62
109164,137416,8434,0.062,-0.963,0.091,0.122,0.61,0.61,625.626
109174,137368,18577,0.065,-0.962,0.092,0.244,0.61,0.427,625.63
109174,137447,8442,0.069,-0.96,0.09,0.244,0.61,0.427,625.636
109174,137368,18577,0.069,-0.963,0.091,-0.366,0.427,0.427,625.64
109174,137409,8427,0.071,-0.967,0.092,-0.366,0.427,0.427,625.646
109143,137368,18577,0.067,-0.964,0.094,-0.305,0.61,0.244,625.65
109143,137396,8450,0.064,-0.958,0.091,-0.305,0.61,0.244,625.656
109139,137368,18577,0.063,-0.961,0.091,-0.244,0.671,0.305,625.66
109139,137421,8438,0.065,-0.964,0.094,-0.244,0.671,0.305,625.666
109123,137368,18577,0.069,-0.965,0.093,0,0.488,0.183,625.669
109123,137402,8427,0.072,-0.962,0.094,0,0.488,0.183,625.676
109148,137368,18577,0.069,-0.957,0.091,0.61,0.488,0.305,625.679
109148,137410,8427,0.066,-0.952,0.089,0.61,0.488,0.305,625.686
109133,137368,18577,0.066,-0.95,0.088,0.793,0.671,0.366,625.689
109133,137389,8438,0.066,-0.951,0.088,0.793,0.671,0.366,625.695
109127,137368,18577,0.067,-0.954,0.091,0.305,0.488,0.244,625.699
109127,137399,8428,0.066,-0.96,0.093,0.305,0.488,0.244,625.705
109144,137368,18577,0.066,-0.965,0.087,-0.305,0.427,0.122,625.709
109144,137410,8434,0.069,-0.964,0.09,-0.305,0.427,0.122,625.715
109152,137368,18577,0.07,-0.966,0.09,-0.549,0.61,0.061,625.719
109152,137422,8422,0.068,-0.964,0.09,-0.549,0.61,0.061,625.725
109138,137368,18577,0.069,-0.962,0.092,-0.061,0.549,0.061,625.729
109138,137402,8435,0.063,-0.96,0.096,-0.061,0.549,0.061,625.735
109143,137368,18577,0.064,-0.957,0.096,0,0.61,0.122,625.739
109143,137407,8434,0.068,-0.958,0.099,0,0.61,0.122,625.745
109156,137368,18577,0.067,-0.958,0.102,-0.122,0.366,0.122,625.749
109156,137378,8440,0.066,-0.958,0.093,-0.122,0.366,0.122,625.755
109141,137368,18577,0.068,-0.956,0.088,0,0.427,0.183,625.759
109141,137370,8423,0.065,-0.956,0.094,0,0.427,0.183,625.765
109117,137368,18577,0.065,-0.952,0.091,0.183,0.305,0.427,625.768
109117,137379,8442,0.071,-0.95,0.094,0.183,0.305,0.427,625.775
109163,137368,18577,0.073,-0.955,0.086,0.061,0.305,0.366,625.778
109163,137404,8413,0.068,-0.959,0.085,0.061,0.305,0.366,625.785
109156,137368,18577,0.064,-0.966,0.091,-0.366,0.488,0.366,625.788
109156,137390,8434,0.064,-0.967,0.093,-0.366,0.488,0.366,625.794
109159,137368,18577,0.07,-0.964,0.087,-0.61,0.366,0.305,625.798
109159,137401,8427,0.073,-0.96,0.088,-0.61,0.366,0.305,625.804
109155,137368,18577,0.07,-0.962,0.087,-0.427,0.549,0.549,625.808
109155,137393,8447,0.066,-0.96,0.093,-0.427,0.549,0.549,625.814
109160,137368,18577,0.067,-0.958,0.095,-0.305,0.732,0.488,625.818
109160,137375,8424,0.069,-0.956,0.096,-0.305,0.732,0.488,625.824
109167,137368,18577,0.071,-0.959,0.096,-0.549,0.61,0.366,625.828
109167,137401,8435,0.069,-0.964,0.095,-0.549,0.61,0.366,625.834
109166,137368,18577,0.069,-0.961,0.096,-0.427,0.732,0.305,625.838
109166,137382,8422,0.067,-0.957,0.098,-0.427,0.732,0.305,625.844
109143,137368,18577,0.066,-0.959,0.094,-0.366,0.61,0.488,625.848
109143,137386,8428,0.066,-0.961,0.092,-0.366,0.61,0.488,625.854
109148,137368,18577,0.065,-0.959,0.093,0.122,0.549,0.488,625.858
109148,137410,8423,0.064,-0.957,0.093,0.122,0.549,0.488,625.864
109161,137368,18577,0.061,-0.954,0.09,0.061,0.549,0.488,625.867
109161,137383,8438,0.059,-0.956,0.092,0.061,0.549,0.488,625.874
109151,137368,18577,0.061,-0.96,0.089,-0.122,0.488,0.671,625.877
109151,137395,8438,0.064,-0.965,0.09,-0.122,0.488,0.671,625.884
109161,137368,18577,0.065,-0.964,0.089,-0.305,0.305,0.549,625.887
109161,137381,8439,0.069,-0.96,0.087,-0.305,0.305,0.549,625.893
109166,137368,18577,0.065,-0.962,0.092,0.061,0.305,0.549,625.897
109166,137378,8439,0.063,-0.963,0.097,0.061,0.305,0.549,625.903
109162,137368,18577,0.071,-0.962,0.097,0.305,0.305,0.305,625.907
109162,137385,8426,0.074,-0.959,0.094,0.305,0.305,0.305,625.913
109154,137368,18577,0.071,-0.96,0.092,0.061,0.305,0.183,625.917
109154,137388,8434,0.067,-0.964,0.093,0.061,0.305,0.183,625.923
109178,137368,18577,0.067,-0.964,0.093,0.061,0.305,0.183,625.927
109178,137387,8435,0.071,-0.964,0.093,-0.305,0.427,-0.183,625.933
109145,137368,18577,0.071,-0.964,0.093,-0.305,0.427,-0.183,625.937
109145,137395,8440,0.073,-0.966,0.09,-0.671,0.122,-0.244,625.943
109164,137368,18577,0.073,-0.966,0.09,-0.671,0.122,-0.244,625.947
109164,137389,8438,0.068,-0.962,0.09,-0.671,0.183,-0.244,625.953
109133,137368,18577,0.068,-0.962,0.09,-0.671,0.183,-0.244,625.957
109133,137382,8435,0.07,-0.957,0.086,-0.305,0.244,-0.183,625.963
109155,137368,18577,0.07,-0.957,0.086,-0.305,0.244,-0.183,625.966
109155,137404,8440,0.068,-0.953,0.089,-0.183,0.122,-0.122,625.973
109171,137368,18577,0.068,-0.953,0.089,-0.183,0.122,-0.122,625.976
109171,137372,8433,0.068,-0.948,0.091,0.061,0.122,0,625.983
109184,137368,18577,0.068,-0.948,0.091,0.061,0.122,0,625.986
109184,137421,8435,0.063,-0.954,0.089,0.122,0.305,0.183,625.992
109172,137368,18577,0.063,-0.954,0.089,0.122,0.305,0.183,625.996
109172,137383,8432,0.067,-0.963,0.087,-0.183,0.244,0.366,626.002
109180,137368,18577,0.067,-0.963,0.087,-0.183,0.244,0.366,626.006
109180,137410,8437,0.067,-0.961,0.094,0.061,0.244,0.488,626.012
109164,137368,18577,0.067,-0.961,0.094,0.061,0.244,0.488,626.016
109164,137378,8441,0.071,-0.959,0.088,0.488,0.427,0.732,626.022
109164,137368,18577,0.071,-0.959,0.088,0.488,0.427,0.732,626.026
109164,137384,8439,0.069,-0.962,0.09,0.671,0.427,0.549,626.032
109189,137368,18577,0.069,-0.962,0.09,0.671,0.427,0.549,626.036
109189,137432,8427,0.071,-0.959,0.089,0.671,0.549,0.61,626.042
109168,137368,18577,0.071,-0.959,0.089,0.671,0.549,0.61,626.046
109168,137401,8430,0.071,-0.956,0.089,0.549,0.549,0.854,626.052
109182,137368,18577,0.071,-0.956,0.089,0.549,0.549,0.854,626.056
109182,137428,8418,0.069,-0.966,0.091,0.244,0.793,0.793,626.062
109191,137368,18577,0.069,-0.966,0.091,0.244,0.793,0.793,626.065
109191,137405,8432,0.073,-0.962,0.092,-0.427,0.976,0.61,626.072
109186,137368,18577,0.075,-0.964,0.092,-0.427,0.976,0.61,626.075
109186,137415,8462,0.072,-0.962,0.089,-0.488,0.976,0.549,626.082
109174,137368,18577,0.071,-0.96,0.093,-0.488,0.976,0.549,626.085
109174,137397,8440,0.07,-0.962,0.092,-0.122,0.915,0.549,626.091
109171,137368,18577,0.071,-0.962,0.1,-0.122,0.915,0.549,626.095
109171,137430,8445,0.068,-0.958,0.1,0.244,0.854,0.732,626.101
109185,137368,18577,0.067,-0.952,0.099,0.244,0.854,0.732,626.105
109185,137408,8423,0.064,-0.957,0.097,-0.061,0.854,0.854,626.111
109172,137368,18577,0.063,-0.962,0.098,-0.061,0.854,0.854,626.115
109172,137414,8433,0.064,-0.964,0.099,-0.427,0.61,0.793,626.121
109174,137368,18577,0.069,-0.964,0.097,-0.427,0.61,0.793,626.125
109174,137438,8433,0.067,-0.958,0.094,-0.305,0.366,0.854,626.131
109164,137368,18577,0.063,-0.954,0.091,-0.305,0.366,0.854,626.135
109164,137419,8440,0.061,-0.954,0.092,0.305,0.732,0.854,626.141
109151,137368,18577,0.059,-0.954,0.092,0.305,0.732,0.854,626.145
109151,137426,8436,0.06,-0.954,0.089,0,0.488,0.671,626.151
109141,137368,18577,0.064,-0.96,0.092,0,0.488,0.671,626.155
109141,137411,8439,0.063,-0.964,0.092,-0.793,0.305,0.549,626.161
109131,137368,18577,0.064,-0.967,0.091,-0.793,0.305,0.549,626.164
109131,137369,8418,0.066,-0.968,0.091,-0.915,0.549,0.427,626.171
109084,137368,18577,0.064,-0.969,0.096,-0.915,0.549,0.427,626.174
109084,137340,8426,0.065,-0.97,0.096,-0.244,0.244,0.244,626.18
109091,137368,18577,0.068,-0.968,0.096,-0.244,0.244,0.244,626.184
109091,137336,8408,0.062,-0.963,0.093,0.061,0.427,0.183,626.19
109080,137368,18577,0.061,-0.962,0.097,0.061,0.427,0.183,626.194
109080,137374,8423,0.063,-0.966,0.099,-0.244,0.183,0.061,626.2
109098,137368,18577,0.066,-0.963,0.097,-0.244,0.183,0.061,626.204
109098,137344,8420,0.067,-0.959,0.094,0.244,0,-0.122,626.21
109081,137368,18577,0.068,-0.949,0.094,0.244,0,-0.122,626.214
109081,137334,8417,0.065,-0.948,0.097,0.427,0.183,0,626.22
109102,137368,18577,0.061,-0.951,0.099,0.427,0.183,0,626.224
109102,137359,8414,0.065,-0.954,0.095,-0.244,-0.122,0.122,626.23
109092,137368,18577,0.07,-0.956,0.09,-0.244,-0.122,0.122,626.234
109092,137349,8413,0.069,-0.958,0.085,-0.732,-0.244,0.061,626.24
109090,137368,18577,0.067,-0.963,0.088,-0.732,-0.244,0.061,626.244
109090,137360,8412,0.066,-0.961,0.088,-0.366,-0.061,0.183,626.25
109078,137368,18577,0.067,-0.957,0.084,-0.366,-0.061,0.183,626.254
109078,137384,8429,0.068,-0.955,0.087,0,0,0.366,626.26
109109,137368,18577,0.068,-0.957,0.087,0,0,0.366,626.263
109109,137377,8410,0.068,-0.961,0.084,-0.183,0.122,0.244,626.27
109089,137368,18577,0.069,-0.961,0.085,-0.183,0.122,0.244,626.273
109089,137344,8418,0.069,-0.962,0.09,-0.549,0.183,0.366,626.28
109073,137368,18577,0.068,-0.964,0.093,-0.549,0.183,0.366,626.283
109073,137374,8430,0.065,-0.964,0.098,-0.549,0.244,0.366,626.289
109053,137368,18577,0.07,-0.964,0.096,-0.549,0.244,0.366,626.293
109053,137332,8415,0.073,-0.965,0.099,-0.183,0.122,0.366,626.299
109053,137368,18577,0.069,-0.964,0.098,-0.183,0.122,0.366,626.303
109053,137325,8413,0.068,-0.958,0.098,0.671,-0.061,0.427,626.309
109042,137368,18577,0.069,-0.951,0.096,0.671,-0.061,0.427,626.313
109042,137356,8414,0.07,-0.953,0.095,0.732,-0.122,0.671,626.319
109058,137368,18577,0.071,-0.951,0.094,0.732,-0.122,0.671,626.323
109058,137332,8404,0.07,-0.954,0.09,0.427,-0.122,0.61,626.329
109073,137368,18577,0.069,-0.96,0.09,0.427,-0.122,0.61,626.333
109073,137393,8423,0.069,-0.964,0.086,0.122,0.122,0.671,626.339
109116,137368,18577,0.069,-0.959,0.083,0.122,0.122,0.671,626.343
109116,137380,8413,0.067,-0.956,0.087,0.183,0.244,0.854,626.349
109115,137368,18577,0.065,-0.954,0.09,0.183,0.244,0.854,626.353
109115,137398,8437,0.065,-0.956,0.09,-0.061,0.61,0.915,626.359
109142,137368,18577,0.068,-0.962,0.091,-0.061,0.61,0.915,626.362
109142,137397,8439,0.067,-0.966,0.091,-0.61,0.671,0.61,626.369
109121,137368,18577,0.065,-0.967,0.094,-0.61,0.671,0.61,626.372
109121,137388,8423,0.068,-0.971,0.094,-0.671,0.793,0.488,626.379
109110,137368,18577,0.069,-0.967,0.096,-0.671,0.793,0.488,626.382
109110,137391,8411,0.067,-0.959,0.095,0,0.732,0.366,626.388
109112,137368,18577,0.066,-0.955,0.098,0,0.732,0.366,626.392
109112,137369,8422,0.069,-0.954,0.096,0.122,0.671,0.305,626.398
109075,137368,18577,0.068,-0.955,0.093,0.122,0.671,0.305,626.402
109075,137368,8435,0.067,-0.957,0.091,-0.366,0.549,0.244,626.408
109094,137368,18577,0.067,-0.96,0.089,-0.366,0.549,0.244,626.412
109094,137356,8425,0.065,-0.961,0.085,-0.732,0.549,0.244,626.418
109086,137368,18577,0.065,-0.965,0.088,-0.732,0.549,0.244,626.422
109086,137368,8428,0.068,-0.963,0.089,-0.488,0.427,0.183,626.428
109094,137368,18577,0.067,-0.963,0.09,-0.488,0.427,0.183,626.432
109094,137375,8409,0.063,-0.964,0.095,-0.305,0.427,0.122,626.438
109085,137368,18577,0.064,-0.963,0.09,-0.305,0.427,0.122,626.442
109085,137390,8420,0.062,-0.959,0.092,0,0.488,0.122,626.448
109085,137368,18577,0.066,-0.955,0.092,0,0.488,0.122,626.452
109085,137366,8417,0.067,-0.951,0.092,0.244,0.549,0.122,626.458
109073,137368,18577,0.065,-0.953,0.093,0.244,0.549,0.122,626.461
109073,137366,8420,0.068,-0.956,0.093,-0.122,0.549,0.061,626.468
109073,137368,18577,0.067,-0.959,0.099,-0.122,0.549,0.061,626.471
109073,137363,8417,0.067,-0.958,0.096,-0.366,0.366,0.122,626.478
109072,137368,18577,0.069,-0.956,0.095,-0.366,0.366,0.122,626.481
109072,137366,8426,0.069,-0.961,0.098,-0.244,0.427,0.244,626.487
109072,137368,18577,0.07,-0.964,0.097,-0.244,0.427,0.244,626.491
109072,137330,8417,0.069,-0.96,0.096,-0.183,0.305,0.244,626.497
109054,137368,18577,0.068,-0.958,0.094,-0.183,0.305,0.244,626.501
109054,137329,8419,0.068,-0.962,0.096,-0.488,0.122,0.244,626.507
109070,137368,18577,0.069,-0.965,0.096,-0.488,0.122,0.244,626.511
109070,137357,8425,0.068,-0.965,0.092,-0.671,0.122,0.305,626.517
109071,137368,18577,0.068,-0.965,0.092,-0.671,0.122,0.305,626.521
109071,137375,8411,0.071,-0.961,0.092,-0.183,0.183,0.122,626.527
109074,137368,18577,0.071,-0.961,0.092,-0.183,0.183,0.122,626.531
109074,137380,8416,0.065,-0.957,0.092,0.122,0.366,0.244,626.537
109089,137368,18577,0.065,-0.957,0.092,0.122,0.366,0.244,626.541
109089,137380,8435,0.069,-0.959,0.094,-0.549,0.061,0.305,626.547
109099,137368,18577,0.069,-0.959,0.094,-0.549,0.061,0.305,626.551
109099,137385,8427,0.07,-0.957,0.089,-0.488,0.183,0.244,626.557
109082,137368,18577,0.07,-0.957,0.089,-0.488,0.183,0.244,626.56
109082,137359,8432,0.06,-0.954,0.091,-0.183,0.488,0.366,626.567
109085,137368,18577,0.06,-0.954,0.091,-0.183,0.488,0.366,626.57
109085,137343,8418,0.066,-0.959,0.091,-0.427,0.488,0.366,626.577
109049,137368,18577,0.066,-0.959,0.091,-0.427,0.488,0.366,626.58
109049,137346,8419,0.064,-0.964,0.095,-0.854,0.366,0.366,626.586
109058,137368,18577,0.064,-0.964,0.095,-0.854,0.366,0.366,626.59
109058,137332,8413,0.065,-0.965,0.098,-0.732,0.061,0.366,626.596
109060,137368,18577,0.065,-0.965,0.098,-0.732,0.061,0.366,626.6
109060,137346,8421,0.068,-0.954,0.092,0.183,0.122,0.305,626.606
109062,137368,18577,0.068,-0.954,0.092,0.183,0.122,0.305,626.61
109062,137351,8424,0.067,-0.953,0.094,0.854,0.183,0.549,626.616
109065,137368,18577,0.067,-0.953,0.094,0.854,0.183,0.549,626.62
109065,137361,8416,0.072,-0.951,0.088,0.61,0.122,0.61,626.626
109081,137368,18577,0.072,-0.951,0.088,0.61,0.122,0.61,626.63
109081,137374,8418,0.068,-0.952,0.085,0.244,0.183,0.793,626.636
109097,137368,18577,0.068,-0.952,0.085,0.244,0.183,0.793,626.64
109097,137359,8419,0.073,-0.958,0.088,0.122,0.366,0.915,626.646
109080,137368,18577,0.073,-0.958,0.088,0.122,0.366,0.915,626.65
109080,137364,8434,0.069,-0.96,0.084,-0.122,0.549,0.976,626.656
109095,137368,18577,0.069,-0.96,0.084,-0.122,0.549,0.976,626.659
109095,137376,8412,0.069,-0.963,0.087,-0.122,0.549,0.976,626.666
109108,137368,18577,0.067,-0.964,0.091,-0.488,0.671,0.854,626.669
109108,137368,8408,0.064,-0.965,0.094,-0.488,0.671,0.854,626.675
109098,137368,18577,0.069,-0.963,0.097,-0.793,0.549,0.732,626.679
109098,137382,8428,0.068,-0.961,0.094,-0.793,0.549,0.732,626.685
109105,137368,18577,0.067,-0.963,0.097,-0.61,0.671,0.61,626.689
109105,137366,8428,0.067,-0.963,0.103,-0.61,0.671,0.61,626.695
109131,137368,18577,0.064,-0.961,0.101,-0.122,0.732,0.366,626.699
109131,137380,8428,0.071,-0.961,0.098,-0.122,0.732,0.366,626.705
109141,137368,18577,0.072,-0.961,0.101,-0.122,0.488,0.427,626.709
109141,137386,8430,0.066,-0.96,0.099,-0.122,0.488,0.427,626.715
109111,137368,18577,0.066,-0.955,0.093,0,0.671,0.549,626.719
109111,137367,8438,0.063,-0.957,0.094,0,0.671,0.549,626.725
109142,137368,18577,0.064,-0.958,0.088,0,0.732,0.488,626.729
109142,137389,8433,0.067,-0.956,0.09,0,0.732,0.488,626.735
109140,137368,18577,0.067,-0.961,0.086,-0.488,0.549,0.427,626.739
109140,137396,8442,0.068,-0.962,0.08,-0.488,0.549,0.427,626.745
109143,137368,18577,0.068,-0.969,0.081,-0.793,0.549,0.488,626.749
109143,137409,8436,0.063,-0.969,0.09,-0.793,0.549,0.488,626.755
109162,137368,18577,0.065,-0.963,0.089,-0.488,0.732,0.427,626.758
109162,137408,8447,0.067,-0.962,0.089,-0.488,0.732,0.427,626.765
109157,137368,18577,0.066,-0.962,0.091,-0.549,0.61,0.305,626.768
109157,137417,8443,0.065,-0.962,0.091,-0.549,0.61,0.305,626.775
109165,137368,18577,0.066,-0.962,0.098,-0.915,0.671,0,626.778
109165,137414,8433,0.068,-0.963,0.096,-0.915,0.671,0,626.784
109149,137368,18577,0.071,-0.959,0.101,-0.61,0.427,-0.061,626.788
109149,137419,8432,0.068,-0.954,0.103,-0.61,0.427,-0.061,626.794
109151,137368,18577,0.066,-0.953,0.1,-0.122,0.366,0.183,626.798
109151,137393,8431,0.069,-0.952,0.101,-0.122,0.366,0.183,626.804
109124,137368,18577,0.065,-0.946,0.104,-0.183,0.122,0.244,626.808
109124,137385,8444,0.063,-0.951,0.1,-0.183,0.122,0.244,626.814
109116,137368,18577,0.064,-0.955,0.092,-0.366,-0.183,0.549,626.818
109116,137383,8415,0.065,-0.958,0.09,-0.366,-0.183,0.549,626.824
109112,137368,18577,0.066,-0.959,0.085,-0.305,-0.183,0.61,626.828
109112,137389,8442,0.064,-0.959,0.085,-0.305,-0.183,0.61,626.834
109134,137368,18577,0.063,-0.961,0.088,-0.061,0.122,0.671,626.838
109134,137397,8440,0.067,-0.96,0.085,-0.061,0.122,0.671,626.844
109131,137368,18577,0.068,-0.961,0.083,-0.366,0.183,0.549,626.848
109131,137424,8441,0.067,-0.963,0.085,-0.366,0.183,0.549,626.854
109164,137368,18577,0.064,-0.97,0.087,-0.732,0.549,0.488,626.857
109164,137409,8425,0.067,-0.972,0.089,-0.732,0.549,0.488,626.864
109141,137368,18577,0.07,-0.964,0.087,-0.61,0.61,0.183,626.867
109141,137420,8443,0.071,-0.964,0.093,-0.61,0.61,0.183,626.873
109170,137368,18577,0.066,-0.967,0.091,-0.183,0.488,0.122,626.877
109170,137420,8445,0.068,-0.96,0.088,-0.183,0.488,0.122,626.883
109156,137368,18577,0.069,-0.958,0.086,0.305,0.549,0.122,626.887
109156,137426,8432,0.071,-0.952,0.093,0.305,0.549,0.122,626.893
109178,137368,18577,0.073,-0.944,0.09,0.854,0.366,0.244,626.897
109178,137441,8443,0.074,-0.946,0.086,0.854,0.366,0.244,626.903
109168,137368,18577,0.066,-0.947,0.088,0.366,0.549,0.488,626.907
109168,137461,8457,0.067,-0.955,0.086,0.366,0.549,0.488,626.913
109180,137368,18577,0.072,-0.958,0.086,-0.183,0.549,0.732,626.917
109180,137457,8436,0.071,-0.96,0.093,-0.183,0.549,0.732,626.923
109202,137624,18577,0.069,-0.958,0.095,-0.183,0.488,0.915,626.927
109202,137490,8458,0.068,-0.962,0.09,-0.183,0.488,0.915,626.933
109222,137624,18577,0.07,-0.962,0.093,-0.183,0.671,0.854,626.937
109222,137500,8436,0.066,-0.962,0.093,-0.183,0.671,0.854,626.943
109246,137624,18577,0.07,-0.961,0.095,-0.732,0.732,0.732,626.947
109246,137505,8458,0.07,-0.97,0.098,-0.732,0.732,0.732,626.953
109243,137624,18577,0.067,-0.97,0.097,-0.488,0.549,0.61,626.956
109243,137516,8461,0.064,-0.965,0.095,-0.488,0.549,0.61,626.963
109258,137624,18577,0.065,-0.961,0.091,0.122,0.61,0.61,626.966
109258,137531,8464,0.067,-0.957,0.097,0.122,0.61,0.61,626.973
109255,137624,18577,0.064,-0.955,0.096,0.366,0.549,0.549,626.976
109255,137499,8462,0.061,-0.953,0.095,0.366,0.549,0.549,626.982
109244,137624,18577,0.061,-0.955,0.089,-0.061,0.427,0.61,626.986
109244,137497,8469,0.063,-0.955,0.087,-0.061,0.427,0.61,626.992
109222,137624,18577,0.066,-0.957,0.086,-0.366,0.366,0.549,626.996
109222,137497,8450,0.065,-0.958,0.088,-0.366,0.366,0.549,627.002
109217,137624,18577,0.066,-0.958,0.089,-0.122,0.427,0.488,627.006
109217,137486,8452,0.066,-0.954,0.091,-0.122,0.427,0.488,627.012
109200,137368,18577,0.062,-0.954,0.093,-0.366,0.427,0.732,627.016
109200,137466,8466,0.062,-0.961,0.088,-0.366,0.427,0.732,627.022
109218,137624,18577,0.063,-0.965,0.091,-0.793,0.366,0.732,627.026
109218,137473,8455,0.067,-0.967,0.095,-0.793,0.366,0.732,627.032
109211,137624,18577,0.068,-0.97,0.096,-1.098,0.183,0.549,627.036
109211,137487,8443,0.067,-0.971,0.094,-1.098,0.183,0.549,627.042
109230,137368,18577,0.063,-0.966,0.101,-0.549,0.305,0.305,627.046
109230,137453,8448,0.064,-0.966,0.099,-0.549,0.305,0.305,627.052
109216,137368,18577,0.065,-0.962,0.094,-0.122,0.244,0.183,627.055
109216,137468,8454,0.067,-0.958,0.093,-0.122,0.244,0.183,627.062
109239,137624,18577,0.063,-0.96,0.095,-0.427,0,0.122,627.065
109239,137479,8450,0.063,-0.965,0.094,-0.427,0,0.122,627.071
109223,137368,18577,0.066,-0.964,0.092,-0.549,0,0.061,627.075
109223,137470,8433,0.064,-0.952,0.091,-0.549,0,0.061,627.081
109198,137624,18577,0.064,-0.957,0.093,-0.305,-0.061,0,627.085
109198,137482,8458,0.061,-0.957,0.095,-0.305,-0.061,0,627.091
109213,137624,18577,0.063,-0.958,0.092,-0.427,-0.244,-0.061,627.095
109213,137473,8429,0.064,-0.956,0.091,-0.427,-0.244,-0.061,627.101
109221,137624,18577,0.064,-0.956,0.091,-0.427,-0.244,-0.061,627.105
109221,137483,8447,0.065,-0.958,0.091,-0.915,-0.183,0.122,627.111
109211,137624,18577,0.065,-0.958,0.091,-0.915,-0.183,0.122,627.115
109211,137494,8435,0.065,-0.96,0.096,-0.732,-0.183,0.244,627.121
109218,137624,18577,0.065,-0.96,0.096,-0.732,-0.183,0.244,627.125
109218,137498,8429,0.067,-0.963,0.09,-0.793,-0.183,0.061,627.131
109228,137624,18577,0.067,-0.963,0.09,-0.793,-0.183,0.061,627.135
109228,137487,8440,0.073,-0.962,0.086,-0.732,0,0.061,627.141
109217,137624,18577,0.073,-0.962,0.086,-0.732,0,0.061,627.145
109217,137482,8426,0.07,-0.962,0.091,-0.427,0.061,0,627.151
109231,137624,18577,0.07,-0.962,0.091,-0.427,0.061,0,627.154
109231,137478,8440,0.071,-0.963,0.089,0,0.122,-0.122,627.161
109224,137368,18577,0.071,-0.963,0.089,0,0.122,-0.122,627.164
109224,137471,8442,0.068,-0.962,0.083,-0.244,0.183,-0.183,627.17
109232,137624,18577,0.068,-0.962,0.083,-0.244,0.183,-0.183,627.174
109232,137500,8442,0.071,-0.958,0.087,-0.305,0.366,-0.183,627.18
109235,137624,18577,0.071,-0.958,0.087,-0.305,0.366,-0.183,627.184
109235,137488,8442,0.069,-0.953,0.087,-0.183,0.427,-0.061,627.19
109247,137624,18577,0.069,-0.953,0.087,-0.183,0.427,-0.061,627.194
109247,137532,8452,0.071,-0.954,0.09,-0.305,0.427,0.061,627.2
109257,137624,18577,0.071,-0.954,0.09,-0.305,0.427,0.061,627.204
109257,137491,8455,0.064,-0.959,0.085,-0.549,0.427,0.244,627.21
109262,137624,18577,0.064,-0.959,0.085,-0.549,0.427,0.244,627.214
109262,137535,8442,0.068,-0.963,0.085,-0.488,0.427,0.366,627.22
109277,137624,18577,0.068,-0.963,0.085,-0.488,0.427,0.366,627.224
109277,137522,8437,0.068,-0.951,0.093,0.244,0.244,0.488,627.23
109277,137624,18577,0.068,-0.951,0.093,0.244,0.244,0.488,627.234
109277,137508,8449,0.062,-0.953,0.091,0.488,0.305,0.61,627.24
109274,137624,18577,0.062,-0.953,0.091,0.488,0.305,0.61,627.244
109274,137524,8455,0.062,-0.962,0.095,-0.183,0.366,0.61,627.25
109283,137624,18577,0.064,-0.964,0.094,-0.183,0.366,0.61,627.253
109283,137534,8450,0.068,-0.965,0.093,-0.366,0.061,0.488,627.26
109275,137624,18577,0.069,-0.96,0.095,-0.366,0.061,0.488,627.263
109275,137533,8448,0.066,-0.956,0.096,0.244,0.305,0.61,627.269
109293,137624,18577,0.067,-0.962,0.089,0.244,0.305,0.61,627.273
109293,137521,8444,0.068,-0.965,0.087,0.183,0.549,0.427,627.279
109279,137624,18577,0.065,-0.964,0.088,0.183,0.549,0.427,627.283
109279,137536,8452,0.073,-0.964,0.09,-0.244,0.244,0.366,627.289
109290,137624,18577,0.07,-0.964,0.085,-0.244,0.244,0.366,627.293
109290,137511,8458,0.069,-0.964,0.086,-0.244,0.366,0.183,627.299
109279,137624,18577,0.071,-0.962,0.086,-0.244,0.366,0.183,627.303
109279,137509,8447,0.07,-0.96,0.089,-0.183,0.488,0.183,627.309
109259,137624,18577,0.069,-0.957,0.093,-0.183,0.488,0.183,627.313
109259,137507,8461,0.07,-0.956,0.093,-0.305,0.305,0.183,627.319
109257,137624,18577,0.065,-0.959,0.094,-0.305,0.305,0.183,627.323
109257,137488,8436,0.066,-0.961,0.093,-0.366,0.305,0.183,627.329
109255,137368,18577,0.068,-0.959,0.092,-0.366,0.305,0.183,627.333
109255,137469,8440,0.069,-0.957,0.087,-0.244,0.305,0,627.339
109247,137624,18577,0.067,-0.96,0.087,-0.244,0.305,0,627.343
109247,137490,8439,0.065,-0.959,0.085,-0.183,0.366,0,627.349
109232,137624,18577,0.064,-0.957,0.082,-0.183,0.366,0,627.352
109232,137488,8435,0.067,-0.961,0.09,-0.183,0.244,0.061,627.359
109256,137624,18577,0.07,-0.964,0.09,-0.183,0.244,0.061,627.362
109256,137480,8462,0.072,-0.959,0.089,-0.427,0.183,-0.122,627.368
109254,137624,18577,0.067,-0.959,0.089,-0.427,0.183,-0.122,627.372
109254,137481,8440,0.066,-0.965,0.093,-0.61,0.427,-0.061,627.378
109263,137368,18577,0.067,-0.964,0.093,-0.61,0.427,-0.061,627.382
109263,137460,8442,0.069,-0.962,0.094,0,0.427,0,627.388
109254,137624,18577,0.071,-0.956,0.098,0,0.427,0,627.392
109254,137478,8450,0.07,-0.953,0.098,0.732,0.488,0.061,627.398
109226,137368,18577,0.066,-0.954,0.095,0.732,0.488,0.061,627.402
109226,137438,8448,0.067,-0.951,0.095,0.61,0.61,0.244,627.408
109228,137624,18577,0.066,-0.951,0.091,0.61,0.61,0.244,627.412
109228,137477,8438,0.07,-0.951,0.089,-0.305,0.305,0.366,627.418
109224,137368,18577,0.071,-0.958,0.088,-0.305,0.305,0.366,627.422
109224,137447,8436,0.068,-0.964,0.085,-0.549,0.366,0.305,627.428
109211,137368,18577,0.07,-0.963,0.085,-0.549,0.366,0.305,627.432
109211,137442,8447,0.067,-0.961,0.087,-0.183,0.427,0.427,627.438
109217,137368,18577,0.068,-0.963,0.083,-0.183,0.427,0.427,627.441
109217,137447,8441,0.066,-0.961,0.079,0,0.488,0.488,627.448
109185,137368,18577,0.068,-0.958,0.084,0,0.488,0.488,627.451
109185,137414,8434,0.072,-0.957,0.092,-0.244,0.427,0.427,627.458
109177,137368,18577,0.07,-0.957,0.092,-0.244,0.427,0.427,627.461
109177,137432,8435,0.07,-0.957,0.093,-0.061,0.488,0.488,627.467
109188,137368,18577,0.067,-0.957,0.094,-0.061,0.488,0.488,627.471
109188,137408,8433,0.066,-0.957,0.097,0.427,0.793,0.488,627.477
109133,137368,18577,0.066,-0.956,0.098,0.427,0.793,0.488,627.481
109133,137401,8433,0.068,-0.954,0.096,0.549,0.488,0.915,627.487
109150,137368,18577,0.067,-0.953,0.09,0.549,0.488,0.915,627.491
109150,137386,8424,0.068,-0.959,0.095,0.61,0.366,1.098,627.497
109134,137368,18577,0.067,-0.961,0.092,0.61,0.366,1.098,627.501
109134,137395,8427,0.066,-0.964,0.086,0.366,0.427,0.915,627.507
109120,137368,18577,0.067,-0.965,0.082,0.366,0.427,0.915,627.511
109120,137373,8429,0.066,-0.964,0.084,0.427,0.488,1.037,627.517
109098,137368,18577,0.065,-0.962,0.088,0.427,0.488,1.037,627.521
109098,137368,8424,0.064,-0.966,0.091,0,0.793,0.976,627.527
109084,137368,18577,0.069,-0.968,0.089,0,0.793,0.976,627.531
109084,137352,8416,0.067,-0.974,0.087,-0.488,0.732,0.549,627.537
109084,137368,18577,0.065,-0.977,0.087,-0.488,0.732,0.549,627.54
109084,137361,8437,0.064,-0.974,0.087,-0.488,0.915,0.122,627.547
109097,137368,18577,0.067,-0.971,0.092,-0.488,0.915,0.122,627.55
109097,137350,8432,0.07,-0.965,0.093,0.427,0.732,-0.061,627.557
109064,137368,18577,0.07,-0.955,0.095,0.427,0.732,-0.061,627.56
109064,137350,8427,0.068,-0.95,0.095,0.732,0.671,-0.061,627.566
109059,137368,18577,0.069,-0.953,0.096,0.732,0.671,-0.061,627.57
109059,137367,8426,0.071,-0.954,0.098,0.366,0.549,0,627.576
109081,137368,18577,0.068,-0.95,0.097,0.366,0.549,0,627.58
109081,137363,8431,0.069,-0.949,0.096,0,0.427,0.122,627.586
109088,137368,18577,0.068,-0.949,0.095,0,0.427,0.122,627.59
109088,137380,8435,0.063,-0.951,0.093,-0.183,0.366,0.305,627.596
109108,137368,18577,0.063,-0.956,0.094,-0.183,0.366,0.305,627.6
109108,137373,8418,0.064,-0.954,0.096,0.122,0.427,0.427,627.606
109086,137368,18577,0.066,-0.957,0.092,0.122,0.427,0.427,627.61
109086,137382,8427,0.067,-0.96,0.086,-0.061,0.366,0.61,627.616
109094,137368,18577,0.068,-0.96,0.09,-0.061,0.366,0.61,627.62
109094,137384,8435,0.064,-0.967,0.087,-0.061,0.549,0.61,627.626
109104,137368,18577,0.063,-0.967,0.089,-0.061,0.549,0.61,627.63
109104,137375,8418,0.062,-0.967,0.088,-0.061,0.61,0.549,627.636
109108,137368,18577,0.065,-0.969,0.089,-0.061,0.61,0.549,627.639
109108,137390,8423,0.065,-0.97,0.087,-0.244,0.549,0.366,627.646
109116,137368,18577,0.068,-0.969,0.088,-0.244,0.549,0.366,627.649
109116,137386,8437,0.067,-0.966,0.087,-0.183,0.61,0.244,627.656
109125,137368,18577,0.069,-0.969,0.09,-0.183,0.61,0.244,627.659
109125,137409,8423,0.069,-0.961,0.094,0.793,0.61,0.122,627.665
109132,137368,18577,0.07,-0.951,0.085,0.793,0.61,0.122,627.669
109132,137406,8420,0.065,-0.95,0.088,1.037,0.671,0.122,627.675
109153,137368,18577,0.065,-0.95,0.088,1.037,0.671,0.122,627.679
109153,137404,8436,0.068,-0.949,0.093,0.366,0.549,0.244,627.685
109144,137368,18577,0.068,-0.949,0.093,0.366,0.549,0.244,627.689
109144,137412,8438,0.074,-0.96,0.089,-0.488,0.488,0.244,627.695
109162,137368,18577,0.074,-0.96,0.089,-0.488,0.488,0.244,627.699
109162,137417,8455,0.067,-0.958,0.09,-0.183,0.732,0.549,627.705
109176,137368,18577,0.067,-0.958,0.09,-0.183,0.732,0.549,627.709
109176,137436,8434,0.069,-0.963,0.094,-0.183,0.732,0.488,627.715
109171,137368,18577,0.069,-0.963,0.094,-0.183,0.732,0.488,627.719
109171,137452,8447,0.07,-0.971,0.096,-0.305,0.732,0.305,627.725
109184,137368,18577,0.07,-0.971,0.096,-0.305,0.732,0.305,627.729
109184,137459,8439,0.063,-0.965,0.096,-0.183,0.854,0.366,627.735
109186,137368,18577,0.063,-0.965,0.096,-0.183,0.854,0.366,627.738
109186,137444,8445,0.066,-0.964,0.098,0.061,0.671,0.183,627.745
109173,137368,18577,0.066,-0.964,0.098,0.061,0.671,0.183,627.748
109173,137420,8445,0.065,-0.963,0.093,0.183,0.366,0.061,627.755
109166,137368,18577,0.065,-0.963,0.093,0.183,0.366,0.061,627.758
109166,137426,8462,0.065,-0.953,0.092,0.183,0.427,0.183,627.764
109170,137368,18577,0.065,-0.953,0.092,0.183,0.427,0.183,627.768
109170,137416,8426,0.066,-0.953,0.09,0.244,0.244,0.183,627.774
109142,137368,18577,0.066,-0.953,0.09,0.244,0.244,0.183,627.778
109142,137399,8444,0.068,-0.954,0.089,-0.183,0.183,0.183,627.784
109142,137368,18577,0.068,-0.954,0.089,-0.183,0.183,0.183,627.788
109142,137411,8434,0.067,-0.957,0.088,-0.732,0.366,0.183,627.794
109145,137368,18577,0.067,-0.957,0.088,-0.732,0.366,0.183,627.798
109145,137406,8444,0.069,-0.964,0.087,-0.671,0.305,0.244,627.804
109122,137368,18577,0.069,-0.964,0.087,-0.671,0.305,0.244,627.808
109122,137398,8440,0.068,-0.961,0.09,-0.488,0.305,0.183,627.814
109137,137368,18577,0.068,-0.961,0.09,-0.488,0.305,0.183,627.818
109137,137390,8429,0.069,-0.963,0.095,-0.488,0.305,0.183,627.824
109104,137368,18577,0.061,-0.964,0.102,0.061,0.61,0.244,627.828
109104,137407,8429,0.065,-0.961,0.103,0.061,0.61,0.244,627.834
109119,137368,18577,0.067,-0.964,0.101,-0.183,0.366,0.122,627.837
109119,137383,8439,0.069,-0.965,0.096,-0.183,0.366,0.122,627.844
109122,137368,18577,0.068,-0.964,0.099,-0.305,0.122,0.061,627.847
109122,137417,8433,0.064,-0.96,0.1,-0.305,0.122,0.061,627.854
109116,137368,18577,0.067,-0.959,0.097,0.427,0.061,0.122,627.857
109116,137381,8444,0.069,-0.956,0.092,0.427,0.061,0.122,627.863
109123,137368,18577,0.066,-0.951,0.086,0.427,0,0.122,627.867
109123,137388,8431,0.065,-0.95,0.092,0.427,0,0.122,627.873
109113,137368,18577,0.066,-0.952,0.093,0.061,0,0.122,627.877
109113,137374,8421,0.064,-0.957,0.086,0.061,0,0.122,627.883
109086,137368,18577,0.065,-0.96,0.075,-0.549,0,0.122,627.887
109086,137372,8425,0.067,-0.965,0.08,-0.549,0,0.122,627.893
109088,137368,18577,0.067,-0.964,0.087,-0.671,0.305,0,627.897
109088,137360,8425,0.067,-0.964,0.089,-0.671,0.305,0,627.903
109070,137368,18577,0.071,-0.959,0.086,-0.244,0.305,0.061,627.907
109070,137356,8431,0.072,-0.962,0.087,-0.244,0.305,0.061,627.913
109059,137368,18577,0.069,-0.961,0.092,0.061,0.61,0.122,627.917
109059,137334,8420,0.068,-0.953,0.096,0.061,0.61,0.122,627.923
109027,137368,18577,0.071,-0.957,0.1,-0.244,0.488,0.244,627.927
109027,137346,8417,0.076,-0.955,0.1,-0.244,0.488,0.244,627.933
109020,137368,18577,0.077,-0.956,0.097,-0.122,0.366,0.366,627.936
109020,137346,8415,0.072,-0.961,0.1,-0.122,0.366,0.366,627.943
109031,137368,18577,0.069,-0.959,0.096,0.244,0.427,0.488,627.946
109031,137355,8403,0.069,-0.955,0.093,0.244,0.427,0.488,627.953
109024,137368,18577,0.069,-0.954,0.087,0.061,0.244,0.549,627.956
109024,137348,8400,0.069,-0.958,0.086,0.061,0.244,0.549,627.962
109014,137368,18577,0.069,-0.966,0.086,-0.488,0.061,0.366,627.966
109014,137361,8405,0.067,-0.974,0.083,-0.488,0.061,0.366,627.972
109010,137368,18577,0.065,-0.974,0.081,-0.793,0.366,0.366,627.976
109010,137341,8402,0.066,-0.972,0.087,-0.793,0.366,0.366,627.982
108993,137368,18577,0.067,-0.965,0.091,-0.244,0.61,0.183,627.986
108993,137314,8395,0.069,-0.96,0.09,-0.244,0.61,0.183,627.992
108991,137368,18577,0.068,-0.956,0.09,0.183,0.488,0,627.996
108991,137325,8415,0.063,-0.954,0.088,0.183,0.488,0,628.002
108972,137368,18577,0.061,-0.958,0.09,0,0.488,0.061,628.006
108972,137309,8399,0.067,-0.959,0.098,0,0.488,0.061,628.012
108958,137368,18577,0.067,-0.952,0.097,0,0.305,0.122,628.016
108958,137320,8409,0.069,-0.95,0.095,0,0.305,0.122,628.022
108953,137368,18577,0.066,-0.953,0.095,-0.183,0.305,0.244,628.026
108953,137303,8391,0.068,-0.959,0.094,-0.183,0.305,0.244,628.032
108918,137368,18577,0.071,-0.961,0.089,-0.183,0.488,0.183,628.035
108918,137310,8397,0.071,-0.96,0.087,-0.183,0.488,0.183,628.042
108950,137368,18577,0.07,-0.963,0.092,-0.183,0.427,0.122,628.045
108950,137308,8388,0.069,-0.966,0.089,-0.183,0.427,0.122,628.052
108935,137368,18577,0.067,-0.964,0.085,0.061,0.488,0,628.055
108935,137317,8409,0.071,-0.964,0.086,0.061,0.488,0,628.061
108955,137368,18577,0.069,-0.967,0.088,-0.122,0.488,0.061,628.065
108955,137311,8407,0.065,-0.967,0.09,-0.122,0.488,0.061,628.071
108947,137368,18577,0.073,-0.968,0.09,-0.183,0.549,-0.122,628.075
108947,137304,8401,0.073,-0.966,0.095,-0.183,0.549,-0.122,628.081
108974,137368,18577,0.066,-0.96,0.092,0.244,0.61,-0.244,628.085
108974,137327,8418,0.067,-0.958,0.093,0.244,0.61,-0.244,628.091
108982,137368,18577,0.068,-0.953,0.093,0.549,0.488,-0.061,628.095
108982,137330,8402,0.07,-0.949,0.097,0.549,0.488,-0.061,628.101
109003,137368,18577,0.069,-0.951,0.098,0.366,0.244,0.061,628.105
109003,137349,8397,0.068,-0.952,0.095,0.366,0.244,0.061,628.111
108996,137368,18577,0.068,-0.951,0.091,0,0.366,0.244,628.115
108996,137351,8402,0.069,-0.953,0.085,0,0.366,0.244,628.121
108991,137368,18577,0.069,-0.955,0.086,-0.366,0.427,0.549,628.125
108991,137344,8418,0.068,-0.958,0.086,-0.366,0.427,0.549,628.131
109016,137368,18577,0.067,-0.962,0.091,-0.488,0.488,0.61,628.134
109016,137346,8407,0.068,-0.962,0.087,-0.488,0.488,0.61,628.141
109000,137368,18577,0.067,-0.963,0.09,-0.244,0.61,0.549,628.144
109000,137347,8416,0.067,-0.966,0.091,-0.244,0.61,0.549,628.151
109014,137368,18577,0.066,-0.968,0.095,-0.305,0.61,0.488,628.154
109014,137346,8404,0.069,-0.962,0.095,-0.305,0.61,0.488,628.16
109013,137368,18577,0.069,-0.964,0.094,0.061,0.549,0.488,628.164
109013,137357,8420,0.069,-0.959,0.093,0.061,0.549,0.488,628.17
109031,137368,18577,0.071,-0.959,0.092,0.488,0.549,0.427,628.174
109031,137393,8407,0.07,-0.96,0.098,0.488,0.549,0.427,628.18
109039,137368,18577,0.065,-0.957,0.093,0.305,0.427,0.427,628.184
109039,137382,8398,0.068,-0.954,0.088,0.305,0.427,0.427,628.19
109041,137368,18577,0.069,-0.953,0.084,-0.061,0.366,0.549,628.194
109041,137405,8409,0.069,-0.954,0.09,-0.061,0.366,0.549,628.2
109057,137368,18577,0.068,-0.959,0.091,-0.061,0.366,0.61,628.204
109057,137374,8425,0.07,-0.957,0.091,-0.061,0.366,0.61,628.21
109050,137368,18577,0.068,-0.958,0.086,-0.366,0.488,0.671,628.214
109050,137393,8419,0.066,-0.96,0.087,-0.366,0.488,0.671,628.22
109075,137368,18577,0.067,-0.963,0.088,-0.244,0.732,0.671,628.224
109075,137398,8409,0.069,-0.963,0.09,-0.244,0.732,0.671,628.23
109081,137368,18577,0.07,-0.963,0.095,-0.183,0.793,0.671,628.233
109081,137386,8435,0.07,-0.963,0.094,-0.183,0.793,0.671,628.24
109087,137368,18577,0.068,-0.961,0.092,-0.122,0.732,0.61,628.243
109087,137394,8422,0.066,-0.96,0.1,-0.122,0.732,0.61,628.25
109091,137368,18577,0.067,-0.962,0.102,-0.061,0.61,0.427,628.253
109091,137406,8436,0.073,-0.959,0.098,-0.061,0.61,0.427,628.259
109122,137368,18577,0.073,-0.959,0.098,-0.061,0.61,0.427,628.263
109122,137421,8423,0.069,-0.963,0.1,-0.305,0.549,0.305,628.269
109138,137368,18577,0.069,-0.963,0.1,-0.305,0.549,0.305,628.273
109138,137409,8423,0.072,-0.957,0.09,-0.183,0.61,0.122,628.279
109138,137368,18577,0.072,-0.957,0.09,-0.183,0.61,0.122,628.283
109138,137399,8425,0.061,-0.961,0.089,0.305,0.488,0.122,628.289
109131,137368,18577,0.061,-0.961,0.089,0.305,0.488,0.122,628.293
109131,137440,8428,0.069,-0.962,0.089,0.061,0.549,0.183,628.299
109134,137368,18577,0.069,-0.962,0.089,0.061,0.549,0.183,628.303
109134,137438,8428,0.068,-0.96,0.094,-0.488,0.305,0.061,628.309
109124,137368,18577,0.068,-0.96,0.094,-0.488,0.305,0.061,628.313
109124,137444,8419,0.063,-0.96,0.086,-0.61,0.549,0.122,628.319
109136,137368,18577,0.063,-0.96,0.086,-0.61,0.549,0.122,628.323
109136,137403,8435,0.069,-0.958,0.095,-0.366,0.61,0.183,628.329
109137,137368,18577,0.069,-0.958,0.095,-0.366,0.61,0.183,628.332
109137,137437,8432,0.066,-0.953,0.103,0.183,0.488,0.305,628.339
109126,137368,18577,0.066,-0.953,0.103,0.183,0.488,0.305,628.342
109126,137420,8438,0.064,-0.947,0.096,0.488,0.549,0.549,628.348
109110,137368,18577,0.064,-0.947,0.096,0.488,0.549,0.549,628.352
109110,137449,8427,0.065,-0.964,0.096,0,0.488,0.732,628.358
109124,137368,18577,0.065,-0.964,0.096,0,0.488,0.732,628.362
109124,137424,8440,0.068,-0.961,0.09,-0.366,0.183,0.976,628.368
109127,137368,18577,0.068,-0.961,0.09,-0.366,0.183,0.976,628.372
109127,137455,8439,0.069,-0.968,0.094,-0.244,0.366,0.976,628.378
109147,137368,18577,0.069,-0.968,0.094,-0.244,0.366,0.976,628.382
109147,137430,8432,0.07,-0.972,0.089,0.061,0.366,0.732,628.388
109156,137368,18577,0.07,-0.972,0.089,0.061,0.366,0.732,628.392
109156,137457,8431,0.068,-0.968,0.088,0,0.366,0.61,628.398
109183,137368,18577,0.068,-0.968,0.088,0,0.366,0.61,628.402
109183,137459,8438,0.066,-0.965,0.089,0.183,0.671,0.427,628.408
109193,137368,18577,0.067,-0.964,0.093,0.183,0.671,0.427,628.412
109193,137461,8440,0.069,-0.965,0.093,0.183,0.427,0.244,628.418
109176,137624,18577,0.069,-0.962,0.094,0.183,0.427,0.244,628.422
109176,137488,8442,0.072,-0.964,0.093,0.061,0.366,0.061,628.428
109194,137624,18577,0.07,-0.96,0.091,0.061,0.366,0.061,628.431
109194,137477,8450,0.068,-0.95,0.092,0.061,0.488,0.061,628.438
109178,137624,18577,0.066,-0.949,0.089,0.061,0.488,0.061,628.441
109178,137478,8457,0.07,-0.954,0.091,-0.488,0.427,0.122,628.448
109171,137368,18577,0.069,-0.957,0.091,-0.488,0.427,0.122,628.451
109171,137463,8444,0.068,-0.959,0.094,-0.976,0.305,0.122,628.457
109180,137368,18577,0.063,-0.957,0.092,-0.976,0.305,0.122,628.461
109180,137446,8449,0.064,-0.953,0.093,-0.854,0.305,0.122,628.467
109184,137368,18577,0.065,-0.956,0.093,-0.854,0.305,0.122,628.471
109184,137451,8437,0.069,-0.956,0.094,-0.671,0.305,0.305,628.477
109168,137368,18577,0.068,-0.956,0.097,-0.671,0.305,0.305,628.481
109168,137454,8452,0.069,-0.959,0.098,-0.915,0.427,0.488,628.487
109174,137624,18577,0.07,-0.963,0.091,-0.915,0.427,0.488,628.491
109174,137475,8450,0.069,-0.966,0.097,-0.793,0.366,0.244,628.497
109182,137368,18577,0.068,-0.967,0.092,-0.793,0.366,0.244,628.501
109182,137465,8449,0.065,-0.969,0.088,-0.244,0.549,0.244,628.507
109193,137368,18577,0.063,-0.969,0.094,-0.244,0.549,0.244,628.511
109193,137471,8454,0.066,-0.966,0.09,0.244,0.549,0.183,628.517
109181,137368,18577,0.069,-0.963,0.091,0.244,0.549,0.183,628.521
109181,137462,8456,0.068,-0.96,0.089,0.366,0.427,-0.061,628.527
109186,137624,18577,0.067,-0.961,0.08,0.366,0.427,-0.061,628.53
109186,137490,8459,0.062,-0.964,0.083,0.244,0.732,-0.122,628.537
109194,137368,18577,0.064,-0.964,0.084,0.244,0.732,-0.122,628.54
109194,137465,8451,0.065,-0.964,0.088,0.061,0.61,-0.305,628.547
109200,137624,18577,0.071,-0.96,0.088,0.061,0.61,-0.305,628.55
109200,137495,8452,0.072,-0.953,0.092,-0.061,0.549,-0.305,628.556
109217,137624,18577,0.067,-0.952,0.094,-0.061,0.549,-0.305,628.56
109217,137485,8461,0.066,-0.952,0.091,-0.122,0.732,-0.122,628.566
109249,137624,18577,0.067,-0.949,0.09,-0.122,0.732,-0.122,628.57
109249,137523,8445,0.072,-0.946,0.095,-0.244,0.671,0.122,628.576
109232,137624,18577,0.076,-0.944,0.099,-0.244,0.671,0.122,628.58
109232,137499,8454,0.076,-0.95,0.1,-0.305,0.549,0.427,628.586
109226,137624,18577,0.075,-0.955,0.104,-0.305,0.549,0.427,628.59
109226,137496,8443,0.076,-0.954,0.099,-0.183,0.61,0.61,628.596
109241,137624,18577,0.067,-0.959,0.093,-0.183,0.61,0.61,628.6
109241,137492,8467,0.064,-0.96,0.098,0.061,0.671,1.159,628.606
109213,137624,18577,0.066,-0.962,0.101,0.061,0.671,1.159,628.61
109213,137508,8458,0.067,-0.965,0.1,-0.061,0.366,1.22,628.616
109233,137624,18577,0.068,-0.969,0.1,-0.061,0.366,1.22,628.62
109233,137502,8450,0.065,-0.968,0.092,-0.244,0.244,0.976,628.626
109196,137624,18577,0.065,-0.968,0.088,-0.244,0.244,0.976,628.629
109196,137499,8461,0.062,-0.963,0.087,-0.244,0.427,0.732,628.636
109207,137624,18577,0.064,-0.962,0.09,-0.244,0.427,0.732,628.639
109207,137480,8457,0.063,-0.966,0.089,-0.183,0.244,0.671,628.646
109189,137624,18577,0.064,-0.96,0.087,-0.183,0.244,0.671,628.649
109189,137475,8449,0.065,-0.958,0.087,-0.488,0.244,0.488,628.655
109152,137368,18577,0.063,-0.961,0.085,-0.488,0.244,0.488,628.659
109152,137446,8447,0.07,-0.963,0.089,-0.488,0.183,0.427,628.665
109164,137368,18577,0.071,-0.962,0.091,-0.488,0.183,0.427,628.669
109164,137439,8426,0.073,-0.957,0.09,-0.244,0.244,0.488,628.675
109140,137368,18577,0.068,-0.952,0.094,-0.244,0.244,0.488,628.679
109140,137414,8443,0.068,-0.952,0.091,0,0.549,0.61,628.685
109157,137368,18577,0.071,-0.955,0.093,0,0.549,0.61,628.689
109157,137440,8437,0.069,-0.955,0.092,-0.244,0.671,0.793,628.695
109133,137368,18577,0.069,-0.961,0.091,-0.244,0.671,0.793,628.699
109133,137426,8424,0.068,-0.967,0.099,-0.671,0.366,0.732,628.705
109152,137368,18577,0.069,-0.968,0.102,-0.671,0.366,0.732,628.709
109152,137435,8436,0.068,-0.966,0.097,-0.061,0.122,0.671,628.715
109135,137368,18577,0.063,-0.964,0.099,-0.061,0.122,0.671,628.719
109135,137430,8439,0.064,-0.958,0.1,0.549,0.183,0.61,628.725
109137,137368,18577,0.064,-0.957,0.099,0.549,0.183,0.61,628.728
109137,137446,8446,0.062,-0.959,0.094,0.122,0.122,0.488,628.735
109130,137368,18577,0.067,-0.961,0.094,0.122,0.122,0.488,628.738
109130,137423,8426,0.067,-0.961,0.092,-0.549,0,0.244,628.745
109146,137368,18577,0.072,-0.959,0.093,-0.549,0,0.244,628.748
109146,137433,8446,0.071,-0.956,0.087,-0.427,-0.122,0.366,628.754
109158,137368,18577,0.066,-0.956,0.09,-0.427,-0.122,0.366,628.758
109158,137449,8428,0.062,-0.957,0.086,-0.305,0.122,0.488,628.764
109156,137368,18577,0.064,-0.957,0.089,-0.305,0.122,0.488,628.768
109156,137447,8443,0.069,-0.96,0.093,-0.671,0.061,0.488,628.774
109155,137368,18577,0.072,-0.96,0.089,-0.671,0.061,0.488,628.778
109155,137436,8448,0.072,-0.964,0.089,-0.854,0.183,0.488,628.784
109154,137368,18577,0.069,-0.964,0.09,-0.854,0.183,0.488,628.788
109154,137445,8440,0.067,-0.962,0.09,-0.366,0.244,0.427,628.794
109163,137368,18577,0.068,-0.964,0.089,-0.366,0.244,0.427,628.798
109163,137450,8454,0.07,-0.967,0.09,-0.549,0.244,0.366,628.804
109175,137368,18577,0.068,-0.97,0.089,-0.549,0.244,0.366,628.808
109175,137453,8441,0.068,-0.97,0.093,-0.488,0.305,0.305,628.814
109185,137368,18577,0.071,-0.965,0.089,-0.488,0.305,0.305,628.818
109185,137463,8433,0.071,-0.965,0.086,-0.244,0.305,0.122,628.824
109215,137624,18577,0.068,-0.967,0.086,-0.244,0.305,0.122,628.827
109215,137487,8453,0.064,-0.966,0.091,0,0.366,0,628.834
109221,137624,18577,0.062,-0.961,0.091,0,0.366,0,628.837
109221,137488,8441,0.067,-0.951,0.091,0.366,0.488,0.183,628.844
109237,137624,18577,0.068,-0.945,0.088,0.366,0.488,0.183,628.847
109237,137489,8446,0.065,-0.947,0.089,0.427,0.427,0.488,628.853
109245,137624,18577,0.065,-0.947,0.089,0.427,0.427,0.488,628.857
109245,137509,8441,0.064,-0.952,0.091,0.183,0.427,0.61,628.863
109249,137624,18577,0.064,-0.952,0.091,0.183,0.427,0.61,628.867
109249,137543,8443,0.068,-0.954,0.094,-0.183,0.549,0.854,628.873
109255,137624,18577,0.068,-0.954,0.094,-0.183,0.549,0.854,628.877
109255,137522,8448,0.067,-0.961,0.095,0.061,0.61,1.037,628.883
109232,137624,18577,0.067,-0.961,0.095,0.061,0.61,1.037,628.887
109232,137518,8448,0.066,-0.961,0.094,-0.244,0.488,1.22,628.893
109225,137624,18577,0.066,-0.961,0.094,-0.244,0.488,1.22,628.897
109225,137507,8433,0.07,-0.967,0.098,-0.366,0.427,1.22,628.903
109218,137624,18577,0.07,-0.967,0.098,-0.366,0.427,1.22,628.907
109218,137473,8442,0.07,-0.967,0.094,-0.183,0.427,0.976,628.913
109210,137624,18577,0.07,-0.967,0.094,-0.183,0.427,0.976,628.917
109210,137500,8441,0.071,-0.963,0.09,0,0.183,0.976,628.923
109211,137624,18577,0.071,-0.963,0.09,0,0.183,0.976,628.926
109211,137504,8426,0.068,-0.969,0.092,-0.061,0.183,0.732,628.933
109193,137624,18577,0.068,-0.969,0.092,-0.061,0.183,0.732,628.936
109193,137480,8444,0.068,-0.962,0.084,-0.244,0.488,0.488,628.943
109208,137624,18577,0.068,-0.962,0.084,-0.244,0.488,0.488,628.946
109208,137491,8455,0.066,-0.958,0.089,-0.122,0.671,0.183,628.952
109234,137624,18577,0.066,-0.958,0.089,-0.122,0.671,0.183,628.956
109234,137496,8444,0.063,-0.961,0.086,-0.366,0.732,0.183,628.962
109231,137624,18577,0.063,-0.961,0.086,-0.366,0.732,0.183,628.966
109231,137494,8437,0.067,-0.956,0.086,-0.427,0.61,0.061,628.972
109212,137624,18577,0.067,-0.956,0.086,-0.427,0.61,0.061,628.976
109212,137503,8448,0.066,-0.952,0.092,-0.183,0.732,0.183,628.982
109223,137624,18577,0.066,-0.952,0.092,-0.183,0.732,0.183,628.986
109223,137483,8442,0.06,-0.956,0.095,-0.427,0.732,0.366,628.992
109215,137624,18577,0.06,-0.956,0.095,-0.427,0.732,0.366,628.996
109215,137486,8438,0.061,-0.96,0.104,-0.427,0.732,0.366,629.002
109222,137624,18577,0.068,-0.964,0.106,-0.732,0.488,0.427,629.006
109222,137476,8452,0.068,-0.969,0.101,-0.732,0.488,0.427,629.012
109210,137368,18577,0.071,-0.969,0.101,-0.305,0.366,0.427,629.016
109210,137455,8436,0.064,-0.965,0.098,-0.305,0.366,0.427,629.022
109206,137624,18577,0.061,-0.962,0.098,0.732,0.732,0.61,629.025
109206,137483,8440,0.062,-0.96,0.099,0.732,0.732,0.61,629.032
109191,137368,18577,0.065,-0.957,0.095,0.183,0.366,0.427,629.035
109191,137450,8440,0.067,-0.96,0.091,0.183,0.366,0.427,629.042
109219,137624,18577,0.069,-0.963,0.087,-0.732,0.183,0.244,629.045
109219,137472,8436,0.066,-0.964,0.089,-0.732,0.183,0.244,629.051
109183,137368,18577,0.064,-0.966,0.089,-0.793,0.549,-0.061,629.055
109183,137460,8459,0.064,-0.965,0.089,-0.793,0.549,-0.061,629.061
109193,137368,18577,0.065,-0.965,0.09,-0.671,0.366,-0.061,629.065
109193,137444,8442,0.065,-0.962,0.089,-0.671,0.366,-0.061,629.071
109202,137368,18577,0.067,-0.958,0.092,-0.61,0.183,-0.122,629.075
109202,137444,8447,0.068,-0.959,0.092,-0.61,0.183,-0.122,629.081
109176,137368,18577,0.067,-0.96,0.093,-0.549,0.183,-0.122,629.085
109176,137440,8453,0.069,-0.957,0.095,-0.549,0.183,-0.122,629.091
109191,137368,18577,0.068,-0.955,0.094,-0.122,0.183,-0.122,629.095
109191,137439,8443,0.066,-0.953,0.091,-0.122,0.183,-0.122,629.101
109204,137368,18577,0.064,-0.955,0.091,0.061,0.305,0.183,629.105
109204,137431,8460,0.067,-0.957,0.089,0.061,0.305,0.183,629.111
109199,137368,18577,0.07,-0.959,0.093,0.122,0.244,0.061,629.115
109199,137440,8433,0.068,-0.958,0.094,0.122,0.244,0.061,629.121
109178,137368,18577,0.068,-0.956,0.092,0.061,0.122,0.183,629.124
109178,137445,8455,0.069,-0.957,0.091,0.061,0.122,0.183,629.131
109187,137368,18577,0.067,-0.962,0.092,-0.122,0.244,0.366,629.134
109187,137452,8450,0.066,-0.958,0.089,-0.122,0.244,0.366,629.141
109194,137368,18577,0.065,-0.957,0.09,-0.488,0.244,0.427,629.144
109194,137434,8431,0.07,-0.955,0.096,-0.488,0.244,0.427,629.15
109195,137368,18577,0.069,-0.96,0.095,-0.854,0.122,0.549,629.154
109195,137445,8443,0.072,-0.961,0.094,-0.854,0.122,0.549,629.16
109179,137368,18577,0.067,-0.959,0.095,-0.732,0.122,0.427,629.164
109179,137421,8445,0.067,-0.96,0.095,-0.732,0.122,0.427,629.17
109187,137368,18577,0.068,-0.956,0.091,-0.305,0.061,0.671,629.174
109187,137445,8433,0.068,-0.952,0.089,-0.305,0.061,0.671,629.18
109162,137368,18577,0.067,-0.955,0.091,-0.305,0.122,0.671,629.184
109162,137401,8449,0.065,-0.96,0.093,-0.305,0.122,0.671,629.19
109175,137368,18577,0.068,-0.961,0.091,-0.671,0.122,0.61,629.194
109175,137421,8439,0.067,-0.964,0.085,-0.671,0.122,0.61,629.2
109152,137368,18577,0.065,-0.967,0.086,-0.61,0.244,0.488,629.204
109152,137419,8432,0.063,-0.965,0.088,-0.61,0.244,0.488,629.21
109142,137368,18577,0.066,-0.963,0.085,-0.183,0.427,0.549,629.214
109142,137448,8443,0.068,-0.964,0.086,-0.183,0.427,0.549,629.22
109151,137368,18577,0.07,-0.964,0.088,0.122,0.183,0.366,629.223
109151,137414,8439,0.066,-0.962,0.087,0.122,0.183,0.366,629.23
109144,137368,18577,0.066,-0.963,0.086,-0.122,0.305,0.305,629.233
109144,137446,8452,0.071,-0.964,0.09,-0.122,0.305,0.305,629.24
109183,137368,18577,0.07,-0.96,0.09,-0.122,0.122,0.244,629.243
109183,137437,8438,0.071,-0.958,0.091,-0.122,0.122,0.244,629.249
109164,137368,18577,0.07,-0.958,0.095,0,0.183,0.244,629.253
109164,137431,8445,0.067,-0.954,0.091,0,0.183,0.244,629.259
109179,137368,18577,0.069,-0.958,0.092,-0.366,0.305,0.122,629.263
109179,137446,8448,0.072,-0.958,0.093,-0.366,0.305,0.122,629.269
109165,137368,18577,0.069,-0.96,0.093,-0.854,0.183,0.244,629.273
109165,137416,8440,0.068,-0.963,0.092,-0.854,0.183,0.244,629.279
109170,137368,18577,0.065,-0.967,0.088,-1.28,0.244,0.183,629.283
109170,137426,8444,0.064,-0.97,0.093,-1.28,0.244,0.183,629.289
109155,137368,18577,0.066,-0.966,0.091,-1.037,0.183,0.122,629.293
109155,137392,8437,0.067,-0.964,0.089,-1.037,0.183,0.122,629.299
109185,137368,18577,0.069,-0.963,0.09,-0.183,0.122,0.122,629.303
109185,137439,8449,0.065,-0.961,0.084,-0.183,0.122,0.122,629.309
109178,137368,18577,0.066,-0.958,0.085,0.244,0.366,0.122,629.312
109178,137431,8449,0.068,-0.957,0.086,0.244,0.366,0.122,629.319
109177,137368,18577,0.067,-0.96,0.087,0,0.244,0,629.322
109177,137442,8457,0.067,-0.957,0.091,0,0.244,0,629.329
109205,137368,18577,0.072,-0.954,0.089,-0.122,0.305,0.122,629.332
109205,137449,8460,0.071,-0.955,0.087,-0.122,0.305,0.122,629.339
109194,137368,18577,0.067,-0.954,0.087,0.061,0.549,0.183,629.342
109194,137451,8451,0.065,-0.953,0.088,0.061,0.549,0.183,629.348
109195,137368,18577,0.065,-0.955,0.089,0.122,0.488,0.183,629.352
109195,137452,8461,0.068,-0.961,0.088,0.122,0.488,0.183,629.358
109195,137368,18577,0.071,-0.964,0.088,-0.061,0.488,0.183,629.362
109195,137441,8456,0.071,-0.962,0.083,-0.061,0.488,0.183,629.368
109206,137368,18577,0.072,-0.962,0.081,0.122,0.671,0.183,629.372
109206,137468,8459,0.068,-0.961,0.086,0.122,0.671,0.183,629.378
109204,137624,18577,0.069,-0.958,0.086,0.244,0.854,0.305,629.382
109204,137492,8458,0.07,-0.958,0.089,0.244,0.854,0.305,629.388
109219,137368,18577,0.07,-0.964,0.087,-0.061,0.671,0.366,629.392
109219,137464,8450,0.067,-0.968,0.088,-0.061,0.671,0.366,629.398
109199,137368,18577,0.069,-0.967,0.087,-0.305,0.793,0.183,629.402
109199,137459,8441,0.07,-0.964,0.093,-0.305,0.793,0.183,629.408
109221,137368,18577,0.067,-0.963,0.095,0.061,0.915,0.183,629.412
109221,137470,8462,0.067,-0.956,0.096,0.061,0.915,0.183,629.418
109218,137368,18577,0.067,-0.956,0.098,0.183,0.854,0.305,629.421
109218,137457,8453,0.067,-0.958,0.093,0.183,0.854,0.305,629.428
109192,137368,18577,0.067,-0.957,0.095,0.061,0.793,0.122,629.431
109192,137471,8466,0.067,-0.952,0.093,0.061,0.793,0.122,629.438
109208,137368,18577,0.067,-0.952,0.093,0.061,0.793,0.122,629.441
109208,137439,8446,0.071,-0.954,0.095,0.183,0.793,0.305,629.447
109186,137624,18577,0.071,-0.954,0.095,0.183,0.793,0.305,629.451
109186,137481,8459,0.067,-0.961,0.093,0.183,0.854,0.366,629.457
109187,137368,18577,0.067,-0.961,0.093,0.183,0.854,0.366,629.461
109187,137468,8459,0.068,-0.956,0.092,0.183,0.671,0.549,629.467
109180,137368,18577,0.068,-0.956,0.092,0.183,0.671,0.549,629.471
109180,137444,8457,0.064,-0.956,0.09,-0.122,0.427,0.732,629.477
109161,137368,18577,0.064,-0.956,0.09,-0.122,0.427,0.732,629.481
109161,137448,8453,0.061,-0.962,0.094,-0.366,0.549,0.671,629.487
109145,137368,18577,0.061,-0.962,0.094,-0.366,0.549,0.671,629.491
109145,137408,8451,0.067,-0.971,0.092,-0.61,0.305,0.61,629.497
109156,137368,18577,0.067,-0.971,0.092,-0.61,0.305,0.61,629.501
109156,137431,8442,0.064,-0.965,0.092,-0.488,0.305,0.488,629.507
109135,137368,18577,0.064,-0.965,0.092,-0.488,0.305,0.488,629.51
109135,137410,8457,0.074,-0.964,0.092,-0.183,0.549,0.366,629.517
109120,137368,18577,0.074,-0.964,0.092,-0.183,0.549,0.366,629.52
109120,137420,8450,0.066,-0.966,0.091,-0.244,0.366,0.244,629.527
109133,137368,18577,0.066,-0.966,0.091,-0.244,0.366,0.244,629.53
109133,137385,8437,0.066,-0.966,0.093,-0.305,0.488,0.122,629.536
109102,137368,18577,0.066,-0.966,0.093,-0.305,0.488,0.122,629.54
109102,137373,8437,0.063,-0.96,0.103,0,0.427,0.122,629.546
109103,137368,18577,0.063,-0.96,0.103,0,0.427,0.122,629.55
109103,137376,8448,0.063,-0.953,0.095,0.488,0.305,0.183,629.556
109092,137368,18577,0.063,-0.953,0.095,0.488,0.305,0.183,629.56
109092,137354,8435,0.064,-0.956,0.087,0,0.061,0.183,629.566
109080,137368,18577,0.064,-0.956,0.087,0,0.061,0.183,629.57
109080,137363,8451,0.064,-0.957,0.093,0.061,0.183,0.122,629.576
109085,137368,18577,0.064,-0.957,0.093,0.061,0.183,0.122,629.58
109085,137375,8448,0.065,-0.955,0.09,0.061,-0.061,0.183,629.586
109105,137368,18577,0.064,-0.95,0.091,0.061,-0.061,0.183,629.59
109105,137363,8438,0.066,-0.952,0.092,0,0,0.366,629.596
109083,137368,18577,0.066,-0.952,0.092,0,0,0.366,629.6
109083,137405,8440,0.068,-0.955,0.092,-0.183,0,0.549,629.606
109108,137368,18577,0.072,-0.959,0.09,-0.183,0,0.549,629.61
109108,137403,8439,0.072,-0.958,0.089,-0.427,0,0.61,629.616
109110,137368,18577,0.072,-0.965,0.087,-0.427,0,0.61,629.619
109110,137418,8438,0.07,-0.968,0.089,-0.549,0.244,0.671,629.626
109127,137368,18577,0.07,-0.966,0.087,-0.549,0.244,0.671,629.629
109127,137392,8438,0.072,-0.967,0.09,-0.549,0.305,0.732,629.635
109108,137368,18577,0.071,-0.968,0.089,-0.549,0.305,0.732,629.639
109108,137375,8437,0.072,-0.969,0.084,-0.549,0.244,0.61,629.645
109120,137368,18577,0.076,-0.968,0.087,-0.549,0.244,0.61,629.649
109120,137405,8439,0.075,-0.964,0.094,-0.366,0.183,0.488,629.655
109103,137368,18577,0.072,-0.961,0.093,-0.366,0.183,0.488,629.659
109103,137385,8431,0.068,-0.957,0.088,-0.183,0.427,0.244,629.665
109107,137368,18577,0.068,-0.957,0.085,-0.183,0.427,0.244,629.669
109107,137419,8455,0.064,-0.958,0.09,-0.122,0.427,0.244,629.675
109107,137368,18577,0.067,-0.959,0.088,-0.122,0.427,0.244,629.679
109107,137370,8438,0.07,-0.952,0.086,-0.244,0.366,0.427,629.685
109133,137368,18577,0.07,-0.952,0.088,-0.244,0.366,0.427,629.689
109133,137399,8435,0.065,-0.957,0.089,-0.183,0.427,0.488,629.695
109126,137368,18577,0.067,-0.956,0.086,-0.183,0.427,0.488,629.699
109126,137402,8437,0.068,-0.952,0.089,0.061,0.61,0.61,629.705
109118,137368,18577,0.064,-0.958,0.089,0.061,0.61,0.61,629.708
109118,137414,8437,0.066,-0.966,0.087,0,0.61,0.793,629.715
109099,137368,18577,0.065,-0.966,0.09,0,0.61,0.793,629.718
109099,137395,8434,0.069,-0.965,0.093,0.305,0.732,0.793,629.725
109101,137368,18577,0.069,-0.963,0.096,0.305,0.732,0.793,629.728
109101,137396,8428,0.065,-0.963,0.095,0.61,0.732,0.732,629.734
109085,137368,18577,0.067,-0.962,0.093,0.61,0.732,0.732,629.738
109085,137379,8431,0.069,-0.964,0.094,0.427,0.732,0.671,629.744
109089,137368,18577,0.069,-0.964,0.097,0.427,0.732,0.671,629.748
109089,137365,8437,0.075,-0.963,0.096,0.122,0.427,0.549,629.754
109067,137368,18577,0.072,-0.962,0.094,0.122,0.427,0.549,629.758
109067,137360,8432,0.069,-0.963,0.094,0.183,0.732,0.427,629.764
109070,137368,18577,0.066,-0.959,0.09,0.183,0.732,0.427,629.768
109070,137348,8420,0.07,-0.958,0.092,0.183,0.61,0.244,629.774
109070,137368,18577,0.071,-0.957,0.093,0.183,0.61,0.244,629.778
109070,137322,8437,0.065,-0.955,0.092,0.244,0.488,0.183,629.784
109065,137368,18577,0.065,-0.958,0.086,0.244,0.488,0.183,629.788
109065,137353,8438,0.067,-0.959,0.084,-0.183,0.671,0.305,629.794
109057,137368,18577,0.066,-0.961,0.09,-0.183,0.671,0.305,629.798
109057,137321,8436,0.064,-0.96,0.089,-0.488,0.549,0.366,629.804
109050,137368,18577,0.068,-0.966,0.088,-0.488,0.549,0.366,629.807
109050,137318,8426,0.067,-0.963,0.09,-0.122,0.61,0.244,629.814
109050,137368,18577,0.065,-0.958,0.09,-0.122,0.61,0.244,629.817
109050,137331,8428,0.066,-0.955,0.096,0.488,0.671,0.183,629.824
109035,137368,18577,0.07,-0.954,0.096,0.488,0.671,0.183,629.827
109035,137301,8423,0.067,-0.956,0.095,0.366,0.732,0.061,629.833
109042,137368,18577,0.065,-0.961,0.093,0.366,0.732,0.061,629.837
109042,137336,8427,0.065,-0.965,0.092,-0.244,0.549,0.183,629.843
109050,137368,18577,0.065,-0.965,0.093,-0.244,0.549,0.183,629.847
109050,137299,8427,0.07,-0.964,0.094,0,0.427,0.244,629.853
109059,137368,18577,0.07,-0.958,0.097,0,0.427,0.244,629.857
109059,137319,8422,0.069,-0.956,0.092,0.671,0.427,0.244,629.863
109063,137368,18577,0.07,-0.953,0.092,0.671,0.427,0.244,629.867
109063,137320,8441,0.07,-0.951,0.099,0.732,0.305,0.427,629.873
109077,137368,18577,0.069,-0.952,0.098,0.732,0.305,0.427,629.877
109077,137329,8424,0.068,-0.958,0.09,-0.122,0.488,0.488,629.883
109066,137368,18577,0.066,-0.964,0.088,-0.122,0.488,0.488,629.887
109066,137317,8438,0.066,-0.967,0.089,-0.976,0.732,0.305,629.893
109073,137368,18577,0.072,-0.97,0.095,-0.976,0.732,0.305,629.897
109073,137325,8424,0.074,-0.969,0.093,-0.488,0.305,0.488,629.903
109073,137368,18577,0.07,-0.962,0.086,-0.488,0.305,0.488,629.907
109073,137321,8433,0.07,-0.956,0.086,0.305,0.427,0.427,629.913
109074,137368,18577,0.067,-0.951,0.085,0.305,0.427,0.427,629.916
109074,137332,8435,0.064,-0.949,0.088,0.549,0.793,0.549,629.923
109098,137368,18577,0.066,-0.951,0.084,0.549,0.793,0.549,629.926
109098,137327,8433,0.068,-0.953,0.088,-0.244,0.488,0.488,629.932
109089,137368,18577,0.067,-0.954,0.089,-0.244,0.488,0.488,629.936
109089,137353,8445,0.065,-0.956,0.087,-0.671,0.732,0.61,629.942
109106,137368,18577,0.064,-0.96,0.095,-0.671,0.732,0.61,629.946
109106,137330,8436,0.065,-0.962,0.099,-0.671,0.793,0.793,629.952
109133,137368,18577,0.068,-0.965,0.104,-0.671,0.793,0.793,629.956
109133,137392,8439,0.072,-0.971,0.103,-0.671,0.305,0.732,629.962
109129,137368,18577,0.067,-0.972,0.1,-0.671,0.305,0.732,629.966
109129,137370,8436,0.064,-0.973,0.097,0.122,0.549,0.488,629.972
109143,137368,18577,0.059,-0.961,0.099,0.122,0.549,0.488,629.976
109143,137388,8432,0.065,-0.956,0.096,0.549,0.549,0.61,629.982
109146,137368,18577,0.068,-0.957,0.094,0.549,0.549,0.61,629.986
109146,137407,8439,0.067,-0.959,0.092,0.366,0.366,0.488,629.992
109152,137368,18577,0.066,-0.962,0.093,0.366,0.366,0.488,629.996
109152,137387,8434,0.068,-0.963,0.09,-0.549,0.427,0.366,630.002
109151,137368,18577,0.065,-0.968,0.091,-0.549,0.427,0.366,630.005
109151,137375,8434,0.065,-0.971,0.087,-1.098,0.183,0.305,630.012
109147,137368,18577,0.066,-0.969,0.083,-1.098,0.183,0.305,630.015
109147,137353,8432,0.066,-0.965,0.079,-0.488,0.305,0.061,630.022
109145,137368,18577,0.068,-0.959,0.085,-0.488,0.305,0.061,630.025
109145,137355,8447,0.071,-0.958,0.086,0.427,0.366,-0.061,630.031
109118,137368,18577,0.071,-0.958,0.086,0.427,0.366,-0.061,630.035
109118,137334,8443,0.065,-0.95,0.095,0.427,0.427,0.061,630.041
109130,137368,18577,0.065,-0.95,0.095,0.427,0.427,0.061,630.045
109130,137368,8434,0.07,-0.957,0.092,-0.183,0.549,0.122,630.051
109138,137368,18577,0.07,-0.957,0.092,-0.183,0.549,0.122,630.055
109138,137372,8453,0.069,-0.959,0.093,-0.488,0.671,0.183,630.061
109169,137368,18577,0.069,-0.959,0.093,-0.488,0.671,0.183,630.065
109169,137393,8453,0.073,-0.957,0.09,0.061,0.671,0.122,630.071
109144,137368,18577,0.073,-0.957,0.09,0.061,0.671,0.122,630.075
109144,137387,8450,0.064,-0.959,0.093,0.366,0.732,0.122,630.081
109151,137368,18577,0.064,-0.959,0.093,0.366,0.732,0.122,630.085
109151,137363,8452,0.069,-0.961,0.093,0,0.549,0.061,630.091
109148,137368,18577,0.069,-0.961,0.093,0,0.549,0.061,630.095
109148,137373,8456,0.07,-0.961,0.089,-0.549,0.488,0.122,630.101
109140,137368,18577,0.07,-0.961,0.089,-0.549,0.488,0.122,630.105
109140,137374,8443,0.069,-0.964,0.091,-0.305,0.671,0.061,630.111
109125,137368,18577,0.069,-0.964,0.091,-0.305,0.671,0.061,630.114
109125,137375,8452,0.07,-0.958,0.089,0.122,0.671,0.183,630.121
109133,137368,18577,0.07,-0.958,0.089,0.122,0.671,0.183,630.124
109133,137350,8439,0.068,-0.957,0.089,0.244,0.793,0.305,630.13
109131,137368,18577,0.068,-0.957,0.089,0.244,0.793,0.305,630.134
109131,137371,8444,0.07,-0.957,0.088,0,0.976,0.305,630.14
109155,137368,18577,0.07,-0.957,0.088,0,0.976,0.305,630.144
109155,137394,8449,0.071,-0.961,0.089,-0.061,1.098,0.427,630.15
109132,137368,18577,0.071,-0.961,0.089,-0.061,1.098,0.427,630.154
109132,137401,8440,0.069,-0.959,0.097,-0.366,0.915,0.488,630.16
109116,137368,18577,0.069,-0.959,0.097,-0.366,0.915,0.488,630.164
109116,137358,8447,0.063,-0.964,0.096,-0.549,0.793,0.549,630.17
109112,137368,18577,0.063,-0.964,0.096,-0.549,0.793,0.549,630.174
109112,137364,8429,0.066,-0.963,0.094,-0.549,0.793,0.549,630.18
109098,137368,18577,0.067,-0.961,0.095,-0.488,0.671,0.488,630.184
109098,137344,8452,0.065,-0.959,0.093,-0.488,0.671,0.488,630.19
109111,137368,18577,0.065,-0.961,0.096,-0.122,0.732,0.427,630.194
109111,137371,8433,0.068,-0.963,0.099,-0.122,0.732,0.427,630.2
109101,137368,18577,0.07,-0.961,0.099,0.305,0.671,0.305,630.203
109101,137390,8473,0.068,-0.957,0.1,0.305,0.671,0.305,630.21
109134,137368,18577,0.07,-0.962,0.099,0,0.488,0.305,630.213
109134,137386,8445,0.071,-0.959,0.098,0,0.488,0.305,630.22
109134,137368,18577,0.067,-0.957,0.093,0.244,0.427,0.549,630.223
109134,137376,8446,0.064,-0.953,0.094,0.244,0.427,0.549,630.229
109116,137368,18577,0.065,-0.951,0.098,0.61,0.549,0.61,630.233
109116,137359,8442,0.067,-0.953,0.094,0.61,0.549,0.61,630.239
109097,137368,18577,0.064,-0.955,0.094,0,0.366,0.671,630.243
109097,137352,8459,0.061,-0.96,0.09,0,0.366,0.671,630.249
109078,137368,18577,0.065,-0.965,0.081,-0.61,0.244,0.549,630.253
109078,137338,8444,0.064,-0.963,0.081,-0.61,0.244,0.549,630.259
109044,137368,18577,0.065,-0.969,0.09,-0.854,0,0.549,630.263
109044,137347,8444,0.065,-0.973,0.09,-0.854,0,0.549,630.269
109043,137368,18577,0.066,-0.967,0.089,-0.732,0.061,0.427,630.273
109043,137341,8440,0.068,-0.966,0.093,-0.732,0.061,0.427,630.279
109034,137368,18577,0.066,-0.969,0.098,-0.793,0.183,0.122,630.283
109034,137309,8427,0.064,-0.969,0.098,-0.793,0.183,0.122,630.289
109036,137368,18577,0.069,-0.965,0.096,-0.427,0.122,-0.183,630.293
109036,137299,8424,0.068,-0.961,0.094,-0.427,0.122,-0.183,630.299
109028,137368,18577,0.072,-0.959,0.098,0.305,0.061,-0.183,630.302
109028,137327,8442,0.071,-0.955,0.1,0.305,0.061,-0.183,630.309
109040,137368,18577,0.066,-0.951,0.097,0.61,0.122,-0.183,630.312
109040,137308,8426,0.065,-0.951,0.096,0.61,0.122,-0.183,630.319
109045,137368,18577,0.066,-0.956,0.097,-0.183,-0.061,-0.122,630.322
109045,137318,8438,0.066,-0.961,0.096,-0.183,-0.061,-0.122,630.328
109054,137368,18577,0.068,-0.96,0.093,-0.61,-0.183,0,630.332
109054,137321,8441,0.068,-0.959,0.09,-0.61,-0.183,0,630.338
109063,137368,18577,0.071,-0.956,0.089,-0.61,-0.183,0.122,630.342
109063,137318,8436,0.065,-0.959,0.083,-0.61,-0.183,0.122,630.348
109077,137368,18577,0.065,-0.96,0.085,-0.244,-0.061,0.244,630.352
109077,137356,8437,0.063,-0.957,0.081,-0.244,-0.061,0.244,630.358
