108847,136856,18577,0.033,-0.973,0.096,-0.244,0.854,0.366,576.201
108847,136902,8467,0.039,-0.96,0.104,0,0.61,0.427,576.207
108846,136856,18577,0.039,-0.96,0.104,0,0.61,0.427,576.211
108846,136886,8474,0.035,-0.957,0.109,0.244,0.61,0.488,576.217
108852,136856,18577,0.035,-0.957,0.109,0.244,0.61,0.488,576.221
108852,136916,8480,0.037,-0.961,0.108,0.061,0.854,0.427,576.227
108853,136856,18577,0.037,-0.961,0.108,0.061,0.854,0.427,576.231
108853,136898,8483,0.037,-0.958,0.104,-0.122,0.427,0.61,576.237
108867,136856,18577,0.037,-0.958,0.104,-0.122,0.427,0.61,576.24
108867,136916,8483,0.036,-0.954,0.101,-0.244,0.244,0.732,576.247
108851,136856,18577,0.036,-0.954,0.101,-0.244,0.244,0.732,576.25
108851,136908,8472,0.032,-0.965,0.097,-0.427,0.366,0.793,576.257
108866,136856,18577,0.032,-0.965,0.097,-0.427,0.366,0.793,576.26
108866,136945,8467,0.035,-0.968,0.099,-0.244,0.488,0.61,576.266
108890,136856,18577,0.035,-0.968,0.099,-0.244,0.488,0.61,576.27
108890,136923,8472,0.035,-0.962,0.1,-0.244,0.488,0.61,576.276
108869,136856,18577,0.034,-0.963,0.099,0.122,0.61,0.61,576.28
108869,136952,8477,0.031,-0.965,0.1,0.122,0.61,0.61,576.286
108887,136856,18577,0.034,-0.964,0.104,0.183,0.61,0.427,576.29
108887,136947,8487,0.032,-0.961,0.104,0.183,0.61,0.427,576.296
108882,136856,18577,0.034,-0.961,0.104,0.061,0.427,0.366,576.3
108882,136949,8485,0.034,-0.964,0.101,0.061,0.427,0.366,576.306
108895,136856,18577,0.031,-0.966,0.104,0.183,0.366,0.244,576.31
108895,136937,8490,0.034,-0.959,0.105,0.183,0.366,0.244,576.316
108900,136856,18577,0.036,-0.958,0.102,0.061,0.305,0.183,576.32
108900,136955,8491,0.037,-0.962,0.1,0.061,0.305,0.183,576.326
108900,137112,18577,0.037,-0.961,0.103,0.122,0.183,0.183,576.33
108900,136975,8483,0.032,-0.956,0.101,0.122,0.183,0.183,576.336
108893,137112,18577,0.031,-0.961,0.1,0,0.183,0.183,576.34
108893,136962,8488,0.035,-0.959,0.102,0,0.183,0.183,576.346
108903,137112,18577,0.036,-0.957,0.1,-0.244,0.183,0.183,576.349
108903,136963,8489,0.036,-0.96,0.104,-0.244,0.183,0.183,576.356
108893,137112,18577,0.036,-0.967,0.104,-0.244,0.305,0.183,576.359
108893,137012,8495,0.035,-0.968,0.104,-0.244,0.305,0.183,576.365
108917,137112,18577,0.034,-0.964,0.104,-0.183,0.366,0,576.369
108917,136991,8484,0.034,-0.962,0.098,-0.183,0.366,0,576.375
108932,137112,18577,0.037,-0.964,0.106,-0.244,0.427,-0.061,576.379
108932,137003,8484,0.037,-0.967,0.107,-0.244,0.427,-0.061,576.385
108923,137112,18577,0.037,-0.964,0.105,-0.122,0.366,-0.122,576.389
108923,136990,8495,0.039,-0.959,0.099,-0.122,0.366,-0.122,576.395
108930,137112,18577,0.041,-0.957,0.098,0.183,0.488,0.061,576.399
108930,137005,8511,0.039,-0.957,0.103,0.183,0.488,0.061,576.405
108945,137112,18577,0.036,-0.959,0.099,0.061,0.61,0.122,576.409
108945,137025,8474,0.036,-0.957,0.098,0.061,0.61,0.122,576.415
108949,137112,18577,0.035,-0.958,0.099,-0.183,0.488,0.183,576.419
108949,137034,8508,0.039,-0.961,0.097,-0.183,0.488,0.183,576.425
108958,137112,18577,0.039,-0.96,0.099,-0.122,0.549,0.305,576.429
108958,137022,8489,0.037,-0.961,0.097,-0.122,0.549,0.305,576.435
108939,137112,18577,0.035,-0.958,0.095,0.122,0.549,0.427,576.439
108939,137038,8492,0.034,-0.961,0.096,0.122,0.549,0.427,576.445
108943,137112,18577,0.038,-0.961,0.099,0.366,0.61,0.366,576.448
108943,137027,8494,0.036,-0.963,0.103,0.366,0.61,0.366,576.455
108957,137112,18577,0.037,-0.963,0.104,0.671,0.61,0.366,576.458
108957,137054,8485,0.037,-0.958,0.098,0.671,0.61,0.366,576.465
108966,137112,18577,0.035,-0.958,0.105,0.732,0.61,0.549,576.468
108966,137044,8509,0.038,-0.962,0.102,0.732,0.61,0.549,576.474
108967,137112,18577,0.036,-0.962,0.099,0.366,0.854,0.61,576.478
108967,137057,8496,0.037,-0.965,0.102,0.366,0.854,0.61,576.484
108973,137112,18577,0.039,-0.968,0.103,-0.122,0.732,0.549,576.488
108973,137038,8490,0.037,-0.969,0.107,-0.122,0.732,0.549,576.494
108986,137112,18577,0.036,-0.966,0.104,0.061,0.854,0.488,576.498
108986,137065,8500,0.039,-0.963,0.104,0.061,0.854,0.488,576.504
108977,137112,18577,0.039,-0.958,0.105,0.244,0.854,0.549,576.508
108977,137051,8499,0.037,-0.957,0.104,0.244,0.854,0.549,576.514
108974,137112,18577,0.034,-0.957,0.102,0.244,0.915,0.549,576.518
108974,137046,8490,0.036,-0.955,0.105,0.244,0.915,0.549,576.524
108949,137112,18577,0.037,-0.954,0.104,0.061,0.732,0.488,576.528
108949,137049,8488,0.029,-0.954,0.109,0.061,0.732,0.488,576.534
108919,137112,18577,0.032,-0.953,0.109,-0.122,0.61,0.671,576.538
108919,137023,8503,0.035,-0.953,0.103,-0.122,0.61,0.671,576.544
108928,137112,18577,0.031,-0.96,0.098,-0.61,0.61,0.732,576.547
108928,137016,8493,0.027,-0.963,0.099,-0.61,0.61,0.732,576.554
108900,137112,18577,0.029,-0.963,0.103,-0.549,0.305,0.61,576.557
108900,137012,8495,0.033,-0.965,0.105,-0.549,0.305,0.61,576.563
108893,137112,18577,0.032,-0.959,0.104,-0.305,0,0.732,576.567
108893,137015,8486,0.032,-0.958,0.096,-0.305,0,0.732,576.573
108885,137112,18577,0.031,-0.964,0.099,-0.305,0.183,0.671,576.577
108885,136991,8494,0.032,-0.97,0.102,-0.305,0.183,0.671,576.583
108898,137112,18577,0.033,-0.97,0.105,-0.549,0.061,0.366,576.587
108898,137015,8501,0.034,-0.971,0.106,-0.549,0.061,0.366,576.593
108887,137112,18577,0.036,-0.97,0.104,-0.732,0,0.122,576.597
108887,137025,8505,0.036,-0.965,0.098,-0.732,0,0.122,576.603
108900,137112,18577,0.038,-0.969,0.105,-0.427,0.305,0,576.607
108900,137009,8483,0.038,-0.97,0.1,-0.427,0.305,0,576.613
108895,137112,18577,0.037,-0.964,0.098,-0.061,0.366,-0.183,576.617
108895,137026,8485,0.041,-0.958,0.104,-0.061,0.366,-0.183,576.623
108899,137112,18577,0.037,-0.952,0.106,0.305,0.183,0,576.627
108899,137033,8484,0.036,-0.947,0.103,0.305,0.183,0,576.633
108923,137112,18577,0.036,-0.951,0.101,0.061,0.244,0.122,576.637
108923,137036,8485,0.035,-0.949,0.099,0.061,0.244,0.122,576.643
108936,137112,18577,0.038,-0.953,0.101,-0.122,0.244,0.305,576.646
108936,137039,8503,0.036,-0.952,0.103,-0.122,0.244,0.305,576.653
108941,137112,18577,0.035,-0.951,0.103,-0.61,0.122,0.549,576.656
108941,137041,8478,0.031,-0.958,0.103,-0.61,0.122,0.549,576.663
108927,137112,18577,0.03,-0.961,0.103,-0.732,0,0.549,576.666
108927,137041,8473,0.034,-0.962,0.102,-0.732,0,0.549,576.672
108947,137112,18577,0.035,-0.964,0.101,-0.976,-0.061,0.488,576.676
108947,137044,8495,0.038,-0.968,0.104,-0.976,-0.061,0.488,576.682
108927,137112,18577,0.036,-0.965,0.104,-0.732,0.061,0.488,576.686
108927,137051,8501,0.034,-0.965,0.099,-0.732,0.061,0.488,576.692
108959,137112,18577,0.037,-0.967,0.099,-0.793,0.244,0.366,576.696
108959,137029,8488,0.037,-0.974,0.106,-0.793,0.244,0.366,576.702
108951,137112,18577,0.039,-0.968,0.105,-0.427,0.122,0.244,576.706
108951,137041,8505,0.038,-0.961,0.104,-0.427,0.122,0.244,576.712
108951,137112,18577,0.039,-0.965,0.098,-0.427,0.366,0.305,576.716
108951,137050,8491,0.037,-0.97,0.098,-0.427,0.366,0.305,576.722
108925,137112,18577,0.037,-0.97,0.098,-0.427,0.366,0.305,576.726
108925,137063,8494,0.035,-0.968,0.103,-0.305,0.671,0.183,576.732
108949,137112,18577,0.035,-0.968,0.103,-0.305,0.671,0.183,576.736
108949,137055,8508,0.038,-0.94,0.1,0.61,0.305,0.366,576.742
108937,137112,18577,0.038,-0.94,0.1,0.61,0.305,0.366,576.745
108937,137052,8514,0.033,-0.961,0.1,0.305,0.366,0.549,576.752
108965,137112,18577,0.033,-0.961,0.1,0.305,0.366,0.549,576.755
108965,137035,8499,0.038,-0.968,0.093,-0.427,0.427,0.366,576.761
108949,137112,18577,0.038,-0.968,0.093,-0.427,0.427,0.366,576.765
108949,137035,8492,0.037,-0.959,0.102,-0.244,0.427,0.427,576.771
108949,137112,18577,0.037,-0.959,0.102,-0.244,0.427,0.427,576.775
108949,137062,8491,0.033,-0.955,0.102,0.183,0.671,0.61,576.781
108975,137112,18577,0.033,-0.955,0.102,0.183,0.671,0.61,576.785
108975,137074,8494,0.038,-0.962,0.103,0.305,0.854,0.488,576.791
108973,137112,18577,0.038,-0.962,0.103,0.305,0.854,0.488,576.795
108973,137068,8506,0.038,-0.958,0.112,0.305,0.549,0.549,576.801
108966,137112,18577,0.038,-0.958,0.112,0.305,0.549,0.549,576.805
108966,137059,8505,0.035,-0.957,0.107,0.122,0.366,0.732,576.811
108940,137112,18577,0.035,-0.957,0.107,0.122,0.366,0.732,576.815
108940,137022,8492,0.032,-0.968,0.102,-0.183,0.549,0.549,576.821
108953,137112,18577,0.032,-0.968,0.102,-0.183,0.549,0.549,576.825
108953,137030,8482,0.038,-0.97,0.1,-0.671,0.488,0.427,576.831
108932,137112,18577,0.038,-0.97,0.1,-0.671,0.488,0.427,576.835
108932,137000,8514,0.037,-0.968,0.097,-0.549,0.183,0.244,576.841
108927,137112,18577,0.037,-0.968,0.097,-0.549,0.183,0.244,576.844
108927,137008,8500,0.031,-0.968,0.096,-0.183,0.366,0.061,576.851
108908,137112,18577,0.031,-0.968,0.096,-0.183,0.366,0.061,576.854
108908,137009,8497,0.035,-0.963,0.101,0.061,0.671,0,576.861
108916,137112,18577,0.035,-0.963,0.101,0.061,0.671,0,576.864
108916,137011,8491,0.038,-0.956,0.102,0.183,0.366,-0.061,576.87
108906,137112,18577,0.039,-0.953,0.103,0.183,0.366,-0.061,576.874
108906,137004,8517,0.036,-0.953,0.103,0.122,0.549,-0.183,576.88
108931,137112,18577,0.037,-0.953,0.101,0.122,0.549,-0.183,576.884
108931,137002,8495,0.038,-0.954,0.105,0.061,0.549,-0.061,576.89
108914,137112,18577,0.04,-0.955,0.105,0.061,0.549,-0.061,576.894
108914,136990,8507,0.038,-0.95,0.108,0.061,0.366,0.244,576.9
108911,137112,18577,0.034,-0.951,0.104,0.061,0.366,0.244,576.904
108911,137002,8502,0.031,-0.956,0.103,-0.061,0.488,0.427,576.91
108928,137112,18577,0.033,-0.96,0.108,-0.061,0.488,0.427,576.914
108928,136989,8501,0.036,-0.961,0.104,-0.305,0.244,0.549,576.92
108912,137112,18577,0.034,-0.965,0.104,-0.305,0.244,0.549,576.924
108912,137005,8507,0.034,-0.966,0.101,-0.488,0.244,0.427,576.93
108914,137112,18577,0.034,-0.969,0.103,-0.488,0.244,0.427,576.934
108914,136990,8484,0.032,-0.969,0.107,-0.427,0.244,0.366,576.94
108887,136856,18577,0.037,-0.967,0.105,-0.427,0.244,0.366,576.943
108887,136958,8500,0.039,-0.965,0.104,-0.183,0.061,0.183,576.95
108881,137112,18577,0.033,-0.964,0.104,-0.183,0.061,0.183,576.953
108881,136964,8501,0.034,-0.961,0.104,-0.183,0.305,0.061,576.96
108903,137112,18577,0.036,-0.957,0.1,-0.183,0.305,0.061,576.963
108903,136998,8483,0.036,-0.956,0.103,-0.305,0.183,0.122,576.969
108887,137112,18577,0.037,-0.953,0.104,-0.305,0.183,0.122,576.973
108887,136986,8505,0.04,-0.952,0.1,-0.488,0.183,0.183,576.979
108871,137112,18577,0.04,-0.953,0.099,-0.488,0.183,0.183,576.983
108871,136978,8493,0.038,-0.957,0.098,-0.671,0.305,0.305,576.989
108883,137112,18577,0.036,-0.961,0.097,-0.671,0.305,0.305,576.993
108883,136976,8478,0.039,-0.964,0.099,-0.793,0.427,0.427,576.999
108883,137112,18577,0.037,-0.965,0.097,-0.793,0.427,0.427,577.003
108883,136983,8483,0.035,-0.968,0.097,-0.61,0.427,0.549,577.009
108879,137112,18577,0.033,-0.969,0.101,-0.61,0.427,0.549,577.013
108879,136990,8487,0.035,-0.966,0.101,-0.427,0.427,0.488,577.019
108898,137112,18577,0.038,-0.965,0.103,-0.427,0.427,0.488,577.023
108898,136981,8489,0.038,-0.963,0.102,0.122,0.305,0.427,577.029
108910,137112,18577,0.034,-0.958,0.104,0.122,0.305,0.427,577.033
108910,136994,8494,0.036,-0.955,0.104,0.244,0.244,0.427,577.039
108914,137112,18577,0.035,-0.957,0.104,0.244,0.244,0.427,577.042
108914,137010,8504,0.034,-0.956,0.111,0,0.183,0.427,577.049
108944,137112,18577,0.038,-0.963,0.108,0,0.183,0.427,577.052
108944,137007,8492,0.041,-0.964,0.106,-0.183,0.183,0.305,577.059
108945,137112,18577,0.04,-0.957,0.102,-0.183,0.183,0.305,577.062
108945,137020,8511,0.034,-0.957,0.097,-0.305,0.305,0.305,577.068
108949,137112,18577,0.033,-0.96,0.106,-0.305,0.305,0.305,577.072
108949,137021,8500,0.034,-0.961,0.105,-0.61,0.305,0.305,577.078
108930,137112,18577,0.036,-0.962,0.1,-0.61,0.305,0.305,577.082
108930,137015,8497,0.037,-0.966,0.1,-0.854,0.305,0.305,577.088
108910,137112,18577,0.036,-0.964,0.103,-0.854,0.305,0.305,577.092
108910,137026,8500,0.034,-0.961,0.098,-0.732,0.366,0.183,577.098
108949,137112,18577,0.04,-0.961,0.1,-0.732,0.366,0.183,577.102
108949,137017,8489,0.035,-0.964,0.103,-0.488,0.305,0.244,577.108
108925,137112,18577,0.034,-0.963,0.099,-0.488,0.305,0.244,577.112
108925,137038,8498,0.035,-0.957,0.096,-0.488,0.183,0.244,577.118
108925,137112,18577,0.039,-0.959,0.096,-0.488,0.183,0.244,577.122
108925,137016,8508,0.038,-0.962,0.096,-0.427,0.183,0.366,577.128
108933,137112,18577,0.036,-0.965,0.099,-0.427,0.183,0.366,577.132
108933,137055,8486,0.039,-0.961,0.1,-0.122,0.305,0.305,577.138
108961,137112,18577,0.038,-0.959,0.103,-0.122,0.305,0.305,577.141
108961,137033,8488,0.036,-0.957,0.099,0.183,0.305,0.427,577.148
108974,137112,18577,0.035,-0.959,0.096,0.183,0.305,0.427,577.151
108974,137075,8508,0.032,-0.966,0.095,-0.244,0.549,0.427,577.158
108967,137112,18577,0.033,-0.97,0.101,-0.244,0.549,0.427,577.161
108967,137059,8507,0.032,-0.968,0.108,-0.244,0.366,0.183,577.167
108980,137112,18577,0.034,-0.96,0.106,-0.244,0.366,0.183,577.171
108980,137099,8509,0.034,-0.96,0.107,-0.427,0.305,0.061,577.177
108991,137112,18577,0.032,-0.964,0.108,-0.427,0.305,0.061,577.181
108991,137076,8520,0.031,-0.966,0.105,-0.549,0.366,-0.061,577.187
108980,137112,18577,0.037,-0.963,0.1,-0.549,0.366,-0.061,577.191
108980,137087,8509,0.036,-0.959,0.101,-0.488,0.244,-0.061,577.197
108995,137112,18577,0.036,-0.955,0.102,-0.488,0.244,-0.061,577.201
108995,137080,8501,0.04,-0.955,0.1,-0.061,0.122,0.061,577.207
108974,137112,18577,0.039,-0.957,0.095,-0.061,0.122,0.061,577.211
108974,137072,8511,0.037,-0.955,0.095,-0.061,0.366,0.122,577.217
108986,137112,18577,0.038,-0.957,0.099,-0.061,0.366,0.122,577.221
108986,137092,8507,0.037,-0.957,0.1,-0.061,0.305,0.305,577.227
108991,137112,18577,0.037,-0.956,0.096,-0.061,0.305,0.305,577.231
108991,137083,8517,0.038,-0.96,0.098,-0.488,0.427,0.488,577.237
108988,137112,18577,0.035,-0.962,0.094,-0.488,0.427,0.488,577.24
108988,137098,8507,0.034,-0.964,0.099,-0.549,0.61,0.427,577.247
108994,137112,18577,0.035,-0.965,0.1,-0.549,0.61,0.427,577.25
108994,137112,8492,0.038,-0.961,0.099,-0.183,0.488,0.488,577.257
108987,137112,18577,0.04,-0.959,0.106,-0.183,0.488,0.488,577.26
108987,137108,8503,0.034,-0.959,0.106,0.244,0.549,0.488,577.266
108966,137112,18577,0.035,-0.958,0.104,0.244,0.549,0.488,577.27
108966,137091,8488,0.034,-0.957,0.101,0.061,0.671,0.549,577.276
109004,137112,18577,0.035,-0.956,0.106,0.061,0.671,0.549,577.28
109004,137089,8501,0.038,-0.953,0.109,-0.183,0.488,0.61,577.286
108984,137112,18577,0.035,-0.958,0.105,-0.183,0.488,0.61,577.29
108984,137117,8518,0.037,-0.959,0.106,-0.732,0.366,0.732,577.296
108988,137112,18577,0.035,-0.963,0.102,-0.732,0.366,0.732,577.3
108988,137108,8522,0.035,-0.962,0.105,-0.793,0.366,0.793,577.306
109007,137112,18577,0.032,-0.962,0.098,-0.793,0.366,0.793,577.31
109007,137118,8497,0.038,-0.967,0.093,-0.61,0.427,0.671,577.316
109008,137112,18577,0.038,-0.967,0.093,-0.61,0.427,0.671,577.32
109008,137111,8519,0.036,-0.965,0.097,-0.366,0.427,0.549,577.326
108995,137112,18577,0.036,-0.965,0.097,-0.366,0.427,0.549,577.33
108995,137131,8520,0.036,-0.968,0.093,-0.305,0.61,0.366,577.336
108988,137112,18577,0.036,-0.968,0.093,-0.305,0.61,0.366,577.339
108988,137107,8514,0.035,-0.973,0.097,-0.061,0.793,0.183,577.346
109009,137112,18577,0.035,-0.973,0.097,-0.061,0.793,0.183,577.349
109009,137122,8516,0.038,-0.963,0.103,0.488,0.488,0.061,577.356
108981,137112,18577,0.038,-0.963,0.103,0.488,0.488,0.061,577.359
108981,137101,8504,0.037,-0.958,0.111,0.427,0.366,0.244,577.365
108977,137112,18577,0.037,-0.958,0.111,0.427,0.366,0.244,577.369
108977,137119,8508,0.037,-0.956,0.096,-0.122,0.305,0.183,577.375
108970,137112,18577,0.037,-0.956,0.096,-0.122,0.305,0.183,577.379
108970,137121,8509,0.033,-0.963,0.098,-0.61,0.366,0.122,577.385
108991,137112,18577,0.033,-0.963,0.098,-0.61,0.366,0.122,577.389
108991,137146,8528,0.035,-0.963,0.102,-0.732,0.122,0.244,577.395
109003,137112,18577,0.035,-0.963,0.102,-0.732,0.122,0.244,577.399
109003,137129,8515,0.039,-0.951,0.096,-0.61,0.244,0.244,577.405
108998,137112,18577,0.039,-0.951,0.096,-0.61,0.244,0.244,577.409
108998,137144,8514,0.032,-0.965,0.106,-0.427,0.305,0.427,577.415
109028,137112,18577,0.032,-0.965,0.106,-0.427,0.305,0.427,577.419
109028,137135,8514,0.039,-0.954,0.093,-0.366,0.244,0.366,577.425
109012,137112,18577,0.039,-0.954,0.093,-0.366,0.244,0.366,577.429
109012,137133,8513,0.033,-0.956,0.101,-0.183,0.305,0.488,577.435
109002,137112,18577,0.033,-0.956,0.101,-0.183,0.305,0.488,577.438
109002,137110,8511,0.04,-0.957,0.099,-0.366,0.305,0.549,577.445
108985,137112,18577,0.04,-0.957,0.099,-0.366,0.305,0.549,577.448
108985,137123,8523,0.036,-0.964,0.099,-0.671,0.488,0.488,577.455
108996,137112,18577,0.036,-0.964,0.099,-0.671,0.488,0.488,577.458
108996,137125,8511,0.033,-0.967,0.099,-0.671,0.488,0.488,577.464
108978,137112,18577,0.035,-0.97,0.102,-0.61,0.427,0.427,577.468
108978,137128,8514,0.04,-0.968,0.099,-0.61,0.427,0.427,577.474
108982,137112,18577,0.039,-0.967,0.098,-0.244,0.366,0.366,577.478
108982,137133,8514,0.036,-0.969,0.1,-0.244,0.366,0.366,577.484
109005,137112,18577,0.035,-0.968,0.096,0,0.427,0.305,577.488
109005,137128,8508,0.033,-0.969,0.095,0,0.427,0.305,577.494
108995,137112,18577,0.034,-0.963,0.093,0.183,0.427,0.061,577.498
108995,137141,8538,0.036,-0.959,0.093,0.183,0.427,0.061,577.504
109022,137112,18577,0.038,-0.953,0.096,0.366,0.305,-0.183,577.508
109022,137148,8520,0.037,-0.955,0.1,0.366,0.305,-0.183,577.514
109005,137112,18577,0.037,-0.958,0.1,0.122,0.305,-0.122,577.518
109005,137174,8531,0.039,-0.956,0.097,0.122,0.305,-0.122,577.524
109015,137112,18577,0.036,-0.96,0.103,-0.305,0.549,-0.122,577.528
109015,137185,8527,0.036,-0.957,0.104,-0.305,0.549,-0.122,577.534
109029,137112,18577,0.039,-0.953,0.103,-0.122,0.549,0,577.538
109029,137188,8531,0.04,-0.953,0.108,-0.122,0.549,0,577.544
109024,137112,18577,0.038,-0.951,0.106,0,0.549,0.183,577.547
109024,137167,8528,0.037,-0.951,0.104,0,0.549,0.183,577.554
109015,137112,18577,0.04,-0.952,0.109,-0.122,0.488,0.61,577.557
109015,137195,8525,0.038,-0.951,0.106,-0.122,0.488,0.61,577.563
108983,137112,18577,0.036,-0.961,0.104,-0.732,0.427,0.793,577.567
108983,137141,8518,0.034,-0.97,0.098,-0.732,0.427,0.793,577.573
108974,137112,18577,0.033,-0.976,0.098,-1.22,0.427,0.671,577.577
108974,137128,8526,0.034,-0.978,0.105,-1.22,0.427,0.671,577.583
108967,137112,18577,0.036,-0.97,0.103,-0.732,0.122,0.732,577.587
108967,137116,8526,0.034,-0.962,0.102,-0.732,0.122,0.732,577.593
108971,137112,18577,0.032,-0.965,0.101,-0.366,-0.061,0.671,577.597
108971,137108,8516,0.033,-0.968,0.097,-0.366,-0.061,0.671,577.603
108955,137112,18577,0.034,-0.964,0.095,-0.549,0.061,0.244,577.607
108955,137137,8521,0.034,-0.962,0.09,-0.549,0.061,0.244,577.613
108944,137112,18577,0.038,-0.962,0.093,-0.305,0.061,0.061,577.617
108944,137128,8519,0.038,-0.956,0.091,-0.305,0.061,0.061,577.623
108924,137112,18577,0.037,-0.955,0.09,-0.061,0.244,0.122,577.627
108924,137118,8522,0.039,-0.954,0.093,-0.061,0.244,0.122,577.633
108928,137112,18577,0.038,-0.957,0.094,0.122,0.61,0,577.637
108928,137134,8518,0.037,-0.955,0.101,0.122,0.61,0,577.643
108924,137112,18577,0.038,-0.956,0.105,-0.122,0.366,0.183,577.646
108924,137077,8518,0.038,-0.954,0.109,-0.122,0.366,0.183,577.653
108895,137112,18577,0.033,-0.954,0.106,-0.366,0.305,0.427,577.656
108895,137102,8500,0.035,-0.958,0.104,-0.366,0.305,0.427,577.662
108845,137112,18577,0.035,-0.963,0.103,-0.854,0.305,0.488,577.666
108845,137065,8509,0.034,-0.965,0.104,-0.854,0.305,0.488,577.672
108818,137112,18577,0.038,-0.965,0.106,-0.793,-0.061,0.488,577.676
108818,137061,8506,0.035,-0.967,0.099,-0.793,-0.061,0.488,577.682
108799,137112,18577,0.035,-0.96,0.096,-0.427,-0.122,0.488,577.686
108799,137032,8503,0.034,-0.965,0.102,-0.427,-0.122,0.488,577.692
108765,137112,18577,0.033,-0.968,0.101,-0.305,0.061,0.305,577.696
108765,137007,8502,0.036,-0.97,0.098,-0.305,0.061,0.305,577.702
108778,137112,18577,0.037,-0.968,0.093,-0.671,0.061,0.122,577.706
108778,136994,8507,0.034,-0.967,0.094,-0.671,0.061,0.122,577.712
108744,137112,18577,0.035,-0.968,0.096,-0.549,0.244,0.122,577.716
108744,137004,8490,0.037,-0.965,0.096,-0.549,0.244,0.122,577.722
108764,137112,18577,0.038,-0.954,0.094,-0.061,0.427,-0.061,577.726
108764,137004,8495,0.041,-0.951,0.093,-0.061,0.427,-0.061,577.732
108743,137112,18577,0.038,-0.953,0.098,-0.061,0.427,0,577.736
108743,137010,8486,0.04,-0.958,0.099,-0.061,0.427,0,577.742
108732,137112,18577,0.038,-0.957,0.098,-0.366,0.427,0.061,577.745
108732,136989,8488,0.04,-0.957,0.098,-0.366,0.427,0.061,577.752
108718,136856,18577,0.042,-0.961,0.099,-0.183,0.427,0.244,577.755
108718,136954,8467,0.038,-0.963,0.098,-0.183,0.427,0.244,577.761
108703,136856,18577,0.038,-0.963,0.1,-0.122,0.488,0.305,577.765
108703,136953,8498,0.038,-0.962,0.101,-0.122,0.488,0.305,577.771
108693,136856,18577,0.036,-0.964,0.105,0.122,0.549,0.366,577.775
108693,136955,8482,0.041,-0.963,0.105,0.122,0.549,0.366,577.781
108713,137112,18577,0.04,-0.96,0.101,-0.061,0.61,0.305,577.785
108713,136970,8493,0.033,-0.963,0.096,-0.061,0.61,0.305,577.791
108711,137112,18577,0.032,-0.968,0.094,-0.366,0.671,0.122,577.795
108711,136998,8492,0.036,-0.967,0.094,-0.366,0.671,0.122,577.801
108726,137112,18577,0.038,-0.961,0.098,-0.305,0.427,0,577.805
108726,137003,8483,0.038,-0.959,0.099,-0.305,0.427,0,577.811
108735,137112,18577,0.034,-0.962,0.097,0,0.488,0.061,577.815
108735,137005,8475,0.035,-0.961,0.095,0,0.488,0.061,577.821
108737,137112,18577,0.037,-0.959,0.093,0.122,0.488,0.061,577.825
108737,136986,8480,0.039,-0.957,0.093,0.122,0.488,0.061,577.831
108735,137112,18577,0.039,-0.958,0.095,0.305,0.427,0.244,577.835
108735,136977,8482,0.038,-0.956,0.103,0.305,0.427,0.244,577.841
108698,137112,18577,0.036,-0.953,0.103,0.183,0.488,0.366,577.844
108698,136961,8481,0.033,-0.955,0.101,0.183,0.488,0.366,577.851
108688,136856,18577,0.035,-0.963,0.101,-0.305,0.366,0.305,577.854
108688,136950,8476,0.037,-0.965,0.104,-0.305,0.366,0.305,577.861
108678,136856,18577,0.036,-0.962,0.103,-0.183,0.183,0.244,577.864
108678,136920,8456,0.039,-0.96,0.101,-0.183,0.183,0.244,577.87
108649,136856,18577,0.04,-0.954,0.103,0.183,0.305,0.427,577.874
108649,136918,8485,0.037,-0.958,0.104,0.183,0.305,0.427,577.88
108655,136856,18577,0.034,-0.961,0.099,0.183,0.427,0.366,577.884
108655,136945,8470,0.037,-0.964,0.099,0.183,0.427,0.366,577.89
108674,136856,18577,0.037,-0.967,0.099,0,0.549,0.244,577.894
108674,136910,8484,0.036,-0.968,0.097,0,0.549,0.244,577.9
108664,136856,18577,0.038,-0.965,0.1,0,0.305,0.244,577.904
108664,136945,8478,0.04,-0.961,0.1,0,0.305,0.244,577.91
108667,136856,18577,0.04,-0.961,0.1,0,0.305,0.244,577.914
108667,136948,8486,0.035,-0.956,0.096,0.183,0.366,0.427,577.92
108695,136856,18577,0.035,-0.956,0.096,0.183,0.366,0.427,577.924
108695,136953,8484,0.034,-0.963,0.101,0.183,0.549,0.366,577.93
108683,136856,18577,0.034,-0.963,0.101,0.183,0.549,0.366,577.934
108683,136933,8468,0.04,-0.962,0.102,0.061,0.427,0.305,577.94
108677,136856,18577,0.04,-0.962,0.102,0.061,0.427,0.305,577.943
108677,136945,8479,0.037,-0.96,0.1,0.244,0.488,0.305,577.95
108660,136856,18577,0.037,-0.96,0.1,0.244,0.488,0.305,577.953
108660,136945,8479,0.036,-0.961,0.102,0.305,0.732,0.366,577.96
108633,136856,18577,0.036,-0.961,0.102,0.305,0.732,0.366,577.963
108633,136937,8469,0.039,-0.961,0.107,0.061,0.488,0.427,577.969
108630,136856,18577,0.039,-0.961,0.107,0.061,0.488,0.427,577.973
108630,136910,8479,0.035,-0.961,0.101,-0.244,0.427,0.427,577.979
108653,136856,18577,0.035,-0.961,0.101,-0.244,0.427,0.427,577.983
108653,136949,8484,0.035,-0.961,0.109,-0.366,0.427,0.427,577.989
108659,136856,18577,0.035,-0.961,0.109,-0.366,0.427,0.427,577.993
108659,136925,8479,0.037,-0.962,0.098,-0.366,0.305,0.549,577.999
108663,136856,18577,0.037,-0.962,0.098,-0.366,0.305,0.549,578.003
108663,136913,8479,0.037,-0.962,0.101,-0.366,0.305,0.427,578.009
108678,136856,18577,0.037,-0.962,0.101,-0.366,0.305,0.427,578.013
108678,136939,8479,0.041,-0.965,0.105,-0.61,0.305,0.305,578.019
108669,136856,18577,0.041,-0.965,0.105,-0.61,0.305,0.305,578.023
108669,136934,8481,0.032,-0.963,0.104,-0.61,0.549,0.244,578.029
108686,136856,18577,0.032,-0.963,0.104,-0.61,0.549,0.244,578.033
108686,136959,8480,0.035,-0.961,0.095,-0.61,0.61,0.366,578.039
108709,136856,18577,0.035,-0.961,0.095,-0.61,0.61,0.366,578.042
108709,136958,8481,0.036,-0.96,0.103,-0.549,0.244,0.305,578.049
108704,136856,18577,0.036,-0.96,0.103,-0.549,0.244,0.305,578.052
108704,136928,8488,0.036,-0.964,0.1,-0.366,0.122,0.183,578.059
108698,136856,18577,0.038,-0.964,0.098,-0.366,0.122,0.183,578.062
108698,136939,8497,0.039,-0.961,0.099,-0.244,0.061,0.244,578.068
108697,136856,18577,0.036,-0.96,0.098,-0.244,0.061,0.244,578.072
108697,136944,8470,0.038,-0.959,0.096,-0.061,0.061,0.366,578.078
108712,137112,18577,0.038,-0.96,0.094,-0.061,0.061,0.366,578.082
108712,136968,8482,0.04,-0.958,0.098,0.122,0.244,0.427,578.088
108704,136856,18577,0.039,-0.958,0.094,0.122,0.244,0.427,578.092
108704,136940,8495,0.036,-0.962,0.093,0,0.488,0.488,578.098
108702,137112,18577,0.037,-0.964,0.1,0,0.488,0.488,578.102
108702,136971,8484,0.037,-0.962,0.095,0.183,0.488,0.305,578.108
108712,137112,18577,0.037,-0.962,0.096,0.183,0.488,0.305,578.112
108712,136969,8481,0.036,-0.961,0.099,0.183,0.671,0.183,578.118
108718,137112,18577,0.038,-0.967,0.103,0.183,0.671,0.183,578.122
108718,136980,8481,0.038,-0.965,0.108,0.183,0.549,0.061,578.128
108694,137112,18577,0.036,-0.963,0.106,0.183,0.549,0.061,578.132
108694,136967,8510,0.038,-0.963,0.106,0.061,0.427,0.061,578.138
108741,137112,18577,0.037,-0.957,0.106,0.061,0.427,0.061,578.141
108741,136965,8481,0.035,-0.952,0.098,-0.183,0.427,0.122,578.148
108718,137112,18577,0.037,-0.957,0.099,-0.183,0.427,0.122,578.151
108718,136993,8481,0.04,-0.96,0.099,-0.366,0.183,0.305,578.158
108743,137112,18577,0.039,-0.961,0.093,-0.366,0.183,0.305,578.161
108743,136991,8492,0.039,-0.96,0.094,-0.366,0.122,0.305,578.167
108732,137112,18577,0.04,-0.956,0.091,-0.366,0.122,0.305,578.171
108732,136972,8482,0.039,-0.959,0.089,-0.122,0.366,0.549,578.177
108719,137112,18577,0.035,-0.962,0.094,-0.122,0.366,0.549,578.181
108719,136974,8470,0.035,-0.96,0.099,0.122,0.61,0.549,578.187
108717,137112,18577,0.038,-0.957,0.099,0.122,0.61,0.549,578.191
108717,136977,8502,0.038,-0.958,0.103,0.061,0.671,0.549,578.197
108743,137112,18577,0.035,-0.964,0.104,0.061,0.671,0.549,578.201
108743,136995,8495,0.035,-0.972,0.101,-0.183,0.732,0.366,578.207
108740,137112,18577,0.038,-0.972,0.102,-0.183,0.732,0.366,578.211
108740,136992,8496,0.036,-0.973,0.102,-0.183,0.793,0.244,578.217
108754,137112,18577,0.04,-0.967,0.099,-0.183,0.793,0.244,578.221
108754,136998,8494,0.04,-0.962,0.105,0.305,0.732,0.305,578.227
108762,137112,18577,0.04,-0.963,0.104,0.305,0.732,0.305,578.231
108762,136999,8494,0.039,-0.957,0.102,0.732,0.671,0.427,578.237
108786,137112,18577,0.038,-0.953,0.102,0.732,0.671,0.427,578.24
108786,137005,8495,0.037,-0.948,0.102,0.549,0.732,0.488,578.247
108776,137112,18577,0.039,-0.946,0.098,0.549,0.732,0.488,578.25
108776,137032,8491,0.035,-0.954,0.098,0.122,0.732,0.61,578.257
108810,137112,18577,0.035,-0.962,0.101,0.122,0.732,0.61,578.26
108810,137026,8496,0.035,-0.963,0.1,-0.122,0.793,0.61,578.266
108807,137112,18577,0.034,-0.96,0.101,-0.122,0.793,0.61,578.27
108807,137033,8496,0.036,-0.961,0.104,-0.244,0.549,0.671,578.276
108813,137112,18577,0.036,-0.963,0.104,-0.244,0.549,0.671,578.28
108813,137050,8498,0.032,-0.966,0.106,0,0.305,0.732,578.286
108839,137112,18577,0.036,-0.966,0.108,0,0.305,0.732,578.29
108839,137046,8517,0.035,-0.962,0.106,0.061,0.244,0.61,578.296
108834,137112,18577,0.033,-0.961,0.107,0.061,0.244,0.61,578.3
108834,137049,8509,0.034,-0.965,0.106,-0.183,0.244,0.488,578.306
108856,137112,18577,0.036,-0.971,0.1,-0.183,0.244,0.488,578.31
108856,137053,8492,0.034,-0.973,0.1,-0.305,0.305,0.244,578.316
108829,137112,18577,0.035,-0.974,0.098,-0.305,0.305,0.244,578.32
108829,137056,8501,0.037,-0.969,0.099,-0.305,0.305,0.061,578.326
108822,137112,18577,0.036,-0.967,0.1,-0.305,0.305,0.061,578.33
108822,137046,8508,0.036,-0.965,0.1,-0.305,0.305,-0.122,578.336
108811,137112,18577,0.035,-0.961,0.096,-0.305,0.305,-0.122,578.339
108811,137039,8514,0.035,-0.958,0.097,-0.366,0.366,-0.183,578.346
108797,137112,18577,0.036,-0.96,0.097,-0.366,0.366,-0.183,578.349
108797,137023,8514,0.039,-0.956,0.102,-0.366,0.305,-0.183,578.356
108802,137112,18577,0.039,-0.953,0.103,-0.366,0.305,-0.183,578.359
108802,137030,8503,0.041,-0.953,0.104,-0.488,0.122,-0.183,578.365
108802,137112,18577,0.04,-0.954,0.105,-0.488,0.122,-0.183,578.369
108802,137019,8495,0.038,-0.955,0.098,-0.488,0.183,-0.061,578.375
108781,137112,18577,0.041,-0.951,0.1,-0.488,0.183,-0.061,578.379
108781,137032,8503,0.04,-0.954,0.104,-0.244,0.305,0.244,578.385
108807,137112,18577,0.039,-0.957,0.094,-0.244,0.305,0.244,578.389
108807,137072,8507,0.039,-0.96,0.092,-0.305,0.427,0.244,578.395
108792,137112,18577,0.04,-0.96,0.098,-0.305,0.427,0.244,578.399
108792,137031,8497,0.03,-0.967,0.104,0.061,0.427,0.305,578.405
108813,137112,18577,0.036,-0.967,0.09,0.061,0.427,0.305,578.409
108813,137056,8503,0.044,-0.958,0.1,0.122,0.183,0.488,578.415
108808,137112,18577,0.041,-0.96,0.098,0.122,0.183,0.488,578.419
108808,137070,8481,0.035,-0.966,0.095,0.183,0.061,0.549,578.425
108799,137112,18577,0.034,-0.972,0.097,0.183,0.061,0.549,578.429
108799,137096,8512,0.035,-0.972,0.095,-0.061,0.488,0.305,578.435
108803,137112,18577,0.038,-0.973,0.104,-0.061,0.488,0.305,578.438
108803,137101,8511,0.043,-0.968,0.103,0.183,0.427,0.122,578.445
108829,137112,18577,0.042,-0.961,0.098,0.183,0.427,0.122,578.448
108829,137091,8493,0.037,-0.962,0.098,0.488,0.854,0.122,578.455
108828,137112,18577,0.037,-0.963,0.098,0.488,0.854,0.122,578.458
108828,137096,8516,0.04,-0.958,0.096,0.61,0.976,0.244,578.464
108822,137112,18577,0.041,-0.955,0.099,0.61,0.976,0.244,578.468
108822,137098,8492,0.039,-0.951,0.099,0.61,0.976,0.305,578.474
108831,137112,18577,0.039,-0.954,0.101,0.61,0.976,0.305,578.478
108831,137109,8503,0.038,-0.96,0.102,0.244,0.976,0.244,578.484
108825,137112,18577,0.037,-0.96,0.101,0.244,0.976,0.244,578.488
108825,137141,8494,0.039,-0.958,0.105,0.061,0.793,0.427,578.494
108825,137112,18577,0.039,-0.958,0.105,0.061,0.793,0.427,578.498
108825,137126,8499,0.039,-0.956,0.108,0,0.732,0.61,578.504
108835,137112,18577,0.039,-0.956,0.108,0,0.732,0.61,578.508
108835,137148,8511,0.038,-0.959,0.103,0.183,0.488,0.61,578.514
108832,137112,18577,0.038,-0.959,0.103,0.183,0.488,0.61,578.518
108832,137122,8503,0.032,-0.96,0.102,0.061,0.671,0.671,578.524
108824,137112,18577,0.032,-0.96,0.102,0.061,0.671,0.671,578.528
108824,137134,8513,0.037,-0.955,0.108,-0.061,0.549,0.793,578.534
108818,137112,18577,0.037,-0.955,0.108,-0.061,0.549,0.793,578.537
108818,137148,8507,0.034,-0.964,0.103,-0.183,0.244,0.732,578.544
108817,137112,18577,0.034,-0.964,0.103,-0.183,0.244,0.732,578.547
108817,137125,8500,0.036,-0.958,0.103,-0.366,0.244,0.61,578.554
108797,137112,18577,0.036,-0.958,0.103,-0.366,0.244,0.61,578.557
108797,137110,8496,0.039,-0.963,0.099,-0.183,0.305,0.732,578.563
108792,137112,18577,0.039,-0.963,0.099,-0.183,0.305,0.732,578.567
108792,137132,8506,0.033,-0.968,0.098,-0.244,0.427,0.488,578.573
108792,137112,18577,0.033,-0.968,0.098,-0.244,0.427,0.488,578.577
108792,137104,8507,0.039,-0.966,0.105,-0.183,0.244,0.366,578.583
108786,137112,18577,0.039,-0.966,0.105,-0.183,0.244,0.366,578.587
108786,137134,8506,0.037,-0.962,0.095,-0.366,0.549,0.183,578.593
108798,137112,18577,0.037,-0.962,0.095,-0.366,0.549,0.183,578.597
108798,137110,8503,0.032,-0.976,0.105,0,0.732,0.183,578.603
108790,137112,18577,0.032,-0.976,0.105,0,0.732,0.183,578.607
108790,137111,8484,0.043,-0.955,0.105,0.183,0.488,0,578.613
108779,137112,18577,0.043,-0.955,0.105,0.183,0.488,0,578.617
108779,137120,8488,0.038,-0.957,0.104,0.305,0.488,0.122,578.623
108774,137112,18577,0.038,-0.957,0.104,0.305,0.488,0.122,578.627
108774,137149,8513,0.039,-0.954,0.104,0.305,0.244,0.244,578.633
108825,137112,18577,0.039,-0.954,0.104,0.305,0.244,0.244,578.636
108825,137162,8495,0.041,-0.944,0.107,0.305,0.244,0.244,578.643
108834,137112,18577,0.039,-0.946,0.111,0.122,-0.122,0.488,578.646
108834,137144,8510,0.038,-0.95,0.103,0.122,-0.122,0.488,578.653
108814,137112,18577,0.035,-0.955,0.102,-0.671,0.061,0.61,578.656
108814,137166,8490,0.036,-0.958,0.1,-0.671,0.061,0.61,578.662
108840,137112,18577,0.035,-0.966,0.094,-0.915,-0.061,0.732,578.666
108840,137171,8516,0.037,-0.97,0.097,-0.915,-0.061,0.732,578.672
108819,137112,18577,0.036,-0.967,0.1,-0.732,-0.183,0.61,578.676
108819,137166,8499,0.034,-0.966,0.1,-0.732,-0.183,0.61,578.682
108804,137112,18577,0.035,-0.967,0.101,-0.366,0.122,0.427,578.686
108804,137168,8516,0.036,-0.969,0.1,-0.366,0.122,0.427,578.692
108806,137112,18577,0.034,-0.976,0.094,-0.671,0.305,0.244,578.696
108806,137175,8498,0.036,-0.976,0.098,-0.671,0.305,0.244,578.702
108820,137112,18577,0.038,-0.974,0.105,-0.366,0.244,0.122,578.706
108820,137146,8504,0.041,-0.965,0.102,-0.366,0.244,0.122,578.712
108815,137112,18577,0.039,-0.954,0.099,0.366,0.244,0.122,578.716
108815,137161,8504,0.036,-0.951,0.097,0.366,0.244,0.122,578.722
108803,137112,18577,0.036,-0.956,0.1,0.305,0.366,0.122,578.726
108803,137131,8503,0.037,-0.959,0.101,0.305,0.366,0.122,578.732
108814,137112,18577,0.041,-0.96,0.095,-0.244,0.366,0,578.735
108814,137137,8501,0.041,-0.96,0.096,-0.244,0.366,0,578.742
108810,137112,18577,0.042,-0.958,0.1,-0.305,0.244,0.183,578.745
108810,137176,8508,0.042,-0.955,0.098,-0.305,0.244,0.183,578.752
108831,137112,18577,0.039,-0.959,0.1,-0.122,0.427,0.244,578.755
108831,137180,8500,0.039,-0.961,0.096,-0.122,0.427,0.244,578.761
108821,137112,18577,0.038,-0.96,0.095,0.122,0.488,0.366,578.765
108821,137133,8496,0.037,-0.965,0.095,0.122,0.488,0.366,578.771
108822,137112,18577,0.035,-0.966,0.099,0.061,0.427,0.488,578.775
108822,137167,8490,0.034,-0.966,0.098,0.061,0.427,0.488,578.781
108802,137112,18577,0.038,-0.959,0.099,0.244,0.488,0.427,578.785
108802,137152,8501,0.037,-0.96,0.107,0.244,0.488,0.427,578.791
108805,137112,18577,0.034,-0.96,0.104,0.305,0.488,0.366,578.795
108805,137148,8504,0.037,-0.962,0.103,0.305,0.488,0.366,578.801
108792,137112,18577,0.036,-0.962,0.103,0.244,0.549,0.244,578.805
108792,137155,8509,0.037,-0.96,0.105,0.244,0.549,0.244,578.811
108779,137112,18577,0.036,-0.959,0.103,0.122,0.549,0.244,578.815
108779,137134,8494,0.037,-0.961,0.105,0.122,0.549,0.244,578.821
108774,137112,18577,0.038,-0.964,0.099,0.122,0.427,0.366,578.825
108774,137132,8495,0.039,-0.962,0.096,0.122,0.427,0.366,578.831
108740,137112,18577,0.038,-0.954,0.094,0.366,0.549,0.305,578.834
108740,137095,8492,0.032,-0.959,0.101,0.366,0.549,0.305,578.841
108760,137112,18577,0.036,-0.967,0.102,0.427,0.549,0.366,578.844
108760,137114,8496,0.039,-0.966,0.102,0.427,0.549,0.366,578.851
108755,137112,18577,0.041,-0.963,0.098,0.305,0.549,0.244,578.854
108755,137107,8492,0.039,-0.962,0.098,0.305,0.549,0.244,578.86
108758,137112,18577,0.035,-0.961,0.096,0.305,0.793,0.244,578.864
108758,137125,8497,0.035,-0.962,0.104,0.305,0.793,0.244,578.87
108752,137112,18577,0.036,-0.963,0.106,0.183,0.793,0.183,578.874
108752,137097,8507,0.04,-0.96,0.107,0.183,0.793,0.183,578.88
108788,137112,18577,0.039,-0.959,0.11,0,0.549,0.183,578.884
108788,137105,8493,0.036,-0.961,0.109,0,0.549,0.183,578.89
108765,137112,18577,0.032,-0.965,0.108,-0.122,0.549,0.183,578.894
108765,137111,8488,0.035,-0.964,0.113,-0.122,0.549,0.183,578.9
108800,137112,18577,0.037,-0.96,0.113,-0.061,0.366,0.183,578.904
108800,137124,8497,0.039,-0.956,0.107,-0.061,0.366,0.183,578.91
108798,137112,18577,0.038,-0.956,0.105,-0.061,0.183,0.366,578.914
108798,137127,8498,0.037,-0.957,0.103,-0.061,0.183,0.366,578.92
108772,137112,18577,0.034,-0.956,0.098,-0.366,0.183,0.488,578.924
108772,137134,8508,0.039,-0.958,0.096,-0.366,0.183,0.488,578.93
108765,137112,18577,0.037,-0.96,0.092,-0.488,0.183,0.427,578.933
108765,137112,8500,0.034,-0.964,0.092,-0.488,0.183,0.427,578.94
108762,137112,18577,0.038,-0.97,0.1,-0.427,0.427,0.244,578.943
108762,137127,8492,0.038,-0.97,0.096,-0.427,0.427,0.244,578.95
108740,137112,18577,0.037,-0.967,0.099,-0.427,0.488,0.122,578.953
108740,137079,8479,0.037,-0.967,0.105,-0.427,0.488,0.122,578.959
108734,137112,18577,0.036,-0.966,0.107,0,0.488,0.183,578.963
108734,137073,8501,0.035,-0.962,0.105,0,0.488,0.183,578.969
108765,137112,18577,0.035,-0.96,0.108,0.305,0.244,0.183,578.973
108765,137091,8488,0.038,-0.961,0.111,0.305,0.244,0.183,578.979
108733,137112,18577,0.041,-0.956,0.107,0.183,0.366,0,578.983
108733,137112,8499,0.039,-0.954,0.103,0.183,0.366,0,578.989
108758,137112,18577,0.038,-0.952,0.104,-0.244,0.366,0,578.993
108758,137094,8498,0.035,-0.954,0.106,-0.244,0.366,0,578.999
108757,137112,18577,0.04,-0.954,0.108,-0.427,0.122,0.244,579.003
108757,137110,8494,0.043,-0.952,0.107,-0.427,0.122,0.244,579.009
108755,137112,18577,0.038,-0.958,0.103,-0.915,-0.122,0.244,579.013
108755,137116,8499,0.037,-0.962,0.098,-0.915,-0.122,0.244,579.019
108765,137112,18577,0.033,-0.965,0.093,-1.402,0,0.366,579.023
108765,137105,8478,0.035,-0.97,0.097,-1.402,0,0.366,579.029
108774,137112,18577,0.039,-0.966,0.099,-0.915,-0.061,0.366,579.032
108774,137105,8498,0.037,-0.966,0.096,-0.915,-0.061,0.366,579.039
108777,137112,18577,0.039,-0.961,0.1,-0.366,0.122,0.244,579.042
108777,137130,8492,0.039,-0.96,0.102,-0.366,0.122,0.244,579.049
108765,137112,18577,0.036,-0.962,0.096,-0.305,0.366,0.122,579.052
108765,137117,8514,0.037,-0.962,0.099,-0.305,0.366,0.122,579.058
108776,137112,18577,0.038,-0.966,0.104,-0.183,0.305,-0.061,579.062
108776,137116,8505,0.04,-0.966,0.105,-0.183,0.305,-0.061,579.068
108754,137112,18577,0.038,-0.959,0.102,-0.061,0.366,0,579.072
108754,137137,8503,0.038,-0.957,0.109,-0.061,0.366,0,579.078
108754,137112,18577,0.037,-0.955,0.106,-0.183,0.244,0.122,579.082
108754,137119,8510,0.039,-0.958,0.102,-0.183,0.244,0.122,579.088
108758,137112,18577,0.039,-0.958,0.102,-0.183,0.244,0.122,579.092
108758,137140,8489,0.037,-0.96,0.095,-0.366,0.244,0.122,579.098
108758,137112,18577,0.037,-0.96,0.095,-0.366,0.244,0.122,579.102
108758,137147,8505,0.039,-0.963,0.098,-0.244,0.122,0.244,579.108
108771,137112,18577,0.039,-0.963,0.098,-0.244,0.122,0.244,579.112
108771,137136,8490,0.038,-0.963,0.101,-0.183,0.183,0.305,579.118
108754,137112,18577,0.038,-0.963,0.101,-0.183,0.183,0.305,579.122
108754,137142,8495,0.037,-0.962,0.098,-0.366,0.305,0.244,579.128
108787,137112,18577,0.037,-0.962,0.098,-0.366,0.305,0.244,579.131
108787,137140,8504,0.039,-0.963,0.098,-0.366,0.244,0.122,579.138
108755,137112,18577,0.039,-0.963,0.098,-0.366,0.244,0.122,579.141
108755,137140,8498,0.037,-0.959,0.104,-0.061,0.366,0.061,579.148
108797,137112,18577,0.037,-0.959,0.104,-0.061,0.366,0.061,579.151
108797,137156,8501,0.042,-0.962,0.098,-0.061,0.244,0.122,579.157
108767,137112,18577,0.042,-0.962,0.098,-0.061,0.244,0.122,579.161
108767,137151,8505,0.037,-0.961,0.097,-0.061,0.427,0.244,579.167
108775,137112,18577,0.037,-0.961,0.097,-0.061,0.427,0.244,579.171
108775,137175,8487,0.036,-0.959,0.107,0.122,0.671,0.305,579.177
108760,137112,18577,0.036,-0.959,0.107,0.122,0.671,0.305,579.181
108760,137159,8504,0.038,-0.957,0.099,0.305,0.427,0.366,579.187
108791,137112,18577,0.038,-0.957,0.099,0.305,0.427,0.366,579.191
108791,137174,8494,0.039,-0.958,0.095,-0.061,0.427,0.488,579.197
108786,137112,18577,0.039,-0.958,0.095,-0.061,0.427,0.488,579.201
108786,137148,8498,0.038,-0.967,0.102,0,0.488,0.549,579.207
108783,137112,18577,0.038,-0.967,0.102,0,0.488,0.549,579.211
108783,137161,8515,0.038,-0.963,0.1,0.061,0.671,0.488,579.217
108789,137112,18577,0.038,-0.963,0.1,0.061,0.671,0.488,579.221
108789,137168,8511,0.041,-0.96,0.107,0.427,0.732,0.427,579.227
108782,137112,18577,0.041,-0.96,0.107,0.427,0.732,0.427,579.231
108782,137188,8514,0.041,-0.954,0.106,0.671,1.098,0.366,579.237
108776,137112,18577,0.036,-0.953,0.102,0.671,1.098,0.366,579.24
108776,137182,8506,0.034,-0.956,0.106,0.183,1.098,0.427,579.247
108780,137112,18577,0.036,-0.959,0.106,0.183,1.098,0.427,579.25
108780,137200,8508,0.037,-0.961,0.105,0,0.671,0.549,579.256
108775,137112,18577,0.037,-0.959,0.107,0,0.671,0.549,579.26
108775,137194,8502,0.034,-0.963,0.106,-0.244,0.61,0.549,579.266
108784,137368,18577,0.035,-0.962,0.102,-0.244,0.61,0.549,579.27
108784,137219,8502,0.038,-0.964,0.1,-0.244,0.549,0.61,579.276
108770,137112,18577,0.037,-0.967,0.103,-0.244,0.549,0.61,579.28
108770,137184,8497,0.036,-0.966,0.103,-0.183,0.488,0.488,579.286
108759,137112,18577,0.036,-0.967,0.103,-0.183,0.488,0.488,579.29
108759,137184,8512,0.031,-0.968,0.102,-0.183,0.549,0.305,579.296
108757,137112,18577,0.035,-0.969,0.1,-0.183,0.549,0.305,579.3
108757,137167,8497,0.037,-0.965,0.094,-0.305,0.549,0.061,579.306
108721,137112,18577,0.038,-0.967,0.102,-0.305,0.549,0.061,579.31
108721,137155,8504,0.037,-0.967,0.104,0.122,0.488,-0.122,579.316
108736,137112,18577,0.037,-0.96,0.104,0.122,0.488,-0.122,579.32
108736,137176,8497,0.039,-0.958,0.102,0.183,0.549,-0.183,579.326
108750,137112,18577,0.037,-0.957,0.102,0.183,0.549,-0.183,579.329
108750,137175,8499,0.039,-0.956,0.099,0.061,0.488,-0.244,579.336
108719,137112,18577,0.039,-0.954,0.101,0.061,0.488,-0.244,579.339
108719,137186,8493,0.04,-0.956,0.103,-0.061,0.305,-0.061,579.346
108760,137112,18577,0.043,-0.955,0.105,-0.061,0.305,-0.061,579.349
108760,137200,8505,0.043,-0.953,0.103,0,0.122,0.122,579.355
108741,137112,18577,0.041,-0.952,0.102,0,0.122,0.122,579.359
108741,137196,8501,0.042,-0.954,0.102,-0.305,0.244,0.183,579.365
108744,137112,18577,0.038,-0.957,0.103,-0.305,0.244,0.183,579.369
108744,137189,8490,0.04,-0.962,0.098,-0.61,0.183,0.305,579.375
108731,137112,18577,0.042,-0.964,0.102,-0.61,0.183,0.305,579.379
108731,137188,8514,0.041,-0.962,0.105,-0.488,0.183,0.305,579.385
108748,137112,18577,0.04,-0.961,0.099,-0.488,0.183,0.305,579.389
108748,137199,8492,0.039,-0.962,0.101,-0.427,0.366,0.366,579.395
108749,137112,18577,0.035,-0.967,0.101,-0.427,0.366,0.366,579.399
108749,137209,8518,0.036,-0.97,0.104,-0.061,0.61,0.183,579.405
108786,137112,18577,0.043,-0.969,0.103,-0.061,0.61,0.183,579.409
108786,137214,8488,0.041,-0.965,0.102,-0.061,0.61,0.122,579.415
108791,137368,18577,0.041,-0.963,0.103,-0.061,0.61,0.122,579.419
108791,137227,8516,0.039,-0.962,0.1,0.305,0.732,0.305,579.425
108798,137368,18577,0.04,-0.959,0.099,0.305,0.732,0.305,579.429
108798,137251,8515,0.04,-0.959,0.105,0.366,0.61,0.244,579.435
108792,137368,18577,0.043,-0.953,0.104,0.366,0.61,0.244,579.438
108792,137259,8513,0.041,-0.957,0.099,0.122,0.549,0.244,579.445
108806,137368,18577,0.036,-0.962,0.101,0.122,0.549,0.244,579.448
108806,137273,8511,0.033,-0.962,0.101,-0.122,0.671,0.244,579.454
108801,137368,18577,0.037,-0.957,0.099,-0.122,0.671,0.244,579.458
108801,137259,8519,0.041,-0.955,0.097,-0.183,0.366,0.305,579.464
108810,137368,18577,0.04,-0.954,0.095,-0.183,0.366,0.305,579.468
108810,137265,8510,0.039,-0.958,0.098,0.061,0.427,0.427,579.474
108807,137368,18577,0.04,-0.96,0.103,0.061,0.427,0.427,579.478
108807,137260,8517,0.042,-0.957,0.107,0.244,0.61,0.427,579.484
108787,137368,18577,0.042,-0.957,0.108,0.244,0.61,0.427,579.488
108787,137278,8515,0.039,-0.962,0.11,-0.061,0.61,0.488,579.494
108829,137368,18577,0.034,-0.968,0.112,-0.061,0.61,0.488,579.498
108829,137271,8514,0.037,-0.967,0.107,-0.549,0.732,0.488,579.504
108818,137368,18577,0.04,-0.962,0.107,-0.549,0.732,0.488,579.508
108818,137301,8519,0.036,-0.959,0.113,-0.122,0.488,0.671,579.514
108787,137368,18577,0.036,-0.958,0.107,-0.122,0.488,0.671,579.518
108787,137270,8520,0.036,-0.954,0.104,0.061,0.366,0.793,579.524
108798,137368,18577,0.035,-0.954,0.102,0.061,0.366,0.793,579.528
108798,137284,8510,0.037,-0.955,0.106,-0.305,0.244,0.854,579.534
108773,137368,18577,0.039,-0.962,0.105,-0.305,0.244,0.854,579.537
108773,137251,8515,0.035,-0.97,0.101,-0.732,0.183,0.732,579.544
108754,137368,18577,0.037,-0.968,0.101,-0.732,0.183,0.732,579.547
108754,137255,8503,0.036,-0.969,0.097,-1.037,0.244,0.549,579.553
108731,137368,18577,0.037,-0.97,0.095,-1.037,0.244,0.549,579.557
108731,137252,8497,0.034,-0.969,0.1,-0.732,0.122,0.427,579.563
108746,137368,18577,0.036,-0.967,0.096,-0.732,0.122,0.427,579.567
108746,137223,8493,0.039,-0.957,0.099,-0.244,0.122,0.244,579.573
108751,137368,18577,0.041,-0.954,0.097,-0.244,0.122,0.244,579.577
108751,137239,8512,0.039,-0.952,0.097,0,0.183,0.183,579.583
108739,137112,18577,0.041,-0.953,0.097,0,0.183,0.183,579.587
108739,137211,8504,0.041,-0.959,0.096,-0.427,0.427,0.183,579.593
108732,137368,18577,0.039,-0.964,0.103,-0.427,0.427,0.183,579.597
108732,137250,8510,0.04,-0.965,0.106,-0.61,0.427,0.122,579.603
108743,137368,18577,0.04,-0.965,0.107,-0.61,0.427,0.122,579.607
108743,137249,8492,0.041,-0.96,0.111,-0.488,0.183,0.366,579.613
108734,137368,18577,0.041,-0.955,0.112,-0.488,0.183,0.366,579.617
108734,137238,8513,0.039,-0.956,0.112,-0.122,0.183,0.61,579.623
108747,137368,18577,0.038,-0.957,0.107,-0.122,0.183,0.61,579.627
108747,137233,8515,0.037,-0.959,0.107,-0.183,0.244,0.61,579.633
108750,137368,18577,0.038,-0.957,0.103,-0.183,0.244,0.61,579.636
108750,137245,8510,0.038,-0.958,0.104,-0.671,0.061,0.671,579.643
108755,137368,18577,0.038,-0.961,0.101,-0.671,0.061,0.671,579.646
108755,137248,8507,0.038,-0.963,0.098,-1.037,0.122,0.671,579.652
108762,137368,18577,0.036,-0.966,0.096,-1.037,0.122,0.671,579.656
108762,137268,8515,0.035,-0.967,0.096,-0.976,0.061,0.549,579.662
108788,137368,18577,0.037,-0.967,0.093,-0.976,0.061,0.549,579.666
108788,137260,8510,0.036,-0.968,0.094,-0.61,0.305,0.305,579.672
108761,137368,18577,0.035,-0.963,0.095,-0.61,0.305,0.305,579.676
108761,137270,8514,0.04,-0.959,0.094,-0.244,0.427,0.183,579.682
108767,137368,18577,0.04,-0.959,0.094,-0.244,0.427,0.183,579.686
108767,137251,8529,0.038,-0.961,0.108,0.244,0.366,0.061,579.692
108760,137368,18577,0.038,-0.961,0.108,0.244,0.366,0.061,579.696
108760,137261,8507,0.037,-0.963,0.097,-0.183,0.305,0.122,579.702
108755,137368,18577,0.037,-0.963,0.097,-0.183,0.305,0.122,579.706
108755,137244,8502,0.043,-0.964,0.106,-0.427,0.305,0.061,579.712
108751,137368,18577,0.043,-0.964,0.106,-0.427,0.305,0.061,579.716
108751,137245,8519,0.046,-0.958,0.109,-0.061,0.244,0.244,579.722
108765,137368,18577,0.046,-0.958,0.109,-0.061,0.244,0.244,579.726
108765,137240,8512,0.04,-0.949,0.103,0.061,0.366,0.549,579.732
108740,137368,18577,0.04,-0.949,0.103,0.061,0.366,0.549,579.735
108740,137234,8508,0.039,-0.958,0.096,-0.305,0.549,0.549,579.742
108766,137368,18577,0.039,-0.958,0.096,-0.305,0.549,0.549,579.745
108766,137257,8512,0.042,-0.96,0.09,-0.305,0.366,0.61,579.751
108753,137368,18577,0.042,-0.96,0.09,-0.305,0.366,0.61,579.755
108753,137237,8503,0.037,-0.964,0.101,-0.305,0.488,0.732,579.761
108778,137368,18577,0.037,-0.964,0.101,-0.305,0.488,0.732,579.765
108778,137252,8518,0.035,-0.968,0.098,-0.061,0.671,0.549,579.771
108759,137368,18577,0.035,-0.968,0.098,-0.061,0.671,0.549,579.775
108759,137223,8520,0.036,-0.959,0.099,0.366,0.61,0.488,579.781
108766,137368,18577,0.036,-0.959,0.099,0.366,0.61,0.488,579.785
108766,137234,8507,0.037,-0.955,0.105,0.549,0.427,0.488,579.791
108769,137368,18577,0.037,-0.955,0.105,0.549,0.427,0.488,579.795
108769,137243,8513,0.036,-0.956,0.107,0.122,0.427,0.427,579.801
108755,137368,18577,0.036,-0.956,0.107,0.122,0.427,0.427,579.805
108755,137252,8518,0.041,-0.956,0.105,-0.366,0.122,0.427,579.811
108756,137368,18577,0.041,-0.956,0.105,-0.366,0.122,0.427,579.815
108756,137223,8514,0.036,-0.962,0.101,-0.854,0.183,0.488,579.821
108738,137368,18577,0.036,-0.962,0.101,-0.854,0.183,0.488,579.825
108738,137230,8514,0.037,-0.967,0.098,-0.854,0.183,0.488,579.831
108743,137112,18577,0.038,-0.97,0.105,-0.976,0.366,0.427,579.834
108743,137213,8504,0.044,-0.968,0.102,-0.976,0.366,0.427,579.841
108740,137112,18577,0.044,-0.96,0.1,-0.305,0.183,0.488,579.844
108740,137205,8527,0.041,-0.958,0.097,-0.305,0.183,0.488,579.851
108734,137112,18577,0.039,-0.958,0.1,0.061,0.549,0.488,579.854
108734,137208,8512,0.035,-0.957,0.1,0.061,0.549,0.488,579.86
108739,137112,18577,0.041,-0.962,0.099,-0.061,0.488,0.427,579.864
108739,137199,8503,0.041,-0.965,0.099,-0.061,0.488,0.427,579.87
108740,137368,18577,0.042,-0.963,0.104,-0.183,0.366,0.488,579.874
108740,137222,8498,0.038,-0.962,0.101,-0.183,0.366,0.488,579.88
108731,137112,18577,0.037,-0.96,0.099,-0.183,0.671,0.488,579.884
108731,137198,8521,0.037,-0.963,0.103,-0.183,0.671,0.488,579.89
108714,137112,18577,0.035,-0.966,0.101,-0.244,0.549,0.366,579.894
108714,137189,8490,0.035,-0.965,0.101,-0.244,0.549,0.366,579.9
108710,137112,18577,0.039,-0.961,0.102,0,0.305,0.305,579.904
108710,137191,8506,0.038,-0.955,0.098,0,0.305,0.305,579.91
108710,137112,18577,0.036,-0.955,0.101,0.244,0.366,0.488,579.914
108710,137188,8502,0.036,-0.955,0.101,0.244,0.366,0.488,579.92
108693,137112,18577,0.037,-0.955,0.104,0.061,0.366,0.366,579.924
108693,137189,8525,0.037,-0.963,0.102,0.061,0.366,0.366,579.93
108731,137112,18577,0.04,-0.96,0.1,-0.183,0.366,0.366,579.933
108731,137165,8508,0.037,-0.957,0.103,-0.183,0.366,0.366,579.94
108707,137112,18577,0.035,-0.959,0.106,-0.549,0.366,0.61,579.943
108707,137194,8519,0.038,-0.965,0.109,-0.549,0.366,0.61,579.949
108735,137368,18577,0.04,-0.967,0.104,-0.488,0.305,0.427,579.953
108735,137218,8512,0.04,-0.963,0.106,-0.488,0.305,0.427,579.959
108753,137112,18577,0.036,-0.962,0.098,-0.671,0.427,0.366,579.963
108753,137197,8521,0.036,-0.962,0.103,-0.671,0.427,0.366,579.969
108757,137112,18577,0.036,-0.964,0.106,-0.244,0.488,0.427,579.973
108757,137207,8511,0.038,-0.96,0.104,-0.244,0.488,0.427,579.979
108742,137112,18577,0.041,-0.957,0.103,-0.427,0.183,0.244,579.983
108742,137186,8518,0.037,-0.958,0.104,-0.427,0.183,0.244,579.989
108731,137112,18577,0.036,-0.959,0.1,-0.549,0.183,0.366,579.993
108731,137199,8507,0.038,-0.961,0.097,-0.549,0.183,0.366,579.999
108730,137112,18577,0.036,-0.964,0.098,-0.854,0,0.183,580.003
108730,137163,8512,0.036,-0.967,0.096,-0.854,0,0.183,580.009
108742,137112,18577,0.04,-0.962,0.1,-0.854,-0.122,0.183,580.013
108742,137172,8515,0.037,-0.956,0.098,-0.854,-0.122,0.183,580.019
108711,137112,18577,0.036,-0.957,0.092,-0.549,-0.061,0.305,580.023
108711,137162,8530,0.036,-0.955,0.091,-0.549,-0.061,0.305,580.029
108695,137112,18577,0.036,-0.958,0.093,-0.305,0.122,0.305,580.032
108695,137165,8509,0.036,-0.963,0.089,-0.305,0.122,0.305,580.039
108704,137112,18577,0.04,-0.965,0.091,-0.549,0.244,0.366,580.042
108704,137187,8505,0.042,-0.962,0.092,-0.549,0.244,0.366,580.049
108704,137112,18577,0.04,-0.964,0.096,-0.305,0.427,0.305,580.052
108704,137172,8499,0.037,-0.968,0.101,-0.305,0.427,0.305,580.058
108705,137112,18577,0.037,-0.962,0.103,0.061,0.671,0.366,580.062
108705,137182,8507,0.035,-0.96,0.108,0.061,0.671,0.366,580.068
108722,137112,18577,0.04,-0.962,0.102,0.122,0.488,0.244,580.072
108722,137197,8520,0.04,-0.962,0.107,0.122,0.488,0.244,580.078
108746,137112,18577,0.037,-0.96,0.107,0.061,0.427,0.427,580.082
108746,137200,8494,0.034,-0.963,0.11,0.061,0.427,0.427,580.088
108750,137368,18577,0.037,-0.962,0.113,-0.183,0.122,0.488,580.092
108750,137216,8515,0.039,-0.963,0.11,-0.183,0.122,0.488,580.098
108760,137112,18577,0.039,-0.961,0.104,-0.305,-0.061,0.427,580.102
108760,137193,8513,0.041,-0.964,0.097,-0.305,-0.061,0.427,580.108
108736,137112,18577,0.038,-0.966,0.096,-0.122,0.122,0.488,580.112
108736,137206,8525,0.037,-0.967,0.093,-0.122,0.122,0.488,580.118
108743,137112,18577,0.039,-0.97,0.095,0.183,0.244,0.366,580.122
108743,137194,8505,0.038,-0.968,0.098,0.183,0.244,0.366,580.128
108749,137112,18577,0.041,-0.969,0.097,0.427,0.366,0.244,580.131
108749,137206,8518,0.04,-0.961,0.094,0.427,0.366,0.244,580.138
108781,137112,18577,0.039,-0.954,0.098,0.427,0.488,0.305,580.141
108781,137199,8505,0.038,-0.956,0.098,0.427,0.488,0.305,580.147
108756,137112,18577,0.04,-0.953,0.102,0.488,0.61,0.305,580.151
108756,137197,8514,0.037,-0.953,0.104,0.488,0.61,0.305,580.157
108748,137112,18577,0.038,-0.958,0.105,0.061,0.305,0.305,580.161
108748,137210,8514,0.041,-0.958,0.099,0.061,0.305,0.305,580.167
108744,137112,18577,0.037,-0.959,0.098,-0.305,0.244,0.427,580.171
108744,137195,8524,0.038,-0.957,0.095,-0.305,0.244,0.427,580.177
108739,137368,18577,0.04,-0.953,0.093,-0.122,0.244,0.671,580.181
108739,137216,8527,0.038,-0.958,0.094,-0.122,0.244,0.671,580.187
108737,137368,18577,0.038,-0.965,0.097,0,0.244,0.732,580.191
108737,137226,8519,0.039,-0.964,0.102,0,0.244,0.732,580.197
108750,137368,18577,0.038,-0.963,0.104,-0.183,0.305,0.732,580.201
108750,137225,8514,0.037,-0.962,0.103,-0.183,0.305,0.732,580.207
108749,137368,18577,0.035,-0.964,0.107,0,0.488,0.793,580.211
108749,137218,8492,0.038,-0.962,0.108,0,0.488,0.793,580.217
108750,137368,18577,0.037,-0.957,0.109,0.122,0.427,0.854,580.221
108750,137220,8530,0.036,-0.956,0.105,0.122,0.427,0.854,580.227
108742,137368,18577,0.039,-0.962,0.099,-0.427,0.427,0.732,580.23
108742,137241,8514,0.036,-0.968,0.104,-0.427,0.427,0.732,580.237
108758,137368,18577,0.036,-0.964,0.101,-0.732,0.366,0.793,580.24
108758,137218,8538,0.037,-0.965,0.095,-0.732,0.366,0.793,580.247
108747,137112,18577,0.036,-0.966,0.1,-0.488,0.366,0.671,580.25
108747,137207,8521,0.035,-0.963,0.099,-0.488,0.366,0.671,580.256
108755,137112,18577,0.038,-0.961,0.092,-0.244,0.366,0.427,580.26
108755,137207,8518,0.039,-0.964,0.093,-0.244,0.366,0.427,580.266
108742,137368,18577,0.039,-0.964,0.093,-0.244,0.366,0.427,580.27
108742,137219,8526,0.034,-0.966,0.095,-0.244,0.427,0.305,580.276
108745,137112,18577,0.034,-0.966,0.095,-0.244,0.427,0.305,580.28
108745,137214,8517,0.036,-0.964,0.097,0.122,0.427,0.122,580.286
108721,137368,18577,0.036,-0.964,0.097,0.122,0.427,0.122,580.29
108721,137220,8511,0.037,-0.956,0.101,0.305,0.427,0.122,580.296
108717,137112,18577,0.037,-0.956,0.101,0.305,0.427,0.122,580.3
108717,137209,8515,0.038,-0.952,0.108,0.305,0.61,0.122,580.306
108729,137112,18577,0.038,-0.952,0.108,0.305,0.61,0.122,580.31
108729,137215,8516,0.039,-0.96,0.105,-0.732,0.366,0.061,580.316
108734,137112,18577,0.039,-0.96,0.105,-0.732,0.366,0.061,580.32
108734,137201,8530,0.037,-0.963,0.103,-1.28,0.366,0.061,580.326
108766,137368,18577,0.037,-0.963,0.103,-1.28,0.366,0.061,580.329
108766,137233,8529,0.04,-0.957,0.104,-0.915,0.305,0.183,580.336
108755,137112,18577,0.04,-0.957,0.104,-0.915,0.305,0.183,580.339
108755,137208,8520,0.036,-0.956,0.1,-0.366,0.122,0.488,580.345
108760,137368,18577,0.036,-0.956,0.1,-0.366,0.122,0.488,580.349
108760,137233,8528,0.037,-0.962,0.106,-0.488,0.305,0.488,580.355
108732,137368,18577,0.037,-0.962,0.106,-0.488,0.305,0.488,580.359
108732,137217,8528,0.037,-0.964,0.099,-0.854,0,0.244,580.365
108732,137112,18577,0.037,-0.964,0.099,-0.854,0,0.244,580.369
108732,137185,8531,0.036,-0.965,0.094,-1.098,0,0.305,580.375
108674,137112,18577,0.036,-0.965,0.094,-1.098,0,0.305,580.379
108674,137148,8524,0.039,-0.964,0.096,-0.671,0.122,0.244,580.385
108614,137112,18577,0.039,-0.964,0.096,-0.671,0.122,0.244,580.389
108614,137126,8501,0.04,-0.958,0.097,-0.244,0.183,0.305,580.395
108559,137112,18577,0.04,-0.958,0.097,-0.244,0.183,0.305,580.399
108559,137078,8510,0.038,-0.962,0.094,-0.488,0.305,0.305,580.405
108522,137112,18577,0.038,-0.962,0.094,-0.488,0.305,0.305,580.409
108522,137056,8482,0.039,-0.96,0.098,-0.549,0.305,0.305,580.415
108486,137112,18577,0.04,-0.958,0.103,-0.549,0.305,0.305,580.419
108486,137043,8498,0.041,-0.959,0.102,-0.244,0.183,0.366,580.425
108433,137112,18577,0.04,-0.96,0.101,-0.244,0.183,0.366,580.428
108433,137031,8479,0.036,-0.961,0.097,-0.305,0.305,0.488,580.435
108396,137112,18577,0.034,-0.966,0.099,-0.305,0.305,0.488,580.438
108396,136981,8479,0.036,-0.965,0.102,-0.427,0.488,0.305,580.445
108371,136856,18577,0.039,-0.964,0.098,-0.427,0.488,0.305,580.448
108371,136947,8474,0.039,-0.96,0.1,-0.305,0.183,0.366,580.454
108343,136856,18577,0.037,-0.958,0.102,-0.305,0.183,0.366,580.458
108343,136934,8479,0.037,-0.957,0.101,-0.183,0.427,0.366,580.464
108307,136856,18577,0.038,-0.958,0.102,-0.183,0.427,0.366,580.468
108307,136902,8462,0.038,-0.96,0.102,-0.305,0.427,0.549,580.474
108261,136856,18577,0.039,-0.96,0.101,-0.305,0.427,0.549,580.478
108261,136864,8459,0.037,-0.963,0.103,-0.488,0.488,0.549,580.484
108208,136856,18577,0.038,-0.966,0.102,-0.488,0.488,0.549,580.488
108208,136838,8463,0.036,-0.964,0.1,-0.549,0.61,0.549,580.494
108183,136856,18577,0.04,-0.962,0.094,-0.549,0.61,0.549,580.498
108183,136846,8460,0.038,-0.961,0.1,-0.366,0.488,0.488,580.504
108150,136856,18577,0.034,-0.962,0.099,-0.366,0.488,0.488,580.508
108150,136805,8440,0.036,-0.965,0.093,-0.305,0.61,0.488,580.514
108108,136856,18577,0.036,-0.961,0.095,-0.305,0.61,0.488,580.518
108108,136748,8444,0.037,-0.963,0.099,-0.244,0.427,0.488,580.524
108082,136856,18577,0.042,-0.959,0.101,-0.244,0.427,0.488,580.527
108082,136744,8460,0.04,-0.957,0.102,-0.122,0.427,0.488,580.534
108079,136856,18577,0.036,-0.958,0.098,-0.122,0.427,0.488,580.537
108079,136718,8428,0.037,-0.962,0.1,-0.549,0.549,0.488,580.544
108051,136856,18577,0.038,-0.965,0.099,-0.549,0.549,0.488,580.547
108051,136742,8436,0.039,-0.963,0.101,-0.122,0.427,0.488,580.553
108069,136856,18577,0.04,-0.958,0.095,-0.122,0.427,0.488,580.557
108069,136745,8429,0.039,-0.954,0.096,0.061,0.549,0.427,580.563
108076,136856,18577,0.037,-0.958,0.102,0.061,0.549,0.427,580.567
108076,136750,8451,0.032,-0.964,0.1,0.122,0.793,0.488,580.573
108091,136856,18577,0.038,-0.965,0.101,0.122,0.793,0.488,580.577
108091,136775,8430,0.036,-0.966,0.1,-0.061,0.61,0.366,580.583
108088,136856,18577,0.04,-0.965,0.095,-0.061,0.61,0.366,580.587
108088,136773,8445,0.038,-0.964,0.1,-0.061,0.732,0.305,580.593
108138,136856,18577,0.033,-0.964,0.105,-0.061,0.732,0.305,580.597
108138,136793,8453,0.033,-0.968,0.102,-0.183,0.732,0.183,580.603
108139,136856,18577,0.037,-0.97,0.1,-0.183,0.732,0.183,580.607
108139,136780,8449,0.038,-0.968,0.103,-0.305,0.427,-0.061,580.613
108147,136856,18577,0.034,-0.963,0.105,-0.305,0.427,-0.061,580.617
108147,136794,8442,0.036,-0.96,0.1,0,0.305,0.122,580.623
108144,136856,18577,0.038,-0.957,0.101,0,0.305,0.122,580.626
108144,136795,8456,0.039,-0.952,0.103,0.183,0.183,0.244,580.633
108170,136856,18577,0.038,-0.946,0.105,0.183,0.183,0.244,580.636
108170,136789,8439,0.035,-0.949,0.102,-0.122,0.061,0.366,580.643
108185,136856,18577,0.038,-0.952,0.101,-0.122,0.061,0.366,580.646
108185,136835,8458,0.037,-0.96,0.101,-0.732,0,0.427,580.652
108200,136856,18577,0.037,-0.963,0.099,-0.732,0,0.427,580.656
108200,136798,8458,0.036,-0.965,0.1,-1.037,0.122,0.427,580.662
108203,136856,18577,0.036,-0.967,0.093,-1.037,0.122,0.427,580.666
108203,136817,8451,0.034,-0.972,0.096,-0.732,0.366,0.366,580.672
108223,136856,18577,0.04,-0.973,0.095,-0.732,0.366,0.366,580.676
108223,136833,8447,0.038,-0.973,0.101,-0.427,0.427,0.183,580.682
108231,136856,18577,0.038,-0.965,0.098,-0.427,0.427,0.183,580.686
108231,136869,8478,0.037,-0.962,0.1,0.061,0.366,0.183,580.692
108271,136856,18577,0.039,-0.964,0.1,0.061,0.366,0.183,580.696
108271,136859,8474,0.036,-0.963,0.099,0.183,0.427,0.061,580.702
108267,136856,18577,0.036,-0.96,0.099,0.183,0.427,0.061,580.706
108267,136848,8461,0.038,-0.962,0.101,0.183,0.366,0.061,580.712
108263,136856,18577,0.039,-0.954,0.103,0.183,0.366,0.061,580.716
108263,136875,8464,0.039,-0.95,0.102,0.366,0.305,0.122,580.722
108284,136856,18577,0.039,-0.952,0.1,0.366,0.305,0.122,580.725
108284,136870,8465,0.041,-0.954,0.098,0.244,0.427,0.305,580.732
108296,136856,18577,0.035,-0.957,0.096,0.244,0.427,0.305,580.735
108296,136887,8465,0.036,-0.961,0.103,0.061,0.366,0.488,580.742
108321,136856,18577,0.037,-0.962,0.101,0.061,0.366,0.488,580.745
108321,136879,8471,0.039,-0.962,0.094,0.366,0.366,0.549,580.751
108326,136856,18577,0.037,-0.963,0.094,0.366,0.366,0.549,580.755
108326,136896,8462,0.036,-0.964,0.095,0.427,0.61,0.61,580.761
108331,136856,18577,0.039,-0.965,0.097,0.427,0.61,0.61,580.765
108331,136857,8467,0.042,-0.966,0.098,0.183,0.671,0.427,580.771
108353,136856,18577,0.038,-0.969,0.1,0.183,0.671,0.427,580.775
108353,136893,8467,0.035,-0.972,0.1,0.366,0.61,0.244,580.781
108376,136856,18577,0.037,-0.972,0.103,0.366,0.61,0.244,580.785
108376,136902,8474,0.035,-0.963,0.107,0.671,0.671,0.244,580.791
108402,136856,18577,0.038,-0.96,0.103,0.671,0.671,0.244,580.795
108402,136913,8483,0.04,-0.961,0.104,0.671,0.61,0.122,580.801
108400,136856,18577,0.036,-0.959,0.109,0.671,0.61,0.122,580.805
108400,136906,8468,0.038,-0.961,0.105,0.366,0.366,0.061,580.811
108372,136856,18577,0.04,-0.956,0.104,0.366,0.366,0.061,580.815
108372,136905,8495,0.04,-0.95,0.103,0.244,0.122,0.122,580.821
108384,136856,18577,0.041,-0.95,0.102,0.244,0.122,0.122,580.824
108384,136918,8496,0.034,-0.95,0.1,0.061,0.183,0.244,580.831
108370,136856,18577,0.039,-0.957,0.093,0.061,0.183,0.244,580.834
108370,136866,8492,0.04,-0.955,0.093,-0.366,0.305,0.305,580.841
108369,136856,18577,0.04,-0.957,0.095,-0.366,0.305,0.305,580.844
108369,136882,8487,0.038,-0.96,0.093,-0.549,0.244,0.427,580.85
108372,136856,18577,0.037,-0.962,0.09,-0.549,0.244,0.427,580.854
108372,136863,8503,0.036,-0.962,0.09,-0.183,0.305,0.488,580.86
108398,136856,18577,0.036,-0.962,0.09,-0.183,0.305,0.488,580.864
108398,136889,8474,0.036,-0.96,0.099,0.183,0.366,0.549,580.87
108406,136856,18577,0.036,-0.96,0.099,0.183,0.366,0.549,580.874
108406,136880,8484,0.039,-0.967,0.106,0.122,0.488,0.427,580.88
108417,136856,18577,0.039,-0.967,0.106,0.122,0.488,0.427,580.884
108417,136910,8506,0.037,-0.961,0.107,-0.183,0.61,0.427,580.89
108434,136856,18577,0.037,-0.961,0.107,-0.183,0.61,0.427,580.894
108434,136933,8488,0.037,-0.961,0.111,-0.061,0.366,0.549,580.9
108441,136856,18577,0.037,-0.961,0.111,-0.061,0.366,0.549,580.904
108441,136909,8498,0.042,-0.961,0.108,0,0,0.732,580.91
108472,136856,18577,0.042,-0.961,0.108,0,0,0.732,580.914
108472,136924,8481,0.038,-0.962,0.099,-0.183,0.122,0.671,580.92
108432,136856,18577,0.038,-0.962,0.099,-0.183,0.122,0.671,580.923
108432,136908,8479,0.037,-0.961,0.098,0,0.305,0.61,580.93
108458,136856,18577,0.037,-0.961,0.098,0,0.305,0.61,580.933
108458,136903,8489,0.04,-0.962,0.094,0.061,0.366,0.488,580.94
108440,136856,18577,0.04,-0.962,0.094,0.061,0.366,0.488,580.943
108440,136894,8501,0.036,-0.968,0.09,-0.122,0.488,0.366,580.949
108455,136856,18577,0.036,-0.968,0.09,-0.122,0.488,0.366,580.953
108455,136897,8493,0.035,-0.97,0.098,0,0.793,0.305,580.959
108461,136856,18577,0.035,-0.97,0.098,0,0.793,0.305,580.963
108461,136922,8498,0.036,-0.961,0.099,0.244,0.793,0.183,580.969
108478,136856,18577,0.036,-0.961,0.099,0.244,0.793,0.183,580.973
108478,136912,8494,0.038,-0.959,0.101,0.366,0.793,0.183,580.979
108487,136856,18577,0.038,-0.959,0.101,0.366,0.793,0.183,580.983
108487,136945,8496,0.036,-0.959,0.106,0.366,0.671,0.183,580.989
108501,136856,18577,0.036,-0.959,0.106,0.366,0.671,0.183,580.993
108501,136921,8494,0.041,-0.954,0.107,0.671,0.488,0.305,580.999
108512,136856,18577,0.041,-0.954,0.107,0.671,0.488,0.305,581.003
108512,136951,8507,0.041,-0.947,0.106,0.671,0.488,0.305,581.009
108492,136856,18577,0.038,-0.95,0.102,0.061,0.122,0.549,581.013
108492,136925,8485,0.041,-0.957,0.096,0.061,0.122,0.549,581.019
108484,136856,18577,0.042,-0.961,0.098,-0.427,0.244,0.61,581.022
108484,136921,8501,0.04,-0.961,0.101,-0.427,0.244,0.61,581.029
108498,136856,18577,0.04,-0.966,0.101,-0.427,0.305,0.793,581.032
108498,136913,8501,0.04,-0.963,0.1,-0.427,0.305,0.793,581.038
108496,136856,18577,0.035,-0.962,0.099,-0.244,0.61,0.671,581.042
108496,136917,8484,0.033,-0.968,0.101,-0.244,0.61,0.671,581.048
108493,136856,18577,0.037,-0.971,0.097,-0.549,0.732,0.427,581.052
108493,136945,8508,0.038,-0.971,0.095,-0.549,0.732,0.427,581.058
108502,136856,18577,0.035,-0.97,0.092,-0.427,0.61,0.366,581.062
108502,136909,8482,0.036,-0.967,0.092,-0.427,0.61,0.366,581.068
108466,136856,18577,0.036,-0.965,0.099,0.244,0.732,0.183,581.072
108466,136915,8508,0.039,-0.961,0.1,0.244,0.732,0.183,581.078
108464,136856,18577,0.042,-0.953,0.101,0.488,0.732,0,581.082
108464,136900,8484,0.041,-0.951,0.1,0.488,0.732,0,581.088
108443,136856,18577,0.037,-0.953,0.103,0.366,0.854,0.183,581.092
108443,136888,8481,0.036,-0.957,0.101,0.366,0.854,0.183,581.098
108422,136856,18577,0.039,-0.958,0.101,0.183,0.793,0.427,581.102
108422,136859,8477,0.037,-0.956,0.104,0.183,0.793,0.427,581.108
108389,136856,18577,0.038,-0.956,0.105,0,0.549,0.488,581.112
108389,136867,8493,0.038,-0.959,0.104,0,0.549,0.488,581.118
108408,136856,18577,0.036,-0.963,0.102,0.061,0.61,0.671,581.121
108408,136858,8491,0.033,-0.965,0.105,0.061,0.61,0.671,581.128
108411,136856,18577,0.03,-0.964,0.102,0,0.671,0.671,581.131
108411,136858,8485,0.036,-0.964,0.104,0,0.671,0.671,581.138
108430,136856,18577,0.038,-0.964,0.103,0.061,0.366,0.61,581.141
108430,136886,8495,0.038,-0.965,0.099,0.061,0.366,0.61,581.147
