110535,137624,18577,0.064,-0.959,-0.047,-1.22,-0.183,0.122,299.896
110535,137627,8858,0.064,-0.958,-0.05,-1.463,-0.122,0.244,299.902
110529,137624,18577,0.066,-0.957,-0.058,-1.463,-0.122,0.244,299.906
110529,137615,8866,0.062,-0.958,-0.061,-1.22,-0.061,0.488,299.912
110531,137624,18577,0.061,-0.966,-0.057,-1.22,-0.061,0.488,299.915
110531,137643,8861,0.062,-0.966,-0.056,-0.61,0.244,0.549,299.922
110523,137624,18577,0.06,-0.963,-0.061,-0.61,0.244,0.549,299.925
110523,137629,8853,0.058,-0.967,-0.055,-0.244,0.427,0.549,299.932
110542,137624,18577,0.057,-0.969,-0.052,-0.244,0.427,0.549,299.935
110542,137646,8857,0.058,-0.967,-0.056,0.183,0.61,0.366,299.941
110539,137624,18577,0.059,-0.965,-0.049,0.183,0.61,0.366,299.945
110539,137636,8843,0.059,-0.965,-0.043,0.854,0.549,0.305,299.951
110522,137624,18577,0.061,-0.963,-0.049,0.854,0.549,0.305,299.955
110522,137648,8860,0.059,-0.953,-0.049,0.854,0.366,0.305,299.961
110548,137624,18577,0.059,-0.954,-0.046,0.854,0.366,0.305,299.965
110548,137637,8853,0.061,-0.955,-0.051,0.427,0.244,0.305,299.971
110537,137624,18577,0.061,-0.954,-0.053,0.427,0.244,0.305,299.975
110537,137625,8862,0.062,-0.954,-0.056,-0.122,0.183,0.305,299.981
110533,137624,18577,0.061,-0.957,-0.054,-0.122,0.183,0.305,299.985
110533,137629,8868,0.064,-0.964,-0.054,-0.366,0.366,0.366,299.991
110556,137624,18577,0.063,-0.965,-0.053,-0.366,0.366,0.366,299.995
110556,137636,8860,0.062,-0.962,-0.051,-0.244,0.61,0.488,300.001
110546,137624,18577,0.061,-0.96,-0.052,-0.244,0.61,0.488,300.005
110546,137665,8871,0.061,-0.96,-0.051,-0.122,0.732,0.61,300.011
110562,137624,18577,0.062,-0.963,-0.046,-0.122,0.732,0.61,300.014
110562,137669,8863,0.063,-0.96,-0.048,0.183,0.854,0.671,300.021
110582,137624,18577,0.067,-0.964,-0.05,0.183,0.854,0.671,300.024
110582,137706,8886,0.063,-0.968,-0.047,0.427,0.976,0.732,300.03
110582,137880,18577,0.06,-0.961,-0.043,0.427,0.976,0.732,300.034
110582,137732,8873,0.061,-0.957,-0.045,0.671,0.976,0.854,300.04
110592,137624,18577,0.062,-0.955,-0.04,0.671,0.976,0.854,300.044
110592,137698,8867,0.062,-0.956,-0.04,0.488,0.793,0.976,300.05
110579,137624,18577,0.062,-0.956,-0.04,0.488,0.793,0.976,300.054
110579,137693,8870,0.06,-0.958,-0.042,0.061,0.671,0.976,300.06
110598,137624,18577,0.06,-0.958,-0.042,0.061,0.671,0.976,300.064
110598,137688,8849,0.054,-0.969,-0.048,-0.427,0.732,0.732,300.07
110553,137624,18577,0.054,-0.969,-0.048,-0.427,0.732,0.732,300.074
110553,137671,8864,0.053,-0.968,-0.056,-0.366,0.732,0.549,300.08
110521,137624,18577,0.053,-0.968,-0.056,-0.366,0.732,0.549,300.084
110521,137661,8866,0.06,-0.968,-0.057,0.061,0.61,0.244,300.09
110518,137624,18577,0.06,-0.968,-0.057,0.061,0.61,0.244,300.094
110518,137649,8855,0.058,-0.965,-0.052,0.61,0.671,0.061,300.1
110508,137624,18577,0.058,-0.965,-0.052,0.61,0.671,0.061,300.104
110508,137658,8866,0.059,-0.953,-0.042,0.915,0.671,0,300.11
110515,137624,18577,0.059,-0.953,-0.042,0.915,0.671,0,300.113
110515,137649,8868,0.063,-0.952,-0.046,0.427,0.61,0.122,300.12
110502,137624,18577,0.063,-0.952,-0.046,0.427,0.61,0.122,300.123
110502,137662,8866,0.062,-0.956,-0.043,-0.183,0.732,0.244,300.13
110522,137624,18577,0.062,-0.956,-0.043,-0.183,0.732,0.244,300.133
110522,137673,8855,0.062,-0.954,-0.049,-0.244,0.488,0.366,300.139
110503,137624,18577,0.062,-0.954,-0.049,-0.244,0.488,0.366,300.143
110503,137658,8859,0.06,-0.963,-0.046,-0.549,0.488,0.549,300.149
110526,137624,18577,0.06,-0.963,-0.046,-0.549,0.488,0.549,300.153
110526,137665,8851,0.059,-0.966,-0.044,-0.488,0.366,0.488,300.159
110525,137624,18577,0.059,-0.966,-0.044,-0.488,0.366,0.488,300.163
110525,137694,8858,0.06,-0.968,-0.045,-0.61,0.305,0.549,300.169
110513,137624,18577,0.06,-0.968,-0.045,-0.61,0.305,0.549,300.173
110513,137694,8854,0.057,-0.966,-0.044,-0.549,0.366,0.427,300.179
110497,137624,18577,0.057,-0.966,-0.044,-0.549,0.366,0.427,300.183
110497,137652,8861,0.061,-0.957,-0.045,-0.183,0.244,0.427,300.189
110501,137624,18577,0.061,-0.957,-0.045,-0.183,0.244,0.427,300.193
110501,137660,8851,0.056,-0.957,-0.05,-0.183,0.244,0.427,300.199
110491,137624,18577,0.06,-0.96,-0.05,-0.366,0.305,0.305,300.203
110491,137674,8844,0.057,-0.964,-0.051,-0.366,0.305,0.305,300.209
110499,137624,18577,0.058,-0.963,-0.051,-0.427,0.244,0.366,300.212
110499,137665,8854,0.059,-0.954,-0.048,-0.427,0.244,0.366,300.219
110464,137624,18577,0.059,-0.951,-0.051,-0.366,0.183,0.305,300.222
110464,137673,8861,0.061,-0.953,-0.052,-0.366,0.183,0.305,300.229
110486,137624,18577,0.062,-0.957,-0.05,-0.488,0.244,0.366,300.232
110486,137679,8834,0.061,-0.954,-0.048,-0.488,0.244,0.366,300.238
110482,137624,18577,0.059,-0.958,-0.049,-0.732,0.244,0.366,300.242
110482,137665,8859,0.059,-0.962,-0.053,-0.732,0.244,0.366,300.248
110487,137624,18577,0.062,-0.967,-0.053,-0.732,0.183,0.366,300.252
110487,137688,8842,0.057,-0.972,-0.054,-0.732,0.183,0.366,300.258
110490,137624,18577,0.059,-0.97,-0.047,-0.366,0.244,0.305,300.262
110490,137696,8860,0.061,-0.968,-0.049,-0.366,0.244,0.305,300.268
110523,137624,18577,0.06,-0.964,-0.048,-0.061,0.366,0.305,300.272
110523,137718,8857,0.061,-0.964,-0.049,-0.061,0.366,0.305,300.278
110523,137624,18577,0.06,-0.966,-0.051,0.122,0.366,0.183,300.282
110523,137724,8864,0.062,-0.962,-0.048,0.122,0.366,0.183,300.288
110541,137880,18577,0.062,-0.957,-0.05,0.183,0.305,0.183,300.292
110541,137734,8851,0.059,-0.955,-0.049,0.183,0.305,0.183,300.298
110544,137880,18577,0.06,-0.954,-0.049,0.183,0.366,0.183,300.302
110544,137736,8871,0.062,-0.952,-0.056,0.183,0.366,0.183,300.308
110563,137880,18577,0.059,-0.954,-0.05,0.183,0.427,0.305,300.311
110563,137768,8858,0.064,-0.958,-0.045,0.183,0.427,0.305,300.318
110558,137880,18577,0.063,-0.96,-0.046,0.122,0.427,0.366,300.321
110558,137754,8857,0.062,-0.96,-0.05,0.122,0.427,0.366,300.328
110545,137880,18577,0.06,-0.962,-0.044,0.061,0.488,0.549,300.331
110545,137739,8858,0.057,-0.964,-0.042,0.061,0.488,0.549,300.337
110531,137880,18577,0.061,-0.964,-0.046,0.061,0.427,0.488,300.341
110531,137743,8836,0.063,-0.963,-0.056,0.061,0.427,0.488,300.347
110521,137624,18577,0.061,-0.968,-0.052,0.061,0.549,0.488,300.351
110521,137714,8857,0.06,-0.969,-0.044,0.061,0.549,0.488,300.357
110533,137880,18577,0.06,-0.966,-0.049,0.366,0.671,0.427,300.361
110533,137738,8850,0.059,-0.961,-0.053,0.366,0.671,0.427,300.367
110518,137624,18577,0.06,-0.961,-0.054,0.305,0.671,0.305,300.371
110518,137716,8839,0.059,-0.96,-0.05,0.305,0.671,0.305,300.377
110529,137880,18577,0.061,-0.958,-0.052,0.244,0.732,0.244,300.381
110529,137745,8851,0.063,-0.962,-0.053,0.244,0.732,0.244,300.387
110539,137880,18577,0.061,-0.956,-0.048,0.427,0.793,0.305,300.391
110539,137764,8857,0.058,-0.957,-0.047,0.427,0.793,0.305,300.397
110552,137880,18577,0.057,-0.958,-0.047,0.244,0.793,0.427,300.401
110552,137787,8853,0.058,-0.959,-0.045,0.244,0.793,0.427,300.407
110562,137880,18577,0.061,-0.96,-0.046,0.061,0.61,0.366,300.41
110562,137772,8844,0.059,-0.964,-0.044,0.061,0.61,0.366,300.417
110544,137880,18577,0.058,-0.963,-0.042,0,0.488,0.427,300.42
110544,137780,8868,0.06,-0.959,-0.046,0,0.488,0.427,300.427
110555,137880,18577,0.061,-0.96,-0.045,0.122,0.305,0.488,300.43
110555,137792,8856,0.059,-0.962,-0.047,0.122,0.305,0.488,300.436
110551,137880,18577,0.059,-0.963,-0.05,0,0.366,0.427,300.44
110551,137759,8851,0.06,-0.964,-0.049,0,0.366,0.427,300.446
110543,137880,18577,0.058,-0.963,-0.05,-0.122,0.366,0.366,300.45
110543,137780,8841,0.057,-0.962,-0.045,-0.122,0.366,0.366,300.456
110533,137880,18577,0.059,-0.958,-0.05,0,0.427,0.305,300.46
110533,137743,8855,0.059,-0.961,-0.051,0,0.427,0.305,300.466
110530,137880,18577,0.058,-0.962,-0.052,0,0.488,0.244,300.47
110530,137744,8859,0.056,-0.962,-0.052,0,0.488,0.244,300.476
110531,137624,18577,0.058,-0.959,-0.048,0,0.366,0.122,300.48
110531,137719,8858,0.062,-0.962,-0.043,0,0.366,0.122,300.486
110520,137880,18577,0.065,-0.957,-0.044,0.061,0.427,0.122,300.49
110520,137731,8851,0.062,-0.954,-0.044,0.061,0.427,0.122,300.496
110510,137880,18577,0.062,-0.959,-0.048,-0.183,0.549,0.183,300.5
110510,137730,8871,0.058,-0.962,-0.049,-0.183,0.549,0.183,300.506
110510,137624,18577,0.06,-0.966,-0.048,-0.366,0.427,0.244,300.509
110510,137707,8857,0.062,-0.968,-0.049,-0.366,0.427,0.244,300.516
110509,137624,18577,0.058,-0.962,-0.045,-0.305,0.305,0.305,300.519
110509,137693,8855,0.059,-0.958,-0.047,-0.305,0.305,0.305,300.526
110492,137624,18577,0.056,-0.958,-0.05,-0.122,0.305,0.305,300.529
110492,137710,8857,0.057,-0.958,-0.046,-0.122,0.305,0.305,300.535
110480,137624,18577,0.059,-0.957,-0.044,-0.061,0.061,0.305,300.539
110480,137685,8845,0.063,-0.956,-0.053,-0.061,0.061,0.305,300.545
110479,137624,18577,0.061,-0.959,-0.047,-0.366,0.061,0.305,300.549
110479,137704,8856,0.06,-0.958,-0.047,-0.366,0.061,0.305,300.555
110496,137624,18577,0.06,-0.962,-0.05,-0.427,0.122,0.427,300.559
110496,137700,8841,0.062,-0.964,-0.052,-0.427,0.122,0.427,300.565
110491,137624,18577,0.061,-0.966,-0.058,-0.61,0.061,0.366,300.569
110491,137698,8847,0.06,-0.969,-0.05,-0.61,0.061,0.366,300.575
110510,137624,18577,0.061,-0.968,-0.048,-0.427,0.183,0.183,300.579
110510,137722,8855,0.061,-0.967,-0.051,-0.427,0.183,0.183,300.585
110498,137624,18577,0.065,-0.963,-0.047,0,0.427,0.183,300.589
110498,137689,8852,0.064,-0.962,-0.045,0,0.427,0.183,300.595
110501,137624,18577,0.064,-0.965,-0.05,0.183,0.427,0.244,300.599
110501,137690,8857,0.064,-0.967,-0.048,0.183,0.427,0.244,300.605
110487,137624,18577,0.065,-0.965,-0.048,0.305,0.671,0.427,300.608
110487,137696,8852,0.063,-0.957,-0.047,0.305,0.671,0.427,300.615
110510,137624,18577,0.061,-0.955,-0.048,0.427,0.61,0.488,300.618
110510,137703,8848,0.059,-0.952,-0.048,0.427,0.61,0.488,300.625
110509,137624,18577,0.061,-0.954,-0.051,0.122,0.549,0.488,300.628
110509,137701,8847,0.062,-0.955,-0.055,0.122,0.549,0.488,300.634
110516,137624,18577,0.062,-0.955,-0.055,0.122,0.549,0.488,300.638
110516,137701,8849,0.057,-0.962,-0.052,-0.122,0.488,0.427,300.644
110505,137624,18577,0.057,-0.962,-0.052,-0.122,0.488,0.427,300.648
110505,137678,8853,0.058,-0.959,-0.052,0.061,0.549,0.427,300.654
110510,137624,18577,0.058,-0.959,-0.052,0.061,0.549,0.427,300.658
110510,137702,8856,0.058,-0.961,-0.053,0.183,0.61,0.427,300.664
110527,137624,18577,0.058,-0.961,-0.053,0.183,0.61,0.427,300.668
110527,137712,8864,0.061,-0.958,-0.043,0.488,0.549,0.244,300.674
110524,137624,18577,0.061,-0.958,-0.043,0.488,0.549,0.244,300.678
110524,137726,8854,0.06,-0.96,-0.042,0.183,0.61,0.366,300.684
110542,137880,18577,0.06,-0.96,-0.042,0.183,0.61,0.366,300.688
110542,137729,8843,0.06,-0.964,-0.041,-0.183,0.549,0.366,300.694
110536,137624,18577,0.06,-0.964,-0.041,-0.183,0.549,0.366,300.698
110536,137708,8859,0.061,-0.959,-0.045,-0.183,0.366,0.427,300.704
110533,137624,18577,0.061,-0.959,-0.045,-0.183,0.366,0.427,300.707
110533,137715,8844,0.057,-0.96,-0.049,-0.305,0.427,0.549,300.714
110531,137624,18577,0.057,-0.96,-0.049,-0.305,0.427,0.549,300.717
110531,137725,8861,0.06,-0.972,-0.053,-0.427,0.427,0.488,300.724
110516,137624,18577,0.06,-0.972,-0.053,-0.427,0.427,0.488,300.727
110516,137701,8874,0.059,-0.969,-0.052,0.061,0.427,0.427,300.733
110535,137624,18577,0.059,-0.969,-0.052,0.061,0.427,0.427,300.737
110535,137705,8863,0.055,-0.968,-0.044,0.61,0.61,0.183,300.743
110534,137624,18577,0.055,-0.968,-0.044,0.61,0.61,0.183,300.747
110534,137712,8863,0.064,-0.96,-0.045,0.732,0.549,0.061,300.753
110556,137624,18577,0.064,-0.96,-0.045,0.732,0.549,0.061,300.757
110556,137727,8854,0.06,-0.954,-0.046,0.61,0.427,-0.061,300.763
110551,137624,18577,0.06,-0.954,-0.046,0.61,0.427,-0.061,300.767
110551,137707,8847,0.061,-0.957,-0.051,-0.061,0.427,0,300.773
110537,137880,18577,0.061,-0.957,-0.051,-0.061,0.427,0,300.777
110537,137759,8862,0.062,-0.958,-0.051,-0.244,0.427,0.061,300.783
110552,137880,18577,0.06,-0.957,-0.048,-0.244,0.427,0.061,300.787
110552,137756,8852,0.061,-0.956,-0.051,-0.305,0.366,0.122,300.793
110551,137880,18577,0.06,-0.958,-0.048,-0.305,0.366,0.122,300.797
110551,137739,8864,0.058,-0.959,-0.047,-0.488,0.305,0.183,300.803
110534,137880,18577,0.062,-0.963,-0.047,-0.488,0.305,0.183,300.806
110534,137730,8867,0.061,-0.964,-0.049,-0.366,0.305,0.183,300.813
110545,137624,18577,0.063,-0.964,-0.045,-0.366,0.305,0.183,300.816
110545,137710,8846,0.062,-0.964,-0.049,-0.244,0.183,0.305,300.823
110548,137880,18577,0.06,-0.961,-0.046,-0.244,0.183,0.305,300.826
110548,137731,8860,0.064,-0.964,-0.047,-0.183,0.183,0.244,300.832
110518,137880,18577,0.064,-0.96,-0.056,-0.183,0.183,0.244,300.836
110518,137732,8867,0.057,-0.958,-0.052,0,0.366,0.122,300.842
110518,137624,18577,0.06,-0.962,-0.046,0,0.366,0.122,300.846
110518,137713,8862,0.064,-0.959,-0.046,0.061,0.366,0.183,300.852
110531,137624,18577,0.065,-0.958,-0.048,0.061,0.366,0.183,300.856
110531,137713,8870,0.062,-0.957,-0.046,0,0.366,0.244,300.862
110531,137624,18577,0.062,-0.958,-0.047,0,0.366,0.244,300.866
110531,137716,8869,0.063,-0.96,-0.052,0,0.488,0.366,300.872
110536,137624,18577,0.06,-0.961,-0.05,0,0.488,0.366,300.876
110536,137705,8863,0.06,-0.963,-0.049,-0.061,0.427,0.366,300.882
110523,137880,18577,0.061,-0.962,-0.048,-0.061,0.427,0.366,300.886
110523,137728,8863,0.061,-0.959,-0.051,-0.061,0.488,0.427,300.892
110527,137624,18577,0.063,-0.959,-0.05,-0.061,0.488,0.427,300.896
110527,137712,8873,0.063,-0.962,-0.051,0,0.61,0.366,300.902
110531,137880,18577,0.063,-0.967,-0.05,0,0.61,0.366,300.905
110531,137734,8865,0.064,-0.971,-0.046,0.244,0.732,0.305,300.912
110556,137624,18577,0.063,-0.964,-0.046,0.244,0.732,0.305,300.915
110556,137715,8866,0.065,-0.962,-0.042,0.366,0.732,0.488,300.922
110532,137880,18577,0.064,-0.959,-0.044,0.366,0.732,0.488,300.925
110532,137741,8879,0.064,-0.959,-0.046,0.366,0.671,0.61,300.931
110549,137880,18577,0.061,-0.957,-0.046,0.366,0.671,0.61,300.935
110549,137749,8865,0.062,-0.955,-0.048,0.244,0.549,0.671,300.941
110552,137880,18577,0.064,-0.954,-0.046,0.244,0.549,0.671,300.945
110552,137749,8881,0.06,-0.953,-0.046,-0.122,0.427,0.732,300.951
110552,137880,18577,0.061,-0.954,-0.047,-0.122,0.427,0.732,300.955
110552,137742,8873,0.059,-0.956,-0.047,-0.305,0.366,0.671,300.961
110537,137880,18577,0.056,-0.959,-0.045,-0.305,0.366,0.671,300.965
110537,137768,8862,0.056,-0.961,-0.04,-0.488,0.244,0.671,300.971
110535,137880,18577,0.059,-0.959,-0.048,-0.488,0.244,0.671,300.975
110535,137735,8868,0.059,-0.961,-0.047,-0.976,0.244,0.549,300.981
110524,137880,18577,0.057,-0.965,-0.04,-0.976,0.244,0.549,300.985
110524,137741,8864,0.06,-0.964,-0.045,-0.854,0.122,0.427,300.991
110509,137880,18577,0.059,-0.966,-0.047,-0.854,0.122,0.427,300.995
110509,137744,8850,0.058,-0.963,-0.041,-0.793,0.122,0.366,301.001
110481,137624,18577,0.062,-0.966,-0.043,-0.793,0.122,0.366,301.004
110481,137714,8854,0.06,-0.966,-0.051,-0.549,0.122,0.244,301.011
110493,137880,18577,0.061,-0.962,-0.05,-0.549,0.122,0.244,301.014
110493,137732,8868,0.06,-0.966,-0.048,-0.305,0.244,0.183,301.021
110518,137880,18577,0.063,-0.964,-0.053,-0.305,0.244,0.183,301.024
110518,137736,8874,0.063,-0.959,-0.056,-0.183,0.305,0.244,301.03
110516,137880,18577,0.063,-0.96,-0.052,-0.183,0.305,0.244,301.034
110516,137745,8871,0.062,-0.962,-0.053,0.122,0.488,0.244,301.04
110514,137880,18577,0.064,-0.957,-0.05,0.122,0.488,0.244,301.044
110514,137756,8861,0.065,-0.956,-0.048,0.305,0.549,0.305,301.05
110530,137880,18577,0.063,-0.955,-0.048,0.305,0.549,0.305,301.054
110530,137778,8869,0.061,-0.958,-0.048,0.305,0.549,0.366,301.06
110522,137880,18577,0.06,-0.959,-0.044,0.305,0.549,0.366,301.064
110522,137763,8862,0.057,-0.964,-0.045,-0.122,0.549,0.366,301.07
110530,137880,18577,0.057,-0.964,-0.046,-0.122,0.549,0.366,301.074
110530,137749,8872,0.058,-0.96,-0.045,-0.305,0.305,0.305,301.08
110535,137880,18577,0.058,-0.958,-0.043,-0.305,0.305,0.305,301.084
110535,137774,8865,0.06,-0.958,-0.047,-0.549,-0.061,0.366,301.09
110543,137880,18577,0.061,-0.957,-0.049,-0.549,-0.061,0.366,301.094
110543,137779,8853,0.061,-0.963,-0.045,-0.671,-0.061,0.244,301.1
110532,137880,18577,0.06,-0.966,-0.048,-0.671,-0.061,0.244,301.103
110532,137796,8863,0.061,-0.966,-0.051,-0.732,-0.061,0.305,301.11
110548,137880,18577,0.063,-0.965,-0.049,-0.732,-0.061,0.305,301.113
110548,137778,8874,0.063,-0.963,-0.043,-0.793,0.061,0.305,301.12
110542,137880,18577,0.062,-0.963,-0.049,-0.793,0.061,0.305,301.123
110542,137792,8870,0.061,-0.964,-0.052,-0.61,0.061,0.427,301.129
110548,137880,18577,0.06,-0.963,-0.047,-0.61,0.061,0.427,301.133
110548,137808,8856,0.062,-0.959,-0.056,-0.427,0.244,0.427,301.139
110553,137880,18577,0.062,-0.962,-0.054,-0.427,0.244,0.427,301.143
110553,137781,8868,0.061,-0.967,-0.049,-0.244,0.549,0.305,301.149
110553,137880,18577,0.058,-0.964,-0.054,-0.244,0.549,0.305,301.153
110553,137791,8866,0.059,-0.964,-0.055,0.244,0.732,0.305,301.159
110541,137880,18577,0.063,-0.962,-0.052,0.244,0.732,0.305,301.163
110541,137803,8865,0.062,-0.959,-0.051,0.671,0.793,0.305,301.169
110551,137880,18577,0.059,-0.961,-0.049,0.671,0.793,0.305,301.173
110551,137806,8858,0.062,-0.961,-0.047,0.732,0.793,0.305,301.179
110558,137880,18577,0.062,-0.956,-0.045,0.732,0.793,0.305,301.183
110558,137816,8862,0.061,-0.951,-0.047,0.732,0.671,0.427,301.189
110534,137880,18577,0.06,-0.949,-0.044,0.732,0.671,0.427,301.193
110534,137806,8857,0.059,-0.951,-0.043,0.366,0.488,0.427,301.199
110550,137880,18577,0.061,-0.949,-0.05,0.366,0.488,0.427,301.202
110550,137783,8869,0.061,-0.959,-0.05,-0.244,0.305,0.549,301.209
110552,137880,18577,0.064,-0.962,-0.042,-0.244,0.305,0.549,301.212
110552,137813,8865,0.062,-0.96,-0.049,-0.732,0.366,0.61,301.219
110549,137880,18577,0.062,-0.96,-0.049,-0.732,0.366,0.61,301.222
110549,137802,8867,0.059,-0.967,-0.043,-0.61,0.488,0.549,301.228
110552,137880,18577,0.059,-0.967,-0.043,-0.61,0.488,0.549,301.232
110552,137817,8867,0.061,-0.972,-0.044,-0.366,0.427,0.427,301.238
110529,137880,18577,0.061,-0.972,-0.044,-0.366,0.427,0.427,301.242
110529,137772,8867,0.061,-0.964,-0.048,-0.122,0.366,0.427,301.248
110547,137880,18577,0.061,-0.964,-0.048,-0.122,0.366,0.427,301.252
110547,137760,8866,0.062,-0.963,-0.046,0.061,0.488,0.244,301.258
110534,137880,18577,0.062,-0.963,-0.046,0.061,0.488,0.244,301.262
110534,137778,8855,0.059,-0.961,-0.051,0.305,0.61,0.244,301.268
110519,137880,18577,0.059,-0.961,-0.051,0.305,0.61,0.244,301.272
110519,137774,8866,0.06,-0.951,-0.049,0.305,0.549,0.305,301.278
110490,137880,18577,0.06,-0.951,-0.049,0.305,0.549,0.305,301.282
110490,137746,8860,0.06,-0.958,-0.047,0.061,0.427,0.305,301.288
110512,137880,18577,0.06,-0.958,-0.047,0.061,0.427,0.305,301.292
110512,137739,8860,0.062,-0.959,-0.046,-0.122,0.427,0.305,301.298
110481,137624,18577,0.062,-0.959,-0.046,-0.122,0.427,0.305,301.301
110481,137723,8849,0.061,-0.957,-0.045,-0.183,0.366,0.366,301.308
110468,137880,18577,0.061,-0.957,-0.045,-0.183,0.366,0.366,301.311
110468,137733,8845,0.061,-0.961,-0.047,-0.427,0.305,0.427,301.318
110481,137624,18577,0.061,-0.961,-0.047,-0.427,0.305,0.427,301.321
110481,137716,8843,0.063,-0.963,-0.043,-0.427,0.305,0.549,301.327
110491,137880,18577,0.063,-0.963,-0.043,-0.427,0.305,0.549,301.331
110491,137729,8873,0.063,-0.962,-0.048,-0.549,0.183,0.488,301.337
110485,137624,18577,0.063,-0.962,-0.048,-0.549,0.183,0.488,301.341
110485,137704,8855,0.06,-0.968,-0.047,-0.549,0.427,0.427,301.347
110474,137624,18577,0.06,-0.968,-0.047,-0.549,0.427,0.427,301.351
110474,137715,8843,0.061,-0.965,-0.05,-0.305,0.305,0.427,301.357
110476,137624,18577,0.061,-0.965,-0.05,-0.305,0.305,0.427,301.361
110476,137718,8856,0.062,-0.965,-0.052,-0.305,0.305,0.427,301.367
110475,137624,18577,0.061,-0.968,-0.049,-0.244,0.366,0.305,301.371
110475,137700,8862,0.058,-0.969,-0.046,-0.244,0.366,0.305,301.377
110461,137624,18577,0.057,-0.963,-0.045,0.061,0.427,0.244,301.381
110461,137688,8870,0.056,-0.956,-0.05,0.061,0.427,0.244,301.387
110446,137624,18577,0.059,-0.954,-0.051,0.122,0.305,0.183,301.391
110446,137675,8852,0.058,-0.956,-0.049,0.122,0.305,0.183,301.397
110428,137624,18577,0.059,-0.957,-0.047,-0.183,0.366,0.183,301.4
110428,137663,8857,0.057,-0.956,-0.053,-0.183,0.366,0.183,301.407
110444,137624,18577,0.058,-0.957,-0.053,-0.305,0.366,0.122,301.41
110444,137623,8850,0.06,-0.956,-0.044,-0.305,0.366,0.122,301.417
110421,137624,18577,0.059,-0.955,-0.045,-0.366,0.244,0.122,301.42
110421,137670,8864,0.061,-0.956,-0.045,-0.366,0.244,0.122,301.426
110423,137624,18577,0.065,-0.962,-0.045,-0.671,0.122,0.183,301.43
110423,137656,8853,0.063,-0.966,-0.045,-0.671,0.122,0.183,301.436
110422,137624,18577,0.062,-0.964,-0.049,-0.732,0.122,0.305,301.44
110422,137659,8846,0.065,-0.962,-0.047,-0.732,0.122,0.305,301.446
110452,137624,18577,0.066,-0.963,-0.042,-0.61,0.122,0.427,301.45
110452,137669,8854,0.064,-0.959,-0.045,-0.61,0.122,0.427,301.456
110447,137624,18577,0.06,-0.961,-0.05,-0.61,0.305,0.427,301.46
110447,137677,8857,0.062,-0.964,-0.05,-0.61,0.305,0.427,301.466
110441,137624,18577,0.061,-0.966,-0.05,-0.488,0.305,0.427,301.47
110441,137667,8858,0.063,-0.964,-0.047,-0.488,0.305,0.427,301.476
110452,137624,18577,0.06,-0.959,-0.051,-0.061,0.244,0.488,301.48
110452,137671,8876,0.059,-0.953,-0.057,-0.061,0.244,0.488,301.486
110448,137624,18577,0.061,-0.96,-0.053,0,0.427,0.427,301.49
110448,137634,8847,0.059,-0.966,-0.044,0,0.427,0.427,301.496
110438,137624,18577,0.058,-0.965,-0.047,0.122,0.488,0.305,301.499
110438,137643,8841,0.06,-0.957,-0.052,0.122,0.488,0.305,301.506
110435,137624,18577,0.062,-0.957,-0.05,0,0.427,0.366,301.509
110435,137614,8847,0.057,-0.958,-0.051,0,0.427,0.366,301.516
110426,137624,18577,0.055,-0.957,-0.047,0,0.366,0.427,301.519
110426,137629,8850,0.057,-0.955,-0.051,0,0.366,0.427,301.525
110414,137624,18577,0.059,-0.955,-0.051,-0.305,0.305,0.366,301.529
110414,137629,8857,0.059,-0.96,-0.047,-0.305,0.305,0.366,301.535
110421,137624,18577,0.061,-0.963,-0.047,-0.244,0.427,0.244,301.539
110421,137668,8848,0.061,-0.964,-0.041,-0.244,0.427,0.244,301.545
110441,137624,18577,0.062,-0.963,-0.045,-0.244,0.427,0.366,301.549
110441,137630,8849,0.061,-0.961,-0.049,-0.244,0.427,0.366,301.555
110424,137624,18577,0.062,-0.959,-0.042,-0.305,0.366,0.549,301.559
110424,137638,8850,0.061,-0.964,-0.045,-0.305,0.366,0.549,301.565
110444,137624,18577,0.062,-0.97,-0.049,-0.183,0.427,0.488,301.569
110444,137635,8844,0.063,-0.97,-0.051,-0.183,0.427,0.488,301.575
110443,137624,18577,0.062,-0.965,-0.047,-0.061,0.549,0.427,301.579
110443,137620,8859,0.062,-0.961,-0.043,-0.061,0.549,0.427,301.585
110451,137624,18577,0.063,-0.958,-0.047,-0.183,0.488,0.427,301.589
110451,137624,8865,0.057,-0.961,-0.048,-0.183,0.488,0.427,301.595
110426,137624,18577,0.057,-0.96,-0.048,-0.244,0.366,0.305,301.598
110426,137624,8851,0.06,-0.952,-0.05,-0.244,0.366,0.305,301.605
110448,137624,18577,0.06,-0.952,-0.052,-0.305,0.244,0.427,301.608
110448,137649,8860,0.057,-0.96,-0.048,-0.305,0.244,0.427,301.615
110425,137624,18577,0.058,-0.958,-0.053,-0.549,0.305,0.427,301.618
110425,137603,8847,0.06,-0.955,-0.056,-0.549,0.305,0.427,301.624
110426,137624,18577,0.061,-0.961,-0.051,-0.61,0.305,0.488,301.628
110426,137599,8852,0.062,-0.961,-0.047,-0.61,0.305,0.488,301.634
110409,137624,18577,0.059,-0.957,-0.046,-0.427,0.366,0.549,301.638
110409,137603,8860,0.064,-0.955,-0.047,-0.427,0.366,0.549,301.644
110402,137624,18577,0.065,-0.961,-0.048,-0.671,0.549,0.671,301.648
110402,137597,8859,0.061,-0.966,-0.044,-0.671,0.549,0.671,301.654
110413,137624,18577,0.059,-0.97,-0.044,-0.671,0.366,0.793,301.658
110413,137614,8842,0.059,-0.965,-0.046,-0.671,0.366,0.793,301.664
110410,137624,18577,0.058,-0.965,-0.047,-0.366,0.244,0.854,301.668
110410,137593,8864,0.058,-0.966,-0.054,-0.366,0.244,0.854,301.674
110414,137624,18577,0.056,-0.965,-0.052,-0.122,0.366,0.671,301.678
110414,137594,8861,0.056,-0.966,-0.052,-0.122,0.366,0.671,301.684
110404,137624,18577,0.058,-0.964,-0.057,0.427,0.549,0.488,301.688
110404,137613,8866,0.054,-0.964,-0.054,0.427,0.549,0.488,301.694
110425,137624,18577,0.056,-0.966,-0.052,0.671,0.61,0.305,301.697
110425,137613,8861,0.058,-0.965,-0.047,0.671,0.61,0.305,301.704
110417,137624,18577,0.054,-0.965,-0.042,1.098,0.671,0.061,301.707
110417,137607,8858,0.055,-0.963,-0.043,1.098,0.671,0.061,301.714
110395,137624,18577,0.062,-0.96,-0.042,0.976,0.549,0,301.717
110395,137608,8855,0.059,-0.96,-0.049,0.976,0.549,0,301.723
110391,137624,18577,0.057,-0.959,-0.043,0.671,0.427,0,301.727
110391,137598,8846,0.06,-0.961,-0.044,0.671,0.427,0,301.733
110395,137624,18577,0.062,-0.957,-0.044,0.427,0.305,0,301.737
110395,137609,8855,0.061,-0.957,-0.043,0.427,0.305,0,301.743
110406,137624,18577,0.063,-0.954,-0.049,-0.244,0.061,0.061,301.747
110406,137579,8839,0.061,-0.958,-0.048,-0.244,0.061,0.061,301.753
110391,137624,18577,0.06,-0.957,-0.041,-0.793,-0.061,-0.061,301.757
110391,137587,8858,0.062,-0.958,-0.037,-0.793,-0.061,-0.061,301.763
110395,137624,18577,0.062,-0.961,-0.038,-1.159,-0.244,-0.183,301.767
110395,137585,8851,0.062,-0.96,-0.043,-1.159,-0.244,-0.183,301.773
110422,137624,18577,0.062,-0.964,-0.045,-1.524,-0.427,0.122,301.777
110422,137618,8853,0.065,-0.965,-0.048,-1.524,-0.427,0.122,301.783
110405,137624,18577,0.067,-0.961,-0.057,-1.585,-0.366,0.122,301.787
110405,137604,8856,0.07,-0.96,-0.056,-1.585,-0.366,0.122,301.793
110417,137624,18577,0.069,-0.962,-0.059,-1.159,0.061,0.305,301.796
110417,137621,8852,0.066,-0.961,-0.057,-1.159,0.061,0.305,301.803
110422,137624,18577,0.065,-0.966,-0.06,-0.427,0.488,0.488,301.806
110422,137621,8855,0.067,-0.972,-0.053,-0.427,0.488,0.488,301.813
110434,137624,18577,0.067,-0.972,-0.053,-0.427,0.488,0.488,301.816
110434,137635,8852,0.058,-0.966,-0.054,0.366,0.793,0.61,301.822
110432,137624,18577,0.058,-0.966,-0.054,0.366,0.793,0.61,301.826
110432,137652,8858,0.06,-0.964,-0.049,0.732,0.915,0.488,301.832
110438,137624,18577,0.06,-0.964,-0.049,0.732,0.915,0.488,301.836
110438,137649,8861,0.056,-0.965,-0.049,0.976,0.793,0.305,301.842
110442,137624,18577,0.056,-0.965,-0.049,0.976,0.793,0.305,301.846
110442,137649,8865,0.054,-0.953,-0.052,0.854,0.732,0.244,301.852
110444,137624,18577,0.054,-0.953,-0.052,0.854,0.732,0.244,301.856
110444,137666,8855,0.056,-0.952,-0.047,0.793,0.549,0.183,301.862
110432,137624,18577,0.056,-0.952,-0.047,0.793,0.549,0.183,301.866
110432,137667,8858,0.057,-0.955,-0.052,0.305,0.427,0.061,301.872
110439,137624,18577,0.057,-0.955,-0.052,0.305,0.427,0.061,301.876
110439,137669,8869,0.067,-0.951,-0.047,-0.244,0.305,0.122,301.882
110465,137624,18577,0.067,-0.951,-0.047,-0.244,0.305,0.122,301.886
110465,137664,8847,0.066,-0.958,-0.046,-0.549,0.244,0.427,301.892
110442,137624,18577,0.066,-0.958,-0.046,-0.549,0.244,0.427,301.895
110442,137693,8872,0.062,-0.966,-0.05,-0.488,0.61,0.61,301.902
110440,137624,18577,0.062,-0.966,-0.05,-0.488,0.61,0.61,301.905
110440,137678,8867,0.062,-0.966,-0.042,-0.183,0.793,0.671,301.911
110449,137624,18577,0.062,-0.966,-0.042,-0.183,0.793,0.671,301.915
110449,137700,8866,0.067,-0.965,-0.041,0.305,0.732,0.671,301.921
110452,137624,18577,0.067,-0.965,-0.041,0.305,0.732,0.671,301.925
110452,137681,8848,0.062,-0.965,-0.038,0.488,0.61,0.915,301.931
110416,137624,18577,0.062,-0.965,-0.038,0.488,0.61,0.915,301.935
110416,137686,8858,0.054,-0.965,-0.042,0.488,0.549,1.098,301.941
110404,137624,18577,0.054,-0.965,-0.042,0.488,0.549,1.098,301.945
110404,137654,8855,0.058,-0.953,-0.044,0.305,0.549,0.915,301.951
110387,137624,18577,0.058,-0.953,-0.044,0.305,0.549,0.915,301.955
110387,137667,8865,0.055,-0.954,-0.046,-0.122,0.183,0.793,301.961
110399,137624,18577,0.054,-0.957,-0.046,-0.122,0.183,0.793,301.965
110399,137663,8848,0.058,-0.953,-0.047,-0.549,0,0.61,301.971
110376,137624,18577,0.055,-0.955,-0.049,-0.549,0,0.61,301.975
110376,137645,8846,0.056,-0.958,-0.049,-0.854,0,0.488,301.981
110394,137624,18577,0.056,-0.957,-0.06,-0.854,0,0.488,301.985
110394,137655,8850,0.06,-0.959,-0.062,-0.976,0.061,0.427,301.991
110401,137624,18577,0.062,-0.969,-0.055,-0.976,0.061,0.427,301.994
110401,137666,8865,0.06,-0.972,-0.05,-0.671,0.244,0.305,302.001
110401,137624,18577,0.06,-0.97,-0.05,-0.671,0.244,0.305,302.004
110401,137687,8852,0.062,-0.967,-0.054,-0.122,0.427,0.366,302.01
110389,137624,18577,0.062,-0.966,-0.049,-0.122,0.427,0.366,302.014
110389,137694,8864,0.062,-0.968,-0.047,0.549,0.427,0.427,302.02
110390,137624,18577,0.062,-0.968,-0.044,0.549,0.427,0.427,302.024
110390,137683,8846,0.059,-0.967,-0.042,0.61,0.671,0.305,302.03
110399,137624,18577,0.056,-0.957,-0.039,0.61,0.671,0.305,302.034
110399,137706,8844,0.06,-0.95,-0.04,0.549,0.549,0.305,302.04
110394,137624,18577,0.063,-0.947,-0.033,0.549,0.549,0.305,302.044
110394,137686,8860,0.061,-0.949,-0.036,0.122,-0.122,0.488,302.05
110367,137624,18577,0.062,-0.948,-0.051,0.122,-0.122,0.488,302.054
110367,137678,8841,0.059,-0.956,-0.051,-0.976,-0.244,0.427,302.06
110352,137624,18577,0.057,-0.96,-0.05,-0.976,-0.244,0.427,302.064
110352,137688,8840,0.057,-0.961,-0.052,-1.22,-0.427,0.366,302.07
110354,137624,18577,0.059,-0.96,-0.054,-1.22,-0.427,0.366,302.074
110354,137673,8853,0.061,-0.956,-0.055,-1.098,-0.244,0.427,302.08
110370,137624,18577,0.059,-0.963,-0.051,-1.098,-0.244,0.427,302.084
110370,137676,8847,0.057,-0.964,-0.054,-1.037,-0.122,0.366,302.09
110333,137624,18577,0.058,-0.967,-0.051,-1.037,-0.122,0.366,302.093
110333,137676,8842,0.063,-0.971,-0.046,-0.915,0.061,0.244,302.1
110363,137624,18577,0.063,-0.969,-0.047,-0.915,0.061,0.244,302.103
110363,137674,8865,0.06,-0.967,-0.046,-0.427,0.244,0.305,302.109
110370,137624,18577,0.062,-0.963,-0.042,-0.427,0.244,0.305,302.113
110370,137693,8848,0.064,-0.963,-0.046,-0.122,0.305,0.305,302.119
110406,137624,18577,0.063,-0.965,-0.051,-0.122,0.305,0.305,302.123
110406,137713,8842,0.06,-0.968,-0.049,-0.244,0.366,0.305,302.129
110395,137624,18577,0.064,-0.969,-0.048,-0.244,0.366,0.305,302.133
110395,137719,8853,0.06,-0.965,-0.052,0.061,0.427,0.244,302.139
110408,137624,18577,0.057,-0.959,-0.052,0.061,0.427,0.244,302.143
110408,137717,8859,0.059,-0.957,-0.053,0.305,0.488,0.244,302.149
110411,137624,18577,0.06,-0.952,-0.049,0.305,0.488,0.244,302.153
110411,137723,8845,0.062,-0.953,-0.051,0.366,0.488,0.305,302.159
110405,137624,18577,0.062,-0.954,-0.054,0.366,0.488,0.305,302.163
110405,137708,8852,0.057,-0.956,-0.05,0.244,0.488,0.244,302.169
110406,137880,18577,0.058,-0.954,-0.057,0.244,0.488,0.244,302.173
110406,137731,8855,0.058,-0.955,-0.06,0.122,0.488,0.244,302.179
110414,137880,18577,0.058,-0.958,-0.051,0.122,0.488,0.244,302.183
110414,137734,8847,0.062,-0.956,-0.047,0.122,0.305,0.427,302.189
110393,137624,18577,0.057,-0.951,-0.042,0.122,0.305,0.427,302.192
110393,137707,8870,0.06,-0.956,-0.037,-0.305,0.366,0.427,302.199
110391,137624,18577,0.061,-0.959,-0.036,-0.305,0.366,0.427,302.202
110391,137724,8856,0.06,-0.963,-0.04,-0.793,0.366,0.488,302.208
110385,137624,18577,0.06,-0.964,-0.047,-0.793,0.366,0.488,302.212
110385,137713,8844,0.063,-0.965,-0.046,-1.22,0.244,0.488,302.218
110391,137624,18577,0.06,-0.97,-0.044,-1.22,0.244,0.488,302.222
110391,137717,8845,0.061,-0.971,-0.048,-0.854,0.427,0.488,302.228
110374,137624,18577,0.064,-0.966,-0.05,-0.854,0.427,0.488,302.232
110374,137687,8841,0.062,-0.965,-0.052,-0.549,0.671,0.488,302.238
110357,137624,18577,0.06,-0.965,-0.05,-0.549,0.671,0.488,302.242
110357,137673,8851,0.06,-0.966,-0.055,-0.122,0.793,0.549,302.248
110339,137624,18577,0.06,-0.968,-0.056,-0.122,0.793,0.549,302.252
110339,137670,8844,0.059,-0.965,-0.05,0.488,0.854,0.366,302.258
110329,137624,18577,0.056,-0.961,-0.053,0.488,0.854,0.366,302.262
110329,137656,8858,0.059,-0.957,-0.053,0.854,0.915,0.366,302.268
110330,137624,18577,0.061,-0.953,-0.052,0.854,0.915,0.366,302.272
110330,137632,8846,0.059,-0.955,-0.047,0.915,0.854,0.427,302.278
110305,137624,18577,0.058,-0.954,-0.053,0.915,0.854,0.427,302.282
110305,137625,8849,0.058,-0.957,-0.051,0.732,0.793,0.305,302.288
110316,137624,18577,0.058,-0.956,-0.048,0.732,0.793,0.305,302.291
110316,137640,8848,0.057,-0.954,-0.041,0.671,0.488,0.366,302.298
110303,137624,18577,0.06,-0.955,-0.046,0.671,0.488,0.366,302.301
110303,137618,8837,0.055,-0.957,-0.047,-0.061,0.549,0.427,302.308
110298,137624,18577,0.053,-0.963,-0.043,-0.061,0.549,0.427,302.311
110298,137625,8835,0.057,-0.964,-0.048,-0.366,0.427,0.427,302.317
110293,137624,18577,0.057,-0.963,-0.053,-0.366,0.427,0.427,302.321
110293,137634,8834,0.063,-0.965,-0.049,-0.732,0.061,0.305,302.327
110287,137624,18577,0.065,-0.961,-0.047,-0.732,0.061,0.305,302.331
110287,137610,8831,0.061,-0.96,-0.047,-0.366,0.183,0.244,302.337
110276,137624,18577,0.065,-0.963,-0.041,-0.366,0.183,0.244,302.341
110276,137603,8833,0.063,-0.963,-0.041,-0.122,0.488,0.366,302.347
110254,137624,18577,0.064,-0.963,-0.045,-0.122,0.488,0.366,302.351
110254,137604,8838,0.062,-0.962,-0.043,-0.244,0.427,0.488,302.357
110255,137624,18577,0.062,-0.963,-0.047,-0.244,0.427,0.488,302.361
110255,137585,8832,0.065,-0.962,-0.049,-0.366,0.488,0.549,302.367
110243,137624,18577,0.061,-0.962,-0.049,-0.366,0.488,0.549,302.371
110243,137569,8841,0.06,-0.964,-0.05,-0.122,0.671,0.488,302.377
110248,137624,18577,0.059,-0.962,-0.049,-0.122,0.671,0.488,302.381
110248,137569,8844,0.061,-0.963,-0.05,-0.122,0.61,0.488,302.387
110230,137624,18577,0.062,-0.967,-0.053,-0.122,0.61,0.488,302.39
110230,137584,8843,0.059,-0.965,-0.048,0.122,0.732,0.244,302.397
110249,137624,18577,0.059,-0.965,-0.048,0.122,0.732,0.244,302.4
110249,137597,8816,0.056,-0.958,-0.047,0.366,0.915,0.244,302.406
110238,137624,18577,0.056,-0.958,-0.047,0.366,0.915,0.244,302.41
110238,137601,8836,0.059,-0.955,-0.04,0.305,0.61,0.244,302.416
110250,137624,18577,0.059,-0.955,-0.04,0.305,0.61,0.244,302.42
110250,137581,8842,0.054,-0.953,-0.047,-0.244,0.427,0,302.426
110255,137624,18577,0.054,-0.953,-0.047,-0.244,0.427,0,302.43
110255,137577,8842,0.057,-0.958,-0.05,-0.61,0.305,0.061,302.436
110269,137624,18577,0.057,-0.958,-0.05,-0.61,0.305,0.061,302.44
110269,137578,8846,0.06,-0.956,-0.047,-0.488,0.183,0.061,302.446
110267,137624,18577,0.06,-0.956,-0.047,-0.488,0.183,0.061,302.45
110267,137587,8854,0.061,-0.954,-0.046,-0.305,0.122,0.244,302.456
110269,137624,18577,0.061,-0.954,-0.046,-0.305,0.122,0.244,302.46
110269,137593,8829,0.06,-0.959,-0.05,-0.61,0,0.427,302.466
110259,137624,18577,0.06,-0.959,-0.05,-0.61,0,0.427,302.47
110259,137594,8836,0.059,-0.969,-0.048,-0.61,0,0.549,302.476
110271,137624,18577,0.059,-0.969,-0.048,-0.61,0,0.549,302.48
110271,137588,8826,0.058,-0.967,-0.047,-0.427,0.305,0.427,302.486
110260,137624,18577,0.058,-0.967,-0.047,-0.427,0.305,0.427,302.489
110260,137587,8826,0.055,-0.968,-0.044,-0.244,0.427,0.183,302.496
110238,137624,18577,0.055,-0.968,-0.044,-0.244,0.427,0.183,302.499
110238,137582,8836,0.059,-0.962,-0.048,-0.183,0.305,0.061,302.506
110262,137624,18577,0.059,-0.962,-0.048,-0.183,0.305,0.061,302.509
110262,137573,8840,0.062,-0.959,-0.052,-0.183,0.305,0.061,302.515
110234,137624,18577,0.062,-0.959,-0.052,-0.183,0.305,0.061,302.519
110234,137561,8836,0.062,-0.957,-0.051,-0.366,0.488,0.061,302.525
110245,137624,18577,0.062,-0.957,-0.051,-0.366,0.488,0.061,302.529
110245,137557,8822,0.067,-0.953,-0.051,-0.427,0.671,0.244,302.535
110229,137624,18577,0.067,-0.953,-0.051,-0.427,0.671,0.244,302.539
110229,137565,8836,0.063,-0.954,-0.047,-0.427,0.671,0.244,302.545
110255,137624,18577,0.065,-0.956,-0.048,-0.488,0.61,0.488,302.549
110255,137566,8824,0.065,-0.961,-0.044,-0.488,0.61,0.488,302.555
110226,137624,18577,0.063,-0.964,-0.044,-0.427,0.671,0.61,302.559
110226,137570,8846,0.058,-0.961,-0.044,-0.427,0.671,0.61,302.565
110234,137624,18577,0.058,-0.962,-0.044,-0.183,0.549,0.732,302.569
110234,137586,8819,0.058,-0.96,-0.043,-0.183,0.549,0.732,302.575
110228,137624,18577,0.059,-0.963,-0.047,-0.183,0.488,0.793,302.579
110228,137594,8847,0.058,-0.965,-0.047,-0.183,0.488,0.793,302.585
110223,137624,18577,0.057,-0.964,-0.05,-0.183,0.427,0.671,302.588
110223,137569,8827,0.056,-0.963,-0.05,-0.183,0.427,0.671,302.595
110214,137624,18577,0.06,-0.961,-0.056,0,0.366,0.549,302.598
110214,137587,8830,0.057,-0.958,-0.054,0,0.366,0.549,302.604
110226,137624,18577,0.052,-0.96,-0.049,0.183,0.488,0.488,302.608
110226,137564,8829,0.055,-0.96,-0.051,0.183,0.488,0.488,302.614
110253,137624,18577,0.054,-0.958,-0.056,0.122,0.427,0.366,302.618
110253,137577,8827,0.056,-0.958,-0.05,0.122,0.427,0.366,302.624
110234,137624,18577,0.059,-0.962,-0.049,0,0.305,0.183,302.628
110234,137573,8838,0.06,-0.961,-0.049,0,0.305,0.183,302.634
110258,137624,18577,0.062,-0.959,-0.047,-0.122,0.488,0.183,302.638
110258,137585,8839,0.063,-0.963,-0.044,-0.122,0.488,0.183,302.644
110243,137624,18577,0.061,-0.96,-0.05,-0.061,0.366,0.244,302.648
110243,137565,8840,0.06,-0.961,-0.045,-0.061,0.366,0.244,302.654
110266,137624,18577,0.063,-0.97,-0.041,-0.183,0.427,0.244,302.658
110266,137599,8842,0.061,-0.967,-0.042,-0.183,0.427,0.244,302.664
110262,137624,18577,0.066,-0.965,-0.048,-0.427,0.61,0.183,302.668
110262,137616,8832,0.065,-0.966,-0.047,-0.427,0.61,0.183,302.674
110293,137624,18577,0.064,-0.965,-0.045,-0.244,0.366,0.122,302.678
110293,137631,8838,0.063,-0.963,-0.043,-0.244,0.366,0.122,302.684
110293,137624,18577,0.061,-0.961,-0.05,0.061,0.305,0.122,302.687
110293,137624,8858,0.061,-0.959,-0.047,0.061,0.305,0.122,302.694
110310,137624,18577,0.059,-0.956,-0.043,0,0.244,0.244,302.697
110310,137650,8837,0.059,-0.955,-0.046,0,0.244,0.244,302.703
110321,137624,18577,0.06,-0.95,-0.051,-0.183,0.122,0.305,302.707
110321,137606,8842,0.061,-0.952,-0.052,-0.183,0.122,0.305,302.713
110324,137624,18577,0.059,-0.953,-0.056,-0.488,0.244,0.305,302.717
110324,137644,8827,0.058,-0.963,-0.058,-0.488,0.244,0.305,302.723
110322,137624,18577,0.058,-0.967,-0.053,-0.366,0.366,0.305,302.727
110322,137631,8837,0.059,-0.965,-0.05,-0.366,0.366,0.305,302.733
110334,137624,18577,0.06,-0.963,-0.047,0,0.549,0.244,302.737
110334,137627,8859,0.06,-0.968,-0.043,0,0.549,0.244,302.743
110327,137624,18577,0.063,-0.967,-0.041,0.183,0.61,0.366,302.747
110327,137620,8846,0.063,-0.961,-0.047,0.183,0.61,0.366,302.753
110315,137624,18577,0.062,-0.962,-0.045,0.244,0.61,0.488,302.757
110315,137655,8859,0.066,-0.963,-0.047,0.244,0.61,0.488,302.763
110332,137624,18577,0.06,-0.964,-0.045,0.244,0.61,0.427,302.767
110332,137622,8856,0.062,-0.964,-0.054,0.244,0.61,0.427,302.773
110345,137624,18577,0.063,-0.961,-0.056,0.366,0.671,0.305,302.777
110345,137651,8849,0.06,-0.959,-0.049,0.366,0.671,0.305,302.783
110341,137624,18577,0.061,-0.957,-0.054,0.549,0.732,0.305,302.786
110341,137630,8855,0.058,-0.959,-0.052,0.549,0.732,0.305,302.793
110360,137624,18577,0.059,-0.96,-0.049,0.854,0.793,0.244,302.796
110360,137665,8847,0.058,-0.958,-0.044,0.854,0.793,0.244,302.802
110373,137624,18577,0.056,-0.954,-0.048,0.976,0.671,0.305,302.806
110373,137649,8855,0.057,-0.95,-0.043,0.976,0.671,0.305,302.812
110365,137624,18577,0.057,-0.955,-0.042,0.427,0.488,0.244,302.816
110365,137697,8849,0.058,-0.959,-0.042,0.427,0.488,0.244,302.822
110365,137624,18577,0.061,-0.958,-0.041,-0.305,0.305,0.305,302.826
110365,137671,8850,0.062,-0.956,-0.037,-0.305,0.305,0.305,302.832
110376,137624,18577,0.065,-0.954,-0.045,-0.549,0.061,0.427,302.836
110376,137690,8853,0.065,-0.955,-0.048,-0.549,0.061,0.427,302.842
110359,137624,18577,0.06,-0.959,-0.039,-0.671,0.061,0.732,302.846
110359,137672,8857,0.063,-0.967,-0.041,-0.671,0.061,0.732,302.852
110342,137624,18577,0.066,-0.968,-0.048,-0.854,0.183,0.915,302.856
110342,137694,8841,0.063,-0.966,-0.049,-0.854,0.183,0.915,302.862
110345,137624,18577,0.06,-0.97,-0.046,-0.61,0.366,0.915,302.866
110345,137680,8853,0.061,-0.973,-0.049,-0.61,0.366,0.915,302.872
110339,137624,18577,0.06,-0.964,-0.046,0.061,0.366,0.793,302.876
110339,137637,8844,0.059,-0.964,-0.047,0.061,0.366,0.793,302.882
110316,137624,18577,0.059,-0.965,-0.057,0.183,0.488,0.671,302.885
110316,137642,8853,0.058,-0.966,-0.051,0.183,0.488,0.671,302.892
110323,137624,18577,0.055,-0.968,-0.049,0.488,0.732,0.427,302.895
110323,137632,8848,0.054,-0.965,-0.057,0.488,0.732,0.427,302.901
110294,137624,18577,0.056,-0.96,-0.057,0.671,0.915,0.183,302.905
110294,137612,8845,0.06,-0.958,-0.051,0.671,0.915,0.183,302.911
110279,137624,18577,0.06,-0.959,-0.047,0.915,0.671,0,302.915
110279,137622,8850,0.062,-0.953,-0.048,0.915,0.671,0,302.921
110309,137624,18577,0.061,-0.95,-0.045,0.549,0.61,0.061,302.925
110309,137644,8841,0.064,-0.953,-0.047,0.549,0.61,0.061,302.931
110329,137624,18577,0.063,-0.956,-0.053,0.122,0.793,0.244,302.935
110329,137651,8848,0.064,-0.956,-0.047,0.122,0.793,0.244,302.941
110321,137624,18577,0.062,-0.956,-0.043,-0.122,0.549,0.549,302.945
110321,137677,8848,0.063,-0.953,-0.045,-0.122,0.549,0.549,302.951
110328,137624,18577,0.062,-0.958,-0.043,-0.183,0.305,0.854,302.955
110328,137693,8846,0.062,-0.962,-0.047,-0.183,0.305,0.854,302.961
110347,137624,18577,0.062,-0.966,-0.046,-0.244,0.427,0.854,302.965
110347,137686,8843,0.058,-0.967,-0.045,-0.244,0.427,0.854,302.971
110347,137624,18577,0.06,-0.967,-0.048,-0.366,0.488,0.793,302.974
110347,137688,8849,0.062,-0.972,-0.043,-0.366,0.488,0.793,302.981
110370,137624,18577,0.062,-0.972,-0.043,-0.366,0.488,0.793,302.984
110370,137678,8859,0.056,-0.97,-0.045,-0.122,0.61,0.61,302.991
110354,137624,18577,0.056,-0.97,-0.045,-0.122,0.61,0.61,302.994
110354,137706,8856,0.058,-0.968,-0.045,0,0.61,0.305,303
110348,137624,18577,0.058,-0.968,-0.045,0,0.61,0.305,303.004
110348,137701,8855,0.057,-0.961,-0.041,0.244,0.488,0.244,303.01
110366,137624,18577,0.057,-0.961,-0.041,0.244,0.488,0.244,303.014
110366,137712,8850,0.058,-0.959,-0.048,0,0.549,0.244,303.02
110360,137624,18577,0.058,-0.959,-0.048,0,0.549,0.244,303.024
110360,137706,8870,0.058,-0.956,-0.048,0,0.488,0.122,303.03
110370,137624,18577,0.058,-0.956,-0.048,0,0.488,0.122,303.034
110370,137688,8846,0.06,-0.955,-0.047,0,0.549,0.244,303.04
110381,137624,18577,0.06,-0.955,-0.047,0,0.549,0.244,303.044
110381,137723,8855,0.061,-0.955,-0.047,-0.122,0.427,0.305,303.05
110364,137624,18577,0.061,-0.955,-0.047,-0.122,0.427,0.305,303.054
110364,137722,8848,0.058,-0.964,-0.045,-0.183,0.366,0.427,303.06
110389,137880,18577,0.058,-0.964,-0.045,-0.183,0.366,0.427,303.064
110389,137737,8852,0.062,-0.967,-0.048,0,0.366,0.488,303.07
110400,137624,18577,0.062,-0.967,-0.048,0,0.366,0.488,303.074
110400,137715,8869,0.063,-0.964,-0.044,0.061,0.244,0.427,303.08
110415,137880,18577,0.063,-0.964,-0.044,0.061,0.244,0.427,303.083
110415,137753,8866,0.058,-0.971,-0.048,0.061,0.366,0.427,303.09
110422,137880,18577,0.058,-0.971,-0.048,0.061,0.366,0.427,303.093
110422,137741,8845,0.059,-0.965,-0.049,-0.061,0.549,0.305,303.099
110394,137880,18577,0.059,-0.965,-0.049,-0.061,0.549,0.305,303.103
110394,137750,8871,0.061,-0.961,-0.042,0.122,0.671,0.061,303.109
110395,137880,18577,0.061,-0.961,-0.042,0.122,0.671,0.061,303.113
110395,137751,8865,0.058,-0.957,-0.046,0.305,0.549,0.061,303.119
110391,137880,18577,0.058,-0.957,-0.046,0.305,0.549,0.061,303.123
110391,137729,8851,0.062,-0.957,-0.05,0.061,0.488,0.122,303.129
110374,137880,18577,0.059,-0.958,-0.047,0.061,0.488,0.122,303.133
110374,137735,8861,0.057,-0.964,-0.043,-0.061,0.671,0.061,303.139
110370,137880,18577,0.057,-0.958,-0.043,-0.061,0.671,0.061,303.143
110370,137744,8850,0.06,-0.95,-0.046,-0.122,0.549,0.183,303.149
110352,137624,18577,0.06,-0.949,-0.044,-0.122,0.549,0.183,303.153
110352,137691,8842,0.06,-0.953,-0.042,-0.122,0.366,0.183,303.159
110336,137624,18577,0.06,-0.954,-0.051,-0.122,0.366,0.183,303.163
110336,137701,8870,0.062,-0.958,-0.052,-0.305,0.305,0.122,303.169
110354,137624,18577,0.059,-0.96,-0.051,-0.305,0.305,0.122,303.172
110354,137685,8850,0.06,-0.962,-0.048,-0.244,0.244,0.244,303.179
110346,137624,18577,0.06,-0.964,-0.051,-0.244,0.244,0.244,303.182
110346,137691,8867,0.059,-0.961,-0.052,-0.244,0.427,0.244,303.189
110372,137624,18577,0.058,-0.964,-0.049,-0.244,0.427,0.244,303.192
110372,137707,8853,0.061,-0.965,-0.049,-0.061,0.488,0.244,303.198
110366,137624,18577,0.062,-0.964,-0.046,-0.061,0.488,0.244,303.202
110366,137725,8847,0.06,-0.963,-0.039,0,0.488,0.122,303.208
110373,137880,18577,0.059,-0.961,-0.04,0,0.488,0.122,303.212
110373,137774,8853,0.059,-0.959,-0.041,-0.061,0.427,0.305,303.218
110375,137880,18577,0.06,-0.958,-0.045,-0.061,0.427,0.305,303.222
110375,137731,8858,0.059,-0.961,-0.043,-0.244,0.366,0.366,303.228
110376,137624,18577,0.062,-0.962,-0.043,-0.244,0.366,0.366,303.232
110376,137712,8860,0.063,-0.959,-0.048,-0.244,0.366,0.305,303.238
110368,137624,18577,0.064,-0.959,-0.06,-0.244,0.366,0.305,303.242
110368,137698,8856,0.059,-0.967,-0.055,-0.488,0.488,0.244,303.248
110370,137624,18577,0.058,-0.969,-0.044,-0.488,0.488,0.244,303.252
110370,137682,8861,0.061,-0.963,-0.045,-0.122,0.488,0.366,303.258
110352,137624,18577,0.06,-0.958,-0.044,-0.122,0.488,0.366,303.262
110352,137713,8859,0.063,-0.958,-0.042,0.122,0.427,0.366,303.268
110382,137624,18577,0.059,-0.959,-0.046,0.122,0.427,0.366,303.271
110382,137682,8855,0.057,-0.961,-0.04,-0.061,0.549,0.366,303.278
110371,137624,18577,0.062,-0.958,-0.041,-0.061,0.549,0.366,303.281
110371,137725,8863,0.061,-0.958,-0.048,-0.061,0.366,0.305,303.288
110370,137624,18577,0.06,-0.959,-0.05,-0.061,0.366,0.305,303.291
110370,137716,8852,0.058,-0.961,-0.051,-0.183,0.488,0.305,303.297
110398,137880,18577,0.057,-0.962,-0.048,-0.183,0.488,0.305,303.301
110398,137737,8852,0.058,-0.952,-0.048,-0.244,0.488,0.366,303.307
110410,137624,18577,0.063,-0.948,-0.054,-0.244,0.488,0.366,303.311
110410,137727,8865,0.063,-0.96,-0.052,-0.366,0.427,0.366,303.317
110397,137880,18577,0.059,-0.966,-0.047,-0.366,0.427,0.366,303.321
110397,137745,8854,0.058,-0.966,-0.046,-0.366,0.488,0.305,303.327
110411,137624,18577,0.06,-0.965,-0.045,-0.366,0.488,0.305,303.331
110411,137710,8854,0.058,-0.962,-0.047,-0.244,0.366,0.427,303.337
110417,137880,18577,0.059,-0.963,-0.043,-0.244,0.366,0.427,303.341
110417,137740,8876,0.06,-0.965,-0.039,-0.061,0.183,0.305,303.347
110417,137880,18577,0.059,-0.964,-0.045,-0.061,0.183,0.305,303.351
110417,137733,8864,0.061,-0.967,-0.043,-0.244,0.488,0.244,303.357
110440,137880,18577,0.061,-0.963,-0.048,-0.244,0.488,0.244,303.361
110440,137737,8857,0.06,-0.964,-0.047,-0.244,0.488,0.244,303.367
110434,137880,18577,0.061,-0.965,-0.046,-0.244,0.488,0.244,303.37
110434,137746,8881,0.063,-0.961,-0.049,0.061,0.488,0.305,303.377
110462,137880,18577,0.059,-0.956,-0.055,0.061,0.488,0.305,303.38
110462,137767,8868,0.062,-0.955,-0.05,0.122,0.732,0.244,303.387
110465,137880,18577,0.06,-0.957,-0.05,0.122,0.732,0.244,303.39
110465,137761,8868,0.059,-0.957,-0.054,0.061,0.732,0.305,303.396
110471,137880,18577,0.057,-0.959,-0.047,0.061,0.732,0.305,303.4
110471,137794,8874,0.06,-0.961,-0.045,0.061,0.488,0.366,303.406
110473,137880,18577,0.058,-0.956,-0.045,0.061,0.488,0.366,303.41
110473,137776,8884,0.057,-0.959,-0.041,-0.061,0.305,0.366,303.416
110475,137880,18577,0.059,-0.958,-0.046,-0.061,0.305,0.366,303.42
110475,137804,8867,0.064,-0.962,-0.041,-0.183,0.244,0.427,303.426
110489,137880,18577,0.061,-0.96,-0.039,-0.183,0.244,0.427,303.43
110489,137778,8862,0.061,-0.959,-0.039,-0.366,0.183,0.549,303.436
110463,137880,18577,0.061,-0.959,-0.046,-0.366,0.183,0.549,303.44
110463,137783,8858,0.06,-0.962,-0.046,-0.488,0.183,0.61,303.446
110485,137880,18577,0.062,-0.966,-0.044,-0.488,0.183,0.61,303.45
110485,137783,8873,0.061,-0.961,-0.049,-0.671,0.122,0.671,303.456
110517,137880,18577,0.06,-0.961,-0.05,-0.671,0.122,0.671,303.46
110517,137786,8883,0.061,-0.963,-0.05,-0.854,0.244,0.61,303.466
110512,137880,18577,0.058,-0.964,-0.051,-0.854,0.244,0.61,303.469
110512,137820,8877,0.059,-0.965,-0.056,-0.61,0.427,0.488,303.476
110504,137880,18577,0.062,-0.962,-0.055,-0.61,0.427,0.488,303.479
110504,137814,8872,0.059,-0.963,-0.048,0,0.488,0.427,303.486
110514,137880,18577,0.059,-0.96,-0.045,0,0.488,0.427,303.489
110514,137818,8901,0.06,-0.955,-0.045,0.366,0.549,0.366,303.495
110523,137880,18577,0.06,-0.956,-0.044,0.366,0.549,0.366,303.499
110523,137825,8889,0.061,-0.957,-0.05,0.061,0.366,0.488,303.505
110519,137880,18577,0.06,-0.958,-0.047,0.061,0.366,0.488,303.509
110519,137846,8892,0.057,-0.958,-0.043,-0.122,0.366,0.549,303.515
110516,137880,18577,0.057,-0.959,-0.046,-0.122,0.366,0.549,303.519
110516,137810,8881,0.057,-0.962,-0.041,-0.366,0.366,0.549,303.525
110509,137880,18577,0.056,-0.961,-0.047,-0.366,0.366,0.549,303.529
110509,137820,8868,0.062,-0.964,-0.054,-0.671,0.427,0.488,303.535
110531,137880,18577,0.061,-0.971,-0.049,-0.671,0.427,0.488,303.539
110531,137807,8877,0.059,-0.97,-0.047,-0.427,0.427,0.305,303.545
110511,137880,18577,0.061,-0.968,-0.054,-0.427,0.427,0.305,303.549
110511,137824,8887,0.06,-0.967,-0.051,-0.122,0.366,0.183,303.555
110525,137880,18577,0.061,-0.969,-0.046,-0.122,0.366,0.183,303.559
110525,137809,8873,0.056,-0.968,-0.044,0.427,0.488,0.122,303.565
110537,137880,18577,0.056,-0.968,-0.044,0.427,0.488,0.122,303.569
110537,137827,8881,0.063,-0.96,-0.041,0.671,0.305,-0.061,303.575
110526,137880,18577,0.063,-0.96,-0.041,0.671,0.305,-0.061,303.578
110526,137822,8883,0.061,-0.95,-0.042,0.427,0.122,-0.061,303.585
110533,137880,18577,0.061,-0.95,-0.042,0.427,0.122,-0.061,303.588
110533,137814,8881,0.059,-0.954,-0.05,0.061,0.122,-0.061,303.594
110533,137880,18577,0.059,-0.954,-0.05,0.061,0.122,-0.061,303.598
110533,137819,8889,0.062,-0.955,-0.05,-0.427,0.061,-0.061,303.604
110517,137880,18577,0.062,-0.955,-0.05,-0.427,0.061,-0.061,303.608
110517,137818,8885,0.062,-0.96,-0.05,-0.61,0.122,-0.122,303.614
110533,137880,18577,0.062,-0.96,-0.05,-0.61,0.122,-0.122,303.618
110533,137835,8889,0.063,-0.959,-0.048,-0.61,0.244,-0.061,303.624
110535,137880,18577,0.063,-0.959,-0.048,-0.61,0.244,-0.061,303.628
110535,137869,8881,0.064,-0.966,-0.04,-0.366,0,0.061,303.634
110523,137880,18577,0.064,-0.966,-0.04,-0.366,0,0.061,303.638
110523,137832,8886,0.063,-0.956,-0.036,-0.366,-0.122,0.305,303.644
110542,137880,18577,0.063,-0.956,-0.036,-0.366,-0.122,0.305,303.648
110542,137835,8879,0.062,-0.958,-0.053,-0.976,-0.061,0.366,303.654
110531,137880,18577,0.062,-0.958,-0.053,-0.976,-0.061,0.366,303.658
110531,137832,8870,0.061,-0.967,-0.062,-1.098,0.244,0.305,303.664
110535,137880,18577,0.061,-0.967,-0.062,-1.098,0.244,0.305,303.667
110535,137852,8878,0.06,-0.972,-0.059,-0.427,0.427,0.183,303.674
110570,137880,18577,0.06,-0.972,-0.059,-0.427,0.427,0.183,303.677
110570,137870,8878,0.062,-0.961,-0.063,0.488,0.732,0.183,303.684
110568,137880,18577,0.062,-0.961,-0.063,0.488,0.732,0.183,303.687
110568,137881,8893,0.058,-0.967,-0.047,1.098,0.915,0,303.693
110588,137880,18577,0.058,-0.967,-0.047,1.098,0.915,0,303.697
110588,137880,8876,0.058,-0.957,-0.048,1.22,0.793,0,303.703
110565,137880,18577,0.058,-0.957,-0.048,1.22,0.793,0,303.707
110565,137869,8888,0.06,-0.952,-0.046,1.22,0.793,0,303.713
110564,137880,18577,0.061,-0.954,-0.044,1.037,0.671,0.183,303.717
110564,137851,8885,0.063,-0.951,-0.042,1.037,0.671,0.183,303.723
110581,137880,18577,0.064,-0.953,-0.038,0.549,0.671,0.244,303.727
110581,137877,8881,0.064,-0.955,-0.037,0.549,0.671,0.244,303.733
110525,137880,18577,0.065,-0.955,-0.038,-0.366,0.427,0.366,303.737
110525,137860,8892,0.065,-0.96,-0.042,-0.366,0.427,0.366,303.743
110563,137880,18577,0.066,-0.965,-0.046,-0.976,0.366,0.488,303.747
110563,137857,8897,0.066,-0.97,-0.046,-0.976,0.366,0.488,303.753
110566,137880,18577,0.064,-0.968,-0.041,-0.732,0.488,0.549,303.757
110566,137874,8888,0.064,-0.966,-0.044,-0.732,0.488,0.549,303.763
110544,137880,18577,0.063,-0.965,-0.048,-0.427,0.61,0.671,303.766
110544,137870,8897,0.062,-0.963,-0.049,-0.427,0.61,0.671,303.773
110564,137880,18577,0.06,-0.967,-0.05,-0.122,0.61,0.488,303.776
110564,137869,8885,0.056,-0.968,-0.053,-0.122,0.61,0.488,303.783
110548,137880,18577,0.056,-0.96,-0.05,0.122,0.549,0.244,303.786
110548,137888,8881,0.056,-0.956,-0.048,0.122,0.549,0.244,303.792
110541,137880,18577,0.058,-0.953,-0.046,0.366,0.488,0.183,303.796
110541,137864,8896,0.062,-0.953,-0.043,0.366,0.488,0.183,303.802
110539,137880,18577,0.059,-0.952,-0.037,0.366,0.427,0.366,303.806
110539,137894,8887,0.055,-0.949,-0.039,0.366,0.427,0.366,303.812
110536,137880,18577,0.06,-0.95,-0.043,-0.244,0.183,0.488,303.816
110536,137854,8869,0.059,-0.954,-0.038,-0.244,0.183,0.488,303.822
110487,137880,18577,0.058,-0.958,-0.041,-0.671,-0.061,0.549,303.826
110487,137841,8882,0.061,-0.956,-0.044,-0.671,-0.061,0.549,303.832
110524,137880,18577,0.063,-0.959,-0.046,-1.037,-0.244,0.61,303.836
110524,137843,8882,0.057,-0.964,-0.049,-1.037,-0.244,0.61,303.842
110501,137880,18577,0.059,-0.97,-0.048,-1.28,-0.122,0.61,303.846
110501,137841,8876,0.064,-0.973,-0.045,-1.28,-0.122,0.61,303.852
110522,137880,18577,0.064,-0.975,-0.049,-0.915,0.061,0.427,303.856
110522,137837,8880,0.063,-0.974,-0.048,-0.915,0.061,0.427,303.862
110512,137880,18577,0.065,-0.968,-0.052,-0.427,0.366,0.305,303.865
110512,137861,8889,0.062,-0.968,-0.044,-0.427,0.366,0.305,303.872
110530,137880,18577,0.058,-0.966,-0.043,0,0.427,0.305,303.875
110530,137883,8886,0.059,-0.966,-0.044,0,0.427,0.305,303.882
110529,137880,18577,0.056,-0.961,-0.042,0.122,0.427,0.183,303.885
110529,137854,8881,0.056,-0.957,-0.044,0.122,0.427,0.183,303.891
110518,137880,18577,0.059,-0.954,-0.047,0.122,0.244,0.183,303.895
110518,137846,8878,0.06,-0.952,-0.046,0.122,0.244,0.183,303.901
110536,137880,18577,0.062,-0.947,-0.047,0.061,0.122,0.244,303.905
110536,137863,8877,0.064,-0.943,-0.046,0.061,0.122,0.244,303.911
110525,137880,18577,0.063,-0.945,-0.049,-0.427,-0.061,0.366,303.915
110525,137869,8886,0.06,-0.951,-0.049,-0.427,-0.061,0.366,303.921
110496,137880,18577,0.062,-0.955,-0.049,-1.159,-0.061,0.488,303.925
110496,137849,8871,0.062,-0.958,-0.051,-1.159,-0.061,0.488,303.931
110502,137880,18577,0.06,-0.963,-0.05,-1.341,-0.122,0.61,303.935
110502,137862,8873,0.063,-0.97,-0.043,-1.341,-0.122,0.61,303.941
110482,137880,18577,0.063,-0.969,-0.039,-1.28,-0.183,0.732,303.945
110482,137858,8889,0.063,-0.969,-0.046,-1.28,-0.183,0.732,303.951
110496,137880,18577,0.062,-0.971,-0.045,-1.159,0.061,0.671,303.955
110496,137879,8878,0.064,-0.971,-0.046,-1.159,0.061,0.671,303.961
110509,137880,18577,0.062,-0.971,-0.045,-0.915,0.244,0.366,303.964
110509,137862,8874,0.064,-0.968,-0.048,-0.915,0.244,0.366,303.971
110518,137880,18577,0.064,-0.967,-0.052,-0.549,0.427,0.244,303.974
110518,137871,8881,0.063,-0.967,-0.055,-0.549,0.427,0.244,303.981
110549,137880,18577,0.062,-0.967,-0.054,-0.061,0.671,0.183,303.984
110549,137897,8885,0.062,-0.962,-0.052,-0.061,0.671,0.183,303.99
110562,137880,18577,0.064,-0.957,-0.049,0.488,0.549,0.427,303.994
110562,137922,8890,0.064,-0.952,-0.045,0.488,0.549,0.427,304
110532,137880,18577,0.063,-0.95,-0.052,0.488,0.671,0.488,304.004
110532,137913,8878,0.057,-0.957,-0.048,0.488,0.671,0.488,304.01
110566,137880,18577,0.056,-0.96,-0.05,0.122,0.732,0.488,304.014
110566,137900,8872,0.058,-0.958,-0.051,0.122,0.732,0.488,304.02
110536,137880,18577,0.056,-0.958,-0.05,-0.122,0.61,0.549,304.024
110536,137920,8880,0.06,-0.962,-0.044,-0.122,0.61,0.549,304.03
110541,137880,18577,0.057,-0.961,-0.043,-0.122,0.549,0.366,304.034
110541,137915,8889,0.062,-0.96,-0.047,-0.122,0.549,0.366,304.04
110533,137880,18577,0.064,-0.96,-0.042,0,0.549,0.427,304.044
110533,137914,8872,0.063,-0.958,-0.046,0,0.549,0.427,304.05
110550,137880,18577,0.059,-0.96,-0.052,-0.305,0.549,0.427,304.054
110550,137920,8881,0.062,-0.967,-0.05,-0.305,0.549,0.427,304.06
110563,137880,18577,0.06,-0.97,-0.052,-0.366,0.671,0.366,304.063
110563,137911,8882,0.062,-0.969,-0.05,-0.366,0.671,0.366,304.07
110548,137880,18577,0.063,-0.965,-0.048,0.061,0.671,0.305,304.073
110548,137912,8878,0.061,-0.961,-0.046,0.061,0.671,0.305,304.08
110546,137880,18577,0.06,-0.961,-0.04,0.427,0.671,0.244,304.083
110546,137891,8905,0.059,-0.96,-0.043,0.427,0.671,0.244,304.089
110523,137880,18577,0.061,-0.958,-0.043,0.244,0.671,0.366,304.093
110523,137916,8887,0.06,-0.955,-0.043,0.244,0.671,0.366,304.099
110534,137880,18577,0.061,-0.956,-0.046,-0.061,0.488,0.427,304.103
110534,137876,8882,0.057,-0.959,-0.049,-0.061,0.488,0.427,304.109
110523,137880,18577,0.053,-0.964,-0.048,-0.305,0.427,0.366,304.113
110523,137882,8880,0.052,-0.965,-0.05,-0.305,0.427,0.366,304.119
110492,137880,18577,0.06,-0.961,-0.049,-0.488,0.488,0.122,304.123
110492,137851,8899,0.059,-0.963,-0.049,-0.488,0.488,0.122,304.129
110496,137880,18577,0.057,-0.961,-0.046,-0.366,0.366,0,304.133
110496,137849,8881,0.059,-0.965,-0.042,-0.366,0.366,0,304.139
110471,137880,18577,0.058,-0.965,-0.042,-0.366,0.183,-0.061,304.143
110471,137834,8875,0.06,-0.963,-0.048,-0.366,0.183,-0.061,304.149
110480,137880,18577,0.061,-0.96,-0.049,-0.671,0.122,-0.122,304.153
110480,137821,8878,0.063,-0.964,-0.051,-0.671,0.122,-0.122,304.159
110480,137880,18577,0.063,-0.964,-0.051,-0.671,0.122,-0.122,304.162
110480,137826,8858,0.064,-0.958,-0.048,-0.61,0.183,-0.122,304.169
110465,137880,18577,0.064,-0.958,-0.048,-0.61,0.183,-0.122,304.172
110465,137821,8875,0.063,-0.959,-0.043,-0.488,0.183,0.122,304.179
110477,137880,18577,0.063,-0.959,-0.043,-0.488,0.183,0.122,304.182
110477,137837,8878,0.06,-0.961,-0.041,-0.488,0.183,0.183,304.188
110479,137880,18577,0.06,-0.961,-0.041,-0.488,0.183,0.183,304.192
110479,137828,8864,0.063,-0.962,-0.05,-0.915,0.183,0.244,304.198
110478,137880,18577,0.063,-0.962,-0.05,-0.915,0.183,0.244,304.202
110478,137816,8879,0.06,-0.964,-0.042,-0.854,0.061,0.183,304.208
110470,137880,18577,0.06,-0.964,-0.042,-0.854,0.061,0.183,304.212
110470,137805,8870,0.061,-0.958,-0.052,-0.671,0,0.244,304.218
110471,137880,18577,0.061,-0.958,-0.052,-0.671,0,0.244,304.222
110471,137807,8872,0.059,-0.964,-0.048,-0.427,0.061,0.244,304.228
110437,137880,18577,0.059,-0.964,-0.048,-0.427,0.061,0.244,304.232
110437,137807,8872,0.062,-0.959,-0.055,-0.427,-0.061,0.183,304.238
110418,137880,18577,0.062,-0.959,-0.055,-0.427,-0.061,0.183,304.242
110418,137761,8878,0.058,-0.965,-0.052,-0.61,0,0.244,304.248
110418,137880,18577,0.058,-0.965,-0.052,-0.61,0,0.244,304.252
110418,137774,8866,0.059,-0.969,-0.056,-0.488,0.183,0.122,304.258
110436,137880,18577,0.059,-0.969,-0.056,-0.488,0.183,0.122,304.261
110436,137747,8873,0.064,-0.962,-0.052,-0.305,0.244,0,304.268
110433,137880,18577,0.064,-0.962,-0.052,-0.305,0.244,0,304.271
110433,137762,8871,0.062,-0.954,-0.047,0,0.244,0.122,304.278
110457,137880,18577,0.062,-0.954,-0.047,0,0.244,0.122,304.281
110457,137772,8877,0.062,-0.961,-0.047,-0.183,0.427,0.122,304.287
110450,137880,18577,0.062,-0.961,-0.047,-0.183,0.427,0.122,304.291
110450,137762,8879,0.06,-0.961,-0.054,-0.671,0.427,0.061,304.297
110456,137880,18577,0.06,-0.961,-0.054,-0.671,0.427,0.061,304.301
110456,137788,8874,0.061,-0.962,-0.054,-0.427,0.244,0.183,304.307
110417,137880,18577,0.064,-0.959,-0.056,-0.427,0.244,0.183,304.311
110417,137776,8874,0.066,-0.955,-0.056,-0.183,0.305,0.244,304.317
110448,137880,18577,0.062,-0.96,-0.052,-0.183,0.305,0.244,304.321
110448,137780,8862,0.062,-0.96,-0.049,0.061,0.61,0.244,304.327
110416,137880,18577,0.066,-0.964,-0.052,0.061,0.61,0.244,304.331
110416,137765,8864,0.065,-0.966,-0.047,0.183,0.488,0.305,304.337
110419,137880,18577,0.067,-0.965,-0.041,0.183,0.488,0.305,304.341
110419,137754,8860,0.065,-0.959,-0.04,0.366,0.427,0.549,304.347
110430,137880,18577,0.068,-0.957,-0.046,0.366,0.427,0.549,304.351
110430,137775,8872,0.064,-0.962,-0.045,0.122,0.61,0.61,304.357
110416,137880,18577,0.063,-0.965,-0.046,0.122,0.61,0.61,304.36
110416,137781,8875,0.065,-0.967,-0.048,0,0.732,0.61,304.367
110424,137880,18577,0.064,-0.962,-0.044,0,0.732,0.61,304.37
110424,137754,8868,0.065,-0.961,-0.048,0.244,0.793,0.61,304.377
110404,137624,18577,0.063,-0.957,-0.051,0.244,0.793,0.61,304.38
110404,137726,8863,0.059,-0.957,-0.051,0.061,0.793,0.549,304.386
110396,137880,18577,0.059,-0.959,-0.055,0.061,0.793,0.549,304.39
110396,137753,8874,0.057,-0.957,-0.053,0,0.671,0.488,304.396
110405,137880,18577,0.058,-0.959,-0.053,0,0.671,0.488,304.4
110405,137757,8874,0.06,-0.962,-0.053,0.122,0.61,0.488,304.406
110410,137880,18577,0.06,-0.962,-0.053,0.122,0.61,0.488,304.41
110410,137771,8866,0.059,-0.962,-0.047,0.183,0.549,0.549,304.416
110408,137880,18577,0.058,-0.961,-0.047,0.183,0.549,0.549,304.42
110408,137751,8882,0.058,-0.958,-0.046,0.488,0.488,0.549,304.426
110391,137880,18577,0.058,-0.956,-0.047,0.488,0.488,0.549,304.43
110391,137748,8863,0.062,-0.959,-0.045,0.305,0.427,0.61,304.436
110395,137880,18577,0.064,-0.958,-0.047,0.305,0.427,0.61,304.44
110395,137766,8870,0.062,-0.955,-0.046,-0.061,0.488,0.61,304.446
110410,137880,18577,0.059,-0.962,-0.044,-0.061,0.488,0.61,304.45
110410,137758,8864,0.059,-0.963,-0.046,-0.305,0.671,0.671,304.456
110385,137880,18577,0.059,-0.964,-0.048,-0.305,0.671,0.671,304.459
110385,137764,8873,0.062,-0.964,-0.047,-0.366,0.732,0.61,304.466
110392,137880,18577,0.064,-0.967,-0.045,-0.366,0.732,0.61,304.469
110392,137735,8869,0.063,-0.967,-0.043,0,0.488,0.61,304.476
110378,137880,18577,0.062,-0.965,-0.043,0,0.488,0.61,304.479
110378,137738,8868,0.062,-0.967,-0.044,0.122,0.671,0.671,304.485
110369,137880,18577,0.061,-0.967,-0.049,0.122,0.671,0.671,304.489
110369,137750,8871,0.058,-0.97,-0.05,0.061,0.61,0.549,304.495
110372,137880,18577,0.058,-0.97,-0.049,0.061,0.61,0.549,304.499
110372,137735,8873,0.057,-0.967,-0.05,0.366,0.549,0.427,304.505
110372,137880,18577,0.056,-0.964,-0.055,0.366,0.549,0.427,304.509
110372,137751,8870,0.055,-0.966,-0.053,0.671,0.671,0.122,304.515
110366,137880,18577,0.053,-0.963,-0.049,0.671,0.671,0.122,304.519
110366,137746,8867,0.054,-0.956,-0.05,0.366,0.488,-0.122,304.525
110376,137880,18577,0.058,-0.958,-0.046,0.366,0.488,-0.122,304.529
110376,137767,8868,0.061,-0.956,-0.041,0.061,0.244,-0.366,304.535
110398,137880,18577,0.059,-0.954,-0.047,0.061,0.244,-0.366,304.539
110398,137757,8858,0.059,-0.954,-0.043,-0.244,0.061,-0.366,304.545
110391,137880,18577,0.06,-0.952,-0.041,-0.244,0.061,-0.366,304.549
110391,137768,8880,0.065,-0.951,-0.044,-0.61,0,-0.122,304.555
110414,137880,18577,0.064,-0.954,-0.044,-0.61,0,-0.122,304.558
110414,137782,8873,0.064,-0.957,-0.049,-0.976,-0.061,0.122,304.565
110400,137880,18577,0.065,-0.959,-0.048,-0.976,-0.061,0.122,304.568
110400,137760,8880,0.066,-0.963,-0.047,-0.976,-0.122,0.244,304.575
110413,137880,18577,0.068,-0.961,-0.05,-0.976,-0.122,0.244,304.578
110413,137768,8867,0.063,-0.959,-0.052,-0.671,0,0.427,304.584
110430,137880,18577,0.064,-0.964,-0.05,-0.671,0,0.427,304.588
110430,137763,8856,0.063,-0.969,-0.048,-0.366,0.183,0.427,304.594
110420,137880,18577,0.061,-0.97,-0.05,-0.366,0.183,0.427,304.598
110420,137778,8859,0.062,-0.972,-0.05,-0.183,0.427,0.183,304.604
110433,137880,18577,0.061,-0.97,-0.051,-0.183,0.427,0.183,304.608
110433,137765,8868,0.061,-0.966,-0.051,0.244,0.488,0.183,304.614
110433,137880,18577,0.063,-0.961,-0.049,0.244,0.488,0.183,304.618
110433,137782,8884,0.059,-0.958,-0.047,0.61,0.427,0.244,304.624
110434,137880,18577,0.061,-0.954,-0.044,0.61,0.427,0.244,304.628
110434,137781,8875,0.058,-0.955,-0.051,0.427,0.427,0.183,304.634
110437,137880,18577,0.059,-0.957,-0.057,0.427,0.427,0.183,304.638
110437,137793,8895,0.061,-0.959,-0.053,0.122,0.427,0.183,304.644
110434,137880,18577,0.064,-0.957,-0.052,0.122,0.427,0.183,304.648
110434,137774,8874,0.064,-0.956,-0.048,-0.122,0.488,0.244,304.654
110429,137880,18577,0.061,-0.955,-0.046,-0.122,0.488,0.244,304.657
110429,137778,8880,0.064,-0.959,-0.046,-0.305,0.305,0.305,304.664
110400,137880,18577,0.064,-0.961,-0.045,-0.305,0.305,0.305,304.667
110400,137783,8871,0.064,-0.962,-0.042,-0.549,0.244,0.427,304.674
110416,137880,18577,0.067,-0.963,-0.045,-0.549,0.244,0.427,304.677
110416,137777,8880,0.067,-0.967,-0.043,-0.305,0.183,0.61,304.683
110411,137880,18577,0.064,-0.962,-0.047,-0.305,0.183,0.61,304.687
110411,137774,8863,0.059,-0.962,-0.048,-0.122,0.305,0.61,304.693
110427,137880,18577,0.06,-0.964,-0.04,-0.122,0.305,0.61,304.697
110427,137790,8861,0.062,-0.962,-0.038,-0.061,0.305,0.488,304.703
110423,137880,18577,0.062,-0.961,-0.042,-0.061,0.305,0.488,304.707
110423,137790,8885,0.061,-0.958,-0.041,-0.305,0.366,0.366,304.713
110423,137880,18577,0.059,-0.96,-0.04,-0.305,0.366,0.366,304.717
110423,137784,8886,0.057,-0.962,-0.042,-0.549,0.244,0.305,304.723
110407,137880,18577,0.058,-0.961,-0.045,-0.549,0.244,0.305,304.727
110407,137812,8881,0.058,-0.957,-0.053,-0.549,0.122,0.244,304.733
110386,137880,18577,0.064,-0.956,-0.055,-0.549,0.122,0.244,304.737
110386,137762,8864,0.062,-0.957,-0.048,-0.671,0.061,0.366,304.743
110345,137880,18577,0.062,-0.957,-0.048,-0.671,0.061,0.366,304.747
110345,137778,8867,0.063,-0.962,-0.052,-0.732,0.122,0.366,304.753
110366,137880,18577,0.063,-0.962,-0.052,-0.732,0.122,0.366,304.756
110366,137751,8876,0.062,-0.963,-0.044,-0.671,0.183,0.244,304.763
110327,137880,18577,0.062,-0.963,-0.044,-0.671,0.183,0.244,304.766
110327,137752,8845,0.063,-0.959,-0.05,-0.671,0.122,0.366,304.773
110335,137880,18577,0.063,-0.959,-0.05,-0.671,0.122,0.366,304.776
110335,137732,8857,0.063,-0.965,-0.051,-0.427,0.366,0.427,304.782
110331,137880,18577,0.063,-0.965,-0.051,-0.427,0.366,0.427,304.786
110331,137745,8868,0.062,-0.96,-0.056,-0.427,0.366,0.427,304.792
110353,137880,18577,0.062,-0.96,-0.056,-0.427,0.366,0.427,304.796
110353,137760,8875,0.063,-0.962,-0.051,-0.183,0.305,0.427,304.802
110351,137880,18577,0.063,-0.962,-0.051,-0.183,0.305,0.427,304.806
110351,137780,8868,0.061,-0.962,-0.046,0.061,0.305,0.305,304.812
110344,137880,18577,0.061,-0.962,-0.046,0.061,0.305,0.305,304.816
110344,137799,8875,0.06,-0.958,-0.048,0.244,0.183,0.366,304.822
110361,137880,18577,0.06,-0.958,-0.048,0.244,0.183,0.366,304.826
110361,137754,8858,0.061,-0.96,-0.043,-0.061,0.122,0.305,304.832
110360,137880,18577,0.061,-0.96,-0.043,-0.061,0.122,0.305,304.836
110360,137766,8868,0.06,-0.96,-0.049,-0.366,0,0.305,304.842
