111320,139505,8677,0.054,-0.959,-0.073,-0.549,0.305,0.366,314.729
111320,139497,8626,0.052,-0.962,-0.073,-0.549,0.305,0.366,314.735
111319,139505,8677,0.053,-0.964,-0.068,-0.244,0.305,0.305,314.739
111319,139498,8622,0.053,-0.965,-0.071,-0.244,0.305,0.305,314.745
111329,139505,8677,0.055,-0.961,-0.077,-0.122,0.305,0.305,314.749
111329,139510,8623,0.056,-0.956,-0.077,-0.122,0.305,0.305,314.755
111343,139505,8677,0.053,-0.956,-0.08,0.244,0.305,0.427,314.759
111343,139494,8636,0.051,-0.958,-0.075,0.244,0.305,0.427,314.765
111336,139505,8677,0.052,-0.956,-0.076,0.488,0.549,0.549,314.769
111336,139517,8654,0.052,-0.953,-0.079,0.488,0.549,0.549,314.775
111351,139505,8677,0.054,-0.95,-0.078,0.549,0.61,0.549,314.779
111351,139483,8643,0.052,-0.956,-0.076,0.549,0.61,0.549,314.785
111357,139505,8677,0.053,-0.956,-0.073,0.61,0.61,0.549,314.789
111357,139482,8624,0.052,-0.956,-0.075,0.61,0.61,0.549,314.795
111347,139505,8677,0.051,-0.956,-0.07,0.305,0.671,0.61,314.799
111347,139501,8639,0.054,-0.958,-0.07,0.305,0.671,0.61,314.805
111367,139505,8677,0.051,-0.964,-0.07,0.305,0.732,0.732,314.808
111367,139491,8631,0.052,-0.966,-0.074,0.305,0.732,0.732,314.815
111325,139505,8677,0.052,-0.964,-0.073,0.366,0.732,0.915,314.818
111325,139465,8652,0.056,-0.959,-0.075,0.366,0.732,0.915,314.825
111341,139505,8677,0.052,-0.961,-0.072,0.671,0.671,1.037,314.828
111341,139496,8640,0.049,-0.964,-0.072,0.671,0.671,1.037,314.834
111319,139505,8677,0.05,-0.964,-0.076,0.549,0.793,0.854,314.838
111319,139456,8636,0.053,-0.964,-0.078,0.549,0.793,0.854,314.844
111318,139505,8677,0.053,-0.96,-0.074,0.427,0.976,0.732,314.848
111318,139479,8633,0.05,-0.96,-0.068,0.427,0.976,0.732,314.854
111325,139505,8677,0.047,-0.964,-0.07,0.671,1.098,0.854,314.858
111325,139464,8612,0.048,-0.961,-0.07,0.671,1.098,0.854,314.864
111330,139505,8677,0.051,-0.958,-0.067,0.366,0.976,0.732,314.868
111330,139459,8644,0.047,-0.958,-0.065,0.366,0.976,0.732,314.874
111314,139505,8677,0.047,-0.965,-0.071,0.122,0.732,0.549,314.878
111314,139447,8636,0.051,-0.967,-0.07,0.122,0.732,0.549,314.884
111339,139505,8677,0.051,-0.966,-0.073,0.244,0.671,0.488,314.888
111339,139471,8623,0.051,-0.962,-0.072,0.244,0.671,0.488,314.894
111324,139505,8677,0.051,-0.961,-0.071,0.305,0.671,0.488,314.898
111324,139463,8639,0.051,-0.96,-0.069,0.305,0.671,0.488,314.904
111341,139505,8677,0.052,-0.963,-0.062,0.244,0.488,0.366,314.907
111341,139452,8639,0.052,-0.96,-0.065,0.244,0.488,0.366,314.914
111332,139505,8677,0.053,-0.959,-0.073,0,0.488,0.305,314.917
111332,139444,8618,0.051,-0.955,-0.069,0,0.488,0.305,314.924
111324,139505,8677,0.051,-0.958,-0.066,-0.061,0.427,0.427,314.927
111324,139460,8637,0.051,-0.96,-0.066,-0.061,0.427,0.427,314.933
111318,139505,8677,0.049,-0.959,-0.061,-0.366,0.366,0.488,314.937
111318,139437,8635,0.047,-0.96,-0.058,-0.366,0.366,0.488,314.943
111303,139505,8677,0.047,-0.956,-0.062,-0.793,0.183,0.366,314.947
111303,139444,8636,0.048,-0.958,-0.069,-0.793,0.183,0.366,314.953
111323,139505,8677,0.047,-0.96,-0.071,-1.098,-0.122,0.305,314.957
111323,139433,8633,0.051,-0.964,-0.068,-1.098,-0.122,0.305,314.963
111331,139505,8677,0.05,-0.962,-0.076,-1.159,-0.244,0.305,314.967
111331,139413,8642,0.049,-0.962,-0.075,-1.159,-0.244,0.305,314.973
111320,139505,8677,0.047,-0.963,-0.073,-1.098,-0.122,0.366,314.977
111320,139434,8633,0.051,-0.962,-0.073,-1.098,-0.122,0.366,314.983
111321,139505,8677,0.052,-0.963,-0.075,-0.793,-0.122,0.122,314.987
111321,139405,8622,0.051,-0.963,-0.077,-0.793,-0.122,0.122,314.993
111273,139505,8677,0.055,-0.963,-0.072,-0.488,-0.061,0,314.997
111273,139431,8632,0.056,-0.963,-0.073,-0.488,-0.061,0,315.003
111313,139505,8677,0.055,-0.963,-0.074,-0.366,0.122,-0.061,315.006
111313,139398,8617,0.055,-0.962,-0.071,-0.366,0.122,-0.061,315.013
111270,139505,8677,0.053,-0.96,-0.071,-0.366,0.122,0,315.016
111270,139417,8636,0.051,-0.959,-0.076,-0.366,0.122,0,315.023
111290,139505,8677,0.054,-0.958,-0.073,-0.305,0.244,-0.061,315.026
111290,139394,8616,0.052,-0.955,-0.072,-0.305,0.244,-0.061,315.032
111297,139505,8677,0.05,-0.957,-0.069,-0.244,0.061,0.122,315.036
111297,139378,8627,0.05,-0.959,-0.066,-0.244,0.061,0.122,315.042
111273,139505,8677,0.052,-0.958,-0.074,-0.427,0.122,0.244,315.046
111273,139388,8628,0.051,-0.957,-0.074,-0.427,0.122,0.244,315.052
111296,139505,8677,0.053,-0.954,-0.077,-0.793,0.122,0.244,315.056
111296,139377,8633,0.053,-0.951,-0.078,-0.793,0.122,0.244,315.062
111296,139505,8677,0.055,-0.955,-0.072,-0.976,0,0.366,315.066
111296,139420,8635,0.051,-0.957,-0.069,-0.976,0,0.366,315.072
111289,139505,8677,0.051,-0.964,-0.072,-1.098,0.061,0.427,315.076
111289,139386,8625,0.052,-0.965,-0.078,-1.098,0.061,0.427,315.082
111314,139505,8677,0.051,-0.962,-0.078,-1.098,0.122,0.427,315.086
111314,139377,8638,0.052,-0.961,-0.073,-1.098,0.122,0.427,315.092
111311,139505,8677,0.053,-0.967,-0.073,-0.732,0.061,0.488,315.096
111311,139366,8642,0.051,-0.967,-0.069,-0.732,0.061,0.488,315.102
111289,139505,8677,0.052,-0.966,-0.069,-0.61,0.244,0.427,315.105
111289,139343,8631,0.057,-0.964,-0.078,-0.61,0.244,0.427,315.112
111293,139505,8677,0.059,-0.962,-0.08,-0.488,0.244,0.488,315.115
111293,139379,8634,0.053,-0.966,-0.075,-0.488,0.244,0.488,315.122
111340,139505,8677,0.053,-0.967,-0.073,0,0.366,0.366,315.125
111340,139390,8625,0.054,-0.963,-0.076,0,0.366,0.366,315.131
111334,139505,8677,0.054,-0.958,-0.074,0.183,0.488,0.366,315.135
111334,139392,8642,0.054,-0.956,-0.075,0.183,0.488,0.366,315.141
111337,139505,8677,0.053,-0.956,-0.073,0.122,0.488,0.366,315.145
111337,139404,8636,0.052,-0.954,-0.068,0.122,0.488,0.366,315.151
111347,139505,8677,0.051,-0.953,-0.068,0,0.488,0.366,315.155
111347,139420,8643,0.051,-0.953,-0.073,0,0.488,0.366,315.161
111367,139505,8677,0.051,-0.953,-0.073,0,0.488,0.366,315.165
111367,139398,8620,0.05,-0.953,-0.076,-0.244,0.488,0.427,315.171
111361,139505,8677,0.05,-0.953,-0.076,-0.244,0.488,0.427,315.175
111361,139408,8645,0.048,-0.962,-0.073,-0.305,0.427,0.427,315.181
111356,139505,8677,0.048,-0.962,-0.073,-0.305,0.427,0.427,315.185
111356,139406,8629,0.05,-0.964,-0.07,-0.427,0.366,0.427,315.191
111336,139505,8677,0.05,-0.964,-0.07,-0.427,0.366,0.427,315.195
111336,139417,8642,0.053,-0.964,-0.077,-0.305,0.427,0.427,315.201
111353,139505,8677,0.053,-0.964,-0.077,-0.305,0.427,0.427,315.204
111353,139413,8630,0.052,-0.967,-0.076,-0.061,0.305,0.427,315.211
111344,139505,8677,0.052,-0.967,-0.076,-0.061,0.305,0.427,315.214
111344,139405,8626,0.052,-0.965,-0.081,0.305,0.427,0.244,315.221
111347,139505,8677,0.052,-0.965,-0.081,0.305,0.427,0.244,315.224
111347,139410,8638,0.053,-0.966,-0.075,0.244,0.549,0.183,315.23
111351,139505,8677,0.053,-0.966,-0.075,0.244,0.549,0.183,315.234
111351,139398,8625,0.052,-0.963,-0.071,0.366,0.61,0.061,315.24
111331,139505,8677,0.052,-0.963,-0.071,0.366,0.61,0.061,315.244
111331,139389,8643,0.053,-0.96,-0.067,0.488,0.61,0,315.25
111302,139505,8677,0.053,-0.96,-0.067,0.488,0.61,0,315.254
111302,139377,8635,0.054,-0.96,-0.076,0.549,0.488,0,315.26
111303,139505,8677,0.054,-0.96,-0.076,0.549,0.488,0,315.264
111303,139367,8623,0.052,-0.961,-0.064,0.427,0.488,-0.061,315.27
111310,139505,8677,0.052,-0.961,-0.064,0.427,0.488,-0.061,315.274
111310,139368,8637,0.052,-0.955,-0.067,0.183,0.427,-0.061,315.28
111275,139505,8677,0.052,-0.955,-0.067,0.183,0.427,-0.061,315.284
111275,139370,8650,0.052,-0.952,-0.068,-0.122,0.305,0.061,315.29
111322,139505,8677,0.052,-0.952,-0.068,-0.122,0.305,0.061,315.294
111322,139355,8643,0.054,-0.957,-0.075,-0.305,0.183,0.183,315.3
111318,139505,8677,0.054,-0.957,-0.075,-0.305,0.183,0.183,315.303
111318,139360,8645,0.051,-0.959,-0.074,-0.671,0.183,0.305,315.31
111305,139505,8677,0.049,-0.956,-0.072,-0.671,0.183,0.305,315.313
111305,139344,8634,0.05,-0.959,-0.072,-0.793,0.183,0.427,315.32
111311,139505,8677,0.049,-0.964,-0.071,-0.793,0.183,0.427,315.323
111311,139339,8636,0.049,-0.96,-0.077,-0.61,0.183,0.488,315.329
111298,139505,8677,0.053,-0.964,-0.077,-0.61,0.183,0.488,315.333
111298,139357,8637,0.05,-0.962,-0.076,-0.427,0.305,0.427,315.339
111304,139505,8677,0.05,-0.96,-0.074,-0.427,0.305,0.427,315.343
111304,139368,8627,0.053,-0.961,-0.074,-0.061,0.305,0.488,315.349
111308,139505,8677,0.052,-0.962,-0.073,-0.061,0.305,0.488,315.353
111308,139329,8633,0.053,-0.966,-0.074,0,0.366,0.305,315.359
111286,139505,8677,0.054,-0.968,-0.073,0,0.366,0.305,315.363
111286,139346,8648,0.054,-0.961,-0.076,0,0.549,0.305,315.369
111271,139505,8677,0.053,-0.962,-0.068,0,0.549,0.305,315.373
111271,139352,8643,0.053,-0.967,-0.073,0.122,0.488,0.244,315.379
111253,139505,8677,0.055,-0.96,-0.074,0.122,0.488,0.244,315.383
111253,139330,8621,0.056,-0.961,-0.07,0.122,0.427,0.244,315.389
111241,139505,8677,0.054,-0.96,-0.074,0.122,0.427,0.244,315.393
111241,139329,8646,0.054,-0.957,-0.074,0.183,0.488,0.366,315.399
111251,139505,8677,0.055,-0.96,-0.075,0.183,0.488,0.366,315.402
111251,139333,8631,0.055,-0.961,-0.074,0.061,0.61,0.488,315.409
111251,139505,8677,0.051,-0.959,-0.071,0.061,0.61,0.488,315.412
111251,139332,8635,0.048,-0.955,-0.075,-0.183,0.732,0.549,315.419
111255,139505,8677,0.049,-0.954,-0.069,-0.183,0.732,0.549,315.422
111255,139341,8636,0.05,-0.958,-0.061,-0.183,0.549,0.732,315.428
111266,139505,8677,0.051,-0.957,-0.066,-0.183,0.549,0.732,315.432
111266,139349,8637,0.049,-0.96,-0.069,-0.366,0.366,0.671,315.438
111242,139505,8677,0.05,-0.961,-0.068,-0.366,0.366,0.671,315.442
111242,139327,8623,0.052,-0.96,-0.073,-0.61,0.244,0.488,315.448
111244,139505,8677,0.046,-0.961,-0.07,-0.61,0.244,0.488,315.452
111244,139338,8608,0.049,-0.959,-0.07,-0.793,0.061,0.427,315.458
111240,139505,8677,0.047,-0.961,-0.067,-0.793,0.061,0.427,315.462
111240,139304,8626,0.048,-0.961,-0.071,-0.976,0,0.366,315.468
111211,139505,8677,0.053,-0.963,-0.076,-0.976,0,0.366,315.472
111211,139290,8633,0.053,-0.963,-0.077,-1.159,-0.122,0.427,315.478
111189,139505,8677,0.052,-0.964,-0.075,-1.159,-0.122,0.427,315.482
111189,139296,8623,0.05,-0.964,-0.077,-1.098,-0.183,0.366,315.488
111205,139505,8677,0.051,-0.962,-0.077,-1.098,-0.183,0.366,315.492
111205,139288,8606,0.052,-0.963,-0.075,-1.037,-0.061,0.244,315.498
111178,139505,8677,0.052,-0.96,-0.08,-1.037,-0.061,0.244,315.501
111178,139283,8639,0.047,-0.963,-0.073,-0.793,-0.122,0.122,315.508
111239,139505,8677,0.049,-0.965,-0.068,-0.793,-0.122,0.122,315.511
111239,139327,8608,0.05,-0.963,-0.07,-0.671,0,-0.061,315.518
111249,139505,8677,0.049,-0.963,-0.075,-0.671,0,-0.061,315.521
111249,139352,8620,0.049,-0.962,-0.072,-0.427,0.061,-0.061,315.527
111257,139505,8677,0.053,-0.958,-0.075,-0.427,0.061,-0.061,315.531
111257,139364,8640,0.053,-0.959,-0.072,-0.488,-0.061,0,315.537
111295,139505,8677,0.048,-0.958,-0.071,-0.488,-0.061,0,315.541
111295,139364,8649,0.05,-0.955,-0.073,-0.488,-0.183,0,315.547
111283,139505,8677,0.052,-0.955,-0.075,-0.488,-0.183,0,315.551
111283,139368,8641,0.051,-0.952,-0.078,-0.671,-0.122,0.061,315.557
111294,139505,8677,0.052,-0.951,-0.078,-0.671,-0.122,0.061,315.561
111294,139409,8622,0.052,-0.952,-0.08,-0.976,-0.183,0.183,315.567
111308,139505,8677,0.049,-0.957,-0.076,-0.976,-0.183,0.183,315.571
111308,139388,8629,0.053,-0.96,-0.076,-1.159,-0.122,0.122,315.577
111329,139505,8677,0.054,-0.961,-0.075,-1.159,-0.122,0.122,315.581
111329,139400,8627,0.051,-0.961,-0.076,-1.159,-0.061,0.122,315.587
111316,139505,8677,0.057,-0.96,-0.075,-1.159,-0.061,0.122,315.591
111316,139410,8630,0.055,-0.959,-0.079,-1.037,-0.061,0.244,315.597
111295,139505,8677,0.055,-0.96,-0.073,-1.037,-0.061,0.244,315.6
111295,139443,8631,0.058,-0.963,-0.073,-0.671,0.183,0.305,315.607
111294,139505,8677,0.058,-0.966,-0.075,-0.671,0.183,0.305,315.61
111294,139395,8636,0.058,-0.965,-0.076,-0.427,0.366,0.366,315.616
111310,139505,8677,0.06,-0.962,-0.079,-0.427,0.366,0.366,315.62
111310,139394,8624,0.056,-0.959,-0.078,-0.244,0.488,0.488,315.626
111296,139505,8677,0.053,-0.96,-0.078,-0.244,0.488,0.488,315.63
111296,139414,8624,0.054,-0.959,-0.076,-0.061,0.61,0.549,315.636
111287,139505,8677,0.053,-0.961,-0.075,-0.061,0.61,0.549,315.64
111287,139407,8630,0.05,-0.958,-0.077,0.061,0.61,0.549,315.646
111304,139505,8677,0.049,-0.963,-0.079,0.061,0.61,0.549,315.65
111304,139402,8632,0.05,-0.959,-0.081,0.183,0.549,0.549,315.656
111285,139505,8677,0.05,-0.96,-0.077,0.183,0.549,0.549,315.66
111285,139407,8629,0.052,-0.959,-0.078,0,0.549,0.488,315.666
111321,139505,8677,0.05,-0.958,-0.073,0,0.549,0.488,315.67
111321,139436,8633,0.052,-0.958,-0.073,-0.183,0.488,0.427,315.676
111334,139505,8677,0.049,-0.956,-0.073,-0.183,0.488,0.427,315.68
111334,139419,8626,0.049,-0.954,-0.071,-0.305,0.244,0.366,315.686
111326,139505,8677,0.049,-0.957,-0.068,-0.305,0.244,0.366,315.69
111326,139426,8630,0.049,-0.96,-0.073,-0.366,0.244,0.366,315.696
111341,139505,8677,0.051,-0.958,-0.074,-0.366,0.244,0.366,315.699
111341,139405,8643,0.055,-0.958,-0.077,-0.427,0.183,0.305,315.706
111315,139505,8677,0.057,-0.956,-0.078,-0.427,0.183,0.305,315.709
111315,139429,8624,0.056,-0.961,-0.08,-0.305,0.305,0.366,315.715
111324,139505,8677,0.052,-0.962,-0.076,-0.305,0.305,0.366,315.719
111324,139413,8629,0.054,-0.961,-0.076,-0.122,0.427,0.488,315.725
111293,139505,8677,0.054,-0.962,-0.077,-0.122,0.427,0.488,315.729
111293,139392,8620,0.053,-0.96,-0.077,-0.122,0.427,0.549,315.735
111276,139505,8677,0.053,-0.962,-0.077,-0.122,0.427,0.549,315.739
111276,139391,8625,0.052,-0.964,-0.072,0.061,0.427,0.61,315.745
111261,139505,8677,0.052,-0.964,-0.072,0.061,0.427,0.61,315.749
111261,139354,8616,0.052,-0.965,-0.073,0.122,0.427,0.549,315.755
111267,139505,8677,0.052,-0.965,-0.073,0.122,0.427,0.549,315.759
111267,139376,8625,0.048,-0.961,-0.072,0,0.549,0.366,315.765
111271,139505,8677,0.048,-0.961,-0.072,0,0.549,0.366,315.769
111271,139327,8628,0.051,-0.967,-0.075,0.061,0.61,0.061,315.775
111251,139505,8677,0.051,-0.967,-0.075,0.061,0.61,0.061,315.779
111251,139308,8632,0.053,-0.961,-0.076,0.183,0.427,0,315.785
111229,139505,8677,0.053,-0.961,-0.076,0.183,0.427,0,315.789
111229,139343,8629,0.053,-0.959,-0.07,0.366,0.366,0,315.795
111219,139505,8677,0.053,-0.959,-0.07,0.366,0.366,0,315.798
111219,139309,8614,0.051,-0.953,-0.075,0.427,0.305,0,315.805
111228,139505,8677,0.051,-0.953,-0.075,0.427,0.305,0,315.808
111228,139303,8623,0.055,-0.951,-0.074,0.183,0.244,0.122,315.815
111197,139505,8677,0.055,-0.951,-0.074,0.183,0.244,0.122,315.818
111197,139300,8627,0.051,-0.957,-0.074,-0.122,0.305,0.305,315.824
111202,139505,8677,0.051,-0.957,-0.074,-0.122,0.305,0.305,315.828
111202,139288,8624,0.055,-0.957,-0.072,-0.488,0.366,0.366,315.834
111223,139505,8677,0.055,-0.957,-0.072,-0.488,0.366,0.366,315.838
111223,139269,8613,0.052,-0.958,-0.07,-0.671,0.244,0.488,315.844
111190,139249,8677,0.052,-0.958,-0.07,-0.671,0.244,0.488,315.848
111190,139254,8626,0.052,-0.966,-0.071,-0.854,0.366,0.488,315.854
111199,139249,8677,0.052,-0.966,-0.071,-0.854,0.366,0.488,315.858
111199,139249,8622,0.049,-0.968,-0.075,-0.854,0.183,0.427,315.864
111181,139249,8677,0.049,-0.968,-0.075,-0.854,0.183,0.427,315.868
111181,139247,8644,0.051,-0.968,-0.077,-0.366,0.305,0.427,315.874
111173,139249,8677,0.051,-0.968,-0.077,-0.366,0.305,0.427,315.878
111173,139251,8620,0.05,-0.962,-0.077,0.122,0.244,0.244,315.884
111163,139249,8677,0.05,-0.962,-0.077,0.122,0.244,0.244,315.888
111163,139235,8623,0.054,-0.962,-0.078,0.122,0.244,0.244,315.894
111166,139249,8677,0.055,-0.958,-0.08,0.366,0.366,0.061,315.897
111166,139218,8618,0.053,-0.959,-0.079,0.366,0.366,0.061,315.904
111152,139249,8677,0.055,-0.962,-0.072,0.549,0.305,0.061,315.907
111152,139242,8622,0.053,-0.959,-0.077,0.549,0.305,0.061,315.913
111168,139249,8677,0.055,-0.952,-0.077,0.671,0.427,0,315.917
111168,139258,8624,0.054,-0.951,-0.076,0.671,0.427,0,315.923
111163,139249,8677,0.054,-0.954,-0.074,0.488,0.488,0.122,315.927
111163,139229,8609,0.054,-0.953,-0.072,0.488,0.488,0.122,315.933
111166,139249,8677,0.052,-0.955,-0.071,0.122,0.61,0.244,315.937
111166,139234,8615,0.054,-0.958,-0.075,0.122,0.61,0.244,315.943
111176,139249,8677,0.051,-0.963,-0.074,-0.061,0.61,0.366,315.947
111176,139209,8629,0.05,-0.96,-0.072,-0.061,0.61,0.366,315.953
111181,139249,8677,0.052,-0.965,-0.067,0,0.427,0.549,315.957
111181,139234,8624,0.05,-0.966,-0.072,0,0.427,0.549,315.963
111186,139249,8677,0.051,-0.959,-0.071,0.122,0.366,0.488,315.967
111186,139248,8618,0.052,-0.956,-0.073,0.122,0.366,0.488,315.973
111157,139249,8677,0.05,-0.96,-0.074,0.122,0.366,0.427,315.977
111157,139229,8627,0.051,-0.959,-0.075,0.122,0.366,0.427,315.983
111164,139249,8677,0.052,-0.964,-0.077,0,0.488,0.366,315.986
111164,139238,8618,0.055,-0.961,-0.071,0,0.488,0.366,315.993
111155,139249,8677,0.054,-0.954,-0.073,0,0.427,0.366,315.996
111155,139216,8611,0.054,-0.953,-0.071,0,0.427,0.366,316.003
111128,139249,8677,0.054,-0.956,-0.072,-0.061,0.305,0.427,316.006
111128,139207,8611,0.055,-0.96,-0.075,-0.061,0.305,0.427,316.012
111134,139249,8677,0.057,-0.957,-0.073,-0.427,0.183,0.427,316.016
111134,139207,8595,0.054,-0.957,-0.077,-0.427,0.183,0.427,316.022
111149,139249,8677,0.049,-0.959,-0.074,-0.732,0.305,0.366,316.026
111149,139182,8606,0.049,-0.965,-0.071,-0.732,0.305,0.366,316.032
111162,139249,8677,0.051,-0.967,-0.071,-0.671,0.427,0.305,316.036
111162,139207,8611,0.053,-0.959,-0.074,-0.671,0.427,0.305,316.042
111164,139249,8677,0.055,-0.957,-0.074,-0.671,0.305,0.427,316.046
111164,139222,8619,0.055,-0.961,-0.075,-0.671,0.305,0.427,316.052
111161,139249,8677,0.052,-0.964,-0.072,-0.366,0.366,0.549,316.056
111161,139234,8620,0.051,-0.964,-0.075,-0.366,0.366,0.549,316.062
111169,139249,8677,0.05,-0.965,-0.073,-0.244,0.549,0.488,316.066
111169,139204,8611,0.052,-0.958,-0.079,-0.244,0.549,0.488,316.072
111166,139249,8677,0.054,-0.96,-0.082,0,0.549,0.61,316.076
111166,139227,8610,0.052,-0.96,-0.073,0,0.549,0.61,316.082
111175,139249,8677,0.049,-0.959,-0.074,0.305,0.427,0.549,316.086
111175,139249,8620,0.049,-0.961,-0.076,0.305,0.427,0.549,316.092
111161,139249,8677,0.05,-0.96,-0.076,0.183,0.427,0.305,316.095
111161,139246,8618,0.05,-0.96,-0.072,0.183,0.427,0.305,316.102
111176,139249,8677,0.05,-0.963,-0.071,0.061,0.244,0.122,316.105
111176,139258,8616,0.053,-0.968,-0.072,0.061,0.244,0.122,316.111
111171,139249,8677,0.051,-0.965,-0.071,0,0.305,-0.061,316.115
111171,139232,8615,0.052,-0.966,-0.079,0,0.305,-0.061,316.121
111176,139249,8677,0.05,-0.964,-0.078,-0.122,0.244,-0.122,316.125
111176,139248,8630,0.052,-0.968,-0.075,-0.122,0.244,-0.122,316.131
111171,139249,8677,0.052,-0.965,-0.075,-0.061,0.305,-0.244,316.135
111171,139238,8611,0.053,-0.962,-0.075,-0.061,0.305,-0.244,316.141
111151,139249,8677,0.054,-0.958,-0.076,-0.183,0.488,-0.427,316.145
111151,139216,8625,0.05,-0.96,-0.074,-0.183,0.488,-0.427,316.151
111161,139249,8677,0.05,-0.958,-0.071,-0.305,0.366,-0.305,316.155
111161,139244,8613,0.054,-0.956,-0.072,-0.305,0.366,-0.305,316.161
111166,139249,8677,0.055,-0.954,-0.074,-0.244,0.427,-0.183,316.165
111166,139242,8615,0.054,-0.953,-0.072,-0.244,0.427,-0.183,316.171
111161,139249,8677,0.056,-0.953,-0.074,-0.305,0.427,0,316.175
111161,139261,8616,0.056,-0.954,-0.073,-0.305,0.427,0,316.181
111206,139249,8677,0.051,-0.957,-0.07,-0.183,0.244,0.183,316.185
111206,139254,8619,0.053,-0.952,-0.074,-0.183,0.244,0.183,316.191
111221,139505,8677,0.057,-0.949,-0.073,-0.183,0.183,0.305,316.194
111221,139281,8621,0.056,-0.952,-0.078,-0.183,0.183,0.305,316.201
111217,139505,8677,0.059,-0.955,-0.078,-0.305,0.122,0.549,316.204
111217,139275,8611,0.054,-0.96,-0.075,-0.305,0.122,0.549,316.21
111220,139505,8677,0.05,-0.965,-0.073,-0.671,0.244,0.61,316.214
111220,139300,8617,0.049,-0.967,-0.072,-0.671,0.244,0.61,316.22
111247,139505,8677,0.05,-0.969,-0.076,-0.61,0.305,0.549,316.224
111247,139324,8620,0.051,-0.966,-0.076,-0.61,0.305,0.549,316.23
111219,139505,8677,0.052,-0.967,-0.077,-0.427,0.244,0.488,316.234
111219,139345,8631,0.053,-0.966,-0.073,-0.427,0.244,0.488,316.24
111243,139505,8677,0.054,-0.962,-0.072,0,0.305,0.366,316.244
111243,139326,8635,0.057,-0.961,-0.075,0,0.305,0.366,316.25
111213,139505,8677,0.057,-0.962,-0.075,0.366,0.61,0.244,316.254
111213,139323,8638,0.055,-0.96,-0.077,0.366,0.61,0.244,316.26
111232,139505,8677,0.054,-0.962,-0.077,0.549,0.793,0.183,316.264
111232,139337,8617,0.054,-0.962,-0.076,0.549,0.793,0.183,316.27
111224,139505,8677,0.054,-0.955,-0.076,0.427,0.671,0.244,316.274
111224,139339,8634,0.059,-0.953,-0.074,0.427,0.671,0.244,316.28
111239,139505,8677,0.055,-0.954,-0.075,0.549,0.61,0.366,316.284
111239,139328,8636,0.051,-0.956,-0.073,0.549,0.61,0.366,316.29
111242,139505,8677,0.054,-0.96,-0.07,0.488,0.732,0.488,316.293
111242,139341,8626,0.056,-0.956,-0.071,0.488,0.732,0.488,316.3
111256,139505,8677,0.056,-0.954,-0.079,0.305,0.732,0.61,316.303
111256,139355,8634,0.056,-0.955,-0.08,0.305,0.732,0.61,316.309
111259,139505,8677,0.054,-0.962,-0.073,0.366,0.793,0.732,316.313
111259,139355,8635,0.053,-0.966,-0.071,0.366,0.793,0.732,316.319
111244,139505,8677,0.055,-0.96,-0.07,0.366,0.793,0.793,316.323
111244,139346,8634,0.052,-0.959,-0.069,0.366,0.793,0.793,316.329
111240,139505,8677,0.052,-0.959,-0.069,0.366,0.793,0.793,316.333
111240,139351,8628,0.05,-0.961,-0.068,0.183,0.793,0.854,316.339
111227,139505,8677,0.05,-0.961,-0.068,0.183,0.793,0.854,316.343
111227,139337,8633,0.048,-0.963,-0.072,0.061,0.61,0.854,316.349
111213,139505,8677,0.048,-0.963,-0.072,0.061,0.61,0.854,316.353
111213,139321,8629,0.052,-0.963,-0.072,-0.244,0.549,0.732,316.359
111206,139505,8677,0.052,-0.963,-0.072,-0.244,0.549,0.732,316.363
111206,139348,8626,0.05,-0.965,-0.073,-0.305,0.488,0.732,316.369
111204,139505,8677,0.05,-0.965,-0.073,-0.305,0.488,0.732,316.373
111204,139350,8626,0.05,-0.961,-0.071,-0.305,0.427,0.61,316.379
111206,139505,8677,0.05,-0.961,-0.071,-0.305,0.427,0.61,316.383
111206,139322,8631,0.053,-0.963,-0.074,-0.244,0.305,0.488,316.389
111191,139505,8677,0.053,-0.963,-0.074,-0.244,0.305,0.488,316.392
111191,139342,8622,0.05,-0.966,-0.079,-0.183,0.305,0.305,316.399
111211,139505,8677,0.05,-0.966,-0.079,-0.183,0.305,0.305,316.402
111211,139326,8629,0.055,-0.963,-0.075,0.183,0.427,0.183,316.408
111207,139505,8677,0.055,-0.963,-0.075,0.183,0.427,0.183,316.412
111207,139339,8629,0.054,-0.958,-0.078,0.488,0.427,0.183,316.418
111235,139505,8677,0.054,-0.958,-0.078,0.488,0.427,0.183,316.422
111235,139365,8629,0.051,-0.96,-0.072,0.671,0.488,0.244,316.428
111253,139505,8677,0.051,-0.96,-0.072,0.671,0.488,0.244,316.432
111253,139352,8624,0.049,-0.957,-0.073,0.488,0.488,0.305,316.438
111238,139505,8677,0.049,-0.957,-0.073,0.488,0.488,0.305,316.442
111238,139370,8644,0.051,-0.95,-0.073,0.488,0.488,0.305,316.448
111248,139505,8677,0.051,-0.95,-0.073,0.488,0.488,0.305,316.452
111248,139375,8629,0.048,-0.961,-0.07,0.366,0.366,0.427,316.458
111259,139505,8677,0.048,-0.961,-0.07,0.366,0.366,0.427,316.462
111259,139366,8640,0.054,-0.955,-0.073,0.061,0.427,0.366,316.468
111267,139505,8677,0.054,-0.955,-0.073,0.061,0.427,0.366,316.472
111267,139401,8646,0.053,-0.956,-0.071,-0.061,0.427,0.305,316.478
111251,139505,8677,0.052,-0.958,-0.07,-0.061,0.427,0.305,316.482
111251,139388,8611,0.055,-0.965,-0.069,-0.122,0.427,0.366,316.488
111268,139505,8677,0.054,-0.967,-0.071,-0.122,0.427,0.366,316.491
111268,139387,8645,0.053,-0.964,-0.068,-0.366,0.427,0.366,316.498
111263,139505,8677,0.055,-0.959,-0.068,-0.366,0.427,0.366,316.501
111263,139393,8622,0.056,-0.957,-0.068,-0.427,0.305,0.427,316.507
111264,139505,8677,0.055,-0.961,-0.072,-0.427,0.305,0.427,316.511
111264,139390,8622,0.056,-0.962,-0.076,-0.366,0.427,0.488,316.517
111254,139505,8677,0.054,-0.964,-0.071,-0.366,0.427,0.488,316.521
111254,139387,8620,0.055,-0.96,-0.071,-0.305,0.488,0.427,316.527
111274,139505,8677,0.051,-0.959,-0.074,-0.305,0.488,0.427,316.531
111274,139400,8626,0.052,-0.962,-0.073,-0.122,0.488,0.549,316.537
111271,139505,8677,0.053,-0.961,-0.069,-0.122,0.488,0.549,316.541
111271,139404,8636,0.053,-0.96,-0.074,-0.305,0.488,0.549,316.547
111298,139505,8677,0.055,-0.959,-0.08,-0.305,0.488,0.549,316.551
111298,139414,8636,0.053,-0.962,-0.08,-0.183,0.488,0.549,316.557
111308,139505,8677,0.052,-0.963,-0.076,-0.183,0.488,0.549,316.561
111308,139424,8624,0.055,-0.961,-0.077,0.183,0.549,0.549,316.567
111307,139505,8677,0.054,-0.957,-0.075,0.183,0.549,0.549,316.571
111307,139442,8636,0.053,-0.957,-0.075,0.366,0.61,0.61,316.577
111334,139505,8677,0.054,-0.958,-0.075,0.366,0.61,0.61,316.581
111334,139432,8638,0.051,-0.96,-0.073,0.244,0.732,0.61,316.587
111338,139505,8677,0.051,-0.962,-0.072,0.244,0.732,0.61,316.59
111338,139448,8642,0.051,-0.963,-0.067,0.244,0.671,0.549,316.597
111345,139505,8677,0.052,-0.96,-0.071,0.244,0.671,0.549,316.6
111345,139448,8624,0.053,-0.961,-0.067,0.183,0.549,0.549,316.606
111337,139505,8677,0.056,-0.958,-0.071,0.183,0.549,0.549,316.61
111337,139448,8643,0.055,-0.96,-0.072,0,0.61,0.549,316.616
111324,139505,8677,0.051,-0.962,-0.073,0,0.61,0.549,316.62
111324,139468,8641,0.05,-0.966,-0.07,-0.061,0.61,0.549,316.626
111329,139505,8677,0.052,-0.969,-0.067,-0.061,0.61,0.549,316.63
111329,139455,8645,0.052,-0.963,-0.07,0.122,0.61,0.488,316.636
111320,139505,8677,0.052,-0.957,-0.076,0.122,0.61,0.488,316.64
111320,139438,8657,0.051,-0.959,-0.071,0.122,0.549,0.366,316.646
111325,139505,8677,0.049,-0.963,-0.07,0.122,0.549,0.366,316.65
111325,139455,8643,0.05,-0.962,-0.072,-0.061,0.549,0.244,316.656
111334,139505,8677,0.05,-0.964,-0.07,-0.061,0.549,0.244,316.66
111334,139472,8637,0.05,-0.962,-0.069,0.122,0.427,0.183,316.666
111333,139505,8677,0.051,-0.964,-0.07,0.122,0.427,0.183,316.67
111333,139458,8638,0.052,-0.962,-0.072,0.183,0.427,0.183,316.676
111345,139505,8677,0.052,-0.961,-0.068,0.183,0.427,0.183,316.68
111345,139464,8651,0.055,-0.959,-0.07,0.183,0.366,0.122,316.686
111346,139505,8677,0.053,-0.96,-0.071,0.183,0.366,0.122,316.689
111346,139459,8636,0.051,-0.96,-0.071,0,0.305,0.183,316.696
111336,139505,8677,0.053,-0.961,-0.073,0,0.305,0.183,316.699
111336,139445,8648,0.055,-0.96,-0.071,-0.244,0.244,0.244,316.706
111350,139505,8677,0.054,-0.955,-0.072,-0.244,0.244,0.244,316.709
111350,139485,8646,0.051,-0.956,-0.075,-0.549,0.183,0.244,316.715
111375,139505,8677,0.052,-0.961,-0.075,-0.549,0.183,0.244,316.719
111375,139478,8646,0.05,-0.964,-0.075,-0.732,0.244,0.183,316.725
111395,139505,8677,0.053,-0.962,-0.076,-0.732,0.244,0.183,316.729
111395,139496,8649,0.052,-0.957,-0.074,-0.61,0.244,0.305,316.735
111378,139505,8677,0.05,-0.958,-0.069,-0.61,0.244,0.305,316.739
111378,139488,8635,0.052,-0.962,-0.071,-0.488,0.061,0.305,316.745
111375,139505,8677,0.054,-0.967,-0.071,-0.488,0.061,0.305,316.749
111375,139466,8659,0.053,-0.967,-0.063,-0.488,0.183,0.122,316.755
111394,139505,8677,0.053,-0.964,-0.073,-0.488,0.183,0.122,316.759
111394,139481,8635,0.055,-0.962,-0.072,-0.427,0.122,0.122,316.765
111370,139505,8677,0.054,-0.96,-0.07,-0.427,0.122,0.122,316.769
111370,139473,8653,0.052,-0.96,-0.071,-0.183,0.122,0.122,316.775
111373,139505,8677,0.054,-0.959,-0.075,-0.183,0.122,0.122,316.779
111373,139490,8657,0.053,-0.96,-0.08,-0.244,0.244,0.183,316.785
111399,139505,8677,0.054,-0.961,-0.073,-0.244,0.244,0.183,316.788
111399,139480,8653,0.053,-0.959,-0.077,-0.305,0.244,0.183,316.795
111380,139505,8677,0.054,-0.959,-0.076,-0.305,0.244,0.183,316.798
111380,139472,8649,0.05,-0.957,-0.071,0.061,0.305,0.183,316.804
111384,139505,8677,0.05,-0.959,-0.074,0.061,0.305,0.183,316.808
111384,139452,8636,0.053,-0.955,-0.07,0,0.366,0.183,316.814
111380,139505,8677,0.054,-0.956,-0.072,0,0.366,0.183,316.818
111380,139454,8647,0.055,-0.958,-0.078,-0.122,0.488,0.244,316.824
111384,139505,8677,0.054,-0.959,-0.075,-0.122,0.488,0.244,316.828
111384,139458,8662,0.054,-0.959,-0.072,0,0.488,0.366,316.834
111393,139505,8677,0.053,-0.953,-0.076,0,0.488,0.366,316.838
111393,139444,8642,0.056,-0.955,-0.072,-0.122,0.427,0.488,316.844
111389,139505,8677,0.051,-0.957,-0.072,-0.122,0.427,0.488,316.848
111389,139448,8655,0.051,-0.961,-0.076,-0.244,0.488,0.671,316.854
111365,139505,8677,0.054,-0.962,-0.077,-0.244,0.488,0.671,316.858
111365,139467,8658,0.053,-0.96,-0.073,-0.305,0.549,0.61,316.864
111379,139505,8677,0.053,-0.959,-0.071,-0.305,0.549,0.61,316.868
111379,139455,8660,0.052,-0.963,-0.074,-0.122,0.427,0.61,316.874
111400,139505,8677,0.054,-0.959,-0.069,-0.122,0.427,0.61,316.877
111400,139471,8660,0.053,-0.963,-0.073,0,0.671,0.61,316.884
111408,139505,8677,0.053,-0.963,-0.072,0,0.671,0.61,316.887
111408,139461,8653,0.052,-0.965,-0.072,0.122,0.732,0.61,316.894
111397,139505,8677,0.052,-0.966,-0.076,0.122,0.732,0.61,316.897
111397,139437,8642,0.054,-0.958,-0.072,0.061,0.732,0.61,316.903
111369,139505,8677,0.053,-0.955,-0.072,0.061,0.732,0.61,316.907
111369,139454,8656,0.049,-0.96,-0.072,0.122,0.793,0.671,316.913
111382,139505,8677,0.048,-0.963,-0.067,0.122,0.793,0.671,316.917
111382,139449,8645,0.049,-0.964,-0.068,-0.122,0.793,0.488,316.923
111382,139505,8677,0.049,-0.964,-0.068,-0.122,0.793,0.488,316.927
111382,139426,8659,0.051,-0.96,-0.065,-0.183,0.671,0.366,316.933
111379,139505,8677,0.051,-0.96,-0.065,-0.183,0.671,0.366,316.937
111379,139453,8657,0.052,-0.961,-0.069,-0.183,0.427,0.366,316.943
111395,139505,8677,0.052,-0.961,-0.069,-0.183,0.427,0.366,316.947
111395,139434,8643,0.052,-0.96,-0.07,-0.427,0.427,0.366,316.953
111380,139505,8677,0.052,-0.96,-0.07,-0.427,0.427,0.366,316.957
111380,139437,8655,0.052,-0.96,-0.077,-0.366,0.244,0.366,316.963
111393,139505,8677,0.052,-0.96,-0.077,-0.366,0.244,0.366,316.967
111393,139454,8662,0.052,-0.963,-0.078,-0.183,0.244,0.305,316.973
111396,139505,8677,0.052,-0.963,-0.078,-0.183,0.244,0.305,316.977
111396,139443,8675,0.051,-0.963,-0.072,0,0.244,0.122,316.983
111407,139505,8677,0.051,-0.963,-0.072,0,0.244,0.122,316.986
111407,139452,8651,0.051,-0.967,-0.075,0.122,0.427,0,316.993
111391,139505,8677,0.051,-0.967,-0.075,0.122,0.427,0,316.996
111391,139416,8651,0.05,-0.958,-0.076,0.122,0.488,-0.061,317.002
111376,139505,8677,0.05,-0.958,-0.076,0.122,0.488,-0.061,317.006
111376,139418,8665,0.054,-0.96,-0.072,0.122,0.427,0.061,317.012
111387,139505,8677,0.054,-0.96,-0.072,0.122,0.427,0.061,317.016
111387,139434,8648,0.052,-0.961,-0.078,0.183,0.488,0,317.022
111355,139505,8677,0.052,-0.961,-0.078,0.183,0.488,0,317.026
111355,139398,8656,0.055,-0.957,-0.07,0.244,0.488,0.061,317.032
111358,139505,8677,0.055,-0.957,-0.07,0.244,0.488,0.061,317.036
111358,139400,8639,0.055,-0.957,-0.067,0.305,0.305,0.183,317.042
111332,139505,8677,0.055,-0.957,-0.067,0.305,0.305,0.183,317.046
111332,139374,8658,0.058,-0.959,-0.069,0.061,0.366,0.244,317.052
111338,139505,8677,0.058,-0.959,-0.069,0.061,0.366,0.244,317.056
111338,139396,8647,0.054,-0.956,-0.07,-0.244,0.366,0.305,317.062
111349,139505,8677,0.054,-0.956,-0.07,-0.244,0.366,0.305,317.066
111349,139380,8649,0.054,-0.958,-0.074,-0.244,0.366,0.305,317.072
111362,139505,8677,0.054,-0.958,-0.071,-0.305,0.305,0.427,317.076
111362,139402,8643,0.052,-0.956,-0.07,-0.305,0.305,0.427,317.082
111350,139505,8677,0.053,-0.959,-0.07,-0.122,0.244,0.488,317.085
111350,139400,8647,0.053,-0.962,-0.074,-0.122,0.244,0.488,317.092
111365,139505,8677,0.054,-0.964,-0.076,-0.183,0.244,0.427,317.095
111365,139410,8639,0.056,-0.964,-0.073,-0.183,0.244,0.427,317.102
111350,139505,8677,0.055,-0.96,-0.072,-0.061,0.61,0.366,317.105
111350,139382,8656,0.054,-0.961,-0.075,-0.061,0.61,0.366,317.111
111361,139505,8677,0.054,-0.959,-0.08,0.183,0.732,0.427,317.115
111361,139424,8640,0.055,-0.961,-0.077,0.183,0.732,0.427,317.121
111358,139505,8677,0.055,-0.964,-0.069,0.183,0.671,0.549,317.125
111358,139410,8654,0.058,-0.965,-0.068,0.183,0.671,0.549,317.131
111364,139505,8677,0.054,-0.961,-0.071,0.305,0.732,0.488,317.135
111364,139384,8654,0.052,-0.957,-0.072,0.305,0.732,0.488,317.141
111355,139505,8677,0.054,-0.958,-0.071,0,0.732,0.549,317.145
111355,139368,8659,0.053,-0.96,-0.071,0,0.732,0.549,317.151
111345,139505,8677,0.05,-0.961,-0.073,-0.122,0.732,0.549,317.155
111345,139395,8655,0.053,-0.959,-0.068,-0.122,0.732,0.549,317.161
111378,139505,8677,0.052,-0.959,-0.072,-0.244,0.61,0.61,317.165
111378,139423,8652,0.053,-0.962,-0.074,-0.244,0.61,0.61,317.171
111341,139505,8677,0.052,-0.958,-0.075,-0.305,0.549,0.61,317.174
111341,139397,8649,0.049,-0.96,-0.072,-0.305,0.549,0.61,317.181
111359,139505,8677,0.051,-0.962,-0.073,-0.122,0.61,0.61,317.184
111359,139428,8650,0.052,-0.962,-0.072,-0.122,0.61,0.61,317.191
111347,139505,8677,0.05,-0.961,-0.074,0,0.61,0.549,317.194
111347,139381,8654,0.051,-0.961,-0.075,0,0.61,0.549,317.2
111330,139505,8677,0.053,-0.96,-0.067,0.122,0.549,0.549,317.204
111330,139395,8642,0.051,-0.957,-0.065,0.122,0.549,0.549,317.21
111332,139505,8677,0.052,-0.953,-0.068,0.061,0.366,0.549,317.214
111332,139374,8645,0.052,-0.954,-0.067,0.061,0.366,0.549,317.22
111329,139505,8677,0.054,-0.957,-0.068,-0.183,0.305,0.671,317.224
111329,139366,8664,0.055,-0.959,-0.07,-0.183,0.305,0.671,317.23
111326,139505,8677,0.051,-0.961,-0.069,-0.732,0.183,0.61,317.234
111326,139342,8654,0.052,-0.96,-0.072,-0.732,0.183,0.61,317.24
111315,139505,8677,0.051,-0.959,-0.07,-0.915,0.061,0.488,317.244
111315,139351,8641,0.051,-0.962,-0.072,-0.915,0.061,0.488,317.25
111337,139505,8677,0.051,-0.963,-0.079,-0.915,0.122,0.549,317.254
111337,139359,8647,0.051,-0.969,-0.079,-0.915,0.122,0.549,317.26
111339,139505,8677,0.052,-0.97,-0.076,-0.854,0.305,0.427,317.264
111339,139362,8664,0.05,-0.97,-0.074,-0.854,0.305,0.427,317.27
111323,139505,8677,0.052,-0.968,-0.076,-0.549,0.427,0.305,317.273
111323,139379,8662,0.055,-0.967,-0.077,-0.549,0.427,0.305,317.28
111351,139505,8677,0.05,-0.964,-0.075,0.122,0.61,0.305,317.283
111351,139381,8653,0.05,-0.964,-0.069,0.122,0.61,0.305,317.29
111345,139505,8677,0.052,-0.96,-0.074,0.488,0.488,0.244,317.293
111345,139389,8673,0.054,-0.952,-0.075,0.488,0.488,0.244,317.299
111376,139505,8677,0.052,-0.951,-0.07,0.366,0.427,0.183,317.303
111376,139394,8632,0.051,-0.953,-0.067,0.366,0.427,0.183,317.309
111366,139505,8677,0.051,-0.951,-0.072,0.122,0.427,0.244,317.313
111366,139399,8647,0.05,-0.95,-0.079,0.122,0.427,0.244,317.319
111372,139505,8677,0.055,-0.953,-0.072,-0.366,0.183,0.366,317.323
111372,139410,8661,0.051,-0.956,-0.073,-0.366,0.183,0.366,317.329
111382,139505,8677,0.052,-0.961,-0.073,-0.793,0.122,0.427,317.333
111382,139409,8652,0.053,-0.96,-0.071,-0.793,0.122,0.427,317.339
111369,139505,8677,0.054,-0.964,-0.074,-0.915,0.244,0.488,317.343
111369,139398,8654,0.052,-0.967,-0.072,-0.915,0.244,0.488,317.349
111377,139505,8677,0.051,-0.965,-0.072,-0.854,0.366,0.488,317.353
111377,139409,8655,0.051,-0.968,-0.078,-0.854,0.366,0.488,317.359
111373,139505,8677,0.053,-0.973,-0.071,-0.427,0.366,0.427,317.363
111373,139403,8641,0.053,-0.968,-0.073,-0.427,0.366,0.427,317.369
111371,139505,8677,0.051,-0.963,-0.076,0.183,0.427,0.366,317.372
111371,139437,8642,0.053,-0.962,-0.074,0.183,0.427,0.366,317.379
111365,139505,8677,0.053,-0.961,-0.068,0.549,0.427,0.305,317.382
111365,139422,8644,0.054,-0.96,-0.069,0.549,0.427,0.305,317.389
111382,139505,8677,0.055,-0.958,-0.074,0.61,0.488,0.305,317.392
111382,139438,8648,0.056,-0.953,-0.071,0.61,0.488,0.305,317.398
111378,139505,8677,0.051,-0.952,-0.071,0.244,0.488,0.366,317.402
111378,139423,8650,0.054,-0.949,-0.07,0.244,0.488,0.366,317.408
111376,139505,8677,0.054,-0.953,-0.07,0,0.305,0.305,317.412
111376,139416,8661,0.054,-0.957,-0.072,0,0.305,0.305,317.418
111375,139505,8677,0.055,-0.955,-0.073,-0.366,0.244,0.366,317.422
111375,139420,8648,0.055,-0.955,-0.074,-0.366,0.244,0.366,317.428
111387,139505,8677,0.054,-0.96,-0.073,-0.549,0.305,0.549,317.432
111387,139416,8638,0.053,-0.962,-0.077,-0.549,0.305,0.549,317.438
111359,139505,8677,0.055,-0.964,-0.074,-0.366,0.183,0.61,317.442
111359,139412,8667,0.053,-0.964,-0.072,-0.366,0.183,0.61,317.448
111341,139505,8677,0.052,-0.964,-0.077,0,0.427,0.671,317.452
111341,139389,8634,0.054,-0.967,-0.074,0,0.427,0.671,317.458
111345,139505,8677,0.051,-0.973,-0.069,0.244,0.732,0.671,317.462
111345,139394,8650,0.055,-0.972,-0.067,0.244,0.732,0.671,317.468
111336,139505,8677,0.055,-0.962,-0.069,0.488,0.793,0.671,317.471
111336,139379,8645,0.052,-0.958,-0.069,0.488,0.793,0.671,317.478
111342,139505,8677,0.054,-0.963,-0.066,0.61,0.854,0.61,317.481
111342,139386,8628,0.051,-0.964,-0.067,0.61,0.854,0.61,317.488
111335,139505,8677,0.052,-0.964,-0.068,0.488,0.793,0.366,317.491
111335,139344,8657,0.05,-0.959,-0.07,0.488,0.793,0.366,317.497
111321,139505,8677,0.053,-0.955,-0.069,0.366,0.61,0.305,317.501
111321,139364,8648,0.05,-0.956,-0.07,0.366,0.61,0.305,317.507
111318,139505,8677,0.05,-0.956,-0.07,0.366,0.61,0.305,317.511
111318,139330,8644,0.048,-0.955,-0.074,0.122,0.366,0.305,317.517
111282,139505,8677,0.048,-0.955,-0.074,0.122,0.366,0.305,317.521
111282,139332,8651,0.05,-0.96,-0.071,-0.183,0.305,0.122,317.527
111288,139505,8677,0.05,-0.96,-0.071,-0.183,0.305,0.122,317.531
111288,139337,8650,0.051,-0.959,-0.074,-0.366,0.061,0.122,317.537
111268,139505,8677,0.051,-0.959,-0.074,-0.366,0.061,0.122,317.541
111268,139315,8638,0.055,-0.96,-0.07,-0.366,0,0.122,317.547
111279,139505,8677,0.055,-0.96,-0.07,-0.366,0,0.122,317.551
111279,139315,8646,0.053,-0.962,-0.078,-0.183,0,0.244,317.557
111287,139505,8677,0.053,-0.962,-0.078,-0.183,0,0.244,317.561
111287,139327,8641,0.056,-0.961,-0.075,-0.061,0.244,0.244,317.567
111297,139505,8677,0.056,-0.961,-0.075,-0.061,0.244,0.244,317.57
111297,139331,8643,0.054,-0.962,-0.075,0.122,0.427,0.305,317.577
111308,139505,8677,0.054,-0.962,-0.075,0.122,0.427,0.305,317.58
111308,139322,8635,0.056,-0.957,-0.073,0.305,0.549,0.366,317.587
111305,139505,8677,0.056,-0.957,-0.073,0.305,0.549,0.366,317.59
111305,139340,8645,0.052,-0.96,-0.069,0.488,0.549,0.427,317.596
111329,139505,8677,0.052,-0.96,-0.069,0.488,0.549,0.427,317.6
111329,139330,8640,0.051,-0.956,-0.069,0.244,0.549,0.366,317.606
111311,139505,8677,0.051,-0.956,-0.069,0.244,0.549,0.366,317.61
111311,139323,8649,0.052,-0.96,-0.066,-0.061,0.366,0.366,317.616
111312,139505,8677,0.052,-0.96,-0.066,-0.061,0.366,0.366,317.62
111312,139343,8638,0.054,-0.961,-0.073,-0.305,0.427,0.244,317.626
111315,139505,8677,0.054,-0.961,-0.073,-0.305,0.427,0.244,317.63
111315,139302,8639,0.054,-0.964,-0.074,-0.244,0.488,0.244,317.636
111302,139505,8677,0.054,-0.964,-0.074,-0.244,0.488,0.244,317.64
111302,139305,8645,0.053,-0.961,-0.073,-0.061,0.549,0.183,317.646
111309,139505,8677,0.053,-0.961,-0.073,-0.061,0.549,0.183,317.65
111309,139307,8630,0.054,-0.964,-0.077,0.061,0.549,0.305,317.656
111297,139505,8677,0.052,-0.963,-0.072,0.061,0.549,0.305,317.66
111297,139309,8640,0.051,-0.961,-0.068,0.305,0.549,0.305,317.666
111329,139505,8677,0.052,-0.959,-0.066,0.305,0.549,0.305,317.669
111329,139312,8633,0.05,-0.959,-0.07,0.183,0.61,0.305,317.676
111320,139505,8677,0.051,-0.957,-0.073,0.183,0.61,0.305,317.679
111320,139314,8642,0.053,-0.96,-0.074,0.122,0.549,0.183,317.686
111303,139505,8677,0.054,-0.961,-0.073,0.122,0.549,0.183,317.689
111303,139304,8656,0.052,-0.961,-0.068,0.122,0.366,0.183,317.695
111316,139505,8677,0.052,-0.957,-0.068,0.122,0.366,0.183,317.699
111316,139295,8640,0.054,-0.955,-0.068,0.061,0.244,0.244,317.705
111286,139505,8677,0.054,-0.95,-0.069,0.061,0.244,0.244,317.709
111286,139282,8648,0.052,-0.952,-0.072,-0.122,0.366,0.305,317.715
111252,139505,8677,0.053,-0.956,-0.07,-0.122,0.366,0.305,317.719
111252,139267,8646,0.054,-0.959,-0.075,-0.122,0.366,0.366,317.725
111244,139505,8677,0.054,-0.962,-0.079,-0.122,0.366,0.366,317.729
111244,139284,8633,0.053,-0.958,-0.076,-0.305,0.488,0.366,317.735
111196,139249,8677,0.052,-0.959,-0.075,-0.305,0.488,0.366,317.739
111196,139246,8638,0.051,-0.957,-0.071,-0.244,0.549,0.488,317.745
111239,139249,8677,0.053,-0.961,-0.069,-0.244,0.549,0.488,317.749
111239,139218,8622,0.051,-0.963,-0.067,-0.244,0.61,0.427,317.755
111203,139249,8677,0.052,-0.962,-0.071,-0.244,0.61,0.427,317.759
111203,139226,8633,0.053,-0.96,-0.071,-0.366,0.549,0.305,317.765
111213,139249,8677,0.05,-0.963,-0.066,-0.366,0.549,0.305,317.768
111213,139230,8624,0.053,-0.967,-0.068,-0.427,0.366,0.427,317.775
111194,139249,8677,0.052,-0.965,-0.068,-0.427,0.366,0.427,317.778
111194,139235,8635,0.054,-0.96,-0.071,-0.183,0.427,0.366,317.785
111197,139249,8677,0.053,-0.955,-0.067,-0.183,0.427,0.366,317.788
111197,139221,8627,0.052,-0.959,-0.072,-0.305,0.305,0.427,317.794
111201,139249,8677,0.055,-0.962,-0.075,-0.305,0.305,0.427,317.798
111201,139213,8633,0.051,-0.962,-0.071,-0.427,0.122,0.366,317.804
111197,139249,8677,0.049,-0.962,-0.065,-0.427,0.122,0.366,317.808
111197,139224,8630,0.051,-0.962,-0.065,-0.488,0.061,0.366,317.814
111214,139249,8677,0.052,-0.956,-0.072,-0.488,0.061,0.366,317.818
111214,139237,8621,0.052,-0.955,-0.074,-0.671,0,0.366,317.824
111179,139249,8677,0.05,-0.958,-0.075,-0.671,0,0.366,317.828
111179,139218,8637,0.052,-0.963,-0.071,-0.732,0.061,0.244,317.834
111172,139249,8677,0.052,-0.964,-0.074,-0.732,0.061,0.244,317.838
111172,139222,8629,0.053,-0.965,-0.072,-0.732,0.244,0.122,317.844
111163,139249,8677,0.053,-0.962,-0.071,-0.732,0.244,0.122,317.848
111163,139211,8635,0.054,-0.956,-0.072,-0.549,0.427,0.244,317.854
111163,139249,8677,0.052,-0.955,-0.072,-0.549,0.427,0.244,317.858
111163,139219,8635,0.052,-0.959,-0.069,-0.488,0.366,0.366,317.864
111174,139249,8677,0.052,-0.963,-0.072,-0.488,0.366,0.366,317.867
111174,139217,8623,0.051,-0.962,-0.074,-0.427,0.305,0.183,317.874
111184,139249,8677,0.054,-0.96,-0.079,-0.427,0.305,0.183,317.877
111184,139218,8631,0.056,-0.957,-0.073,-0.183,0.061,0.366,317.884
111187,139249,8677,0.054,-0.958,-0.072,-0.183,0.061,0.366,317.887
111187,139220,8640,0.052,-0.96,-0.071,-0.305,0.061,0.488,317.893
111192,139249,8677,0.05,-0.96,-0.071,-0.305,0.061,0.488,317.897
111192,139219,8635,0.049,-0.962,-0.069,-0.61,0.122,0.305,317.903
111191,139249,8677,0.054,-0.962,-0.073,-0.61,0.122,0.305,317.907
111191,139234,8632,0.054,-0.964,-0.077,-0.793,0.061,0.122,317.913
111194,139249,8677,0.051,-0.967,-0.073,-0.793,0.061,0.122,317.917
111194,139238,8618,0.051,-0.968,-0.071,-0.427,0.122,0.122,317.923
111193,139249,8677,0.053,-0.969,-0.074,-0.427,0.122,0.122,317.927
111193,139234,8630,0.052,-0.963,-0.072,-0.122,0.122,0.061,317.933
111225,139249,8677,0.053,-0.962,-0.072,-0.122,0.122,0.061,317.937
111225,139258,8630,0.055,-0.962,-0.074,-0.122,0.244,-0.122,317.943
111211,139249,8677,0.057,-0.962,-0.075,-0.122,0.244,-0.122,317.947
111211,139262,8636,0.055,-0.959,-0.073,0,0.427,-0.122,317.953
111219,139249,8677,0.054,-0.957,-0.071,0,0.427,-0.122,317.957
111219,139257,8622,0.057,-0.953,-0.068,0.061,0.305,0,317.963
111220,139249,8677,0.053,-0.949,-0.073,0.061,0.305,0,317.966
111220,139261,8651,0.057,-0.95,-0.079,-0.122,0.183,0.061,317.973
111224,139249,8677,0.058,-0.956,-0.075,-0.122,0.183,0.061,317.976
111224,139255,8634,0.053,-0.956,-0.071,-0.549,0.183,0.122,317.983
111244,139249,8677,0.052,-0.956,-0.072,-0.549,0.183,0.122,317.986
111244,139249,8639,0.054,-0.952,-0.07,-0.61,0.061,0.305,317.992
111238,139249,8677,0.052,-0.958,-0.07,-0.61,0.061,0.305,317.996
111238,139263,8634,0.05,-0.963,-0.067,-0.671,0,0.366,318.002
111222,139249,8677,0.053,-0.965,-0.07,-0.671,0,0.366,318.006
111222,139251,8640,0.053,-0.964,-0.076,-0.61,0,0.366,318.012
111233,139249,8677,0.051,-0.963,-0.077,-0.61,0,0.366,318.016
111233,139232,8636,0.052,-0.965,-0.08,-0.244,0.183,0.427,318.022
111226,139505,8677,0.054,-0.963,-0.078,-0.244,0.183,0.427,318.026
111226,139291,8623,0.057,-0.96,-0.076,0.061,0.427,0.366,318.032
111216,139249,8677,0.055,-0.959,-0.078,0.061,0.427,0.366,318.036
111216,139253,8629,0.056,-0.961,-0.075,0.183,0.549,0.244,318.042
111241,139505,8677,0.051,-0.962,-0.076,0.183,0.549,0.244,318.046
111241,139270,8638,0.053,-0.965,-0.076,0.305,0.61,0.122,318.052
111243,139249,8677,0.052,-0.961,-0.071,0.305,0.61,0.122,318.056
111243,139253,8628,0.055,-0.959,-0.069,0.244,0.671,0.122,318.062
111255,139249,8677,0.053,-0.955,-0.073,0.244,0.671,0.122,318.065
111255,139261,8639,0.055,-0.956,-0.074,0.061,0.549,0.183,318.072
111266,139505,8677,0.055,-0.956,-0.069,0.061,0.549,0.183,318.075
111266,139272,8645,0.057,-0.957,-0.073,0.061,0.488,0.244,318.082
111276,139505,8677,0.054,-0.958,-0.071,0.061,0.488,0.244,318.085
111276,139284,8638,0.055,-0.957,-0.07,-0.061,0.671,0.427,318.091
111258,139505,8677,0.055,-0.957,-0.07,-0.061,0.671,0.427,318.095
111258,139267,8634,0.052,-0.959,-0.071,-0.244,0.671,0.488,318.101
111261,139505,8677,0.052,-0.959,-0.071,-0.244,0.671,0.488,318.105
111261,139291,8643,0.052,-0.964,-0.075,-0.305,0.61,0.61,318.111
111254,139505,8677,0.052,-0.964,-0.075,-0.305,0.61,0.61,318.115
111254,139272,8639,0.053,-0.961,-0.069,-0.122,0.61,0.671,318.121
111228,139505,8677,0.053,-0.961,-0.069,-0.122,0.61,0.671,318.125
111228,139287,8641,0.05,-0.957,-0.064,0,0.549,0.61,318.131
111231,139505,8677,0.05,-0.957,-0.064,0,0.549,0.61,318.135
111231,139292,8646,0.049,-0.961,-0.073,-0.427,0.488,0.61,318.141
111207,139505,8677,0.049,-0.961,-0.073,-0.427,0.488,0.61,318.145
111207,139283,8631,0.049,-0.965,-0.068,-0.549,0.305,0.488,318.151
111207,139249,8677,0.049,-0.965,-0.068,-0.549,0.305,0.488,318.155
111207,139256,8634,0.051,-0.956,-0.067,-0.549,0.183,0.488,318.161
111194,139249,8677,0.051,-0.956,-0.067,-0.549,0.183,0.488,318.164
111194,139241,8624,0.051,-0.961,-0.073,-0.793,0,0.366,318.171
111191,139505,8677,0.051,-0.961,-0.073,-0.793,0,0.366,318.174
111191,139266,8626,0.054,-0.968,-0.073,-1.037,0,0.305,318.181
111187,139249,8677,0.054,-0.968,-0.073,-1.037,0,0.305,318.184
111187,139254,8638,0.054,-0.967,-0.074,-0.915,0,0.183,318.19
111186,139249,8677,0.054,-0.967,-0.074,-0.915,0,0.183,318.194
111186,139242,8623,0.054,-0.965,-0.071,-0.549,0,0.061,318.2
111195,139249,8677,0.054,-0.965,-0.071,-0.549,0,0.061,318.204
111195,139251,8627,0.052,-0.963,-0.076,-0.366,0.183,0,318.21
111191,139249,8677,0.052,-0.963,-0.076,-0.366,0.183,0,318.214
111191,139261,8629,0.053,-0.962,-0.076,-0.305,0.183,-0.122,318.22
111221,139249,8677,0.053,-0.962,-0.076,-0.305,0.183,-0.122,318.224
111221,139254,8626,0.054,-0.956,-0.074,-0.244,0,-0.061,318.23
111236,139505,8677,0.054,-0.956,-0.074,-0.244,0,-0.061,318.234
111236,139293,8635,0.052,-0.952,-0.072,-0.244,0,-0.061,318.24
111248,139505,8677,0.052,-0.953,-0.071,-0.183,0.061,0,318.244
111248,139357,8633,0.054,-0.953,-0.077,-0.183,0.061,0,318.25
111277,139505,8677,0.057,-0.956,-0.075,-0.366,0.061,-0.061,318.254
111277,139345,8628,0.057,-0.955,-0.077,-0.366,0.061,-0.061,318.26
111247,139505,8677,0.06,-0.952,-0.08,-0.488,-0.061,0,318.263
111247,139347,8633,0.056,-0.953,-0.076,-0.488,-0.061,0,318.27
111246,139505,8677,0.055,-0.956,-0.077,-0.427,0,0.183,318.273
111246,139344,8633,0.055,-0.96,-0.083,-0.427,0,0.183,318.28
111250,139505,8677,0.058,-0.96,-0.078,-0.427,0.244,0.305,318.283
111250,139341,8627,0.06,-0.959,-0.076,-0.427,0.244,0.305,318.289
111237,139505,8677,0.057,-0.959,-0.078,-0.427,0.366,0.488,318.293
111237,139317,8616,0.059,-0.963,-0.076,-0.427,0.366,0.488,318.299
111238,139505,8677,0.057,-0.963,-0.073,-0.366,0.61,0.549,318.303
111238,139330,8642,0.053,-0.961,-0.071,-0.366,0.61,0.549,318.309
111247,139505,8677,0.053,-0.965,-0.069,-0.305,0.671,0.61,318.313
111247,139310,8650,0.053,-0.967,-0.069,-0.305,0.671,0.61,318.319
111235,139505,8677,0.054,-0.967,-0.071,-0.122,0.549,0.549,318.323
111235,139341,8627,0.053,-0.962,-0.072,-0.122,0.549,0.549,318.329
111253,139505,8677,0.052,-0.959,-0.071,-0.061,0.488,0.488,318.333
111253,139351,8620,0.053,-0.964,-0.073,-0.061,0.488,0.488,318.339
111265,139505,8677,0.055,-0.965,-0.07,-0.183,0.427,0.488,318.343
111265,139360,8644,0.051,-0.961,-0.077,-0.183,0.427,0.488,318.349
111297,139505,8677,0.054,-0.954,-0.08,-0.122,0.427,0.366,318.353
111297,139373,8632,0.053,-0.955,-0.079,-0.122,0.427,0.366,318.359
111278,139505,8677,0.05,-0.958,-0.081,-0.122,0.488,0.305,318.362
111278,139375,8632,0.054,-0.963,-0.075,-0.122,0.488,0.305,318.369
111274,139505,8677,0.054,-0.959,-0.07,0.122,0.305,0.305,318.372
111274,139371,8629,0.056,-0.956,-0.078,0.122,0.305,0.305,318.379
111276,139505,8677,0.055,-0.952,-0.075,0.183,0.366,0.366,318.382
111276,139339,8625,0.051,-0.954,-0.075,0.183,0.366,0.366,318.388
111286,139505,8677,0.054,-0.957,-0.075,0.305,0.61,0.488,318.392
111286,139339,8632,0.051,-0.961,-0.076,0.305,0.61,0.488,318.398
111281,139505,8677,0.051,-0.959,-0.076,0.183,0.488,0.488,318.402
111281,139351,8628,0.058,-0.957,-0.077,0.183,0.488,0.488,318.408
111256,139505,8677,0.057,-0.958,-0.079,-0.061,0.549,0.61,318.412
111256,139338,8629,0.052,-0.964,-0.078,-0.061,0.549,0.61,318.418
111265,139505,8677,0.052,-0.97,-0.072,-0.122,0.793,0.549,318.422
111265,139335,8630,0.053,-0.967,-0.071,-0.122,0.793,0.549,318.428
111256,139505,8677,0.052,-0.959,-0.07,-0.061,0.793,0.549,318.432
111256,139319,8628,0.055,-0.962,-0.073,-0.061,0.793,0.549,318.438
111230,139505,8677,0.056,-0.966,-0.065,0.061,0.549,0.488,318.442
111230,139332,8646,0.052,-0.965,-0.064,0.061,0.549,0.488,318.448
111247,139505,8677,0.051,-0.968,-0.068,-0.122,0.488,0.366,318.452
111247,139324,8612,0.048,-0.964,-0.069,-0.122,0.488,0.366,318.458
111200,139505,8677,0.052,-0.962,-0.07,-0.244,0.366,0.244,318.461
111200,139289,8637,0.052,-0.958,-0.07,-0.244,0.366,0.244,318.468
111206,139505,8677,0.051,-0.954,-0.072,-0.244,0.244,0,318.471
111206,139275,8607,0.051,-0.956,-0.072,-0.244,0.244,0,318.478
111208,139249,8677,0.052,-0.956,-0.072,-0.366,0.183,0,318.481
111208,139249,8630,0.054,-0.954,-0.078,-0.366,0.183,0,318.487
111202,139505,8677,0.052,-0.955,-0.074,-0.427,0.122,0.122,318.491
111202,139264,8633,0.051,-0.957,-0.073,-0.427,0.122,0.122,318.497
111198,139505,8677,0.054,-0.954,-0.073,-0.488,0.122,0.183,318.501
111198,139284,8620,0.054,-0.955,-0.074,-0.488,0.122,0.183,318.507
111232,139505,8677,0.054,-0.956,-0.076,-0.61,0.122,0.305,318.511
111232,139273,8622,0.054,-0.958,-0.078,-0.61,0.122,0.305,318.517
111209,139249,8677,0.053,-0.96,-0.072,-0.488,0.122,0.244,318.521
111209,139236,8635,0.056,-0.959,-0.071,-0.488,0.122,0.244,318.527
111214,139505,8677,0.056,-0.959,-0.073,-0.305,0.122,0.305,318.531
111214,139267,8628,0.056,-0.962,-0.075,-0.305,0.122,0.305,318.537
111224,139249,8677,0.056,-0.963,-0.072,-0.366,0.183,0.305,318.541
111224,139244,8624,0.053,-0.964,-0.068,-0.366,0.183,0.305,318.547
111213,139249,8677,0.056,-0.965,-0.071,-0.427,0.183,0.366,318.551
111213,139236,8623,0.055,-0.965,-0.072,-0.427,0.183,0.366,318.557
111213,139505,8677,0.056,-0.965,-0.077,-0.305,0.305,0.183,318.56
111213,139283,8628,0.054,-0.962,-0.076,-0.305,0.305,0.183,318.567
111200,139505,8677,0.054,-0.959,-0.077,-0.183,0.427,0.183,318.57
111200,139268,8623,0.054,-0.959,-0.074,-0.183,0.427,0.183,318.576
111187,139505,8677,0.055,-0.96,-0.073,-0.122,0.366,0.183,318.58
111187,139265,8614,0.055,-0.96,-0.073,-0.122,0.366,0.183,318.586
111206,139249,8677,0.056,-0.958,-0.072,0,0.427,0.183,318.59
111206,139234,8612,0.056,-0.956,-0.075,0,0.427,0.183,318.596
111184,139505,8677,0.057,-0.954,-0.077,-0.061,0.427,0.244,318.6
111184,139265,8630,0.055,-0.959,-0.073,-0.061,0.427,0.244,318.606
111196,139249,8677,0.053,-0.959,-0.073,0,0.488,0.305,318.61
111196,139261,8618,0.052,-0.961,-0.069,0,0.488,0.305,318.616
111182,139249,8677,0.053,-0.956,-0.069,-0.183,0.488,0.366,318.62
111182,139247,8619,0.051,-0.958,-0.07,-0.183,0.488,0.366,318.626
111173,139249,8677,0.056,-0.961,-0.072,-0.305,0.488,0.427,318.63
111173,139236,8624,0.055,-0.963,-0.071,-0.305,0.488,0.427,318.636
111204,139249,8677,0.054,-0.967,-0.079,-0.244,0.488,0.427,318.64
111204,139240,8613,0.052,-0.965,-0.078,-0.244,0.488,0.427,318.646
111182,139249,8677,0.052,-0.963,-0.077,-0.183,0.427,0.488,318.65
111182,139209,8621,0.055,-0.96,-0.078,-0.183,0.427,0.488,318.656
111206,139249,8677,0.056,-0.957,-0.079,-0.183,0.549,0.488,318.659
111206,139238,8615,0.054,-0.959,-0.08,-0.183,0.549,0.488,318.666
111207,139249,8677,0.051,-0.96,-0.076,-0.244,0.671,0.366,318.669
111207,139230,8618,0.05,-0.959,-0.078,-0.244,0.671,0.366,318.676
111213,139249,8677,0.05,-0.959,-0.078,-0.244,0.671,0.366,318.679
111213,139231,8624,0.053,-0.955,-0.073,-0.244,0.671,0.366,318.685
111212,139249,8677,0.053,-0.955,-0.073,-0.244,0.671,0.366,318.689
111212,139248,8620,0.053,-0.957,-0.072,-0.244,0.549,0.366,318.695
111209,139249,8677,0.053,-0.957,-0.072,-0.244,0.549,0.366,318.699
111209,139219,8625,0.052,-0.964,-0.073,-0.244,0.61,0.366,318.705
111197,139249,8677,0.052,-0.964,-0.073,-0.244,0.61,0.366,318.709
111197,139237,8627,0.052,-0.965,-0.072,-0.244,0.671,0.427,318.715
111204,139249,8677,0.052,-0.965,-0.072,-0.244,0.671,0.427,318.719
111204,139233,8612,0.052,-0.963,-0.072,-0.061,0.549,0.427,318.725
111197,139249,8677,0.052,-0.963,-0.072,-0.061,0.549,0.427,318.729
111197,139232,8611,0.051,-0.962,-0.077,0.061,0.61,0.366,318.735
111213,139249,8677,0.051,-0.962,-0.077,0.061,0.61,0.366,318.739
111213,139248,8631,0.052,-0.962,-0.071,0.244,0.732,0.366,318.745
111202,139249,8677,0.052,-0.962,-0.071,0.244,0.732,0.366,318.749
111202,139230,8619,0.05,-0.962,-0.066,0.244,0.61,0.305,318.755
111217,139249,8677,0.05,-0.962,-0.066,0.244,0.61,0.305,318.758
111217,139235,8625,0.052,-0.961,-0.074,-0.122,0.366,0.183,318.765
111216,139249,8677,0.052,-0.961,-0.074,-0.122,0.366,0.183,318.768
111216,139241,8622,0.053,-0.958,-0.074,-0.244,0.366,0.061,318.774
111213,139249,8677,0.053,-0.958,-0.074,-0.244,0.366,0.061,318.778
111213,139229,8630,0.052,-0.959,-0.072,-0.183,0.305,0.061,318.784
111216,139249,8677,0.052,-0.959,-0.072,-0.183,0.305,0.061,318.788
111216,139245,8623,0.057,-0.954,-0.071,-0.183,0.366,-0.061,318.794
111199,139249,8677,0.057,-0.954,-0.071,-0.183,0.366,-0.061,318.798
111199,139243,8633,0.055,-0.955,-0.073,-0.427,0.366,-0.122,318.804
111194,139249,8677,0.055,-0.955,-0.073,-0.427,0.366,-0.122,318.808
111194,139246,8613,0.051,-0.962,-0.068,-0.427,0.244,-0.183,318.814
111207,139249,8677,0.051,-0.962,-0.068,-0.427,0.244,-0.183,318.818
111207,139233,8623,0.054,-0.96,-0.068,-0.427,0.244,-0.061,318.824
111192,139249,8677,0.058,-0.959,-0.072,-0.427,0.244,-0.061,318.828
111192,139238,8631,0.058,-0.955,-0.071,-0.427,0.183,0.122,318.834
111232,139249,8677,0.056,-0.959,-0.071,-0.427,0.183,0.122,318.838
111232,139224,8624,0.056,-0.961,-0.073,-0.244,0.183,0.244,318.844
111211,139249,8677,0.057,-0.961,-0.069,-0.244,0.183,0.244,318.848
111211,139246,8624,0.056,-0.958,-0.073,-0.305,0.122,0.366,318.854
111221,139249,8677,0.057,-0.955,-0.079,-0.305,0.122,0.366,318.857
111221,139244,8631,0.056,-0.955,-0.078,-0.427,0.122,0.488,318.864
111223,139249,8677,0.055,-0.957,-0.076,-0.427,0.122,0.488,318.867
111223,139259,8622,0.054,-0.958,-0.074,-0.366,0.183,0.549,318.874
111233,139249,8677,0.052,-0.961,-0.077,-0.366,0.183,0.549,318.877
111233,139246,8615,0.059,-0.962,-0.077,-0.305,0.244,0.549,318.883
111227,139505,8677,0.056,-0.958,-0.077,-0.305,0.244,0.549,318.887
111227,139277,8630,0.054,-0.956,-0.077,-0.122,0.427,0.427,318.893
111227,139505,8677,0.055,-0.958,-0.079,-0.122,0.427,0.427,318.897
111227,139272,8624,0.056,-0.963,-0.074,0.061,0.488,0.366,318.903
111222,139505,8677,0.056,-0.964,-0.078,0.061,0.488,0.366,318.907
111222,139266,8631,0.057,-0.965,-0.076,0.305,0.671,0.366,318.913
111227,139505,8677,0.055,-0.964,-0.076,0.305,0.671,0.366,318.917
111227,139266,8620,0.055,-0.962,-0.072,0.549,0.732,0.427,318.923
111224,139505,8677,0.056,-0.964,-0.072,0.549,0.732,0.427,318.927
111224,139279,8630,0.055,-0.96,-0.071,0.732,0.854,0.366,318.933
111231,139505,8677,0.056,-0.96,-0.07,0.732,0.854,0.366,318.937
111231,139309,8624,0.058,-0.959,-0.073,0.671,0.793,0.427,318.943
111240,139505,8677,0.057,-0.955,-0.073,0.671,0.793,0.427,318.947
111240,139283,8611,0.058,-0.953,-0.075,0.671,0.854,0.549,318.953
111223,139505,8677,0.056,-0.958,-0.074,0.671,0.854,0.549,318.956
111223,139280,8617,0.053,-0.963,-0.067,0.488,0.976,0.671,318.963
111245,139505,8677,0.055,-0.964,-0.066,0.488,0.976,0.671,318.966
111245,139300,8627,0.051,-0.958,-0.064,0.488,0.793,0.732,318.972
111245,139505,8677,0.052,-0.951,-0.065,0.488,0.793,0.732,318.976
111245,139293,8633,0.055,-0.954,-0.064,0.366,0.61,0.793,318.982
111230,139505,8677,0.052,-0.957,-0.067,0.366,0.61,0.793,318.986
111230,139312,8632,0.051,-0.963,-0.068,-0.122,0.61,0.793,318.992
111241,139505,8677,0.052,-0.961,-0.068,-0.122,0.61,0.793,318.996
111241,139307,8619,0.05,-0.959,-0.071,-0.488,0.488,0.732,319.002
111216,139505,8677,0.052,-0.956,-0.069,-0.488,0.488,0.732,319.006
111216,139303,8638,0.052,-0.958,-0.07,-0.671,0.305,0.732,319.012
111202,139505,8677,0.054,-0.961,-0.073,-0.671,0.305,0.732,319.016
111202,139306,8630,0.051,-0.965,-0.072,-0.61,0.244,0.61,319.022
111206,139505,8677,0.054,-0.966,-0.074,-0.61,0.244,0.61,319.026
111206,139321,8619,0.053,-0.967,-0.076,-0.549,0.244,0.488,319.032
111216,139505,8677,0.053,-0.965,-0.077,-0.549,0.244,0.488,319.036
111216,139313,8614,0.056,-0.959,-0.078,-0.366,0.305,0.427,319.042
111219,139505,8677,0.054,-0.962,-0.075,-0.366,0.305,0.427,319.046
111219,139291,8618,0.056,-0.965,-0.078,-0.122,0.427,0.366,319.052
111218,139505,8677,0.054,-0.967,-0.076,-0.122,0.427,0.366,319.055
111218,139323,8622,0.053,-0.964,-0.073,0.122,0.427,0.366,319.062
111217,139505,8677,0.054,-0.963,-0.073,0.122,0.427,0.366,319.065
111217,139301,8628,0.053,-0.958,-0.072,0.244,0.488,0.305,319.072
111225,139505,8677,0.054,-0.952,-0.073,0.244,0.488,0.305,319.075
111225,139326,8624,0.052,-0.953,-0.068,0.183,0.366,0.183,319.081
111237,139505,8677,0.054,-0.956,-0.071,0.183,0.366,0.183,319.085
111237,139339,8608,0.052,-0.959,-0.073,-0.061,0.366,0.183,319.091
111242,139505,8677,0.052,-0.959,-0.073,-0.061,0.366,0.183,319.095
111242,139331,8629,0.052,-0.96,-0.07,-0.244,0.183,0.305,319.101
111249,139505,8677,0.054,-0.96,-0.073,-0.244,0.183,0.305,319.105
111249,139346,8628,0.051,-0.959,-0.074,-0.366,0.122,0.366,319.111
111238,139505,8677,0.052,-0.96,-0.075,-0.366,0.122,0.366,319.115
111238,139328,8617,0.054,-0.958,-0.07,-0.366,0.305,0.366,319.121
111240,139505,8677,0.055,-0.957,-0.073,-0.366,0.305,0.366,319.125
111240,139333,8632,0.052,-0.961,-0.074,-0.366,0.244,0.366,319.131
111234,139505,8677,0.052,-0.966,-0.075,-0.366,0.244,0.366,319.135
111234,139371,8634,0.056,-0.966,-0.069,-0.366,0.305,0.305,319.141
111238,139505,8677,0.055,-0.96,-0.071,-0.366,0.305,0.305,319.145
111238,139356,8629,0.053,-0.96,-0.069,-0.244,0.427,0.305,319.151
111260,139505,8677,0.057,-0.959,-0.073,-0.244,0.427,0.305,319.154
111260,139377,8618,0.06,-0.958,-0.074,-0.305,0.366,0.427,319.161
111271,139505,8677,0.06,-0.96,-0.072,-0.305,0.366,0.427,319.164
111271,139381,8612,0.056,-0.962,-0.078,-0.61,0.488,0.366,319.171
111263,139505,8677,0.054,-0.961,-0.075,-0.61,0.488,0.366,319.174
111263,139368,8627,0.054,-0.957,-0.075,-0.366,0.549,0.366,319.18
111275,139505,8677,0.052,-0.96,-0.07,-0.366,0.549,0.366,319.184
111275,139371,8628,0.052,-0.962,-0.07,-0.183,0.366,0.488,319.19
111267,139505,8677,0.052,-0.963,-0.072,-0.183,0.366,0.488,319.194
111267,139400,8629,0.055,-0.962,-0.071,-0.244,0.366,0.366,319.2
111308,139505,8677,0.055,-0.96,-0.077,-0.244,0.366,0.366,319.204
111308,139403,8631,0.057,-0.963,-0.076,-0.244,0.427,0.427,319.21
111318,139505,8677,0.052,-0.965,-0.078,-0.244,0.427,0.427,319.214
111318,139431,8641,0.053,-0.965,-0.074,0.122,0.488,0.427,319.22
111339,139505,8677,0.053,-0.961,-0.077,0.122,0.488,0.427,319.224
111339,139456,8622,0.052,-0.957,-0.08,0.366,0.549,0.366,319.23
111326,139505,8677,0.05,-0.96,-0.077,0.366,0.549,0.366,319.234
111326,139445,8640,0.05,-0.958,-0.076,0.427,0.549,0.366,319.24
111339,139505,8677,0.056,-0.96,-0.075,0.427,0.549,0.366,319.244
111339,139475,8636,0.056,-0.959,-0.074,0.488,0.671,0.244,319.25
111335,139505,8677,0.055,-0.958,-0.074,0.488,0.671,0.244,319.253
111335,139449,8628,0.057,-0.957,-0.074,0.61,0.732,0.366,319.26
111332,139505,8677,0.057,-0.957,-0.074,0.61,0.732,0.366,319.263
111332,139436,8644,0.054,-0.958,-0.071,0.366,0.549,0.488,319.27
111327,139505,8677,0.054,-0.958,-0.071,0.366,0.549,0.488,319.273
111327,139444,8629,0.054,-0.959,-0.073,0.305,0.549,0.366,319.279
111310,139505,8677,0.054,-0.959,-0.073,0.305,0.549,0.366,319.283
111310,139462,8626,0.053,-0.956,-0.071,0,0.671,0.427,319.289
111287,139505,8677,0.053,-0.956,-0.071,0,0.671,0.427,319.293
111287,139433,8650,0.053,-0.961,-0.068,-0.122,0.488,0.488,319.299
111298,139505,8677,0.053,-0.961,-0.068,-0.122,0.488,0.488,319.303
111298,139420,8619,0.054,-0.964,-0.07,-0.305,0.488,0.488,319.309
111304,139505,8677,0.054,-0.964,-0.07,-0.305,0.488,0.488,319.313
111304,139434,8646,0.052,-0.965,-0.075,-0.366,0.366,0.427,319.319
111302,139505,8677,0.052,-0.965,-0.075,-0.366,0.366,0.427,319.323
111302,139435,8623,0.053,-0.966,-0.067,-0.366,0.305,0.427,319.329
111282,139505,8677,0.053,-0.966,-0.067,-0.366,0.305,0.427,319.333
111282,139411,8636,0.054,-0.96,-0.073,-0.305,0.305,0.305,319.339
111299,139505,8677,0.054,-0.96,-0.073,-0.305,0.305,0.305,319.343
111299,139444,8654,0.053,-0.961,-0.073,-0.061,0.427,0.122,319.349
111306,139505,8677,0.053,-0.961,-0.073,-0.061,0.427,0.122,319.352
111306,139385,8629,0.051,-0.961,-0.071,-0.061,0.305,0.061,319.359
111292,139505,8677,0.051,-0.961,-0.071,-0.061,0.305,0.061,319.362
111292,139425,8622,0.055,-0.955,-0.07,0,0.183,0,319.368
111315,139505,8677,0.055,-0.955,-0.07,0,0.183,0,319.372
111315,139407,8627,0.056,-0.954,-0.075,-0.061,0.183,0,319.378
111296,139505,8677,0.056,-0.954,-0.075,-0.061,0.183,0,319.382
111296,139398,8632,0.055,-0.955,-0.073,-0.183,0.244,0,319.388
111316,139505,8677,0.055,-0.955,-0.073,-0.183,0.244,0,319.392
111316,139388,8622,0.057,-0.958,-0.077,-0.427,0.183,0.244,319.398
111306,139505,8677,0.057,-0.958,-0.077,-0.427,0.183,0.244,319.402
111306,139383,8632,0.052,-0.958,-0.078,-0.427,0.305,0.305,319.408
111307,139505,8677,0.052,-0.958,-0.078,-0.427,0.305,0.305,319.412
111307,139412,8621,0.056,-0.961,-0.07,-0.427,0.305,0.305,319.418
111295,139505,8677,0.055,-0.963,-0.072,-0.366,0.366,0.366,319.422
111295,139409,8619,0.053,-0.962,-0.07,-0.366,0.366,0.366,319.428
111301,139505,8677,0.053,-0.963,-0.072,-0.183,0.488,0.427,319.432
111301,139406,8645,0.054,-0.963,-0.076,-0.183,0.488,0.427,319.438
111298,139505,8677,0.054,-0.962,-0.075,-0.122,0.61,0.366,319.442
111298,139388,8622,0.056,-0.962,-0.074,-0.122,0.61,0.366,319.448
111295,139505,8677,0.053,-0.962,-0.073,0.061,0.488,0.305,319.451
111295,139349,8639,0.054,-0.961,-0.068,0.061,0.488,0.305,319.458
111287,139505,8677,0.056,-0.956,-0.07,0.061,0.488,0.366,319.461
111287,139378,8627,0.053,-0.957,-0.072,0.061,0.488,0.366,319.467
111300,139505,8677,0.054,-0.958,-0.068,0,0.549,0.305,319.471
111300,139360,8621,0.054,-0.96,-0.067,0,0.549,0.305,319.477
111283,139505,8677,0.053,-0.957,-0.066,-0.122,0.427,0.427,319.481
111283,139357,8625,0.058,-0.954,-0.068,-0.122,0.427,0.427,319.487
111303,139505,8677,0.054,-0.957,-0.07,-0.305,0.427,0.488,319.491
111303,139362,8616,0.052,-0.959,-0.072,-0.305,0.427,0.488,319.497
111282,139505,8677,0.052,-0.959,-0.074,-0.488,0.366,0.366,319.501
111282,139364,8652,0.052,-0.963,-0.079,-0.488,0.366,0.366,319.507
111307,139505,8677,0.052,-0.968,-0.082,-0.549,0.366,0.427,319.511
111307,139364,8622,0.055,-0.968,-0.077,-0.549,0.366,0.427,319.517
111328,139505,8677,0.05,-0.966,-0.076,-0.244,0.488,0.366,319.521
111328,139362,8635,0.049,-0.958,-0.071,-0.244,0.488,0.366,319.527
111300,139505,8677,0.049,-0.959,-0.069,0.244,0.549,0.305,319.531
111300,139359,8630,0.052,-0.955,-0.074,0.244,0.549,0.305,319.537
111299,139505,8677,0.055,-0.957,-0.074,0.244,0.488,0.183,319.541
111299,139381,8655,0.053,-0.959,-0.074,0.244,0.488,0.183,319.547
111309,139505,8677,0.054,-0.959,-0.072,0.183,0.427,0.122,319.55
111309,139366,8624,0.055,-0.955,-0.067,0.183,0.427,0.122,319.557
111308,139505,8677,0.055,-0.952,-0.07,0.305,0.366,0.244,319.56
111308,139363,8636,0.055,-0.951,-0.07,0.305,0.366,0.244,319.566
111318,139505,8677,0.055,-0.952,-0.071,-0.061,0.427,0.427,319.57
111318,139376,8632,0.057,-0.953,-0.071,-0.061,0.427,0.427,319.576
111303,139505,8677,0.058,-0.957,-0.073,-0.427,0.366,0.427,319.58
111303,139344,8628,0.056,-0.958,-0.074,-0.427,0.366,0.427,319.586
111291,139505,8677,0.055,-0.956,-0.077,-0.671,0.366,0.427,319.59
111291,139367,8648,0.053,-0.955,-0.076,-0.671,0.366,0.427,319.596
111310,139505,8677,0.052,-0.96,-0.073,-0.671,0.488,0.549,319.6
111310,139361,8621,0.054,-0.966,-0.076,-0.671,0.488,0.549,319.606
111292,139505,8677,0.053,-0.971,-0.07,-0.488,0.671,0.488,319.61
111292,139336,8640,0.053,-0.966,-0.065,-0.488,0.671,0.488,319.616
111281,139505,8677,0.053,-0.962,-0.07,-0.183,0.793,0.549,319.62
111281,139361,8643,0.054,-0.964,-0.071,-0.183,0.793,0.549,319.626
111309,139505,8677,0.05,-0.965,-0.073,0.061,0.793,0.671,319.63
111309,139327,8631,0.053,-0.969,-0.071,0.061,0.793,0.671,319.636
111312,139505,8677,0.051,-0.965,-0.074,0.488,0.671,0.549,319.64
111312,139346,8626,0.049,-0.96,-0.07,0.488,0.671,0.549,319.646
111300,139505,8677,0.052,-0.958,-0.069,0.61,0.61,0.427,319.649
111300,139361,8629,0.056,-0.96,-0.072,0.61,0.61,0.427,319.656
111310,139505,8677,0.055,-0.957,-0.071,0.488,0.427,0.305,319.659
111310,139346,8632,0.053,-0.955,-0.071,0.488,0.427,0.305,319.666
111293,139505,8677,0.055,-0.955,-0.073,0.183,0.366,0.244,319.669
111293,139338,8625,0.053,-0.955,-0.075,0.183,0.366,0.244,319.675
