105406,134363,7724,0.03,-0.95,-0.131,0.854,0.61,0.183,244.312
105475,134385,8677,0.025,-0.961,-0.115,0.854,0.61,0.183,244.315
105475,134398,7724,0.022,-0.946,-0.108,1.28,0.854,0.366,244.321
105534,134641,8677,0.022,-0.932,-0.116,1.28,0.854,0.366,244.325
105534,134458,7731,0.024,-0.934,-0.117,0.122,0.854,0.732,244.331
105557,134641,8677,0.021,-0.957,-0.111,0.122,0.854,0.732,244.335
105557,134501,7727,0.018,-0.976,-0.107,-0.427,0.427,0.793,244.341
105569,134641,8677,0.016,-0.974,-0.111,-0.427,0.427,0.793,244.345
105569,134488,7726,0.014,-0.963,-0.115,-0.976,0.183,0.549,244.351
105515,134641,8677,0.018,-0.961,-0.126,-0.976,0.183,0.549,244.355
105515,134474,7724,0.022,-0.973,-0.129,-1.22,-0.122,0.122,244.361
105451,134385,8677,0.021,-0.98,-0.13,-1.22,-0.122,0.122,244.365
105451,134366,7728,0.023,-0.975,-0.128,-0.061,0.244,-0.244,244.371
105397,134385,8677,0.024,-0.95,-0.125,-0.061,0.244,-0.244,244.375
105397,134365,7715,0.024,-0.935,-0.131,0.732,0.488,0.183,244.381
105360,134385,8677,0.023,-0.94,-0.124,0.732,0.488,0.183,244.385
105360,134327,7716,0.023,-0.951,-0.124,0.915,0.793,0.427,244.391
105348,134385,8677,0.021,-0.95,-0.133,0.915,0.793,0.427,244.394
105348,134350,7713,0.021,-0.947,-0.135,0.671,0.915,0.488,244.401
105394,134385,8677,0.022,-0.952,-0.138,0.671,0.915,0.488,244.404
105394,134363,7733,0.024,-0.96,-0.132,1.22,0.976,0.549,244.411
105464,134641,8677,0.025,-0.956,-0.123,1.22,0.976,0.549,244.414
105464,134413,7731,0.027,-0.942,-0.122,1.707,0.976,0.671,244.42
105549,134641,8677,0.025,-0.94,-0.113,1.707,0.976,0.671,244.424
105549,134497,7741,0.02,-0.951,-0.107,1.28,0.793,0.915,244.43
105637,134641,8677,0.019,-0.963,-0.082,1.28,0.793,0.915,244.434
105637,134526,7760,0.014,-0.955,-0.065,-0.427,0.244,1.037,244.44
105656,134641,8677,0.012,-0.945,-0.093,-0.427,0.244,1.037,244.444
105656,134540,7743,0.013,-0.962,-0.121,-3.354,-0.549,0.671,244.45
105580,134641,8677,0.017,-0.991,-0.124,-3.354,-0.549,0.671,244.454
105580,134477,7732,0.021,-1.001,-0.114,-3.841,-1.22,0,244.46
105540,134641,8677,0.017,-0.975,-0.123,-3.841,-1.22,0,244.464
105540,134423,7727,0.02,-0.948,-0.154,-2.683,-1.22,-0.122,244.47
105509,134641,8677,0.021,-0.957,-0.174,-2.683,-1.22,-0.122,244.474
105509,134413,7730,0.025,-0.985,-0.162,-1.341,-0.488,-0.366,244.48
105522,134641,8677,0.026,-0.992,-0.141,-1.341,-0.488,-0.366,244.484
105522,134440,7728,0.025,-0.959,-0.142,1.585,0.671,-0.244,244.49
105550,134641,8677,0.023,-0.921,-0.144,1.585,0.671,-0.244,244.493
105550,134477,7746,0.025,-0.92,-0.136,2.988,1.707,0.427,244.5
105617,134641,8677,0.028,-0.941,-0.122,2.988,1.707,0.427,244.503
105617,134503,7741,0.029,-0.948,-0.099,3.293,1.707,0.61,244.51
105640,134641,8677,0.024,-0.934,-0.086,3.293,1.707,0.61,244.513
105640,134519,7746,0.02,-0.92,-0.081,1.463,1.098,0.976,244.519
105607,134641,8677,0.016,-0.921,-0.089,1.463,1.098,0.976,244.523
105607,134512,7744,0.017,-0.946,-0.093,-2.134,0,0.793,244.529
105629,134641,8677,0.017,-0.946,-0.093,-2.134,0,0.793,244.533
105629,134491,7730,0.021,-0.982,-0.122,-5,-1.22,0.183,244.539
105548,134641,8677,0.021,-0.982,-0.122,-5,-1.22,0.183,244.543
105548,134450,7749,0.026,-0.969,-0.173,-4.634,-1.28,0.244,244.549
105516,134641,8677,0.026,-0.969,-0.173,-4.634,-1.28,0.244,244.553
105516,134437,7731,0.027,-0.989,-0.17,-0.671,-0.305,0.732,244.559
105460,134385,8677,0.027,-0.989,-0.17,-0.671,-0.305,0.732,244.563
105460,134377,7733,0.018,-0.964,-0.152,3.049,1.524,1.037,244.569
105443,134385,8677,0.018,-0.964,-0.152,3.049,1.524,1.037,244.573
105443,134330,7719,0.026,-0.947,-0.106,5.061,2.439,1.159,244.579
105425,134385,8677,0.026,-0.947,-0.106,5.061,2.439,1.159,244.583
105425,134324,7726,0.015,-0.939,-0.092,4.085,2.439,1.098,244.589
105461,134385,8677,0.015,-0.939,-0.092,4.085,2.439,1.098,244.592
105461,134379,7725,0.015,-0.953,-0.074,1.159,1.463,0.915,244.599
105479,134385,8677,0.015,-0.953,-0.074,1.159,1.463,0.915,244.602
105479,134375,7709,0.017,-0.96,-0.117,-1.829,0.366,0.183,244.609
105471,134641,8677,0.017,-0.96,-0.117,-1.829,0.366,0.183,244.612
105471,134405,7734,0.024,-0.954,-0.133,-2.195,-0.549,0.061,244.618
105497,134385,8677,0.024,-0.954,-0.133,-2.195,-0.549,0.061,244.622
105497,134391,7733,0.017,-0.95,-0.14,-1.28,-0.183,0.488,244.628
105479,134385,8677,0.017,-0.95,-0.14,-1.28,-0.183,0.488,244.632
105479,134376,7750,0.019,-0.969,-0.124,0.366,0.61,0.488,244.638
105489,134385,8677,0.019,-0.969,-0.124,0.366,0.61,0.488,244.642
105489,134388,7744,0.019,-0.964,-0.146,0.793,0.915,0.427,244.648
105495,134385,8677,0.019,-0.964,-0.146,0.793,0.915,0.427,244.652
105495,134350,7736,0.022,-0.977,-0.161,2.256,1.463,0.122,244.658
105454,134385,8677,0.022,-0.977,-0.161,2.256,1.463,0.122,244.662
105454,134348,7721,0.026,-0.969,-0.141,5.244,1.89,-0.122,244.668
105457,134385,8677,0.026,-0.969,-0.141,5.244,1.89,-0.122,244.672
105457,134384,7731,0.028,-0.939,-0.125,5.244,1.89,-0.122,244.678
105509,134641,8677,0.031,-0.924,-0.117,6.159,2.195,0.122,244.682
105509,134403,7738,0.031,-0.93,-0.102,6.159,2.195,0.122,244.688
105538,134641,8677,0.025,-0.944,-0.067,4.207,2.256,0.366,244.691
105538,134426,7746,0.019,-0.94,-0.034,4.207,2.256,0.366,244.698
105583,134641,8677,0.008,-0.92,-0.041,0.061,0.976,0.61,244.701
105583,134485,7745,0.007,-0.915,-0.077,0.061,0.976,0.61,244.708
105614,134641,8677,0.015,-0.945,-0.104,-4.817,-0.976,0.671,244.711
105614,134514,7734,0.018,-0.988,-0.114,-4.817,-0.976,0.671,244.717
105578,134641,8677,0.015,-0.999,-0.124,-5.61,-2.134,0.183,244.721
105578,134457,7738,0.017,-0.975,-0.143,-5.61,-2.134,0.183,244.727
105513,134641,8677,0.023,-0.953,-0.149,-3.415,-1.89,0.366,244.731
105513,134430,7746,0.024,-0.958,-0.131,-3.415,-1.89,0.366,244.737
105472,134385,8677,0.019,-0.976,-0.124,-2.195,-0.976,0.427,244.741
105472,134384,7733,0.017,-0.981,-0.131,-2.195,-0.976,0.427,244.747
105454,134385,8677,0.018,-0.969,-0.127,-2.256,-0.244,0.305,244.751
105454,134342,7740,0.021,-0.959,-0.118,-2.256,-0.244,0.305,244.757
105471,134385,8677,0.019,-0.956,-0.118,-1.341,-0.427,0.305,244.761
105471,134370,7746,0.021,-0.959,-0.121,-1.341,-0.427,0.305,244.767
105501,134385,8677,0.021,-0.957,-0.131,-0.61,-0.366,-0.061,244.771
105501,134360,7747,0.022,-0.948,-0.138,-0.61,-0.366,-0.061,244.777
105555,134641,8677,0.026,-0.946,-0.143,-0.671,-0.183,-0.366,244.781
105555,134433,7748,0.024,-0.952,-0.146,-0.671,-0.183,-0.366,244.787
105594,134641,8677,0.026,-0.958,-0.14,-0.427,0.244,-0.549,244.79
105594,134427,7756,0.025,-0.958,-0.135,-0.427,0.244,-0.549,244.797
105519,134641,8677,0.027,-0.948,-0.135,0.427,0.61,-0.183,244.8
105519,134420,7746,0.026,-0.943,-0.115,0.427,0.61,-0.183,244.807
105469,134385,8677,0.026,-0.937,-0.107,1.28,0.61,0.305,244.81
105469,134380,7729,0.03,-0.937,-0.109,1.28,0.61,0.305,244.816
105396,134385,8677,0.023,-0.943,-0.105,0.122,0.549,0.671,244.82
105396,134311,7729,0.019,-0.948,-0.105,0.122,0.549,0.671,244.826
105376,134385,8677,0.019,-0.957,-0.122,-1.402,0.122,0.915,244.83
105376,134256,7710,0.02,-0.971,-0.135,-1.402,0.122,0.915,244.836
105345,134385,8677,0.021,-0.983,-0.145,-1.646,0.244,0.61,244.84
105345,134296,7729,0.023,-0.982,-0.144,-1.646,0.244,0.61,244.846
105386,134385,8677,0.023,-0.979,-0.133,0.427,0.793,0.488,244.85
105386,134299,7717,0.025,-0.971,-0.134,0.427,0.793,0.488,244.856
105396,134385,8677,0.025,-0.961,-0.137,2.378,1.463,0.793,244.86
105396,134334,7716,0.023,-0.956,-0.123,2.378,1.463,0.793,244.866
105452,134641,8677,0.022,-0.959,-0.112,3.476,2.012,1.037,244.87
105452,134405,7730,0.019,-0.96,-0.102,3.476,2.012,1.037,244.876
105447,134385,8677,0.013,-0.949,-0.102,3.232,1.707,1.28,244.88
105447,134377,7724,0.008,-0.939,-0.108,3.232,1.707,1.28,244.886
105371,134385,8677,0.013,-0.944,-0.107,1.646,1.159,0.976,244.889
105371,134359,7713,0.019,-0.948,-0.1,1.646,1.159,0.976,244.896
105339,134385,8677,0.018,-0.951,-0.104,0.061,0.488,0.305,244.899
105339,134305,7721,0.019,-0.948,-0.102,0.061,0.488,0.305,244.906
105256,134385,8677,0.02,-0.945,-0.103,-1.829,-0.122,0.061,244.909
105256,134249,7686,0.024,-0.949,-0.103,-1.829,-0.122,0.061,244.915
105191,134385,8677,0.026,-0.952,-0.12,-3.476,-0.854,0.061,244.919
105191,134201,7693,0.029,-0.963,-0.133,-3.476,-0.854,0.061,244.925
105168,134385,8677,0.025,-0.968,-0.146,-3.902,-0.671,0.183,244.929
105168,134187,7707,0.025,-0.976,-0.145,-3.902,-0.671,0.183,244.935
105174,134385,8677,0.023,-0.981,-0.143,-1.829,-0.122,0.549,244.939
105174,134161,7696,0.021,-0.969,-0.139,-1.829,-0.122,0.549,244.945
105186,134385,8677,0.02,-0.958,-0.126,0.671,0.549,0.671,244.949
105186,134203,7692,0.02,-0.956,-0.119,0.671,0.549,0.671,244.955
105239,134385,8677,0.018,-0.951,-0.124,1.159,0.976,0.671,244.959
105239,134291,7689,0.019,-0.948,-0.128,1.159,0.976,0.671,244.965
105242,134385,8677,0.018,-0.955,-0.11,0.793,0.915,0.61,244.969
105242,134312,7701,0.014,-0.96,-0.079,0.793,0.915,0.61,244.975
105198,134385,8677,0.007,-0.943,-0.075,-0.061,0.488,0.61,244.979
105198,134281,7684,0.008,-0.92,-0.107,-0.061,0.488,0.61,244.985
105137,134385,8677,0.018,-0.933,-0.131,-3.415,-0.549,0.244,244.988
105137,134229,7682,0.025,-0.966,-0.136,-3.415,-0.549,0.244,244.995
105020,134129,8677,0.025,-0.98,-0.144,-3.78,-1.402,-0.061,244.998
105020,134138,7675,0.021,-0.97,-0.158,-3.78,-1.402,-0.061,245.005
104976,134129,8677,0.019,-0.96,-0.169,-1.402,-0.549,0.244,245.008
104976,134093,7666,0.018,-0.968,-0.165,-1.402,-0.549,0.244,245.014
104913,134129,8677,0.024,-0.978,-0.144,1.28,0.793,0.244,245.018
104913,134047,7661,0.028,-0.969,-0.137,1.28,0.793,0.244,245.024
104904,134129,8677,0.028,-0.956,-0.128,3.11,1.585,0.183,245.028
104904,134040,7651,0.027,-0.952,-0.107,3.11,1.585,0.183,245.034
104879,134129,8677,0.023,-0.952,-0.105,3.293,1.707,0.488,245.038
104879,134005,7646,0.022,-0.948,-0.107,3.293,1.707,0.488,245.044
104853,134129,8677,0.018,-0.949,-0.093,2.073,1.524,0.549,245.048
104853,134002,7652,0.022,-0.945,-0.086,2.073,1.524,0.549,245.054
104862,134129,8677,0.021,-0.944,-0.1,0.427,0.61,0.366,245.058
104862,133964,7634,0.022,-0.951,-0.123,0.427,0.61,0.366,245.064
104866,134129,8677,0.024,-0.961,-0.126,-1.768,0.244,0,245.068
104866,134002,7646,0.026,-0.964,-0.118,-1.768,0.244,0,245.074
104943,134129,8677,0.025,-0.958,-0.108,-1.646,0.061,0.122,245.078
104943,134024,7663,0.018,-0.953,-0.113,-1.646,0.061,0.122,245.084
104905,134129,8677,0.016,-0.954,-0.119,-1.768,0.061,0.671,245.087
104905,134026,7651,0.019,-0.953,-0.118,-1.768,0.061,0.671,245.094
104908,134129,8677,0.021,-0.954,-0.113,-1.89,0.183,0.671,245.097
104908,134027,7646,0.017,-0.961,-0.113,-1.89,0.183,0.671,245.104
104880,134129,8677,0.013,-0.96,-0.117,-1.829,-0.122,0.732,245.107
104880,134015,7655,0.012,-0.958,-0.126,-1.829,-0.122,0.732,245.113
104904,134129,8677,0.012,-0.958,-0.126,-1.829,-0.122,0.732,245.117
104904,134008,7646,0.023,-0.97,-0.145,-2.134,-0.183,0.427,245.123
104890,134129,8677,0.023,-0.97,-0.145,-2.134,-0.183,0.427,245.127
104890,134010,7649,0.027,-0.973,-0.156,-1.341,0,-0.061,245.133
104944,134129,8677,0.027,-0.973,-0.156,-1.341,0,-0.061,245.137
104944,134026,7641,0.025,-0.958,-0.137,0.549,0.732,0.122,245.143
104975,134129,8677,0.025,-0.958,-0.137,0.549,0.732,0.122,245.147
104975,134086,7652,0.022,-0.96,-0.124,2.073,1.341,0.366,245.153
105018,134385,8677,0.022,-0.96,-0.124,2.073,1.341,0.366,245.157
105018,134145,7647,0.022,-0.946,-0.09,2.378,1.524,0.366,245.163
105062,134385,8677,0.022,-0.946,-0.09,2.378,1.524,0.366,245.167
105062,134167,7647,0.018,-0.921,-0.091,1.341,1.22,0.427,245.173
105038,134385,8677,0.018,-0.921,-0.091,1.341,1.22,0.427,245.177
105038,134157,7667,0.022,-0.951,-0.117,-1.22,0.244,0.366,245.183
105019,134129,8677,0.022,-0.951,-0.117,-1.22,0.244,0.366,245.186
105019,134120,7654,0.021,-0.967,-0.135,-2.805,-0.61,0.183,245.193
104960,134129,8677,0.021,-0.967,-0.135,-2.805,-0.61,0.183,245.196
104960,134071,7659,0.025,-0.961,-0.162,-2.317,-0.671,0.366,245.203
104921,134129,8677,0.025,-0.961,-0.162,-2.317,-0.671,0.366,245.206
104921,134054,7627,0.022,-0.991,-0.15,-0.488,-0.061,0.488,245.212
104882,134129,8677,0.022,-0.991,-0.15,-0.488,-0.061,0.488,245.216
104882,134004,7641,0.022,-0.953,-0.128,2.256,1.159,0.549,245.222
104854,134129,8677,0.022,-0.953,-0.128,2.256,1.159,0.549,245.226
104854,134011,7646,0.016,-0.958,-0.088,3.415,1.89,0.793,245.232
104868,134129,8677,0.016,-0.958,-0.088,3.415,1.89,0.793,245.236
104868,134030,7643,0.011,-0.951,-0.077,2.317,1.463,0.671,245.242
104892,134129,8677,0.011,-0.951,-0.077,2.317,1.463,0.671,245.246
104892,134001,7647,0.02,-0.937,-0.106,-0.549,0.488,0.305,245.252
104862,134129,8677,0.02,-0.937,-0.106,-0.549,0.488,0.305,245.256
104862,134035,7655,0.023,-0.955,-0.118,-2.683,-0.549,-0.183,245.262
104903,134129,8677,0.022,-0.974,-0.119,-2.683,-0.549,-0.183,245.266
104903,134038,7655,0.021,-0.967,-0.117,-2.744,-1.037,-0.244,245.272
104898,134129,8677,0.024,-0.949,-0.123,-2.744,-1.037,-0.244,245.276
104898,134022,7662,0.025,-0.944,-0.14,-2.744,-0.915,0.122,245.282
104899,134129,8677,0.027,-0.941,-0.154,-2.744,-0.915,0.122,245.285
104899,134018,7658,0.024,-0.96,-0.163,-2.317,-0.305,0.549,245.292
104948,134129,8677,0.023,-0.981,-0.159,-2.317,-0.305,0.549,245.295
104948,134060,7649,0.02,-0.978,-0.153,0.366,0.61,0.793,245.301
104988,134129,8677,0.017,-0.962,-0.143,0.366,0.61,0.793,245.305
104988,134085,7672,0.02,-0.948,-0.135,2.744,1.585,0.854,245.311
105019,134129,8677,0.022,-0.947,-0.134,2.744,1.585,0.854,245.315
105019,134128,7674,0.024,-0.956,-0.12,3.232,1.829,0.427,245.321
105019,134129,8677,0.023,-0.961,-0.102,3.232,1.829,0.427,245.325
105019,134131,7676,0.019,-0.96,-0.094,2.134,1.341,0.244,245.331
105000,134129,8677,0.017,-0.95,-0.093,2.134,1.341,0.244,245.335
105000,134136,7659,0.018,-0.946,-0.091,0.305,0.732,0.183,245.341
104983,134129,8677,0.019,-0.942,-0.096,0.305,0.732,0.183,245.345
104983,134118,7650,0.021,-0.949,-0.101,-1.463,-0.366,0.122,245.351
104954,134129,8677,0.026,-0.957,-0.111,-1.463,-0.366,0.122,245.355
104954,134101,7658,0.02,-0.965,-0.123,-2.805,-0.61,0.061,245.361
104953,134129,8677,0.018,-0.963,-0.134,-2.805,-0.61,0.061,245.365
104953,134085,7645,0.018,-0.963,-0.149,-2.5,-0.244,0.183,245.371
104939,134129,8677,0.023,-0.969,-0.149,-2.5,-0.244,0.183,245.375
104939,134077,7642,0.025,-0.972,-0.15,-0.183,0.061,0.244,245.381
104897,134129,8677,0.027,-0.964,-0.145,-0.183,0.061,0.244,245.384
104897,134058,7638,0.027,-0.949,-0.131,2.073,0.732,0.427,245.391
104795,134129,8677,0.026,-0.948,-0.116,2.073,0.732,0.427,245.394
104795,133954,7631,0.021,-0.949,-0.113,2.561,1.28,0.915,245.401
104762,134129,8677,0.021,-0.952,-0.115,2.561,1.28,0.915,245.404
104762,133940,7625,0.021,-0.963,-0.11,1.402,1.341,0.915,245.41
104758,134129,8677,0.02,-0.962,-0.098,1.402,1.341,0.915,245.414
104758,133931,7629,0.018,-0.946,-0.091,0.427,0.732,0.549,245.42
104803,134129,8677,0.017,-0.935,-0.097,0.427,0.732,0.549,245.424
104803,133992,7638,0.018,-0.945,-0.108,-1.341,0.061,0.244,245.43
104879,134129,8677,0.02,-0.96,-0.113,-1.341,0.061,0.244,245.434
104879,134055,7643,0.021,-0.973,-0.119,-3.171,-0.488,0,245.44
104921,134129,8677,0.022,-0.978,-0.14,-3.171,-0.488,0,245.444
104921,134117,7641,0.021,-0.964,-0.141,-3.232,-0.366,-0.061,245.45
104900,134129,8677,0.025,-0.949,-0.139,-3.232,-0.366,-0.061,245.454
104900,134078,7645,0.024,-0.945,-0.148,-1.463,-0.061,0.366,245.46
104816,134129,8677,0.023,-0.96,-0.158,-1.463,-0.061,0.366,245.464
104816,134012,7643,0.026,-0.97,-0.162,0.732,0.549,0.671,245.47
104735,134129,8677,0.027,-0.968,-0.153,0.732,0.549,0.671,245.474
104735,133986,7616,0.022,-0.949,-0.135,2.988,1.524,0.854,245.48
104707,134129,8677,0.017,-0.95,-0.119,2.988,1.524,0.854,245.483
104707,133949,7621,0.016,-0.964,-0.099,3.72,1.951,0.976,245.49
104741,134129,8677,0.016,-0.957,-0.088,3.72,1.951,0.976,245.493
104741,133959,7629,0.019,-0.939,-0.086,1.646,1.585,0.671,245.5
104776,134129,8677,0.023,-0.928,-0.08,1.646,1.585,0.671,245.503
104776,134010,7645,0.019,-0.941,-0.095,-0.854,0.427,0.549,245.509
104808,134129,8677,0.021,-0.971,-0.12,-0.854,0.427,0.549,245.513
104808,134022,7635,0.018,-0.99,-0.132,-2.5,-0.305,0.244,245.519
104824,134129,8677,0.02,-0.976,-0.129,-2.5,-0.305,0.244,245.523
104824,134025,7632,0.02,-0.948,-0.135,-1.28,-0.305,0.305,245.529
104769,134129,8677,0.022,-0.94,-0.15,-1.28,-0.305,0.305,245.533
104769,133988,7625,0.02,-0.962,-0.162,0.244,0.305,0.366,245.539
104712,134129,8677,0.024,-0.981,-0.159,0.244,0.305,0.366,245.543
104712,133953,7621,0.023,-0.982,-0.142,2.134,1.159,0.244,245.549
104670,134129,8677,0.021,-0.966,-0.124,2.134,1.159,0.244,245.553
104670,133891,7617,0.015,-0.945,-0.115,4.146,1.707,0.61,245.559
104634,133873,8677,0.015,-0.938,-0.109,4.146,1.707,0.61,245.563
104634,133858,7606,0.017,-0.948,-0.096,3.659,1.646,0.549,245.569
104639,134129,8677,0.021,-0.953,-0.081,3.659,1.646,0.549,245.573
104639,133890,7608,0.018,-0.937,-0.073,1.524,0.793,0.122,245.579
104658,133873,8677,0.018,-0.918,-0.084,1.524,0.793,0.122,245.582
104658,133885,7618,0.018,-0.928,-0.092,-1.89,-0.488,0,245.589
104708,134129,8677,0.02,-0.956,-0.1,-1.89,-0.488,0,245.592
104708,133961,7629,0.021,-0.976,-0.12,-4.817,-1.402,-0.427,245.599
104748,134129,8677,0.022,-0.982,-0.134,-4.817,-1.402,-0.427,245.602
104748,133991,7626,0.025,-0.977,-0.146,-4.634,-1.402,-0.366,245.608
104745,134129,8677,0.026,-0.971,-0.153,-4.634,-1.402,-0.366,245.612
104745,133994,7635,0.025,-0.969,-0.148,-1.89,-0.427,0.061,245.618
104719,134129,8677,0.025,-0.964,-0.145,-1.89,-0.427,0.061,245.622
104719,133960,7618,0.024,-0.962,-0.131,0.732,0.488,0.366,245.628
104674,134129,8677,0.021,-0.957,-0.12,0.732,0.488,0.366,245.632
104674,133928,7614,0.019,-0.954,-0.123,1.463,0.732,0.671,245.638
104608,133873,8677,0.018,-0.949,-0.11,1.463,0.732,0.671,245.642
104608,133881,7611,0.019,-0.947,-0.098,0.671,0.854,0.488,245.648
104595,133873,8677,0.019,-0.945,-0.103,0.671,0.854,0.488,245.652
104595,133856,7623,0.017,-0.944,-0.101,-0.793,0.244,0.305,245.658
104618,133873,8677,0.02,-0.943,-0.105,-0.793,0.244,0.305,245.662
104618,133843,7605,0.022,-0.949,-0.119,-2.5,-0.488,0.244,245.668
104626,133873,8677,0.024,-0.956,-0.132,-2.5,-0.488,0.244,245.672
104626,133878,7617,0.023,-0.964,-0.145,-2.927,-0.732,0.244,245.678
104685,134129,8677,0.025,-0.974,-0.155,-2.927,-0.732,0.244,245.681
104685,133943,7612,0.026,-0.973,-0.161,-1.646,-0.183,0.244,245.688
104728,134129,8677,0.024,-0.971,-0.158,-1.646,-0.183,0.244,245.691
104728,133963,7630,0.026,-0.969,-0.135,0.915,0.854,0.549,245.698
104666,134129,8677,0.023,-0.964,-0.116,0.915,0.854,0.549,245.701
104666,133944,7629,0.018,-0.954,-0.121,2.317,1.463,0.915,245.707
104632,133873,8677,0.018,-0.954,-0.121,2.317,1.463,0.915,245.711
104632,133880,7617,0.023,-0.961,-0.1,2.317,1.402,0.671,245.717
104572,133873,8677,0.023,-0.961,-0.1,2.317,1.402,0.671,245.721
104572,133828,7602,0.014,-0.948,-0.106,1.22,0.915,0.183,245.727
104525,133873,8677,0.014,-0.948,-0.106,1.22,0.915,0.183,245.731
104525,133775,7608,0.023,-0.943,-0.121,0.061,0.427,0.061,245.737
104509,133873,8677,0.023,-0.943,-0.121,0.061,0.427,0.061,245.741
104509,133793,7616,0.025,-0.965,-0.138,-0.305,0.305,0.061,245.747
104572,133873,8677,0.025,-0.965,-0.138,-0.305,0.305,0.061,245.751
104572,133839,7621,0.024,-0.948,-0.138,0.122,0.976,0.488,245.757
104618,134129,8677,0.024,-0.948,-0.138,0.122,0.976,0.488,245.761
104618,133888,7632,0.019,-0.963,-0.094,1.22,1.341,0.976,245.767
104698,134129,8677,0.019,-0.963,-0.094,1.22,1.341,0.976,245.771
104698,133933,7614,0.014,-0.936,-0.086,-0.183,0.732,1.037,245.777
104643,134129,8677,0.014,-0.936,-0.086,-0.183,0.732,1.037,245.78
104643,133960,7622,0.018,-0.965,-0.106,-2.683,-0.366,0.671,245.787
104632,134129,8677,0.018,-0.965,-0.106,-2.683,-0.366,0.671,245.79
104632,133916,7613,0.023,-0.973,-0.132,-3.293,-1.037,0.183,245.797
104576,133873,8677,0.023,-0.973,-0.132,-3.293,-1.037,0.183,245.8
104576,133864,7616,0.028,-0.95,-0.168,-1.951,-0.61,0.122,245.806
104540,133873,8677,0.028,-0.95,-0.168,-1.951,-0.61,0.122,245.81
104540,133836,7594,0.029,-0.978,-0.157,0.122,0.427,0.366,245.816
104603,134129,8677,0.029,-0.978,-0.157,0.122,0.427,0.366,245.82
104603,133892,7622,0.022,-0.953,-0.12,2.073,1.463,0.915,245.826
104683,134129,8677,0.022,-0.953,-0.12,2.073,1.463,0.915,245.83
104683,133961,7614,0.018,-0.957,-0.109,2.073,1.585,0.976,245.836
104743,134129,8677,0.018,-0.957,-0.109,2.073,1.585,0.976,245.84
104743,134004,7626,0.015,-0.962,-0.085,1.463,0.915,0.61,245.846
104783,134129,8677,0.015,-0.962,-0.085,1.463,0.915,0.61,245.85
104783,134041,7629,0.011,-0.939,-0.072,1.463,0.915,0.61,245.856
104748,134129,8677,0.013,-0.92,-0.068,-0.732,-0.244,0.305,245.86
104748,134021,7618,0.015,-0.929,-0.103,-0.732,-0.244,0.305,245.866
104687,134129,8677,0.019,-0.957,-0.137,-4.39,-1.28,-0.427,245.87
104687,133982,7615,0.022,-0.975,-0.156,-4.39,-1.28,-0.427,245.876
104668,134129,8677,0.024,-0.975,-0.157,-4.451,-1.402,-0.549,245.879
104668,133938,7624,0.023,-0.962,-0.156,-4.451,-1.402,-0.549,245.886
104643,134129,8677,0.021,-0.952,-0.164,-1.524,-0.427,0.122,245.889
104643,133925,7614,0.018,-0.955,-0.155,-1.524,-0.427,0.122,245.896
104627,134129,8677,0.022,-0.962,-0.123,0.488,0.671,0.427,245.899
104627,133898,7616,0.021,-0.964,-0.106,0.488,0.671,0.427,245.905
104625,134129,8677,0.016,-0.954,-0.104,0.671,0.915,0.488,245.909
104625,133920,7613,0.016,-0.94,-0.114,0.671,0.915,0.488,245.915
104695,134129,8677,0.021,-0.948,-0.113,-0.244,0.549,0.305,245.919
104695,133927,7615,0.02,-0.963,-0.098,-0.244,0.549,0.305,245.925
104680,134129,8677,0.02,-0.96,-0.112,-0.549,-0.122,0,245.929
104680,133949,7629,0.023,-0.954,-0.14,-0.549,-0.122,0,245.935
104655,134129,8677,0.028,-0.947,-0.153,-1.463,-0.183,-0.122,245.939
104655,133914,7611,0.031,-0.959,-0.14,-1.463,-0.183,-0.122,245.945
104595,133873,8677,0.031,-0.962,-0.128,-0.488,0,0.183,245.949
104595,133864,7607,0.025,-0.948,-0.135,-0.488,0,0.183,245.955
104586,133873,8677,0.022,-0.948,-0.141,0,0.61,0.915,245.959
104586,133823,7620,0.023,-0.958,-0.131,0,0.61,0.915,245.965
104561,133873,8677,0.019,-0.974,-0.123,0.549,0.976,1.037,245.969
104561,133831,7613,0.013,-0.977,-0.116,0.549,0.976,1.037,245.975
104589,133873,8677,0.014,-0.961,-0.111,1.28,0.976,0.854,245.978
104589,133823,7611,0.013,-0.95,-0.102,1.28,0.976,0.854,245.985
104606,134129,8677,0.017,-0.952,-0.1,0.976,0.61,0.549,245.988
104606,133891,7616,0.02,-0.952,-0.104,0.976,0.61,0.549,245.995
104649,134129,8677,0.021,-0.95,-0.11,-0.427,0.061,0.122,245.998
104649,133904,7619,0.02,-0.952,-0.109,-0.427,0.061,0.122,246.004
104647,134129,8677,0.018,-0.956,-0.1,-1.585,-0.061,0.122,246.008
104647,133896,7597,0.014,-0.959,-0.117,-1.585,-0.061,0.122,246.014
104638,133873,8677,0.016,-0.955,-0.14,-2.927,-0.122,0.122,246.018
104638,133881,7628,0.022,-0.961,-0.151,-2.927,-0.122,0.122,246.024
104624,133873,8677,0.025,-0.969,-0.144,-2.012,-0.061,0,246.028
104624,133870,7610,0.023,-0.97,-0.135,-2.012,-0.061,0,246.034
104638,133873,8677,0.019,-0.948,-0.135,0.732,0.427,0.366,246.038
104638,133870,7600,0.02,-0.93,-0.136,0.732,0.427,0.366,246.044
104626,134129,8677,0.025,-0.937,-0.123,1.463,0.854,0.671,246.048
104626,133918,7609,0.024,-0.95,-0.109,1.463,0.854,0.671,246.054
104626,133873,8677,0.02,-0.952,-0.111,0.915,0.732,0.671,246.058
104626,133884,7604,0.018,-0.954,-0.114,0.915,0.732,0.671,246.064
104597,133873,8677,0.02,-0.955,-0.109,-0.61,0.305,0.732,246.068
104597,133877,7590,0.018,-0.957,-0.107,-0.61,0.305,0.732,246.074
104506,133873,8677,0.019,-0.964,-0.111,-1.463,-0.366,0.488,246.077
104506,133823,7597,0.021,-0.972,-0.113,-1.463,-0.366,0.488,246.084
104514,133873,8677,0.02,-0.966,-0.124,-2.134,-0.671,0.305,246.087
104514,133821,7609,0.022,-0.959,-0.121,-2.134,-0.671,0.305,246.094
104543,133873,8677,0.019,-0.959,-0.113,-2.073,-0.671,0.244,246.097
104543,133819,7616,0.016,-0.964,-0.12,-2.073,-0.671,0.244,246.103
104601,133873,8677,0.017,-0.964,-0.137,-2.317,-0.366,0.183,246.107
104601,133884,7603,0.022,-0.963,-0.158,-2.317,-0.366,0.183,246.113
104669,134129,8677,0.026,-0.965,-0.152,-1.585,0.122,0.061,246.117
104669,133901,7609,0.025,-0.97,-0.134,-1.585,0.122,0.061,246.123
104647,134129,8677,0.02,-0.956,-0.12,1.037,0.488,0.183,246.127
104647,133905,7603,0.016,-0.931,-0.12,1.037,0.488,0.183,246.133
104582,133873,8677,0.019,-0.927,-0.128,1.098,0.61,0.305,246.137
104582,133845,7606,0.025,-0.954,-0.136,1.098,0.61,0.305,246.143
104531,133873,8677,0.023,-0.968,-0.133,0.183,0.61,-0.061,246.147
104531,133806,7592,0.019,-0.962,-0.122,0.183,0.61,-0.061,246.153
104496,133873,8677,0.022,-0.945,-0.119,0.671,0.854,0.122,246.157
104496,133788,7597,0.021,-0.941,-0.108,0.671,0.854,0.122,246.163
104487,133873,8677,0.018,-0.949,-0.086,0.549,0.366,0.427,246.167
104487,133759,7580,0.018,-0.95,-0.084,0.549,0.366,0.427,246.173
104499,133873,8677,0.019,-0.948,-0.116,-2.256,-0.488,0.366,246.176
104499,133796,7598,0.022,-0.957,-0.13,-2.256,-0.488,0.366,246.183
104549,133873,8677,0.023,-0.977,-0.131,-3.78,-0.915,0.122,246.186
104549,133807,7581,0.023,-0.987,-0.137,-3.78,-0.915,0.122,246.192
104526,133873,8677,0.02,-0.976,-0.157,-1.768,-0.427,0.122,246.196
104526,133834,7604,0.022,-0.959,-0.166,-1.768,-0.427,0.122,246.202
104497,133873,8677,0.026,-0.954,-0.165,0.671,0.305,0.366,246.206
104497,133781,7597,0.025,-0.956,-0.153,0.671,0.305,0.366,246.212
104499,133873,8677,0.025,-0.955,-0.142,2.988,1.159,0.488,246.216
104499,133746,7596,0.021,-0.951,-0.135,2.988,1.159,0.488,246.222
104498,133873,8677,0.021,-0.946,-0.12,3.537,1.951,0.732,246.226
104498,133776,7588,0.018,-0.946,-0.107,3.537,1.951,0.732,246.232
104525,133873,8677,0.016,-0.952,-0.086,2.622,1.524,0.732,246.236
104525,133774,7621,0.016,-0.953,-0.057,2.622,1.524,0.732,246.242
104557,133873,8677,0.011,-0.94,-0.06,0.183,0.366,0.61,246.246
104557,133831,7609,0.012,-0.929,-0.091,0.183,0.366,0.61,246.252
104585,133873,8677,0.021,-0.939,-0.112,-3.78,-1.098,0.122,246.256
104585,133797,7615,0.027,-0.965,-0.118,-3.78,-1.098,0.122,246.262
104572,133873,8677,0.029,-0.976,-0.128,-4.268,-2.134,-0.244,246.266
104572,133811,7602,0.024,-0.971,-0.154,-4.268,-2.134,-0.244,246.272
104571,133873,8677,0.023,-0.961,-0.179,-2.866,-1.463,0.244,246.275
104571,133808,7600,0.023,-0.964,-0.188,-2.866,-1.463,0.244,246.282
104517,133873,8677,0.025,-0.978,-0.183,0,0.183,0.488,246.285
104517,133786,7599,0.023,-0.987,-0.171,0,0.183,0.488,246.292
104503,133873,8677,0.023,-0.987,-0.171,0,0.183,0.488,246.295
104503,133764,7592,0.021,-0.95,-0.117,3.72,1.463,0.732,246.301
104494,133873,8677,0.021,-0.95,-0.117,3.72,1.463,0.732,246.305
104494,133752,7598,0.019,-0.937,-0.09,5.183,1.951,0.976,246.311
104483,133873,8677,0.019,-0.937,-0.09,5.183,1.951,0.976,246.315
104483,133762,7596,0.014,-0.944,-0.054,3.171,1.524,0.671,246.321
104503,133873,8677,0.014,-0.944,-0.054,3.171,1.524,0.671,246.325
104503,133755,7606,0.014,-0.927,-0.099,-0.732,0,0.427,246.331
104518,133873,8677,0.014,-0.927,-0.099,-0.732,0,0.427,246.335
104518,133783,7611,0.022,-0.996,-0.141,-4.695,-1.159,-0.061,246.341
104534,133873,8677,0.022,-0.996,-0.141,-4.695,-1.159,-0.061,246.345
104534,133784,7598,0.028,-0.955,-0.155,-4.695,-1.28,-0.488,246.351
104514,133873,8677,0.028,-0.955,-0.155,-4.695,-1.28,-0.488,246.355
104514,133758,7615,0.02,-0.945,-0.12,-1.463,-0.732,0.183,246.361
104519,133873,8677,0.02,-0.945,-0.12,-1.463,-0.732,0.183,246.365
104519,133726,7596,0.018,-0.952,-0.159,-0.427,0.305,0.732,246.371
104465,133873,8677,0.018,-0.952,-0.159,-0.427,0.305,0.732,246.374
104465,133705,7604,0.023,-0.979,-0.147,-0.61,0.854,0.732,246.381
104444,133873,8677,0.023,-0.979,-0.147,-0.61,0.854,0.732,246.384
104444,133666,7589,0.019,-0.958,-0.164,2.256,1.22,0.793,246.39
104429,133873,8677,0.019,-0.958,-0.164,2.256,1.22,0.793,246.394
104429,133675,7593,0.029,-0.945,-0.125,4.512,1.951,0.671,246.4
104451,133873,8677,0.029,-0.945,-0.125,4.512,1.951,0.671,246.404
104451,133663,7604,0.019,-0.946,-0.083,4.573,1.951,0.488,246.41
104451,133873,8677,0.019,-0.946,-0.083,4.573,1.951,0.488,246.414
104451,133703,7599,0.013,-0.947,-0.06,1.89,1.829,0.549,246.42
104507,133873,8677,0.013,-0.947,-0.06,1.89,1.829,0.549,246.424
104507,133721,7592,0.017,-0.957,-0.113,-2.073,0.488,0.427,246.43
104516,133873,8677,0.017,-0.957,-0.113,-2.073,0.488,0.427,246.434
104516,133745,7607,0.021,-0.977,-0.13,-3.963,-1.037,0.122,246.44
104519,133873,8677,0.021,-0.987,-0.132,-3.963,-1.037,0.122,246.444
104519,133716,7600,0.016,-0.977,-0.145,-2.378,-1.28,0.061,246.45
104481,133873,8677,0.019,-0.949,-0.166,-2.378,-1.28,0.061,246.454
104481,133715,7595,0.023,-0.94,-0.171,-0.488,-0.244,0.183,246.46
104445,133873,8677,0.026,-0.957,-0.17,-0.488,-0.244,0.183,246.464
104445,133671,7603,0.027,-0.983,-0.143,1.646,0.793,0.122,246.47
104429,133873,8677,0.021,-0.97,-0.125,1.646,0.793,0.122,246.473
104429,133670,7592,0.019,-0.943,-0.112,3.415,1.585,0.488,246.48
104441,133873,8677,0.017,-0.937,-0.099,3.415,1.585,0.488,246.483
104441,133662,7593,0.017,-0.948,-0.088,2.744,1.402,0.61,246.489
104473,133873,8677,0.018,-0.956,-0.069,2.744,1.402,0.61,246.493
104473,133709,7612,0.015,-0.942,-0.062,0,0.366,-0.061,246.499
104584,133873,8677,0.017,-0.921,-0.081,0,0.366,-0.061,246.503
104584,133771,7610,0.017,-0.942,-0.109,-4.207,-0.976,-0.366,246.509
104647,133873,8677,0.019,-0.978,-0.134,-4.207,-0.976,-0.366,246.513
104647,133833,7621,0.025,-0.989,-0.15,-5.854,-1.524,-0.854,246.519
104616,133873,8677,0.033,-0.976,-0.162,-5.854,-1.524,-0.854,246.523
104616,133828,7608,0.032,-0.96,-0.172,-2.988,-1.098,-0.427,246.529
104572,133873,8677,0.032,-0.956,-0.166,-2.988,-1.098,-0.427,246.533
104572,133757,7618,0.028,-0.961,-0.152,0.305,0.183,0.366,246.539
104478,133873,8677,0.024,-0.963,-0.14,0.305,0.183,0.366,246.543
104478,133683,7593,0.018,-0.955,-0.123,1.89,1.402,0.854,246.549
104392,133617,8677,0.019,-0.948,-0.111,1.89,1.402,0.854,246.553
104392,133611,7599,0.02,-0.947,-0.113,1.463,1.28,0.976,246.559
104397,133617,8677,0.018,-0.947,-0.122,1.463,1.28,0.976,246.562
104397,133609,7594,0.021,-0.953,-0.118,0.305,0.732,0.549,246.569
104429,133617,8677,0.023,-0.957,-0.109,0.305,0.732,0.549,246.572
104429,133622,7595,0.018,-0.955,-0.122,0.244,0.244,0.427,246.579
104503,133873,8677,0.017,-0.955,-0.135,0.244,0.244,0.427,246.582
104503,133712,7614,0.024,-0.96,-0.13,-0.671,0.305,0.244,246.588
104540,133873,8677,0.028,-0.958,-0.133,-0.671,0.305,0.244,246.592
104540,133732,7596,0.025,-0.964,-0.136,-0.549,0.671,0.244,246.598
104502,133873,8677,0.021,-0.967,-0.133,-0.549,0.671,0.244,246.602
104502,133733,7599,0.022,-0.957,-0.119,0.732,1.037,0.671,246.608
104480,133873,8677,0.022,-0.947,-0.103,0.732,1.037,0.671,246.612
104480,133716,7595,0.018,-0.945,-0.099,1.28,0.976,1.037,246.618
104464,133873,8677,0.011,-0.944,-0.106,1.28,0.976,1.037,246.622
104464,133684,7599,0.018,-0.948,-0.113,-0.366,0.671,0.915,246.628
104402,133617,8677,0.023,-0.955,-0.121,-0.366,0.671,0.915,246.632
104402,133617,7591,0.022,-0.965,-0.135,-1.707,0.366,0.427,246.638
104345,133617,8677,0.02,-0.971,-0.143,-1.707,0.366,0.427,246.642
104345,133582,7585,0.021,-0.967,-0.147,-0.976,0.549,0.244,246.648
104319,133617,8677,0.027,-0.962,-0.156,-0.976,0.549,0.244,246.652
104319,133572,7589,0.033,-0.958,-0.158,0.915,0.915,0.488,246.658
104328,133617,8677,0.032,-0.961,-0.141,0.915,0.915,0.488,246.661
104328,133586,7587,0.024,-0.954,-0.125,2.683,1.402,1.098,246.668
104388,133617,8677,0.019,-0.944,-0.113,2.683,1.402,1.098,246.671
104388,133627,7612,0.015,-0.941,-0.097,2.805,1.585,1.707,246.678
104478,133873,8677,0.011,-0.945,-0.074,2.805,1.585,1.707,246.681
104478,133715,7602,0.007,-0.946,-0.067,0.732,0.793,1.463,246.687
104574,133873,8677,0.01,-0.94,-0.089,0.732,0.793,1.463,246.691
104574,133792,7614,0.01,-0.947,-0.107,-2.927,-0.427,0.732,246.697
104544,133873,8677,0.017,-0.972,-0.121,-2.927,-0.427,0.732,246.701
104544,133810,7611,0.018,-0.992,-0.139,-4.085,-1.037,-0.061,246.707
104521,133873,8677,0.018,-0.983,-0.153,-4.085,-1.037,-0.061,246.711
104521,133749,7603,0.019,-0.963,-0.161,-2.439,-0.549,-0.488,246.717
104471,133873,8677,0.023,-0.949,-0.163,-2.439,-0.549,-0.488,246.721
104471,133702,7594,0.025,-0.957,-0.16,0.122,0.183,-0.122,246.727
104437,133873,8677,0.025,-0.969,-0.141,0.122,0.183,-0.122,246.731
104437,133677,7586,0.023,-0.96,-0.119,2.012,0.915,0.122,246.737
104466,133873,8677,0.018,-0.938,-0.108,2.012,0.915,0.122,246.741
104466,133726,7602,0.016,-0.933,-0.107,2.073,1.22,0.366,246.747
104583,133873,8677,0.019,-0.954,-0.102,2.073,1.22,0.366,246.751
104583,133807,7607,0.018,-0.96,-0.085,0.61,0.732,0.183,246.757
104635,133873,8677,0.017,-0.942,-0.085,0.61,0.732,0.183,246.76
104635,133869,7637,0.019,-0.93,-0.103,-1.341,-0.061,-0.122,246.767
104680,134129,8677,0.021,-0.947,-0.124,-1.341,-0.061,-0.122,246.77
104680,133927,7604,0.025,-0.974,-0.134,-3.537,-0.549,-0.366,246.777
104607,133873,8677,0.027,-0.972,-0.138,-3.537,-0.549,-0.366,246.78
104607,133846,7609,0.028,-0.952,-0.144,-2.866,-0.61,-0.061,246.786
104576,133873,8677,0.029,-0.946,-0.148,-2.866,-0.61,-0.061,246.79
104576,133784,7599,0.022,-0.958,-0.153,-0.976,0,0.61,246.796
104476,133873,8677,0.022,-0.977,-0.154,-0.976,0,0.61,246.8
104476,133725,7602,0.022,-0.981,-0.145,0.488,0.915,0.732,246.806
104436,133873,8677,0.02,-0.967,-0.143,0.488,0.915,0.732,246.81
104436,133682,7588,0.019,-0.957,-0.14,2.683,1.463,0.793,246.816
104444,133873,8677,0.018,-0.956,-0.132,2.683,1.463,0.793,246.82
104444,133679,7597,0.019,-0.959,-0.118,3.902,1.768,0.549,246.826
104446,133873,8677,0.022,-0.953,-0.101,3.902,1.768,0.549,246.83
104446,133689,7592,0.019,-0.939,-0.084,3.354,1.463,0.427,246.836
104467,133873,8677,0.018,-0.931,-0.06,3.354,1.463,0.427,246.84
104467,133712,7600,0.014,-0.924,-0.075,0,0.305,0.427,246.846
104461,133873,8677,0.017,-0.941,-0.105,0,0.305,0.427,246.85
104461,133671,7594,0.021,-0.969,-0.115,-3.963,-0.732,-0.061,246.856
104452,133873,8677,0.019,-0.989,-0.127,-3.963,-0.732,-0.061,246.859
104452,133692,7587,0.021,-0.979,-0.138,-4.085,-1.098,-0.183,246.866
104457,133873,8677,0.023,-0.955,-0.156,-4.085,-1.098,-0.183,246.869
104457,133690,7592,0.025,-0.947,-0.168,-1.585,-0.305,0.366,246.876
104493,133873,8677,0.025,-0.947,-0.168,-1.585,-0.305,0.366,246.879
104493,133728,7605,0.025,-0.968,-0.143,1.098,0.671,0.549,246.885
104473,133873,8677,0.025,-0.968,-0.143,1.098,0.671,0.549,246.889
104473,133711,7593,0.019,-0.937,-0.126,2.561,1.402,0.915,246.895
104425,133873,8677,0.019,-0.937,-0.126,2.561,1.402,0.915,246.899
104425,133689,7588,0.015,-0.95,-0.107,2.195,1.402,0.976,246.905
104393,133873,8677,0.015,-0.95,-0.107,2.195,1.402,0.976,246.909
104393,133633,7585,0.013,-0.951,-0.08,0.366,0.549,0.427,246.915
104393,133873,8677,0.013,-0.951,-0.08,0.366,0.549,0.427,246.919
104393,133660,7586,0.018,-0.937,-0.109,-2.683,-0.732,-0.061,246.925
104422,133873,8677,0.018,-0.937,-0.109,-2.683,-0.732,-0.061,246.929
104422,133678,7600,0.022,-0.981,-0.118,-4.39,-1.585,-0.488,246.935
104465,133873,8677,0.022,-0.981,-0.118,-4.39,-1.585,-0.488,246.939
104465,133710,7604,0.026,-0.942,-0.145,-3.354,-1.646,-0.122,246.945
104494,133873,8677,0.026,-0.942,-0.145,-3.354,-1.646,-0.122,246.949
104494,133733,7597,0.03,-0.964,-0.157,-1.463,-0.976,0.427,246.955
104524,133873,8677,0.03,-0.964,-0.157,-1.463,-0.976,0.427,246.958
104524,133783,7587,0.02,-0.974,-0.117,0.488,-0.183,0.915,246.965
104476,133873,8677,0.02,-0.974,-0.117,0.488,-0.183,0.915,246.968
104476,133738,7603,0.021,-0.942,-0.136,0.976,0,1.28,246.975
104452,133873,8677,0.021,-0.942,-0.136,0.976,0,1.28,246.978
104452,133717,7590,0.021,-0.974,-0.13,1.341,-0.122,0.854,246.984
104411,133873,8677,0.021,-0.974,-0.13,1.341,-0.122,0.854,246.988
104411,133663,7582,0.02,-0.947,-0.119,2.317,-0.061,0.854,246.994
104413,133873,8677,0.02,-0.947,-0.119,2.317,-0.061,0.854,246.998
104413,133647,7594,0.018,-0.945,-0.119,1.585,-0.122,0.793,247.004
104426,133873,8677,0.018,-0.945,-0.119,1.585,-0.122,0.793,247.008
104426,133703,7593,0.018,-0.944,-0.108,-0.427,-0.061,0.61,247.014
104481,133873,8677,0.018,-0.944,-0.108,-0.427,-0.061,0.61,247.018
104481,133726,7583,0.017,-0.946,-0.107,-0.427,-0.061,0.61,247.024
104544,133873,8677,0.018,-0.954,-0.109,-1.951,-0.549,0.732,247.028
104544,133787,7600,0.018,-0.962,-0.109,-1.951,-0.549,0.732,247.034
104502,133873,8677,0.014,-0.972,-0.115,-3.354,-0.732,0.488,247.038
104502,133752,7576,0.02,-0.968,-0.123,-3.354,-0.732,0.488,247.044
104453,133873,8677,0.021,-0.966,-0.123,-2.805,-1.22,0.366,247.048
104453,133732,7596,0.016,-0.965,-0.127,-2.805,-1.22,0.366,247.054
104418,133873,8677,0.018,-0.969,-0.135,-1.585,-1.402,0.244,247.058
104418,133659,7598,0.019,-0.971,-0.129,-1.585,-1.402,0.244,247.064
104380,133873,8677,0.018,-0.966,-0.121,-1.098,-1.159,0.183,247.067
104380,133649,7585,0.019,-0.955,-0.118,-1.098,-1.159,0.183,247.074
104434,133873,8677,0.02,-0.943,-0.111,-1.585,-1.098,0.061,247.077
104434,133668,7579,0.02,-0.937,-0.117,-1.585,-1.098,0.061,247.083
104444,133873,8677,0.021,-0.942,-0.132,-2.988,-1.098,-0.061,247.087
104444,133678,7596,0.02,-0.95,-0.133,-2.988,-1.098,-0.061,247.093
104507,133873,8677,0.02,-0.953,-0.135,-3.598,-0.915,-0.061,247.097
104507,133742,7598,0.021,-0.949,-0.142,-3.598,-0.915,-0.061,247.103
104534,133873,8677,0.023,-0.947,-0.154,-2.561,-0.549,0.061,247.107
104534,133778,7615,0.021,-0.956,-0.152,-2.561,-0.549,0.061,247.113
104559,133873,8677,0.023,-0.965,-0.142,-1.037,-0.122,0.122,247.117
104559,133798,7599,0.022,-0.965,-0.14,-1.037,-0.122,0.122,247.123
104545,133873,8677,0.024,-0.96,-0.142,0,0.122,0.549,247.127
104545,133783,7597,0.024,-0.961,-0.141,0,0.122,0.549,247.133
104555,133873,8677,0.022,-0.961,-0.137,0.976,0.305,0.732,247.137
104555,133776,7626,0.023,-0.966,-0.127,0.976,0.305,0.732,247.143
104532,133873,8677,0.021,-0.958,-0.122,1.707,0.488,0.854,247.147
104532,133748,7611,0.018,-0.955,-0.11,1.707,0.488,0.854,247.153
104522,133873,8677,0.013,-0.953,-0.108,1.159,0.488,0.915,247.156
104522,133721,7615,0.013,-0.951,-0.116,1.159,0.488,0.915,247.163
104523,133873,8677,0.016,-0.948,-0.12,-0.061,0.183,0.427,247.166
104523,133770,7603,0.016,-0.955,-0.118,-0.061,0.183,0.427,247.173
104573,133873,8677,0.013,-0.955,-0.121,-0.854,-0.061,0,247.176
104573,133775,7612,0.017,-0.953,-0.128,-0.854,-0.061,0,247.182
104598,133873,8677,0.023,-0.944,-0.146,-1.28,-0.427,0,247.186
104598,133815,7611,0.026,-0.95,-0.156,-1.28,-0.427,0,247.192
104602,133873,8677,0.026,-0.962,-0.158,-0.61,-0.183,0,247.196
104602,133807,7605,0.024,-0.971,-0.158,-0.61,-0.183,0,247.202
104585,133873,8677,0.019,-0.969,-0.147,1.159,0.732,0.305,247.206
104585,133772,7607,0.02,-0.959,-0.137,1.159,0.732,0.305,247.212
104530,133873,8677,0.016,-0.951,-0.117,2.866,1.463,0.549,247.216
104530,133734,7617,0.016,-0.959,-0.107,2.866,1.463,0.549,247.222
104466,133873,8677,0.016,-0.964,-0.088,2.5,1.28,0.305,247.226
104466,133692,7612,0.015,-0.949,-0.081,2.5,1.28,0.305,247.232
104441,133873,8677,0.014,-0.937,-0.098,-0.366,0.183,0,247.236
104441,133657,7603,0.016,-0.954,-0.115,-0.366,0.183,0,247.242
104430,133873,8677,0.015,-0.974,-0.119,-2.561,-0.549,-0.549,247.246
104430,133671,7603,0.02,-0.972,-0.13,-2.561,-0.549,-0.549,247.252
104449,133873,8677,0.026,-0.955,-0.141,-2.134,-0.854,-0.854,247.256
104449,133653,7607,0.028,-0.943,-0.155,-2.134,-0.854,-0.854,247.262
104451,133873,8677,0.029,-0.941,-0.158,-0.488,-0.488,-0.305,247.265
104451,133666,7614,0.029,-0.951,-0.152,-0.488,-0.488,-0.305,247.272
104490,133873,8677,0.025,-0.952,-0.15,0.854,0.488,0.122,247.275
104490,133673,7609,0.024,-0.949,-0.145,0.854,0.488,0.122,247.281
104464,133873,8677,0.021,-0.95,-0.132,1.463,1.22,0.671,247.285
104464,133656,7617,0.019,-0.955,-0.12,1.463,1.22,0.671,247.291
104480,133873,8677,0.019,-0.964,-0.116,1.585,1.341,0.732,247.295
104480,133675,7603,0.018,-0.964,-0.111,1.585,1.341,0.732,247.301
104496,133873,8677,0.018,-0.963,-0.095,0.61,1.037,0.488,247.305
104496,133662,7620,0.016,-0.955,-0.097,0.61,1.037,0.488,247.311
104505,133873,8677,0.015,-0.953,-0.11,-0.427,0.366,0.305,247.315
104505,133692,7614,0.017,-0.959,-0.119,-0.427,0.366,0.305,247.321
104540,133873,8677,0.022,-0.967,-0.125,-1.585,-0.122,-0.122,247.325
104540,133676,7617,0.026,-0.966,-0.133,-1.585,-0.122,-0.122,247.331
104550,133873,8677,0.025,-0.961,-0.143,-1.463,-0.122,-0.122,247.335
104550,133704,7631,0.021,-0.963,-0.147,-1.463,-0.122,-0.122,247.341
104552,133873,8677,0.021,-0.966,-0.154,-0.305,0.488,0.122,247.345
104552,133679,7623,0.023,-0.962,-0.149,-0.305,0.488,0.122,247.351
104556,133873,8677,0.022,-0.959,-0.138,1.341,0.976,0.305,247.354
104556,133668,7613,0.021,-0.953,-0.126,1.341,0.976,0.305,247.361
104536,133873,8677,0.018,-0.944,-0.119,2.683,1.341,0.488,247.364
104536,133655,7629,0.018,-0.94,-0.119,2.683,1.341,0.488,247.371
104565,133873,8677,0.02,-0.944,-0.121,1.951,1.463,0.244,247.374
104565,133699,7620,0.02,-0.945,-0.106,1.951,1.463,0.244,247.38
104537,133873,8677,0.019,-0.943,-0.108,0.366,1.159,0.183,247.384
104537,133699,7640,0.02,-0.942,-0.114,0.366,1.159,0.183,247.39
104578,133873,8677,0.02,-0.948,-0.111,-0.915,0.427,0.183,247.394
104578,133670,7631,0.022,-0.955,-0.111,-0.915,0.427,0.183,247.4
104606,133873,8677,0.026,-0.954,-0.127,-1.524,-0.183,0.122,247.404
104606,133712,7651,0.028,-0.949,-0.144,-1.524,-0.183,0.122,247.41
104631,133873,8677,0.026,-0.966,-0.155,-1.646,-0.122,0.488,247.414
104631,133722,7644,0.021,-0.981,-0.161,-1.646,-0.122,0.488,247.42
104656,133873,8677,0.02,-0.983,-0.157,0.244,0.671,0.793,247.424
104656,133728,7650,0.022,-0.973,-0.145,0.244,0.671,0.793,247.43
104650,133873,8677,0.021,-0.958,-0.134,2.744,1.341,0.854,247.434
104650,133758,7656,0.021,-0.953,-0.119,2.744,1.341,0.854,247.44
104665,133873,8677,0.02,-0.955,-0.105,3.354,1.585,0.854,247.444
104665,133742,7647,0.019,-0.959,-0.099,3.354,1.585,0.854,247.45
104678,133873,8677,0.019,-0.958,-0.097,1.768,1.22,0.793,247.454
104678,133712,7646,0.016,-0.962,-0.091,1.768,1.22,0.793,247.46
104658,133873,8677,0.016,-0.962,-0.091,1.768,1.22,0.793,247.463
104658,133753,7657,0.02,-0.937,-0.11,-0.183,0.305,0.549,247.47
104757,133873,8677,0.02,-0.937,-0.11,-0.183,0.305,0.549,247.473
104757,133776,7667,0.027,-0.948,-0.136,-2.012,-0.488,0.244,247.479
104838,133873,8677,0.027,-0.948,-0.136,-2.012,-0.488,0.244,247.483
104838,133867,7690,0.021,-0.96,-0.15,-2.378,-0.61,0.244,247.489
104884,134129,8677,0.021,-0.96,-0.15,-2.378,-0.61,0.244,247.493
104884,133921,7681,0.014,-0.958,-0.14,-1.646,0.183,0.427,247.499
104929,134129,8677,0.014,-0.958,-0.14,-1.646,0.183,0.427,247.503
104929,133961,7692,0.02,-0.969,-0.133,-0.61,0.61,0.549,247.509
104940,134129,8677,0.02,-0.969,-0.133,-0.61,0.61,0.549,247.513
104940,133963,7684,0.022,-0.943,-0.114,0.427,0.732,0.305,247.519
104926,134129,8677,0.022,-0.943,-0.114,0.427,0.732,0.305,247.523
104926,133915,7677,0.011,-0.957,-0.103,0.793,0.61,0.427,247.529
104870,133873,8677,0.011,-0.957,-0.103,0.793,0.61,0.427,247.533
104870,133882,7669,0.019,-0.955,-0.13,-0.915,0.122,0.305,247.539
104843,133873,8677,0.019,-0.955,-0.13,-0.915,0.122,0.305,247.543
104843,133834,7679,0.027,-0.968,-0.136,-2.5,-0.305,-0.183,247.549
104862,133873,8677,0.027,-0.968,-0.136,-2.5,-0.305,-0.183,247.552
104862,133851,7663,0.023,-0.954,-0.16,-1.037,-0.122,-0.122,247.559
104885,133873,8677,0.023,-0.954,-0.16,-1.037,-0.122,-0.122,247.562
104885,133881,7677,0.025,-0.966,-0.14,0.61,0.366,0.366,247.569
104973,134129,8677,0.025,-0.966,-0.14,0.61,0.366,0.366,247.572
104973,133961,7670,0.02,-0.952,-0.127,1.951,0.793,0.549,247.578
105010,134129,8677,0.02,-0.952,-0.127,1.951,0.793,0.549,247.582
105010,133981,7681,0.022,-0.947,-0.114,2.134,1.22,0.671,247.588
105008,134129,8677,0.022,-0.947,-0.114,2.134,1.22,0.671,247.592
105008,134014,7682,0.021,-0.951,-0.114,1.463,0.915,0.549,247.598
104992,134129,8677,0.021,-0.951,-0.114,1.463,0.915,0.549,247.602
104992,133976,7684,0.023,-0.946,-0.12,0.915,0.488,0.427,247.608
104959,134129,8677,0.023,-0.946,-0.12,0.915,0.488,0.427,247.612
104959,133937,7686,0.023,-0.95,-0.117,0.427,0.122,0.488,247.618
104972,134129,8677,0.024,-0.947,-0.118,0.427,0.122,0.488,247.622
104972,133935,7678,0.02,-0.953,-0.122,-0.793,0.122,0.61,247.628
104992,134129,8677,0.021,-0.953,-0.127,-0.793,0.122,0.61,247.632
104992,133978,7690,0.023,-0.955,-0.128,-1.402,0.366,0.732,247.638
105016,134129,8677,0.021,-0.97,-0.125,-1.402,0.366,0.732,247.642
105016,133998,7692,0.015,-0.977,-0.115,-0.671,0.549,0.793,247.648
105065,134129,8677,0.015,-0.97,-0.119,-0.671,0.549,0.793,247.652
105065,134018,7684,0.015,-0.952,-0.133,-0.244,0.488,0.793,247.658
105078,134129,8677,0.021,-0.95,-0.139,-0.244,0.488,0.793,247.661
105078,134065,7692,0.024,-0.961,-0.129,0.061,0.305,0.488,247.668
105083,134129,8677,0.021,-0.968,-0.123,0.061,0.305,0.488,247.671
105083,134045,7686,0.012,-0.961,-0.132,0.671,0.671,0.427,247.677
105033,134129,8677,0.013,-0.951,-0.141,0.671,0.671,0.427,247.681
105033,134014,7698,0.023,-0.945,-0.135,0.793,0.854,0.488,247.687
105023,134129,8677,0.026,-0.943,-0.124,0.793,0.854,0.488,247.691
105023,133973,7677,0.023,-0.946,-0.114,1.341,0.671,0.488,247.697
105009,134129,8677,0.018,-0.936,-0.115,1.341,0.671,0.488,247.701
105009,133976,7685,0.019,-0.934,-0.11,0.366,0.549,0.732,247.707
105079,134129,8677,0.017,-0.939,-0.101,0.366,0.549,0.732,247.711
105079,134033,7694,0.017,-0.941,-0.099,-1.524,-0.061,0.732,247.717
105099,134129,8677,0.018,-0.951,-0.113,-1.524,-0.061,0.732,247.721
105099,134103,7709,0.021,-0.972,-0.119,-3.232,-0.427,0.488,247.727
105132,134129,8677,0.017,-0.987,-0.114,-3.232,-0.427,0.488,247.731
105132,134088,7707,0.016,-0.982,-0.125,-3.293,-0.549,0.183,247.737
105111,134129,8677,0.021,-0.969,-0.144,-3.293,-0.549,0.183,247.741
105111,134080,7697,0.024,-0.963,-0.154,-2.134,-0.549,0.244,247.747
105078,134129,8677,0.022,-0.977,-0.151,-2.134,-0.549,0.244,247.751
105078,134034,7694,0.023,-0.986,-0.146,0.366,0,0.305,247.757
105047,134129,8677,0.018,-0.969,-0.146,0.366,0,0.305,247.76
105047,134013,7693,0.02,-0.948,-0.141,2.012,0.976,0.305,247.767
105061,134129,8677,0.018,-0.94,-0.124,2.012,0.976,0.305,247.77
105061,134028,7696,0.017,-0.943,-0.118,2.195,1.22,0.183,247.777
105033,134129,8677,0.011,-0.942,-0.121,2.195,1.22,0.183,247.78
105033,134030,7697,0.019,-0.941,-0.119,1.037,1.037,-0.122,247.786
105085,134129,8677,0.025,-0.945,-0.123,1.037,1.037,-0.122,247.79
105085,134047,7690,0.023,-0.948,-0.114,0.427,0.549,-0.183,247.796
105072,134129,8677,0.021,-0.944,-0.105,0.427,0.549,-0.183,247.8
105072,134039,7703,0.022,-0.935,-0.115,-0.122,0.183,0,247.806
105036,134129,8677,0.023,-0.938,-0.126,-0.122,0.183,0,247.81
105036,134050,7696,0.024,-0.955,-0.13,-1.585,-0.183,0.305,247.816
105015,134129,8677,0.026,-0.969,-0.136,-1.585,-0.183,0.305,247.82
105015,133972,7691,0.024,-0.972,-0.13,-1.463,-0.244,0.671,247.826
104971,134129,8677,0.019,-0.969,-0.128,-1.463,-0.244,0.671,247.83
104971,133951,7684,0.019,-0.961,-0.123,-0.122,0.061,1.037,247.836
104946,134129,8677,0.021,-0.963,-0.123,-0.122,0.061,1.037,247.84
104946,133944,7684,0.02,-0.972,-0.114,0.488,0.427,0.915,247.846
104977,134129,8677,0.017,-0.97,-0.112,0.488,0.427,0.915,247.85
104977,133934,7699,0.018,-0.959,-0.118,-0.061,0.427,0.61,247.856
105024,134129,8677,0.018,-0.952,-0.123,-0.061,0.427,0.61,247.859
105024,133962,7683,0.02,-0.963,-0.122,-0.61,0.305,0.427,247.866
105054,134129,8677,0.018,-0.973,-0.121,-0.61,0.305,0.427,247.869
105054,134000,7704,0.016,-0.965,-0.133,-0.305,0.305,0.244,247.875
105021,134129,8677,0.017,-0.953,-0.142,-0.305,0.305,0.244,247.879
105021,134037,7678,0.021,-0.948,-0.144,0.183,0.427,0.305,247.885
105046,134129,8677,0.019,-0.951,-0.14,0.183,0.427,0.305,247.889
105046,133999,7690,0.021,-0.951,-0.129,1.22,0.366,0.366,247.895
105041,134129,8677,0.02,-0.945,-0.128,1.22,0.366,0.366,247.899
105041,133992,7704,0.019,-0.946,-0.124,1.463,0.61,0.549,247.905
105022,134129,8677,0.021,-0.938,-0.116,1.463,0.61,0.549,247.909
105022,133998,7685,0.019,-0.936,-0.11,0.671,0.366,0.61,247.915
105026,134129,8677,0.019,-0.948,-0.115,0.671,0.366,0.61,247.919
105026,133994,7697,0.018,-0.956,-0.119,-0.427,0.122,0.488,247.925
105031,134129,8677,0.015,-0.963,-0.117,-0.427,0.122,0.488,247.929
105031,134006,7701,0.014,-0.969,-0.113,-0.976,0,0.183,247.935
105065,134129,8677,0.017,-0.966,-0.121,-0.976,0,0.183,247.939
105065,133993,7688,0.018,-0.969,-0.132,-1.159,-0.244,-0.061,247.945
105047,134129,8677,0.017,-0.977,-0.132,-1.159,-0.244,-0.061,247.949
105047,133978,7693,0.016,-0.974,-0.13,-0.61,-0.183,-0.244,247.955
105061,134129,8677,0.015,-0.964,-0.123,-0.61,-0.183,-0.244,247.958
105061,134019,7697,0.018,-0.953,-0.121,-0.061,-0.061,-0.305,247.965
105074,134129,8677,0.022,-0.956,-0.127,-0.061,-0.061,-0.305,247.968
105074,134030,7701,0.022,-0.958,-0.126,0.122,0.183,-0.427,247.975
105096,134129,8677,0.024,-0.954,-0.129,0.122,0.183,-0.427,247.978
105096,134050,7710,0.026,-0.946,-0.124,0.122,0.427,-0.366,247.984
105093,134129,8677,0.033,-0.938,-0.122,0.122,0.427,-0.366,247.988
105093,133995,7715,0.032,-0.937,-0.12,0.427,0.61,0.061,247.994
105065,134129,8677,0.035,-0.943,-0.12,0.427,0.61,0.061,247.998
105065,133994,7705,0.034,-0.949,-0.131,0,0.61,0.61,248.004
105004,134129,8677,0.036,-0.951,-0.138,0,0.61,0.61,248.008
105004,133950,7686,0.036,-0.955,-0.126,-0.244,0.549,1.402,248.014
104969,134129,8677,0.026,-0.958,-0.105,-0.244,0.549,1.402,248.018
104969,133906,7702,0.019,-0.95,-0.12,-0.366,0.305,2.134,248.024
104961,134129,8677,0.014,-0.957,-0.146,-0.366,0.305,2.134,248.028
104961,133890,7688,0.014,-0.975,-0.161,-0.854,0.305,1.89,248.034
104941,134129,8677,0.014,-0.991,-0.148,-0.854,0.305,1.89,248.038
104941,133894,7680,0.01,-0.988,-0.133,0.671,0.61,1.22,248.044
104960,134129,8677,0.003,-0.968,-0.127,0.671,0.61,1.22,248.048
104960,133936,7696,0.004,-0.946,-0.137,2.195,1.22,0.793,248.054
105036,134129,8677,0.004,-0.946,-0.137,2.195,1.22,0.793,248.057
105036,133974,7694,0.012,-0.964,-0.124,2.622,1.402,0.183,248.064
105080,134129,8677,0.012,-0.964,-0.124,2.622,1.402,0.183,248.067
105080,134001,7691,0.011,-0.955,-0.115,3.11,1.585,-0.427,248.073
105056,134129,8677,0.011,-0.955,-0.115,3.11,1.585,-0.427,248.077
105056,133995,7704,0.016,-0.935,-0.105,2.988,1.585,-0.61,248.083
105055,134129,8677,0.016,-0.935,-0.105,2.988,1.585,-0.61,248.087
105055,133988,7694,0.021,-0.955,-0.107,1.951,1.159,-0.915,248.093
105042,134129,8677,0.021,-0.955,-0.107,1.951,1.159,-0.915,248.097
105042,133967,7692,0.025,-0.958,-0.105,0.915,0.671,-1.098,248.103
104994,134129,8677,0.025,-0.958,-0.105,0.915,0.671,-1.098,248.107
104994,133964,7710,0.028,-0.949,-0.106,-0.061,0.183,-0.61,248.113
104965,134129,8677,0.028,-0.949,-0.106,-0.061,0.183,-0.61,248.117
104965,133911,7688,0.031,-0.956,-0.123,-1.037,0,-0.244,248.123
104938,134129,8677,0.031,-0.956,-0.123,-1.037,0,-0.244,248.127
104938,133901,7680,0.029,-0.966,-0.13,-1.707,0,0.122,248.133
104947,134129,8677,0.029,-0.966,-0.13,-1.707,0,0.122,248.137
104947,133916,7691,0.025,-0.954,-0.136,-1.463,0.061,0.793,248.143
104932,134129,8677,0.025,-0.954,-0.136,-1.463,0.061,0.793,248.147
104932,133893,7695,0.023,-0.956,-0.153,-0.671,0.488,1.037,248.153
104953,134129,8677,0.023,-0.956,-0.153,-0.671,0.488,1.037,248.156
104953,133924,7694,0.027,-0.948,-0.147,0.732,0.793,1.28,248.163
104982,134129,8677,0.027,-0.948,-0.147,0.732,0.793,1.28,248.166
104982,133912,7709,0.016,-0.935,-0.106,1.768,1.159,1.768,248.173
105013,134129,8677,0.016,-0.935,-0.106,1.768,1.159,1.768,248.176
105013,133946,7691,0.016,-0.945,-0.122,0.427,1.037,1.829,248.182
105015,134129,8677,0.016,-0.945,-0.122,0.427,1.037,1.829,248.186
105015,133962,7698,0.019,-0.971,-0.131,-0.671,0.61,1.524,248.192
105042,134129,8677,0.019,-0.971,-0.131,-0.671,0.61,1.524,248.196
105042,133951,7701,0.017,-0.973,-0.133,-0.671,0.61,1.524,248.202
105009,134129,8677,0.015,-0.965,-0.138,0.61,0.488,1.524,248.206
105009,133955,7704,0.011,-0.961,-0.137,0.61,0.488,1.524,248.212
104988,134129,8677,0.014,-0.962,-0.143,2.256,0.732,1.341,248.216
104988,133902,7701,0.017,-0.969,-0.143,2.256,0.732,1.341,248.222
104989,134129,8677,0.012,-0.973,-0.135,3.476,1.402,0.854,248.226
104989,133915,7712,0.008,-0.968,-0.127,3.476,1.402,0.854,248.232
104961,134129,8677,0.006,-0.963,-0.114,4.39,1.829,0.549,248.236
104961,133917,7704,0.007,-0.969,-0.109,4.39,1.829,0.549,248.242
104984,134129,8677,0.007,-0.969,-0.103,3.963,2.195,-0.122,248.246
104984,133917,7701,0.009,-0.964,-0.103,3.963,2.195,-0.122,248.252
105037,134129,8677,0.012,-0.96,-0.097,3.11,1.951,-1.037,248.255
105037,133947,7706,0.013,-0.954,-0.093,3.11,1.951,-1.037,248.262
105048,134129,8677,0.019,-0.947,-0.09,2.5,1.098,-1.402,248.265
105048,133970,7704,0.018,-0.942,-0.095,2.5,1.098,-1.402,248.271
105049,134129,8677,0.02,-0.938,-0.093,1.22,0.244,-1.646,248.275
105049,133944,7709,0.02,-0.945,-0.09,1.22,0.244,-1.646,248.281
105051,134129,8677,0.02,-0.942,-0.101,-1.22,-0.549,-1.829,248.285
105051,133967,7718,0.026,-0.943,-0.114,-1.22,-0.549,-1.829,248.291
105034,134129,8677,0.023,-0.958,-0.117,-3.354,-1.037,-1.768,248.295
105034,133950,7696,0.018,-0.968,-0.124,-3.354,-1.037,-1.768,248.301
104973,134129,8677,0.015,-0.977,-0.122,-3.171,-0.915,-1.707,248.305
104973,133915,7709,0.015,-0.973,-0.122,-3.171,-0.915,-1.707,248.311
104967,133873,8677,0.02,-0.962,-0.124,-2.195,-1.098,-1.829,248.315
104967,133874,7691,0.021,-0.959,-0.123,-2.195,-1.098,-1.829,248.321
104937,133873,8677,0.022,-0.961,-0.121,-1.646,-1.22,-1.951,248.325
104937,133870,7705,0.022,-0.959,-0.11,-1.646,-1.22,-1.951,248.331
104971,134129,8677,0.024,-0.953,-0.095,-1.829,-1.159,-1.951,248.335
104971,133936,7701,0.022,-0.946,-0.097,-1.829,-1.159,-1.951,248.341
105007,134129,8677,0.024,-0.945,-0.112,-3.78,-1.28,-1.829,248.345
105007,133961,7691,0.026,-0.959,-0.124,-3.78,-1.28,-1.829,248.351
105068,134129,8677,0.029,-0.97,-0.124,-4.878,-1.707,-1.89,248.354
105068,134006,7711,0.035,-0.971,-0.141,-4.878,-1.707,-1.89,248.361
105122,134129,8677,0.038,-0.958,-0.163,-2.988,-1.463,-1.463,248.364
105122,134051,7731,0.037,-0.953,-0.17,-2.988,-1.463,-1.463,248.371
105106,134129,8677,0.038,-0.941,-0.147,-0.61,-0.366,-0.732,248.374
105106,134043,7717,0.045,-0.858,-0.09,-0.61,-0.366,-0.732,248.38
105049,134129,8677,0.041,-0.922,-0.208,-7.805,1.402,-0.671,248.384
105049,134012,7714,0.023,-1.159,-0.202,-7.805,1.402,-0.671,248.39
104992,134129,8677,-0.014,-1.142,-0.051,-25.854,4.878,-4.695,248.394
104992,133940,7708,-0.004,-0.995,-0.034,-25.854,4.878,-4.695,248.4
104939,133873,8677,0.036,-0.97,-0.053,-27.805,2.073,-3.049,248.404
104939,133874,7694,0.031,-0.986,-0.071,-27.805,2.073,-3.049,248.41
104859,133873,8677,0.012,-0.971,-0.103,-19.268,-1.951,-5.732,248.414
104859,133845,7690,0.018,-0.975,-0.111,-19.268,-1.951,-5.732,248.42
104846,133873,8677,0.028,-0.993,-0.098,-23.841,-2.134,-7.683,248.424
104846,133794,7687,0.031,-0.985,-0.092,-23.841,-2.134,-7.683,248.43
104841,133873,8677,0.028,-0.954,-0.087,-20.854,-4.39,-7.683,248.434
104841,133791,7700,0.018,-0.923,-0.08,-20.854,-4.39,-7.683,248.44
104849,133873,8677,0.013,-0.903,-0.07,-17.805,-4.695,-7.378,248.444
104849,133836,7686,0.015,-0.89,-0.065,-17.805,-4.695,-7.378,248.45
104864,133873,8677,0.018,-0.897,-0.098,-21.951,-6.89,-7.622,248.453
104864,133828,7698,0.02,-0.92,-0.15,-21.951,-6.89,-7.622,248.46
104884,133873,8677,0.021,-0.948,-0.172,-23.72,-8.049,-8.11,248.463
104884,133848,7680,0.019,-0.965,-0.185,-23.72,-8.049,-8.11,248.47
104898,133873,8677,0.016,-0.96,-0.201,-16.28,-7.866,-6.829,248.473
104898,133831,7684,0.022,-0.945,-0.211,-16.28,-7.866,-6.829,248.479
104892,133873,8677,0.024,-0.914,-0.222,-6.22,-7.012,-5.427,248.483
104892,133857,7681,0.019,-0.903,-0.205,-6.22,-7.012,-5.427,248.489
104928,133873,8677,0.012,-0.902,-0.188,-0.183,-5.915,-3.841,248.493
104928,133879,7675,0.011,-0.906,-0.177,-0.183,-5.915,-3.841,248.499
104973,134129,8677,0.016,-0.902,-0.132,5,-6.524,-2.012,248.503
104973,133935,7704,0.03,-0.878,-0.13,5,-6.524,-2.012,248.509
105056,134129,8677,0.05,-0.876,-0.164,17.683,-8.049,0.61,248.513
105056,134023,7707,0.066,-0.867,-0.199,17.683,-8.049,0.61,248.519
105151,134129,8677,0.081,-0.848,-0.219,30.061,-8.11,3.476,248.523
105151,134108,7715,0.086,-0.843,-0.234,30.061,-8.11,3.476,248.529
105228,134385,8677,0.072,-0.851,-0.259,28.354,-5.061,6.707,248.533
105228,134180,7722,0.067,-0.866,-0.287,28.354,-5.061,6.707,248.539
105297,134385,8677,0.063,-0.91,-0.291,12.5,0.183,7.256,248.543
105297,134197,7746,0.071,-0.978,-0.284,12.5,0.183,7.256,248.549
105303,134385,8677,0.073,-1.034,-0.276,2.744,4.512,7.378,248.552
105303,134215,7741,0.068,-1.07,-0.261,2.744,4.512,7.378,248.559
105306,134385,8677,0.055,-1.088,-0.251,5.061,8.293,6.707,248.562
105306,134203,7724,0.053,-1.083,-0.227,5.061,8.293,6.707,248.569
105271,134385,8677,0.058,-1.068,-0.193,12.195,10.671,6.037,248.572
105271,134174,7738,0.063,-1.052,-0.17,12.195,10.671,6.037,248.578
105263,134385,8677,0.056,-1.03,-0.159,20.488,11.402,5.732,248.582
105263,134168,7723,0.053,-1.013,-0.151,20.488,11.402,5.732,248.588
105187,134129,8677,0.046,-0.992,-0.136,24.634,12.195,4.573,248.592
105187,134109,7721,0.04,-0.967,-0.126,24.634,12.195,4.573,248.598
105156,134129,8677,0.039,-0.94,-0.129,24.085,12.378,4.085,248.602
105156,134090,7709,0.039,-0.92,-0.137,24.085,12.378,4.085,248.608
105111,134129,8677,0.037,-0.919,-0.139,22.378,12.439,3.415,248.612
105111,134042,7714,0.033,-0.921,-0.125,22.378,12.439,3.415,248.618
105084,134129,8677,0.025,-0.917,-0.103,21.402,12.683,3.049,248.622
105084,134035,7704,0.02,-0.91,-0.081,21.402,12.683,3.049,248.628
105039,134129,8677,0.018,-0.899,-0.072,21.89,11.829,4.146,248.632
105039,133984,7699,0.02,-0.884,-0.066,21.89,11.829,4.146,248.638
104990,134129,8677,0.017,-0.878,-0.055,21.037,11.037,5.305,248.642
104990,133937,7688,0.009,-0.88,-0.044,21.037,11.037,5.305,248.648
104958,134129,8677,0.009,-0.88,-0.044,21.037,11.037,5.305,248.651
104958,133909,7681,-0.006,-0.93,-0.033,15.671,9.756,6.159,248.658
105206,134385,8677,-0.006,-0.93,-0.033,15.671,9.756,6.159,248.661
105206,134196,7744,-0.009,-0.968,-0.064,10,7.805,6.585,248.668
105450,134385,8677,-0.009,-0.968,-0.064,10,7.805,6.585,248.671
105450,134394,7731,-0.013,-1.01,-0.057,6.585,6.402,6.22,248.677
105559,134641,8677,-0.013,-1.01,-0.057,6.585,6.402,6.22,248.681
105559,134590,7763,-0.017,-1.019,-0.052,5.061,4.939,5.427,248.687
105712,134897,8677,-0.017,-1.019,-0.052,5.061,4.939,5.427,248.691
105712,134735,7780,-0.005,-1.023,-0.064,3.232,3.537,4.024,248.697
105640,134897,8677,-0.005,-1.023,-0.064,3.232,3.537,4.024,248.701
105640,134688,7746,-0.011,-1.009,-0.057,0.488,2.195,1.951,248.707
105576,134897,8677,-0.011,-1.009,-0.057,0.488,2.195,1.951,248.711
105576,134678,7750,0,-0.972,-0.057,-0.732,0.427,0.488,248.717
105498,134641,8677,0,-0.972,-0.057,-0.732,0.427,0.488,248.721
105498,134647,7738,0.006,-0.945,-0.097,-1.159,-1.585,-0.732,248.727
105380,134641,8677,0.006,-0.945,-0.097,-1.159,-1.585,-0.732,248.731
105380,134584,7708,0.018,-0.936,-0.089,-2.805,-2.866,-2.134,248.737
105290,134641,8677,0.018,-0.936,-0.089,-2.805,-2.866,-2.134,248.741
105290,134522,7682,0.008,-0.937,-0.073,-4.268,-3.659,-3.232,248.747
105163,134385,8677,0.008,-0.937,-0.073,-4.268,-3.659,-3.232,248.75
105163,134398,7693,0.025,-0.875,-0.101,-4.329,-4.756,-3.598,248.757
105062,134385,8677,0.025,-0.875,-0.101,-4.329,-4.756,-3.598,248.76
105062,134319,7672,0.047,-0.923,-0.15,-2.866,-6.402,-2.683,248.767
104910,134385,8677,0.047,-0.923,-0.15,-2.866,-6.402,-2.683,248.77
104910,134202,7647,0.037,-0.961,-0.145,-6.159,-5.427,-2.805,248.776
104677,134129,8677,0.037,-0.961,-0.145,-6.159,-5.427,-2.805,248.78
104677,133967,7630,0.039,-0.991,-0.157,-9.634,-3.537,-2.073,248.786
104421,133873,8677,0.039,-0.991,-0.157,-9.634,-3.537,-2.073,248.79
104421,133691,7601,0.04,-1.003,-0.156,-6.463,-2.744,-1.098,248.796
104127,133617,8677,0.049,-1.004,-0.15,-6.463,-2.744,-1.098,248.8
104127,133382,7576,0.048,-0.993,-0.149,-2.622,-1.707,-0.488,248.806
103950,133361,8677,0.045,-0.99,-0.134,-2.622,-1.707,-0.488,248.81
103950,133162,7569,0.036,-0.982,-0.123,-0.488,-0.427,0.305,248.816
103827,133105,8677,0.031,-0.968,-0.124,-0.488,-0.427,0.305,248.82
103827,133013,7564,0.036,-0.958,-0.121,1.159,0.488,0.915,248.826
103836,133105,8677,0.036,-0.948,-0.122,1.159,0.488,0.915,248.83
103836,132982,7558,0.036,-0.951,-0.115,2.134,0.549,1.402,248.836
103895,133105,8677,0.03,-0.955,-0.11,2.134,0.549,1.402,248.84
103895,133075,7568,0.026,-0.951,-0.112,2.256,0.976,2.012,248.846
104058,133361,8677,0.025,-0.937,-0.112,2.256,0.976,2.012,248.849
104058,133215,7592,0.025,-0.928,-0.116,1.524,1.22,2.256,248.856
104255,133617,8677,0.018,-0.941,-0.112,1.524,1.22,2.256,248.859
104255,133404,7604,0.012,-0.959,-0.1,0.488,1.22,1.89,248.866
104500,133617,8677,0.009,-0.96,-0.093,0.488,1.22,1.89,248.869
104500,133621,7643,0.011,-0.95,-0.097,-0.366,1.159,1.159,248.875
104680,133873,8677,0.015,-0.944,-0.104,-0.366,1.159,1.159,248.879
104680,133850,7655,0.016,-0.948,-0.101,-0.854,0.915,0.488,248.885
104940,134129,8677,0.018,-0.96,-0.092,-0.854,0.915,0.488,248.889
104940,134056,7672,0.02,-0.963,-0.09,-0.732,0.732,0.061,248.895
105134,134385,8677,0.022,-0.958,-0.086,-0.732,0.732,0.061,248.899
105134,134245,7697,0.021,-0.955,-0.094,-1.89,0.549,-0.122,248.905
105264,134385,8677,0.019,-0.962,-0.115,-1.89,0.549,-0.122,248.909
105264,134357,7713,0.022,-0.978,-0.115,-2.5,0.183,-0.183,248.915
105406,134641,8677,0.029,-0.985,-0.109,-2.5,0.183,-0.183,248.919
105406,134525,7732,0.028,-0.974,-0.111,-1.28,-0.427,0,248.925
105482,134641,8677,0.026,-0.96,-0.12,-1.28,-0.427,0,248.929
105482,134577,7733,0.026,-0.951,-0.128,-0.549,-0.122,0.549,248.935
105519,134641,8677,0.028,-0.952,-0.126,-0.549,-0.122,0.549,248.939
105519,134623,7750,0.028,-0.953,-0.119,0.183,0.122,0.854,248.945
105563,134897,8677,0.028,-0.952,-0.119,0.183,0.122,0.854,248.948
105563,134676,7734,0.025,-0.953,-0.125,-0.061,0.183,1.22,248.955
105585,134897,8677,0.02,-0.949,-0.124,-0.061,0.183,1.22,248.958
105585,134675,7744,0.022,-0.945,-0.119,0,0.732,1.463,248.965
105632,134897,8677,0.022,-0.945,-0.113,0,0.732,1.463,248.968
105632,134714,7742,0.021,-0.952,-0.115,0.732,0.854,1.585,248.974
105701,134897,8677,0.017,-0.958,-0.12,0.732,0.854,1.585,248.978
105701,134797,7750,0.02,-0.964,-0.119,0.366,0.915,1.341,248.984
105768,134897,8677,0.021,-0.969,-0.103,0.366,0.915,1.341,248.988
105768,134864,7767,0.017,-0.966,-0.097,0.183,0.854,1.037,248.994
105763,134897,8677,0.017,-0.962,-0.111,0.183,0.854,1.037,248.998
105763,134856,7780,0.023,-0.966,-0.128,-0.976,0.732,0.427,249.004
105775,134897,8677,0.025,-0.974,-0.12,-0.976,0.732,0.427,249.008
105775,134833,7760,0.026,-0.98,-0.112,-0.122,0.915,-0.122,249.014
105699,134897,8677,0.028,-0.97,-0.104,-0.122,0.915,-0.122,249.018
105699,134767,7758,0.022,-0.957,-0.094,1.037,1.159,-0.183,249.024
105577,134641,8677,0.02,-0.946,-0.095,1.037,1.159,-0.183,249.028
105577,134618,7757,0.024,-0.951,-0.104,-0.122,1.22,-0.183,249.034
105409,134641,8677,0.025,-0.95,-0.11,-0.122,1.22,-0.183,249.038
105409,134478,7723,0.028,-0.951,-0.11,-0.915,0.671,-0.427,249.044
105351,134641,8677,0.03,-0.95,-0.113,-0.915,0.671,-0.427,249.047
105351,134433,7725,0.026,-0.948,-0.105,-0.793,0.366,-0.061,249.054
105241,134385,8677,0.025,-0.944,-0.108,-0.793,0.366,-0.061,249.057
105241,134290,7706,0.023,-0.938,-0.116,-0.793,0.366,0.488,249.064
105195,134385,8677,0.023,-0.95,-0.115,-0.793,0.366,0.488,249.067
105195,134267,7704,0.022,-0.969,-0.106,-0.976,0.183,0.671,249.073
105193,134385,8677,0.016,-0.976,-0.107,-0.976,0.183,0.671,249.077
105193,134248,7711,0.017,-0.969,-0.112,-1.402,0.061,0.671,249.083
105229,134385,8677,0.019,-0.965,-0.112,-1.402,0.061,0.671,249.087
105229,134299,7728,0.016,-0.975,-0.113,-1.951,0.061,0.244,249.093
105300,134385,8677,0.019,-0.977,-0.12,-1.951,0.061,0.244,249.097
105300,134312,7723,0.022,-0.974,-0.125,-1.463,0.061,-0.061,249.103
105298,134385,8677,0.023,-0.967,-0.12,-1.463,0.061,-0.061,249.107
105298,134359,7740,0.026,-0.961,-0.12,-0.061,-0.061,-0.061,249.113
105346,134385,8677,0.026,-0.955,-0.119,-0.061,-0.061,-0.061,249.117
105346,134384,7723,0.024,-0.953,-0.116,0.915,0.122,0,249.123
105349,134641,8677,0.025,-0.949,-0.112,0.915,0.122,0,249.127
105349,134410,7745,0.022,-0.948,-0.111,0.854,0.427,-0.061,249.133
105397,134641,8677,0.023,-0.955,-0.119,0.854,0.427,-0.061,249.137
105397,134432,7738,0.023,-0.955,-0.12,0.122,0.671,-0.427,249.143
105426,134641,8677,0.028,-0.952,-0.107,0.122,0.671,-0.427,249.146
105426,134511,7742,0.025,-0.953,-0.092,-0.244,0.61,-0.549,249.153
105492,134641,8677,0.022,-0.948,-0.094,-0.244,0.61,-0.549,249.156
105492,134520,7741,0.018,-0.947,-0.11,-1.098,0.427,-0.61,249.163
105468,134641,8677,0.02,-0.953,-0.116,-1.098,0.427,-0.61,249.166
105468,134500,7754,0.024,-0.966,-0.11,-1.951,0.427,-0.732,249.172
105409,134641,8677,0.029,-0.966,-0.106,-1.951,0.427,-0.732,249.176
105409,134451,7740,0.026,-0.963,-0.12,-1.646,0,-0.671,249.182
105323,134641,8677,0.022,-0.961,-0.136,-1.646,0,-0.671,249.186
105323,134406,7727,0.026,-0.965,-0.131,-1.037,0,-0.305,249.192
105271,134385,8677,0.025,-0.968,-0.122,-1.037,0,-0.305,249.196
105271,134343,7726,0.026,-0.964,-0.126,1.037,0.244,-0.061,249.202
105200,134385,8677,0.029,-0.961,-0.128,1.037,0.244,-0.061,249.206
105200,134264,7715,0.028,-0.951,-0.113,2.378,0.671,0.122,249.212
105131,134385,8677,0.028,-0.938,-0.097,2.378,0.671,0.122,249.216
105131,134221,7714,0.026,-0.938,-0.087,2.317,0.793,0.671,249.222
105134,134385,8677,0.024,-0.941,-0.098,2.317,0.793,0.671,249.226
105134,134217,7701,0.022,-0.944,-0.111,0.366,0.488,0.976,249.232
105138,134385,8677,0.022,-0.944,-0.111,0.366,0.488,0.976,249.236
105138,134226,7701,0.026,-0.962,-0.095,-0.671,0.122,0.976,249.242
105135,134385,8677,0.026,-0.962,-0.095,-0.671,0.122,0.976,249.245
105135,134223,7714,0.018,-0.959,-0.117,-1.402,-0.183,0.915,249.252
105120,134385,8677,0.018,-0.959,-0.117,-1.402,-0.183,0.915,249.255
