100823,139809,19647,-0.015,-0.959,-0.105,-0.122,0.61,0.366,596.778
100823,140026,7670,-0.016,-0.96,-0.106,-0.122,0.549,0.244,596.784
100814,140065,19647,-0.016,-0.96,-0.106,-0.122,0.549,0.244,596.788
100814,140034,7669,-0.02,-0.962,-0.105,0.061,0.488,0.305,596.794
100841,139809,19647,-0.02,-0.962,-0.105,0.061,0.488,0.305,596.798
100841,140028,7678,-0.016,-0.958,-0.106,0.061,0.488,0.366,596.804
100812,140065,19647,-0.016,-0.958,-0.106,0.061,0.488,0.366,596.808
100812,140061,7676,-0.017,-0.959,-0.11,0.061,0.488,0.305,596.814
100830,140065,19647,-0.017,-0.959,-0.11,0.061,0.488,0.305,596.818
100830,140035,7661,-0.016,-0.956,-0.109,0.122,0.488,0.305,596.824
100838,140065,19647,-0.016,-0.956,-0.109,0.122,0.488,0.305,596.828
100838,140050,7679,-0.015,-0.958,-0.104,0.061,0.427,0.183,596.834
100833,139809,19647,-0.015,-0.958,-0.104,0.061,0.427,0.183,596.838
100833,140030,7671,-0.01,-0.956,-0.102,-0.122,0.549,0.061,596.844
100833,139809,19647,-0.01,-0.956,-0.102,-0.122,0.549,0.061,596.847
100833,140024,7677,-0.015,-0.959,-0.104,-0.244,0.732,0.061,596.854
100823,140065,19647,-0.015,-0.959,-0.104,-0.244,0.732,0.061,596.857
100823,140037,7661,-0.016,-0.964,-0.108,-0.183,0.61,0.061,596.864
100821,139809,19647,-0.016,-0.964,-0.108,-0.183,0.61,0.061,596.867
100821,140028,7675,-0.016,-0.963,-0.107,-0.183,0.61,0.061,596.873
100832,139809,19647,-0.018,-0.962,-0.104,-0.061,0.366,0.183,596.877
100832,140019,7660,-0.017,-0.965,-0.102,-0.061,0.366,0.183,596.883
100819,140065,19647,-0.015,-0.965,-0.102,0.061,0.244,0.244,596.887
100819,140032,7675,-0.019,-0.964,-0.101,0.061,0.244,0.244,596.893
100829,139809,19647,-0.019,-0.961,-0.105,0.122,0.183,0.488,596.897
100829,140026,7668,-0.019,-0.962,-0.105,0.122,0.183,0.488,596.903
100831,139809,19647,-0.019,-0.961,-0.1,-0.122,0.183,0.488,596.907
100831,140013,7668,-0.019,-0.959,-0.099,-0.122,0.183,0.488,596.913
100836,140065,19647,-0.017,-0.959,-0.103,-0.183,0.183,0.366,596.917
100836,140040,7662,-0.018,-0.96,-0.102,-0.183,0.183,0.366,596.923
100840,139809,19647,-0.017,-0.959,-0.107,-0.061,0.244,0.366,596.927
100840,140031,7665,-0.015,-0.96,-0.102,-0.061,0.244,0.366,596.933
100827,140065,19647,-0.014,-0.955,-0.103,0.061,0.366,0.366,596.937
100827,140047,7688,-0.013,-0.958,-0.103,0.061,0.366,0.366,596.943
100841,139809,19647,-0.013,-0.96,-0.106,0.061,0.549,0.244,596.946
100841,140023,7663,-0.013,-0.961,-0.104,0.061,0.549,0.244,596.953
100841,139809,19647,-0.011,-0.959,-0.102,0.061,0.671,0.244,596.956
100841,140029,7652,-0.011,-0.958,-0.106,0.061,0.671,0.244,596.963
100836,140065,19647,-0.013,-0.956,-0.102,-0.183,0.732,0.366,596.966
100836,140045,7661,-0.011,-0.959,-0.103,-0.183,0.732,0.366,596.972
100822,140065,19647,-0.014,-0.957,-0.104,-0.427,0.732,0.366,596.976
100822,140044,7677,-0.013,-0.961,-0.104,-0.427,0.732,0.366,596.982
100828,139809,19647,-0.014,-0.96,-0.107,-0.61,0.671,0.488,596.986
100828,140031,7661,-0.014,-0.959,-0.108,-0.61,0.671,0.488,596.992
100832,139809,19647,-0.018,-0.961,-0.108,-0.61,0.488,0.488,596.996
100832,140014,7676,-0.017,-0.96,-0.106,-0.61,0.488,0.488,597.002
100843,139809,19647,-0.019,-0.957,-0.109,-0.427,0.427,0.488,597.006
100843,140030,7668,-0.018,-0.959,-0.107,-0.427,0.427,0.488,597.012
100816,140065,19647,-0.016,-0.962,-0.106,-0.122,0.366,0.488,597.016
100816,140034,7672,-0.017,-0.964,-0.104,-0.122,0.366,0.488,597.022
100854,140065,19647,-0.018,-0.963,-0.105,0.122,0.305,0.549,597.026
100854,140035,7676,-0.017,-0.96,-0.104,0.122,0.305,0.549,597.032
100832,139809,19647,-0.019,-0.962,-0.104,0.122,0.366,0.549,597.036
100832,140027,7665,-0.017,-0.959,-0.103,0.122,0.366,0.549,597.042
100852,140065,19647,-0.017,-0.959,-0.104,0.061,0.366,0.61,597.045
100852,140044,7669,-0.018,-0.959,-0.103,0.061,0.366,0.61,597.052
100827,140065,19647,-0.017,-0.958,-0.104,-0.183,0.305,0.671,597.055
100827,140079,7671,-0.017,-0.958,-0.104,-0.183,0.305,0.671,597.062
100838,139809,19647,-0.015,-0.958,-0.102,-0.305,0.427,0.61,597.065
100838,140020,7675,-0.016,-0.956,-0.102,-0.305,0.427,0.61,597.071
100838,140065,19647,-0.015,-0.959,-0.106,-0.488,0.61,0.61,597.075
100838,140044,7667,-0.012,-0.959,-0.102,-0.488,0.61,0.61,597.081
100850,140065,19647,-0.013,-0.961,-0.104,-0.427,0.732,0.488,597.085
100850,140051,7677,-0.016,-0.958,-0.1,-0.427,0.732,0.488,597.091
100856,140065,19647,-0.015,-0.959,-0.101,-0.305,0.793,0.427,597.095
100856,140050,7659,-0.013,-0.96,-0.105,-0.305,0.793,0.427,597.101
100852,139809,19647,-0.015,-0.957,-0.105,-0.305,0.854,0.366,597.105
100852,140026,7675,-0.015,-0.961,-0.106,-0.305,0.854,0.366,597.111
100836,140065,19647,-0.014,-0.963,-0.106,-0.183,0.732,0.427,597.115
100836,140052,7674,-0.013,-0.961,-0.106,-0.183,0.732,0.427,597.121
100863,140065,19647,-0.016,-0.959,-0.106,-0.305,0.61,0.488,597.125
100863,140047,7666,-0.016,-0.96,-0.107,-0.305,0.61,0.488,597.131
100843,140065,19647,-0.015,-0.959,-0.108,-0.427,0.549,0.549,597.135
100843,140043,7671,-0.019,-0.96,-0.105,-0.427,0.549,0.549,597.141
100846,139809,19647,-0.019,-0.959,-0.106,-0.427,0.549,0.61,597.144
100846,140019,7657,-0.02,-0.959,-0.109,-0.427,0.549,0.61,597.151
100845,139809,19647,-0.019,-0.958,-0.108,-0.183,0.366,0.549,597.154
100845,140029,7669,-0.019,-0.958,-0.107,-0.183,0.366,0.549,597.161
100823,139809,19647,-0.017,-0.957,-0.105,0.183,0.244,0.488,597.164
100823,140012,7684,-0.017,-0.96,-0.103,0.183,0.244,0.488,597.17
100828,139809,19647,-0.018,-0.958,-0.107,0.366,0.305,0.366,597.174
100828,140015,7677,-0.016,-0.958,-0.105,0.366,0.305,0.366,597.18
100835,139809,19647,-0.013,-0.958,-0.106,0.305,0.366,0.305,597.184
100835,140014,7659,-0.017,-0.959,-0.104,0.305,0.366,0.305,597.19
100820,139809,19647,-0.018,-0.96,-0.104,0.061,0.305,0.244,597.194
100820,139996,7687,-0.015,-0.96,-0.102,0.061,0.305,0.244,597.2
100826,140065,19647,-0.015,-0.959,-0.102,-0.061,0.244,0.244,597.204
100826,140033,7657,-0.018,-0.96,-0.103,-0.061,0.244,0.244,597.21
100820,139809,19647,-0.015,-0.959,-0.104,-0.183,0.366,0.305,597.214
100820,140009,7653,-0.012,-0.962,-0.104,-0.183,0.366,0.305,597.22
100826,139809,19647,-0.016,-0.956,-0.104,-0.183,0.366,0.305,597.224
100826,140020,7676,-0.016,-0.957,-0.103,-0.183,0.366,0.305,597.23
100812,139809,19647,-0.015,-0.959,-0.106,0.061,0.366,0.305,597.234
100812,139999,7678,-0.016,-0.959,-0.104,0.061,0.366,0.305,597.24
100823,139809,19647,-0.014,-0.958,-0.103,0.122,0.366,0.305,597.243
100823,140031,7654,-0.014,-0.96,-0.103,0.122,0.366,0.305,597.25
100808,139809,19647,-0.016,-0.961,-0.104,0.122,0.305,0.305,597.253
100808,140007,7655,-0.015,-0.96,-0.105,0.122,0.305,0.305,597.26
100807,139809,19647,-0.015,-0.958,-0.108,0.061,0.305,0.244,597.263
100807,140005,7669,-0.015,-0.959,-0.107,0.061,0.305,0.244,597.269
100819,139809,19647,-0.017,-0.959,-0.103,0,0.305,0.305,597.273
100819,139990,7665,-0.016,-0.962,-0.105,0,0.305,0.305,597.279
100812,139809,19647,-0.015,-0.962,-0.103,-0.122,0.366,0.366,597.283
100812,140011,7666,-0.017,-0.961,-0.104,-0.122,0.366,0.366,597.289
100804,139809,19647,-0.012,-0.959,-0.101,-0.122,0.366,0.366,597.293
100804,140005,7669,-0.015,-0.958,-0.103,-0.122,0.366,0.366,597.299
100817,139809,19647,-0.015,-0.962,-0.103,-0.183,0.488,0.488,597.303
100817,139992,7662,-0.014,-0.959,-0.101,-0.183,0.488,0.488,597.309
100792,139809,19647,-0.017,-0.958,-0.102,-0.305,0.488,0.488,597.313
100792,139968,7658,-0.014,-0.959,-0.105,-0.305,0.488,0.488,597.319
100814,139809,19647,-0.014,-0.959,-0.105,-0.305,0.488,0.488,597.323
100814,139999,7668,-0.018,-0.959,-0.102,-0.488,0.549,0.549,597.329
100826,139809,19647,-0.018,-0.959,-0.102,-0.488,0.549,0.549,597.333
100826,140000,7661,-0.019,-0.959,-0.105,-0.427,0.488,0.549,597.339
100825,139809,19647,-0.019,-0.959,-0.105,-0.427,0.488,0.549,597.342
100825,140004,7658,-0.017,-0.959,-0.105,-0.427,0.549,0.488,597.349
100817,139809,19647,-0.017,-0.959,-0.105,-0.427,0.549,0.488,597.352
100817,139985,7652,-0.018,-0.958,-0.107,-0.488,0.61,0.549,597.359
100819,139809,19647,-0.018,-0.958,-0.107,-0.488,0.61,0.549,597.362
100819,140031,7657,-0.018,-0.957,-0.106,-0.244,0.427,0.549,597.368
100823,139809,19647,-0.018,-0.957,-0.106,-0.244,0.427,0.549,597.372
100823,139986,7665,-0.017,-0.959,-0.107,-0.061,0.366,0.427,597.378
100821,139809,19647,-0.017,-0.959,-0.107,-0.061,0.366,0.427,597.382
100821,140031,7670,-0.018,-0.96,-0.105,-0.183,0.366,0.366,597.388
100824,139809,19647,-0.018,-0.96,-0.105,-0.183,0.366,0.366,597.392
100824,139987,7673,-0.018,-0.958,-0.103,-0.061,0.305,0.244,597.398
100826,139809,19647,-0.018,-0.958,-0.103,-0.061,0.305,0.244,597.402
100826,140024,7667,-0.017,-0.959,-0.105,0.061,0.305,0.244,597.408
100810,139809,19647,-0.017,-0.959,-0.105,0.061,0.305,0.244,597.412
100810,139988,7671,-0.015,-0.958,-0.107,0.122,0.244,0.305,597.418
100810,139809,19647,-0.015,-0.958,-0.107,0.122,0.244,0.305,597.422
100810,140007,7644,-0.016,-0.962,-0.104,0,0.305,0.244,597.428
100799,139809,19647,-0.016,-0.962,-0.104,0,0.305,0.244,597.432
100799,140015,7661,-0.018,-0.962,-0.103,0,0.366,0.244,597.438
100812,139809,19647,-0.018,-0.962,-0.103,0,0.366,0.244,597.441
100812,140010,7667,-0.013,-0.958,-0.102,-0.122,0.244,0.244,597.448
100820,139809,19647,-0.013,-0.958,-0.102,-0.122,0.244,0.244,597.451
100820,140008,7654,-0.016,-0.956,-0.104,-0.183,0.244,0.366,597.458
100797,139809,19647,-0.016,-0.956,-0.104,-0.183,0.244,0.366,597.461
100797,139988,7656,-0.019,-0.962,-0.106,-0.183,0.244,0.427,597.467
100812,139809,19647,-0.019,-0.961,-0.101,-0.183,0.244,0.427,597.471
100812,140000,7651,-0.017,-0.957,-0.104,-0.122,0.183,0.427,597.477
100813,139809,19647,-0.016,-0.96,-0.102,-0.122,0.183,0.427,597.481
100813,139999,7661,-0.014,-0.96,-0.104,0,0.244,0.366,597.487
100806,139809,19647,-0.013,-0.959,-0.104,0,0.244,0.366,597.491
100806,139981,7675,-0.016,-0.961,-0.105,0.061,0.305,0.305,597.497
100812,139809,19647,-0.013,-0.963,-0.105,0.061,0.305,0.305,597.501
100812,139995,7656,-0.012,-0.96,-0.102,0,0.305,0.305,597.507
100813,139809,19647,-0.015,-0.961,-0.101,0,0.305,0.305,597.511
100813,139959,7652,-0.018,-0.959,-0.102,-0.061,0.427,0.366,597.517
100817,139809,19647,-0.014,-0.958,-0.102,-0.061,0.427,0.366,597.521
100817,139992,7672,-0.014,-0.959,-0.104,-0.122,0.488,0.366,597.527
100817,139809,19647,-0.016,-0.961,-0.103,-0.122,0.488,0.366,597.531
100817,139976,7664,-0.015,-0.96,-0.104,-0.183,0.549,0.427,597.537
100812,139809,19647,-0.016,-0.961,-0.105,-0.183,0.549,0.427,597.54
100812,139995,7666,-0.014,-0.958,-0.103,-0.122,0.61,0.549,597.547
100821,139809,19647,-0.016,-0.961,-0.1,-0.122,0.61,0.549,597.55
100821,139993,7666,-0.015,-0.958,-0.105,-0.183,0.549,0.427,597.557
100813,139809,19647,-0.015,-0.959,-0.104,-0.183,0.549,0.427,597.56
100813,139998,7663,-0.016,-0.962,-0.105,-0.305,0.488,0.427,597.566
100813,139809,19647,-0.015,-0.959,-0.106,-0.305,0.488,0.427,597.57
100813,140009,7667,-0.016,-0.962,-0.105,-0.549,0.488,0.366,597.576
100817,139809,19647,-0.018,-0.961,-0.102,-0.549,0.488,0.366,597.58
100817,140010,7678,-0.014,-0.964,-0.107,-0.366,0.427,0.366,597.586
100833,139809,19647,-0.016,-0.962,-0.108,-0.366,0.427,0.366,597.59
100833,140020,7659,-0.017,-0.962,-0.109,-0.183,0.366,0.366,597.596
100821,139809,19647,-0.017,-0.961,-0.107,-0.183,0.366,0.366,597.6
100821,140007,7669,-0.016,-0.958,-0.107,0.061,0.244,0.305,597.606
100844,139809,19647,-0.014,-0.958,-0.108,0.061,0.244,0.305,597.61
100844,140015,7668,-0.017,-0.958,-0.107,0.122,0.183,0.427,597.616
100823,139809,19647,-0.018,-0.957,-0.107,0.122,0.183,0.427,597.62
100823,140006,7667,-0.016,-0.958,-0.103,-0.061,0.183,0.366,597.626
100847,139809,19647,-0.017,-0.96,-0.101,-0.061,0.183,0.366,597.63
100847,140015,7664,-0.017,-0.959,-0.101,-0.183,0.183,0.305,597.636
100832,139809,19647,-0.015,-0.957,-0.104,-0.183,0.183,0.305,597.639
100832,140022,7674,-0.016,-0.959,-0.104,-0.183,0.244,0.305,597.646
100835,139809,19647,-0.017,-0.959,-0.102,-0.183,0.244,0.305,597.649
100835,140023,7658,-0.016,-0.96,-0.102,-0.183,0.305,0.366,597.656
100820,140065,19647,-0.017,-0.962,-0.1,-0.183,0.305,0.366,597.659
100820,140045,7657,-0.019,-0.963,-0.101,-0.061,0.366,0.366,597.665
100845,139809,19647,-0.019,-0.96,-0.102,-0.061,0.366,0.366,597.669
100845,140021,7675,-0.019,-0.961,-0.103,0.061,0.366,0.244,597.675
100850,139809,19647,-0.016,-0.961,-0.103,0.061,0.366,0.244,597.679
100850,140009,7667,-0.017,-0.96,-0.101,0.122,0.366,0.305,597.685
100838,140065,19647,-0.017,-0.957,-0.102,0.122,0.366,0.305,597.689
100838,140032,7664,-0.018,-0.958,-0.106,0,0.427,0.366,597.695
100848,139809,19647,-0.018,-0.959,-0.106,0,0.427,0.366,597.699
100848,140023,7660,-0.019,-0.958,-0.106,-0.183,0.488,0.244,597.705
100846,139809,19647,-0.014,-0.956,-0.108,-0.183,0.488,0.244,597.709
100846,140027,7673,-0.014,-0.955,-0.109,-0.305,0.549,0.122,597.715
100833,139809,19647,-0.01,-0.954,-0.107,-0.305,0.549,0.122,597.719
100833,140008,7673,-0.013,-0.955,-0.104,-0.427,0.732,0,597.725
100849,139809,19647,-0.011,-0.958,-0.104,-0.427,0.732,0,597.729
100849,140027,7672,-0.01,-0.96,-0.103,-0.488,0.793,-0.061,597.735
100845,140065,19647,-0.012,-0.96,-0.106,-0.488,0.793,-0.061,597.738
100845,140050,7671,-0.011,-0.959,-0.109,-0.305,0.671,0,597.745
100824,139809,19647,-0.015,-0.963,-0.108,-0.305,0.671,0,597.748
100824,140025,7668,-0.014,-0.962,-0.105,-0.061,0.549,0.061,597.755
100860,139809,19647,-0.014,-0.962,-0.106,-0.061,0.549,0.061,597.758
100860,140025,7662,-0.016,-0.962,-0.108,0.061,0.305,0.183,597.764
100833,139809,19647,-0.016,-0.964,-0.105,0.061,0.305,0.183,597.768
100833,140025,7675,-0.018,-0.963,-0.104,0.061,0.122,0.427,597.774
100831,140065,19647,-0.019,-0.96,-0.101,0.061,0.122,0.427,597.778
100831,140038,7675,-0.017,-0.961,-0.101,0.061,-0.061,0.549,597.784
100839,139809,19647,-0.019,-0.963,-0.101,0.061,-0.061,0.549,597.788
100839,140014,7659,-0.021,-0.96,-0.104,0,-0.061,0.61,597.794
100854,139809,19647,-0.02,-0.959,-0.103,0,-0.061,0.61,597.798
100854,140030,7674,-0.016,-0.958,-0.102,0.061,0.061,0.549,597.804
100852,140065,19647,-0.016,-0.955,-0.101,0.061,0.061,0.549,597.808
100852,140047,7671,-0.015,-0.958,-0.101,0.122,0.183,0.427,597.814
100853,140065,19647,-0.017,-0.959,-0.103,0.122,0.183,0.427,597.818
100853,140040,7673,-0.016,-0.958,-0.102,-0.061,0.305,0.366,597.824
100838,139809,19647,-0.016,-0.957,-0.1,-0.061,0.305,0.366,597.828
100838,140021,7683,-0.014,-0.957,-0.101,-0.122,0.549,0.244,597.834
100842,139809,19647,-0.012,-0.955,-0.1,-0.122,0.549,0.244,597.837
100842,140030,7667,-0.011,-0.96,-0.105,-0.366,0.671,0.122,597.844
100849,140065,19647,-0.011,-0.96,-0.101,-0.366,0.671,0.122,597.847
100849,140047,7678,-0.012,-0.959,-0.106,-0.549,0.732,0.183,597.854
100853,140065,19647,-0.014,-0.961,-0.107,-0.549,0.732,0.183,597.857
100853,140043,7673,-0.012,-0.961,-0.104,-0.61,0.671,0.305,597.863
100863,139809,19647,-0.016,-0.961,-0.106,-0.61,0.671,0.305,597.867
100863,140027,7673,-0.017,-0.959,-0.107,-0.488,0.549,0.366,597.873
100854,140065,19647,-0.015,-0.959,-0.107,-0.488,0.549,0.366,597.877
100854,140045,7680,-0.016,-0.961,-0.106,-0.366,0.305,0.427,597.883
100845,140065,19647,-0.018,-0.96,-0.107,-0.366,0.305,0.427,597.887
100845,140054,7663,-0.02,-0.963,-0.108,-0.366,0.305,0.488,597.893
100852,139809,19647,-0.018,-0.963,-0.107,-0.366,0.305,0.488,597.897
100852,140031,7666,-0.015,-0.96,-0.109,-0.244,0.244,0.427,597.903
100852,140065,19647,-0.015,-0.96,-0.109,-0.244,0.244,0.427,597.907
100852,140065,7656,-0.014,-0.96,-0.106,-0.061,0.122,0.366,597.913
100859,140065,19647,-0.014,-0.96,-0.106,-0.061,0.122,0.366,597.917
100859,140063,7672,-0.014,-0.959,-0.105,-0.061,0.183,0.305,597.923
100856,140065,19647,-0.014,-0.959,-0.105,-0.061,0.183,0.305,597.927
100856,140079,7670,-0.017,-0.96,-0.103,-0.244,0.122,0.366,597.933
100869,140065,19647,-0.017,-0.96,-0.103,-0.244,0.122,0.366,597.936
100869,140057,7663,-0.016,-0.961,-0.102,-0.061,0.122,0.427,597.943
100853,140065,19647,-0.016,-0.961,-0.102,-0.061,0.122,0.427,597.946
100853,140049,7666,-0.018,-0.96,-0.103,0,0.244,0.427,597.953
100865,140065,19647,-0.018,-0.96,-0.103,0,0.244,0.427,597.956
100865,140071,7687,-0.016,-0.96,-0.105,0,0.366,0.488,597.962
100875,140065,19647,-0.016,-0.96,-0.105,0,0.366,0.488,597.966
100875,140058,7676,-0.015,-0.96,-0.099,0.122,0.366,0.366,597.972
100876,140065,19647,-0.015,-0.96,-0.099,0.122,0.366,0.366,597.976
100876,140053,7669,-0.013,-0.958,-0.102,-0.061,0.488,0.366,597.982
100867,140065,19647,-0.013,-0.958,-0.102,-0.061,0.488,0.366,597.986
100867,140033,7690,-0.014,-0.956,-0.101,-0.427,0.549,0.366,597.992
100855,140065,19647,-0.014,-0.956,-0.101,-0.427,0.549,0.366,597.996
100855,140058,7670,-0.012,-0.965,-0.105,-0.61,0.671,0.488,598.002
100867,140065,19647,-0.012,-0.965,-0.105,-0.61,0.671,0.488,598.006
100867,140060,7673,-0.016,-0.964,-0.103,-0.732,0.671,0.549,598.012
100861,140065,19647,-0.016,-0.964,-0.103,-0.732,0.671,0.549,598.016
100861,140038,7678,-0.014,-0.961,-0.105,-0.549,0.61,0.61,598.022
100847,140065,19647,-0.014,-0.961,-0.105,-0.549,0.61,0.61,598.026
100847,140062,7669,-0.018,-0.958,-0.105,-0.427,0.61,0.61,598.032
100858,139809,19647,-0.018,-0.958,-0.105,-0.427,0.61,0.61,598.035
100858,140030,7683,-0.019,-0.961,-0.104,-0.488,0.61,0.549,598.042
100850,139809,19647,-0.019,-0.961,-0.104,-0.488,0.61,0.549,598.045
100850,140018,7685,-0.019,-0.961,-0.107,-0.488,0.61,0.549,598.052
100872,139809,19647,-0.019,-0.96,-0.106,-0.549,0.488,0.549,598.055
100872,140027,7669,-0.018,-0.96,-0.109,-0.549,0.488,0.549,598.061
100829,139809,19647,-0.017,-0.96,-0.109,-0.244,0.305,0.427,598.065
100829,140005,7666,-0.018,-0.958,-0.105,-0.244,0.305,0.427,598.071
100846,139809,19647,-0.015,-0.957,-0.101,0,0.183,0.305,598.075
100846,139987,7655,-0.016,-0.955,-0.104,0,0.183,0.305,598.081
100829,139809,19647,-0.016,-0.958,-0.106,0.183,0.122,0.244,598.085
100829,140004,7670,-0.014,-0.96,-0.104,0.183,0.122,0.244,598.091
100836,139809,19647,-0.015,-0.96,-0.103,0.122,0.244,0.366,598.095
100836,139995,7668,-0.015,-0.96,-0.104,0.122,0.244,0.366,598.101
100835,139809,19647,-0.014,-0.96,-0.104,0.122,0.244,0.244,598.105
100835,139984,7660,-0.012,-0.959,-0.105,0.122,0.244,0.244,598.111
100830,139809,19647,-0.013,-0.959,-0.106,0.061,0.183,0.244,598.115
100830,139993,7672,-0.014,-0.959,-0.104,0.061,0.183,0.244,598.121
100843,139809,19647,-0.015,-0.958,-0.104,0,0.305,0.366,598.125
100843,139987,7671,-0.015,-0.958,-0.103,0,0.305,0.366,598.131
100813,139809,19647,-0.016,-0.959,-0.106,0.183,0.366,0.183,598.134
100813,140013,7660,-0.017,-0.96,-0.101,0.183,0.366,0.183,598.141
100844,139809,19647,-0.015,-0.96,-0.102,0,0.366,0.244,598.144
100844,140012,7664,-0.014,-0.959,-0.105,0,0.366,0.244,598.151
100818,139809,19647,-0.016,-0.958,-0.104,-0.183,0.427,0.244,598.154
100818,140004,7684,-0.017,-0.957,-0.106,-0.183,0.427,0.244,598.16
100819,139809,19647,-0.016,-0.958,-0.106,-0.305,0.366,0.244,598.164
100819,140024,7663,-0.014,-0.96,-0.104,-0.305,0.366,0.244,598.17
100821,139809,19647,-0.015,-0.962,-0.103,-0.305,0.305,0.183,598.174
100821,140014,7672,-0.015,-0.963,-0.103,-0.305,0.305,0.183,598.18
100806,139809,19647,-0.014,-0.96,-0.102,-0.305,0.427,0.244,598.184
100806,139998,7656,-0.017,-0.96,-0.102,-0.305,0.427,0.244,598.19
100802,139809,19647,-0.018,-0.961,-0.105,-0.305,0.366,0.366,598.194
100802,140004,7677,-0.017,-0.959,-0.105,-0.305,0.366,0.366,598.2
100815,139809,19647,-0.017,-0.959,-0.105,-0.061,0.305,0.305,598.204
100815,140014,7664,-0.017,-0.961,-0.106,-0.061,0.305,0.305,598.21
100819,139809,19647,-0.017,-0.958,-0.101,0.061,0.305,0.305,598.214
100819,139968,7668,-0.018,-0.958,-0.103,0.061,0.305,0.305,598.22
100830,139809,19647,-0.016,-0.959,-0.105,-0.244,0.244,0.122,598.224
100830,140000,7664,-0.017,-0.96,-0.101,-0.244,0.244,0.122,598.23
100834,139809,19647,-0.016,-0.959,-0.099,-0.427,0.183,0.183,598.233
100834,139997,7654,-0.016,-0.961,-0.104,-0.427,0.183,0.183,598.24
100843,139809,19647,-0.016,-0.959,-0.108,-0.427,0.183,0.183,598.243
100843,139998,7662,-0.017,-0.958,-0.106,-0.427,0.183,0.183,598.25
100835,139809,19647,-0.016,-0.959,-0.103,-0.305,0.305,0.183,598.253
100835,139998,7661,-0.016,-0.96,-0.102,-0.305,0.305,0.183,598.259
100827,139809,19647,-0.015,-0.96,-0.106,0,0.183,0.061,598.263
100827,140004,7683,-0.017,-0.959,-0.101,0,0.183,0.061,598.269
100834,139809,19647,-0.016,-0.958,-0.103,0,0.183,0.183,598.273
100834,139988,7671,-0.018,-0.961,-0.102,0,0.183,0.183,598.279
100829,139809,19647,-0.016,-0.961,-0.101,-0.183,0.183,0.183,598.283
100829,140011,7663,-0.015,-0.961,-0.104,-0.183,0.183,0.183,598.289
100828,139809,19647,-0.017,-0.96,-0.105,-0.305,0.305,0.122,598.293
100828,139977,7665,-0.016,-0.959,-0.107,-0.305,0.305,0.122,598.299
100816,139809,19647,-0.014,-0.96,-0.105,-0.305,0.183,0.122,598.303
100816,140004,7664,-0.017,-0.961,-0.103,-0.305,0.183,0.122,598.309
100820,139809,19647,-0.014,-0.961,-0.103,-0.244,0.122,0.183,598.313
100820,140016,7665,-0.014,-0.966,-0.106,-0.244,0.122,0.183,598.319
100844,139809,19647,-0.015,-0.964,-0.109,-0.183,0.183,0.305,598.323
100844,140012,7662,-0.018,-0.958,-0.108,-0.183,0.183,0.305,598.329
100836,139809,19647,-0.017,-0.955,-0.106,-0.061,0.183,0.183,598.332
100836,139992,7672,-0.018,-0.956,-0.106,-0.061,0.183,0.183,598.339
100832,139809,19647,-0.018,-0.958,-0.108,0.061,0.183,0.061,598.342
100832,139990,7649,-0.015,-0.958,-0.105,0.061,0.183,0.061,598.349
100826,139809,19647,-0.012,-0.959,-0.102,-0.183,0.122,0.061,598.352
100826,140009,7663,-0.012,-0.961,-0.101,-0.183,0.122,0.061,598.358
100842,139809,19647,-0.015,-0.959,-0.105,-0.122,0.183,0.183,598.362
100842,139985,7665,-0.018,-0.959,-0.104,-0.122,0.183,0.183,598.368
100838,139809,19647,-0.014,-0.96,-0.104,-0.183,0.244,0.305,598.372
100838,139997,7670,-0.015,-0.959,-0.103,-0.183,0.244,0.305,598.378
100829,139809,19647,-0.013,-0.961,-0.105,-0.244,0.244,0.305,598.382
100829,139991,7662,-0.015,-0.96,-0.103,-0.244,0.244,0.305,598.388
100841,139809,19647,-0.015,-0.96,-0.105,-0.183,0.183,0.244,598.392
100841,139997,7664,-0.015,-0.961,-0.106,-0.183,0.183,0.244,598.398
100834,139809,19647,-0.016,-0.96,-0.101,-0.122,0.183,0.305,598.402
100834,140012,7668,-0.017,-0.959,-0.102,-0.122,0.183,0.305,598.408
100843,139809,19647,-0.017,-0.96,-0.101,-0.061,0.244,0.366,598.412
100843,140010,7659,-0.015,-0.961,-0.102,-0.061,0.244,0.366,598.418
100840,139809,19647,-0.016,-0.96,-0.103,-0.183,0.305,0.366,598.422
100840,140006,7649,-0.016,-0.961,-0.102,-0.183,0.305,0.366,598.428
100832,139809,19647,-0.014,-0.96,-0.102,-0.488,0.305,0.366,598.431
100832,140020,7671,-0.016,-0.959,-0.106,-0.488,0.305,0.366,598.438
100835,139809,19647,-0.016,-0.963,-0.107,-0.488,0.305,0.366,598.441
100835,140016,7657,-0.015,-0.961,-0.103,-0.488,0.305,0.366,598.448
100843,139809,19647,-0.014,-0.959,-0.101,-0.488,0.305,0.305,598.451
100843,140012,7653,-0.015,-0.96,-0.1,-0.488,0.305,0.305,598.457
100826,139809,19647,-0.013,-0.958,-0.105,-0.305,0.305,0.305,598.461
100826,139993,7676,-0.015,-0.958,-0.106,-0.305,0.305,0.305,598.467
100838,139809,19647,-0.016,-0.959,-0.105,-0.122,0.305,0.244,598.471
100838,139981,7659,-0.016,-0.957,-0.107,-0.122,0.305,0.244,598.477
100843,139809,19647,-0.015,-0.956,-0.107,-0.183,0.305,0.183,598.481
100843,139996,7659,-0.013,-0.959,-0.108,-0.183,0.305,0.183,598.487
100832,139809,19647,-0.013,-0.959,-0.108,-0.183,0.305,0.183,598.491
100832,139986,7662,-0.014,-0.958,-0.102,-0.061,0.244,0.061,598.497
100843,139809,19647,-0.014,-0.958,-0.102,-0.061,0.244,0.061,598.501
100843,140010,7669,-0.014,-0.962,-0.106,0.122,0.183,0.122,598.507
100819,139809,19647,-0.014,-0.962,-0.106,0.122,0.183,0.122,598.511
100819,139998,7662,-0.016,-0.955,-0.104,-0.061,0.183,0.305,598.517
100857,139809,19647,-0.016,-0.955,-0.104,-0.061,0.183,0.305,598.521
100857,140020,7660,-0.014,-0.96,-0.106,-0.122,0.122,0.244,598.527
100846,139809,19647,-0.014,-0.96,-0.106,-0.122,0.122,0.244,598.53
100846,140016,7671,-0.016,-0.96,-0.104,-0.427,0.122,0.183,598.537
100846,139809,19647,-0.016,-0.96,-0.104,-0.427,0.122,0.183,598.54
100846,140029,7662,-0.019,-0.96,-0.106,-0.366,0.122,0.244,598.547
100852,139809,19647,-0.019,-0.96,-0.106,-0.366,0.122,0.244,598.55
100852,140010,7661,-0.017,-0.961,-0.104,-0.122,0.061,0.183,598.556
100851,139809,19647,-0.017,-0.961,-0.104,-0.122,0.061,0.183,598.56
100851,140013,7649,-0.016,-0.959,-0.105,0.122,-0.061,0.183,598.566
100852,139809,19647,-0.016,-0.959,-0.105,0.122,-0.061,0.183,598.57
100852,139998,7669,-0.018,-0.96,-0.104,0.122,-0.122,0.183,598.576
100874,139809,19647,-0.018,-0.96,-0.104,0.122,-0.122,0.183,598.58
100874,140006,7666,-0.017,-0.959,-0.1,-0.061,-0.122,0.122,598.586
100844,139809,19647,-0.017,-0.959,-0.1,-0.061,-0.122,0.122,598.59
100844,140001,7662,-0.015,-0.958,-0.105,0.061,-0.122,0.061,598.596
100846,139809,19647,-0.015,-0.958,-0.105,0.061,-0.122,0.061,598.6
100846,140029,7667,-0.013,-0.958,-0.104,0.366,-0.061,0.122,598.606
100857,139809,19647,-0.013,-0.958,-0.104,0.366,-0.061,0.122,598.61
100857,140001,7667,-0.011,-0.955,-0.104,0.305,0.122,0.061,598.616
100849,139809,19647,-0.011,-0.955,-0.104,0.305,0.122,0.061,598.62
100849,140014,7671,-0.009,-0.957,-0.104,0.061,0.305,-0.122,598.626
100837,139809,19647,-0.009,-0.957,-0.104,0.061,0.305,-0.122,598.629
100837,140019,7674,-0.01,-0.959,-0.104,-0.244,0.488,-0.244,598.636
100857,139809,19647,-0.01,-0.958,-0.101,-0.244,0.488,-0.244,598.639
100857,140026,7665,-0.01,-0.962,-0.104,-0.671,0.671,-0.122,598.646
100833,139809,19647,-0.013,-0.962,-0.106,-0.671,0.671,-0.122,598.649
100833,140014,7662,-0.011,-0.963,-0.106,-0.793,0.854,0,598.655
100842,139809,19647,-0.012,-0.965,-0.106,-0.793,0.854,0,598.659
100842,140016,7668,-0.014,-0.963,-0.104,-0.732,0.671,0.122,598.665
100834,139809,19647,-0.015,-0.965,-0.103,-0.732,0.671,0.122,598.669
100834,140022,7661,-0.015,-0.963,-0.103,-0.549,0.427,0.244,598.675
100854,139809,19647,-0.017,-0.962,-0.103,-0.549,0.427,0.244,598.679
100854,140011,7663,-0.018,-0.961,-0.102,-0.427,0.122,0.366,598.685
100851,139809,19647,-0.017,-0.96,-0.104,-0.427,0.122,0.366,598.689
100851,140021,7665,-0.017,-0.958,-0.104,-0.244,-0.061,0.488,598.695
100840,139809,19647,-0.019,-0.959,-0.102,-0.244,-0.061,0.488,598.699
100840,140027,7665,-0.017,-0.958,-0.105,0.061,-0.183,0.427,598.705
100857,139809,19647,-0.016,-0.959,-0.103,0.061,-0.183,0.427,598.709
100857,140020,7685,-0.019,-0.96,-0.102,0.122,-0.183,0.427,598.715
100853,139809,19647,-0.014,-0.958,-0.1,0.122,-0.183,0.427,598.719
100853,140030,7672,-0.016,-0.958,-0.101,0.183,-0.061,0.305,598.725
100847,139809,19647,-0.016,-0.959,-0.102,0.183,-0.061,0.305,598.728
100847,140003,7669,-0.014,-0.959,-0.103,0.244,0.122,0.183,598.735
100863,140065,19647,-0.014,-0.956,-0.104,0.244,0.122,0.183,598.738
100863,140040,7677,-0.013,-0.958,-0.105,0.122,0.366,0.122,598.745
100869,139809,19647,-0.012,-0.956,-0.103,0.122,0.366,0.122,598.748
100869,140011,7674,-0.012,-0.958,-0.1,-0.122,0.488,0.061,598.754
100855,140065,19647,-0.01,-0.957,-0.099,-0.122,0.488,0.061,598.758
100855,140042,7663,-0.011,-0.959,-0.102,-0.488,0.61,0.061,598.764
100856,140065,19647,-0.012,-0.958,-0.104,-0.488,0.61,0.061,598.768
100856,140057,7661,-0.013,-0.962,-0.104,-0.732,0.671,0.122,598.774
100868,139809,19647,-0.014,-0.962,-0.108,-0.732,0.671,0.122,598.778
100868,140031,7657,-0.015,-0.959,-0.103,-0.793,0.549,0.244,598.784
100851,140065,19647,-0.015,-0.962,-0.108,-0.793,0.549,0.244,598.788
100851,140042,7665,-0.018,-0.962,-0.108,-0.671,0.427,0.244,598.794
100861,139809,19647,-0.017,-0.959,-0.104,-0.671,0.427,0.244,598.798
100861,140013,7667,-0.018,-0.959,-0.106,-0.366,0.244,0.122,598.804
100861,139809,19647,-0.018,-0.962,-0.106,-0.366,0.244,0.122,598.808
100861,140014,7665,-0.016,-0.963,-0.106,-0.244,0.183,0.061,598.814
100869,140065,19647,-0.015,-0.961,-0.104,-0.244,0.183,0.061,598.818
100869,140054,7662,-0.013,-0.959,-0.105,0.122,0,0.061,598.824
100857,140065,19647,-0.016,-0.958,-0.108,0.122,0,0.061,598.827
100857,140040,7660,-0.015,-0.963,-0.102,0.244,-0.061,0.061,598.834
100851,140065,19647,-0.016,-0.963,-0.102,0.244,-0.061,0.061,598.837
100851,140032,7665,-0.015,-0.964,-0.101,0.244,-0.061,0.244,598.844
100856,140065,19647,-0.014,-0.964,-0.104,0.244,-0.061,0.244,598.847
100856,140049,7674,-0.014,-0.96,-0.102,0.183,-0.061,0.366,598.853
100868,139809,19647,-0.015,-0.96,-0.101,0.183,-0.061,0.366,598.857
100868,140026,7671,-0.011,-0.963,-0.103,0.183,0.061,0.366,598.863
100851,139809,19647,-0.009,-0.958,-0.103,0.183,0.061,0.366,598.867
100851,140025,7670,-0.007,-0.955,-0.099,0.061,0.122,0.427,598.873
100867,140065,19647,-0.009,-0.958,-0.102,0.061,0.122,0.427,598.877
100867,140035,7669,-0.012,-0.961,-0.103,-0.305,0.366,0.488,598.883
100879,140065,19647,-0.013,-0.958,-0.101,-0.305,0.366,0.488,598.887
100879,140037,7670,-0.01,-0.958,-0.099,-0.549,0.61,0.488,598.893
100870,140065,19647,-0.01,-0.955,-0.101,-0.549,0.61,0.488,598.897
100870,140043,7670,-0.01,-0.959,-0.102,-0.793,0.793,0.488,598.903
100876,140065,19647,-0.013,-0.962,-0.104,-0.793,0.793,0.488,598.907
100876,140036,7675,-0.011,-0.963,-0.101,-0.915,0.793,0.549,598.913
100883,139809,19647,-0.014,-0.963,-0.101,-0.915,0.793,0.549,598.917
100883,140023,7664,-0.017,-0.96,-0.105,-0.793,0.793,0.549,598.923
100872,140065,19647,-0.017,-0.958,-0.106,-0.793,0.793,0.549,598.926
100872,140042,7661,-0.015,-0.961,-0.102,-0.488,0.61,0.549,598.933
100864,139809,19647,-0.017,-0.963,-0.106,-0.488,0.61,0.549,598.936
100864,140005,7663,-0.017,-0.962,-0.107,-0.366,0.488,0.549,598.943
100859,139809,19647,-0.018,-0.961,-0.103,-0.366,0.488,0.549,598.946
100859,140030,7655,-0.018,-0.962,-0.104,-0.366,0.366,0.488,598.952
100859,139809,19647,-0.016,-0.962,-0.104,-0.366,0.366,0.488,598.956
100859,140011,7679,-0.018,-0.96,-0.106,-0.122,0.305,0.549,598.962
100842,139809,19647,-0.016,-0.959,-0.107,-0.122,0.305,0.549,598.966
100842,140001,7665,-0.017,-0.962,-0.107,-0.122,0.305,0.549,598.972
100842,139809,19647,-0.016,-0.961,-0.106,-0.122,0.305,0.549,598.976
100842,140003,7670,-0.012,-0.959,-0.105,-0.061,0.427,0.671,598.982
100850,139809,19647,-0.011,-0.958,-0.105,-0.061,0.427,0.671,598.986
100850,140030,7652,-0.012,-0.958,-0.107,-0.122,0.366,0.488,598.992
100843,139809,19647,-0.015,-0.958,-0.103,-0.122,0.366,0.488,598.996
100843,139990,7673,-0.016,-0.958,-0.098,-0.061,0.427,0.427,599.002
100851,139809,19647,-0.013,-0.956,-0.101,-0.061,0.427,0.427,599.006
100851,139977,7669,-0.012,-0.958,-0.105,-0.122,0.549,0.427,599.012
100831,139809,19647,-0.012,-0.958,-0.103,-0.122,0.549,0.427,599.016
100831,139976,7674,-0.01,-0.958,-0.102,-0.122,0.549,0.366,599.022
100835,139809,19647,-0.015,-0.959,-0.108,-0.122,0.549,0.366,599.025
100835,139968,7675,-0.013,-0.959,-0.106,-0.061,0.488,0.305,599.032
100818,139809,19647,-0.011,-0.96,-0.103,-0.061,0.488,0.305,599.035
100818,139977,7648,-0.013,-0.962,-0.106,-0.122,0.427,0.244,599.042
100836,139809,19647,-0.014,-0.962,-0.107,-0.122,0.427,0.244,599.045
100836,139962,7659,-0.015,-0.961,-0.104,0.061,0.305,0.244,599.051
100828,139809,19647,-0.013,-0.961,-0.103,0.061,0.305,0.244,599.055
100828,139982,7648,-0.013,-0.961,-0.102,0.183,0.305,0.244,599.061
100810,139809,19647,-0.013,-0.96,-0.102,0.183,0.305,0.244,599.065
100810,139978,7662,-0.012,-0.96,-0.105,0.244,0.366,0.244,599.071
100839,139809,19647,-0.014,-0.96,-0.101,0.244,0.366,0.244,599.075
100839,139966,7656,-0.014,-0.961,-0.102,0.061,0.366,0.366,599.081
100813,139809,19647,-0.014,-0.961,-0.102,0.061,0.366,0.366,599.085
100813,139966,7673,-0.012,-0.958,-0.099,-0.183,0.488,0.488,599.091
100822,139809,19647,-0.012,-0.958,-0.099,-0.183,0.488,0.488,599.095
100822,139975,7672,-0.014,-0.959,-0.101,-0.427,0.549,0.549,599.101
100816,139809,19647,-0.014,-0.959,-0.101,-0.427,0.549,0.549,599.105
100816,139975,7662,-0.014,-0.961,-0.1,-0.61,0.61,0.61,599.111
100831,139809,19647,-0.014,-0.961,-0.1,-0.61,0.61,0.61,599.115
100831,139993,7666,-0.016,-0.96,-0.104,-0.732,0.61,0.61,599.121
100824,139809,19647,-0.016,-0.96,-0.104,-0.732,0.61,0.61,599.124
100824,139999,7653,-0.016,-0.958,-0.103,-0.61,0.671,0.549,599.131
100836,139809,19647,-0.016,-0.958,-0.103,-0.61,0.671,0.549,599.134
100836,139963,7651,-0.014,-0.96,-0.106,-0.427,0.61,0.549,599.141
100826,139809,19647,-0.014,-0.96,-0.106,-0.427,0.61,0.549,599.144
100826,139971,7658,-0.014,-0.958,-0.105,-0.366,0.61,0.488,599.15
100832,139809,19647,-0.014,-0.958,-0.105,-0.366,0.61,0.488,599.154
100832,139987,7651,-0.017,-0.962,-0.103,-0.122,0.61,0.366,599.16
100828,139809,19647,-0.017,-0.962,-0.103,-0.122,0.61,0.366,599.164
100828,139965,7642,-0.016,-0.961,-0.107,-0.061,0.488,0.427,599.17
100819,139809,19647,-0.016,-0.961,-0.107,-0.061,0.488,0.427,599.174
100819,139992,7659,-0.014,-0.959,-0.102,-0.061,0.488,0.427,599.18
100823,139809,19647,-0.014,-0.959,-0.102,-0.061,0.488,0.427,599.184
100823,139999,7659,-0.016,-0.957,-0.106,-0.122,0.488,0.427,599.19
100825,139809,19647,-0.016,-0.957,-0.106,-0.122,0.488,0.427,599.194
100825,139965,7672,-0.015,-0.957,-0.105,-0.305,0.488,0.366,599.2
100829,139809,19647,-0.015,-0.957,-0.105,-0.305,0.488,0.366,599.204
100829,139981,7663,-0.015,-0.96,-0.105,-0.427,0.61,0.366,599.21
100841,139809,19647,-0.015,-0.96,-0.105,-0.427,0.61,0.366,599.214
100841,139950,7658,-0.016,-0.96,-0.105,-0.488,0.61,0.305,599.22
100822,139809,19647,-0.016,-0.96,-0.105,-0.488,0.61,0.305,599.223
100822,139970,7677,-0.017,-0.96,-0.103,-0.488,0.61,0.305,599.23
100827,139809,19647,-0.017,-0.96,-0.105,-0.305,0.61,0.244,599.233
100827,139980,7667,-0.016,-0.96,-0.107,-0.305,0.61,0.244,599.24
100825,139809,19647,-0.017,-0.96,-0.102,0,0.488,0.244,599.243
100825,139956,7653,-0.015,-0.96,-0.103,0,0.488,0.244,599.249
100823,139809,19647,-0.016,-0.958,-0.104,0.183,0.488,0.244,599.253
100823,139972,7657,-0.011,-0.958,-0.102,0.183,0.488,0.244,599.259
100831,139809,19647,-0.016,-0.96,-0.104,0.183,0.427,0.244,599.263
100831,139967,7660,-0.013,-0.959,-0.102,0.183,0.427,0.244,599.269
100830,139809,19647,-0.01,-0.962,-0.102,0,0.427,0.244,599.273
100830,139982,7655,-0.013,-0.964,-0.102,0,0.427,0.244,599.279
100823,139809,19647,-0.015,-0.964,-0.105,-0.061,0.488,0.305,599.283
100823,139955,7662,-0.012,-0.959,-0.1,-0.061,0.488,0.305,599.289
100817,139809,19647,-0.013,-0.959,-0.106,0.061,0.549,0.427,599.293
100817,139966,7664,-0.014,-0.961,-0.101,0.061,0.549,0.427,599.299
100828,139809,19647,-0.014,-0.958,-0.101,0.122,0.488,0.427,599.303
100828,139970,7674,-0.012,-0.96,-0.103,0.122,0.488,0.427,599.309
100832,139809,19647,-0.013,-0.957,-0.1,-0.061,0.61,0.488,599.313
100832,139960,7659,-0.014,-0.959,-0.1,-0.061,0.61,0.488,599.319
100834,139809,19647,-0.014,-0.96,-0.1,-0.305,0.732,0.488,599.322
100834,139966,7650,-0.013,-0.962,-0.103,-0.305,0.732,0.488,599.329
100825,139809,19647,-0.013,-0.962,-0.106,-0.366,0.793,0.488,599.332
100825,139946,7660,-0.014,-0.961,-0.101,-0.366,0.793,0.488,599.339
100803,139809,19647,-0.015,-0.959,-0.104,-0.305,0.732,0.549,599.342
100803,139975,7660,-0.015,-0.96,-0.104,-0.305,0.732,0.549,599.348
100816,139809,19647,-0.016,-0.96,-0.103,-0.183,0.732,0.61,599.352
100816,139953,7663,-0.016,-0.959,-0.101,-0.183,0.732,0.61,599.358
100826,139809,19647,-0.015,-0.96,-0.107,-0.305,0.671,0.61,599.362
100826,139985,7652,-0.015,-0.959,-0.105,-0.305,0.671,0.61,599.368
100834,139809,19647,-0.013,-0.959,-0.103,-0.305,0.61,0.671,599.372
100834,139966,7662,-0.015,-0.958,-0.106,-0.305,0.61,0.671,599.378
100836,139809,19647,-0.015,-0.959,-0.104,-0.244,0.732,0.671,599.382
100836,139966,7657,-0.013,-0.962,-0.108,-0.244,0.732,0.671,599.388
100810,139809,19647,-0.015,-0.96,-0.102,-0.427,0.671,0.671,599.392
100810,139961,7659,-0.013,-0.96,-0.102,-0.427,0.671,0.671,599.398
100830,139809,19647,-0.015,-0.961,-0.104,-0.366,0.671,0.671,599.402
100830,139977,7642,-0.016,-0.961,-0.106,-0.366,0.671,0.671,599.408
100834,139809,19647,-0.014,-0.958,-0.102,-0.366,0.793,0.61,599.412
100834,139977,7657,-0.014,-0.958,-0.103,-0.366,0.793,0.61,599.418
100832,139809,19647,-0.016,-0.956,-0.106,-0.488,0.793,0.61,599.421
100832,139981,7659,-0.016,-0.959,-0.107,-0.488,0.793,0.61,599.428
100834,139809,19647,-0.016,-0.959,-0.103,-0.427,0.671,0.549,599.431
100834,139981,7665,-0.017,-0.959,-0.1,-0.427,0.671,0.549,599.438
100842,139809,19647,-0.016,-0.96,-0.102,-0.244,0.549,0.427,599.441
100842,139972,7656,-0.018,-0.958,-0.107,-0.244,0.549,0.427,599.447
100825,139809,19647,-0.016,-0.96,-0.106,-0.061,0.427,0.427,599.451
100825,139980,7657,-0.015,-0.961,-0.104,-0.061,0.427,0.427,599.457
100826,139809,19647,-0.016,-0.961,-0.104,0.122,0.366,0.366,599.461
100826,139986,7661,-0.015,-0.962,-0.106,0.122,0.366,0.366,599.467
100830,139809,19647,-0.014,-0.961,-0.109,0.244,0.244,0.366,599.471
100830,139970,7649,-0.015,-0.962,-0.105,0.244,0.244,0.366,599.477
100826,139809,19647,-0.017,-0.965,-0.103,0.244,0.244,0.366,599.481
100826,139989,7671,-0.015,-0.962,-0.103,0.244,0.244,0.366,599.487
100839,139809,19647,-0.012,-0.962,-0.104,0.183,0.305,0.427,599.491
100839,139965,7668,-0.014,-0.96,-0.1,0.183,0.305,0.427,599.497
100832,139809,19647,-0.014,-0.958,-0.101,0.183,0.366,0.488,599.501
100832,139983,7654,-0.014,-0.957,-0.104,0.183,0.366,0.488,599.507
100834,139809,19647,-0.013,-0.954,-0.105,0,0.61,0.427,599.511
100834,139952,7649,-0.013,-0.956,-0.106,0,0.61,0.427,599.517
100846,139809,19647,-0.013,-0.957,-0.106,-0.244,0.671,0.305,599.52
100846,139970,7652,-0.011,-0.959,-0.102,-0.244,0.671,0.305,599.527
100830,139809,19647,-0.009,-0.958,-0.099,-0.549,0.793,0.244,599.53
100830,139975,7668,-0.012,-0.96,-0.105,-0.549,0.793,0.244,599.536
100828,139809,19647,-0.012,-0.96,-0.106,-0.61,0.976,0.244,599.54
100828,139972,7668,-0.01,-0.963,-0.106,-0.61,0.976,0.244,599.546
100838,139809,19647,-0.011,-0.96,-0.104,-0.549,0.854,0.183,599.55
100838,139992,7664,-0.014,-0.964,-0.105,-0.549,0.854,0.183,599.556
100828,139809,19647,-0.017,-0.964,-0.106,-0.305,0.671,0.305,599.56
100828,140003,7658,-0.019,-0.963,-0.106,-0.305,0.671,0.305,599.566
100827,139809,19647,-0.016,-0.964,-0.108,-0.183,0.366,0.305,599.57
100827,139976,7653,-0.015,-0.959,-0.104,-0.183,0.366,0.305,599.576
100827,139809,19647,-0.016,-0.96,-0.106,0.122,0.183,0.427,599.58
100827,139987,7658,-0.018,-0.961,-0.102,0.122,0.183,0.427,599.586
100841,139809,19647,-0.017,-0.959,-0.1,0.244,0.122,0.549,599.59
100841,140002,7647,-0.017,-0.961,-0.101,0.244,0.122,0.549,599.596
100830,139809,19647,-0.016,-0.96,-0.102,0.305,0.061,0.549,599.6
100830,139984,7655,-0.017,-0.958,-0.102,0.305,0.061,0.549,599.606
100848,139809,19647,-0.019,-0.96,-0.099,0.305,0.183,0.61,599.61
100848,140004,7658,-0.018,-0.961,-0.104,0.305,0.183,0.61,599.616
100826,139809,19647,-0.016,-0.957,-0.101,0,0.305,0.61,599.619
100826,139992,7667,-0.016,-0.96,-0.102,0,0.305,0.61,599.626
100851,139809,19647,-0.016,-0.959,-0.104,-0.244,0.427,0.488,599.629
100851,140007,7659,-0.015,-0.957,-0.102,-0.244,0.427,0.488,599.636
100859,139809,19647,-0.013,-0.954,-0.1,-0.488,0.671,0.427,599.639
100859,140012,7647,-0.01,-0.958,-0.097,-0.488,0.671,0.427,599.645
100844,139809,19647,-0.013,-0.958,-0.102,-0.671,0.793,0.488,599.649
100844,139985,7659,-0.011,-0.962,-0.102,-0.671,0.793,0.488,599.655
100846,139809,19647,-0.015,-0.962,-0.104,-0.793,0.854,0.366,599.659
100846,139997,7652,-0.012,-0.96,-0.105,-0.793,0.854,0.366,599.665
100856,139809,19647,-0.012,-0.96,-0.105,-0.793,0.854,0.366,599.669
100856,139972,7665,-0.017,-0.958,-0.104,-0.793,0.854,0.488,599.675
100841,139809,19647,-0.017,-0.958,-0.104,-0.793,0.854,0.488,599.679
100841,140015,7672,-0.016,-0.96,-0.104,-0.488,0.671,0.488,599.685
100846,139809,19647,-0.016,-0.96,-0.104,-0.488,0.671,0.488,599.689
100846,140000,7664,-0.018,-0.961,-0.107,-0.061,0.488,0.366,599.695
100841,139809,19647,-0.018,-0.961,-0.107,-0.061,0.488,0.366,599.699
100841,139991,7654,-0.014,-0.958,-0.103,0,0.427,0.305,599.705
100848,139809,19647,-0.014,-0.958,-0.103,0,0.427,0.305,599.709
100848,139994,7663,-0.015,-0.96,-0.107,0,0.366,0.366,599.715
100853,139809,19647,-0.015,-0.96,-0.107,0,0.366,0.366,599.718
100853,140008,7677,-0.014,-0.962,-0.102,0.122,0.183,0.366,599.725
100845,139809,19647,-0.014,-0.962,-0.102,0.122,0.183,0.366,599.728
100845,140009,7664,-0.014,-0.963,-0.104,0.061,0.244,0.427,599.735
100852,139809,19647,-0.014,-0.963,-0.104,0.061,0.244,0.427,599.738
100852,140028,7657,-0.018,-0.961,-0.1,0.061,0.244,0.549,599.744
100839,139809,19647,-0.018,-0.961,-0.1,0.061,0.244,0.549,599.748
100839,140021,7670,-0.015,-0.958,-0.1,0.122,0.244,0.671,599.754
100853,139809,19647,-0.015,-0.958,-0.1,0.122,0.244,0.671,599.758
100853,139992,7651,-0.016,-0.957,-0.103,-0.183,0.244,0.61,599.764
100851,139809,19647,-0.016,-0.957,-0.103,-0.183,0.244,0.61,599.768
100851,140006,7674,-0.012,-0.958,-0.102,-0.549,0.488,0.732,599.774
100851,139809,19647,-0.012,-0.958,-0.102,-0.549,0.488,0.732,599.778
100851,140011,7663,-0.018,-0.958,-0.102,-0.671,0.61,0.61,599.784
100866,139809,19647,-0.018,-0.958,-0.102,-0.671,0.61,0.61,599.788
100866,139998,7642,-0.015,-0.96,-0.103,-0.732,0.732,0.549,599.794
100854,139809,19647,-0.015,-0.96,-0.103,-0.732,0.732,0.549,599.798
100854,140014,7656,-0.013,-0.959,-0.104,-0.732,0.793,0.366,599.804
100850,139809,19647,-0.013,-0.959,-0.104,-0.732,0.793,0.366,599.808
100850,140014,7658,-0.017,-0.963,-0.105,-0.427,0.732,0.427,599.814
100866,139809,19647,-0.017,-0.963,-0.105,-0.427,0.732,0.427,599.817
100866,139997,7669,-0.018,-0.96,-0.104,-0.305,0.671,0.488,599.824
100822,139809,19647,-0.016,-0.962,-0.105,-0.305,0.671,0.488,599.827
100822,140004,7663,-0.017,-0.96,-0.104,-0.183,0.61,0.427,599.834
100860,140065,19647,-0.017,-0.96,-0.101,-0.183,0.61,0.427,599.837
100860,140036,7663,-0.014,-0.962,-0.108,-0.183,0.427,0.488,599.843
100848,139809,19647,-0.017,-0.962,-0.107,-0.183,0.427,0.488,599.847
100848,139988,7668,-0.019,-0.962,-0.104,-0.122,0.305,0.549,599.853
100844,139809,19647,-0.015,-0.958,-0.102,-0.122,0.305,0.549,599.857
100844,140001,7672,-0.017,-0.958,-0.104,-0.061,0.244,0.549,599.863
100859,139809,19647,-0.015,-0.959,-0.103,-0.061,0.244,0.549,599.867
100859,139979,7668,-0.015,-0.957,-0.103,-0.061,0.305,0.549,599.873
100841,139809,19647,-0.018,-0.959,-0.105,-0.061,0.305,0.549,599.877
100841,139978,7655,-0.018,-0.959,-0.107,-0.122,0.366,0.61,599.883
100827,139809,19647,-0.014,-0.959,-0.108,-0.122,0.366,0.61,599.887
100827,139960,7657,-0.016,-0.958,-0.103,-0.183,0.305,0.488,599.893
100827,139809,19647,-0.017,-0.958,-0.104,-0.183,0.305,0.488,599.897
100827,139966,7662,-0.014,-0.959,-0.106,-0.122,0.366,0.366,599.903
100815,139809,19647,-0.012,-0.959,-0.106,-0.122,0.366,0.366,599.907
100815,139946,7660,-0.015,-0.96,-0.104,-0.183,0.427,0.305,599.913
100824,139809,19647,-0.015,-0.961,-0.104,-0.183,0.427,0.305,599.916
100824,139956,7664,-0.019,-0.96,-0.108,-0.244,0.427,0.427,599.923
100801,139809,19647,-0.017,-0.962,-0.11,-0.244,0.427,0.427,599.926
100801,139971,7674,-0.016,-0.96,-0.104,-0.366,0.488,0.305,599.933
100823,139809,19647,-0.019,-0.961,-0.107,-0.366,0.488,0.305,599.936
100823,139960,7649,-0.015,-0.96,-0.109,-0.305,0.488,0.305,599.942
100807,139809,19647,-0.016,-0.962,-0.106,-0.305,0.488,0.305,599.946
100807,139956,7660,-0.015,-0.961,-0.106,-0.122,0.427,0.183,599.952
100809,139809,19647,-0.015,-0.961,-0.104,-0.122,0.427,0.183,599.956
100809,139949,7655,-0.016,-0.963,-0.104,0.061,0.366,0.244,599.962
100818,139809,19647,-0.014,-0.96,-0.104,0.061,0.366,0.244,599.966
100818,139952,7648,-0.014,-0.96,-0.101,0.122,0.488,0.244,599.972
100804,139809,19647,-0.017,-0.96,-0.103,0.122,0.488,0.244,599.976
100804,139950,7670,-0.014,-0.96,-0.105,0.244,0.427,0.244,599.982
100827,139809,19647,-0.014,-0.958,-0.104,0.244,0.427,0.244,599.986
100827,139985,7655,-0.011,-0.958,-0.105,0.061,0.488,0.305,599.992
100807,139809,19647,-0.013,-0.96,-0.101,0.061,0.488,0.305,599.996
100807,139971,7676,-0.014,-0.96,-0.101,-0.183,0.549,0.366,600.002
100822,139809,19647,-0.014,-0.96,-0.1,-0.183,0.549,0.366,600.006
100822,139987,7654,-0.014,-0.96,-0.102,-0.488,0.488,0.488,600.012
100815,139809,19647,-0.015,-0.962,-0.101,-0.488,0.488,0.488,600.015
100815,139983,7672,-0.016,-0.959,-0.103,-0.488,0.427,0.61,600.022
100834,139809,19647,-0.017,-0.96,-0.103,-0.488,0.427,0.61,600.025
100834,139998,7653,-0.017,-0.958,-0.102,-0.549,0.549,0.671,600.032
100819,139809,19647,-0.016,-0.959,-0.105,-0.549,0.549,0.671,600.035
100819,139972,7661,-0.016,-0.962,-0.104,-0.366,0.488,0.488,600.041
100828,139809,19647,-0.016,-0.96,-0.101,-0.366,0.488,0.488,600.045
100828,139972,7664,-0.017,-0.959,-0.103,-0.244,0.366,0.488,600.051
100825,139809,19647,-0.015,-0.962,-0.101,-0.244,0.366,0.488,600.055
100825,139972,7667,-0.015,-0.958,-0.101,-0.183,0.488,0.488,600.061
100829,139809,19647,-0.017,-0.959,-0.105,-0.183,0.488,0.488,600.065
100829,139982,7654,-0.019,-0.958,-0.107,-0.305,0.488,0.427,600.071
100842,139809,19647,-0.018,-0.958,-0.103,-0.305,0.488,0.427,600.075
100842,139962,7659,-0.017,-0.958,-0.1,-0.061,0.427,0.305,600.081
100827,139809,19647,-0.016,-0.958,-0.102,-0.061,0.427,0.305,600.085
100827,139977,7673,-0.014,-0.961,-0.107,-0.305,0.488,0.244,600.091
100821,139809,19647,-0.018,-0.961,-0.107,-0.305,0.488,0.244,600.095
100821,139965,7654,-0.018,-0.96,-0.103,-0.427,0.488,0.305,600.101
100826,139809,19647,-0.017,-0.963,-0.108,-0.427,0.488,0.305,600.105
100826,139957,7662,-0.017,-0.96,-0.104,-0.244,0.549,0.305,600.111
100830,139809,19647,-0.017,-0.958,-0.105,-0.244,0.549,0.305,600.114
100830,139969,7663,-0.015,-0.956,-0.105,-0.183,0.427,0.244,600.121
100820,139809,19647,-0.013,-0.959,-0.108,-0.183,0.427,0.244,600.124
100820,139959,7663,-0.013,-0.962,-0.107,0.061,0.366,0.122,600.131
100837,139809,19647,-0.016,-0.963,-0.106,0.061,0.366,0.122,600.134
100837,139950,7672,-0.018,-0.962,-0.103,0,0.366,0.183,600.14
100794,139809,19647,-0.014,-0.96,-0.106,0,0.366,0.183,600.144
100794,139964,7667,-0.011,-0.958,-0.108,0.061,0.244,0.244,600.15
100816,139809,19647,-0.012,-0.96,-0.102,0.061,0.244,0.244,600.154
100816,139988,7647,-0.014,-0.959,-0.102,0,0.305,0.305,600.16
100823,139809,19647,-0.017,-0.96,-0.106,0,0.305,0.305,600.164
100823,139973,7654,-0.015,-0.961,-0.104,-0.122,0.305,0.366,600.17
100825,139809,19647,-0.016,-0.964,-0.105,-0.122,0.305,0.366,600.174
100825,139962,7663,-0.014,-0.964,-0.106,-0.061,0.244,0.427,600.18
100824,139809,19647,-0.016,-0.962,-0.105,-0.061,0.244,0.427,600.184
100824,139984,7670,-0.018,-0.96,-0.098,0.061,0.244,0.366,600.19
100805,139809,19647,-0.016,-0.957,-0.099,0.061,0.244,0.366,600.194
100805,139982,7658,-0.015,-0.958,-0.1,0,0.305,0.305,600.2
100824,139809,19647,-0.016,-0.961,-0.102,0,0.305,0.305,600.204
100824,139969,7655,-0.018,-0.96,-0.099,-0.244,0.488,0.366,600.21
100816,139809,19647,-0.017,-0.964,-0.1,-0.244,0.488,0.366,600.214
100816,139985,7661,-0.016,-0.964,-0.102,-0.366,0.488,0.366,600.22
100822,139809,19647,-0.016,-0.964,-0.103,-0.366,0.488,0.366,600.223
100822,139977,7666,-0.016,-0.96,-0.101,-0.305,0.549,0.366,600.23
100814,139809,19647,-0.017,-0.96,-0.103,-0.305,0.549,0.366,600.233
100814,139966,7657,-0.016,-0.958,-0.104,-0.183,0.61,0.488,600.239
100833,139809,19647,-0.015,-0.957,-0.102,-0.183,0.61,0.488,600.243
100833,139993,7663,-0.014,-0.961,-0.102,-0.183,0.61,0.427,600.249
100831,139809,19647,-0.016,-0.962,-0.105,-0.183,0.61,0.427,600.253
100831,139978,7659,-0.016,-0.96,-0.104,-0.366,0.61,0.427,600.259
100828,139809,19647,-0.016,-0.96,-0.104,-0.366,0.61,0.427,600.263
100828,139964,7658,-0.014,-0.96,-0.104,-0.549,0.61,0.427,600.269
100821,139809,19647,-0.014,-0.96,-0.104,-0.549,0.61,0.427,600.273
100821,139991,7667,-0.016,-0.956,-0.103,-0.427,0.549,0.488,600.279
100833,139809,19647,-0.016,-0.956,-0.103,-0.427,0.549,0.488,600.283
100833,139986,7667,-0.015,-0.959,-0.109,-0.366,0.488,0.488,600.289
100836,139809,19647,-0.015,-0.959,-0.109,-0.366,0.488,0.488,600.293
100836,139973,7658,-0.016,-0.962,-0.106,-0.244,0.427,0.427,600.299
100832,139809,19647,-0.016,-0.962,-0.106,-0.244,0.427,0.427,600.303
100832,139971,7661,-0.014,-0.96,-0.107,0,0.366,0.305,600.309
100829,139809,19647,-0.014,-0.96,-0.107,0,0.366,0.305,600.312
100829,139977,7651,-0.019,-0.959,-0.101,0.122,0.305,0.305,600.319
100835,139809,19647,-0.019,-0.959,-0.101,0.122,0.305,0.305,600.322
100835,139977,7658,-0.016,-0.958,-0.105,0.122,0.305,0.427,600.329
100811,139809,19647,-0.016,-0.958,-0.105,0.122,0.305,0.427,600.332
100811,139979,7655,-0.013,-0.966,-0.106,-0.122,0.305,0.488,600.339
100823,139809,19647,-0.013,-0.966,-0.106,-0.122,0.305,0.488,600.342
100823,139964,7657,-0.018,-0.959,-0.105,-0.244,0.244,0.427,600.348
100828,139809,19647,-0.018,-0.959,-0.105,-0.244,0.244,0.427,600.352
100828,139957,7653,-0.016,-0.96,-0.106,-0.244,0.183,0.366,600.358
100833,139809,19647,-0.016,-0.96,-0.106,-0.244,0.183,0.366,600.362
100833,139987,7671,-0.019,-0.963,-0.099,-0.183,0.244,0.305,600.368
100833,139809,19647,-0.019,-0.963,-0.099,-0.183,0.244,0.305,600.372
100833,139962,7652,-0.017,-0.958,-0.102,0,0.244,0.244,600.378
100841,139809,19647,-0.017,-0.958,-0.102,0,0.244,0.244,600.382
100841,140002,7658,-0.018,-0.961,-0.103,0.244,0.244,0.122,600.388
100838,139809,19647,-0.018,-0.961,-0.103,0.244,0.244,0.122,600.392
100838,139961,7665,-0.018,-0.959,-0.102,0.305,0.366,0.183,600.398
100829,139809,19647,-0.018,-0.959,-0.102,0.305,0.366,0.183,600.402
100829,140002,7649,-0.016,-0.962,-0.102,0.305,0.366,0.183,600.408
100858,139809,19647,-0.014,-0.962,-0.104,0.122,0.305,0.244,600.411
100858,139974,7659,-0.017,-0.961,-0.103,0.122,0.305,0.244,600.418
100832,139809,19647,-0.016,-0.959,-0.104,0.122,0.244,0.244,600.421
100832,139986,7667,-0.012,-0.957,-0.105,0.122,0.244,0.244,600.428
100828,139809,19647,-0.012,-0.956,-0.105,0,0.366,0.183,600.431
100828,139976,7651,-0.011,-0.955,-0.102,0,0.366,0.183,600.437
100854,139809,19647,-0.009,-0.958,-0.102,-0.305,0.488,0.244,600.441
100854,139995,7680,-0.008,-0.957,-0.104,-0.305,0.488,0.244,600.447
100847,139809,19647,-0.01,-0.96,-0.104,-0.671,0.732,0.183,600.451
100847,140005,7670,-0.01,-0.961,-0.103,-0.671,0.732,0.183,600.457
100849,139809,19647,-0.011,-0.958,-0.105,-0.61,0.854,0.183,600.461
100849,139981,7676,-0.012,-0.961,-0.103,-0.61,0.854,0.183,600.467
100841,139809,19647,-0.014,-0.963,-0.107,-0.488,0.732,0.244,600.471
100841,139979,7671,-0.016,-0.964,-0.105,-0.488,0.732,0.244,600.477
100847,139809,19647,-0.016,-0.967,-0.106,-0.244,0.61,0.366,600.481
100847,139980,7669,-0.018,-0.964,-0.107,-0.244,0.61,0.366,600.487
100838,139809,19647,-0.019,-0.961,-0.106,-0.183,0.366,0.488,600.491
100838,139993,7671,-0.019,-0.962,-0.103,-0.183,0.366,0.488,600.497
100846,139809,19647,-0.018,-0.96,-0.103,-0.122,0.061,0.549,600.501
100846,140011,7648,-0.017,-0.959,-0.101,-0.122,0.061,0.549,600.507
100846,139809,19647,-0.02,-0.96,-0.104,-0.244,0.122,0.61,600.51
100846,139993,7659,-0.018,-0.961,-0.105,-0.244,0.122,0.61,600.517
100841,139809,19647,-0.018,-0.963,-0.102,-0.244,0.061,0.671,600.52
100841,140012,7667,-0.018,-0.961,-0.104,-0.244,0.061,0.671,600.527
100865,139809,19647,-0.019,-0.962,-0.103,-0.061,0.061,0.427,600.53
100865,139980,7664,-0.016,-0.961,-0.1,-0.061,0.061,0.427,600.536
100864,139809,19647,-0.016,-0.957,-0.102,0.244,0.183,0.305,600.54
100864,139999,7674,-0.013,-0.956,-0.102,0.244,0.183,0.305,600.546
100856,139809,19647,-0.014,-0.955,-0.099,0.427,0.305,0.183,600.55
100856,139988,7669,-0.012,-0.957,-0.102,0.427,0.305,0.183,600.556
100881,139809,19647,-0.012,-0.96,-0.103,0.122,0.427,0.183,600.56
100881,139992,7655,-0.012,-0.962,-0.103,0.122,0.427,0.183,600.566
100874,139809,19647,-0.013,-0.959,-0.102,-0.366,0.549,0.183,600.57
100874,140013,7665,-0.015,-0.961,-0.104,-0.366,0.549,0.183,600.576
100861,139809,19647,-0.015,-0.96,-0.104,-0.61,0.61,0.244,600.58
100861,140002,7665,-0.013,-0.961,-0.103,-0.61,0.61,0.244,600.586
100842,139809,19647,-0.016,-0.961,-0.103,-0.732,0.549,0.305,600.59
100842,140018,7670,-0.015,-0.959,-0.105,-0.732,0.549,0.305,600.596
100869,139809,19647,-0.015,-0.964,-0.105,-0.671,0.488,0.366,600.6
100869,140005,7660,-0.019,-0.962,-0.105,-0.671,0.488,0.366,600.606
100860,139809,19647,-0.018,-0.96,-0.108,-0.427,0.366,0.427,600.609
100860,139997,7660,-0.016,-0.961,-0.109,-0.427,0.366,0.427,600.616
100861,139809,19647,-0.017,-0.959,-0.107,-0.061,0.183,0.488,600.619
100861,140012,7681,-0.017,-0.954,-0.106,-0.061,0.183,0.488,600.626
100864,139809,19647,-0.014,-0.958,-0.1,0,0.122,0.305,600.629
100864,140011,7666,-0.014,-0.961,-0.103,0,0.122,0.305,600.635
100852,139809,19647,-0.013,-0.962,-0.102,-0.061,0.244,0.305,600.639
100852,140026,7658,-0.014,-0.96,-0.105,-0.061,0.244,0.305,600.645
100868,139809,19647,-0.014,-0.964,-0.103,0.061,0.244,0.305,600.649
100868,140024,7667,-0.014,-0.966,-0.101,0.061,0.244,0.305,600.655
100855,139809,19647,-0.012,-0.962,-0.103,0.061,0.183,0.488,600.659
100855,140012,7667,-0.013,-0.959,-0.102,0.061,0.183,0.488,600.665
100862,140065,19647,-0.013,-0.962,-0.103,0.061,0.244,0.488,600.669
100862,140042,7666,-0.017,-0.963,-0.101,0.061,0.244,0.488,600.675
100884,139809,19647,-0.015,-0.961,-0.1,-0.122,0.366,0.61,600.679
100884,140001,7662,-0.016,-0.959,-0.099,-0.122,0.366,0.61,600.685
100868,139809,19647,-0.016,-0.957,-0.102,-0.305,0.427,0.488,600.689
100868,140014,7676,-0.014,-0.957,-0.102,-0.305,0.427,0.488,600.695
100874,139809,19647,-0.013,-0.956,-0.103,-0.549,0.61,0.549,600.699
100874,140024,7682,-0.014,-0.956,-0.102,-0.549,0.61,0.549,600.705
100862,139809,19647,-0.014,-0.958,-0.101,-0.732,0.793,0.549,600.708
100862,140006,7673,-0.01,-0.962,-0.099,-0.732,0.793,0.549,600.715
100871,140065,19647,-0.013,-0.963,-0.102,-0.793,0.793,0.488,600.718
100871,140041,7665,-0.012,-0.963,-0.104,-0.793,0.793,0.488,600.725
100870,139809,19647,-0.015,-0.963,-0.104,-0.61,0.793,0.549,600.728
100870,140018,7675,-0.017,-0.96,-0.105,-0.61,0.793,0.549,600.734
100876,139809,19647,-0.018,-0.959,-0.106,-0.427,0.793,0.671,600.738
100876,140027,7677,-0.015,-0.958,-0.107,-0.427,0.793,0.671,600.744
100863,139809,19647,-0.016,-0.964,-0.105,-0.427,0.671,0.732,600.748
100863,140025,7675,-0.018,-0.962,-0.107,-0.427,0.671,0.732,600.754
100867,139809,19647,-0.02,-0.96,-0.107,-0.427,0.549,0.671,600.758
100867,140017,7668,-0.017,-0.959,-0.105,-0.427,0.549,0.671,600.764
100846,139809,19647,-0.019,-0.96,-0.108,-0.427,0.427,0.488,600.768
100846,140001,7675,-0.019,-0.959,-0.11,-0.427,0.427,0.488,600.774
100866,139809,19647,-0.019,-0.956,-0.106,-0.244,0.305,0.366,600.778
100866,140001,7658,-0.02,-0.96,-0.107,-0.244,0.305,0.366,600.784
100862,139809,19647,-0.02,-0.964,-0.105,0,0.244,0.366,600.788
100862,140008,7663,-0.014,-0.96,-0.107,0,0.244,0.366,600.794
100838,139809,19647,-0.016,-0.958,-0.106,0.183,0.122,0.305,600.798
100838,139984,7669,-0.016,-0.959,-0.108,0.183,0.122,0.305,600.804
100821,139809,19647,-0.015,-0.959,-0.103,0.366,0.122,0.183,600.807
100821,139990,7669,-0.012,-0.959,-0.104,0.366,0.122,0.183,600.814
100843,139809,19647,-0.014,-0.958,-0.105,0.366,0.122,0.122,600.817
100843,139983,7664,-0.013,-0.96,-0.106,0.366,0.122,0.122,600.824
100843,139809,19647,-0.013,-0.956,-0.104,0.244,0.183,0.183,600.827
100843,139949,7680,-0.011,-0.961,-0.102,0.244,0.183,0.183,600.833
100825,139809,19647,-0.011,-0.961,-0.104,-0.061,0.244,0.244,600.837
100825,139976,7671,-0.014,-0.959,-0.101,-0.061,0.244,0.244,600.843
100832,139809,19647,-0.012,-0.959,-0.101,-0.122,0.305,0.183,600.847
100832,139954,7692,-0.013,-0.961,-0.102,-0.122,0.305,0.183,600.853
100842,139809,19647,-0.013,-0.961,-0.102,-0.122,0.305,0.183,600.857
100842,139972,7676,-0.014,-0.959,-0.102,-0.183,0.366,0.244,600.863
100818,139809,19647,-0.014,-0.959,-0.102,-0.183,0.366,0.244,600.867
100818,139982,7667,-0.014,-0.962,-0.103,-0.183,0.366,0.305,600.873
100837,139809,19647,-0.014,-0.962,-0.103,-0.183,0.366,0.305,600.877
100837,139956,7659,-0.015,-0.96,-0.104,-0.122,0.366,0.305,600.883
100819,139809,19647,-0.015,-0.96,-0.104,-0.122,0.366,0.305,600.887
100819,139973,7666,-0.013,-0.957,-0.103,-0.244,0.427,0.305,600.893
100830,139809,19647,-0.013,-0.957,-0.103,-0.244,0.427,0.305,600.897
100830,139963,7651,-0.011,-0.958,-0.105,-0.366,0.427,0.366,600.903
100831,139809,19647,-0.011,-0.958,-0.105,-0.366,0.427,0.366,600.906
100831,139963,7654,-0.015,-0.96,-0.106,-0.427,0.427,0.366,600.913
100838,139809,19647,-0.015,-0.96,-0.106,-0.427,0.427,0.366,600.916
100838,139964,7668,-0.015,-0.958,-0.104,-0.427,0.366,0.305,600.923
100826,139809,19647,-0.015,-0.958,-0.104,-0.427,0.366,0.305,600.926
100826,140001,7659,-0.018,-0.961,-0.102,-0.305,0.427,0.244,600.932
100829,139809,19647,-0.018,-0.961,-0.102,-0.305,0.427,0.244,600.936
100829,139957,7662,-0.017,-0.959,-0.103,-0.122,0.427,0.244,600.942
100836,139809,19647,-0.017,-0.959,-0.103,-0.122,0.427,0.244,600.946
100836,139994,7662,-0.018,-0.962,-0.107,-0.244,0.366,0.244,600.952
100815,139809,19647,-0.018,-0.962,-0.107,-0.244,0.366,0.244,600.956
100815,139981,7671,-0.016,-0.959,-0.104,-0.305,0.366,0.366,600.962
100843,139809,19647,-0.016,-0.959,-0.104,-0.305,0.366,0.366,600.966
100843,139979,7663,-0.018,-0.96,-0.103,-0.122,0.244,0.244,600.972
100829,139809,19647,-0.018,-0.96,-0.103,-0.122,0.244,0.244,600.976
100829,139976,7668,-0.014,-0.96,-0.105,-0.366,0.183,0.244,600.982
100830,139809,19647,-0.014,-0.96,-0.105,-0.366,0.183,0.244,600.986
100830,139985,7673,-0.016,-0.96,-0.106,-0.183,0.183,0.244,600.992
100835,139809,19647,-0.016,-0.96,-0.106,-0.183,0.183,0.244,600.996
100835,139982,7678,-0.019,-0.962,-0.104,-0.244,0.061,0.305,601.002
100828,139809,19647,-0.018,-0.96,-0.105,-0.244,0.061,0.305,601.006
100828,139992,7657,-0.016,-0.96,-0.103,-0.183,0.061,0.244,601.012
100818,139809,19647,-0.017,-0.96,-0.101,-0.183,0.061,0.244,601.015
100818,139969,7669,-0.017,-0.961,-0.104,-0.122,0.122,0.183,601.022
100830,139809,19647,-0.017,-0.959,-0.105,-0.122,0.122,0.183,601.025
100830,139954,7666,-0.015,-0.956,-0.105,-0.122,0.122,0.183,601.031
100823,139809,19647,-0.018,-0.961,-0.103,-0.122,0.122,0.183,601.035
100823,139976,7668,-0.012,-0.959,-0.103,-0.122,0.183,0.183,601.041
100820,139809,19647,-0.018,-0.957,-0.105,-0.122,0.183,0.183,601.045
100820,139963,7665,-0.013,-0.959,-0.107,-0.122,0.244,0.122,601.051
100825,139809,19647,-0.013,-0.961,-0.104,-0.122,0.244,0.122,601.055
100825,139985,7649,-0.016,-0.964,-0.106,-0.183,0.183,0.183,601.061
100817,139809,19647,-0.016,-0.961,-0.104,-0.183,0.183,0.183,601.065
100817,139955,7664,-0.016,-0.959,-0.103,-0.061,0.122,0.122,601.071
100830,139809,19647,-0.016,-0.96,-0.104,-0.061,0.122,0.122,601.075
100830,139972,7661,-0.016,-0.959,-0.101,0,0.183,0.122,601.081
100842,139809,19647,-0.014,-0.959,-0.1,0,0.183,0.122,601.085
100842,139974,7653,-0.014,-0.96,-0.1,-0.061,0.183,0.061,601.091
100829,139809,19647,-0.016,-0.958,-0.102,-0.061,0.183,0.061,601.095
100829,139971,7654,-0.015,-0.961,-0.102,0,0.183,0.122,601.101
100830,139809,19647,-0.014,-0.96,-0.104,0,0.183,0.122,601.104
100830,140000,7653,-0.013,-0.962,-0.103,0.122,0.183,0.122,601.111
100826,139809,19647,-0.012,-0.96,-0.101,0.122,0.183,0.122,601.114
100826,139971,7679,-0.013,-0.96,-0.098,0,0.183,0.244,601.121
100849,139809,19647,-0.013,-0.962,-0.1,0,0.183,0.244,601.124
100849,139956,7656,-0.013,-0.962,-0.1,-0.183,0.244,0.244,601.13
100833,139809,19647,-0.013,-0.962,-0.102,-0.183,0.244,0.244,601.134
100833,139983,7668,-0.015,-0.962,-0.105,-0.488,0.244,0.305,601.14
100839,139809,19647,-0.014,-0.963,-0.102,-0.488,0.244,0.305,601.144
100839,139975,7652,-0.015,-0.961,-0.104,-0.488,0.305,0.427,601.15
100826,139809,19647,-0.014,-0.959,-0.101,-0.488,0.305,0.427,601.154
100826,139976,7666,-0.014,-0.958,-0.104,-0.427,0.366,0.488,601.16
100839,139809,19647,-0.017,-0.954,-0.104,-0.427,0.366,0.488,601.164
100839,139974,7656,-0.016,-0.959,-0.103,-0.366,0.427,0.366,601.17
100831,139809,19647,-0.012,-0.961,-0.103,-0.366,0.427,0.366,601.174
100831,139975,7663,-0.015,-0.962,-0.104,-0.488,0.488,0.427,601.18
100829,139809,19647,-0.016,-0.96,-0.104,-0.488,0.488,0.427,601.184
100829,139960,7671,-0.014,-0.961,-0.105,-0.488,0.549,0.488,601.19
100818,139809,19647,-0.015,-0.96,-0.107,-0.488,0.549,0.488,601.194
100818,139978,7662,-0.015,-0.96,-0.103,-0.549,0.549,0.427,601.2
100849,139809,19647,-0.014,-0.962,-0.103,-0.549,0.549,0.427,601.204
100849,139971,7676,-0.014,-0.963,-0.105,-0.549,0.427,0.427,601.21
100843,139809,19647,-0.014,-0.958,-0.106,-0.549,0.427,0.427,601.213
100843,139974,7669,-0.015,-0.959,-0.104,-0.427,0.427,0.427,601.22
100840,139809,19647,-0.016,-0.961,-0.106,-0.427,0.427,0.427,601.223
100840,139976,7661,-0.018,-0.96,-0.104,-0.366,0.366,0.366,601.229
100859,139809,19647,-0.018,-0.959,-0.105,-0.366,0.366,0.366,601.233
100859,139976,7655,-0.015,-0.956,-0.104,-0.305,0.305,0.427,601.239
100828,139809,19647,-0.016,-0.959,-0.103,-0.305,0.305,0.427,601.243
100828,139977,7671,-0.016,-0.958,-0.108,-0.183,0.244,0.366,601.249
100836,139809,19647,-0.017,-0.96,-0.104,-0.183,0.244,0.366,601.253
100836,139993,7662,-0.017,-0.958,-0.104,-0.061,0.244,0.244,601.259
100841,139809,19647,-0.016,-0.959,-0.102,-0.061,0.244,0.244,601.263
100841,139987,7665,-0.015,-0.957,-0.105,0.122,0.244,0.183,601.269
100827,139809,19647,-0.013,-0.959,-0.105,0.122,0.244,0.183,601.273
100827,139990,7677,-0.017,-0.962,-0.104,0.122,0.183,0.183,601.279
100828,139809,19647,-0.016,-0.962,-0.101,0.122,0.183,0.183,601.283
100828,139993,7676,-0.013,-0.963,-0.104,0.061,0.122,0.122,601.289
100828,139809,19647,-0.015,-0.957,-0.103,0.061,0.122,0.122,601.293
100828,139993,7678,-0.015,-0.959,-0.103,-0.183,0.122,0.122,601.299
100846,139809,19647,-0.014,-0.96,-0.101,-0.183,0.122,0.122,601.303
100846,139987,7664,-0.015,-0.961,-0.101,-0.427,0.122,0.244,601.309
100854,139809,19647,-0.014,-0.959,-0.104,-0.427,0.122,0.244,601.312
100854,139971,7667,-0.015,-0.962,-0.104,-0.244,0.183,0.183,601.319
100856,139809,19647,-0.017,-0.959,-0.106,-0.244,0.183,0.183,601.322
100856,139999,7674,-0.014,-0.959,-0.105,-0.122,0.244,0.183,601.329
100858,139809,19647,-0.015,-0.96,-0.106,-0.122,0.244,0.183,601.332
100858,139955,7676,-0.014,-0.959,-0.103,-0.061,0.183,0.183,601.338
100843,139809,19647,-0.016,-0.96,-0.102,-0.061,0.183,0.183,601.342
100843,139981,7664,-0.014,-0.961,-0.104,0,0.183,0.061,601.348
100862,139809,19647,-0.015,-0.964,-0.104,0,0.183,0.061,601.352
100862,139968,7665,-0.014,-0.962,-0.104,-0.122,0.183,0.122,601.358
100840,139809,19647,-0.014,-0.963,-0.104,-0.122,0.183,0.122,601.362
100840,139977,7676,-0.016,-0.959,-0.106,0,0.244,0.122,601.368
100837,139809,19647,-0.016,-0.96,-0.106,0,0.244,0.122,601.372
100837,139970,7670,-0.017,-0.961,-0.102,0.183,0.061,0.122,601.378
100854,139809,19647,-0.013,-0.963,-0.101,0.183,0.061,0.122,601.382
100854,139984,7663,-0.014,-0.963,-0.1,0.183,0.244,0.183,601.388
100850,139809,19647,-0.017,-0.963,-0.106,0.183,0.244,0.183,601.392
100850,139988,7657,-0.016,-0.96,-0.106,0.061,0.305,0.305,601.398
100835,139809,19647,-0.016,-0.958,-0.104,0.061,0.305,0.305,601.402
100835,139978,7668,-0.011,-0.958,-0.109,-0.061,0.244,0.244,601.408
100859,139809,19647,-0.011,-0.957,-0.106,-0.061,0.244,0.244,601.411
100859,139992,7659,-0.009,-0.958,-0.104,-0.061,0.427,0.183,601.418
100840,139809,19647,-0.012,-0.955,-0.103,-0.061,0.427,0.183,601.421
100840,140004,7672,-0.013,-0.956,-0.103,-0.244,0.549,0.122,601.427
100842,139809,19647,-0.009,-0.957,-0.103,-0.244,0.549,0.122,601.431
100842,139977,7671,-0.009,-0.958,-0.101,-0.366,0.671,0.061,601.437
100862,139809,19647,-0.009,-0.958,-0.103,-0.366,0.671,0.061,601.441
100862,139957,7666,-0.009,-0.961,-0.101,-0.488,0.732,0.183,601.447
100847,139809,19647,-0.009,-0.961,-0.101,-0.488,0.732,0.183,601.451
100847,139977,7673,-0.011,-0.963,-0.106,-0.488,0.732,0.244,601.457
100863,139809,19647,-0.011,-0.963,-0.106,-0.488,0.732,0.244,601.461
100863,139999,7658,-0.016,-0.963,-0.104,-0.488,0.549,0.305,601.467
100835,139809,19647,-0.016,-0.963,-0.104,-0.488,0.549,0.305,601.471
100835,139995,7659,-0.018,-0.963,-0.104,-0.244,0.305,0.366,601.477
100844,139809,19647,-0.018,-0.963,-0.104,-0.244,0.305,0.366,601.481
100844,139993,7660,-0.023,-0.962,-0.103,-0.244,0.122,0.488,601.487
100846,139809,19647,-0.023,-0.962,-0.103,-0.244,0.122,0.488,601.491
100846,140000,7674,-0.019,-0.962,-0.106,-0.244,0,0.61,601.497
100855,139809,19647,-0.019,-0.962,-0.106,-0.244,0,0.61,601.501
100855,140011,7677,-0.022,-0.96,-0.106,-0.183,-0.061,0.488,601.507
100853,139809,19647,-0.022,-0.96,-0.106,-0.183,-0.061,0.488,601.51
100853,140000,7654,-0.018,-0.96,-0.101,-0.061,-0.061,0.305,601.517
100840,139809,19647,-0.018,-0.96,-0.101,-0.061,-0.061,0.305,601.52
100840,140009,7665,-0.016,-0.958,-0.102,0.061,0.061,0.244,601.527
100866,139809,19647,-0.016,-0.958,-0.102,0.061,0.061,0.244,601.53
100866,139997,7682,-0.014,-0.958,-0.103,0.183,0.244,0.061,601.536
100854,139809,19647,-0.014,-0.958,-0.103,0.183,0.244,0.061,601.54
100854,139984,7670,-0.014,-0.957,-0.104,0.061,0.305,-0.061,601.546
100848,139809,19647,-0.014,-0.957,-0.104,0.061,0.305,-0.061,601.55
100848,139979,7673,-0.008,-0.958,-0.102,-0.183,0.488,-0.061,601.556
100863,139809,19647,-0.008,-0.958,-0.102,-0.183,0.488,-0.061,601.56
100863,139992,7663,-0.011,-0.959,-0.1,-0.488,0.549,-0.061,601.566
100855,139809,19647,-0.011,-0.959,-0.1,-0.488,0.549,-0.061,601.57
100855,140022,7675,-0.009,-0.959,-0.106,-0.61,0.488,0.122,601.576
100875,139809,19647,-0.009,-0.959,-0.106,-0.61,0.488,0.122,601.58
100875,140023,7677,-0.014,-0.959,-0.106,-0.732,0.366,0.183,601.586
100860,139809,19647,-0.014,-0.959,-0.106,-0.732,0.366,0.183,601.59
100860,139991,7676,-0.018,-0.962,-0.106,-0.732,0.366,0.183,601.596
100852,139809,19647,-0.015,-0.961,-0.104,-0.427,0.183,0.183,601.6
100852,140008,7673,-0.014,-0.963,-0.105,-0.427,0.183,0.183,601.606
100880,139809,19647,-0.015,-0.963,-0.108,-0.183,0.061,0.366,601.609
100880,139993,7673,-0.017,-0.963,-0.108,-0.183,0.061,0.366,601.616
100858,139809,19647,-0.016,-0.959,-0.103,0.122,0.122,0.305,601.619
100858,139988,7671,-0.014,-0.96,-0.103,0.122,0.122,0.305,601.626
100860,139809,19647,-0.014,-0.961,-0.104,0.244,0.061,0.244,601.629
100860,140001,7666,-0.012,-0.961,-0.104,0.244,0.061,0.244,601.635
100873,139809,19647,-0.013,-0.963,-0.1,0.061,0.061,0.305,601.639
100873,139983,7658,-0.017,-0.96,-0.097,0.061,0.061,0.305,601.645
100855,139809,19647,-0.018,-0.961,-0.1,-0.061,0.122,0.366,601.649
100855,139998,7676,-0.013,-0.961,-0.102,-0.061,0.122,0.366,601.655
100855,139809,19647,-0.012,-0.964,-0.105,-0.122,0.183,0.427,601.659
100855,139985,7678,-0.013,-0.963,-0.107,-0.122,0.183,0.427,601.665
100852,139809,19647,-0.01,-0.961,-0.105,-0.183,0.305,0.549,601.669
100852,139994,7667,-0.01,-0.958,-0.101,-0.183,0.305,0.549,601.675
100850,140065,19647,-0.011,-0.959,-0.1,-0.122,0.427,0.427,601.679
100850,140036,7686,-0.012,-0.954,-0.1,-0.122,0.427,0.427,601.685
100863,139809,19647,-0.011,-0.954,-0.101,-0.305,0.61,0.366,601.689
100863,140004,7672,-0.013,-0.956,-0.104,-0.305,0.61,0.366,601.695
100858,139809,19647,-0.011,-0.959,-0.099,-0.61,0.854,0.488,601.699
100858,140023,7663,-0.012,-0.959,-0.101,-0.61,0.854,0.488,601.705
100869,139809,19647,-0.014,-0.961,-0.104,-0.671,0.915,0.549,601.708
100869,140017,7673,-0.014,-0.959,-0.104,-0.671,0.915,0.549,601.715
100847,139809,19647,-0.012,-0.962,-0.104,-0.671,0.854,0.549,601.718
100847,140004,7681,-0.015,-0.96,-0.104,-0.671,0.854,0.549,601.725
