101464,140505,7758,-0.032,-0.957,-0.114,0.488,-0.244,0.183,544.757
101450,140321,19647,-0.031,-0.958,-0.114,0.793,-0.366,0.061,544.76
101450,140521,7756,-0.033,-0.96,-0.111,0.793,-0.366,0.061,544.767
101458,140321,19647,-0.032,-0.958,-0.112,0.854,-0.244,-0.061,544.77
101458,140487,7753,-0.031,-0.958,-0.108,0.854,-0.244,-0.061,544.776
101475,140321,19647,-0.028,-0.957,-0.108,0.915,-0.183,-0.183,544.78
101475,140525,7774,-0.029,-0.957,-0.112,0.915,-0.183,-0.183,544.786
101474,140321,19647,-0.028,-0.958,-0.109,0.854,-0.183,-0.183,544.79
101474,140531,7758,-0.026,-0.954,-0.106,0.854,-0.183,-0.183,544.796
101468,140321,19647,-0.022,-0.956,-0.11,0.549,0,-0.244,544.8
101468,140526,7766,-0.025,-0.956,-0.108,0.549,0,-0.244,544.806
101469,140321,19647,-0.029,-0.955,-0.106,0.122,0.183,-0.183,544.81
101469,140543,7757,-0.025,-0.957,-0.106,0.122,0.183,-0.183,544.816
101469,140321,19647,-0.024,-0.958,-0.107,-0.183,0.305,0,544.82
101469,140535,7767,-0.027,-0.959,-0.108,-0.183,0.305,0,544.826
101482,140321,19647,-0.029,-0.958,-0.108,-0.488,0.366,-0.061,544.83
101482,140540,7767,-0.028,-0.959,-0.11,-0.488,0.366,-0.061,544.836
101486,140321,19647,-0.029,-0.959,-0.107,-0.366,0.366,0,544.84
101486,140529,7762,-0.031,-0.96,-0.108,-0.366,0.366,0,544.846
101470,140321,19647,-0.031,-0.963,-0.111,-0.183,0.244,0.061,544.849
101470,140528,7761,-0.03,-0.961,-0.113,-0.183,0.244,0.061,544.856
101477,140321,19647,-0.032,-0.96,-0.113,-0.366,0.183,0.061,544.859
101477,140514,7773,-0.031,-0.959,-0.113,-0.366,0.183,0.061,544.866
101492,140321,19647,-0.027,-0.956,-0.115,-0.305,0.122,0.061,544.869
101492,140532,7777,-0.027,-0.956,-0.114,-0.305,0.122,0.061,544.875
101461,140321,19647,-0.028,-0.958,-0.113,-0.122,0,0,544.879
101461,140536,7779,-0.028,-0.961,-0.112,-0.122,0,0,544.885
101482,140321,19647,-0.026,-0.961,-0.112,-0.183,0.061,-0.122,544.889
101482,140518,7772,-0.028,-0.959,-0.112,-0.183,0.061,-0.122,544.895
101495,140321,19647,-0.026,-0.957,-0.112,-0.183,0,-0.061,544.899
101495,140541,7780,-0.026,-0.958,-0.11,-0.183,0,-0.061,544.905
101480,140321,19647,-0.027,-0.957,-0.111,-0.183,-0.061,0.183,544.909
101480,140523,7773,-0.024,-0.959,-0.11,-0.183,-0.061,0.183,544.915
101496,140577,19647,-0.026,-0.96,-0.114,-0.488,0,0.244,544.919
101496,140549,7773,-0.024,-0.961,-0.113,-0.488,0,0.244,544.925
101502,140321,19647,-0.023,-0.956,-0.109,-0.732,0.183,0.183,544.929
101502,140525,7783,-0.023,-0.958,-0.109,-0.732,0.183,0.183,544.935
101487,140577,19647,-0.021,-0.957,-0.106,-0.549,0.183,0.122,544.939
101487,140561,7772,-0.024,-0.956,-0.109,-0.549,0.183,0.122,544.945
101493,140577,19647,-0.025,-0.959,-0.109,-0.549,0.305,0.305,544.948
101493,140545,7757,-0.025,-0.957,-0.111,-0.549,0.305,0.305,544.955
101482,140321,19647,-0.026,-0.962,-0.116,-0.793,0.427,0.427,544.958
101482,140528,7772,-0.027,-0.96,-0.112,-0.793,0.427,0.427,544.965
101487,140577,19647,-0.025,-0.958,-0.114,-0.793,0.366,0.427,544.968
101487,140571,7756,-0.027,-0.958,-0.115,-0.793,0.366,0.427,544.974
101506,140321,19647,-0.026,-0.96,-0.113,-0.793,0.366,0.488,544.978
101506,140538,7776,-0.028,-0.96,-0.115,-0.793,0.366,0.488,544.984
101482,140577,19647,-0.027,-0.959,-0.111,-0.793,0.427,0.549,544.988
101482,140546,7777,-0.028,-0.959,-0.112,-0.793,0.427,0.549,544.994
101482,140321,19647,-0.029,-0.959,-0.112,-0.61,0.427,0.61,544.998
101482,140520,7761,-0.026,-0.958,-0.113,-0.61,0.427,0.61,545.004
101477,140321,19647,-0.026,-0.959,-0.114,-0.549,0.427,0.549,545.008
101477,140543,7756,-0.026,-0.957,-0.113,-0.549,0.427,0.549,545.014
101481,140321,19647,-0.028,-0.957,-0.115,-0.488,0.427,0.549,545.018
101481,140504,7772,-0.026,-0.956,-0.113,-0.488,0.427,0.549,545.024
101469,140321,19647,-0.026,-0.959,-0.111,-0.488,0.366,0.488,545.028
101469,140541,7773,-0.026,-0.956,-0.11,-0.488,0.366,0.488,545.034
101461,140321,19647,-0.025,-0.957,-0.112,-0.366,0.366,0.427,545.038
101461,140528,7760,-0.027,-0.962,-0.11,-0.366,0.366,0.427,545.044
101473,140321,19647,-0.028,-0.965,-0.112,-0.549,0.549,0.488,545.047
101473,140517,7761,-0.028,-0.961,-0.115,-0.549,0.549,0.488,545.054
101466,140321,19647,-0.027,-0.962,-0.115,-0.671,0.61,0.61,545.057
101466,140474,7762,-0.028,-0.963,-0.114,-0.671,0.61,0.61,545.064
101482,140321,19647,-0.027,-0.958,-0.114,-0.549,0.549,0.671,545.067
101482,140516,7763,-0.029,-0.957,-0.111,-0.549,0.549,0.671,545.073
101456,140321,19647,-0.029,-0.958,-0.11,-0.488,0.549,0.549,545.077
101456,140486,7772,-0.03,-0.958,-0.114,-0.488,0.549,0.549,545.083
101443,140321,19647,-0.028,-0.958,-0.111,-0.61,0.549,0.488,545.087
101443,140504,7770,-0.026,-0.959,-0.113,-0.61,0.549,0.488,545.093
101449,140321,19647,-0.026,-0.958,-0.115,-0.488,0.549,0.488,545.097
101449,140511,7786,-0.024,-0.959,-0.115,-0.488,0.549,0.488,545.103
101455,140321,19647,-0.027,-0.957,-0.114,-0.305,0.549,0.366,545.107
101455,140540,7763,-0.025,-0.956,-0.113,-0.305,0.549,0.366,545.113
101456,140321,19647,-0.022,-0.956,-0.115,-0.122,0.61,0.366,545.117
101456,140515,7760,-0.024,-0.956,-0.116,-0.122,0.61,0.366,545.123
101463,140321,19647,-0.026,-0.958,-0.114,-0.122,0.671,0.244,545.127
101463,140539,7761,-0.027,-0.959,-0.113,-0.122,0.671,0.244,545.133
101457,140321,19647,-0.025,-0.956,-0.11,-0.183,0.488,0.305,545.137
101457,140509,7764,-0.024,-0.957,-0.114,-0.183,0.488,0.305,545.143
101476,140321,19647,-0.025,-0.959,-0.115,-0.183,0.366,0.366,545.146
101476,140492,7772,-0.026,-0.957,-0.111,-0.183,0.366,0.366,545.153
101456,140321,19647,-0.028,-0.959,-0.112,-0.488,0.427,0.549,545.156
101456,140493,7756,-0.027,-0.959,-0.116,-0.488,0.427,0.549,545.163
101451,140321,19647,-0.027,-0.959,-0.116,-0.488,0.427,0.549,545.166
101451,140533,7778,-0.027,-0.958,-0.115,-0.549,0.366,0.427,545.172
101453,140321,19647,-0.027,-0.958,-0.115,-0.549,0.366,0.427,545.176
101453,140517,7759,-0.027,-0.958,-0.109,-0.305,0.305,0.366,545.182
101472,140321,19647,-0.027,-0.958,-0.109,-0.305,0.305,0.366,545.186
101472,140520,7773,-0.025,-0.955,-0.109,-0.244,0.305,0.366,545.192
101458,140321,19647,-0.025,-0.955,-0.109,-0.244,0.305,0.366,545.196
101458,140504,7750,-0.029,-0.958,-0.115,-0.244,0.366,0.305,545.202
101454,140321,19647,-0.029,-0.958,-0.115,-0.244,0.366,0.305,545.206
101454,140516,7765,-0.024,-0.958,-0.112,-0.183,0.366,0.305,545.212
101463,140321,19647,-0.024,-0.958,-0.112,-0.183,0.366,0.305,545.216
101463,140507,7765,-0.025,-0.961,-0.114,-0.244,0.427,0.366,545.222
101472,140321,19647,-0.025,-0.961,-0.114,-0.244,0.427,0.366,545.226
101472,140518,7765,-0.027,-0.956,-0.113,-0.488,0.427,0.427,545.232
101451,140321,19647,-0.027,-0.956,-0.113,-0.488,0.427,0.427,545.236
101451,140510,7758,-0.028,-0.959,-0.112,-0.61,0.366,0.427,545.242
101466,140321,19647,-0.028,-0.959,-0.112,-0.61,0.366,0.427,545.245
101466,140519,7768,-0.031,-0.957,-0.115,-0.732,0.488,0.488,545.252
101471,140321,19647,-0.031,-0.957,-0.115,-0.732,0.488,0.488,545.255
101471,140492,7759,-0.027,-0.955,-0.115,-0.854,0.488,0.427,545.262
101461,140321,19647,-0.027,-0.955,-0.115,-0.854,0.488,0.427,545.265
101461,140516,7760,-0.027,-0.958,-0.116,-0.671,0.366,0.305,545.271
101453,140321,19647,-0.027,-0.958,-0.116,-0.671,0.366,0.305,545.275
101453,140505,7764,-0.03,-0.957,-0.116,-0.488,0.427,0.244,545.281
101449,140321,19647,-0.03,-0.957,-0.116,-0.488,0.427,0.244,545.285
101449,140499,7778,-0.027,-0.958,-0.115,-0.305,0.427,0.183,545.291
101452,140321,19647,-0.027,-0.958,-0.115,-0.305,0.427,0.183,545.295
101452,140514,7756,-0.022,-0.956,-0.115,-0.122,0.305,0.122,545.301
101476,140321,19647,-0.022,-0.956,-0.115,-0.122,0.305,0.122,545.305
101476,140511,7768,-0.027,-0.958,-0.118,-0.183,0.305,0.183,545.311
101467,140321,19647,-0.027,-0.958,-0.118,-0.183,0.305,0.183,545.315
101467,140500,7757,-0.028,-0.962,-0.118,-0.305,0.183,0.183,545.321
101462,140321,19647,-0.025,-0.959,-0.115,-0.305,0.183,0.183,545.325
101462,140508,7773,-0.024,-0.958,-0.116,-0.305,0.183,0.244,545.331
101468,140321,19647,-0.022,-0.961,-0.118,-0.305,0.183,0.244,545.335
101468,140534,7766,-0.027,-0.959,-0.115,-0.305,0.183,0.244,545.341
101459,140321,19647,-0.028,-0.961,-0.113,-0.305,0.183,0.244,545.344
101459,140506,7764,-0.029,-0.956,-0.117,-0.305,0.366,0.305,545.351
101451,140321,19647,-0.029,-0.956,-0.114,-0.305,0.366,0.305,545.354
101451,140523,7773,-0.026,-0.958,-0.114,-0.366,0.244,0.305,545.361
101470,140321,19647,-0.026,-0.958,-0.116,-0.366,0.244,0.305,545.364
101470,140528,7773,-0.027,-0.957,-0.116,-0.183,0.122,0.244,545.37
101452,140321,19647,-0.029,-0.958,-0.11,-0.183,0.122,0.244,545.374
101452,140513,7759,-0.027,-0.959,-0.111,-0.122,0.244,0.244,545.38
101469,140321,19647,-0.025,-0.958,-0.116,-0.122,0.244,0.244,545.384
101469,140521,7766,-0.027,-0.958,-0.112,-0.061,0.305,0.183,545.39
101460,140321,19647,-0.027,-0.957,-0.113,-0.061,0.305,0.183,545.394
101460,140491,7764,-0.025,-0.957,-0.115,-0.122,0.366,0.183,545.4
101482,140321,19647,-0.025,-0.959,-0.113,-0.122,0.366,0.183,545.404
101482,140506,7759,-0.025,-0.958,-0.114,-0.183,0.305,0.244,545.41
101459,140321,19647,-0.023,-0.961,-0.115,-0.183,0.305,0.244,545.414
101459,140521,7775,-0.023,-0.961,-0.111,-0.183,0.366,0.305,545.42
101460,140321,19647,-0.023,-0.957,-0.107,-0.183,0.366,0.305,545.424
101460,140506,7756,-0.026,-0.958,-0.112,-0.366,0.427,0.366,545.43
101456,140321,19647,-0.025,-0.956,-0.113,-0.366,0.427,0.366,545.434
101456,140521,7782,-0.025,-0.958,-0.113,-0.488,0.427,0.488,545.44
101468,140321,19647,-0.027,-0.959,-0.111,-0.488,0.427,0.488,545.444
101468,140518,7760,-0.03,-0.959,-0.113,-0.488,0.427,0.488,545.45
101454,140321,19647,-0.029,-0.958,-0.113,-0.488,0.427,0.488,545.453
101454,140513,7765,-0.027,-0.958,-0.113,-0.488,0.427,0.549,545.46
101466,140321,19647,-0.027,-0.959,-0.114,-0.488,0.427,0.549,545.463
101466,140505,7776,-0.027,-0.958,-0.116,-0.549,0.366,0.61,545.469
101472,140321,19647,-0.031,-0.958,-0.112,-0.549,0.366,0.61,545.473
101472,140518,7778,-0.028,-0.957,-0.111,-0.488,0.427,0.488,545.479
101478,140321,19647,-0.025,-0.959,-0.113,-0.488,0.427,0.488,545.483
101478,140502,7770,-0.026,-0.958,-0.115,-0.305,0.427,0.549,545.489
101466,140577,19647,-0.027,-0.958,-0.113,-0.305,0.427,0.549,545.493
101466,140545,7776,-0.026,-0.958,-0.113,-0.427,0.549,0.549,545.499
101481,140321,19647,-0.023,-0.955,-0.115,-0.427,0.549,0.549,545.503
101481,140534,7771,-0.024,-0.956,-0.115,-0.549,0.671,0.549,545.509
101458,140321,19647,-0.027,-0.958,-0.116,-0.549,0.671,0.549,545.513
101458,140523,7767,-0.026,-0.959,-0.115,-0.61,0.793,0.549,545.519
101461,140321,19647,-0.026,-0.96,-0.116,-0.61,0.793,0.549,545.523
101461,140519,7780,-0.027,-0.959,-0.117,-0.671,0.793,0.549,545.529
101477,140321,19647,-0.028,-0.956,-0.116,-0.671,0.793,0.549,545.533
101477,140506,7761,-0.027,-0.954,-0.113,-0.671,0.732,0.488,545.539
101480,140321,19647,-0.029,-0.957,-0.114,-0.671,0.732,0.488,545.543
101480,140529,7785,-0.029,-0.957,-0.117,-0.854,0.671,0.488,545.549
101476,140577,19647,-0.027,-0.96,-0.12,-0.854,0.671,0.488,545.552
101476,140552,7770,-0.026,-0.962,-0.116,-0.854,0.549,0.549,545.559
101473,140321,19647,-0.03,-0.961,-0.116,-0.854,0.549,0.549,545.562
101473,140529,7771,-0.029,-0.963,-0.115,-0.488,0.488,0.427,545.569
101465,140321,19647,-0.03,-0.959,-0.117,-0.488,0.488,0.427,545.572
101465,140532,7776,-0.031,-0.955,-0.115,-0.244,0.366,0.488,545.578
101468,140321,19647,-0.029,-0.955,-0.115,-0.244,0.366,0.488,545.582
101468,140516,7771,-0.027,-0.957,-0.115,-0.122,0.366,0.427,545.588
101470,140321,19647,-0.028,-0.959,-0.117,-0.122,0.366,0.427,545.592
101470,140516,7770,-0.024,-0.961,-0.113,-0.244,0.366,0.366,545.598
101478,140321,19647,-0.029,-0.96,-0.117,-0.244,0.366,0.366,545.602
101478,140524,7768,-0.027,-0.958,-0.115,-0.305,0.427,0.427,545.608
101471,140321,19647,-0.026,-0.957,-0.116,-0.305,0.427,0.427,545.612
101471,140515,7788,-0.029,-0.957,-0.118,-0.305,0.366,0.366,545.618
101459,140321,19647,-0.029,-0.959,-0.116,-0.305,0.366,0.366,545.622
101459,140512,7771,-0.03,-0.956,-0.115,-0.244,0.305,0.305,545.628
101461,140321,19647,-0.027,-0.961,-0.113,-0.244,0.305,0.305,545.632
101461,140524,7784,-0.026,-0.961,-0.113,-0.183,0.305,0.366,545.638
101466,140321,19647,-0.031,-0.959,-0.114,-0.183,0.305,0.366,545.642
101466,140543,7765,-0.03,-0.956,-0.116,-0.244,0.366,0.244,545.648
101474,140321,19647,-0.028,-0.954,-0.117,-0.244,0.366,0.244,545.651
101474,140503,7773,-0.027,-0.953,-0.116,-0.244,0.366,0.244,545.658
101468,140321,19647,-0.026,-0.955,-0.116,-0.244,0.366,0.244,545.661
101468,140534,7762,-0.021,-0.955,-0.115,-0.549,0.732,0.122,545.667
101481,140321,19647,-0.02,-0.959,-0.117,-0.549,0.732,0.122,545.671
101481,140528,7776,-0.022,-0.961,-0.117,-0.671,0.793,0.122,545.677
101465,140321,19647,-0.025,-0.964,-0.116,-0.671,0.793,0.122,545.681
101465,140527,7780,-0.026,-0.963,-0.115,-0.61,0.793,0.183,545.687
101472,140321,19647,-0.025,-0.961,-0.114,-0.61,0.793,0.183,545.691
101472,140529,7768,-0.025,-0.96,-0.115,-0.488,0.732,0.244,545.697
101468,140577,19647,-0.026,-0.961,-0.113,-0.488,0.732,0.244,545.701
101468,140546,7782,-0.028,-0.961,-0.116,-0.61,0.549,0.427,545.707
101468,140321,19647,-0.028,-0.96,-0.113,-0.61,0.549,0.427,545.711
101468,140538,7772,-0.028,-0.963,-0.113,-0.488,0.366,0.549,545.717
101480,140321,19647,-0.029,-0.962,-0.116,-0.488,0.366,0.549,545.721
101480,140543,7775,-0.031,-0.958,-0.116,-0.427,0.244,0.732,545.727
101461,140321,19647,-0.032,-0.959,-0.115,-0.427,0.244,0.732,545.731
101461,140539,7776,-0.03,-0.957,-0.112,-0.244,0.244,0.732,545.737
101471,140577,19647,-0.029,-0.957,-0.11,-0.244,0.244,0.732,545.741
101471,140577,7770,-0.027,-0.959,-0.112,-0.122,0.122,0.671,545.747
101487,140577,19647,-0.027,-0.957,-0.115,-0.122,0.122,0.671,545.75
101487,140562,7760,-0.025,-0.954,-0.114,-0.061,0.244,0.61,545.757
101486,140577,19647,-0.024,-0.956,-0.113,-0.061,0.244,0.61,545.76
101486,140550,7779,-0.023,-0.958,-0.112,0.061,0.427,0.61,545.767
101493,140321,19647,-0.023,-0.958,-0.112,0.061,0.427,0.61,545.77
101493,140533,7771,-0.022,-0.952,-0.116,0.122,0.549,0.488,545.776
101479,140321,19647,-0.022,-0.952,-0.116,0.122,0.549,0.488,545.78
101479,140522,7762,-0.024,-0.954,-0.115,-0.305,0.61,0.549,545.786
101476,140577,19647,-0.024,-0.954,-0.115,-0.305,0.61,0.549,545.79
101476,140552,7770,-0.027,-0.959,-0.115,-0.915,0.671,0.549,545.796
101464,140577,19647,-0.027,-0.959,-0.115,-0.915,0.671,0.549,545.8
101464,140549,7760,-0.028,-0.956,-0.116,-0.915,0.732,0.427,545.806
101486,140577,19647,-0.028,-0.956,-0.116,-0.915,0.732,0.427,545.81
101486,140556,7775,-0.027,-0.957,-0.117,-0.854,0.61,0.427,545.816
101461,140321,19647,-0.027,-0.957,-0.117,-0.854,0.61,0.427,545.82
101461,140539,7786,-0.03,-0.958,-0.12,-0.488,0.427,0.305,545.826
101466,140577,19647,-0.03,-0.958,-0.12,-0.488,0.427,0.305,545.83
101466,140547,7773,-0.03,-0.958,-0.118,0,0.305,0.244,545.836
101481,140321,19647,-0.03,-0.958,-0.118,0,0.305,0.244,545.84
101481,140543,7779,-0.032,-0.957,-0.12,0.366,0.183,0.183,545.846
101463,140321,19647,-0.032,-0.957,-0.12,0.366,0.183,0.183,545.849
101463,140528,7767,-0.023,-0.954,-0.116,0.305,0.122,0.122,545.856
101484,140321,19647,-0.023,-0.954,-0.116,0.305,0.122,0.122,545.859
101484,140536,7774,-0.026,-0.957,-0.114,0.122,0.183,0.122,545.866
101476,140321,19647,-0.026,-0.957,-0.114,0.122,0.183,0.122,545.869
101476,140536,7779,-0.03,-0.961,-0.112,-0.061,0.061,0.244,545.875
101480,140321,19647,-0.03,-0.961,-0.112,-0.061,0.061,0.244,545.879
101480,140530,7771,-0.028,-0.961,-0.116,-0.183,-0.061,0.305,545.885
101463,140321,19647,-0.028,-0.961,-0.116,-0.183,-0.061,0.305,545.889
101463,140539,7778,-0.028,-0.956,-0.116,0.122,0,0.366,545.895
101489,140321,19647,-0.028,-0.956,-0.116,0.122,0,0.366,545.899
101489,140543,7773,-0.024,-0.954,-0.115,0.305,0.061,0.305,545.905
101476,140577,19647,-0.024,-0.954,-0.115,0.305,0.061,0.305,545.909
101476,140580,7767,-0.022,-0.956,-0.113,0.305,0.061,0.305,545.915
101478,140577,19647,-0.023,-0.952,-0.111,0.244,0.122,0.122,545.919
101478,140544,7774,-0.026,-0.953,-0.113,0.244,0.122,0.122,545.925
101496,140577,19647,-0.025,-0.958,-0.113,0.061,0.305,0.122,545.929
101496,140570,7784,-0.025,-0.957,-0.113,0.061,0.305,0.122,545.935
101487,140577,19647,-0.027,-0.959,-0.115,-0.061,0.427,0.122,545.939
101487,140558,7778,-0.024,-0.959,-0.117,-0.061,0.427,0.122,545.945
101474,140577,19647,-0.022,-0.962,-0.116,-0.061,0.488,0.183,545.948
101474,140561,7774,-0.022,-0.96,-0.114,-0.061,0.488,0.183,545.955
101475,140321,19647,-0.025,-0.958,-0.113,-0.061,0.549,0.366,545.958
101475,140539,7773,-0.025,-0.958,-0.114,-0.061,0.549,0.366,545.965
101501,140577,19647,-0.026,-0.959,-0.116,-0.244,0.549,0.549,545.968
101501,140559,7756,-0.027,-0.958,-0.115,-0.244,0.549,0.549,545.974
101483,140321,19647,-0.028,-0.959,-0.115,-0.549,0.488,0.61,545.978
101483,140530,7782,-0.028,-0.958,-0.112,-0.549,0.488,0.61,545.984
101474,140321,19647,-0.028,-0.957,-0.113,-0.549,0.549,0.671,545.988
101474,140530,7773,-0.03,-0.961,-0.114,-0.549,0.549,0.671,545.994
101465,140321,19647,-0.031,-0.958,-0.115,-0.305,0.488,0.61,545.998
101465,140520,7777,-0.03,-0.959,-0.116,-0.305,0.488,0.61,546.004
101456,140321,19647,-0.03,-0.962,-0.114,0.061,0.427,0.61,546.008
101456,140520,7772,-0.029,-0.962,-0.115,0.061,0.427,0.61,546.014
101463,140321,19647,-0.029,-0.958,-0.116,0.305,0.549,0.549,546.018
101463,140524,7779,-0.031,-0.954,-0.115,0.305,0.549,0.549,546.024
101447,140321,19647,-0.028,-0.953,-0.114,0.305,0.549,0.549,546.028
101447,140527,7777,-0.026,-0.957,-0.117,0.305,0.549,0.549,546.034
101460,140321,19647,-0.027,-0.957,-0.118,-0.061,0.488,0.488,546.038
101460,140497,7776,-0.026,-0.956,-0.114,-0.061,0.488,0.488,546.044
101460,140321,19647,-0.024,-0.959,-0.113,-0.305,0.549,0.488,546.047
101460,140535,7768,-0.026,-0.958,-0.116,-0.305,0.549,0.488,546.054
101447,140321,19647,-0.024,-0.958,-0.116,-0.244,0.61,0.427,546.057
101447,140510,7781,-0.026,-0.958,-0.116,-0.244,0.61,0.427,546.064
101450,140321,19647,-0.031,-0.954,-0.119,-0.183,0.671,0.427,546.067
101450,140505,7773,-0.026,-0.955,-0.116,-0.183,0.671,0.427,546.073
101448,140321,19647,-0.026,-0.956,-0.118,-0.061,0.549,0.366,546.077
101448,140499,7775,-0.028,-0.956,-0.117,-0.061,0.549,0.366,546.083
101454,140321,19647,-0.03,-0.959,-0.118,0.122,0.488,0.183,546.087
101454,140518,7770,-0.026,-0.957,-0.118,0.122,0.488,0.183,546.093
101439,140321,19647,-0.029,-0.959,-0.117,0.305,0.427,0.122,546.097
101439,140513,7777,-0.029,-0.958,-0.118,0.305,0.427,0.122,546.103
101443,140321,19647,-0.028,-0.959,-0.114,0.427,0.305,0.061,546.107
101443,140504,7776,-0.028,-0.96,-0.115,0.427,0.305,0.061,546.113
101450,140321,19647,-0.028,-0.958,-0.113,0.427,0.305,0.061,546.117
101450,140499,7768,-0.027,-0.957,-0.114,0.427,0.305,0.061,546.123
101443,140321,19647,-0.026,-0.956,-0.116,0.366,0.183,0.122,546.127
101443,140495,7767,-0.027,-0.958,-0.114,0.366,0.183,0.122,546.133
101457,140321,19647,-0.025,-0.96,-0.113,0.183,0.122,0.122,546.137
101457,140521,7779,-0.025,-0.96,-0.115,0.183,0.122,0.122,546.143
101429,140321,19647,-0.026,-0.957,-0.118,0,0.305,0.183,546.146
101429,140487,7769,-0.027,-0.96,-0.115,0,0.305,0.183,546.153
101439,140321,19647,-0.025,-0.959,-0.114,-0.061,0.366,0.244,546.156
101439,140502,7776,-0.023,-0.958,-0.114,-0.061,0.366,0.244,546.163
101456,140321,19647,-0.024,-0.958,-0.114,0.061,0.305,0.305,546.166
101456,140523,7776,-0.025,-0.956,-0.112,0.061,0.305,0.305,546.172
101435,140321,19647,-0.026,-0.958,-0.114,0.183,0.366,0.244,546.176
101435,140527,7761,-0.028,-0.958,-0.116,0.183,0.366,0.244,546.182
101450,140321,19647,-0.022,-0.958,-0.112,0.183,0.488,0.183,546.186
101450,140523,7774,-0.026,-0.956,-0.113,0.183,0.488,0.183,546.192
101438,140321,19647,-0.026,-0.958,-0.114,0.122,0.549,0.244,546.196
101438,140511,7776,-0.026,-0.956,-0.113,0.122,0.549,0.244,546.202
101440,140321,19647,-0.026,-0.961,-0.113,-0.183,0.488,0.305,546.206
101440,140531,7773,-0.027,-0.963,-0.114,-0.183,0.488,0.305,546.212
101449,140321,19647,-0.027,-0.962,-0.114,-0.244,0.488,0.427,546.216
101449,140524,7770,-0.028,-0.96,-0.113,-0.244,0.488,0.427,546.222
101455,140321,19647,-0.028,-0.96,-0.115,-0.061,0.427,0.366,546.226
101455,140513,7776,-0.027,-0.959,-0.113,-0.061,0.427,0.366,546.232
101450,140321,19647,-0.03,-0.957,-0.114,0,0.366,0.366,546.236
101450,140523,7770,-0.028,-0.954,-0.113,0,0.366,0.366,546.242
101448,140321,19647,-0.031,-0.956,-0.114,0,0.305,0.427,546.245
101448,140483,7761,-0.029,-0.957,-0.111,0,0.305,0.427,546.252
101442,140321,19647,-0.028,-0.958,-0.112,-0.183,0.305,0.366,546.255
101442,140496,7769,-0.03,-0.958,-0.113,-0.183,0.305,0.366,546.262
101449,140321,19647,-0.028,-0.962,-0.115,-0.305,0.366,0.305,546.265
101449,140494,7761,-0.028,-0.958,-0.113,-0.305,0.366,0.305,546.271
101449,140321,19647,-0.03,-0.957,-0.114,-0.244,0.244,0.305,546.275
101449,140510,7767,-0.03,-0.957,-0.115,-0.244,0.244,0.305,546.281
101434,140321,19647,-0.028,-0.959,-0.114,-0.122,0.305,0.244,546.285
101434,140499,7769,-0.028,-0.96,-0.12,-0.122,0.305,0.244,546.291
101443,140321,19647,-0.027,-0.961,-0.115,0.061,0.305,0.183,546.295
101443,140510,7772,-0.027,-0.96,-0.115,0.061,0.305,0.183,546.301
101446,140321,19647,-0.028,-0.958,-0.117,0.183,0.305,0.183,546.305
101446,140508,7771,-0.026,-0.955,-0.113,0.183,0.305,0.183,546.311
101433,140321,19647,-0.027,-0.957,-0.113,0.244,0.305,0.122,546.315
101433,140473,7773,-0.026,-0.959,-0.111,0.244,0.305,0.122,546.321
101442,140321,19647,-0.026,-0.96,-0.113,0.061,0.244,0.061,546.325
101442,140490,7781,-0.025,-0.958,-0.114,0.061,0.244,0.061,546.331
101438,140321,19647,-0.027,-0.96,-0.113,0.122,0.244,0.061,546.335
101438,140504,7774,-0.025,-0.957,-0.114,0.122,0.244,0.061,546.341
101434,140321,19647,-0.026,-0.954,-0.114,0.183,0.183,0,546.344
101434,140504,7757,-0.025,-0.956,-0.114,0.183,0.183,0,546.351
101433,140321,19647,-0.024,-0.959,-0.115,0.305,0.122,0,546.354
101433,140492,7780,-0.026,-0.961,-0.115,0.305,0.122,0,546.361
101437,140321,19647,-0.026,-0.961,-0.115,0.305,0.122,0,546.364
101437,140501,7766,-0.024,-0.96,-0.114,0.305,0.244,0,546.37
101439,140321,19647,-0.024,-0.96,-0.114,0.305,0.244,0,546.374
101439,140507,7774,-0.027,-0.962,-0.115,0.244,0.244,0.183,546.38
101447,140321,19647,-0.027,-0.962,-0.115,0.244,0.244,0.183,546.384
101447,140504,7771,-0.026,-0.958,-0.113,0.244,0.061,0.122,546.39
101432,140321,19647,-0.026,-0.958,-0.113,0.244,0.061,0.122,546.394
101432,140513,7773,-0.024,-0.958,-0.115,0.061,0.122,0.305,546.4
101462,140321,19647,-0.024,-0.958,-0.115,0.061,0.122,0.305,546.404
101462,140523,7784,-0.026,-0.957,-0.115,-0.122,0.305,0.427,546.41
101437,140321,19647,-0.026,-0.957,-0.115,-0.122,0.305,0.427,546.414
101437,140525,7770,-0.026,-0.957,-0.111,0.061,0.183,0.488,546.42
101424,140321,19647,-0.026,-0.957,-0.111,0.061,0.183,0.488,546.424
101424,140524,7763,-0.027,-0.962,-0.11,0.061,0.244,0.366,546.43
101410,140321,19647,-0.027,-0.962,-0.11,0.061,0.244,0.366,546.434
101410,140518,7763,-0.025,-0.955,-0.115,0.244,0.427,0.427,546.44
101451,140321,19647,-0.025,-0.955,-0.115,0.244,0.427,0.427,546.444
101451,140516,7753,-0.026,-0.959,-0.112,0.183,0.427,0.427,546.45
101438,140321,19647,-0.026,-0.959,-0.112,0.183,0.427,0.427,546.453
101438,140512,7762,-0.026,-0.958,-0.113,-0.061,0.427,0.427,546.46
101431,140321,19647,-0.026,-0.958,-0.113,-0.061,0.427,0.427,546.463
101431,140487,7784,-0.026,-0.96,-0.114,-0.305,0.549,0.549,546.469
101441,140321,19647,-0.026,-0.96,-0.114,-0.305,0.549,0.549,546.473
101441,140525,7764,-0.026,-0.964,-0.113,-0.305,0.488,0.488,546.479
101441,140321,19647,-0.026,-0.964,-0.113,-0.305,0.488,0.488,546.483
101441,140507,7787,-0.027,-0.959,-0.114,-0.305,0.488,0.61,546.489
101431,140321,19647,-0.027,-0.959,-0.114,-0.305,0.488,0.61,546.493
101431,140504,7779,-0.028,-0.958,-0.113,-0.122,0.488,0.671,546.499
101444,140321,19647,-0.028,-0.958,-0.113,-0.122,0.488,0.671,546.503
101444,140518,7772,-0.024,-0.961,-0.111,-0.122,0.427,0.61,546.509
101446,140321,19647,-0.025,-0.961,-0.113,-0.122,0.427,0.61,546.513
101446,140523,7779,-0.027,-0.956,-0.11,-0.122,0.488,0.61,546.519
101445,140321,19647,-0.027,-0.959,-0.112,-0.122,0.488,0.61,546.523
101445,140506,7764,-0.029,-0.96,-0.114,-0.183,0.61,0.549,546.529
101445,140321,19647,-0.028,-0.956,-0.114,-0.183,0.61,0.549,546.533
101445,140532,7785,-0.026,-0.955,-0.116,-0.305,0.61,0.488,546.539
101445,140321,19647,-0.027,-0.954,-0.115,-0.305,0.61,0.488,546.542
101445,140501,7769,-0.026,-0.956,-0.114,-0.244,0.61,0.366,546.549
101436,140321,19647,-0.026,-0.957,-0.117,-0.244,0.61,0.366,546.552
101436,140537,7768,-0.026,-0.958,-0.118,-0.244,0.732,0.244,546.559
101448,140321,19647,-0.025,-0.958,-0.111,-0.244,0.732,0.244,546.562
101448,140521,7764,-0.023,-0.957,-0.113,-0.427,0.732,0.183,546.568
101434,140321,19647,-0.025,-0.958,-0.115,-0.427,0.732,0.183,546.572
101434,140531,7778,-0.027,-0.961,-0.115,-0.183,0.61,0.183,546.578
101457,140321,19647,-0.026,-0.959,-0.116,-0.183,0.61,0.183,546.582
101457,140522,7780,-0.027,-0.958,-0.116,-0.061,0.549,0.366,546.588
101446,140321,19647,-0.028,-0.961,-0.12,-0.061,0.549,0.366,546.592
101446,140508,7761,-0.03,-0.963,-0.116,0.183,0.305,0.366,546.598
101451,140321,19647,-0.03,-0.96,-0.113,0.183,0.305,0.366,546.602
101451,140523,7768,-0.03,-0.96,-0.112,0.305,0.061,0.244,546.608
101446,140577,19647,-0.029,-0.957,-0.113,0.305,0.061,0.244,546.612
101446,140562,7790,-0.028,-0.959,-0.116,0.305,-0.122,0.244,546.618
101443,140321,19647,-0.028,-0.96,-0.114,0.305,-0.122,0.244,546.622
101443,140530,7769,-0.03,-0.961,-0.113,0.305,-0.183,0.305,546.628
101447,140321,19647,-0.029,-0.96,-0.112,0.305,-0.183,0.305,546.632
101447,140537,7771,-0.028,-0.958,-0.111,0.305,-0.122,0.244,546.638
101422,140321,19647,-0.025,-0.956,-0.112,0.305,-0.122,0.244,546.642
101422,140533,7771,-0.025,-0.955,-0.111,0.488,-0.122,0.183,546.648
101441,140321,19647,-0.023,-0.96,-0.111,0.488,-0.122,0.183,546.651
101441,140539,7793,-0.023,-0.961,-0.111,0.488,0,0.122,546.658
101453,140321,19647,-0.021,-0.958,-0.11,0.488,0,0.122,546.661
101453,140526,7764,-0.022,-0.957,-0.109,0.244,0.122,0.061,546.667
101449,140321,19647,-0.021,-0.956,-0.111,0.244,0.122,0.061,546.671
101449,140532,7757,-0.022,-0.956,-0.114,0.122,0.305,0.183,546.677
101436,140321,19647,-0.024,-0.958,-0.109,0.122,0.305,0.183,546.681
101436,140531,7780,-0.025,-0.956,-0.112,0.061,0.488,0.244,546.687
101451,140577,19647,-0.025,-0.957,-0.11,0.061,0.488,0.244,546.691
101451,140549,7762,-0.026,-0.955,-0.11,-0.427,0.427,0.244,546.697
101462,140577,19647,-0.024,-0.957,-0.112,-0.427,0.427,0.244,546.701
101462,140546,7780,-0.023,-0.958,-0.113,-0.549,0.366,0.366,546.707
101464,140321,19647,-0.028,-0.96,-0.114,-0.549,0.366,0.366,546.711
101464,140523,7764,-0.031,-0.957,-0.117,-0.549,0.427,0.305,546.717
101457,140321,19647,-0.028,-0.958,-0.117,-0.549,0.427,0.305,546.721
101457,140528,7765,-0.027,-0.961,-0.117,-0.244,0.244,0.244,546.727
101466,140321,19647,-0.03,-0.957,-0.116,-0.244,0.244,0.244,546.731
101466,140541,7774,-0.029,-0.957,-0.115,-0.061,0.061,0.183,546.737
101445,140321,19647,-0.029,-0.96,-0.117,-0.061,0.061,0.183,546.741
101445,140535,7768,-0.027,-0.96,-0.118,0.183,0.061,0.061,546.747
101445,140577,19647,-0.024,-0.961,-0.116,0.183,0.061,0.061,546.75
101445,140546,7773,-0.024,-0.959,-0.11,0.427,0,0.061,546.757
101458,140321,19647,-0.026,-0.958,-0.11,0.427,0,0.061,546.76
101458,140525,7773,-0.026,-0.959,-0.112,0.427,-0.061,0.122,546.767
101449,140321,19647,-0.026,-0.963,-0.114,0.427,-0.061,0.122,546.77
101449,140540,7768,-0.027,-0.963,-0.114,0.305,-0.122,0.305,546.776
101427,140321,19647,-0.024,-0.958,-0.114,0.305,-0.122,0.305,546.78
101427,140532,7783,-0.025,-0.957,-0.108,0.305,-0.061,0.427,546.786
101474,140321,19647,-0.024,-0.958,-0.112,0.305,-0.061,0.427,546.79
101474,140531,7763,-0.023,-0.957,-0.109,0.244,-0.122,0.427,546.796
101455,140321,19647,-0.024,-0.955,-0.108,0.244,-0.122,0.427,546.8
101455,140535,7791,-0.023,-0.955,-0.109,0,0.183,0.427,546.806
101449,140321,19647,-0.023,-0.958,-0.112,0,0.183,0.427,546.81
101449,140536,7778,-0.022,-0.958,-0.11,-0.305,0.488,0.549,546.816
101467,140577,19647,-0.022,-0.96,-0.107,-0.305,0.488,0.549,546.82
101467,140549,7777,-0.019,-0.957,-0.11,-0.488,0.61,0.488,546.826
101461,140577,19647,-0.023,-0.957,-0.11,-0.488,0.61,0.488,546.83
101461,140545,7789,-0.026,-0.958,-0.111,-0.488,0.854,0.427,546.836
101458,140577,19647,-0.025,-0.958,-0.109,-0.488,0.854,0.427,546.84
101458,140553,7781,-0.022,-0.96,-0.112,-0.488,0.915,0.549,546.846
101468,140321,19647,-0.027,-0.961,-0.115,-0.488,0.915,0.549,546.849
101468,140526,7773,-0.028,-0.962,-0.113,-0.549,0.976,0.549,546.856
101462,140577,19647,-0.025,-0.961,-0.115,-0.549,0.976,0.549,546.859
101462,140547,7766,-0.027,-0.958,-0.116,-0.549,0.915,0.61,546.865
101435,140321,19647,-0.031,-0.958,-0.115,-0.549,0.915,0.61,546.869
101435,140522,7780,-0.031,-0.962,-0.112,-0.549,0.732,0.549,546.875
101441,140321,19647,-0.029,-0.964,-0.113,-0.549,0.732,0.549,546.879
101441,140537,7776,-0.029,-0.957,-0.111,-0.427,0.61,0.549,546.885
101439,140321,19647,-0.031,-0.957,-0.113,-0.427,0.61,0.549,546.889
101439,140520,7783,-0.032,-0.961,-0.116,-0.183,0.488,0.61,546.895
101443,140321,19647,-0.03,-0.961,-0.115,-0.183,0.488,0.61,546.899
101443,140538,7767,-0.028,-0.958,-0.111,-0.122,0.366,0.793,546.905
101416,140321,19647,-0.025,-0.96,-0.112,-0.122,0.366,0.793,546.909
101416,140525,7765,-0.027,-0.958,-0.113,-0.122,0.305,0.671,546.915
101442,140321,19647,-0.027,-0.956,-0.113,-0.122,0.305,0.671,546.919
101442,140488,7770,-0.027,-0.956,-0.11,-0.183,0.244,0.671,546.925
101441,140321,19647,-0.025,-0.958,-0.113,-0.183,0.244,0.671,546.929
101441,140502,7791,-0.024,-0.959,-0.113,-0.122,0.366,0.61,546.935
101436,140321,19647,-0.024,-0.959,-0.113,-0.122,0.366,0.61,546.939
101436,140501,7782,-0.024,-0.955,-0.114,-0.183,0.61,0.671,546.945
101426,140321,19647,-0.024,-0.955,-0.114,-0.183,0.61,0.671,546.948
101426,140496,7776,-0.029,-0.957,-0.116,-0.305,0.671,0.549,546.955
101422,140321,19647,-0.029,-0.957,-0.116,-0.305,0.671,0.549,546.958
101422,140497,7771,-0.026,-0.957,-0.114,-0.366,0.671,0.488,546.965
101414,140321,19647,-0.026,-0.957,-0.114,-0.366,0.671,0.488,546.968
101414,140485,7753,-0.026,-0.957,-0.11,-0.488,0.61,0.427,546.974
101423,140321,19647,-0.026,-0.957,-0.11,-0.488,0.61,0.427,546.978
101423,140510,7775,-0.03,-0.957,-0.115,-0.488,0.61,0.305,546.984
101409,140321,19647,-0.03,-0.957,-0.115,-0.488,0.61,0.305,546.988
101409,140508,7782,-0.03,-0.96,-0.115,-0.244,0.549,0.305,546.994
101436,140321,19647,-0.03,-0.96,-0.115,-0.244,0.549,0.305,546.998
101436,140499,7773,-0.028,-0.957,-0.115,-0.122,0.366,0.305,547.004
101418,140321,19647,-0.028,-0.957,-0.115,-0.122,0.366,0.305,547.008
101418,140495,7783,-0.03,-0.959,-0.116,-0.122,0.244,0.183,547.014
101421,140321,19647,-0.03,-0.959,-0.116,-0.122,0.244,0.183,547.018
101421,140504,7761,-0.026,-0.957,-0.112,0,0.122,0.183,547.024
101436,140321,19647,-0.026,-0.957,-0.112,0,0.122,0.183,547.028
101436,140478,7776,-0.025,-0.961,-0.112,0.122,0.122,0.244,547.034
101443,140321,19647,-0.025,-0.961,-0.112,0.122,0.122,0.244,547.038
101443,140510,7775,-0.023,-0.96,-0.113,0.122,0.183,0.244,547.044
101432,140321,19647,-0.023,-0.96,-0.113,0.122,0.183,0.244,547.047
101432,140506,7779,-0.025,-0.959,-0.109,0.183,0.244,0.244,547.054
101420,140321,19647,-0.025,-0.959,-0.109,0.183,0.244,0.244,547.057
101420,140499,7787,-0.027,-0.956,-0.113,0,0.183,0.427,547.064
101431,140321,19647,-0.027,-0.956,-0.113,0,0.183,0.427,547.067
101431,140501,7767,-0.026,-0.958,-0.113,-0.183,0.305,0.366,547.073
101425,140321,19647,-0.026,-0.958,-0.113,-0.183,0.305,0.366,547.077
101425,140501,7778,-0.025,-0.96,-0.11,-0.488,0.366,0.366,547.083
101428,140321,19647,-0.025,-0.96,-0.11,-0.488,0.366,0.366,547.087
101428,140496,7767,-0.028,-0.956,-0.113,-0.488,0.488,0.427,547.093
101439,140321,19647,-0.028,-0.956,-0.113,-0.488,0.488,0.427,547.097
101439,140512,7773,-0.028,-0.956,-0.114,-0.488,0.488,0.427,547.103
101423,140321,19647,-0.029,-0.957,-0.107,-0.549,0.488,0.427,547.107
101423,140528,7755,-0.027,-0.96,-0.113,-0.549,0.488,0.427,547.113
101428,140321,19647,-0.031,-0.96,-0.112,-0.488,0.427,0.427,547.117
101428,140511,7775,-0.028,-0.96,-0.108,-0.488,0.427,0.427,547.123
101429,140321,19647,-0.027,-0.961,-0.112,-0.244,0.305,0.427,547.127
101429,140521,7772,-0.028,-0.959,-0.116,-0.244,0.305,0.427,547.133
101421,140321,19647,-0.027,-0.958,-0.114,-0.183,0.366,0.427,547.137
101421,140512,7771,-0.025,-0.957,-0.113,-0.183,0.366,0.427,547.143
101409,140321,19647,-0.028,-0.958,-0.115,-0.122,0.366,0.366,547.146
101409,140538,7773,-0.028,-0.955,-0.114,-0.122,0.366,0.366,547.153
101422,140321,19647,-0.028,-0.957,-0.114,-0.061,0.427,0.366,547.156
101422,140505,7759,-0.026,-0.959,-0.115,-0.061,0.427,0.366,547.163
101417,140321,19647,-0.027,-0.958,-0.115,-0.244,0.366,0.305,547.166
101417,140499,7783,-0.027,-0.957,-0.114,-0.244,0.366,0.305,547.172
101425,140321,19647,-0.026,-0.96,-0.112,-0.366,0.427,0.305,547.176
101425,140513,7774,-0.025,-0.959,-0.114,-0.366,0.427,0.305,547.182
101428,140321,19647,-0.024,-0.957,-0.111,-0.183,0.488,0.305,547.186
101428,140539,7778,-0.025,-0.958,-0.112,-0.183,0.488,0.305,547.192
101425,140321,19647,-0.027,-0.956,-0.112,-0.183,0.427,0.305,547.196
101425,140500,7766,-0.024,-0.959,-0.112,-0.183,0.427,0.305,547.202
101433,140321,19647,-0.026,-0.961,-0.114,-0.244,0.488,0.244,547.206
101433,140512,7772,-0.027,-0.96,-0.115,-0.244,0.488,0.244,547.212
101427,140321,19647,-0.028,-0.959,-0.114,-0.244,0.488,0.244,547.216
101427,140509,7768,-0.025,-0.961,-0.112,-0.244,0.488,0.244,547.222
101420,140321,19647,-0.025,-0.962,-0.113,-0.244,0.366,0.366,547.226
101420,140511,7762,-0.029,-0.96,-0.116,-0.244,0.366,0.366,547.232
101433,140321,19647,-0.029,-0.958,-0.113,-0.122,0.305,0.427,547.236
101433,140512,7760,-0.029,-0.956,-0.113,-0.122,0.305,0.427,547.242
101424,140321,19647,-0.028,-0.96,-0.111,0,0.366,0.427,547.245
101424,140505,7776,-0.026,-0.959,-0.113,0,0.366,0.427,547.252
101431,140321,19647,-0.025,-0.958,-0.108,0.122,0.305,0.488,547.255
101431,140501,7764,-0.026,-0.957,-0.112,0.122,0.305,0.488,547.262
101429,140321,19647,-0.024,-0.958,-0.113,0.183,0.366,0.305,547.265
101429,140494,7778,-0.026,-0.954,-0.109,0.183,0.366,0.305,547.271
101415,140321,19647,-0.024,-0.957,-0.11,0,0.488,0.366,547.275
101415,140514,7768,-0.024,-0.959,-0.113,0,0.488,0.366,547.281
101434,140321,19647,-0.026,-0.959,-0.111,-0.183,0.549,0.488,547.285
101434,140503,7769,-0.027,-0.962,-0.112,-0.183,0.549,0.488,547.291
101438,140321,19647,-0.022,-0.96,-0.111,-0.305,0.61,0.488,547.295
101438,140520,7778,-0.025,-0.962,-0.111,-0.305,0.61,0.488,547.301
101428,140321,19647,-0.027,-0.961,-0.11,-0.488,0.671,0.488,547.305
101428,140517,7762,-0.027,-0.956,-0.113,-0.488,0.671,0.488,547.311
101450,140321,19647,-0.025,-0.956,-0.114,-0.549,0.671,0.549,547.315
101450,140504,7771,-0.027,-0.957,-0.111,-0.549,0.671,0.549,547.321
101426,140321,19647,-0.03,-0.961,-0.109,-0.549,0.549,0.488,547.325
101426,140527,7782,-0.029,-0.961,-0.112,-0.549,0.549,0.488,547.331
101448,140321,19647,-0.03,-0.957,-0.113,-0.61,0.61,0.488,547.335
101448,140530,7762,-0.028,-0.959,-0.114,-0.61,0.61,0.488,547.341
101420,140321,19647,-0.028,-0.961,-0.112,-0.366,0.488,0.427,547.344
101420,140516,7778,-0.027,-0.961,-0.112,-0.366,0.488,0.427,547.351
101445,140321,19647,-0.026,-0.96,-0.116,-0.183,0.488,0.427,547.354
101445,140495,7786,-0.027,-0.959,-0.112,-0.183,0.488,0.427,547.361
101436,140321,19647,-0.025,-0.959,-0.114,-0.183,0.427,0.488,547.364
101436,140538,7771,-0.026,-0.958,-0.113,-0.183,0.427,0.488,547.37
101438,140321,19647,-0.024,-0.957,-0.112,-0.122,0.366,0.427,547.374
101438,140527,7783,-0.026,-0.957,-0.114,-0.122,0.366,0.427,547.38
101443,140321,19647,-0.026,-0.958,-0.115,-0.061,0.366,0.305,547.384
101443,140534,7779,-0.027,-0.957,-0.113,-0.061,0.366,0.305,547.39
101440,140321,19647,-0.028,-0.957,-0.112,-0.122,0.427,0.305,547.394
101440,140529,7778,-0.028,-0.957,-0.112,-0.122,0.427,0.305,547.4
101442,140321,19647,-0.027,-0.956,-0.114,0.061,0.427,0.183,547.404
101442,140530,7763,-0.031,-0.956,-0.115,0.061,0.427,0.183,547.41
101435,140321,19647,-0.026,-0.958,-0.112,0,0.427,0.244,547.414
101435,140525,7786,-0.03,-0.957,-0.111,0,0.427,0.244,547.42
101433,140577,19647,-0.032,-0.96,-0.113,-0.122,0.366,0.244,547.424
101433,140547,7770,-0.03,-0.96,-0.111,-0.122,0.366,0.244,547.43
101443,140321,19647,-0.028,-0.959,-0.113,-0.183,0.244,0.122,547.434
101443,140524,7773,-0.028,-0.958,-0.113,-0.183,0.244,0.122,547.44
101439,140321,19647,-0.03,-0.959,-0.112,-0.183,0.183,0.244,547.443
101439,140536,7774,-0.026,-0.959,-0.11,-0.183,0.183,0.244,547.45
101428,140321,19647,-0.027,-0.961,-0.112,-0.122,0.244,0.244,547.453
101428,140540,7787,-0.027,-0.96,-0.112,-0.122,0.244,0.244,547.46
101455,140321,19647,-0.027,-0.963,-0.11,0.061,0.183,0.244,547.463
101455,140531,7764,-0.027,-0.96,-0.109,0.061,0.183,0.244,547.469
101442,140321,19647,-0.027,-0.96,-0.106,0.183,0.061,0.305,547.473
101442,140527,7768,-0.027,-0.956,-0.106,0.183,0.061,0.305,547.479
101449,140577,19647,-0.023,-0.959,-0.111,0.122,0.305,0.427,547.483
101449,140550,7784,-0.026,-0.959,-0.111,0.122,0.305,0.427,547.489
101448,140577,19647,-0.026,-0.959,-0.112,-0.183,0.244,0.488,547.493
101448,140545,7779,-0.025,-0.957,-0.112,-0.183,0.244,0.488,547.499
101455,140577,19647,-0.024,-0.957,-0.112,-0.366,0.366,0.427,547.503
101455,140547,7778,-0.023,-0.956,-0.113,-0.366,0.366,0.427,547.509
101430,140577,19647,-0.023,-0.952,-0.114,-0.488,0.61,0.183,547.513
101430,140560,7781,-0.021,-0.957,-0.111,-0.488,0.61,0.183,547.519
101472,140321,19647,-0.021,-0.958,-0.114,-0.366,0.915,0.122,547.523
101472,140529,7787,-0.019,-0.958,-0.114,-0.366,0.915,0.122,547.529
101455,140321,19647,-0.021,-0.958,-0.111,-0.427,1.037,0.122,547.533
101455,140531,7788,-0.025,-0.959,-0.112,-0.427,1.037,0.122,547.539
101456,140321,19647,-0.025,-0.959,-0.112,-0.427,1.037,0.122,547.542
101456,140532,7786,-0.026,-0.964,-0.114,-0.427,0.915,0.122,547.549
101452,140577,19647,-0.026,-0.964,-0.114,-0.427,0.915,0.122,547.552
101452,140551,7782,-0.028,-0.962,-0.117,-0.366,0.793,0.244,547.559
101452,140321,19647,-0.028,-0.962,-0.117,-0.366,0.793,0.244,547.562
101452,140529,7785,-0.028,-0.961,-0.11,-0.244,0.488,0.427,547.568
101444,140321,19647,-0.028,-0.961,-0.11,-0.244,0.488,0.427,547.572
101444,140525,7795,-0.032,-0.959,-0.112,-0.183,0.244,0.549,547.578
101452,140577,19647,-0.032,-0.959,-0.112,-0.183,0.244,0.549,547.582
101452,140559,7784,-0.029,-0.957,-0.113,-0.305,0.122,0.671,547.588
101436,140321,19647,-0.029,-0.957,-0.113,-0.305,0.122,0.671,547.592
101436,140537,7773,-0.03,-0.962,-0.11,-0.305,0,0.732,547.598
101432,140577,19647,-0.03,-0.962,-0.11,-0.305,0,0.732,547.602
101432,140553,7784,-0.028,-0.958,-0.111,-0.244,0,0.549,547.608
101456,140321,19647,-0.028,-0.958,-0.111,-0.244,0,0.549,547.612
101456,140536,7789,-0.028,-0.96,-0.113,-0.061,0.061,0.427,547.618
101442,140577,19647,-0.028,-0.96,-0.113,-0.061,0.061,0.427,547.622
101442,140563,7780,-0.028,-0.957,-0.115,0.244,0.183,0.305,547.628
101444,140577,19647,-0.028,-0.957,-0.115,0.244,0.183,0.305,547.632
101444,140548,7788,-0.025,-0.955,-0.11,0.183,0.305,0.183,547.638
101457,140577,19647,-0.025,-0.955,-0.11,0.183,0.305,0.183,547.641
101457,140570,7780,-0.028,-0.959,-0.106,-0.061,0.427,0.122,547.648
101448,140577,19647,-0.028,-0.959,-0.106,-0.061,0.427,0.122,547.651
101448,140565,7785,-0.025,-0.958,-0.11,-0.366,0.427,0.061,547.658
101461,140321,19647,-0.025,-0.958,-0.11,-0.366,0.427,0.061,547.661
101461,140542,7781,-0.03,-0.957,-0.115,-0.732,0.366,0.061,547.667
101448,140577,19647,-0.03,-0.957,-0.115,-0.732,0.366,0.061,547.671
101448,140556,7784,-0.03,-0.958,-0.111,-0.915,0.366,0.061,547.677
101462,140577,19647,-0.03,-0.958,-0.111,-0.915,0.366,0.061,547.681
101462,140552,7788,-0.027,-0.957,-0.115,-0.671,0.427,0.122,547.687
101470,140321,19647,-0.029,-0.957,-0.114,-0.671,0.427,0.122,547.691
101470,140540,7789,-0.027,-0.958,-0.114,-0.305,0.305,0,547.697
101461,140577,19647,-0.027,-0.958,-0.118,-0.305,0.305,0,547.701
101461,140563,7779,-0.029,-0.958,-0.117,0.061,0,-0.122,547.707
101472,140577,19647,-0.027,-0.961,-0.117,0.061,0,-0.122,547.711
101472,140558,7784,-0.025,-0.958,-0.115,0.427,-0.183,-0.122,547.717
101466,140577,19647,-0.023,-0.956,-0.115,0.427,-0.183,-0.122,547.721
101466,140548,7773,-0.024,-0.956,-0.113,0.488,-0.305,-0.122,547.727
101461,140577,19647,-0.023,-0.96,-0.109,0.488,-0.305,-0.122,547.731
101461,140549,7780,-0.025,-0.961,-0.11,0.305,-0.488,-0.122,547.737
101473,140577,19647,-0.026,-0.96,-0.112,0.305,-0.488,-0.122,547.74
101473,140560,7790,-0.027,-0.959,-0.11,0.244,-0.366,0,547.747
101454,140577,19647,-0.025,-0.961,-0.109,0.244,-0.366,0,547.75
101454,140545,7793,-0.027,-0.963,-0.109,0.183,-0.366,0.244,547.757
101488,140577,19647,-0.024,-0.962,-0.108,0.183,-0.366,0.244,547.76
101488,140571,7788,-0.023,-0.962,-0.108,0.122,-0.122,0.244,547.766
101454,140577,19647,-0.023,-0.96,-0.108,0.122,-0.122,0.244,547.77
101454,140570,7782,-0.019,-0.957,-0.107,0,0.061,0.305,547.776
101483,140577,19647,-0.023,-0.955,-0.108,0,0.061,0.305,547.78
101483,140567,7801,-0.023,-0.955,-0.106,-0.244,0.366,0.244,547.786
101468,140577,19647,-0.022,-0.955,-0.108,-0.244,0.366,0.244,547.79
101468,140566,7785,-0.02,-0.959,-0.11,-0.671,0.732,0.366,547.796
101472,140577,19647,-0.023,-0.959,-0.109,-0.671,0.732,0.366,547.8
101472,140588,7797,-0.02,-0.959,-0.108,-0.915,1.037,0.427,547.806
101467,140577,19647,-0.024,-0.961,-0.112,-0.915,1.037,0.427,547.81
101467,140590,7779,-0.022,-0.961,-0.113,-1.037,1.037,0.427,547.816
101475,140577,19647,-0.023,-0.957,-0.115,-1.037,1.037,0.427,547.82
101475,140578,7768,-0.026,-0.959,-0.11,-0.976,0.915,0.549,547.826
101454,140577,19647,-0.024,-0.959,-0.112,-0.976,0.915,0.549,547.83
101454,140569,7800,-0.026,-0.963,-0.114,-1.098,0.915,0.854,547.836
101469,140577,19647,-0.028,-0.961,-0.113,-1.098,0.915,0.854,547.839
101469,140560,7787,-0.028,-0.958,-0.116,-1.037,0.793,0.854,547.846
101453,140577,19647,-0.029,-0.959,-0.113,-1.037,0.793,0.854,547.849
101453,140550,7788,-0.025,-0.958,-0.114,-0.854,0.549,0.793,547.856
101445,140321,19647,-0.029,-0.96,-0.112,-0.854,0.549,0.793,547.859
101445,140536,7771,-0.03,-0.958,-0.115,-0.793,0.427,0.915,547.865
101441,140321,19647,-0.026,-0.962,-0.112,-0.793,0.427,0.915,547.869
101441,140538,7783,-0.026,-0.959,-0.113,-0.488,0.61,0.915,547.875
101453,140321,19647,-0.028,-0.956,-0.115,-0.488,0.61,0.915,547.879
101453,140533,7778,-0.027,-0.954,-0.117,-0.244,0.549,0.915,547.885
101437,140321,19647,-0.028,-0.953,-0.114,-0.244,0.549,0.915,547.889
101437,140524,7789,-0.026,-0.956,-0.11,-0.244,0.61,0.854,547.895
101437,140321,19647,-0.026,-0.958,-0.114,-0.244,0.61,0.854,547.899
101437,140512,7799,-0.027,-0.958,-0.115,-0.488,0.671,0.793,547.905
101424,140321,19647,-0.028,-0.954,-0.115,-0.488,0.671,0.793,547.909
101424,140517,7779,-0.026,-0.954,-0.114,-0.671,0.671,0.671,547.915
101430,140321,19647,-0.025,-0.955,-0.113,-0.671,0.671,0.671,547.919
101430,140519,7772,-0.025,-0.954,-0.115,-0.854,0.732,0.61,547.925
101437,140321,19647,-0.026,-0.959,-0.117,-0.854,0.732,0.61,547.929
101437,140521,7785,-0.027,-0.956,-0.112,-0.793,0.732,0.488,547.935
101428,140321,19647,-0.029,-0.959,-0.117,-0.793,0.732,0.488,547.939
101428,140491,7785,-0.03,-0.959,-0.119,-0.732,0.732,0.61,547.945
101424,140321,19647,-0.028,-0.955,-0.12,-0.732,0.732,0.61,547.948
101424,140502,7769,-0.026,-0.958,-0.117,-0.549,0.61,0.366,547.955
101428,140321,19647,-0.029,-0.955,-0.116,-0.549,0.61,0.366,547.958
101428,140508,7779,-0.031,-0.96,-0.115,-0.305,0.549,0.305,547.964
101421,140321,19647,-0.028,-0.959,-0.114,-0.305,0.549,0.305,547.968
101421,140523,7770,-0.028,-0.96,-0.117,-0.061,0.488,0.244,547.974
101421,140321,19647,-0.028,-0.959,-0.117,-0.061,0.488,0.244,547.978
101421,140534,7783,-0.027,-0.957,-0.115,0.061,0.122,0.183,547.984
101426,140321,19647,-0.03,-0.955,-0.112,0.061,0.122,0.183,547.988
101426,140514,7775,-0.028,-0.955,-0.114,0.183,0.061,0.183,547.994
101425,140577,19647,-0.026,-0.958,-0.115,0.183,0.061,0.183,547.998
101425,140556,7787,-0.026,-0.958,-0.112,0.244,0,0.244,548.004
101432,140321,19647,-0.023,-0.956,-0.109,0.244,0,0.244,548.008
101432,140540,7780,-0.026,-0.958,-0.113,0,0.122,0.183,548.014
101436,140321,19647,-0.027,-0.96,-0.113,0,0.122,0.183,548.018
101436,140535,7773,-0.024,-0.961,-0.113,-0.122,0.244,0.183,548.024
101434,140321,19647,-0.024,-0.96,-0.114,-0.122,0.244,0.183,548.028
101434,140541,7784,-0.025,-0.958,-0.11,-0.366,0.366,0.366,548.034
101437,140321,19647,-0.024,-0.958,-0.111,-0.366,0.366,0.366,548.038
101437,140521,7774,-0.024,-0.958,-0.112,-0.366,0.427,0.366,548.044
101435,140321,19647,-0.024,-0.959,-0.114,-0.366,0.427,0.366,548.047
101435,140533,7783,-0.023,-0.959,-0.109,-0.427,0.366,0.366,548.054
101442,140321,19647,-0.024,-0.959,-0.11,-0.427,0.366,0.366,548.057
101442,140518,7792,-0.027,-0.959,-0.114,-0.549,0.488,0.61,548.064
101426,140321,19647,-0.027,-0.958,-0.111,-0.549,0.488,0.61,548.067
101426,140536,7792,-0.029,-0.958,-0.112,-0.671,0.488,0.549,548.073
101442,140321,19647,-0.026,-0.957,-0.113,-0.671,0.488,0.549,548.077
101442,140508,7784,-0.029,-0.957,-0.112,-0.61,0.366,0.549,548.083
101417,140321,19647,-0.029,-0.958,-0.11,-0.61,0.366,0.549,548.087
101417,140520,7779,-0.028,-0.958,-0.116,-0.549,0.488,0.549,548.093
101444,140321,19647,-0.027,-0.961,-0.112,-0.549,0.488,0.549,548.097
101444,140507,7775,-0.029,-0.958,-0.113,-0.366,0.488,0.488,548.103
101426,140321,19647,-0.03,-0.956,-0.115,-0.366,0.488,0.488,548.107
101426,140522,7779,-0.027,-0.958,-0.114,-0.305,0.488,0.366,548.113
101436,140321,19647,-0.028,-0.955,-0.116,-0.305,0.488,0.366,548.117
101436,140541,7785,-0.029,-0.958,-0.117,-0.366,0.488,0.366,548.123
101414,140321,19647,-0.024,-0.956,-0.113,-0.366,0.488,0.366,548.127
101414,140539,7782,-0.026,-0.956,-0.112,-0.488,0.427,0.366,548.133
101430,140321,19647,-0.026,-0.956,-0.112,-0.488,0.427,0.366,548.137
101430,140537,7784,-0.024,-0.958,-0.111,-0.61,0.427,0.244,548.143
101425,140321,19647,-0.024,-0.958,-0.111,-0.61,0.427,0.244,548.146
101425,140535,7774,-0.031,-0.962,-0.111,-0.671,0.427,0.244,548.153
101431,140321,19647,-0.031,-0.962,-0.111,-0.671,0.427,0.244,548.156
101431,140532,7772,-0.027,-0.962,-0.115,-0.488,0.427,0.366,548.162
101413,140321,19647,-0.027,-0.962,-0.115,-0.488,0.427,0.366,548.166
101413,140532,7786,-0.026,-0.958,-0.119,-0.244,0.305,0.366,548.172
101437,140321,19647,-0.026,-0.958,-0.119,-0.244,0.305,0.366,548.176
101437,140541,7778,-0.03,-0.954,-0.116,-0.183,0.244,0.305,548.182
101429,140321,19647,-0.03,-0.954,-0.116,-0.183,0.244,0.305,548.186
101429,140523,7785,-0.027,-0.959,-0.114,-0.122,0.244,0.244,548.192
101424,140321,19647,-0.027,-0.959,-0.114,-0.122,0.244,0.244,548.196
101424,140503,7783,-0.027,-0.957,-0.11,-0.122,0.244,0.244,548.202
101426,140321,19647,-0.027,-0.957,-0.11,-0.122,0.244,0.244,548.206
101426,140524,7782,-0.027,-0.96,-0.113,-0.061,0.244,0.122,548.212
101418,140321,19647,-0.027,-0.96,-0.113,-0.061,0.244,0.122,548.216
101418,140504,7795,-0.026,-0.96,-0.113,-0.061,0.305,0.122,548.222
101429,140321,19647,-0.026,-0.96,-0.113,-0.061,0.305,0.122,548.226
101429,140522,7780,-0.02,-0.955,-0.116,0.122,0.488,0.244,548.232
101424,140321,19647,-0.02,-0.955,-0.116,0.122,0.488,0.244,548.236
101424,140521,7783,-0.024,-0.958,-0.113,0,0.427,0.244,548.242
101442,140321,19647,-0.024,-0.958,-0.113,0,0.427,0.244,548.245
101442,140523,7793,-0.024,-0.96,-0.111,-0.427,0.488,0.305,548.252
101450,140321,19647,-0.024,-0.96,-0.111,-0.427,0.488,0.305,548.255
101450,140507,7781,-0.025,-0.96,-0.116,-0.549,0.549,0.488,548.262
101411,140321,19647,-0.025,-0.96,-0.116,-0.549,0.549,0.488,548.265
101411,140523,7789,-0.025,-0.962,-0.114,-0.366,0.549,0.488,548.271
101440,140321,19647,-0.025,-0.962,-0.114,-0.366,0.549,0.488,548.275
101440,140519,7801,-0.025,-0.958,-0.112,-0.427,0.488,0.671,548.281
101429,140321,19647,-0.025,-0.958,-0.112,-0.427,0.488,0.671,548.285
101429,140527,7771,-0.026,-0.961,-0.115,-0.427,0.488,0.671,548.291
101435,140321,19647,-0.028,-0.958,-0.114,-0.549,0.549,0.671,548.295
101435,140520,7793,-0.027,-0.958,-0.113,-0.549,0.549,0.671,548.301
101422,140577,19647,-0.026,-0.957,-0.113,-0.732,0.61,0.61,548.305
101422,140546,7785,-0.029,-0.96,-0.112,-0.732,0.61,0.61,548.311
101438,140577,19647,-0.027,-0.959,-0.109,-0.854,0.61,0.671,548.315
101438,140550,7792,-0.029,-0.957,-0.114,-0.854,0.61,0.671,548.321
101427,140321,19647,-0.029,-0.957,-0.117,-0.671,0.671,0.549,548.325
101427,140524,7785,-0.027,-0.96,-0.116,-0.671,0.671,0.549,548.331
101444,140321,19647,-0.028,-0.958,-0.115,-0.488,0.549,0.549,548.335
101444,140536,7783,-0.029,-0.957,-0.115,-0.488,0.549,0.549,548.341
101436,140321,19647,-0.029,-0.958,-0.111,-0.366,0.61,0.488,548.344
101436,140541,7795,-0.025,-0.957,-0.116,-0.366,0.61,0.488,548.351
101438,140321,19647,-0.025,-0.956,-0.116,-0.366,0.549,0.427,548.354
101438,140536,7787,-0.028,-0.959,-0.116,-0.366,0.549,0.427,548.361
101438,140321,19647,-0.026,-0.956,-0.115,-0.488,0.549,0.488,548.364
101438,140530,7770,-0.024,-0.958,-0.117,-0.488,0.549,0.488,548.37
101429,140577,19647,-0.026,-0.958,-0.115,-0.671,0.488,0.427,548.374
101429,140547,7777,-0.027,-0.958,-0.115,-0.671,0.488,0.427,548.38
101444,140321,19647,-0.028,-0.956,-0.117,-0.488,0.488,0.488,548.384
101444,140531,7776,-0.026,-0.957,-0.114,-0.488,0.488,0.488,548.39
101445,140321,19647,-0.028,-0.962,-0.114,-0.427,0.427,0.61,548.394
101445,140538,7788,-0.028,-0.963,-0.116,-0.427,0.427,0.61,548.4
101457,140321,19647,-0.026,-0.961,-0.115,-0.61,0.488,0.61,548.404
101457,140535,7797,-0.029,-0.957,-0.114,-0.61,0.488,0.61,548.41
101445,140577,19647,-0.027,-0.956,-0.116,-0.488,0.366,0.549,548.414
101445,140548,7774,-0.03,-0.956,-0.115,-0.488,0.366,0.549,548.42
101430,140321,19647,-0.028,-0.96,-0.114,-0.488,0.427,0.549,548.424
101430,140533,7786,-0.028,-0.957,-0.112,-0.488,0.427,0.549,548.43
101456,140321,19647,-0.032,-0.957,-0.113,-0.488,0.488,0.549,548.434
101456,140539,7795,-0.029,-0.957,-0.118,-0.488,0.488,0.549,548.44
101430,140321,19647,-0.03,-0.957,-0.116,-0.488,0.549,0.427,548.443
101430,140536,7797,-0.03,-0.954,-0.117,-0.488,0.549,0.427,548.45
101441,140321,19647,-0.028,-0.954,-0.113,-0.427,0.427,0.244,548.453
101441,140536,7775,-0.029,-0.957,-0.117,-0.427,0.427,0.244,548.46
101442,140577,19647,-0.028,-0.957,-0.117,-0.366,0.488,0.183,548.463
101442,140553,7803,-0.028,-0.961,-0.117,-0.366,0.488,0.183,548.469
101431,140321,19647,-0.031,-0.963,-0.115,-0.427,0.488,0.183,548.473
101431,140534,7796,-0.029,-0.96,-0.115,-0.427,0.488,0.183,548.479
101429,140577,19647,-0.028,-0.959,-0.12,-0.122,0.305,0.183,548.483
101429,140547,7779,-0.028,-0.959,-0.117,-0.122,0.305,0.183,548.489
101432,140577,19647,-0.028,-0.959,-0.115,0.183,0.183,0.183,548.493
101432,140570,7791,-0.028,-0.959,-0.114,0.183,0.183,0.183,548.499
101441,140577,19647,-0.028,-0.961,-0.115,0.183,0,0.244,548.503
101441,140557,7786,-0.026,-0.959,-0.114,0.183,0,0.244,548.509
101446,140577,19647,-0.028,-0.959,-0.118,0.244,-0.061,0.305,548.513
101446,140560,7789,-0.028,-0.955,-0.118,0.244,-0.061,0.305,548.519
101426,140577,19647,-0.026,-0.953,-0.117,0.122,0,0.244,548.523
101426,140550,7806,-0.028,-0.956,-0.117,0.122,0,0.244,548.529
101441,140321,19647,-0.023,-0.954,-0.118,0,0.122,0.183,548.533
101441,140540,7787,-0.023,-0.956,-0.113,0,0.122,0.183,548.539
101437,140577,19647,-0.022,-0.955,-0.113,-0.305,0.427,0.061,548.542
101437,140563,7787,-0.02,-0.953,-0.114,-0.305,0.427,0.061,548.549
101460,140321,19647,-0.019,-0.96,-0.114,-0.305,0.549,0.061,548.552
101460,140536,7782,-0.019,-0.96,-0.114,-0.305,0.549,0.061,548.559
101440,140577,19647,-0.022,-0.961,-0.113,-0.366,0.793,0.244,548.562
101440,140558,7798,-0.023,-0.961,-0.114,-0.366,0.793,0.244,548.568
101443,140577,19647,-0.023,-0.963,-0.115,-0.549,0.732,0.305,548.572
101443,140555,7778,-0.027,-0.963,-0.114,-0.549,0.732,0.305,548.578
101431,140321,19647,-0.026,-0.964,-0.112,-0.549,0.61,0.427,548.582
101431,140542,7793,-0.024,-0.961,-0.111,-0.549,0.61,0.427,548.588
101445,140577,19647,-0.026,-0.96,-0.109,-0.427,0.427,0.671,548.592
101445,140558,7791,-0.029,-0.958,-0.112,-0.427,0.427,0.671,548.598
101434,140577,19647,-0.032,-0.956,-0.114,-0.427,0.305,0.732,548.602
101434,140579,7795,-0.031,-0.96,-0.112,-0.427,0.305,0.732,548.608
101456,140321,19647,-0.031,-0.959,-0.11,-0.549,0.305,0.915,548.612
101456,140534,7793,-0.031,-0.956,-0.113,-0.549,0.305,0.915,548.618
101430,140577,19647,-0.028,-0.956,-0.113,-0.671,0.366,0.915,548.622
101430,140556,7790,-0.03,-0.957,-0.114,-0.671,0.366,0.915,548.628
101455,140321,19647,-0.028,-0.957,-0.115,-0.61,0.305,0.732,548.632
101455,140528,7786,-0.028,-0.957,-0.116,-0.61,0.305,0.732,548.638
101434,140321,19647,-0.03,-0.958,-0.118,-0.488,0.366,0.61,548.641
101434,140533,7784,-0.025,-0.957,-0.118,-0.488,0.366,0.61,548.648
101447,140577,19647,-0.026,-0.954,-0.111,-0.366,0.549,0.366,548.651
101447,140554,7785,-0.026,-0.952,-0.113,-0.366,0.549,0.366,548.658
101441,140321,19647,-0.026,-0.953,-0.115,-0.122,0.61,0.305,548.661
101441,140535,7789,-0.027,-0.954,-0.12,-0.122,0.61,0.305,548.667
101470,140577,19647,-0.025,-0.954,-0.121,-0.305,0.793,0.244,548.671
101470,140544,7802,-0.026,-0.958,-0.119,-0.305,0.793,0.244,548.677
101453,140577,19647,-0.025,-0.956,-0.115,-0.61,0.793,0.061,548.681
101453,140567,7792,-0.026,-0.955,-0.117,-0.61,0.793,0.061,548.687
101456,140577,19647,-0.027,-0.958,-0.121,-0.732,0.61,0.061,548.691
101456,140559,7797,-0.029,-0.961,-0.119,-0.732,0.61,0.061,548.697
101439,140577,19647,-0.026,-0.96,-0.12,-0.61,0.427,0.061,548.701
101439,140546,7811,-0.029,-0.962,-0.121,-0.61,0.427,0.061,548.707
101446,140321,19647,-0.03,-0.959,-0.125,-0.122,0.183,0.061,548.711
101446,140537,7788,-0.026,-0.959,-0.115,-0.122,0.183,0.061,548.717
101453,140577,19647,-0.029,-0.959,-0.119,0.305,0,0.122,548.721
101453,140582,7804,-0.026,-0.958,-0.115,0.305,0,0.122,548.727
101438,140321,19647,-0.026,-0.957,-0.117,0.427,-0.183,0.244,548.731
101438,140528,7799,-0.026,-0.957,-0.117,0.427,-0.183,0.244,548.737
101446,140577,19647,-0.026,-0.957,-0.117,0.427,-0.183,0.244,548.741
101446,140573,7798,-0.026,-0.957,-0.114,0.366,-0.244,0.244,548.747
101435,140577,19647,-0.026,-0.957,-0.114,0.366,-0.244,0.244,548.75
101435,140565,7785,-0.028,-0.957,-0.11,0.122,-0.183,0.183,548.757
101442,140577,19647,-0.028,-0.957,-0.11,0.122,-0.183,0.183,548.76
101442,140568,7790,-0.025,-0.962,-0.112,0.244,-0.061,0.183,548.766
101428,140577,19647,-0.025,-0.962,-0.112,0.244,-0.061,0.183,548.77
101428,140572,7785,-0.026,-0.958,-0.112,0.122,0.061,0.244,548.776
101442,140577,19647,-0.026,-0.958,-0.112,0.122,0.061,0.244,548.78
101442,140591,7793,-0.027,-0.96,-0.111,0.305,0.122,0.305,548.786
101453,140577,19647,-0.027,-0.96,-0.111,0.305,0.122,0.305,548.79
101453,140559,7809,-0.025,-0.956,-0.111,0.183,0.244,0.183,548.796
101444,140577,19647,-0.025,-0.956,-0.111,0.183,0.244,0.183,548.8
101444,140573,7814,-0.023,-0.956,-0.111,-0.122,0.488,0.183,548.806
101439,140577,19647,-0.023,-0.956,-0.111,-0.122,0.488,0.183,548.81
101439,140576,7798,-0.025,-0.956,-0.112,-0.427,0.732,0.366,548.816
101451,140577,19647,-0.025,-0.956,-0.112,-0.427,0.732,0.366,548.82
101451,140553,7802,-0.027,-0.963,-0.115,-0.671,0.854,0.488,548.826
101429,140577,19647,-0.027,-0.963,-0.115,-0.671,0.854,0.488,548.83
101429,140561,7802,-0.026,-0.96,-0.114,-0.732,0.854,0.549,548.836
101454,140577,19647,-0.026,-0.96,-0.114,-0.732,0.854,0.549,548.839
101454,140577,7798,-0.025,-0.961,-0.113,-0.671,0.793,0.671,548.846
101446,140577,19647,-0.025,-0.961,-0.113,-0.671,0.793,0.671,548.849
101446,140577,7798,-0.027,-0.957,-0.118,-0.549,0.793,0.61,548.856
101442,140577,19647,-0.027,-0.957,-0.118,-0.549,0.793,0.61,548.859
101442,140563,7798,-0.029,-0.958,-0.12,-0.549,0.671,0.671,548.865
101444,140577,19647,-0.029,-0.958,-0.12,-0.549,0.671,0.671,548.869
101444,140558,7789,-0.028,-0.96,-0.118,-0.305,0.671,0.732,548.875
101444,140577,19647,-0.028,-0.96,-0.118,-0.305,0.671,0.732,548.879
101444,140566,7783,-0.03,-0.96,-0.116,-0.122,0.61,0.549,548.885
101422,140577,19647,-0.029,-0.961,-0.116,-0.122,0.61,0.549,548.889
101422,140563,7799,-0.027,-0.959,-0.116,0.061,0.427,0.488,548.895
101437,140321,19647,-0.03,-0.959,-0.118,0.061,0.427,0.488,548.899
101437,140514,7792,-0.029,-0.958,-0.116,0.183,0.427,0.549,548.905
101428,140321,19647,-0.027,-0.956,-0.118,0.183,0.427,0.549,548.909
101428,140532,7780,-0.028,-0.956,-0.116,0.122,0.427,0.549,548.915
101429,140321,19647,-0.028,-0.953,-0.115,0.122,0.427,0.549,548.919
101429,140510,7796,-0.026,-0.955,-0.116,0,0.488,0.366,548.925
101422,140321,19647,-0.027,-0.955,-0.115,0,0.488,0.366,548.929
101422,140538,7801,-0.028,-0.955,-0.114,0,0.427,0.305,548.935
101421,140321,19647,-0.028,-0.956,-0.114,0,0.427,0.305,548.939
101421,140533,7796,-0.029,-0.955,-0.111,0,0.488,0.305,548.945
101420,140321,19647,-0.028,-0.955,-0.114,0,0.488,0.305,548.948
101420,140543,7787,-0.029,-0.957,-0.112,0,0.427,0.244,548.955
101416,140321,19647,-0.026,-0.959,-0.115,0,0.427,0.244,548.958
101416,140525,7795,-0.029,-0.958,-0.119,0.122,0.427,0.183,548.964
101427,140321,19647,-0.029,-0.956,-0.117,0.122,0.427,0.183,548.968
101427,140540,7786,-0.027,-0.96,-0.113,0.305,0.427,0.122,548.974
101409,140321,19647,-0.027,-0.96,-0.114,0.305,0.427,0.122,548.978
101409,140527,7786,-0.03,-0.956,-0.115,0.488,0.427,0.061,548.984
101411,140577,19647,-0.026,-0.958,-0.116,0.488,0.427,0.061,548.988
101411,140548,7797,-0.025,-0.958,-0.115,0.488,0.305,0,548.994
101418,140321,19647,-0.024,-0.958,-0.113,0.488,0.305,0,548.998
101418,140528,7793,-0.024,-0.959,-0.115,0.366,0.427,0.061,549.004
101426,140321,19647,-0.024,-0.96,-0.115,0.366,0.427,0.061,549.008
101426,140541,7765,-0.024,-0.959,-0.117,0.122,0.366,0.244,549.014
101418,140321,19647,-0.024,-0.956,-0.116,0.122,0.366,0.244,549.018
101418,140521,7777,-0.025,-0.955,-0.115,0.061,0.366,0.305,549.024
101402,140321,19647,-0.024,-0.957,-0.112,0.061,0.366,0.305,549.028
101402,140521,7805,-0.025,-0.958,-0.112,-0.061,0.366,0.305,549.034
101418,140321,19647,-0.027,-0.961,-0.112,-0.061,0.366,0.305,549.038
101418,140532,7778,-0.025,-0.959,-0.114,-0.244,0.427,0.366,549.044
101417,140321,19647,-0.025,-0.958,-0.116,-0.244,0.427,0.366,549.047
101417,140532,7787,-0.027,-0.961,-0.112,-0.244,0.427,0.366,549.054
101422,140321,19647,-0.027,-0.957,-0.11,-0.244,0.427,0.366,549.057
101422,140531,7785,-0.027,-0.954,-0.11,-0.122,0.427,0.427,549.064
101426,140321,19647,-0.025,-0.959,-0.11,-0.122,0.427,0.427,549.067
101426,140524,7789,-0.025,-0.96,-0.111,-0.244,0.488,0.366,549.073
101430,140321,19647,-0.025,-0.958,-0.114,-0.244,0.488,0.366,549.077
101430,140522,7792,-0.03,-0.959,-0.112,-0.244,0.488,0.427,549.083
101429,140321,19647,-0.028,-0.959,-0.115,-0.244,0.488,0.427,549.087
101429,140531,7787,-0.025,-0.954,-0.116,-0.305,0.488,0.427,549.093
101429,140321,19647,-0.027,-0.957,-0.112,-0.305,0.488,0.427,549.097
101429,140530,7791,-0.029,-0.959,-0.112,-0.427,0.549,0.305,549.103
101431,140321,19647,-0.028,-0.959,-0.119,-0.427,0.549,0.305,549.107
101431,140535,7805,-0.029,-0.957,-0.117,-0.427,0.61,0.305,549.113
101389,140321,19647,-0.03,-0.959,-0.116,-0.427,0.61,0.305,549.117
101389,140536,7789,-0.03,-0.961,-0.116,-0.305,0.488,0.366,549.123
101420,140321,19647,-0.031,-0.957,-0.118,-0.305,0.488,0.366,549.127
101420,140529,7789,-0.03,-0.958,-0.116,0,0.427,0.244,549.133
101397,140321,19647,-0.027,-0.957,-0.115,0,0.427,0.244,549.137
101397,140530,7802,-0.028,-0.954,-0.114,0.244,0.305,0.183,549.143
101415,140321,19647,-0.027,-0.957,-0.116,0.244,0.305,0.183,549.146
101415,140524,7785,-0.027,-0.959,-0.116,0.366,0.305,0.244,549.153
101404,140321,19647,-0.027,-0.962,-0.118,0.366,0.305,0.244,549.156
101404,140519,7787,-0.026,-0.96,-0.115,0.122,0.366,0.305,549.162
101415,140321,19647,-0.027,-0.958,-0.116,0.122,0.366,0.305,549.166
101415,140522,7792,-0.024,-0.956,-0.115,0,0.183,0.244,549.172
101414,140321,19647,-0.027,-0.959,-0.113,0,0.183,0.244,549.176
101414,140531,7787,-0.025,-0.956,-0.115,-0.122,0.183,0.061,549.182
101423,140577,19647,-0.027,-0.959,-0.117,-0.122,0.183,0.061,549.186
101423,140551,7806,-0.023,-0.956,-0.113,-0.122,0.183,0.183,549.192
101411,140321,19647,-0.025,-0.959,-0.112,-0.122,0.183,0.183,549.196
101411,140516,7788,-0.026,-0.961,-0.112,-0.061,0.244,0.244,549.202
101431,140321,19647,-0.027,-0.961,-0.112,-0.061,0.244,0.244,549.206
101431,140536,7793,-0.028,-0.96,-0.115,-0.061,0.183,0.244,549.212
101414,140321,19647,-0.028,-0.959,-0.115,-0.061,0.183,0.244,549.216
101414,140520,7802,-0.028,-0.959,-0.116,0.183,0.244,0.122,549.222
101407,140321,19647,-0.028,-0.96,-0.114,0.183,0.244,0.122,549.226
101407,140510,7798,-0.027,-0.961,-0.115,0.305,0.183,0.122,549.232
101435,140321,19647,-0.026,-0.96,-0.117,0.305,0.183,0.122,549.236
101435,140503,7787,-0.027,-0.959,-0.114,0.183,0.061,0.244,549.242
101412,140321,19647,-0.027,-0.962,-0.114,0.183,0.061,0.244,549.245
101412,140522,7801,-0.022,-0.961,-0.113,0.061,0.183,0.305,549.252
101417,140321,19647,-0.022,-0.96,-0.109,0.061,0.183,0.305,549.255
101417,140519,7798,-0.024,-0.956,-0.111,0,0.244,0.305,549.262
101423,140321,19647,-0.025,-0.955,-0.113,0,0.244,0.305,549.265
101423,140521,7772,-0.025,-0.958,-0.113,-0.122,0.366,0.427,549.271
101397,140577,19647,-0.023,-0.955,-0.113,-0.122,0.366,0.427,549.275
101397,140550,7793,-0.022,-0.956,-0.115,-0.305,0.488,0.427,549.281
101397,140321,19647,-0.026,-0.956,-0.113,-0.305,0.488,0.427,549.285
101397,140524,7783,-0.027,-0.959,-0.111,-0.305,0.61,0.305,549.291
101409,140321,19647,-0.028,-0.959,-0.113,-0.305,0.61,0.305,549.295
101409,140539,7789,-0.026,-0.957,-0.11,-0.244,0.61,0.366,549.301
101422,140321,19647,-0.025,-0.957,-0.114,-0.244,0.61,0.366,549.305
101422,140537,7781,-0.025,-0.959,-0.116,-0.244,0.549,0.366,549.311
101418,140321,19647,-0.026,-0.961,-0.119,-0.244,0.549,0.366,549.315
101418,140538,7787,-0.026,-0.96,-0.117,-0.122,0.549,0.366,549.321
101424,140321,19647,-0.029,-0.958,-0.116,-0.122,0.549,0.366,549.325
101424,140522,7781,-0.028,-0.957,-0.116,0,0.427,0.366,549.331
101413,140321,19647,-0.028,-0.957,-0.116,0,0.427,0.366,549.335
101413,140530,7788,-0.027,-0.957,-0.114,0.183,0.244,0.366,549.341
101428,140321,19647,-0.027,-0.957,-0.114,0.183,0.244,0.366,549.344
101428,140521,7786,-0.025,-0.956,-0.113,0.183,0.244,0.366,549.351
101406,140321,19647,-0.025,-0.956,-0.113,0.183,0.244,0.366,549.354
101406,140516,7796,-0.025,-0.96,-0.115,0,0.366,0.488,549.361
101389,140321,19647,-0.025,-0.96,-0.115,0,0.366,0.488,549.364
101389,140534,7793,-0.025,-0.957,-0.113,-0.183,0.427,0.488,549.37
101411,140321,19647,-0.025,-0.957,-0.113,-0.183,0.427,0.488,549.374
101411,140526,7786,-0.025,-0.958,-0.111,-0.244,0.244,0.427,549.38
101399,140321,19647,-0.025,-0.958,-0.111,-0.244,0.244,0.427,549.384
101399,140536,7798,-0.026,-0.96,-0.114,-0.244,0.305,0.427,549.39
101403,140577,19647,-0.026,-0.96,-0.114,-0.244,0.305,0.427,549.394
101403,140557,7799,-0.029,-0.958,-0.115,-0.244,0.366,0.488,549.4
101403,140321,19647,-0.029,-0.958,-0.115,-0.244,0.366,0.488,549.404
101403,140529,7797,-0.026,-0.962,-0.111,-0.061,0.366,0.427,549.41
101411,140577,19647,-0.026,-0.962,-0.111,-0.061,0.366,0.427,549.414
101411,140544,7793,-0.027,-0.957,-0.113,0,0.366,0.366,549.42
101416,140321,19647,-0.027,-0.957,-0.113,0,0.366,0.366,549.424
101416,140530,7778,-0.029,-0.961,-0.112,0.183,0.366,0.427,549.43
101416,140321,19647,-0.029,-0.961,-0.112,0.183,0.366,0.427,549.434
101416,140526,7792,-0.03,-0.962,-0.113,0.061,0.427,0.549,549.44
101412,140321,19647,-0.03,-0.962,-0.113,0.061,0.427,0.549,549.443
101412,140538,7796,-0.027,-0.958,-0.114,-0.122,0.488,0.549,549.45
101404,140577,19647,-0.027,-0.958,-0.114,-0.122,0.488,0.549,549.453
101404,140547,7785,-0.024,-0.952,-0.115,-0.366,0.61,0.427,549.46
101412,140321,19647,-0.024,-0.952,-0.115,-0.366,0.61,0.427,549.463
101412,140539,7805,-0.025,-0.954,-0.113,-0.549,0.732,0.366,549.469
101402,140321,19647,-0.025,-0.954,-0.113,-0.549,0.732,0.366,549.473
101402,140536,7800,-0.023,-0.957,-0.118,-0.549,0.732,0.366,549.479
101396,140321,19647,-0.023,-0.96,-0.115,-0.671,0.854,0.183,549.483
101396,140526,7794,-0.024,-0.959,-0.114,-0.671,0.854,0.183,549.489
101423,140321,19647,-0.024,-0.961,-0.115,-0.549,0.854,0.122,549.493
101423,140537,7793,-0.026,-0.96,-0.116,-0.549,0.854,0.122,549.499
101403,140321,19647,-0.025,-0.962,-0.114,-0.122,0.732,0.061,549.503
101403,140529,7789,-0.028,-0.964,-0.116,-0.122,0.732,0.061,549.509
101419,140321,19647,-0.029,-0.962,-0.116,0.061,0.488,0.122,549.513
101419,140522,7787,-0.028,-0.959,-0.116,0.061,0.488,0.122,549.519
101411,140321,19647,-0.028,-0.962,-0.119,0.183,0.183,0.244,549.523
101411,140525,7780,-0.029,-0.96,-0.116,0.183,0.183,0.244,549.529
101412,140577,19647,-0.027,-0.962,-0.115,0.366,-0.061,0.305,549.533
101412,140552,7784,-0.027,-0.962,-0.114,0.366,-0.061,0.305,549.539
101415,140321,19647,-0.029,-0.959,-0.115,0.488,-0.061,0.366,549.542
101415,140523,7784,-0.03,-0.956,-0.11,0.488,-0.061,0.366,549.549
101399,140577,19647,-0.03,-0.953,-0.112,0.366,-0.305,0.427,549.552
101399,140550,7798,-0.028,-0.957,-0.112,0.366,-0.305,0.427,549.559
101405,140577,19647,-0.026,-0.957,-0.113,0.305,-0.061,0.366,549.562
101405,140555,7788,-0.028,-0.958,-0.11,0.305,-0.061,0.366,549.568
101418,140321,19647,-0.026,-0.961,-0.111,0.366,0.061,0.366,549.572
101418,140529,7806,-0.025,-0.959,-0.111,0.366,0.061,0.366,549.578
101407,140321,19647,-0.026,-0.958,-0.11,0.366,0.122,0.366,549.582
101407,140518,7791,-0.023,-0.957,-0.112,0.366,0.122,0.366,549.588
101424,140321,19647,-0.023,-0.957,-0.109,0.122,0.244,0.244,549.592
101424,140542,7800,-0.025,-0.954,-0.11,0.122,0.244,0.244,549.598
101400,140321,19647,-0.024,-0.954,-0.113,-0.244,0.366,0.183,549.602
101400,140531,7802,-0.028,-0.955,-0.112,-0.244,0.366,0.183,549.608
101439,140577,19647,-0.027,-0.961,-0.109,-0.549,0.488,0.183,549.612
101439,140561,7798,-0.029,-0.963,-0.112,-0.549,0.488,0.183,549.618
101404,140577,19647,-0.028,-0.96,-0.117,-0.732,0.427,0.183,549.622
101404,140556,7798,-0.026,-0.958,-0.116,-0.732,0.427,0.183,549.628
101418,140321,19647,-0.027,-0.96,-0.115,-0.427,0.427,0.122,549.632
101418,140531,7783,-0.031,-0.96,-0.117,-0.427,0.427,0.122,549.638
101408,140577,19647,-0.026,-0.957,-0.119,-0.122,0.366,0.061,549.641
101408,140565,7792,-0.028,-0.956,-0.117,-0.122,0.366,0.061,549.648
101432,140321,19647,-0.028,-0.959,-0.115,0.183,0.183,0.122,549.651
101432,140529,7786,-0.025,-0.961,-0.115,0.183,0.183,0.122,549.658
101423,140321,19647,-0.026,-0.962,-0.112,0.122,0,0.122,549.661
101423,140538,7782,-0.024,-0.958,-0.111,0.122,0,0.122,549.667
101412,140321,19647,-0.025,-0.957,-0.112,0.061,0,0.244,549.671
101412,140543,7802,-0.024,-0.956,-0.112,0.061,0,0.244,549.677
101419,140577,19647,-0.026,-0.958,-0.114,-0.061,0,0.244,549.681
101419,140555,7794,-0.028,-0.961,-0.114,-0.061,0,0.244,549.687
101416,140321,19647,-0.026,-0.964,-0.11,-0.061,0,0.366,549.691
101416,140526,7803,-0.023,-0.961,-0.111,-0.061,0,0.366,549.697
101422,140577,19647,-0.024,-0.961,-0.111,0.183,0.061,0.427,549.701
