102948,141283,7952,-0.033,-0.933,-0.229,-0.732,0.732,0.488,253.23
102953,141089,19647,-0.033,-0.933,-0.229,-0.732,0.732,0.488,253.234
102953,141282,7944,-0.03,-0.937,-0.228,-0.488,0.488,0.61,253.24
102963,141089,19647,-0.03,-0.937,-0.228,-0.488,0.488,0.61,253.244
102963,141271,7965,-0.037,-0.939,-0.221,-0.61,0.549,0.427,253.25
102954,141089,19647,-0.037,-0.939,-0.221,-0.61,0.549,0.427,253.254
102954,141282,7956,-0.03,-0.936,-0.224,-0.366,0.549,0.244,253.26
102966,141089,19647,-0.03,-0.936,-0.224,-0.366,0.549,0.244,253.264
102966,141277,7964,-0.026,-0.935,-0.219,0.122,0.366,0.244,253.27
102961,141089,19647,-0.026,-0.935,-0.219,0.122,0.366,0.244,253.274
102961,141296,7947,-0.03,-0.942,-0.229,-0.183,0.305,0.244,253.28
102954,141089,19647,-0.03,-0.942,-0.229,-0.183,0.305,0.244,253.284
102954,141268,7948,-0.035,-0.938,-0.229,-0.366,0.61,0.549,253.29
102957,141089,19647,-0.035,-0.938,-0.229,-0.366,0.61,0.549,253.293
102957,141281,7939,-0.037,-0.933,-0.217,0.183,0.427,0.61,253.3
102954,141089,19647,-0.037,-0.933,-0.217,0.183,0.427,0.61,253.303
102954,141263,7940,-0.035,-0.934,-0.227,0.366,0.244,0.366,253.31
102975,141089,19647,-0.035,-0.934,-0.227,0.366,0.244,0.366,253.313
102975,141300,7944,-0.036,-0.943,-0.223,-0.061,0.305,0.366,253.319
102970,141089,19647,-0.036,-0.943,-0.223,-0.061,0.305,0.366,253.323
102970,141294,7966,-0.032,-0.935,-0.221,0.061,0.427,0.305,253.329
102982,141089,19647,-0.032,-0.935,-0.221,0.061,0.427,0.305,253.333
102982,141290,7949,-0.025,-0.936,-0.215,0.305,0.122,-0.122,253.339
102980,141089,19647,-0.025,-0.936,-0.215,0.305,0.122,-0.122,253.343
102980,141291,7957,-0.027,-0.945,-0.218,-0.183,0.183,0,253.349
102958,141089,19647,-0.027,-0.945,-0.218,-0.183,0.183,0,253.353
102958,141294,7953,-0.031,-0.946,-0.229,-0.915,0.671,0.183,253.359
102982,141089,19647,-0.031,-0.946,-0.229,-0.915,0.671,0.183,253.363
102982,141301,7944,-0.033,-0.939,-0.218,-0.366,0.671,0.244,253.369
102958,141089,19647,-0.031,-0.932,-0.218,-0.366,0.671,0.244,253.373
102958,141281,7956,-0.03,-0.934,-0.223,0,0.366,0.183,253.379
102966,141089,19647,-0.03,-0.939,-0.221,0,0.366,0.183,253.383
102966,141304,7941,-0.032,-0.94,-0.225,-0.305,0.427,0.366,253.389
102961,141089,19647,-0.031,-0.942,-0.226,-0.305,0.427,0.366,253.392
102961,141288,7946,-0.031,-0.936,-0.222,0.061,0.427,0.488,253.399
102966,141089,19647,-0.031,-0.931,-0.223,0.061,0.427,0.488,253.402
102966,141282,7944,-0.03,-0.933,-0.223,0.366,0.122,0.427,253.409
102959,141089,19647,-0.027,-0.932,-0.226,0.366,0.122,0.427,253.412
102959,141264,7953,-0.028,-0.942,-0.229,-0.061,0.183,0.366,253.418
102953,141089,19647,-0.03,-0.949,-0.23,-0.061,0.183,0.366,253.422
102953,141275,7942,-0.033,-0.946,-0.227,0.061,0.244,0.427,253.428
102952,141089,19647,-0.032,-0.938,-0.215,0.061,0.244,0.427,253.432
102952,141241,7957,-0.028,-0.933,-0.212,0.915,-0.061,0.244,253.438
102935,141089,19647,-0.027,-0.929,-0.214,0.915,-0.061,0.244,253.442
102935,141247,7946,-0.027,-0.939,-0.217,0.244,0.061,0.366,253.448
102937,141089,19647,-0.031,-0.95,-0.215,0.244,0.061,0.366,253.452
102937,141257,7951,-0.031,-0.948,-0.21,-0.244,0.305,0.732,253.458
102953,141089,19647,-0.034,-0.94,-0.209,-0.244,0.305,0.732,253.462
102953,141274,7955,-0.034,-0.931,-0.214,-0.305,0.488,0.793,253.468
102946,141089,19647,-0.033,-0.934,-0.223,-0.305,0.488,0.793,253.472
102946,141241,7950,-0.032,-0.94,-0.223,-0.793,0.854,0.732,253.478
102940,141089,19647,-0.033,-0.942,-0.228,-0.793,0.854,0.732,253.482
102940,141243,7951,-0.035,-0.939,-0.225,-1.098,1.22,0.854,253.488
102923,141089,19647,-0.035,-0.934,-0.23,-1.098,1.22,0.854,253.491
102923,141221,7965,-0.032,-0.93,-0.231,-0.427,0.732,0.549,253.498
102930,141089,19647,-0.028,-0.934,-0.227,-0.427,0.732,0.549,253.501
102930,141251,7947,-0.025,-0.94,-0.221,-0.244,0.427,0.366,253.508
102948,141089,19647,-0.027,-0.938,-0.226,-0.244,0.427,0.366,253.511
102948,141245,7953,-0.03,-0.942,-0.226,-0.61,0.427,0.427,253.517
102938,141089,19647,-0.035,-0.935,-0.224,-0.61,0.427,0.427,253.521
102938,141230,7937,-0.031,-0.935,-0.221,-0.366,0.305,0.366,253.527
102921,141089,19647,-0.029,-0.936,-0.224,-0.366,0.305,0.366,253.531
102921,141213,7947,-0.03,-0.941,-0.221,-0.244,0.305,0.244,253.537
102914,141089,19647,-0.03,-0.94,-0.22,-0.244,0.305,0.244,253.541
102914,141250,7958,-0.029,-0.942,-0.215,-0.305,0.488,0.427,253.547
102927,141089,19647,-0.03,-0.939,-0.219,-0.305,0.488,0.427,253.551
102927,141243,7942,-0.032,-0.938,-0.225,-0.305,0.488,0.488,253.557
102912,141089,19647,-0.036,-0.935,-0.22,-0.305,0.488,0.488,253.561
102912,141238,7936,-0.033,-0.938,-0.223,-0.366,0.549,0.488,253.567
102931,141089,19647,-0.028,-0.941,-0.225,-0.366,0.549,0.488,253.571
102931,141230,7955,-0.027,-0.944,-0.222,-0.671,0.61,0.549,253.577
102922,141089,19647,-0.031,-0.945,-0.219,-0.671,0.61,0.549,253.581
102922,141219,7939,-0.033,-0.941,-0.222,-0.671,0.549,0.671,253.587
102914,141089,19647,-0.034,-0.938,-0.23,-0.671,0.549,0.671,253.59
102914,141255,7959,-0.035,-0.935,-0.228,-0.427,0.366,0.671,253.597
102927,141089,19647,-0.037,-0.937,-0.223,-0.427,0.366,0.671,253.6
102927,141222,7934,-0.032,-0.933,-0.227,-0.061,0.305,0.61,253.607
102933,141089,19647,-0.031,-0.931,-0.233,-0.061,0.305,0.61,253.61
102933,141255,7944,-0.033,-0.931,-0.229,-0.061,0.061,0.427,253.616
102936,141089,19647,-0.035,-0.936,-0.226,-0.061,0.061,0.427,253.62
102936,141226,7940,-0.031,-0.939,-0.223,-0.122,0.122,0.305,253.626
102929,141089,19647,-0.034,-0.94,-0.224,-0.122,0.122,0.305,253.63
102929,141241,7943,-0.034,-0.937,-0.223,0.061,0.122,0.061,253.636
102951,141089,19647,-0.031,-0.94,-0.212,0.061,0.122,0.061,253.64
102951,141218,7950,-0.028,-0.946,-0.203,0.061,0.244,-0.122,253.646
102920,141089,19647,-0.031,-0.945,-0.213,0.061,0.244,-0.122,253.65
102920,141213,7954,-0.033,-0.945,-0.221,-0.549,0.671,0.244,253.656
102913,141089,19647,-0.03,-0.946,-0.227,-0.549,0.671,0.244,253.66
102913,141234,7924,-0.03,-0.944,-0.223,-0.732,0.61,0.549,253.666
102926,141089,19647,-0.027,-0.94,-0.216,-0.732,0.61,0.549,253.67
102926,141232,7946,-0.029,-0.937,-0.222,-0.305,0.61,0.549,253.676
102941,141089,19647,-0.033,-0.932,-0.229,-0.305,0.61,0.549,253.68
102941,141261,7956,-0.031,-0.93,-0.228,-0.366,0.671,0.61,253.686
102935,141089,19647,-0.029,-0.936,-0.221,-0.366,0.671,0.61,253.689
102935,141252,7940,-0.027,-0.936,-0.218,-0.427,0.549,0.61,253.696
102918,141089,19647,-0.032,-0.933,-0.224,-0.427,0.549,0.61,253.699
102918,141244,7944,-0.034,-0.933,-0.223,-0.61,0.549,0.427,253.706
102933,141089,19647,-0.034,-0.934,-0.221,-0.61,0.549,0.427,253.709
102933,141243,7952,-0.031,-0.94,-0.221,-0.732,0.488,0.366,253.715
102928,141089,19647,-0.033,-0.944,-0.224,-0.732,0.488,0.366,253.719
102928,141251,7959,-0.032,-0.946,-0.23,-0.427,0.549,0.488,253.725
102936,141089,19647,-0.032,-0.943,-0.232,-0.427,0.549,0.488,253.729
102936,141263,7955,-0.037,-0.939,-0.226,-0.183,0.61,0.427,253.735
102933,141089,19647,-0.038,-0.934,-0.226,-0.183,0.61,0.427,253.739
102933,141254,7941,-0.036,-0.937,-0.223,0.244,0.427,0.366,253.745
102945,141089,19647,-0.032,-0.935,-0.221,0.244,0.427,0.366,253.749
102945,141255,7942,-0.03,-0.931,-0.226,0.122,0.183,0.366,253.755
102961,141089,19647,-0.031,-0.936,-0.224,0.122,0.183,0.366,253.759
102961,141251,7946,-0.036,-0.941,-0.223,-0.366,0.305,0.549,253.765
102956,141089,19647,-0.038,-0.936,-0.228,-0.366,0.305,0.549,253.769
102956,141251,7948,-0.031,-0.937,-0.224,-0.244,0.366,0.427,253.775
102958,141089,19647,-0.032,-0.935,-0.212,-0.244,0.366,0.427,253.779
102958,141256,7948,-0.029,-0.932,-0.22,0.122,0.122,0.366,253.785
102949,141089,19647,-0.027,-0.939,-0.233,0.122,0.122,0.366,253.788
102949,141270,7941,-0.031,-0.944,-0.23,-0.671,0.488,0.427,253.795
102940,141089,19647,-0.032,-0.948,-0.23,-0.671,0.488,0.427,253.798
102940,141263,7959,-0.034,-0.937,-0.231,-0.122,0.549,0.61,253.805
102945,141089,19647,-0.037,-0.934,-0.226,-0.122,0.549,0.61,253.808
102945,141261,7938,-0.03,-0.931,-0.217,0.793,0.061,0.244,253.814
102924,141089,19647,-0.03,-0.931,-0.217,0.793,0.061,0.244,253.818
102924,141261,7940,-0.026,-0.943,-0.212,0.549,-0.122,0.122,253.824
102931,141089,19647,-0.026,-0.943,-0.212,0.549,-0.122,0.122,253.828
102931,141230,7942,-0.029,-0.938,-0.223,-0.549,0.427,0.305,253.834
102941,141089,19647,-0.029,-0.938,-0.223,-0.549,0.427,0.305,253.838
102941,141227,7949,-0.034,-0.942,-0.217,-0.427,0.671,0.305,253.844
102940,141089,19647,-0.034,-0.942,-0.217,-0.427,0.671,0.305,253.848
102940,141277,7956,-0.028,-0.936,-0.222,0,0.549,0.183,253.854
102928,141089,19647,-0.028,-0.936,-0.222,0,0.549,0.183,253.858
102928,141246,7937,-0.031,-0.944,-0.225,-0.366,0.671,0.244,253.864
102950,141089,19647,-0.031,-0.944,-0.225,-0.366,0.671,0.244,253.868
102950,141249,7944,-0.036,-0.941,-0.229,-0.61,0.671,0.549,253.874
102928,141089,19647,-0.036,-0.941,-0.229,-0.61,0.671,0.549,253.878
102928,141249,7955,-0.028,-0.93,-0.223,-0.244,0.244,0.366,253.884
102940,141089,19647,-0.028,-0.93,-0.223,-0.244,0.244,0.366,253.887
102940,141261,7927,-0.03,-0.942,-0.225,-0.549,0.427,0.427,253.894
102956,141089,19647,-0.03,-0.942,-0.225,-0.549,0.427,0.427,253.897
102956,141237,7942,-0.033,-0.942,-0.229,-0.671,0.61,0.61,253.904
102940,141089,19647,-0.033,-0.942,-0.229,-0.671,0.61,0.61,253.907
102940,141252,7955,-0.032,-0.934,-0.221,-0.244,0.366,0.488,253.913
102929,141089,19647,-0.032,-0.934,-0.221,-0.244,0.366,0.488,253.917
102929,141270,7939,-0.027,-0.94,-0.228,-0.122,0.305,0.488,253.923
102927,141089,19647,-0.027,-0.94,-0.228,-0.122,0.305,0.488,253.927
102927,141262,7955,-0.034,-0.939,-0.228,0.061,0.488,0.549,253.933
102937,141089,19647,-0.034,-0.939,-0.228,0.061,0.488,0.549,253.937
102937,141288,7964,-0.037,-0.932,-0.225,0.244,0.305,0.305,253.943
102961,141089,19647,-0.037,-0.932,-0.225,0.244,0.305,0.305,253.947
102961,141276,7948,-0.03,-0.931,-0.208,0.488,0.061,0.061,253.953
102954,141089,19647,-0.03,-0.931,-0.208,0.488,0.061,0.061,253.957
102954,141278,7936,-0.026,-0.936,-0.216,0.488,0.061,0.061,253.963
102951,141089,19647,-0.027,-0.943,-0.225,-0.427,0.305,0.061,253.967
102951,141308,7952,-0.03,-0.949,-0.224,-0.427,0.305,0.061,253.973
102957,141089,19647,-0.033,-0.952,-0.224,-0.793,0.732,0.366,253.977
102957,141284,7938,-0.033,-0.942,-0.22,-0.793,0.732,0.366,253.983
102940,141089,19647,-0.033,-0.937,-0.217,-0.244,0.427,0.366,253.986
102940,141271,7948,-0.035,-0.933,-0.207,-0.244,0.427,0.366,253.993
102944,141089,19647,-0.03,-0.937,-0.199,-0.122,0.366,0.244,253.996
102944,141274,7953,-0.025,-0.941,-0.221,-0.122,0.366,0.244,254.003
102952,141089,19647,-0.026,-0.946,-0.237,-1.28,0.793,0.671,254.006
102952,141276,7958,-0.033,-0.95,-0.234,-1.28,0.793,0.671,254.012
102951,141089,19647,-0.038,-0.94,-0.23,-0.793,0.915,0.915,254.016
102951,141282,7961,-0.035,-0.928,-0.231,-0.793,0.915,0.915,254.022
102955,141089,19647,-0.036,-0.924,-0.235,0.183,0.305,0.305,254.026
102955,141261,7936,-0.034,-0.928,-0.236,0.183,0.305,0.305,254.032
102948,141089,19647,-0.029,-0.936,-0.229,0.366,0.061,0,254.036
102948,141281,7942,-0.026,-0.943,-0.225,0.366,0.061,0,254.042
102964,141089,19647,-0.029,-0.942,-0.226,0.305,0.061,-0.183,254.046
102964,141285,7961,-0.032,-0.937,-0.226,0.305,0.061,-0.183,254.052
102955,141089,19647,-0.027,-0.931,-0.225,0.61,0,-0.305,254.056
102955,141275,7944,-0.03,-0.934,-0.226,0.61,0,-0.305,254.062
102965,141089,19647,-0.029,-0.941,-0.215,0.244,0.244,-0.366,254.066
102965,141284,7963,-0.024,-0.942,-0.214,0.244,0.244,-0.366,254.072
102978,141089,19647,-0.028,-0.945,-0.221,-0.366,0.488,-0.183,254.076
102978,141288,7933,-0.029,-0.942,-0.214,-0.366,0.488,-0.183,254.082
102963,141089,19647,-0.029,-0.941,-0.221,-0.671,0.549,0.183,254.085
102963,141260,7959,-0.031,-0.94,-0.229,-0.671,0.549,0.183,254.092
102968,141089,19647,-0.035,-0.94,-0.222,-0.61,0.549,0.366,254.095
102968,141282,7942,-0.038,-0.94,-0.221,-0.61,0.549,0.366,254.102
102961,141089,19647,-0.036,-0.936,-0.219,0.183,0.305,0.244,254.105
102961,141274,7951,-0.035,-0.931,-0.214,0.183,0.305,0.244,254.111
102969,141089,19647,-0.029,-0.938,-0.211,0.244,0.183,0,254.115
102969,141275,7954,-0.031,-0.94,-0.212,0.244,0.183,0,254.121
102970,141089,19647,-0.029,-0.942,-0.211,-0.244,0.427,0.244,254.125
102970,141281,7940,-0.028,-0.942,-0.214,-0.244,0.427,0.244,254.131
102977,141089,19647,-0.033,-0.941,-0.219,-0.488,0.732,0.427,254.135
102977,141275,7968,-0.034,-0.941,-0.224,-0.488,0.732,0.427,254.141
102989,141089,19647,-0.029,-0.937,-0.224,-0.549,0.732,0.488,254.145
102989,141295,7955,-0.028,-0.937,-0.214,-0.549,0.732,0.488,254.151
102975,141089,19647,-0.025,-0.938,-0.211,-0.427,0.732,0.488,254.155
102975,141281,7949,-0.026,-0.939,-0.219,-0.427,0.732,0.488,254.161
102965,141089,19647,-0.029,-0.936,-0.231,-0.976,0.976,0.549,254.165
102965,141300,7968,-0.031,-0.934,-0.236,-0.976,0.976,0.549,254.171
102950,141089,19647,-0.031,-0.936,-0.241,-0.915,1.037,0.61,254.175
102950,141277,7951,-0.033,-0.939,-0.23,-0.915,1.037,0.61,254.181
102971,141089,19647,-0.03,-0.937,-0.231,-0.427,0.793,0.427,254.184
102971,141278,7947,-0.027,-0.933,-0.232,-0.427,0.793,0.427,254.191
102979,141089,19647,-0.027,-0.943,-0.23,-0.549,0.427,0.366,254.194
102979,141290,7945,-0.032,-0.944,-0.23,-0.549,0.427,0.366,254.201
102970,141089,19647,-0.035,-0.935,-0.226,-0.427,0.488,0.549,254.204
102970,141284,7951,-0.035,-0.93,-0.232,-0.427,0.488,0.549,254.21
102966,141345,19647,-0.03,-0.931,-0.235,-0.244,0.244,0.366,254.214
102966,141330,7944,-0.028,-0.933,-0.228,-0.244,0.244,0.366,254.22
102975,141089,19647,-0.032,-0.937,-0.224,0.061,0.061,0.366,254.224
102975,141308,7953,-0.034,-0.939,-0.22,0.061,0.061,0.366,254.23
102955,141089,19647,-0.034,-0.938,-0.218,-0.061,0.183,0.183,254.234
102955,141299,7954,-0.039,-0.938,-0.208,-0.061,0.183,0.183,254.24
102979,141089,19647,-0.033,-0.934,-0.214,0,0.244,0,254.244
102979,141303,7936,-0.031,-0.934,-0.221,0,0.244,0,254.25
102976,141089,19647,-0.032,-0.946,-0.216,-0.244,0.488,0.061,254.254
102976,141293,7945,-0.034,-0.951,-0.213,-0.244,0.488,0.061,254.26
102979,141089,19647,-0.035,-0.945,-0.218,0,0.732,0.305,254.264
102979,141308,7957,-0.034,-0.939,-0.214,0,0.732,0.305,254.27
102992,141345,19647,-0.029,-0.941,-0.216,-0.122,0.671,0.305,254.274
102992,141313,7953,-0.026,-0.942,-0.226,-0.122,0.671,0.305,254.28
102985,141345,19647,-0.032,-0.944,-0.227,-0.793,0.915,0.671,254.284
102985,141312,7956,-0.037,-0.939,-0.23,-0.793,0.915,0.671,254.29
102977,141345,19647,-0.035,-0.934,-0.232,-0.854,0.915,0.854,254.293
102977,141316,7949,-0.034,-0.931,-0.227,-0.854,0.915,0.854,254.3
102993,141089,19647,-0.031,-0.93,-0.223,-0.427,0.61,0.488,254.303
102993,141303,7966,-0.029,-0.929,-0.226,-0.427,0.61,0.488,254.309
102998,141089,19647,-0.029,-0.935,-0.224,-0.427,0.671,0.244,254.313
102998,141310,7950,-0.026,-0.936,-0.222,-0.427,0.671,0.244,254.319
102990,141345,19647,-0.029,-0.94,-0.225,-0.61,0.671,0.244,254.323
102990,141321,7959,-0.031,-0.943,-0.223,-0.61,0.671,0.244,254.329
102986,141345,19647,-0.027,-0.942,-0.222,-0.793,0.732,0.244,254.333
102986,141326,7953,-0.025,-0.943,-0.224,-0.793,0.732,0.244,254.339
102987,141089,19647,-0.027,-0.946,-0.233,-1.037,0.61,0.366,254.343
102987,141295,7965,-0.031,-0.948,-0.234,-1.037,0.61,0.366,254.349
102993,141089,19647,-0.033,-0.945,-0.224,-0.854,0.671,0.732,254.353
102993,141299,7936,-0.033,-0.934,-0.222,-0.854,0.671,0.732,254.359
102967,141089,19647,-0.034,-0.927,-0.227,-0.61,0.549,0.549,254.363
102967,141300,7951,-0.032,-0.928,-0.226,-0.61,0.549,0.549,254.369
102965,141089,19647,-0.029,-0.933,-0.224,-0.61,0.427,0.488,254.373
102965,141296,7971,-0.031,-0.936,-0.224,-0.61,0.427,0.488,254.379
102966,141089,19647,-0.035,-0.933,-0.226,-0.549,0.671,0.549,254.382
102966,141301,7956,-0.037,-0.93,-0.229,-0.549,0.671,0.549,254.389
102969,141089,19647,-0.035,-0.936,-0.22,-0.061,0.488,0.305,254.392
102969,141275,7956,-0.029,-0.936,-0.217,-0.061,0.488,0.305,254.399
102958,141089,19647,-0.027,-0.944,-0.218,-0.061,0.183,0.122,254.402
102958,141293,7954,-0.03,-0.951,-0.219,-0.061,0.183,0.122,254.408
102949,141089,19647,-0.03,-0.951,-0.219,-0.061,0.183,0.122,254.412
102949,141266,7948,-0.033,-0.949,-0.22,-0.61,0.366,0.549,254.418
102954,141089,19647,-0.033,-0.949,-0.22,-0.61,0.366,0.549,254.422
102954,141277,7949,-0.033,-0.933,-0.22,-0.549,0.305,0.793,254.428
102927,141089,19647,-0.033,-0.933,-0.22,-0.549,0.305,0.793,254.432
102927,141246,7960,-0.032,-0.935,-0.216,-0.549,0.122,0.854,254.438
102932,141089,19647,-0.032,-0.935,-0.216,-0.549,0.122,0.854,254.442
102932,141248,7939,-0.032,-0.935,-0.238,-0.732,0.549,0.793,254.448
102948,141089,19647,-0.032,-0.935,-0.238,-0.732,0.549,0.793,254.452
102948,141273,7944,-0.033,-0.933,-0.233,-0.976,0.854,0.671,254.458
102929,141089,19647,-0.033,-0.933,-0.233,-0.976,0.854,0.671,254.462
102929,141247,7958,-0.036,-0.933,-0.236,-0.488,0.488,0.488,254.468
102939,141089,19647,-0.036,-0.933,-0.236,-0.488,0.488,0.488,254.472
102939,141278,7949,-0.033,-0.937,-0.23,-0.061,0.305,0,254.478
102933,141089,19647,-0.033,-0.937,-0.23,-0.061,0.305,0,254.482
102933,141254,7950,-0.03,-0.938,-0.232,0.061,0,-0.122,254.488
102943,141089,19647,-0.03,-0.938,-0.232,0.061,0,-0.122,254.491
102943,141277,7952,-0.036,-0.936,-0.216,0.244,-0.122,-0.122,254.498
102925,141089,19647,-0.036,-0.936,-0.216,0.244,-0.122,-0.122,254.501
102925,141240,7950,-0.031,-0.939,-0.206,0.305,-0.183,-0.183,254.507
102922,141089,19647,-0.031,-0.939,-0.206,0.305,-0.183,-0.183,254.511
102922,141251,7966,-0.031,-0.941,-0.23,-0.366,0.061,-0.244,254.517
102938,141089,19647,-0.031,-0.941,-0.23,-0.366,0.061,-0.244,254.521
102938,141265,7955,-0.033,-0.949,-0.234,-1.341,0.549,0.244,254.527
102947,141089,19647,-0.033,-0.949,-0.234,-1.341,0.549,0.244,254.531
102947,141268,7956,-0.031,-0.937,-0.215,-0.61,0.366,0.427,254.537
102942,141089,19647,-0.031,-0.937,-0.215,-0.61,0.366,0.427,254.541
102942,141259,7956,-0.022,-0.934,-0.233,-0.122,-0.061,0.122,254.547
102945,141089,19647,-0.022,-0.934,-0.233,-0.122,-0.061,0.122,254.551
102945,141256,7951,-0.024,-0.937,-0.236,-0.427,0.244,0.427,254.557
102943,141089,19647,-0.031,-0.941,-0.232,-0.427,0.244,0.427,254.561
102943,141260,7956,-0.03,-0.936,-0.23,-0.305,0.427,0.549,254.567
102948,141089,19647,-0.034,-0.927,-0.224,-0.305,0.427,0.549,254.571
102948,141257,7954,-0.03,-0.928,-0.222,0.244,-0.183,0.061,254.577
102931,141089,19647,-0.026,-0.935,-0.221,0.244,-0.183,0.061,254.58
102931,141257,7957,-0.027,-0.943,-0.215,0,-0.122,0.122,254.587
102926,141089,19647,-0.029,-0.944,-0.216,0,-0.122,0.122,254.59
102926,141253,7942,-0.035,-0.941,-0.22,-0.305,0.427,0,254.597
102921,141089,19647,-0.035,-0.936,-0.22,-0.305,0.427,0,254.6
102921,141251,7941,-0.031,-0.932,-0.215,-0.305,0.366,0.061,254.606
102908,141089,19647,-0.026,-0.936,-0.212,-0.305,0.366,0.061,254.61
102908,141248,7942,-0.027,-0.943,-0.219,-0.549,0.488,0.061,254.616
102913,141089,19647,-0.029,-0.946,-0.226,-0.549,0.488,0.061,254.62
102913,141262,7965,-0.027,-0.946,-0.227,-1.402,0.915,0.488,254.626
102921,141089,19647,-0.031,-0.938,-0.229,-1.402,0.915,0.488,254.63
102921,141272,7953,-0.033,-0.931,-0.23,-1.159,0.732,0.732,254.636
102937,141089,19647,-0.03,-0.937,-0.219,-1.159,0.732,0.732,254.64
102937,141251,7947,-0.027,-0.939,-0.21,-0.61,0.549,0.549,254.646
102933,141089,19647,-0.024,-0.935,-0.22,-0.61,0.549,0.549,254.65
102933,141273,7947,-0.026,-0.936,-0.24,-1.159,0.61,0.732,254.656
102919,141089,19647,-0.031,-0.942,-0.236,-1.159,0.61,0.732,254.66
102919,141242,7936,-0.034,-0.944,-0.229,-1.22,0.915,1.098,254.666
102914,141089,19647,-0.033,-0.94,-0.225,-1.22,0.915,1.098,254.67
102914,141241,7948,-0.033,-0.933,-0.22,-0.427,0.61,0.854,254.676
102916,141089,19647,-0.029,-0.928,-0.229,-0.427,0.61,0.854,254.68
102916,141236,7942,-0.03,-0.935,-0.231,-0.427,0.244,0.671,254.686
102900,141089,19647,-0.031,-0.939,-0.23,-0.427,0.244,0.671,254.689
102900,141240,7948,-0.036,-0.936,-0.229,-0.854,0.549,0.671,254.696
102889,141089,19647,-0.04,-0.934,-0.232,-0.854,0.549,0.671,254.699
102889,141245,7949,-0.038,-0.932,-0.228,-0.427,0.488,0.244,254.705
102923,141089,19647,-0.032,-0.934,-0.22,-0.427,0.488,0.244,254.709
102923,141224,7940,-0.031,-0.936,-0.217,0.366,0.122,0.122,254.715
102932,141089,19647,-0.027,-0.939,-0.222,0.366,0.122,0.122,254.719
102932,141233,7941,-0.03,-0.939,-0.223,-0.122,0.61,0.122,254.725
102918,141089,19647,-0.033,-0.944,-0.228,-0.122,0.61,0.122,254.729
102918,141248,7942,-0.033,-0.944,-0.224,-0.305,0.793,0.305,254.735
102923,141089,19647,-0.034,-0.943,-0.215,-0.305,0.793,0.305,254.739
102923,141240,7944,-0.031,-0.94,-0.215,0.061,0.671,0.305,254.745
102910,141089,19647,-0.025,-0.936,-0.228,0.061,0.671,0.305,254.749
102910,141227,7951,-0.027,-0.939,-0.235,-0.366,0.793,0.427,254.755
102902,141089,19647,-0.033,-0.943,-0.235,-0.366,0.793,0.427,254.759
102902,141242,7942,-0.035,-0.942,-0.224,-0.488,0.671,1.037,254.765
102913,141089,19647,-0.034,-0.935,-0.222,-0.488,0.671,1.037,254.769
102913,141245,7943,-0.032,-0.932,-0.225,-0.366,0.427,0.915,254.775
102895,141089,19647,-0.031,-0.933,-0.235,-0.366,0.427,0.915,254.778
102895,141231,7939,-0.03,-0.928,-0.231,-0.427,0.183,0.793,254.785
102897,141089,19647,-0.032,-0.93,-0.231,-0.427,0.183,0.793,254.788
102897,141222,7939,-0.035,-0.933,-0.23,-0.305,0.244,0.793,254.795
102917,141089,19647,-0.035,-0.932,-0.229,-0.305,0.244,0.793,254.798
102917,141256,7946,-0.035,-0.935,-0.231,-0.183,0.305,0.305,254.804
102901,141089,19647,-0.03,-0.938,-0.219,-0.183,0.305,0.305,254.808
102901,141233,7942,-0.03,-0.938,-0.213,0.122,0.122,0.061,254.814
102911,141089,19647,-0.029,-0.936,-0.22,0.122,0.122,0.061,254.818
102911,141248,7943,-0.031,-0.938,-0.228,-0.183,0.427,0.061,254.824
102917,141089,19647,-0.033,-0.942,-0.228,-0.183,0.427,0.061,254.828
102917,141246,7938,-0.034,-0.942,-0.227,0,0.61,0.183,254.834
102914,141089,19647,-0.031,-0.943,-0.219,0,0.61,0.183,254.838
102914,141251,7948,-0.031,-0.939,-0.214,0.061,0.488,0.183,254.844
102908,141089,19647,-0.028,-0.934,-0.22,0.061,0.488,0.183,254.848
102908,141234,7961,-0.031,-0.937,-0.229,-0.549,0.549,0.366,254.854
102907,141089,19647,-0.033,-0.946,-0.227,-0.549,0.549,0.366,254.858
102907,141260,7955,-0.033,-0.948,-0.227,-0.732,0.671,0.854,254.864
102909,141089,19647,-0.031,-0.939,-0.225,-0.732,0.671,0.854,254.868
102909,141252,7927,-0.032,-0.926,-0.229,-0.061,0.488,0.61,254.874
102901,141089,19647,-0.031,-0.928,-0.236,-0.061,0.488,0.61,254.878
102901,141255,7940,-0.03,-0.939,-0.233,-0.244,0.549,0.61,254.884
102895,141089,19647,-0.027,-0.944,-0.225,-0.244,0.549,0.61,254.887
102895,141270,7940,-0.03,-0.942,-0.224,-0.244,0.61,0.61,254.894
102910,141089,19647,-0.036,-0.932,-0.219,-0.244,0.61,0.61,254.897
102910,141229,7936,-0.035,-0.926,-0.223,0.061,0.366,0.427,254.903
102890,141089,19647,-0.032,-0.929,-0.219,0.061,0.366,0.427,254.907
102890,141253,7943,-0.028,-0.934,-0.217,-0.488,0.305,0.427,254.913
102905,141089,19647,-0.028,-0.939,-0.226,-0.488,0.305,0.427,254.917
102905,141270,7943,-0.035,-0.945,-0.235,-1.28,0.549,0.671,254.923
102913,141089,19647,-0.033,-0.945,-0.231,-1.28,0.549,0.671,254.927
102913,141253,7947,-0.035,-0.941,-0.223,-0.732,0.488,0.793,254.933
102912,141089,19647,-0.034,-0.93,-0.22,-0.732,0.488,0.793,254.937
102912,141277,7940,-0.031,-0.932,-0.223,-0.061,0.183,0.549,254.943
102910,141089,19647,-0.033,-0.936,-0.227,-0.061,0.183,0.549,254.947
102910,141235,7940,-0.035,-0.934,-0.228,-0.488,0.488,0.671,254.953
102900,141089,19647,-0.035,-0.933,-0.228,-0.488,0.488,0.671,254.957
102900,141261,7939,-0.036,-0.932,-0.227,-0.366,0.732,0.488,254.963
102908,141089,19647,-0.032,-0.929,-0.229,-0.366,0.732,0.488,254.967
102908,141258,7938,-0.032,-0.931,-0.228,-0.122,0.671,0,254.973
102897,141089,19647,-0.03,-0.935,-0.231,-0.122,0.671,0,254.976
102897,141248,7963,-0.026,-0.944,-0.225,-0.122,0.732,-0.122,254.983
102900,141089,19647,-0.028,-0.945,-0.223,-0.122,0.732,-0.122,254.986
102900,141250,7937,-0.032,-0.937,-0.225,-0.183,0.61,-0.122,254.993
102911,141089,19647,-0.032,-0.937,-0.225,-0.183,0.61,-0.122,254.996
102911,141237,7941,-0.028,-0.946,-0.226,-0.305,0.427,0.122,255.002
102902,141089,19647,-0.028,-0.946,-0.226,-0.305,0.427,0.122,255.006
102902,141263,7956,-0.025,-0.95,-0.216,-0.305,0.183,0.549,255.012
102913,141089,19647,-0.025,-0.95,-0.216,-0.305,0.183,0.549,255.016
102913,141264,7935,-0.034,-0.927,-0.219,-0.366,0.305,0.732,255.022
102912,141089,19647,-0.034,-0.927,-0.219,-0.366,0.305,0.732,255.026
102912,141233,7948,-0.029,-0.935,-0.228,-0.732,0.549,0.793,255.032
102937,141089,19647,-0.029,-0.935,-0.228,-0.732,0.549,0.793,255.036
102937,141238,7950,-0.039,-0.935,-0.217,-0.366,0.61,0.854,255.042
102919,141089,19647,-0.039,-0.935,-0.217,-0.366,0.61,0.854,255.046
102919,141263,7936,-0.034,-0.926,-0.243,-0.061,0.427,0.427,255.052
102905,141089,19647,-0.034,-0.926,-0.243,-0.061,0.427,0.427,255.056
102905,141255,7935,-0.031,-0.942,-0.226,0,0.183,0.366,255.062
102905,141089,19647,-0.031,-0.942,-0.226,0,0.183,0.366,255.066
102905,141285,7953,-0.033,-0.942,-0.232,-0.122,0.305,0.183,255.072
102923,141089,19647,-0.033,-0.942,-0.232,-0.122,0.305,0.183,255.075
102923,141258,7934,-0.03,-0.94,-0.235,0.061,0.305,0.183,255.082
102904,141089,19647,-0.03,-0.94,-0.235,0.061,0.305,0.183,255.085
102904,141254,7934,-0.031,-0.937,-0.221,0.366,0.061,0.366,255.092
102907,141089,19647,-0.031,-0.937,-0.221,0.366,0.061,0.366,255.095
102907,141262,7944,-0.031,-0.928,-0.226,0.244,0.244,0.183,255.101
102899,141089,19647,-0.031,-0.928,-0.226,0.244,0.244,0.183,255.105
102899,141272,7944,-0.024,-0.934,-0.225,-0.244,0.427,0.122,255.111
102935,141089,19647,-0.024,-0.934,-0.225,-0.244,0.427,0.122,255.115
102935,141265,7950,-0.035,-0.942,-0.221,-0.427,0.61,0.366,255.121
102897,141089,19647,-0.035,-0.942,-0.221,-0.427,0.61,0.366,255.125
102897,141250,7940,-0.03,-0.935,-0.225,-0.183,0.549,0.244,255.131
102924,141089,19647,-0.03,-0.935,-0.225,-0.183,0.549,0.244,255.135
102924,141237,7952,-0.028,-0.94,-0.227,-0.183,0.549,0.244,255.141
102927,141089,19647,-0.026,-0.945,-0.226,-0.122,0.366,0.427,255.145
102927,141264,7952,-0.032,-0.944,-0.227,-0.122,0.366,0.427,255.151
102917,141089,19647,-0.035,-0.942,-0.227,-0.305,0.671,0.671,255.155
102917,141258,7944,-0.039,-0.935,-0.226,-0.305,0.671,0.671,255.161
102911,141089,19647,-0.041,-0.923,-0.221,0.305,0.305,0.427,255.165
102911,141246,7959,-0.031,-0.92,-0.223,0.305,0.305,0.427,255.171
102909,141089,19647,-0.025,-0.927,-0.225,0.244,-0.061,0.061,255.174
102909,141282,7944,-0.028,-0.941,-0.226,0.244,-0.061,0.061,255.181
102920,141089,19647,-0.035,-0.948,-0.226,-0.305,0.244,0.122,255.184
102920,141247,7949,-0.037,-0.947,-0.221,-0.305,0.244,0.122,255.191
102913,141089,19647,-0.038,-0.943,-0.218,0.183,0.183,0.122,255.194
102913,141289,7950,-0.033,-0.935,-0.216,0.183,0.183,0.122,255.2
102915,141089,19647,-0.03,-0.937,-0.22,0.61,-0.122,0.122,255.204
102915,141271,7957,-0.028,-0.944,-0.221,0.61,-0.122,0.122,255.21
102931,141089,19647,-0.034,-0.946,-0.224,-0.183,0.427,0.549,255.214
102931,141266,7948,-0.036,-0.941,-0.228,-0.183,0.427,0.549,255.22
102910,141089,19647,-0.038,-0.936,-0.228,-0.488,1.037,0.549,255.224
102910,141256,7949,-0.036,-0.929,-0.227,-0.488,1.037,0.549,255.23
102928,141089,19647,-0.028,-0.925,-0.228,-0.061,0.61,0.244,255.234
102928,141267,7952,-0.027,-0.928,-0.235,-0.061,0.61,0.244,255.24
102937,141089,19647,-0.028,-0.937,-0.231,-0.366,0.671,0.366,255.244
102937,141284,7951,-0.03,-0.94,-0.24,-0.366,0.671,0.366,255.25
102927,141089,19647,-0.036,-0.936,-0.245,-0.366,0.915,0.183,255.254
102927,141292,7942,-0.034,-0.935,-0.24,-0.366,0.915,0.183,255.26
102912,141089,19647,-0.029,-0.931,-0.235,0.61,0.122,-0.061,255.264
102912,141271,7948,-0.026,-0.934,-0.232,0.61,0.122,-0.061,255.27
102917,141089,19647,-0.026,-0.942,-0.225,0.854,-0.183,-0.183,255.273
102917,141282,7966,-0.03,-0.941,-0.231,0.854,-0.183,-0.183,255.28
102927,141089,19647,-0.032,-0.94,-0.228,0.427,-0.122,0.061,255.283
102927,141289,7945,-0.031,-0.943,-0.217,0.427,-0.122,0.061,255.29
102936,141089,19647,-0.03,-0.944,-0.208,0.671,-0.061,0.183,255.293
102936,141270,7949,-0.03,-0.937,-0.21,0.671,-0.061,0.183,255.299
102916,141089,19647,-0.03,-0.94,-0.214,0.366,0.122,0.122,255.303
102916,141261,7944,-0.036,-0.941,-0.216,0.366,0.122,0.122,255.309
102915,141089,19647,-0.029,-0.938,-0.219,0.122,0.366,0.549,255.313
102915,141241,7938,-0.029,-0.943,-0.224,0.122,0.366,0.549,255.319
102904,141089,19647,-0.031,-0.942,-0.223,-0.366,0.549,0.61,255.323
102904,141264,7950,-0.037,-0.941,-0.224,-0.366,0.549,0.61,255.329
102923,141089,19647,-0.033,-0.94,-0.224,-0.305,0.549,0.732,255.333
102923,141273,7952,-0.029,-0.94,-0.223,-0.305,0.549,0.732,255.339
102911,141089,19647,-0.028,-0.937,-0.22,0,0.427,0.793,255.343
102911,141246,7947,-0.03,-0.935,-0.229,0,0.427,0.793,255.349
102904,141089,19647,-0.03,-0.929,-0.23,0,0.427,0.61,255.353
102904,141237,7948,-0.032,-0.934,-0.227,0,0.427,0.61,255.359
102913,141089,19647,-0.034,-0.934,-0.226,-0.183,0.488,0.488,255.363
102913,141248,7944,-0.034,-0.935,-0.228,-0.183,0.488,0.488,255.369
102902,141089,19647,-0.035,-0.939,-0.227,-0.061,0.244,0.427,255.372
102902,141226,7944,-0.036,-0.937,-0.226,-0.061,0.244,0.427,255.379
102910,141089,19647,-0.034,-0.937,-0.228,0.122,0.305,0.122,255.382
102910,141268,7952,-0.037,-0.941,-0.227,0.122,0.305,0.122,255.389
102898,141089,19647,-0.038,-0.941,-0.226,0.122,0.488,0.122,255.392
102898,141233,7948,-0.037,-0.937,-0.224,0.122,0.488,0.122,255.398
102902,141089,19647,-0.035,-0.934,-0.225,0.427,0.427,0.122,255.402
102902,141231,7941,-0.036,-0.939,-0.227,0.427,0.427,0.122,255.408
102896,141089,19647,-0.03,-0.937,-0.227,0.488,0.244,0.122,255.412
102896,141242,7932,-0.027,-0.938,-0.236,0.488,0.244,0.122,255.418
102900,141089,19647,-0.027,-0.942,-0.227,0.244,0.305,0.366,255.422
102900,141240,7946,-0.029,-0.938,-0.219,0.244,0.305,0.366,255.428
102914,141089,19647,-0.031,-0.932,-0.214,0.427,0.305,0.366,255.432
102914,141240,7950,-0.027,-0.934,-0.218,0.427,0.305,0.366,255.438
102905,141089,19647,-0.026,-0.933,-0.22,0.122,0.305,0.305,255.442
102905,141256,7963,-0.026,-0.935,-0.218,0.122,0.305,0.305,255.448
102910,141089,19647,-0.027,-0.938,-0.22,-0.488,0.61,0.549,255.452
102910,141235,7938,-0.031,-0.94,-0.22,-0.488,0.61,0.549,255.458
102906,141089,19647,-0.038,-0.94,-0.217,-0.488,0.732,0.366,255.462
102906,141236,7951,-0.034,-0.937,-0.215,-0.488,0.732,0.366,255.468
102896,141089,19647,-0.027,-0.936,-0.224,-0.061,0.488,0.244,255.472
102896,141264,7922,-0.028,-0.941,-0.226,-0.061,0.488,0.244,255.478
102900,141089,19647,-0.028,-0.943,-0.226,-0.305,0.549,0.244,255.481
102900,141237,7947,-0.032,-0.945,-0.228,-0.305,0.549,0.244,255.488
102909,141089,19647,-0.037,-0.94,-0.225,-0.122,0.488,0.427,255.491
102909,141241,7935,-0.035,-0.935,-0.222,-0.122,0.488,0.427,255.497
102920,141089,19647,-0.03,-0.932,-0.22,0.122,0.061,0.244,255.501
102920,141245,7956,-0.033,-0.928,-0.222,0.122,0.061,0.244,255.507
102916,141089,19647,-0.033,-0.935,-0.226,0.183,0.183,0.122,255.511
102916,141262,7941,-0.033,-0.938,-0.223,0.183,0.183,0.122,255.517
102914,141089,19647,-0.031,-0.933,-0.227,-0.061,0.305,0.244,255.521
102914,141238,7934,-0.035,-0.935,-0.232,-0.061,0.305,0.244,255.527
102908,141089,19647,-0.035,-0.939,-0.232,0,0.305,0.305,255.531
102908,141256,7948,-0.033,-0.939,-0.227,0,0.305,0.305,255.537
102921,141089,19647,-0.034,-0.943,-0.228,0.244,0.244,0.183,255.541
102921,141260,7944,-0.032,-0.944,-0.226,0.244,0.244,0.183,255.547
102891,141089,19647,-0.029,-0.941,-0.22,0.366,0.183,0.244,255.551
102891,141224,7934,-0.029,-0.938,-0.22,0.366,0.183,0.244,255.557
102909,141089,19647,-0.031,-0.934,-0.224,0.244,0.183,0.305,255.561
102909,141221,7947,-0.03,-0.933,-0.229,0.244,0.183,0.305,255.567
102879,141089,19647,-0.032,-0.939,-0.215,-0.305,0.427,0.427,255.57
102879,141213,7949,-0.034,-0.941,-0.207,-0.305,0.427,0.427,255.577
102900,141089,19647,-0.034,-0.932,-0.218,-0.305,0.488,0.427,255.58
102900,141217,7931,-0.033,-0.935,-0.225,-0.305,0.488,0.427,255.587
102885,141089,19647,-0.033,-0.935,-0.225,-0.305,0.488,0.427,255.59
102885,141231,7938,-0.031,-0.943,-0.229,-0.732,0.732,0.488,255.596
102885,141089,19647,-0.031,-0.943,-0.229,-0.732,0.732,0.488,255.6
102885,141263,7937,-0.036,-0.933,-0.225,-0.366,0.549,0.61,255.606
102881,141089,19647,-0.036,-0.933,-0.225,-0.366,0.549,0.61,255.61
102881,141223,7933,-0.029,-0.933,-0.232,0.122,0.305,0.183,255.616
102909,141089,19647,-0.029,-0.933,-0.232,0.122,0.305,0.183,255.62
102909,141234,7940,-0.031,-0.939,-0.226,0.305,0.183,0,255.626
102891,141089,19647,-0.031,-0.939,-0.226,0.305,0.183,0,255.63
102891,141228,7954,-0.031,-0.929,-0.232,0.61,0.305,0,255.636
102884,141089,19647,-0.031,-0.929,-0.232,0.61,0.305,0,255.64
102884,141227,7942,-0.03,-0.934,-0.217,0.854,0,-0.305,255.646
102902,141089,19647,-0.03,-0.934,-0.217,0.854,0,-0.305,255.65
102902,141218,7933,-0.028,-0.943,-0.2,0.671,-0.305,-0.427,255.656
102884,141089,19647,-0.028,-0.943,-0.2,0.671,-0.305,-0.427,255.66
102884,141212,7930,-0.029,-0.95,-0.229,-0.244,0.061,-0.122,255.666
102888,141089,19647,-0.029,-0.95,-0.229,-0.244,0.061,-0.122,255.67
102888,141200,7939,-0.036,-0.953,-0.215,-0.976,0.488,0.488,255.676
102889,141089,19647,-0.036,-0.953,-0.215,-0.976,0.488,0.488,255.679
102889,141232,7946,-0.035,-0.925,-0.224,-0.427,0.549,0.61,255.686
102896,141089,19647,-0.035,-0.925,-0.224,-0.427,0.549,0.61,255.689
102896,141211,7945,-0.026,-0.942,-0.23,-0.549,0.488,0.366,255.695
102901,141089,19647,-0.026,-0.942,-0.23,-0.549,0.488,0.366,255.699
102901,141257,7935,-0.034,-0.939,-0.231,-1.037,0.671,0.915,255.705
102896,141089,19647,-0.034,-0.939,-0.231,-1.037,0.671,0.915,255.709
102896,141217,7937,-0.037,-0.922,-0.236,-0.366,0.732,0.793,255.715
102881,141089,19647,-0.037,-0.922,-0.236,-0.366,0.732,0.793,255.719
102881,141205,7941,-0.027,-0.935,-0.221,0.732,0,0.305,255.725
102886,141089,19647,-0.027,-0.935,-0.221,0.732,0,0.305,255.729
102886,141237,7946,-0.025,-0.94,-0.216,0.549,0,0.122,255.735
102895,141089,19647,-0.028,-0.942,-0.217,0.549,0,0.122,255.739
102895,141234,7933,-0.034,-0.941,-0.22,-0.183,0.549,0.122,255.745
102894,141089,19647,-0.033,-0.94,-0.223,-0.183,0.549,0.122,255.749
102894,141235,7936,-0.029,-0.942,-0.218,-0.061,0.366,0.183,255.755
102886,141089,19647,-0.026,-0.94,-0.217,-0.061,0.366,0.183,255.759
102886,141242,7945,-0.03,-0.94,-0.206,-0.183,0.488,0.183,255.765
102892,141089,19647,-0.034,-0.941,-0.204,-0.183,0.488,0.183,255.769
102892,141236,7931,-0.031,-0.937,-0.223,-0.793,0.732,0.366,255.775
102877,141089,19647,-0.028,-0.944,-0.231,-0.793,0.732,0.366,255.778
102877,141237,7938,-0.03,-0.947,-0.224,-1.098,0.732,0.854,255.785
102884,141089,19647,-0.034,-0.945,-0.221,-1.098,0.732,0.854,255.788
102884,141214,7937,-0.038,-0.938,-0.225,-0.732,0.732,0.976,255.795
102873,141089,19647,-0.038,-0.928,-0.229,-0.732,0.732,0.976,255.798
102873,141215,7932,-0.037,-0.924,-0.236,-0.122,0.427,0.732,255.804
102880,141089,19647,-0.031,-0.931,-0.229,-0.122,0.427,0.732,255.808
102880,141224,7941,-0.03,-0.937,-0.228,-0.122,0.305,0.61,255.814
102873,141089,19647,-0.036,-0.939,-0.227,-0.122,0.305,0.61,255.818
102873,141247,7950,-0.037,-0.936,-0.23,-0.183,0.366,0.427,255.824
102908,141089,19647,-0.034,-0.935,-0.227,-0.183,0.366,0.427,255.828
102908,141239,7954,-0.027,-0.941,-0.218,0.488,0.061,0.305,255.834
102886,141089,19647,-0.025,-0.941,-0.217,0.488,0.061,0.305,255.838
102886,141226,7949,-0.028,-0.939,-0.223,0.427,0.305,0.305,255.844
102893,141089,19647,-0.029,-0.937,-0.22,0.427,0.305,0.305,255.848
102893,141234,7932,-0.032,-0.936,-0.219,-0.122,0.671,0.305,255.854
102887,141089,19647,-0.027,-0.933,-0.226,-0.122,0.671,0.305,255.858
102887,141242,7946,-0.031,-0.934,-0.224,-0.549,0.61,0.305,255.864
102903,141089,19647,-0.026,-0.939,-0.223,-0.549,0.61,0.305,255.868
102903,141253,7955,-0.022,-0.941,-0.22,-0.793,0.671,0.427,255.874
102885,141089,19647,-0.029,-0.942,-0.225,-0.793,0.671,0.427,255.877
102885,141251,7925,-0.032,-0.938,-0.235,-0.915,0.793,0.427,255.884
102890,141089,19647,-0.03,-0.941,-0.238,-0.915,0.793,0.427,255.887
102890,141248,7948,-0.033,-0.94,-0.233,-0.549,0.61,0.488,255.893
102896,141089,19647,-0.033,-0.935,-0.232,-0.549,0.61,0.488,255.897
102896,141229,7928,-0.034,-0.931,-0.233,0.061,0.061,0.427,255.903
102879,141089,19647,-0.035,-0.929,-0.23,0.061,0.061,0.427,255.907
102879,141225,7928,-0.037,-0.935,-0.229,0.183,-0.244,0.183,255.913
102881,141089,19647,-0.038,-0.94,-0.216,0.183,-0.244,0.183,255.917
102881,141250,7933,-0.036,-0.941,-0.206,0.488,-0.305,-0.122,255.923
102864,141089,19647,-0.035,-0.939,-0.211,0.488,-0.305,-0.122,255.927
102864,141241,7935,-0.036,-0.941,-0.212,0.732,-0.244,-0.244,255.933
102875,141089,19647,-0.032,-0.941,-0.206,0.732,-0.244,-0.244,255.937
102875,141272,7937,-0.028,-0.943,-0.206,0.488,0,0.122,255.943
102900,141089,19647,-0.031,-0.945,-0.21,0.488,0,0.122,255.947
102900,141268,7948,-0.038,-0.944,-0.224,-0.61,0.732,0.366,255.953
102889,141089,19647,-0.036,-0.944,-0.228,-0.61,0.732,0.366,255.957
102889,141266,7943,-0.037,-0.941,-0.232,-0.732,1.098,0.427,255.963
102914,141089,19647,-0.032,-0.938,-0.23,-0.732,1.098,0.427,255.967
102914,141251,7940,-0.027,-0.939,-0.228,-0.244,0.732,0.488,255.973
102906,141089,19647,-0.025,-0.936,-0.23,-0.244,0.732,0.488,255.976
102906,141226,7954,-0.03,-0.931,-0.238,-0.305,0.61,0.488,255.983
102914,141089,19647,-0.028,-0.935,-0.24,-0.305,0.61,0.488,255.986
102914,141256,7941,-0.027,-0.938,-0.23,0,0.427,0.427,255.993
102918,141089,19647,-0.026,-0.932,-0.218,0,0.427,0.427,255.996
102918,141231,7946,-0.026,-0.927,-0.221,0.366,0,0.305,256.002
102892,141089,19647,-0.024,-0.929,-0.223,0.366,0,0.305,256.006
102892,141268,7946,-0.028,-0.936,-0.222,0.061,0.061,-0.061,256.012
102912,141089,19647,-0.028,-0.937,-0.22,0.061,0.061,-0.061,256.016
102912,141266,7949,-0.03,-0.944,-0.222,-0.427,0.061,0.183,256.022
102891,141089,19647,-0.033,-0.942,-0.226,-0.427,0.061,0.183,256.026
102891,141263,7939,-0.034,-0.941,-0.224,-0.183,0,0.183,256.032
102896,141089,19647,-0.034,-0.939,-0.218,-0.183,0,0.183,256.036
102896,141270,7953,-0.031,-0.935,-0.224,0.061,0.122,0,256.042
102900,141089,19647,-0.03,-0.937,-0.229,0.061,0.122,0,256.046
102900,141252,7940,-0.03,-0.942,-0.221,-0.305,0.305,0.244,256.052
102900,141089,19647,-0.033,-0.94,-0.222,-0.305,0.305,0.244,256.056
102900,141278,7937,-0.035,-0.935,-0.225,-0.305,0.427,0.366,256.062
102921,141089,19647,-0.037,-0.935,-0.228,-0.305,0.427,0.366,256.066
102921,141284,7943,-0.03,-0.938,-0.232,0,0.183,0.305,256.072
102896,141089,19647,-0.031,-0.938,-0.229,0,0.183,0.305,256.075
102896,141284,7939,-0.033,-0.94,-0.228,0.671,-0.244,0.366,256.082
102922,141089,19647,-0.033,-0.939,-0.219,0.671,-0.244,0.366,256.085
102922,141307,7950,-0.035,-0.935,-0.213,1.098,-0.183,0.183,256.092
102916,141089,19647,-0.036,-0.936,-0.211,1.098,-0.183,0.183,256.095
102916,141289,7944,-0.028,-0.94,-0.211,0.488,-0.061,0.122,256.101
102891,141089,19647,-0.028,-0.945,-0.219,0.488,-0.061,0.122,256.105
102891,141282,7947,-0.028,-0.945,-0.218,-0.183,0.427,0.427,256.111
102905,141089,19647,-0.03,-0.943,-0.214,-0.183,0.427,0.427,256.115
102905,141284,7949,-0.03,-0.938,-0.213,-0.305,0.793,0.366,256.121
102921,141089,19647,-0.03,-0.934,-0.211,-0.305,0.793,0.366,256.125
102921,141283,7938,-0.028,-0.936,-0.212,-0.305,0.732,0.244,256.131
102922,141089,19647,-0.022,-0.941,-0.226,-0.305,0.732,0.244,256.135
102922,141276,7942,-0.028,-0.942,-0.238,-0.915,0.915,0.549,256.141
102916,141089,19647,-0.031,-0.942,-0.243,-0.915,0.915,0.549,256.145
102916,141300,7954,-0.031,-0.938,-0.241,-0.244,0.915,0.671,256.151
102914,141089,19647,-0.029,-0.929,-0.232,-0.244,0.915,0.671,256.155
102914,141272,7948,-0.028,-0.929,-0.228,0.549,0.244,0.366,256.161
102918,141089,19647,-0.029,-0.931,-0.227,0.549,0.244,0.366,256.165
102918,141288,7946,-0.03,-0.934,-0.22,0.244,0.061,0.244,256.171
102924,141089,19647,-0.031,-0.937,-0.23,0.244,0.061,0.244,256.174
102924,141287,7953,-0.033,-0.94,-0.229,-0.366,0.244,0.244,256.181
102926,141089,19647,-0.033,-0.94,-0.229,-0.366,0.244,0.244,256.184
102926,141267,7954,-0.029,-0.945,-0.222,0.427,0.122,0.122,256.191
102899,141089,19647,-0.029,-0.945,-0.222,0.427,0.122,0.122,256.194
102899,141241,7944,-0.034,-0.944,-0.223,0.61,0,0.183,256.2
102889,141089,19647,-0.034,-0.944,-0.223,0.61,0,0.183,256.204
102889,141271,7945,-0.032,-0.939,-0.222,0.732,0,0.488,256.21
102907,141089,19647,-0.032,-0.939,-0.222,0.732,0,0.488,256.214
102907,141268,7936,-0.035,-0.935,-0.222,0.488,0,0.488,256.22
102890,141089,19647,-0.035,-0.935,-0.222,0.488,0,0.488,256.224
102890,141255,7947,-0.034,-0.934,-0.213,0.366,-0.122,0.488,256.23
102915,141089,19647,-0.034,-0.934,-0.213,0.366,-0.122,0.488,256.234
102915,141265,7954,-0.035,-0.934,-0.218,-0.183,0.244,0.366,256.24
102886,141089,19647,-0.035,-0.934,-0.218,-0.183,0.244,0.366,256.244
102886,141262,7957,-0.031,-0.94,-0.223,-0.244,0.488,0.488,256.25
102891,141089,19647,-0.031,-0.94,-0.223,-0.244,0.488,0.488,256.254
102891,141260,7936,-0.029,-0.94,-0.226,0,0.549,0.305,256.26
102895,141089,19647,-0.029,-0.94,-0.226,0,0.549,0.305,256.264
102895,141239,7946,-0.032,-0.938,-0.225,-0.122,0.549,0.244,256.27
102882,141089,19647,-0.032,-0.938,-0.225,-0.122,0.549,0.244,256.273
102882,141233,7939,-0.031,-0.937,-0.223,-0.305,0.427,0.366,256.28
102885,141089,19647,-0.031,-0.937,-0.223,-0.305,0.427,0.366,256.283
102885,141228,7939,-0.03,-0.94,-0.216,-0.61,0.366,0.305,256.29
102883,141089,19647,-0.03,-0.94,-0.216,-0.61,0.366,0.305,256.293
102883,141246,7934,-0.028,-0.937,-0.213,-0.732,0.366,0.549,256.299
102891,141089,19647,-0.028,-0.937,-0.213,-0.732,0.366,0.549,256.303
102891,141238,7946,-0.035,-0.944,-0.217,-1.159,0.549,0.61,256.309
102877,141089,19647,-0.035,-0.944,-0.217,-1.159,0.549,0.61,256.313
102877,141252,7935,-0.034,-0.938,-0.23,-0.915,0.732,0.671,256.319
102889,141089,19647,-0.034,-0.938,-0.23,-0.915,0.732,0.671,256.323
102889,141224,7931,-0.032,-0.937,-0.227,-0.915,0.732,0.671,256.329
102893,141089,19647,-0.033,-0.937,-0.22,-0.122,0.549,0.427,256.333
102893,141244,7941,-0.026,-0.936,-0.225,-0.122,0.549,0.427,256.339
102895,141089,19647,-0.031,-0.935,-0.232,0,0.549,0.366,256.343
102895,141241,7941,-0.032,-0.936,-0.235,0,0.549,0.366,256.349
102890,141089,19647,-0.034,-0.937,-0.233,0.122,0.61,0.305,256.353
102890,141243,7941,-0.032,-0.936,-0.224,0.122,0.61,0.305,256.359
102878,141089,19647,-0.03,-0.934,-0.224,0.671,0.305,0.183,256.363
102878,141219,7948,-0.029,-0.932,-0.231,0.671,0.305,0.183,256.369
102878,141089,19647,-0.028,-0.935,-0.222,0.549,0,0,256.372
102878,141207,7950,-0.029,-0.94,-0.216,0.549,0,0,256.379
102882,141089,19647,-0.03,-0.941,-0.219,0.122,0.061,0.183,256.382
102882,141209,7945,-0.033,-0.941,-0.214,0.122,0.061,0.183,256.389
102866,141089,19647,-0.036,-0.938,-0.204,-0.183,0.305,0.122,256.392
102866,141258,7944,-0.028,-0.934,-0.209,-0.183,0.305,0.122,256.398
102883,141089,19647,-0.029,-0.932,-0.216,-0.366,0.427,0.305,256.402
102883,141237,7912,-0.032,-0.936,-0.212,-0.366,0.427,0.305,256.408
102880,141089,19647,-0.034,-0.944,-0.215,-1.098,0.854,0.427,256.412
102880,141240,7942,-0.032,-0.947,-0.221,-1.098,0.854,0.427,256.418
102875,141089,19647,-0.036,-0.95,-0.223,-1.646,1.098,0.549,256.422
102875,141234,7930,-0.032,-0.949,-0.225,-1.646,1.098,0.549,256.428
102854,141089,19647,-0.031,-0.94,-0.228,-0.854,0.732,0.732,256.432
102854,141231,7925,-0.031,-0.936,-0.236,-0.854,0.732,0.732,256.438
102861,141089,19647,-0.035,-0.937,-0.235,-0.427,0.61,0.793,256.442
102861,141256,7936,-0.037,-0.937,-0.228,-0.427,0.61,0.793,256.448
102846,141089,19647,-0.035,-0.931,-0.229,0.122,0.427,0.671,256.452
102846,141223,7921,-0.03,-0.928,-0.233,0.122,0.427,0.671,256.458
102848,141089,19647,-0.031,-0.934,-0.232,0.488,0.122,0.305,256.462
102848,141212,7940,-0.028,-0.936,-0.229,0.488,0.122,0.305,256.468
102842,141089,19647,-0.026,-0.939,-0.22,0.671,0,0.244,256.471
102842,141214,7939,-0.03,-0.943,-0.22,0.671,0,0.244,256.478
102846,141089,19647,-0.029,-0.938,-0.219,0.427,-0.061,0.183,256.481
102846,141210,7948,-0.028,-0.936,-0.21,0.427,-0.061,0.183,256.488
102838,141089,19647,-0.03,-0.937,-0.214,0.366,0.061,0.122,256.491
102838,141240,7930,-0.031,-0.939,-0.217,0.366,0.061,0.122,256.497
102840,141089,19647,-0.033,-0.941,-0.218,-0.061,0.427,0.244,256.501
102840,141210,7928,-0.034,-0.938,-0.224,-0.061,0.427,0.244,256.507
102837,141089,19647,-0.031,-0.945,-0.221,-0.366,0.549,0.244,256.511
102837,141222,7941,-0.034,-0.943,-0.219,-0.366,0.549,0.244,256.517
102855,141089,19647,-0.031,-0.941,-0.218,-0.244,0.366,0.427,256.521
102855,141189,7937,-0.031,-0.934,-0.225,-0.244,0.366,0.427,256.527
102843,141089,19647,-0.032,-0.932,-0.231,-0.61,0.305,0.305,256.531
102843,141208,7940,-0.034,-0.935,-0.237,-0.61,0.305,0.305,256.537
102861,141089,19647,-0.037,-0.939,-0.227,-0.183,0.427,0.366,256.541
102861,141197,7944,-0.034,-0.932,-0.22,-0.183,0.427,0.366,256.547
102815,141089,19647,-0.026,-0.933,-0.221,0.366,0,0.061,256.551
102815,141204,7930,-0.026,-0.938,-0.214,0.366,0,0.061,256.557
102832,141089,19647,-0.026,-0.938,-0.211,-0.061,-0.061,0.061,256.561
102832,141196,7935,-0.025,-0.941,-0.223,-0.061,-0.061,0.061,256.567
102826,141089,19647,-0.029,-0.95,-0.221,-0.61,0.366,0.244,256.57
102826,141198,7936,-0.034,-0.949,-0.211,-0.61,0.366,0.244,256.577
102845,141089,19647,-0.034,-0.939,-0.21,-0.122,0.244,0.549,256.58
102845,141242,7933,-0.028,-0.933,-0.218,-0.122,0.244,0.549,256.587
102836,141089,19647,-0.031,-0.94,-0.226,-0.915,0.305,0.61,256.59
102836,141203,7944,-0.034,-0.946,-0.231,-0.915,0.305,0.61,256.596
102845,141089,19647,-0.037,-0.946,-0.219,-1.341,0.793,0.915,256.6
102845,141233,7948,-0.034,-0.941,-0.214,-1.341,0.793,0.915,256.606
102855,141089,19647,-0.032,-0.932,-0.218,-0.793,0.488,0.854,256.61
102855,141213,7924,-0.032,-0.929,-0.233,-0.793,0.488,0.854,256.616
102845,141089,19647,-0.028,-0.933,-0.233,-0.305,0.549,0.61,256.62
102845,141221,7924,-0.031,-0.932,-0.226,-0.305,0.549,0.61,256.626
102842,141089,19647,-0.035,-0.929,-0.226,0,0.793,0.549,256.63
102842,141228,7929,-0.032,-0.928,-0.222,0,0.793,0.549,256.636
102849,141089,19647,-0.031,-0.936,-0.222,0.122,0.61,0.061,256.64
102849,141234,7941,-0.026,-0.94,-0.221,0.122,0.61,0.061,256.646
102837,141089,19647,-0.027,-0.94,-0.225,0.061,0.305,0,256.65
102837,141207,7941,-0.03,-0.94,-0.227,0.061,0.305,0,256.656
102844,141089,19647,-0.037,-0.939,-0.217,0,0.488,0.122,256.66
102844,141201,7935,-0.034,-0.941,-0.205,0,0.488,0.122,256.666
102827,141089,19647,-0.027,-0.945,-0.21,0.122,0.244,0.061,256.669
102827,141207,7938,-0.025,-0.951,-0.215,0.122,0.244,0.061,256.676
102842,141089,19647,-0.026,-0.951,-0.215,-0.671,0.122,0.671,256.679
102842,141201,7937,-0.031,-0.95,-0.218,-0.671,0.122,0.671,256.686
102814,141089,19647,-0.036,-0.942,-0.219,-1.341,0.732,1.098,256.689
102814,141212,7924,-0.04,-0.937,-0.22,-1.341,0.732,1.098,256.695
102851,141089,19647,-0.035,-0.928,-0.221,-0.61,0.549,1.098,256.699
102851,141203,7933,-0.03,-0.926,-0.228,-0.61,0.549,1.098,256.705
102821,141089,19647,-0.029,-0.927,-0.226,-0.366,0.549,0.793,256.709
102821,141207,7953,-0.03,-0.927,-0.232,-0.366,0.549,0.793,256.715
102860,141089,19647,-0.033,-0.927,-0.237,-0.427,0.793,0.488,256.719
102860,141207,7951,-0.029,-0.93,-0.239,-0.427,0.793,0.488,256.725
102837,141089,19647,-0.029,-0.93,-0.241,0,0.549,-0.061,256.729
102837,141207,7934,-0.025,-0.942,-0.234,0,0.549,-0.061,256.735
102848,141089,19647,-0.022,-0.944,-0.214,0.61,0.183,-0.61,256.739
102848,141212,7937,-0.023,-0.943,-0.214,0.61,0.183,-0.61,256.745
102845,141089,19647,-0.028,-0.941,-0.215,0.305,0.183,-0.305,256.749
102845,141206,7938,-0.031,-0.939,-0.221,0.305,0.183,-0.305,256.755
102847,141089,19647,-0.033,-0.945,-0.227,-0.793,0.366,0.122,256.759
102847,141229,7941,-0.04,-0.953,-0.213,-0.793,0.366,0.122,256.765
102834,141089,19647,-0.038,-0.947,-0.204,-0.854,0.549,0.488,256.768
102834,141203,7930,-0.036,-0.934,-0.215,-0.854,0.549,0.488,256.775
102823,141089,19647,-0.036,-0.934,-0.215,-0.854,0.549,0.488,256.778
102823,141236,7930,-0.036,-0.935,-0.215,-0.671,0.244,0.427,256.785
102837,141089,19647,-0.036,-0.935,-0.215,-0.671,0.244,0.427,256.788
102837,141224,7936,-0.039,-0.94,-0.227,-0.793,0.488,0.61,256.794
102826,141089,19647,-0.039,-0.94,-0.227,-0.793,0.488,0.61,256.798
102826,141200,7929,-0.035,-0.938,-0.226,-0.854,0.732,0.549,256.804
102813,141089,19647,-0.035,-0.938,-0.226,-0.854,0.732,0.549,256.808
102813,141240,7929,-0.023,-0.932,-0.228,-0.061,0.305,0.366,256.814
102817,141089,19647,-0.023,-0.932,-0.228,-0.061,0.305,0.366,256.818
102817,141196,7924,-0.025,-0.94,-0.222,0.244,0.122,0.122,256.824
102810,141089,19647,-0.025,-0.94,-0.222,0.244,0.122,0.122,256.828
102810,141201,7935,-0.027,-0.935,-0.221,0.305,0.183,0.183,256.834
102812,141089,19647,-0.027,-0.935,-0.221,0.305,0.183,0.183,256.838
102812,141193,7926,-0.025,-0.935,-0.218,0,0.244,0.122,256.844
102791,141089,19647,-0.025,-0.935,-0.218,0,0.244,0.122,256.848
102791,141177,7936,-0.029,-0.942,-0.21,-0.488,0.305,0.305,256.854
102790,141089,19647,-0.029,-0.942,-0.21,-0.488,0.305,0.305,256.858
102790,141180,7935,-0.036,-0.931,-0.249,-0.671,0.61,0.366,256.864
102791,141089,19647,-0.036,-0.931,-0.249,-0.671,0.61,0.366,256.868
102791,141190,7941,-0.033,-0.95,-0.225,-0.976,0.915,0.366,256.874
102804,141089,19647,-0.033,-0.95,-0.225,-0.976,0.915,0.366,256.877
102804,141198,7939,-0.038,-0.929,-0.235,0,0.305,0.366,256.884
102791,141089,19647,-0.038,-0.929,-0.235,0,0.305,0.366,256.887
102791,141188,7938,-0.031,-0.937,-0.224,0.366,-0.244,0,256.893
102805,141089,19647,-0.031,-0.937,-0.224,0.366,-0.244,0,256.897
102805,141196,7940,-0.034,-0.937,-0.231,0.244,-0.183,0.244,256.903
102811,141089,19647,-0.034,-0.937,-0.231,0.244,-0.183,0.244,256.907
102811,141194,7930,-0.036,-0.931,-0.21,0.122,0,0.061,256.913
102791,141089,19647,-0.036,-0.931,-0.21,0.122,0,0.061,256.917
102791,141176,7926,-0.029,-0.932,-0.203,0.427,-0.183,-0.244,256.923
102790,141089,19647,-0.026,-0.937,-0.21,0.427,-0.183,-0.244,256.927
102790,141195,7938,-0.029,-0.943,-0.221,-0.61,0.122,-0.061,256.933
102800,141089,19647,-0.034,-0.952,-0.224,-0.61,0.122,-0.061,256.937
102800,141192,7927,-0.03,-0.951,-0.219,-0.793,0.549,0.305,256.943
102814,141089,19647,-0.031,-0.944,-0.217,-0.793,0.549,0.305,256.947
102814,141205,7937,-0.034,-0.936,-0.221,0.122,0.305,0.183,256.953
102792,141089,19647,-0.031,-0.933,-0.216,0.122,0.305,0.183,256.957
102792,141208,7928,-0.027,-0.933,-0.221,0.305,0.061,0.183,256.963
102797,141089,19647,-0.026,-0.936,-0.224,0.305,0.061,0.183,256.966
102797,141224,7934,-0.027,-0.942,-0.221,0,0.305,0.305,256.973
102794,141089,19647,-0.031,-0.939,-0.223,0,0.305,0.305,256.976
102794,141199,7929,-0.03,-0.936,-0.222,-0.183,0.366,0.366,256.983
102811,141089,19647,-0.027,-0.936,-0.212,-0.183,0.366,0.366,256.986
102811,141206,7930,-0.025,-0.939,-0.211,0.183,0.244,0.122,256.992
102823,141089,19647,-0.019,-0.941,-0.215,0.183,0.244,0.122,256.996
102823,141218,7941,-0.023,-0.943,-0.225,-0.305,0.61,0.427,257.002
102825,141089,19647,-0.03,-0.944,-0.236,-0.305,0.61,0.427,257.006
102825,141228,7936,-0.034,-0.945,-0.232,-0.976,1.28,0.732,257.012
102826,141089,19647,-0.037,-0.94,-0.227,-0.976,1.28,0.732,257.016
102826,141213,7935,-0.036,-0.929,-0.223,-0.122,0.793,0.488,257.022
102817,141089,19647,-0.033,-0.924,-0.22,-0.122,0.793,0.488,257.026
102817,141216,7941,-0.029,-0.924,-0.231,0,0.427,0.244,257.032
102812,141089,19647,-0.029,-0.936,-0.233,0,0.427,0.244,257.036
102812,141205,7944,-0.031,-0.946,-0.234,-0.549,0.549,0.488,257.042
102802,141089,19647,-0.032,-0.942,-0.234,-0.549,0.549,0.488,257.046
102802,141209,7936,-0.036,-0.941,-0.232,0.122,0.427,0.427,257.052
102810,141089,19647,-0.033,-0.94,-0.217,0.122,0.427,0.427,257.056
102810,141234,7943,-0.028,-0.935,-0.205,1.098,-0.122,0,257.062
102800,141089,19647,-0.026,-0.932,-0.215,1.098,-0.122,0,257.066
102800,141194,7936,-0.027,-0.94,-0.22,-0.122,0.122,0.244,257.072
102796,141089,19647,-0.034,-0.945,-0.215,-0.122,0.122,0.244,257.075
102796,141194,7943,-0.033,-0.943,-0.212,-0.854,0.793,0.61,257.082
102801,141089,19647,-0.034,-0.941,-0.209,-0.854,0.793,0.61,257.085
102801,141199,7929,-0.032,-0.939,-0.21,-0.488,0.793,0.549,257.091
102788,141089,19647,-0.029,-0.932,-0.217,-0.488,0.793,0.549,257.095
102788,141163,7944,-0.027,-0.936,-0.222,-0.549,0.671,0.61,257.101
102798,141089,19647,-0.032,-0.939,-0.224,-0.549,0.671,0.61,257.105
102798,141197,7932,-0.034,-0.941,-0.229,-1.159,1.037,0.915,257.111
102806,141089,19647,-0.036,-0.941,-0.233,-1.159,1.037,0.915,257.115
102806,141151,7937,-0.035,-0.94,-0.232,-0.732,0.854,0.854,257.121
102778,141089,19647,-0.032,-0.936,-0.234,-0.732,0.854,0.854,257.125
102778,141179,7931,-0.03,-0.93,-0.236,0.305,0.305,0.61,257.131
102793,141089,19647,-0.03,-0.931,-0.234,0.305,0.305,0.61,257.135
102793,141165,7943,-0.033,-0.935,-0.228,0.488,0.122,0.366,257.141
102830,141089,19647,-0.032,-0.936,-0.23,0.488,0.122,0.366,257.145
102830,141178,7952,-0.031,-0.94,-0.226,0.366,0.061,0,257.151
102801,141089,19647,-0.031,-0.935,-0.224,0.366,0.061,0,257.155
102801,141183,7942,-0.028,-0.933,-0.221,0.732,-0.122,0,257.161
102800,141089,19647,-0.026,-0.933,-0.216,0.732,-0.122,0,257.165
102800,141173,7947,-0.029,-0.933,-0.209,0.671,-0.183,-0.122,257.171
102806,141089,19647,-0.03,-0.938,-0.201,0.671,-0.183,-0.122,257.174
102806,141196,7926,-0.031,-0.938,-0.203,-0.061,0.366,-0.183,257.181
102826,141089,19647,-0.031,-0.948,-0.221,-0.061,0.366,-0.183,257.184
102826,141174,7932,-0.033,-0.954,-0.231,-0.793,0.854,0.244,257.191
102792,141089,19647,-0.034,-0.95,-0.224,-0.793,0.854,0.244,257.194
102792,141174,7930,-0.029,-0.945,-0.215,-0.122,0.793,0.549,257.2
102801,141089,19647,-0.033,-0.936,-0.218,-0.122,0.793,0.549,257.204
102801,141197,7927,-0.035,-0.93,-0.221,-0.244,0.549,0.427,257.21
102813,141089,19647,-0.031,-0.936,-0.224,-0.244,0.549,0.427,257.214
102813,141194,7929,-0.027,-0.945,-0.227,-0.976,0.488,0.61,257.22
102816,141089,19647,-0.031,-0.941,-0.228,-0.976,0.488,0.61,257.224
102816,141190,7939,-0.036,-0.931,-0.234,-0.732,0.549,0.854,257.23
102825,141089,19647,-0.036,-0.926,-0.226,-0.732,0.549,0.854,257.234
102825,141212,7925,-0.033,-0.928,-0.214,0.061,0.244,0.366,257.24
102822,141089,19647,-0.028,-0.934,-0.218,0.061,0.244,0.366,257.244
102822,141199,7940,-0.027,-0.939,-0.222,-0.244,0.183,0.122,257.25
102817,141089,19647,-0.03,-0.944,-0.222,-0.244,0.183,0.122,257.254
102817,141191,7942,-0.035,-0.942,-0.224,-0.671,0.549,0.305,257.26
102805,141089,19647,-0.036,-0.94,-0.224,-0.671,0.549,0.305,257.264
102805,141167,7934,-0.035,-0.936,-0.219,-0.305,0.488,0.244,257.27
102814,141089,19647,-0.034,-0.932,-0.216,-0.305,0.488,0.244,257.273
102814,141172,7917,-0.027,-0.935,-0.217,-0.244,0.244,0.183,257.28
102822,141089,19647,-0.03,-0.94,-0.221,-0.244,0.244,0.183,257.283
102822,141172,7954,-0.033,-0.944,-0.226,-1.098,0.61,0.366,257.29
102829,141089,19647,-0.033,-0.944,-0.227,-1.098,0.61,0.366,257.293
102829,141195,7928,-0.031,-0.944,-0.221,-0.915,0.732,0.671,257.299
102822,141089,19647,-0.029,-0.936,-0.218,-0.915,0.732,0.671,257.303
102822,141204,7923,-0.03,-0.936,-0.228,-0.61,0.61,0.488,257.309
102828,141089,19647,-0.031,-0.937,-0.229,-0.61,0.61,0.488,257.313
102828,141184,7922,-0.028,-0.941,-0.227,-0.671,0.61,0.488,257.319
102835,141089,19647,-0.026,-0.937,-0.227,-0.671,0.61,0.488,257.323
102835,141196,7953,-0.03,-0.938,-0.224,-0.549,0.61,0.488,257.329
102831,141089,19647,-0.027,-0.936,-0.223,-0.549,0.61,0.488,257.333
102831,141200,7924,-0.032,-0.936,-0.227,-0.488,0.549,0.488,257.339
102819,141089,19647,-0.028,-0.937,-0.222,-0.488,0.549,0.488,257.343
102819,141196,7944,-0.027,-0.937,-0.214,-0.488,0.549,0.488,257.349
102816,141089,19647,-0.027,-0.932,-0.216,-0.488,0.549,0.488,257.353
102816,141195,7929,-0.031,-0.932,-0.219,-0.793,0.61,0.488,257.359
102806,141089,19647,-0.032,-0.937,-0.222,-0.793,0.61,0.488,257.363
102806,141178,7929,-0.032,-0.939,-0.225,-1.159,0.854,0.488,257.369
102807,141089,19647,-0.032,-0.939,-0.225,-1.159,0.854,0.488,257.372
102807,141189,7936,-0.032,-0.94,-0.224,-0.915,0.793,0.366,257.379
102815,141089,19647,-0.032,-0.94,-0.224,-0.915,0.793,0.366,257.382
102815,141182,7924,-0.035,-0.942,-0.22,-0.488,0.854,0.305,257.389
102813,141089,19647,-0.035,-0.942,-0.22,-0.488,0.854,0.305,257.392
102813,141191,7935,-0.031,-0.94,-0.23,-0.61,0.732,0.366,257.398
102833,141089,19647,-0.031,-0.94,-0.23,-0.61,0.732,0.366,257.402
102833,141179,7927,-0.032,-0.947,-0.23,-0.488,0.61,0.427,257.408
102820,141089,19647,-0.032,-0.947,-0.23,-0.488,0.61,0.427,257.412
102820,141189,7940,-0.028,-0.938,-0.216,-0.305,0.183,0.549,257.418
102812,141089,19647,-0.028,-0.938,-0.216,-0.305,0.183,0.549,257.422
102812,141190,7929,-0.027,-0.93,-0.217,-0.488,0.244,0.61,257.428
102826,141089,19647,-0.027,-0.93,-0.217,-0.488,0.244,0.61,257.432
102826,141190,7921,-0.03,-0.937,-0.221,-0.976,0.488,0.732,257.438
102830,141089,19647,-0.03,-0.937,-0.221,-0.976,0.488,0.732,257.442
102830,141210,7931,-0.037,-0.935,-0.22,-0.976,0.549,0.671,257.448
102822,141089,19647,-0.037,-0.935,-0.22,-0.976,0.549,0.671,257.452
102822,141220,7939,-0.035,-0.934,-0.23,-0.976,0.61,0.488,257.458
102835,141089,19647,-0.035,-0.934,-0.23,-0.976,0.61,0.488,257.462
102835,141210,7944,-0.038,-0.946,-0.235,-0.854,0.549,0.488,257.468
102824,141089,19647,-0.038,-0.946,-0.235,-0.854,0.549,0.488,257.471
102824,141195,7937,-0.031,-0.938,-0.225,-0.366,0.305,0.244,257.478
102829,141089,19647,-0.031,-0.938,-0.225,-0.366,0.305,0.244,257.481
102829,141200,7938,-0.033,-0.937,-0.228,-0.549,0.122,0.244,257.488
102833,141089,19647,-0.033,-0.937,-0.228,-0.549,0.122,0.244,257.491
102833,141218,7906,-0.032,-0.937,-0.221,-0.732,0.305,0.366,257.497
102818,141089,19647,-0.032,-0.937,-0.221,-0.732,0.305,0.366,257.501
102818,141205,7928,-0.03,-0.94,-0.221,-0.976,0.488,0.305,257.507
102839,141089,19647,-0.03,-0.94,-0.221,-0.976,0.488,0.305,257.511
102839,141202,7922,-0.028,-0.938,-0.215,-0.976,0.488,0.305,257.517
102825,141089,19647,-0.028,-0.939,-0.213,-1.037,0.488,0.305,257.521
102825,141190,7934,-0.028,-0.938,-0.219,-1.037,0.488,0.305,257.527
102841,141089,19647,-0.033,-0.939,-0.222,-1.768,0.793,0.427,257.531
102841,141207,7928,-0.03,-0.94,-0.222,-1.768,0.793,0.427,257.537
102834,141089,19647,-0.03,-0.939,-0.221,-1.89,1.037,0.549,257.541
102834,141192,7933,-0.028,-0.935,-0.224,-1.89,1.037,0.549,257.547
102842,141089,19647,-0.029,-0.938,-0.218,-1.28,0.915,0.488,257.551
102842,141206,7931,-0.03,-0.936,-0.224,-1.28,0.915,0.488,257.557
102850,141089,19647,-0.031,-0.932,-0.234,-1.098,1.037,0.61,257.561
102850,141215,7930,-0.028,-0.937,-0.23,-1.098,1.037,0.61,257.567
102825,141089,19647,-0.027,-0.939,-0.236,-1.159,0.854,0.488,257.57
102825,141209,7927,-0.03,-0.936,-0.241,-1.159,0.854,0.488,257.577
102840,141089,19647,-0.032,-0.942,-0.242,-1.098,0.793,0.549,257.58
102840,141207,7933,-0.032,-0.942,-0.238,-1.098,0.793,0.549,257.587
102841,141089,19647,-0.029,-0.935,-0.226,0,0.183,0.488,257.59
102841,141237,7934,-0.027,-0.934,-0.22,0,0.183,0.488,257.596
102841,141089,19647,-0.027,-0.929,-0.223,0.244,-0.122,0.366,257.6
102841,141224,7944,-0.028,-0.934,-0.232,0.244,-0.122,0.366,257.606
102862,141089,19647,-0.03,-0.942,-0.237,-0.549,0.183,0.305,257.61
102862,141231,7920,-0.03,-0.944,-0.223,-0.549,0.183,0.305,257.616
102845,141089,19647,-0.029,-0.941,-0.208,-0.305,0.305,0.122,257.62
102845,141232,7935,-0.026,-0.931,-0.215,-0.305,0.305,0.122,257.626
102849,141089,19647,-0.025,-0.931,-0.221,-0.305,0.183,-0.122,257.63
102849,141249,7934,-0.026,-0.938,-0.22,-0.305,0.183,-0.122,257.636
102855,141089,19647,-0.027,-0.945,-0.22,-1.28,0.732,0.244,257.64
102855,141235,7938,-0.031,-0.947,-0.216,-1.28,0.732,0.244,257.646
102868,141089,19647,-0.033,-0.942,-0.222,-1.28,1.098,0.305,257.65
102868,141224,7935,-0.031,-0.938,-0.233,-1.28,1.098,0.305,257.656
102852,141089,19647,-0.032,-0.939,-0.229,-0.61,0.854,0.305,257.66
102852,141225,7938,-0.029,-0.938,-0.229,-0.61,0.854,0.305,257.666
102852,141089,19647,-0.034,-0.938,-0.235,-0.183,0.549,0.488,257.669
102852,141219,7950,-0.038,-0.939,-0.229,-0.183,0.549,0.488,257.676
102849,141089,19647,-0.039,-0.937,-0.223,-0.427,0.61,0.366,257.679
102849,141243,7938,-0.035,-0.936,-0.221,-0.427,0.61,0.366,257.686
102856,141089,19647,-0.032,-0.94,-0.227,-0.732,0.488,0.427,257.689
102856,141210,7941,-0.032,-0.944,-0.232,-0.732,0.488,0.427,257.695
102858,141089,19647,-0.032,-0.948,-0.232,-1.159,0.488,0.915,257.699
102858,141238,7945,-0.038,-0.943,-0.23,-1.159,0.488,0.915,257.705
102860,141089,19647,-0.04,-0.935,-0.232,-0.732,0.488,0.854,257.709
102860,141220,7948,-0.038,-0.931,-0.231,-0.732,0.488,0.854,257.715
102850,141089,19647,-0.033,-0.932,-0.233,-0.305,0.183,0.549,257.719
102850,141238,7944,-0.028,-0.932,-0.233,-0.305,0.183,0.549,257.725
102856,141089,19647,-0.027,-0.934,-0.226,-0.366,0,0.549,257.729
102856,141233,7929,-0.026,-0.932,-0.226,-0.366,0,0.549,257.735
102858,141089,19647,-0.027,-0.927,-0.23,-0.61,0.061,0.366,257.739
102858,141253,7935,-0.028,-0.927,-0.23,-0.61,0.061,0.366,257.745
102861,141089,19647,-0.027,-0.93,-0.235,-0.366,0.122,0.122,257.749
102861,141223,7925,-0.027,-0.936,-0.232,-0.366,0.122,0.122,257.755
102846,141089,19647,-0.03,-0.938,-0.217,0.183,0.183,0,257.759
102846,141223,7940,-0.027,-0.935,-0.212,0.183,0.183,0,257.765
102854,141089,19647,-0.03,-0.934,-0.224,0.183,0.183,-0.061,257.768
102854,141218,7922,-0.027,-0.939,-0.231,0.183,0.183,-0.061,257.775
102861,141089,19647,-0.033,-0.948,-0.23,-0.549,0.488,0.183,257.778
102861,141239,7948,-0.036,-0.947,-0.23,-0.549,0.488,0.183,257.785
102833,141089,19647,-0.034,-0.939,-0.233,-0.244,0.549,0.427,257.788
102833,141242,7929,-0.033,-0.938,-0.223,-0.244,0.549,0.427,257.794
102883,141089,19647,-0.03,-0.936,-0.213,0,0.122,0.305,257.798
102883,141251,7947,-0.022,-0.934,-0.222,0,0.122,0.305,257.804
102875,141089,19647,-0.024,-0.94,-0.229,-0.976,0.122,0.549,257.808
102875,141253,7943,-0.03,-0.947,-0.224,-0.976,0.122,0.549,257.814
102872,141089,19647,-0.037,-0.946,-0.218,-1.098,0.427,0.793,257.818
102872,141270,7947,-0.037,-0.936,-0.212,-1.098,0.427,0.793,257.824
102880,141089,19647,-0.032,-0.926,-0.214,-0.244,0.122,0.549,257.828
102880,141240,7939,-0.03,-0.93,-0.222,-0.244,0.122,0.549,257.834
102857,141089,19647,-0.031,-0.936,-0.221,-0.427,0.183,0.549,257.838
102857,141249,7953,-0.034,-0.944,-0.223,-0.427,0.183,0.549,257.844
102883,141089,19647,-0.036,-0.945,-0.229,-0.732,0.671,0.671,257.848
102883,141247,7938,-0.037,-0.937,-0.23,-0.732,0.671,0.671,257.854
102868,141089,19647,-0.032,-0.936,-0.235,-0.305,0.793,0.366,257.858
102868,141240,7936,-0.029,-0.939,-0.229,-0.305,0.793,0.366,257.864
102865,141089,19647,-0.025,-0.939,-0.232,0.305,0.488,0.244,257.867
102865,141244,7938,-0.025,-0.939,-0.237,0.305,0.488,0.244,257.874
102871,141089,19647,-0.033,-0.937,-0.228,0,0.61,0.244,257.877
102871,141262,7950,-0.035,-0.935,-0.225,0,0.61,0.244,257.884
102863,141089,19647,-0.03,-0.933,-0.227,-0.366,0.732,0.305,257.887
102863,141249,7945,-0.027,-0.935,-0.228,-0.366,0.732,0.305,257.893
102879,141089,19647,-0.03,-0.935,-0.23,-0.671,0.549,0.427,257.897
102879,141238,7928,-0.03,-0.937,-0.232,-0.671,0.549,0.427,257.903
102874,141089,19647,-0.029,-0.94,-0.23,-0.915,0.61,0.549,257.907
102874,141247,7939,-0.032,-0.941,-0.229,-0.915,0.61,0.549,257.913
102863,141089,19647,-0.031,-0.941,-0.228,-0.488,0.549,0.549,257.917
102863,141254,7945,-0.03,-0.937,-0.229,-0.488,0.549,0.549,257.923
102857,141089,19647,-0.029,-0.938,-0.226,-0.366,0.305,0.488,257.927
102857,141231,7932,-0.028,-0.94,-0.22,-0.366,0.305,0.488,257.933
102850,141089,19647,-0.031,-0.94,-0.22,-0.488,0.183,0.671,257.937
102850,141221,7944,-0.035,-0.936,-0.225,-0.488,0.183,0.671,257.943
102851,141089,19647,-0.036,-0.939,-0.226,-0.732,0.427,0.793,257.947
102851,141223,7952,-0.034,-0.944,-0.219,-0.732,0.427,0.793,257.953
102839,141089,19647,-0.034,-0.944,-0.219,-0.732,0.427,0.793,257.957
102839,141220,7939,-0.034,-0.93,-0.229,-0.305,0.488,0.732,257.963
102834,141089,19647,-0.034,-0.93,-0.229,-0.305,0.488,0.732,257.966
102834,141208,7945,-0.03,-0.942,-0.224,-0.366,0.488,0.793,257.973
102849,141089,19647,-0.03,-0.942,-0.224,-0.366,0.488,0.793,257.976
102849,141232,7937,-0.031,-0.936,-0.223,-0.488,0.732,0.793,257.983
102856,141089,19647,-0.031,-0.936,-0.223,-0.488,0.732,0.793,257.986
102856,141202,7931,-0.032,-0.933,-0.243,-0.61,0.915,0.732,257.992
102822,141089,19647,-0.032,-0.933,-0.243,-0.61,0.915,0.732,257.996
102822,141200,7941,-0.034,-0.936,-0.227,-0.427,0.854,0.732,258.002
102841,141089,19647,-0.034,-0.936,-0.227,-0.427,0.854,0.732,258.006
102841,141213,7937,-0.032,-0.931,-0.231,-0.061,0.671,0.61,258.012
102827,141089,19647,-0.032,-0.931,-0.231,-0.061,0.671,0.61,258.016
102827,141196,7925,-0.028,-0.941,-0.222,-0.244,0.427,0.366,258.022
102833,141089,19647,-0.028,-0.941,-0.222,-0.244,0.427,0.366,258.026
102833,141238,7922,-0.033,-0.939,-0.224,-0.488,0.305,0.793,258.032
102820,141089,19647,-0.033,-0.939,-0.224,-0.488,0.305,0.793,258.036
102820,141172,7931,-0.036,-0.938,-0.216,-0.793,0.549,0.793,258.042
102819,141089,19647,-0.036,-0.938,-0.216,-0.793,0.549,0.793,258.046
102819,141188,7932,-0.03,-0.93,-0.231,-0.732,0.488,0.732,258.052
102829,141089,19647,-0.03,-0.93,-0.231,-0.732,0.488,0.732,258.056
102829,141173,7940,-0.035,-0.94,-0.233,-0.915,0.549,0.671,258.062
102837,141089,19647,-0.035,-0.94,-0.233,-0.915,0.549,0.671,258.065
102837,141187,7940,-0.037,-0.935,-0.237,-0.488,0.671,0.732,258.072
102829,141089,19647,-0.037,-0.935,-0.237,-0.488,0.671,0.732,258.075
102829,141202,7933,-0.031,-0.935,-0.229,0.366,0.244,0.305,258.082
102834,141089,19647,-0.031,-0.935,-0.229,0.366,0.244,0.305,258.085
102834,141167,7939,-0.028,-0.936,-0.226,0.854,-0.061,0.183,258.091
102838,141089,19647,-0.028,-0.936,-0.226,0.854,-0.061,0.183,258.095
102838,141187,7932,-0.034,-0.943,-0.215,0.244,0.183,0.183,258.101
102804,141089,19647,-0.034,-0.943,-0.215,0.244,0.183,0.183,258.105
102804,141161,7913,-0.03,-0.943,-0.209,-0.061,0.244,0.427,258.111
102818,141089,19647,-0.028,-0.94,-0.218,-0.061,0.244,0.427,258.115
102818,141174,7941,-0.032,-0.937,-0.233,-0.549,0.488,0.61,258.121
102807,141089,19647,-0.034,-0.936,-0.234,-0.549,0.488,0.61,258.125
102807,141179,7933,-0.036,-0.933,-0.223,-0.61,0.61,0.732,258.131
102817,141089,19647,-0.034,-0.935,-0.22,-0.61,0.61,0.732,258.135
102817,141190,7929,-0.033,-0.935,-0.228,-0.366,0.488,0.427,258.141
102819,141089,19647,-0.027,-0.934,-0.233,-0.366,0.488,0.427,258.145
102819,141184,7921,-0.031,-0.94,-0.231,-0.305,0.488,0.488,258.151
102809,141089,19647,-0.031,-0.942,-0.22,-0.305,0.488,0.488,258.155
102809,141196,7947,-0.031,-0.936,-0.228,0.061,0.61,0.488,258.161
102835,141089,19647,-0.033,-0.932,-0.232,0.061,0.61,0.488,258.164
102835,141220,7940,-0.035,-0.933,-0.234,0.061,0.366,0.366,258.171
102830,141089,19647,-0.033,-0.932,-0.237,0.061,0.366,0.366,258.174
