102545,140926,7985,-0.04,-0.949,-0.167,0,-0.061,0.183,75.752
102546,140833,19647,-0.037,-0.952,-0.163,0,-0.061,0.183,75.756
102546,140924,7996,-0.046,-0.953,-0.167,-0.305,0.061,0.488,75.762
102538,140833,19647,-0.043,-0.952,-0.168,-0.305,0.061,0.488,75.766
102538,140925,7987,-0.042,-0.949,-0.163,-0.305,0,0.366,75.772
102560,140833,19647,-0.041,-0.946,-0.159,-0.305,0,0.366,75.776
102560,140908,7991,-0.036,-0.947,-0.161,-0.305,0.122,0.183,75.782
102556,140833,19647,-0.04,-0.947,-0.167,-0.305,0.122,0.183,75.785
102556,140927,7980,-0.04,-0.947,-0.17,-0.793,0.427,0.305,75.792
102555,140833,19647,-0.04,-0.949,-0.169,-0.793,0.427,0.305,75.795
102555,140922,7991,-0.038,-0.952,-0.17,-0.854,0.549,0.366,75.801
102558,140833,19647,-0.038,-0.951,-0.165,-0.854,0.549,0.366,75.805
102558,140946,7997,-0.037,-0.947,-0.161,-0.244,0.366,0.122,75.811
102563,140833,19647,-0.033,-0.947,-0.167,-0.244,0.366,0.122,75.815
102563,140903,7977,-0.035,-0.949,-0.166,-0.244,0.427,0.122,75.821
102562,140833,19647,-0.038,-0.953,-0.164,-0.244,0.427,0.122,75.825
102562,140928,7984,-0.036,-0.954,-0.167,-0.488,0.366,0.366,75.831
102564,140833,19647,-0.034,-0.952,-0.172,-0.488,0.366,0.366,75.835
102564,140918,8011,-0.035,-0.95,-0.169,-0.854,0.305,0.488,75.841
102553,140833,19647,-0.037,-0.948,-0.171,-0.854,0.305,0.488,75.845
102553,140969,7993,-0.038,-0.95,-0.169,-0.854,0.366,0.427,75.851
102560,140833,19647,-0.041,-0.949,-0.167,-0.854,0.366,0.427,75.855
102560,140933,7982,-0.038,-0.948,-0.167,-0.793,0.427,0.427,75.861
102570,140833,19647,-0.037,-0.949,-0.168,-0.793,0.427,0.427,75.865
102570,140945,7984,-0.038,-0.947,-0.166,-0.854,0.305,0.427,75.871
102566,140833,19647,-0.038,-0.952,-0.168,-0.854,0.305,0.427,75.874
102566,140933,7969,-0.042,-0.951,-0.17,-0.671,0.488,0.488,75.881
102565,140833,19647,-0.039,-0.948,-0.17,-0.671,0.488,0.488,75.884
102565,140932,7996,-0.038,-0.947,-0.171,-0.61,0.488,0.244,75.891
102561,140833,19647,-0.038,-0.949,-0.17,-0.61,0.488,0.244,75.894
102561,140923,7997,-0.037,-0.953,-0.166,-0.427,0.366,0.122,75.9
102549,140833,19647,-0.038,-0.958,-0.164,-0.427,0.366,0.122,75.904
102549,140928,7995,-0.043,-0.955,-0.169,-0.488,0.366,0.305,75.91
102563,140833,19647,-0.039,-0.948,-0.169,-0.488,0.366,0.305,75.914
102563,140911,7986,-0.039,-0.945,-0.171,-0.488,0.427,0.427,75.92
102538,140833,19647,-0.042,-0.947,-0.165,-0.488,0.427,0.427,75.924
102538,140911,7995,-0.039,-0.948,-0.167,-0.244,0.488,0.305,75.93
102540,140833,19647,-0.036,-0.947,-0.172,-0.244,0.488,0.305,75.934
102540,140908,7993,-0.041,-0.949,-0.171,-0.366,0.488,0.427,75.94
102532,140833,19647,-0.045,-0.947,-0.172,-0.366,0.488,0.427,75.944
102532,140897,7992,-0.04,-0.953,-0.17,-0.122,0.488,0.427,75.95
102546,140833,19647,-0.038,-0.953,-0.166,-0.122,0.488,0.427,75.954
102546,140920,7981,-0.04,-0.952,-0.165,0,0.244,0.427,75.96
102528,140833,19647,-0.039,-0.948,-0.166,0,0.244,0.427,75.964
102528,140924,7981,-0.04,-0.945,-0.173,-0.427,0.427,0.549,75.97
102560,140833,19647,-0.036,-0.944,-0.177,-0.427,0.427,0.549,75.974
102560,140939,7975,-0.038,-0.946,-0.173,-0.671,0.61,0.366,75.98
102540,140833,19647,-0.034,-0.949,-0.172,-0.671,0.61,0.366,75.983
102540,140920,7983,-0.031,-0.949,-0.17,-0.549,0.488,0.122,75.99
102561,140833,19647,-0.033,-0.948,-0.172,-0.549,0.488,0.122,75.993
102561,140925,7997,-0.032,-0.946,-0.173,-0.305,0.549,0.061,75.999
102552,140833,19647,-0.033,-0.949,-0.172,-0.305,0.549,0.061,76.003
102552,140935,7984,-0.032,-0.951,-0.172,0,0.488,0,76.009
102536,140833,19647,-0.032,-0.951,-0.172,0,0.488,0,76.013
102536,140933,8006,-0.034,-0.953,-0.166,0.244,0.427,0.061,76.019
102539,140833,19647,-0.034,-0.953,-0.166,0.244,0.427,0.061,76.023
102539,140915,7988,-0.04,-0.953,-0.166,0.305,0.305,0.122,76.029
102544,140833,19647,-0.04,-0.953,-0.166,0.305,0.305,0.122,76.033
102544,140922,7981,-0.042,-0.951,-0.172,-0.244,0.183,0.366,76.039
102544,140833,19647,-0.042,-0.951,-0.172,-0.244,0.183,0.366,76.043
102544,140938,7987,-0.044,-0.951,-0.167,-0.183,0.122,0.549,76.049
102531,140833,19647,-0.044,-0.951,-0.167,-0.183,0.122,0.549,76.053
102531,140934,7986,-0.045,-0.95,-0.166,-0.061,0.183,0.549,76.059
102531,140833,19647,-0.045,-0.95,-0.166,-0.061,0.183,0.549,76.063
102531,140936,7991,-0.04,-0.948,-0.167,-0.061,0.122,0.488,76.069
102539,140833,19647,-0.04,-0.948,-0.167,-0.061,0.122,0.488,76.073
102539,140920,7982,-0.041,-0.952,-0.167,-0.061,0.183,0.61,76.079
102523,140833,19647,-0.041,-0.952,-0.167,-0.061,0.183,0.61,76.082
102523,140888,7999,-0.036,-0.947,-0.171,-0.427,0.549,0.61,76.089
102523,140833,19647,-0.036,-0.947,-0.171,-0.427,0.549,0.61,76.092
102523,140921,7986,-0.038,-0.952,-0.169,-0.61,0.61,0.488,76.098
102528,140833,19647,-0.038,-0.952,-0.169,-0.61,0.61,0.488,76.102
102528,140912,7976,-0.034,-0.945,-0.171,-0.488,0.488,0.488,76.108
102531,140833,19647,-0.034,-0.945,-0.171,-0.488,0.488,0.488,76.112
102531,140897,7992,-0.036,-0.947,-0.17,-0.61,0.549,0.427,76.118
102517,140833,19647,-0.036,-0.947,-0.17,-0.61,0.549,0.427,76.122
102517,140909,7977,-0.037,-0.952,-0.173,-0.793,0.427,0.183,76.128
102494,140833,19647,-0.037,-0.952,-0.173,-0.793,0.427,0.183,76.132
102494,140889,7990,-0.035,-0.947,-0.168,-0.61,0.183,0.244,76.138
102498,140833,19647,-0.035,-0.947,-0.168,-0.61,0.183,0.244,76.142
102498,140880,7971,-0.041,-0.95,-0.167,-0.061,0.061,0.122,76.148
102504,140833,19647,-0.041,-0.95,-0.167,-0.061,0.061,0.122,76.152
102504,140902,7975,-0.043,-0.95,-0.165,-0.061,0.061,0.122,76.158
102500,140833,19647,-0.042,-0.952,-0.164,-0.061,0.122,0.183,76.162
102500,140885,7967,-0.038,-0.949,-0.17,-0.061,0.122,0.183,76.168
102487,140833,19647,-0.036,-0.948,-0.168,-0.61,0.244,0.244,76.172
102487,140905,7985,-0.039,-0.951,-0.169,-0.61,0.244,0.244,76.178
102505,140833,19647,-0.039,-0.957,-0.169,-0.61,0.488,0.183,76.181
102505,140885,7983,-0.037,-0.955,-0.169,-0.61,0.488,0.183,76.188
102499,140833,19647,-0.035,-0.951,-0.167,-0.61,0.549,0.244,76.191
102499,140914,7982,-0.038,-0.947,-0.17,-0.61,0.549,0.244,76.197
102497,140833,19647,-0.039,-0.945,-0.171,-0.366,0.488,0.305,76.201
102497,140911,7976,-0.036,-0.951,-0.165,-0.366,0.488,0.305,76.207
102476,140833,19647,-0.038,-0.953,-0.164,-0.122,0.366,0.305,76.211
102476,140914,7974,-0.041,-0.954,-0.166,-0.122,0.366,0.305,76.217
102494,140833,19647,-0.039,-0.953,-0.17,-0.183,0.305,0.61,76.221
102494,140897,7967,-0.04,-0.953,-0.17,-0.183,0.305,0.61,76.227
102505,140833,19647,-0.039,-0.952,-0.17,0,0,0.671,76.231
102505,140878,7982,-0.035,-0.949,-0.167,0,0,0.671,76.237
102483,140833,19647,-0.033,-0.946,-0.167,-0.122,0.183,0.549,76.241
102483,140900,7983,-0.032,-0.948,-0.171,-0.122,0.183,0.549,76.247
102476,140833,19647,-0.034,-0.95,-0.175,-0.549,0.549,0.671,76.251
102476,140887,7977,-0.032,-0.948,-0.172,-0.549,0.549,0.671,76.257
102486,140833,19647,-0.036,-0.945,-0.17,-0.488,0.549,0.671,76.261
102486,140907,7976,-0.036,-0.946,-0.172,-0.488,0.549,0.671,76.267
102479,140833,19647,-0.037,-0.949,-0.173,-0.061,0.671,0.549,76.271
102479,140889,7987,-0.041,-0.952,-0.176,-0.061,0.671,0.549,76.277
102478,140833,19647,-0.037,-0.946,-0.177,-0.061,0.488,0.549,76.28
102478,140891,7987,-0.037,-0.945,-0.174,-0.061,0.488,0.549,76.287
102486,140833,19647,-0.039,-0.95,-0.169,0,0.366,0.305,76.29
102486,140887,7980,-0.039,-0.954,-0.167,0,0.366,0.305,76.297
102461,140833,19647,-0.04,-0.952,-0.168,0.305,0.244,0.183,76.3
102461,140881,7971,-0.04,-0.949,-0.174,0.305,0.244,0.183,76.306
102461,140833,19647,-0.041,-0.952,-0.171,-0.244,0.305,0.427,76.31
102461,140864,7985,-0.043,-0.949,-0.165,-0.244,0.305,0.427,76.316
102466,140833,19647,-0.043,-0.952,-0.164,-0.122,0.305,0.366,76.32
102466,140885,7988,-0.039,-0.953,-0.16,-0.122,0.305,0.366,76.326
102457,140833,19647,-0.039,-0.952,-0.163,-0.183,0.366,0.427,76.33
102457,140864,7988,-0.039,-0.953,-0.167,-0.183,0.366,0.427,76.336
102475,140833,19647,-0.037,-0.948,-0.168,-0.366,0.61,0.793,76.34
102475,140855,7983,-0.038,-0.95,-0.169,-0.366,0.61,0.793,76.346
102446,140833,19647,-0.038,-0.949,-0.169,-0.244,0.61,0.61,76.35
102446,140862,7965,-0.036,-0.949,-0.168,-0.244,0.61,0.61,76.356
102459,140833,19647,-0.037,-0.946,-0.171,-0.427,0.671,0.61,76.36
102459,140868,7971,-0.038,-0.944,-0.171,-0.427,0.671,0.61,76.366
102456,140833,19647,-0.041,-0.943,-0.17,-0.427,0.793,0.732,76.37
102456,140861,7974,-0.039,-0.948,-0.17,-0.427,0.793,0.732,76.376
102454,140833,19647,-0.038,-0.952,-0.17,-0.061,0.549,0.549,76.379
102454,140857,7973,-0.039,-0.951,-0.168,-0.061,0.549,0.549,76.386
102452,140833,19647,-0.037,-0.953,-0.169,-0.122,0.427,0.488,76.389
102452,140858,7973,-0.04,-0.953,-0.165,-0.122,0.427,0.488,76.396
102467,140833,19647,-0.038,-0.948,-0.165,-0.061,0.305,0.488,76.399
102467,140860,7972,-0.039,-0.944,-0.17,-0.061,0.305,0.488,76.405
102429,140833,19647,-0.039,-0.946,-0.173,-0.488,0.427,0.427,76.409
102429,140868,7973,-0.038,-0.948,-0.175,-0.488,0.427,0.427,76.415
102442,140833,19647,-0.042,-0.947,-0.17,-0.671,0.61,0.427,76.419
102442,140869,7980,-0.045,-0.947,-0.168,-0.671,0.61,0.427,76.425
102438,140833,19647,-0.044,-0.947,-0.167,-0.244,0.671,0.244,76.429
102438,140820,7985,-0.041,-0.946,-0.167,-0.244,0.671,0.244,76.435
102431,140833,19647,-0.036,-0.948,-0.172,0.122,0.427,0.183,76.439
102431,140843,7996,-0.036,-0.952,-0.176,0.122,0.427,0.183,76.445
102450,140833,19647,-0.038,-0.953,-0.17,0.183,0.427,0.305,76.449
102450,140850,7972,-0.039,-0.953,-0.168,0.183,0.427,0.305,76.455
102437,140833,19647,-0.038,-0.951,-0.171,0.366,0.549,0.305,76.459
102437,140839,7974,-0.042,-0.946,-0.172,0.366,0.549,0.305,76.465
102429,140833,19647,-0.042,-0.943,-0.17,0.305,0.549,0.305,76.469
102429,140855,7980,-0.04,-0.945,-0.163,0.305,0.549,0.305,76.475
102444,140833,19647,-0.038,-0.948,-0.159,-0.122,0.427,0.183,76.478
102444,140821,7988,-0.033,-0.95,-0.162,-0.122,0.427,0.183,76.485
102431,140833,19647,-0.034,-0.956,-0.164,-1.159,0.427,0.488,76.488
102431,140841,7976,-0.038,-0.958,-0.167,-1.159,0.427,0.488,76.495
102433,140833,19647,-0.043,-0.952,-0.175,-1.28,0.793,0.671,76.498
102433,140845,7984,-0.043,-0.955,-0.173,-1.28,0.793,0.671,76.504
102448,140833,19647,-0.039,-0.951,-0.17,-0.427,0.61,0.427,76.508
102448,140856,7982,-0.04,-0.942,-0.172,-0.427,0.61,0.427,76.514
102439,140833,19647,-0.038,-0.945,-0.173,-0.061,0.366,0.427,76.518
102439,140848,7980,-0.036,-0.947,-0.175,-0.061,0.366,0.427,76.524
102433,140833,19647,-0.037,-0.948,-0.167,0,0.671,0.305,76.528
102433,140831,7984,-0.037,-0.952,-0.155,0,0.671,0.305,76.534
102441,140833,19647,-0.035,-0.957,-0.158,0.244,0.427,0.366,76.538
102441,140848,7971,-0.034,-0.955,-0.164,0.244,0.427,0.366,76.544
102425,140833,19647,-0.038,-0.948,-0.172,-0.427,0.549,0.61,76.548
102425,140833,7983,-0.042,-0.946,-0.176,-0.427,0.549,0.61,76.554
102426,140833,19647,-0.043,-0.953,-0.178,-0.793,0.671,0.793,76.558
102426,140867,7968,-0.042,-0.955,-0.178,-0.793,0.671,0.793,76.564
102432,140833,19647,-0.041,-0.948,-0.177,0.122,0.244,0.61,76.568
102432,140843,7966,-0.037,-0.939,-0.167,0.122,0.244,0.61,76.574
102402,140833,19647,-0.036,-0.929,-0.164,0.732,0.122,0.305,76.577
102402,140856,7977,-0.036,-0.935,-0.165,0.732,0.122,0.305,76.584
102438,140833,19647,-0.039,-0.943,-0.166,0.549,0.244,0.122,76.587
102438,140845,7975,-0.04,-0.954,-0.171,0.549,0.244,0.122,76.593
102416,140833,19647,-0.041,-0.96,-0.175,-0.305,0.488,0.366,76.597
102416,140849,7970,-0.046,-0.961,-0.179,-0.305,0.488,0.366,76.603
102422,140833,19647,-0.046,-0.961,-0.179,-0.305,0.488,0.366,76.607
102422,140841,7966,-0.043,-0.951,-0.174,-0.244,0.427,0.305,76.613
102422,140833,19647,-0.043,-0.951,-0.174,-0.244,0.427,0.305,76.617
102422,140826,7974,-0.036,-0.943,-0.162,0.549,0,0.183,76.623
102427,140833,19647,-0.036,-0.943,-0.162,0.549,0,0.183,76.627
102427,140850,7982,-0.037,-0.946,-0.153,0.549,0,0.244,76.633
102412,140833,19647,-0.037,-0.946,-0.153,0.549,0,0.244,76.637
102412,140840,7972,-0.041,-0.955,-0.166,-0.366,0.244,0.427,76.643
102408,140833,19647,-0.041,-0.955,-0.166,-0.366,0.244,0.427,76.647
102408,140856,7977,-0.042,-0.954,-0.175,-1.402,0.671,0.732,76.653
102425,140833,19647,-0.042,-0.954,-0.175,-1.402,0.671,0.732,76.657
102425,140834,7980,-0.04,-0.95,-0.167,-0.976,0.732,0.549,76.663
102417,140833,19647,-0.04,-0.95,-0.167,-0.976,0.732,0.549,76.667
102417,140870,7959,-0.034,-0.944,-0.169,-0.122,0.305,0.427,76.673
102445,140833,19647,-0.034,-0.944,-0.169,-0.122,0.305,0.427,76.676
102445,140832,7977,-0.037,-0.951,-0.169,-0.061,0.305,0.366,76.683
102405,140833,19647,-0.037,-0.951,-0.169,-0.061,0.305,0.366,76.686
102405,140832,7995,-0.042,-0.953,-0.176,-0.122,0.61,0.366,76.693
102407,140833,19647,-0.042,-0.953,-0.176,-0.122,0.61,0.366,76.696
102407,140833,7977,-0.038,-0.941,-0.172,0.427,0.549,0.244,76.702
102446,140833,19647,-0.038,-0.941,-0.172,0.427,0.549,0.244,76.706
102446,140837,7973,-0.032,-0.943,-0.168,1.22,0.122,-0.061,76.712
102430,140833,19647,-0.032,-0.943,-0.168,1.22,0.122,-0.061,76.716
102430,140862,7977,-0.036,-0.953,-0.165,0.549,-0.061,-0.061,76.722
102444,140833,19647,-0.036,-0.953,-0.165,0.549,-0.061,-0.061,76.726
102444,140837,7967,-0.036,-0.958,-0.165,0.183,0.244,0.305,76.732
102413,140833,19647,-0.036,-0.958,-0.165,0.183,0.244,0.305,76.736
102413,140835,7973,-0.042,-0.948,-0.168,0.427,0.244,0.488,76.742
102422,140833,19647,-0.042,-0.948,-0.168,0.427,0.244,0.488,76.746
102422,140833,7969,-0.04,-0.944,-0.163,0.427,0.061,0.427,76.752
102410,140833,19647,-0.038,-0.94,-0.164,0.427,0.061,0.427,76.756
102410,140835,7985,-0.038,-0.944,-0.161,0.244,0.305,0.427,76.762
102413,140833,19647,-0.039,-0.947,-0.162,0.244,0.305,0.427,76.766
102413,140852,7981,-0.044,-0.949,-0.167,0.122,0.366,0.305,76.772
102407,140833,19647,-0.044,-0.951,-0.171,0.122,0.366,0.305,76.775
102407,140817,7971,-0.041,-0.953,-0.176,0.061,0.366,0.366,76.782
102420,140833,19647,-0.042,-0.955,-0.177,0.061,0.366,0.366,76.785
102420,140846,7973,-0.042,-0.957,-0.174,0.183,0.122,0.305,76.792
102418,140833,19647,-0.041,-0.955,-0.168,0.183,0.122,0.305,76.795
102418,140839,7972,-0.039,-0.949,-0.164,0.488,0.183,0.183,76.801
102401,140833,19647,-0.039,-0.941,-0.161,0.488,0.183,0.183,76.805
102401,140852,7984,-0.037,-0.938,-0.161,0.366,0.244,0.183,76.811
102417,140833,19647,-0.035,-0.943,-0.162,0.366,0.244,0.183,76.815
102417,140841,7960,-0.033,-0.95,-0.17,-0.61,0.488,0.366,76.821
102424,140833,19647,-0.036,-0.955,-0.172,-0.61,0.488,0.366,76.825
102424,140839,7977,-0.041,-0.955,-0.174,-0.793,0.732,0.427,76.831
102421,140833,19647,-0.04,-0.951,-0.176,-0.793,0.732,0.427,76.835
102421,140873,7968,-0.041,-0.945,-0.172,0.122,0.366,0.366,76.841
102422,140833,19647,-0.038,-0.945,-0.166,0.122,0.366,0.366,76.845
102422,140860,7965,-0.035,-0.947,-0.165,0.671,0,0.183,76.851
102415,140833,19647,-0.036,-0.949,-0.159,0.671,0,0.183,76.855
102415,140847,7984,-0.039,-0.946,-0.165,0.183,0.122,0.366,76.861
102421,140833,19647,-0.039,-0.947,-0.169,0.183,0.122,0.366,76.865
102421,140841,7971,-0.038,-0.954,-0.169,-0.854,0.549,0.488,76.871
102417,140833,19647,-0.039,-0.959,-0.167,-0.854,0.549,0.488,76.874
102417,140846,7986,-0.038,-0.953,-0.169,-0.549,0.61,0.549,76.881
102415,140833,19647,-0.04,-0.947,-0.167,-0.549,0.61,0.549,76.884
102415,140841,7981,-0.036,-0.948,-0.156,0.671,0.366,0.427,76.891
102417,140833,19647,-0.036,-0.945,-0.162,0.671,0.366,0.427,76.894
102417,140860,7967,-0.034,-0.945,-0.171,0.61,0.427,0.427,76.9
102420,140833,19647,-0.034,-0.946,-0.175,0.61,0.427,0.427,76.904
102420,140836,7977,-0.038,-0.948,-0.182,-0.183,0.732,0.427,76.91
102421,140833,19647,-0.037,-0.947,-0.182,-0.183,0.732,0.427,76.914
102421,140860,7967,-0.04,-0.947,-0.178,-0.122,0.61,0.183,76.92
102445,140833,19647,-0.042,-0.949,-0.172,-0.122,0.61,0.183,76.924
102445,140824,7988,-0.041,-0.952,-0.163,0.244,0.183,-0.183,76.93
102422,140833,19647,-0.038,-0.955,-0.156,0.244,0.183,-0.183,76.934
102422,140849,7961,-0.035,-0.953,-0.154,-0.061,-0.122,0,76.94
102409,140833,19647,-0.035,-0.952,-0.159,-0.061,-0.122,0,76.944
102409,140836,7972,-0.041,-0.958,-0.164,-1.22,0.244,0.427,76.95
102434,140833,19647,-0.044,-0.96,-0.168,-1.22,0.244,0.427,76.954
102434,140842,7956,-0.043,-0.957,-0.166,-0.61,0.61,0.732,76.96
102402,140833,19647,-0.047,-0.948,-0.169,-0.61,0.61,0.732,76.964
102402,140860,7969,-0.047,-0.944,-0.169,0.61,0.183,0.427,76.97
102386,140833,19647,-0.044,-0.943,-0.165,0.61,0.183,0.427,76.973
102386,140835,7978,-0.04,-0.948,-0.16,0.61,0.122,0.305,76.98
102409,140833,19647,-0.041,-0.948,-0.155,0.61,0.122,0.305,76.983
102409,140848,7957,-0.041,-0.952,-0.16,-0.305,0.305,0.305,76.99
102407,140833,19647,-0.039,-0.952,-0.164,-0.305,0.305,0.305,76.993
102407,140852,7965,-0.042,-0.951,-0.171,-0.793,0.61,0.366,76.999
102406,140833,19647,-0.039,-0.945,-0.174,-0.793,0.61,0.366,77.003
102406,140866,7968,-0.039,-0.948,-0.176,-0.488,0.671,0.427,77.009
102401,140833,19647,-0.039,-0.949,-0.176,-0.488,0.671,0.427,77.013
102401,140874,8001,-0.037,-0.945,-0.173,0.183,0.366,0.305,77.019
102439,140833,19647,-0.033,-0.945,-0.173,0.183,0.366,0.305,77.023
102439,140872,7969,-0.032,-0.95,-0.17,0.366,0.244,0.122,77.029
102426,140833,19647,-0.033,-0.954,-0.163,0.366,0.244,0.122,77.033
102426,140860,7974,-0.036,-0.954,-0.165,0.122,0.366,0.183,77.039
102438,140833,19647,-0.034,-0.952,-0.167,0.122,0.366,0.183,77.043
102438,140886,7965,-0.035,-0.948,-0.171,-0.427,0.366,0.488,77.049
102429,140833,19647,-0.04,-0.946,-0.171,-0.427,0.366,0.488,77.053
102429,140867,7979,-0.039,-0.942,-0.175,-0.549,0.427,0.488,77.059
102425,140833,19647,-0.039,-0.943,-0.171,-0.549,0.427,0.488,77.063
102425,140854,7972,-0.039,-0.947,-0.168,-0.366,0.244,0.244,77.069
102404,140833,19647,-0.039,-0.954,-0.166,-0.366,0.244,0.244,77.072
102404,140863,7989,-0.04,-0.956,-0.167,-0.061,-0.061,0.122,77.079
102428,140833,19647,-0.039,-0.956,-0.166,-0.061,-0.061,0.122,77.082
102428,140866,7980,-0.038,-0.949,-0.161,0.366,-0.122,0.244,77.089
102415,140833,19647,-0.041,-0.946,-0.158,0.366,-0.122,0.244,77.092
102415,140859,7982,-0.039,-0.95,-0.163,0.122,0.061,0.183,77.098
102441,140833,19647,-0.039,-0.954,-0.17,0.122,0.061,0.183,77.102
102441,140870,7965,-0.039,-0.952,-0.167,-0.183,0.488,0.427,77.108
102428,140833,19647,-0.04,-0.95,-0.167,-0.183,0.488,0.427,77.112
102428,140855,7987,-0.043,-0.952,-0.171,0,0.427,0.183,77.118
102413,140833,19647,-0.044,-0.948,-0.171,0,0.427,0.183,77.122
102413,140847,7974,-0.042,-0.945,-0.165,0.305,0.305,0.244,77.128
102423,140833,19647,-0.04,-0.952,-0.167,0.305,0.305,0.244,77.132
102423,140879,7983,-0.039,-0.952,-0.171,0.305,0.061,0.244,77.138
102400,140833,19647,-0.039,-0.949,-0.166,0.305,0.061,0.244,77.142
102400,140856,7963,-0.036,-0.952,-0.162,0.427,0.122,0.305,77.148
102408,140833,19647,-0.041,-0.951,-0.155,0.427,0.122,0.305,77.152
102408,140861,7989,-0.037,-0.952,-0.159,0.305,0.183,0.366,77.158
102423,140833,19647,-0.038,-0.948,-0.161,0.305,0.183,0.366,77.162
102423,140849,7975,-0.039,-0.951,-0.169,-0.549,0.549,0.549,77.168
102424,140833,19647,-0.036,-0.953,-0.17,-0.549,0.549,0.549,77.171
102424,140872,7966,-0.036,-0.954,-0.17,-0.671,0.61,0.549,77.178
102425,140833,19647,-0.04,-0.949,-0.17,-0.671,0.61,0.549,77.181
102425,140869,7980,-0.04,-0.948,-0.169,-0.183,0.61,0.488,77.188
102418,140833,19647,-0.04,-0.948,-0.169,-0.183,0.61,0.488,77.191
102418,140893,7980,-0.036,-0.947,-0.16,0.183,0.549,0.244,77.197
102429,140833,19647,-0.036,-0.947,-0.16,0.183,0.549,0.244,77.201
102429,140878,7985,-0.035,-0.95,-0.167,-0.183,0.549,0.427,77.207
102418,140833,19647,-0.035,-0.95,-0.167,-0.183,0.549,0.427,77.211
102418,140884,7978,-0.04,-0.96,-0.177,-0.793,0.793,0.671,77.217
102418,140833,19647,-0.04,-0.96,-0.177,-0.793,0.793,0.671,77.221
102418,140874,7974,-0.042,-0.947,-0.175,-0.183,0.427,0.549,77.227
102420,140833,19647,-0.042,-0.947,-0.175,-0.183,0.427,0.549,77.231
102420,140861,7974,-0.039,-0.948,-0.158,0.366,0,0.305,77.237
102397,140833,19647,-0.039,-0.948,-0.158,0.366,0,0.305,77.241
102397,140845,7984,-0.041,-0.954,-0.16,0.061,0.244,0.488,77.247
102400,140833,19647,-0.041,-0.954,-0.16,0.061,0.244,0.488,77.251
102400,140841,7966,-0.038,-0.953,-0.164,-0.183,0.488,0.549,77.257
102378,140833,19647,-0.038,-0.953,-0.164,-0.183,0.488,0.549,77.261
102378,140822,7998,-0.038,-0.95,-0.167,0.183,0.366,0.549,77.267
102389,140833,19647,-0.038,-0.95,-0.167,0.183,0.366,0.549,77.27
102389,140849,7956,-0.039,-0.943,-0.169,0.427,0.244,0.427,77.277
102413,140833,19647,-0.039,-0.943,-0.169,0.427,0.244,0.427,77.28
102413,140827,7985,-0.04,-0.948,-0.171,0.61,0.122,0.305,77.287
102388,140833,19647,-0.04,-0.948,-0.171,0.61,0.122,0.305,77.29
102388,140829,7979,-0.038,-0.955,-0.168,0.732,0.061,0.183,77.296
102389,140833,19647,-0.038,-0.955,-0.168,0.732,0.061,0.183,77.3
102389,140837,7970,-0.04,-0.95,-0.166,0.427,0.122,0.122,77.306
102390,140833,19647,-0.04,-0.95,-0.166,0.427,0.122,0.122,77.31
102390,140810,7980,-0.042,-0.947,-0.166,0.122,0.305,0.244,77.316
102373,140833,19647,-0.042,-0.947,-0.166,0.122,0.305,0.244,77.32
102373,140834,7969,-0.038,-0.948,-0.16,-0.061,0.366,0.183,77.326
102375,140833,19647,-0.038,-0.948,-0.16,-0.061,0.366,0.183,77.33
102375,140838,7973,-0.039,-0.953,-0.167,-0.061,0.366,0.183,77.336
102377,140833,19647,-0.04,-0.954,-0.168,-0.549,0.61,0.183,77.34
102377,140824,7973,-0.039,-0.955,-0.158,-0.549,0.61,0.183,77.346
102377,140833,19647,-0.04,-0.95,-0.16,-0.305,0.61,0.244,77.35
102377,140818,7976,-0.032,-0.95,-0.162,-0.305,0.61,0.244,77.356
102368,140833,19647,-0.033,-0.949,-0.164,-0.183,0.427,0.366,77.36
102368,140827,7967,-0.038,-0.948,-0.169,-0.183,0.427,0.366,77.366
102373,140833,19647,-0.039,-0.951,-0.173,-0.549,0.61,0.61,77.369
102373,140817,7966,-0.04,-0.949,-0.173,-0.549,0.61,0.61,77.376
102375,140833,19647,-0.043,-0.948,-0.169,-0.122,0.549,0.305,77.379
102375,140808,7967,-0.041,-0.945,-0.17,-0.122,0.549,0.305,77.386
102380,140833,19647,-0.037,-0.941,-0.168,0.366,0.122,-0.061,77.389
102380,140829,7983,-0.037,-0.947,-0.165,0.366,0.122,-0.061,77.395
102379,140833,19647,-0.034,-0.958,-0.161,0.366,0.183,-0.061,77.399
102379,140809,7980,-0.035,-0.958,-0.16,0.366,0.183,-0.061,77.405
102368,140833,19647,-0.034,-0.958,-0.165,-0.305,0.305,0.183,77.409
102368,140820,7983,-0.038,-0.958,-0.173,-0.305,0.305,0.183,77.415
102375,140833,19647,-0.041,-0.955,-0.171,-0.793,0.549,0.427,77.419
102375,140816,7965,-0.042,-0.95,-0.171,-0.793,0.549,0.427,77.425
102368,140833,19647,-0.04,-0.948,-0.167,-0.366,0.366,0.488,77.429
102368,140851,7969,-0.037,-0.946,-0.161,-0.366,0.366,0.488,77.435
102368,140833,19647,-0.037,-0.944,-0.156,0,0.244,0.305,77.439
102368,140832,7975,-0.037,-0.943,-0.149,0,0.244,0.305,77.445
102375,140833,19647,-0.038,-0.951,-0.155,0.061,0.488,0.305,77.449
102375,140832,7978,-0.037,-0.958,-0.167,0.061,0.488,0.305,77.455
102357,140833,19647,-0.037,-0.958,-0.173,-0.244,0.61,0.61,77.459
102357,140854,7965,-0.043,-0.955,-0.172,-0.244,0.61,0.61,77.465
102367,140833,19647,-0.04,-0.953,-0.176,-0.183,0.427,0.549,77.468
102367,140815,7970,-0.039,-0.95,-0.171,-0.183,0.427,0.549,77.475
102371,140833,19647,-0.039,-0.946,-0.168,0.122,0.183,0.305,77.478
102371,140862,7980,-0.037,-0.943,-0.168,0.122,0.183,0.305,77.485
102379,140833,19647,-0.035,-0.944,-0.166,0.244,0.122,0.122,77.488
102379,140804,7963,-0.036,-0.947,-0.161,0.244,0.122,0.122,77.494
102354,140833,19647,-0.039,-0.951,-0.164,0.061,0.427,0.244,77.498
102354,140828,7972,-0.042,-0.951,-0.163,0.061,0.427,0.244,77.504
102353,140833,19647,-0.042,-0.947,-0.167,-0.244,0.549,0.366,77.508
102353,140806,7966,-0.043,-0.944,-0.173,-0.244,0.549,0.366,77.514
102358,140833,19647,-0.043,-0.951,-0.171,-0.183,0.366,0,77.518
102358,140811,7968,-0.044,-0.953,-0.166,-0.183,0.366,0,77.524
102363,140833,19647,-0.042,-0.955,-0.165,0.183,0.244,0,77.528
102363,140803,7967,-0.044,-0.955,-0.163,0.183,0.244,0,77.534
102376,140833,19647,-0.041,-0.948,-0.16,0.427,0.244,0.183,77.538
102376,140811,7961,-0.037,-0.946,-0.159,0.427,0.244,0.183,77.544
102372,140833,19647,-0.037,-0.946,-0.161,0.244,0.244,0.122,77.548
102372,140815,7968,-0.04,-0.952,-0.162,0.244,0.244,0.122,77.554
102360,140833,19647,-0.036,-0.964,-0.167,-0.427,0.305,0.488,77.558
102360,140819,7974,-0.038,-0.961,-0.169,-0.427,0.305,0.488,77.564
102355,140833,19647,-0.035,-0.955,-0.171,-0.61,0.366,0.732,77.567
102355,140802,7956,-0.036,-0.951,-0.167,-0.61,0.366,0.732,77.574
102353,140833,19647,-0.036,-0.942,-0.162,0.183,0.244,0.61,77.577
102353,140821,7975,-0.033,-0.94,-0.156,0.183,0.244,0.61,77.584
102361,140577,19647,-0.033,-0.94,-0.156,0.183,0.183,0.61,77.587
102361,140797,7971,-0.033,-0.942,-0.163,0.183,0.183,0.61,77.593
102359,140833,19647,-0.034,-0.944,-0.168,-1.098,0.61,0.671,77.597
102359,140834,7972,-0.037,-0.948,-0.172,-1.098,0.61,0.671,77.603
102353,140833,19647,-0.041,-0.959,-0.168,-1.402,0.793,0.549,77.607
102353,140810,7966,-0.042,-0.964,-0.168,-1.402,0.793,0.549,77.613
102362,140833,19647,-0.041,-0.956,-0.166,-0.61,0.549,0.366,77.617
102362,140830,7981,-0.042,-0.948,-0.161,-0.61,0.549,0.366,77.623
102364,140833,19647,-0.042,-0.942,-0.159,0.366,0.305,0.305,77.627
102364,140822,7968,-0.038,-0.942,-0.166,0.366,0.305,0.305,77.633
102362,140833,19647,-0.039,-0.947,-0.173,0.183,0.366,0.305,77.637
102362,140822,7957,-0.04,-0.953,-0.174,0.183,0.366,0.305,77.643
102371,140833,19647,-0.041,-0.959,-0.171,-0.183,0.671,0.488,77.647
102371,140816,7979,-0.044,-0.959,-0.177,-0.183,0.671,0.488,77.653
102376,140833,19647,-0.042,-0.949,-0.176,0.427,0.427,0.427,77.657
102376,140816,7970,-0.042,-0.941,-0.172,0.427,0.427,0.427,77.663
102368,140833,19647,-0.039,-0.938,-0.171,0.976,0.061,0.244,77.666
102368,140823,7961,-0.039,-0.939,-0.167,0.976,0.061,0.244,77.673
102359,140833,19647,-0.034,-0.943,-0.161,0.61,0,0.122,77.676
102359,140830,7977,-0.036,-0.953,-0.151,0.61,0,0.122,77.683
102377,140833,19647,-0.035,-0.96,-0.149,-0.122,0.061,0.244,77.686
102377,140820,7979,-0.034,-0.96,-0.164,-0.122,0.061,0.244,77.692
102389,140833,19647,-0.038,-0.962,-0.171,-0.915,0.488,0.61,77.696
102389,140810,7970,-0.042,-0.96,-0.171,-0.915,0.488,0.61,77.702
102369,140833,19647,-0.045,-0.953,-0.168,-0.732,0.549,0.793,77.706
102369,140819,7971,-0.039,-0.945,-0.165,-0.732,0.549,0.793,77.712
102371,140833,19647,-0.037,-0.944,-0.164,-0.305,0.305,0.549,77.716
102371,140814,7971,-0.036,-0.943,-0.16,-0.305,0.305,0.549,77.722
102371,140833,19647,-0.035,-0.943,-0.163,-0.671,0.549,0.427,77.726
102371,140821,7962,-0.04,-0.949,-0.166,-0.671,0.549,0.427,77.732
102380,140833,19647,-0.04,-0.955,-0.167,-0.671,0.61,0.488,77.736
102380,140821,7972,-0.039,-0.952,-0.171,-0.671,0.61,0.488,77.742
102360,140833,19647,-0.041,-0.954,-0.17,-0.061,0.427,0.488,77.746
102360,140810,7976,-0.037,-0.949,-0.168,-0.061,0.427,0.488,77.752
102384,140833,19647,-0.039,-0.946,-0.171,0.549,0.122,0.122,77.756
102384,140836,7976,-0.04,-0.945,-0.163,0.549,0.122,0.122,77.762
102373,140833,19647,-0.038,-0.948,-0.163,0.305,0.305,0,77.765
102373,140824,7984,-0.037,-0.95,-0.163,0.305,0.305,0,77.772
102361,140833,19647,-0.038,-0.952,-0.168,-0.305,0.366,0.183,77.775
102361,140840,7977,-0.044,-0.957,-0.167,-0.305,0.366,0.183,77.782
102381,140833,19647,-0.044,-0.957,-0.167,-0.305,0.366,0.183,77.785
102381,140825,7980,-0.042,-0.954,-0.167,-0.61,0.61,0.366,77.791
102387,140833,19647,-0.042,-0.954,-0.167,-0.61,0.61,0.366,77.795
102387,140835,7973,-0.04,-0.941,-0.162,-0.183,0.183,0.366,77.801
102376,140833,19647,-0.04,-0.941,-0.162,-0.183,0.183,0.366,77.805
102376,140856,7970,-0.041,-0.95,-0.161,-0.183,0,0.366,77.811
102375,140833,19647,-0.041,-0.95,-0.161,-0.183,0,0.366,77.815
102375,140826,7975,-0.039,-0.958,-0.169,-0.915,0.427,0.427,77.821
102369,140833,19647,-0.039,-0.958,-0.169,-0.915,0.427,0.427,77.825
102369,140846,7967,-0.038,-0.952,-0.169,-0.854,0.61,0.732,77.831
102382,140833,19647,-0.038,-0.952,-0.169,-0.854,0.61,0.732,77.835
102382,140848,7972,-0.033,-0.944,-0.162,-0.122,0.549,0.732,77.841
102377,140833,19647,-0.033,-0.944,-0.162,-0.122,0.549,0.732,77.845
102377,140850,7973,-0.034,-0.946,-0.168,0.366,0.549,0.549,77.851
102377,140833,19647,-0.034,-0.946,-0.168,0.366,0.549,0.549,77.855
102377,140845,7987,-0.035,-0.945,-0.177,-0.061,0.732,0.549,77.861
102373,140833,19647,-0.035,-0.945,-0.177,-0.061,0.732,0.549,77.864
102373,140852,7979,-0.032,-0.945,-0.17,-0.183,0.549,0.244,77.871
102385,140833,19647,-0.032,-0.945,-0.17,-0.183,0.549,0.244,77.874
102385,140863,7968,-0.032,-0.949,-0.16,0.061,0.244,-0.122,77.881
102389,140833,19647,-0.032,-0.949,-0.16,0.061,0.244,-0.122,77.884
102389,140850,7977,-0.037,-0.956,-0.169,-0.183,0.305,-0.061,77.89
102372,140833,19647,-0.037,-0.956,-0.169,-0.183,0.305,-0.061,77.894
102372,140825,7965,-0.039,-0.96,-0.169,-0.549,0.427,0.366,77.9
102374,140833,19647,-0.039,-0.96,-0.169,-0.549,0.427,0.366,77.904
102374,140829,7959,-0.041,-0.953,-0.161,-0.244,0.366,0.366,77.91
102379,140833,19647,-0.041,-0.953,-0.161,-0.244,0.366,0.366,77.914
102379,140841,7970,-0.039,-0.943,-0.161,0.366,0.305,0.427,77.92
102374,140833,19647,-0.039,-0.943,-0.161,0.366,0.305,0.427,77.924
102374,140833,7971,-0.041,-0.943,-0.168,0.244,0.305,0.488,77.93
102381,140833,19647,-0.047,-0.952,-0.16,0.244,0.305,0.488,77.934
102381,140829,7975,-0.047,-0.959,-0.168,-0.244,0.488,0.549,77.94
102367,140833,19647,-0.046,-0.955,-0.173,-0.244,0.488,0.549,77.944
102367,140823,7960,-0.045,-0.948,-0.169,0,0.427,0.549,77.95
102361,140833,19647,-0.044,-0.944,-0.171,0,0.427,0.549,77.954
102361,140864,7967,-0.042,-0.944,-0.17,0.549,0.244,0.244,77.96
102381,140833,19647,-0.04,-0.943,-0.169,0.549,0.244,0.244,77.963
102381,140861,7984,-0.039,-0.944,-0.164,0.671,0.244,0.183,77.97
102394,140833,19647,-0.039,-0.943,-0.161,0.671,0.244,0.183,77.973
102394,140850,7967,-0.036,-0.948,-0.164,0.183,0.244,0.122,77.98
102385,140833,19647,-0.036,-0.954,-0.167,0.183,0.244,0.122,77.983
102385,140836,7975,-0.035,-0.956,-0.165,-0.305,0.122,0.183,77.989
102359,140833,19647,-0.035,-0.957,-0.17,-0.305,0.122,0.183,77.993
102359,140849,7965,-0.036,-0.957,-0.168,-0.305,0.183,0.244,77.999
102361,140833,19647,-0.037,-0.949,-0.166,-0.305,0.183,0.244,78.003
102361,140843,7980,-0.035,-0.943,-0.164,-0.305,0.244,0.305,78.009
102370,140833,19647,-0.037,-0.942,-0.164,-0.305,0.244,0.305,78.013
102370,140862,7968,-0.041,-0.941,-0.164,-0.427,0.183,0.305,78.019
102358,140833,19647,-0.04,-0.949,-0.166,-0.427,0.183,0.305,78.023
102358,140845,7962,-0.04,-0.955,-0.166,-0.61,0.122,0.305,78.029
102370,140833,19647,-0.038,-0.954,-0.162,-0.61,0.122,0.305,78.033
102370,140853,7986,-0.042,-0.954,-0.162,-0.549,0.122,0.244,78.039
102371,140833,19647,-0.04,-0.953,-0.161,-0.549,0.122,0.244,78.043
102371,140840,7976,-0.039,-0.946,-0.167,-0.122,0.061,0.183,78.049
102353,140833,19647,-0.037,-0.946,-0.17,-0.122,0.061,0.183,78.053
102353,140825,7972,-0.034,-0.947,-0.171,-0.122,0.122,0.244,78.059
102388,140833,19647,-0.035,-0.951,-0.171,-0.122,0.122,0.244,78.062
102388,140845,7985,-0.034,-0.951,-0.17,-0.305,0.305,0.122,78.069
102368,140833,19647,-0.033,-0.95,-0.166,-0.305,0.305,0.122,78.072
102368,140837,7981,-0.035,-0.951,-0.169,0,0.305,0.061,78.079
102355,140833,19647,-0.034,-0.952,-0.167,0,0.305,0.061,78.082
102355,140859,7976,-0.035,-0.953,-0.164,-0.061,0.122,0.366,78.088
102370,140833,19647,-0.037,-0.955,-0.165,-0.061,0.122,0.366,78.092
102370,140858,7976,-0.039,-0.955,-0.166,-0.061,0.122,0.61,78.098
102373,140833,19647,-0.041,-0.956,-0.166,-0.061,0.122,0.61,78.102
102373,140880,7959,-0.043,-0.953,-0.163,0,0.122,0.793,78.108
102374,140833,19647,-0.043,-0.944,-0.165,0,0.122,0.793,78.112
102374,140874,7970,-0.037,-0.94,-0.163,0.122,0.183,0.488,78.118
102359,140833,19647,-0.037,-0.942,-0.16,0.122,0.183,0.488,78.122
102359,140895,7982,-0.035,-0.947,-0.164,0.122,0.244,0.305,78.128
102368,140833,19647,-0.036,-0.951,-0.164,0.122,0.244,0.305,78.132
102368,140867,7967,-0.038,-0.959,-0.165,-0.061,0.671,0.305,78.138
102381,140833,19647,-0.039,-0.962,-0.166,-0.061,0.671,0.305,78.142
102381,140869,7983,-0.035,-0.956,-0.164,0.427,0.854,0.305,78.148
102362,140833,19647,-0.036,-0.95,-0.162,0.427,0.854,0.305,78.152
102362,140881,7972,-0.037,-0.95,-0.163,0.732,0.671,0.366,78.158
102363,140833,19647,-0.036,-0.951,-0.166,0.732,0.671,0.366,78.161
102363,140865,7961,-0.037,-0.957,-0.171,0.488,0.854,0.549,78.168
102373,140833,19647,-0.038,-0.961,-0.17,0.488,0.854,0.549,78.171
102373,140879,7975,-0.042,-0.949,-0.168,0.488,0.915,0.793,78.178
102384,140833,19647,-0.041,-0.937,-0.164,0.488,0.915,0.793,78.181
102384,140836,7977,-0.041,-0.937,-0.163,0.366,0.488,0.549,78.187
102373,140833,19647,-0.042,-0.941,-0.165,0.366,0.488,0.549,78.191
102373,140856,7973,-0.041,-0.951,-0.172,-0.488,0.488,0.549,78.197
102358,140833,19647,-0.041,-0.958,-0.168,-0.488,0.488,0.549,78.201
102358,140847,7989,-0.041,-0.957,-0.167,-0.427,0.488,0.488,78.207
102345,140833,19647,-0.04,-0.953,-0.166,-0.427,0.488,0.488,78.211
102345,140849,7979,-0.04,-0.947,-0.159,0.244,0.183,0.427,78.217
102373,140833,19647,-0.036,-0.949,-0.156,0.244,0.183,0.427,78.221
102373,140819,7977,-0.038,-0.952,-0.162,0.122,0.183,0.488,78.227
102354,140833,19647,-0.038,-0.956,-0.165,0.122,0.183,0.488,78.231
102354,140835,7972,-0.041,-0.955,-0.164,-0.671,0.427,0.793,78.237
102359,140833,19647,-0.041,-0.952,-0.165,-0.671,0.427,0.793,78.241
102359,140828,7978,-0.039,-0.954,-0.158,-0.671,0.488,0.793,78.247
102332,140833,19647,-0.036,-0.953,-0.167,-0.671,0.488,0.793,78.251
102332,140813,7978,-0.037,-0.95,-0.172,-0.549,0.549,0.854,78.257
102346,140833,19647,-0.04,-0.947,-0.167,-0.549,0.549,0.854,78.26
102346,140809,7985,-0.042,-0.945,-0.164,-0.183,0.488,0.732,78.267
102337,140577,19647,-0.04,-0.944,-0.16,-0.183,0.488,0.732,78.27
102337,140797,7972,-0.039,-0.948,-0.159,0,0.366,0.427,78.277
102332,140577,19647,-0.037,-0.949,-0.166,0,0.366,0.427,78.28
102332,140799,7969,-0.039,-0.951,-0.172,-0.061,0.427,0.488,78.286
102340,140833,19647,-0.041,-0.953,-0.172,-0.061,0.427,0.488,78.29
102340,140802,7974,-0.039,-0.952,-0.172,0.061,0.305,0.61,78.296
102357,140833,19647,-0.041,-0.956,-0.17,0.061,0.305,0.61,78.3
102357,140816,7958,-0.042,-0.947,-0.168,0.122,0.305,0.366,78.306
102332,140833,19647,-0.042,-0.941,-0.164,0.122,0.305,0.366,78.31
102332,140845,7977,-0.041,-0.94,-0.159,0.183,0.122,0.183,78.316
102322,140833,19647,-0.039,-0.943,-0.163,0.183,0.122,0.183,78.32
102322,140810,7988,-0.038,-0.947,-0.159,-0.061,0.244,0.183,78.326
102338,140833,19647,-0.038,-0.951,-0.151,-0.061,0.244,0.183,78.33
102338,140827,7955,-0.036,-0.955,-0.156,-0.305,0.244,0.183,78.336
102328,140833,19647,-0.037,-0.958,-0.163,-0.305,0.244,0.183,78.34
102328,140816,7969,-0.039,-0.96,-0.168,-0.671,0.488,0.305,78.346
102346,140833,19647,-0.04,-0.955,-0.169,-0.671,0.488,0.305,78.35
102346,140819,7972,-0.04,-0.948,-0.168,-0.366,0.549,0.488,78.356
102347,140577,19647,-0.045,-0.949,-0.161,-0.366,0.549,0.488,78.359
102347,140793,7968,-0.04,-0.951,-0.161,0,0.244,0.366,78.366
102324,140833,19647,-0.04,-0.951,-0.161,0,0.244,0.366,78.369
102324,140825,7973,-0.037,-0.949,-0.161,-0.488,0.183,0.427,78.376
102336,140833,19647,-0.037,-0.949,-0.161,-0.488,0.183,0.427,78.379
102336,140808,7971,-0.037,-0.954,-0.168,-0.976,0.366,0.549,78.385
102330,140833,19647,-0.037,-0.954,-0.168,-0.976,0.366,0.549,78.389
102330,140836,7953,-0.042,-0.952,-0.167,-0.732,0.366,0.732,78.395
102330,140833,19647,-0.042,-0.952,-0.167,-0.732,0.366,0.732,78.399
102330,140807,7968,-0.036,-0.949,-0.164,-0.305,0.183,0.61,78.405
102328,140833,19647,-0.036,-0.949,-0.164,-0.305,0.183,0.61,78.409
102328,140813,7974,-0.038,-0.945,-0.167,-0.244,0.244,0.671,78.415
102340,140833,19647,-0.038,-0.945,-0.167,-0.244,0.244,0.671,78.419
102340,140816,7964,-0.04,-0.95,-0.171,-0.305,0.366,0.549,78.425
102332,140833,19647,-0.04,-0.95,-0.171,-0.305,0.366,0.549,78.429
102332,140825,7984,-0.042,-0.948,-0.165,0.122,0.305,0.183,78.435
102350,140833,19647,-0.042,-0.948,-0.165,0.122,0.305,0.183,78.439
102350,140828,7970,-0.04,-0.948,-0.166,0.183,0.305,0.061,78.445
102332,140833,19647,-0.04,-0.948,-0.166,0.183,0.305,0.061,78.449
102332,140830,7964,-0.04,-0.955,-0.167,0,0.305,0.244,78.455
102331,140833,19647,-0.04,-0.955,-0.167,0,0.305,0.244,78.458
102331,140852,7966,-0.039,-0.955,-0.161,-0.122,0.366,0.305,78.465
102324,140833,19647,-0.039,-0.955,-0.161,-0.122,0.366,0.305,78.468
102324,140827,7965,-0.034,-0.953,-0.168,-0.305,0.366,0.366,78.475
102331,140833,19647,-0.034,-0.953,-0.168,-0.305,0.366,0.366,78.478
102331,140824,7981,-0.037,-0.947,-0.165,-0.488,0.366,0.61,78.484
102336,140833,19647,-0.037,-0.947,-0.165,-0.488,0.366,0.61,78.488
102336,140819,7964,-0.042,-0.947,-0.167,-0.183,0.305,0.61,78.494
102340,140833,19647,-0.042,-0.947,-0.167,-0.183,0.305,0.61,78.498
102340,140808,7963,-0.038,-0.951,-0.169,0.183,0.183,0.305,78.504
102335,140833,19647,-0.038,-0.951,-0.169,0.183,0.183,0.305,78.508
102335,140814,7969,-0.04,-0.951,-0.168,0.183,0.183,0.305,78.514
102334,140833,19647,-0.04,-0.947,-0.163,0.427,0,0.183,78.518
102334,140828,7963,-0.041,-0.947,-0.165,0.427,0,0.183,78.524
102309,140833,19647,-0.04,-0.948,-0.162,0.427,0,0.061,78.528
102309,140815,7972,-0.04,-0.949,-0.16,0.427,0,0.061,78.534
102328,140833,19647,-0.043,-0.952,-0.16,0.305,0.122,-0.061,78.538
102328,140842,7972,-0.04,-0.955,-0.16,0.305,0.122,-0.061,78.544
102335,140833,19647,-0.038,-0.952,-0.161,-0.305,0.366,0.061,78.548
102335,140818,7970,-0.038,-0.953,-0.166,-0.305,0.366,0.061,78.554
102342,140833,19647,-0.04,-0.956,-0.163,-0.732,0.427,0.183,78.557
102342,140816,7961,-0.039,-0.956,-0.16,-0.732,0.427,0.183,78.564
102340,140577,19647,-0.035,-0.955,-0.164,-0.366,0.427,0.366,78.567
102340,140799,7983,-0.039,-0.954,-0.164,-0.366,0.427,0.366,78.574
102333,140833,19647,-0.039,-0.952,-0.162,-0.183,0.549,0.549,78.577
102333,140823,7962,-0.038,-0.952,-0.165,-0.183,0.549,0.549,78.583
102327,140833,19647,-0.039,-0.949,-0.159,0,0.427,0.427,78.587
102327,140824,7961,-0.036,-0.946,-0.164,0,0.427,0.427,78.593
102342,140833,19647,-0.033,-0.947,-0.169,-0.61,0.488,0.427,78.597
102342,140827,7973,-0.034,-0.948,-0.165,-0.61,0.488,0.427,78.603
102334,140833,19647,-0.038,-0.948,-0.165,-0.793,0.488,0.549,78.607
102334,140846,7963,-0.039,-0.952,-0.163,-0.793,0.488,0.549,78.613
102332,140833,19647,-0.04,-0.955,-0.165,-0.549,0.549,0.305,78.617
102332,140837,7972,-0.036,-0.953,-0.164,-0.549,0.549,0.305,78.623
102332,140833,19647,-0.037,-0.951,-0.164,-0.305,0.488,0.427,78.627
102332,140835,7969,-0.037,-0.953,-0.161,-0.305,0.488,0.427,78.633
102314,140833,19647,-0.038,-0.952,-0.161,-0.244,0.488,0.427,78.637
102314,140841,7973,-0.039,-0.953,-0.166,-0.244,0.488,0.427,78.643
102325,140833,19647,-0.036,-0.954,-0.166,-0.427,0.549,0.549,78.647
102325,140860,7961,-0.039,-0.95,-0.166,-0.427,0.549,0.549,78.653
102329,140833,19647,-0.04,-0.948,-0.165,-0.427,0.488,0.549,78.656
102329,140838,7981,-0.04,-0.952,-0.157,-0.427,0.488,0.549,78.663
102348,140833,19647,-0.039,-0.951,-0.15,-0.488,0.549,0.549,78.666
102348,140829,7968,-0.037,-0.95,-0.163,-0.488,0.549,0.549,78.673
102343,140833,19647,-0.038,-0.948,-0.168,-1.28,0.793,0.61,78.676
102343,140836,7983,-0.04,-0.949,-0.171,-1.28,0.793,0.61,78.682
102341,140833,19647,-0.04,-0.951,-0.174,-1.159,0.854,0.732,78.686
102341,140835,7977,-0.042,-0.952,-0.168,-1.159,0.854,0.732,78.692
102341,140833,19647,-0.045,-0.954,-0.166,-0.305,0.732,0.488,78.696
102341,140864,7973,-0.042,-0.949,-0.166,-0.305,0.732,0.488,78.702
102351,140833,19647,-0.041,-0.941,-0.168,-0.122,0.61,0.427,78.706
102351,140829,7967,-0.042,-0.944,-0.168,-0.122,0.61,0.427,78.712
102323,140833,19647,-0.043,-0.949,-0.168,-0.061,0.488,0.366,78.716
102323,140839,7968,-0.041,-0.95,-0.165,-0.061,0.488,0.366,78.722
102350,140833,19647,-0.044,-0.949,-0.167,-0.244,0.427,0.183,78.726
102350,140824,7969,-0.042,-0.946,-0.168,-0.244,0.427,0.183,78.732
102333,140833,19647,-0.044,-0.951,-0.161,-0.244,0.305,0.061,78.736
102333,140832,7982,-0.039,-0.953,-0.162,-0.244,0.305,0.061,78.742
102348,140833,19647,-0.042,-0.957,-0.16,-0.305,0.305,0.061,78.746
102348,140857,7961,-0.043,-0.957,-0.153,-0.305,0.305,0.061,78.752
102335,140833,19647,-0.038,-0.96,-0.153,-0.549,0.488,0.244,78.756
102335,140840,7960,-0.034,-0.953,-0.16,-0.549,0.488,0.244,78.762
102338,140833,19647,-0.039,-0.949,-0.168,-1.22,0.671,0.488,78.765
102338,140834,7968,-0.041,-0.949,-0.168,-1.22,0.671,0.488,78.772
102326,140833,19647,-0.037,-0.952,-0.164,-1.28,0.732,0.61,78.775
102326,140853,7977,-0.039,-0.954,-0.163,-1.28,0.732,0.61,78.781
102362,140833,19647,-0.039,-0.952,-0.168,-1.159,0.61,0.549,78.785
102362,140836,7963,-0.04,-0.946,-0.173,-1.159,0.61,0.549,78.791
102352,140833,19647,-0.041,-0.945,-0.171,-0.793,0.732,0.61,78.795
102352,140848,7984,-0.04,-0.942,-0.171,-0.793,0.732,0.61,78.801
102354,140833,19647,-0.04,-0.944,-0.175,-0.061,0.549,0.427,78.805
102354,140840,7978,-0.04,-0.947,-0.172,-0.061,0.549,0.427,78.811
102343,140833,19647,-0.036,-0.948,-0.175,0.061,0.427,0.305,78.815
102343,140843,7973,-0.039,-0.949,-0.169,0.061,0.427,0.305,78.821
102355,140833,19647,-0.034,-0.952,-0.164,0.183,0.305,-0.122,78.825
102355,140863,7969,-0.032,-0.95,-0.167,0.183,0.305,-0.122,78.831
102361,140833,19647,-0.032,-0.944,-0.167,-0.122,0.366,-0.183,78.835
102361,140862,7973,-0.034,-0.947,-0.166,-0.122,0.366,-0.183,78.841
102340,140833,19647,-0.036,-0.952,-0.162,-0.488,0.549,-0.122,78.845
102340,140845,7981,-0.035,-0.956,-0.161,-0.488,0.549,-0.122,78.851
102354,140833,19647,-0.034,-0.955,-0.166,-0.854,0.366,0,78.854
102354,140844,7968,-0.034,-0.956,-0.171,-0.854,0.366,0,78.861
102339,140833,19647,-0.038,-0.953,-0.174,-1.22,0.427,0.244,78.864
102339,140829,7978,-0.042,-0.953,-0.174,-1.22,0.427,0.244,78.871
102342,140833,19647,-0.044,-0.953,-0.167,-0.366,0.366,0.244,78.874
102342,140860,7970,-0.044,-0.953,-0.167,-0.366,0.366,0.244,78.88
102338,140833,19647,-0.042,-0.951,-0.163,0.305,0.061,0.366,78.884
102338,140850,7977,-0.042,-0.947,-0.162,0.305,0.061,0.366,78.89
102342,140833,19647,-0.047,-0.946,-0.162,0.305,0.244,0.366,78.894
102342,140856,7961,-0.047,-0.951,-0.162,0.305,0.244,0.366,78.9
102334,140833,19647,-0.046,-0.949,-0.162,0.183,0.244,0.427,78.904
102334,140838,7973,-0.044,-0.952,-0.16,0.183,0.244,0.427,78.91
102341,140833,19647,-0.04,-0.951,-0.153,-0.366,0.244,0.488,78.914
102341,140866,7967,-0.037,-0.947,-0.156,-0.366,0.244,0.488,78.92
102337,140833,19647,-0.039,-0.949,-0.16,-1.22,0.549,0.488,78.924
102337,140818,7965,-0.037,-0.951,-0.166,-1.22,0.549,0.488,78.93
102329,140833,19647,-0.039,-0.955,-0.166,-1.341,0.549,0.671,78.934
102329,140842,7978,-0.039,-0.952,-0.169,-1.341,0.549,0.671,78.94
102335,140833,19647,-0.036,-0.948,-0.171,-1.098,0.549,0.671,78.944
102335,140854,7957,-0.035,-0.946,-0.174,-1.098,0.549,0.671,78.95
102325,140833,19647,-0.037,-0.945,-0.171,-0.915,0.61,0.427,78.954
102325,140844,7965,-0.039,-0.941,-0.17,-0.915,0.61,0.427,78.96
102341,140833,19647,-0.039,-0.941,-0.17,-0.915,0.61,0.427,78.963
102341,140857,7971,-0.042,-0.946,-0.165,-0.305,0.488,0.244,78.97
102334,140833,19647,-0.042,-0.946,-0.165,-0.305,0.488,0.244,78.973
102334,140851,7981,-0.037,-0.95,-0.174,-0.488,0.427,0.061,78.979
102354,140833,19647,-0.037,-0.95,-0.174,-0.488,0.427,0.061,78.983
102354,140850,7973,-0.044,-0.952,-0.169,-0.671,0.427,0.122,78.989
102328,140833,19647,-0.044,-0.952,-0.169,-0.671,0.427,0.122,78.993
102328,140824,7975,-0.041,-0.948,-0.165,-0.305,0.305,0.122,78.999
102327,140833,19647,-0.041,-0.948,-0.165,-0.305,0.305,0.122,79.003
102327,140839,7969,-0.04,-0.955,-0.167,-0.305,0.061,0.061,79.009
102329,140833,19647,-0.04,-0.955,-0.167,-0.305,0.061,0.061,79.013
102329,140824,7962,-0.037,-0.949,-0.17,-0.61,-0.061,0.244,79.019
102333,140833,19647,-0.037,-0.949,-0.17,-0.61,-0.061,0.244,79.023
102333,140852,7963,-0.038,-0.949,-0.169,-0.671,0,0.427,79.029
102330,140833,19647,-0.038,-0.949,-0.169,-0.671,0,0.427,79.033
102330,140831,7974,-0.037,-0.943,-0.165,-0.427,0.122,0.305,79.039
102340,140833,19647,-0.037,-0.943,-0.165,-0.427,0.122,0.305,79.043
102340,140845,7964,-0.037,-0.949,-0.16,0,0.183,0.183,79.049
102333,140833,19647,-0.037,-0.949,-0.16,0,0.183,0.183,79.052
102333,140842,7970,-0.037,-0.958,-0.166,0.061,0.244,0.183,79.059
102325,140833,19647,-0.037,-0.958,-0.166,0.061,0.244,0.183,79.062
102325,140852,7997,-0.038,-0.954,-0.165,-0.061,0.427,0.305,79.069
102335,140833,19647,-0.038,-0.954,-0.165,-0.061,0.427,0.305,79.072
102335,140847,7975,-0.039,-0.948,-0.164,0,0.488,0.366,79.079
102350,140833,19647,-0.039,-0.948,-0.164,0,0.488,0.366,79.082
102350,140867,7980,-0.034,-0.944,-0.161,-0.183,0.488,0.427,79.088
102334,140833,19647,-0.034,-0.944,-0.161,-0.183,0.488,0.427,79.092
102334,140846,7980,-0.04,-0.947,-0.171,-0.732,0.549,0.305,79.098
102333,140833,19647,-0.04,-0.947,-0.171,-0.732,0.549,0.305,79.102
102333,140857,7978,-0.04,-0.949,-0.17,-1.098,0.793,0.305,79.108
102335,140833,19647,-0.041,-0.948,-0.166,-1.098,0.793,0.305,79.112
102335,140877,7968,-0.037,-0.949,-0.168,-0.61,0.732,0.305,79.118
102327,140833,19647,-0.038,-0.948,-0.169,-0.61,0.732,0.305,79.122
102327,140851,7965,-0.04,-0.954,-0.163,-0.244,0.549,0.305,79.128
102346,140833,19647,-0.039,-0.954,-0.161,-0.244,0.549,0.305,79.132
102346,140840,7958,-0.038,-0.955,-0.168,-0.61,0.488,0.427,79.138
102330,140833,19647,-0.036,-0.952,-0.173,-0.61,0.488,0.427,79.142
102330,140838,7982,-0.041,-0.95,-0.175,-1.28,0.488,0.671,79.148
102335,140833,19647,-0.042,-0.952,-0.173,-1.28,0.488,0.671,79.152
102335,140840,7963,-0.04,-0.952,-0.173,-0.854,0.427,0.671,79.158
102320,140833,19647,-0.042,-0.951,-0.169,-0.854,0.427,0.671,79.161
102320,140826,7964,-0.041,-0.943,-0.17,-0.427,0.427,0.61,79.168
102336,140833,19647,-0.037,-0.94,-0.167,-0.427,0.427,0.61,79.171
102336,140805,7983,-0.038,-0.942,-0.164,-0.061,0.427,0.366,79.177
102312,140833,19647,-0.04,-0.948,-0.166,-0.061,0.427,0.366,79.181
102312,140815,7967,-0.04,-0.954,-0.167,-0.122,0.427,0.427,79.187
102289,140577,19647,-0.043,-0.959,-0.171,-0.122,0.427,0.427,79.191
102289,140796,7977,-0.044,-0.961,-0.165,-0.183,0.61,0.61,79.197
102297,140833,19647,-0.043,-0.961,-0.164,-0.183,0.61,0.61,79.201
102297,140803,7961,-0.041,-0.952,-0.166,-0.061,0.366,0.671,79.207
102300,140833,19647,-0.036,-0.943,-0.166,-0.061,0.366,0.671,79.211
102300,140816,7974,-0.036,-0.942,-0.169,-0.366,0.305,0.732,79.217
102293,140833,19647,-0.037,-0.945,-0.169,-0.366,0.305,0.732,79.221
102293,140808,7966,-0.043,-0.95,-0.168,-0.854,0.549,0.671,79.227
102289,140833,19647,-0.041,-0.951,-0.167,-0.854,0.549,0.671,79.231
102289,140804,7981,-0.04,-0.948,-0.171,-0.793,0.427,0.549,79.237
102293,140833,19647,-0.042,-0.947,-0.171,-0.793,0.427,0.549,79.241
102293,140802,7972,-0.042,-0.945,-0.174,-0.244,0.366,0.244,79.247
102266,140833,19647,-0.041,-0.943,-0.171,-0.244,0.366,0.244,79.251
102266,140802,7969,-0.04,-0.946,-0.171,0.183,0.366,0,79.257
102281,140577,19647,-0.044,-0.95,-0.171,0.183,0.366,0,79.26
102281,140798,7950,-0.043,-0.947,-0.166,0.183,0.366,-0.122,79.267
102302,140577,19647,-0.039,-0.948,-0.165,0.183,0.366,-0.122,79.27
102302,140793,7984,-0.038,-0.956,-0.165,0,0.305,-0.122,79.277
102286,140577,19647,-0.038,-0.954,-0.163,0,0.305,-0.122,79.28
102286,140793,7957,-0.04,-0.951,-0.161,0.061,0.305,0.183,79.286
102275,140833,19647,-0.04,-0.949,-0.161,0.061,0.305,0.183,79.29
102275,140823,7974,-0.036,-0.946,-0.166,-0.122,0.427,0.244,79.296
102292,140833,19647,-0.037,-0.949,-0.168,-0.122,0.427,0.244,79.3
102292,140807,7974,-0.037,-0.955,-0.163,-0.488,0.427,0.366,79.306
102285,140833,19647,-0.038,-0.955,-0.164,-0.488,0.427,0.366,79.31
102285,140829,7971,-0.038,-0.948,-0.165,-0.793,0.549,0.427,79.316
102277,140833,19647,-0.038,-0.945,-0.167,-0.793,0.549,0.427,79.32
102277,140813,7968,-0.04,-0.946,-0.171,-0.732,0.671,0.366,79.326
102275,140577,19647,-0.037,-0.951,-0.17,-0.732,0.671,0.366,79.33
102275,140797,7966,-0.035,-0.953,-0.172,-0.549,0.549,0.305,79.336
102260,140833,19647,-0.036,-0.955,-0.171,-0.549,0.549,0.305,79.34
102260,140827,7961,-0.037,-0.948,-0.165,-0.366,0.427,0.366,79.346
102277,140577,19647,-0.034,-0.946,-0.17,-0.366,0.427,0.366,79.35
102277,140793,7954,-0.038,-0.948,-0.167,-0.488,0.366,0.366,79.356
102272,140577,19647,-0.039,-0.95,-0.167,-0.488,0.366,0.366,79.359
102272,140791,7965,-0.041,-0.955,-0.172,-0.488,0.366,0.488,79.366
102273,140577,19647,-0.039,-0.955,-0.169,-0.488,0.366,0.488,79.369
102273,140794,7970,-0.039,-0.951,-0.167,-0.366,0.366,0.427,79.375
102273,140577,19647,-0.042,-0.948,-0.169,-0.366,0.366,0.427,79.379
102273,140793,7968,-0.04,-0.948,-0.165,0.061,0.244,0.305,79.385
102261,140577,19647,-0.042,-0.953,-0.168,0.061,0.244,0.305,79.389
102261,140792,7958,-0.041,-0.955,-0.174,-0.244,0.305,0.366,79.395
102259,140577,19647,-0.04,-0.952,-0.17,-0.244,0.305,0.366,79.399
102259,140785,7975,-0.042,-0.952,-0.166,-0.183,0.366,0.305,79.405
102261,140577,19647,-0.038,-0.948,-0.162,-0.183,0.366,0.305,79.409
102261,140766,7974,-0.037,-0.947,-0.167,0,0.244,0.244,79.415
102264,140577,19647,-0.039,-0.948,-0.168,0,0.244,0.244,79.419
102264,140777,7971,-0.042,-0.949,-0.165,-0.427,0.488,0.488,79.425
102267,140577,19647,-0.04,-0.953,-0.167,-0.427,0.488,0.488,79.429
102267,140773,7944,-0.037,-0.956,-0.169,-0.61,0.488,0.366,79.435
102255,140577,19647,-0.041,-0.952,-0.17,-0.61,0.488,0.366,79.439
102255,140785,7969,-0.037,-0.949,-0.171,-0.366,0.366,0.366,79.445
102264,140833,19647,-0.033,-0.949,-0.171,-0.366,0.366,0.366,79.449
102264,140814,7955,-0.036,-0.948,-0.172,-0.366,0.366,0.427,79.455
102256,140577,19647,-0.038,-0.95,-0.167,-0.366,0.366,0.427,79.458
102256,140782,7967,-0.04,-0.95,-0.163,-0.244,0.427,0.427,79.465
102254,140577,19647,-0.038,-0.946,-0.162,-0.244,0.427,0.427,79.468
102254,140788,7965,-0.039,-0.944,-0.16,-0.183,0.366,0.305,79.475
102261,140577,19647,-0.037,-0.945,-0.165,-0.183,0.366,0.305,79.478
102261,140791,7967,-0.038,-0.949,-0.167,-0.549,0.244,0.366,79.484
102243,140577,19647,-0.035,-0.95,-0.169,-0.549,0.244,0.366,79.488
102243,140771,7969,-0.039,-0.95,-0.177,-1.098,0.549,0.488,79.494
102259,140577,19647,-0.041,-0.955,-0.177,-1.098,0.549,0.488,79.498
102259,140773,7953,-0.045,-0.956,-0.173,-0.366,0.488,0.366,79.504
102257,140577,19647,-0.043,-0.951,-0.166,-0.366,0.488,0.366,79.508
102257,140783,7976,-0.042,-0.944,-0.165,0.671,0.244,0.183,79.514
102256,140577,19647,-0.036,-0.943,-0.167,0.671,0.244,0.183,79.518
102256,140783,7957,-0.036,-0.947,-0.162,0.366,0.183,0.183,79.524
102255,140577,19647,-0.036,-0.952,-0.163,0.366,0.183,0.183,79.528
102255,140782,7962,-0.04,-0.956,-0.176,-0.244,0.488,0.305,79.534
102242,140577,19647,-0.041,-0.958,-0.175,-0.244,0.488,0.305,79.538
102242,140775,7968,-0.041,-0.951,-0.173,-0.305,0.488,0.427,79.544
102259,140577,19647,-0.037,-0.95,-0.168,-0.305,0.488,0.427,79.548
102259,140778,7973,-0.036,-0.944,-0.162,0.183,0.061,0.305,79.554
102254,140577,19647,-0.036,-0.944,-0.162,0.183,0.061,0.305,79.557
102254,140775,7941,-0.038,-0.948,-0.161,0,0.183,0.366,79.564
102240,140577,19647,-0.038,-0.948,-0.161,0,0.183,0.366,79.567
102240,140768,7956,-0.039,-0.952,-0.17,-0.732,0.61,0.549,79.573
102253,140833,19647,-0.039,-0.952,-0.17,-0.732,0.61,0.549,79.577
102253,140806,7942,-0.044,-0.953,-0.169,-0.427,0.671,0.366,79.583
102251,140577,19647,-0.044,-0.953,-0.169,-0.427,0.671,0.366,79.587
102251,140780,7949,-0.04,-0.948,-0.164,0,0.488,0.183,79.593
102262,140577,19647,-0.04,-0.948,-0.164,0,0.488,0.183,79.597
102262,140773,7956,-0.035,-0.948,-0.167,-0.305,0.427,0.366,79.603
102256,140577,19647,-0.035,-0.948,-0.167,-0.305,0.427,0.366,79.607
102256,140796,7962,-0.039,-0.953,-0.172,-0.915,0.61,0.488,79.613
102245,140577,19647,-0.039,-0.953,-0.172,-0.915,0.61,0.488,79.617
102245,140795,7953,-0.044,-0.952,-0.166,-0.732,0.732,0.427,79.623
102256,140577,19647,-0.044,-0.952,-0.166,-0.732,0.732,0.427,79.627
102256,140794,7966,-0.037,-0.951,-0.162,-0.183,0.488,0.427,79.633
102272,140577,19647,-0.037,-0.951,-0.162,-0.183,0.488,0.427,79.637
102272,140764,7974,-0.039,-0.952,-0.172,-0.427,0.488,0.549,79.643
102251,140577,19647,-0.039,-0.952,-0.172,-0.427,0.488,0.549,79.647
102251,140794,7969,-0.038,-0.949,-0.172,-0.244,0.549,0.671,79.653
102257,140577,19647,-0.038,-0.949,-0.172,-0.244,0.549,0.671,79.656
102257,140785,7963,-0.034,-0.944,-0.17,-0.061,0.488,0.488,79.663
102260,140577,19647,-0.034,-0.944,-0.17,-0.061,0.488,0.488,79.666
102260,140776,7963,-0.04,-0.951,-0.161,-0.305,0.427,0.488,79.673
102261,140577,19647,-0.04,-0.951,-0.161,-0.305,0.427,0.488,79.676
102261,140784,7954,-0.033,-0.952,-0.166,-0.732,0.488,0.549,79.682
102248,140577,19647,-0.033,-0.952,-0.166,-0.732,0.488,0.549,79.686
102248,140775,7972,-0.039,-0.956,-0.17,-0.976,0.793,0.61,79.692
102254,140577,19647,-0.039,-0.956,-0.17,-0.976,0.793,0.61,79.696
102254,140790,7972,-0.043,-0.955,-0.166,-0.976,0.793,0.61,79.702
102250,140577,19647,-0.046,-0.95,-0.171,-0.488,0.671,0.671,79.706
102250,140780,7953,-0.043,-0.945,-0.173,-0.488,0.671,0.671,79.712
102247,140577,19647,-0.043,-0.943,-0.169,-0.244,0.183,0.488,79.716
102247,140776,7958,-0.038,-0.943,-0.176,-0.244,0.183,0.488,79.722
102261,140577,19647,-0.036,-0.946,-0.173,-0.366,0.183,0.427,79.726
102261,140799,7958,-0.038,-0.954,-0.167,-0.366,0.183,0.427,79.732
102244,140577,19647,-0.042,-0.958,-0.169,-0.183,0.244,0.183,79.736
102244,140785,7955,-0.042,-0.95,-0.172,-0.183,0.244,0.183,79.742
102249,140577,19647,-0.044,-0.947,-0.166,0.305,0.183,0.244,79.746
102249,140797,7955,-0.04,-0.941,-0.163,0.305,0.183,0.244,79.752
102265,140577,19647,-0.036,-0.947,-0.158,0.671,0.061,0.122,79.755
102265,140790,7945,-0.037,-0.953,-0.163,0.671,0.061,0.122,79.762
102268,140577,19647,-0.04,-0.957,-0.171,-0.122,0.427,0.305,79.765
102268,140797,7968,-0.042,-0.956,-0.174,-0.122,0.427,0.305,79.772
102258,140833,19647,-0.04,-0.953,-0.177,-0.183,0.732,0.488,79.775
102258,140802,7962,-0.035,-0.949,-0.173,-0.183,0.732,0.488,79.781
102258,140577,19647,-0.036,-0.942,-0.172,0.244,0.549,0.122,79.785
102258,140778,7967,-0.032,-0.942,-0.173,0.244,0.549,0.122,79.791
102251,140577,19647,-0.031,-0.945,-0.171,0,0.488,0.122,79.795
102251,140793,7974,-0.032,-0.95,-0.174,0,0.488,0.122,79.801
102248,140577,19647,-0.037,-0.953,-0.173,-0.793,0.488,0.183,79.805
102248,140769,7951,-0.037,-0.957,-0.171,-0.793,0.488,0.183,79.811
102277,140577,19647,-0.035,-0.956,-0.172,-0.671,0.427,0.183,79.815
102277,140797,7973,-0.037,-0.953,-0.166,-0.671,0.427,0.183,79.821
102259,140577,19647,-0.037,-0.948,-0.157,0.427,0.061,0.122,79.825
102259,140778,7968,-0.036,-0.947,-0.153,0.427,0.061,0.122,79.831
102270,140577,19647,-0.037,-0.953,-0.156,0.183,0.122,0.366,79.835
102270,140788,7969,-0.039,-0.956,-0.165,0.183,0.122,0.366,79.841
102281,140577,19647,-0.041,-0.96,-0.172,-0.488,0.488,0.671,79.845
102281,140787,7971,-0.046,-0.959,-0.168,-0.488,0.488,0.671,79.851
102243,140833,19647,-0.048,-0.953,-0.17,-0.305,0.488,0.732,79.854
102243,140822,7969,-0.042,-0.946,-0.17,-0.305,0.488,0.732,79.861
102268,140577,19647,-0.042,-0.941,-0.164,0.305,0.183,0.549,79.864
102268,140774,7954,-0.042,-0.944,-0.16,0.305,0.183,0.549,79.871
102253,140577,19647,-0.038,-0.948,-0.16,0.183,0.244,0.427,79.874
102253,140783,7971,-0.038,-0.951,-0.165,0.183,0.244,0.427,79.88
102273,140577,19647,-0.041,-0.953,-0.172,-0.549,0.366,0.671,79.884
102273,140782,7957,-0.043,-0.958,-0.174,-0.549,0.366,0.671,79.89
102253,140577,19647,-0.041,-0.952,-0.176,-0.793,0.549,0.732,79.894
102253,140792,7976,-0.037,-0.947,-0.178,-0.793,0.549,0.732,79.9
102251,140577,19647,-0.038,-0.944,-0.172,0,0.366,0.366,79.904
102251,140772,7973,-0.04,-0.942,-0.168,0,0.366,0.366,79.91
102261,140833,19647,-0.035,-0.941,-0.167,0.244,0.183,0.061,79.914
102261,140806,7953,-0.031,-0.943,-0.171,0.244,0.183,0.061,79.92
102256,140577,19647,-0.034,-0.951,-0.165,-0.549,0.427,0.244,79.924
102256,140786,7963,-0.037,-0.95,-0.171,-0.549,0.427,0.244,79.93
102258,140833,19647,-0.042,-0.949,-0.174,-0.793,0.61,0.244,79.934
102258,140820,7962,-0.043,-0.952,-0.17,-0.793,0.61,0.244,79.94
102266,140833,19647,-0.041,-0.956,-0.167,-0.244,0.366,0.244,79.944
102266,140816,7972,-0.04,-0.955,-0.166,-0.244,0.366,0.244,79.95
102265,140833,19647,-0.041,-0.949,-0.164,0.061,0.305,0.183,79.953
102265,140804,7962,-0.043,-0.946,-0.161,0.061,0.305,0.183,79.96
102261,140833,19647,-0.04,-0.948,-0.153,0.122,0.244,0.244,79.963
102261,140810,7974,-0.036,-0.95,-0.163,0.122,0.244,0.244,79.97
102263,140833,19647,-0.037,-0.952,-0.169,-0.488,0.305,0.366,79.973
102263,140805,7959,-0.036,-0.956,-0.172,-0.488,0.305,0.366,79.979
102270,140577,19647,-0.039,-0.958,-0.173,-0.976,0.671,0.427,79.983
102270,140786,7953,-0.042,-0.958,-0.17,-0.976,0.671,0.427,79.989
102270,140577,19647,-0.044,-0.947,-0.162,0.061,0.366,0.427,79.993
102270,140789,7962,-0.037,-0.941,-0.155,0.061,0.366,0.427,79.999
102284,140833,19647,-0.031,-0.944,-0.155,0.61,-0.061,0.366,80.003
102284,140813,7963,-0.03,-0.95,-0.165,0.61,-0.061,0.366,80.009
102253,140833,19647,-0.037,-0.952,-0.176,-0.366,0.427,0.671,80.013
102253,140805,7959,-0.043,-0.951,-0.176,-0.366,0.427,0.671,80.019
102256,140833,19647,-0.044,-0.956,-0.171,-0.305,0.61,0.671,80.023
102256,140815,7950,-0.044,-0.948,-0.172,-0.305,0.61,0.671,80.029
102256,140577,19647,-0.042,-0.94,-0.168,0.549,0.488,0.366,80.033
102256,140793,7968,-0.04,-0.934,-0.168,0.549,0.488,0.366,80.039
102250,140833,19647,-0.036,-0.937,-0.168,0.671,0.305,-0.061,80.043
102250,140810,7961,-0.036,-0.947,-0.169,0.671,0.305,-0.061,80.049
102258,140833,19647,-0.035,-0.956,-0.169,-0.305,0.488,0.122,80.052
102258,140804,7948,-0.039,-0.96,-0.172,-0.305,0.488,0.122,80.059
102266,140833,19647,-0.039,-0.958,-0.173,-0.915,0.732,0.244,80.062
102266,140827,7965,-0.041,-0.956,-0.17,-0.915,0.732,0.244,80.069
102266,140833,19647,-0.039,-0.949,-0.164,-0.488,0.61,0.244,80.072
102266,140808,7955,-0.035,-0.947,-0.167,-0.488,0.61,0.244,80.078
102283,140833,19647,-0.035,-0.948,-0.17,-0.305,0.488,0.427,80.082
102283,140824,7962,-0.038,-0.948,-0.169,-0.305,0.488,0.427,80.088
102278,140833,19647,-0.038,-0.954,-0.172,-0.549,0.61,0.793,80.092
102278,140821,7963,-0.038,-0.955,-0.175,-0.549,0.61,0.793,80.098
102260,140833,19647,-0.04,-0.952,-0.174,-0.183,0.427,0.671,80.102
102260,140801,7974,-0.041,-0.945,-0.167,-0.183,0.427,0.671,80.108
102262,140577,19647,-0.04,-0.943,-0.165,0.671,0.122,0.488,80.112
102262,140796,7974,-0.037,-0.943,-0.169,0.671,0.122,0.488,80.118
102245,140833,19647,-0.04,-0.946,-0.171,0.305,0.122,0.488,80.122
102245,140809,7958,-0.038,-0.953,-0.172,0.305,0.122,0.488,80.128
102250,140577,19647,-0.038,-0.957,-0.167,-0.305,0.244,0.549,80.132
102250,140790,7967,-0.044,-0.954,-0.162,-0.305,0.244,0.549,80.138
102252,140577,19647,-0.043,-0.946,-0.161,-0.061,0.122,0.549,80.142
102252,140799,7967,-0.038,-0.947,-0.165,-0.061,0.122,0.549,80.148
102233,140577,19647,-0.038,-0.947,-0.165,-0.061,0.122,0.549,80.151
102233,140790,7977,-0.035,-0.949,-0.167,-0.061,0.183,0.488,80.158
102241,140577,19647,-0.035,-0.949,-0.167,-0.061,0.183,0.488,80.161
102241,140779,7951,-0.045,-0.956,-0.174,-0.549,0.61,0.549,80.168
102235,140577,19647,-0.045,-0.956,-0.174,-0.549,0.61,0.549,80.171
102235,140781,7970,-0.043,-0.946,-0.167,-0.427,0.671,0.61,80.177
102253,140577,19647,-0.043,-0.946,-0.167,-0.427,0.671,0.61,80.181
102253,140778,7953,-0.037,-0.944,-0.167,0.366,0.366,0.244,80.187
102234,140577,19647,-0.037,-0.944,-0.167,0.366,0.366,0.244,80.191
102234,140794,7958,-0.043,-0.952,-0.17,0.366,0.244,0.122,80.197
102241,140577,19647,-0.043,-0.952,-0.17,0.366,0.244,0.122,80.201
102241,140781,7953,-0.042,-0.953,-0.171,-0.183,0.549,0.427,80.207
102237,140577,19647,-0.042,-0.953,-0.171,-0.183,0.549,0.427,80.211
102237,140766,7960,-0.039,-0.953,-0.162,0.305,0.305,0.366,80.217
102238,140577,19647,-0.039,-0.953,-0.162,0.305,0.305,0.366,80.221
102238,140758,7942,-0.037,-0.947,-0.167,0.366,0.122,0.366,80.227
102271,140577,19647,-0.037,-0.947,-0.167,0.366,0.122,0.366,80.231
102271,140763,7958,-0.038,-0.948,-0.173,-0.305,0.427,0.488,80.237
102252,140577,19647,-0.038,-0.948,-0.173,-0.305,0.427,0.488,80.241
102252,140774,7954,-0.042,-0.948,-0.165,-0.488,0.732,0.427,80.247
102243,140577,19647,-0.042,-0.948,-0.165,-0.488,0.732,0.427,80.25
102243,140765,7955,-0.035,-0.947,-0.167,-0.061,0.671,0.061,80.257
102240,140577,19647,-0.035,-0.947,-0.167,-0.061,0.671,0.061,80.26
102240,140788,7961,-0.043,-0.954,-0.171,-0.427,0.671,0.305,80.267
102231,140577,19647,-0.043,-0.954,-0.171,-0.427,0.671,0.305,80.27
102231,140767,7966,-0.039,-0.956,-0.168,-0.732,0.671,0.427,80.276
102231,140577,19647,-0.039,-0.956,-0.168,-0.732,0.671,0.427,80.28
102231,140766,7951,-0.035,-0.947,-0.169,-0.305,0.366,0.427,80.286
102226,140577,19647,-0.035,-0.947,-0.169,-0.305,0.366,0.427,80.29
102226,140780,7953,-0.035,-0.943,-0.171,-0.122,0.305,0.366,80.296
102217,140577,19647,-0.037,-0.947,-0.168,-0.122,0.305,0.366,80.3
102217,140777,7960,-0.04,-0.953,-0.167,0.061,0.366,0.488,80.306
102248,140577,19647,-0.04,-0.954,-0.166,0.061,0.366,0.488,80.31
102248,140758,7960,-0.042,-0.953,-0.166,0.061,0.488,0.61,80.316
102227,140577,19647,-0.044,-0.948,-0.164,0.061,0.488,0.61,80.32
102227,140761,7959,-0.042,-0.942,-0.167,0.244,0.427,0.244,80.326
102224,140577,19647,-0.038,-0.944,-0.166,0.244,0.427,0.244,80.33
102224,140778,7960,-0.036,-0.951,-0.163,0.244,0.244,0.244,80.336
102220,140577,19647,-0.037,-0.958,-0.171,0.244,0.244,0.244,80.34
102220,140765,7948,-0.041,-0.957,-0.176,-0.549,0.366,0.61,80.346
102218,140577,19647,-0.044,-0.956,-0.172,-0.549,0.366,0.61,80.349
102218,140776,7963,-0.043,-0.95,-0.173,-0.122,0.305,0.549,80.356
102231,140577,19647,-0.04,-0.943,-0.17,-0.122,0.305,0.549,80.359
102231,140782,7948,-0.041,-0.94,-0.165,0.427,0.061,0.183,80.366
102225,140577,19647,-0.041,-0.944,-0.164,0.427,0.061,0.183,80.369
102225,140778,7968,-0.043,-0.947,-0.166,0.122,0.122,0.244,80.375
102218,140577,19647,-0.041,-0.949,-0.17,0.122,0.122,0.244,80.379
102218,140773,7969,-0.041,-0.951,-0.175,-0.305,0.305,0.366,80.385
102220,140577,19647,-0.044,-0.955,-0.172,-0.305,0.305,0.366,80.389
102220,140788,7957,-0.041,-0.95,-0.165,0.061,0.244,0.244,80.395
102236,140577,19647,-0.041,-0.949,-0.167,0.061,0.244,0.244,80.399
102236,140774,7973,-0.039,-0.948,-0.165,0.366,0.061,0.122,80.405
102225,140577,19647,-0.041,-0.945,-0.16,0.366,0.061,0.122,80.409
102225,140759,7956,-0.04,-0.951,-0.16,0.305,0.183,0.122,80.415
102229,140577,19647,-0.039,-0.958,-0.164,0.305,0.183,0.122,80.419
102229,140776,7969,-0.039,-0.957,-0.165,-0.244,0.427,0.244,80.425
102232,140577,19647,-0.043,-0.955,-0.171,-0.244,0.427,0.244,80.429
102232,140769,7959,-0.044,-0.948,-0.171,-0.305,0.488,0.366,80.435
102214,140577,19647,-0.041,-0.946,-0.171,-0.305,0.488,0.366,80.439
102214,140784,7953,-0.041,-0.945,-0.172,0.305,0.305,0.183,80.445
102223,140577,19647,-0.04,-0.941,-0.166,0.305,0.305,0.183,80.448
102223,140763,7968,-0.038,-0.945,-0.165,0.549,0.061,0,80.455
102239,140577,19647,-0.036,-0.953,-0.172,0.549,0.061,0,80.458
102239,140775,7967,-0.037,-0.955,-0.169,0.305,0.061,0,80.465
102223,140577,19647,-0.038,-0.958,-0.168,0.305,0.061,0,80.468
102223,140769,7957,-0.039,-0.959,-0.166,0.244,0.061,0.122,80.474
102238,140577,19647,-0.041,-0.956,-0.166,0.244,0.061,0.122,80.478
102238,140762,7948,-0.036,-0.947,-0.169,0.549,0.061,0.183,80.484
102222,140577,19647,-0.038,-0.944,-0.167,0.549,0.061,0.183,80.488
102222,140749,7962,-0.039,-0.944,-0.161,0.671,0.122,0.183,80.494
102216,140577,19647,-0.038,-0.951,-0.151,0.671,0.122,0.183,80.498
102216,140780,7959,-0.039,-0.953,-0.152,0.549,0.183,0.122,80.504
102239,140577,19647,-0.035,-0.949,-0.161,0.549,0.183,0.122,80.508
102239,140770,7953,-0.038,-0.945,-0.169,-0.488,0.427,0.366,80.514
102214,140577,19647,-0.04,-0.952,-0.173,-0.488,0.427,0.366,80.518
102214,140762,7958,-0.042,-0.959,-0.172,-0.793,0.671,0.488,80.524
102217,140577,19647,-0.04,-0.962,-0.171,-0.793,0.671,0.488,80.528
102217,140781,7960,-0.037,-0.956,-0.166,-0.183,0.427,0.366,80.534
102236,140577,19647,-0.039,-0.945,-0.166,-0.183,0.427,0.366,80.538
102236,140775,7954,-0.033,-0.939,-0.156,0.183,0.427,0.183,80.544
102226,140577,19647,-0.034,-0.943,-0.154,0.183,0.427,0.183,80.547
102226,140793,7966,-0.034,-0.95,-0.159,0,0.366,0.244,80.554
102234,140577,19647,-0.035,-0.958,-0.167,0,0.366,0.244,80.557
102234,140789,7955,-0.039,-0.96,-0.175,-0.976,0.671,0.793,80.564
102204,140577,19647,-0.043,-0.955,-0.177,-0.976,0.671,0.793,80.567
102204,140755,7955,-0.042,-0.949,-0.17,-0.488,0.732,0.671,80.573
102204,140577,19647,-0.041,-0.943,-0.163,-0.488,0.732,0.671,80.577
102204,140767,7971,-0.037,-0.942,-0.157,0.366,0.488,0.244,80.583
102240,140577,19647,-0.035,-0.945,-0.156,0.366,0.488,0.244,80.587
102240,140784,7952,-0.035,-0.952,-0.163,-0.488,0.61,0.488,80.593
102222,140577,19647,-0.042,-0.958,-0.169,-0.488,0.61,0.488,80.597
102222,140775,7955,-0.045,-0.961,-0.172,-1.341,0.915,0.854,80.603
102227,140577,19647,-0.043,-0.962,-0.172,-1.341,0.915,0.854,80.607
102227,140766,7968,-0.044,-0.953,-0.172,-0.61,0.732,0.793,80.613
102211,140577,19647,-0.042,-0.945,-0.169,-0.61,0.732,0.793,80.617
102211,140794,7959,-0.04,-0.94,-0.167,0.366,0.549,0.671,80.623
102230,140577,19647,-0.04,-0.936,-0.166,0.366,0.549,0.671,80.627
102230,140778,7967,-0.038,-0.938,-0.163,0.244,0.427,0.427,80.633
102233,140577,19647,-0.037,-0.945,-0.166,0.244,0.427,0.427,80.637
102233,140787,7948,-0.04,-0.949,-0.17,-0.366,0.427,0.366,80.643
102234,140577,19647,-0.041,-0.954,-0.17,-0.366,0.427,0.366,80.646
102234,140763,7960,-0.044,-0.953,-0.173,-0.366,0.549,0.366,80.653
102228,140577,19647,-0.041,-0.953,-0.166,-0.366,0.549,0.366,80.656
102228,140776,7950,-0.04,-0.952,-0.164,0.244,0.488,0.183,80.663
102226,140577,19647,-0.038,-0.943,-0.162,0.244,0.488,0.183,80.666
102226,140766,7968,-0.041,-0.944,-0.157,0.183,0.366,0.122,80.672
102209,140577,19647,-0.04,-0.951,-0.163,0.183,0.366,0.122,80.676
102209,140778,7957,-0.041,-0.958,-0.166,-0.549,0.488,0.488,80.682
102205,140577,19647,-0.041,-0.965,-0.167,-0.549,0.488,0.488,80.686
102205,140781,7950,-0.042,-0.96,-0.169,-0.793,0.61,0.732,80.692
102237,140577,19647,-0.043,-0.95,-0.167,-0.793,0.61,0.732,80.696
