103283,141340,8041,-0.038,-0.935,-0.193,0.427,-0.549,-0.488,331.986
103308,141345,19647,-0.034,-0.945,-0.19,-0.549,-0.244,-0.549,331.99
103308,141345,8026,-0.036,-0.95,-0.191,-0.549,-0.244,-0.549,331.996
103282,141345,19647,-0.038,-0.951,-0.182,-0.915,0.366,-0.488,332
103282,141315,8031,-0.039,-0.949,-0.19,-0.915,0.366,-0.488,332.006
103285,141345,19647,-0.036,-0.946,-0.212,-1.098,0.61,-0.427,332.01
103285,141349,8036,-0.035,-0.956,-0.208,-1.098,0.61,-0.427,332.016
103290,141345,19647,-0.029,-0.962,-0.206,-0.793,0.61,-0.122,332.02
103290,141353,8027,-0.032,-0.957,-0.216,-0.793,0.61,-0.122,332.026
103299,141345,19647,-0.037,-0.955,-0.213,-0.244,0.671,0.183,332.029
103299,141330,8029,-0.037,-0.953,-0.205,-0.244,0.671,0.183,332.036
103309,141345,19647,-0.032,-0.945,-0.202,0.549,0.183,0.488,332.039
103309,141349,8033,-0.029,-0.939,-0.21,0.549,0.183,0.488,332.046
103300,141345,19647,-0.033,-0.937,-0.212,0.427,0.061,0.549,332.049
103300,141349,8041,-0.042,-0.936,-0.203,0.427,0.061,0.549,332.055
103326,141345,19647,-0.04,-0.928,-0.196,0.488,0.244,0.549,332.059
103326,141371,8032,-0.034,-0.924,-0.203,0.488,0.244,0.549,332.065
103296,141345,19647,-0.036,-0.929,-0.194,0.366,0.183,0.305,332.069
103296,141381,8029,-0.033,-0.939,-0.185,0.366,0.183,0.305,332.075
103318,141345,19647,-0.029,-0.938,-0.193,-0.122,0.61,0.122,332.079
103318,141374,8035,-0.032,-0.946,-0.204,-0.122,0.61,0.122,332.085
103321,141345,19647,-0.034,-0.953,-0.205,-0.915,1.402,0.122,332.089
103321,141356,8030,-0.035,-0.952,-0.21,-0.915,1.402,0.122,332.095
103297,141345,19647,-0.035,-0.95,-0.223,-0.854,1.463,0.305,332.099
103297,141377,8024,-0.037,-0.957,-0.224,-0.854,1.463,0.305,332.105
103301,141345,19647,-0.04,-0.955,-0.226,-0.671,1.098,0.488,332.109
103301,141347,8046,-0.038,-0.952,-0.218,-0.671,1.098,0.488,332.115
103316,141345,19647,-0.034,-0.944,-0.211,-0.183,0.366,0.793,332.119
103316,141363,8025,-0.037,-0.935,-0.22,-0.183,0.366,0.793,332.125
103323,141345,19647,-0.04,-0.933,-0.22,0.061,-0.061,0.671,332.128
103323,141335,8036,-0.042,-0.934,-0.216,0.061,-0.061,0.671,332.135
103323,141345,19647,-0.045,-0.929,-0.204,1.037,-0.305,0.549,332.138
103323,141359,8047,-0.045,-0.924,-0.199,1.037,-0.305,0.549,332.145
103318,141345,19647,-0.043,-0.929,-0.197,1.28,-0.244,-0.183,332.148
103318,141350,8034,-0.041,-0.937,-0.188,1.28,-0.244,-0.183,332.154
103301,141345,19647,-0.037,-0.933,-0.2,0.915,-0.183,-0.366,332.158
103301,141338,8025,-0.038,-0.937,-0.209,0.915,-0.183,-0.366,332.164
103296,141345,19647,-0.044,-0.951,-0.201,0.244,0.549,-0.488,332.168
103296,141313,8026,-0.047,-0.953,-0.196,0.244,0.549,-0.488,332.174
103291,141345,19647,-0.043,-0.948,-0.197,0.854,0.488,-0.427,332.178
103291,141329,8041,-0.036,-0.951,-0.183,0.854,0.488,-0.427,332.184
103303,141345,19647,-0.033,-0.951,-0.196,0.61,0.122,-0.427,332.188
103303,141320,8039,-0.033,-0.957,-0.21,0.61,0.122,-0.427,332.194
103292,141345,19647,-0.037,-0.967,-0.211,-0.732,0.793,0.244,332.198
103292,141325,8037,-0.039,-0.959,-0.213,-0.732,0.793,0.244,332.204
103302,141345,19647,-0.043,-0.943,-0.205,-0.549,0.61,0.671,332.208
103302,141321,8045,-0.041,-0.937,-0.207,-0.549,0.61,0.671,332.214
103286,141345,19647,-0.041,-0.937,-0.207,-0.549,0.61,0.671,332.218
103286,141325,8041,-0.034,-0.939,-0.208,-0.427,0.122,0.61,332.224
103294,141089,19647,-0.034,-0.939,-0.208,-0.427,0.122,0.61,332.227
103294,141309,8035,-0.039,-0.936,-0.207,-0.976,0.244,0.915,332.234
103288,141089,19647,-0.039,-0.936,-0.207,-0.976,0.244,0.915,332.237
103288,141303,8032,-0.033,-0.927,-0.201,-0.427,0.122,0.732,332.244
103295,141345,19647,-0.033,-0.927,-0.201,-0.427,0.122,0.732,332.247
103295,141312,8038,-0.035,-0.938,-0.203,-0.122,-0.061,0.244,332.253
103296,141345,19647,-0.035,-0.938,-0.203,-0.122,-0.061,0.244,332.257
103296,141333,8033,-0.035,-0.946,-0.202,-0.061,0.305,0.244,332.263
103273,141089,19647,-0.035,-0.946,-0.202,-0.061,0.305,0.244,332.267
103273,141306,8037,-0.037,-0.95,-0.212,-0.366,0.671,0.122,332.273
103276,141345,19647,-0.037,-0.95,-0.212,-0.366,0.671,0.122,332.277
103276,141313,8033,-0.036,-0.945,-0.213,-0.061,0.61,0.183,332.283
103289,141089,19647,-0.036,-0.945,-0.213,-0.061,0.61,0.183,332.287
103289,141303,8035,-0.036,-0.95,-0.213,0.122,0.366,0.244,332.293
103273,141345,19647,-0.036,-0.95,-0.213,0.122,0.366,0.244,332.297
103273,141333,8031,-0.031,-0.946,-0.204,0.366,0,0.305,332.303
103294,141089,19647,-0.031,-0.946,-0.204,0.366,0,0.305,332.307
103294,141305,8041,-0.035,-0.939,-0.201,0.427,-0.244,0.488,332.313
103262,141345,19647,-0.035,-0.939,-0.201,0.427,-0.244,0.488,332.317
103262,141322,8043,-0.041,-0.934,-0.183,0.671,-0.061,0.366,332.323
103266,141345,19647,-0.041,-0.934,-0.183,0.671,-0.061,0.366,332.326
103266,141346,8031,-0.037,-0.935,-0.193,0.671,0.244,0.122,332.333
103254,141345,19647,-0.037,-0.935,-0.193,0.671,0.244,0.122,332.336
103254,141332,8033,-0.036,-0.947,-0.208,-0.183,0.61,0.061,332.343
103304,141345,19647,-0.036,-0.947,-0.208,-0.183,0.61,0.061,332.346
103304,141318,8025,-0.04,-0.955,-0.205,-0.61,1.098,0.244,332.352
103282,141089,19647,-0.04,-0.955,-0.205,-0.61,1.098,0.244,332.356
103282,141310,8015,-0.042,-0.941,-0.216,-0.183,0.854,0.244,332.362
103288,141345,19647,-0.042,-0.941,-0.216,-0.183,0.854,0.244,332.366
103288,141316,8022,-0.04,-0.946,-0.194,0.488,0.305,0.305,332.372
103281,141345,19647,-0.038,-0.949,-0.178,0.488,0.305,0.305,332.376
103281,141319,8027,-0.034,-0.94,-0.205,0.122,0.122,0.366,332.382
103264,141345,19647,-0.037,-0.943,-0.233,0.122,0.122,0.366,332.386
103264,141342,8035,-0.043,-0.953,-0.225,-1.646,0.671,0.915,332.392
103287,141345,19647,-0.044,-0.949,-0.211,-1.646,0.671,0.915,332.396
103287,141332,8036,-0.041,-0.939,-0.201,-0.488,0.366,0.915,332.402
103287,141345,19647,-0.044,-0.928,-0.193,-0.488,0.366,0.915,332.406
103287,141324,8026,-0.042,-0.927,-0.195,0.122,0,0.366,332.412
103288,141089,19647,-0.036,-0.928,-0.209,0.122,0,0.366,332.416
103288,141300,8016,-0.032,-0.938,-0.22,-0.61,0.244,0.488,332.422
103288,141345,19647,-0.036,-0.95,-0.211,-0.61,0.244,0.488,332.426
103288,141321,8040,-0.037,-0.945,-0.208,-0.488,0.427,0.427,332.432
103265,141089,19647,-0.037,-0.938,-0.209,-0.488,0.427,0.427,332.435
103265,141293,8041,-0.034,-0.937,-0.21,0.061,0.122,0.061,332.442
103286,141345,19647,-0.031,-0.94,-0.208,0.061,0.122,0.061,332.445
103286,141326,8022,-0.031,-0.939,-0.204,0.244,0.061,-0.061,332.451
103269,141345,19647,-0.037,-0.936,-0.207,0.244,0.061,-0.061,332.455
103269,141322,8025,-0.042,-0.94,-0.198,0.366,0.183,-0.061,332.461
103274,141345,19647,-0.04,-0.942,-0.176,0.366,0.183,-0.061,332.465
103274,141313,8033,-0.029,-0.944,-0.181,0.366,0.061,-0.183,332.471
103293,141345,19647,-0.026,-0.957,-0.204,0.366,0.061,-0.183,332.475
103293,141313,8032,-0.034,-0.969,-0.214,-1.098,0.488,0.488,332.481
103275,141089,19647,-0.039,-0.967,-0.2,-1.098,0.488,0.488,332.485
103275,141301,8032,-0.043,-0.95,-0.198,-0.671,0.915,1.159,332.491
103270,141345,19647,-0.043,-0.934,-0.209,-0.671,0.915,1.159,332.495
103270,141318,8039,-0.044,-0.933,-0.214,-0.061,0.61,0.61,332.501
103293,141345,19647,-0.035,-0.937,-0.203,-0.061,0.61,0.61,332.505
103293,141322,8039,-0.029,-0.934,-0.202,-0.061,0.305,0.793,332.511
103295,141345,19647,-0.033,-0.937,-0.208,-0.061,0.305,0.793,332.515
103295,141328,8022,-0.039,-0.941,-0.213,-0.793,0.549,0.549,332.521
103311,141345,19647,-0.04,-0.934,-0.217,-0.793,0.549,0.549,332.524
103311,141324,8025,-0.038,-0.93,-0.214,0.122,0.244,0.366,332.531
103292,141345,19647,-0.038,-0.932,-0.207,0.122,0.244,0.366,332.534
103292,141337,8040,-0.039,-0.938,-0.195,1.159,-0.244,-0.244,332.541
103300,141345,19647,-0.034,-0.938,-0.194,1.159,-0.244,-0.244,332.544
103300,141314,8032,-0.033,-0.937,-0.209,0.305,-0.183,-0.305,332.55
103309,141345,19647,-0.035,-0.953,-0.22,0.305,-0.183,-0.305,332.554
103309,141341,8034,-0.04,-0.962,-0.209,-0.61,0.122,0,332.56
103284,141345,19647,-0.039,-0.957,-0.197,-0.61,0.122,0,332.564
103284,141346,8040,-0.04,-0.951,-0.191,-0.305,0.366,0.122,332.57
103294,141345,19647,-0.039,-0.944,-0.19,-0.305,0.366,0.122,332.574
103294,141350,8034,-0.036,-0.936,-0.202,-0.183,0.305,0.122,332.58
103280,141345,19647,-0.034,-0.939,-0.205,-0.183,0.305,0.122,332.584
103280,141345,8044,-0.036,-0.942,-0.208,-0.976,0.915,0.793,332.59
103282,141345,19647,-0.044,-0.945,-0.201,-0.976,0.915,0.793,332.594
103282,141346,8033,-0.044,-0.941,-0.201,-0.549,1.22,0.61,332.6
103307,141345,19647,-0.041,-0.93,-0.215,-0.549,1.22,0.61,332.604
103307,141346,8024,-0.038,-0.931,-0.225,0.366,0.793,0.183,332.61
103291,141345,19647,-0.034,-0.942,-0.217,0.366,0.793,0.183,332.614
103291,141327,8024,-0.034,-0.946,-0.21,0.671,0.427,0.061,332.62
103301,141345,19647,-0.036,-0.949,-0.209,0.671,0.427,0.061,332.624
103301,141333,8042,-0.04,-0.95,-0.209,0.549,0.244,0.122,332.63
103291,141345,19647,-0.038,-0.948,-0.196,0.549,0.244,0.122,332.633
103291,141369,8039,-0.037,-0.947,-0.181,0.61,-0.122,0.122,332.64
103297,141345,19647,-0.036,-0.941,-0.186,0.61,-0.122,0.122,332.643
103297,141358,8035,-0.031,-0.945,-0.198,-0.549,0,0.427,332.649
103293,141345,19647,-0.036,-0.949,-0.204,-0.549,0,0.427,332.653
103293,141350,8028,-0.04,-0.952,-0.203,-1.463,0.488,0.915,332.659
103309,141345,19647,-0.043,-0.953,-0.194,-1.463,0.488,0.915,332.663
103309,141361,8040,-0.042,-0.94,-0.197,-0.915,0.732,0.854,332.669
103306,141345,19647,-0.037,-0.93,-0.208,-0.915,0.732,0.854,332.673
103306,141347,8034,-0.032,-0.929,-0.217,-0.366,0.61,0.427,332.679
103323,141345,19647,-0.036,-0.936,-0.219,-0.366,0.61,0.427,332.683
103323,141326,8036,-0.033,-0.94,-0.223,-0.183,0.732,0.366,332.689
103325,141345,19647,-0.033,-0.938,-0.219,-0.183,0.732,0.366,332.693
103325,141359,8032,-0.038,-0.936,-0.219,0.427,0.305,-0.244,332.699
103308,141345,19647,-0.032,-0.941,-0.222,0.427,0.305,-0.244,332.703
103308,141350,8032,-0.028,-0.942,-0.208,1.463,-0.366,-0.732,332.709
103313,141345,19647,-0.029,-0.946,-0.202,1.463,-0.366,-0.732,332.713
103313,141363,8028,-0.031,-0.945,-0.199,1.28,-0.549,-0.61,332.719
103313,141345,19647,-0.042,-0.945,-0.199,1.28,-0.549,-0.61,332.722
103313,141354,8037,-0.045,-0.94,-0.196,0.488,-0.366,-0.183,332.729
103300,141345,19647,-0.041,-0.938,-0.195,0.488,-0.366,-0.183,332.732
103300,141359,8024,-0.039,-0.944,-0.189,-0.183,-0.366,0.061,332.739
103294,141345,19647,-0.043,-0.948,-0.182,-0.183,-0.366,0.061,332.742
103294,141341,8022,-0.04,-0.947,-0.194,-0.549,0.183,0.183,332.748
103311,141345,19647,-0.046,-0.952,-0.2,-0.549,0.183,0.183,332.752
103311,141348,8043,-0.044,-0.952,-0.191,-0.854,0.732,0.427,332.758
103333,141345,19647,-0.04,-0.947,-0.188,-0.854,0.732,0.427,332.762
103333,141356,8029,-0.035,-0.944,-0.196,-0.549,0.671,0.671,332.768
103317,141345,19647,-0.034,-0.945,-0.203,-0.549,0.671,0.671,332.772
103317,141383,8047,-0.034,-0.949,-0.203,-0.549,0.671,0.732,332.778
103340,141345,19647,-0.032,-0.947,-0.206,-0.549,0.671,0.732,332.782
103340,141372,8037,-0.034,-0.941,-0.206,-0.244,0.61,0.671,332.788
103320,141345,19647,-0.036,-0.934,-0.202,-0.244,0.61,0.671,332.792
103320,141374,8039,-0.032,-0.934,-0.199,0.183,0.366,0.366,332.798
103331,141345,19647,-0.027,-0.937,-0.208,0.183,0.366,0.366,332.802
103331,141367,8043,-0.029,-0.94,-0.212,-0.183,0.305,0.366,332.808
103337,141345,19647,-0.029,-0.94,-0.212,-0.183,0.305,0.366,332.812
103337,141382,8047,-0.035,-0.937,-0.204,-0.183,0.427,0.427,332.818
103331,141345,19647,-0.035,-0.937,-0.204,-0.183,0.427,0.427,332.822
103331,141354,8017,-0.039,-0.933,-0.205,-0.366,0.366,0,332.828
103344,141345,19647,-0.039,-0.933,-0.205,-0.366,0.366,0,332.831
103344,141411,8040,-0.031,-0.949,-0.208,-0.549,0.122,0.061,332.838
103321,141345,19647,-0.031,-0.949,-0.208,-0.549,0.122,0.061,332.841
103321,141368,8045,-0.036,-0.947,-0.203,-0.793,0.366,0.183,332.847
103310,141345,19647,-0.036,-0.947,-0.203,-0.793,0.366,0.183,332.851
103310,141389,8042,-0.038,-0.944,-0.196,-0.671,0.305,0.244,332.857
103335,141345,19647,-0.038,-0.944,-0.196,-0.671,0.305,0.244,332.861
103335,141381,8032,-0.03,-0.953,-0.216,-0.976,0.183,0.671,332.867
103318,141345,19647,-0.03,-0.953,-0.216,-0.976,0.183,0.671,332.871
103318,141348,8040,-0.038,-0.946,-0.196,-0.488,0.549,0.976,332.877
103314,141345,19647,-0.038,-0.946,-0.196,-0.488,0.549,0.976,332.881
103314,141370,8028,-0.043,-0.934,-0.209,-0.061,0.488,0.793,332.887
103328,141345,19647,-0.043,-0.934,-0.209,-0.061,0.488,0.793,332.891
103328,141363,8032,-0.036,-0.936,-0.204,0.122,0.244,0.915,332.897
103307,141345,19647,-0.036,-0.936,-0.204,0.122,0.244,0.915,332.901
103307,141351,8050,-0.043,-0.935,-0.203,0.305,0.427,0.61,332.907
103302,141345,19647,-0.043,-0.935,-0.203,0.305,0.427,0.61,332.911
103302,141367,8037,-0.042,-0.931,-0.204,0.61,0.305,0.305,332.917
103308,141345,19647,-0.042,-0.931,-0.204,0.61,0.305,0.305,332.92
103308,141353,8038,-0.035,-0.948,-0.198,0.549,0.244,0,332.927
103324,141345,19647,-0.035,-0.948,-0.198,0.549,0.244,0,332.93
103324,141407,8044,-0.037,-0.95,-0.191,0.183,0.61,-0.061,332.937
103336,141345,19647,-0.037,-0.95,-0.191,0.183,0.61,-0.061,332.94
103336,141385,8034,-0.036,-0.951,-0.209,-0.427,0.854,0.183,332.946
103334,141345,19647,-0.036,-0.951,-0.209,-0.427,0.854,0.183,332.95
103334,141402,8030,-0.032,-0.952,-0.192,-0.427,0.854,0.183,332.956
103356,141345,19647,-0.03,-0.943,-0.199,-0.366,0.732,0.427,332.96
103356,141395,8028,-0.038,-0.942,-0.214,-0.366,0.732,0.427,332.966
103350,141345,19647,-0.043,-0.948,-0.213,-1.28,0.976,0.427,332.97
103350,141407,8027,-0.042,-0.949,-0.205,-1.28,0.976,0.427,332.976
103330,141345,19647,-0.04,-0.943,-0.2,-0.915,0.854,0.671,332.98
103330,141416,8042,-0.041,-0.933,-0.206,-0.915,0.854,0.671,332.986
103342,141345,19647,-0.038,-0.93,-0.208,-0.244,0.427,0.244,332.99
103342,141409,8030,-0.035,-0.926,-0.208,-0.244,0.427,0.244,332.996
103330,141345,19647,-0.037,-0.932,-0.207,-0.732,0.366,0.305,333
103330,141371,8032,-0.038,-0.945,-0.206,-0.732,0.366,0.305,333.006
103322,141345,19647,-0.035,-0.945,-0.21,-1.098,0.61,0.305,333.01
103322,141382,8040,-0.035,-0.946,-0.221,-1.098,0.61,0.305,333.016
103319,141345,19647,-0.036,-0.953,-0.218,-0.549,0.549,0.488,333.02
103319,141364,8026,-0.039,-0.947,-0.21,-0.549,0.549,0.488,333.026
103320,141345,19647,-0.038,-0.94,-0.205,0.732,0.183,0.671,333.029
103320,141352,8020,-0.036,-0.938,-0.208,0.732,0.183,0.671,333.036
103303,141345,19647,-0.035,-0.94,-0.202,0.488,0.061,0.427,333.039
103303,141333,8040,-0.036,-0.939,-0.199,0.488,0.061,0.427,333.045
103324,141345,19647,-0.032,-0.948,-0.202,-0.244,0.244,0.427,333.049
103324,141349,8038,-0.033,-0.95,-0.199,-0.244,0.244,0.427,333.055
103314,141345,19647,-0.034,-0.943,-0.188,-0.427,0.549,0.488,333.059
103314,141382,8033,-0.039,-0.934,-0.191,-0.427,0.549,0.488,333.065
103330,141345,19647,-0.037,-0.93,-0.205,-0.488,0.61,0.427,333.069
103330,141370,8033,-0.032,-0.934,-0.214,-0.488,0.61,0.427,333.075
103324,141345,19647,-0.036,-0.946,-0.209,-0.732,0.854,0.671,333.079
103324,141365,8038,-0.038,-0.949,-0.202,-0.732,0.854,0.671,333.085
103318,141345,19647,-0.037,-0.941,-0.208,-0.671,0.854,0.488,333.089
103318,141344,8028,-0.041,-0.941,-0.209,-0.671,0.854,0.488,333.095
103322,141345,19647,-0.037,-0.943,-0.21,-0.366,0.427,0.122,333.099
103322,141371,8040,-0.037,-0.94,-0.208,-0.366,0.427,0.122,333.105
103353,141345,19647,-0.035,-0.942,-0.203,0.244,0.244,0.244,333.109
103353,141360,8045,-0.035,-0.944,-0.208,0.244,0.244,0.244,333.115
103320,141345,19647,-0.036,-0.942,-0.208,-0.061,0.244,0.183,333.118
103320,141351,8045,-0.038,-0.941,-0.2,-0.061,0.244,0.183,333.125
103319,141345,19647,-0.037,-0.942,-0.185,-0.305,0.183,0.183,333.128
103319,141359,8035,-0.036,-0.937,-0.187,-0.305,0.183,0.183,333.135
103316,141345,19647,-0.036,-0.941,-0.199,-0.61,0.122,0.183,333.138
103316,141368,8026,-0.038,-0.949,-0.207,-0.61,0.122,0.183,333.145
103352,141345,19647,-0.038,-0.951,-0.205,-1.037,0.793,0.427,333.148
103352,141359,8039,-0.038,-0.945,-0.204,-1.037,0.793,0.427,333.154
103331,141345,19647,-0.037,-0.947,-0.203,-0.915,1.037,0.488,333.158
103331,141362,8045,-0.04,-0.944,-0.202,-0.915,1.037,0.488,333.164
103355,141345,19647,-0.039,-0.937,-0.211,-0.61,0.976,0.366,333.168
103355,141397,8040,-0.037,-0.935,-0.214,-0.61,0.976,0.366,333.174
103348,141345,19647,-0.036,-0.944,-0.212,-0.305,0.793,0.305,333.178
103348,141407,8050,-0.034,-0.949,-0.218,-0.305,0.793,0.305,333.184
103366,141345,19647,-0.029,-0.951,-0.207,-0.061,0.61,0.366,333.188
103366,141392,8024,-0.03,-0.947,-0.205,-0.061,0.61,0.366,333.194
103337,141345,19647,-0.032,-0.944,-0.201,0.366,0.244,0.366,333.198
103337,141364,8041,-0.035,-0.944,-0.203,0.366,0.244,0.366,333.204
103315,141345,19647,-0.033,-0.944,-0.213,0.427,-0.061,0.732,333.208
103315,141383,8044,-0.032,-0.943,-0.21,0.427,-0.061,0.732,333.214
103325,141345,19647,-0.037,-0.938,-0.207,0.305,0.183,0.793,333.217
103325,141358,8045,-0.042,-0.932,-0.203,0.305,0.183,0.793,333.224
103336,141345,19647,-0.045,-0.931,-0.198,0,0.366,0.549,333.227
103336,141385,8029,-0.041,-0.931,-0.196,0,0.366,0.549,333.234
103334,141345,19647,-0.035,-0.937,-0.203,-0.427,0.183,0.366,333.237
103334,141372,8028,-0.035,-0.947,-0.208,-0.427,0.183,0.366,333.243
103307,141345,19647,-0.037,-0.952,-0.201,-0.854,0.366,0.305,333.247
103307,141388,8032,-0.042,-0.945,-0.197,-0.854,0.366,0.305,333.253
103308,141345,19647,-0.046,-0.941,-0.21,-0.793,0.549,0.183,333.257
103308,141379,8043,-0.042,-0.942,-0.212,-0.793,0.549,0.183,333.263
103331,141345,19647,-0.038,-0.938,-0.203,-0.366,0.366,0.122,333.267
103331,141366,8031,-0.037,-0.944,-0.197,-0.366,0.366,0.122,333.273
103336,141345,19647,-0.038,-0.948,-0.186,-0.305,0.488,0.122,333.277
103336,141379,8038,-0.037,-0.945,-0.2,-0.305,0.488,0.122,333.283
103333,141345,19647,-0.037,-0.943,-0.221,-0.854,0.854,0.366,333.287
103333,141350,8033,-0.039,-0.95,-0.219,-0.854,0.854,0.366,333.293
103325,141345,19647,-0.037,-0.947,-0.212,-0.183,0.915,0.671,333.297
103325,141361,8046,-0.039,-0.937,-0.211,-0.183,0.915,0.671,333.303
103334,141345,19647,-0.039,-0.928,-0.209,1.098,0.244,0.305,333.307
103334,141369,8029,-0.034,-0.927,-0.212,1.098,0.244,0.305,333.313
103336,141345,19647,-0.027,-0.94,-0.218,0.61,-0.122,0,333.316
103336,141352,8048,-0.027,-0.948,-0.21,0.61,-0.122,0,333.323
103347,141345,19647,-0.034,-0.946,-0.198,0.305,0.061,0.305,333.326
103347,141365,8037,-0.04,-0.937,-0.198,0.305,0.061,0.305,333.333
103303,141345,19647,-0.042,-0.931,-0.201,0.732,-0.122,0.061,333.336
103303,141363,8044,-0.036,-0.938,-0.197,0.732,-0.122,0.061,333.342
103338,141345,19647,-0.036,-0.948,-0.191,0.366,-0.061,0,333.346
103338,141391,8044,-0.035,-0.956,-0.187,0.366,-0.061,0,333.352
103356,141345,19647,-0.04,-0.955,-0.195,-0.61,0.488,0.305,333.356
103356,141365,8035,-0.042,-0.943,-0.197,-0.61,0.488,0.305,333.362
103360,141345,19647,-0.039,-0.949,-0.193,-1.159,0.61,0.488,333.366
103360,141376,8049,-0.038,-0.951,-0.196,-1.159,0.61,0.488,333.372
103364,141345,19647,-0.034,-0.951,-0.209,-1.098,0.671,0.793,333.376
103364,141371,8048,-0.036,-0.95,-0.216,-1.098,0.671,0.793,333.382
103338,141345,19647,-0.038,-0.94,-0.212,-0.671,0.61,0.793,333.386
103338,141388,8038,-0.035,-0.932,-0.208,-0.671,0.61,0.793,333.392
103349,141345,19647,-0.035,-0.931,-0.206,-0.122,0.305,0.61,333.396
103349,141400,8046,-0.035,-0.934,-0.214,-0.122,0.305,0.61,333.402
103349,141345,19647,-0.035,-0.934,-0.214,-0.122,0.305,0.61,333.406
103349,141381,8027,-0.036,-0.938,-0.21,-0.183,0.244,0.366,333.412
103352,141345,19647,-0.036,-0.938,-0.21,-0.183,0.244,0.366,333.416
103352,141370,8031,-0.031,-0.938,-0.192,0.61,0.122,0.061,333.422
103350,141345,19647,-0.031,-0.938,-0.192,0.61,0.122,0.061,333.425
103350,141376,8036,-0.035,-0.944,-0.204,0.793,0.061,-0.061,333.432
103373,141345,19647,-0.035,-0.944,-0.204,0.793,0.061,-0.061,333.435
103373,141393,8031,-0.037,-0.955,-0.187,-0.183,0.61,0.183,333.441
103383,141345,19647,-0.037,-0.955,-0.187,-0.183,0.61,0.183,333.445
103383,141373,8051,-0.036,-0.944,-0.209,-0.366,1.037,0.488,333.451
103376,141345,19647,-0.036,-0.944,-0.209,-0.366,1.037,0.488,333.455
103376,141369,8048,-0.026,-0.958,-0.188,-0.366,0.915,0.61,333.461
103355,141345,19647,-0.026,-0.958,-0.188,-0.366,0.915,0.61,333.465
103355,141362,8050,-0.039,-0.954,-0.213,-1.707,1.463,1.28,333.471
103365,141345,19647,-0.039,-0.954,-0.213,-1.707,1.463,1.28,333.475
103365,141380,8033,-0.043,-0.944,-0.213,-2.195,1.463,1.768,333.481
103366,141345,19647,-0.043,-0.944,-0.213,-2.195,1.463,1.768,333.485
103366,141422,8026,-0.04,-0.927,-0.21,-0.793,0.854,1.768,333.491
103359,141345,19647,-0.04,-0.927,-0.21,-0.793,0.854,1.768,333.495
103359,141388,8032,-0.045,-0.924,-0.209,-0.366,0.488,1.28,333.501
103390,141345,19647,-0.045,-0.924,-0.209,-0.366,0.488,1.28,333.505
103390,141403,8039,-0.042,-0.93,-0.207,-0.61,0.671,0.976,333.511
103365,141345,19647,-0.042,-0.93,-0.207,-0.61,0.671,0.976,333.514
103365,141401,8049,-0.042,-0.933,-0.199,-0.122,0.549,0.244,333.521
103369,141345,19647,-0.042,-0.933,-0.199,-0.122,0.549,0.244,333.524
103369,141400,8037,-0.038,-0.939,-0.185,0,0.305,-0.061,333.531
103360,141345,19647,-0.038,-0.939,-0.185,0,0.305,-0.061,333.534
103360,141388,8039,-0.036,-0.963,-0.213,-0.976,0.671,-0.183,333.54
103352,141345,19647,-0.036,-0.963,-0.213,-0.976,0.671,-0.183,333.544
103352,141393,8033,-0.041,-0.967,-0.212,-2.134,1.22,0.488,333.55
103351,141345,19647,-0.04,-0.956,-0.218,-2.134,1.22,0.488,333.554
103351,141367,8037,-0.041,-0.953,-0.224,-1.585,0.915,0.793,333.56
103338,141345,19647,-0.043,-0.959,-0.205,-1.585,0.915,0.793,333.564
103338,141404,8046,-0.039,-0.946,-0.191,-0.122,0.305,0.915,333.57
103366,141345,19647,-0.036,-0.934,-0.199,-0.122,0.305,0.915,333.574
103366,141395,8037,-0.038,-0.929,-0.209,0.061,0.244,0.915,333.58
103371,141345,19647,-0.039,-0.928,-0.209,0.061,0.244,0.915,333.584
103371,141399,8049,-0.038,-0.925,-0.211,0.061,0.305,0.854,333.59
103363,141345,19647,-0.038,-0.927,-0.206,0.061,0.305,0.854,333.594
103363,141383,8050,-0.034,-0.928,-0.202,-0.122,0.305,0.244,333.6
103368,141345,19647,-0.032,-0.926,-0.208,-0.122,0.305,0.244,333.604
103368,141406,8034,-0.031,-0.939,-0.211,-0.854,0.305,-0.366,333.61
103342,141345,19647,-0.031,-0.954,-0.199,-0.854,0.305,-0.366,333.614
103342,141396,8049,-0.034,-0.953,-0.192,-1.037,0.427,-0.244,333.62
103363,141345,19647,-0.035,-0.95,-0.199,-1.037,0.427,-0.244,333.623
103363,141411,8041,-0.036,-0.955,-0.211,-1.341,0.732,-0.061,333.63
103358,141345,19647,-0.041,-0.96,-0.214,-1.341,0.732,-0.061,333.633
103358,141407,8054,-0.044,-0.959,-0.203,-1.524,0.793,0.671,333.639
103367,141345,19647,-0.042,-0.955,-0.199,-1.524,0.793,0.671,333.643
103367,141410,8032,-0.047,-0.947,-0.202,-0.915,0.549,0.854,333.649
103363,141345,19647,-0.048,-0.937,-0.199,-0.915,0.549,0.854,333.653
103363,141415,8057,-0.047,-0.937,-0.196,-0.915,0.427,1.098,333.659
103378,141345,19647,-0.044,-0.939,-0.188,-0.915,0.427,1.098,333.663
103378,141449,8028,-0.04,-0.936,-0.199,-1.524,0.671,1.22,333.669
103391,141345,19647,-0.043,-0.938,-0.213,-1.524,0.671,1.22,333.673
103391,141433,8053,-0.045,-0.941,-0.214,-1.829,1.037,0.976,333.679
103379,141345,19647,-0.045,-0.939,-0.214,-1.829,1.037,0.976,333.683
103379,141440,8046,-0.038,-0.938,-0.215,-0.793,0.61,0.793,333.689
103366,141345,19647,-0.032,-0.936,-0.213,-0.793,0.61,0.793,333.693
103366,141420,8053,-0.031,-0.937,-0.214,-0.366,0.244,0.488,333.699
103380,141345,19647,-0.034,-0.936,-0.214,-0.366,0.244,0.488,333.703
103380,141421,8069,-0.034,-0.941,-0.216,-0.549,0.244,0.671,333.709
103373,141345,19647,-0.035,-0.948,-0.219,-0.549,0.244,0.671,333.712
103373,141416,8044,-0.03,-0.945,-0.215,-0.427,0.305,0.61,333.719
103354,141345,19647,-0.032,-0.94,-0.2,-0.427,0.305,0.61,333.722
103354,141398,8058,-0.03,-0.938,-0.197,0,0,0.427,333.729
103363,141345,19647,-0.031,-0.937,-0.206,0,0,0.427,333.732
103363,141438,8046,-0.035,-0.936,-0.21,-0.915,0.183,0.61,333.738
103396,141345,19647,-0.041,-0.938,-0.214,-0.915,0.183,0.61,333.742
103396,141407,8042,-0.043,-0.938,-0.215,-1.341,0.549,0.549,333.748
103397,141345,19647,-0.042,-0.941,-0.209,-1.341,0.549,0.549,333.752
103397,141435,8042,-0.041,-0.931,-0.204,-0.366,0.122,0.305,333.758
103407,141345,19647,-0.041,-0.93,-0.202,-0.366,0.122,0.305,333.762
103407,141439,8051,-0.041,-0.939,-0.2,-0.427,-0.061,-0.183,333.768
103405,141345,19647,-0.04,-0.944,-0.213,-0.427,-0.061,-0.183,333.772
103405,141447,8047,-0.04,-0.953,-0.229,-1.524,0.244,0.061,333.778
103419,141345,19647,-0.04,-0.958,-0.226,-1.524,0.244,0.061,333.782
103419,141432,8054,-0.043,-0.952,-0.223,-0.732,0.183,0.122,333.788
103393,141345,19647,-0.041,-0.944,-0.211,-0.732,0.183,0.122,333.792
103393,141412,8047,-0.039,-0.941,-0.216,0.366,-0.305,0,333.798
103408,141345,19647,-0.036,-0.95,-0.216,0.366,-0.305,0,333.802
103408,141434,8045,-0.037,-0.947,-0.204,0.671,-0.549,0.122,333.808
103378,141345,19647,-0.033,-0.942,-0.201,0.671,-0.549,0.122,333.812
103378,141452,8039,-0.036,-0.942,-0.203,0.427,-0.549,0.427,333.818
103402,141345,19647,-0.042,-0.938,-0.202,0.427,-0.549,0.427,333.821
103402,141440,8049,-0.043,-0.936,-0.201,0.366,-0.366,0.61,333.828
103388,141345,19647,-0.044,-0.932,-0.19,0.366,-0.366,0.61,333.831
103388,141452,8033,-0.038,-0.929,-0.183,0.244,-0.183,0.244,333.837
103371,141345,19647,-0.039,-0.927,-0.183,0.244,-0.183,0.244,333.841
103371,141443,8061,-0.037,-0.927,-0.195,-0.671,0.183,0.122,333.847
103404,141345,19647,-0.035,-0.934,-0.212,-0.671,0.183,0.122,333.851
103404,141421,8048,-0.038,-0.95,-0.21,-1.585,0.854,-0.122,333.857
103407,141345,19647,-0.037,-0.96,-0.199,-1.585,0.854,-0.122,333.861
103407,141451,8057,-0.032,-0.956,-0.201,-0.854,0.793,-0.061,333.867
103410,141345,19647,-0.03,-0.954,-0.214,-0.854,0.793,-0.061,333.871
103410,141452,8046,-0.034,-0.954,-0.217,-0.976,0.854,0.061,333.877
103380,141345,19647,-0.034,-0.957,-0.208,-0.976,0.854,0.061,333.881
103380,141451,8047,-0.034,-0.956,-0.207,-0.793,0.793,0.427,333.887
103369,141345,19647,-0.035,-0.947,-0.21,-0.793,0.793,0.427,333.891
103369,141402,8039,-0.033,-0.941,-0.208,-0.671,0.549,0.549,333.897
103354,141345,19647,-0.035,-0.934,-0.205,-0.671,0.549,0.549,333.901
103354,141396,8036,-0.031,-0.925,-0.203,-0.549,0.488,0.61,333.907
103351,141345,19647,-0.033,-0.931,-0.203,-0.549,0.488,0.61,333.91
103351,141414,8048,-0.039,-0.932,-0.206,-0.61,0.732,0.61,333.917
103351,141345,19647,-0.037,-0.932,-0.208,-0.61,0.732,0.61,333.92
103351,141405,8038,-0.034,-0.936,-0.208,-0.793,0.915,0.488,333.927
103347,141345,19647,-0.031,-0.942,-0.212,-0.793,0.915,0.488,333.93
103347,141399,8055,-0.033,-0.945,-0.206,-0.732,1.037,0.366,333.936
103329,141345,19647,-0.035,-0.945,-0.206,-0.732,1.037,0.366,333.94
103329,141395,8043,-0.041,-0.943,-0.21,-0.488,1.098,0.488,333.946
103361,141345,19647,-0.041,-0.946,-0.214,-0.488,1.098,0.488,333.95
103361,141377,8028,-0.043,-0.95,-0.209,-0.366,0.976,0.427,333.956
103319,141345,19647,-0.036,-0.95,-0.197,-0.366,0.976,0.427,333.96
103319,141385,8060,-0.037,-0.949,-0.207,-0.122,0.671,0.549,333.966
103312,141345,19647,-0.043,-0.943,-0.223,-0.122,0.671,0.549,333.97
103312,141365,8030,-0.044,-0.945,-0.21,-0.244,0.671,0.61,333.976
103319,141345,19647,-0.046,-0.94,-0.203,-0.244,0.671,0.61,333.98
103319,141372,8047,-0.041,-0.935,-0.207,-0.061,0.488,0.61,333.986
103338,141345,19647,-0.041,-0.935,-0.207,-0.061,0.488,0.61,333.99
103338,141372,8035,-0.045,-0.933,-0.205,-0.366,0.671,0.427,333.996
103329,141345,19647,-0.045,-0.933,-0.205,-0.366,0.671,0.427,334
103329,141389,8036,-0.035,-0.946,-0.21,-0.915,0.854,0.366,334.006
103329,141345,19647,-0.035,-0.946,-0.21,-0.915,0.854,0.366,334.01
103329,141396,8042,-0.037,-0.945,-0.215,-1.341,1.037,0.61,334.016
103345,141345,19647,-0.037,-0.945,-0.215,-1.341,1.037,0.61,334.019
103345,141402,8039,-0.041,-0.935,-0.217,-0.854,0.854,0.732,334.026
103335,141345,19647,-0.041,-0.935,-0.217,-0.854,0.854,0.732,334.029
103335,141406,8024,-0.041,-0.938,-0.202,0,0.549,0.366,334.035
103331,141345,19647,-0.041,-0.938,-0.202,0,0.549,0.366,334.039
103331,141383,8045,-0.034,-0.935,-0.225,-0.61,0.427,0.183,334.045
103342,141345,19647,-0.034,-0.935,-0.225,-0.61,0.427,0.183,334.049
103342,141424,8035,-0.042,-0.945,-0.2,-0.488,0.366,0.366,334.055
103345,141345,19647,-0.042,-0.945,-0.2,-0.488,0.366,0.366,334.059
103345,141361,8036,-0.038,-0.941,-0.215,-0.183,0.244,-0.061,334.065
103323,141345,19647,-0.038,-0.941,-0.215,-0.183,0.244,-0.061,334.069
103323,141380,8038,-0.032,-0.94,-0.209,-0.244,0.183,0.061,334.075
103316,141345,19647,-0.032,-0.94,-0.209,-0.244,0.183,0.061,334.079
103316,141367,8036,-0.039,-0.95,-0.195,-0.488,0.549,0.183,334.085
103326,141345,19647,-0.039,-0.95,-0.195,-0.488,0.549,0.183,334.089
103326,141379,8044,-0.036,-0.943,-0.199,-0.427,0.793,0.366,334.095
103317,141345,19647,-0.036,-0.943,-0.199,-0.427,0.793,0.366,334.099
103317,141364,8048,-0.035,-0.941,-0.199,-0.854,0.976,0.366,334.105
103327,141345,19647,-0.035,-0.941,-0.199,-0.854,0.976,0.366,334.108
103327,141360,8040,-0.031,-0.955,-0.222,-1.159,1.22,0.793,334.115
103318,141345,19647,-0.031,-0.955,-0.222,-1.159,1.22,0.793,334.118
103318,141360,8038,-0.036,-0.954,-0.22,-0.854,1.037,1.159,334.125
103343,141345,19647,-0.036,-0.954,-0.22,-0.854,1.037,1.159,334.128
103343,141386,8041,-0.037,-0.952,-0.221,-0.854,1.037,1.159,334.134
103338,141345,19647,-0.038,-0.94,-0.222,0.244,0.427,0.976,334.138
103338,141365,8029,-0.036,-0.93,-0.217,0.244,0.427,0.976,334.144
103320,141345,19647,-0.036,-0.924,-0.211,1.159,-0.061,0.854,334.148
103320,141361,8048,-0.04,-0.923,-0.209,1.159,-0.061,0.854,334.154
103322,141345,19647,-0.041,-0.927,-0.194,0.793,-0.122,0.366,334.158
103322,141358,8044,-0.04,-0.933,-0.197,0.793,-0.122,0.366,334.164
103312,141345,19647,-0.039,-0.937,-0.21,0.061,0.244,0,334.168
103312,141354,8040,-0.041,-0.942,-0.209,0.061,0.244,0,334.174
103332,141345,19647,-0.041,-0.948,-0.199,0.061,0.488,0.061,334.178
103332,141375,8044,-0.038,-0.945,-0.189,0.061,0.488,0.061,334.184
103319,141345,19647,-0.038,-0.942,-0.207,-0.183,0.671,0,334.188
103319,141372,8045,-0.042,-0.95,-0.227,-0.183,0.671,0,334.194
103305,141345,19647,-0.045,-0.961,-0.223,-0.915,0.732,0.366,334.198
103305,141376,8037,-0.044,-0.962,-0.217,-0.915,0.732,0.366,334.204
103329,141345,19647,-0.038,-0.946,-0.214,-0.061,0.427,0.671,334.208
103329,141375,8042,-0.038,-0.936,-0.215,-0.061,0.427,0.671,334.214
103307,141345,19647,-0.034,-0.938,-0.222,0.061,-0.244,0.427,334.217
103307,141346,8039,-0.035,-0.941,-0.222,0.061,-0.244,0.427,334.224
103298,141345,19647,-0.036,-0.942,-0.218,-0.366,-0.061,0.854,334.227
103298,141363,8039,-0.042,-0.94,-0.199,-0.366,-0.061,0.854,334.233
103300,141345,19647,-0.047,-0.931,-0.193,0.305,0.061,0.671,334.237
103300,141349,8037,-0.042,-0.922,-0.203,0.305,0.061,0.671,334.243
103301,141345,19647,-0.036,-0.926,-0.21,0.427,-0.244,0.366,334.247
103301,141364,8050,-0.035,-0.94,-0.201,0.427,-0.244,0.366,334.253
103314,141345,19647,-0.037,-0.941,-0.2,0.061,0.122,0.244,334.257
103314,141394,8045,-0.041,-0.939,-0.205,0.061,0.122,0.244,334.263
103319,141345,19647,-0.04,-0.946,-0.192,-0.488,0.61,0,334.267
103319,141352,8031,-0.037,-0.942,-0.193,-0.488,0.61,0,334.273
103314,141345,19647,-0.034,-0.942,-0.209,-0.549,0.61,0.122,334.277
103314,141371,8044,-0.03,-0.952,-0.22,-0.549,0.61,0.122,334.283
103319,141345,19647,-0.034,-0.964,-0.216,-0.854,1.098,0.488,334.287
103319,141366,8036,-0.039,-0.96,-0.209,-0.854,1.098,0.488,334.293
103331,141345,19647,-0.037,-0.953,-0.207,-0.61,0.854,0.732,334.297
103331,141388,8031,-0.034,-0.95,-0.213,-0.61,0.854,0.732,334.303
103331,141345,19647,-0.032,-0.947,-0.213,-0.305,0.244,0.915,334.307
103331,141367,8047,-0.033,-0.941,-0.214,-0.305,0.244,0.915,334.313
103320,141345,19647,-0.036,-0.937,-0.209,0.305,0.183,1.159,334.316
103320,141401,8040,-0.036,-0.93,-0.214,0.305,0.183,1.159,334.323
103327,141345,19647,-0.037,-0.926,-0.212,0.549,0.122,0.854,334.326
103327,141374,8049,-0.034,-0.923,-0.205,0.549,0.122,0.854,334.332
103316,141345,19647,-0.034,-0.921,-0.208,0.366,0,0.549,334.336
103316,141362,8050,-0.038,-0.927,-0.209,0.366,0,0.549,334.342
103342,141345,19647,-0.039,-0.936,-0.211,-0.244,0.244,0.244,334.346
103342,141386,8045,-0.037,-0.942,-0.198,-0.244,0.244,0.244,334.352
103361,141345,19647,-0.039,-0.945,-0.193,0.061,0.305,0,334.356
103361,141412,8049,-0.042,-0.95,-0.196,0.061,0.305,0,334.362
103376,141345,19647,-0.039,-0.951,-0.203,0.549,0.427,-0.061,334.366
103376,141416,8056,-0.038,-0.948,-0.214,0.549,0.427,-0.061,334.372
103396,141345,19647,-0.042,-0.953,-0.212,0,0.854,0.244,334.376
103396,141445,8053,-0.045,-0.955,-0.208,0,0.854,0.244,334.382
103422,141345,19647,-0.047,-0.953,-0.215,-0.305,1.037,0.732,334.386
103422,141456,8041,-0.048,-0.941,-0.217,-0.305,1.037,0.732,334.392
103433,141345,19647,-0.046,-0.942,-0.212,-0.122,0.854,0.793,334.396
103433,141472,8051,-0.042,-0.943,-0.214,-0.122,0.854,0.793,334.402
103448,141345,19647,-0.036,-0.933,-0.21,0.427,0.488,0.793,334.405
103448,141492,8054,-0.034,-0.931,-0.212,0.427,0.488,0.793,334.412
103449,141345,19647,-0.032,-0.938,-0.214,0.244,0.122,0.61,334.415
103449,141461,8055,-0.036,-0.939,-0.21,0.244,0.122,0.61,334.422
103455,141345,19647,-0.037,-0.933,-0.21,0,0.244,0.671,334.425
103455,141472,8055,-0.037,-0.934,-0.221,0,0.244,0.671,334.431
103447,141345,19647,-0.038,-0.936,-0.215,0.061,0.305,0.366,334.435
103447,141471,8047,-0.042,-0.94,-0.198,0.061,0.305,0.366,334.441
103440,141345,19647,-0.038,-0.936,-0.186,0.732,0,0.122,334.445
103440,141501,8059,-0.036,-0.933,-0.192,0.732,0,0.122,334.451
103445,141345,19647,-0.038,-0.938,-0.209,-0.183,0.183,-0.305,334.455
103445,141495,8047,-0.042,-0.95,-0.213,-0.183,0.183,-0.305,334.461
103444,141345,19647,-0.042,-0.954,-0.207,-0.732,0.915,0.061,334.465
103444,141490,8059,-0.045,-0.947,-0.202,-0.732,0.915,0.061,334.471
103470,141345,19647,-0.043,-0.941,-0.198,0.183,0.671,-0.366,334.475
103470,141510,8053,-0.04,-0.942,-0.2,0.183,0.671,-0.366,334.481
103452,141345,19647,-0.028,-0.946,-0.217,0.244,0.427,-0.366,334.485
103452,141481,8053,-0.028,-0.954,-0.224,0.244,0.427,-0.366,334.491
103461,141345,19647,-0.036,-0.957,-0.221,-0.793,0.915,0.427,334.495
103461,141499,8050,-0.045,-0.951,-0.223,-0.793,0.915,0.427,334.501
103464,141345,19647,-0.045,-0.945,-0.218,-0.244,0.732,0.488,334.505
103464,141476,8049,-0.04,-0.931,-0.213,-0.244,0.732,0.488,334.511
103431,141345,19647,-0.038,-0.926,-0.209,0.854,-0.305,0.244,334.514
103431,141456,8068,-0.036,-0.939,-0.205,0.854,-0.305,0.244,334.521
103433,141345,19647,-0.036,-0.941,-0.199,0.915,-0.305,0.366,334.524
103433,141455,8054,-0.042,-0.936,-0.204,0.915,-0.305,0.366,334.53
103416,141345,19647,-0.044,-0.93,-0.217,0.854,-0.122,0.244,334.534
103416,141470,8056,-0.04,-0.932,-0.206,0.854,-0.122,0.244,334.54
103421,141345,19647,-0.036,-0.939,-0.201,1.341,-0.305,-0.122,334.544
103421,141464,8057,-0.035,-0.94,-0.203,1.341,-0.305,-0.122,334.55
103429,141345,19647,-0.039,-0.946,-0.197,0.915,-0.061,-0.244,334.554
103429,141464,8056,-0.038,-0.952,-0.191,0.915,-0.061,-0.244,334.56
103440,141345,19647,-0.032,-0.943,-0.198,0.366,-0.183,-0.061,334.564
103440,141435,8043,-0.03,-0.944,-0.205,0.366,-0.183,-0.061,334.57
103428,141345,19647,-0.03,-0.944,-0.205,0.366,-0.183,-0.061,334.574
103428,141421,8059,-0.039,-0.948,-0.208,-0.244,0.061,0.122,334.58
103422,141345,19647,-0.039,-0.948,-0.208,-0.244,0.061,0.122,334.584
103422,141471,8057,-0.041,-0.935,-0.209,-0.427,0.549,0.427,334.59
103396,141345,19647,-0.041,-0.935,-0.209,-0.427,0.549,0.427,334.594
103396,141444,8048,-0.035,-0.931,-0.212,0.061,0.366,0.122,334.6
103401,141345,19647,-0.035,-0.931,-0.212,0.061,0.366,0.122,334.603
103401,141477,8050,-0.031,-0.942,-0.212,0.244,0.183,0,334.61
103405,141345,19647,-0.031,-0.942,-0.212,0.244,0.183,0,334.613
103405,141468,8054,-0.041,-0.943,-0.212,0,0.427,0.061,334.62
103393,141345,19647,-0.041,-0.943,-0.212,0,0.427,0.061,334.623
103393,141440,8047,-0.04,-0.939,-0.201,0.427,0.244,-0.061,334.629
103390,141345,19647,-0.04,-0.939,-0.201,0.427,0.244,-0.061,334.633
103390,141412,8055,-0.033,-0.951,-0.188,0.854,0.061,-0.061,334.639
103363,141345,19647,-0.033,-0.951,-0.188,0.854,0.061,-0.061,334.643
103363,141450,8042,-0.037,-0.95,-0.207,0.061,0.305,0.183,334.649
103379,141345,19647,-0.037,-0.95,-0.207,0.061,0.305,0.183,334.653
103379,141417,8046,-0.042,-0.942,-0.211,-0.61,0.793,0.854,334.659
103376,141345,19647,-0.042,-0.942,-0.211,-0.61,0.793,0.854,334.663
103376,141411,8028,-0.039,-0.932,-0.213,-0.427,0.732,0.671,334.669
103373,141345,19647,-0.039,-0.932,-0.213,-0.427,0.732,0.671,334.673
103373,141430,8045,-0.04,-0.944,-0.211,-0.61,0.671,0.488,334.679
103376,141345,19647,-0.04,-0.944,-0.211,-0.61,0.671,0.488,334.683
103376,141433,8036,-0.036,-0.933,-0.2,-0.305,0.427,0.427,334.689
103375,141345,19647,-0.036,-0.933,-0.2,-0.305,0.427,0.427,334.693
103375,141417,8054,-0.038,-0.939,-0.212,0.061,0.183,0.305,334.699
103388,141345,19647,-0.038,-0.939,-0.212,0.061,0.183,0.305,334.702
103388,141445,8053,-0.041,-0.941,-0.201,0.122,0.244,0.244,334.709
103387,141345,19647,-0.041,-0.941,-0.201,0.122,0.244,0.244,334.712
103387,141387,8038,-0.037,-0.945,-0.211,0.366,0.305,0,334.719
103360,141345,19647,-0.036,-0.946,-0.204,0.366,0.305,0,334.722
103360,141412,8057,-0.039,-0.949,-0.204,0.305,0.366,0.183,334.728
103361,141345,19647,-0.036,-0.946,-0.214,0.305,0.366,0.183,334.732
103361,141423,8044,-0.038,-0.948,-0.22,0.122,0.732,0.183,334.738
103357,141345,19647,-0.04,-0.945,-0.214,0.122,0.732,0.183,334.742
103357,141425,8040,-0.039,-0.942,-0.208,0.427,0.671,0.305,334.748
103378,141345,19647,-0.037,-0.941,-0.209,0.427,0.671,0.305,334.752
103378,141414,8046,-0.036,-0.943,-0.217,0.488,0.183,0.183,334.758
103392,141345,19647,-0.031,-0.942,-0.206,0.488,0.183,0.183,334.762
103392,141448,8045,-0.033,-0.937,-0.202,0.122,0,0.366,334.768
103389,141345,19647,-0.035,-0.94,-0.211,0.122,0,0.366,334.772
103389,141447,8043,-0.038,-0.937,-0.213,-0.061,0.183,0.305,334.778
103399,141345,19647,-0.042,-0.932,-0.21,-0.061,0.183,0.305,334.782
103399,141432,8045,-0.044,-0.927,-0.202,0.61,0.061,0.244,334.788
103392,141345,19647,-0.042,-0.926,-0.203,0.61,0.061,0.244,334.792
103392,141423,8064,-0.041,-0.938,-0.211,0.61,0,-0.061,334.798
103396,141345,19647,-0.041,-0.947,-0.212,0.61,0,-0.061,334.801
103396,141428,8052,-0.043,-0.951,-0.205,0.183,0.122,0,334.808
103408,141345,19647,-0.042,-0.952,-0.209,0.183,0.122,0,334.811
103408,141422,8053,-0.041,-0.954,-0.207,0.427,0,-0.183,334.818
103398,141345,19647,-0.035,-0.955,-0.199,0.427,0,-0.183,334.821
103398,141458,8048,-0.035,-0.949,-0.206,0.732,-0.183,0,334.827
103396,141345,19647,-0.036,-0.946,-0.198,0.732,-0.183,0,334.831
103396,141422,8051,-0.038,-0.945,-0.181,0.244,0,0.183,334.837
103364,141345,19647,-0.037,-0.938,-0.165,0.244,0,0.183,334.841
103364,141381,8050,-0.034,-0.931,-0.203,-0.366,0.671,0.183,334.847
103359,141345,19647,-0.036,-0.945,-0.227,-0.366,0.671,0.183,334.851
103359,141424,8043,-0.033,-0.958,-0.208,-1.28,1.22,0.732,334.857
103378,141345,19647,-0.03,-0.951,-0.203,-1.28,1.22,0.732,334.861
103378,141407,8035,-0.034,-0.948,-0.208,-0.61,1.037,0.854,334.867
103355,141345,19647,-0.039,-0.947,-0.211,-0.61,1.037,0.854,334.871
103355,141396,8050,-0.036,-0.938,-0.208,-0.183,0.488,0.671,334.877
103350,141345,19647,-0.032,-0.939,-0.195,-0.183,0.488,0.671,334.881
103350,141407,8059,-0.033,-0.934,-0.202,0.122,0.549,0.854,334.887
103359,141345,19647,-0.037,-0.929,-0.226,0.122,0.549,0.854,334.891
103359,141396,8053,-0.043,-0.929,-0.22,-0.305,0.549,0.61,334.897
103362,141345,19647,-0.039,-0.933,-0.204,-0.305,0.549,0.61,334.9
103362,141383,8034,-0.034,-0.935,-0.201,0.061,0.244,0.244,334.907
103349,141345,19647,-0.032,-0.943,-0.213,0.061,0.244,0.244,334.91
103349,141385,8042,-0.033,-0.947,-0.214,-0.183,0.305,-0.122,334.917
103343,141345,19647,-0.038,-0.944,-0.21,-0.183,0.305,-0.122,334.92
103343,141384,8051,-0.036,-0.943,-0.208,0.183,0.305,0,334.926
103353,141345,19647,-0.035,-0.942,-0.209,0.183,0.305,0,334.93
103353,141385,8051,-0.038,-0.944,-0.201,0.549,0.244,-0.183,334.936
103363,141345,19647,-0.039,-0.94,-0.198,0.549,0.244,-0.183,334.94
103363,141386,8043,-0.037,-0.945,-0.202,0.549,0.366,-0.244,334.946
103358,141345,19647,-0.038,-0.954,-0.203,0.549,0.366,-0.244,334.95
103358,141389,8048,-0.036,-0.953,-0.207,0.244,0.549,0.061,334.956
103345,141345,19647,-0.038,-0.956,-0.198,0.244,0.549,0.061,334.96
103345,141414,8039,-0.039,-0.952,-0.186,0.122,0.61,0.488,334.966
103361,141345,19647,-0.037,-0.939,-0.193,0.122,0.61,0.488,334.97
103361,141405,8051,-0.038,-0.935,-0.213,-0.244,0.61,0.61,334.976
103349,141345,19647,-0.042,-0.945,-0.216,-0.244,0.61,0.61,334.98
103349,141412,8037,-0.041,-0.946,-0.195,-0.61,0.854,0.915,334.986
103347,141345,19647,-0.036,-0.938,-0.203,-0.61,0.854,0.915,334.99
103347,141388,8051,-0.037,-0.935,-0.217,-0.61,0.61,0.793,334.996
103340,141345,19647,-0.038,-0.933,-0.219,-0.61,0.61,0.793,335
103340,141413,8026,-0.035,-0.933,-0.223,-0.427,0.244,0.549,335.006
103345,141345,19647,-0.039,-0.937,-0.214,-0.427,0.244,0.549,335.009
103345,141389,8053,-0.042,-0.935,-0.206,0.122,0.183,0.305,335.016
103331,141345,19647,-0.043,-0.928,-0.208,0.122,0.183,0.305,335.019
103331,141429,8044,-0.038,-0.938,-0.202,-0.305,-0.183,-0.183,335.025
103350,141345,19647,-0.034,-0.947,-0.187,-0.305,-0.183,-0.183,335.029
103350,141424,8029,-0.034,-0.946,-0.192,-0.61,-0.061,-0.244,335.035
103361,141345,19647,-0.039,-0.951,-0.199,-0.61,-0.061,-0.244,335.039
103361,141398,8038,-0.045,-0.956,-0.199,-1.037,0.854,-0.122,335.045
103356,141345,19647,-0.041,-0.951,-0.203,-1.037,0.854,-0.122,335.049
103356,141429,8042,-0.035,-0.948,-0.207,-0.671,0.793,0.366,335.055
103349,141345,19647,-0.035,-0.952,-0.216,-0.671,0.793,0.366,335.059
103349,141427,8041,-0.037,-0.95,-0.212,-0.61,0.793,0.61,335.065
103364,141345,19647,-0.042,-0.948,-0.219,-0.61,0.793,0.61,335.069
103364,141409,8048,-0.041,-0.943,-0.219,-0.061,0.915,0.732,335.075
103335,141345,19647,-0.031,-0.936,-0.215,-0.061,0.915,0.732,335.079
103335,141407,8051,-0.028,-0.934,-0.219,0.549,0.183,0.549,335.085
103346,141345,19647,-0.029,-0.933,-0.211,0.549,0.183,0.549,335.089
103346,141398,8031,-0.034,-0.93,-0.212,0.366,0,0.549,335.095
103354,141345,19647,-0.04,-0.929,-0.202,0.366,0,0.549,335.098
103354,141404,8044,-0.039,-0.933,-0.191,0.427,-0.122,0.366,335.105
103339,141345,19647,-0.033,-0.936,-0.191,0.427,-0.122,0.366,335.108
103339,141403,8039,-0.036,-0.941,-0.185,0.061,-0.183,0.122,335.115
103316,141345,19647,-0.037,-0.944,-0.188,0.061,-0.183,0.122,335.118
103316,141372,8062,-0.039,-0.944,-0.198,-0.427,0.427,0.183,335.124
103354,141345,19647,-0.043,-0.947,-0.197,-0.427,0.427,0.183,335.128
103354,141407,8055,-0.045,-0.945,-0.199,-1.037,0.793,0.244,335.134
103363,141345,19647,-0.037,-0.947,-0.205,-1.037,0.793,0.244,335.138
103363,141402,8048,-0.039,-0.95,-0.202,-1.28,0.793,0.366,335.144
103361,141345,19647,-0.04,-0.954,-0.207,-1.28,0.793,0.366,335.148
103361,141415,8040,-0.039,-0.952,-0.206,-1.22,0.915,0.549,335.154
103345,141345,19647,-0.037,-0.949,-0.209,-1.22,0.915,0.549,335.158
103345,141412,8054,-0.036,-0.947,-0.215,-1.037,0.854,0.671,335.164
103374,141345,19647,-0.036,-0.947,-0.215,-1.037,0.854,0.671,335.168
103374,141417,8051,-0.038,-0.938,-0.204,-0.244,0.366,0.671,335.174
103376,141345,19647,-0.038,-0.938,-0.204,-0.244,0.366,0.671,335.178
103376,141407,8053,-0.034,-0.931,-0.209,-0.305,0.244,0.549,335.184
103342,141345,19647,-0.034,-0.931,-0.209,-0.305,0.244,0.549,335.188
103342,141409,8036,-0.035,-0.937,-0.206,-0.488,0.427,0.244,335.194
103344,141345,19647,-0.035,-0.937,-0.206,-0.488,0.427,0.244,335.198
103344,141400,8041,-0.039,-0.945,-0.21,-0.549,0.549,0.183,335.204
103347,141345,19647,-0.039,-0.945,-0.21,-0.549,0.549,0.183,335.207
103347,141402,8064,-0.035,-0.948,-0.208,-0.671,0.793,0.061,335.214
103350,141345,19647,-0.035,-0.948,-0.208,-0.671,0.793,0.061,335.217
103350,141432,8018,-0.036,-0.95,-0.214,-0.793,0.732,0.305,335.223
103339,141345,19647,-0.036,-0.95,-0.214,-0.793,0.732,0.305,335.227
103339,141422,8038,-0.035,-0.947,-0.211,-0.488,0.549,0.488,335.233
103348,141345,19647,-0.035,-0.947,-0.211,-0.488,0.549,0.488,335.237
103348,141443,8041,-0.037,-0.94,-0.214,-0.183,0.244,0.61,335.243
103349,141345,19647,-0.037,-0.94,-0.214,-0.183,0.244,0.61,335.247
103349,141425,8038,-0.035,-0.94,-0.204,-0.305,0.122,0.549,335.253
103372,141345,19647,-0.035,-0.94,-0.204,-0.305,0.122,0.549,335.257
103372,141444,8042,-0.04,-0.933,-0.199,-0.61,0.183,0.488,335.263
103388,141345,19647,-0.04,-0.933,-0.199,-0.61,0.183,0.488,335.267
103388,141462,8048,-0.04,-0.943,-0.208,-1.098,0.61,0.488,335.273
103399,141345,19647,-0.04,-0.943,-0.208,-1.098,0.61,0.488,335.277
103399,141443,8044,-0.039,-0.946,-0.198,-0.427,0.549,0.549,335.283
103393,141345,19647,-0.039,-0.946,-0.198,-0.427,0.549,0.549,335.287
103393,141450,8041,-0.042,-0.95,-0.211,-0.061,0.366,0.244,335.293
103383,141345,19647,-0.042,-0.95,-0.211,-0.061,0.366,0.244,335.296
103383,141427,8031,-0.037,-0.943,-0.2,0.366,0.427,0.305,335.303
103350,141345,19647,-0.037,-0.943,-0.2,0.366,0.427,0.305,335.306
103350,141415,8048,-0.034,-0.941,-0.199,0.366,0.427,0.305,335.313
103376,141345,19647,-0.037,-0.939,-0.211,0.366,0.427,0.305,335.316
103376,141409,8047,-0.039,-0.941,-0.214,0.366,0.427,0.305,335.323
103358,141345,19647,-0.042,-0.941,-0.21,0.061,0.488,0.488,335.326
103358,141448,8050,-0.04,-0.943,-0.204,0.061,0.488,0.488,335.332
103376,141345,19647,-0.041,-0.937,-0.207,0.427,0.244,0.305,335.336
103376,141467,8049,-0.04,-0.933,-0.208,0.427,0.244,0.305,335.342
103386,141345,19647,-0.033,-0.933,-0.21,0.732,0.122,-0.061,335.346
103386,141439,8055,-0.025,-0.943,-0.209,0.732,0.122,-0.061,335.352
103371,141345,19647,-0.025,-0.951,-0.203,0.671,0.061,-0.366,335.356
103371,141431,8050,-0.028,-0.944,-0.202,0.671,0.061,-0.366,335.362
103375,141345,19647,-0.032,-0.944,-0.206,0.183,0.549,-0.244,335.366
103375,141463,8046,-0.033,-0.941,-0.21,0.183,0.549,-0.244,335.372
103385,141345,19647,-0.03,-0.94,-0.215,-0.61,0.793,-0.122,335.376
103385,141442,8034,-0.03,-0.95,-0.2,-0.61,0.793,-0.122,335.382
103367,141345,19647,-0.029,-0.955,-0.195,-1.098,0.61,0.122,335.386
103367,141448,8051,-0.035,-0.946,-0.21,-1.098,0.61,0.122,335.392
103353,141345,19647,-0.038,-0.942,-0.221,-1.463,0.61,0.549,335.396
103353,141422,8042,-0.042,-0.942,-0.222,-1.463,0.61,0.549,335.402
103367,141345,19647,-0.044,-0.936,-0.214,-0.671,0.549,0.732,335.405
103367,141424,8038,-0.044,-0.933,-0.208,-0.671,0.549,0.732,335.412
103358,141345,19647,-0.045,-0.935,-0.201,0.183,0.122,0.366,335.415
103358,141412,8032,-0.043,-0.935,-0.198,0.183,0.122,0.366,335.421
103335,141345,19647,-0.039,-0.937,-0.205,0,-0.061,0.244,335.425
103335,141414,8046,-0.043,-0.942,-0.213,0,-0.061,0.244,335.431
103333,141345,19647,-0.048,-0.949,-0.201,-0.305,0.305,0.305,335.435
103333,141413,8036,-0.044,-0.949,-0.19,-0.305,0.305,0.305,335.441
103357,141345,19647,-0.039,-0.95,-0.195,0.244,0.366,0.244,335.445
103357,141431,8048,-0.038,-0.945,-0.21,0.244,0.366,0.244,335.451
103352,141345,19647,-0.034,-0.947,-0.212,0.427,0.244,0.183,335.455
103352,141405,8050,-0.036,-0.956,-0.199,0.427,0.244,0.183,335.461
103351,141345,19647,-0.036,-0.953,-0.19,0.61,0.732,0.549,335.465
103351,141439,8040,-0.037,-0.943,-0.196,0.61,0.732,0.549,335.471
103361,141345,19647,-0.034,-0.937,-0.203,0.427,0.549,0.366,335.475
103361,141416,8053,-0.029,-0.936,-0.211,0.427,0.549,0.366,335.481
103350,141345,19647,-0.027,-0.938,-0.222,-0.244,0.549,0.671,335.485
103350,141428,8048,-0.027,-0.946,-0.214,-0.244,0.549,0.671,335.491
103347,141345,19647,-0.029,-0.943,-0.212,-0.549,0.366,0.793,335.495
103347,141407,8057,-0.032,-0.935,-0.211,-0.549,0.366,0.793,335.501
103339,141345,19647,-0.036,-0.934,-0.214,-0.305,0.244,0.549,335.504
103339,141422,8053,-0.039,-0.933,-0.214,-0.305,0.244,0.549,335.511
103345,141345,19647,-0.034,-0.932,-0.205,0.305,-0.122,0.305,335.514
103345,141394,8042,-0.035,-0.932,-0.196,0.305,-0.122,0.305,335.521
103347,141345,19647,-0.036,-0.928,-0.199,0.183,-0.061,-0.122,335.524
103347,141436,8032,-0.038,-0.935,-0.215,0.183,-0.061,-0.122,335.53
103352,141345,19647,-0.04,-0.948,-0.216,-0.671,0.427,-0.244,335.534
103352,141425,8038,-0.041,-0.951,-0.204,-0.671,0.427,-0.244,335.54
103354,141345,19647,-0.041,-0.946,-0.202,-0.122,0.244,-0.061,335.544
103354,141429,8051,-0.041,-0.947,-0.205,-0.122,0.244,-0.061,335.55
103364,141345,19647,-0.042,-0.942,-0.21,0.183,0.122,-0.305,335.554
103364,141434,8051,-0.042,-0.948,-0.22,0.183,0.122,-0.305,335.56
103364,141345,19647,-0.047,-0.952,-0.212,0,0.366,0.122,335.564
103364,141428,8049,-0.045,-0.949,-0.201,0,0.366,0.122,335.57
103372,141345,19647,-0.041,-0.942,-0.198,0.671,0.122,0.061,335.574
103372,141426,8038,-0.037,-0.936,-0.204,0.671,0.122,0.061,335.58
103386,141345,19647,-0.033,-0.941,-0.202,0.488,-0.366,0.122,335.584
103386,141431,8041,-0.03,-0.945,-0.196,0.488,-0.366,0.122,335.59
103383,141345,19647,-0.036,-0.946,-0.198,0.244,0.122,0.488,335.594
103383,141432,8044,-0.041,-0.943,-0.199,0.244,0.122,0.488,335.6
103367,141345,19647,-0.041,-0.94,-0.2,0,0.549,0.427,335.603
103367,141457,8047,-0.04,-0.937,-0.194,0,0.549,0.427,335.61
103377,141345,19647,-0.033,-0.937,-0.195,0.061,0.61,0.244,335.613
103377,141437,8046,-0.034,-0.94,-0.2,0.061,0.61,0.244,335.619
103361,141345,19647,-0.032,-0.947,-0.208,-0.488,1.037,0.183,335.623
103361,141457,8061,-0.034,-0.955,-0.221,-0.488,1.037,0.183,335.629
103372,141345,19647,-0.037,-0.954,-0.219,-0.915,1.22,0.427,335.633
103372,141459,8068,-0.033,-0.956,-0.205,-0.915,1.22,0.427,335.639
103352,141345,19647,-0.032,-0.946,-0.205,0.061,0.61,0.427,335.643
103352,141463,8048,-0.032,-0.937,-0.214,0.061,0.61,0.427,335.649
103375,141345,19647,-0.031,-0.94,-0.219,-0.061,0.366,0.488,335.653
103375,141448,8052,-0.033,-0.946,-0.21,-0.061,0.366,0.488,335.659
103347,141345,19647,-0.038,-0.938,-0.209,-0.183,0.305,0.854,335.663
103347,141437,8057,-0.039,-0.932,-0.212,-0.183,0.305,0.854,335.669
103363,141345,19647,-0.043,-0.937,-0.2,0.122,0.244,0.488,335.673
103363,141437,8048,-0.042,-0.936,-0.195,0.122,0.244,0.488,335.679
103347,141345,19647,-0.036,-0.938,-0.198,-0.122,0.122,0.366,335.683
103347,141432,8051,-0.035,-0.943,-0.201,-0.122,0.122,0.366,335.689
103357,141345,19647,-0.038,-0.953,-0.198,-0.549,0.671,0.427,335.693
103357,141420,8044,-0.042,-0.952,-0.2,-0.549,0.671,0.427,335.699
103337,141345,19647,-0.045,-0.946,-0.208,-0.244,1.159,0.488,335.702
103337,141427,8054,-0.042,-0.946,-0.201,-0.244,1.159,0.488,335.709
103354,141345,19647,-0.033,-0.943,-0.2,0.122,0.793,0.488,335.712
103354,141438,8036,-0.03,-0.943,-0.212,0.122,0.793,0.488,335.719
103342,141345,19647,-0.036,-0.944,-0.223,-0.061,0.549,0.793,335.722
103342,141419,8052,-0.038,-0.946,-0.218,-0.061,0.549,0.793,335.728
103352,141345,19647,-0.037,-0.948,-0.207,0,0.61,0.915,335.732
103352,141414,8052,-0.034,-0.937,-0.203,0,0.61,0.915,335.738
103330,141345,19647,-0.035,-0.931,-0.207,0.427,0.061,0.488,335.742
103330,141409,8051,-0.034,-0.931,-0.213,0.427,0.061,0.488,335.748
103351,141345,19647,-0.037,-0.938,-0.2,0.122,0.061,0.488,335.752
103351,141390,8053,-0.041,-0.942,-0.189,0.122,0.061,0.488,335.758
103331,141345,19647,-0.041,-0.942,-0.189,0.122,0.061,0.488,335.762
103331,141408,8063,-0.038,-0.938,-0.205,-0.122,0.427,0.305,335.768
103350,141345,19647,-0.038,-0.938,-0.205,-0.122,0.427,0.305,335.772
103350,141389,8037,-0.038,-0.947,-0.207,-0.122,0.549,0,335.778
103350,141345,19647,-0.038,-0.947,-0.207,-0.122,0.549,0,335.782
103350,141417,8056,-0.039,-0.951,-0.203,-0.183,0.793,0.061,335.788
103345,141345,19647,-0.039,-0.951,-0.203,-0.183,0.793,0.061,335.792
103345,141442,8050,-0.033,-0.954,-0.218,-0.427,0.671,0.244,335.798
103349,141345,19647,-0.033,-0.954,-0.218,-0.427,0.671,0.244,335.801
103349,141409,8056,-0.038,-0.956,-0.211,-0.671,0.427,0.61,335.808
103335,141345,19647,-0.038,-0.956,-0.211,-0.671,0.427,0.61,335.811
103335,141434,8050,-0.039,-0.933,-0.207,0,0.244,0.976,335.818
103332,141345,19647,-0.039,-0.933,-0.207,0,0.244,0.976,335.821
103332,141405,8034,-0.043,-0.926,-0.205,0.488,-0.122,1.037,335.827
103337,141345,19647,-0.043,-0.926,-0.205,0.488,-0.122,1.037,335.831
103337,141394,8033,-0.039,-0.924,-0.2,0.488,-0.061,0.61,335.837
103315,141345,19647,-0.039,-0.924,-0.2,0.488,-0.061,0.61,335.841
103315,141425,8057,-0.043,-0.931,-0.207,0.305,0.122,0.183,335.847
103317,141345,19647,-0.043,-0.931,-0.207,0.305,0.122,0.183,335.851
103317,141412,8043,-0.036,-0.948,-0.203,-0.122,0.488,-0.122,335.857
103334,141345,19647,-0.036,-0.948,-0.203,-0.122,0.488,-0.122,335.861
103334,141415,8045,-0.033,-0.957,-0.199,0,0.366,-0.122,335.867
103311,141345,19647,-0.033,-0.957,-0.199,0,0.366,-0.122,335.871
103311,141395,8048,-0.037,-0.953,-0.196,-0.122,0.366,-0.183,335.877
103330,141345,19647,-0.037,-0.953,-0.196,-0.122,0.366,-0.183,335.881
103330,141397,8037,-0.039,-0.951,-0.206,-0.122,0.61,0.244,335.887
103311,141345,19647,-0.039,-0.951,-0.206,-0.122,0.61,0.244,335.891
103311,141389,8063,-0.041,-0.942,-0.213,-0.366,0.793,0.549,335.897
103325,141345,19647,-0.041,-0.942,-0.213,-0.366,0.793,0.549,335.9
103325,141409,8041,-0.036,-0.94,-0.205,-0.305,0.671,0.61,335.907
103321,141345,19647,-0.036,-0.936,-0.204,-0.305,0.671,0.61,335.91
103321,141402,8046,-0.037,-0.935,-0.211,-0.244,0.244,0.793,335.917
103306,141345,19647,-0.037,-0.937,-0.212,-0.244,0.244,0.793,335.92
103306,141397,8049,-0.038,-0.935,-0.213,-0.305,0.061,0.732,335.926
103314,141345,19647,-0.037,-0.934,-0.213,-0.305,0.061,0.732,335.93
103314,141395,8055,-0.035,-0.937,-0.208,0.061,-0.244,0.427,335.936
103324,141345,19647,-0.034,-0.942,-0.198,0.061,-0.244,0.427,335.94
103324,141408,8032,-0.032,-0.943,-0.193,-0.122,-0.183,0.244,335.946
103328,141345,19647,-0.035,-0.943,-0.202,-0.122,-0.183,0.244,335.95
103328,141429,8045,-0.044,-0.944,-0.206,-0.549,0.427,0.122,335.956
103310,141345,19647,-0.041,-0.94,-0.207,-0.549,0.427,0.122,335.96
103310,141397,8048,-0.039,-0.942,-0.203,-0.427,0.549,0.183,335.966
103328,141345,19647,-0.035,-0.949,-0.201,-0.427,0.549,0.183,335.97
103328,141422,8042,-0.036,-0.949,-0.203,-0.427,0.366,0.122,335.976
103322,141345,19647,-0.035,-0.947,-0.202,-0.427,0.366,0.122,335.98
103322,141409,8042,-0.037,-0.941,-0.197,-0.61,0.488,0.366,335.986
103309,141345,19647,-0.042,-0.938,-0.203,-0.61,0.488,0.366,335.99
103309,141404,8051,-0.04,-0.936,-0.207,-0.61,0.793,0.366,335.996
103339,141345,19647,-0.041,-0.938,-0.204,-0.61,0.793,0.366,335.999
103339,141428,8045,-0.038,-0.943,-0.2,-0.793,0.854,0.366,336.006
103324,141345,19647,-0.034,-0.948,-0.207,-0.793,0.854,0.366,336.009
103324,141423,8047,-0.033,-0.95,-0.211,-1.159,0.732,0.366,336.016
103333,141345,19647,-0.034,-0.947,-0.215,-1.159,0.732,0.366,336.019
103333,141414,8039,-0.035,-0.948,-0.218,-0.976,0.732,0.61,336.025
103331,141345,19647,-0.037,-0.951,-0.21,-0.976,0.732,0.61,336.029
103331,141393,8051,-0.037,-0.944,-0.202,-0.122,0.427,0.61,336.035
103324,141345,19647,-0.033,-0.94,-0.193,-0.122,0.427,0.61,336.039
103324,141401,8037,-0.032,-0.943,-0.196,0.183,0.183,0.549,336.045
103317,141345,19647,-0.032,-0.943,-0.203,0.183,0.183,0.549,336.049
103317,141407,8062,-0.032,-0.944,-0.199,-0.427,0.488,0.793,336.055
103328,141345,19647,-0.039,-0.94,-0.197,-0.427,0.488,0.793,336.059
103328,141417,8032,-0.041,-0.936,-0.2,-0.671,0.793,0.793,336.065
103345,141345,19647,-0.042,-0.938,-0.204,-0.671,0.793,0.793,336.069
103345,141435,8035,-0.038,-0.941,-0.203,-0.854,0.976,0.61,336.075
103343,141345,19647,-0.038,-0.947,-0.198,-0.854,0.976,0.61,336.079
103343,141421,8050,-0.036,-0.946,-0.201,-1.098,1.037,0.671,336.085
103345,141345,19647,-0.039,-0.947,-0.215,-1.098,1.037,0.671,336.089
103345,141435,8044,-0.041,-0.953,-0.219,-1.159,1.098,0.793,336.095
103349,141345,19647,-0.038,-0.949,-0.213,-1.159,1.098,0.793,336.098
103349,141432,8037,-0.035,-0.943,-0.213,-0.427,0.671,0.976,336.105
103330,141345,19647,-0.036,-0.939,-0.216,-0.427,0.671,0.976,336.108
103330,141438,8043,-0.039,-0.936,-0.211,-0.549,0.549,0.854,336.115
103340,141345,19647,-0.043,-0.934,-0.211,-0.549,0.549,0.854,336.118
103340,141414,8037,-0.045,-0.935,-0.208,-0.549,0.488,0.793,336.124
103355,141345,19647,-0.04,-0.933,-0.2,-0.549,0.488,0.793,336.128
103355,141453,8059,-0.035,-0.929,-0.203,-0.488,0.183,0.549,336.134
103344,141345,19647,-0.036,-0.937,-0.205,-0.488,0.183,0.549,336.138
103344,141442,8046,-0.04,-0.946,-0.196,-0.854,0.427,0.427,336.144
103351,141345,19647,-0.038,-0.942,-0.198,-0.854,0.427,0.427,336.148
103351,141425,8051,-0.039,-0.938,-0.212,-0.915,0.671,0.427,336.154
103348,141345,19647,-0.04,-0.945,-0.213,-0.915,0.671,0.427,336.158
103348,141422,8045,-0.04,-0.948,-0.207,-0.854,0.854,0.488,336.164
103362,141345,19647,-0.038,-0.952,-0.208,-0.854,0.854,0.488,336.168
103362,141439,8046,-0.037,-0.95,-0.21,-0.61,0.61,0.488,336.174
103356,141345,19647,-0.04,-0.943,-0.208,-0.61,0.61,0.488,336.178
103356,141449,8047,-0.042,-0.942,-0.207,-0.488,0.427,0.61,336.184
103357,141345,19647,-0.043,-0.938,-0.212,-0.488,0.427,0.61,336.188
103357,141455,8048,-0.04,-0.936,-0.22,-0.549,0.366,0.61,336.194
103365,141345,19647,-0.037,-0.941,-0.217,-0.549,0.366,0.61,336.197
103365,141447,8053,-0.04,-0.937,-0.209,-0.427,0.183,0.61,336.204
103365,141345,19647,-0.039,-0.934,-0.206,-0.427,0.183,0.61,336.207
103365,141460,8059,-0.037,-0.937,-0.208,-0.305,0,0.366,336.214
103367,141345,19647,-0.038,-0.937,-0.209,-0.305,0,0.366,336.217
103367,141425,8062,-0.039,-0.94,-0.211,-0.488,0,0.183,336.223
103384,141345,19647,-0.039,-0.939,-0.202,-0.488,0,0.183,336.227
103384,141490,8042,-0.04,-0.938,-0.201,-0.366,0.122,0.122,336.233
103370,141345,19647,-0.045,-0.943,-0.196,-0.366,0.122,0.122,336.237
103370,141451,8062,-0.045,-0.944,-0.188,-0.305,0.244,-0.183,336.243
103373,141345,19647,-0.038,-0.943,-0.196,-0.305,0.244,-0.183,336.247
103373,141502,8056,-0.039,-0.946,-0.204,-0.854,0.305,-0.061,336.253
103383,141345,19647,-0.037,-0.953,-0.205,-0.854,0.305,-0.061,336.257
103383,141452,8049,-0.04,-0.959,-0.199,-1.402,0.732,0.549,336.263
103400,141345,19647,-0.037,-0.96,-0.195,-1.402,0.732,0.549,336.267
103400,141460,8060,-0.035,-0.953,-0.199,-1.402,0.915,0.732,336.273
103398,141345,19647,-0.034,-0.947,-0.215,-1.402,0.915,0.732,336.277
103398,141497,8053,-0.037,-0.943,-0.227,-1.524,0.915,1.037,336.283
103389,141345,19647,-0.04,-0.943,-0.216,-1.524,0.915,1.037,336.287
103389,141463,8052,-0.042,-0.942,-0.211,-0.732,0.854,1.22,336.293
103389,141345,19647,-0.041,-0.929,-0.216,-0.732,0.854,1.22,336.296
103389,141473,8044,-0.037,-0.921,-0.224,-0.122,0.366,0.915,336.303
103390,141345,19647,-0.032,-0.92,-0.223,-0.122,0.366,0.915,336.306
103390,141486,8047,-0.035,-0.928,-0.214,-0.061,0.183,0.244,336.313
103380,141345,19647,-0.035,-0.929,-0.207,-0.061,0.183,0.244,336.316
103380,141464,8055,-0.031,-0.928,-0.203,-0.183,0.305,-0.366,336.322
103382,141345,19647,-0.033,-0.938,-0.211,-0.183,0.305,-0.366,336.326
103382,141446,8054,-0.032,-0.95,-0.204,-0.61,0.366,-0.732,336.332
103357,141345,19647,-0.027,-0.959,-0.198,-0.61,0.366,-0.732,336.336
103357,141464,8040,-0.028,-0.959,-0.199,-0.61,0.549,-0.305,336.342
103382,141345,19647,-0.034,-0.955,-0.204,-0.61,0.549,-0.305,336.346
103382,141466,8052,-0.038,-0.957,-0.201,-0.732,0.732,0.061,336.352
103385,141345,19647,-0.038,-0.957,-0.201,-0.732,0.732,0.061,336.356
103385,141468,8056,-0.041,-0.952,-0.2,-0.976,0.854,0.732,336.362
103392,141345,19647,-0.041,-0.952,-0.2,-0.976,0.854,0.732,336.366
103392,141462,8065,-0.046,-0.935,-0.193,-1.098,0.915,1.098,336.372
103394,141345,19647,-0.046,-0.935,-0.193,-1.098,0.915,1.098,336.376
103394,141474,8052,-0.042,-0.932,-0.195,-1.037,1.22,0.915,336.382
103382,141345,19647,-0.042,-0.932,-0.195,-1.037,1.22,0.915,336.386
103382,141479,8067,-0.041,-0.935,-0.226,-1.037,1.28,0.549,336.392
103384,141345,19647,-0.041,-0.935,-0.226,-1.037,1.28,0.549,336.395
103384,141464,8055,-0.043,-0.943,-0.223,-0.488,0.976,0.488,336.402
103386,141345,19647,-0.043,-0.943,-0.223,-0.488,0.976,0.488,336.405
103386,141462,8060,-0.034,-0.944,-0.215,0.122,0.305,0.305,336.412
103385,141345,19647,-0.034,-0.944,-0.215,0.122,0.305,0.305,336.415
103385,141484,8063,-0.031,-0.95,-0.215,-0.366,0.122,0.366,336.421
103385,141345,19647,-0.031,-0.95,-0.215,-0.366,0.122,0.366,336.425
103385,141477,8057,-0.04,-0.949,-0.219,-0.671,0.427,0.732,336.431
103395,141345,19647,-0.04,-0.949,-0.219,-0.671,0.427,0.732,336.435
103395,141492,8071,-0.039,-0.93,-0.212,-0.183,0.183,0.732,336.441
103392,141345,19647,-0.039,-0.93,-0.212,-0.183,0.183,0.732,336.445
103392,141487,8065,-0.039,-0.935,-0.208,-0.549,0.183,0.549,336.451
103384,141345,19647,-0.039,-0.935,-0.208,-0.549,0.183,0.549,336.455
103384,141478,8054,-0.04,-0.934,-0.204,-0.854,0.427,0.427,336.461
103388,141345,19647,-0.04,-0.934,-0.204,-0.854,0.427,0.427,336.465
103388,141493,8059,-0.037,-0.94,-0.205,-0.854,0.488,0.244,336.471
103409,141345,19647,-0.037,-0.94,-0.205,-0.854,0.488,0.244,336.475
103409,141513,8066,-0.037,-0.944,-0.214,-0.976,0.488,0.244,336.481
103406,141345,19647,-0.037,-0.944,-0.214,-0.976,0.488,0.244,336.485
103406,141501,8063,-0.046,-0.942,-0.212,-1.159,0.549,0.244,336.491
103409,141345,19647,-0.046,-0.942,-0.212,-1.159,0.549,0.244,336.494
103409,141503,8062,-0.046,-0.938,-0.209,-1.159,0.549,0.244,336.501
103420,141345,19647,-0.042,-0.939,-0.213,-0.976,0.366,0.122,336.504
103420,141501,8066,-0.042,-0.943,-0.213,-0.976,0.366,0.122,336.511
103400,141345,19647,-0.042,-0.949,-0.211,-0.427,0.366,0,336.514
103400,141477,8045,-0.043,-0.945,-0.208,-0.427,0.366,0,336.52
103396,141345,19647,-0.044,-0.944,-0.205,-0.061,0.183,0,336.524
103396,141469,8052,-0.041,-0.943,-0.201,-0.061,0.183,0,336.53
103392,141345,19647,-0.037,-0.941,-0.197,0.183,-0.061,-0.122,336.534
103392,141500,8068,-0.035,-0.942,-0.205,0.183,-0.061,-0.122,336.54
103387,141345,19647,-0.034,-0.95,-0.206,-0.183,0.122,0.122,336.544
103387,141475,8061,-0.035,-0.951,-0.199,-0.183,0.122,0.122,336.55
103416,141345,19647,-0.034,-0.942,-0.204,-0.061,0.305,0.488,336.554
103416,141508,8067,-0.034,-0.943,-0.205,-0.061,0.305,0.488,336.56
103422,141345,19647,-0.031,-0.946,-0.206,-0.305,0.61,0.488,336.564
103422,141502,8055,-0.031,-0.947,-0.218,-0.305,0.61,0.488,336.57
103439,141345,19647,-0.031,-0.945,-0.215,-0.549,0.732,0.793,336.574
103439,141523,8071,-0.032,-0.941,-0.212,-0.549,0.732,0.793,336.58
103436,141345,19647,-0.036,-0.931,-0.21,-0.427,0.671,0.854,336.584
103436,141518,8081,-0.037,-0.925,-0.215,-0.427,0.671,0.854,336.59
103442,141345,19647,-0.04,-0.928,-0.227,-0.793,0.671,0.488,336.593
103442,141524,8062,-0.038,-0.938,-0.224,-0.793,0.671,0.488,336.6
103424,141345,19647,-0.032,-0.94,-0.227,-0.854,0.366,0.488,336.603
103424,141511,8060,-0.036,-0.941,-0.213,-0.854,0.366,0.488,336.61
103419,141345,19647,-0.041,-0.932,-0.205,-0.305,-0.183,0.183,336.613
103419,141489,8063,-0.041,-0.929,-0.215,-0.305,-0.183,0.183,336.619
103398,141345,19647,-0.043,-0.945,-0.214,-0.854,0,-0.122,336.623
103398,141499,8056,-0.038,-0.958,-0.203,-0.854,0,-0.122,336.629
103424,141345,19647,-0.038,-0.954,-0.203,-0.61,0.244,0.427,336.633
103424,141503,8073,-0.043,-0.952,-0.2,-0.61,0.244,0.427,336.639
103414,141345,19647,-0.044,-0.955,-0.19,-0.244,0.549,0.427,336.643
103414,141498,8071,-0.039,-0.944,-0.189,-0.244,0.549,0.427,336.649
103410,141345,19647,-0.035,-0.937,-0.21,-0.549,0.671,0.732,336.653
103410,141481,8046,-0.035,-0.943,-0.219,-0.549,0.671,0.732,336.659
103381,141345,19647,-0.041,-0.946,-0.212,-1.646,1.22,1.098,336.663
103381,141475,8059,-0.043,-0.944,-0.205,-1.646,1.22,1.098,336.669
103396,141345,19647,-0.041,-0.937,-0.212,-1.037,0.854,1.28,336.673
103396,141460,8051,-0.035,-0.938,-0.213,-1.037,0.854,1.28,336.679
103389,141345,19647,-0.031,-0.943,-0.203,-0.305,0.366,0.915,336.683
103389,141464,8061,-0.028,-0.946,-0.202,-0.305,0.366,0.915,336.689
103373,141345,19647,-0.028,-0.946,-0.204,-0.61,0.549,1.22,336.692
103373,141441,8064,-0.034,-0.945,-0.21,-0.61,0.549,1.22,336.699
103376,141345,19647,-0.038,-0.941,-0.219,-0.976,0.732,1.159,336.702
103376,141442,8058,-0.038,-0.941,-0.217,-0.976,0.732,1.159,336.709
103358,141345,19647,-0.034,-0.942,-0.204,-0.488,0.793,1.037,336.712
103358,141444,8060,-0.035,-0.938,-0.201,-0.488,0.793,1.037,336.718
103373,141345,19647,-0.036,-0.94,-0.21,-0.671,0.976,0.793,336.722
103373,141460,8071,-0.041,-0.941,-0.211,-0.671,0.976,0.793,336.728
103376,141345,19647,-0.041,-0.935,-0.218,-0.976,1.463,0.854,336.732
103376,141471,8049,-0.042,-0.932,-0.224,-0.976,1.463,0.854,336.738
103369,141345,19647,-0.043,-0.934,-0.226,-0.244,1.28,0.793,336.742
103369,141474,8066,-0.037,-0.938,-0.215,-0.244,1.28,0.793,336.748
103384,141345,19647,-0.034,-0.942,-0.204,0.671,0.671,0.488,336.752
103384,141451,8058,-0.028,-0.94,-0.223,0.671,0.671,0.488,336.758
103366,141345,19647,-0.037,-0.95,-0.222,0.244,0.427,0.549,336.762
103366,141441,8054,-0.042,-0.954,-0.208,0.244,0.427,0.549,336.768
103362,141345,19647,-0.039,-0.939,-0.224,0.366,0.366,0.671,336.772
103362,141455,8052,-0.044,-0.934,-0.228,0.366,0.366,0.671,336.778
103390,141345,19647,-0.045,-0.933,-0.213,0.61,0,0.366,336.782
103390,141443,8050,-0.043,-0.931,-0.203,0.61,0,0.366,336.788
103360,141345,19647,-0.042,-0.93,-0.195,0.915,-0.183,0.061,336.791
103360,141424,8054,-0.042,-0.93,-0.201,0.915,-0.183,0.061,336.798
103367,141345,19647,-0.04,-0.937,-0.208,0.061,0.183,-0.122,336.801
103367,141426,8045,-0.038,-0.941,-0.207,0.061,0.183,-0.122,336.808
103346,141345,19647,-0.038,-0.941,-0.201,-0.305,0.305,0.061,336.811
103346,141471,8044,-0.039,-0.943,-0.2,-0.305,0.305,0.061,336.817
103374,141345,19647,-0.04,-0.943,-0.212,-0.427,0.549,0.061,336.821
103374,141462,8061,-0.04,-0.944,-0.216,-0.427,0.549,0.061,336.827
103367,141345,19647,-0.042,-0.946,-0.212,-0.549,0.732,0.183,336.831
103367,141455,8046,-0.039,-0.95,-0.224,-0.549,0.732,0.183,336.837
103375,141345,19647,-0.041,-0.954,-0.224,-0.183,0.732,0.366,336.841
103375,141443,8053,-0.042,-0.956,-0.22,-0.183,0.732,0.366,336.847
103390,141345,19647,-0.047,-0.944,-0.219,0.793,0.244,0.671,336.851
103390,141458,8055,-0.044,-0.936,-0.225,0.793,0.244,0.671,336.857
103370,141345,19647,-0.041,-0.933,-0.213,1.098,-0.244,0.488,336.861
103370,141454,8052,-0.043,-0.934,-0.206,1.098,-0.244,0.488,336.867
103382,141345,19647,-0.041,-0.937,-0.19,0.854,-0.549,0.488,336.871
103382,141454,8045,-0.034,-0.936,-0.197,0.854,-0.549,0.488,336.877
103394,141345,19647,-0.035,-0.935,-0.207,-0.427,-0.244,0.366,336.881
103394,141451,8056,-0.039,-0.942,-0.209,-0.427,-0.244,0.366,336.887
103378,141345,19647,-0.044,-0.94,-0.206,-0.854,0.488,0.305,336.89
103378,141433,8080,-0.042,-0.942,-0.2,-0.854,0.488,0.305,336.897
103414,141345,19647,-0.037,-0.947,-0.204,-0.183,0.61,0.183,336.9
103414,141459,8050,-0.034,-0.941,-0.213,-0.183,0.61,0.183,336.907
103381,141345,19647,-0.035,-0.944,-0.206,0,0.488,0.183,336.91
103381,141476,8067,-0.036,-0.946,-0.191,0,0.488,0.183,336.916
103400,141345,19647,-0.031,-0.942,-0.203,-0.122,0.671,0.305,336.92
103400,141503,8067,-0.032,-0.945,-0.233,-0.122,0.671,0.305,336.926
103423,141345,19647,-0.037,-0.95,-0.224,-0.671,0.854,0.732,336.93
