103277,141070,7952,-0.031,-0.93,-0.237,-0.061,0,0.366,270.833
103286,141089,19647,-0.031,-0.927,-0.238,0.488,-0.305,0.122,270.837
103286,141061,7951,-0.033,-0.93,-0.226,0.488,-0.305,0.122,270.843
103286,141089,19647,-0.032,-0.935,-0.221,0.427,-0.061,-0.061,270.847
103286,141057,7950,-0.032,-0.943,-0.218,0.427,-0.061,-0.061,270.853
103300,141089,19647,-0.029,-0.943,-0.216,0.183,0,-0.122,270.857
103300,141063,7967,-0.029,-0.944,-0.22,0.183,0,-0.122,270.863
103291,141089,19647,-0.034,-0.941,-0.224,-0.122,0.366,0,270.867
103291,141074,7958,-0.039,-0.94,-0.227,-0.122,0.366,0,270.873
103303,141089,19647,-0.037,-0.935,-0.224,-0.122,0.671,0.183,270.877
103303,141058,7947,-0.036,-0.929,-0.222,-0.122,0.671,0.183,270.883
103297,141089,19647,-0.03,-0.925,-0.232,0,0.427,0,270.886
103297,141057,7956,-0.03,-0.936,-0.236,0,0.427,0,270.893
103309,140833,19647,-0.029,-0.948,-0.234,0.061,0.427,0.061,270.896
103309,141040,7953,-0.03,-0.951,-0.231,0.061,0.427,0.061,270.903
103274,141089,19647,-0.03,-0.945,-0.227,0.488,0.183,0.122,270.906
103274,141066,7961,-0.032,-0.938,-0.224,0.488,0.183,0.122,270.912
103282,141089,19647,-0.028,-0.932,-0.228,0.61,-0.183,0.183,270.916
103282,141072,7957,-0.027,-0.929,-0.229,0.61,-0.183,0.183,270.922
103290,141089,19647,-0.031,-0.931,-0.228,0.183,0.061,0.183,270.926
103290,141057,7956,-0.029,-0.936,-0.232,0.183,0.061,0.183,270.932
103275,141089,19647,-0.031,-0.939,-0.228,-0.244,0.305,0.122,270.936
103275,141064,7953,-0.03,-0.942,-0.221,-0.244,0.305,0.122,270.942
103307,141089,19647,-0.029,-0.937,-0.215,0,0.183,0.061,270.946
103307,141064,7965,-0.03,-0.94,-0.214,0,0.183,0.061,270.952
103296,141089,19647,-0.03,-0.94,-0.214,0,0.183,0.061,270.956
103296,141083,7962,-0.029,-0.937,-0.226,-0.122,0.427,0.061,270.962
103297,140833,19647,-0.029,-0.937,-0.226,-0.122,0.427,0.061,270.966
103297,141037,7969,-0.036,-0.946,-0.23,-0.854,0.732,0.427,270.972
103295,141089,19647,-0.036,-0.946,-0.23,-0.854,0.732,0.427,270.976
103295,141090,7956,-0.033,-0.933,-0.238,-0.732,0.976,0.671,270.982
103273,141089,19647,-0.033,-0.933,-0.238,-0.732,0.976,0.671,270.985
103273,141076,7956,-0.033,-0.931,-0.234,-0.061,0.671,0.549,270.992
103296,141089,19647,-0.033,-0.931,-0.234,-0.061,0.671,0.549,270.995
103296,141067,7938,-0.03,-0.939,-0.224,0.122,0.488,0.488,271.002
103288,141089,19647,-0.03,-0.939,-0.224,0.122,0.488,0.488,271.005
103288,141062,7963,-0.029,-0.934,-0.234,0.061,0.366,0.366,271.011
103288,140833,19647,-0.029,-0.934,-0.234,0.061,0.366,0.366,271.015
103288,141049,7958,-0.029,-0.937,-0.227,-0.061,0.244,0.366,271.021
103305,141089,19647,-0.029,-0.937,-0.227,-0.061,0.244,0.366,271.025
103305,141060,7946,-0.031,-0.936,-0.215,0.122,0.305,0.366,271.031
103284,140833,19647,-0.031,-0.936,-0.215,0.122,0.305,0.366,271.035
103284,141047,7949,-0.031,-0.937,-0.215,-0.122,0.366,0.183,271.041
103276,140833,19647,-0.031,-0.937,-0.215,-0.122,0.366,0.183,271.045
103276,141039,7954,-0.03,-0.947,-0.227,-0.854,0.488,0.366,271.051
103289,141089,19647,-0.03,-0.947,-0.227,-0.854,0.488,0.366,271.055
103289,141079,7949,-0.038,-0.945,-0.224,-1.28,0.854,0.732,271.061
103300,141089,19647,-0.038,-0.945,-0.224,-1.28,0.854,0.732,271.065
103300,141066,7948,-0.035,-0.933,-0.22,-0.61,0.793,0.671,271.071
103287,140833,19647,-0.035,-0.933,-0.22,-0.61,0.793,0.671,271.075
103287,141051,7968,-0.029,-0.933,-0.239,-0.183,0.488,0.671,271.081
103317,141089,19647,-0.029,-0.933,-0.239,-0.183,0.488,0.671,271.084
103317,141073,7952,-0.035,-0.939,-0.244,-0.488,0.915,0.915,271.091
103307,141089,19647,-0.035,-0.939,-0.244,-0.488,0.915,0.915,271.094
103307,141080,7952,-0.032,-0.928,-0.234,0.122,0.61,0.854,271.101
103275,141089,19647,-0.032,-0.928,-0.234,0.122,0.61,0.854,271.104
103275,141065,7957,-0.025,-0.928,-0.23,0.671,0.061,0.183,271.11
103303,141089,19647,-0.024,-0.929,-0.237,0.671,0.061,0.183,271.114
103303,141090,7950,-0.027,-0.933,-0.237,0.122,-0.183,-0.061,271.12
103277,141089,19647,-0.026,-0.941,-0.224,0.122,-0.183,-0.061,271.124
103277,141056,7966,-0.03,-0.94,-0.221,-0.305,0.061,-0.122,271.13
103286,141089,19647,-0.031,-0.939,-0.217,-0.305,0.061,-0.122,271.134
103286,141091,7963,-0.031,-0.944,-0.217,-0.305,0.244,-0.061,271.14
103285,141089,19647,-0.033,-0.944,-0.217,-0.305,0.244,-0.061,271.144
103285,141068,7975,-0.029,-0.947,-0.211,-0.305,0.366,0.183,271.15
103303,141089,19647,-0.034,-0.94,-0.215,-0.305,0.366,0.183,271.154
103303,141091,7968,-0.038,-0.934,-0.219,-0.488,0.549,0.427,271.16
103315,141089,19647,-0.036,-0.936,-0.235,-0.488,0.549,0.427,271.164
103315,141098,7961,-0.036,-0.943,-0.236,-0.976,0.793,0.488,271.17
103302,141089,19647,-0.037,-0.942,-0.229,-0.976,0.793,0.488,271.174
103302,141118,7955,-0.037,-0.94,-0.223,-0.244,0.488,0.427,271.18
103326,141089,19647,-0.032,-0.938,-0.223,-0.244,0.488,0.427,271.183
103326,141072,7950,-0.031,-0.931,-0.228,0.366,0.061,0.061,271.19
103299,141089,19647,-0.026,-0.937,-0.238,0.366,0.061,0.061,271.193
103299,141079,7969,-0.029,-0.941,-0.235,0.427,0.122,0.183,271.2
103317,141089,19647,-0.029,-0.937,-0.235,0.427,0.122,0.183,271.203
103317,141086,7967,-0.028,-0.932,-0.235,0.61,0.122,0.244,271.209
103302,141089,19647,-0.028,-0.934,-0.23,0.61,0.122,0.244,271.213
103302,141082,7974,-0.025,-0.935,-0.229,0.61,0,0.061,271.219
103293,141089,19647,-0.028,-0.935,-0.229,0.61,0,0.061,271.223
103293,141080,7962,-0.029,-0.936,-0.224,0.366,0,0.244,271.229
103312,141089,19647,-0.031,-0.937,-0.223,0.366,0,0.244,271.233
103312,141089,7948,-0.032,-0.936,-0.229,-0.061,0.183,0.244,271.239
103312,141089,19647,-0.032,-0.937,-0.226,-0.061,0.183,0.244,271.243
103312,141069,7955,-0.035,-0.933,-0.22,-0.244,0,0.244,271.249
103315,141089,19647,-0.031,-0.933,-0.223,-0.244,0,0.244,271.253
103315,141119,7975,-0.033,-0.939,-0.22,-0.732,0.122,0.244,271.259
103314,141089,19647,-0.037,-0.941,-0.219,-0.732,0.122,0.244,271.263
103314,141104,7948,-0.035,-0.938,-0.233,-0.854,0.305,0.305,271.269
103332,141089,19647,-0.035,-0.936,-0.238,-0.854,0.305,0.305,271.273
103332,141112,7969,-0.033,-0.94,-0.229,-0.61,0.366,0.183,271.279
103326,141089,19647,-0.032,-0.94,-0.224,-0.61,0.366,0.183,271.282
103326,141112,7956,-0.027,-0.939,-0.229,-0.122,0.305,0.183,271.289
103324,141089,19647,-0.028,-0.94,-0.226,-0.122,0.305,0.183,271.292
103324,141121,7969,-0.03,-0.94,-0.227,-0.244,0.427,0.244,271.299
103322,141089,19647,-0.029,-0.937,-0.231,-0.244,0.427,0.244,271.302
103322,141124,7978,-0.029,-0.934,-0.227,-0.122,0.366,0.244,271.308
103331,141089,19647,-0.03,-0.94,-0.221,-0.122,0.366,0.244,271.312
103331,141120,7948,-0.029,-0.94,-0.221,0,0.244,0.122,271.318
103331,141089,19647,-0.029,-0.939,-0.221,0,0.244,0.122,271.322
103331,141115,7964,-0.031,-0.941,-0.217,-0.427,0.366,0.305,271.328
103312,141089,19647,-0.031,-0.939,-0.219,-0.427,0.366,0.305,271.332
103312,141136,7955,-0.03,-0.937,-0.227,-0.427,0.305,0.549,271.338
103325,141089,19647,-0.03,-0.937,-0.229,-0.427,0.305,0.549,271.342
103325,141107,7947,-0.031,-0.937,-0.235,-0.366,0.488,0.488,271.348
103317,141089,19647,-0.028,-0.938,-0.232,-0.366,0.488,0.488,271.352
103317,141103,7959,-0.028,-0.94,-0.23,0.244,0.488,0.366,271.358
103338,141089,19647,-0.031,-0.935,-0.228,0.244,0.488,0.366,271.362
103338,141126,7969,-0.028,-0.928,-0.229,0.793,0.244,0.183,271.368
103337,141089,19647,-0.027,-0.928,-0.228,0.793,0.244,0.183,271.372
103337,141105,7971,-0.027,-0.934,-0.226,0.61,0.427,0.305,271.378
103312,141089,19647,-0.029,-0.938,-0.226,0.61,0.427,0.305,271.382
103312,141095,7972,-0.03,-0.941,-0.226,-0.061,0.549,0.305,271.388
103336,141089,19647,-0.034,-0.943,-0.22,-0.061,0.549,0.305,271.391
103336,141116,7962,-0.03,-0.938,-0.218,-0.488,0.732,0.427,271.398
103312,141089,19647,-0.032,-0.934,-0.226,-0.488,0.732,0.427,271.401
103312,141089,7960,-0.032,-0.938,-0.23,-0.854,0.915,0.488,271.407
103291,141089,19647,-0.033,-0.947,-0.234,-0.854,0.915,0.488,271.411
103291,141103,7967,-0.032,-0.942,-0.228,-0.793,0.976,0.671,271.417
103316,141089,19647,-0.032,-0.938,-0.227,-0.793,0.976,0.671,271.421
103316,141109,7960,-0.031,-0.939,-0.227,-0.427,0.732,0.732,271.427
103322,141089,19647,-0.032,-0.937,-0.23,-0.427,0.732,0.732,271.431
103322,141096,7971,-0.03,-0.933,-0.232,-0.122,0.671,0.671,271.437
103287,141089,19647,-0.031,-0.93,-0.235,-0.122,0.671,0.671,271.441
103287,141097,7959,-0.034,-0.933,-0.234,0.366,0.549,0.549,271.447
103311,141089,19647,-0.034,-0.935,-0.229,0.366,0.549,0.549,271.451
103311,141075,7963,-0.034,-0.939,-0.23,0.549,0.244,0.427,271.457
103306,140833,19647,-0.029,-0.942,-0.229,0.549,0.244,0.427,271.461
103306,141051,7968,-0.026,-0.94,-0.224,0.427,0,0.427,271.467
103308,140833,19647,-0.03,-0.94,-0.225,0.427,0,0.427,271.471
103308,141051,7969,-0.03,-0.938,-0.225,0,0.244,0.488,271.477
103304,141089,19647,-0.031,-0.939,-0.217,0,0.244,0.488,271.48
103304,141056,7960,-0.027,-0.944,-0.216,-0.366,0.61,0.549,271.487
103299,141089,19647,-0.029,-0.935,-0.224,-0.366,0.61,0.549,271.49
103299,141072,7958,-0.031,-0.936,-0.234,-0.793,0.671,0.732,271.497
103278,141089,19647,-0.031,-0.935,-0.229,-0.793,0.671,0.732,271.5
103278,141074,7968,-0.031,-0.937,-0.223,-0.671,0.671,0.732,271.506
103288,141089,19647,-0.036,-0.934,-0.229,-0.671,0.671,0.732,271.51
103288,141075,7942,-0.032,-0.929,-0.244,-0.549,0.61,0.671,271.516
103269,141089,19647,-0.033,-0.934,-0.239,-0.549,0.61,0.671,271.52
103269,141059,7965,-0.036,-0.939,-0.231,-0.183,0.61,0.488,271.526
103293,141089,19647,-0.03,-0.936,-0.231,-0.183,0.61,0.488,271.53
103293,141058,7969,-0.027,-0.935,-0.232,0.244,0.244,0.183,271.536
103282,141089,19647,-0.033,-0.938,-0.232,0.244,0.244,0.183,271.54
103282,141065,7957,-0.035,-0.938,-0.223,0.305,0.122,0.122,271.546
103302,140833,19647,-0.035,-0.938,-0.223,0.305,0.122,0.122,271.55
103302,141040,7957,-0.029,-0.943,-0.223,0.122,0.183,0.244,271.556
103287,140833,19647,-0.029,-0.943,-0.223,0.122,0.183,0.244,271.56
103287,141051,7962,-0.032,-0.938,-0.224,0.122,0.305,0.305,271.566
103293,140833,19647,-0.032,-0.938,-0.224,0.122,0.305,0.305,271.57
103293,141044,7955,-0.032,-0.939,-0.224,0.061,0.305,0.244,271.576
103273,140833,19647,-0.032,-0.939,-0.224,0.061,0.305,0.244,271.579
103273,141051,7968,-0.028,-0.936,-0.229,-0.183,0.244,0.183,271.586
103252,140833,19647,-0.028,-0.936,-0.229,-0.183,0.244,0.183,271.589
103252,141049,7964,-0.032,-0.94,-0.225,-0.366,0.305,0.305,271.596
103264,140833,19647,-0.032,-0.94,-0.225,-0.366,0.305,0.305,271.599
103264,141042,7967,-0.035,-0.933,-0.221,0,0.244,0.305,271.605
103275,141089,19647,-0.035,-0.933,-0.221,0,0.244,0.305,271.609
103275,141064,7956,-0.031,-0.936,-0.224,0.366,0,0.061,271.615
103285,141089,19647,-0.031,-0.936,-0.224,0.366,0,0.061,271.619
103285,141085,7963,-0.031,-0.942,-0.226,0.427,0.061,0.244,271.625
103278,141089,19647,-0.031,-0.942,-0.226,0.427,0.061,0.244,271.629
103278,141075,7963,-0.041,-0.937,-0.228,0.244,0.244,0.183,271.635
103285,141089,19647,-0.041,-0.937,-0.228,0.244,0.244,0.183,271.639
103285,141069,7960,-0.032,-0.939,-0.219,0.305,0.183,0.122,271.645
103283,140833,19647,-0.032,-0.939,-0.219,0.305,0.183,0.122,271.649
103283,141051,7945,-0.028,-0.937,-0.231,-0.183,0.427,0.183,271.655
103274,141089,19647,-0.028,-0.937,-0.231,-0.183,0.427,0.183,271.659
103274,141059,7952,-0.033,-0.937,-0.228,-0.061,0.793,0.305,271.665
103261,140833,19647,-0.033,-0.937,-0.228,-0.061,0.793,0.305,271.669
103261,141048,7951,-0.03,-0.929,-0.232,0.488,0.488,0.122,271.675
103266,140833,19647,-0.03,-0.929,-0.232,0.488,0.488,0.122,271.679
103266,141034,7959,-0.032,-0.931,-0.233,0.427,0.305,0.061,271.685
103241,141089,19647,-0.032,-0.931,-0.233,0.427,0.305,0.061,271.688
103241,141078,7972,-0.03,-0.944,-0.226,-0.244,0.244,0.061,271.695
103260,140833,19647,-0.03,-0.944,-0.226,-0.244,0.244,0.061,271.698
103260,141050,7960,-0.027,-0.949,-0.224,-0.244,0.244,0.061,271.704
103258,140833,19647,-0.027,-0.946,-0.225,-0.366,0.061,0.183,271.708
103258,141044,7963,-0.028,-0.942,-0.224,-0.366,0.061,0.183,271.714
103265,140833,19647,-0.027,-0.94,-0.227,-0.244,0.061,0.427,271.718
103265,141046,7958,-0.029,-0.937,-0.224,-0.244,0.061,0.427,271.724
103241,140833,19647,-0.031,-0.936,-0.214,-0.427,0.244,0.671,271.728
103241,141038,7964,-0.026,-0.934,-0.219,-0.427,0.244,0.671,271.734
103253,140833,19647,-0.025,-0.934,-0.221,-0.793,0.549,0.732,271.738
103253,141014,7958,-0.033,-0.936,-0.209,-0.793,0.549,0.732,271.744
103231,140833,19647,-0.033,-0.934,-0.217,-1.098,0.854,0.732,271.748
103231,141040,7971,-0.033,-0.934,-0.231,-1.098,0.854,0.732,271.754
103248,140833,19647,-0.037,-0.938,-0.238,-1.037,1.098,0.61,271.758
103248,141021,7957,-0.037,-0.943,-0.23,-1.037,1.098,0.61,271.764
103255,140833,19647,-0.035,-0.941,-0.23,-0.244,0.976,0.366,271.768
103255,141036,7970,-0.029,-0.938,-0.234,-0.244,0.976,0.366,271.774
103240,140833,19647,-0.031,-0.94,-0.24,0,0.671,0.061,271.777
103240,141041,7951,-0.031,-0.943,-0.233,0,0.671,0.061,271.784
103247,140833,19647,-0.029,-0.943,-0.226,0.244,0.366,0.244,271.787
103247,141039,7963,-0.027,-0.938,-0.229,0.244,0.366,0.244,271.794
103251,141089,19647,-0.026,-0.935,-0.234,0.244,0.183,0.305,271.797
103251,141060,7948,-0.024,-0.933,-0.232,0.244,0.183,0.305,271.803
103262,140833,19647,-0.025,-0.935,-0.22,0.427,0.061,0.366,271.807
103262,141039,7953,-0.026,-0.929,-0.213,0.427,0.061,0.366,271.813
103237,141089,19647,-0.027,-0.925,-0.227,0.366,0.244,0.427,271.817
103237,141060,7973,-0.029,-0.933,-0.226,0.366,0.244,0.427,271.823
103247,141089,19647,-0.032,-0.936,-0.223,0.061,0.427,0.366,271.827
103247,141057,7952,-0.034,-0.94,-0.223,0.061,0.427,0.366,271.833
103256,140833,19647,-0.03,-0.945,-0.217,-0.244,0.61,0.427,271.837
103256,141030,7969,-0.033,-0.943,-0.222,-0.244,0.61,0.427,271.843
103258,141089,19647,-0.036,-0.941,-0.224,-0.427,0.488,0.427,271.847
103258,141058,7972,-0.032,-0.943,-0.222,-0.427,0.488,0.427,271.853
103262,140833,19647,-0.029,-0.943,-0.227,-0.732,0.671,0.61,271.857
103262,141050,7949,-0.031,-0.938,-0.233,-0.732,0.671,0.61,271.863
103260,141089,19647,-0.035,-0.938,-0.238,-0.915,0.976,0.793,271.867
103260,141075,7967,-0.036,-0.938,-0.234,-0.915,0.976,0.793,271.873
103261,141089,19647,-0.031,-0.931,-0.231,-0.305,0.61,0.671,271.877
103261,141063,7970,-0.029,-0.927,-0.228,-0.305,0.61,0.671,271.883
103267,141089,19647,-0.028,-0.928,-0.226,0.122,0.183,0.427,271.886
103267,141075,7951,-0.03,-0.933,-0.229,0.122,0.183,0.427,271.893
103236,141089,19647,-0.035,-0.934,-0.232,-0.244,0.305,0.366,271.896
103236,141056,7948,-0.033,-0.939,-0.227,-0.244,0.305,0.366,271.902
103249,141089,19647,-0.028,-0.938,-0.215,-0.305,0.183,0.244,271.906
103249,141067,7946,-0.027,-0.938,-0.216,-0.305,0.183,0.244,271.912
103236,141089,19647,-0.032,-0.933,-0.219,-0.427,0.061,0.183,271.916
103236,141062,7971,-0.032,-0.936,-0.223,-0.427,0.061,0.183,271.922
103255,141089,19647,-0.034,-0.937,-0.223,-1.098,0.427,0.244,271.926
103255,141073,7959,-0.033,-0.938,-0.227,-1.098,0.427,0.244,271.932
103266,141089,19647,-0.035,-0.943,-0.229,-1.28,0.732,0.427,271.936
103266,141077,7955,-0.032,-0.94,-0.226,-1.28,0.732,0.427,271.942
103251,141089,19647,-0.031,-0.937,-0.226,-0.671,0.549,0.244,271.946
103251,141064,7950,-0.031,-0.94,-0.226,-0.671,0.549,0.244,271.952
103264,141089,19647,-0.03,-0.934,-0.229,-0.183,0.244,0.366,271.956
103264,141077,7950,-0.029,-0.933,-0.23,-0.183,0.244,0.366,271.962
103264,140833,19647,-0.028,-0.936,-0.234,-0.061,0.244,0.366,271.966
103264,141050,7963,-0.034,-0.943,-0.225,-0.061,0.244,0.366,271.972
103253,140833,19647,-0.031,-0.943,-0.224,0.427,0.183,0.427,271.975
103253,141048,7962,-0.031,-0.933,-0.231,0.427,0.183,0.427,271.982
103241,141089,19647,-0.033,-0.928,-0.233,0.915,0,0.366,271.985
103241,141056,7948,-0.031,-0.929,-0.232,0.915,0,0.366,271.992
103239,141089,19647,-0.031,-0.929,-0.222,1.037,0.122,0.061,271.995
103239,141071,7947,-0.028,-0.929,-0.214,1.037,0.122,0.061,272.002
103259,140833,19647,-0.027,-0.934,-0.229,0.122,0.305,-0.244,272.005
103259,141045,7959,-0.025,-0.941,-0.24,0.122,0.305,-0.244,272.011
103249,140833,19647,-0.028,-0.947,-0.24,-0.732,0.549,-0.183,272.015
103249,141037,7970,-0.029,-0.949,-0.228,-0.732,0.549,-0.183,272.021
103247,140833,19647,-0.028,-0.941,-0.219,-0.061,0.305,-0.061,272.025
103247,141050,7940,-0.03,-0.931,-0.213,-0.061,0.305,-0.061,272.031
103258,141089,19647,-0.027,-0.928,-0.22,-0.427,0.244,-0.244,272.035
103258,141069,7945,-0.023,-0.942,-0.226,-0.427,0.244,-0.244,272.041
103256,140833,19647,-0.026,-0.954,-0.228,-1.341,0.671,0.366,272.045
103256,141038,7950,-0.033,-0.947,-0.229,-1.341,0.671,0.366,272.051
103254,141089,19647,-0.037,-0.936,-0.229,-0.915,0.793,0.732,272.055
103254,141090,7958,-0.041,-0.926,-0.225,-0.915,0.793,0.732,272.061
103240,141089,19647,-0.037,-0.923,-0.219,0.305,0.305,0.244,272.065
103240,141062,7956,-0.031,-0.929,-0.218,0.305,0.305,0.244,272.071
103257,141089,19647,-0.028,-0.943,-0.222,-0.061,-0.061,0.244,272.075
103257,141089,7968,-0.031,-0.95,-0.227,-0.061,-0.061,0.244,272.081
103241,140833,19647,-0.037,-0.947,-0.231,-0.61,0.427,0.427,272.084
103241,141044,7951,-0.038,-0.942,-0.22,-0.61,0.427,0.427,272.091
103260,141089,19647,-0.033,-0.935,-0.21,0.427,0.061,0.244,272.094
103260,141060,7947,-0.029,-0.929,-0.215,0.427,0.061,0.244,272.1
103260,140833,19647,-0.026,-0.934,-0.233,0.183,0.122,0.183,272.104
103260,141055,7973,-0.031,-0.942,-0.236,0.183,0.122,0.183,272.11
103250,140833,19647,-0.033,-0.949,-0.232,-0.793,0.915,0.488,272.114
103250,141045,7961,-0.033,-0.944,-0.23,-0.793,0.915,0.488,272.12
103256,140833,19647,-0.03,-0.935,-0.225,-0.183,0.732,0.488,272.124
103256,141039,7959,-0.024,-0.927,-0.231,-0.183,0.732,0.488,272.13
103242,141089,19647,-0.025,-0.925,-0.233,0.061,0.366,0.305,272.134
103242,141059,7968,-0.026,-0.933,-0.231,0.061,0.366,0.305,272.14
103253,140833,19647,-0.026,-0.933,-0.231,0.061,0.366,0.305,272.144
103253,141045,7971,-0.03,-0.936,-0.235,-0.427,0.549,0.549,272.15
103260,141089,19647,-0.03,-0.936,-0.235,-0.427,0.549,0.549,272.154
103260,141073,7953,-0.029,-0.934,-0.228,-0.427,0.427,0.305,272.16
103243,141089,19647,-0.029,-0.934,-0.228,-0.427,0.427,0.305,272.164
103243,141061,7967,-0.028,-0.931,-0.219,0.122,0,0.122,272.17
103244,141089,19647,-0.028,-0.931,-0.219,0.122,0,0.122,272.174
103244,141091,7961,-0.037,-0.95,-0.235,-0.366,0.122,0,272.18
103271,141089,19647,-0.037,-0.95,-0.235,-0.366,0.122,0,272.183
103271,141068,7955,-0.035,-0.949,-0.222,-0.732,0.427,0.244,272.19
103251,141089,19647,-0.035,-0.949,-0.222,-0.732,0.427,0.244,272.193
103251,141091,7967,-0.029,-0.931,-0.225,0.183,0.122,0.244,272.2
103270,141089,19647,-0.029,-0.931,-0.225,0.183,0.122,0.244,272.203
103270,141090,7953,-0.03,-0.938,-0.222,0.122,0.183,0.122,272.209
103277,141089,19647,-0.03,-0.938,-0.222,0.122,0.183,0.122,272.213
103277,141101,7957,-0.036,-0.938,-0.225,-0.793,0.61,0.488,272.219
103272,141089,19647,-0.036,-0.938,-0.225,-0.793,0.61,0.488,272.223
103272,141107,7972,-0.035,-0.929,-0.23,-0.793,0.61,0.61,272.229
103289,141089,19647,-0.035,-0.929,-0.23,-0.793,0.61,0.61,272.233
103289,141128,7960,-0.03,-0.933,-0.226,0.061,0.305,0.366,272.239
103287,141089,19647,-0.03,-0.933,-0.226,0.061,0.305,0.366,272.243
103287,141076,7964,-0.031,-0.941,-0.223,0.061,0.244,0.183,272.249
103293,141089,19647,-0.031,-0.941,-0.223,0.061,0.244,0.183,272.253
103293,141083,7956,-0.027,-0.944,-0.23,-0.183,0.427,0.061,272.259
103285,141089,19647,-0.027,-0.944,-0.23,-0.183,0.427,0.061,272.263
103285,141094,7967,-0.027,-0.938,-0.225,0.244,0.549,0.061,272.269
103276,141089,19647,-0.027,-0.938,-0.225,0.244,0.549,0.061,272.273
103276,141102,7965,-0.027,-0.932,-0.226,0.305,0.488,0.122,272.279
103280,141089,19647,-0.027,-0.932,-0.226,0.305,0.488,0.122,272.282
103280,141105,7972,-0.023,-0.942,-0.228,-0.366,0.549,0.366,272.289
103300,141089,19647,-0.023,-0.942,-0.228,-0.366,0.549,0.366,272.292
103300,141118,7970,-0.025,-0.94,-0.231,-0.671,0.61,0.549,272.299
103284,141089,19647,-0.03,-0.938,-0.232,-0.671,0.61,0.549,272.302
103284,141091,7979,-0.031,-0.938,-0.223,-0.305,0.488,0.488,272.308
103283,141089,19647,-0.03,-0.934,-0.222,-0.305,0.488,0.488,272.312
103283,141108,7959,-0.025,-0.931,-0.226,-0.183,0.305,0.61,272.318
103283,141089,19647,-0.032,-0.936,-0.224,-0.183,0.305,0.61,272.322
103283,141090,7956,-0.036,-0.938,-0.225,-0.549,0.488,0.854,272.328
103279,141089,19647,-0.033,-0.944,-0.229,-0.549,0.488,0.854,272.332
103279,141084,7981,-0.035,-0.944,-0.231,-0.488,0.671,0.793,272.338
103281,141089,19647,-0.034,-0.942,-0.233,-0.488,0.671,0.793,272.342
103281,141072,7963,-0.035,-0.938,-0.231,-0.061,0.549,0.549,272.348
103275,141089,19647,-0.033,-0.936,-0.228,-0.061,0.549,0.549,272.352
103275,141062,7970,-0.032,-0.934,-0.229,0.366,0.244,0.549,272.358
103259,141089,19647,-0.031,-0.932,-0.227,0.366,0.244,0.549,272.362
103259,141077,7966,-0.028,-0.939,-0.223,0.122,0.244,0.549,272.368
103256,141089,19647,-0.029,-0.939,-0.226,0.122,0.244,0.549,272.372
103256,141058,7957,-0.03,-0.938,-0.228,0,0.244,0.549,272.378
103256,140833,19647,-0.033,-0.938,-0.226,0,0.244,0.549,272.381
103256,141052,7966,-0.032,-0.928,-0.224,0.244,0.183,0.366,272.388
103243,141089,19647,-0.032,-0.926,-0.228,0.244,0.183,0.366,272.391
103243,141069,7972,-0.035,-0.931,-0.229,0,0.366,0.183,272.398
103267,141089,19647,-0.034,-0.939,-0.235,0,0.366,0.183,272.401
103267,141081,7977,-0.033,-0.945,-0.231,-0.305,0.488,0.122,272.407
103250,140833,19647,-0.031,-0.945,-0.226,-0.305,0.488,0.122,272.411
103250,141055,7959,-0.031,-0.939,-0.223,0.305,0.183,-0.061,272.417
103251,141089,19647,-0.03,-0.938,-0.223,0.305,0.183,-0.061,272.421
103251,141064,7982,-0.029,-0.942,-0.214,0.427,0.122,0.061,272.427
103256,141089,19647,-0.031,-0.939,-0.212,0.427,0.122,0.061,272.431
103256,141057,7953,-0.031,-0.934,-0.217,-0.305,0.427,0.244,272.437
103236,140833,19647,-0.035,-0.936,-0.226,-0.305,0.427,0.244,272.441
103236,141043,7956,-0.033,-0.94,-0.224,-1.037,0.793,0.488,272.447
103237,141089,19647,-0.032,-0.942,-0.23,-1.037,0.793,0.488,272.451
103237,141056,7970,-0.033,-0.941,-0.226,-0.915,0.793,0.671,272.457
103245,140833,19647,-0.031,-0.94,-0.227,-0.915,0.793,0.671,272.461
103245,141048,7954,-0.028,-0.939,-0.234,-0.732,0.549,0.793,272.467
103242,140833,19647,-0.03,-0.935,-0.234,-0.732,0.549,0.793,272.471
103242,141034,7965,-0.031,-0.932,-0.227,-0.183,0.305,0.61,272.477
103261,141089,19647,-0.029,-0.931,-0.233,-0.183,0.305,0.61,272.48
103261,141068,7960,-0.03,-0.934,-0.231,0,0.183,0.244,272.487
103251,141089,19647,-0.029,-0.941,-0.23,0,0.183,0.244,272.49
103251,141073,7957,-0.029,-0.938,-0.233,0.305,0.183,0.244,272.497
103248,141089,19647,-0.028,-0.936,-0.235,0.305,0.183,0.244,272.5
103248,141066,7971,-0.028,-0.931,-0.223,0.61,0.061,0.061,272.506
103263,141089,19647,-0.032,-0.928,-0.211,0.61,0.061,0.061,272.51
103263,141065,7961,-0.029,-0.933,-0.206,0.488,0.122,-0.122,272.516
103250,141089,19647,-0.027,-0.941,-0.216,0.488,0.122,-0.122,272.52
103250,141073,7958,-0.028,-0.946,-0.224,-0.671,0.427,0.061,272.526
103233,141089,19647,-0.033,-0.952,-0.225,-0.671,0.427,0.061,272.53
103233,141060,7956,-0.036,-0.947,-0.222,-0.976,0.549,0.671,272.536
103228,140833,19647,-0.035,-0.936,-0.225,-0.976,0.549,0.671,272.54
103228,141054,7943,-0.035,-0.934,-0.23,-0.549,0.549,0.488,272.546
103218,140833,19647,-0.035,-0.933,-0.23,-0.549,0.549,0.488,272.55
103218,141030,7951,-0.034,-0.937,-0.225,-0.488,0.549,0.549,272.556
103232,141089,19647,-0.03,-0.937,-0.223,-0.488,0.549,0.549,272.56
103232,141060,7958,-0.03,-0.936,-0.231,-0.427,0.366,0.61,272.566
103232,140833,19647,-0.031,-0.939,-0.237,-0.427,0.366,0.61,272.57
103232,141045,7952,-0.03,-0.934,-0.233,-0.183,0.305,0.549,272.576
103238,140833,19647,-0.028,-0.931,-0.231,-0.183,0.305,0.549,272.579
103238,141039,7967,-0.029,-0.935,-0.235,0,0.122,0.549,272.586
103235,140833,19647,-0.027,-0.934,-0.232,0,0.122,0.549,272.589
103235,141044,7974,-0.029,-0.937,-0.226,0,0,0.305,272.596
103239,140833,19647,-0.03,-0.94,-0.219,0,0,0.305,272.599
103239,141044,7962,-0.026,-0.936,-0.219,0.061,0.061,0.244,272.605
103219,140833,19647,-0.027,-0.931,-0.219,0.061,0.061,0.244,272.609
103219,141038,7970,-0.03,-0.937,-0.219,-0.244,0.244,0.366,272.615
103207,140833,19647,-0.033,-0.939,-0.208,-0.244,0.244,0.366,272.619
103207,141042,7943,-0.03,-0.936,-0.213,-0.183,0.549,0.305,272.625
103227,140833,19647,-0.031,-0.933,-0.228,-0.183,0.549,0.305,272.629
103227,141039,7959,-0.034,-0.938,-0.236,-0.549,0.732,0.366,272.635
103223,141089,19647,-0.035,-0.94,-0.235,-0.549,0.732,0.366,272.639
103223,141064,7962,-0.035,-0.943,-0.229,-0.366,0.793,0.427,272.645
103215,140833,19647,-0.032,-0.944,-0.23,-0.366,0.793,0.427,272.649
103215,141048,7959,-0.034,-0.939,-0.23,0.122,0.366,0.305,272.655
103217,141089,19647,-0.031,-0.938,-0.226,0.122,0.366,0.305,272.659
103217,141061,7950,-0.027,-0.938,-0.226,0,0.183,0.427,272.665
103225,140833,19647,-0.028,-0.938,-0.232,0,0.183,0.427,272.669
103225,141055,7954,-0.029,-0.939,-0.227,-0.183,0.183,0.671,272.675
103220,140833,19647,-0.031,-0.936,-0.228,-0.183,0.183,0.671,272.678
103220,141052,7968,-0.034,-0.932,-0.225,0,0.244,0.61,272.685
103213,140833,19647,-0.027,-0.934,-0.217,0,0.244,0.61,272.688
103213,141043,7959,-0.027,-0.936,-0.219,0.122,0.244,0.427,272.695
103215,140833,19647,-0.029,-0.936,-0.223,0.122,0.244,0.427,272.698
103215,141018,7957,-0.03,-0.935,-0.229,-0.488,0.549,0.488,272.704
103214,140833,19647,-0.035,-0.941,-0.231,-0.488,0.549,0.488,272.708
103214,141013,7957,-0.034,-0.943,-0.218,-0.549,0.793,0.488,272.714
103205,140833,19647,-0.031,-0.937,-0.222,-0.549,0.793,0.488,272.718
103205,141039,7962,-0.03,-0.932,-0.236,-0.122,0.549,0.244,272.724
103221,140833,19647,-0.032,-0.939,-0.235,-0.122,0.549,0.244,272.728
103221,141023,7956,-0.037,-0.944,-0.234,-0.427,0.732,0.427,272.734
103223,140833,19647,-0.037,-0.944,-0.234,-0.427,0.732,0.427,272.738
103223,141027,7958,-0.034,-0.934,-0.228,-0.122,0.427,0.549,272.744
103221,140833,19647,-0.034,-0.934,-0.228,-0.122,0.427,0.549,272.748
103221,141038,7964,-0.033,-0.932,-0.228,-0.061,0.305,0.244,272.754
103228,141089,19647,-0.033,-0.932,-0.228,-0.061,0.305,0.244,272.758
103228,141062,7949,-0.031,-0.941,-0.231,-0.488,0.427,0.366,272.764
103231,140833,19647,-0.031,-0.941,-0.231,-0.488,0.427,0.366,272.768
103231,141023,7956,-0.027,-0.942,-0.231,-0.244,0.366,0.427,272.774
103220,140833,19647,-0.027,-0.942,-0.231,-0.244,0.366,0.427,272.777
103220,141037,7964,-0.028,-0.941,-0.225,0.305,0.122,0.305,272.784
103224,140833,19647,-0.028,-0.941,-0.225,0.305,0.122,0.305,272.787
103224,141009,7945,-0.025,-0.937,-0.227,0.366,0,0.305,272.794
103220,140833,19647,-0.025,-0.937,-0.227,0.366,0,0.305,272.797
103220,141044,7949,-0.028,-0.933,-0.217,0.366,0.122,0.183,272.803
103221,141089,19647,-0.028,-0.933,-0.217,0.366,0.122,0.183,272.807
103221,141077,7965,-0.031,-0.931,-0.22,0.488,0.305,0.183,272.813
103232,141089,19647,-0.031,-0.931,-0.22,0.488,0.305,0.183,272.817
103232,141080,7968,-0.03,-0.935,-0.228,-0.305,0.61,0.122,272.823
103243,140833,19647,-0.03,-0.935,-0.228,-0.305,0.61,0.122,272.827
103243,141041,7960,-0.036,-0.941,-0.226,-0.488,0.549,0.183,272.833
103251,141089,19647,-0.036,-0.941,-0.226,-0.488,0.549,0.183,272.837
103251,141064,7953,-0.03,-0.941,-0.23,-0.183,0.366,0.122,272.843
103249,140833,19647,-0.03,-0.941,-0.23,-0.183,0.366,0.122,272.847
103249,141055,7960,-0.026,-0.935,-0.223,-0.061,0.305,0.427,272.853
103240,141089,19647,-0.026,-0.935,-0.223,-0.061,0.305,0.427,272.857
103240,141062,7956,-0.032,-0.937,-0.228,-0.671,0.549,0.488,272.863
103236,141089,19647,-0.032,-0.937,-0.228,-0.671,0.549,0.488,272.867
103236,141056,7962,-0.031,-0.932,-0.222,-0.549,0.732,0.61,272.873
103254,141089,19647,-0.031,-0.932,-0.222,-0.549,0.732,0.61,272.876
103254,141065,7956,-0.031,-0.936,-0.219,-0.549,0.732,0.61,272.883
103233,141089,19647,-0.029,-0.939,-0.218,-0.671,0.61,0.549,272.886
103233,141068,7954,-0.028,-0.943,-0.213,-0.671,0.61,0.549,272.893
103244,141089,19647,-0.027,-0.943,-0.215,-0.854,0.671,0.671,272.896
103244,141071,7950,-0.025,-0.942,-0.216,-0.854,0.671,0.671,272.902
103232,141089,19647,-0.028,-0.941,-0.214,-1.098,1.037,0.976,272.906
103232,141060,7957,-0.03,-0.94,-0.219,-1.098,1.037,0.976,272.912
103236,141089,19647,-0.029,-0.942,-0.22,-1.524,1.341,1.22,272.916
103236,141082,7965,-0.025,-0.941,-0.229,-1.524,1.341,1.22,272.922
103231,140833,19647,-0.032,-0.944,-0.227,-1.89,1.646,1.585,272.926
103231,141055,7952,-0.035,-0.943,-0.221,-1.89,1.646,1.585,272.932
103229,141089,19647,-0.031,-0.933,-0.23,-1.585,1.646,1.524,272.936
103229,141074,7962,-0.029,-0.925,-0.237,-1.585,1.646,1.524,272.942
103233,140833,19647,-0.032,-0.926,-0.238,-1.341,1.524,1.28,272.946
103233,141053,7960,-0.034,-0.929,-0.237,-1.341,1.524,1.28,272.952
103261,141089,19647,-0.035,-0.928,-0.24,-0.793,1.463,1.159,272.956
103261,141077,7958,-0.034,-0.925,-0.25,-0.793,1.463,1.159,272.962
103237,140833,19647,-0.035,-0.925,-0.248,-0.427,1.22,0.427,272.966
103237,141051,7968,-0.033,-0.938,-0.231,-0.427,1.22,0.427,272.972
103231,140833,19647,-0.029,-0.941,-0.224,0.183,0.854,0,272.975
103231,141051,7951,-0.03,-0.939,-0.228,0.183,0.854,0,272.982
103240,141089,19647,-0.03,-0.944,-0.229,-0.244,0.793,-0.122,272.985
103240,141070,7960,-0.034,-0.945,-0.233,-0.244,0.793,-0.122,272.992
103236,141089,19647,-0.035,-0.947,-0.229,-0.488,0.854,0.305,272.995
103236,141101,7971,-0.033,-0.946,-0.221,-0.488,0.854,0.305,273.001
103265,141089,19647,-0.032,-0.939,-0.212,-0.549,0.61,0.488,273.005
103265,141065,7954,-0.034,-0.934,-0.214,-0.549,0.61,0.488,273.011
103254,141089,19647,-0.038,-0.933,-0.216,-1.402,0.732,0.793,273.015
103254,141078,7954,-0.039,-0.933,-0.221,-1.402,0.732,0.793,273.021
103262,141089,19647,-0.043,-0.935,-0.227,-2.073,1.098,1.22,273.025
103262,141077,7955,-0.041,-0.939,-0.227,-2.073,1.098,1.22,273.031
103252,141089,19647,-0.041,-0.938,-0.216,-1.646,1.22,1.037,273.035
103252,141068,7968,-0.038,-0.931,-0.217,-1.646,1.22,1.037,273.041
103250,141089,19647,-0.037,-0.925,-0.23,-0.915,0.854,0.549,273.045
103250,141084,7968,-0.033,-0.934,-0.238,-0.915,0.854,0.549,273.051
103252,141089,19647,-0.032,-0.944,-0.243,-1.159,0.793,0.488,273.055
103252,141089,7968,-0.029,-0.944,-0.241,-1.159,0.793,0.488,273.061
103264,141089,19647,-0.033,-0.94,-0.234,-0.671,0.671,0.427,273.065
103264,141100,7969,-0.031,-0.933,-0.235,-0.671,0.671,0.427,273.071
103263,141089,19647,-0.025,-0.925,-0.232,0.061,-0.183,0.244,273.075
103263,141088,7953,-0.022,-0.927,-0.236,0.061,-0.183,0.244,273.081
103250,141089,19647,-0.026,-0.934,-0.236,-0.244,-0.305,0.549,273.084
103250,141092,7966,-0.03,-0.943,-0.229,-0.244,-0.305,0.549,273.091
103250,141089,19647,-0.036,-0.939,-0.227,-0.244,0.122,0.366,273.094
103250,141092,7958,-0.036,-0.926,-0.231,-0.244,0.122,0.366,273.1
103250,141089,19647,-0.037,-0.925,-0.23,0.305,0,-0.183,273.104
103250,141085,7978,-0.028,-0.928,-0.228,0.305,0,-0.183,273.11
103263,141089,19647,-0.026,-0.933,-0.233,0.488,-0.061,-0.305,273.114
103263,141077,7974,-0.035,-0.937,-0.231,0.488,-0.061,-0.305,273.12
103246,141089,19647,-0.037,-0.942,-0.226,-0.244,0.122,-0.366,273.124
103246,141105,7961,-0.042,-0.945,-0.233,-0.244,0.122,-0.366,273.13
103231,141089,19647,-0.036,-0.947,-0.23,-0.488,0,-0.427,273.134
103231,141083,7960,-0.029,-0.948,-0.227,-0.488,0,-0.427,273.14
103250,141089,19647,-0.026,-0.946,-0.228,-0.366,-0.366,-0.244,273.144
103250,141090,7981,-0.027,-0.94,-0.23,-0.366,-0.366,-0.244,273.15
103261,141089,19647,-0.034,-0.936,-0.233,-0.549,-0.244,0.183,273.154
103261,141095,7968,-0.031,-0.933,-0.234,-0.549,-0.244,0.183,273.16
103235,141089,19647,-0.031,-0.934,-0.231,-0.732,-0.183,0.244,273.164
103235,141096,7954,-0.033,-0.934,-0.221,-0.732,-0.183,0.244,273.17
103251,141089,19647,-0.031,-0.932,-0.213,-0.305,-0.366,0.122,273.173
103251,141104,7953,-0.031,-0.935,-0.205,-0.305,-0.366,0.122,273.18
103268,141089,19647,-0.03,-0.936,-0.208,-0.549,0.061,0.061,273.183
103268,141094,7954,-0.034,-0.937,-0.216,-0.549,0.061,0.061,273.19
103247,141089,19647,-0.036,-0.939,-0.228,-1.037,0.793,0.244,273.193
103247,141098,7958,-0.037,-0.939,-0.232,-1.037,0.793,0.244,273.199
103239,141089,19647,-0.031,-0.94,-0.226,-0.854,0.793,0.122,273.203
103239,141097,7982,-0.032,-0.94,-0.225,-0.854,0.793,0.122,273.209
103252,141089,19647,-0.028,-0.936,-0.232,-0.549,0.671,-0.183,273.213
103252,141099,7965,-0.031,-0.938,-0.238,-0.549,0.671,-0.183,273.219
103261,141089,19647,-0.029,-0.94,-0.24,-0.305,0.732,-0.122,273.223
103261,141114,7969,-0.026,-0.938,-0.238,-0.305,0.732,-0.122,273.229
103248,141089,19647,-0.022,-0.93,-0.237,0.183,0.549,-0.122,273.233
103248,141082,7965,-0.026,-0.926,-0.238,0.183,0.549,-0.122,273.239
103243,141089,19647,-0.023,-0.928,-0.235,0.427,0.244,-0.244,273.243
103243,141093,7973,-0.021,-0.932,-0.239,0.427,0.244,-0.244,273.249
103242,141089,19647,-0.022,-0.938,-0.234,0.183,0.061,-0.183,273.253
103242,141100,7974,-0.024,-0.944,-0.223,0.183,0.061,-0.183,273.259
103233,141089,19647,-0.021,-0.94,-0.223,0.061,0.061,-0.061,273.263
103233,141091,7968,-0.025,-0.937,-0.228,0.061,0.061,-0.061,273.269
103234,141089,19647,-0.026,-0.941,-0.227,-0.244,0,0.305,273.273
103234,141097,7969,-0.028,-0.943,-0.22,-0.244,0,0.305,273.279
103230,141089,19647,-0.031,-0.943,-0.217,-0.366,0.122,0.732,273.282
103230,141083,7965,-0.031,-0.94,-0.222,-0.366,0.122,0.732,273.289
103235,141089,19647,-0.034,-0.933,-0.228,-0.549,0.427,0.671,273.292
103235,141071,7973,-0.034,-0.935,-0.235,-0.549,0.427,0.671,273.298
103246,141089,19647,-0.037,-0.938,-0.232,-0.366,0.671,0.793,273.302
103246,141065,7965,-0.035,-0.94,-0.233,-0.366,0.671,0.793,273.308
103236,141089,19647,-0.031,-0.939,-0.235,0.122,0.732,0.549,273.312
103236,141068,7969,-0.033,-0.934,-0.234,0.122,0.732,0.549,273.318
103226,141089,19647,-0.031,-0.936,-0.237,0.366,0.427,0.549,273.322
103226,141096,7966,-0.028,-0.936,-0.235,0.366,0.427,0.549,273.328
103238,141089,19647,-0.028,-0.936,-0.235,0.366,0.427,0.549,273.332
103238,141086,7949,-0.03,-0.94,-0.23,0.305,0.366,0.671,273.338
103228,141089,19647,-0.03,-0.94,-0.23,0.305,0.366,0.671,273.342
103228,141056,7966,-0.031,-0.94,-0.231,-0.183,0.549,0.671,273.348
103214,141089,19647,-0.031,-0.94,-0.231,-0.183,0.549,0.671,273.352
103214,141071,7963,-0.031,-0.941,-0.215,-0.854,0.427,0.915,273.358
103216,141089,19647,-0.031,-0.941,-0.215,-0.854,0.427,0.915,273.362
103216,141063,7971,-0.03,-0.934,-0.225,-1.098,0.732,1.098,273.368
103207,140833,19647,-0.03,-0.934,-0.225,-1.098,0.732,1.098,273.371
103207,141049,7955,-0.031,-0.937,-0.231,-1.585,0.915,1.098,273.378
103230,141089,19647,-0.031,-0.937,-0.231,-1.585,0.915,1.098,273.381
103230,141067,7970,-0.035,-0.931,-0.216,-1.22,0.854,1.098,273.388
103233,140833,19647,-0.035,-0.931,-0.216,-1.22,0.854,1.098,273.391
103233,141050,7959,-0.03,-0.927,-0.238,-0.915,0.854,0.549,273.397
103228,140833,19647,-0.03,-0.927,-0.238,-0.915,0.854,0.549,273.401
103228,141046,7961,-0.026,-0.943,-0.235,-0.549,0.732,0.488,273.407
103228,141089,19647,-0.026,-0.943,-0.235,-0.549,0.732,0.488,273.411
103228,141081,7951,-0.036,-0.93,-0.239,0.244,0.61,0.366,273.417
103246,141089,19647,-0.036,-0.93,-0.239,0.244,0.61,0.366,273.421
103246,141067,7959,-0.031,-0.934,-0.226,0.854,0.427,-0.061,273.427
103220,140833,19647,-0.031,-0.934,-0.226,0.854,0.427,-0.061,273.431
103220,141055,7974,-0.027,-0.937,-0.221,0.976,-0.183,-0.061,273.437
103223,141089,19647,-0.027,-0.937,-0.221,0.976,-0.183,-0.061,273.441
103223,141068,7963,-0.036,-0.941,-0.212,0,0,0.183,273.447
103221,141089,19647,-0.036,-0.941,-0.212,0,0,0.183,273.451
103221,141075,7951,-0.034,-0.942,-0.22,-0.549,0.244,0.427,273.457
103235,141089,19647,-0.034,-0.942,-0.22,-0.549,0.244,0.427,273.461
103235,141059,7953,-0.036,-0.943,-0.238,-1.037,0.61,0.549,273.467
103217,141089,19647,-0.036,-0.943,-0.238,-1.037,0.61,0.549,273.471
103217,141070,7970,-0.036,-0.944,-0.24,-1.341,1.037,0.671,273.477
103234,141089,19647,-0.036,-0.944,-0.235,-1.341,1.037,0.671,273.48
103234,141062,7948,-0.034,-0.933,-0.233,-0.732,0.671,0.61,273.487
103242,140833,19647,-0.032,-0.927,-0.243,-0.732,0.671,0.61,273.49
103242,141052,7970,-0.03,-0.933,-0.248,-0.732,0.427,0.427,273.496
103234,141089,19647,-0.031,-0.934,-0.239,-0.732,0.427,0.427,273.5
103234,141080,7954,-0.031,-0.935,-0.236,-0.366,0.305,0.366,273.506
103227,141089,19647,-0.033,-0.926,-0.233,-0.366,0.305,0.366,273.51
103227,141070,7968,-0.034,-0.926,-0.235,0,0.061,0.061,273.516
103230,141089,19647,-0.032,-0.936,-0.229,0,0.061,0.061,273.52
103230,141067,7965,-0.031,-0.944,-0.219,0.183,0.183,-0.122,273.526
103229,141089,19647,-0.032,-0.944,-0.218,0.183,0.183,-0.122,273.53
103229,141077,7963,-0.031,-0.944,-0.227,-0.061,0.427,-0.061,273.536
103209,140833,19647,-0.035,-0.948,-0.224,-0.061,0.427,-0.061,273.54
103209,141047,7951,-0.034,-0.945,-0.216,-0.122,0.488,0.183,273.546
103216,141089,19647,-0.028,-0.934,-0.218,-0.122,0.488,0.183,273.55
103216,141056,7960,-0.027,-0.929,-0.231,-0.549,0.427,0.488,273.556
103220,140833,19647,-0.028,-0.936,-0.239,-0.549,0.427,0.488,273.56
103220,141034,7965,-0.032,-0.946,-0.232,-1.646,0.854,0.793,273.566
103203,140833,19647,-0.035,-0.943,-0.227,-1.646,0.854,0.793,273.57
103203,141048,7963,-0.035,-0.936,-0.226,-1.098,0.732,0.854,273.576
103212,140833,19647,-0.032,-0.925,-0.231,-1.098,0.732,0.854,273.579
103212,141055,7963,-0.028,-0.923,-0.237,-0.061,0.366,0.488,273.586
103192,141089,19647,-0.028,-0.935,-0.233,-0.061,0.366,0.488,273.589
103192,141063,7953,-0.027,-0.943,-0.228,-0.244,0.549,0.61,273.595
103211,140833,19647,-0.033,-0.938,-0.233,-0.244,0.549,0.61,273.599
103211,141049,7947,-0.035,-0.935,-0.238,-0.366,0.671,0.488,273.605
103219,140833,19647,-0.036,-0.935,-0.235,-0.366,0.671,0.488,273.609
103219,141037,7958,-0.032,-0.939,-0.23,-0.183,0.366,0.366,273.615
103188,140833,19647,-0.027,-0.946,-0.227,-0.183,0.366,0.366,273.619
103188,141047,7950,-0.029,-0.943,-0.231,-0.427,0.244,0.427,273.625
103196,140833,19647,-0.032,-0.938,-0.225,-0.427,0.244,0.427,273.629
103196,141037,7963,-0.035,-0.937,-0.218,-0.671,0.488,0.61,273.635
103190,140833,19647,-0.033,-0.933,-0.223,-0.671,0.488,0.61,273.639
103190,141039,7971,-0.031,-0.926,-0.228,-0.671,0.427,0.61,273.645
103207,141089,19647,-0.031,-0.932,-0.224,-0.671,0.427,0.61,273.649
103207,141062,7961,-0.033,-0.937,-0.218,-0.915,0.671,0.549,273.655
103247,141089,19647,-0.035,-0.936,-0.22,-0.915,0.671,0.549,273.659
103247,141059,7959,-0.033,-0.932,-0.23,-0.793,0.915,0.549,273.665
103212,141089,19647,-0.035,-0.932,-0.235,-0.793,0.915,0.549,273.669
103212,141064,7964,-0.036,-0.938,-0.229,-0.61,1.098,0.549,273.675
103222,141089,19647,-0.032,-0.941,-0.231,-0.61,1.098,0.549,273.678
103222,141088,7954,-0.032,-0.94,-0.239,-0.549,1.037,0.427,273.685
103234,141089,19647,-0.034,-0.942,-0.244,-0.549,1.037,0.427,273.688
103234,141077,7959,-0.034,-0.942,-0.239,-0.549,0.671,0.671,273.694
103228,141089,19647,-0.035,-0.938,-0.234,-0.549,0.671,0.671,273.698
103228,141070,7959,-0.034,-0.928,-0.237,0,0.244,0.549,273.704
103215,141089,19647,-0.03,-0.927,-0.229,0,0.244,0.549,273.708
103215,141064,7947,-0.029,-0.931,-0.227,0,0.122,0.366,273.714
103213,141089,19647,-0.025,-0.934,-0.226,0,0.122,0.366,273.718
103213,141056,7954,-0.03,-0.935,-0.227,-0.366,0.305,0.488,273.724
103223,141089,19647,-0.033,-0.932,-0.224,-0.366,0.305,0.488,273.728
103223,141081,7953,-0.033,-0.931,-0.224,-0.488,0.549,0.305,273.734
103221,141089,19647,-0.032,-0.93,-0.227,-0.488,0.549,0.305,273.738
103221,141072,7962,-0.029,-0.932,-0.226,-0.488,0.427,0.244,273.744
103261,141089,19647,-0.03,-0.938,-0.233,-0.488,0.427,0.244,273.748
103261,141086,7962,-0.036,-0.94,-0.239,-0.915,0.61,0.366,273.754
103232,141089,19647,-0.04,-0.943,-0.245,-0.915,0.61,0.366,273.758
103232,141079,7955,-0.037,-0.943,-0.235,-0.549,0.671,0.366,273.764
103255,141089,19647,-0.033,-0.936,-0.231,-0.549,0.671,0.366,273.768
103255,141102,7949,-0.032,-0.928,-0.232,0.122,0,0.305,273.774
103243,141089,19647,-0.031,-0.929,-0.23,0.122,0,0.305,273.777
103243,141082,7968,-0.033,-0.934,-0.233,-0.427,0.183,0.244,273.784
103239,141089,19647,-0.033,-0.935,-0.236,-0.427,0.183,0.244,273.787
103239,141085,7967,-0.031,-0.933,-0.237,-0.793,0.244,0.427,273.793
103220,141089,19647,-0.033,-0.932,-0.236,-0.793,0.244,0.427,273.797
103220,141088,7965,-0.032,-0.932,-0.23,-0.122,-0.061,0.305,273.803
103223,140833,19647,-0.029,-0.934,-0.224,-0.122,-0.061,0.305,273.807
103223,141055,7965,-0.03,-0.93,-0.218,0.732,-0.305,-0.061,273.813
103244,141089,19647,-0.029,-0.934,-0.22,0.732,-0.305,-0.061,273.817
103244,141076,7963,-0.031,-0.937,-0.226,0.244,-0.122,-0.061,273.823
103248,141089,19647,-0.03,-0.94,-0.23,0.244,-0.122,-0.061,273.827
103248,141086,7961,-0.033,-0.944,-0.229,-0.122,0.183,0.183,273.833
103258,141089,19647,-0.034,-0.944,-0.223,-0.122,0.183,0.183,273.837
103258,141084,7968,-0.035,-0.937,-0.219,0.183,0.244,0.183,273.843
103257,141089,19647,-0.031,-0.931,-0.228,0.183,0.244,0.183,273.847
103257,141102,7963,-0.027,-0.933,-0.23,-0.427,0.244,0.122,273.853
103260,141089,19647,-0.027,-0.94,-0.232,-0.427,0.244,0.122,273.857
103260,141080,7969,-0.03,-0.943,-0.234,-0.915,0.61,0.305,273.863
103248,141089,19647,-0.03,-0.943,-0.233,-0.915,0.61,0.305,273.867
103248,141106,7958,-0.029,-0.935,-0.235,-0.976,0.915,0.427,273.873
103250,141089,19647,-0.031,-0.93,-0.235,-0.976,0.915,0.427,273.876
103250,141088,7964,-0.028,-0.929,-0.23,-0.305,0.549,0.305,273.883
103240,141089,19647,-0.026,-0.932,-0.223,-0.305,0.549,0.305,273.886
103240,141090,7966,-0.028,-0.936,-0.222,-0.305,0.549,0.366,273.893
103219,141089,19647,-0.028,-0.937,-0.233,-0.305,0.549,0.366,273.896
103219,141103,7959,-0.032,-0.938,-0.238,-0.732,0.671,0.549,273.902
103237,141089,19647,-0.033,-0.937,-0.236,-0.732,0.671,0.549,273.906
103237,141108,7952,-0.032,-0.936,-0.234,-0.061,0.366,0.488,273.912
103244,141089,19647,-0.031,-0.935,-0.233,-0.061,0.366,0.488,273.916
103244,141089,7967,-0.034,-0.931,-0.229,0.61,0.244,0.244,273.922
103232,141089,19647,-0.034,-0.931,-0.229,0.61,0.244,0.244,273.926
103232,141085,7960,-0.033,-0.937,-0.214,0.671,0.305,0.061,273.932
103239,141089,19647,-0.033,-0.937,-0.214,0.671,0.305,0.061,273.936
103239,141084,7962,-0.03,-0.945,-0.228,-0.122,0.549,0.122,273.942
103241,141089,19647,-0.03,-0.945,-0.228,-0.122,0.549,0.122,273.946
103241,141086,7972,-0.036,-0.945,-0.229,-0.244,0.61,0.61,273.952
103232,141089,19647,-0.036,-0.945,-0.229,-0.244,0.61,0.61,273.956
103232,141088,7957,-0.031,-0.94,-0.23,0.061,0.549,0.549,273.962
103225,141089,19647,-0.031,-0.94,-0.23,0.061,0.549,0.549,273.966
103225,141068,7960,-0.03,-0.938,-0.24,-0.122,0.671,0.793,273.972
103248,141089,19647,-0.03,-0.938,-0.24,-0.122,0.671,0.793,273.975
103248,141070,7952,-0.033,-0.926,-0.248,-0.244,0.793,0.854,273.982
103213,141089,19647,-0.033,-0.926,-0.248,-0.244,0.793,0.854,273.985
103213,141083,7957,-0.03,-0.921,-0.243,-0.061,0.366,0.549,273.991
103225,141089,19647,-0.03,-0.921,-0.243,-0.061,0.366,0.549,273.995
103225,141094,7963,-0.027,-0.926,-0.239,0.061,-0.061,0.183,274.001
103232,141089,19647,-0.027,-0.926,-0.239,0.061,-0.061,0.183,274.005
103232,141073,7962,-0.032,-0.93,-0.232,-0.061,-0.061,-0.061,274.011
103233,141089,19647,-0.032,-0.93,-0.232,-0.061,-0.061,-0.061,274.015
103233,141100,7951,-0.033,-0.936,-0.219,0,-0.061,-0.366,274.021
103217,141089,19647,-0.033,-0.936,-0.219,0,-0.061,-0.366,274.025
103217,141078,7964,-0.032,-0.945,-0.235,-0.244,-0.061,-0.366,274.031
103243,141089,19647,-0.032,-0.945,-0.235,-0.244,-0.061,-0.366,274.035
103243,141092,7955,-0.039,-0.945,-0.226,-0.061,0.183,-0.183,274.041
103215,141089,19647,-0.039,-0.945,-0.226,-0.061,0.183,-0.183,274.045
103215,141112,7946,-0.031,-0.934,-0.229,0.427,0.061,-0.305,274.051
103234,141089,19647,-0.031,-0.934,-0.229,0.427,0.061,-0.305,274.055
103234,141102,7977,-0.029,-0.946,-0.223,0.305,0.122,-0.061,274.061
103243,141089,19647,-0.029,-0.946,-0.223,0.305,0.122,-0.061,274.065
103243,141103,7955,-0.032,-0.945,-0.226,0.305,0.122,-0.061,274.071
103260,141089,19647,-0.032,-0.937,-0.235,0.183,0.305,0.488,274.074
103260,141104,7964,-0.037,-0.932,-0.238,0.183,0.305,0.488,274.081
103235,141089,19647,-0.035,-0.93,-0.229,0.732,0.244,0.305,274.084
103235,141114,7970,-0.033,-0.928,-0.226,0.732,0.244,0.305,274.091
103236,141089,19647,-0.03,-0.926,-0.228,1.037,0.061,0.122,274.094
103236,141109,7968,-0.028,-0.929,-0.224,1.037,0.061,0.122,274.1
103260,141089,19647,-0.029,-0.932,-0.229,0.61,0.183,-0.183,274.104
103260,141101,7966,-0.024,-0.935,-0.231,0.61,0.183,-0.183,274.11
103250,141089,19647,-0.026,-0.941,-0.221,0.366,0.427,-0.244,274.114
103250,141081,7974,-0.029,-0.942,-0.217,0.366,0.427,-0.244,274.12
103265,141089,19647,-0.027,-0.94,-0.224,0.305,0.488,-0.366,274.124
103265,141124,7954,-0.024,-0.939,-0.229,0.305,0.488,-0.366,274.13
103259,141089,19647,-0.026,-0.942,-0.234,-0.488,0.488,-0.183,274.134
103259,141113,7978,-0.03,-0.948,-0.235,-0.488,0.488,-0.183,274.14
103273,141089,19647,-0.028,-0.946,-0.237,-0.732,0.671,0.244,274.144
103273,141120,7961,-0.027,-0.944,-0.237,-0.732,0.671,0.244,274.15
103279,141089,19647,-0.03,-0.935,-0.236,-0.244,0.427,0.305,274.154
103279,141110,7972,-0.028,-0.932,-0.235,-0.244,0.427,0.305,274.16
103275,141089,19647,-0.027,-0.931,-0.237,0.122,0,0.366,274.164
103275,141091,7953,-0.03,-0.932,-0.233,0.122,0,0.366,274.17
103263,141089,19647,-0.032,-0.934,-0.218,0.305,0.061,0.488,274.173
103263,141133,7973,-0.033,-0.931,-0.228,0.305,0.061,0.488,274.18
103255,141089,19647,-0.033,-0.927,-0.237,0.366,0.061,0.427,274.183
103255,141140,7971,-0.036,-0.931,-0.237,0.366,0.061,0.427,274.189
103248,141089,19647,-0.035,-0.937,-0.229,0.488,-0.061,0.305,274.193
103248,141099,7972,-0.032,-0.948,-0.213,0.488,-0.061,0.305,274.199
103254,141089,19647,-0.028,-0.943,-0.215,0.854,0.061,-0.122,274.203
103254,141108,7969,-0.032,-0.934,-0.232,0.854,0.061,-0.122,274.209
103247,141089,19647,-0.03,-0.941,-0.232,0.244,0.305,0.122,274.213
103247,141069,7966,-0.027,-0.946,-0.23,0.244,0.305,0.122,274.219
103234,141089,19647,-0.029,-0.942,-0.233,0.244,0.305,0.488,274.223
103234,141072,7962,-0.033,-0.937,-0.232,0.244,0.305,0.488,274.229
103228,141089,19647,-0.035,-0.932,-0.226,0.183,0.366,0.366,274.233
103228,141057,7970,-0.029,-0.927,-0.226,0.183,0.366,0.366,274.239
103233,141089,19647,-0.028,-0.928,-0.22,0.305,0.183,0.427,274.243
103233,141090,7970,-0.028,-0.933,-0.219,0.305,0.183,0.427,274.249
103233,141089,19647,-0.035,-0.932,-0.225,0,0.305,0.366,274.253
103233,141104,7951,-0.038,-0.93,-0.229,0,0.305,0.366,274.259
103241,141089,19647,-0.033,-0.936,-0.231,-0.122,0.488,0.122,274.263
103241,141089,7968,-0.034,-0.937,-0.231,-0.122,0.488,0.122,274.269
103234,141089,19647,-0.033,-0.936,-0.228,0.244,0.305,0,274.272
103234,141086,7978,-0.029,-0.939,-0.225,0.244,0.305,0,274.279
103206,141089,19647,-0.03,-0.943,-0.222,0.427,0.366,0,274.282
103206,141071,7950,-0.029,-0.942,-0.224,0.427,0.366,0,274.288
103220,141089,19647,-0.031,-0.942,-0.226,-0.122,0.61,0.244,274.292
103220,141076,7957,-0.031,-0.942,-0.236,-0.122,0.61,0.244,274.298
103221,141089,19647,-0.029,-0.946,-0.241,-0.427,0.671,0.488,274.302
103221,141056,7950,-0.031,-0.943,-0.234,-0.427,0.671,0.488,274.308
103216,141089,19647,-0.03,-0.931,-0.225,0.305,0.366,0.671,274.312
103216,141062,7973,-0.028,-0.921,-0.223,0.305,0.366,0.671,274.318
103234,140833,19647,-0.029,-0.923,-0.225,0.549,0.122,0.366,274.322
103234,141050,7964,-0.026,-0.929,-0.228,0.549,0.122,0.366,274.328
103229,141089,19647,-0.027,-0.935,-0.229,-0.244,0.305,0.488,274.332
103229,141073,7971,-0.03,-0.936,-0.23,-0.244,0.305,0.488,274.338
103234,141089,19647,-0.034,-0.936,-0.233,-0.488,0.488,0.366,274.342
103234,141064,7964,-0.035,-0.934,-0.233,-0.488,0.488,0.366,274.348
103245,141089,19647,-0.031,-0.932,-0.228,0.366,0.183,0,274.352
103245,141085,7954,-0.027,-0.937,-0.225,0.366,0.183,0,274.358
103240,141089,19647,-0.029,-0.943,-0.227,0.488,0.122,0.122,274.362
103240,141082,7962,-0.03,-0.944,-0.227,0.488,0.122,0.122,274.368
103230,141089,19647,-0.036,-0.942,-0.227,0.122,0.244,0.183,274.371
103230,141097,7965,-0.036,-0.94,-0.229,0.122,0.244,0.183,274.378
103232,141089,19647,-0.033,-0.941,-0.227,0.244,0.305,0.122,274.381
103232,141095,7964,-0.031,-0.937,-0.225,0.244,0.305,0.122,274.387
103248,141089,19647,-0.032,-0.935,-0.225,0.61,0.366,0.183,274.391
103248,141070,7942,-0.031,-0.936,-0.226,0.61,0.366,0.183,274.397
103222,141089,19647,-0.03,-0.94,-0.229,0.427,0.488,0.244,274.401
103222,141090,7966,-0.028,-0.939,-0.224,0.427,0.488,0.244,274.407
103240,141089,19647,-0.03,-0.936,-0.227,0.122,0.427,0.366,274.411
103240,141092,7968,-0.029,-0.933,-0.231,0.122,0.427,0.366,274.417
103235,141089,19647,-0.032,-0.932,-0.233,0.061,0.427,0.366,274.421
103235,141078,7962,-0.032,-0.933,-0.233,0.061,0.427,0.366,274.427
103260,141089,19647,-0.03,-0.935,-0.229,0,0.366,0.427,274.431
103260,141084,7950,-0.032,-0.934,-0.229,0,0.366,0.427,274.437
103239,141089,19647,-0.033,-0.934,-0.23,0,0.061,0.305,274.441
103239,141122,7952,-0.033,-0.931,-0.234,0,0.061,0.305,274.447
103223,141089,19647,-0.034,-0.933,-0.234,-0.183,-0.061,0.122,274.451
103223,141076,7959,-0.033,-0.937,-0.232,-0.183,-0.061,0.122,274.457
103211,141089,19647,-0.031,-0.942,-0.229,0.183,0,-0.122,274.461
103211,141091,7967,-0.03,-0.942,-0.226,0.183,0,-0.122,274.467
103240,141089,19647,-0.031,-0.941,-0.22,0.488,0,-0.244,274.47
103240,141078,7962,-0.029,-0.937,-0.226,0.488,0,-0.244,274.477
103227,141089,19647,-0.03,-0.937,-0.231,0,-0.061,-0.122,274.48
103227,141070,7981,-0.031,-0.939,-0.228,0,-0.061,-0.122,274.486
103243,141089,19647,-0.032,-0.942,-0.231,-0.427,0.305,0.244,274.49
103243,141101,7967,-0.034,-0.94,-0.233,-0.427,0.305,0.244,274.496
103237,141089,19647,-0.034,-0.938,-0.229,-0.244,0.366,0.305,274.5
103237,141092,7952,-0.033,-0.935,-0.223,-0.244,0.366,0.305,274.506
103222,141089,19647,-0.033,-0.935,-0.223,-0.244,0.366,0.305,274.51
103222,141082,7948,-0.03,-0.934,-0.22,0.183,0.183,0.183,274.516
103214,141089,19647,-0.03,-0.934,-0.22,0.183,0.183,0.183,274.52
103214,141086,7963,-0.029,-0.935,-0.229,0.061,0.427,0.183,274.526
103233,141089,19647,-0.029,-0.935,-0.229,0.061,0.427,0.183,274.53
103233,141077,7975,-0.03,-0.943,-0.231,-0.488,0.549,0.244,274.536
103222,141089,19647,-0.03,-0.943,-0.231,-0.488,0.549,0.244,274.54
103222,141057,7947,-0.025,-0.938,-0.234,-0.366,0.488,0.305,274.546
103222,141089,19647,-0.025,-0.938,-0.234,-0.366,0.488,0.305,274.55
103222,141057,7963,-0.03,-0.94,-0.23,-0.122,0.305,0.183,274.556
103223,141089,19647,-0.03,-0.94,-0.23,-0.122,0.305,0.183,274.56
103223,141071,7982,-0.021,-0.943,-0.233,-0.061,0.061,0.305,274.566
103248,141089,19647,-0.021,-0.943,-0.233,-0.061,0.061,0.305,274.569
103248,141078,7940,-0.029,-0.934,-0.229,0.122,-0.183,0.427,274.576
103230,141089,19647,-0.029,-0.934,-0.229,0.122,-0.183,0.427,274.579
103230,141085,7971,-0.028,-0.928,-0.219,0.549,-0.366,0.488,274.586
103232,141089,19647,-0.028,-0.928,-0.219,0.549,-0.366,0.488,274.589
103232,141100,7954,-0.025,-0.932,-0.222,0.122,-0.183,0.366,274.595
103236,141089,19647,-0.025,-0.932,-0.222,0.122,-0.183,0.366,274.599
103236,141082,7970,-0.03,-0.936,-0.212,-0.366,0.549,0.366,274.605
103228,141089,19647,-0.03,-0.936,-0.212,-0.366,0.549,0.366,274.609
103228,141093,7953,-0.032,-0.938,-0.231,-0.122,0.732,0.305,274.615
103220,141089,19647,-0.032,-0.938,-0.231,-0.122,0.732,0.305,274.619
103220,141073,7960,-0.032,-0.949,-0.23,-0.183,0.915,0.549,274.625
103229,141089,19647,-0.032,-0.949,-0.23,-0.183,0.915,0.549,274.629
103229,141088,7963,-0.032,-0.932,-0.237,0,0.854,0.488,274.635
103223,141089,19647,-0.032,-0.932,-0.237,0,0.854,0.488,274.639
103223,141087,7974,-0.032,-0.939,-0.232,-0.122,0.732,0.366,274.645
103222,141089,19647,-0.032,-0.939,-0.232,-0.122,0.732,0.366,274.649
103222,141103,7957,-0.028,-0.941,-0.227,-0.061,0.305,0.549,274.655
103233,141089,19647,-0.024,-0.939,-0.219,-0.061,0.305,0.549,274.659
103233,141106,7956,-0.027,-0.935,-0.219,-0.305,0.305,0.549,274.665
103232,141089,19647,-0.027,-0.933,-0.226,-0.305,0.305,0.549,274.668
103232,141102,7953,-0.026,-0.933,-0.233,-0.061,0.488,0.671,274.675
103239,141089,19647,-0.031,-0.936,-0.228,-0.061,0.488,0.671,274.678
103239,141110,7968,-0.025,-0.934,-0.219,0.366,0.488,0.61,274.684
103245,141089,19647,-0.025,-0.936,-0.222,0.366,0.488,0.61,274.688
103245,141098,7971,-0.028,-0.938,-0.229,0.061,0.488,0.366,274.694
103247,141089,19647,-0.024,-0.942,-0.23,0.061,0.488,0.366,274.698
103247,141076,7952,-0.026,-0.94,-0.232,-0.183,0.61,0.427,274.704
103234,141089,19647,-0.031,-0.938,-0.236,-0.183,0.61,0.427,274.708
103234,141095,7970,-0.029,-0.934,-0.237,-0.244,0.61,0.305,274.714
103241,141089,19647,-0.032,-0.933,-0.224,-0.244,0.61,0.305,274.718
103241,141098,7970,-0.032,-0.931,-0.223,-0.122,0.427,0.183,274.724
103239,141089,19647,-0.03,-0.928,-0.23,-0.122,0.427,0.183,274.728
103239,141098,7955,-0.032,-0.937,-0.227,-0.488,0.488,0.244,274.734
103225,141089,19647,-0.033,-0.943,-0.224,-0.488,0.488,0.244,274.738
103225,141090,7968,-0.033,-0.943,-0.227,-0.854,0.61,0.244,274.744
103243,141089,19647,-0.036,-0.941,-0.237,-0.854,0.61,0.244,274.748
103243,141082,7956,-0.035,-0.939,-0.231,-0.366,0.488,0.305,274.754
103231,141089,19647,-0.034,-0.94,-0.22,-0.366,0.488,0.305,274.757
103231,141098,7968,-0.029,-0.936,-0.224,0.488,0.183,0.244,274.764
103254,141089,19647,-0.031,-0.937,-0.229,0.488,0.183,0.244,274.767
103254,141092,7962,-0.03,-0.945,-0.229,0.122,0.305,0.305,274.774
103235,141089,19647,-0.031,-0.945,-0.228,0.122,0.305,0.305,274.777
103235,141110,7961,-0.033,-0.937,-0.225,0.183,0.366,0.488,274.783
103255,141089,19647,-0.035,-0.927,-0.224,0.183,0.366,0.488,274.787
103255,141109,7952,-0.036,-0.925,-0.225,0.854,0.122,0.183,274.793
103241,141089,19647,-0.029,-0.927,-0.23,0.854,0.122,0.183,274.797
103241,141106,7974,-0.027,-0.932,-0.225,0.488,0.122,0.061,274.803
103263,141089,19647,-0.027,-0.937,-0.221,0.488,0.122,0.061,274.807
103263,141133,7969,-0.028,-0.939,-0.223,-0.305,0.488,0,274.813
103250,141089,19647,-0.03,-0.942,-0.229,-0.305,0.488,0,274.817
103250,141099,7954,-0.026,-0.945,-0.229,-0.671,0.427,-0.061,274.823
103252,141089,19647,-0.025,-0.945,-0.231,-0.671,0.427,-0.061,274.827
103252,141137,7972,-0.026,-0.941,-0.233,-0.427,0.244,0.244,274.833
103257,141089,19647,-0.026,-0.941,-0.234,-0.427,0.244,0.244,274.837
103257,141107,7959,-0.029,-0.935,-0.231,0,0.122,0.488,274.843
103243,141089,19647,-0.032,-0.93,-0.234,0,0.122,0.488,274.847
103243,141116,7968,-0.031,-0.933,-0.235,0.183,-0.122,0.366,274.853
103243,141089,19647,-0.032,-0.932,-0.237,0.183,-0.122,0.366,274.857
103243,141092,7959,-0.032,-0.93,-0.232,0.732,-0.427,0.061,274.863
103253,141089,19647,-0.032,-0.932,-0.23,0.732,-0.427,0.061,274.866
103253,141091,7963,-0.035,-0.934,-0.225,1.28,-0.61,-0.183,274.873
103247,141089,19647,-0.032,-0.937,-0.222,1.28,-0.61,-0.183,274.876
103247,141123,7971,-0.032,-0.936,-0.217,1.037,-0.366,-0.427,274.882
103268,141089,19647,-0.03,-0.938,-0.221,1.037,-0.366,-0.427,274.886
103268,141096,7951,-0.03,-0.94,-0.218,0.305,-0.061,-0.549,274.892
103255,141089,19647,-0.028,-0.946,-0.207,0.305,-0.061,-0.549,274.896
103255,141144,7965,-0.028,-0.945,-0.214,-0.488,0.183,-0.122,274.902
103279,141089,19647,-0.031,-0.942,-0.219,-0.488,0.183,-0.122,274.906
103279,141128,7975,-0.031,-0.944,-0.223,-1.159,0.671,0.305,274.912
103268,141089,19647,-0.032,-0.944,-0.223,-1.159,0.671,0.305,274.916
103268,141133,7967,-0.031,-0.939,-0.226,-1.098,0.732,0.61,274.922
103258,141089,19647,-0.031,-0.938,-0.227,-1.098,0.732,0.61,274.926
103258,141113,7967,-0.031,-0.932,-0.232,-0.671,0.671,0.671,274.932
103256,141089,19647,-0.031,-0.934,-0.238,-0.671,0.671,0.671,274.936
103256,141099,7971,-0.027,-0.94,-0.229,-0.305,0.488,0.488,274.942
103241,141089,19647,-0.027,-0.942,-0.223,-0.305,0.488,0.488,274.946
103241,141129,7969,-0.027,-0.935,-0.221,0.305,0.183,0.427,274.952
103236,141089,19647,-0.022,-0.932,-0.223,0.305,0.183,0.427,274.955
103236,141110,7976,-0.023,-0.937,-0.226,0.061,0.305,0.244,274.962
103239,141089,19647,-0.022,-0.941,-0.227,0.061,0.305,0.244,274.965
103239,141126,7971,-0.025,-0.944,-0.224,-0.488,0.61,0.488,274.972
103253,141089,19647,-0.026,-0.945,-0.219,-0.488,0.61,0.488,274.975
103253,141099,7960,-0.028,-0.935,-0.22,-0.061,0.793,0.61,274.981
103253,141089,19647,-0.029,-0.926,-0.228,-0.061,0.793,0.61,274.985
103253,141127,7978,-0.031,-0.931,-0.228,-0.305,0.854,0.427,274.991
103238,141089,19647,-0.031,-0.942,-0.225,-0.305,0.854,0.427,274.995
103238,141105,7974,-0.034,-0.946,-0.228,-0.488,0.854,0.427,275.001
103246,141089,19647,-0.035,-0.938,-0.237,-0.488,0.854,0.427,275.005
103246,141105,7963,-0.035,-0.936,-0.238,-0.061,0.732,0.305,275.011
103218,141089,19647,-0.031,-0.937,-0.229,-0.061,0.732,0.305,275.015
103218,141111,7972,-0.026,-0.938,-0.224,0.671,0.122,0.305,275.021
103229,141089,19647,-0.027,-0.938,-0.221,0.671,0.122,0.305,275.025
103229,141090,7962,-0.031,-0.934,-0.221,0.061,0.183,0.549,275.031
103237,141089,19647,-0.036,-0.935,-0.224,0.061,0.183,0.549,275.035
103237,141110,7950,-0.033,-0.939,-0.226,-0.61,0.671,0.732,275.041
103224,141089,19647,-0.032,-0.943,-0.223,-0.61,0.671,0.732,275.045
103224,141089,7965,-0.027,-0.938,-0.217,-0.427,0.61,0.732,275.051
103219,141089,19647,-0.027,-0.933,-0.222,-0.427,0.61,0.732,275.055
103219,141072,7967,-0.028,-0.938,-0.232,-0.732,0.671,0.732,275.061
103178,140833,19647,-0.03,-0.942,-0.233,-0.732,0.671,0.732,275.064
103178,141052,7978,-0.03,-0.943,-0.229,-0.915,0.854,0.976,275.071
103217,141089,19647,-0.032,-0.941,-0.223,-0.915,0.854,0.976,275.074
103217,141060,7956,-0.032,-0.936,-0.228,-0.427,0.671,0.854,275.08
103206,140833,19647,-0.03,-0.931,-0.234,-0.427,0.671,0.854,275.084
103206,141050,7965,-0.028,-0.933,-0.226,-0.244,0.488,0.793,275.09
103218,140833,19647,-0.028,-0.933,-0.226,-0.244,0.488,0.793,275.094
103218,141051,7963,-0.032,-0.932,-0.225,-0.366,0.549,0.671,275.1
103201,140833,19647,-0.032,-0.932,-0.225,-0.366,0.549,0.671,275.104
103201,141045,7955,-0.035,-0.936,-0.232,-0.915,0.671,0.549,275.11
103223,141089,19647,-0.035,-0.936,-0.232,-0.915,0.671,0.549,275.114
103223,141088,7955,-0.03,-0.937,-0.229,-0.488,0.549,0.366,275.12
103213,141089,19647,-0.03,-0.937,-0.229,-0.488,0.549,0.366,275.124
103213,141065,7968,-0.031,-0.941,-0.228,-0.183,0.549,0.244,275.13
103217,141089,19647,-0.031,-0.941,-0.228,-0.183,0.549,0.244,275.134
103217,141105,7968,-0.029,-0.939,-0.229,-0.122,0.366,0.122,275.14
103225,141089,19647,-0.029,-0.939,-0.229,-0.122,0.366,0.122,275.144
103225,141070,7958,-0.032,-0.938,-0.235,-0.244,0.244,0.244,275.15
103221,140833,19647,-0.032,-0.938,-0.235,-0.244,0.244,0.244,275.154
103221,141053,7972,-0.032,-0.932,-0.223,0.061,0.305,0.183,275.16
103225,141089,19647,-0.032,-0.932,-0.223,0.061,0.305,0.183,275.163
103225,141060,7976,-0.03,-0.934,-0.228,0.427,0,0.061,275.17
103199,141089,19647,-0.03,-0.934,-0.228,0.427,0,0.061,275.173
103199,141102,7967,-0.032,-0.932,-0.224,0.61,0,0.122,275.179
103220,141089,19647,-0.032,-0.932,-0.224,0.61,0,0.122,275.183
103220,141087,7958,-0.031,-0.933,-0.224,0.488,0.061,-0.122,275.189
103208,141089,19647,-0.031,-0.933,-0.224,0.488,0.061,-0.122,275.193
103208,141094,7974,-0.032,-0.944,-0.229,0.122,0.061,-0.122,275.199
103224,141089,19647,-0.032,-0.944,-0.229,0.122,0.061,-0.122,275.203
103224,141089,7956,-0.029,-0.944,-0.223,-0.061,0.061,-0.061,275.209
103221,141089,19647,-0.029,-0.944,-0.223,-0.061,0.061,-0.061,275.213
103221,141065,7958,-0.029,-0.944,-0.226,-0.488,0,0.366,275.219
103217,141089,19647,-0.029,-0.944,-0.226,-0.488,0,0.366,275.223
103217,141090,7956,-0.032,-0.939,-0.225,-0.793,0.305,0.793,275.229
103211,141089,19647,-0.032,-0.939,-0.225,-0.793,0.305,0.793,275.233
103211,141059,7957,-0.034,-0.938,-0.226,-0.793,0.305,0.793,275.239
103199,141089,19647,-0.036,-0.927,-0.224,-0.305,0.244,0.732,275.243
103199,141065,7966,-0.032,-0.927,-0.221,-0.305,0.244,0.732,275.249
103213,141089,19647,-0.025,-0.933,-0.219,-0.122,0.183,0.366,275.252
103213,141066,7968,-0.024,-0.941,-0.227,-0.122,0.183,0.366,275.259
103200,140833,19647,-0.027,-0.944,-0.229,-0.305,0.427,0.305,275.262
103200,141040,7958,-0.031,-0.944,-0.225,-0.305,0.427,0.305,275.269
103228,141089,19647,-0.031,-0.939,-0.222,0,0.488,0.122,275.272
103228,141074,7954,-0.028,-0.932,-0.228,0,0.488,0.122,275.278
103204,141089,19647,-0.024,-0.936,-0.226,0.244,0.244,0.061,275.282
103204,141075,7968,-0.023,-0.943,-0.221,0.244,0.244,0.061,275.288
103225,141089,19647,-0.027,-0.937,-0.226,-0.305,0.244,0.183,275.292
103225,141056,7948,-0.026,-0.937,-0.229,-0.305,0.244,0.183,275.298
103214,141089,19647,-0.031,-0.939,-0.227,-0.854,0.366,0.427,275.302
103214,141056,7959,-0.029,-0.938,-0.219,-0.854,0.366,0.427,275.308
103202,141089,19647,-0.025,-0.931,-0.225,-0.305,0.244,0.549,275.312
103202,141070,7954,-0.024,-0.932,-0.233,-0.305,0.244,0.549,275.318
103213,141089,19647,-0.03,-0.938,-0.233,-0.366,0.488,0.488,275.322
103213,141059,7962,-0.032,-0.937,-0.233,-0.366,0.488,0.488,275.328
103194,141089,19647,-0.031,-0.938,-0.228,-0.183,0.488,0.61,275.332
103194,141058,7965,-0.032,-0.936,-0.226,-0.183,0.488,0.61,275.338
103198,140833,19647,-0.028,-0.942,-0.223,-0.061,0.427,0.549,275.342
103198,141049,7964,-0.027,-0.94,-0.216,-0.061,0.427,0.549,275.348
103189,141089,19647,-0.027,-0.935,-0.222,0.122,0.488,0.488,275.352
103189,141083,7956,-0.031,-0.935,-0.224,0.122,0.488,0.488,275.358
103207,141089,19647,-0.034,-0.936,-0.225,-0.305,0.793,0.61,275.361
103207,141056,7957,-0.031,-0.938,-0.228,-0.305,0.793,0.61,275.368
103205,140833,19647,-0.028,-0.943,-0.228,-0.488,0.915,0.732,275.371
103205,141051,7980,-0.029,-0.938,-0.232,-0.488,0.915,0.732,275.377
103203,141089,19647,-0.034,-0.938,-0.232,-0.488,0.915,0.732,275.381
103203,141063,7964,-0.035,-0.936,-0.23,-0.488,0.915,0.732,275.387
103199,141089,19647,-0.033,-0.932,-0.231,0,0.61,0.549,275.391
103199,141069,7965,-0.032,-0.936,-0.231,0,0.61,0.549,275.397
103203,141089,19647,-0.029,-0.938,-0.23,-0.061,0.366,0.549,275.401
103203,141063,7967,-0.032,-0.937,-0.233,-0.061,0.366,0.549,275.407
103216,141089,19647,-0.033,-0.934,-0.237,-0.244,0.305,0.549,275.411
103216,141074,7950,-0.035,-0.935,-0.228,-0.244,0.305,0.549,275.417
103209,141089,19647,-0.035,-0.936,-0.219,-0.061,0.183,0.305,275.421
103209,141067,7959,-0.03,-0.932,-0.224,-0.061,0.183,0.305,275.427
103221,141089,19647,-0.03,-0.936,-0.232,-0.183,0.183,0.061,275.431
103221,141089,7972,-0.029,-0.941,-0.235,-0.183,0.183,0.061,275.437
103219,141089,19647,-0.031,-0.941,-0.235,-0.122,0.244,0.305,275.441
103219,141061,7967,-0.032,-0.937,-0.23,-0.122,0.244,0.305,275.447
103210,141089,19647,-0.033,-0.932,-0.224,0.427,0.183,0.305,275.45
103210,141107,7960,-0.031,-0.928,-0.227,0.427,0.183,0.305,275.457
103223,141089,19647,-0.031,-0.933,-0.225,0.488,0.122,-0.183,275.46
103223,141088,7976,-0.03,-0.942,-0.223,0.488,0.122,-0.183,275.467
103203,141089,19647,-0.029,-0.943,-0.22,0.305,0.183,-0.061,275.47
103203,141124,7971,-0.029,-0.937,-0.221,0.305,0.183,-0.061,275.476
103218,141089,19647,-0.031,-0.934,-0.228,-0.061,0.244,0.183,275.48
103218,141088,7962,-0.028,-0.941,-0.228,-0.061,0.244,0.183,275.486
103211,141089,19647,-0.031,-0.944,-0.226,-0.671,0.427,0.305,275.49
103211,141083,7955,-0.035,-0.945,-0.219,-0.671,0.427,0.305,275.496
103234,141089,19647,-0.032,-0.945,-0.209,-0.366,0.366,0.244,275.5
103234,141088,7957,-0.029,-0.94,-0.215,-0.366,0.366,0.244,275.506
103225,141089,19647,-0.028,-0.936,-0.228,-0.244,0.244,0.305,275.51
103225,141087,7973,-0.028,-0.939,-0.232,-0.244,0.244,0.305,275.516
103231,141089,19647,-0.032,-0.943,-0.229,-0.854,0.488,0.732,275.52
103231,141098,7967,-0.033,-0.942,-0.227,-0.854,0.488,0.732,275.526
103259,141089,19647,-0.037,-0.933,-0.23,-0.854,0.61,0.793,275.53
103259,141089,7954,-0.035,-0.93,-0.232,-0.854,0.61,0.793,275.536
103221,141089,19647,-0.031,-0.924,-0.226,-0.122,0.427,0.488,275.54
103221,141068,7961,-0.029,-0.925,-0.216,-0.122,0.427,0.488,275.546
103215,141089,19647,-0.023,-0.923,-0.226,0,0.427,0.122,275.549
103215,141086,7974,-0.029,-0.933,-0.234,0,0.427,0.122,275.556
103221,141089,19647,-0.03,-0.947,-0.231,-0.671,0.732,0,275.559
103221,141085,7963,-0.029,-0.95,-0.231,-0.671,0.732,0,275.566
103202,141089,19647,-0.03,-0.941,-0.227,-0.488,0.671,0.061,275.569
103202,141113,7966,-0.033,-0.932,-0.232,-0.488,0.671,0.061,275.575
103221,141089,19647,-0.032,-0.933,-0.231,-0.244,0.549,-0.061,275.579
103221,141106,7951,-0.03,-0.939,-0.222,-0.244,0.549,-0.061,275.585
103233,141089,19647,-0.023,-0.944,-0.224,-0.366,0.366,0.122,275.589
103233,141099,7957,-0.026,-0.947,-0.233,-0.366,0.366,0.122,275.595
103208,141089,19647,-0.032,-0.947,-0.227,-0.671,0.488,0.366,275.599
103208,141101,7954,-0.032,-0.938,-0.224,-0.671,0.488,0.366,275.605
103227,141089,19647,-0.028,-0.933,-0.222,-0.061,0.366,0.488,275.609
103227,141092,7963,-0.027,-0.934,-0.217,-0.061,0.366,0.488,275.615
103223,141089,19647,-0.029,-0.936,-0.217,0.122,0.122,0.427,275.619
103223,141095,7960,-0.029,-0.933,-0.215,0.122,0.122,0.427,275.625
103222,141089,19647,-0.03,-0.939,-0.22,-0.305,0.366,0.488,275.629
103222,141093,7964,-0.029,-0.943,-0.225,-0.305,0.366,0.488,275.635
103242,141089,19647,-0.032,-0.943,-0.228,-0.305,0.488,0.61,275.639
103242,141107,7943,-0.026,-0.937,-0.235,-0.305,0.488,0.61,275.645
103221,141089,19647,-0.029,-0.935,-0.231,-0.244,0.671,0.61,275.648
103221,141081,7970,-0.032,-0.936,-0.237,-0.244,0.671,0.61,275.655
103239,141089,19647,-0.032,-0.933,-0.236,-0.305,0.671,0.61,275.658
103239,141083,7963,-0.034,-0.931,-0.225,-0.305,0.671,0.61,275.665
103197,141089,19647,-0.032,-0.932,-0.223,0,0.549,0.366,275.668
103197,141081,7953,-0.03,-0.93,-0.237,0,0.549,0.366,275.674
103214,141089,19647,-0.03,-0.934,-0.247,-0.244,0.427,0.305,275.678
103214,141083,7974,-0.031,-0.943,-0.244,-0.244,0.427,0.305,275.684
103217,141089,19647,-0.031,-0.943,-0.244,-0.244,0.427,0.305,275.688
103217,141120,7950,-0.036,-0.933,-0.234,-0.061,0.427,0.488,275.694
103214,141089,19647,-0.036,-0.933,-0.234,-0.061,0.427,0.488,275.698
103214,141088,7978,-0.03,-0.93,-0.225,0.549,-0.061,0,275.704
103237,141089,19647,-0.03,-0.93,-0.225,0.549,-0.061,0,275.708
103237,141099,7955,-0.029,-0.942,-0.204,0.61,-0.244,-0.244,275.714
103250,141089,19647,-0.029,-0.942,-0.204,0.61,-0.244,-0.244,275.718
103250,141115,7964,-0.027,-0.938,-0.226,0.488,0.122,-0.183,275.724
103228,141089,19647,-0.027,-0.938,-0.226,0.488,0.122,-0.183,275.728
103228,141129,7953,-0.029,-0.95,-0.227,-0.305,0.427,0,275.734
103240,141089,19647,-0.029,-0.95,-0.227,-0.305,0.427,0,275.738
103240,141125,7971,-0.031,-0.936,-0.228,-0.549,0.488,0.427,275.744
103225,141089,19647,-0.031,-0.936,-0.228,-0.549,0.488,0.427,275.747
103225,141123,7954,-0.03,-0.926,-0.23,-0.366,0.366,0.427,275.754
103233,141089,19647,-0.03,-0.926,-0.23,-0.366,0.366,0.427,275.757
103233,141131,7970,-0.023,-0.939,-0.213,-0.183,0.061,0.488,275.764
103232,141089,19647,-0.023,-0.939,-0.213,-0.183,0.061,0.488,275.767
103232,141119,7962,-0.029,-0.938,-0.23,-0.488,0.061,0.549,275.773
103225,141089,19647,-0.029,-0.938,-0.23,-0.488,0.061,0.549,275.777
