100197,139518,7654,-0.028,-0.955,-0.145,0.549,0.671,-0.061,466.869
100213,139553,19647,-0.032,-0.954,-0.155,0,0.732,-0.122,466.872
100213,139539,7659,-0.034,-0.959,-0.153,0,0.732,-0.122,466.879
100201,139297,19647,-0.035,-0.96,-0.16,-0.244,0.671,0.122,466.882
100201,139509,7656,-0.036,-0.958,-0.162,-0.244,0.671,0.122,466.889
100188,139297,19647,-0.038,-0.954,-0.157,0.427,0.427,0.244,466.892
100188,139501,7645,-0.038,-0.945,-0.153,0.427,0.427,0.244,466.898
100176,139297,19647,-0.037,-0.938,-0.152,0.915,0.244,-0.122,466.902
100176,139506,7654,-0.036,-0.938,-0.151,0.915,0.244,-0.122,466.908
100165,139297,19647,-0.035,-0.944,-0.144,0.793,0.244,-0.427,466.912
100165,139512,7647,-0.033,-0.953,-0.129,0.793,0.244,-0.427,466.918
100159,139297,19647,-0.033,-0.958,-0.129,0.183,0.122,0.061,466.922
100159,139466,7648,-0.032,-0.969,-0.142,0.183,0.122,0.061,466.928
100140,139297,19647,-0.031,-0.974,-0.155,-1.22,0.488,0.549,466.932
100140,139466,7647,-0.037,-0.977,-0.163,-1.22,0.488,0.549,466.938
100132,139297,19647,-0.036,-0.974,-0.165,-1.159,0.732,1.098,466.942
100132,139466,7632,-0.038,-0.966,-0.162,-1.159,0.732,1.098,466.948
100152,139297,19647,-0.041,-0.953,-0.157,0.061,0.427,1.098,466.952
100152,139484,7647,-0.039,-0.942,-0.148,0.061,0.427,1.098,466.958
100150,139297,19647,-0.039,-0.942,-0.148,0.061,0.427,1.098,466.962
100150,139489,7639,-0.032,-0.942,-0.143,0.427,0.061,0.915,466.968
100139,139297,19647,-0.032,-0.942,-0.143,0.427,0.061,0.915,466.971
100139,139474,7642,-0.036,-0.95,-0.145,-0.183,0.366,0.976,466.978
100135,139297,19647,-0.036,-0.95,-0.145,-0.183,0.366,0.976,466.981
100135,139485,7634,-0.032,-0.946,-0.143,-0.549,0.732,0.915,466.988
100149,139297,19647,-0.032,-0.946,-0.143,-0.549,0.732,0.915,466.991
100149,139465,7629,-0.034,-0.945,-0.157,-0.305,0.793,0.61,466.997
100147,139297,19647,-0.034,-0.945,-0.157,-0.305,0.793,0.61,467.001
100147,139459,7643,-0.037,-0.95,-0.152,-0.305,0.793,0.671,467.007
100160,139297,19647,-0.037,-0.95,-0.152,-0.305,0.793,0.671,467.011
100160,139479,7639,-0.034,-0.957,-0.154,-0.549,0.793,0.427,467.017
100145,139297,19647,-0.034,-0.957,-0.154,-0.549,0.793,0.427,467.021
100145,139453,7638,-0.037,-0.959,-0.162,-0.732,0.793,0.244,467.027
100137,139297,19647,-0.037,-0.959,-0.162,-0.732,0.793,0.244,467.031
100137,139488,7638,-0.041,-0.947,-0.161,-0.488,0.732,0.549,467.037
100146,139297,19647,-0.041,-0.947,-0.161,-0.488,0.732,0.549,467.041
100146,139475,7648,-0.041,-0.944,-0.155,0.244,0.244,0.183,467.047
100137,139297,19647,-0.041,-0.944,-0.155,0.244,0.244,0.183,467.051
100137,139476,7647,-0.033,-0.954,-0.143,0.427,-0.122,0.183,467.057
100136,139297,19647,-0.033,-0.954,-0.143,0.427,-0.122,0.183,467.061
100136,139449,7649,-0.032,-0.967,-0.146,-0.366,-0.061,0.305,467.067
100147,139297,19647,-0.032,-0.967,-0.146,-0.366,-0.061,0.305,467.07
100147,139443,7644,-0.037,-0.959,-0.155,-0.915,0.488,0.549,467.077
100134,139297,19647,-0.037,-0.959,-0.155,-0.915,0.488,0.549,467.08
100134,139448,7644,-0.035,-0.946,-0.154,-0.427,0.61,0.732,467.087
100143,139297,19647,-0.035,-0.946,-0.154,-0.427,0.61,0.732,467.09
100143,139465,7635,-0.031,-0.953,-0.146,-0.183,0.366,0.671,467.096
100144,139297,19647,-0.031,-0.953,-0.146,-0.183,0.366,0.671,467.1
100144,139475,7636,-0.034,-0.958,-0.148,-0.671,0.427,0.61,467.106
100151,139297,19647,-0.034,-0.959,-0.149,-0.671,0.427,0.61,467.11
100151,139460,7638,-0.036,-0.956,-0.155,-0.732,0.488,0.732,467.116
100127,139297,19647,-0.039,-0.95,-0.156,-0.732,0.488,0.732,467.12
100127,139473,7652,-0.036,-0.949,-0.155,0,0.366,0.671,467.126
100146,139297,19647,-0.036,-0.948,-0.156,0,0.366,0.671,467.13
100146,139472,7632,-0.036,-0.949,-0.16,0.305,0.183,0.427,467.136
100154,139297,19647,-0.038,-0.946,-0.155,0.305,0.183,0.427,467.14
100154,139452,7633,-0.039,-0.948,-0.152,0.366,0.183,0.061,467.146
100146,139297,19647,-0.04,-0.952,-0.155,0.366,0.183,0.061,467.15
100146,139469,7646,-0.038,-0.95,-0.152,0.549,0.183,-0.183,467.156
100134,139297,19647,-0.034,-0.947,-0.146,0.549,0.183,-0.183,467.16
100134,139472,7624,-0.036,-0.951,-0.147,0.488,0.122,-0.305,467.166
100128,139297,19647,-0.037,-0.954,-0.144,0.488,0.122,-0.305,467.169
100128,139463,7651,-0.035,-0.955,-0.145,-0.061,0.427,-0.244,467.176
100160,139297,19647,-0.037,-0.952,-0.15,-0.061,0.427,-0.244,467.179
100160,139461,7656,-0.038,-0.958,-0.152,-0.915,0.488,0.061,467.186
100155,139297,19647,-0.036,-0.962,-0.154,-0.915,0.488,0.061,467.189
100155,139449,7636,-0.037,-0.961,-0.156,-0.854,0.305,0.183,467.195
100140,139297,19647,-0.037,-0.964,-0.15,-0.854,0.305,0.183,467.199
100140,139448,7645,-0.035,-0.962,-0.143,-0.244,0.122,0.427,467.205
100144,139297,19647,-0.032,-0.955,-0.15,-0.244,0.122,0.427,467.209
100144,139450,7639,-0.034,-0.953,-0.153,-0.671,0.122,0.854,467.215
100139,139297,19647,-0.037,-0.956,-0.156,-0.671,0.122,0.854,467.219
100139,139481,7639,-0.037,-0.953,-0.159,-1.22,0.244,1.159,467.225
100157,139297,19647,-0.037,-0.951,-0.157,-1.22,0.244,1.159,467.229
100157,139450,7645,-0.039,-0.948,-0.156,-0.915,0.305,0.915,467.235
100144,139297,19647,-0.042,-0.943,-0.15,-0.915,0.305,0.915,467.239
100144,139479,7643,-0.037,-0.939,-0.142,-0.122,0.122,0.488,467.245
100177,139297,19647,-0.034,-0.94,-0.146,-0.122,0.122,0.488,467.249
100177,139481,7646,-0.033,-0.947,-0.15,-0.183,0.305,0.244,467.255
100143,139297,19647,-0.033,-0.955,-0.153,-0.183,0.305,0.244,467.259
100143,139471,7632,-0.034,-0.957,-0.152,-0.61,0.549,0.122,467.265
100159,139297,19647,-0.036,-0.957,-0.154,-0.61,0.549,0.122,467.268
100159,139491,7632,-0.035,-0.954,-0.158,-0.305,0.549,-0.061,467.275
100136,139297,19647,-0.035,-0.944,-0.157,-0.305,0.549,-0.061,467.278
100136,139455,7648,-0.033,-0.944,-0.153,0.244,0.366,-0.244,467.285
100146,139297,19647,-0.033,-0.952,-0.144,0.244,0.366,-0.244,467.288
100146,139483,7635,-0.032,-0.957,-0.138,0.549,0.183,-0.244,467.294
100172,139297,19647,-0.029,-0.96,-0.139,0.549,0.183,-0.244,467.298
100172,139469,7625,-0.029,-0.963,-0.146,-0.427,0.244,0,467.304
100171,139297,19647,-0.031,-0.967,-0.158,-0.427,0.244,0,467.308
100171,139478,7660,-0.034,-0.967,-0.159,-1.037,0.427,0.671,467.314
100151,139297,19647,-0.037,-0.961,-0.158,-1.037,0.427,0.671,467.318
100151,139477,7644,-0.035,-0.952,-0.153,-0.305,0.427,0.61,467.324
100152,139297,19647,-0.035,-0.942,-0.156,-0.305,0.427,0.61,467.328
100152,139474,7664,-0.036,-0.937,-0.151,0.061,0.366,0.183,467.334
100144,139297,19647,-0.033,-0.941,-0.146,0.061,0.366,0.183,467.338
100144,139475,7637,-0.03,-0.947,-0.144,-0.183,0.366,0.122,467.344
100146,139297,19647,-0.029,-0.951,-0.141,-0.183,0.366,0.122,467.348
100146,139474,7643,-0.032,-0.956,-0.144,-0.671,0.549,0.305,467.354
100177,139297,19647,-0.031,-0.962,-0.153,-0.671,0.549,0.305,467.358
100177,139470,7630,-0.032,-0.964,-0.159,-1.037,0.732,0.488,467.364
100146,139297,19647,-0.037,-0.962,-0.162,-1.037,0.732,0.488,467.367
100146,139496,7644,-0.04,-0.956,-0.158,-0.488,0.61,0.61,467.374
100159,139297,19647,-0.039,-0.948,-0.159,-0.488,0.61,0.61,467.377
100159,139486,7652,-0.039,-0.944,-0.16,0.183,0.366,0.427,467.384
100160,139297,19647,-0.035,-0.943,-0.156,0.183,0.366,0.427,467.387
100160,139473,7642,-0.03,-0.947,-0.147,0.122,0.305,0.183,467.393
100153,139297,19647,-0.037,-0.949,-0.145,0.122,0.305,0.183,467.397
100153,139493,7646,-0.039,-0.956,-0.138,-0.549,0.549,0.183,467.403
100188,139297,19647,-0.039,-0.957,-0.147,-0.549,0.549,0.183,467.407
100188,139495,7642,-0.038,-0.958,-0.153,-1.098,0.671,0.366,467.413
100159,139297,19647,-0.036,-0.96,-0.158,-1.098,0.671,0.366,467.417
100159,139485,7633,-0.035,-0.96,-0.158,-0.976,0.61,0.549,467.423
100161,139297,19647,-0.036,-0.956,-0.151,-0.976,0.61,0.549,467.427
100161,139474,7634,-0.038,-0.952,-0.144,-0.671,0.61,0.61,467.433
100167,139297,19647,-0.037,-0.95,-0.14,-0.671,0.61,0.61,467.437
100167,139472,7638,-0.035,-0.95,-0.143,-0.732,0.671,0.366,467.443
100168,139297,19647,-0.036,-0.95,-0.151,-0.732,0.671,0.366,467.447
100168,139505,7644,-0.038,-0.953,-0.16,-1.037,0.854,0.671,467.453
100159,139297,19647,-0.036,-0.954,-0.157,-1.037,0.854,0.671,467.457
100159,139487,7649,-0.034,-0.956,-0.155,-0.854,0.732,0.793,467.463
100169,139297,19647,-0.036,-0.953,-0.154,-0.854,0.732,0.793,467.466
100169,139502,7650,-0.04,-0.95,-0.151,-0.61,0.61,0.61,467.473
100173,139297,19647,-0.037,-0.95,-0.149,-0.61,0.61,0.61,467.476
100173,139488,7656,-0.037,-0.952,-0.148,-0.671,0.305,0.671,467.483
100172,139297,19647,-0.034,-0.959,-0.153,-0.671,0.305,0.671,467.486
100172,139511,7647,-0.032,-0.964,-0.151,-0.915,0.488,0.915,467.492
100196,139297,19647,-0.036,-0.961,-0.153,-0.915,0.488,0.915,467.496
100196,139518,7633,-0.037,-0.952,-0.154,-0.793,0.732,0.976,467.502
100196,139297,19647,-0.036,-0.948,-0.158,-0.793,0.732,0.976,467.506
100196,139516,7654,-0.037,-0.947,-0.159,-0.305,0.61,0.915,467.512
100203,139553,19647,-0.035,-0.947,-0.156,-0.305,0.61,0.915,467.516
100203,139520,7667,-0.033,-0.943,-0.156,-0.366,0.549,0.671,467.522
100188,139297,19647,-0.034,-0.945,-0.158,-0.366,0.549,0.671,467.526
100188,139514,7652,-0.037,-0.945,-0.162,-0.549,0.61,0.305,467.532
100198,139297,19647,-0.035,-0.95,-0.16,-0.549,0.61,0.305,467.536
100198,139507,7650,-0.032,-0.949,-0.155,-0.305,0.427,0,467.542
100177,139297,19647,-0.032,-0.949,-0.155,-0.305,0.427,0,467.546
100177,139513,7650,-0.033,-0.95,-0.154,-0.305,0.305,-0.122,467.552
100185,139297,19647,-0.033,-0.95,-0.154,-0.305,0.305,-0.122,467.556
100185,139496,7651,-0.04,-0.954,-0.15,-0.244,0.244,-0.244,467.562
100182,139297,19647,-0.04,-0.954,-0.15,-0.244,0.244,-0.244,467.565
100182,139492,7653,-0.033,-0.959,-0.146,-0.061,0.244,-0.183,467.572
100178,139297,19647,-0.033,-0.959,-0.146,-0.061,0.244,-0.183,467.575
100178,139498,7642,-0.042,-0.966,-0.15,-0.427,0.305,0.244,467.582
100193,139297,19647,-0.042,-0.966,-0.15,-0.427,0.305,0.244,467.585
100193,139501,7647,-0.042,-0.954,-0.148,-0.427,0.244,0.61,467.591
100201,139297,19647,-0.042,-0.954,-0.148,-0.427,0.244,0.61,467.595
100201,139512,7679,-0.039,-0.95,-0.148,-0.122,0.122,0.61,467.601
100199,139297,19647,-0.039,-0.95,-0.148,-0.122,0.122,0.61,467.605
100199,139511,7657,-0.04,-0.952,-0.147,-0.183,0.244,0.671,467.611
100192,139297,19647,-0.04,-0.952,-0.147,-0.183,0.244,0.671,467.615
100192,139496,7646,-0.038,-0.953,-0.155,-0.488,0.305,0.732,467.621
100204,139553,19647,-0.038,-0.953,-0.155,-0.488,0.305,0.732,467.625
100204,139522,7646,-0.038,-0.948,-0.155,-0.305,0.366,0.61,467.631
100189,139297,19647,-0.038,-0.948,-0.155,-0.305,0.366,0.61,467.635
100189,139516,7650,-0.032,-0.945,-0.151,-0.305,0.488,0.305,467.641
100205,139297,19647,-0.032,-0.945,-0.151,-0.305,0.488,0.305,467.645
100205,139518,7638,-0.032,-0.948,-0.149,-0.671,0.549,0.183,467.651
100198,139297,19647,-0.032,-0.948,-0.149,-0.671,0.549,0.183,467.655
100198,139509,7657,-0.03,-0.956,-0.149,-1.22,0.793,0.305,467.661
100199,139553,19647,-0.03,-0.956,-0.149,-1.22,0.793,0.305,467.665
100199,139531,7651,-0.031,-0.961,-0.152,-1.829,0.976,0.488,467.671
100191,139297,19647,-0.031,-0.961,-0.152,-1.829,0.976,0.488,467.674
100191,139503,7649,-0.036,-0.955,-0.153,-1.585,0.976,0.793,467.681
100207,139553,19647,-0.036,-0.955,-0.153,-1.585,0.976,0.793,467.684
100207,139522,7652,-0.037,-0.949,-0.155,-1.098,0.671,0.793,467.69
100196,139297,19647,-0.037,-0.949,-0.155,-1.098,0.671,0.793,467.694
100196,139508,7645,-0.037,-0.951,-0.151,-1.098,0.671,0.793,467.7
100209,139553,19647,-0.037,-0.951,-0.157,-1.037,0.61,0.671,467.704
100209,139521,7641,-0.037,-0.948,-0.16,-1.037,0.61,0.671,467.71
100206,139297,19647,-0.036,-0.946,-0.158,-1.037,0.732,0.549,467.714
100206,139505,7652,-0.038,-0.947,-0.154,-1.037,0.732,0.549,467.72
100195,139297,19647,-0.038,-0.948,-0.152,-0.976,0.793,0.366,467.724
100195,139519,7663,-0.041,-0.95,-0.154,-0.976,0.793,0.366,467.73
100223,139297,19647,-0.041,-0.953,-0.156,-0.915,0.732,0.183,467.734
100223,139503,7654,-0.037,-0.957,-0.158,-0.915,0.732,0.183,467.74
100193,139297,19647,-0.033,-0.962,-0.155,-0.671,0.488,0.244,467.744
100193,139514,7655,-0.034,-0.96,-0.152,-0.671,0.488,0.244,467.75
100188,139553,19647,-0.038,-0.959,-0.154,-0.427,0.671,0.549,467.754
100188,139537,7653,-0.04,-0.959,-0.153,-0.427,0.671,0.549,467.76
100210,139297,19647,-0.039,-0.958,-0.153,-0.488,0.793,0.732,467.763
100210,139511,7648,-0.036,-0.952,-0.15,-0.488,0.793,0.732,467.77
100189,139553,19647,-0.036,-0.951,-0.152,-0.793,0.671,0.915,467.773
100189,139533,7651,-0.035,-0.952,-0.153,-0.793,0.671,0.915,467.78
100204,139553,19647,-0.033,-0.952,-0.155,-1.098,0.854,0.976,467.783
100204,139544,7647,-0.031,-0.949,-0.156,-1.098,0.854,0.976,467.789
100220,139553,19647,-0.033,-0.953,-0.153,-1.341,0.976,0.976,467.793
100220,139535,7648,-0.034,-0.953,-0.158,-1.341,0.976,0.976,467.799
100198,139553,19647,-0.033,-0.953,-0.156,-1.098,1.037,0.915,467.803
100198,139555,7650,-0.034,-0.95,-0.156,-1.098,1.037,0.915,467.809
100216,139553,19647,-0.033,-0.949,-0.162,-0.61,1.098,0.915,467.813
100216,139544,7661,-0.036,-0.946,-0.161,-0.61,1.098,0.915,467.819
100195,139553,19647,-0.035,-0.945,-0.162,-0.122,0.915,0.732,467.823
100195,139534,7654,-0.033,-0.946,-0.168,-0.122,0.915,0.732,467.829
100216,139553,19647,-0.034,-0.947,-0.163,0.305,0.671,0.488,467.833
100216,139540,7650,-0.038,-0.951,-0.16,0.305,0.671,0.488,467.839
100199,139553,19647,-0.04,-0.952,-0.155,0.671,0.488,0.305,467.843
100199,139526,7639,-0.043,-0.954,-0.153,0.671,0.488,0.305,467.849
100207,139297,19647,-0.043,-0.955,-0.151,0.793,0.305,0.366,467.853
100207,139516,7634,-0.039,-0.955,-0.156,0.793,0.305,0.366,467.859
100191,139297,19647,-0.039,-0.958,-0.155,0.427,0.305,0.488,467.863
100191,139506,7650,-0.042,-0.961,-0.15,0.427,0.305,0.488,467.869
100208,139297,19647,-0.042,-0.959,-0.147,0.244,0.427,0.671,467.872
100208,139496,7653,-0.041,-0.957,-0.152,0.244,0.427,0.671,467.879
100183,139297,19647,-0.046,-0.955,-0.146,0.183,0.549,0.793,467.882
100183,139507,7644,-0.044,-0.956,-0.145,0.183,0.549,0.793,467.888
100203,139297,19647,-0.041,-0.953,-0.152,-0.061,0.671,0.854,467.892
100203,139507,7657,-0.039,-0.95,-0.154,-0.061,0.671,0.854,467.898
100202,139297,19647,-0.037,-0.947,-0.157,-0.488,0.732,0.915,467.902
100202,139518,7657,-0.039,-0.948,-0.165,-0.488,0.732,0.915,467.908
100187,139297,19647,-0.04,-0.944,-0.163,-0.366,0.732,0.793,467.912
100187,139493,7636,-0.039,-0.943,-0.16,-0.366,0.732,0.793,467.918
100199,139297,19647,-0.035,-0.936,-0.161,0.061,0.366,0.61,467.922
100199,139474,7643,-0.038,-0.938,-0.166,0.061,0.366,0.61,467.928
100181,139297,19647,-0.033,-0.942,-0.161,-0.061,0.122,0.122,467.932
100181,139508,7653,-0.034,-0.945,-0.156,-0.061,0.122,0.122,467.938
100198,139297,19647,-0.036,-0.955,-0.157,-0.61,0.061,0.122,467.942
100198,139478,7638,-0.036,-0.954,-0.157,-0.61,0.061,0.122,467.948
100170,139297,19647,-0.038,-0.955,-0.154,-0.732,0.061,0.122,467.952
100170,139491,7656,-0.037,-0.959,-0.152,-0.732,0.061,0.122,467.958
100194,139297,19647,-0.037,-0.962,-0.149,-0.854,0.061,0.061,467.961
100194,139482,7641,-0.037,-0.962,-0.148,-0.854,0.061,0.061,467.968
100198,139297,19647,-0.039,-0.959,-0.149,-0.732,0.305,0.305,467.971
100198,139500,7652,-0.038,-0.955,-0.149,-0.732,0.305,0.305,467.978
100211,139297,19647,-0.037,-0.955,-0.15,-0.549,0.366,0.488,467.981
100211,139480,7663,-0.037,-0.95,-0.158,-0.549,0.366,0.488,467.987
100195,139297,19647,-0.038,-0.946,-0.158,-0.488,0.549,0.305,467.991
100195,139474,7655,-0.038,-0.947,-0.156,-0.488,0.549,0.305,467.997
100194,139297,19647,-0.04,-0.947,-0.155,-0.244,0.61,0.183,468.001
100194,139513,7642,-0.038,-0.945,-0.154,-0.244,0.61,0.183,468.007
100193,139297,19647,-0.037,-0.948,-0.154,0,0.366,0.122,468.011
100193,139466,7656,-0.034,-0.948,-0.155,0,0.366,0.122,468.017
100203,139297,19647,-0.033,-0.952,-0.151,-0.061,0.427,-0.061,468.021
100203,139472,7642,-0.037,-0.956,-0.147,-0.061,0.427,-0.061,468.027
100181,139297,19647,-0.034,-0.957,-0.15,-0.305,0.488,0.122,468.031
100181,139495,7660,-0.031,-0.957,-0.149,-0.305,0.488,0.122,468.037
100198,139297,19647,-0.036,-0.962,-0.151,-0.732,0.61,0.244,468.041
100198,139483,7636,-0.033,-0.963,-0.159,-0.732,0.61,0.244,468.047
100186,139297,19647,-0.034,-0.964,-0.165,-0.793,0.488,0.671,468.051
100186,139498,7654,-0.032,-0.96,-0.165,-0.793,0.488,0.671,468.057
100190,139297,19647,-0.034,-0.954,-0.161,-0.61,0.305,0.793,468.06
100190,139515,7644,-0.036,-0.952,-0.164,-0.61,0.305,0.793,468.067
100174,139297,19647,-0.039,-0.953,-0.163,0,0.244,0.732,468.07
100174,139501,7644,-0.036,-0.948,-0.163,0,0.244,0.732,468.077
100180,139297,19647,-0.037,-0.942,-0.161,0.366,0.122,0.671,468.08
100180,139511,7645,-0.038,-0.939,-0.165,0.366,0.122,0.671,468.086
100195,139297,19647,-0.039,-0.936,-0.16,0.549,0,0.305,468.09
100195,139490,7629,-0.038,-0.939,-0.153,0.549,0,0.305,468.096
100174,139297,19647,-0.038,-0.942,-0.146,0.61,-0.183,0.061,468.1
100174,139493,7643,-0.038,-0.945,-0.151,0.61,-0.183,0.061,468.106
100186,139297,19647,-0.037,-0.948,-0.147,0.061,-0.061,-0.183,468.11
100186,139471,7637,-0.038,-0.955,-0.148,0.061,-0.061,-0.183,468.116
100170,139297,19647,-0.041,-0.964,-0.15,-0.488,0.305,0,468.12
100170,139471,7634,-0.038,-0.962,-0.15,-0.488,0.305,0,468.126
100179,139297,19647,-0.038,-0.963,-0.148,-0.854,0.549,0.183,468.13
100179,139466,7648,-0.04,-0.965,-0.155,-0.854,0.549,0.183,468.136
100156,139297,19647,-0.04,-0.965,-0.155,-0.854,0.549,0.183,468.14
100156,139474,7650,-0.042,-0.963,-0.156,-0.976,0.671,0.488,468.146
100185,139297,19647,-0.042,-0.963,-0.156,-0.976,0.671,0.488,468.15
100185,139462,7637,-0.038,-0.959,-0.163,-0.793,0.549,0.732,468.156
100166,139297,19647,-0.038,-0.959,-0.163,-0.793,0.549,0.732,468.159
100166,139466,7655,-0.041,-0.95,-0.154,-0.244,0.427,0.793,468.166
100168,139297,19647,-0.041,-0.95,-0.154,-0.244,0.427,0.793,468.169
100168,139470,7649,-0.033,-0.943,-0.158,0.366,0.305,0.854,468.176
100179,139297,19647,-0.033,-0.943,-0.158,0.366,0.305,0.854,468.179
100179,139471,7641,-0.032,-0.943,-0.157,0.183,0.244,0.61,468.185
100153,139297,19647,-0.032,-0.943,-0.157,0.183,0.244,0.61,468.189
100153,139446,7655,-0.035,-0.944,-0.152,0.183,0.305,0.427,468.195
100146,139297,19647,-0.035,-0.944,-0.152,0.183,0.305,0.427,468.199
100146,139469,7645,-0.035,-0.94,-0.152,0.61,0.305,0.061,468.205
100164,139297,19647,-0.035,-0.94,-0.152,0.61,0.305,0.061,468.209
100164,139445,7648,-0.033,-0.953,-0.151,0.427,0.183,-0.183,468.215
100144,139297,19647,-0.033,-0.953,-0.151,0.427,0.183,-0.183,468.219
100144,139426,7637,-0.036,-0.966,-0.158,-0.305,0.305,-0.061,468.225
100162,139297,19647,-0.036,-0.966,-0.158,-0.305,0.305,-0.061,468.229
100162,139443,7623,-0.035,-0.965,-0.153,-0.793,0.427,0.244,468.235
100138,139297,19647,-0.035,-0.965,-0.153,-0.793,0.427,0.244,468.239
100138,139458,7643,-0.035,-0.96,-0.151,-0.671,0.427,0.244,468.245
100118,139297,19647,-0.035,-0.96,-0.151,-0.671,0.427,0.244,468.249
100118,139471,7637,-0.038,-0.959,-0.158,-0.488,0.671,0.549,468.255
100149,139297,19647,-0.038,-0.959,-0.158,-0.488,0.671,0.549,468.258
100149,139452,7640,-0.037,-0.948,-0.158,-0.488,0.671,1.098,468.265
100159,139297,19647,-0.037,-0.948,-0.158,-0.488,0.671,1.098,468.268
100159,139456,7648,-0.035,-0.945,-0.151,-0.488,0.671,0.854,468.275
100168,139297,19647,-0.035,-0.945,-0.151,-0.488,0.671,0.854,468.278
100168,139470,7629,-0.038,-0.947,-0.154,-0.427,0.671,0.732,468.284
100168,139297,19647,-0.036,-0.949,-0.152,-0.427,0.671,0.732,468.288
100168,139460,7646,-0.036,-0.952,-0.156,-0.244,0.793,0.732,468.294
100154,139297,19647,-0.036,-0.949,-0.158,-0.244,0.793,0.732,468.298
100154,139457,7640,-0.036,-0.943,-0.154,0.305,0.732,0.427,468.304
100169,139297,19647,-0.042,-0.939,-0.153,0.305,0.732,0.427,468.308
100169,139461,7656,-0.038,-0.939,-0.158,0.427,0.732,0,468.314
100165,139297,19647,-0.038,-0.945,-0.151,0.427,0.732,0,468.318
100165,139444,7644,-0.037,-0.951,-0.145,0.061,0.732,-0.061,468.324
100143,139297,19647,-0.035,-0.956,-0.149,0.061,0.732,-0.061,468.328
100143,139488,7639,-0.034,-0.967,-0.154,-0.549,0.793,0.122,468.334
100183,139297,19647,-0.035,-0.964,-0.157,-0.549,0.793,0.122,468.338
100183,139473,7644,-0.038,-0.961,-0.157,-0.671,0.854,0.488,468.344
100187,139297,19647,-0.038,-0.958,-0.16,-0.671,0.854,0.488,468.348
100187,139493,7642,-0.037,-0.951,-0.152,-0.488,0.671,0.732,468.354
100183,139297,19647,-0.036,-0.951,-0.159,-0.488,0.671,0.732,468.357
100183,139475,7641,-0.037,-0.955,-0.163,-0.549,0.488,0.732,468.364
100191,139297,19647,-0.038,-0.953,-0.161,-0.549,0.488,0.732,468.367
100191,139473,7649,-0.042,-0.95,-0.161,-0.61,0.488,0.793,468.374
100182,139297,19647,-0.042,-0.949,-0.16,-0.61,0.488,0.793,468.377
100182,139477,7640,-0.04,-0.945,-0.159,-0.183,0.305,0.61,468.383
100175,139297,19647,-0.04,-0.941,-0.163,-0.183,0.305,0.61,468.387
100175,139479,7642,-0.037,-0.937,-0.16,0.061,0.305,0.244,468.393
100179,139297,19647,-0.037,-0.942,-0.163,0.061,0.305,0.244,468.397
100179,139463,7645,-0.035,-0.953,-0.153,0.183,0.366,0.061,468.403
100185,139297,19647,-0.033,-0.954,-0.145,0.183,0.366,0.061,468.407
100185,139492,7624,-0.037,-0.95,-0.147,0.122,0.488,0.061,468.413
100185,139297,19647,-0.039,-0.952,-0.153,0.122,0.488,0.061,468.417
100185,139471,7648,-0.042,-0.953,-0.149,-0.183,0.671,-0.061,468.423
100190,139297,19647,-0.036,-0.957,-0.147,-0.183,0.671,-0.061,468.427
100190,139484,7636,-0.036,-0.954,-0.139,-0.061,0.671,0.244,468.433
100199,139297,19647,-0.039,-0.951,-0.152,-0.061,0.671,0.244,468.437
100199,139471,7634,-0.04,-0.956,-0.167,-0.549,1.037,0.244,468.443
100198,139297,19647,-0.037,-0.96,-0.17,-0.549,1.037,0.244,468.447
100198,139469,7630,-0.037,-0.962,-0.173,-0.366,0.915,0.549,468.453
100184,139297,19647,-0.035,-0.956,-0.171,-0.366,0.915,0.549,468.456
100184,139488,7648,-0.035,-0.949,-0.164,0.122,0.366,0.122,468.463
100200,139297,19647,-0.036,-0.949,-0.16,0.122,0.366,0.122,468.466
100200,139500,7635,-0.035,-0.946,-0.154,0.427,0.183,-0.244,468.473
100188,139297,19647,-0.029,-0.943,-0.15,0.427,0.183,-0.244,468.476
100188,139462,7643,-0.03,-0.948,-0.149,0.305,0.061,-0.061,468.482
100187,139297,19647,-0.031,-0.95,-0.151,0.305,0.061,-0.061,468.486
100187,139503,7646,-0.031,-0.956,-0.155,-0.122,0.183,0.244,468.492
100202,139297,19647,-0.033,-0.958,-0.158,-0.122,0.183,0.244,468.496
100202,139491,7641,-0.035,-0.958,-0.158,-0.183,0.244,0.244,468.502
100182,139297,19647,-0.04,-0.952,-0.157,-0.183,0.244,0.244,468.506
100182,139492,7642,-0.042,-0.946,-0.153,0.671,0.183,0.183,468.512
100192,139297,19647,-0.041,-0.945,-0.152,0.671,0.183,0.183,468.516
100192,139509,7637,-0.04,-0.945,-0.151,1.037,-0.061,-0.061,468.522
100217,139297,19647,-0.042,-0.95,-0.147,1.037,-0.061,-0.061,468.526
100217,139484,7634,-0.04,-0.96,-0.157,0.915,-0.122,-0.061,468.532
100197,139297,19647,-0.042,-0.962,-0.16,0.915,-0.122,-0.061,468.536
100197,139487,7656,-0.041,-0.957,-0.155,0.671,-0.183,0.061,468.542
100183,139297,19647,-0.043,-0.95,-0.153,0.671,-0.183,0.061,468.546
100183,139502,7640,-0.041,-0.947,-0.149,0.671,-0.244,-0.061,468.552
100198,139297,19647,-0.036,-0.953,-0.152,0.671,-0.244,-0.061,468.556
100198,139508,7646,-0.036,-0.962,-0.155,-0.122,-0.061,0,468.562
100194,139297,19647,-0.035,-0.963,-0.159,-0.122,-0.061,0,468.565
100194,139489,7654,-0.041,-0.963,-0.164,-0.61,0.305,0.427,468.572
100188,139297,19647,-0.044,-0.959,-0.16,-0.61,0.305,0.427,468.575
100188,139514,7640,-0.041,-0.95,-0.152,0.366,0.183,0.366,468.581
100212,139297,19647,-0.037,-0.941,-0.146,0.366,0.183,0.366,468.585
100212,139510,7655,-0.035,-0.94,-0.15,0.915,0.122,-0.122,468.591
100218,139297,19647,-0.033,-0.938,-0.158,0.915,0.122,-0.122,468.595
100218,139490,7648,-0.032,-0.955,-0.16,0.183,0.305,0,468.601
100193,139297,19647,-0.035,-0.96,-0.164,0.183,0.305,0,468.605
100193,139496,7654,-0.037,-0.955,-0.162,0.061,0.183,0.183,468.611
100213,139297,19647,-0.039,-0.95,-0.154,0.061,0.183,0.183,468.615
100213,139464,7648,-0.037,-0.943,-0.158,0.793,-0.488,-0.122,468.621
100199,139297,19647,-0.04,-0.939,-0.156,0.793,-0.488,-0.122,468.625
100199,139501,7651,-0.033,-0.944,-0.151,0.854,-0.671,-0.366,468.631
100208,139297,19647,-0.033,-0.951,-0.143,0.854,-0.671,-0.366,468.635
100208,139497,7641,-0.03,-0.958,-0.144,-0.061,-0.366,-0.305,468.641
100211,139297,19647,-0.034,-0.961,-0.148,-0.061,-0.366,-0.305,468.645
100211,139517,7643,-0.039,-0.962,-0.151,-0.732,-0.183,-0.122,468.651
100190,139297,19647,-0.039,-0.964,-0.151,-0.732,-0.183,-0.122,468.654
100190,139501,7660,-0.039,-0.961,-0.15,-0.122,-0.122,0.244,468.661
100221,139297,19647,-0.037,-0.954,-0.148,-0.122,-0.122,0.244,468.664
100221,139499,7640,-0.036,-0.954,-0.152,0.305,-0.122,0.122,468.671
100204,139553,19647,-0.039,-0.957,-0.138,0.305,-0.122,0.122,468.674
100204,139525,7637,-0.035,-0.954,-0.136,0.549,0.122,0.122,468.68
100217,139297,19647,-0.031,-0.955,-0.148,0.549,0.122,0.122,468.684
100217,139491,7633,-0.033,-0.959,-0.15,0.061,0.427,0.366,468.69
100224,139297,19647,-0.035,-0.961,-0.153,0.061,0.427,0.366,468.694
100224,139480,7646,-0.032,-0.959,-0.157,0.061,0.671,0.549,468.7
100205,139297,19647,-0.036,-0.948,-0.155,0.061,0.671,0.549,468.704
100205,139503,7651,-0.037,-0.941,-0.155,0.305,0.61,0.427,468.71
100219,139297,19647,-0.032,-0.941,-0.15,0.305,0.61,0.427,468.714
100219,139517,7668,-0.032,-0.943,-0.151,0.366,0.427,0.183,468.72
100229,139297,19647,-0.032,-0.943,-0.151,0.366,0.427,0.183,468.724
100229,139504,7645,-0.027,-0.956,-0.161,-0.61,0.549,0.305,468.73
100220,139297,19647,-0.027,-0.956,-0.161,-0.61,0.549,0.305,468.734
100220,139494,7651,-0.036,-0.957,-0.159,-0.976,0.793,0.427,468.74
100216,139297,19647,-0.036,-0.957,-0.159,-0.976,0.793,0.427,468.744
100216,139517,7638,-0.037,-0.94,-0.16,-0.122,0.61,0.305,468.75
100207,139297,19647,-0.037,-0.94,-0.16,-0.122,0.61,0.305,468.754
100207,139492,7652,-0.034,-0.952,-0.151,0.488,0.366,0.061,468.76
100198,139553,19647,-0.034,-0.952,-0.151,0.488,0.366,0.061,468.763
100198,139525,7658,-0.033,-0.961,-0.151,-0.244,0.427,0.244,468.77
100217,139297,19647,-0.033,-0.961,-0.151,-0.244,0.427,0.244,468.773
100217,139483,7655,-0.04,-0.961,-0.157,-0.488,0.61,0.427,468.779
100204,139297,19647,-0.04,-0.961,-0.157,-0.488,0.61,0.427,468.783
100204,139478,7643,-0.035,-0.951,-0.145,0.244,0.366,0.366,468.789
100191,139297,19647,-0.035,-0.951,-0.145,0.244,0.366,0.366,468.793
100191,139476,7642,-0.035,-0.947,-0.132,0.122,0.549,0.366,468.799
100195,139297,19647,-0.035,-0.947,-0.132,0.122,0.549,0.366,468.803
100195,139470,7655,-0.036,-0.963,-0.145,-0.732,1.159,0.793,468.809
100197,139297,19647,-0.036,-0.963,-0.145,-0.732,1.159,0.793,468.813
100197,139469,7652,-0.035,-0.959,-0.163,-0.915,1.159,1.22,468.819
100178,139297,19647,-0.035,-0.959,-0.163,-0.915,1.159,1.22,468.823
100178,139478,7644,-0.04,-0.951,-0.158,-0.549,0.915,1.037,468.829
100200,139297,19647,-0.04,-0.951,-0.158,-0.549,0.915,1.037,468.833
100200,139478,7632,-0.037,-0.939,-0.156,-0.122,0.671,0.732,468.839
100184,139297,19647,-0.037,-0.939,-0.156,-0.122,0.671,0.732,468.843
100184,139482,7655,-0.035,-0.952,-0.154,-0.122,0.488,0.854,468.849
100182,139297,19647,-0.035,-0.952,-0.154,-0.122,0.488,0.854,468.852
100182,139444,7640,-0.034,-0.955,-0.157,-0.671,0.549,0.793,468.859
100163,139297,19647,-0.034,-0.955,-0.157,-0.671,0.549,0.793,468.862
100163,139448,7655,-0.037,-0.957,-0.161,-0.671,0.549,0.793,468.869
100192,139297,19647,-0.04,-0.953,-0.158,-0.549,0.488,0.671,468.872
100192,139446,7637,-0.04,-0.951,-0.159,-0.549,0.488,0.671,468.878
100182,139297,19647,-0.038,-0.946,-0.158,-0.061,0.244,0.549,468.882
100182,139430,7641,-0.038,-0.946,-0.155,-0.061,0.244,0.549,468.888
100189,139297,19647,-0.038,-0.944,-0.154,0,0.366,0.183,468.892
100189,139446,7645,-0.039,-0.944,-0.15,0,0.366,0.183,468.898
100179,139297,19647,-0.038,-0.951,-0.155,-0.183,0.427,0.122,468.902
100179,139431,7638,-0.036,-0.959,-0.159,-0.183,0.427,0.122,468.908
100164,139297,19647,-0.035,-0.966,-0.16,-0.305,0.305,0.305,468.912
100164,139464,7648,-0.037,-0.965,-0.159,-0.305,0.305,0.305,468.918
100189,139297,19647,-0.039,-0.956,-0.16,0.183,0.183,0.305,468.922
100189,139466,7642,-0.037,-0.951,-0.158,0.183,0.183,0.305,468.928
100181,139297,19647,-0.036,-0.944,-0.154,0.732,-0.122,0,468.932
100181,139449,7642,-0.037,-0.94,-0.144,0.732,-0.122,0,468.938
100178,139297,19647,-0.036,-0.942,-0.134,0.915,-0.183,-0.122,468.942
100178,139461,7639,-0.031,-0.949,-0.135,0.915,-0.183,-0.122,468.948
100176,139297,19647,-0.029,-0.958,-0.148,0,0,0.061,468.952
100176,139448,7644,-0.032,-0.965,-0.152,0,0,0.061,468.958
100165,139297,19647,-0.035,-0.962,-0.156,-0.793,0.366,0.427,468.961
100165,139445,7639,-0.037,-0.959,-0.153,-0.793,0.366,0.427,468.968
100174,139297,19647,-0.04,-0.957,-0.153,-0.305,0.305,0.549,468.971
100174,139468,7624,-0.038,-0.952,-0.154,-0.305,0.305,0.549,468.977
100174,139297,19647,-0.036,-0.948,-0.148,0.427,0.061,0.305,468.981
100174,139466,7646,-0.035,-0.95,-0.145,0.427,0.061,0.305,468.987
100191,139297,19647,-0.032,-0.953,-0.148,0.305,0,0.366,468.991
100191,139467,7659,-0.036,-0.953,-0.148,0.305,0,0.366,468.997
100191,139297,19647,-0.037,-0.953,-0.158,-0.244,0.244,0.549,469.001
100191,139460,7628,-0.037,-0.957,-0.16,-0.244,0.244,0.549,469.007
100181,139297,19647,-0.037,-0.954,-0.159,0,0.305,0.488,469.011
100181,139456,7642,-0.033,-0.945,-0.155,0,0.305,0.488,469.017
100175,139297,19647,-0.041,-0.941,-0.157,0.427,0.366,0.061,469.021
100175,139439,7643,-0.039,-0.94,-0.156,0.427,0.366,0.061,469.027
100188,139297,19647,-0.041,-0.947,-0.136,0.427,0.305,0,469.031
100188,139462,7646,-0.033,-0.95,-0.134,0.427,0.305,0,469.037
100183,139297,19647,-0.032,-0.951,-0.148,-0.427,0.488,-0.061,469.041
100183,139444,7635,-0.038,-0.96,-0.157,-0.427,0.488,-0.061,469.047
100177,139297,19647,-0.039,-0.971,-0.167,-1.341,0.915,0.305,469.05
100177,139455,7636,-0.038,-0.97,-0.17,-1.341,0.915,0.305,469.057
100175,139297,19647,-0.039,-0.964,-0.166,-0.61,0.671,0.793,469.06
100175,139445,7630,-0.04,-0.954,-0.157,-0.61,0.671,0.793,469.067
100160,139297,19647,-0.034,-0.944,-0.143,0.488,0.122,0.366,469.07
100160,139443,7651,-0.033,-0.944,-0.141,0.488,0.122,0.366,469.076
100166,139297,19647,-0.034,-0.951,-0.15,0.061,0.061,0.488,469.08
100166,139456,7622,-0.036,-0.959,-0.158,0.061,0.061,0.488,469.086
100175,139297,19647,-0.036,-0.961,-0.161,-1.098,0.427,0.915,469.09
100175,139461,7639,-0.039,-0.956,-0.16,-1.098,0.427,0.915,469.096
100179,139297,19647,-0.036,-0.945,-0.156,-0.183,0.366,0.671,469.1
100179,139456,7627,-0.035,-0.94,-0.148,-0.183,0.366,0.671,469.106
100173,139297,19647,-0.028,-0.935,-0.14,0.732,0.183,0.183,469.11
100173,139448,7626,-0.03,-0.94,-0.146,0.732,0.183,0.183,469.116
100183,139297,19647,-0.026,-0.953,-0.147,0.061,0.366,0.244,469.12
100183,139436,7648,-0.031,-0.964,-0.15,0.061,0.366,0.244,469.126
100188,139297,19647,-0.035,-0.964,-0.152,-0.732,0.732,0.427,469.13
100188,139456,7625,-0.038,-0.962,-0.152,-0.732,0.732,0.427,469.136
100186,139297,19647,-0.037,-0.958,-0.148,-0.061,0.549,0.427,469.14
100186,139445,7633,-0.035,-0.953,-0.142,-0.061,0.549,0.427,469.146
100185,139297,19647,-0.034,-0.949,-0.144,0.305,0.488,0.305,469.15
100185,139460,7622,-0.032,-0.952,-0.143,0.305,0.488,0.305,469.156
100153,139297,19647,-0.038,-0.959,-0.152,-0.61,0.671,0.549,469.159
100153,139425,7629,-0.038,-0.964,-0.157,-0.61,0.671,0.549,469.166
100156,139297,19647,-0.037,-0.962,-0.16,-1.159,0.915,1.037,469.169
100156,139445,7640,-0.037,-0.958,-0.167,-1.159,0.915,1.037,469.175
100160,139297,19647,-0.038,-0.952,-0.159,-0.488,0.671,0.793,469.179
100160,139426,7636,-0.035,-0.945,-0.155,-0.488,0.671,0.793,469.185
100172,139297,19647,-0.038,-0.941,-0.152,0.122,0.427,0.488,469.189
100172,139433,7637,-0.038,-0.943,-0.149,0.122,0.427,0.488,469.195
100161,139297,19647,-0.036,-0.949,-0.15,-0.244,0.61,0.488,469.199
100161,139428,7650,-0.037,-0.953,-0.156,-0.244,0.61,0.488,469.205
100190,139297,19647,-0.037,-0.954,-0.158,-0.671,0.732,0.427,469.209
100190,139451,7639,-0.036,-0.954,-0.161,-0.671,0.732,0.427,469.215
100180,139297,19647,-0.037,-0.953,-0.159,-0.183,0.732,0.305,469.219
100180,139440,7637,-0.037,-0.955,-0.158,-0.183,0.732,0.305,469.225
100185,139297,19647,-0.036,-0.952,-0.156,0.244,0.427,0.305,469.229
100185,139451,7645,-0.036,-0.953,-0.153,0.244,0.427,0.305,469.235
100181,139297,19647,-0.038,-0.957,-0.153,-0.122,0.366,0.427,469.239
100181,139472,7632,-0.038,-0.958,-0.155,-0.122,0.366,0.427,469.245
100200,139297,19647,-0.041,-0.955,-0.154,-0.488,0.488,0.549,469.249
100200,139471,7648,-0.039,-0.95,-0.151,-0.488,0.488,0.549,469.255
100210,139297,19647,-0.034,-0.946,-0.151,-0.183,0.244,0.488,469.258
100210,139462,7635,-0.035,-0.949,-0.159,-0.183,0.244,0.488,469.265
100202,139297,19647,-0.035,-0.952,-0.158,-0.366,0,0.488,469.268
100202,139472,7635,-0.037,-0.953,-0.155,-0.366,0,0.488,469.274
100197,139297,19647,-0.037,-0.956,-0.156,-0.732,0.244,0.732,469.278
100197,139462,7631,-0.04,-0.955,-0.156,-0.732,0.244,0.732,469.284
100171,139297,19647,-0.039,-0.953,-0.156,-0.366,0.244,0.427,469.288
100171,139476,7610,-0.038,-0.947,-0.146,-0.366,0.244,0.427,469.294
100200,139297,19647,-0.037,-0.943,-0.143,0.244,0.122,0.305,469.298
100200,139479,7641,-0.038,-0.943,-0.151,0.244,0.122,0.305,469.304
100208,139297,19647,-0.04,-0.952,-0.159,0.122,0.366,0.305,469.308
100208,139449,7642,-0.041,-0.954,-0.155,0.122,0.366,0.305,469.314
100188,139297,19647,-0.041,-0.954,-0.155,0.122,0.366,0.305,469.318
100188,139450,7641,-0.035,-0.958,-0.151,-0.061,0.427,0.244,469.324
100222,139297,19647,-0.035,-0.958,-0.151,-0.061,0.427,0.244,469.328
100222,139458,7638,-0.037,-0.957,-0.142,0.244,0.183,0.183,469.334
100210,139297,19647,-0.037,-0.957,-0.142,0.244,0.183,0.183,469.338
100210,139458,7658,-0.035,-0.954,-0.153,0.244,0.366,0.305,469.344
100207,139297,19647,-0.035,-0.954,-0.153,0.244,0.366,0.305,469.348
100207,139471,7632,-0.037,-0.953,-0.16,-0.244,0.61,0.549,469.354
100191,139297,19647,-0.037,-0.953,-0.16,-0.244,0.61,0.549,469.357
100191,139471,7652,-0.037,-0.943,-0.161,-0.305,0.671,0.549,469.364
100219,139297,19647,-0.037,-0.943,-0.161,-0.305,0.671,0.549,469.367
100219,139467,7647,-0.026,-0.946,-0.158,0.122,0.427,0.061,469.373
100205,139297,19647,-0.026,-0.946,-0.158,0.122,0.427,0.061,469.377
100205,139479,7650,-0.028,-0.955,-0.157,0.122,0.061,-0.061,469.383
100207,139297,19647,-0.028,-0.955,-0.157,0.122,0.061,-0.061,469.387
100207,139515,7647,-0.034,-0.956,-0.157,-0.61,0.244,0,469.393
100197,139297,19647,-0.034,-0.956,-0.157,-0.61,0.244,0,469.397
100197,139489,7654,-0.041,-0.945,-0.146,-0.305,0.244,-0.061,469.403
100201,139297,19647,-0.041,-0.945,-0.146,-0.305,0.244,-0.061,469.407
100201,139493,7643,-0.035,-0.948,-0.144,0.305,-0.061,-0.244,469.413
100197,139297,19647,-0.035,-0.948,-0.144,0.305,-0.061,-0.244,469.417
100197,139463,7644,-0.037,-0.966,-0.147,-0.366,0.183,-0.183,469.423
100199,139297,19647,-0.037,-0.966,-0.147,-0.366,0.183,-0.183,469.427
100199,139496,7647,-0.046,-0.962,-0.153,-0.671,0.427,0.244,469.433
100225,139297,19647,-0.046,-0.962,-0.153,-0.671,0.427,0.244,469.437
100225,139461,7647,-0.043,-0.945,-0.155,0.122,0.366,0.427,469.443
100209,139297,19647,-0.043,-0.945,-0.155,0.122,0.366,0.427,469.447
100209,139492,7647,-0.037,-0.955,-0.145,0.793,0.122,0.366,469.453
100211,139297,19647,-0.037,-0.955,-0.145,0.793,0.122,0.366,469.456
100211,139481,7643,-0.03,-0.96,-0.145,0.427,0.122,0.427,469.463
100209,139297,19647,-0.031,-0.964,-0.152,0.427,0.122,0.427,469.466
100209,139498,7644,-0.032,-0.965,-0.156,-0.61,0.366,0.61,469.473
100204,139297,19647,-0.036,-0.961,-0.158,-0.61,0.366,0.61,469.476
100204,139471,7623,-0.033,-0.949,-0.154,-0.122,0.549,0.854,469.482
100220,139297,19647,-0.034,-0.936,-0.148,-0.122,0.549,0.854,469.486
100220,139491,7638,-0.034,-0.934,-0.149,0.183,0.366,0.671,469.492
100230,139297,19647,-0.031,-0.935,-0.146,0.183,0.366,0.671,469.496
100230,139457,7643,-0.03,-0.944,-0.144,-0.793,0.305,0.61,469.502
100230,139297,19647,-0.032,-0.95,-0.154,-0.793,0.305,0.61,469.506
100230,139484,7651,-0.033,-0.961,-0.159,-1.951,0.671,0.793,469.512
100230,139297,19647,-0.038,-0.964,-0.161,-1.951,0.671,0.793,469.516
100230,139502,7647,-0.041,-0.957,-0.157,-1.22,0.61,0.732,469.522
100223,139297,19647,-0.044,-0.949,-0.162,-1.22,0.61,0.732,469.526
100223,139496,7665,-0.039,-0.941,-0.162,0.122,0.244,0.488,469.532
100224,139297,19647,-0.041,-0.941,-0.163,0.122,0.244,0.488,469.536
100224,139499,7645,-0.042,-0.947,-0.159,0.427,0.122,0.183,469.542
100231,139553,19647,-0.041,-0.955,-0.153,0.427,0.122,0.183,469.546
100231,139528,7647,-0.039,-0.96,-0.156,-0.183,0.122,0,469.552
100221,139297,19647,-0.039,-0.961,-0.156,-0.183,0.122,0,469.555
100221,139495,7637,-0.04,-0.957,-0.157,-0.671,0.244,0.061,469.562
100220,139297,19647,-0.039,-0.957,-0.151,-0.671,0.244,0.061,469.565
100220,139504,7634,-0.039,-0.952,-0.147,0.061,0.122,0.305,469.572
100234,139297,19647,-0.038,-0.95,-0.149,0.061,0.122,0.305,469.575
100234,139494,7648,-0.04,-0.95,-0.151,-0.183,0.305,0.183,469.581
100232,139297,19647,-0.04,-0.955,-0.155,-0.183,0.305,0.183,469.585
100232,139509,7634,-0.036,-0.96,-0.151,-0.549,0.427,0.366,469.591
100220,139297,19647,-0.035,-0.958,-0.15,-0.549,0.427,0.366,469.595
100220,139509,7648,-0.039,-0.954,-0.149,-0.183,0.366,0.549,469.601
100240,139297,19647,-0.039,-0.945,-0.151,-0.183,0.366,0.549,469.605
100240,139515,7649,-0.038,-0.939,-0.156,0.183,0.366,0.488,469.611
100225,139297,19647,-0.038,-0.947,-0.153,0.183,0.366,0.488,469.615
100225,139493,7629,-0.034,-0.952,-0.15,0.122,0.244,0.427,469.621
100229,139297,19647,-0.031,-0.953,-0.152,0.122,0.244,0.427,469.625
100229,139493,7644,-0.033,-0.955,-0.15,-0.427,0.427,0.244,469.631
100230,139297,19647,-0.035,-0.958,-0.151,-0.427,0.427,0.244,469.635
100230,139506,7642,-0.034,-0.958,-0.151,-0.427,0.61,0.244,469.641
100239,139297,19647,-0.035,-0.955,-0.15,-0.427,0.61,0.244,469.645
100239,139519,7652,-0.032,-0.958,-0.155,-0.244,0.61,0.427,469.651
100236,139553,19647,-0.03,-0.957,-0.157,-0.244,0.61,0.427,469.654
100236,139524,7655,-0.034,-0.953,-0.154,-0.183,0.61,0.61,469.661
100229,139297,19647,-0.036,-0.949,-0.154,-0.183,0.61,0.61,469.664
100229,139497,7647,-0.037,-0.946,-0.149,0.061,0.61,0.549,469.671
100212,139297,19647,-0.038,-0.952,-0.148,0.061,0.61,0.549,469.674
100212,139499,7658,-0.038,-0.953,-0.148,0.061,0.488,0.488,469.68
100225,139297,19647,-0.036,-0.953,-0.15,0.061,0.488,0.488,469.684
100225,139464,7647,-0.034,-0.953,-0.155,-0.122,0.488,0.427,469.69
100199,139297,19647,-0.038,-0.952,-0.158,-0.122,0.488,0.427,469.694
100199,139455,7644,-0.039,-0.952,-0.153,-0.061,0.549,0.366,469.7
100214,139297,19647,-0.04,-0.951,-0.148,-0.061,0.549,0.366,469.704
100214,139463,7654,-0.036,-0.947,-0.149,0.366,0.366,0.244,469.71
100204,139297,19647,-0.037,-0.949,-0.148,0.366,0.366,0.244,469.714
100204,139440,7646,-0.034,-0.954,-0.15,0.061,0.244,0.244,469.72
100202,139297,19647,-0.037,-0.954,-0.157,0.061,0.244,0.244,469.724
100202,139450,7657,-0.042,-0.962,-0.158,-0.549,0.488,0.488,469.73
100202,139297,19647,-0.039,-0.958,-0.153,-0.549,0.488,0.488,469.734
100202,139439,7630,-0.04,-0.958,-0.152,-0.366,0.488,0.61,469.74
100196,139297,19647,-0.039,-0.955,-0.152,-0.366,0.488,0.61,469.744
100196,139452,7652,-0.037,-0.953,-0.158,-0.183,0.244,0.488,469.75
100212,139297,19647,-0.035,-0.952,-0.163,-0.183,0.244,0.488,469.753
100212,139425,7627,-0.036,-0.956,-0.165,-0.427,0.427,0.671,469.76
100186,139297,19647,-0.037,-0.957,-0.163,-0.427,0.427,0.671,469.763
100186,139435,7629,-0.037,-0.951,-0.154,0.122,0.366,0.732,469.77
100195,139297,19647,-0.036,-0.946,-0.15,0.122,0.366,0.732,469.773
100195,139456,7632,-0.034,-0.944,-0.148,0.488,0.183,0.427,469.779
100202,139297,19647,-0.034,-0.943,-0.144,0.488,0.183,0.427,469.783
100202,139462,7653,-0.037,-0.947,-0.146,-0.122,0.244,0.488,469.789
100218,139297,19647,-0.038,-0.949,-0.145,-0.122,0.244,0.488,469.793
100218,139447,7632,-0.041,-0.95,-0.15,-0.671,0.549,0.488,469.799
100225,139297,19647,-0.036,-0.956,-0.149,-0.671,0.549,0.488,469.803
100225,139426,7637,-0.037,-0.958,-0.154,-0.671,0.549,0.244,469.809
100216,139297,19647,-0.035,-0.958,-0.153,-0.671,0.549,0.244,469.813
100216,139480,7632,-0.037,-0.959,-0.154,-0.549,0.488,0.305,469.819
100224,139297,19647,-0.038,-0.957,-0.154,-0.549,0.488,0.305,469.823
100224,139431,7637,-0.039,-0.958,-0.156,-0.427,0.427,0.366,469.829
100216,139297,19647,-0.036,-0.956,-0.152,-0.427,0.427,0.366,469.833
100216,139442,7644,-0.035,-0.959,-0.154,-0.427,0.366,0.427,469.839
100191,139297,19647,-0.033,-0.956,-0.153,-0.427,0.366,0.427,469.843
100191,139448,7646,-0.034,-0.954,-0.156,-0.305,0.366,0.549,469.849
100187,139297,19647,-0.037,-0.95,-0.156,-0.305,0.366,0.549,469.852
100187,139431,7648,-0.036,-0.946,-0.154,-0.061,0.244,0.549,469.859
100208,139297,19647,-0.036,-0.943,-0.148,-0.061,0.244,0.549,469.862
100208,139442,7629,-0.036,-0.945,-0.146,0.122,0.244,0.427,469.868
100204,139297,19647,-0.036,-0.948,-0.145,0.122,0.244,0.427,469.872
100204,139440,7645,-0.034,-0.949,-0.144,0.061,0.366,0.244,469.878
100207,139297,19647,-0.036,-0.95,-0.149,0.061,0.366,0.244,469.882
100207,139439,7644,-0.036,-0.951,-0.153,-0.305,0.671,0.122,469.888
100200,139297,19647,-0.038,-0.953,-0.153,-0.305,0.671,0.122,469.892
100200,139450,7647,-0.04,-0.954,-0.151,-0.427,0.732,0.122,469.898
100214,139297,19647,-0.039,-0.961,-0.149,-0.427,0.732,0.122,469.902
100214,139437,7632,-0.036,-0.964,-0.157,-0.488,0.61,0.122,469.908
100175,139297,19647,-0.036,-0.964,-0.157,-0.488,0.61,0.122,469.912
100175,139413,7650,-0.036,-0.963,-0.154,-0.488,0.549,0.488,469.918
100195,139297,19647,-0.036,-0.963,-0.154,-0.488,0.549,0.488,469.922
100195,139440,7640,-0.037,-0.959,-0.159,-0.671,0.549,0.671,469.928
100189,139297,19647,-0.037,-0.959,-0.159,-0.671,0.549,0.671,469.932
100189,139430,7641,-0.039,-0.954,-0.162,-0.366,0.61,0.854,469.938
100184,139297,19647,-0.039,-0.954,-0.162,-0.366,0.61,0.854,469.942
100184,139402,7637,-0.036,-0.941,-0.153,0.366,0.305,0.732,469.948
100198,139297,19647,-0.036,-0.941,-0.153,0.366,0.305,0.732,469.951
100198,139421,7638,-0.036,-0.937,-0.148,0.549,0.183,0.305,469.958
100178,139297,19647,-0.036,-0.937,-0.148,0.549,0.183,0.305,469.961
100178,139416,7632,-0.036,-0.948,-0.153,0,0.305,0.122,469.968
100185,139297,19647,-0.036,-0.948,-0.153,0,0.305,0.122,469.971
100185,139447,7655,-0.041,-0.952,-0.15,-0.244,0.488,0.061,469.977
100189,139297,19647,-0.041,-0.952,-0.15,-0.244,0.488,0.061,469.981
100189,139421,7626,-0.036,-0.96,-0.148,-0.305,0.549,0.122,469.987
100184,139297,19647,-0.036,-0.96,-0.148,-0.305,0.549,0.122,469.991
100184,139436,7639,-0.038,-0.959,-0.156,-0.732,0.549,0.305,469.997
100193,139297,19647,-0.038,-0.959,-0.156,-0.732,0.549,0.305,470.001
100193,139433,7624,-0.039,-0.96,-0.158,-0.915,0.427,0.427,470.007
100191,139297,19647,-0.039,-0.96,-0.158,-0.915,0.427,0.427,470.011
100191,139425,7643,-0.039,-0.96,-0.153,-0.366,0.305,0.549,470.017
100203,139297,19647,-0.039,-0.96,-0.153,-0.366,0.305,0.549,470.021
100203,139462,7614,-0.035,-0.944,-0.155,0,0.122,0.366,470.027
100206,139297,19647,-0.035,-0.944,-0.155,0,0.122,0.366,470.031
100206,139450,7635,-0.037,-0.943,-0.151,0.061,0,0.366,470.037
100190,139297,19647,-0.037,-0.943,-0.151,0.061,0,0.366,470.041
100190,139447,7641,-0.034,-0.955,-0.155,-0.305,0.183,0.305,470.047
100224,139297,19647,-0.034,-0.955,-0.155,-0.305,0.183,0.305,470.05
100224,139444,7644,-0.033,-0.955,-0.154,-0.305,0.183,0.305,470.057
100216,139297,19647,-0.035,-0.954,-0.157,-0.061,0.305,0.183,470.06
100216,139446,7627,-0.036,-0.949,-0.149,-0.061,0.305,0.183,470.067
100206,139297,19647,-0.036,-0.945,-0.151,0.305,0.122,0.061,470.07
100206,139433,7629,-0.035,-0.949,-0.151,0.305,0.122,0.061,470.076
100214,139297,19647,-0.036,-0.953,-0.154,-0.122,0.366,-0.061,470.08
100214,139456,7638,-0.039,-0.954,-0.152,-0.122,0.366,-0.061,470.086
100222,139297,19647,-0.037,-0.956,-0.152,-0.61,0.427,0.122,470.09
100222,139432,7639,-0.04,-0.961,-0.15,-0.61,0.427,0.122,470.096
100202,139297,19647,-0.04,-0.961,-0.154,-0.671,0.366,0.122,470.1
100202,139426,7631,-0.037,-0.959,-0.153,-0.671,0.366,0.122,470.106
100194,139297,19647,-0.032,-0.956,-0.148,-0.305,0.122,0.305,470.11
100194,139445,7640,-0.035,-0.955,-0.149,-0.305,0.122,0.305,470.116
100221,139297,19647,-0.036,-0.954,-0.153,-0.366,0.305,0.488,470.12
100221,139417,7634,-0.036,-0.954,-0.152,-0.366,0.305,0.488,470.126
100192,139297,19647,-0.038,-0.949,-0.153,-0.61,0.549,0.61,470.13
100192,139438,7635,-0.039,-0.951,-0.153,-0.61,0.549,0.61,470.136
100206,139297,19647,-0.038,-0.952,-0.154,-0.915,0.549,0.549,470.14
100206,139465,7623,-0.034,-0.955,-0.155,-0.915,0.549,0.549,470.146
100217,139297,19647,-0.039,-0.957,-0.152,-0.915,0.549,0.549,470.149
100217,139457,7645,-0.036,-0.958,-0.157,-0.915,0.549,0.549,470.156
100225,139297,19647,-0.033,-0.952,-0.153,-0.366,0.366,0.488,470.159
100225,139444,7630,-0.036,-0.953,-0.145,-0.366,0.366,0.488,470.166
100188,139297,19647,-0.036,-0.951,-0.147,-0.183,0.366,0.366,470.169
100188,139438,7643,-0.036,-0.949,-0.154,-0.183,0.366,0.366,470.175
100207,139297,19647,-0.037,-0.951,-0.154,-0.488,0.549,0.427,470.179
100207,139421,7632,-0.036,-0.95,-0.15,-0.488,0.549,0.427,470.185
100190,139297,19647,-0.039,-0.95,-0.148,-0.488,0.61,0.366,470.189
100190,139425,7633,-0.038,-0.953,-0.144,-0.488,0.61,0.366,470.195
100234,139297,19647,-0.034,-0.955,-0.145,-0.732,0.61,0.183,470.199
100234,139449,7635,-0.036,-0.953,-0.15,-0.732,0.61,0.183,470.205
100225,139297,19647,-0.04,-0.952,-0.154,-1.098,0.732,0.366,470.209
100225,139430,7624,-0.044,-0.954,-0.156,-1.098,0.732,0.366,470.215
100218,139297,19647,-0.041,-0.962,-0.158,-1.28,0.915,0.61,470.219
100218,139476,7632,-0.036,-0.96,-0.155,-1.28,0.915,0.61,470.225
100225,139297,19647,-0.031,-0.954,-0.148,-1.22,0.976,0.61,470.229
100225,139446,7643,-0.033,-0.952,-0.148,-1.22,0.976,0.61,470.235
100209,139297,19647,-0.038,-0.959,-0.146,-1.28,1.037,0.732,470.239
100209,139482,7642,-0.037,-0.958,-0.146,-1.28,1.037,0.732,470.245
100236,139297,19647,-0.037,-0.955,-0.153,-1.22,1.037,1.037,470.248
100236,139468,7632,-0.036,-0.953,-0.155,-1.22,1.037,1.037,470.255
100225,139297,19647,-0.034,-0.949,-0.157,-0.793,0.976,0.976,470.258
100225,139447,7650,-0.034,-0.948,-0.159,-0.793,0.976,0.976,470.265
100222,139297,19647,-0.034,-0.949,-0.16,-0.244,0.854,0.976,470.268
100222,139452,7648,-0.035,-0.945,-0.16,-0.244,0.854,0.976,470.274
100226,139297,19647,-0.034,-0.942,-0.159,-0.244,0.671,0.732,470.278
100226,139460,7628,-0.035,-0.943,-0.155,-0.244,0.671,0.732,470.284
100228,139297,19647,-0.033,-0.947,-0.158,-0.427,0.732,0.427,470.288
100228,139463,7642,-0.032,-0.946,-0.159,-0.427,0.732,0.427,470.294
100226,139297,19647,-0.035,-0.947,-0.162,-0.915,0.732,0.305,470.298
100226,139467,7638,-0.035,-0.95,-0.162,-0.915,0.732,0.305,470.304
100231,139297,19647,-0.035,-0.955,-0.158,-1.159,0.976,0.183,470.308
100231,139472,7629,-0.036,-0.954,-0.154,-1.159,0.976,0.183,470.314
100218,139297,19647,-0.037,-0.949,-0.152,-1.098,0.732,0.061,470.318
100218,139475,7655,-0.036,-0.948,-0.152,-1.098,0.732,0.061,470.324
100230,139297,19647,-0.037,-0.95,-0.155,-1.22,0.671,0.061,470.328
100230,139475,7649,-0.039,-0.953,-0.163,-1.22,0.671,0.061,470.334
100226,139297,19647,-0.041,-0.956,-0.164,-0.793,0.732,0.244,470.338
100226,139494,7634,-0.043,-0.955,-0.164,-0.793,0.732,0.244,470.344
100249,139297,19647,-0.043,-0.948,-0.158,0.244,0.488,0.061,470.347
100249,139482,7655,-0.045,-0.95,-0.157,0.244,0.488,0.061,470.354
100227,139297,19647,-0.044,-0.95,-0.156,0.732,0.244,-0.183,470.357
100227,139488,7652,-0.044,-0.949,-0.158,0.732,0.244,-0.183,470.364
100241,139297,19647,-0.045,-0.951,-0.159,0.61,0,-0.122,470.367
100241,139462,7629,-0.044,-0.952,-0.159,0.61,0,-0.122,470.373
100221,139297,19647,-0.046,-0.957,-0.161,0.488,-0.061,-0.183,470.377
100221,139478,7644,-0.043,-0.958,-0.152,0.488,-0.061,-0.183,470.383
100254,139297,19647,-0.041,-0.956,-0.152,0.671,-0.122,-0.122,470.387
100254,139484,7638,-0.04,-0.953,-0.158,0.671,-0.122,-0.122,470.393
100224,139297,19647,-0.037,-0.952,-0.156,0.305,-0.061,-0.061,470.397
100224,139484,7648,-0.034,-0.955,-0.162,0.305,-0.061,-0.061,470.403
100229,139297,19647,-0.034,-0.956,-0.163,-0.183,0,0,470.407
100229,139491,7637,-0.037,-0.954,-0.163,-0.183,0,0,470.413
100239,139297,19647,-0.036,-0.951,-0.159,-0.244,-0.061,0.122,470.417
100239,139462,7644,-0.035,-0.948,-0.158,-0.244,-0.061,0.122,470.423
100253,139297,19647,-0.034,-0.946,-0.155,-0.183,-0.305,0,470.427
100253,139460,7637,-0.036,-0.946,-0.148,-0.183,-0.305,0,470.433
100233,139297,19647,-0.036,-0.947,-0.144,-0.488,-0.122,0,470.437
100233,139493,7648,-0.034,-0.95,-0.15,-0.488,-0.122,0,470.443
100248,139297,19647,-0.037,-0.953,-0.151,-1.037,0.122,0.244,470.447
100248,139471,7643,-0.038,-0.956,-0.152,-1.037,0.122,0.244,470.453
100245,139297,19647,-0.038,-0.957,-0.15,-0.976,0.183,0.305,470.456
100245,139482,7640,-0.033,-0.959,-0.151,-0.976,0.183,0.305,470.463
100255,139297,19647,-0.036,-0.958,-0.15,-0.671,0.244,0.244,470.466
100255,139484,7658,-0.035,-0.955,-0.143,-0.671,0.244,0.244,470.472
100264,139297,19647,-0.032,-0.959,-0.141,-0.732,0.305,0.244,470.476
100264,139472,7645,-0.03,-0.96,-0.145,-0.732,0.305,0.244,470.482
100252,139297,19647,-0.029,-0.957,-0.151,-0.976,0.366,0.488,470.486
100252,139473,7650,-0.031,-0.955,-0.154,-0.976,0.366,0.488,470.492
100261,139297,19647,-0.034,-0.958,-0.156,-0.915,0.366,0.793,470.496
100261,139515,7653,-0.032,-0.957,-0.149,-0.915,0.366,0.793,470.502
100248,139297,19647,-0.032,-0.957,-0.149,-0.915,0.366,0.793,470.506
100248,139492,7648,-0.034,-0.949,-0.15,-0.427,0.305,0.915,470.512
100254,139297,19647,-0.034,-0.949,-0.15,-0.427,0.305,0.915,470.516
100254,139511,7643,-0.035,-0.949,-0.156,-0.427,0.366,0.732,470.522
100262,139297,19647,-0.035,-0.949,-0.156,-0.427,0.366,0.732,470.526
100262,139483,7627,-0.034,-0.952,-0.158,-0.244,0.61,0.793,470.532
100257,139297,19647,-0.034,-0.952,-0.158,-0.244,0.61,0.793,470.536
100257,139497,7647,-0.031,-0.949,-0.161,0,0.488,0.61,470.542
100266,139297,19647,-0.031,-0.949,-0.161,0,0.488,0.61,470.545
100266,139507,7633,-0.031,-0.948,-0.159,-0.244,0.488,0.427,470.552
100253,139297,19647,-0.031,-0.948,-0.159,-0.244,0.488,0.427,470.555
100253,139507,7653,-0.035,-0.959,-0.153,-0.427,0.549,0.61,470.562
100278,139297,19647,-0.035,-0.959,-0.153,-0.427,0.549,0.61,470.565
100278,139517,7630,-0.035,-0.958,-0.157,-0.732,0.732,0.549,470.571
100259,139297,19647,-0.035,-0.958,-0.157,-0.732,0.732,0.549,470.575
100259,139491,7653,-0.04,-0.953,-0.159,-0.854,0.854,0.61,470.581
100275,139297,19647,-0.04,-0.953,-0.159,-0.854,0.854,0.61,470.585
100275,139482,7650,-0.04,-0.947,-0.154,-0.793,0.915,0.732,470.591
100243,139297,19647,-0.04,-0.947,-0.154,-0.793,0.915,0.732,470.595
100243,139512,7631,-0.04,-0.948,-0.153,-0.61,0.915,0.61,470.601
100264,139297,19647,-0.04,-0.948,-0.153,-0.61,0.915,0.61,470.605
100264,139496,7647,-0.044,-0.948,-0.155,-0.61,0.976,0.61,470.611
100238,139297,19647,-0.044,-0.948,-0.155,-0.61,0.976,0.61,470.615
100238,139501,7646,-0.04,-0.953,-0.16,-0.549,0.915,0.549,470.621
100256,139297,19647,-0.04,-0.953,-0.16,-0.549,0.915,0.549,470.625
100256,139484,7644,-0.038,-0.956,-0.158,-0.427,0.549,0.488,470.631
100249,139297,19647,-0.038,-0.956,-0.158,-0.427,0.549,0.488,470.635
100249,139506,7640,-0.042,-0.955,-0.157,-0.366,0.366,0.427,470.641
100274,139297,19647,-0.042,-0.955,-0.157,-0.366,0.366,0.427,470.644
100274,139471,7650,-0.039,-0.957,-0.156,-0.244,0.366,0.488,470.651
100270,139297,19647,-0.039,-0.96,-0.154,-0.244,0.366,0.488,470.654
100270,139499,7648,-0.038,-0.959,-0.15,-0.244,0.366,0.671,470.661
100261,139297,19647,-0.036,-0.959,-0.15,-0.244,0.366,0.671,470.664
100261,139479,7645,-0.038,-0.954,-0.158,-0.366,0.488,0.732,470.67
100266,139297,19647,-0.037,-0.955,-0.16,-0.366,0.488,0.732,470.674
100266,139474,7646,-0.036,-0.95,-0.165,-0.427,0.427,0.976,470.68
100274,139297,19647,-0.036,-0.949,-0.167,-0.427,0.427,0.976,470.684
100274,139474,7645,-0.038,-0.948,-0.166,-0.061,0.366,0.854,470.69
100262,139297,19647,-0.039,-0.947,-0.167,-0.061,0.366,0.854,470.694
100262,139465,7660,-0.038,-0.947,-0.163,0.305,0.183,0.366,470.7
100262,139297,19647,-0.036,-0.942,-0.159,0.305,0.183,0.366,470.704
100262,139462,7667,-0.035,-0.937,-0.164,0.549,0.061,0,470.71
100259,139297,19647,-0.035,-0.94,-0.165,0.549,0.061,0,470.714
100259,139497,7649,-0.036,-0.946,-0.161,0.366,-0.061,-0.244,470.72
100273,139297,19647,-0.036,-0.951,-0.157,0.366,-0.061,-0.244,470.724
100273,139459,7636,-0.036,-0.956,-0.152,0.183,-0.061,-0.366,470.73
100262,139297,19647,-0.037,-0.956,-0.147,0.183,-0.061,-0.366,470.734
100262,139476,7639,-0.036,-0.959,-0.151,-0.122,0.061,-0.427,470.74
100260,139297,19647,-0.039,-0.968,-0.153,-0.122,0.061,-0.427,470.743
100260,139470,7646,-0.038,-0.969,-0.148,-0.549,0.305,0,470.75
100250,139297,19647,-0.039,-0.963,-0.149,-0.549,0.305,0,470.753
100250,139478,7647,-0.041,-0.96,-0.152,-0.366,0.244,0.366,470.76
100255,139297,19647,-0.039,-0.955,-0.148,-0.366,0.244,0.366,470.763
100255,139455,7652,-0.037,-0.955,-0.147,-0.305,0.244,0.488,470.769
100245,139297,19647,-0.036,-0.952,-0.145,-0.305,0.244,0.488,470.773
100245,139471,7647,-0.035,-0.951,-0.145,-0.61,0.366,0.61,470.779
100271,139297,19647,-0.038,-0.951,-0.149,-0.61,0.366,0.61,470.783
100271,139469,7645,-0.037,-0.949,-0.16,-1.098,0.61,0.793,470.789
100273,139297,19647,-0.036,-0.949,-0.165,-1.098,0.61,0.793,470.793
100273,139462,7634,-0.037,-0.948,-0.162,-0.793,0.61,0.671,470.799
100256,139297,19647,-0.036,-0.948,-0.161,-0.793,0.61,0.671,470.803
100256,139467,7637,-0.035,-0.948,-0.154,0.122,0.549,0.305,470.809
100246,139297,19647,-0.034,-0.948,-0.152,0.122,0.549,0.305,470.813
100246,139440,7633,-0.031,-0.947,-0.155,0.488,0.366,0,470.819
100249,139297,19647,-0.03,-0.952,-0.151,0.488,0.366,0,470.823
100249,139451,7631,-0.03,-0.953,-0.155,-0.061,0.61,0.183,470.829
100241,139297,19647,-0.03,-0.958,-0.159,-0.061,0.61,0.183,470.833
100241,139437,7652,-0.035,-0.957,-0.158,-0.549,0.793,0.488,470.839
100239,139297,19647,-0.037,-0.956,-0.154,-0.549,0.793,0.488,470.842
100239,139458,7637,-0.029,-0.955,-0.148,-0.305,0.671,0.61,470.849
100238,139297,19647,-0.03,-0.959,-0.147,-0.305,0.671,0.61,470.852
100238,139469,7642,-0.032,-0.961,-0.155,-0.61,0.61,0.976,470.859
100221,139297,19647,-0.034,-0.961,-0.159,-0.61,0.61,0.976,470.862
100221,139427,7644,-0.036,-0.957,-0.161,-1.098,0.854,1.463,470.868
100259,139297,19647,-0.04,-0.955,-0.16,-1.098,0.854,1.463,470.872
100259,139437,7624,-0.039,-0.95,-0.152,-0.732,0.854,1.341,470.878
100226,139297,19647,-0.039,-0.942,-0.15,-0.732,0.854,1.341,470.882
100226,139448,7636,-0.036,-0.942,-0.155,-0.488,0.793,0.976,470.888
100242,139297,19647,-0.038,-0.945,-0.157,-0.488,0.793,0.976,470.892
100242,139432,7628,-0.039,-0.946,-0.156,-0.915,0.976,0.854,470.898
100226,139297,19647,-0.039,-0.947,-0.159,-0.915,0.976,0.854,470.902
100226,139433,7638,-0.045,-0.948,-0.164,-0.854,0.915,0.854,470.908
100252,139297,19647,-0.043,-0.95,-0.164,-0.854,0.915,0.854,470.912
100252,139427,7646,-0.038,-0.944,-0.162,-0.122,0.732,0.549,470.918
100240,139297,19647,-0.04,-0.945,-0.162,-0.122,0.732,0.549,470.922
100240,139445,7642,-0.047,-0.949,-0.158,0.305,0.549,0.061,470.928
100257,139297,19647,-0.043,-0.947,-0.157,0.305,0.549,0.061,470.932
100257,139463,7625,-0.04,-0.949,-0.15,0.488,0.305,-0.061,470.938
100252,139297,19647,-0.042,-0.956,-0.147,0.488,0.305,-0.061,470.941
100252,139441,7645,-0.042,-0.96,-0.149,0.183,0.549,-0.122,470.948
100262,139297,19647,-0.043,-0.96,-0.151,0.183,0.549,-0.122,470.951
100262,139459,7639,-0.042,-0.958,-0.152,-0.244,0.732,0.183,470.958
100263,139297,19647,-0.04,-0.955,-0.16,-0.244,0.732,0.183,470.961
100263,139460,7625,-0.04,-0.957,-0.161,-0.244,0.61,0.488,470.967
100266,139297,19647,-0.037,-0.956,-0.162,-0.244,0.61,0.488,470.971
100266,139465,7642,-0.036,-0.956,-0.16,-0.122,0.427,0.61,470.977
100275,139297,19647,-0.035,-0.956,-0.158,-0.122,0.427,0.61,470.981
100275,139470,7640,-0.036,-0.955,-0.162,-0.366,0.427,0.671,470.987
100275,139297,19647,-0.036,-0.952,-0.165,-0.366,0.427,0.671,470.991
100275,139450,7658,-0.037,-0.953,-0.171,-0.122,0.427,0.793,470.997
100259,139297,19647,-0.037,-0.947,-0.174,-0.122,0.427,0.793,471.001
100259,139449,7636,-0.036,-0.939,-0.162,0.671,0.122,0.61,471.007
100244,139297,19647,-0.035,-0.938,-0.158,0.671,0.122,0.61,471.011
100244,139465,7634,-0.035,-0.938,-0.156,0.854,-0.183,0.305,471.017
100260,139297,19647,-0.036,-0.941,-0.153,0.854,-0.183,0.305,471.021
100260,139470,7633,-0.038,-0.947,-0.155,0.366,-0.122,0,471.027
100277,139297,19647,-0.036,-0.951,-0.153,0.366,-0.122,0,471.031
100277,139474,7616,-0.036,-0.95,-0.153,0.549,0,-0.122,471.037
100273,139297,19647,-0.036,-0.949,-0.153,0.549,0,-0.122,471.04
100273,139458,7619,-0.039,-0.949,-0.152,0.549,0.122,-0.244,471.047
100274,139297,19647,-0.036,-0.954,-0.153,0.549,0.122,-0.244,471.05
100274,139444,7629,-0.036,-0.96,-0.153,0.427,0.122,-0.183,471.057
100272,139297,19647,-0.04,-0.963,-0.152,0.427,0.122,-0.183,471.06
100272,139482,7637,-0.04,-0.961,-0.154,0.183,0.183,0.061,471.066
100268,139297,19647,-0.04,-0.955,-0.161,0.183,0.183,0.061,471.07
100268,139458,7622,-0.042,-0.955,-0.159,0.183,0.061,0.122,471.076
100262,139297,19647,-0.041,-0.953,-0.158,0.183,0.061,0.122,471.08
100262,139467,7637,-0.041,-0.951,-0.157,0.427,0,0.244,471.086
100268,139297,19647,-0.041,-0.951,-0.157,0.427,0,0.244,471.09
100268,139454,7633,-0.037,-0.951,-0.156,0.366,-0.183,0.244,471.096
100240,139297,19647,-0.037,-0.951,-0.156,0.366,-0.183,0.244,471.1
100240,139461,7639,-0.039,-0.949,-0.153,0.183,-0.244,0,471.106
100264,139297,19647,-0.039,-0.949,-0.153,0.183,-0.244,0,471.11
100264,139444,7639,-0.036,-0.951,-0.151,0.427,-0.122,0,471.116
100255,139297,19647,-0.036,-0.951,-0.151,0.427,-0.122,0,471.12
100255,139428,7646,-0.037,-0.953,-0.149,0.427,0.122,-0.061,471.126
100269,139297,19647,-0.037,-0.953,-0.149,0.427,0.122,-0.061,471.13
100269,139457,7639,-0.033,-0.95,-0.139,0.488,0.244,0,471.136
100249,139297,19647,-0.033,-0.95,-0.139,0.488,0.244,0,471.139
100249,139458,7636,-0.036,-0.956,-0.15,0,0.61,0.183,471.146
100289,139297,19647,-0.036,-0.956,-0.15,0,0.61,0.183,471.149
100289,139450,7629,-0.037,-0.955,-0.146,-0.549,0.915,0.305,471.156
100263,139297,19647,-0.037,-0.955,-0.146,-0.549,0.915,0.305,471.159
100263,139458,7644,-0.036,-0.954,-0.157,-0.427,1.037,0.305,471.165
100247,139297,19647,-0.036,-0.954,-0.157,-0.427,1.037,0.305,471.169
100247,139473,7645,-0.035,-0.955,-0.163,-0.305,0.915,0.427,471.175
100261,139297,19647,-0.035,-0.955,-0.163,-0.305,0.915,0.427,471.179
100261,139456,7645,-0.031,-0.953,-0.163,-0.122,0.671,0.305,471.185
100277,139297,19647,-0.031,-0.953,-0.163,-0.122,0.671,0.305,471.189
100277,139463,7632,-0.033,-0.943,-0.161,0.122,0.549,0,471.195
100265,139297,19647,-0.033,-0.943,-0.161,0.122,0.549,0,471.199
100265,139468,7647,-0.036,-0.947,-0.157,0.183,0.61,-0.183,471.205
100280,139297,19647,-0.036,-0.947,-0.157,0.183,0.61,-0.183,471.209
100280,139476,7628,-0.031,-0.954,-0.152,0.244,0.488,-0.183,471.215
100267,139297,19647,-0.031,-0.954,-0.152,0.244,0.488,-0.183,471.219
100267,139462,7637,-0.036,-0.957,-0.16,-0.061,0.427,0,471.225
100239,139297,19647,-0.036,-0.957,-0.16,-0.061,0.427,0,471.229
100239,139481,7642,-0.042,-0.957,-0.165,-0.061,0.427,0,471.235
100274,139297,19647,-0.042,-0.951,-0.162,0.122,0.244,0.183,471.238
100274,139481,7631,-0.042,-0.948,-0.154,0.122,0.244,0.183,471.245
100267,139297,19647,-0.042,-0.948,-0.144,0.488,-0.061,0.061,471.248
100267,139489,7635,-0.039,-0.953,-0.133,0.488,-0.061,0.061,471.255
100279,139297,19647,-0.037,-0.952,-0.136,0.244,0,0.061,471.258
100279,139477,7637,-0.038,-0.957,-0.144,0.244,0,0.061,471.264
100287,139297,19647,-0.041,-0.965,-0.156,-0.915,0.366,0.488,471.268
100287,139475,7645,-0.045,-0.966,-0.162,-0.915,0.366,0.488,471.274
100284,139297,19647,-0.047,-0.964,-0.159,-0.732,0.488,1.037,471.278
100284,139490,7645,-0.048,-0.959,-0.158,-0.732,0.488,1.037,471.284
100295,139297,19647,-0.044,-0.951,-0.155,0.244,0.366,0.488,471.288
100295,139472,7634,-0.04,-0.944,-0.16,0.244,0.366,0.488,471.294
100275,139297,19647,-0.04,-0.939,-0.157,0.793,0.305,0.183,471.298
100275,139483,7651,-0.038,-0.939,-0.156,0.793,0.305,0.183,471.304
100294,139297,19647,-0.034,-0.942,-0.15,0.671,0.488,0.244,471.308
100294,139479,7642,-0.035,-0.944,-0.154,0.671,0.488,0.244,471.314
100265,139297,19647,-0.035,-0.95,-0.159,0,0.61,0.061,471.318
100265,139492,7632,-0.036,-0.953,-0.164,0,0.61,0.061,471.324
100270,139297,19647,-0.031,-0.955,-0.164,0,0.366,-0.122,471.328
100270,139483,7645,-0.033,-0.956,-0.159,0,0.366,-0.122,471.334
100284,139297,19647,-0.032,-0.955,-0.155,0.427,0.061,0,471.337
100284,139477,7632,-0.034,-0.953,-0.152,0.427,0.061,0,471.344
100284,139297,19647,-0.035,-0.948,-0.145,0.671,0.122,-0.061,471.347
100284,139460,7660,-0.036,-0.945,-0.145,0.671,0.122,-0.061,471.354
100291,139297,19647,-0.034,-0.95,-0.147,0.732,0.183,-0.061,471.357
100291,139502,7649,-0.033,-0.954,-0.149,0.732,0.183,-0.061,471.363
100309,139297,19647,-0.036,-0.952,-0.161,0.366,0.183,0.244,471.367
100309,139499,7644,-0.037,-0.955,-0.165,0.366,0.183,0.244,471.373
100310,139297,19647,-0.036,-0.956,-0.162,-0.244,0.061,0.305,471.377
100310,139493,7636,-0.036,-0.956,-0.157,-0.244,0.061,0.305,471.383
100278,139297,19647,-0.036,-0.954,-0.15,-0.061,-0.366,0,471.387
100278,139494,7634,-0.035,-0.949,-0.141,-0.061,-0.366,0,471.393
100288,139297,19647,-0.034,-0.951,-0.141,0.305,-0.305,-0.061,471.397
100288,139485,7647,-0.034,-0.953,-0.15,0.305,-0.305,-0.061,471.403
100291,139297,19647,-0.037,-0.954,-0.158,-0.183,0,0.244,471.407
100291,139489,7655,-0.04,-0.958,-0.165,-0.183,0,0.244,471.413
100303,139297,19647,-0.04,-0.964,-0.163,-0.305,0.061,0.549,471.417
100303,139482,7642,-0.041,-0.956,-0.162,-0.305,0.061,0.549,471.423
100296,139297,19647,-0.042,-0.947,-0.158,0.427,-0.183,0.183,471.427
100296,139477,7645,-0.042,-0.943,-0.144,0.427,-0.183,0.183,471.433
100292,139297,19647,-0.034,-0.945,-0.138,0.854,-0.366,-0.183,471.436
100292,139500,7635,-0.029,-0.952,-0.14,0.854,-0.366,-0.183,471.443
100290,139297,19647,-0.03,-0.958,-0.143,-0.122,0.061,0.061,471.446
100290,139485,7638,-0.035,-0.96,-0.147,-0.122,0.061,0.061,471.453
100298,139297,19647,-0.035,-0.962,-0.155,-0.793,0.61,0.61,471.456
100298,139500,7634,-0.039,-0.958,-0.154,-0.793,0.61,0.61,471.462
100301,139297,19647,-0.035,-0.951,-0.15,-0.244,0.61,0.427,471.466
100301,139505,7663,-0.029,-0.946,-0.148,-0.244,0.61,0.427,471.472
100315,139297,19647,-0.026,-0.948,-0.151,0.061,0.366,0.366,471.476
100315,139505,7639,-0.03,-0.954,-0.153,0.061,0.366,0.366,471.482
100304,139297,19647,-0.031,-0.959,-0.155,-0.549,0.732,0.671,471.486
100304,139472,7641,-0.032,-0.959,-0.158,-0.549,0.732,0.671,471.492
100291,139297,19647,-0.037,-0.954,-0.158,-0.427,0.793,0.732,471.496
100291,139475,7633,-0.037,-0.946,-0.151,-0.427,0.793,0.732,471.502
100300,139297,19647,-0.037,-0.938,-0.148,0.305,0.549,0.61,471.506
100300,139481,7649,-0.039,-0.943,-0.153,0.305,0.549,0.61,471.512
100279,139297,19647,-0.033,-0.95,-0.153,0.183,0.488,0.549,471.516
100279,139455,7650,-0.033,-0.96,-0.154,0.183,0.488,0.549,471.522
100272,139297,19647,-0.034,-0.965,-0.157,-0.244,0.427,0.793,471.526
100272,139456,7629,-0.034,-0.959,-0.157,-0.244,0.427,0.793,471.532
100256,139297,19647,-0.034,-0.956,-0.155,0,0.488,0.671,471.535
100256,139431,7644,-0.04,-0.95,-0.153,0,0.488,0.671,471.542
100271,139297,19647,-0.041,-0.948,-0.143,0.549,0.366,0.549,471.545
100271,139454,7637,-0.036,-0.948,-0.142,0.549,0.366,0.549,471.552
100249,139297,19647,-0.032,-0.953,-0.152,-0.122,0.366,0.305,471.555
100249,139439,7638,-0.032,-0.959,-0.158,-0.122,0.366,0.305,471.561
100267,139297,19647,-0.037,-0.963,-0.163,-0.854,0.671,0.671,471.565
100267,139461,7645,-0.041,-0.96,-0.159,-0.854,0.671,0.671,471.571
100264,139297,19647,-0.043,-0.955,-0.161,-0.488,0.854,0.793,471.575
100264,139444,7636,-0.042,-0.948,-0.155,-0.488,0.854,0.793,471.581
100271,139297,19647,-0.039,-0.939,-0.145,0.183,0.488,0.488,471.585
100271,139429,7631,-0.036,-0.941,-0.143,0.183,0.488,0.488,471.591
100238,139297,19647,-0.039,-0.944,-0.151,-0.061,0.488,0.244,471.595
100238,139434,7647,-0.039,-0.952,-0.156,-0.061,0.488,0.244,471.601
100250,139297,19647,-0.036,-0.961,-0.161,-0.854,0.549,0.549,471.605
100250,139440,7629,-0.038,-0.963,-0.161,-0.854,0.549,0.549,471.611
100257,139297,19647,-0.039,-0.962,-0.162,-0.61,0.549,0.488,471.615
100257,139411,7645,-0.043,-0.956,-0.157,-0.61,0.549,0.488,471.621
100253,139297,19647,-0.042,-0.949,-0.155,0.366,0.305,0.122,471.625
100253,139432,7637,-0.04,-0.942,-0.157,0.366,0.305,0.122,471.631
100248,139297,19647,-0.038,-0.942,-0.149,0.854,0.061,-0.183,471.634
100248,139425,7619,-0.036,-0.946,-0.143,0.854,0.061,-0.183,471.641
100249,139297,19647,-0.035,-0.952,-0.146,0.61,0.366,-0.244,471.644
100249,139409,7627,-0.033,-0.961,-0.15,0.61,0.366,-0.244,471.651
100254,139297,19647,-0.033,-0.966,-0.153,-0.183,0.488,0.061,471.654
100254,139442,7637,-0.035,-0.965,-0.155,-0.183,0.488,0.061,471.66
100260,139297,19647,-0.035,-0.961,-0.156,-0.244,0.488,0.366,471.664
100260,139423,7636,-0.037,-0.958,-0.156,-0.244,0.488,0.366,471.67
100239,139297,19647,-0.037,-0.958,-0.156,-0.244,0.488,0.366,471.674
100239,139422,7622,-0.035,-0.944,-0.157,0,0.305,0.488,471.68
100257,139297,19647,-0.035,-0.944,-0.157,0,0.305,0.488,471.684
100257,139410,7609,-0.035,-0.945,-0.148,0.122,0.244,0.427,471.69
100254,139297,19647,-0.035,-0.945,-0.148,0.122,0.244,0.427,471.694
100254,139432,7627,-0.036,-0.946,-0.146,-0.122,0.061,0.366,471.7
100255,139297,19647,-0.036,-0.946,-0.146,-0.122,0.061,0.366,471.704
100255,139413,7650,-0.035,-0.955,-0.147,-0.549,0.061,0.183,471.71
100241,139297,19647,-0.035,-0.955,-0.147,-0.549,0.061,0.183,471.714
100241,139439,7638,-0.038,-0.966,-0.15,-0.793,0.427,0.305,471.72
100227,139297,19647,-0.038,-0.966,-0.15,-0.793,0.427,0.305,471.724
100227,139417,7633,-0.039,-0.95,-0.158,-0.244,0.549,0.366,471.73
100257,139297,19647,-0.039,-0.95,-0.158,-0.244,0.549,0.366,471.733
100257,139436,7623,-0.039,-0.949,-0.155,0.366,0.366,0.244,471.74
100249,139297,19647,-0.039,-0.949,-0.155,0.366,0.366,0.244,471.743
100249,139437,7631,-0.037,-0.957,-0.147,0.427,0.305,0.183,471.75
100248,139297,19647,-0.037,-0.957,-0.147,0.427,0.305,0.183,471.753
100248,139397,7633,-0.039,-0.958,-0.156,0.061,0.427,0.244,471.759
100250,139297,19647,-0.039,-0.958,-0.156,0.061,0.427,0.244,471.763
100250,139433,7621,-0.035,-0.957,-0.157,-0.366,0.549,0.488,471.769
100251,139297,19647,-0.035,-0.957,-0.157,-0.366,0.549,0.488,471.773
100251,139424,7637,-0.036,-0.943,-0.155,0,0.305,0.793,471.779
100259,139297,19647,-0.036,-0.943,-0.155,0,0.305,0.793,471.783
100259,139402,7641,-0.035,-0.946,-0.147,0.244,0.183,0.549,471.789
100254,139297,19647,-0.035,-0.946,-0.147,0.244,0.183,0.549,471.793
100254,139418,7630,-0.037,-0.951,-0.153,-0.061,0.244,0.488,471.799
100236,139297,19647,-0.037,-0.951,-0.153,-0.061,0.244,0.488,471.803
100236,139397,7634,-0.037,-0.948,-0.154,-0.366,0.427,0.488,471.809
100261,139297,19647,-0.037,-0.948,-0.154,-0.366,0.427,0.488,471.813
