104939,139809,19647,-0.101,-0.949,-0.122,0.244,1.098,0.732,171.232
104939,139927,8302,-0.107,-0.95,-0.123,-0.427,1.037,0.793,171.238
104947,139809,19647,-0.109,-0.952,-0.121,-0.427,1.037,0.793,171.242
104947,139917,8320,-0.104,-0.959,-0.122,-0.244,0.305,0.732,171.248
104956,139809,19647,-0.093,-0.967,-0.125,-0.244,0.305,0.732,171.252
104956,139911,8296,-0.094,-0.974,-0.122,0.549,-0.488,0.61,171.258
104921,139809,19647,-0.102,-0.961,-0.115,0.549,-0.488,0.61,171.262
104921,139913,8317,-0.108,-0.951,-0.104,1.524,-0.915,0.976,171.268
104908,139809,19647,-0.107,-0.954,-0.08,1.524,-0.915,0.976,171.272
104908,139896,8286,-0.095,-0.948,-0.076,1.159,-0.915,0.854,171.278
104895,139809,19647,-0.09,-0.953,-0.076,1.159,-0.915,0.854,171.282
104895,139896,8288,-0.098,-0.967,-0.074,-0.732,0.305,1.22,171.288
104892,139809,19647,-0.107,-0.971,-0.073,-0.732,0.305,1.22,171.292
104892,139908,8300,-0.109,-0.962,-0.073,-1.341,1.646,1.829,171.298
104916,139809,19647,-0.11,-0.949,-0.085,-1.341,1.646,1.829,171.302
104916,139888,8298,-0.106,-0.949,-0.109,-1.037,2.134,1.524,171.308
104889,139809,19647,-0.099,-0.959,-0.129,-1.037,2.134,1.524,171.311
104889,139885,8288,-0.102,-0.964,-0.133,-0.549,2.195,1.22,171.318
104871,139809,19647,-0.101,-0.963,-0.127,-0.549,2.195,1.22,171.321
104871,139877,8291,-0.099,-0.953,-0.131,0.244,1.402,1.22,171.327
104868,139809,19647,-0.098,-0.953,-0.136,0.244,1.402,1.22,171.331
104868,139893,8278,-0.093,-0.953,-0.132,0.488,0.427,0.854,171.337
104854,139809,19647,-0.094,-0.951,-0.129,0.488,0.427,0.854,171.341
104854,139890,8300,-0.101,-0.946,-0.126,0.671,-0.244,0.854,171.347
104883,139809,19647,-0.102,-0.944,-0.111,0.671,-0.244,0.854,171.351
104883,139877,8276,-0.1,-0.949,-0.084,0.732,-0.549,0.61,171.357
104881,139809,19647,-0.09,-0.952,-0.068,0.732,-0.549,0.61,171.361
104881,139891,8288,-0.083,-0.954,-0.073,-0.122,-0.305,0.427,171.367
104888,139809,19647,-0.092,-0.96,-0.097,-0.122,-0.305,0.427,171.371
104888,139882,8289,-0.111,-0.966,-0.1,-1.463,1.341,0.915,171.377
104882,139809,19647,-0.115,-0.968,-0.088,-1.463,1.341,0.915,171.381
104882,139870,8299,-0.107,-0.958,-0.092,-0.488,1.646,1.22,171.387
104841,139809,19647,-0.097,-0.952,-0.11,-0.488,1.646,1.22,171.391
104841,139858,8293,-0.097,-0.959,-0.117,-0.671,1.463,0.732,171.397
104856,139809,19647,-0.1,-0.962,-0.124,-0.671,1.463,0.732,171.401
104856,139864,8285,-0.103,-0.96,-0.131,-1.037,1.524,1.159,171.407
104854,139809,19647,-0.109,-0.965,-0.144,-1.037,1.524,1.159,171.41
104854,139834,8288,-0.112,-0.965,-0.135,-0.427,0.976,1.28,171.417
104849,139809,19647,-0.107,-0.956,-0.122,-0.427,0.976,1.28,171.42
104849,139860,8291,-0.102,-0.952,-0.114,1.037,-0.671,0.915,171.427
104846,139809,19647,-0.102,-0.952,-0.114,1.037,-0.671,0.915,171.43
104846,139880,8289,-0.096,-0.95,-0.11,1.22,-1.098,0.549,171.436
104862,139809,19647,-0.096,-0.95,-0.11,1.22,-1.098,0.549,171.44
104862,139871,8290,-0.102,-0.952,-0.101,0.671,-0.732,0.61,171.446
104864,139809,19647,-0.102,-0.952,-0.101,0.671,-0.732,0.61,171.45
104864,139872,8285,-0.098,-0.946,-0.086,0.305,-0.61,0.61,171.456
104868,139809,19647,-0.098,-0.946,-0.086,0.305,-0.61,0.61,171.46
104868,139875,8292,-0.094,-0.948,-0.088,-0.732,0.427,0.244,171.466
104850,139809,19647,-0.094,-0.948,-0.088,-0.732,0.427,0.244,171.47
104850,139861,8280,-0.105,-0.965,-0.097,-1.037,1.402,0.549,171.476
104854,139809,19647,-0.105,-0.965,-0.097,-1.037,1.402,0.549,171.48
104854,139850,8280,-0.102,-0.955,-0.098,-0.61,1.463,0.549,171.486
104834,139809,19647,-0.102,-0.955,-0.098,-0.61,1.463,0.549,171.49
104834,139863,8273,-0.099,-0.966,-0.119,-0.854,1.585,0.305,171.496
104854,139809,19647,-0.099,-0.966,-0.119,-0.854,1.585,0.305,171.5
104854,139877,8286,-0.108,-0.958,-0.123,-0.915,1.524,0.793,171.506
104857,139809,19647,-0.108,-0.958,-0.123,-0.915,1.524,0.793,171.509
104857,139875,8299,-0.104,-0.958,-0.133,-0.244,0.915,0.671,171.516
104891,139809,19647,-0.104,-0.958,-0.133,-0.244,0.915,0.671,171.519
104891,139893,8284,-0.102,-0.965,-0.127,0.427,-0.061,0.549,171.525
104878,139809,19647,-0.102,-0.965,-0.127,0.427,-0.061,0.549,171.529
104878,139879,8277,-0.105,-0.96,-0.107,1.28,-0.671,0.488,171.535
104835,139809,19647,-0.105,-0.96,-0.107,1.28,-0.671,0.488,171.539
104835,139840,8289,-0.096,-0.947,-0.095,1.22,-0.854,0.549,171.545
104835,139809,19647,-0.096,-0.947,-0.095,1.22,-0.854,0.549,171.549
104835,139891,8276,-0.102,-0.967,-0.085,0.549,-0.122,0.793,171.555
104833,139809,19647,-0.102,-0.967,-0.085,0.549,-0.122,0.793,171.559
104833,139851,8285,-0.097,-0.948,-0.071,0,0.488,0.976,171.565
104812,139809,19647,-0.097,-0.948,-0.071,0,0.488,0.976,171.569
104812,139837,8286,-0.096,-0.938,-0.096,0,0.488,0.976,171.575
104845,139809,19647,-0.102,-0.959,-0.112,-1.22,1.524,0.915,171.579
104845,139863,8299,-0.106,-0.973,-0.114,-1.22,1.524,0.915,171.585
104875,139809,19647,-0.108,-0.957,-0.127,-1.037,1.768,1.402,171.589
104875,139879,8278,-0.11,-0.953,-0.128,-1.037,1.768,1.402,171.595
104879,139809,19647,-0.106,-0.959,-0.123,-0.488,0.915,0.854,171.599
104879,139860,8275,-0.1,-0.956,-0.128,-0.488,0.915,0.854,171.605
104880,139809,19647,-0.101,-0.957,-0.123,-0.061,0.122,0.549,171.608
104880,139892,8298,-0.104,-0.959,-0.12,-0.061,0.122,0.549,171.615
104881,139809,19647,-0.104,-0.961,-0.113,0.244,-0.122,0.61,171.618
104881,139889,8289,-0.103,-0.957,-0.107,0.244,-0.122,0.61,171.624
104872,139809,19647,-0.102,-0.948,-0.101,0.366,-0.305,0.366,171.628
104872,139896,8286,-0.099,-0.944,-0.093,0.366,-0.305,0.366,171.634
104875,139809,19647,-0.098,-0.95,-0.098,0.061,-0.122,0.366,171.638
104875,139854,8263,-0.105,-0.959,-0.1,0.061,-0.122,0.366,171.644
104903,139809,19647,-0.104,-0.964,-0.087,-0.244,0.305,0.732,171.648
104903,139889,8289,-0.1,-0.952,-0.096,-0.244,0.305,0.732,171.654
104946,139809,19647,-0.1,-0.957,-0.11,-1.159,0.854,0.671,171.658
104946,139916,8272,-0.101,-0.973,-0.096,-1.159,0.854,0.671,171.664
104906,139809,19647,-0.099,-0.97,-0.094,-1.28,1.159,0.854,171.668
104906,139908,8287,-0.099,-0.968,-0.095,-1.28,1.159,0.854,171.674
104894,139809,19647,-0.1,-0.971,-0.1,-0.976,1.22,1.159,171.678
104894,139903,8282,-0.106,-0.971,-0.109,-0.976,1.22,1.159,171.684
104923,139809,19647,-0.101,-0.974,-0.11,-0.427,1.463,1.402,171.688
104923,139906,8288,-0.103,-0.966,-0.111,-0.427,1.463,1.402,171.694
104925,139809,19647,-0.108,-0.961,-0.123,0.915,1.585,1.585,171.697
104925,139901,8296,-0.111,-0.961,-0.113,0.915,1.585,1.585,171.704
104916,139809,19647,-0.104,-0.944,-0.104,2.622,0.915,1.159,171.707
104916,139907,8299,-0.097,-0.927,-0.113,2.622,0.915,1.159,171.714
104924,139809,19647,-0.097,-0.927,-0.117,1.89,0.305,1.037,171.717
104924,139900,8277,-0.105,-0.931,-0.12,1.89,0.305,1.037,171.723
104926,139809,19647,-0.109,-0.95,-0.112,-0.061,0.61,0.854,171.727
104926,139929,8294,-0.104,-0.957,-0.104,-0.061,0.61,0.854,171.733
104936,139809,19647,-0.097,-0.961,-0.103,-0.549,0.244,0.793,171.737
104936,139939,8296,-0.094,-0.966,-0.077,-0.549,0.244,0.793,171.743
104930,139809,19647,-0.092,-0.963,-0.063,0.122,0,0.671,171.747
104930,139940,8297,-0.091,-0.958,-0.085,0.122,0,0.671,171.753
104916,139809,19647,-0.098,-0.972,-0.088,-0.854,1.159,1.28,171.757
104916,139925,8282,-0.107,-0.974,-0.089,-0.854,1.159,1.28,171.763
104950,139809,19647,-0.109,-0.964,-0.101,-1.524,2.256,1.707,171.767
104950,139953,8287,-0.107,-0.959,-0.108,-1.524,2.256,1.707,171.773
104993,139809,19647,-0.105,-0.949,-0.123,-1.341,2.317,1.646,171.777
104993,139953,8282,-0.109,-0.953,-0.128,-1.341,2.317,1.646,171.783
104990,139809,19647,-0.108,-0.961,-0.124,-0.976,1.768,1.402,171.787
104990,139975,8287,-0.106,-0.96,-0.116,-0.976,1.768,1.402,171.793
104999,139809,19647,-0.101,-0.948,-0.114,-0.122,1.22,1.28,171.797
104999,139968,8297,-0.099,-0.943,-0.121,-0.122,1.22,1.28,171.803
104965,139809,19647,-0.104,-0.949,-0.117,0,1.037,0.976,171.806
104965,139938,8295,-0.111,-0.955,-0.108,0,1.037,0.976,171.813
104966,139809,19647,-0.11,-0.954,-0.099,0.122,0.915,1.098,171.816
104966,139925,8284,-0.104,-0.955,-0.095,0.122,0.915,1.098,171.822
104953,139809,19647,-0.095,-0.948,-0.102,0.061,0.549,0.915,171.826
104953,139949,8290,-0.098,-0.946,-0.101,0.061,0.549,0.915,171.832
104966,139809,19647,-0.104,-0.949,-0.11,-0.549,1.037,0.976,171.836
104966,139954,8298,-0.114,-0.945,-0.116,-0.549,1.037,0.976,171.842
104991,139809,19647,-0.118,-0.937,-0.123,-0.915,1.402,0.915,171.846
104991,139979,8278,-0.111,-0.945,-0.124,-0.915,1.402,0.915,171.852
104988,139809,19647,-0.103,-0.95,-0.122,-1.037,0.61,0.366,171.856
104988,139957,8287,-0.1,-0.956,-0.125,-1.037,0.61,0.366,171.862
104991,139809,19647,-0.103,-0.963,-0.116,-1.524,0.244,0.183,171.866
104991,139994,8295,-0.106,-0.961,-0.113,-1.524,0.244,0.183,171.872
105019,139809,19647,-0.111,-0.963,-0.096,-0.976,0.122,0.122,171.876
105019,139978,8285,-0.106,-0.959,-0.072,-0.976,0.122,0.122,171.882
105001,139809,19647,-0.099,-0.952,-0.081,-0.671,0.183,0,171.886
105001,139961,8300,-0.098,-0.951,-0.08,-0.671,0.183,0,171.892
104981,139809,19647,-0.102,-0.963,-0.096,-1.402,1.341,0.244,171.895
104981,139948,8309,-0.11,-0.976,-0.109,-1.402,1.341,0.244,171.902
105004,139809,19647,-0.116,-0.971,-0.111,-0.732,2.012,0.671,171.905
105004,139969,8285,-0.115,-0.955,-0.118,-0.732,2.012,0.671,171.912
104978,139809,19647,-0.109,-0.952,-0.12,0.427,1.707,0.305,171.915
104978,139971,8298,-0.103,-0.952,-0.123,0.427,1.707,0.305,171.921
104958,139809,19647,-0.095,-0.96,-0.128,0.915,0.854,0,171.925
104958,139958,8296,-0.1,-0.959,-0.125,0.915,0.854,0,171.931
105025,139809,19647,-0.105,-0.949,-0.128,0.244,0.366,0.427,171.935
105025,139978,8289,-0.107,-0.945,-0.126,0.244,0.366,0.427,171.941
104993,139809,19647,-0.109,-0.948,-0.127,0.183,-0.305,0,171.945
104993,139956,8282,-0.104,-0.947,-0.113,0.183,-0.305,0,171.951
104993,139809,19647,-0.1,-0.942,-0.099,0.549,-1.159,-0.366,171.955
104993,139974,8299,-0.096,-0.943,-0.086,0.549,-1.159,-0.366,171.961
105022,139809,19647,-0.095,-0.945,-0.084,0,-0.915,-0.366,171.965
105022,140006,8291,-0.101,-0.958,-0.089,0,-0.915,-0.366,171.971
105060,140065,19647,-0.106,-0.974,-0.076,-0.915,0.183,-0.061,171.975
105060,140039,8294,-0.1,-0.976,-0.077,-0.915,0.183,-0.061,171.981
105077,140065,19647,-0.097,-0.968,-0.095,-0.61,0.915,0.183,171.985
105077,140059,8287,-0.108,-0.974,-0.106,-0.61,0.915,0.183,171.991
105085,139809,19647,-0.109,-0.972,-0.107,-0.183,1.646,0.427,171.995
105085,140022,8310,-0.111,-0.962,-0.123,-0.183,1.646,0.427,172.001
105062,140065,19647,-0.11,-0.958,-0.153,-0.061,1.524,0.488,172.004
105062,140048,8302,-0.111,-0.969,-0.154,-0.061,1.524,0.488,172.011
105065,140065,19647,-0.111,-0.969,-0.154,-0.061,1.524,0.488,172.014
105065,140042,8298,-0.105,-0.949,-0.148,0.183,0.671,0.61,172.02
105063,139809,19647,-0.105,-0.949,-0.148,0.183,0.671,0.61,172.024
105063,140030,8305,-0.111,-0.938,-0.127,1.098,-0.976,0.427,172.03
105099,139809,19647,-0.111,-0.938,-0.127,1.098,-0.976,0.427,172.034
105099,140027,8302,-0.102,-0.93,-0.104,1.707,-1.89,0,172.04
105103,140065,19647,-0.102,-0.93,-0.104,1.707,-1.89,0,172.044
105103,140032,8313,-0.098,-0.949,-0.065,1.524,-1.951,-0.671,172.05
105104,140065,19647,-0.098,-0.949,-0.065,1.524,-1.951,-0.671,172.054
105104,140050,8316,-0.104,-0.952,-0.095,0.488,-1.22,-0.793,172.06
105138,140065,19647,-0.104,-0.952,-0.095,0.488,-1.22,-0.793,172.064
105138,140063,8309,-0.109,-0.972,-0.09,-0.549,-0.061,-0.549,172.07
105151,140065,19647,-0.109,-0.972,-0.09,-0.549,-0.061,-0.549,172.074
105151,140062,8315,-0.109,-0.975,-0.104,-0.488,0.244,-0.122,172.08
105144,140065,19647,-0.109,-0.975,-0.104,-0.488,0.244,-0.122,172.084
105144,140086,8307,-0.112,-0.972,-0.118,-0.244,0.244,-0.183,172.09
105150,140065,19647,-0.112,-0.972,-0.118,-0.244,0.244,-0.183,172.094
105150,140087,8307,-0.111,-0.966,-0.109,0.305,0.061,0.061,172.1
105162,140065,19647,-0.111,-0.966,-0.109,0.305,0.061,0.061,172.103
105162,140129,8311,-0.103,-0.952,-0.108,1.098,-0.427,-0.122,172.11
105204,140065,19647,-0.103,-0.952,-0.108,1.098,-0.427,-0.122,172.113
105204,140095,8314,-0.108,-0.956,-0.111,1.159,-0.549,-0.183,172.119
105196,140065,19647,-0.108,-0.956,-0.111,1.159,-0.549,-0.183,172.123
105196,140104,8312,-0.101,-0.946,-0.124,0.915,-0.488,-0.244,172.129
105171,140065,19647,-0.101,-0.946,-0.124,0.915,-0.488,-0.244,172.133
105171,140111,8312,-0.099,-0.954,-0.1,1.159,-0.854,-0.305,172.139
105195,140065,19647,-0.099,-0.954,-0.1,1.159,-0.854,-0.305,172.143
105195,140108,8318,-0.098,-0.948,-0.091,1.768,-1.28,-0.427,172.149
105163,140065,19647,-0.098,-0.948,-0.091,1.768,-1.28,-0.427,172.153
105163,140123,8299,-0.099,-0.958,-0.077,1.037,-0.793,-0.488,172.159
105147,140065,19647,-0.094,-0.954,-0.072,1.037,-0.793,-0.488,172.163
105147,140100,8304,-0.097,-0.959,-0.084,0.732,0,-0.244,172.169
105133,140065,19647,-0.097,-0.969,-0.071,0.732,0,-0.244,172.173
105133,140100,8313,-0.091,-0.959,-0.089,0.488,1.098,-0.122,172.179
105162,140065,19647,-0.092,-0.957,-0.116,0.488,1.098,-0.122,172.183
105162,140117,8313,-0.097,-0.969,-0.12,0.305,1.89,0.122,172.189
105190,140065,19647,-0.104,-0.968,-0.117,0.305,1.89,0.122,172.192
105190,140119,8311,-0.104,-0.95,-0.123,2.073,0.976,0.244,172.199
105196,140065,19647,-0.098,-0.937,-0.136,2.073,0.976,0.244,172.202
105196,140092,8297,-0.097,-0.938,-0.143,2.439,0,0,172.209
105206,140065,19647,-0.097,-0.952,-0.139,2.439,0,0,172.212
105206,140132,8301,-0.095,-0.962,-0.127,2.134,-0.915,-0.122,172.218
105212,140065,19647,-0.097,-0.954,-0.124,2.134,-0.915,-0.122,172.222
105212,140127,8319,-0.101,-0.957,-0.123,2.012,-1.402,-0.305,172.228
105205,140065,19647,-0.101,-0.956,-0.107,2.012,-1.402,-0.305,172.232
105205,140088,8316,-0.102,-0.958,-0.092,3.232,-1.89,-0.732,172.238
105171,140065,19647,-0.101,-0.956,-0.078,3.232,-1.89,-0.732,172.242
105171,140115,8305,-0.099,-0.953,-0.066,2.622,-1.829,-0.671,172.248
105177,140065,19647,-0.099,-0.954,-0.073,2.622,-1.829,-0.671,172.252
105177,140104,8318,-0.101,-0.963,-0.082,0.488,-0.488,-0.427,172.258
105176,140065,19647,-0.106,-0.974,-0.086,0.488,-0.488,-0.427,172.262
105176,140098,8299,-0.107,-0.971,-0.094,-0.122,0.732,0,172.268
105157,140065,19647,-0.11,-0.964,-0.111,-0.122,0.732,0,172.272
105157,140105,8316,-0.11,-0.96,-0.116,0.183,0.854,-0.061,172.278
105183,140065,19647,-0.107,-0.955,-0.111,0.183,0.854,-0.061,172.282
105183,140112,8309,-0.105,-0.955,-0.121,1.037,0.061,-0.183,172.288
105170,140065,19647,-0.104,-0.959,-0.119,1.037,0.061,-0.183,172.292
105170,140117,8306,-0.105,-0.968,-0.106,1.463,-0.427,-0.122,172.298
105172,140065,19647,-0.102,-0.963,-0.098,1.463,-0.427,-0.122,172.301
105172,140102,8305,-0.099,-0.961,-0.084,2.073,-0.915,-0.244,172.308
105156,140065,19647,-0.093,-0.96,-0.077,2.073,-0.915,-0.244,172.311
105156,140098,8296,-0.097,-0.963,-0.084,1.89,-0.61,0.122,172.317
105123,140065,19647,-0.104,-0.968,-0.082,1.89,-0.61,0.122,172.321
105123,140078,8311,-0.106,-0.957,-0.072,1.89,0.183,0.61,172.327
105087,140065,19647,-0.106,-0.932,-0.079,1.89,0.183,0.61,172.331
105087,140045,8304,-0.099,-0.925,-0.095,0.488,0.793,0.549,172.337
105107,140065,19647,-0.099,-0.947,-0.107,0.488,0.793,0.549,172.341
105107,140075,8307,-0.104,-0.959,-0.115,-1.524,1.28,0.61,172.347
105119,140065,19647,-0.11,-0.957,-0.122,-1.524,1.28,0.61,172.351
105119,140034,8303,-0.114,-0.959,-0.118,-1.585,0.915,0.732,172.357
105102,140065,19647,-0.102,-0.949,-0.12,-1.585,0.915,0.732,172.361
105102,140036,8319,-0.093,-0.948,-0.12,0.122,-0.366,-0.183,172.367
105115,140065,19647,-0.088,-0.949,-0.115,0.122,-0.366,-0.183,172.371
105115,140062,8299,-0.097,-0.952,-0.11,0.671,-0.915,-0.183,172.377
105113,140065,19647,-0.101,-0.958,-0.097,0.671,-0.915,-0.183,172.381
105113,140041,8309,-0.098,-0.957,-0.1,0.366,-0.732,-0.366,172.387
105120,140065,19647,-0.104,-0.961,-0.091,0.366,-0.732,-0.366,172.39
105120,140046,8318,-0.103,-0.964,-0.051,0.732,-0.549,-0.488,172.397
105137,140065,19647,-0.093,-0.954,-0.053,0.732,-0.549,-0.488,172.4
105137,140065,8317,-0.092,-0.951,-0.09,-0.305,0.366,-0.305,172.407
105139,140065,19647,-0.099,-0.974,-0.102,-0.305,0.366,-0.305,172.41
105139,140074,8303,-0.11,-0.986,-0.098,-1.646,1.585,0.366,172.416
105132,140065,19647,-0.108,-0.976,-0.103,-1.646,1.585,0.366,172.42
105132,140066,8303,-0.106,-0.964,-0.111,-0.793,1.341,0.61,172.426
105142,140065,19647,-0.101,-0.959,-0.122,-0.793,1.341,0.61,172.43
105142,140072,8308,-0.098,-0.96,-0.126,0.244,0.61,0.183,172.436
105126,140065,19647,-0.103,-0.958,-0.125,0.244,0.61,0.183,172.44
105126,140046,8306,-0.107,-0.95,-0.125,0.671,0.183,0.183,172.446
105097,139809,19647,-0.106,-0.94,-0.116,0.671,0.183,0.183,172.45
105097,140025,8296,-0.103,-0.94,-0.109,0.732,-0.488,-0.183,172.456
105088,139809,19647,-0.099,-0.946,-0.099,0.732,-0.488,-0.183,172.46
105088,140026,8303,-0.098,-0.95,-0.088,0.732,-1.037,-0.61,172.466
105061,139809,19647,-0.097,-0.945,-0.09,0.732,-1.037,-0.61,172.47
105061,139998,8307,-0.099,-0.942,-0.084,0.122,-0.61,-0.732,172.476
105023,139809,19647,-0.102,-0.943,-0.072,0.122,-0.61,-0.732,172.48
105023,139978,8281,-0.097,-0.956,-0.082,-0.244,-0.122,-0.793,172.486
104972,139809,19647,-0.093,-0.971,-0.092,-0.244,-0.122,-0.793,172.489
104972,139928,8290,-0.097,-0.979,-0.086,-0.671,0.549,-0.549,172.496
104952,139809,19647,-0.103,-0.975,-0.091,-0.671,0.549,-0.549,172.499
104952,139908,8275,-0.102,-0.968,-0.098,-0.671,1.159,-0.305,172.506
104905,139809,19647,-0.101,-0.971,-0.096,-0.671,1.159,-0.305,172.509
104905,139882,8280,-0.094,-0.971,-0.106,-0.183,1.098,-0.122,172.515
104908,139809,19647,-0.097,-0.972,-0.116,-0.183,1.098,-0.122,172.519
104908,139898,8285,-0.101,-0.972,-0.117,-0.305,0.915,0.305,172.525
104935,139809,19647,-0.106,-0.973,-0.118,-0.305,0.915,0.305,172.529
104935,139915,8280,-0.103,-0.962,-0.111,0.183,0.244,0.488,172.535
104956,139809,19647,-0.1,-0.949,-0.11,0.183,0.244,0.488,172.539
104956,139927,8294,-0.097,-0.948,-0.104,0.793,-0.671,0.488,172.545
105006,139809,19647,-0.101,-0.949,-0.108,0.793,-0.671,0.488,172.549
105006,139935,8288,-0.108,-0.953,-0.102,0.793,-0.427,0.488,172.555
105019,139809,19647,-0.105,-0.958,-0.084,0.793,-0.427,0.488,172.559
105019,139972,8307,-0.097,-0.941,-0.091,0.671,-0.305,0.427,172.565
105037,139809,19647,-0.098,-0.939,-0.099,0.671,-0.305,0.427,172.569
105037,139999,8289,-0.102,-0.953,-0.087,0.305,-0.061,-0.183,172.575
105084,139809,19647,-0.1,-0.948,-0.078,0.305,-0.061,-0.183,172.579
105084,140016,8304,-0.098,-0.944,-0.085,-0.366,0.427,-0.305,172.585
105082,140065,19647,-0.094,-0.955,-0.099,-0.366,0.427,-0.305,172.588
105082,140054,8312,-0.093,-0.972,-0.105,-1.28,0.976,-0.366,172.595
105125,140065,19647,-0.093,-0.972,-0.105,-1.28,0.976,-0.366,172.598
105125,140078,8309,-0.103,-0.966,-0.116,-0.549,0.854,0.183,172.605
105142,140065,19647,-0.103,-0.966,-0.116,-0.549,0.854,0.183,172.608
105142,140076,8297,-0.1,-0.966,-0.117,0.183,0.122,0,172.614
105131,140065,19647,-0.1,-0.966,-0.117,0.183,0.122,0,172.618
105131,140067,8297,-0.093,-0.964,-0.109,0.549,-0.61,0,172.624
105088,139809,19647,-0.093,-0.964,-0.109,0.549,-0.61,0,172.628
105088,140014,8304,-0.108,-0.954,-0.099,0.671,-0.671,0.122,172.634
105061,139809,19647,-0.108,-0.954,-0.099,0.671,-0.671,0.122,172.638
105061,139994,8286,-0.096,-0.953,-0.091,0.488,-0.61,0.061,172.644
105019,139809,19647,-0.096,-0.953,-0.091,0.488,-0.61,0.061,172.648
105019,139960,8299,-0.1,-0.957,-0.076,-0.122,-0.061,0.244,172.654
104955,139809,19647,-0.1,-0.957,-0.076,-0.122,-0.061,0.244,172.658
104955,139913,8276,-0.106,-0.958,-0.064,-0.427,0.671,0.183,172.664
104918,139809,19647,-0.106,-0.958,-0.064,-0.427,0.671,0.183,172.668
104918,139887,8294,-0.09,-0.958,-0.081,-0.305,1.22,0.183,172.674
104887,139809,19647,-0.09,-0.958,-0.081,-0.305,1.22,0.183,172.678
104887,139877,8274,-0.096,-0.971,-0.106,-0.976,2.134,0.488,172.684
104892,139809,19647,-0.096,-0.971,-0.106,-0.976,2.134,0.488,172.687
104892,139877,8268,-0.102,-0.968,-0.12,-0.793,2.134,0.915,172.694
104876,139809,19647,-0.102,-0.968,-0.12,-0.793,2.134,0.915,172.697
104876,139865,8269,-0.102,-0.954,-0.121,-0.244,1.28,0.671,172.704
104848,139809,19647,-0.102,-0.954,-0.121,-0.244,1.28,0.671,172.707
104848,139876,8276,-0.1,-0.949,-0.107,0.183,0.366,0.427,172.713
104856,139809,19647,-0.1,-0.949,-0.107,0.183,0.366,0.427,172.717
104856,139879,8266,-0.099,-0.946,-0.097,0.244,0.244,0.427,172.723
104858,139809,19647,-0.099,-0.946,-0.097,0.244,0.244,0.427,172.727
104858,139875,8287,-0.102,-0.953,-0.076,0.366,0.488,0.122,172.733
104861,139809,19647,-0.102,-0.953,-0.076,0.366,0.488,0.122,172.737
104861,139869,8273,-0.096,-0.944,-0.087,0.366,0.488,0.122,172.743
104866,139809,19647,-0.098,-0.947,-0.098,0.305,0.976,0.061,172.747
104866,139876,8276,-0.104,-0.957,-0.096,0.305,0.976,0.061,172.753
104859,139809,19647,-0.102,-0.96,-0.096,0.427,1.585,-0.244,172.757
104859,139911,8273,-0.097,-0.964,-0.094,0.427,1.585,-0.244,172.763
104835,139809,19647,-0.095,-0.965,-0.099,0.549,1.829,-0.61,172.767
104835,139870,8277,-0.095,-0.96,-0.118,0.549,1.829,-0.61,172.773
104835,139809,19647,-0.097,-0.967,-0.123,0.61,2.256,-0.549,172.777
104835,139854,8269,-0.103,-0.982,-0.122,0.61,2.256,-0.549,172.783
104841,139809,19647,-0.099,-0.97,-0.121,1.28,1.768,-0.061,172.786
104841,139834,8258,-0.098,-0.959,-0.123,1.28,1.768,-0.061,172.793
104843,139809,19647,-0.098,-0.961,-0.123,1.524,0.366,0,172.796
104843,139865,8259,-0.099,-0.959,-0.123,1.524,0.366,0,172.803
104836,139809,19647,-0.1,-0.958,-0.117,1.28,-0.366,0.305,172.806
104836,139836,8278,-0.103,-0.958,-0.102,1.28,-0.366,0.305,172.812
104797,139809,19647,-0.106,-0.951,-0.087,1.28,-1.098,0.427,172.816
104797,139835,8265,-0.105,-0.939,-0.074,1.28,-1.098,0.427,172.822
104823,139809,19647,-0.104,-0.939,-0.07,0.976,-1.22,0.183,172.826
104823,139845,8260,-0.102,-0.943,-0.065,0.976,-1.22,0.183,172.832
104814,139809,19647,-0.105,-0.945,-0.058,-0.122,-0.244,0.305,172.836
104814,139837,8288,-0.104,-0.949,-0.062,-0.122,-0.244,0.305,172.842
104825,139809,19647,-0.099,-0.953,-0.074,-0.915,0.732,0.244,172.846
104825,139828,8270,-0.099,-0.964,-0.088,-0.915,0.732,0.244,172.852
104834,139809,19647,-0.1,-0.975,-0.098,-0.915,1.28,0.366,172.856
104834,139845,8269,-0.102,-0.97,-0.11,-0.915,1.28,0.366,172.862
104841,139809,19647,-0.104,-0.966,-0.11,-0.305,1.28,0.366,172.866
104841,139905,8268,-0.103,-0.964,-0.111,-0.305,1.28,0.366,172.872
104853,139809,19647,-0.099,-0.964,-0.121,0.183,0.671,-0.061,172.876
104853,139846,8275,-0.096,-0.971,-0.114,0.183,0.671,-0.061,172.882
104835,139809,19647,-0.095,-0.958,-0.107,0.488,-0.122,0.244,172.885
104835,139835,8263,-0.094,-0.952,-0.108,0.488,-0.122,0.244,172.892
104831,139809,19647,-0.096,-0.957,-0.107,-0.183,-0.244,0.305,172.895
104831,139839,8271,-0.094,-0.962,-0.109,-0.183,-0.244,0.305,172.902
104807,139809,19647,-0.097,-0.965,-0.104,-0.915,-0.122,0.488,172.905
104807,139845,8263,-0.099,-0.961,-0.097,-0.915,-0.122,0.488,172.911
104825,139809,19647,-0.103,-0.95,-0.091,-0.122,-0.427,0.366,172.915
104825,139834,8270,-0.103,-0.941,-0.091,-0.122,-0.427,0.366,172.921
104823,139809,19647,-0.098,-0.942,-0.089,0.366,-0.244,0.122,172.925
104823,139872,8273,-0.094,-0.95,-0.09,0.366,-0.244,0.122,172.931
104820,139809,19647,-0.095,-0.955,-0.094,-0.305,0.122,0.122,172.935
104820,139857,8263,-0.101,-0.958,-0.09,-0.305,0.122,0.122,172.941
104807,139809,19647,-0.105,-0.951,-0.093,-0.61,0.671,0,172.945
104807,139862,8273,-0.102,-0.947,-0.112,-0.61,0.671,0,172.951
104828,139809,19647,-0.094,-0.964,-0.112,0.061,0.61,-0.427,172.955
104828,139878,8272,-0.094,-0.969,-0.106,0.061,0.61,-0.427,172.961
104854,139809,19647,-0.091,-0.961,-0.111,0.244,0.183,-0.122,172.965
104854,139863,8269,-0.095,-0.971,-0.114,0.244,0.183,-0.122,172.971
104856,139809,19647,-0.097,-0.977,-0.115,0.244,-0.183,-0.183,172.975
104856,139878,8259,-0.099,-0.97,-0.118,0.244,-0.183,-0.183,172.981
104878,139809,19647,-0.101,-0.967,-0.1,1.22,-0.732,0.183,172.984
104878,139928,8268,-0.101,-0.961,-0.088,1.22,-0.732,0.183,172.991
104894,139809,19647,-0.099,-0.957,-0.085,1.159,-1.159,0.366,172.994
104894,139913,8278,-0.098,-0.964,-0.072,1.159,-1.159,0.366,173.001
104863,139809,19647,-0.096,-0.963,-0.076,0.732,-0.549,0.549,173.004
104863,139912,8272,-0.097,-0.956,-0.086,0.732,-0.549,0.549,173.01
104859,139809,19647,-0.103,-0.951,-0.082,0.61,0.305,0.488,173.014
104859,139868,8277,-0.101,-0.945,-0.078,0.61,0.305,0.488,173.02
104887,139809,19647,-0.101,-0.936,-0.082,0.854,0.61,0.305,173.024
104887,139906,8263,-0.1,-0.93,-0.101,0.854,0.61,0.305,173.03
104902,139809,19647,-0.097,-0.939,-0.112,-0.183,0.854,-0.061,173.034
104902,139920,8281,-0.094,-0.954,-0.112,-0.183,0.854,-0.061,173.04
104949,139809,19647,-0.094,-0.962,-0.104,-0.366,0.549,-0.305,173.044
104949,139978,8285,-0.089,-0.956,-0.104,-0.366,0.549,-0.305,173.05
105043,139809,19647,-0.09,-0.959,-0.114,-0.366,-0.183,-0.183,173.054
105043,140025,8281,-0.094,-0.971,-0.109,-0.366,-0.183,-0.183,173.06
105089,140065,19647,-0.094,-0.972,-0.091,0,-0.366,0.244,173.064
105089,140062,8304,-0.097,-0.968,-0.089,0,-0.366,0.244,173.07
105120,140065,19647,-0.096,-0.967,-0.086,0.427,-0.244,0.366,173.074
105120,140091,8303,-0.099,-0.972,-0.092,0.427,-0.244,0.366,173.08
105141,140065,19647,-0.104,-0.972,-0.091,-0.061,0.366,0.488,173.083
105141,140103,8312,-0.108,-0.97,-0.079,-0.061,0.366,0.488,173.09
105132,140065,19647,-0.103,-0.964,-0.082,-0.244,0.793,0.61,173.093
105132,140088,8302,-0.099,-0.962,-0.097,-0.244,0.793,0.61,173.1
105126,140065,19647,-0.099,-0.966,-0.101,-0.671,1.159,0.854,173.103
105126,140106,8314,-0.104,-0.959,-0.103,-0.671,1.159,0.854,173.109
105140,140065,19647,-0.107,-0.946,-0.105,-0.427,1.341,0.976,173.113
105140,140101,8312,-0.107,-0.934,-0.104,-0.427,1.341,0.976,173.119
105107,140065,19647,-0.101,-0.935,-0.108,-0.122,0.793,0.366,173.123
105107,140078,8295,-0.095,-0.942,-0.118,-0.122,0.793,0.366,173.129
105076,139809,19647,-0.093,-0.952,-0.117,-0.122,0.061,-0.061,173.133
105076,140020,8310,-0.097,-0.96,-0.107,-0.122,0.061,-0.061,173.139
104999,139809,19647,-0.102,-0.96,-0.089,0.244,-0.427,0,173.143
104999,139998,8305,-0.095,-0.947,-0.076,0.244,-0.427,0,173.149
105002,139809,19647,-0.091,-0.941,-0.088,0.061,-0.671,-0.244,173.153
105002,139963,8293,-0.092,-0.955,-0.094,0.061,-0.671,-0.244,173.159
104968,139809,19647,-0.095,-0.979,-0.089,-1.037,0.183,-0.183,173.163
104968,139981,8289,-0.099,-0.981,-0.087,-1.037,0.183,-0.183,173.169
104990,139809,19647,-0.106,-0.971,-0.092,-0.793,0.671,0.305,173.173
104990,139993,8307,-0.103,-0.971,-0.09,-0.793,0.671,0.305,173.179
105028,139809,19647,-0.103,-0.971,-0.09,-0.793,0.671,0.305,173.182
105028,140012,8303,-0.093,-0.963,-0.095,-0.183,0.488,0.488,173.189
105036,139809,19647,-0.093,-0.963,-0.095,-0.183,0.488,0.488,173.192
105036,140012,8297,-0.104,-0.969,-0.097,-0.976,0.915,1.037,173.198
105058,139809,19647,-0.104,-0.969,-0.097,-0.976,0.915,1.037,173.202
105058,140024,8297,-0.109,-0.953,-0.103,-1.22,1.524,1.341,173.208
105022,139809,19647,-0.109,-0.953,-0.103,-1.22,1.524,1.341,173.212
105022,139992,8295,-0.097,-0.943,-0.117,0.061,0.915,0.854,173.218
105024,139809,19647,-0.097,-0.943,-0.117,0.061,0.915,0.854,173.222
105024,140001,8286,-0.099,-0.934,-0.107,0.976,0.122,0.427,173.228
104984,139809,19647,-0.099,-0.934,-0.107,0.976,0.122,0.427,173.232
104984,139966,8290,-0.097,-0.939,-0.09,0.732,-0.061,0,173.238
104973,139809,19647,-0.097,-0.939,-0.09,0.732,-0.061,0,173.242
104973,139967,8275,-0.087,-0.949,-0.1,0.549,-0.61,-0.549,173.248
104969,139809,19647,-0.087,-0.949,-0.1,0.549,-0.61,-0.549,173.252
104969,139968,8295,-0.095,-0.97,-0.076,-0.122,-0.366,-0.488,173.258
105005,139809,19647,-0.095,-0.97,-0.076,-0.122,-0.366,-0.488,173.262
105005,139948,8295,-0.093,-0.963,-0.087,-0.61,0.122,-0.244,173.268
105022,139809,19647,-0.093,-0.963,-0.087,-0.61,0.122,-0.244,173.272
105022,139993,8291,-0.109,-0.984,-0.098,-1.646,0.976,-0.122,173.278
105035,139809,19647,-0.109,-0.984,-0.098,-1.646,0.976,-0.122,173.281
105035,140027,8286,-0.102,-0.969,-0.093,-0.915,1.28,0.488,173.288
105043,139809,19647,-0.102,-0.969,-0.093,-0.915,1.28,0.488,173.291
105043,140028,8302,-0.101,-0.968,-0.102,-0.305,0.915,0.366,173.297
105058,139809,19647,-0.101,-0.968,-0.102,-0.305,0.915,0.366,173.301
105058,140019,8294,-0.096,-0.957,-0.1,0.122,0.61,0.61,173.307
105068,139809,19647,-0.096,-0.957,-0.1,0.122,0.61,0.61,173.311
105068,140030,8305,-0.099,-0.949,-0.114,0.061,0.671,0.976,173.317
104999,139809,19647,-0.099,-0.949,-0.114,0.061,0.671,0.976,173.321
104999,139995,8298,-0.103,-0.95,-0.116,0.183,0.366,0.732,173.327
104989,139809,19647,-0.099,-0.953,-0.094,0.183,0.366,0.732,173.331
104989,139976,8291,-0.089,-0.951,-0.088,0.732,-0.488,0.732,173.337
104943,139809,19647,-0.092,-0.95,-0.1,0.732,-0.488,0.732,173.341
104943,139937,8285,-0.1,-0.957,-0.089,-0.061,-0.305,0.61,173.347
104903,139809,19647,-0.103,-0.957,-0.085,-0.061,-0.305,0.61,173.351
104903,139891,8272,-0.103,-0.952,-0.098,-0.305,0.183,0.61,173.357
104912,139809,19647,-0.101,-0.953,-0.104,-0.305,0.183,0.61,173.361
104912,139908,8275,-0.102,-0.954,-0.106,-0.427,0.549,0.305,173.367
104896,139809,19647,-0.101,-0.958,-0.105,-0.427,0.549,0.305,173.371
104896,139888,8260,-0.102,-0.957,-0.105,-0.305,0.549,0.244,173.377
104922,139809,19647,-0.103,-0.962,-0.102,-0.305,0.549,0.244,173.38
104922,139911,8289,-0.1,-0.961,-0.098,-0.183,0.061,0.183,173.387
104933,139809,19647,-0.094,-0.959,-0.087,-0.183,0.061,0.183,173.39
104933,139938,8287,-0.094,-0.957,-0.082,-0.122,-0.244,0.244,173.396
104940,139809,19647,-0.093,-0.958,-0.082,-0.122,-0.244,0.244,173.4
104940,139958,8286,-0.097,-0.962,-0.088,-0.732,0.427,0.427,173.406
104929,139809,19647,-0.1,-0.968,-0.081,-0.732,0.427,0.427,173.41
104929,139924,8279,-0.097,-0.971,-0.078,-0.793,0.915,0.61,173.416
104945,139809,19647,-0.092,-0.967,-0.089,-0.793,0.915,0.61,173.42
104945,139939,8283,-0.098,-0.964,-0.099,-0.549,1.159,0.671,173.426
104951,139809,19647,-0.101,-0.958,-0.105,-0.549,1.159,0.671,173.43
104951,139949,8267,-0.101,-0.959,-0.103,0.366,1.037,0.793,173.436
104925,139809,19647,-0.099,-0.954,-0.103,0.366,1.037,0.793,173.44
104925,139908,8284,-0.099,-0.948,-0.103,0.366,0.488,0.732,173.446
104895,139809,19647,-0.094,-0.948,-0.111,0.366,0.488,0.732,173.45
104895,139888,8284,-0.096,-0.957,-0.107,-0.305,0.305,0.427,173.456
104889,139809,19647,-0.099,-0.954,-0.099,-0.305,0.305,0.427,173.46
104889,139890,8281,-0.097,-0.952,-0.1,-0.732,0.427,0.488,173.466
104907,139809,19647,-0.098,-0.954,-0.101,-0.732,0.427,0.488,173.469
104907,139914,8276,-0.097,-0.961,-0.089,-0.854,0.244,0.366,173.476
104920,139809,19647,-0.092,-0.965,-0.085,-0.854,0.244,0.366,173.479
104920,139908,8280,-0.089,-0.965,-0.095,-0.732,0.366,0.671,173.486
104915,139809,19647,-0.097,-0.973,-0.096,-0.732,0.366,0.671,173.489
104915,139913,8284,-0.106,-0.968,-0.088,-0.427,0.793,0.854,173.495
104927,139809,19647,-0.105,-0.951,-0.089,-0.427,0.793,0.854,173.499
104927,139946,8293,-0.101,-0.946,-0.095,-0.183,0.732,0.732,173.505
104911,139809,19647,-0.099,-0.96,-0.089,-0.183,0.732,0.732,173.509
104911,139938,8280,-0.097,-0.968,-0.09,-0.61,0.854,0.61,173.515
104900,139809,19647,-0.099,-0.965,-0.093,-0.61,0.854,0.61,173.519
104900,139930,8278,-0.104,-0.966,-0.097,-0.671,1.159,0.976,173.525
104924,139809,19647,-0.107,-0.96,-0.097,-0.671,1.159,0.976,173.529
104924,139892,8271,-0.103,-0.949,-0.098,0.061,1.098,0.732,173.535
104914,139809,19647,-0.093,-0.948,-0.106,0.061,1.098,0.732,173.539
104914,139898,8282,-0.098,-0.961,-0.108,-0.244,0.732,0.61,173.545
104912,139809,19647,-0.102,-0.964,-0.106,-0.244,0.732,0.61,173.549
104912,139908,8279,-0.101,-0.959,-0.098,-0.305,0.671,0.854,173.555
104895,139809,19647,-0.097,-0.95,-0.094,-0.305,0.671,0.854,173.559
104895,139915,8292,-0.091,-0.952,-0.095,-0.244,0.366,0.549,173.565
104935,139809,19647,-0.093,-0.96,-0.099,-0.244,0.366,0.549,173.568
104935,139942,8278,-0.097,-0.96,-0.097,-0.549,0.549,0.549,173.575
104921,139809,19647,-0.099,-0.95,-0.094,-0.549,0.549,0.549,173.578
104921,139911,8277,-0.101,-0.946,-0.1,-0.854,0.976,0.366,173.585
104885,139809,19647,-0.1,-0.957,-0.095,-0.854,0.976,0.366,173.588
104885,139896,8276,-0.094,-0.963,-0.089,-0.549,0.732,0.061,173.594
104874,139809,19647,-0.091,-0.963,-0.079,-0.549,0.732,0.061,173.598
104874,139901,8279,-0.091,-0.962,-0.071,-0.671,0.671,0.366,173.604
104855,139809,19647,-0.092,-0.965,-0.089,-0.671,0.671,0.366,173.608
104855,139871,8254,-0.099,-0.968,-0.099,-1.707,1.463,0.671,173.614
104844,139809,19647,-0.107,-0.972,-0.101,-1.707,1.463,0.671,173.618
104844,139868,8274,-0.11,-0.968,-0.102,-1.28,1.646,1.159,173.624
104832,139809,19647,-0.105,-0.958,-0.104,-1.28,1.646,1.159,173.628
104832,139878,8271,-0.104,-0.953,-0.115,-0.61,1.159,0.976,173.634
104855,139809,19647,-0.101,-0.96,-0.111,-0.61,1.159,0.976,173.638
104855,139863,8265,-0.098,-0.963,-0.107,-0.61,0.549,0.732,173.644
104880,139809,19647,-0.097,-0.957,-0.115,-0.61,0.549,0.732,173.648
104880,139889,8279,-0.104,-0.956,-0.114,-0.915,0.305,1.037,173.654
104883,139809,19647,-0.107,-0.963,-0.108,-0.915,0.305,1.037,173.658
104883,139914,8274,-0.104,-0.953,-0.103,-0.427,0,0.671,173.664
104865,139809,19647,-0.097,-0.947,-0.106,-0.427,0,0.671,173.667
104865,139885,8296,-0.096,-0.953,-0.093,0.427,-0.671,0.183,173.674
104890,139809,19647,-0.099,-0.952,-0.073,0.427,-0.671,0.183,173.677
104890,139902,8276,-0.098,-0.936,-0.07,-0.061,-0.366,0.366,173.684
104887,139809,19647,-0.092,-0.948,-0.082,-0.061,-0.366,0.366,173.687
104887,139901,8284,-0.098,-0.975,-0.077,-1.524,0.732,0.61,173.693
104880,139809,19647,-0.099,-0.974,-0.08,-1.524,0.732,0.61,173.697
104880,139929,8285,-0.098,-0.964,-0.087,-1.707,1.402,1.22,173.703
104913,139809,19647,-0.1,-0.963,-0.095,-1.707,1.402,1.22,173.707
104913,139930,8274,-0.104,-0.969,-0.099,-1.951,1.768,1.28,173.713
104881,139809,19647,-0.11,-0.966,-0.102,-1.951,1.768,1.28,173.717
104881,139924,8289,-0.106,-0.956,-0.112,-1.768,1.768,1.463,173.723
104896,139809,19647,-0.106,-0.957,-0.116,-1.768,1.768,1.463,173.727
104896,139949,8279,-0.101,-0.957,-0.117,-1.402,1.28,1.28,173.733
104892,139809,19647,-0.102,-0.95,-0.126,-1.402,1.28,1.28,173.737
104892,139922,8269,-0.102,-0.951,-0.124,-1.098,0.671,0.915,173.743
104877,139809,19647,-0.104,-0.954,-0.12,-1.098,0.671,0.915,173.747
104877,139897,8282,-0.104,-0.952,-0.116,-0.61,0.183,0.61,173.753
104869,139809,19647,-0.101,-0.948,-0.101,-0.61,0.183,0.61,173.757
104869,139902,8283,-0.096,-0.947,-0.086,0.183,-0.549,0.244,173.763
104885,139809,19647,-0.096,-0.947,-0.086,0.183,-0.549,0.244,173.766
104885,139936,8290,-0.093,-0.954,-0.07,-0.244,-0.488,0.183,173.773
104902,139809,19647,-0.093,-0.954,-0.07,-0.244,-0.488,0.183,173.776
104902,139925,8274,-0.099,-0.963,-0.073,-1.463,0.915,0.427,173.783
104904,139809,19647,-0.099,-0.963,-0.073,-1.463,0.915,0.427,173.786
104904,139940,8287,-0.1,-0.974,-0.092,-1.768,1.89,0.61,173.792
104911,139809,19647,-0.1,-0.974,-0.092,-1.768,1.89,0.61,173.796
104911,139957,8298,-0.1,-0.965,-0.107,-1.646,1.89,0.854,173.802
104942,139809,19647,-0.1,-0.965,-0.107,-1.646,1.89,0.854,173.806
104942,139951,8294,-0.105,-0.958,-0.115,-1.585,1.585,0.976,173.812
104975,139809,19647,-0.105,-0.958,-0.115,-1.585,1.585,0.976,173.816
104975,139983,8290,-0.1,-0.956,-0.119,-0.732,0.976,0.793,173.822
104980,139809,19647,-0.1,-0.956,-0.119,-0.732,0.976,0.793,173.826
104980,139981,8294,-0.095,-0.955,-0.107,0.061,0.366,0.793,173.832
104977,139809,19647,-0.095,-0.955,-0.107,0.061,0.366,0.793,173.836
104977,140002,8307,-0.099,-0.941,-0.103,0.671,0.061,0.549,173.842
104993,139809,19647,-0.099,-0.941,-0.103,0.671,0.061,0.549,173.846
104993,139990,8283,-0.105,-0.944,-0.091,0.671,0.183,0.183,173.852
104957,139809,19647,-0.105,-0.944,-0.091,0.671,0.183,0.183,173.856
104957,139957,8282,-0.089,-0.958,-0.079,-0.061,0.366,0.122,173.862
104929,139809,19647,-0.089,-0.958,-0.079,-0.061,0.366,0.122,173.865
104929,139952,8282,-0.097,-0.968,-0.103,-1.22,1.341,0.366,173.872
104935,139809,19647,-0.097,-0.968,-0.103,-1.22,1.341,0.366,173.875
104935,139915,8281,-0.104,-0.968,-0.093,-0.854,1.707,0.793,173.882
104902,139809,19647,-0.104,-0.968,-0.093,-0.854,1.707,0.793,173.885
104902,139928,8269,-0.102,-0.953,-0.108,-0.549,1.402,0.793,173.891
104891,139809,19647,-0.102,-0.953,-0.108,-0.549,1.402,0.793,173.895
104891,139920,8283,-0.105,-0.96,-0.117,-0.915,1.22,0.976,173.901
104869,139809,19647,-0.105,-0.96,-0.117,-0.915,1.22,0.976,173.905
104869,139922,8276,-0.104,-0.957,-0.12,-0.915,1.22,0.976,173.911
104881,139809,19647,-0.11,-0.955,-0.116,-1.159,0.915,0.854,173.915
104881,139907,8278,-0.11,-0.951,-0.105,-1.159,0.915,0.854,173.921
104898,139809,19647,-0.1,-0.944,-0.106,-0.244,0.122,0.366,173.925
104898,139930,8276,-0.093,-0.949,-0.107,-0.244,0.122,0.366,173.931
104934,139809,19647,-0.095,-0.953,-0.109,-0.061,0,0.244,173.935
104934,139930,8280,-0.106,-0.944,-0.114,-0.061,0,0.244,173.941
104927,139809,19647,-0.113,-0.946,-0.106,-0.366,0.305,0.061,173.945
104927,139930,8281,-0.11,-0.953,-0.095,-0.366,0.305,0.061,173.951
104894,139809,19647,-0.097,-0.958,-0.098,0.061,-0.244,-0.427,173.955
104894,139909,8281,-0.089,-0.967,-0.091,0.061,-0.244,-0.427,173.961
104892,139809,19647,-0.092,-0.972,-0.089,-0.427,-0.244,-0.061,173.964
104892,139915,8273,-0.099,-0.97,-0.089,-0.427,-0.244,-0.061,173.971
104864,139809,19647,-0.107,-0.966,-0.091,-0.549,0.549,0.427,173.974
104864,139896,8272,-0.109,-0.967,-0.09,-0.549,0.549,0.427,173.981
104860,139809,19647,-0.102,-0.971,-0.089,-0.427,0.732,0.305,173.984
104860,139903,8287,-0.103,-0.96,-0.106,-0.427,0.732,0.305,173.99
104839,139809,19647,-0.107,-0.963,-0.109,-0.793,0.976,0.61,173.994
104839,139922,8275,-0.105,-0.965,-0.097,-0.793,0.976,0.61,174
104838,139809,19647,-0.097,-0.953,-0.108,-0.549,0.854,0.671,174.004
104838,139867,8274,-0.1,-0.944,-0.121,-0.549,0.854,0.671,174.01
104833,139809,19647,-0.104,-0.948,-0.116,-0.549,0.61,0.305,174.014
104833,139898,8272,-0.102,-0.947,-0.109,-0.549,0.61,0.305,174.02
104836,139809,19647,-0.1,-0.942,-0.105,-0.183,-0.122,0.061,174.024
104836,139897,8277,-0.093,-0.951,-0.105,-0.183,-0.122,0.061,174.03
104854,139809,19647,-0.094,-0.953,-0.104,-0.122,-0.488,-0.183,174.034
104854,139912,8271,-0.096,-0.958,-0.1,-0.122,-0.488,-0.183,174.04
104858,139809,19647,-0.101,-0.961,-0.098,0.122,-0.427,-0.061,174.044
104858,139915,8268,-0.103,-0.965,-0.085,0.122,-0.427,-0.061,174.05
104889,139809,19647,-0.096,-0.961,-0.08,0.488,-0.427,0,174.054
104889,139953,8284,-0.093,-0.957,-0.092,0.488,-0.427,0,174.06
104901,139809,19647,-0.099,-0.958,-0.097,-0.122,0.244,0.061,174.063
104901,139929,8282,-0.107,-0.967,-0.093,-0.122,0.244,0.061,174.07
104926,139809,19647,-0.104,-0.963,-0.088,-0.488,0.671,0.488,174.073
104926,139951,8279,-0.098,-0.957,-0.1,-0.488,0.671,0.488,174.08
104957,139809,19647,-0.103,-0.96,-0.107,-1.159,0.854,0.366,174.083
104957,139975,8284,-0.103,-0.962,-0.114,-1.159,0.854,0.366,174.089
104969,139809,19647,-0.105,-0.962,-0.116,-0.793,0.915,0.427,174.093
104969,140014,8287,-0.109,-0.951,-0.116,-0.793,0.915,0.427,174.099
104956,139809,19647,-0.106,-0.941,-0.123,0.61,0.366,0.183,174.103
104956,139970,8278,-0.103,-0.942,-0.122,0.61,0.366,0.183,174.109
104926,139809,19647,-0.096,-0.948,-0.119,1.28,-0.549,-0.549,174.113
104926,139939,8289,-0.095,-0.951,-0.115,1.28,-0.549,-0.549,174.119
104904,139809,19647,-0.099,-0.956,-0.104,1.098,-1.22,-0.488,174.123
104904,139926,8275,-0.099,-0.947,-0.095,1.098,-1.22,-0.488,174.129
104883,139809,19647,-0.101,-0.943,-0.1,0.61,-1.463,-0.732,174.133
104883,139908,8268,-0.099,-0.957,-0.092,0.61,-1.463,-0.732,174.139
104851,139809,19647,-0.092,-0.971,-0.083,-0.366,-0.976,-0.732,174.143
104851,139868,8277,-0.094,-0.978,-0.094,-0.366,-0.976,-0.732,174.149
104830,139809,19647,-0.102,-0.976,-0.095,-0.915,-0.183,-0.061,174.153
104830,139892,8270,-0.115,-0.971,-0.087,-0.915,-0.183,-0.061,174.159
104816,139809,19647,-0.111,-0.965,-0.088,-0.183,0.183,0.061,174.162
104816,139858,8274,-0.103,-0.955,-0.095,-0.183,0.183,0.061,174.169
104819,139809,19647,-0.1,-0.958,-0.099,0.061,0.183,-0.122,174.172
104819,139860,8273,-0.099,-0.964,-0.099,0.061,0.183,-0.122,174.179
104809,139809,19647,-0.104,-0.961,-0.103,-0.488,0.61,0.244,174.182
104809,139873,8269,-0.101,-0.957,-0.11,-0.488,0.61,0.244,174.188
104821,139809,19647,-0.102,-0.957,-0.112,-0.854,0.61,0.122,174.192
104821,139841,8283,-0.099,-0.955,-0.115,-0.854,0.61,0.122,174.198
104799,139809,19647,-0.099,-0.948,-0.108,-0.061,0,-0.061,174.202
104799,139853,8283,-0.096,-0.951,-0.094,-0.061,0,-0.061,174.208
104815,139809,19647,-0.091,-0.953,-0.102,0.366,-0.244,-0.244,174.212
104815,139870,8279,-0.091,-0.955,-0.106,0.366,-0.244,-0.244,174.218
104869,139809,19647,-0.094,-0.966,-0.094,0.183,-0.244,-0.305,174.222
104869,139882,8279,-0.094,-0.971,-0.086,0.183,-0.244,-0.305,174.228
104837,139809,19647,-0.096,-0.959,-0.094,0.61,-0.122,-0.244,174.232
104837,139869,8258,-0.098,-0.953,-0.09,0.61,-0.122,-0.244,174.238
104822,139809,19647,-0.093,-0.948,-0.089,0.549,0.244,-0.305,174.242
104822,139880,8279,-0.092,-0.955,-0.1,0.549,0.244,-0.305,174.248
104812,139809,19647,-0.094,-0.962,-0.106,-0.183,0.671,-0.244,174.252
104812,139862,8266,-0.1,-0.966,-0.102,-0.183,0.671,-0.244,174.258
104811,139809,19647,-0.103,-0.968,-0.104,-0.305,0.793,0.183,174.261
104811,139867,8263,-0.096,-0.967,-0.106,-0.305,0.793,0.183,174.268
104818,139809,19647,-0.092,-0.965,-0.103,0.305,0.366,0.183,174.271
104818,139873,8270,-0.088,-0.961,-0.097,0.305,0.366,0.183,174.278
104836,139809,19647,-0.09,-0.96,-0.096,0.427,0.305,0.366,174.281
104836,139915,8296,-0.099,-0.961,-0.103,0.427,0.305,0.366,174.287
104883,139809,19647,-0.097,-0.958,-0.106,0.122,0.427,0.549,174.291
104883,139917,8265,-0.095,-0.95,-0.111,0.122,0.427,0.549,174.297
104886,139809,19647,-0.094,-0.953,-0.11,0.122,0.122,0.488,174.301
104886,139932,8280,-0.095,-0.959,-0.106,0.122,0.122,0.488,174.307
104873,139809,19647,-0.099,-0.955,-0.109,0.244,0,0.366,174.311
104873,139938,8284,-0.102,-0.956,-0.111,0.244,0,0.366,174.317
104861,139809,19647,-0.102,-0.96,-0.097,0.488,-0.061,0.122,174.321
104861,139923,8277,-0.1,-0.95,-0.087,0.488,-0.061,0.122,174.327
104867,139809,19647,-0.094,-0.947,-0.097,0.671,-0.061,-0.183,174.331
104867,139904,8274,-0.097,-0.962,-0.099,0.671,-0.061,-0.183,174.337
104875,139809,19647,-0.103,-0.973,-0.088,-0.366,0.427,-0.061,174.341
104875,139925,8290,-0.101,-0.964,-0.094,-0.366,0.427,-0.061,174.347
104882,139809,19647,-0.101,-0.964,-0.094,-0.366,0.427,-0.061,174.351
104882,139921,8275,-0.099,-0.971,-0.088,-0.732,0.549,0,174.357
104873,139809,19647,-0.099,-0.971,-0.088,-0.732,0.549,0,174.36
104873,139949,8274,-0.092,-0.962,-0.104,-0.183,0.488,0.305,174.367
104886,139809,19647,-0.092,-0.962,-0.104,-0.183,0.488,0.305,174.37
104886,139934,8276,-0.109,-0.978,-0.109,-0.732,0.671,0.793,174.377
104857,139809,19647,-0.109,-0.978,-0.109,-0.732,0.671,0.793,174.38
104857,139911,8276,-0.109,-0.955,-0.102,-0.366,0.488,1.037,174.386
104839,139809,19647,-0.109,-0.955,-0.102,-0.366,0.488,1.037,174.39
104839,139921,8273,-0.102,-0.944,-0.1,0.61,-0.183,0.793,174.396
104815,139809,19647,-0.102,-0.944,-0.1,0.61,-0.183,0.793,174.4
104815,139874,8267,-0.106,-0.942,-0.082,0.915,-0.366,0.549,174.406
104772,139809,19647,-0.106,-0.942,-0.082,0.915,-0.366,0.549,174.41
104772,139834,8280,-0.09,-0.946,-0.088,0.61,-0.183,0.305,174.416
104767,139809,19647,-0.09,-0.946,-0.088,0.61,-0.183,0.305,174.42
104767,139880,8283,-0.094,-0.963,-0.101,-0.427,0.427,0.244,174.426
104777,139809,19647,-0.094,-0.963,-0.101,-0.427,0.427,0.244,174.43
104777,139851,8258,-0.111,-0.956,-0.109,-0.61,1.037,0.183,174.436
104779,139809,19647,-0.111,-0.956,-0.109,-0.61,1.037,0.183,174.44
104779,139868,8284,-0.092,-0.955,-0.104,-0.061,0.671,-0.061,174.446
104780,139809,19647,-0.092,-0.955,-0.104,-0.061,0.671,-0.061,174.45
104780,139866,8268,-0.094,-0.968,-0.108,0.183,-0.122,-0.183,174.456
104791,139809,19647,-0.094,-0.968,-0.108,0.183,-0.122,-0.183,174.459
104791,139858,8277,-0.104,-0.957,-0.093,-0.183,-0.061,0.183,174.466
104816,139809,19647,-0.104,-0.957,-0.093,-0.183,-0.061,0.183,174.469
104816,139878,8275,-0.094,-0.971,-0.109,-0.854,0.122,0.305,174.476
104825,139809,19647,-0.094,-0.971,-0.109,-0.854,0.122,0.305,174.479
104825,139878,8278,-0.104,-0.972,-0.101,-0.915,0.305,0.427,174.485
104847,139809,19647,-0.104,-0.972,-0.101,-0.915,0.305,0.427,174.489
104847,139894,8278,-0.103,-0.951,-0.1,-0.183,0.305,0.732,174.495
104831,139809,19647,-0.101,-0.94,-0.112,-0.183,0.305,0.732,174.499
104831,139891,8267,-0.099,-0.949,-0.112,-0.183,0.061,0.427,174.505
104801,139809,19647,-0.099,-0.954,-0.117,-0.183,0.061,0.427,174.509
104801,139897,8262,-0.103,-0.952,-0.118,-0.305,-0.183,0.488,174.515
104817,139809,19647,-0.107,-0.945,-0.113,-0.305,-0.183,0.488,174.519
104817,139890,8279,-0.106,-0.94,-0.115,-0.061,-0.61,-0.061,174.525
104788,139809,19647,-0.104,-0.943,-0.098,-0.061,-0.61,-0.061,174.529
104788,139870,8277,-0.097,-0.941,-0.082,0.427,-1.22,-0.549,174.535
104756,139809,19647,-0.089,-0.938,-0.087,0.427,-1.22,-0.549,174.539
104756,139842,8260,-0.094,-0.955,-0.095,-0.366,-0.915,-0.488,174.545
104731,139809,19647,-0.101,-0.974,-0.084,-0.366,-0.915,-0.488,174.549
104731,139836,8259,-0.102,-0.976,-0.07,-0.732,-0.061,-0.183,174.555
104703,139809,19647,-0.095,-0.972,-0.065,-0.732,-0.061,-0.183,174.558
104703,139834,8254,-0.09,-0.974,-0.082,-0.61,0.244,-0.122,174.565
104726,139809,19647,-0.091,-0.982,-0.085,-0.61,0.244,-0.122,174.568
104726,139836,8259,-0.091,-0.982,-0.098,-0.915,0.976,0.549,174.575
104721,139809,19647,-0.098,-0.978,-0.111,-0.915,0.976,0.549,174.578
104721,139843,8256,-0.103,-0.97,-0.114,-0.671,1.463,1.098,174.584
104748,139809,19647,-0.105,-0.957,-0.123,-0.671,1.463,1.098,174.588
104748,139869,8271,-0.101,-0.948,-0.134,0.122,0.61,1.159,174.594
104809,139809,19647,-0.097,-0.947,-0.124,0.122,0.61,1.159,174.598
104809,139876,8263,-0.1,-0.947,-0.11,0.793,-0.488,0.61,174.604
104837,139809,19647,-0.099,-0.936,-0.109,0.793,-0.488,0.61,174.608
104837,139939,8272,-0.099,-0.931,-0.105,0.671,-0.854,0.061,174.614
104857,139809,19647,-0.098,-0.938,-0.096,0.671,-0.854,0.061,174.618
104857,139929,8276,-0.093,-0.95,-0.082,0.488,-0.854,-0.244,174.624
104876,139809,19647,-0.091,-0.958,-0.071,0.488,-0.854,-0.244,174.628
104876,139947,8270,-0.092,-0.956,-0.066,-0.061,-0.366,0.061,174.634
104901,139809,19647,-0.092,-0.956,-0.075,-0.061,-0.366,0.061,174.638
104901,139977,8283,-0.093,-0.96,-0.104,-1.768,0.732,0.061,174.644
104923,139809,19647,-0.102,-0.985,-0.1,-1.768,0.732,0.061,174.648
104923,139970,8298,-0.105,-0.995,-0.082,-1.89,1.463,0.488,174.654
104971,139809,19647,-0.099,-0.984,-0.081,-1.89,1.463,0.488,174.657
104971,139985,8280,-0.093,-0.968,-0.102,-1.037,1.402,0.854,174.664
104974,139809,19647,-0.096,-0.966,-0.118,-1.037,1.402,0.854,174.667
104974,139988,8300,-0.104,-0.972,-0.105,0.122,1.28,0.915,174.674
104981,139809,19647,-0.109,-0.953,-0.11,0.122,1.28,0.915,174.677
104981,140015,8296,-0.11,-0.937,-0.12,1.098,0.976,0.976,174.683
104977,139809,19647,-0.104,-0.937,-0.12,1.098,0.976,0.976,174.687
104977,139996,8278,-0.098,-0.933,-0.126,1.098,0.183,0.427,174.693
104973,139809,19647,-0.095,-0.937,-0.126,1.098,0.183,0.427,174.697
104973,139991,8298,-0.095,-0.943,-0.119,0.854,-0.671,0.305,174.703
104959,139809,19647,-0.099,-0.946,-0.11,0.854,-0.671,0.305,174.707
104959,140001,8299,-0.1,-0.939,-0.103,0.183,-1.28,-0.061,174.713
104974,139809,19647,-0.106,-0.949,-0.098,0.183,-1.28,-0.061,174.717
104974,139988,8288,-0.099,-0.962,-0.074,0.061,-1.341,-0.549,174.723
104957,139809,19647,-0.095,-0.96,-0.066,0.061,-1.341,-0.549,174.727
104957,139989,8295,-0.097,-0.955,-0.07,-0.488,-0.61,-0.488,174.733
104994,139809,19647,-0.097,-0.967,-0.066,-0.488,-0.61,-0.488,174.737
104994,139980,8298,-0.098,-0.969,-0.082,-1.28,0.915,-0.305,174.743
104975,139809,19647,-0.099,-0.973,-0.102,-1.28,0.915,-0.305,174.747
104975,139989,8293,-0.102,-0.983,-0.097,-1.524,1.829,0.366,174.753
105014,139809,19647,-0.099,-0.984,-0.109,-1.524,1.829,0.366,174.756
105014,140012,8298,-0.099,-0.981,-0.112,-0.244,1.524,0.549,174.763
105036,140065,19647,-0.096,-0.967,-0.106,-0.244,1.524,0.549,174.766
105036,140061,8309,-0.097,-0.955,-0.11,1.037,0.732,0.549,174.772
105074,140065,19647,-0.099,-0.956,-0.105,1.037,0.732,0.549,174.776
105074,140075,8300,-0.101,-0.952,-0.101,1.22,0.305,0.61,174.782
105082,140065,19647,-0.101,-0.942,-0.098,1.22,0.305,0.61,174.786
105082,140096,8300,-0.1,-0.942,-0.095,0.671,0.122,0.488,174.792
105081,140065,19647,-0.099,-0.944,-0.097,0.671,0.122,0.488,174.796
105081,140071,8306,-0.098,-0.944,-0.094,0.122,0.061,0.122,174.802
105093,140065,19647,-0.094,-0.946,-0.096,0.122,0.061,0.122,174.806
105093,140097,8295,-0.098,-0.957,-0.084,-0.549,0.122,0.122,174.812
105088,140065,19647,-0.092,-0.96,-0.081,-0.549,0.122,0.122,174.816
105088,140090,8314,-0.09,-0.952,-0.106,-0.976,0.366,0.061,174.822
105113,140065,19647,-0.095,-0.958,-0.11,-0.976,0.366,0.061,174.826
105113,140075,8292,-0.102,-0.961,-0.101,-0.976,0.793,0.244,174.832
105094,140065,19647,-0.1,-0.958,-0.108,-0.976,0.793,0.244,174.836
105094,140091,8304,-0.098,-0.962,-0.108,-0.488,0.793,0,174.842
105111,140065,19647,-0.093,-0.968,-0.107,-0.488,0.793,0,174.845
105111,140085,8317,-0.094,-0.964,-0.116,-0.183,0.549,-0.061,174.852
105138,140065,19647,-0.095,-0.962,-0.112,-0.183,0.549,-0.061,174.855
105138,140125,8309,-0.104,-0.953,-0.103,0.671,0.305,0,174.862
105152,140065,19647,-0.108,-0.949,-0.089,0.671,0.305,0,174.865
105152,140129,8310,-0.099,-0.946,-0.084,0.732,-0.244,-0.183,174.871
105149,140065,19647,-0.092,-0.946,-0.096,0.732,-0.244,-0.183,174.875
105149,140134,8306,-0.094,-0.962,-0.093,-0.488,-0.061,-0.061,174.881
105136,140065,19647,-0.098,-0.971,-0.076,-0.488,-0.061,-0.061,174.885
105136,140119,8306,-0.099,-0.963,-0.092,-1.098,0.61,0.305,174.891
105138,140065,19647,-0.099,-0.965,-0.098,-1.098,0.61,0.305,174.895
105138,140098,8306,-0.1,-0.97,-0.095,-1.28,0.976,0.305,174.901
105119,140065,19647,-0.093,-0.97,-0.107,-1.28,0.976,0.305,174.905
105119,140118,8310,-0.092,-0.966,-0.112,-0.488,0.732,0.488,174.911
105128,140065,19647,-0.099,-0.964,-0.116,-0.488,0.732,0.488,174.915
105128,140101,8289,-0.102,-0.962,-0.117,0.122,0.305,0.732,174.921
105155,140065,19647,-0.101,-0.952,-0.121,0.122,0.305,0.732,174.925
105155,140129,8315,-0.101,-0.946,-0.116,0.854,-0.305,0.488,174.931
105169,140065,19647,-0.101,-0.946,-0.116,0.854,-0.305,0.488,174.935
105169,140162,8314,-0.097,-0.942,-0.099,1.463,-0.976,0.061,174.941
105213,140065,19647,-0.097,-0.942,-0.099,1.463,-0.976,0.061,174.945
105213,140159,8324,-0.093,-0.95,-0.083,1.098,-0.976,-0.061,174.951
105204,140065,19647,-0.093,-0.95,-0.083,1.098,-0.976,-0.061,174.954
105204,140160,8311,-0.099,-0.951,-0.085,-0.305,0,-0.183,174.961
105212,140065,19647,-0.099,-0.951,-0.085,-0.305,0,-0.183,174.964
105212,140161,8314,-0.099,-0.966,-0.067,-1.22,0.854,-0.305,174.97
105195,140065,19647,-0.099,-0.966,-0.067,-1.22,0.854,-0.305,174.974
105195,140164,8311,-0.092,-0.974,-0.1,-1.768,1.524,0.122,174.98
105162,140065,19647,-0.092,-0.974,-0.1,-1.768,1.524,0.122,174.984
105162,140131,8299,-0.106,-0.97,-0.096,-1.341,2.073,0.671,174.99
105128,140065,19647,-0.106,-0.97,-0.096,-1.341,2.073,0.671,174.994
105128,140100,8307,-0.093,-0.966,-0.12,-0.549,1.402,0.427,175
105082,140065,19647,-0.093,-0.966,-0.12,-0.549,1.402,0.427,175.004
105082,140094,8299,-0.094,-0.957,-0.111,-0.244,0.732,0.671,175.01
105094,140065,19647,-0.094,-0.957,-0.111,-0.244,0.732,0.671,175.014
105094,140055,8308,-0.104,-0.944,-0.115,-0.122,0.305,0.427,175.02
105097,140065,19647,-0.104,-0.944,-0.115,-0.122,0.305,0.427,175.024
105097,140093,8317,-0.091,-0.946,-0.096,0.488,-0.305,0.122,175.03
105115,140065,19647,-0.091,-0.946,-0.096,0.488,-0.305,0.122,175.034
105115,140107,8291,-0.094,-0.95,-0.095,-0.549,-0.183,-0.061,175.04
105093,140065,19647,-0.094,-0.95,-0.095,-0.549,-0.183,-0.061,175.044
105093,140097,8295,-0.098,-0.964,-0.087,-0.854,0,0,175.05
105118,140065,19647,-0.098,-0.964,-0.087,-0.854,0,0,175.053
105118,140099,8297,-0.092,-0.96,-0.083,-0.915,0.183,0.183,175.06
105101,140065,19647,-0.092,-0.96,-0.083,-0.915,0.183,0.183,175.063
105101,140099,8300,-0.1,-0.963,-0.082,-1.28,0.915,0.122,175.069
105096,140065,19647,-0.1,-0.963,-0.082,-1.28,0.915,0.122,175.073
105096,140091,8309,-0.1,-0.963,-0.073,-1.28,0.915,0.122,175.079
105092,140065,19647,-0.099,-0.956,-0.086,-1.28,1.341,0.244,175.083
105092,140108,8311,-0.097,-0.962,-0.099,-1.28,1.341,0.244,175.089
105084,140065,19647,-0.099,-0.966,-0.096,-1.28,1.585,0.427,175.093
105084,140085,8310,-0.098,-0.959,-0.106,-1.28,1.585,0.427,175.099
105092,140065,19647,-0.099,-0.956,-0.126,-0.61,1.646,0.366,175.103
105092,140066,8310,-0.102,-0.966,-0.126,-0.61,1.646,0.366,175.109
105090,140065,19647,-0.101,-0.971,-0.12,0.183,1.098,0.061,175.113
105090,140090,8306,-0.095,-0.966,-0.111,0.183,1.098,0.061,175.119
105118,140065,19647,-0.091,-0.957,-0.114,0.549,0.122,0.122,175.123
105118,140089,8316,-0.096,-0.954,-0.11,0.549,0.122,0.122,175.129
105103,140065,19647,-0.096,-0.961,-0.103,0.061,-0.061,0,175.133
105103,140118,8293,-0.097,-0.963,-0.105,0.061,-0.061,0,175.139
105086,140065,19647,-0.1,-0.964,-0.105,-0.671,0.244,0.244,175.143
105086,140099,8291,-0.103,-0.959,-0.097,-0.671,0.244,0.244,175.149
105063,140065,19647,-0.102,-0.956,-0.087,-0.366,0.183,0.305,175.152
105063,140077,8299,-0.097,-0.949,-0.086,-0.366,0.183,0.305,175.159
105037,140065,19647,-0.094,-0.943,-0.103,-0.366,0.244,0.244,175.162
105037,140060,8292,-0.1,-0.949,-0.112,-0.366,0.244,0.244,175.168
105053,140065,19647,-0.103,-0.953,-0.104,-0.976,0.671,0.366,175.172
105053,140082,8301,-0.108,-0.943,-0.115,-0.976,0.671,0.366,175.178
105085,140065,19647,-0.106,-0.955,-0.106,-0.854,0.244,0.183,175.182
105085,140107,8311,-0.096,-0.971,-0.091,-0.854,0.244,0.183,175.188
105075,140065,19647,-0.088,-0.962,-0.106,-0.549,-0.427,0.183,175.192
105075,140104,8316,-0.087,-0.962,-0.112,-0.549,-0.427,0.183,175.198
105043,140065,19647,-0.1,-0.966,-0.105,-0.793,-0.244,0.427,175.202
105043,140071,8288,-0.112,-0.961,-0.106,-0.793,-0.244,0.427,175.208
105057,140065,19647,-0.111,-0.955,-0.108,0,-0.244,0.244,175.212
105057,140033,8301,-0.1,-0.961,-0.096,0,-0.244,0.244,175.218
105027,139809,19647,-0.089,-0.964,-0.094,0.549,-0.793,-0.061,175.222
105027,140022,8298,-0.091,-0.955,-0.102,0.549,-0.793,-0.061,175.228
104973,139809,19647,-0.098,-0.95,-0.109,0,-0.549,-0.183,175.232
104973,140015,8297,-0.104,-0.949,-0.112,0,-0.549,-0.183,175.238
105006,139809,19647,-0.102,-0.958,-0.112,-0.122,-0.732,-0.061,175.242
105006,140014,8292,-0.097,-0.962,-0.105,-0.122,-0.732,-0.061,175.248
105027,140065,19647,-0.094,-0.955,-0.1,0.244,-1.341,0,175.251
105027,140035,8293,-0.093,-0.948,-0.106,0.244,-1.341,0,175.258
105084,140065,19647,-0.094,-0.959,-0.112,-0.244,-1.28,-0.244,175.261
105084,140095,8305,-0.094,-0.974,-0.102,-0.244,-1.28,-0.244,175.267
105101,140065,19647,-0.097,-0.976,-0.09,-0.183,-1.159,0.061,175.271
105101,140100,8303,-0.094,-0.969,-0.091,-0.183,-1.159,0.061,175.277
105166,140065,19647,-0.097,-0.959,-0.095,0.122,-0.976,0.244,175.281
105166,140171,8322,-0.101,-0.951,-0.101,0.122,-0.976,0.244,175.287
105205,140065,19647,-0.099,-0.947,-0.107,0.549,-0.732,0.122,175.291
105205,140213,8308,-0.098,-0.962,-0.098,0.549,-0.732,0.122,175.297
105242,140065,19647,-0.095,-0.956,-0.084,0.732,-0.671,0.061,175.301
105242,140221,8314,-0.094,-0.948,-0.086,0.732,-0.671,0.061,175.307
105284,140065,19647,-0.094,-0.951,-0.074,-0.366,-0.305,0,175.311
105284,140260,8322,-0.094,-0.95,-0.073,-0.366,-0.305,0,175.317
105317,140065,19647,-0.092,-0.952,-0.078,-1.098,0.305,-0.122,175.321
105317,140264,8329,-0.089,-0.958,-0.081,-1.098,0.305,-0.122,175.327
105315,140065,19647,-0.093,-0.954,-0.091,-1.463,0.915,0.366,175.331
105315,140280,8328,-0.1,-0.947,-0.104,-1.463,0.915,0.366,175.337
105320,140065,19647,-0.101,-0.956,-0.108,-1.768,1.22,0.305,175.341
105320,140284,8337,-0.096,-0.973,-0.105,-1.768,1.22,0.305,175.347
105268,140065,19647,-0.088,-0.979,-0.111,-1.037,0.854,0,175.35
105268,140251,8329,-0.087,-0.976,-0.12,-1.037,0.854,0,175.357
105253,140065,19647,-0.09,-0.975,-0.115,0.061,0.427,0.366,175.36
105253,140241,8316,-0.094,-0.971,-0.108,0.061,0.427,0.366,175.367
105207,140065,19647,-0.093,-0.962,-0.104,1.098,-0.183,0.549,175.37
105207,140195,8328,-0.089,-0.958,-0.102,1.098,-0.183,0.549,175.376
105181,140065,19647,-0.092,-0.957,-0.09,0.854,-0.305,0.61,175.38
105181,140183,8331,-0.093,-0.956,-0.077,0.854,-0.305,0.61,175.386
105198,140065,19647,-0.092,-0.95,-0.08,0.427,0.122,0.732,175.39
105198,140171,8301,-0.09,-0.949,-0.083,0.427,0.122,0.732,175.396
105182,140065,19647,-0.097,-0.952,-0.08,0.244,1.037,0.671,175.4
105182,140187,8330,-0.098,-0.941,-0.087,0.244,1.037,0.671,175.406
105201,140065,19647,-0.099,-0.929,-0.102,-0.183,1.585,0.61,175.41
105201,140186,8324,-0.099,-0.943,-0.116,-0.183,1.585,0.61,175.416
105167,140065,19647,-0.103,-0.953,-0.122,-0.915,1.951,0.244,175.42
105167,140173,8321,-0.104,-0.956,-0.123,-0.915,1.951,0.244,175.426
105155,140065,19647,-0.098,-0.96,-0.12,-0.854,1.341,-0.122,175.43
105155,140158,8310,-0.096,-0.961,-0.123,-0.854,1.341,-0.122,175.436
105155,140065,19647,-0.095,-0.959,-0.123,-0.122,0.183,-0.366,175.439
105155,140132,8315,-0.097,-0.967,-0.101,-0.122,0.183,-0.366,175.446
105140,140065,19647,-0.096,-0.967,-0.085,0.366,-0.61,-0.244,175.449
105140,140156,8329,-0.092,-0.963,-0.083,0.366,-0.61,-0.244,175.456
105147,140065,19647,-0.093,-0.967,-0.084,-0.427,-0.427,0,175.459
105147,140153,8316,-0.095,-0.976,-0.089,-0.427,-0.427,0,175.465
105141,140065,19647,-0.101,-0.976,-0.088,-0.671,0.488,0.488,175.469
105141,140127,8324,-0.106,-0.969,-0.095,-0.671,0.488,0.488,175.475
105130,140065,19647,-0.109,-0.957,-0.101,-0.244,0.915,0.793,175.479
105130,140129,8325,-0.109,-0.949,-0.098,-0.244,0.915,0.793,175.485
105175,140065,19647,-0.1,-0.952,-0.099,-0.122,0.671,0.549,175.489
105175,140164,8326,-0.097,-0.95,-0.098,-0.122,0.671,0.549,175.495
105168,140065,19647,-0.099,-0.948,-0.093,-0.732,0.671,0.427,175.499
105168,140167,8327,-0.102,-0.938,-0.104,-0.732,0.671,0.427,175.505
105217,140065,19647,-0.102,-0.945,-0.106,-1.402,0.671,0.366,175.509
105217,140202,8312,-0.095,-0.965,-0.102,-1.402,0.671,0.366,175.515
105214,140065,19647,-0.088,-0.971,-0.108,-1.037,0.488,0.183,175.519
105214,140191,8326,-0.089,-0.97,-0.114,-1.037,0.488,0.183,175.525
105227,140065,19647,-0.089,-0.97,-0.114,-1.037,0.488,0.183,175.529
105227,140220,8323,-0.095,-0.968,-0.102,-0.671,0.366,0.427,175.535
105260,140065,19647,-0.095,-0.968,-0.102,-0.671,0.366,0.427,175.538
105260,140229,8319,-0.096,-0.964,-0.115,-0.488,0.366,0.61,175.545
105273,140065,19647,-0.096,-0.964,-0.115,-0.488,0.366,0.61,175.548
105273,140245,8313,-0.101,-0.95,-0.106,0.122,0.061,0.732,175.555
105307,140065,19647,-0.101,-0.95,-0.106,0.122,0.061,0.732,175.558
105307,140245,8315,-0.099,-0.948,-0.076,0.305,-0.183,0.61,175.564
105326,140065,19647,-0.099,-0.948,-0.076,0.305,-0.183,0.61,175.568
105326,140277,8352,-0.093,-0.944,-0.094,-0.122,-0.305,0,175.574
105331,140321,19647,-0.093,-0.944,-0.094,-0.122,-0.305,0,175.578
105331,140293,8351,-0.102,-0.956,-0.092,-1.22,0.488,0.244,175.584
105371,140321,19647,-0.102,-0.956,-0.092,-1.22,0.488,0.244,175.588
105371,140293,8321,-0.093,-0.948,-0.084,-1.037,0.793,0.183,175.594
105353,140065,19647,-0.093,-0.948,-0.084,-1.037,0.793,0.183,175.598
105353,140280,8335,-0.088,-0.969,-0.107,-1.341,0.793,-0.122,175.604
105345,140065,19647,-0.088,-0.969,-0.107,-1.341,0.793,-0.122,175.608
105345,140286,8345,-0.099,-0.98,-0.094,-2.378,1.098,0.488,175.614
105357,140321,19647,-0.099,-0.98,-0.094,-2.378,1.098,0.488,175.618
105357,140290,8337,-0.09,-0.973,-0.115,-2.256,1.22,0.854,175.624
105346,140065,19647,-0.09,-0.973,-0.115,-2.256,1.22,0.854,175.628
105346,140272,8339,-0.101,-0.963,-0.127,-1.402,1.037,0.915,175.634
105363,140321,19647,-0.101,-0.963,-0.127,-1.402,1.037,0.915,175.638
105363,140300,8333,-0.101,-0.948,-0.127,-0.183,0.671,1.402,175.644
105381,140321,19647,-0.101,-0.948,-0.127,-0.183,0.671,1.402,175.647
105381,140303,8345,-0.098,-0.939,-0.114,0.976,-0.061,1.037,175.654
105370,140321,19647,-0.098,-0.939,-0.114,0.976,-0.061,1.037,175.657
105370,140313,8328,-0.102,-0.929,-0.091,1.463,-0.854,0.488,175.663
105366,140321,19647,-0.102,-0.929,-0.091,1.463,-0.854,0.488,175.667
105366,140297,8329,-0.1,-0.94,-0.069,1.159,-0.732,0.061,175.673
105331,140065,19647,-0.094,-0.939,-0.063,1.159,-0.732,0.061,175.677
105331,140255,8338,-0.089,-0.941,-0.087,-0.061,0.122,-0.488,175.683
105323,140065,19647,-0.094,-0.962,-0.083,-0.061,0.122,-0.488,175.687
105323,140271,8328,-0.097,-0.977,-0.078,-1.402,1.22,-0.305,175.693
105377,140321,19647,-0.094,-0.972,-0.096,-1.402,1.22,-0.305,175.697
105377,140302,8344,-0.094,-0.976,-0.104,-1.951,1.768,0.122,175.703
105359,140065,19647,-0.091,-0.985,-0.117,-1.951,1.768,0.122,175.707
105359,140285,8336,-0.093,-0.984,-0.124,-1.098,1.585,0.61,175.713
105335,140065,19647,-0.097,-0.973,-0.124,-1.098,1.585,0.61,175.717
105335,140263,8333,-0.103,-0.967,-0.125,-0.427,1.037,0.976,175.723
105325,140065,19647,-0.106,-0.957,-0.126,-0.427,1.037,0.976,175.727
105325,140280,8335,-0.101,-0.956,-0.123,0.488,-0.244,0.732,175.733
105336,140065,19647,-0.098,-0.954,-0.119,0.488,-0.244,0.732,175.736
105336,140256,8342,-0.099,-0.947,-0.107,1.159,-1.098,0.793,175.743
105317,140065,19647,-0.105,-0.943,-0.098,1.159,-1.098,0.793,175.746
105317,140272,8322,-0.104,-0.942,-0.081,1.28,-0.854,0.488,175.753
105327,140321,19647,-0.098,-0.941,-0.069,1.28,-0.854,0.488,175.756
105327,140290,8321,-0.093,-0.941,-0.079,0.671,-0.488,0.183,175.762
105331,140321,19647,-0.096,-0.949,-0.094,0.671,-0.488,0.183,175.766
105331,140289,8329,-0.103,-0.961,-0.089,-0.732,0.671,0.183,175.772
105323,140065,19647,-0.102,-0.961,-0.082,-0.732,0.671,0.183,175.776
105323,140263,8326,-0.096,-0.956,-0.095,-1.037,0.915,0.244,175.782
105315,140321,19647,-0.093,-0.958,-0.104,-1.037,0.915,0.244,175.786
105315,140295,8321,-0.094,-0.965,-0.108,-1.28,0.976,0.183,175.792
105341,140321,19647,-0.101,-0.966,-0.116,-1.28,0.976,0.183,175.796
105341,140306,8342,-0.104,-0.968,-0.103,-0.976,1.098,0.244,175.802
105370,140321,19647,-0.096,-0.964,-0.096,-0.976,1.098,0.244,175.806
105370,140312,8316,-0.086,-0.964,-0.102,0.122,0.488,-0.122,175.812
105390,140321,19647,-0.084,-0.968,-0.107,0.122,0.488,-0.122,175.816
105390,140302,8316,-0.096,-0.967,-0.112,0.488,0.366,0.305,175.822
105386,140321,19647,-0.106,-0.964,-0.107,0.488,0.366,0.305,175.826
105386,140320,8335,-0.101,-0.958,-0.103,1.159,0.244,0.427,175.832
105420,140321,19647,-0.094,-0.953,-0.107,1.159,0.244,0.427,175.836
105420,140322,8336,-0.092,-0.953,-0.106,1.524,-0.305,0.183,175.842
105403,140321,19647,-0.092,-0.95,-0.105,1.524,-0.305,0.183,175.845
105403,140311,8343,-0.091,-0.951,-0.106,1.098,-0.366,0.244,175.852
105390,140321,19647,-0.099,-0.945,-0.106,1.098,-0.366,0.244,175.855
105390,140300,8341,-0.102,-0.938,-0.1,0.183,-0.244,0.122,175.861
105378,140321,19647,-0.101,-0.945,-0.09,0.183,-0.244,0.122,175.865
105378,140301,8334,-0.095,-0.949,-0.079,-0.488,-0.122,-0.366,175.871
105367,140321,19647,-0.089,-0.951,-0.086,-0.488,-0.122,-0.366,175.875
105367,140304,8342,-0.089,-0.961,-0.088,-1.585,0.488,-0.427,175.881
105376,140321,19647,-0.092,-0.974,-0.092,-1.585,0.488,-0.427,175.885
105376,140308,8319,-0.093,-0.975,-0.098,-1.951,1.159,0.244,175.891
105369,140321,19647,-0.099,-0.97,-0.113,-1.951,1.159,0.244,175.895
105369,140311,8348,-0.101,-0.972,-0.111,-1.463,1.463,0.549,175.901
105412,140321,19647,-0.1,-0.976,-0.111,-1.463,1.463,0.549,175.905
105412,140324,8331,-0.096,-0.965,-0.12,0,0.793,0.488,175.911
105426,140321,19647,-0.098,-0.957,-0.121,0,0.793,0.488,175.915
105426,140371,8331,-0.099,-0.957,-0.12,0.427,0.305,0.671,175.921
105414,140321,19647,-0.103,-0.956,-0.112,0.427,0.305,0.671,175.925
105414,140344,8353,-0.103,-0.952,-0.102,0.732,-0.244,0.61,175.931
105405,140321,19647,-0.098,-0.943,-0.093,0.732,-0.244,0.61,175.934
105405,140335,8337,-0.097,-0.936,-0.097,0.915,-0.61,0.244,175.941
105418,140321,19647,-0.098,-0.936,-0.093,0.915,-0.61,0.244,175.944
105418,140330,8337,-0.099,-0.936,-0.093,0.549,-0.305,-0.061,175.951
105410,140321,19647,-0.099,-0.944,-0.092,0.549,-0.305,-0.061,175.954
105410,140341,8356,-0.094,-0.954,-0.092,-0.244,0.061,-0.488,175.96
105406,140321,19647,-0.091,-0.962,-0.081,-0.244,0.061,-0.488,175.964
105406,140342,8340,-0.09,-0.966,-0.083,-0.732,0.366,-0.549,175.97
105365,140321,19647,-0.091,-0.969,-0.09,-0.732,0.366,-0.549,175.974
105365,140325,8333,-0.092,-0.974,-0.094,-0.732,0.671,-0.366,175.98
105365,140321,19647,-0.094,-0.976,-0.097,-0.732,0.671,-0.366,175.984
105365,140308,8347,-0.09,-0.973,-0.102,-1.28,1.22,0.061,175.99
105394,140321,19647,-0.091,-0.975,-0.116,-1.28,1.22,0.061,175.994
105394,140333,8346,-0.099,-0.983,-0.126,-1.829,1.463,0.366,176
105412,140321,19647,-0.102,-0.985,-0.129,-1.829,1.463,0.366,176.004
105412,140307,8351,-0.103,-0.975,-0.118,-0.427,0.61,0.915,176.01
105380,140321,19647,-0.097,-0.954,-0.113,-0.427,0.61,0.915,176.014
105380,140306,8347,-0.095,-0.943,-0.123,0.976,-0.549,0.915,176.02
105348,140065,19647,-0.103,-0.937,-0.124,0.976,-0.549,0.915,176.024
105348,140282,8340,-0.107,-0.932,-0.115,1.159,-0.915,0.732,176.03
105332,140321,19647,-0.107,-0.931,-0.102,1.159,-0.915,0.732,176.033
105332,140289,8323,-0.099,-0.938,-0.08,0.671,-1.463,0.244,176.04
105359,140321,19647,-0.09,-0.946,-0.058,0.671,-1.463,0.244,176.043
105359,140308,8342,-0.085,-0.951,-0.038,-0.183,-1.524,-0.061,176.05
105345,140321,19647,-0.084,-0.948,-0.045,-0.183,-1.524,-0.061,176.053
105345,140312,8340,-0.09,-0.963,-0.065,-2.073,0.549,0.305,176.059
105362,140321,19647,-0.096,-0.982,-0.078,-2.073,0.549,0.305,176.063
105362,140295,8338,-0.099,-0.975,-0.101,-2.561,2.5,0.793,176.069
105367,140321,19647,-0.106,-0.969,-0.113,-2.561,2.5,0.793,176.073
105367,140317,8347,-0.103,-0.972,-0.122,-1.28,2.378,0.793,176.079
105369,140321,19647,-0.094,-0.961,-0.137,-1.28,2.378,0.793,176.083
105369,140340,8333,-0.093,-0.951,-0.156,-0.366,1.159,0.793,176.089
105361,140321,19647,-0.101,-0.957,-0.158,-0.366,1.159,0.793,176.093
105361,140314,8326,-0.104,-0.961,-0.141,0,0.122,0.732,176.099
105361,140321,19647,-0.096,-0.958,-0.12,0,0.122,0.732,176.103
105361,140314,8341,-0.086,-0.943,-0.115,1.037,-1.28,0.183,176.109
105383,140321,19647,-0.086,-0.943,-0.115,1.037,-1.28,0.183,176.113
105383,140305,8336,-0.097,-0.943,-0.101,1.22,-1.585,-0.122,176.119
105373,140321,19647,-0.097,-0.943,-0.101,1.22,-1.585,-0.122,176.123
105373,140300,8335,-0.1,-0.943,-0.071,0.671,-1.341,0,176.129
105362,140321,19647,-0.1,-0.943,-0.071,0.671,-1.341,0,176.132
105362,140300,8338,-0.091,-0.959,-0.068,-0.122,-0.549,-0.305,176.139
105334,140321,19647,-0.091,-0.959,-0.068,-0.122,-0.549,-0.305,176.142
105334,140317,8357,-0.102,-0.972,-0.079,-1.159,0.854,0,176.149
105363,140321,19647,-0.102,-0.972,-0.079,-1.159,0.854,0,176.152
105363,140311,8341,-0.106,-0.971,-0.091,-1.707,1.829,0.366,176.158
105343,140321,19647,-0.106,-0.971,-0.091,-1.707,1.829,0.366,176.162
105343,140302,8347,-0.103,-0.98,-0.129,-1.28,1.89,0.549,176.168
105346,140065,19647,-0.103,-0.98,-0.129,-1.28,1.89,0.549,176.172
105346,140287,8329,-0.101,-0.968,-0.125,0.366,0.976,0.976,176.178
