101012,138529,19647,-0.113,-0.973,0.008,-1.037,0.976,0.427,82.561
101012,138589,7812,-0.118,-0.969,0.006,-1.037,0.976,0.427,82.567
101009,138529,19647,-0.12,-0.958,-0.002,-0.915,1.098,0.488,82.571
101009,138583,7795,-0.12,-0.952,-0.005,-0.915,1.098,0.488,82.577
100996,138529,19647,-0.112,-0.958,0.005,0.183,0.488,0.305,82.581
100996,138587,7809,-0.102,-0.971,0.006,0.183,0.488,0.305,82.587
101017,138529,19647,-0.101,-0.973,0,0.122,-0.122,0.549,82.591
101017,138564,7794,-0.107,-0.976,0.007,0.122,-0.122,0.549,82.597
100988,138529,19647,-0.116,-0.979,0.009,-0.915,0.549,1.037,82.601
100988,138580,7800,-0.116,-0.973,0.001,-0.915,0.549,1.037,82.607
101009,138529,19647,-0.117,-0.961,0.001,-0.488,0.671,0.854,82.61
101009,138570,7777,-0.119,-0.957,0.009,-0.488,0.671,0.854,82.617
101009,138529,19647,-0.115,-0.955,0.015,0.732,0.366,0.793,82.62
101009,138575,7798,-0.114,-0.948,0.014,0.732,0.366,0.793,82.626
101016,138529,19647,-0.113,-0.958,0.017,0.549,0.488,0.427,82.63
101016,138571,7800,-0.116,-0.962,0.004,0.549,0.488,0.427,82.636
101018,138529,19647,-0.119,-0.957,0.001,0.244,0.732,0.366,82.64
101018,138568,7806,-0.12,-0.948,0.001,0.244,0.732,0.366,82.646
101021,138529,19647,-0.119,-0.949,-0.005,-0.061,0.976,0.122,82.65
101021,138543,7794,-0.119,-0.954,-0.005,-0.061,0.976,0.122,82.656
100996,138529,19647,-0.12,-0.962,-0.003,-0.244,0.793,-0.183,82.66
100996,138575,7790,-0.117,-0.969,-0.009,-0.244,0.793,-0.183,82.666
101032,138529,19647,-0.115,-0.972,-0.008,-0.488,0.427,0.122,82.67
101032,138554,7773,-0.118,-0.973,-0.007,-0.488,0.427,0.122,82.676
101007,138529,19647,-0.121,-0.976,-0.005,-0.305,0.305,0.244,82.68
101007,138550,7797,-0.122,-0.973,-0.002,-0.305,0.305,0.244,82.686
101004,138529,19647,-0.12,-0.97,-0.001,0,0.122,0.305,82.69
101004,138562,7789,-0.12,-0.966,0.003,0,0.122,0.305,82.696
101010,138529,19647,-0.118,-0.96,0.001,0.122,0,0.244,82.7
101010,138566,7780,-0.116,-0.964,0.001,0.122,0,0.244,82.706
101019,138529,19647,-0.119,-0.963,0.005,-0.122,0.061,0.488,82.709
101019,138589,7794,-0.118,-0.96,0.013,-0.122,0.061,0.488,82.716
101006,138529,19647,-0.116,-0.96,0.009,-0.244,0.061,0.61,82.719
101006,138576,7796,-0.116,-0.961,0.013,-0.244,0.061,0.61,82.726
101017,138529,19647,-0.116,-0.96,0.018,-0.122,0.122,0.366,82.729
101017,138578,7797,-0.113,-0.96,0.018,-0.122,0.122,0.366,82.735
101020,138529,19647,-0.119,-0.955,0.016,0.122,0.427,0.244,82.739
101020,138594,7790,-0.114,-0.958,0.016,0.122,0.427,0.244,82.745
101026,138529,19647,-0.113,-0.962,0.021,-0.427,0.854,0,82.749
101026,138596,7792,-0.115,-0.966,0.017,-0.427,0.854,0,82.755
101037,138529,19647,-0.113,-0.964,0.012,-0.854,0.976,0.183,82.759
101037,138586,7794,-0.113,-0.965,-0.002,-0.854,0.976,0.183,82.765
101019,138529,19647,-0.117,-0.968,-0.007,-0.793,0.854,0.427,82.769
101019,138608,7819,-0.121,-0.969,-0.011,-0.793,0.854,0.427,82.775
101034,138529,19647,-0.119,-0.97,-0.009,0.244,0.671,0.427,82.779
101034,138598,7785,-0.115,-0.967,-0.011,0.244,0.671,0.427,82.785
101006,138529,19647,-0.114,-0.962,-0.007,0.793,0,0.183,82.789
101006,138580,7802,-0.111,-0.962,-0.003,0.793,0,0.183,82.795
101025,138529,19647,-0.113,-0.963,-0.004,0.61,-0.244,0.061,82.799
101025,138589,7792,-0.113,-0.97,0.007,0.61,-0.244,0.061,82.805
101021,138529,19647,-0.112,-0.971,0.005,-0.122,-0.061,0.122,82.808
101021,138592,7783,-0.115,-0.967,0,-0.122,-0.061,0.122,82.815
101004,138529,19647,-0.115,-0.963,0.005,0.061,0,0.305,82.818
101004,138594,7800,-0.117,-0.958,0.002,0.061,0,0.305,82.824
101028,138529,19647,-0.119,-0.958,0.003,0.305,-0.061,0.427,82.828
101028,138593,7789,-0.117,-0.96,0.009,0.305,-0.061,0.427,82.834
101026,138529,19647,-0.115,-0.967,0.015,0.183,-0.061,0.427,82.838
101026,138604,7795,-0.112,-0.97,0.014,0.183,-0.061,0.427,82.844
101029,138529,19647,-0.116,-0.971,0.009,-0.122,0.244,0.61,82.848
101029,138599,7807,-0.121,-0.965,0.011,-0.122,0.244,0.61,82.854
101042,138529,19647,-0.122,-0.964,0.013,-0.122,0.427,0.61,82.858
101042,138608,7799,-0.119,-0.969,0.013,-0.122,0.427,0.61,82.864
101037,138529,19647,-0.119,-0.969,0.015,-0.244,0.427,0.549,82.868
101037,138622,7810,-0.119,-0.966,0.007,-0.244,0.427,0.549,82.874
101039,138529,19647,-0.119,-0.964,-0.001,-0.183,0.427,0.793,82.878
101039,138600,7802,-0.12,-0.961,0.001,-0.183,0.427,0.793,82.884
101041,138529,19647,-0.119,-0.963,0.007,-0.122,0.305,0.854,82.888
101041,138623,7804,-0.114,-0.964,0.012,-0.122,0.305,0.854,82.894
101053,138529,19647,-0.113,-0.961,0.013,-0.122,0.244,0.793,82.897
101053,138617,7804,-0.114,-0.962,0.009,-0.122,0.244,0.793,82.904
101042,138529,19647,-0.11,-0.962,0.006,-0.854,0.549,0.854,82.907
101042,138606,7802,-0.111,-0.964,-0.007,-0.854,0.549,0.854,82.914
101036,138529,19647,-0.116,-0.966,-0.012,-0.976,0.793,0.976,82.917
101036,138608,7803,-0.113,-0.966,-0.003,-0.976,0.793,0.976,82.923
101052,138529,19647,-0.113,-0.96,-0.006,-0.122,0.366,0.915,82.927
101052,138613,7794,-0.118,-0.956,-0.003,-0.122,0.366,0.915,82.933
101021,138529,19647,-0.114,-0.955,0.004,0.366,-0.122,0.671,82.937
101021,138626,7807,-0.116,-0.954,0.011,0.366,-0.122,0.671,82.943
101045,138529,19647,-0.116,-0.954,0.011,0.366,-0.122,0.671,82.947
101045,138603,7802,-0.111,-0.955,0.012,0,-0.183,0.549,82.953
101013,138529,19647,-0.111,-0.955,0.012,0,-0.183,0.549,82.957
101013,138622,7799,-0.116,-0.973,0.008,-1.037,0.305,0.671,82.963
101007,138529,19647,-0.116,-0.973,0.008,-1.037,0.305,0.671,82.967
101007,138611,7802,-0.118,-0.968,0.009,-1.341,0.732,0.976,82.973
101009,138529,19647,-0.118,-0.968,0.009,-1.341,0.732,0.976,82.977
101009,138606,7795,-0.116,-0.966,0.01,-0.915,0.671,1.037,82.983
101010,138529,19647,-0.116,-0.966,0.01,-0.915,0.671,1.037,82.987
101010,138610,7808,-0.117,-0.971,-0.003,-0.854,0.61,0.976,82.993
100997,138529,19647,-0.117,-0.971,-0.003,-0.854,0.61,0.976,82.997
100997,138591,7793,-0.123,-0.961,-0.004,-0.793,0.793,1.28,83.003
100978,138529,19647,-0.123,-0.961,-0.004,-0.793,0.793,1.28,83.006
100978,138598,7797,-0.12,-0.957,0.003,-0.244,0.488,1.098,83.013
100978,138529,19647,-0.12,-0.957,0.003,-0.244,0.488,1.098,83.016
100978,138594,7798,-0.116,-0.948,-0.004,0.244,0.244,0.61,83.022
100977,138529,19647,-0.116,-0.948,-0.004,0.244,0.244,0.61,83.026
100977,138563,7796,-0.112,-0.957,0.003,0.061,0.366,0.427,83.032
100992,138529,19647,-0.112,-0.957,0.003,0.061,0.366,0.427,83.036
100992,138584,7797,-0.114,-0.97,0.018,-0.061,0.488,0.244,83.042
100988,138529,19647,-0.114,-0.97,0.018,-0.061,0.488,0.244,83.046
100988,138600,7790,-0.113,-0.975,0.011,0,0.61,0.183,83.052
100985,138529,19647,-0.113,-0.975,0.011,0,0.61,0.183,83.056
100985,138606,7793,-0.115,-0.969,0.004,0.061,0.671,0.427,83.062
100982,138529,19647,-0.115,-0.969,0.004,0.061,0.671,0.427,83.066
100982,138582,7797,-0.12,-0.969,-0,0,0.976,0.671,83.072
101006,138529,19647,-0.12,-0.969,-0,0,0.976,0.671,83.076
101006,138602,7794,-0.12,-0.964,0.002,-0.244,1.098,0.732,83.082
100999,138529,19647,-0.12,-0.964,0.002,-0.244,1.098,0.732,83.086
100999,138598,7798,-0.118,-0.96,-0.003,-0.366,0.793,0.793,83.092
100988,138529,19647,-0.117,-0.96,-0.005,-0.366,0.793,0.793,83.096
100988,138573,7800,-0.117,-0.959,-0.001,-0.305,0.732,0.732,83.102
100986,138529,19647,-0.116,-0.956,0.007,-0.305,0.732,0.732,83.105
100986,138581,7796,-0.116,-0.952,0.005,0.061,0.61,0.549,83.112
100948,138529,19647,-0.113,-0.953,0.006,0.061,0.61,0.549,83.115
100948,138573,7799,-0.113,-0.953,-0.002,-0.427,0.549,0.366,83.121
100961,138529,19647,-0.116,-0.958,0.001,-0.427,0.549,0.366,83.125
100961,138589,7799,-0.119,-0.967,0.006,-0.793,0.671,0.366,83.131
100960,138529,19647,-0.116,-0.971,0.01,-0.793,0.671,0.366,83.135
100960,138575,7798,-0.114,-0.968,0.003,-0.732,0.671,0.427,83.141
100965,138529,19647,-0.114,-0.969,0.006,-0.732,0.671,0.427,83.145
100965,138565,7801,-0.119,-0.973,0.008,-0.671,0.854,0.549,83.151
100965,138529,19647,-0.122,-0.975,-0,-0.671,0.854,0.549,83.155
100965,138551,7794,-0.129,-0.968,0,-0.366,0.854,0.854,83.161
100958,138529,19647,-0.124,-0.963,-0.001,-0.366,0.854,0.854,83.165
100958,138562,7807,-0.118,-0.967,0.004,-0.366,0.549,0.915,83.171
100959,138529,19647,-0.114,-0.972,0.008,-0.366,0.549,0.915,83.175
100959,138551,7798,-0.119,-0.969,0.003,-0.305,0.549,0.976,83.181
100958,138529,19647,-0.121,-0.963,0.006,-0.305,0.549,0.976,83.185
100958,138566,7785,-0.122,-0.963,0.005,-0.366,0.732,1.037,83.191
100962,138529,19647,-0.12,-0.956,0.006,-0.366,0.732,1.037,83.195
100962,138559,7794,-0.116,-0.96,0.005,-0.427,0.671,0.976,83.201
100953,138529,19647,-0.116,-0.966,-0.003,-0.427,0.671,0.976,83.204
100953,138578,7801,-0.12,-0.966,-0.002,-0.488,0.793,0.976,83.211
100986,138529,19647,-0.122,-0.961,-0.004,-0.488,0.793,0.976,83.214
100986,138558,7784,-0.117,-0.957,-0.006,-0.122,0.671,0.854,83.22
100977,138529,19647,-0.115,-0.955,-0.006,-0.122,0.671,0.854,83.224
100977,138578,7800,-0.114,-0.953,0.005,0.061,0.366,0.549,83.23
100971,138529,19647,-0.116,-0.957,0.007,0.061,0.366,0.549,83.234
100971,138567,7797,-0.117,-0.957,0.004,-0.427,0.488,0.366,83.24
100980,138529,19647,-0.118,-0.961,0.004,-0.427,0.488,0.366,83.244
100980,138572,7785,-0.117,-0.965,0.005,-0.671,0.61,0.488,83.25
100988,138529,19647,-0.118,-0.96,0.007,-0.671,0.61,0.488,83.254
100988,138595,7807,-0.117,-0.96,0.007,-0.732,0.488,0.427,83.26
100997,138529,19647,-0.118,-0.969,0.002,-0.732,0.488,0.427,83.264
100997,138588,7793,-0.118,-0.973,0.001,-1.098,0.488,0.549,83.27
100985,138529,19647,-0.119,-0.972,0.008,-1.098,0.488,0.549,83.274
100985,138598,7800,-0.118,-0.97,0.009,-0.976,0.671,0.671,83.28
100999,138529,19647,-0.118,-0.962,0.003,-0.976,0.671,0.671,83.284
100999,138577,7797,-0.119,-0.964,-0.001,-0.976,0.732,0.61,83.29
100973,138529,19647,-0.123,-0.968,-0.005,-0.976,0.732,0.61,83.294
100973,138610,7798,-0.121,-0.966,0.005,-0.488,0.854,0.732,83.3
100989,138529,19647,-0.122,-0.964,0.005,-0.488,0.854,0.732,83.303
100989,138594,7801,-0.118,-0.955,0.001,-0.061,0.732,0.61,83.31
100998,138529,19647,-0.12,-0.955,0.004,-0.061,0.732,0.61,83.313
100998,138580,7799,-0.119,-0.961,0.007,-0.305,0.671,0.366,83.319
100978,138529,19647,-0.12,-0.957,0.001,-0.305,0.671,0.366,83.323
100978,138591,7800,-0.123,-0.958,-0.005,-0.671,0.793,0.488,83.329
100998,138529,19647,-0.119,-0.964,-0.003,-0.671,0.793,0.488,83.333
100998,138603,7808,-0.117,-0.967,-0.006,-0.732,0.671,0.366,83.339
101013,138529,19647,-0.12,-0.967,0.003,-0.732,0.671,0.366,83.343
101013,138610,7797,-0.117,-0.96,0.005,-0.366,0.305,0.488,83.349
101009,138529,19647,-0.116,-0.963,0.01,-0.366,0.305,0.488,83.353
101009,138603,7797,-0.118,-0.973,0.012,-0.793,0.305,0.61,83.359
100986,138529,19647,-0.116,-0.978,0.013,-0.793,0.305,0.61,83.363
100986,138613,7808,-0.118,-0.983,0.01,-1.341,0.549,0.976,83.369
100995,138529,19647,-0.119,-0.98,0.008,-1.341,0.549,0.976,83.373
100995,138596,7805,-0.123,-0.97,0.008,-0.671,0.915,1.037,83.379
101017,138529,19647,-0.125,-0.962,0.006,-0.671,0.915,1.037,83.383
101017,138595,7802,-0.121,-0.958,-0.002,0.061,0.793,0.976,83.389
100988,138529,19647,-0.119,-0.958,-0,0.061,0.793,0.976,83.393
100988,138571,7793,-0.119,-0.959,-0.006,-0.366,0.854,0.976,83.399
100984,138529,19647,-0.12,-0.962,-0.005,-0.366,0.854,0.976,83.402
100984,138571,7801,-0.122,-0.96,-0.002,-0.488,0.793,0.976,83.409
100975,138529,19647,-0.121,-0.956,-0.01,-0.488,0.793,0.976,83.412
100975,138602,7778,-0.116,-0.956,-0.003,0.061,0.671,0.732,83.418
101003,138529,19647,-0.114,-0.958,-0.001,0.061,0.671,0.732,83.422
101003,138588,7805,-0.115,-0.958,-0,0,0.488,0.549,83.428
100985,138529,19647,-0.116,-0.96,-0,0,0.488,0.549,83.432
100985,138594,7804,-0.119,-0.96,-0.001,-0.427,0.488,0.61,83.438
101004,138529,19647,-0.119,-0.963,0.002,-0.427,0.488,0.61,83.442
101004,138612,7785,-0.116,-0.97,0.004,-0.732,0.366,0.61,83.448
101015,138529,19647,-0.117,-0.97,0.006,-0.732,0.366,0.61,83.452
101015,138584,7788,-0.118,-0.965,0.007,-0.671,0.488,0.671,83.458
101005,138529,19647,-0.12,-0.965,0.011,-0.671,0.488,0.671,83.462
101005,138590,7803,-0.12,-0.964,0.012,-0.732,0.732,0.671,83.468
101009,138529,19647,-0.117,-0.96,0.009,-0.732,0.732,0.671,83.472
101009,138627,7807,-0.118,-0.957,0.006,-0.854,0.854,0.793,83.478
101018,138529,19647,-0.119,-0.96,0.003,-0.854,0.854,0.793,83.482
101018,138622,7814,-0.12,-0.965,-0.001,-1.341,1.098,0.671,83.488
101016,138529,19647,-0.12,-0.965,-0.003,-1.341,1.098,0.671,83.492
101016,138618,7797,-0.122,-0.967,-0.008,-1.524,1.037,0.549,83.498
101013,138529,19647,-0.119,-0.966,-0.005,-1.524,1.037,0.549,83.501
101013,138617,7800,-0.119,-0.963,-0.009,-0.976,0.732,0.549,83.508
101015,138529,19647,-0.12,-0.959,-0.008,-0.976,0.732,0.549,83.511
101015,138631,7795,-0.12,-0.96,-0.006,-0.61,0.61,0.488,83.517
101036,138529,19647,-0.12,-0.962,-0.009,-0.61,0.61,0.488,83.521
101036,138611,7798,-0.117,-0.965,-0.001,-0.671,0.366,0.427,83.527
101027,138529,19647,-0.117,-0.965,-0.001,-0.671,0.366,0.427,83.531
101027,138627,7796,-0.12,-0.965,-0,-0.244,0.427,0.244,83.537
101016,138529,19647,-0.12,-0.965,-0,-0.244,0.427,0.244,83.541
101016,138634,7796,-0.126,-0.961,0.009,-0.183,0.549,0.244,83.547
101057,138529,19647,-0.126,-0.961,0.009,-0.183,0.549,0.244,83.551
101057,138619,7785,-0.115,-0.96,0.016,-0.366,0.427,0.244,83.557
101058,138529,19647,-0.115,-0.96,0.016,-0.366,0.427,0.244,83.561
101058,138647,7816,-0.119,-0.97,0.011,-1.037,0.671,0.305,83.567
101047,138529,19647,-0.119,-0.97,0.011,-1.037,0.671,0.305,83.571
101047,138645,7815,-0.127,-0.973,0.004,-1.098,1.341,0.671,83.577
101065,138529,19647,-0.127,-0.973,0.004,-1.098,1.341,0.671,83.581
101065,138680,7795,-0.123,-0.962,-0.008,-0.427,1.159,0.549,83.587
101089,138529,19647,-0.123,-0.962,-0.008,-0.427,1.159,0.549,83.59
101089,138672,7795,-0.125,-0.967,-0.006,-0.427,0.915,0.61,83.597
101071,138529,19647,-0.125,-0.967,-0.006,-0.427,0.915,0.61,83.6
101071,138662,7796,-0.119,-0.966,-0.002,-0.305,0.793,0.732,83.607
101057,138529,19647,-0.119,-0.966,-0.002,-0.305,0.793,0.732,83.61
101057,138701,7797,-0.115,-0.957,0.002,-0.488,0.61,0.793,83.616
101072,138529,19647,-0.115,-0.957,0.002,-0.488,0.61,0.793,83.62
101072,138677,7808,-0.118,-0.962,-0.003,-1.28,0.732,0.976,83.626
101071,138529,19647,-0.118,-0.962,-0.003,-1.28,0.732,0.976,83.63
101071,138663,7817,-0.12,-0.961,0.006,-1.22,0.854,0.976,83.636
101083,138529,19647,-0.12,-0.961,0.006,-1.22,0.854,0.976,83.64
101083,138666,7817,-0.118,-0.962,0.008,-0.732,0.61,0.732,83.646
101095,138529,19647,-0.118,-0.962,0.008,-0.732,0.61,0.732,83.65
101095,138691,7798,-0.114,-0.957,-0,-0.488,0.793,0.61,83.656
101090,138529,19647,-0.114,-0.957,-0,-0.488,0.793,0.61,83.66
101090,138683,7792,-0.121,-0.969,-0.006,-0.732,1.159,0.61,83.666
101111,138529,19647,-0.121,-0.969,-0.006,-0.732,1.159,0.61,83.67
101111,138695,7812,-0.124,-0.968,-0.006,-0.732,1.159,0.61,83.676
101110,138529,19647,-0.123,-0.969,-0.009,-0.549,0.915,0.488,83.68
101110,138692,7821,-0.122,-0.97,-0.019,-0.549,0.915,0.488,83.686
101106,138529,19647,-0.122,-0.966,-0.018,-0.366,0.549,0.305,83.69
101106,138693,7812,-0.122,-0.96,-0.009,-0.366,0.549,0.305,83.696
101088,138529,19647,-0.125,-0.957,-0.009,0.488,0.244,0.244,83.699
101088,138690,7815,-0.123,-0.953,-0.013,0.488,0.244,0.244,83.706
101103,138529,19647,-0.12,-0.956,-0.004,0.427,-0.061,0.061,83.709
101103,138651,7805,-0.118,-0.961,0.006,0.427,-0.061,0.061,83.715
101093,138529,19647,-0.116,-0.961,0.007,0,0.122,0.122,83.719
101093,138688,7813,-0.117,-0.963,0.01,0,0.122,0.122,83.725
101105,138529,19647,-0.117,-0.961,0.013,-0.366,0.427,0.183,83.729
101105,138693,7798,-0.12,-0.963,0.014,-0.366,0.427,0.183,83.735
101115,138529,19647,-0.116,-0.967,0.009,-0.549,0.61,0.488,83.739
101115,138697,7824,-0.119,-0.97,0.003,-0.549,0.61,0.488,83.745
101101,138529,19647,-0.122,-0.969,0.005,-0.976,0.854,0.488,83.749
101101,138708,7803,-0.123,-0.964,-0.008,-0.976,0.854,0.488,83.755
101126,138529,19647,-0.127,-0.964,-0.005,-0.915,0.732,0.549,83.759
101126,138718,7807,-0.127,-0.961,0.001,-0.915,0.732,0.549,83.765
101138,138529,19647,-0.125,-0.964,-0.001,-0.488,0.305,0.427,83.769
101138,138709,7828,-0.122,-0.96,-0.005,-0.488,0.305,0.427,83.775
101117,138529,19647,-0.123,-0.958,-0.008,-0.732,0.183,0.244,83.779
101117,138698,7816,-0.124,-0.963,-0.014,-0.732,0.183,0.244,83.785
101127,138529,19647,-0.126,-0.966,-0.016,-0.61,0.183,0.244,83.788
101127,138690,7818,-0.124,-0.964,-0.012,-0.61,0.183,0.244,83.795
101099,138529,19647,-0.125,-0.966,-0.007,0.305,-0.122,0.061,83.798
101099,138689,7808,-0.122,-0.963,-0.004,0.305,-0.122,0.061,83.805
101090,138529,19647,-0.117,-0.963,0.001,0.793,-0.305,-0.122,83.808
101090,138703,7802,-0.117,-0.964,0.005,0.793,-0.305,-0.122,83.814
101082,138529,19647,-0.118,-0.967,0.012,0.305,-0.183,0.122,83.818
101082,138683,7813,-0.12,-0.969,0.01,0.305,-0.183,0.122,83.824
101087,138529,19647,-0.12,-0.973,0.009,-0.305,0.122,0.427,83.828
101087,138650,7816,-0.119,-0.973,0.003,-0.305,0.122,0.427,83.834
101053,138529,19647,-0.117,-0.971,0,-0.427,0.244,0.732,83.838
101053,138677,7803,-0.12,-0.964,0,-0.427,0.244,0.732,83.844
101047,138529,19647,-0.124,-0.96,-0.001,-0.183,0.427,0.915,83.848
101047,138649,7819,-0.121,-0.961,-0.004,-0.183,0.427,0.915,83.854
101038,138529,19647,-0.122,-0.962,-0.006,-0.183,0.488,0.793,83.858
101038,138656,7821,-0.12,-0.958,-0.005,-0.183,0.488,0.793,83.864
101042,138529,19647,-0.118,-0.955,-0.005,-0.183,0.366,0.549,83.868
101042,138670,7798,-0.116,-0.949,-0.003,-0.183,0.366,0.549,83.874
101047,138529,19647,-0.116,-0.943,-0.001,0.061,0.244,0.183,83.878
101047,138681,7795,-0.118,-0.943,-0.002,0.061,0.244,0.183,83.884
101047,138529,19647,-0.114,-0.947,-0.011,-0.244,0.244,0,83.888
101047,138668,7796,-0.111,-0.96,-0.011,-0.244,0.244,0,83.894
101047,138529,19647,-0.113,-0.968,-0.004,-0.305,0.244,-0.244,83.897
101047,138707,7812,-0.114,-0.97,-0.002,-0.305,0.244,-0.244,83.904
101070,138529,19647,-0.114,-0.969,0.003,0.122,0.061,-0.244,83.907
101070,138667,7808,-0.119,-0.971,0.007,0.122,0.061,-0.244,83.913
101071,138529,19647,-0.119,-0.971,0.003,0.183,-0.061,-0.305,83.917
101071,138694,7810,-0.118,-0.971,0.003,0.183,-0.061,-0.305,83.923
101092,138529,19647,-0.12,-0.975,0.008,0,0.122,-0.183,83.927
101092,138687,7821,-0.124,-0.972,0.013,0,0.122,-0.183,83.933
101090,138529,19647,-0.121,-0.972,0.009,-0.122,0.427,0.061,83.937
101090,138676,7805,-0.119,-0.97,0.007,-0.122,0.427,0.061,83.943
101070,138529,19647,-0.124,-0.972,0.005,-0.122,0.61,0.305,83.947
101070,138689,7819,-0.123,-0.969,0.004,-0.122,0.61,0.305,83.953
101107,138529,19647,-0.12,-0.965,0,-0.183,0.671,0.488,83.957
101107,138699,7820,-0.123,-0.966,0.002,-0.183,0.671,0.488,83.963
101086,138529,19647,-0.123,-0.966,0.008,0,0.793,0.671,83.967
101086,138694,7813,-0.123,-0.956,0.005,0,0.793,0.671,83.973
101077,138529,19647,-0.119,-0.95,-0.011,0.549,0.671,0.793,83.977
101077,138693,7805,-0.118,-0.95,-0.019,0.549,0.671,0.793,83.983
101080,138529,19647,-0.121,-0.96,-0.016,0.183,0.732,0.549,83.986
101080,138684,7824,-0.125,-0.96,-0.009,0.183,0.732,0.549,83.993
101070,138529,19647,-0.124,-0.956,-0.008,0.244,0.427,0.244,83.996
101070,138716,7809,-0.119,-0.955,-0.014,0.244,0.427,0.244,84.003
101083,138529,19647,-0.117,-0.959,-0.007,0.183,-0.061,0,84.006
101083,138724,7805,-0.12,-0.963,-0.001,0.183,-0.061,0,84.012
101067,138529,19647,-0.119,-0.958,0.008,0.61,-0.244,-0.061,84.016
101067,138696,7814,-0.12,-0.955,0.01,0.61,-0.244,-0.061,84.022
101088,138529,19647,-0.123,-0.953,0.01,0.549,-0.061,-0.122,84.026
101088,138692,7819,-0.121,-0.961,0.012,0.549,-0.061,-0.122,84.032
101089,138529,19647,-0.119,-0.965,0.014,-0.122,0.427,-0.244,84.036
101089,138715,7799,-0.117,-0.971,0.012,-0.122,0.427,-0.244,84.042
101075,138529,19647,-0.118,-0.98,0.01,-0.854,0.793,0.061,84.046
101075,138697,7822,-0.122,-0.98,0.005,-0.854,0.793,0.061,84.052
101099,138529,19647,-0.127,-0.976,0.001,-0.671,1.037,0.488,84.056
101099,138686,7816,-0.128,-0.974,0,-0.671,1.037,0.488,84.062
101088,138529,19647,-0.123,-0.967,0.001,-0.061,0.976,0.61,84.066
101088,138698,7807,-0.12,-0.964,-0.009,-0.061,0.976,0.61,84.072
101065,138529,19647,-0.119,-0.967,-0.015,-0.183,0.854,0.61,84.076
101065,138696,7811,-0.125,-0.965,-0.008,-0.183,0.854,0.61,84.082
101071,138529,19647,-0.125,-0.959,-0.009,0.366,0.549,0.671,84.086
101071,138675,7811,-0.122,-0.949,-0.006,0.366,0.549,0.671,84.092
101059,138529,19647,-0.12,-0.949,-0.002,0.61,0,0.244,84.095
101059,138672,7809,-0.117,-0.948,-0.005,0.61,0,0.244,84.102
101065,138529,19647,-0.117,-0.951,-0.002,0.244,0.122,-0.122,84.105
101065,138671,7799,-0.117,-0.956,-0.003,0.244,0.122,-0.122,84.111
101073,138529,19647,-0.117,-0.957,-0.002,0.061,0.244,-0.061,84.115
101073,138658,7818,-0.117,-0.959,0.002,0.061,0.244,-0.061,84.121
101062,138529,19647,-0.117,-0.959,0.002,0.061,0.244,-0.061,84.125
101062,138682,7803,-0.117,-0.96,0.003,-0.183,0.122,-0.244,84.131
101061,138529,19647,-0.117,-0.96,0.003,-0.183,0.122,-0.244,84.135
101061,138662,7820,-0.122,-0.967,0.005,-0.488,0.305,-0.244,84.141
101069,138529,19647,-0.122,-0.967,0.005,-0.488,0.305,-0.244,84.145
101069,138702,7817,-0.117,-0.968,-0.001,-0.183,0.427,-0.366,84.151
101085,138529,19647,-0.117,-0.968,-0.001,-0.183,0.427,-0.366,84.155
101085,138694,7809,-0.117,-0.972,0.007,0.244,0.366,-0.366,84.161
101078,138529,19647,-0.117,-0.972,0.007,0.244,0.366,-0.366,84.165
101078,138675,7808,-0.121,-0.972,0.002,0.305,0.549,-0.061,84.171
101059,138529,19647,-0.121,-0.972,0.002,0.305,0.549,-0.061,84.175
101059,138669,7816,-0.117,-0.964,-0.013,0.122,0.488,0.122,84.181
101085,138529,19647,-0.117,-0.964,-0.013,0.122,0.488,0.122,84.185
101085,138684,7808,-0.118,-0.964,-0.01,0.183,0.061,0.183,84.191
101048,138529,19647,-0.118,-0.964,-0.01,0.183,0.061,0.183,84.194
101048,138681,7820,-0.122,-0.957,-0.009,0.305,-0.244,0.244,84.201
101068,138529,19647,-0.122,-0.957,-0.009,0.305,-0.244,0.244,84.204
101068,138678,7819,-0.12,-0.958,0.001,0.244,-0.549,0.122,84.21
101058,138529,19647,-0.12,-0.958,0.001,0.244,-0.549,0.122,84.214
101058,138694,7815,-0.117,-0.955,0.01,0.244,-0.61,-0.122,84.22
101080,138529,19647,-0.117,-0.955,0.01,0.244,-0.61,-0.122,84.224
101080,138700,7800,-0.119,-0.957,0.01,0.366,-0.488,-0.305,84.23
101065,138529,19647,-0.119,-0.957,0.01,0.366,-0.488,-0.305,84.234
101065,138681,7800,-0.122,-0.96,0.005,0.305,-0.061,-0.366,84.24
101054,138529,19647,-0.122,-0.96,0.005,0.305,-0.061,-0.366,84.244
101054,138682,7811,-0.121,-0.971,0.002,-0.305,0.183,-0.427,84.25
101092,138529,19647,-0.121,-0.971,0.002,-0.305,0.183,-0.427,84.254
101092,138689,7802,-0.12,-0.977,-0.004,-0.488,0.183,-0.427,84.26
101093,138529,19647,-0.12,-0.977,-0.004,-0.488,0.183,-0.427,84.264
101093,138700,7820,-0.119,-0.973,-0.005,0,-0.061,-0.244,84.27
101090,138529,19647,-0.123,-0.97,-0.004,0,-0.061,-0.244,84.274
101090,138687,7811,-0.123,-0.967,-0.006,0.366,-0.244,0,84.28
101085,138529,19647,-0.123,-0.965,-0.008,0.366,-0.244,0,84.284
101085,138681,7807,-0.118,-0.964,-0.006,0.488,-0.549,0.061,84.29
101079,138529,19647,-0.115,-0.966,-0.002,0.488,-0.549,0.061,84.293
101079,138661,7808,-0.117,-0.964,0.006,0.549,-0.671,0,84.3
101064,138529,19647,-0.117,-0.958,0.006,0.549,-0.671,0,84.303
101064,138657,7808,-0.118,-0.957,0.01,0.366,-0.488,0.122,84.309
101062,138529,19647,-0.116,-0.954,0.01,0.366,-0.488,0.122,84.313
101062,138712,7823,-0.114,-0.954,0.01,0.061,-0.366,0.183,84.319
101057,138529,19647,-0.115,-0.957,0.007,0.061,-0.366,0.183,84.323
101057,138664,7794,-0.114,-0.963,0.002,-0.244,-0.244,0.122,84.329
101053,138529,19647,-0.112,-0.967,0.005,-0.244,-0.244,0.122,84.333
101053,138656,7802,-0.113,-0.973,0.001,-0.854,0,0,84.339
101059,138529,19647,-0.118,-0.978,0,-0.854,0,0,84.343
101059,138666,7811,-0.117,-0.97,0.005,-0.732,0,0.244,84.349
101056,138529,19647,-0.118,-0.962,-0.008,-0.732,0,0.244,84.353
101056,138683,7818,-0.12,-0.964,-0.002,0.122,-0.244,0.366,84.359
101050,138529,19647,-0.116,-0.96,0.007,0.122,-0.244,0.366,84.363
101050,138636,7800,-0.111,-0.949,-0.003,0.122,-0.366,0.183,84.369
101044,138529,19647,-0.117,-0.955,0.001,0.122,-0.366,0.183,84.373
101044,138702,7812,-0.118,-0.968,0.008,-0.61,-0.122,-0.061,84.379
101039,138529,19647,-0.116,-0.97,-0.007,-0.61,-0.122,-0.061,84.382
101039,138687,7812,-0.121,-0.965,-0.016,-0.183,0.122,0.305,84.389
101051,138529,19647,-0.122,-0.964,0.017,-0.183,0.122,0.305,84.392
101051,138657,7811,-0.113,-0.955,0.014,1.402,-0.488,-0.122,84.399
101045,138529,19647,-0.108,-0.952,0.004,1.402,-0.488,-0.122,84.402
101045,138646,7808,-0.106,-0.961,0.012,1.159,-0.427,-0.366,84.408
101027,138529,19647,-0.116,-0.971,0,1.159,-0.427,-0.366,84.412
101027,138660,7798,-0.117,-0.962,-0.004,0.732,0.122,-0.122,84.418
101034,138529,19647,-0.119,-0.96,0.009,0.732,0.122,-0.122,84.422
101034,138651,7812,-0.12,-0.969,0.01,0.61,0.122,-0.305,84.428
101037,138529,19647,-0.116,-0.97,0.004,0.61,0.122,-0.305,84.432
101037,138651,7811,-0.114,-0.974,0.004,0,0,-0.122,84.438
101033,138529,19647,-0.113,-0.973,0.004,0,0,-0.122,84.442
101033,138657,7800,-0.117,-0.969,0.005,-0.366,0.244,0.183,84.448
101048,138529,19647,-0.121,-0.965,0.014,-0.366,0.244,0.183,84.452
101048,138651,7809,-0.12,-0.957,0.011,0.122,0.366,0.244,84.458
101042,138529,19647,-0.119,-0.959,0.001,0.122,0.366,0.244,84.462
101042,138663,7811,-0.116,-0.962,-0.002,-0.488,0.366,0.183,84.468
101052,138529,19647,-0.118,-0.964,-0.002,-0.488,0.366,0.183,84.472
101052,138667,7804,-0.125,-0.964,0.004,-0.549,0.732,0.305,84.478
101064,138529,19647,-0.123,-0.962,0.008,-0.549,0.732,0.305,84.481
101064,138672,7799,-0.115,-0.959,0.006,0.549,0.61,0.061,84.488
101059,138529,19647,-0.113,-0.959,0.007,0.549,0.61,0.061,84.491
101059,138678,7820,-0.112,-0.962,0.012,0.915,0.427,0,84.498
101032,138529,19647,-0.116,-0.962,0.007,0.915,0.427,0,84.501
101032,138682,7803,-0.116,-0.962,0.007,0.488,0.793,0.183,84.507
101043,138529,19647,-0.116,-0.964,0.004,0.488,0.793,0.183,84.511
101043,138684,7806,-0.113,-0.97,-0.001,-0.244,0.854,0.305,84.517
101032,138529,19647,-0.115,-0.971,-0.001,-0.244,0.854,0.305,84.521
101032,138673,7807,-0.118,-0.975,-0,-0.671,0.915,0.366,84.527
101037,138529,19647,-0.117,-0.967,-0.003,-0.671,0.915,0.366,84.531
101037,138662,7808,-0.117,-0.965,-0.004,-0.427,0.732,0.305,84.537
101044,138529,19647,-0.119,-0.964,-0.004,-0.427,0.732,0.305,84.541
101044,138654,7813,-0.116,-0.962,-0.01,-0.122,0.549,0.122,84.547
101037,138529,19647,-0.12,-0.96,-0.007,-0.122,0.549,0.122,84.551
101037,138682,7811,-0.118,-0.956,-0.007,-0.122,0.488,0.183,84.557
101047,138529,19647,-0.121,-0.953,-0.006,-0.122,0.488,0.183,84.561
101047,138662,7808,-0.12,-0.954,-0.002,0.122,0.061,0,84.567
101049,138529,19647,-0.115,-0.954,0.003,0.122,0.061,0,84.571
101049,138691,7817,-0.115,-0.964,0.009,-0.305,0,-0.122,84.577
101046,138529,19647,-0.11,-0.969,0.008,-0.305,0,-0.122,84.581
101046,138681,7807,-0.117,-0.968,0.001,-0.793,0.488,0,84.587
101042,138529,19647,-0.126,-0.969,0.001,-0.793,0.488,0,84.59
101042,138674,7809,-0.126,-0.967,0.005,0,0.549,0.183,84.597
101033,138529,19647,-0.12,-0.967,0.003,0,0.549,0.183,84.6
101033,138684,7814,-0.116,-0.968,0.005,0.61,0.122,-0.122,84.606
101027,138529,19647,-0.116,-0.971,0,0.61,0.122,-0.122,84.61
101027,138689,7815,-0.117,-0.969,0.007,0.305,-0.061,0.122,84.616
101022,138529,19647,-0.12,-0.968,0.008,0.305,-0.061,0.122,84.62
101022,138660,7791,-0.119,-0.97,0.001,-0.122,-0.122,0.305,84.626
100997,138529,19647,-0.118,-0.969,0.009,-0.122,-0.122,0.305,84.63
100997,138662,7805,-0.117,-0.97,0.01,-0.244,-0.061,0.488,84.636
101004,138529,19647,-0.111,-0.966,0.006,-0.244,-0.061,0.488,84.64
101004,138663,7813,-0.114,-0.968,-0.003,-0.671,0.244,0.732,84.646
101006,138529,19647,-0.118,-0.972,0.002,-0.671,0.244,0.732,84.65
101006,138650,7800,-0.122,-0.966,0.002,-0.488,0.427,0.671,84.656
100990,138529,19647,-0.12,-0.956,-0.004,-0.488,0.427,0.671,84.66
100990,138656,7795,-0.116,-0.953,-0.001,0.122,0.122,0.488,84.666
100983,138529,19647,-0.114,-0.957,-0.001,0.122,0.122,0.488,84.67
100983,138619,7811,-0.112,-0.958,-0.003,0.488,-0.183,0.183,84.676
100978,138529,19647,-0.119,-0.956,-0.001,0.488,-0.183,0.183,84.679
100978,138645,7792,-0.118,-0.954,0.001,0.427,-0.122,0.183,84.686
100955,138529,19647,-0.114,-0.953,-0,0.427,-0.122,0.183,84.689
100955,138627,7793,-0.114,-0.965,-0.001,-0.183,0.061,0.122,84.696
100959,138529,19647,-0.114,-0.97,-0.001,-0.183,0.061,0.122,84.699
100959,138603,7781,-0.115,-0.973,0.004,-0.732,0.183,0.183,84.705
100930,138529,19647,-0.115,-0.973,0.004,-0.732,0.183,0.183,84.709
100930,138602,7789,-0.117,-0.972,0.003,-0.549,0.244,0.244,84.715
100955,138529,19647,-0.117,-0.972,0.003,-0.549,0.244,0.244,84.719
100955,138597,7799,-0.113,-0.967,0.007,-0.244,0.122,0.305,84.725
100941,138529,19647,-0.113,-0.967,0.007,-0.244,0.122,0.305,84.729
100941,138579,7792,-0.116,-0.971,-0.003,-0.549,0.366,0.549,84.735
100950,138529,19647,-0.116,-0.971,-0.003,-0.549,0.366,0.549,84.739
100950,138598,7798,-0.12,-0.964,-0.008,-0.061,0.366,0.732,84.745
100952,138529,19647,-0.12,-0.964,-0.008,-0.061,0.366,0.732,84.749
100952,138614,7780,-0.118,-0.962,-0.004,0.427,-0.122,0.427,84.755
100937,138529,19647,-0.118,-0.962,-0.004,0.427,-0.122,0.427,84.759
100937,138588,7801,-0.115,-0.961,-0.002,0.183,-0.183,0.244,84.765
100945,138529,19647,-0.115,-0.961,-0.002,0.183,-0.183,0.244,84.769
100945,138621,7802,-0.114,-0.957,0.014,0.427,-0.061,0.244,84.775
100924,138529,19647,-0.114,-0.957,0.014,0.427,-0.061,0.244,84.779
100924,138593,7803,-0.113,-0.951,0.009,0.244,-0.061,0.122,84.785
100950,138529,19647,-0.113,-0.951,0.009,0.244,-0.061,0.122,84.788
100950,138616,7809,-0.114,-0.959,0.008,-0.549,0.366,0,84.795
100957,138529,19647,-0.114,-0.959,0.008,-0.549,0.366,0,84.798
100957,138611,7800,-0.117,-0.963,0.005,-0.915,0.488,0,84.804
100948,138529,19647,-0.117,-0.963,0.005,-0.915,0.488,0,84.808
100948,138624,7808,-0.112,-0.968,0.022,-0.671,0.549,-0.061,84.814
100962,138529,19647,-0.112,-0.968,0.022,-0.671,0.549,-0.061,84.818
100962,138622,7789,-0.118,-0.971,0.01,-1.037,0.854,0.183,84.824
100965,138529,19647,-0.118,-0.971,0.01,-1.037,0.854,0.183,84.828
100965,138632,7797,-0.122,-0.972,0.007,-1.037,1.28,0.488,84.834
100970,138529,19647,-0.122,-0.972,0.007,-1.037,1.28,0.488,84.838
100970,138639,7809,-0.121,-0.97,-0.003,-0.671,1.22,0.488,84.844
100965,138529,19647,-0.121,-0.97,-0.003,-0.671,1.22,0.488,84.848
100965,138621,7803,-0.12,-0.968,-0.005,-0.671,1.22,0.488,84.854
100955,138529,19647,-0.121,-0.963,-0.001,-0.183,0.915,0.488,84.858
100955,138639,7787,-0.117,-0.959,0.001,-0.183,0.915,0.488,84.864
100983,138529,19647,-0.113,-0.957,-0.001,0.122,0.488,0.61,84.868
100983,138640,7794,-0.111,-0.959,-0.001,0.122,0.488,0.61,84.874
100975,138529,19647,-0.114,-0.964,-0.003,-0.732,0.427,0.61,84.877
100975,138664,7803,-0.118,-0.97,-0.003,-0.732,0.427,0.61,84.884
100995,138529,19647,-0.116,-0.972,0,-1.037,0.61,0.671,84.887
100995,138642,7809,-0.116,-0.969,0.005,-1.037,0.61,0.671,84.894
100971,138529,19647,-0.114,-0.971,0.004,-0.61,0.427,0.732,84.897
100971,138642,7817,-0.112,-0.968,0.003,-0.61,0.427,0.732,84.903
100993,138529,19647,-0.115,-0.966,-0.005,-0.488,0.671,0.793,84.907
100993,138664,7804,-0.12,-0.964,0.003,-0.488,0.671,0.793,84.913
101002,138529,19647,-0.124,-0.96,0.006,0.122,0.854,0.793,84.917
101002,138645,7805,-0.121,-0.956,0.007,0.122,0.854,0.793,84.923
100991,138529,19647,-0.112,-0.953,0.011,0.549,0.549,0.671,84.927
100991,138641,7826,-0.111,-0.954,0.008,0.549,0.549,0.671,84.933
101007,138529,19647,-0.116,-0.96,0.002,-0.488,0.915,0.732,84.937
101007,138651,7808,-0.12,-0.967,-0.003,-0.488,0.915,0.732,84.943
100991,138529,19647,-0.124,-0.97,-0.002,-1.159,1.341,0.854,84.947
100991,138638,7793,-0.12,-0.968,-0,-1.159,1.341,0.854,84.953
100995,138529,19647,-0.119,-0.967,0.001,-0.244,1.037,0.671,84.957
100995,138648,7817,-0.117,-0.963,0.002,-0.244,1.037,0.671,84.963
101013,138529,19647,-0.113,-0.958,-0.001,0.305,0.549,0.549,84.967
101013,138655,7814,-0.113,-0.957,-0.002,0.305,0.549,0.549,84.973
100999,138529,19647,-0.12,-0.961,-0.005,-0.366,0.793,0.549,84.977
100999,138666,7826,-0.118,-0.962,-0.009,-0.366,0.793,0.549,84.983
101007,138529,19647,-0.118,-0.966,-0.005,-0.915,0.732,0.732,84.986
101007,138650,7818,-0.118,-0.965,-0.002,-0.915,0.732,0.732,84.993
101012,138529,19647,-0.116,-0.963,0.003,-0.488,0.366,0.549,84.996
101012,138682,7804,-0.116,-0.965,0.01,-0.488,0.366,0.549,85.002
101020,138529,19647,-0.114,-0.966,0.007,-0.122,0.244,0.549,85.006
101020,138680,7812,-0.114,-0.965,0.004,-0.122,0.244,0.549,85.012
101011,138529,19647,-0.116,-0.968,0.008,-0.305,0.488,0.793,85.016
101011,138691,7816,-0.114,-0.967,0.01,-0.305,0.488,0.793,85.022
101052,138529,19647,-0.116,-0.965,0.005,-0.244,0.732,0.671,85.026
101052,138689,7814,-0.121,-0.965,0.006,-0.244,0.732,0.671,85.032
101031,138529,19647,-0.121,-0.963,0.005,0,0.854,0.671,85.036
101031,138692,7797,-0.118,-0.957,0.002,0,0.854,0.671,85.042
101037,138529,19647,-0.119,-0.955,-0.002,0.366,0.793,0.488,85.046
101037,138667,7823,-0.12,-0.952,-0.007,0.366,0.793,0.488,85.052
101013,138529,19647,-0.124,-0.947,-0.006,0.366,0.671,0.244,85.056
101013,138679,7805,-0.119,-0.953,-0.005,0.366,0.671,0.244,85.062
101018,138529,19647,-0.118,-0.962,-0.004,0.244,0.427,-0.061,85.066
101018,138661,7814,-0.119,-0.969,-0.005,0.244,0.427,-0.061,85.072
101010,138529,19647,-0.118,-0.971,-0.007,0.183,0.061,0.061,85.075
101010,138681,7823,-0.118,-0.967,0,0.183,0.061,0.061,85.082
101033,138529,19647,-0.12,-0.969,-0.003,0.549,0.061,0.122,85.085
101033,138691,7813,-0.118,-0.966,-0.004,0.549,0.061,0.122,85.092
101036,138529,19647,-0.116,-0.963,-0.002,0.549,0.122,-0.061,85.095
101036,138688,7811,-0.119,-0.964,0.001,0.549,0.122,-0.061,85.101
101050,138529,19647,-0.122,-0.966,0.001,0.183,0.061,0.183,85.105
101050,138686,7809,-0.12,-0.964,0.005,0.183,0.061,0.183,85.111
101033,138529,19647,-0.12,-0.964,0.006,-0.244,-0.183,0.366,85.115
101033,138696,7815,-0.118,-0.966,0.008,-0.244,-0.183,0.366,85.121
101033,138529,19647,-0.119,-0.97,0.009,-0.427,-0.122,0.244,85.125
101033,138690,7812,-0.116,-0.972,0.006,-0.427,-0.122,0.244,85.131
101013,138529,19647,-0.117,-0.968,0.003,-0.061,0.244,0.366,85.135
101013,138673,7813,-0.119,-0.965,0.007,-0.061,0.244,0.366,85.141
101018,138529,19647,-0.119,-0.96,0.01,0.61,0.244,0.427,85.145
101018,138661,7816,-0.12,-0.953,0.003,0.61,0.244,0.427,85.151
101031,138529,19647,-0.118,-0.953,-0.01,0.488,0.366,0.183,85.155
101031,138685,7815,-0.118,-0.962,-0.013,0.488,0.366,0.183,85.161
101020,138529,19647,-0.12,-0.966,-0.005,-0.061,0.305,0.244,85.165
101020,138656,7818,-0.119,-0.969,-0.008,-0.061,0.305,0.244,85.171
101010,138529,19647,-0.116,-0.963,-0.003,0.244,-0.122,0.122,85.175
101010,138661,7815,-0.116,-0.961,0.003,0.244,-0.122,0.122,85.181
101019,138529,19647,-0.117,-0.96,0.006,0.427,-0.183,0,85.184
101019,138677,7799,-0.116,-0.966,0.007,0.427,-0.183,0,85.191
101009,138529,19647,-0.119,-0.97,0.003,0.427,-0.122,0.305,85.194
101009,138676,7818,-0.117,-0.97,0.003,0.427,-0.122,0.305,85.2
101020,138529,19647,-0.12,-0.969,0.009,0.854,0.061,0.183,85.204
101020,138698,7803,-0.117,-0.967,0.003,0.854,0.061,0.183,85.21
101032,138529,19647,-0.115,-0.967,0.008,1.22,0.244,0,85.214
101032,138672,7813,-0.116,-0.964,0.009,1.22,0.244,0,85.22
101023,138529,19647,-0.114,-0.965,0.006,0.915,0.305,0.305,85.224
101023,138683,7811,-0.115,-0.967,0.011,0.915,0.305,0.305,85.23
101005,138529,19647,-0.113,-0.964,0.015,0.488,0.061,0.549,85.234
101005,138665,7822,-0.112,-0.963,0.007,0.488,0.061,0.549,85.24
101032,138529,19647,-0.114,-0.965,0.017,-0.244,0.366,0.61,85.244
101032,138665,7804,-0.115,-0.965,0.016,-0.244,0.366,0.61,85.25
101014,138529,19647,-0.114,-0.966,0.017,-0.488,0.793,0.671,85.254
101014,138667,7812,-0.113,-0.964,0.014,-0.488,0.793,0.671,85.26
101034,138529,19647,-0.112,-0.955,0.004,-0.305,0.976,0.732,85.264
101034,138693,7799,-0.116,-0.95,-0.001,-0.305,0.976,0.732,85.27
101011,138529,19647,-0.114,-0.953,-0.001,-0.061,0.976,0.549,85.273
101011,138683,7798,-0.114,-0.96,0.001,-0.061,0.976,0.549,85.28
101011,138529,19647,-0.113,-0.96,0.005,-0.427,0.854,0.366,85.283
101011,138688,7809,-0.114,-0.964,0.006,-0.427,0.854,0.366,85.29
101017,138529,19647,-0.114,-0.968,-0.003,-0.793,0.793,0.305,85.293
101017,138704,7813,-0.115,-0.969,-0.003,-0.793,0.793,0.305,85.299
101029,138529,19647,-0.115,-0.969,-0.003,-0.793,0.793,0.305,85.303
101029,138672,7801,-0.119,-0.968,0.014,-0.488,0.793,0.366,85.309
101015,138529,19647,-0.119,-0.968,0.014,-0.488,0.793,0.366,85.313
101015,138687,7814,-0.118,-0.966,0.018,-0.122,0.793,0.366,85.319
101018,138529,19647,-0.118,-0.966,0.018,-0.122,0.793,0.366,85.323
101018,138702,7825,-0.117,-0.964,0.013,-0.366,0.854,0.366,85.329
101029,138529,19647,-0.117,-0.964,0.013,-0.366,0.854,0.366,85.333
101029,138675,7810,-0.12,-0.959,0.006,-0.61,1.098,0.732,85.339
101009,138529,19647,-0.12,-0.959,0.006,-0.61,1.098,0.732,85.343
101009,138675,7821,-0.122,-0.959,0.001,-0.793,1.159,0.793,85.349
101029,138529,19647,-0.122,-0.959,0.001,-0.793,1.159,0.793,85.353
101029,138698,7822,-0.115,-0.962,0.002,-0.61,1.037,0.671,85.359
101041,138529,19647,-0.115,-0.962,0.002,-0.61,1.037,0.671,85.363
101041,138685,7816,-0.116,-0.967,-0.011,-0.671,0.976,0.427,85.369
101013,138529,19647,-0.116,-0.967,-0.011,-0.671,0.976,0.427,85.373
101013,138689,7801,-0.123,-0.964,-0.002,-0.122,0.915,0.488,85.379
101041,138529,19647,-0.123,-0.964,-0.002,-0.122,0.915,0.488,85.382
101041,138686,7811,-0.116,-0.962,-0.011,0.671,0.61,0.488,85.389
101041,138529,19647,-0.116,-0.962,-0.011,0.671,0.61,0.488,85.392
101041,138692,7811,-0.118,-0.963,-0.008,0.732,0.366,0.244,85.398
101019,138529,19647,-0.118,-0.963,-0.008,0.732,0.366,0.244,85.402
101019,138697,7815,-0.117,-0.961,-0.007,0.427,0.366,0.366,85.408
101029,138529,19647,-0.117,-0.961,-0.007,0.427,0.366,0.366,85.412
101029,138702,7802,-0.118,-0.964,0.007,0,0.122,0.122,85.418
101008,138529,19647,-0.118,-0.964,0.007,0,0.122,0.122,85.422
101008,138703,7824,-0.117,-0.963,0.007,-0.366,0.061,0,85.428
101031,138529,19647,-0.117,-0.963,0.007,-0.366,0.061,0,85.432
101031,138709,7817,-0.121,-0.965,0.005,-0.549,0.244,0.061,85.438
101048,138529,19647,-0.121,-0.965,0.005,-0.549,0.244,0.061,85.442
101048,138687,7816,-0.118,-0.972,0.009,-0.732,0.305,0.305,85.448
101017,138529,19647,-0.116,-0.968,0.004,-0.732,0.305,0.305,85.452
101017,138692,7823,-0.123,-0.962,0.002,-0.671,0.427,0.549,85.458
101015,138529,19647,-0.126,-0.962,0.003,-0.671,0.427,0.549,85.462
101015,138690,7808,-0.124,-0.961,0.006,-0.244,0.244,0.488,85.468
101008,138529,19647,-0.123,-0.966,0.01,-0.244,0.244,0.488,85.471
101008,138682,7825,-0.119,-0.965,0.011,-0.061,0.061,0.366,85.478
101008,138529,19647,-0.118,-0.965,0.006,-0.061,0.061,0.366,85.481
101008,138700,7823,-0.116,-0.963,0.003,-0.061,0.061,0.244,85.488
101034,138529,19647,-0.12,-0.96,0,-0.061,0.061,0.244,85.491
101034,138694,7801,-0.125,-0.963,0.001,0.305,0.061,0.427,85.497
101009,138529,19647,-0.123,-0.959,0.003,0.305,0.061,0.427,85.501
101009,138691,7809,-0.115,-0.961,-0.001,0.244,-0.122,0.305,85.507
101020,138529,19647,-0.116,-0.962,0.002,0.244,-0.122,0.305,85.511
101020,138683,7815,-0.114,-0.96,-0,0.061,-0.305,0,85.517
101023,138529,19647,-0.116,-0.958,0.006,0.061,-0.305,0,85.521
101023,138687,7818,-0.118,-0.959,0.008,0,-0.427,0.122,85.527
101013,138529,19647,-0.112,-0.963,0.007,0,-0.427,0.122,85.531
101013,138715,7825,-0.108,-0.967,0.01,-0.427,-0.366,0.061,85.537
101048,138529,19647,-0.11,-0.973,0.006,-0.427,-0.366,0.061,85.541
101048,138707,7815,-0.114,-0.974,0.003,-0.366,0.061,0.305,85.547
101051,138529,19647,-0.116,-0.967,0.002,-0.366,0.061,0.305,85.551
101051,138712,7821,-0.115,-0.966,-0.002,-0.122,0,0.549,85.557
101051,138529,19647,-0.113,-0.965,-0.007,-0.122,0,0.549,85.561
101051,138717,7826,-0.113,-0.964,-0.005,-0.305,-0.061,0.549,85.567
101036,138529,19647,-0.117,-0.963,-0.002,-0.305,-0.061,0.549,85.571
101036,138727,7830,-0.119,-0.957,-0.004,-0.305,0,0.488,85.577
101070,138785,19647,-0.122,-0.957,0.002,-0.305,0,0.488,85.58
101070,138762,7820,-0.121,-0.954,0.009,-0.183,-0.244,0.305,85.587
101058,138785,19647,-0.114,-0.956,0.012,-0.183,-0.244,0.305,85.59
101058,138755,7821,-0.111,-0.957,0.008,-0.366,-0.122,0,85.596
101068,138785,19647,-0.114,-0.961,0.003,-0.366,-0.122,0,85.6
101068,138752,7832,-0.118,-0.964,0.001,-0.61,0.183,0,85.606
101036,138529,19647,-0.119,-0.965,0.002,-0.61,0.183,0,85.61
101036,138733,7811,-0.116,-0.968,0.008,-0.488,0.244,0.122,85.616
101072,138785,19647,-0.114,-0.972,0.008,-0.488,0.244,0.122,85.62
101072,138758,7820,-0.114,-0.976,0.002,0,0.122,0.122,85.626
101077,138785,19647,-0.118,-0.974,0.005,0,0.122,0.122,85.63
101077,138752,7813,-0.118,-0.971,0.005,0.183,0.366,0.427,85.636
101061,138529,19647,-0.12,-0.967,0.012,0.183,0.366,0.427,85.64
101061,138729,7825,-0.118,-0.968,0.014,0.122,0.427,0.488,85.646
101087,138785,19647,-0.115,-0.97,0.012,0.122,0.427,0.488,85.65
101087,138752,7808,-0.111,-0.97,0.011,-0.366,0.549,0.61,85.656
101074,138529,19647,-0.115,-0.972,0.009,-0.366,0.549,0.61,85.66
101074,138743,7828,-0.12,-0.968,0.001,-0.671,0.732,0.732,85.666
101062,138785,19647,-0.118,-0.96,0.004,-0.671,0.732,0.732,85.67
101062,138756,7844,-0.118,-0.955,0.005,-0.305,0.61,0.915,85.676
101090,138785,19647,-0.115,-0.96,0.002,-0.305,0.61,0.915,85.679
101090,138761,7824,-0.11,-0.961,0.002,-0.244,0.549,0.854,85.686
101073,138785,19647,-0.112,-0.961,0.004,-0.244,0.549,0.854,85.689
101073,138766,7813,-0.116,-0.957,0.003,-0.305,0.671,0.671,85.695
101106,138785,19647,-0.114,-0.956,0,-0.305,0.671,0.671,85.699
101106,138773,7824,-0.116,-0.958,-0.003,-0.305,0.671,0.61,85.705
101083,138529,19647,-0.113,-0.964,0,-0.305,0.671,0.61,85.709
101083,138750,7825,-0.117,-0.968,0.003,-0.366,0.854,0.61,85.715
101080,138529,19647,-0.117,-0.964,0.006,-0.366,0.854,0.61,85.719
101080,138739,7823,-0.116,-0.962,0.008,-0.244,1.037,0.488,85.725
101076,138529,19647,-0.116,-0.96,0.004,-0.244,1.037,0.488,85.729
101076,138744,7838,-0.117,-0.965,0.006,-0.61,1.037,0.488,85.735
101089,138529,19647,-0.12,-0.969,0.01,-0.61,1.037,0.488,85.739
101089,138729,7832,-0.123,-0.965,0.006,-0.671,1.098,0.61,85.745
101063,138529,19647,-0.121,-0.961,0.001,-0.671,1.098,0.61,85.749
101063,138720,7807,-0.12,-0.965,-0.001,-0.671,1.159,0.61,85.755
101080,138529,19647,-0.12,-0.969,-0.004,-0.671,1.159,0.61,85.759
101080,138726,7838,-0.121,-0.965,-0.002,-0.183,0.976,0.488,85.765
101088,138529,19647,-0.119,-0.962,-0.001,-0.183,0.976,0.488,85.769
101088,138751,7823,-0.12,-0.96,0.002,-0.122,0.732,0.549,85.775
101095,138529,19647,-0.119,-0.962,0.008,-0.122,0.732,0.549,85.778
101095,138733,7815,-0.119,-0.967,0.004,-0.305,0.732,0.671,85.785
101097,138529,19647,-0.117,-0.967,0.004,-0.305,0.732,0.671,85.788
101097,138743,7829,-0.114,-0.968,0.006,-0.366,0.732,0.793,85.794
101090,138785,19647,-0.117,-0.968,0.007,-0.366,0.732,0.793,85.798
101090,138761,7821,-0.119,-0.964,0.009,-0.183,0.732,0.976,85.804
101099,138529,19647,-0.12,-0.96,0.004,-0.183,0.732,0.976,85.808
101099,138738,7830,-0.12,-0.959,0.006,-0.305,0.793,0.976,85.814
101092,138529,19647,-0.121,-0.965,0.016,-0.305,0.793,0.976,85.818
101092,138746,7809,-0.119,-0.96,0.017,-0.305,0.854,0.915,85.824
101116,138785,19647,-0.116,-0.961,0.008,-0.305,0.854,0.915,85.828
101116,138760,7828,-0.117,-0.965,-0.004,-0.732,1.22,1.037,85.834
101130,138785,19647,-0.118,-0.963,-0.01,-0.732,1.22,1.037,85.838
101130,138772,7833,-0.119,-0.962,-0.01,-0.976,1.341,0.915,85.844
101140,138785,19647,-0.121,-0.965,-0.007,-0.976,1.341,0.915,85.848
101140,138774,7841,-0.118,-0.963,-0.021,-0.549,0.976,0.61,85.854
101143,138785,19647,-0.12,-0.963,-0.027,-0.549,0.976,0.61,85.858
101143,138773,7833,-0.12,-0.966,-0.016,0,0.366,0.61,85.864
101128,138785,19647,-0.121,-0.965,-0.005,0,0.366,0.61,85.868
101128,138777,7822,-0.122,-0.958,-0.001,0.854,-0.183,0.549,85.874
101134,138785,19647,-0.117,-0.956,0.007,0.854,-0.183,0.549,85.877
101134,138790,7845,-0.116,-0.954,0.021,0.549,-0.305,0.366,85.884
101132,138785,19647,-0.116,-0.954,0.021,0.549,-0.305,0.366,85.887
101132,138759,7825,-0.113,-0.959,0.025,-0.183,0,0.549,85.894
101137,138785,19647,-0.113,-0.959,0.025,-0.183,0,0.549,85.897
101137,138767,7811,-0.117,-0.965,0.017,-0.854,0.671,0.854,85.903
101118,138785,19647,-0.117,-0.965,0.017,-0.854,0.671,0.854,85.907
101118,138765,7830,-0.118,-0.967,0.004,-0.793,1.037,0.793,85.913
101147,138785,19647,-0.118,-0.967,0.004,-0.793,1.037,0.793,85.917
101147,138768,7823,-0.124,-0.96,-0.004,-0.427,0.976,0.61,85.923
101127,138785,19647,-0.124,-0.96,-0.004,-0.427,0.976,0.61,85.927
101127,138754,7824,-0.121,-0.97,0,-0.122,0.915,0.427,85.933
101147,138785,19647,-0.121,-0.97,0,-0.122,0.915,0.427,85.937
101147,138800,7829,-0.119,-0.964,0.008,0.366,0.549,0.427,85.943
101144,138785,19647,-0.119,-0.964,0.008,0.366,0.549,0.427,85.947
101144,138770,7824,-0.118,-0.961,-0.006,0,0.549,0.366,85.953
101123,138785,19647,-0.118,-0.961,-0.006,0,0.549,0.366,85.957
101123,138776,7843,-0.123,-0.968,-0.003,-0.488,0.976,0.488,85.963
101137,138785,19647,-0.123,-0.968,-0.003,-0.488,0.976,0.488,85.967
101137,138773,7826,-0.12,-0.968,-0.013,-0.61,0.61,0.61,85.973
101141,138785,19647,-0.12,-0.968,-0.013,-0.61,0.61,0.61,85.976
101141,138760,7826,-0.118,-0.963,-0.006,-0.061,0.244,0.671,85.983
101141,138785,19647,-0.118,-0.963,-0.006,-0.061,0.244,0.671,85.986
101141,138761,7827,-0.117,-0.956,0.014,0.305,0.122,0.488,85.993
101139,138785,19647,-0.117,-0.956,0.014,0.305,0.122,0.488,85.996
101139,138782,7822,-0.113,-0.967,0.012,-0.305,0.244,0.61,86.002
101144,138785,19647,-0.113,-0.967,0.012,-0.305,0.244,0.61,86.006
101144,138788,7824,-0.121,-0.973,0.012,-0.854,0.732,0.976,86.012
101145,138785,19647,-0.121,-0.973,0.012,-0.854,0.732,0.976,86.016
101145,138799,7833,-0.121,-0.961,0.005,-0.61,1.037,1.098,86.022
101136,138785,19647,-0.121,-0.961,0.005,-0.61,1.037,1.098,86.026
101136,138792,7819,-0.12,-0.964,-0.005,-0.793,0.915,0.854,86.032
101131,138785,19647,-0.12,-0.964,-0.005,-0.793,0.915,0.854,86.036
101131,138781,7830,-0.122,-0.965,-0.013,-0.793,0.915,0.854,86.042
101120,138785,19647,-0.122,-0.962,-0.019,-0.732,0.671,0.976,86.046
101120,138795,7823,-0.122,-0.959,-0.013,-0.732,0.671,0.976,86.052
101121,138785,19647,-0.121,-0.962,-0.012,0,0.305,0.854,86.056
101121,138759,7824,-0.12,-0.965,-0.004,0,0.305,0.854,86.062
101142,138785,19647,-0.115,-0.964,0.001,0.366,0.061,0.488,86.066
101142,138754,7835,-0.119,-0.964,0.01,0.366,0.061,0.488,86.072
101115,138785,19647,-0.121,-0.964,0.022,0.244,0.183,0.549,86.075
101115,138782,7835,-0.118,-0.96,0.024,0.244,0.183,0.549,86.082
101125,138785,19647,-0.113,-0.96,0.021,-0.183,0.427,0.732,86.085
101125,138773,7823,-0.116,-0.96,0.012,-0.183,0.427,0.732,86.092
101131,138529,19647,-0.121,-0.965,0.01,-0.793,1.098,0.915,86.095
101131,138751,7828,-0.125,-0.962,0.007,-0.793,1.098,0.915,86.101
101129,138785,19647,-0.127,-0.961,0.001,-1.098,1.22,1.098,86.105
101129,138803,7837,-0.123,-0.96,-0.003,-1.098,1.22,1.098,86.111
101157,138785,19647,-0.123,-0.967,0,-1.098,0.976,0.976,86.115
101157,138790,7840,-0.118,-0.968,0.001,-1.098,0.976,0.976,86.121
101135,138785,19647,-0.118,-0.966,-0.003,-0.732,0.732,1.098,86.125
101135,138785,7831,-0.122,-0.961,0,-0.732,0.732,1.098,86.131
101158,138785,19647,-0.126,-0.957,-0.003,-0.854,0.61,0.854,86.135
101158,138812,7845,-0.121,-0.96,-0.009,-0.854,0.61,0.854,86.141
101151,138785,19647,-0.118,-0.966,-0.009,-0.915,0.732,0.549,86.145
101151,138784,7838,-0.121,-0.969,-0.001,-0.915,0.732,0.549,86.151
101154,138785,19647,-0.121,-0.965,-0.009,-0.305,0.488,0.305,86.155
101154,138802,7850,-0.118,-0.958,-0.007,-0.305,0.488,0.305,86.161
101135,138785,19647,-0.12,-0.963,-0.005,-0.244,0.183,0.183,86.165
101135,138783,7823,-0.121,-0.962,-0.003,-0.244,0.183,0.183,86.171
101158,138785,19647,-0.121,-0.95,-0.002,0.122,-0.122,0.366,86.174
101158,138772,7826,-0.121,-0.954,0.007,0.122,-0.122,0.366,86.181
101143,138785,19647,-0.12,-0.96,0.007,-0.061,0,0.305,86.184
101143,138792,7842,-0.118,-0.96,0.005,-0.061,0,0.305,86.191
101168,138785,19647,-0.118,-0.968,0.009,-0.671,0.244,0.305,86.194
101168,138818,7812,-0.12,-0.971,0.016,-0.671,0.244,0.305,86.2
101152,138785,19647,-0.123,-0.965,0.021,-0.671,0.732,0.366,86.204
101152,138810,7835,-0.123,-0.964,0.013,-0.671,0.732,0.366,86.21
101167,138785,19647,-0.118,-0.966,0.012,-0.671,0.854,0.488,86.214
101167,138839,7844,-0.116,-0.968,0.006,-0.671,0.854,0.488,86.22
101162,138785,19647,-0.12,-0.971,0.005,-1.28,1.037,0.732,86.224
101162,138807,7851,-0.125,-0.971,0.012,-1.28,1.037,0.732,86.23
101159,138785,19647,-0.125,-0.966,0.005,-1.28,1.28,0.793,86.234
101159,138827,7828,-0.124,-0.963,-0.007,-1.28,1.28,0.793,86.24
101162,138785,19647,-0.127,-0.964,-0.005,-1.22,1.098,0.793,86.244
101162,138803,7838,-0.121,-0.963,-0.011,-1.22,1.098,0.793,86.25
101169,138785,19647,-0.118,-0.964,-0.012,-0.793,0.732,0.854,86.254
101169,138821,7840,-0.119,-0.963,-0.015,-0.793,0.732,0.854,86.26
101174,138785,19647,-0.12,-0.963,-0.017,-0.732,0.61,0.61,86.264
101174,138814,7854,-0.121,-0.96,-0.016,-0.732,0.61,0.61,86.27
101169,138785,19647,-0.121,-0.953,-0.011,-0.061,0.183,0.366,86.273
101169,138826,7842,-0.12,-0.954,-0.006,-0.061,0.183,0.366,86.28
101174,138785,19647,-0.116,-0.962,0.006,0.305,-0.183,0.183,86.283
101174,138830,7831,-0.114,-0.965,0.007,0.305,-0.183,0.183,86.29
101177,138785,19647,-0.117,-0.97,0.02,0.122,0.122,0.244,86.293
101177,138824,7842,-0.119,-0.965,0.028,0.122,0.122,0.244,86.299
101183,138785,19647,-0.12,-0.964,0.02,0.183,0.488,0.488,86.303
101183,138817,7830,-0.116,-0.962,0.013,0.183,0.488,0.488,86.309
101207,138785,19647,-0.119,-0.962,0.007,-0.488,0.915,0.488,86.313
101207,138827,7844,-0.124,-0.961,-0.002,-0.488,0.915,0.488,86.319
101213,138785,19647,-0.129,-0.963,-0.005,-0.976,1.402,0.366,86.323
101213,138830,7839,-0.124,-0.965,-0.003,-0.976,1.402,0.366,86.329
101202,138785,19647,-0.121,-0.963,-0.005,-0.854,1.159,0.366,86.333
101202,138817,7845,-0.117,-0.964,-0.011,-0.854,1.159,0.366,86.339
101200,138785,19647,-0.114,-0.968,-0.009,-0.549,0.854,0.488,86.343
101200,138835,7846,-0.115,-0.969,-0.007,-0.549,0.854,0.488,86.349
101198,138785,19647,-0.121,-0.964,-0.007,-0.61,0.732,0.671,86.353
101198,138824,7842,-0.121,-0.96,-0.01,-0.61,0.732,0.671,86.359
101206,138785,19647,-0.122,-0.964,-0.01,-0.854,0.488,0.793,86.363
101206,138857,7849,-0.118,-0.97,-0.008,-0.854,0.488,0.793,86.369
101203,138785,19647,-0.116,-0.971,0.001,-0.732,0.305,0.854,86.372
101203,138861,7850,-0.118,-0.963,0.003,-0.732,0.305,0.854,86.379
101211,138785,19647,-0.122,-0.955,-0,-0.244,0.305,0.854,86.382
101211,138862,7845,-0.126,-0.948,0.002,-0.244,0.305,0.854,86.389
101217,138785,19647,-0.127,-0.948,0.001,0.061,0.366,0.488,86.392
101217,138854,7845,-0.127,-0.957,0.003,0.061,0.366,0.488,86.398
101233,138785,19647,-0.121,-0.964,0.01,-0.122,0.305,0.305,86.402
101233,138855,7848,-0.126,-0.965,0.008,-0.122,0.305,0.305,86.408
101207,138785,19647,-0.127,-0.963,0.007,-0.366,0.366,0.244,86.412
101207,138861,7844,-0.125,-0.964,0.007,-0.366,0.366,0.244,86.418
101234,138785,19647,-0.12,-0.969,0.005,-0.305,0.366,0.305,86.422
101234,138872,7848,-0.122,-0.976,0.006,-0.305,0.366,0.305,86.428
101228,138785,19647,-0.126,-0.974,0.001,-0.488,0.488,0.549,86.432
101228,138881,7834,-0.12,-0.969,-0.003,-0.488,0.488,0.549,86.438
101211,138785,19647,-0.123,-0.968,-0.009,-0.671,0.61,0.793,86.442
101211,138859,7849,-0.123,-0.967,-0.005,-0.671,0.61,0.793,86.448
101209,138785,19647,-0.12,-0.972,-0.005,-0.671,0.427,0.793,86.452
101209,138832,7855,-0.119,-0.971,-0,-0.671,0.427,0.793,86.458
101195,138785,19647,-0.116,-0.967,-0.003,-0.488,0.244,1.037,86.462
101195,138828,7836,-0.119,-0.959,-0.007,-0.488,0.244,1.037,86.468
101183,138785,19647,-0.121,-0.953,0,-0.183,0.122,1.098,86.471
101183,138842,7840,-0.121,-0.953,0.005,-0.183,0.122,1.098,86.478
101172,138785,19647,-0.121,-0.953,0.005,-0.183,0.122,1.098,86.481
101172,138826,7845,-0.118,-0.958,0.005,-0.732,0.122,0.915,86.488
101188,138785,19647,-0.118,-0.958,0.005,-0.732,0.122,0.915,86.491
101188,138843,7850,-0.121,-0.964,0.007,-1.159,0.488,0.732,86.497
101202,138785,19647,-0.121,-0.964,0.007,-1.159,0.488,0.732,86.501
101202,138846,7840,-0.123,-0.96,-0.003,-0.976,0.854,0.671,86.507
101201,138785,19647,-0.123,-0.96,-0.003,-0.976,0.854,0.671,86.511
101201,138847,7848,-0.121,-0.956,-0.003,-0.488,0.854,0.488,86.517
101203,138785,19647,-0.121,-0.956,-0.003,-0.488,0.854,0.488,86.521
101203,138836,7850,-0.119,-0.963,0,-0.366,0.549,0.366,86.527
101223,138785,19647,-0.119,-0.963,0,-0.366,0.549,0.366,86.531
101223,138853,7833,-0.118,-0.974,0.007,-0.976,0.427,0.427,86.537
101206,138785,19647,-0.118,-0.974,0.007,-0.976,0.427,0.427,86.541
101206,138843,7846,-0.123,-0.97,-0.003,-1.098,0.671,0.793,86.547
101214,138785,19647,-0.123,-0.97,-0.003,-1.098,0.671,0.793,86.551
101214,138876,7856,-0.123,-0.966,-0.004,-0.732,0.732,0.915,86.557
101229,138785,19647,-0.123,-0.966,-0.004,-0.732,0.732,0.915,86.561
101229,138859,7842,-0.127,-0.957,-0.014,-0.305,0.549,0.854,86.567
101191,138785,19647,-0.127,-0.957,-0.014,-0.305,0.549,0.854,86.57
101191,138834,7847,-0.121,-0.959,-0.002,-0.061,0.244,0.671,86.577
101199,138785,19647,-0.121,-0.959,-0.002,-0.061,0.244,0.671,86.58
101199,138834,7856,-0.122,-0.955,-0.001,0.366,-0.061,0.61,86.587
101203,138785,19647,-0.122,-0.955,-0.001,0.366,-0.061,0.61,86.59
101203,138848,7843,-0.123,-0.955,0.007,0.061,0.122,0.427,86.596
101187,138785,19647,-0.123,-0.955,0.007,0.061,0.122,0.427,86.6
101187,138850,7846,-0.121,-0.961,0.005,-0.427,0.427,0.305,86.606
101202,138785,19647,-0.121,-0.961,0.005,-0.427,0.427,0.305,86.61
101202,138827,7834,-0.117,-0.973,-0.001,-1.098,0.61,0.305,86.616
101208,138785,19647,-0.117,-0.973,-0.001,-1.098,0.61,0.305,86.62
101208,138856,7841,-0.123,-0.97,0.002,-0.976,0.854,0.427,86.626
101213,138785,19647,-0.124,-0.966,0.005,-0.976,0.854,0.427,86.63
101213,138848,7847,-0.119,-0.959,0.002,-0.061,0.671,0.427,86.636
101204,138785,19647,-0.119,-0.958,0.001,-0.061,0.671,0.427,86.64
101204,138838,7847,-0.121,-0.963,0.005,-0.732,0.732,0.366,86.646
101204,138785,19647,-0.122,-0.968,0.003,-0.732,0.732,0.366,86.65
101204,138840,7854,-0.119,-0.971,-0.007,-1.28,0.793,0.732,86.656
101201,138785,19647,-0.123,-0.971,-0.012,-1.28,0.793,0.732,86.66
101201,138838,7827,-0.123,-0.971,-0.014,-0.671,0.854,0.793,86.666
101183,138785,19647,-0.126,-0.969,-0.012,-0.671,0.854,0.793,86.67
101183,138848,7845,-0.128,-0.962,-0.013,0.549,0.427,0.671,86.676
101167,138785,19647,-0.125,-0.956,-0.012,0.549,0.427,0.671,86.679
101167,138852,7847,-0.12,-0.95,-0.014,0.488,0.061,0.305,86.686
101177,138785,19647,-0.121,-0.955,-0.011,0.488,0.061,0.305,86.689
101177,138812,7841,-0.125,-0.962,-0.005,0.061,-0.122,0.183,86.695
101157,138785,19647,-0.123,-0.961,0.006,0.061,-0.122,0.183,86.699
101157,138837,7847,-0.121,-0.964,0.005,0,-0.183,0.305,86.705
101183,138785,19647,-0.119,-0.969,0.003,0,-0.183,0.305,86.709
101183,138832,7851,-0.119,-0.966,0.001,-0.305,0,0.183,86.715
101171,138785,19647,-0.122,-0.96,0.005,-0.305,0,0.183,86.719
101171,138828,7837,-0.126,-0.957,-0.001,-0.122,0.366,0.122,86.725
101180,138785,19647,-0.126,-0.947,0.001,-0.122,0.366,0.122,86.729
101180,138800,7846,-0.128,-0.947,-0.004,-0.061,0.488,0.061,86.735
101166,138785,19647,-0.127,-0.955,-0.005,-0.061,0.488,0.061,86.739
101166,138807,7851,-0.122,-0.956,0.003,0.061,0.183,-0.244,86.745
101162,138785,19647,-0.123,-0.961,0.008,0.061,0.183,-0.244,86.749
101162,138808,7834,-0.118,-0.967,0.007,-0.061,0.183,-0.244,86.755
101152,138785,19647,-0.118,-0.974,0.002,-0.061,0.183,-0.244,86.759
101152,138805,7838,-0.118,-0.976,-0.002,-0.732,0.427,0,86.765
101156,138785,19647,-0.124,-0.971,-0.003,-0.732,0.427,0,86.768
101156,138818,7839,-0.127,-0.964,-0.003,-0.549,0.61,0.122,86.775
101138,138785,19647,-0.124,-0.965,0.004,-0.549,0.61,0.122,86.778
101138,138814,7843,-0.126,-0.974,0.004,-0.183,0.427,0.061,86.785
101157,138785,19647,-0.117,-0.968,0.002,-0.183,0.427,0.061,86.788
101157,138811,7845,-0.121,-0.977,-0.005,-0.061,0.244,0.244,86.794
101184,138785,19647,-0.119,-0.974,-0.008,-0.061,0.244,0.244,86.798
101184,138814,7831,-0.122,-0.965,-0.004,0.488,0.183,0.427,86.804
101176,138785,19647,-0.125,-0.951,-0.002,0.488,0.183,0.427,86.808
101176,138821,7834,-0.123,-0.943,0.003,0.793,0.061,0.183,86.814
101158,138785,19647,-0.12,-0.94,-0.004,0.793,0.061,0.183,86.818
101158,138824,7846,-0.119,-0.949,-0.005,-0.305,0.061,-0.061,86.824
101187,138785,19647,-0.12,-0.961,-0.007,-0.305,0.061,-0.061,86.828
101187,138834,7836,-0.126,-0.958,-0.009,-0.732,0.122,-0.061,86.834
101185,138785,19647,-0.128,-0.952,-0.001,-0.732,0.122,-0.061,86.838
101185,138838,7852,-0.126,-0.954,0.002,0.061,-0.183,-0.366,86.844
101207,138785,19647,-0.122,-0.961,0.001,0.061,-0.183,-0.366,86.848
101207,138824,7843,-0.118,-0.97,-0.001,0.366,-0.427,-0.671,86.854
101149,138785,19647,-0.121,-0.97,-0.002,0.366,-0.427,-0.671,86.858
101149,138824,7844,-0.123,-0.968,0.002,0.183,0.061,-0.671,86.864
101192,138785,19647,-0.126,-0.967,0,0.183,0.061,-0.671,86.868
101192,138814,7850,-0.125,-0.968,0.004,0.305,0.122,-0.61,86.874
101165,138785,19647,-0.125,-0.972,0.001,0.305,0.122,-0.61,86.877
101165,138805,7843,-0.121,-0.972,-0.006,0.061,-0.061,-0.488,86.884
101166,138785,19647,-0.124,-0.974,-0.002,0.061,-0.061,-0.488,86.887
101166,138841,7840,-0.123,-0.968,-0.007,0.366,-0.061,-0.122,86.893
101153,138785,19647,-0.125,-0.96,-0.001,0.366,-0.061,-0.122,86.897
101153,138850,7842,-0.122,-0.955,0.007,0.732,-0.305,-0.061,86.903
101184,138785,19647,-0.116,-0.954,0.01,0.732,-0.305,-0.061,86.907
101184,138840,7836,-0.114,-0.954,0,0.244,-0.366,-0.305,86.913
101168,138785,19647,-0.12,-0.957,-0.002,0.244,-0.366,-0.305,86.917
101168,138837,7842,-0.12,-0.96,-0.003,-0.671,0.061,-0.244,86.923
101164,138785,19647,-0.12,-0.957,-0.004,-0.671,0.061,-0.244,86.927
101164,138828,7851,-0.118,-0.96,0,-0.732,0,-0.366,86.933
101176,138785,19647,-0.113,-0.957,0.003,-0.732,0,-0.366,86.937
101176,138837,7846,-0.117,-0.957,0.006,-0.671,-0.122,-0.488,86.943
101185,138785,19647,-0.12,-0.958,-0.001,-0.671,-0.122,-0.488,86.947
101185,138811,7842,-0.12,-0.96,-0.004,-1.098,-0.061,-0.549,86.953
101153,138785,19647,-0.118,-0.963,-0.008,-1.098,-0.061,-0.549,86.957
101153,138818,7839,-0.121,-0.969,-0.006,-1.159,0.122,-0.732,86.963
101169,138785,19647,-0.125,-0.973,-0.004,-1.159,0.122,-0.732,86.966
101169,138827,7844,-0.124,-0.968,-0.002,-0.61,-0.183,-0.61,86.973
101184,138785,19647,-0.121,-0.969,-0.001,-0.61,-0.183,-0.61,86.976
101184,138825,7848,-0.114,-0.974,0.004,-0.366,-0.488,-0.671,86.983
101151,138785,19647,-0.117,-0.97,0.006,-0.366,-0.488,-0.671,86.986
101151,138793,7846,-0.116,-0.97,0,-0.305,-0.305,-0.366,86.992
101154,138785,19647,-0.117,-0.97,0,-0.305,-0.305,-0.366,86.996
101154,138824,7850,-0.12,-0.97,0.011,-0.366,0.122,-0.061,87.002
101163,138785,19647,-0.121,-0.966,0.013,-0.366,0.122,-0.061,87.006
101163,138841,7833,-0.118,-0.964,0.008,-0.122,0.305,0,87.012
101152,138785,19647,-0.114,-0.964,0.002,-0.122,0.305,0,87.016
101152,138807,7839,-0.117,-0.97,0.003,-0.366,0.427,0.122,87.022
101154,138785,19647,-0.117,-0.971,0.005,-0.366,0.427,0.122,87.026
101154,138811,7837,-0.118,-0.966,0.003,-0.244,0.488,0.366,87.032
101143,138785,19647,-0.116,-0.967,-0.001,-0.244,0.488,0.366,87.036
101143,138820,7832,-0.114,-0.964,-0.007,0.427,0.366,0.244,87.042
101154,138785,19647,-0.115,-0.961,-0.005,0.427,0.366,0.244,87.046
101154,138820,7848,-0.115,-0.961,-0.008,0.793,0.183,0.183,87.052
101158,138785,19647,-0.117,-0.957,-0.013,0.793,0.183,0.183,87.056
101158,138792,7860,-0.118,-0.958,-0.015,0.183,0.244,0.183,87.062
101156,138785,19647,-0.118,-0.965,-0.017,0.183,0.244,0.183,87.066
101156,138821,7849,-0.115,-0.963,-0.015,-0.183,0,0.183,87.072
101170,138785,19647,-0.115,-0.963,-0.015,-0.183,0,0.183,87.075
101170,138816,7828,-0.116,-0.957,0.007,0.488,-0.183,0,87.082
101174,138785,19647,-0.116,-0.957,0.007,0.488,-0.183,0,87.085
101174,138817,7830,-0.109,-0.954,0.014,0.366,0.061,-0.122,87.091
101157,138785,19647,-0.109,-0.954,0.014,0.366,0.061,-0.122,87.095
101157,138842,7841,-0.116,-0.961,0.002,-0.915,0.915,-0.061,87.101
101145,138785,19647,-0.116,-0.961,0.002,-0.915,0.915,-0.061,87.105
101145,138846,7846,-0.123,-0.963,0.002,-0.793,1.098,-0.122,87.111
101151,138785,19647,-0.123,-0.963,0.002,-0.793,1.098,-0.122,87.115
101151,138850,7851,-0.118,-0.967,0.001,-0.671,0.793,-0.305,87.121
101140,138785,19647,-0.118,-0.967,0.001,-0.671,0.793,-0.305,87.125
101140,138825,7844,-0.119,-0.967,-0.002,-0.671,0.61,-0.122,87.131
101129,138785,19647,-0.119,-0.967,-0.002,-0.671,0.61,-0.122,87.135
101129,138808,7850,-0.123,-0.966,0.008,-0.61,0.671,0.122,87.141
101132,138785,19647,-0.123,-0.966,0.008,-0.61,0.671,0.122,87.145
101132,138813,7841,-0.116,-0.963,0.01,-0.793,0.549,0.305,87.151
101128,138785,19647,-0.116,-0.963,0.01,-0.793,0.549,0.305,87.155
101128,138799,7833,-0.116,-0.968,0,-1.22,0.854,0.427,87.161
101134,138785,19647,-0.116,-0.968,0,-1.22,0.854,0.427,87.164
101134,138810,7834,-0.114,-0.967,-0.011,-0.976,0.976,0.427,87.171
101131,138785,19647,-0.114,-0.967,-0.011,-0.976,0.976,0.427,87.174
101131,138805,7839,-0.12,-0.959,-0.021,-0.488,0.793,0.488,87.181
101110,138785,19647,-0.12,-0.959,-0.021,-0.488,0.793,0.488,87.184
101110,138815,7844,-0.121,-0.954,-0.008,0.183,0.305,0.244,87.19
101139,138785,19647,-0.121,-0.954,-0.008,0.183,0.305,0.244,87.194
101139,138805,7835,-0.118,-0.955,-0.017,0,0,-0.366,87.2
101106,138785,19647,-0.118,-0.955,-0.017,0,0,-0.366,87.204
101106,138817,7846,-0.117,-0.973,-0.002,0.305,0,-0.61,87.21
101095,138785,19647,-0.117,-0.973,-0.002,0.305,0,-0.61,87.214
101095,138818,7845,-0.121,-0.974,0.005,0.305,0,-0.61,87.22
101125,138785,19647,-0.119,-0.964,0.016,0.915,-0.122,-0.427,87.224
101125,138808,7827,-0.12,-0.973,0.019,0.915,-0.122,-0.427,87.23
101131,138785,19647,-0.114,-0.968,0.014,0.732,0.183,-0.305,87.234
101131,138800,7822,-0.115,-0.968,-0.001,0.732,0.183,-0.305,87.24
101119,138785,19647,-0.118,-0.971,-0.005,-0.427,0.793,0.244,87.244
101119,138768,7835,-0.126,-0.972,-0.001,-0.427,0.793,0.244,87.25
101125,138785,19647,-0.126,-0.97,-0.004,-0.549,0.915,0.427,87.254
101125,138802,7834,-0.122,-0.965,-0.005,-0.549,0.915,0.427,87.26
101110,138785,19647,-0.123,-0.963,-0.008,-0.244,0.305,0.366,87.263
101110,138786,7839,-0.12,-0.958,-0.009,-0.244,0.305,0.366,87.27
101104,138785,19647,-0.118,-0.958,-0.01,0.366,-0.122,0.366,87.273
101104,138795,7841,-0.121,-0.956,-0.005,0.366,-0.122,0.366,87.28
101111,138785,19647,-0.12,-0.954,-0.003,0.427,-0.305,0.244,87.283
101111,138802,7835,-0.122,-0.958,-0.005,0.427,-0.305,0.244,87.289
101106,138785,19647,-0.115,-0.961,-0.001,0.122,-0.488,0,87.293
101106,138813,7829,-0.114,-0.967,-0,0.122,-0.488,0,87.299
101099,138785,19647,-0.116,-0.969,-0.007,0.183,-0.549,0.061,87.303
101099,138815,7842,-0.119,-0.966,-0.008,0.183,-0.549,0.061,87.309
101108,138785,19647,-0.119,-0.969,-0.005,0.366,-0.488,-0.061,87.313
101108,138812,7839,-0.118,-0.968,0.01,0.366,-0.488,-0.061,87.319
101093,138785,19647,-0.116,-0.967,0.02,0.549,-0.549,-0.122,87.323
101093,138804,7834,-0.115,-0.966,0.025,0.549,-0.549,-0.122,87.329
101113,138785,19647,-0.111,-0.967,0.017,-0.183,-0.244,0.122,87.333
101113,138814,7840,-0.114,-0.97,0.01,-0.183,-0.244,0.122,87.339
101123,138785,19647,-0.118,-0.968,0.007,-0.976,0.427,0.549,87.343
101123,138802,7844,-0.121,-0.965,0.007,-0.976,0.427,0.549,87.349
101129,138785,19647,-0.121,-0.962,0.001,-0.793,0.61,0.793,87.353
101129,138814,7842,-0.118,-0.962,-0.001,-0.793,0.61,0.793,87.359
101103,138785,19647,-0.115,-0.962,-0.011,-0.61,0.488,0.671,87.362
101103,138813,7838,-0.118,-0.96,-0.012,-0.61,0.488,0.671,87.369
101100,138785,19647,-0.118,-0.959,-0.013,-0.427,0.122,0.671,87.372
101100,138811,7836,-0.117,-0.955,-0.007,-0.427,0.122,0.671,87.379
101111,138785,19647,-0.117,-0.952,-0.007,-0.061,-0.183,0.427,87.382
101111,138799,7844,-0.112,-0.955,-0.005,-0.061,-0.183,0.427,87.388
101136,138785,19647,-0.113,-0.961,-0.005,-0.244,-0.244,0.183,87.392
101136,138810,7829,-0.113,-0.964,0.002,-0.244,-0.244,0.183,87.398
101120,138785,19647,-0.115,-0.962,0.002,-0.61,-0.183,0.061,87.402
101120,138807,7854,-0.118,-0.962,0.003,-0.61,-0.183,0.061,87.408
101128,138785,19647,-0.117,-0.97,0.002,-0.549,0.061,0.122,87.412
101128,138838,7849,-0.111,-0.976,0.01,-0.549,0.061,0.122,87.418
101142,138785,19647,-0.113,-0.973,0.001,-0.244,0.122,0.305,87.422
101142,138828,7838,-0.118,-0.966,-0.005,-0.244,0.122,0.305,87.428
101143,138785,19647,-0.123,-0.965,-0.002,-0.122,0.366,0.488,87.432
101143,138833,7842,-0.122,-0.967,0.004,-0.122,0.366,0.488,87.438
101157,138785,19647,-0.118,-0.966,0.004,0.305,0.366,0.488,87.442
101157,138845,7858,-0.114,-0.968,-0,0.305,0.366,0.488,87.448
101156,138785,19647,-0.117,-0.969,-0.005,0,0.366,0.427,87.452
101156,138845,7837,-0.123,-0.967,-0.008,0,0.366,0.427,87.458
101168,138785,19647,-0.122,-0.963,-0.004,-0.183,0.427,0.549,87.461
101168,138836,7855,-0.122,-0.959,-0.003,-0.183,0.427,0.549,87.468
101147,138785,19647,-0.12,-0.961,-0.005,0.305,0.061,0.427,87.471
101147,138836,7848,-0.114,-0.958,-0.006,0.305,0.061,0.427,87.478
101170,138785,19647,-0.112,-0.956,-0.004,0.366,-0.122,0.305,87.481
101170,138843,7859,-0.115,-0.959,0.005,0.366,-0.122,0.305,87.487
101131,138785,19647,-0.116,-0.96,0.006,0.244,0.122,0.183,87.491
101131,138818,7858,-0.116,-0.959,0.012,0.244,0.122,0.183,87.497
101123,138785,19647,-0.114,-0.967,0.015,0.061,0.305,0.305,87.501
101123,138820,7850,-0.111,-0.967,0.013,0.061,0.305,0.305,87.507
