101580,139553,19647,-0.07,-0.968,0.121,-0.427,0.305,0.183,547.068
101580,139530,7796,-0.071,-0.961,0.12,-0.61,0.549,0.183,547.074
101593,139553,19647,-0.071,-0.961,0.12,-0.61,0.549,0.183,547.078
101593,139544,7805,-0.074,-0.956,0.116,-0.915,0.732,0.244,547.084
101584,139553,19647,-0.074,-0.956,0.116,-0.915,0.732,0.244,547.088
101584,139541,7786,-0.073,-0.958,0.112,-0.671,0.488,0.122,547.094
101601,139297,19647,-0.073,-0.958,0.112,-0.671,0.488,0.122,547.098
101601,139518,7803,-0.072,-0.962,0.115,-0.244,0.366,0.183,547.104
101586,139297,19647,-0.072,-0.962,0.115,-0.244,0.366,0.183,547.107
101586,139501,7804,-0.069,-0.961,0.117,-0.061,0.244,0.183,547.114
101564,139297,19647,-0.069,-0.961,0.117,-0.061,0.244,0.183,547.117
101564,139515,7803,-0.071,-0.96,0.113,-0.183,0.488,0.183,547.123
101575,139297,19647,-0.071,-0.96,0.113,-0.183,0.488,0.183,547.127
101575,139494,7797,-0.076,-0.966,0.102,-0.183,0.427,0.244,547.133
101585,139553,19647,-0.076,-0.966,0.102,-0.183,0.427,0.244,547.137
101585,139525,7792,-0.07,-0.972,0.113,0.488,-0.183,0.488,547.143
101563,139297,19647,-0.07,-0.972,0.113,0.488,-0.183,0.488,547.147
101563,139502,7810,-0.066,-0.965,0.126,0.427,-0.305,0.427,547.153
101575,139297,19647,-0.066,-0.965,0.126,0.427,-0.305,0.427,547.157
101575,139492,7789,-0.068,-0.964,0.124,0.427,-0.305,0.427,547.163
101547,139297,19647,-0.07,-0.958,0.12,-0.427,0.488,0.427,547.167
101547,139499,7795,-0.071,-0.954,0.115,-0.427,0.488,0.427,547.173
101556,139297,19647,-0.073,-0.956,0.113,-0.732,0.854,0.671,547.177
101556,139506,7794,-0.076,-0.957,0.115,-0.732,0.854,0.671,547.183
101567,139297,19647,-0.073,-0.959,0.118,-0.305,0.671,0.61,547.187
101567,139488,7794,-0.071,-0.958,0.114,-0.305,0.671,0.61,547.193
101571,139297,19647,-0.071,-0.958,0.121,-0.244,0.366,0.427,547.196
101571,139495,7802,-0.07,-0.96,0.118,-0.244,0.366,0.427,547.203
101580,139553,19647,-0.072,-0.961,0.111,-0.488,0.61,0.488,547.206
101580,139534,7798,-0.076,-0.962,0.11,-0.488,0.61,0.488,547.213
101586,139553,19647,-0.076,-0.96,0.112,-0.122,0.549,0.549,547.216
101586,139529,7798,-0.074,-0.963,0.115,-0.122,0.549,0.549,547.222
101565,139297,19647,-0.071,-0.964,0.116,0.366,0.183,0.427,547.226
101565,139515,7803,-0.072,-0.965,0.12,0.366,0.183,0.427,547.232
101597,139553,19647,-0.069,-0.966,0.124,0.244,0.061,0.427,547.236
101597,139524,7790,-0.066,-0.967,0.121,0.244,0.061,0.427,547.242
101570,139297,19647,-0.068,-0.967,0.12,-0.549,0.427,0.61,547.246
101570,139497,7786,-0.069,-0.964,0.124,-0.549,0.427,0.61,547.252
101572,139553,19647,-0.076,-0.96,0.117,-0.976,0.854,0.671,547.256
101572,139526,7807,-0.076,-0.96,0.111,-0.976,0.854,0.671,547.262
101583,139553,19647,-0.076,-0.964,0.114,-0.854,0.793,0.61,547.266
101583,139522,7791,-0.073,-0.96,0.113,-0.854,0.793,0.61,547.272
101587,139297,19647,-0.072,-0.958,0.114,-0.549,0.488,0.427,547.276
101587,139517,7801,-0.073,-0.957,0.112,-0.549,0.488,0.427,547.282
101580,139297,19647,-0.078,-0.957,0.108,-0.366,0.366,0.427,547.286
101580,139504,7802,-0.076,-0.96,0.109,-0.366,0.366,0.427,547.292
101568,139553,19647,-0.076,-0.964,0.11,0.305,0.061,0.305,547.295
101568,139527,7801,-0.073,-0.96,0.113,0.305,0.061,0.305,547.302
101577,139297,19647,-0.073,-0.959,0.117,0.854,-0.244,0,547.305
101577,139488,7802,-0.072,-0.96,0.119,0.854,-0.244,0,547.312
101569,139297,19647,-0.073,-0.961,0.115,0.549,-0.244,-0.061,547.315
101569,139510,7815,-0.07,-0.966,0.116,0.549,-0.244,-0.061,547.321
101566,139297,19647,-0.068,-0.969,0.121,0.366,-0.122,0.122,547.325
101566,139514,7795,-0.068,-0.969,0.116,0.366,-0.122,0.122,547.331
101559,139297,19647,-0.071,-0.966,0.122,0.183,0,0.305,547.335
101559,139510,7794,-0.072,-0.962,0.117,0.183,0,0.305,547.341
101565,139297,19647,-0.074,-0.963,0.116,-0.488,0.366,0.366,547.345
101565,139514,7803,-0.072,-0.96,0.115,-0.488,0.366,0.366,547.351
101578,139297,19647,-0.073,-0.962,0.11,-0.305,0.427,0.427,547.355
101578,139509,7797,-0.077,-0.963,0.114,-0.305,0.427,0.427,547.361
101579,139297,19647,-0.074,-0.959,0.116,0.183,0.244,0.366,547.365
101579,139516,7802,-0.074,-0.953,0.118,0.183,0.244,0.366,547.371
101565,139297,19647,-0.073,-0.952,0.12,0.244,0.061,0.183,547.375
101565,139510,7797,-0.07,-0.953,0.118,0.244,0.061,0.183,547.381
101558,139297,19647,-0.073,-0.958,0.119,-0.061,0.061,0.061,547.385
101558,139513,7813,-0.071,-0.966,0.119,-0.061,0.061,0.061,547.391
101563,139297,19647,-0.069,-0.969,0.123,-0.061,0.122,0.183,547.394
101563,139510,7796,-0.068,-0.966,0.121,-0.061,0.122,0.183,547.401
101577,139553,19647,-0.069,-0.963,0.123,-0.427,0.244,0.305,547.404
101577,139532,7799,-0.067,-0.965,0.121,-0.427,0.244,0.305,547.411
101576,139297,19647,-0.071,-0.966,0.121,-0.915,0.671,0.488,547.414
101576,139506,7798,-0.07,-0.964,0.121,-0.915,0.671,0.488,547.42
101574,139297,19647,-0.072,-0.963,0.122,-1.28,1.037,0.61,547.424
101574,139518,7802,-0.075,-0.964,0.117,-1.28,1.037,0.61,547.43
101560,139297,19647,-0.075,-0.959,0.111,-1.341,1.159,0.671,547.434
101560,139509,7812,-0.075,-0.958,0.114,-1.341,1.159,0.671,547.44
101583,139553,19647,-0.073,-0.957,0.115,-0.976,1.037,0.549,547.444
101583,139522,7795,-0.073,-0.957,0.117,-0.976,1.037,0.549,547.45
101579,139553,19647,-0.072,-0.953,0.111,-0.427,0.976,0.366,547.454
101579,139537,7780,-0.072,-0.953,0.109,-0.427,0.976,0.366,547.46
101562,139553,19647,-0.074,-0.956,0.103,-0.427,0.732,0.305,547.464
101562,139548,7809,-0.076,-0.962,0.101,-0.427,0.732,0.305,547.47
101579,139553,19647,-0.078,-0.968,0.106,-0.061,0.366,0.366,547.474
101579,139554,7804,-0.074,-0.974,0.109,-0.061,0.366,0.366,547.48
101587,139553,19647,-0.071,-0.973,0.117,0.732,-0.244,0.427,547.484
101587,139527,7790,-0.071,-0.968,0.115,0.732,-0.244,0.427,547.49
101576,139553,19647,-0.071,-0.971,0.119,0.671,-0.244,0.488,547.493
101576,139552,7814,-0.073,-0.972,0.117,0.671,-0.244,0.488,547.5
101589,139553,19647,-0.076,-0.966,0.12,0.183,0.061,0.671,547.503
101589,139536,7797,-0.076,-0.963,0.12,0.183,0.061,0.671,547.51
101575,139297,19647,-0.075,-0.957,0.12,0,0.305,0.549,547.513
101575,139505,7796,-0.074,-0.953,0.12,0,0.305,0.549,547.519
101587,139553,19647,-0.077,-0.95,0.121,-0.427,0.61,0.305,547.523
101587,139540,7800,-0.076,-0.954,0.121,-0.427,0.61,0.305,547.529
101572,139553,19647,-0.073,-0.956,0.119,-0.854,0.732,0.122,547.533
101572,139533,7800,-0.071,-0.958,0.114,-0.854,0.732,0.122,547.539
101592,139553,19647,-0.074,-0.96,0.114,-0.488,0.488,0,547.543
101592,139534,7793,-0.073,-0.96,0.118,-0.488,0.488,0,547.549
101590,139553,19647,-0.073,-0.955,0.113,-0.122,0.366,-0.122,547.553
101590,139520,7804,-0.073,-0.955,0.114,-0.122,0.366,-0.122,547.559
101590,139553,19647,-0.073,-0.963,0.124,0.061,0.183,-0.244,547.563
101590,139560,7796,-0.069,-0.97,0.115,0.061,0.183,-0.244,547.569
101594,139553,19647,-0.067,-0.971,0.117,0.183,0,-0.122,547.573
101594,139529,7792,-0.069,-0.973,0.121,0.183,0,-0.122,547.579
101595,139553,19647,-0.07,-0.969,0.123,-0.061,0,0.244,547.583
101595,139549,7802,-0.071,-0.968,0.12,-0.061,0,0.244,547.589
101607,139553,19647,-0.071,-0.966,0.121,-0.427,0.366,0.488,547.592
101607,139559,7806,-0.07,-0.961,0.116,-0.427,0.366,0.488,547.599
101598,139553,19647,-0.07,-0.961,0.116,-0.427,0.366,0.488,547.602
101598,139544,7800,-0.073,-0.961,0.116,-0.549,0.549,0.488,547.609
101575,139553,19647,-0.073,-0.961,0.116,-0.549,0.549,0.488,547.612
101575,139553,7802,-0.07,-0.957,0.113,-0.305,0.549,0.427,547.618
101610,139553,19647,-0.07,-0.957,0.113,-0.305,0.549,0.427,547.622
101610,139568,7805,-0.076,-0.962,0.109,-0.61,0.671,0.427,547.628
101596,139553,19647,-0.076,-0.962,0.109,-0.61,0.671,0.427,547.632
101596,139558,7801,-0.074,-0.963,0.105,-0.244,0.549,0.244,547.638
101606,139553,19647,-0.074,-0.963,0.105,-0.244,0.549,0.244,547.642
101606,139552,7813,-0.074,-0.956,0.108,0.366,0.366,0.122,547.648
101615,139553,19647,-0.074,-0.956,0.108,0.366,0.366,0.122,547.652
101615,139557,7809,-0.067,-0.968,0.113,0.549,0.183,0.061,547.658
101606,139553,19647,-0.067,-0.968,0.113,0.549,0.183,0.061,547.662
101606,139544,7816,-0.064,-0.972,0.123,0.732,-0.061,0.244,547.668
101626,139553,19647,-0.064,-0.972,0.123,0.732,-0.061,0.244,547.672
101626,139529,7803,-0.07,-0.972,0.119,0.122,0.061,0.61,547.678
101606,139553,19647,-0.07,-0.972,0.119,0.122,0.061,0.61,547.682
101606,139559,7811,-0.076,-0.963,0.119,-0.305,0.366,0.976,547.688
101616,139553,19647,-0.076,-0.963,0.119,-0.305,0.366,0.976,547.691
101616,139579,7810,-0.074,-0.955,0.122,-0.122,0.366,0.793,547.698
101601,139297,19647,-0.074,-0.955,0.122,-0.122,0.366,0.793,547.701
101601,139519,7808,-0.076,-0.957,0.124,0.366,0.183,0.549,547.707
101593,139553,19647,-0.076,-0.957,0.124,0.366,0.183,0.549,547.711
101593,139577,7797,-0.071,-0.952,0.12,0.366,0.183,0.488,547.717
101600,139553,19647,-0.071,-0.952,0.12,0.366,0.183,0.488,547.721
101600,139559,7813,-0.073,-0.952,0.124,-0.061,0.427,0.122,547.727
101609,139553,19647,-0.073,-0.952,0.124,-0.061,0.427,0.122,547.731
101609,139581,7798,-0.069,-0.951,0.12,-0.061,0.793,0.061,547.737
101614,139553,19647,-0.069,-0.951,0.12,-0.061,0.793,0.061,547.741
101614,139551,7790,-0.071,-0.961,0.12,-0.549,0.915,0,547.747
101598,139553,19647,-0.069,-0.969,0.116,-0.549,0.915,0,547.751
101598,139551,7800,-0.068,-0.972,0.104,-1.28,0.915,0.122,547.757
101598,139553,19647,-0.071,-0.977,0.104,-1.28,0.915,0.122,547.761
101598,139560,7808,-0.072,-0.978,0.104,-1.22,0.793,0.427,547.767
101589,139553,19647,-0.076,-0.976,0.105,-1.22,0.793,0.427,547.771
101589,139545,7813,-0.078,-0.969,0.104,-0.671,0.549,0.61,547.777
101618,139553,19647,-0.075,-0.966,0.106,-0.671,0.549,0.61,547.781
101618,139548,7793,-0.077,-0.965,0.105,-0.122,0.305,0.488,547.787
101620,139553,19647,-0.074,-0.963,0.11,-0.122,0.305,0.488,547.79
101620,139542,7796,-0.075,-0.957,0.114,0.305,-0.061,0.427,547.797
101611,139553,19647,-0.071,-0.955,0.115,0.305,-0.061,0.427,547.8
101611,139554,7804,-0.073,-0.954,0.123,0.305,-0.122,0.366,547.807
101603,139553,19647,-0.072,-0.953,0.119,0.305,-0.122,0.366,547.81
101603,139544,7816,-0.071,-0.955,0.122,0.183,0.183,0.183,547.816
101616,139553,19647,-0.073,-0.957,0.117,0.183,0.183,0.183,547.82
101616,139566,7809,-0.072,-0.963,0.119,0.061,0.366,0.122,547.826
101615,139553,19647,-0.07,-0.964,0.12,0.061,0.366,0.122,547.83
101615,139542,7818,-0.065,-0.967,0.121,-0.183,0.549,0.061,547.836
101596,139553,19647,-0.065,-0.966,0.121,-0.183,0.549,0.061,547.84
101596,139543,7811,-0.068,-0.961,0.12,-0.671,0.915,0.183,547.846
101616,139553,19647,-0.07,-0.96,0.12,-0.671,0.915,0.183,547.85
101616,139563,7805,-0.071,-0.963,0.121,-0.915,1.037,0.488,547.856
101588,139553,19647,-0.07,-0.965,0.114,-0.915,1.037,0.488,547.86
101588,139540,7807,-0.071,-0.963,0.111,-0.732,1.037,0.671,547.866
101606,139553,19647,-0.074,-0.962,0.116,-0.732,1.037,0.671,547.87
101606,139584,7790,-0.073,-0.959,0.119,-0.427,0.915,0.732,547.876
101626,139553,19647,-0.07,-0.955,0.118,-0.427,0.915,0.732,547.88
101626,139578,7813,-0.072,-0.955,0.117,-0.427,0.732,0.549,547.886
101608,139553,19647,-0.071,-0.956,0.116,-0.427,0.732,0.549,547.889
101608,139579,7810,-0.073,-0.963,0.116,-0.366,0.671,0.488,547.896
101604,139553,19647,-0.071,-0.961,0.111,-0.366,0.671,0.488,547.899
101604,139561,7796,-0.073,-0.963,0.111,-0.427,0.488,0.671,547.905
101619,139553,19647,-0.073,-0.964,0.108,-0.427,0.488,0.671,547.909
101619,139544,7813,-0.071,-0.962,0.107,-0.366,0.427,0.488,547.915
101610,139553,19647,-0.075,-0.966,0.109,-0.366,0.427,0.488,547.919
101610,139575,7800,-0.078,-0.967,0.108,-0.061,0.366,0.488,547.925
101618,139553,19647,-0.077,-0.969,0.11,-0.061,0.366,0.488,547.929
101618,139544,7779,-0.078,-0.97,0.106,0,0.183,0.549,547.935
101606,139553,19647,-0.079,-0.966,0.109,0,0.183,0.549,547.939
101606,139555,7803,-0.076,-0.962,0.11,0.427,0,0.488,547.945
101621,139553,19647,-0.079,-0.961,0.111,0.427,0,0.488,547.949
101621,139564,7805,-0.075,-0.959,0.112,0.854,-0.244,0.305,547.955
101611,139553,19647,-0.076,-0.959,0.119,0.854,-0.244,0.305,547.959
101611,139525,7802,-0.074,-0.959,0.125,0.854,-0.488,0,547.965
101620,139553,19647,-0.073,-0.96,0.123,0.854,-0.488,0,547.969
101620,139571,7803,-0.072,-0.963,0.123,0.61,-0.366,-0.122,547.975
101597,139553,19647,-0.074,-0.964,0.126,0.61,-0.366,-0.122,547.979
101597,139557,7802,-0.07,-0.961,0.128,0.122,-0.122,0.061,547.985
101593,139553,19647,-0.069,-0.96,0.124,0.122,-0.122,0.061,547.988
101593,139563,7800,-0.069,-0.961,0.121,-0.732,0.305,0.244,547.995
101586,139553,19647,-0.068,-0.963,0.122,-0.732,0.305,0.244,547.998
101586,139549,7797,-0.069,-0.964,0.122,-0.854,0.671,0.305,548.004
101594,139553,19647,-0.07,-0.967,0.119,-0.854,0.671,0.305,548.008
101594,139551,7803,-0.07,-0.965,0.111,-0.915,0.793,0.488,548.014
101591,139553,19647,-0.075,-0.959,0.109,-0.915,0.793,0.488,548.018
101591,139559,7792,-0.075,-0.958,0.11,-0.976,0.732,0.549,548.024
101576,139553,19647,-0.071,-0.959,0.116,-0.976,0.732,0.549,548.028
101576,139536,7809,-0.071,-0.953,0.116,-0.183,0.488,0.305,548.034
101571,139553,19647,-0.069,-0.95,0.115,-0.183,0.488,0.305,548.038
101571,139544,7808,-0.072,-0.952,0.115,0.122,0.366,0.061,548.044
101591,139297,19647,-0.07,-0.955,0.12,0.122,0.366,0.061,548.048
101591,139509,7798,-0.069,-0.96,0.114,-0.122,0.305,0,548.054
101587,139297,19647,-0.07,-0.966,0.109,-0.122,0.305,0,548.058
101587,139510,7803,-0.07,-0.973,0.109,-0.305,0.305,0.244,548.064
101567,139553,19647,-0.07,-0.974,0.111,-0.305,0.305,0.244,548.068
101567,139521,7803,-0.069,-0.971,0.113,-0.183,0.244,0.427,548.074
101581,139553,19647,-0.069,-0.966,0.115,-0.183,0.244,0.427,548.077
101581,139537,7800,-0.071,-0.966,0.12,0,0.366,0.61,548.084
101597,139553,19647,-0.073,-0.965,0.121,0,0.366,0.61,548.087
101597,139534,7798,-0.069,-0.966,0.119,-0.488,0.61,0.793,548.094
101571,139553,19647,-0.071,-0.961,0.118,-0.488,0.61,0.793,548.097
101571,139548,7788,-0.072,-0.958,0.115,-0.915,0.671,0.793,548.103
101605,139553,19647,-0.076,-0.957,0.118,-0.915,0.671,0.793,548.107
101605,139522,7807,-0.073,-0.96,0.116,-0.671,0.732,0.671,548.113
101568,139553,19647,-0.075,-0.962,0.118,-0.671,0.732,0.671,548.117
101568,139534,7806,-0.074,-0.958,0.121,-0.366,0.732,0.488,548.123
101599,139553,19647,-0.074,-0.953,0.117,-0.366,0.732,0.488,548.127
101599,139537,7786,-0.074,-0.954,0.116,-0.427,0.671,0.366,548.133
101570,139297,19647,-0.076,-0.957,0.112,-0.427,0.671,0.366,548.137
101570,139509,7795,-0.073,-0.961,0.113,-0.549,0.671,0.305,548.143
101570,139553,19647,-0.07,-0.962,0.119,-0.549,0.671,0.305,548.147
101570,139545,7801,-0.072,-0.964,0.114,-0.427,0.549,0.244,548.153
101587,139297,19647,-0.073,-0.965,0.114,-0.427,0.549,0.244,548.157
101587,139519,7795,-0.073,-0.971,0.112,-0.244,0.61,0.183,548.163
101593,139553,19647,-0.073,-0.971,0.114,-0.244,0.61,0.183,548.167
101593,139538,7801,-0.072,-0.965,0.112,-0.244,0.488,0.488,548.173
101576,139553,19647,-0.072,-0.965,0.112,-0.244,0.488,0.488,548.177
101576,139524,7802,-0.074,-0.961,0.117,0,0.366,0.549,548.183
101606,139553,19647,-0.074,-0.961,0.117,0,0.366,0.549,548.186
101606,139541,7795,-0.073,-0.957,0.117,0,0.305,0.549,548.193
101582,139553,19647,-0.073,-0.957,0.117,0,0.305,0.549,548.196
101582,139537,7809,-0.078,-0.959,0.115,-0.183,0.305,0.549,548.202
101579,139553,19647,-0.078,-0.959,0.115,-0.183,0.305,0.549,548.206
101579,139521,7807,-0.073,-0.963,0.111,-0.244,0.183,0.61,548.212
101565,139553,19647,-0.073,-0.963,0.111,-0.244,0.183,0.61,548.216
101565,139531,7811,-0.074,-0.961,0.117,0.061,0.183,0.244,548.222
101577,139553,19647,-0.074,-0.961,0.117,0.061,0.183,0.244,548.226
101577,139529,7809,-0.078,-0.957,0.106,0.061,0.122,0.122,548.232
101551,139553,19647,-0.078,-0.957,0.106,0.061,0.122,0.122,548.236
101551,139536,7801,-0.071,-0.968,0.112,0.61,-0.183,0,548.242
101577,139553,19647,-0.071,-0.968,0.112,0.61,-0.183,0,548.246
101577,139520,7793,-0.07,-0.964,0.123,0.976,-0.305,-0.061,548.252
101571,139297,19647,-0.07,-0.964,0.123,0.976,-0.305,-0.061,548.256
101571,139508,7783,-0.073,-0.96,0.124,0.549,-0.122,0.061,548.262
101559,139297,19647,-0.073,-0.96,0.124,0.549,-0.122,0.061,548.266
101559,139514,7782,-0.071,-0.967,0.121,-0.183,0.122,0.305,548.272
101570,139297,19647,-0.071,-0.967,0.121,-0.183,0.122,0.305,548.275
101570,139504,7798,-0.069,-0.965,0.123,-0.61,0.305,0.427,548.282
101563,139297,19647,-0.069,-0.965,0.123,-0.61,0.305,0.427,548.285
101563,139502,7796,-0.073,-0.957,0.118,-0.732,0.793,0.305,548.292
101557,139553,19647,-0.073,-0.957,0.118,-0.732,0.793,0.305,548.295
101557,139540,7802,-0.076,-0.962,0.116,-0.976,0.976,0.366,548.301
101566,139553,19647,-0.076,-0.962,0.116,-0.976,0.976,0.366,548.305
101566,139539,7798,-0.072,-0.959,0.112,-0.793,0.671,0.366,548.311
101581,139553,19647,-0.072,-0.959,0.112,-0.793,0.671,0.366,548.315
101581,139522,7804,-0.071,-0.962,0.111,-0.793,0.671,0.366,548.321
101557,139553,19647,-0.069,-0.961,0.116,-0.305,0.488,0.122,548.325
101557,139529,7797,-0.068,-0.959,0.118,-0.305,0.488,0.122,548.331
101575,139553,19647,-0.069,-0.959,0.114,-0.305,0.366,0.061,548.335
101575,139539,7811,-0.07,-0.968,0.115,-0.305,0.366,0.061,548.341
101581,139553,19647,-0.069,-0.969,0.115,-0.366,0.427,0.366,548.345
101581,139526,7806,-0.071,-0.972,0.114,-0.366,0.427,0.366,548.351
101574,139553,19647,-0.069,-0.969,0.116,-0.427,0.549,0.549,548.355
101574,139536,7791,-0.07,-0.966,0.114,-0.427,0.549,0.549,548.361
101578,139553,19647,-0.07,-0.965,0.116,-0.366,0.732,0.671,548.365
101578,139549,7794,-0.074,-0.959,0.118,-0.366,0.732,0.671,548.371
101585,139553,19647,-0.076,-0.96,0.116,-0.366,0.732,0.732,548.374
101585,139537,7803,-0.072,-0.961,0.114,-0.366,0.732,0.732,548.381
101579,139553,19647,-0.075,-0.957,0.114,-0.549,0.61,0.671,548.384
101579,139539,7799,-0.077,-0.959,0.115,-0.549,0.61,0.671,548.391
101580,139297,19647,-0.073,-0.96,0.117,-0.183,0.427,0.488,548.394
101580,139515,7799,-0.072,-0.959,0.119,-0.183,0.427,0.488,548.4
101579,139553,19647,-0.071,-0.956,0.118,-0.061,0.366,0.305,548.404
101579,139544,7800,-0.073,-0.953,0.12,-0.061,0.366,0.305,548.41
101575,139553,19647,-0.075,-0.959,0.119,-0.366,0.488,0.305,548.414
101575,139533,7793,-0.075,-0.963,0.115,-0.366,0.488,0.305,548.42
101581,139553,19647,-0.072,-0.965,0.107,-0.671,0.427,0.244,548.424
101581,139528,7785,-0.073,-0.966,0.114,-0.671,0.427,0.244,548.43
101583,139553,19647,-0.071,-0.972,0.126,-0.427,0.366,0.244,548.434
101583,139523,7805,-0.068,-0.971,0.124,-0.427,0.366,0.244,548.44
101577,139553,19647,-0.067,-0.97,0.115,-0.793,0.61,0.366,548.444
101577,139533,7785,-0.071,-0.966,0.112,-0.793,0.61,0.366,548.45
101563,139553,19647,-0.073,-0.963,0.112,-1.28,0.976,0.793,548.454
101563,139551,7793,-0.076,-0.959,0.112,-1.28,0.976,0.793,548.46
101558,139553,19647,-0.074,-0.958,0.112,-0.61,0.854,0.732,548.464
101558,139557,7786,-0.075,-0.955,0.112,-0.61,0.854,0.732,548.47
101567,139553,19647,-0.078,-0.952,0.104,-0.671,0.549,0.427,548.473
101567,139521,7830,-0.077,-0.958,0.106,-0.671,0.549,0.427,548.48
101588,139553,19647,-0.075,-0.966,0.112,-0.244,0.244,0.366,548.483
101588,139553,7785,-0.071,-0.964,0.11,-0.244,0.244,0.366,548.49
101577,139553,19647,-0.073,-0.963,0.115,0.366,-0.061,0.305,548.493
101577,139534,7798,-0.073,-0.959,0.123,0.366,-0.061,0.305,548.499
101586,139553,19647,-0.071,-0.96,0.118,0.366,0.061,0.183,548.503
101586,139544,7816,-0.073,-0.962,0.116,0.366,0.061,0.183,548.509
101599,139553,19647,-0.072,-0.961,0.115,-0.305,0.305,0.305,548.513
101599,139528,7795,-0.072,-0.963,0.109,-0.305,0.305,0.305,548.519
101591,139553,19647,-0.075,-0.967,0.112,-0.366,0.305,0.488,548.523
101591,139544,7814,-0.068,-0.964,0.122,-0.366,0.305,0.488,548.529
101579,139553,19647,-0.068,-0.961,0.127,0,0.244,0.305,548.533
101579,139539,7798,-0.066,-0.96,0.124,0,0.244,0.305,548.539
101581,139553,19647,-0.071,-0.957,0.116,-0.61,0.549,0.488,548.543
101581,139538,7807,-0.077,-0.956,0.115,-0.61,0.549,0.488,548.549
101584,139553,19647,-0.073,-0.958,0.112,-1.28,0.854,0.732,548.553
101584,139549,7800,-0.072,-0.962,0.112,-1.28,0.854,0.732,548.559
101589,139553,19647,-0.071,-0.963,0.112,-1.037,0.549,0.61,548.562
101589,139550,7794,-0.071,-0.962,0.113,-1.037,0.549,0.61,548.569
101595,139553,19647,-0.073,-0.961,0.119,-0.366,0.305,0.488,548.572
101595,139534,7791,-0.073,-0.963,0.115,-0.366,0.305,0.488,548.579
101598,139553,19647,-0.073,-0.964,0.113,-0.61,0.549,0.244,548.582
101598,139554,7804,-0.075,-0.963,0.109,-0.61,0.549,0.244,548.589
101592,139553,19647,-0.077,-0.964,0.104,-0.671,0.793,0.244,548.592
101592,139522,7803,-0.076,-0.965,0.103,-0.671,0.793,0.244,548.598
101583,139553,19647,-0.072,-0.966,0.107,0,0.427,0.183,548.602
101583,139555,7794,-0.07,-0.966,0.113,0,0.427,0.183,548.608
101581,139553,19647,-0.07,-0.966,0.115,0.732,0.122,0.061,548.612
101581,139551,7796,-0.066,-0.964,0.123,0.732,0.122,0.061,548.618
101589,139553,19647,-0.067,-0.962,0.121,0.61,0.183,0.305,548.622
101589,139563,7809,-0.068,-0.964,0.117,0.61,0.183,0.305,548.628
101577,139553,19647,-0.072,-0.963,0.118,-0.366,0.366,0.61,548.632
101577,139536,7805,-0.071,-0.968,0.118,-0.366,0.366,0.61,548.638
101570,139553,19647,-0.07,-0.965,0.117,-0.976,0.61,0.854,548.642
101570,139557,7810,-0.071,-0.959,0.117,-0.976,0.61,0.854,548.648
101592,139553,19647,-0.071,-0.961,0.117,-0.671,0.61,0.915,548.652
101592,139544,7796,-0.076,-0.964,0.119,-0.671,0.61,0.915,548.658
101587,139553,19647,-0.075,-0.959,0.122,-0.122,0.427,0.915,548.661
101587,139571,7794,-0.075,-0.955,0.116,-0.122,0.427,0.915,548.668
101582,139553,19647,-0.076,-0.955,0.119,-0.122,0.366,0.671,548.671
101582,139530,7803,-0.075,-0.958,0.122,-0.122,0.366,0.671,548.678
101590,139553,19647,-0.072,-0.953,0.118,-0.061,0.366,0.549,548.681
101590,139542,7808,-0.072,-0.951,0.118,-0.061,0.366,0.549,548.688
101577,139553,19647,-0.073,-0.952,0.115,0.183,0.427,0.244,548.691
101577,139568,7789,-0.075,-0.954,0.114,0.183,0.427,0.244,548.697
101568,139553,19647,-0.073,-0.96,0.117,-0.061,0.427,0.183,548.701
101568,139550,7816,-0.073,-0.964,0.116,-0.061,0.427,0.183,548.707
101566,139553,19647,-0.07,-0.969,0.114,-0.793,0.366,0.244,548.711
101566,139588,7805,-0.072,-0.972,0.112,-0.793,0.366,0.244,548.717
101566,139553,19647,-0.07,-0.967,0.11,-1.098,0.549,0.305,548.721
101566,139560,7791,-0.077,-0.965,0.11,-1.098,0.549,0.305,548.727
101585,139553,19647,-0.076,-0.964,0.109,-0.793,0.793,0.366,548.731
101585,139541,7806,-0.074,-0.964,0.108,-0.793,0.793,0.366,548.737
101577,139553,19647,-0.076,-0.963,0.103,-0.61,0.549,0.427,548.741
101577,139547,7811,-0.078,-0.958,0.103,-0.61,0.549,0.427,548.747
101596,139553,19647,-0.077,-0.963,0.106,-0.488,0.183,0.488,548.751
101596,139568,7797,-0.076,-0.965,0.111,-0.488,0.183,0.488,548.757
101603,139553,19647,-0.076,-0.965,0.111,-0.488,0.183,0.488,548.76
101603,139561,7796,-0.071,-0.96,0.111,0.183,-0.061,0.305,548.767
101596,139553,19647,-0.071,-0.96,0.111,0.183,-0.061,0.305,548.77
101596,139545,7791,-0.072,-0.958,0.12,0.549,-0.122,0.305,548.777
101591,139553,19647,-0.072,-0.958,0.12,0.549,-0.122,0.305,548.78
101591,139549,7804,-0.068,-0.96,0.119,0.61,-0.061,0.244,548.786
101591,139553,19647,-0.068,-0.96,0.119,0.61,-0.061,0.244,548.79
101591,139551,7802,-0.067,-0.962,0.12,0.061,0.183,0.061,548.796
101591,139553,19647,-0.067,-0.962,0.12,0.061,0.183,0.061,548.8
101591,139555,7808,-0.066,-0.963,0.127,-0.366,0.366,0.305,548.806
101565,139553,19647,-0.066,-0.963,0.127,-0.366,0.366,0.305,548.81
101565,139586,7812,-0.067,-0.956,0.122,-0.366,0.549,0.488,548.816
101616,139553,19647,-0.067,-0.956,0.122,-0.366,0.549,0.488,548.82
101616,139545,7799,-0.075,-0.96,0.118,-0.854,0.976,0.549,548.826
101603,139553,19647,-0.075,-0.96,0.118,-0.854,0.976,0.549,548.83
101603,139561,7803,-0.079,-0.962,0.111,-1.28,1.037,0.671,548.836
101604,139553,19647,-0.079,-0.962,0.111,-1.28,1.037,0.671,548.84
101604,139568,7808,-0.071,-0.962,0.113,-0.854,0.793,0.427,548.846
101600,139553,19647,-0.071,-0.962,0.113,-0.854,0.793,0.427,548.85
101600,139574,7801,-0.07,-0.961,0.111,-0.488,0.671,0.366,548.856
101602,139553,19647,-0.07,-0.961,0.111,-0.488,0.671,0.366,548.859
101602,139579,7808,-0.073,-0.966,0.111,-0.549,0.732,0.366,548.866
101602,139553,19647,-0.073,-0.966,0.111,-0.549,0.732,0.366,548.869
101602,139578,7801,-0.075,-0.968,0.106,-0.366,0.671,0.305,548.876
101603,139553,19647,-0.075,-0.968,0.106,-0.366,0.671,0.305,548.879
101603,139577,7798,-0.077,-0.97,0.106,-0.488,0.549,0.488,548.885
101602,139553,19647,-0.077,-0.97,0.106,-0.488,0.549,0.488,548.889
101602,139560,7798,-0.073,-0.968,0.11,-0.427,0.427,0.732,548.895
101583,139553,19647,-0.073,-0.968,0.11,-0.427,0.427,0.732,548.899
101583,139569,7789,-0.074,-0.963,0.11,-0.183,0.305,0.61,548.905
101587,139553,19647,-0.076,-0.965,0.113,-0.183,0.305,0.61,548.909
101587,139581,7819,-0.075,-0.963,0.114,0.061,0.305,0.549,548.915
101588,139553,19647,-0.075,-0.958,0.119,0.061,0.305,0.549,548.919
101588,139600,7797,-0.075,-0.953,0.119,0.305,0.122,0.427,548.925
101602,139553,19647,-0.075,-0.951,0.12,0.305,0.122,0.427,548.929
101602,139561,7795,-0.074,-0.956,0.123,0.122,0.122,0.305,548.935
101570,139553,19647,-0.073,-0.959,0.121,0.122,0.122,0.305,548.939
101570,139542,7794,-0.071,-0.958,0.117,-0.488,0.183,0.305,548.945
101568,139553,19647,-0.07,-0.961,0.12,-0.488,0.183,0.305,548.949
101568,139541,7816,-0.072,-0.966,0.119,-0.915,0.488,0.122,548.955
101590,139553,19647,-0.069,-0.969,0.117,-0.915,0.488,0.122,548.958
101590,139536,7808,-0.071,-0.966,0.115,-0.915,0.732,0.305,548.965
101560,139553,19647,-0.075,-0.967,0.115,-0.915,0.732,0.305,548.968
101560,139550,7804,-0.074,-0.962,0.108,-0.854,0.732,0.488,548.975
101561,139553,19647,-0.072,-0.962,0.11,-0.854,0.732,0.488,548.978
101561,139545,7802,-0.072,-0.963,0.111,-0.549,0.549,0.366,548.984
101573,139297,19647,-0.074,-0.96,0.104,-0.549,0.549,0.366,548.988
101573,139511,7805,-0.075,-0.959,0.109,-0.305,0.427,0.427,548.994
101551,139553,19647,-0.078,-0.96,0.113,-0.305,0.427,0.427,548.998
101551,139528,7798,-0.077,-0.958,0.113,-0.183,0.244,0.305,549.004
101565,139553,19647,-0.074,-0.958,0.111,-0.183,0.244,0.305,549.008
101565,139543,7795,-0.075,-0.957,0.107,-0.244,0.183,0.183,549.014
101545,139553,19647,-0.074,-0.965,0.116,-0.244,0.183,0.183,549.018
101545,139541,7804,-0.069,-0.966,0.116,-0.122,0.122,0.061,549.024
101565,139553,19647,-0.071,-0.965,0.115,-0.122,0.122,0.061,549.028
101565,139530,7788,-0.072,-0.962,0.116,-0.183,0.305,0.122,549.034
101577,139553,19647,-0.072,-0.957,0.113,-0.183,0.305,0.122,549.038
101577,139531,7798,-0.072,-0.964,0.116,-0.366,0.549,0.122,549.044
101551,139553,19647,-0.071,-0.967,0.116,-0.366,0.549,0.122,549.048
101551,139537,7806,-0.069,-0.968,0.114,-0.427,0.549,0.305,549.054
101571,139297,19647,-0.07,-0.968,0.119,-0.427,0.549,0.305,549.057
101571,139511,7801,-0.069,-0.965,0.115,-0.366,0.61,0.427,549.064
101555,139553,19647,-0.072,-0.96,0.115,-0.366,0.61,0.427,549.067
101555,139546,7794,-0.073,-0.959,0.118,-0.427,0.793,0.61,549.074
101573,139553,19647,-0.073,-0.959,0.113,-0.427,0.793,0.61,549.077
101573,139550,7799,-0.072,-0.959,0.112,-0.549,0.976,0.671,549.083
101553,139553,19647,-0.073,-0.961,0.112,-0.549,0.976,0.671,549.087
101553,139559,7790,-0.072,-0.96,0.117,-0.488,0.793,0.61,549.093
101571,139553,19647,-0.076,-0.957,0.113,-0.488,0.793,0.61,549.097
101571,139529,7793,-0.076,-0.958,0.109,-0.732,0.732,0.549,549.103
101569,139553,19647,-0.074,-0.965,0.107,-0.732,0.732,0.549,549.107
101569,139558,7799,-0.074,-0.967,0.106,-0.793,0.61,0.549,549.113
101589,139553,19647,-0.073,-0.968,0.108,-0.793,0.61,0.549,549.117
101589,139542,7792,-0.073,-0.967,0.115,-0.061,0.366,0.488,549.123
101573,139553,19647,-0.071,-0.964,0.115,-0.061,0.366,0.488,549.127
101573,139534,7791,-0.072,-0.962,0.118,0.366,0.366,0.427,549.133
101562,139553,19647,-0.075,-0.963,0.118,0.366,0.366,0.427,549.137
101562,139533,7788,-0.075,-0.964,0.119,-0.183,0.244,0.61,549.143
101561,139553,19647,-0.074,-0.967,0.109,-0.183,0.244,0.61,549.147
101561,139533,7811,-0.078,-0.967,0.113,-0.793,0.427,0.793,549.153
101581,139553,19647,-0.075,-0.965,0.111,-0.793,0.427,0.793,549.156
101581,139532,7772,-0.074,-0.955,0.114,-0.427,0.793,0.732,549.163
101544,139297,19647,-0.077,-0.953,0.113,-0.427,0.793,0.732,549.166
101544,139502,7806,-0.075,-0.949,0.11,0,0.793,0.549,549.173
101559,139553,19647,-0.077,-0.951,0.109,0,0.793,0.549,549.176
101559,139527,7787,-0.079,-0.958,0.111,-0.366,0.366,0.366,549.182
101564,139553,19647,-0.074,-0.966,0.115,-0.366,0.366,0.366,549.186
101564,139522,7810,-0.071,-0.968,0.117,-0.244,0.061,0.305,549.192
101574,139553,19647,-0.071,-0.969,0.116,-0.244,0.061,0.305,549.196
101574,139528,7794,-0.071,-0.964,0.113,-0.366,0.183,0.183,549.202
101556,139553,19647,-0.074,-0.961,0.115,-0.366,0.183,0.183,549.206
101556,139540,7801,-0.074,-0.959,0.109,-0.183,0.488,0.183,549.212
101563,139553,19647,-0.075,-0.958,0.106,-0.183,0.488,0.183,549.216
101563,139551,7815,-0.076,-0.96,0.111,0.183,0.488,0.183,549.222
101568,139553,19647,-0.071,-0.964,0.114,0.183,0.488,0.183,549.226
101568,139541,7793,-0.071,-0.965,0.116,0.244,0.305,0.183,549.232
101572,139297,19647,-0.072,-0.969,0.108,0.244,0.305,0.183,549.236
101572,139517,7800,-0.075,-0.967,0.108,-0.061,0.183,0.427,549.242
101570,139297,19647,-0.074,-0.966,0.112,-0.061,0.183,0.427,549.246
101570,139518,7786,-0.074,-0.962,0.115,0,0.305,0.427,549.252
101551,139297,19647,-0.072,-0.957,0.118,0,0.305,0.427,549.255
101551,139517,7792,-0.073,-0.953,0.118,0.305,0.244,0.122,549.262
101552,139553,19647,-0.072,-0.954,0.117,0.305,0.244,0.122,549.265
101552,139528,7794,-0.073,-0.959,0.113,-0.061,0.244,0.244,549.272
101570,139553,19647,-0.071,-0.967,0.12,-0.061,0.244,0.244,549.275
101570,139529,7791,-0.07,-0.97,0.119,-0.305,0.061,0.488,549.281
101556,139553,19647,-0.071,-0.967,0.114,-0.305,0.061,0.488,549.285
101556,139545,7799,-0.068,-0.966,0.117,-0.671,0.366,0.549,549.291
101561,139553,19647,-0.068,-0.964,0.114,-0.671,0.366,0.549,549.295
101561,139520,7803,-0.076,-0.964,0.11,-0.488,0.854,0.549,549.301
101570,139553,19647,-0.078,-0.958,0.109,-0.488,0.854,0.549,549.305
101570,139527,7798,-0.076,-0.953,0.111,-0.305,0.854,0.61,549.311
101569,139553,19647,-0.073,-0.954,0.11,-0.305,0.854,0.61,549.315
101569,139533,7788,-0.077,-0.957,0.1,-0.305,0.549,0.488,549.321
101552,139297,19647,-0.078,-0.959,0.105,-0.305,0.549,0.488,549.325
101552,139505,7796,-0.076,-0.964,0.107,-0.122,0.366,0.488,549.331
101557,139553,19647,-0.075,-0.964,0.118,-0.122,0.366,0.488,549.335
101557,139529,7800,-0.07,-0.96,0.118,0.915,0.061,0.183,549.341
101564,139297,19647,-0.07,-0.96,0.118,0.915,0.061,0.183,549.345
101564,139515,7804,-0.068,-0.963,0.123,0.366,0.183,0.183,549.351
101548,139553,19647,-0.068,-0.963,0.123,0.366,0.183,0.183,549.354
101548,139536,7808,-0.069,-0.967,0.116,-0.732,0.427,0.549,549.361
101575,139553,19647,-0.069,-0.967,0.116,-0.732,0.427,0.549,549.364
101575,139546,7781,-0.074,-0.966,0.116,-0.671,0.549,0.671,549.371
101546,139553,19647,-0.074,-0.966,0.116,-0.671,0.549,0.671,549.374
101546,139549,7796,-0.074,-0.96,0.115,-0.305,0.549,0.549,549.38
101567,139553,19647,-0.074,-0.96,0.115,-0.305,0.549,0.549,549.384
101567,139544,7792,-0.074,-0.952,0.113,-0.244,0.671,0.427,549.39
101569,139553,19647,-0.074,-0.952,0.113,-0.244,0.671,0.427,549.394
101569,139538,7801,-0.075,-0.957,0.113,-0.427,0.671,0.488,549.4
101569,139553,19647,-0.075,-0.957,0.113,-0.427,0.671,0.488,549.404
101569,139543,7794,-0.074,-0.958,0.103,-0.305,0.549,0.366,549.41
101560,139553,19647,-0.074,-0.958,0.103,-0.305,0.549,0.366,549.414
101560,139526,7791,-0.076,-0.964,0.107,0.122,0.183,0.183,549.42
101556,139553,19647,-0.076,-0.964,0.107,0.122,0.183,0.183,549.424
101556,139555,7795,-0.076,-0.968,0.116,0.549,0,0.122,549.43
101580,139553,19647,-0.076,-0.968,0.116,0.549,0,0.122,549.434
101580,139525,7784,-0.074,-0.965,0.113,0.305,0.061,0.183,549.44
101570,139553,19647,-0.074,-0.965,0.113,0.305,0.061,0.183,549.444
101570,139550,7785,-0.077,-0.967,0.111,-0.244,0.122,0.122,549.45
101569,139553,19647,-0.077,-0.967,0.111,-0.244,0.122,0.122,549.453
101569,139545,7795,-0.075,-0.965,0.115,0.061,0.183,0.183,549.46
101576,139553,19647,-0.075,-0.965,0.115,0.061,0.183,0.183,549.463
101576,139543,7801,-0.073,-0.957,0.12,0.244,0.122,0.305,549.469
101562,139553,19647,-0.073,-0.957,0.12,0.244,0.122,0.305,549.473
101562,139555,7801,-0.071,-0.955,0.12,-0.122,0.305,0.244,549.479
101583,139553,19647,-0.071,-0.955,0.12,-0.122,0.305,0.244,549.483
101583,139538,7794,-0.073,-0.957,0.114,-0.122,0.305,0.244,549.489
101565,139553,19647,-0.072,-0.955,0.114,-0.671,0.549,0.244,549.493
101565,139539,7798,-0.073,-0.956,0.12,-0.671,0.549,0.244,549.499
101562,139553,19647,-0.072,-0.96,0.122,-0.488,0.61,0.244,549.503
101562,139560,7791,-0.073,-0.958,0.117,-0.488,0.61,0.244,549.509
101608,139553,19647,-0.071,-0.959,0.116,-0.549,0.671,0,549.513
101608,139551,7771,-0.071,-0.962,0.115,-0.549,0.671,0,549.519
101563,139553,19647,-0.072,-0.962,0.107,-0.671,0.854,0.122,549.523
101563,139541,7796,-0.075,-0.967,0.108,-0.671,0.854,0.122,549.529
101567,139553,19647,-0.072,-0.967,0.106,-0.427,0.671,0.061,549.533
101567,139550,7800,-0.071,-0.97,0.102,-0.427,0.671,0.061,549.539
101549,139553,19647,-0.071,-0.971,0.102,-0.244,0.488,0.183,549.543
101549,139523,7798,-0.073,-0.969,0.104,-0.244,0.488,0.183,549.549
101565,139553,19647,-0.076,-0.96,0.097,-0.061,0.488,0.366,549.552
101565,139544,7790,-0.078,-0.96,0.099,-0.061,0.488,0.366,549.559
101570,139297,19647,-0.075,-0.965,0.107,0.488,0.305,0.305,549.562
101570,139502,7811,-0.07,-0.97,0.116,0.488,0.305,0.305,549.569
101571,139553,19647,-0.069,-0.968,0.116,0.793,-0.061,0.244,549.572
101571,139559,7802,-0.069,-0.962,0.117,0.793,-0.061,0.244,549.578
101566,139553,19647,-0.072,-0.96,0.119,0.244,0.061,0.488,549.582
101566,139527,7800,-0.071,-0.962,0.119,0.244,0.061,0.488,549.588
101577,139553,19647,-0.071,-0.962,0.125,0.061,0.427,0.61,549.592
101577,139539,7787,-0.073,-0.96,0.118,0.061,0.427,0.61,549.598
101580,139553,19647,-0.076,-0.951,0.111,-0.061,0.732,0.732,549.602
101580,139563,7788,-0.077,-0.951,0.107,-0.061,0.732,0.732,549.608
101580,139553,19647,-0.079,-0.958,0.112,-0.122,0.671,0.671,549.612
101580,139534,7786,-0.075,-0.957,0.116,-0.122,0.671,0.671,549.618
101562,139553,19647,-0.073,-0.959,0.119,0.488,-0.061,0.366,549.622
101562,139547,7799,-0.07,-0.964,0.118,0.488,-0.061,0.366,549.628
101568,139553,19647,-0.072,-0.963,0.119,0.549,0,0.122,549.632
101568,139553,7791,-0.074,-0.956,0.115,0.549,0,0.122,549.638
101574,139553,19647,-0.073,-0.959,0.116,0.549,0.244,0.122,549.642
101574,139555,7792,-0.078,-0.958,0.118,0.549,0.244,0.122,549.648
101561,139553,19647,-0.076,-0.955,0.117,0.244,0.122,0,549.651
101561,139533,7787,-0.074,-0.958,0.115,0.244,0.122,0,549.658
101593,139553,19647,-0.074,-0.965,0.118,-0.244,0.122,-0.061,549.661
101593,139541,7796,-0.07,-0.972,0.116,-0.244,0.122,-0.061,549.667
101577,139553,19647,-0.073,-0.972,0.11,-0.549,0.244,0.061,549.671
101577,139534,7798,-0.071,-0.969,0.108,-0.549,0.244,0.061,549.677
101567,139553,19647,-0.076,-0.97,0.109,-0.793,0.488,0.183,549.681
101567,139549,7807,-0.076,-0.965,0.104,-0.793,0.488,0.183,549.687
101578,139553,19647,-0.077,-0.962,0.101,-0.549,0.427,0.061,549.691
101578,139553,7799,-0.08,-0.958,0.097,-0.549,0.427,0.061,549.697
101592,139553,19647,-0.078,-0.961,0.105,0.366,0.183,0.122,549.701
101592,139549,7791,-0.073,-0.962,0.113,0.366,0.183,0.122,549.707
101554,139553,19647,-0.07,-0.959,0.114,0.976,-0.427,0.183,549.711
101554,139540,7794,-0.068,-0.96,0.114,0.976,-0.427,0.183,549.717
101562,139553,19647,-0.07,-0.962,0.116,0.549,-0.305,0.122,549.721
101562,139545,7788,-0.07,-0.964,0.118,0.549,-0.305,0.122,549.727
101580,139553,19647,-0.07,-0.961,0.117,0.366,0,0.183,549.731
101580,139532,7804,-0.073,-0.957,0.116,0.366,0,0.183,549.737
101566,139553,19647,-0.074,-0.957,0.114,0.366,0.122,0.244,549.741
101566,139547,7781,-0.071,-0.956,0.112,0.366,0.122,0.244,549.747
101574,139553,19647,-0.068,-0.963,0.122,0.366,0.061,0.122,549.75
101574,139524,7807,-0.064,-0.968,0.125,0.366,0.061,0.122,549.757
101566,139553,19647,-0.067,-0.965,0.125,0.366,0.122,0.244,549.76
101566,139550,7796,-0.069,-0.961,0.118,0.366,0.122,0.244,549.766
101565,139553,19647,-0.068,-0.959,0.116,0,0.549,0.305,549.77
101565,139536,7785,-0.07,-0.959,0.116,0,0.549,0.305,549.776
101570,139553,19647,-0.071,-0.955,0.116,0.061,0.61,0.549,549.78
101570,139526,7793,-0.073,-0.955,0.115,0.061,0.61,0.549,549.786
101574,139553,19647,-0.074,-0.958,0.116,0.061,0.366,0.427,549.79
101574,139553,7793,-0.072,-0.964,0.122,0.061,0.366,0.427,549.796
101572,139553,19647,-0.068,-0.969,0.12,-0.244,0.305,0.305,549.8
101572,139553,7792,-0.066,-0.964,0.116,-0.244,0.305,0.305,549.806
101559,139553,19647,-0.067,-0.964,0.116,-0.732,0.488,0.488,549.81
101559,139549,7782,-0.072,-0.965,0.115,-0.732,0.488,0.488,549.816
101585,139553,19647,-0.075,-0.966,0.111,-0.793,1.037,0.488,549.82
101585,139564,7792,-0.075,-0.962,0.106,-0.793,1.037,0.488,549.826
101571,139553,19647,-0.076,-0.959,0.103,-0.61,1.037,0.427,549.83
101571,139536,7797,-0.079,-0.963,0.097,-0.61,1.037,0.427,549.836
101576,139553,19647,-0.077,-0.964,0.101,-0.366,0.671,0.488,549.839
101576,139546,7797,-0.072,-0.968,0.108,-0.366,0.671,0.488,549.846
101569,139553,19647,-0.07,-0.969,0.113,0.549,0.061,0.549,549.849
101569,139540,7782,-0.073,-0.965,0.114,0.549,0.061,0.549,549.856
101562,139553,19647,-0.077,-0.961,0.114,0.976,-0.122,0.427,549.859
101562,139544,7794,-0.076,-0.957,0.113,0.976,-0.122,0.427,549.865
101573,139553,19647,-0.076,-0.958,0.114,0.488,0,0.366,549.869
101573,139576,7792,-0.075,-0.966,0.116,0.488,0,0.366,549.875
101575,139553,19647,-0.072,-0.966,0.118,0.549,-0.061,0.305,549.879
101575,139560,7787,-0.076,-0.963,0.123,0.549,-0.061,0.305,549.885
101569,139553,19647,-0.075,-0.96,0.126,0.793,-0.061,0.244,549.889
101569,139548,7785,-0.07,-0.958,0.126,0.793,-0.061,0.244,549.895
101559,139553,19647,-0.071,-0.958,0.123,0.122,0.061,0.183,549.899
101559,139561,7798,-0.073,-0.959,0.119,0.122,0.061,0.183,549.905
101567,139553,19647,-0.075,-0.962,0.12,-0.488,0.488,0.122,549.909
101567,139521,7794,-0.074,-0.96,0.115,-0.488,0.488,0.122,549.915
101547,139553,19647,-0.074,-0.96,0.115,-0.488,0.488,0.122,549.919
101547,139523,7809,-0.072,-0.963,0.114,-0.549,0.61,0.061,549.925
101558,139297,19647,-0.072,-0.963,0.114,-0.549,0.61,0.061,549.929
101558,139512,7794,-0.069,-0.966,0.115,-0.244,0.427,0,549.935
101532,139297,19647,-0.069,-0.966,0.115,-0.244,0.427,0,549.938
101532,139510,7791,-0.071,-0.965,0.112,-0.183,0.122,0.061,549.945
101533,139297,19647,-0.071,-0.965,0.112,-0.183,0.122,0.061,549.948
101533,139498,7788,-0.069,-0.96,0.111,-0.488,0.183,0.183,549.955
101557,139553,19647,-0.069,-0.96,0.111,-0.488,0.183,0.183,549.958
101557,139521,7788,-0.074,-0.961,0.115,-0.244,0.366,0.244,549.964
101554,139297,19647,-0.074,-0.961,0.115,-0.244,0.366,0.244,549.968
101554,139510,7799,-0.074,-0.961,0.113,0,0.244,0.244,549.974
101545,139297,19647,-0.074,-0.961,0.113,0,0.244,0.244,549.978
101545,139514,7796,-0.069,-0.964,0.122,0.061,0.061,0.061,549.984
101544,139297,19647,-0.069,-0.964,0.122,0.061,0.061,0.061,549.988
101544,139506,7780,-0.07,-0.963,0.117,-0.183,0.244,0.122,549.994
101531,139553,19647,-0.07,-0.963,0.117,-0.183,0.244,0.122,549.998
101531,139521,7799,-0.071,-0.962,0.115,-0.427,0.549,0.244,550.004
101552,139297,19647,-0.071,-0.962,0.115,-0.427,0.549,0.244,550.008
101552,139513,7796,-0.072,-0.963,0.114,-0.366,0.549,0.244,550.014
101552,139297,19647,-0.072,-0.963,0.114,-0.366,0.549,0.244,550.018
101552,139508,7781,-0.065,-0.964,0.116,-0.122,0.488,0.427,550.024
101551,139297,19647,-0.065,-0.964,0.116,-0.122,0.488,0.427,550.028
101551,139506,7798,-0.071,-0.959,0.118,0,0.549,0.61,550.034
101543,139553,19647,-0.071,-0.959,0.118,0,0.549,0.61,550.037
101543,139527,7825,-0.074,-0.958,0.112,-0.366,0.854,0.61,550.044
101565,139553,19647,-0.074,-0.958,0.112,-0.366,0.854,0.61,550.047
101565,139520,7783,-0.074,-0.961,0.113,-0.305,0.549,0.61,550.054
101513,139553,19647,-0.074,-0.961,0.113,-0.305,0.549,0.61,550.057
101513,139525,7802,-0.074,-0.968,0.114,0,0.427,0.488,550.063
101556,139553,19647,-0.074,-0.964,0.117,0,0.427,0.488,550.067
101556,139533,7805,-0.071,-0.959,0.115,0.244,0.244,0.366,550.073
101559,139297,19647,-0.075,-0.958,0.12,0.244,0.244,0.366,550.077
101559,139515,7803,-0.074,-0.962,0.115,-0.061,0.427,0.305,550.083
101548,139553,19647,-0.075,-0.963,0.112,-0.061,0.427,0.305,550.087
101548,139520,7816,-0.072,-0.963,0.117,-0.366,0.427,0.305,550.093
101554,139297,19647,-0.072,-0.966,0.119,-0.366,0.427,0.305,550.097
101554,139513,7805,-0.074,-0.967,0.114,-0.366,0.366,0.305,550.103
101566,139297,19647,-0.073,-0.967,0.115,-0.366,0.366,0.305,550.107
101566,139512,7793,-0.072,-0.97,0.111,-0.366,0.488,0.366,550.113
101562,139553,19647,-0.074,-0.966,0.111,-0.366,0.488,0.366,550.117
101562,139527,7797,-0.077,-0.96,0.106,-0.61,0.488,0.549,550.123
101564,139297,19647,-0.077,-0.958,0.107,-0.61,0.488,0.549,550.127
101564,139503,7793,-0.074,-0.961,0.11,0,0.427,0.427,550.133
101545,139297,19647,-0.073,-0.96,0.117,0,0.427,0.427,550.136
101545,139516,7783,-0.072,-0.956,0.118,0.427,0.122,0.305,550.143
101551,139553,19647,-0.072,-0.957,0.116,0.427,0.122,0.305,550.146
101551,139529,7790,-0.074,-0.955,0.116,0.122,0.183,0.244,550.153
101558,139553,19647,-0.074,-0.956,0.119,0.122,0.183,0.244,550.156
101558,139526,7790,-0.073,-0.962,0.115,0.061,0.305,0.183,550.162
101565,139553,19647,-0.07,-0.967,0.115,0.061,0.305,0.183,550.166
101565,139548,7787,-0.072,-0.968,0.114,-0.061,0.305,0.061,550.172
101562,139553,19647,-0.075,-0.963,0.11,-0.061,0.305,0.061,550.176
101562,139532,7803,-0.073,-0.961,0.113,0.061,0.305,0,550.182
101567,139553,19647,-0.075,-0.963,0.116,0.061,0.305,0,550.186
101567,139534,7787,-0.071,-0.964,0.118,0.366,0.122,0,550.192
101554,139553,19647,-0.071,-0.969,0.116,0.366,0.122,0,550.196
101554,139539,7791,-0.071,-0.969,0.118,0.244,0.061,0,550.202
101544,139297,19647,-0.071,-0.967,0.114,0.244,0.061,0,550.206
101544,139512,7801,-0.069,-0.964,0.118,0.244,0.122,0.183,550.212
101563,139553,19647,-0.07,-0.965,0.118,0.244,0.122,0.183,550.216
101563,139525,7801,-0.067,-0.966,0.121,0.183,0.244,0.427,550.222
101535,139553,19647,-0.067,-0.963,0.12,0.183,0.244,0.427,550.226
101535,139522,7801,-0.073,-0.954,0.117,-0.183,0.488,0.671,550.232
101553,139297,19647,-0.077,-0.951,0.118,-0.183,0.488,0.671,550.235
101553,139514,7795,-0.074,-0.956,0.116,-0.427,0.488,0.671,550.242
101537,139553,19647,-0.069,-0.959,0.117,-0.427,0.488,0.671,550.245
101537,139527,7781,-0.068,-0.961,0.118,-0.305,0.366,0.549,550.251
101534,139297,19647,-0.07,-0.961,0.117,-0.305,0.366,0.549,550.255
101534,139506,7783,-0.072,-0.956,0.116,-0.183,0.549,0.366,550.261
101532,139297,19647,-0.075,-0.956,0.116,-0.183,0.549,0.366,550.265
101532,139502,7803,-0.074,-0.96,0.114,-0.183,0.671,0.305,550.271
101537,139297,19647,-0.072,-0.961,0.113,-0.183,0.671,0.305,550.275
101537,139506,7793,-0.073,-0.964,0.113,-0.061,0.549,0.061,550.281
101542,139297,19647,-0.074,-0.962,0.116,-0.061,0.549,0.061,550.285
101542,139511,7786,-0.072,-0.964,0.114,0.061,0.549,0.122,550.291
101541,139297,19647,-0.074,-0.964,0.11,0.061,0.549,0.122,550.295
101541,139514,7784,-0.072,-0.965,0.109,-0.366,0.549,0.183,550.301
101538,139553,19647,-0.069,-0.969,0.116,-0.366,0.549,0.183,550.305
101538,139534,7799,-0.067,-0.973,0.116,-0.122,0.366,0.183,550.311
101557,139553,19647,-0.07,-0.969,0.119,-0.122,0.366,0.183,550.315
101557,139537,7803,-0.073,-0.966,0.116,0,0.366,0.427,550.321
101576,139553,19647,-0.073,-0.964,0.112,0,0.366,0.427,550.325
101576,139526,7785,-0.072,-0.959,0.114,-0.427,0.488,0.671,550.331
101569,139553,19647,-0.075,-0.96,0.119,-0.427,0.488,0.671,550.334
101569,139524,7789,-0.073,-0.962,0.116,-0.183,0.366,0.671,550.341
101546,139553,19647,-0.068,-0.962,0.118,-0.183,0.366,0.671,550.344
101546,139543,7791,-0.074,-0.961,0.115,-0.244,0.244,0.61,550.351
101571,139297,19647,-0.075,-0.958,0.114,-0.244,0.244,0.61,550.354
101571,139512,7791,-0.074,-0.959,0.111,-0.427,0.305,0.427,550.36
101557,139553,19647,-0.076,-0.963,0.113,-0.427,0.305,0.427,550.364
101557,139526,7787,-0.073,-0.964,0.115,0.183,0.122,0.366,550.37
101550,139553,19647,-0.073,-0.962,0.119,0.183,0.122,0.366,550.374
101550,139542,7805,-0.077,-0.956,0.12,0.427,0.122,0.183,550.38
101555,139553,19647,-0.073,-0.956,0.119,0.427,0.122,0.183,550.384
101555,139531,7785,-0.072,-0.959,0.118,0.122,0.305,0,550.39
101576,139553,19647,-0.071,-0.961,0.116,0.122,0.305,0,550.394
101576,139529,7797,-0.07,-0.965,0.122,-0.122,0.244,0,550.4
101565,139297,19647,-0.072,-0.967,0.119,-0.122,0.244,0,550.404
101565,139519,7795,-0.073,-0.967,0.116,-0.183,0.183,0.122,550.41
101576,139553,19647,-0.073,-0.964,0.119,-0.183,0.183,0.122,550.414
101576,139539,7791,-0.072,-0.963,0.118,-0.427,0.366,0.122,550.42
101578,139553,19647,-0.071,-0.962,0.116,-0.427,0.366,0.122,550.424
101578,139544,7793,-0.072,-0.96,0.115,-0.549,0.427,0.122,550.43
101566,139553,19647,-0.073,-0.961,0.112,-0.549,0.427,0.122,550.433
101566,139540,7802,-0.071,-0.965,0.12,-0.488,0.427,0.183,550.44
101562,139553,19647,-0.071,-0.961,0.12,-0.488,0.427,0.183,550.443
101562,139557,7766,-0.068,-0.959,0.121,-0.549,0.427,0.122,550.449
101562,139553,19647,-0.067,-0.96,0.123,-0.549,0.427,0.122,550.453
101562,139542,7798,-0.07,-0.963,0.115,-0.61,0.549,0.305,550.459
101572,139553,19647,-0.07,-0.962,0.113,-0.61,0.549,0.305,550.463
101572,139549,7801,-0.071,-0.962,0.115,-0.732,0.671,0.366,550.469
101554,139553,19647,-0.07,-0.962,0.113,-0.732,0.671,0.366,550.473
101554,139538,7816,-0.074,-0.965,0.106,-0.61,0.732,0.366,550.479
101577,139553,19647,-0.075,-0.965,0.101,-0.61,0.732,0.366,550.483
101577,139544,7798,-0.075,-0.968,0.101,-0.305,0.488,0.244,550.489
101573,139553,19647,-0.071,-0.972,0.108,-0.305,0.488,0.244,550.493
101573,139531,7796,-0.067,-0.971,0.113,0.366,0.183,0.244,550.499
101581,139553,19647,-0.067,-0.971,0.113,0.366,0.183,0.244,550.503
101581,139551,7801,-0.071,-0.963,0.114,0.915,0.122,0.305,550.509
101600,139553,19647,-0.071,-0.963,0.114,0.915,0.122,0.305,550.513
101600,139549,7799,-0.073,-0.955,0.115,0.793,0.244,0.427,550.519
101598,139553,19647,-0.073,-0.955,0.115,0.793,0.244,0.427,550.523
101598,139559,7804,-0.071,-0.955,0.118,0.427,0.122,0.488,550.529
101587,139553,19647,-0.071,-0.955,0.118,0.427,0.122,0.488,550.532
101587,139540,7810,-0.071,-0.961,0.127,0.122,0,0.61,550.539
101596,139553,19647,-0.071,-0.961,0.127,0.122,0,0.61,550.542
101596,139552,7794,-0.072,-0.959,0.122,-0.061,0.305,0.61,550.548
101607,139553,19647,-0.072,-0.959,0.122,-0.061,0.305,0.61,550.552
101607,139542,7802,-0.074,-0.952,0.127,0.183,0.488,0.427,550.558
101590,139553,19647,-0.074,-0.952,0.127,0.183,0.488,0.427,550.562
101590,139545,7800,-0.072,-0.96,0.118,0,0.549,0.183,550.568
101597,139553,19647,-0.072,-0.96,0.118,0,0.549,0.183,550.572
101597,139564,7786,-0.068,-0.967,0.117,-0.122,0.305,0.305,550.578
101587,139553,19647,-0.068,-0.967,0.117,-0.122,0.305,0.305,550.582
101587,139569,7796,-0.076,-0.964,0.115,-0.549,0.427,0.305,550.588
101597,139553,19647,-0.076,-0.964,0.115,-0.549,0.427,0.305,550.592
101597,139561,7813,-0.068,-0.963,0.117,-0.549,0.427,0.366,550.598
101599,139553,19647,-0.068,-0.963,0.117,-0.549,0.427,0.366,550.602
101599,139577,7792,-0.077,-0.957,0.108,-0.61,0.732,0.244,550.608
101590,139553,19647,-0.077,-0.957,0.108,-0.61,0.732,0.244,550.612
101590,139575,7806,-0.074,-0.969,0.104,-0.732,0.61,0.305,550.618
101573,139553,19647,-0.074,-0.969,0.104,-0.732,0.61,0.305,550.621
101573,139578,7797,-0.074,-0.969,0.106,-0.427,0.183,0.366,550.628
101600,139553,19647,-0.074,-0.969,0.106,-0.427,0.183,0.366,550.631
101600,139561,7788,-0.073,-0.963,0.112,0.061,0.061,0.244,550.638
101604,139553,19647,-0.073,-0.963,0.112,0.061,0.061,0.244,550.641
101604,139579,7810,-0.073,-0.957,0.117,0.061,0.061,0.244,550.647
101591,139553,19647,-0.071,-0.953,0.117,0.61,0.183,0.061,550.651
101591,139572,7819,-0.074,-0.952,0.115,0.61,0.183,0.061,550.657
101607,139553,19647,-0.074,-0.953,0.113,0.366,0.244,0.122,550.661
101607,139583,7792,-0.074,-0.956,0.118,0.366,0.244,0.122,550.667
101583,139553,19647,-0.07,-0.965,0.118,0.305,-0.061,0,550.671
101583,139577,7806,-0.064,-0.971,0.117,0.305,-0.061,0,550.677
101597,139553,19647,-0.061,-0.976,0.124,0.305,-0.183,0.183,550.681
101597,139585,7797,-0.062,-0.974,0.127,0.305,-0.183,0.183,550.687
101589,139553,19647,-0.067,-0.963,0.123,-0.183,0.366,0.427,550.691
101589,139553,7782,-0.073,-0.956,0.117,-0.183,0.366,0.427,550.697
101589,139553,19647,-0.073,-0.958,0.113,-0.854,0.854,0.61,550.701
101589,139578,7802,-0.074,-0.96,0.106,-0.854,0.854,0.61,550.707
101581,139553,19647,-0.076,-0.964,0.107,-0.732,0.61,0.793,550.711
101581,139582,7805,-0.071,-0.967,0.118,-0.732,0.61,0.793,550.717
101571,139553,19647,-0.068,-0.961,0.125,0.061,0.183,0.732,550.721
101571,139572,7799,-0.066,-0.95,0.129,0.061,0.183,0.732,550.727
101586,139553,19647,-0.07,-0.945,0.126,-0.122,0.488,0.549,550.73
101586,139571,7799,-0.073,-0.95,0.119,-0.122,0.488,0.549,550.737
101595,139553,19647,-0.074,-0.954,0.118,-0.793,1.098,0.549,550.74
101595,139564,7807,-0.074,-0.959,0.113,-0.793,1.098,0.549,550.746
101609,139553,19647,-0.073,-0.958,0.113,-1.037,1.098,0.427,550.75
101609,139566,7809,-0.072,-0.961,0.115,-1.037,1.098,0.427,550.756
101589,139553,19647,-0.069,-0.965,0.118,-0.854,0.793,0.366,550.76
101589,139582,7808,-0.068,-0.974,0.115,-0.854,0.793,0.366,550.766
101595,139553,19647,-0.066,-0.976,0.11,-0.732,0.854,0.427,550.77
101595,139563,7801,-0.072,-0.971,0.106,-0.732,0.854,0.427,550.776
101595,139553,19647,-0.077,-0.969,0.098,-0.671,0.976,0.671,550.78
101595,139563,7814,-0.082,-0.963,0.096,-0.671,0.976,0.671,550.786
101594,139553,19647,-0.081,-0.963,0.099,-0.183,0.488,0.793,550.79
101594,139566,7812,-0.076,-0.965,0.104,-0.183,0.488,0.793,550.796
101587,139553,19647,-0.076,-0.966,0.111,0.854,-0.244,0.61,550.8
101587,139587,7788,-0.075,-0.963,0.118,0.854,-0.244,0.61,550.806
101601,139553,19647,-0.075,-0.956,0.119,1.28,-0.488,0.244,550.81
101601,139572,7804,-0.077,-0.956,0.12,1.28,-0.488,0.244,550.816
101575,139553,19647,-0.079,-0.956,0.12,0.671,-0.427,0.244,550.819
101575,139557,7811,-0.077,-0.957,0.116,0.671,-0.427,0.244,550.826
101595,139553,19647,-0.074,-0.963,0.122,0.549,-0.427,0.122,550.829
101595,139552,7796,-0.072,-0.966,0.129,0.549,-0.427,0.122,550.836
101566,139553,19647,-0.071,-0.962,0.13,0.488,-0.244,-0.061,550.839
101566,139571,7801,-0.07,-0.958,0.128,0.488,-0.244,-0.061,550.845
101563,139553,19647,-0.072,-0.959,0.122,-0.366,0.244,-0.122,550.849
101563,139556,7800,-0.072,-0.964,0.116,-0.366,0.244,-0.122,550.855
101556,139553,19647,-0.071,-0.966,0.115,-0.854,0.549,0.122,550.859
101556,139547,7791,-0.074,-0.964,0.115,-0.854,0.549,0.122,550.865
101572,139553,19647,-0.071,-0.961,0.117,-0.427,0.488,0.183,550.869
101572,139537,7800,-0.071,-0.957,0.116,-0.427,0.488,0.183,550.875
101552,139553,19647,-0.07,-0.955,0.118,-0.366,0.366,0.122,550.879
101552,139568,7800,-0.07,-0.955,0.121,-0.366,0.366,0.122,550.885
101564,139553,19647,-0.071,-0.958,0.122,-0.549,0.244,0.122,550.889
101564,139526,7799,-0.069,-0.964,0.116,-0.549,0.244,0.122,550.895
101548,139553,19647,-0.068,-0.965,0.116,-0.671,0.305,0.305,550.899
101548,139542,7797,-0.068,-0.965,0.117,-0.671,0.305,0.305,550.905
101581,139553,19647,-0.069,-0.966,0.116,-0.671,0.488,0.488,550.909
101581,139545,7798,-0.071,-0.965,0.113,-0.671,0.488,0.488,550.915
101550,139553,19647,-0.074,-0.965,0.117,-0.732,0.671,0.549,550.918
101550,139527,7806,-0.074,-0.964,0.113,-0.732,0.671,0.549,550.925
101571,139553,19647,-0.069,-0.96,0.112,-0.549,0.732,0.488,550.928
101571,139543,7801,-0.069,-0.962,0.111,-0.549,0.732,0.488,550.935
101553,139553,19647,-0.071,-0.962,0.108,-0.732,0.61,0.549,550.938
101553,139539,7790,-0.071,-0.964,0.112,-0.732,0.61,0.549,550.944
101551,139553,19647,-0.072,-0.965,0.117,-0.488,0.61,0.488,550.948
101551,139525,7796,-0.07,-0.962,0.115,-0.488,0.61,0.488,550.954
101570,139553,19647,-0.072,-0.959,0.115,-0.122,0.671,0.488,550.958
101570,139531,7794,-0.075,-0.96,0.111,-0.122,0.671,0.488,550.964
101536,139553,19647,-0.074,-0.961,0.113,-0.244,0.61,0.488,550.968
101536,139531,7790,-0.07,-0.963,0.116,-0.244,0.61,0.488,550.974
101545,139553,19647,-0.07,-0.96,0.114,-0.061,0.366,0.427,550.978
101545,139564,7802,-0.069,-0.955,0.116,-0.061,0.366,0.427,550.984
101569,139553,19647,-0.072,-0.956,0.121,-0.061,0.427,0.427,550.988
101569,139529,7801,-0.072,-0.958,0.12,-0.061,0.427,0.427,550.994
101549,139553,19647,-0.069,-0.964,0.116,-0.366,0.305,0.366,550.998
101549,139530,7801,-0.069,-0.968,0.117,-0.366,0.305,0.366,551.004
101564,139553,19647,-0.069,-0.973,0.124,-0.427,0.305,0.488,551.008
101564,139549,7788,-0.071,-0.968,0.121,-0.427,0.305,0.488,551.014
101569,139297,19647,-0.073,-0.963,0.117,-0.549,0.61,0.671,551.017
101569,139518,7789,-0.077,-0.961,0.113,-0.549,0.61,0.671,551.024
101552,139553,19647,-0.075,-0.959,0.109,-0.976,0.854,0.61,551.027
101552,139542,7800,-0.075,-0.961,0.113,-0.976,0.854,0.61,551.034
101563,139553,19647,-0.074,-0.962,0.113,-0.61,0.732,0.732,551.037
101563,139577,7817,-0.075,-0.958,0.112,-0.61,0.732,0.732,551.043
101567,139553,19647,-0.074,-0.953,0.115,-0.61,0.671,0.549,551.047
101567,139546,7784,-0.075,-0.955,0.11,-0.61,0.671,0.549,551.053
101561,139553,19647,-0.074,-0.957,0.107,-0.793,0.671,0.366,551.057
101561,139522,7790,-0.075,-0.959,0.105,-0.793,0.671,0.366,551.063
101574,139553,19647,-0.077,-0.965,0.105,-0.366,0.488,0.244,551.067
101574,139547,7790,-0.075,-0.969,0.105,-0.366,0.488,0.244,551.073
101547,139553,19647,-0.072,-0.969,0.108,0.549,0,0.183,551.077
101547,139539,7800,-0.069,-0.97,0.112,0.549,0,0.183,551.083
101569,139553,19647,-0.069,-0.97,0.112,0.549,0,0.183,551.087
101569,139543,7788,-0.072,-0.966,0.113,0.854,-0.244,0.183,551.093
101561,139553,19647,-0.072,-0.966,0.113,0.854,-0.244,0.183,551.097
101561,139534,7786,-0.069,-0.961,0.121,0.915,-0.305,0.305,551.103
101551,139553,19647,-0.069,-0.961,0.121,0.915,-0.305,0.305,551.107
101551,139543,7808,-0.071,-0.953,0.125,0.732,-0.366,0.366,551.113
101541,139553,19647,-0.071,-0.953,0.125,0.732,-0.366,0.366,551.116
101541,139536,7799,-0.07,-0.951,0.125,0.305,0,0.366,551.123
101558,139553,19647,-0.07,-0.951,0.125,0.305,0,0.366,551.126
101558,139537,7785,-0.075,-0.959,0.124,-0.305,0.427,0.366,551.133
101564,139553,19647,-0.075,-0.959,0.124,-0.305,0.427,0.366,551.136
101564,139535,7796,-0.073,-0.958,0.116,-0.793,0.549,0.305,551.142
101546,139553,19647,-0.073,-0.958,0.116,-0.793,0.549,0.305,551.146
101546,139573,7798,-0.073,-0.966,0.113,-0.854,0.61,0.061,551.152
101586,139553,19647,-0.073,-0.966,0.113,-0.854,0.61,0.061,551.156
101586,139565,7793,-0.076,-0.966,0.109,-0.366,0.488,-0.061,551.162
101584,139553,19647,-0.076,-0.966,0.109,-0.366,0.488,-0.061,551.166
101584,139536,7798,-0.068,-0.972,0.114,0,0.244,0,551.172
101568,139553,19647,-0.068,-0.972,0.114,0,0.244,0,551.176
101568,139541,7796,-0.067,-0.961,0.119,0.305,0.061,0.061,551.182
101578,139553,19647,-0.067,-0.961,0.119,0.305,0.061,0.061,551.186
101578,139545,7784,-0.068,-0.961,0.121,0.061,0.305,0.488,551.192
101577,139553,19647,-0.068,-0.961,0.121,0.061,0.305,0.488,551.196
101577,139531,7786,-0.068,-0.962,0.118,-0.671,0.61,0.671,551.202
101580,139553,19647,-0.068,-0.962,0.118,-0.671,0.61,0.671,551.206
101580,139537,7801,-0.071,-0.958,0.116,-1.159,0.793,0.732,551.212
101582,139553,19647,-0.071,-0.958,0.116,-1.159,0.793,0.732,551.215
101582,139536,7791,-0.075,-0.959,0.11,-1.098,1.098,0.732,551.222
101551,139553,19647,-0.075,-0.959,0.11,-1.098,1.098,0.732,551.225
101551,139526,7788,-0.075,-0.963,0.107,-0.549,0.915,0.549,551.232
101577,139553,19647,-0.076,-0.965,0.099,-0.549,0.915,0.549,551.235
101577,139535,7796,-0.074,-0.969,0.108,0.183,0.183,0.61,551.241
101565,139553,19647,-0.07,-0.969,0.114,0.183,0.183,0.61,551.245
101565,139556,7803,-0.071,-0.965,0.117,0.732,-0.244,0.427,551.251
101583,139553,19647,-0.07,-0.958,0.118,0.732,-0.244,0.427,551.255
101583,139587,7799,-0.071,-0.957,0.119,0.915,0.061,0.305,551.261
101583,139553,19647,-0.072,-0.956,0.119,0.915,0.061,0.305,551.265
101583,139562,7806,-0.077,-0.956,0.117,0.61,0.305,0.366,551.271
101575,139553,19647,-0.074,-0.962,0.119,0.61,0.305,0.366,551.275
101575,139556,7792,-0.07,-0.967,0.123,0.183,0.183,0.366,551.281
101555,139553,19647,-0.067,-0.968,0.122,0.183,0.183,0.366,551.285
101555,139544,7784,-0.069,-0.97,0.121,-0.61,0.244,0.427,551.291
101572,139553,19647,-0.067,-0.969,0.121,-0.61,0.244,0.427,551.295
101572,139550,7788,-0.074,-0.966,0.122,-1.098,0.671,0.671,551.301
101571,139553,19647,-0.073,-0.96,0.118,-1.098,0.671,0.671,551.305
101571,139565,7797,-0.075,-0.955,0.113,-0.915,1.037,0.488,551.311
101572,139553,19647,-0.08,-0.951,0.111,-0.915,1.037,0.488,551.314
101572,139550,7787,-0.077,-0.952,0.108,-0.793,0.854,0.183,551.321
101577,139553,19647,-0.075,-0.947,0.106,-0.793,0.854,0.183,551.324
101577,139571,7787,-0.073,-0.954,0.112,-0.61,0.244,0.061,551.331
101577,139553,19647,-0.072,-0.964,0.118,-0.61,0.244,0.061,551.334
101577,139540,7804,-0.066,-0.969,0.123,0.183,-0.122,-0.061,551.34
101567,139553,19647,-0.067,-0.967,0.12,0.183,-0.122,-0.061,551.344
101567,139581,7797,-0.071,-0.964,0.116,0.122,0.183,0.061,551.35
101589,139553,19647,-0.073,-0.966,0.115,0.122,0.183,0.061,551.354
101589,139567,7801,-0.075,-0.969,0.11,-0.244,0.427,0.244,551.36
101584,139553,19647,-0.071,-0.969,0.112,-0.244,0.427,0.244,551.364
101584,139568,7791,-0.072,-0.962,0.113,0.122,0.244,0.244,551.37
101603,139553,19647,-0.075,-0.961,0.109,0.122,0.244,0.244,551.374
101603,139557,7794,-0.074,-0.963,0.118,0.427,0.183,0.183,551.38
101573,139553,19647,-0.069,-0.966,0.12,0.427,0.183,0.183,551.384
101573,139553,7800,-0.066,-0.96,0.119,0.366,0.122,0.183,551.39
101561,139553,19647,-0.07,-0.956,0.117,0.366,0.122,0.183,551.394
101561,139581,7807,-0.074,-0.956,0.12,-0.122,0.366,0.244,551.4
101575,139553,19647,-0.072,-0.953,0.117,-0.122,0.366,0.244,551.404
101575,139576,7794,-0.069,-0.957,0.112,-0.366,0.488,0.366,551.41
101586,139553,19647,-0.073,-0.963,0.107,-0.366,0.488,0.366,551.413
101586,139549,7799,-0.072,-0.967,0.11,-0.488,0.305,0.366,551.42
101575,139553,19647,-0.072,-0.971,0.112,-0.488,0.305,0.366,551.423
101575,139562,7791,-0.07,-0.97,0.111,0,0.183,0.305,551.43
101591,139553,19647,-0.07,-0.97,0.115,0,0.183,0.305,551.433
101591,139568,7796,-0.072,-0.97,0.113,0.427,0.122,0.305,551.439
101575,139553,19647,-0.069,-0.963,0.112,0.427,0.122,0.305,551.443
101575,139539,7792,-0.07,-0.96,0.112,0.244,0.305,0.427,551.449
101574,139553,19647,-0.071,-0.959,0.11,0.244,0.305,0.427,551.453
101574,139550,7803,-0.074,-0.96,0.116,0.122,0.366,0.488,551.459
101575,139553,19647,-0.07,-0.964,0.123,0.122,0.366,0.488,551.463
101575,139552,7802,-0.069,-0.961,0.118,0,0.305,0.671,551.469
101583,139553,19647,-0.068,-0.959,0.118,0,0.305,0.671,551.473
101583,139558,7793,-0.07,-0.956,0.12,-0.061,0.427,0.549,551.479
101575,139553,19647,-0.072,-0.957,0.12,-0.061,0.427,0.549,551.483
101575,139546,7806,-0.074,-0.956,0.117,0.183,0.427,0.61,551.489
101564,139553,19647,-0.074,-0.958,0.118,0.183,0.427,0.61,551.493
101564,139581,7788,-0.073,-0.958,0.121,0.366,0.244,0.61,551.499
101569,139553,19647,-0.072,-0.961,0.119,0.366,0.244,0.61,551.503
101569,139565,7802,-0.07,-0.965,0.125,0.427,0.061,0.488,551.509
101577,139553,19647,-0.072,-0.963,0.128,0.427,0.061,0.488,551.512
101577,139573,7796,-0.072,-0.962,0.127,0.061,0.305,0.427,551.519
101588,139553,19647,-0.071,-0.961,0.124,0.061,0.305,0.427,551.522
101588,139542,7804,-0.072,-0.958,0.12,-0.427,0.671,0.244,551.529
101593,139553,19647,-0.072,-0.958,0.12,-0.427,0.671,0.244,551.532
101593,139572,7802,-0.073,-0.961,0.118,-0.915,0.915,0.183,551.538
101584,139553,19647,-0.071,-0.959,0.116,-0.915,0.915,0.183,551.542
101584,139564,7801,-0.071,-0.961,0.108,-1.098,0.915,0.366,551.548
101586,139553,19647,-0.07,-0.962,0.111,-1.098,0.915,0.366,551.552
101586,139578,7799,-0.07,-0.965,0.11,-1.098,0.854,0.305,551.558
101575,139553,19647,-0.072,-0.966,0.106,-1.098,0.854,0.305,551.562
101575,139565,7794,-0.071,-0.967,0.109,-1.037,0.793,0.61,551.568
101590,139553,19647,-0.075,-0.965,0.106,-1.037,0.793,0.61,551.572
101590,139578,7815,-0.075,-0.965,0.106,-0.976,0.732,0.671,551.578
101585,139553,19647,-0.072,-0.966,0.113,-0.976,0.732,0.671,551.582
101585,139595,7787,-0.074,-0.961,0.115,-0.61,0.671,0.488,551.588
101583,139553,19647,-0.075,-0.955,0.116,-0.61,0.671,0.488,551.592
101583,139572,7788,-0.073,-0.956,0.116,-0.732,0.671,0.366,551.598
101590,139553,19647,-0.075,-0.959,0.114,-0.732,0.671,0.366,551.602
101590,139574,7802,-0.076,-0.961,0.113,-1.098,0.793,0.305,551.608
101583,139553,19647,-0.074,-0.967,0.115,-1.098,0.793,0.305,551.611
101583,139581,7789,-0.073,-0.965,0.12,-0.732,0.732,0.183,551.618
101583,139553,19647,-0.07,-0.96,0.117,-0.732,0.732,0.183,551.621
101583,139558,7806,-0.071,-0.955,0.116,-0.366,0.732,0.122,551.628
101574,139553,19647,-0.071,-0.954,0.112,-0.366,0.732,0.122,551.631
101574,139578,7792,-0.071,-0.954,0.111,-0.366,0.793,0.305,551.637
101583,139553,19647,-0.068,-0.961,0.112,-0.366,0.793,0.305,551.641
101583,139569,7791,-0.07,-0.963,0.115,0.305,0.488,0.427,551.647
101575,139553,19647,-0.071,-0.96,0.115,0.305,0.488,0.427,551.651
101575,139562,7792,-0.07,-0.959,0.119,0.366,0.305,0.488,551.657
101597,139553,19647,-0.071,-0.959,0.116,0.366,0.305,0.488,551.661
101597,139592,7798,-0.069,-0.964,0.113,-0.122,0.305,0.671,551.667
101593,139553,19647,-0.069,-0.964,0.113,-0.122,0.305,0.671,551.671
101593,139553,7795,-0.07,-0.965,0.112,-0.061,0.366,0.732,551.677
101590,139553,19647,-0.07,-0.965,0.112,-0.061,0.366,0.732,551.681
101590,139572,7810,-0.072,-0.959,0.113,-0.061,0.366,0.671,551.687
101606,139553,19647,-0.072,-0.959,0.113,-0.061,0.366,0.671,551.691
101606,139584,7805,-0.073,-0.961,0.113,-0.183,0.366,0.488,551.697
101591,139553,19647,-0.073,-0.961,0.113,-0.183,0.366,0.488,551.701
101591,139565,7808,-0.07,-0.961,0.116,-0.183,0.427,0.488,551.707
101593,139553,19647,-0.07,-0.961,0.116,-0.183,0.427,0.488,551.71
101593,139601,7814,-0.074,-0.958,0.113,-0.427,0.549,0.549,551.717
101608,139553,19647,-0.074,-0.958,0.113,-0.427,0.549,0.549,551.72
101608,139578,7801,-0.078,-0.967,0.111,-0.671,0.549,0.732,551.726
101608,139553,19647,-0.078,-0.967,0.111,-0.671,0.549,0.732,551.73
101608,139576,7804,-0.075,-0.965,0.109,-0.61,0.488,0.671,551.736
101595,139553,19647,-0.075,-0.965,0.109,-0.61,0.488,0.671,551.74
101595,139588,7806,-0.077,-0.966,0.118,-0.122,0.183,0.671,551.746
101607,139553,19647,-0.077,-0.966,0.118,-0.122,0.183,0.671,551.75
101607,139585,7804,-0.073,-0.963,0.114,0.305,-0.122,0.427,551.756
101576,139553,19647,-0.073,-0.963,0.114,0.305,-0.122,0.427,551.76
101576,139584,7806,-0.075,-0.96,0.122,0.366,0,0.366,551.766
101577,139553,19647,-0.075,-0.96,0.122,0.366,0,0.366,551.77
101577,139579,7817,-0.074,-0.957,0.122,0.244,0.183,0.244,551.776
101572,139553,19647,-0.074,-0.957,0.122,0.244,0.183,0.244,551.78
101572,139573,7796,-0.075,-0.957,0.117,0,0.183,0.061,551.786
101593,139553,19647,-0.075,-0.957,0.117,0,0.183,0.061,551.79
101593,139559,7802,-0.071,-0.962,0.112,-0.305,0,0.122,551.796
101567,139553,19647,-0.071,-0.962,0.112,-0.305,0,0.122,551.799
101567,139549,7809,-0.068,-0.964,0.118,-0.305,0,0.122,551.806
101554,139553,19647,-0.069,-0.965,0.119,-0.366,0.183,0.244,551.809
101554,139544,7811,-0.071,-0.961,0.115,-0.366,0.183,0.244,551.816
101563,139553,19647,-0.076,-0.953,0.112,-0.488,0.427,0.244,551.819
101563,139537,7804,-0.074,-0.956,0.11,-0.488,0.427,0.244,551.825
101569,139553,19647,-0.073,-0.959,0.109,-0.549,0.427,0.183,551.829
101569,139536,7795,-0.073,-0.962,0.109,-0.549,0.427,0.183,551.835
101556,139553,19647,-0.072,-0.966,0.118,-0.183,0.183,0.183,551.839
101556,139563,7801,-0.073,-0.962,0.117,-0.183,0.183,0.183,551.845
101564,139553,19647,-0.07,-0.962,0.12,-0.183,0.183,0.183,551.849
101564,139559,7797,-0.069,-0.961,0.119,-0.183,0.183,0.183,551.855
101537,139553,19647,-0.071,-0.962,0.118,-0.427,0.366,0.305,551.859
101537,139541,7815,-0.07,-0.962,0.115,-0.427,0.366,0.305,551.865
101558,139553,19647,-0.072,-0.965,0.11,-0.61,0.488,0.244,551.869
101558,139558,7801,-0.071,-0.968,0.11,-0.61,0.488,0.244,551.875
101563,139553,19647,-0.074,-0.964,0.113,-0.366,0.427,0.244,551.879
101563,139556,7799,-0.071,-0.963,0.117,-0.366,0.427,0.244,551.885
101562,139553,19647,-0.071,-0.962,0.115,-0.061,0.427,0.244,551.889
101562,139525,7804,-0.072,-0.961,0.115,-0.061,0.427,0.244,551.895
101555,139553,19647,-0.076,-0.96,0.119,-0.061,0.488,0.366,551.898
101555,139533,7813,-0.073,-0.96,0.117,-0.061,0.488,0.366,551.905
101560,139553,19647,-0.074,-0.96,0.113,-0.244,0.549,0.427,551.908
101560,139546,7800,-0.072,-0.959,0.112,-0.244,0.549,0.427,551.915
101557,139553,19647,-0.069,-0.957,0.111,-0.305,0.549,0.488,551.918
101557,139568,7788,-0.071,-0.964,0.114,-0.305,0.549,0.488,551.924
101546,139553,19647,-0.069,-0.966,0.119,-0.183,0.427,0.488,551.928
101546,139545,7806,-0.067,-0.962,0.121,-0.183,0.427,0.488,551.934
101576,139553,19647,-0.071,-0.962,0.115,-0.366,0.366,0.61,551.938
101576,139563,7799,-0.072,-0.962,0.117,-0.366,0.366,0.61,551.944
101568,139553,19647,-0.07,-0.962,0.116,-0.854,0.793,0.732,551.948
101568,139533,7803,-0.071,-0.963,0.117,-0.854,0.793,0.732,551.954
101541,139553,19647,-0.077,-0.955,0.114,-1.037,1.037,0.793,551.958
101541,139527,7799,-0.077,-0.953,0.117,-1.037,1.037,0.793,551.964
101550,139553,19647,-0.079,-0.957,0.113,-1.098,0.915,0.61,551.968
101550,139559,7807,-0.075,-0.963,0.108,-1.098,0.915,0.61,551.974
101570,139553,19647,-0.07,-0.968,0.112,-0.915,0.732,0.488,551.978
101570,139556,7790,-0.07,-0.967,0.112,-0.915,0.732,0.488,551.984
101544,139553,19647,-0.075,-0.959,0.112,-0.366,0.427,0.488,551.988
101544,139539,7796,-0.077,-0.955,0.114,-0.366,0.427,0.488,551.994
101548,139553,19647,-0.074,-0.956,0.114,0.061,0.549,0.366,551.997
101548,139541,7798,-0.071,-0.954,0.113,0.061,0.549,0.366,552.004
101547,139553,19647,-0.074,-0.958,0.113,0.061,0.427,0.122,552.007
101547,139556,7800,-0.074,-0.964,0.114,0.061,0.427,0.122,552.014
