100880,139041,19647,-0.114,-0.961,-0.026,0.305,-0.183,0.427,103.696
100880,139011,7876,-0.115,-0.963,-0.023,0.305,-0.183,0.427,103.703
100872,138785,19647,-0.114,-0.964,-0.024,0.122,-0.183,0.427,103.706
100872,139007,7881,-0.11,-0.962,-0.026,0.122,-0.183,0.427,103.712
100889,139041,19647,-0.111,-0.965,-0.025,-0.244,-0.122,0.427,103.716
100889,139026,7879,-0.115,-0.964,-0.024,-0.244,-0.122,0.427,103.722
100894,139041,19647,-0.116,-0.964,-0.02,-0.305,-0.122,0.366,103.726
100894,139024,7880,-0.116,-0.963,-0.014,-0.305,-0.122,0.366,103.732
100857,139041,19647,-0.116,-0.961,-0.011,0.122,-0.122,0.305,103.736
100857,139009,7880,-0.115,-0.964,-0.017,0.122,-0.122,0.305,103.742
100863,138785,19647,-0.114,-0.965,-0.023,0.305,0.061,0.366,103.746
100863,139005,7869,-0.115,-0.967,-0.025,0.305,0.061,0.366,103.752
100883,139041,19647,-0.117,-0.964,-0.027,0.305,0.183,0.549,103.756
100883,139015,7886,-0.117,-0.961,-0.031,0.305,0.183,0.549,103.762
100872,138785,19647,-0.114,-0.961,-0.029,0.183,0.122,0.427,103.766
100872,138993,7886,-0.115,-0.962,-0.019,0.183,0.122,0.427,103.772
100898,139041,19647,-0.113,-0.959,-0.018,0,0,0.244,103.776
100898,139009,7870,-0.113,-0.957,-0.019,0,0,0.244,103.782
100873,138785,19647,-0.112,-0.962,-0.019,-0.549,0,0.366,103.786
100873,138992,7883,-0.11,-0.967,-0.014,-0.549,0,0.366,103.792
100890,139041,19647,-0.108,-0.964,-0.011,-0.366,0.122,0.305,103.795
100890,139017,7868,-0.108,-0.96,-0.012,-0.366,0.122,0.305,103.802
100869,139041,19647,-0.11,-0.966,-0.013,0.061,0.366,0.305,103.805
100869,139009,7877,-0.107,-0.965,-0.019,0.061,0.366,0.305,103.811
100864,138785,19647,-0.108,-0.963,-0.021,0.183,0.61,0.488,103.815
100864,138999,7874,-0.11,-0.965,-0.026,0.183,0.61,0.488,103.821
100864,138785,19647,-0.111,-0.962,-0.028,-0.183,0.732,0.549,103.825
100864,138980,7879,-0.112,-0.964,-0.031,-0.183,0.732,0.549,103.831
100838,138785,19647,-0.114,-0.961,-0.033,-0.427,0.671,0.549,103.835
100838,138978,7869,-0.115,-0.962,-0.034,-0.427,0.671,0.549,103.841
100841,138785,19647,-0.114,-0.96,-0.031,-0.122,0.305,0.488,103.845
100841,138997,7877,-0.114,-0.959,-0.027,-0.122,0.305,0.488,103.851
100855,138785,19647,-0.114,-0.954,-0.028,0.061,0.122,0.244,103.855
100855,138996,7861,-0.115,-0.953,-0.024,0.061,0.122,0.244,103.861
100847,138785,19647,-0.116,-0.955,-0.022,-0.244,0.305,0.061,103.865
100847,138993,7871,-0.114,-0.957,-0.019,-0.244,0.305,0.061,103.871
100853,139041,19647,-0.113,-0.962,-0.014,-0.366,0.366,-0.122,103.875
100853,139015,7879,-0.114,-0.968,-0.01,-0.366,0.366,-0.122,103.881
100857,138785,19647,-0.114,-0.971,-0.011,-0.488,0.488,-0.244,103.884
100857,138990,7867,-0.116,-0.967,-0.015,-0.488,0.488,-0.244,103.891
100841,138785,19647,-0.116,-0.966,-0.023,-0.488,0.732,-0.061,103.894
100841,138986,7870,-0.115,-0.968,-0.026,-0.488,0.732,-0.061,103.901
100830,138785,19647,-0.119,-0.972,-0.02,-0.549,0.732,0.122,103.904
100830,138998,7869,-0.117,-0.973,-0.022,-0.549,0.732,0.122,103.91
100859,138785,19647,-0.113,-0.974,-0.025,-0.549,0.671,0.366,103.914
100859,138977,7876,-0.112,-0.972,-0.022,-0.549,0.671,0.366,103.92
100836,138785,19647,-0.112,-0.966,-0.026,-0.427,0.488,0.671,103.924
100836,138971,7869,-0.116,-0.96,-0.024,-0.427,0.488,0.671,103.93
100840,138785,19647,-0.12,-0.96,-0.021,-0.61,0.549,0.854,103.934
100840,138983,7879,-0.117,-0.964,-0.02,-0.61,0.549,0.854,103.94
100839,138785,19647,-0.118,-0.964,-0.027,-0.732,0.61,0.793,103.944
100839,138980,7871,-0.113,-0.963,-0.029,-0.732,0.61,0.793,103.95
100864,138785,19647,-0.113,-0.959,-0.024,0,0.488,0.61,103.954
100864,138962,7887,-0.113,-0.95,-0.024,0,0.488,0.61,103.96
100842,138785,19647,-0.114,-0.95,-0.025,0.305,0.427,0.366,103.964
100842,138996,7880,-0.117,-0.956,-0.025,0.305,0.427,0.366,103.97
100856,138785,19647,-0.114,-0.958,-0.024,-0.183,0.61,0.244,103.974
100856,138976,7867,-0.115,-0.963,-0.026,-0.183,0.61,0.244,103.98
100851,138785,19647,-0.116,-0.963,-0.03,-0.305,0.549,0.122,103.983
100851,138994,7870,-0.114,-0.961,-0.028,-0.305,0.549,0.122,103.99
100850,139041,19647,-0.115,-0.963,-0.026,-0.122,0.366,-0.122,103.993
100850,139011,7886,-0.118,-0.962,-0.026,-0.122,0.366,-0.122,104
100848,138785,19647,-0.118,-0.962,-0.026,-0.122,0.366,-0.122,104.003
100848,138988,7870,-0.114,-0.968,-0.018,-0.061,0.305,-0.183,104.009
100815,138785,19647,-0.114,-0.968,-0.018,-0.061,0.305,-0.183,104.013
100815,138995,7873,-0.109,-0.971,-0.016,-0.244,0.366,-0.061,104.019
100837,138785,19647,-0.109,-0.971,-0.016,-0.244,0.366,-0.061,104.023
100837,138975,7859,-0.114,-0.968,-0.02,-0.244,0.549,0.244,104.029
100831,138785,19647,-0.114,-0.968,-0.02,-0.244,0.549,0.244,104.033
100831,138980,7888,-0.114,-0.968,-0.021,-0.061,0.671,0.427,104.039
100826,138785,19647,-0.114,-0.968,-0.021,-0.061,0.671,0.427,104.043
100826,138994,7868,-0.114,-0.968,-0.027,-0.488,0.61,0.549,104.049
100839,138785,19647,-0.114,-0.968,-0.027,-0.488,0.61,0.549,104.053
100839,139004,7865,-0.118,-0.953,-0.033,-0.61,0.488,0.732,104.059
100844,138785,19647,-0.118,-0.953,-0.033,-0.61,0.488,0.732,104.063
100844,139005,7880,-0.115,-0.953,-0.021,0.061,0.122,0.61,104.069
100855,139041,19647,-0.115,-0.953,-0.021,0.061,0.122,0.61,104.073
100855,139017,7861,-0.112,-0.962,-0.027,0,0.061,0.305,104.079
100837,138785,19647,-0.112,-0.962,-0.027,0,0.061,0.305,104.082
100837,138987,7876,-0.11,-0.966,-0.027,-0.61,0.366,0.122,104.089
100862,138785,19647,-0.11,-0.966,-0.027,-0.61,0.366,0.122,104.092
100862,138984,7886,-0.112,-0.967,-0.015,0,0.305,0,104.099
100853,138785,19647,-0.112,-0.967,-0.015,0,0.305,0,104.102
100853,139006,7875,-0.111,-0.964,-0.021,0.732,0.183,0,104.108
100865,139041,19647,-0.111,-0.964,-0.021,0.732,0.183,0,104.112
100865,139025,7878,-0.113,-0.968,-0.026,0,0.488,0.122,104.118
100853,138785,19647,-0.113,-0.968,-0.026,0,0.488,0.122,104.122
100853,139001,7866,-0.119,-0.968,-0.026,-0.488,0.732,0.305,104.128
100854,138785,19647,-0.119,-0.968,-0.026,-0.488,0.732,0.305,104.132
100854,138984,7880,-0.115,-0.956,-0.027,-0.183,0.366,0.427,104.138
100856,138785,19647,-0.115,-0.956,-0.027,-0.183,0.366,0.427,104.142
100856,138981,7869,-0.114,-0.959,-0.028,-0.122,0,0.427,104.148
100833,138785,19647,-0.111,-0.963,-0.026,-0.122,0,0.427,104.152
100833,138985,7882,-0.111,-0.965,-0.019,-0.549,0.122,0.61,104.158
100832,138785,19647,-0.116,-0.965,-0.016,-0.549,0.122,0.61,104.162
100832,139001,7881,-0.113,-0.968,-0.021,-0.61,0.427,0.732,104.168
100838,138785,19647,-0.112,-0.966,-0.017,-0.61,0.427,0.732,104.172
100838,138994,7887,-0.112,-0.963,-0.018,-0.244,0.427,0.488,104.178
100861,138785,19647,-0.114,-0.962,-0.025,-0.244,0.427,0.488,104.181
100861,138987,7884,-0.116,-0.967,-0.021,0.061,0.488,0.61,104.188
100839,139041,19647,-0.115,-0.962,-0.026,0.061,0.488,0.61,104.191
100839,139014,7897,-0.114,-0.961,-0.035,0,0.366,0.671,104.198
100868,139041,19647,-0.115,-0.97,-0.021,0,0.366,0.671,104.201
100868,139017,7875,-0.114,-0.956,-0.021,0.488,0.244,0.427,104.207
100868,139041,19647,-0.112,-0.948,-0.029,0.488,0.244,0.427,104.211
100868,139025,7877,-0.114,-0.953,-0.026,0.366,0.427,0.305,104.217
100883,138785,19647,-0.112,-0.952,-0.026,0.366,0.427,0.305,104.221
100883,138997,7865,-0.113,-0.954,-0.022,-0.061,0.488,0.244,104.227
100870,139041,19647,-0.113,-0.961,-0.017,-0.061,0.488,0.244,104.231
100870,139020,7867,-0.112,-0.97,-0.014,-0.305,0.488,0.061,104.237
100870,138785,19647,-0.109,-0.972,-0.014,-0.305,0.488,0.061,104.241
100870,138997,7880,-0.109,-0.97,-0.022,-0.061,0.488,0.244,104.247
100861,138785,19647,-0.111,-0.972,-0.022,-0.061,0.488,0.244,104.251
100861,138987,7876,-0.117,-0.971,-0.013,0.244,0.549,0.305,104.257
100850,139041,19647,-0.116,-0.967,-0.014,0.244,0.549,0.305,104.261
100850,139016,7886,-0.116,-0.966,-0.019,-0.122,0.549,0.427,104.267
100853,138785,19647,-0.113,-0.97,-0.025,-0.122,0.549,0.427,104.271
100853,139007,7873,-0.112,-0.973,-0.03,-0.427,0.488,0.671,104.277
100847,139041,19647,-0.116,-0.969,-0.03,-0.427,0.488,0.671,104.28
100847,139035,7878,-0.118,-0.96,-0.038,0,0.427,0.854,104.287
100842,139041,19647,-0.117,-0.957,-0.017,0,0.427,0.854,104.29
100842,139017,7895,-0.114,-0.938,-0.038,0.366,0.427,0.671,104.297
100844,138785,19647,-0.114,-0.949,-0.037,0.366,0.427,0.671,104.3
100844,138996,7880,-0.112,-0.965,-0.019,-0.183,0.183,0.305,104.306
100845,139041,19647,-0.112,-0.957,-0.022,-0.183,0.183,0.305,104.31
100845,139013,7859,-0.111,-0.963,-0.022,-0.488,0.244,0.427,104.316
100849,138785,19647,-0.116,-0.967,-0.016,-0.488,0.244,0.427,104.32
100849,139005,7885,-0.118,-0.964,-0.013,-0.122,0.488,0.183,104.326
100850,139041,19647,-0.116,-0.959,-0.016,-0.122,0.488,0.183,104.33
100850,139012,7881,-0.115,-0.96,-0.024,-0.061,0.549,0.183,104.336
100866,138785,19647,-0.114,-0.968,-0.026,-0.061,0.549,0.183,104.34
100866,139004,7872,-0.115,-0.973,-0.028,-0.488,0.854,0.183,104.346
100867,138785,19647,-0.119,-0.971,-0.026,-0.488,0.854,0.183,104.35
100867,139004,7884,-0.118,-0.965,-0.024,-0.549,0.671,0.549,104.356
100842,139041,19647,-0.115,-0.962,-0.017,-0.549,0.671,0.549,104.36
100842,139020,7878,-0.117,-0.961,-0.011,-0.061,0.061,0.549,104.366
100875,139041,19647,-0.116,-0.962,-0.006,-0.061,0.061,0.549,104.37
100875,139034,7879,-0.113,-0.957,-0.006,-0.244,0.244,0.549,104.376
100851,139041,19647,-0.113,-0.956,-0.011,-0.244,0.244,0.549,104.379
100851,139017,7888,-0.113,-0.954,-0.017,-0.854,0.854,0.488,104.386
100873,139041,19647,-0.114,-0.955,-0.028,-0.854,0.854,0.488,104.389
100873,139022,7888,-0.114,-0.959,-0.026,-0.976,1.037,0.305,104.396
100877,139041,19647,-0.114,-0.962,-0.03,-0.976,1.037,0.305,104.399
100877,139039,7875,-0.111,-0.964,-0.038,-0.854,0.671,0.244,104.405
100877,139041,19647,-0.115,-0.964,-0.032,-0.854,0.671,0.244,104.409
100877,139032,7882,-0.115,-0.97,-0.028,-0.549,0.366,0.244,104.415
100875,139041,19647,-0.112,-0.97,-0.025,-0.549,0.366,0.244,104.419
100875,139036,7872,-0.114,-0.964,-0.022,-0.244,0.183,0.183,104.425
100873,139041,19647,-0.116,-0.966,-0.023,-0.244,0.183,0.183,104.429
100873,139009,7877,-0.118,-0.965,-0.024,-0.122,0.244,0.305,104.435
100870,139041,19647,-0.117,-0.964,-0.029,-0.122,0.244,0.305,104.439
100870,139059,7876,-0.118,-0.958,-0.028,0,0.305,0.305,104.445
100871,139041,19647,-0.115,-0.957,-0.029,0,0.305,0.305,104.449
100871,139045,7879,-0.115,-0.958,-0.036,-0.183,0.305,0,104.455
100866,139041,19647,-0.115,-0.963,-0.033,-0.183,0.305,0,104.459
100866,139035,7875,-0.114,-0.966,-0.029,0.061,0.244,0,104.465
100865,139041,19647,-0.111,-0.963,-0.028,0.061,0.244,0,104.469
100865,139014,7884,-0.11,-0.958,-0.025,0.549,0.122,-0.061,104.475
100858,139041,19647,-0.114,-0.959,-0.02,0.549,0.122,-0.061,104.478
100858,139035,7877,-0.109,-0.959,-0.021,0.244,0.122,-0.061,104.485
100867,139041,19647,-0.11,-0.964,-0.021,0.244,0.122,-0.061,104.488
100867,139020,7878,-0.112,-0.968,-0.021,-0.854,0.305,0,104.495
100844,139041,19647,-0.113,-0.972,-0.021,-0.854,0.305,0,104.498
100844,139013,7879,-0.113,-0.969,-0.015,-0.915,0.427,0.305,104.504
100854,139041,19647,-0.116,-0.962,-0.015,-0.915,0.427,0.305,104.508
100854,139014,7880,-0.118,-0.959,-0.016,-0.305,0.305,0.488,104.514
100861,139041,19647,-0.112,-0.963,-0.023,-0.305,0.305,0.488,104.518
100861,139034,7877,-0.113,-0.967,-0.026,-0.61,0.427,0.488,104.524
100861,139041,19647,-0.118,-0.969,-0.024,-0.61,0.427,0.488,104.528
100861,139027,7877,-0.123,-0.968,-0.022,-0.793,0.549,0.488,104.534
100868,139041,19647,-0.12,-0.963,-0.023,-0.793,0.549,0.488,104.538
100868,139038,7883,-0.119,-0.961,-0.026,-0.244,0.305,0.305,104.544
100866,139041,19647,-0.115,-0.962,-0.02,-0.244,0.305,0.305,104.548
100866,139024,7886,-0.111,-0.962,-0.021,0.061,0.183,0.305,104.554
100854,139041,19647,-0.112,-0.961,-0.023,0.061,0.183,0.305,104.558
100854,139013,7882,-0.117,-0.96,-0.022,0.122,0.305,0.244,104.564
100864,139041,19647,-0.117,-0.959,-0.02,0.122,0.305,0.244,104.568
100864,139014,7875,-0.108,-0.964,-0.017,0.244,0.183,0.122,104.574
100860,139041,19647,-0.104,-0.966,-0.024,0.244,0.183,0.122,104.577
100860,139026,7875,-0.105,-0.966,-0.023,0.122,0.183,0.183,104.584
100875,139041,19647,-0.105,-0.966,-0.023,0.122,0.183,0.183,104.587
100875,139013,7883,-0.115,-0.962,-0.024,-0.366,0.488,0.427,104.594
100848,139041,19647,-0.115,-0.962,-0.024,-0.366,0.488,0.427,104.597
100848,139033,7877,-0.109,-0.967,-0.027,-0.732,0.366,0.488,104.603
100859,139041,19647,-0.109,-0.967,-0.027,-0.732,0.366,0.488,104.607
100859,139030,7886,-0.113,-0.967,-0.027,-0.732,0.244,0.549,104.613
100871,139041,19647,-0.113,-0.967,-0.027,-0.732,0.244,0.549,104.617
100871,139040,7870,-0.115,-0.956,-0.031,-0.183,0.122,0.732,104.623
100865,139041,19647,-0.115,-0.956,-0.031,-0.183,0.122,0.732,104.627
100865,139050,7882,-0.115,-0.955,-0.031,0.122,-0.061,0.488,104.633
100882,139041,19647,-0.115,-0.955,-0.031,0.122,-0.061,0.488,104.637
100882,139060,7868,-0.117,-0.958,-0.022,0,0,0.244,104.643
100881,139041,19647,-0.117,-0.958,-0.022,0,0,0.244,104.647
100881,139033,7882,-0.112,-0.964,-0.015,-0.244,0.183,-0.061,104.653
100883,139041,19647,-0.112,-0.964,-0.015,-0.244,0.183,-0.061,104.657
100883,139054,7872,-0.112,-0.965,-0.012,-0.427,0.305,0.061,104.663
100894,139041,19647,-0.112,-0.965,-0.012,-0.427,0.305,0.061,104.667
100894,139045,7894,-0.116,-0.974,-0.015,-0.427,0.671,0.244,104.673
100890,139041,19647,-0.116,-0.974,-0.015,-0.427,0.671,0.244,104.676
100890,139042,7892,-0.121,-0.971,-0.026,-0.427,0.854,0.427,104.683
100885,139041,19647,-0.121,-0.971,-0.026,-0.427,0.854,0.427,104.686
100885,139045,7890,-0.119,-0.966,-0.024,-0.122,0.549,0.488,104.693
100891,139041,19647,-0.119,-0.966,-0.024,-0.122,0.549,0.488,104.696
100891,139082,7884,-0.115,-0.953,-0.026,0.732,0.061,0.549,104.702
100903,139041,19647,-0.115,-0.953,-0.026,0.732,0.061,0.549,104.706
100903,139077,7885,-0.111,-0.948,-0.028,0.793,-0.061,0.427,104.712
100926,139041,19647,-0.111,-0.948,-0.028,0.793,-0.061,0.427,104.716
100926,139095,7893,-0.107,-0.958,-0.028,-0.183,0,0.305,104.722
100940,139041,19647,-0.107,-0.958,-0.028,-0.183,0,0.305,104.726
100940,139066,7883,-0.109,-0.96,-0.028,-0.183,0,0.305,104.732
100924,139041,19647,-0.11,-0.964,-0.025,-0.488,0.061,0.183,104.736
100924,139057,7884,-0.107,-0.963,-0.021,-0.488,0.061,0.183,104.742
100913,139041,19647,-0.103,-0.967,-0.019,-0.305,-0.061,0.061,104.746
100913,139052,7893,-0.104,-0.968,-0.016,-0.305,-0.061,0.061,104.752
100901,139041,19647,-0.107,-0.968,-0.019,-0.183,0.122,0.122,104.756
100901,139061,7901,-0.111,-0.969,-0.016,-0.183,0.122,0.122,104.762
100911,139041,19647,-0.115,-0.97,-0.02,-0.305,0.671,0.244,104.766
100911,139023,7876,-0.118,-0.97,-0.023,-0.305,0.671,0.244,104.772
100887,139041,19647,-0.116,-0.972,-0.018,-0.366,0.976,0.244,104.775
100887,139038,7904,-0.115,-0.968,-0.018,-0.366,0.976,0.244,104.782
100898,139041,19647,-0.115,-0.966,-0.025,0,1.037,0.305,104.785
100898,139032,7876,-0.116,-0.963,-0.025,0,1.037,0.305,104.792
100890,139041,19647,-0.117,-0.959,-0.023,0.183,0.671,0.549,104.795
100890,139052,7889,-0.117,-0.961,-0.023,0.183,0.671,0.549,104.801
100904,139041,19647,-0.115,-0.958,-0.025,-0.061,0.61,0.61,104.805
100904,139038,7880,-0.113,-0.957,-0.024,-0.061,0.61,0.61,104.811
100895,139041,19647,-0.115,-0.958,-0.022,-0.366,0.671,0.61,104.815
100895,139049,7889,-0.117,-0.957,-0.026,-0.366,0.671,0.61,104.821
100901,139041,19647,-0.11,-0.956,-0.027,-0.427,0.366,0.488,104.825
100901,139056,7894,-0.113,-0.958,-0.03,-0.427,0.366,0.488,104.831
100897,139041,19647,-0.111,-0.962,-0.029,-0.366,0.183,0.366,104.835
100897,139028,7880,-0.112,-0.963,-0.029,-0.366,0.183,0.366,104.841
100874,139041,19647,-0.116,-0.961,-0.026,-0.244,0.183,0.244,104.845
100874,139066,7889,-0.116,-0.956,-0.029,-0.244,0.183,0.244,104.851
100888,139041,19647,-0.116,-0.965,-0.017,0,0,-0.061,104.855
100888,139040,7884,-0.111,-0.963,-0.023,0,0,-0.061,104.861
100906,139041,19647,-0.114,-0.964,-0.027,-0.427,0,0.061,104.865
100906,139031,7885,-0.114,-0.976,-0.008,-0.427,0,0.061,104.871
100897,139041,19647,-0.116,-0.972,-0.018,-0.61,0.427,0.244,104.874
100897,139040,7899,-0.116,-0.969,-0.022,-0.61,0.427,0.244,104.881
100903,139041,19647,-0.115,-0.972,-0.021,-0.244,0.549,0.488,104.884
100903,139052,7884,-0.116,-0.971,-0.022,-0.244,0.549,0.488,104.89
100907,139041,19647,-0.115,-0.969,-0.022,0.122,0.549,0.488,104.894
100907,139060,7875,-0.114,-0.967,-0.025,0.122,0.549,0.488,104.9
100888,139041,19647,-0.115,-0.969,-0.027,0.122,0.549,0.427,104.904
100888,139053,7885,-0.116,-0.967,-0.029,0.122,0.549,0.427,104.91
100874,139041,19647,-0.114,-0.963,-0.029,0.305,0.366,0.488,104.914
100874,139028,7882,-0.111,-0.962,-0.025,0.305,0.366,0.488,104.92
100875,139041,19647,-0.11,-0.958,-0.023,0.427,0.122,0.427,104.924
100875,139050,7884,-0.109,-0.953,-0.023,0.427,0.122,0.427,104.93
100865,139041,19647,-0.112,-0.954,-0.019,0.122,0.183,0.366,104.934
100865,139026,7873,-0.11,-0.957,-0.016,0.122,0.183,0.366,104.94
100879,139041,19647,-0.109,-0.961,-0.018,-0.244,0.244,0.244,104.944
100879,139025,7871,-0.109,-0.965,-0.021,-0.244,0.244,0.244,104.95
100875,139041,19647,-0.113,-0.962,-0.023,-0.305,0.305,0.427,104.954
100875,139012,7887,-0.112,-0.965,-0.024,-0.305,0.305,0.427,104.96
100864,139041,19647,-0.114,-0.966,-0.023,-0.122,0.488,0.366,104.964
100864,139052,7883,-0.116,-0.96,-0.025,-0.122,0.488,0.366,104.97
100887,139041,19647,-0.115,-0.958,-0.024,-0.061,0.183,0.305,104.973
100887,139034,7862,-0.115,-0.961,-0.017,-0.061,0.183,0.305,104.98
100896,139041,19647,-0.116,-0.967,-0.016,-0.244,0.122,0.305,104.983
100896,139030,7887,-0.116,-0.972,-0.019,-0.244,0.122,0.305,104.99
100880,139041,19647,-0.116,-0.972,-0.02,-0.61,0.305,0.183,104.993
100880,139019,7885,-0.116,-0.972,-0.023,-0.61,0.305,0.183,104.999
100875,139041,19647,-0.116,-0.968,-0.028,0,0.427,0.488,105.003
100875,139028,7877,-0.118,-0.962,-0.018,0,0.427,0.488,105.009
100871,139041,19647,-0.117,-0.961,-0.018,0.61,0.366,0.366,105.013
100871,139019,7882,-0.111,-0.962,-0.024,0.61,0.366,0.366,105.019
100858,139041,19647,-0.111,-0.964,-0.03,-0.549,0.427,0.366,105.023
100858,139046,7885,-0.115,-0.968,-0.025,-0.549,0.427,0.366,105.029
100854,139041,19647,-0.116,-0.964,-0.019,-0.793,0.671,0.671,105.033
100854,139018,7884,-0.114,-0.959,-0.022,-0.793,0.671,0.671,105.039
100847,139041,19647,-0.114,-0.957,-0.026,-0.488,0.366,0.549,105.043
100847,139020,7890,-0.111,-0.958,-0.03,-0.488,0.366,0.549,105.049
100863,139041,19647,-0.107,-0.964,-0.024,-1.098,0.183,0.671,105.053
100863,139026,7878,-0.112,-0.965,-0.029,-1.098,0.183,0.671,105.059
100859,139041,19647,-0.116,-0.968,-0.019,-0.854,0.366,0.61,105.063
100859,139025,7865,-0.116,-0.959,-0.022,-0.854,0.366,0.61,105.069
100868,139041,19647,-0.113,-0.958,-0.021,-0.305,0.122,0.61,105.072
100868,139032,7880,-0.109,-0.969,-0.009,-0.305,0.122,0.61,105.079
100865,139041,19647,-0.109,-0.967,-0.014,-0.488,0.366,0.61,105.082
100865,139015,7865,-0.113,-0.968,-0.017,-0.488,0.366,0.61,105.089
100860,139041,19647,-0.119,-0.97,-0.03,-1.341,0.915,0.732,105.092
100860,139018,7884,-0.123,-0.971,-0.031,-1.341,0.915,0.732,105.098
100858,138785,19647,-0.118,-0.963,-0.026,-0.915,0.854,0.793,105.102
100858,139005,7892,-0.115,-0.958,-0.027,-0.915,0.854,0.793,105.108
100859,139041,19647,-0.118,-0.957,-0.032,-0.305,0.488,0.61,105.112
100859,139050,7877,-0.12,-0.957,-0.03,-0.305,0.488,0.61,105.118
100851,139041,19647,-0.119,-0.956,-0.024,-0.183,0.305,0.549,105.122
100851,139037,7875,-0.113,-0.957,-0.028,-0.183,0.305,0.549,105.128
100837,139041,19647,-0.113,-0.961,-0.023,-0.305,0.244,0.366,105.132
100837,139042,7873,-0.111,-0.964,-0.015,-0.305,0.244,0.366,105.138
100845,139041,19647,-0.112,-0.966,-0.011,-0.183,0.305,0.244,105.142
100845,139033,7868,-0.111,-0.97,-0.013,-0.183,0.305,0.244,105.148
100840,139041,19647,-0.11,-0.969,-0.019,-0.366,0.671,0.488,105.152
100840,139054,7882,-0.114,-0.97,-0.019,-0.366,0.671,0.488,105.158
100843,139041,19647,-0.112,-0.973,-0.019,-0.671,0.976,0.61,105.162
100843,139020,7864,-0.116,-0.968,-0.024,-0.671,0.976,0.61,105.168
100852,139041,19647,-0.116,-0.968,-0.024,-0.671,0.976,0.61,105.171
100852,139052,7872,-0.116,-0.965,-0.03,-0.488,0.854,0.732,105.178
100848,139041,19647,-0.116,-0.965,-0.03,-0.488,0.854,0.732,105.181
100848,139016,7886,-0.116,-0.961,-0.023,0.061,0.549,0.854,105.187
100844,139041,19647,-0.116,-0.961,-0.023,0.061,0.549,0.854,105.191
100844,139033,7877,-0.11,-0.961,-0.017,0.793,0.305,0.854,105.197
100816,139041,19647,-0.11,-0.961,-0.017,0.793,0.305,0.854,105.201
100816,139024,7875,-0.111,-0.963,-0.015,0.61,0.366,0.732,105.207
100829,138785,19647,-0.111,-0.963,-0.015,0.61,0.366,0.732,105.211
100829,139000,7888,-0.11,-0.965,-0.026,-0.122,0.854,0.671,105.217
100837,139041,19647,-0.11,-0.965,-0.026,-0.122,0.854,0.671,105.221
100837,139024,7884,-0.117,-0.967,-0.03,-0.61,1.159,0.61,105.227
100847,138785,19647,-0.117,-0.967,-0.03,-0.61,1.159,0.61,105.231
100847,138994,7869,-0.118,-0.954,-0.033,-0.427,1.037,0.793,105.237
100841,139041,19647,-0.118,-0.954,-0.033,-0.427,1.037,0.793,105.241
100841,139013,7882,-0.115,-0.959,-0.029,-0.244,0.793,0.671,105.247
100832,139041,19647,-0.115,-0.959,-0.029,-0.244,0.793,0.671,105.251
100832,139013,7890,-0.11,-0.965,-0.027,-0.122,0.488,0.488,105.257
100844,138785,19647,-0.11,-0.965,-0.027,-0.122,0.488,0.488,105.261
100844,138993,7879,-0.117,-0.963,-0.017,-0.122,0.366,0.61,105.267
100848,139041,19647,-0.117,-0.963,-0.017,-0.122,0.366,0.61,105.27
100848,139042,7877,-0.112,-0.969,-0.01,-0.305,0.61,0.671,105.277
100849,139041,19647,-0.112,-0.969,-0.01,-0.305,0.61,0.671,105.28
100849,139037,7877,-0.113,-0.968,-0.017,-0.366,0.854,0.549,105.286
100843,139041,19647,-0.113,-0.968,-0.017,-0.366,0.854,0.549,105.29
100843,139028,7874,-0.117,-0.969,-0.018,-0.244,0.976,0.793,105.296
100844,139041,19647,-0.117,-0.969,-0.018,-0.244,0.976,0.793,105.3
100844,139050,7893,-0.112,-0.958,-0.031,0,0.854,0.793,105.306
100859,139041,19647,-0.112,-0.958,-0.031,0,0.854,0.793,105.31
100859,139030,7864,-0.118,-0.957,-0.029,0.061,0.915,0.854,105.316
100857,139041,19647,-0.116,-0.958,-0.026,0.061,0.915,0.854,105.32
100857,139044,7879,-0.114,-0.955,-0.033,-0.488,0.854,0.793,105.326
100850,139041,19647,-0.117,-0.953,-0.032,-0.488,0.854,0.793,105.33
100850,139042,7880,-0.12,-0.961,-0.032,-1.159,0.793,0.671,105.336
100855,139041,19647,-0.12,-0.966,-0.032,-1.159,0.793,0.671,105.34
100855,139041,7878,-0.12,-0.967,-0.029,-1.159,0.549,0.793,105.346
100871,139041,19647,-0.12,-0.966,-0.026,-1.159,0.549,0.793,105.35
100871,139042,7876,-0.118,-0.965,-0.021,-0.305,0.244,0.671,105.356
100852,139041,19647,-0.117,-0.959,-0.014,-0.305,0.244,0.671,105.36
100852,139053,7876,-0.115,-0.958,-0.014,0.488,0.244,0.427,105.366
100866,139041,19647,-0.116,-0.958,-0.017,0.488,0.244,0.427,105.369
100866,139057,7874,-0.115,-0.965,-0.025,0.244,0.671,0.488,105.376
100866,139041,19647,-0.116,-0.964,-0.03,0.244,0.671,0.488,105.379
100866,139042,7893,-0.117,-0.967,-0.024,0.122,0.915,0.427,105.385
100858,139041,19647,-0.114,-0.966,-0.029,0.122,0.915,0.427,105.389
100858,139068,7884,-0.117,-0.958,-0.031,0.488,0.732,0.305,105.395
100864,139041,19647,-0.118,-0.961,-0.028,0.488,0.732,0.305,105.399
100864,139060,7888,-0.112,-0.964,-0.026,0.61,0.488,0.244,105.405
100864,139041,19647,-0.111,-0.965,-0.022,0.61,0.488,0.244,105.409
100864,139047,7884,-0.112,-0.968,-0.019,0.183,0.366,0.305,105.415
100857,139041,19647,-0.111,-0.966,-0.022,0.183,0.366,0.305,105.419
100857,139063,7887,-0.113,-0.967,-0.028,-0.61,0.732,0.61,105.425
100861,139041,19647,-0.116,-0.963,-0.033,-0.61,0.732,0.61,105.429
100861,139030,7877,-0.117,-0.964,-0.032,-0.793,0.488,0.793,105.435
100879,139041,19647,-0.115,-0.96,-0.028,-0.793,0.488,0.793,105.439
100879,139045,7889,-0.119,-0.951,-0.026,-0.366,0.061,0.793,105.445
100878,139041,19647,-0.117,-0.951,-0.027,-0.366,0.061,0.793,105.449
100878,139067,7876,-0.118,-0.953,-0.023,-0.549,0.061,0.671,105.455
100886,139041,19647,-0.116,-0.957,-0.025,-0.549,0.061,0.671,105.458
100886,139067,7883,-0.115,-0.958,-0.025,-0.854,0,0.549,105.465
100869,139041,19647,-0.12,-0.962,-0.024,-0.854,0,0.549,105.468
100869,139064,7895,-0.122,-0.965,-0.021,-0.488,0.122,0.305,105.475
100880,139041,19647,-0.118,-0.971,-0.02,-0.488,0.122,0.305,105.478
100880,139061,7869,-0.117,-0.971,-0.018,0.183,0.061,0.122,105.484
100880,139041,19647,-0.117,-0.969,-0.01,0.183,0.061,0.122,105.488
100880,139046,7874,-0.12,-0.969,-0.015,0.305,0.122,0.183,105.494
100878,139041,19647,-0.116,-0.972,-0.021,0.305,0.122,0.183,105.498
100878,139053,7883,-0.118,-0.978,-0.019,0.061,0.488,0.488,105.504
100875,139041,19647,-0.12,-0.978,-0.019,0.061,0.488,0.488,105.508
100875,139056,7906,-0.115,-0.97,-0.026,0.061,0.671,0.732,105.514
100896,139041,19647,-0.115,-0.965,-0.029,0.061,0.671,0.732,105.518
100896,139066,7886,-0.117,-0.964,-0.029,0.122,0.671,0.915,105.524
100889,139041,19647,-0.117,-0.961,-0.029,0.122,0.671,0.915,105.528
100889,139058,7885,-0.117,-0.958,-0.027,-0.183,0.366,1.159,105.534
100910,139041,19647,-0.113,-0.96,-0.033,-0.183,0.366,1.159,105.538
100910,139058,7873,-0.11,-0.962,-0.028,-0.671,0.122,1.098,105.544
100888,139041,19647,-0.114,-0.96,-0.024,-0.671,0.122,1.098,105.548
100888,139071,7904,-0.116,-0.955,-0.029,-0.854,0,1.098,105.554
100906,139041,19647,-0.117,-0.95,-0.026,-0.854,0,1.098,105.558
100906,139059,7883,-0.112,-0.952,-0.023,-0.854,0.122,0.915,105.564
100902,139041,19647,-0.113,-0.951,-0.023,-0.854,0.122,0.915,105.567
100902,139075,7878,-0.115,-0.957,-0.021,-0.976,0.183,0.732,105.574
100891,139041,19647,-0.116,-0.963,-0.022,-0.976,0.183,0.732,105.577
100891,139070,7884,-0.113,-0.961,-0.025,-1.22,0.366,0.549,105.583
100902,139041,19647,-0.116,-0.963,-0.027,-1.22,0.366,0.549,105.587
100902,139068,7894,-0.118,-0.97,-0.023,-1.159,0.61,0.427,105.593
100891,139041,19647,-0.119,-0.969,-0.023,-1.159,0.61,0.427,105.597
100891,139083,7888,-0.119,-0.964,-0.02,-0.732,0.732,0.427,105.603
100882,139041,19647,-0.113,-0.969,-0.02,-0.732,0.732,0.427,105.607
100882,139070,7893,-0.112,-0.971,-0.023,-0.427,0.976,0.366,105.613
100876,139041,19647,-0.117,-0.971,-0.021,-0.427,0.976,0.366,105.617
100876,139049,7878,-0.115,-0.965,-0.024,0.061,0.915,0.61,105.623
100869,139041,19647,-0.119,-0.964,-0.026,0.061,0.915,0.61,105.627
100869,139059,7903,-0.116,-0.963,-0.021,0.244,0.61,0.793,105.633
100878,139041,19647,-0.115,-0.963,-0.025,0.244,0.61,0.793,105.637
100878,139089,7893,-0.111,-0.964,-0.027,-0.244,0.61,0.915,105.643
100875,139041,19647,-0.113,-0.962,-0.023,-0.244,0.61,0.915,105.647
100875,139053,7869,-0.115,-0.959,-0.025,-0.61,0.671,0.915,105.653
100859,139041,19647,-0.115,-0.956,-0.023,-0.61,0.671,0.915,105.656
100859,139060,7899,-0.117,-0.956,-0.025,-0.793,0.671,0.793,105.663
100871,139041,19647,-0.115,-0.957,-0.03,-0.793,0.671,0.793,105.666
100871,139046,7895,-0.115,-0.962,-0.024,-0.854,0.732,0.671,105.673
100868,139041,19647,-0.114,-0.957,-0.024,-0.854,0.732,0.671,105.676
100868,139058,7909,-0.116,-0.955,-0.024,-0.671,0.793,0.488,105.682
100878,139041,19647,-0.113,-0.962,-0.027,-0.671,0.793,0.488,105.686
100878,139074,7891,-0.112,-0.965,-0.027,-0.671,0.854,0.366,105.692
100854,139041,19647,-0.117,-0.967,-0.025,-0.671,0.854,0.366,105.696
100854,139083,7887,-0.116,-0.969,-0.023,-0.793,1.098,0.488,105.702
100876,139041,19647,-0.116,-0.97,-0.028,-0.793,1.098,0.488,105.706
100876,139083,7881,-0.12,-0.973,-0.032,-0.976,1.22,0.61,105.712
100881,139041,19647,-0.121,-0.971,-0.021,-0.976,1.22,0.61,105.716
100881,139090,7880,-0.121,-0.973,-0.017,-0.366,1.159,0.854,105.722
100874,139041,19647,-0.118,-0.973,-0.016,-0.366,1.159,0.854,105.726
100874,139075,7894,-0.117,-0.97,-0.015,0.122,0.915,1.098,105.732
100876,139041,19647,-0.119,-0.965,-0.024,0.122,0.915,1.098,105.736
100876,139079,7885,-0.123,-0.97,-0.031,-0.427,1.341,1.341,105.742
100880,139041,19647,-0.123,-0.972,-0.026,-0.427,1.341,1.341,105.746
100880,139065,7884,-0.121,-0.965,-0.026,-0.061,1.159,1.646,105.752
100866,139041,19647,-0.121,-0.965,-0.026,-0.061,1.159,1.646,105.755
100866,139075,7885,-0.118,-0.95,-0.026,0.366,0.732,1.341,105.762
100852,139041,19647,-0.118,-0.95,-0.026,0.366,0.732,1.341,105.765
100852,139027,7884,-0.111,-0.958,-0.034,-0.122,0.793,1.098,105.772
100867,139041,19647,-0.111,-0.958,-0.034,-0.122,0.793,1.098,105.775
100867,139044,7883,-0.123,-0.963,-0.034,-0.488,0.793,1.22,105.781
100847,139041,19647,-0.123,-0.963,-0.034,-0.488,0.793,1.22,105.785
100847,139030,7895,-0.115,-0.959,-0.028,0.305,0.488,0.976,105.791
100868,139041,19647,-0.115,-0.959,-0.028,0.305,0.488,0.976,105.795
100868,139040,7876,-0.113,-0.961,-0.032,-0.122,0.305,0.671,105.801
100863,139041,19647,-0.113,-0.961,-0.032,-0.122,0.305,0.671,105.805
100863,139041,7875,-0.124,-0.953,-0.032,-0.305,0.61,0.732,105.811
100857,139041,19647,-0.124,-0.953,-0.032,-0.305,0.61,0.732,105.815
100857,139047,7878,-0.123,-0.953,-0.019,0.183,0.427,0.366,105.821
100841,139041,19647,-0.123,-0.953,-0.019,0.183,0.427,0.366,105.825
100841,139026,7877,-0.112,-0.965,-0.025,-0.061,0.427,0.122,105.831
100861,139041,19647,-0.112,-0.965,-0.025,-0.061,0.427,0.122,105.835
100861,139082,7888,-0.121,-0.967,-0.017,-0.427,0.732,0.244,105.841
100873,139041,19647,-0.121,-0.967,-0.017,-0.427,0.732,0.244,105.845
100873,139025,7877,-0.118,-0.967,-0.033,-0.488,0.732,0.488,105.851
100846,139041,19647,-0.118,-0.967,-0.033,-0.488,0.732,0.488,105.854
100846,139056,7887,-0.121,-0.962,-0.027,-0.305,0.61,0.427,105.861
100858,139041,19647,-0.121,-0.962,-0.027,-0.305,0.61,0.427,105.864
100858,139070,7893,-0.121,-0.964,-0.031,-0.305,0.366,0.244,105.871
100843,139041,19647,-0.121,-0.964,-0.031,-0.305,0.366,0.244,105.874
100843,139041,7879,-0.12,-0.953,-0.032,-0.244,0.183,0.427,105.88
100849,139041,19647,-0.12,-0.953,-0.032,-0.244,0.183,0.427,105.884
100849,139035,7875,-0.115,-0.953,-0.024,-0.061,-0.122,0.061,105.89
100861,139041,19647,-0.115,-0.953,-0.024,-0.061,-0.122,0.061,105.894
100861,139042,7870,-0.117,-0.955,-0.027,-0.061,-0.122,0.061,105.9
100847,139041,19647,-0.12,-0.961,-0.016,0.122,-0.061,-0.183,105.904
100847,139020,7880,-0.119,-0.964,-0.006,0.122,-0.061,-0.183,105.91
100842,139041,19647,-0.116,-0.959,-0.012,0.61,0.122,-0.183,105.914
100842,139045,7886,-0.115,-0.957,-0.025,0.61,0.122,-0.183,105.92
100850,139041,19647,-0.118,-0.963,-0.023,0.183,0.305,-0.305,105.924
100850,139072,7900,-0.119,-0.97,-0.022,0.183,0.305,-0.305,105.93
100864,139041,19647,-0.122,-0.973,-0.027,-0.366,0.488,-0.183,105.934
100864,139056,7874,-0.122,-0.976,-0.034,-0.366,0.488,-0.183,105.94
100860,139041,19647,-0.126,-0.975,-0.034,-0.366,0.427,0.061,105.944
100860,139066,7889,-0.124,-0.968,-0.035,-0.366,0.427,0.061,105.95
100860,139041,19647,-0.116,-0.96,-0.029,0.488,-0.122,0.122,105.953
100860,139073,7880,-0.115,-0.954,-0.031,0.488,-0.122,0.122,105.96
100862,139041,19647,-0.12,-0.955,-0.032,0.122,-0.122,0,105.963
100862,139065,7855,-0.123,-0.96,-0.03,0.122,-0.122,0,105.97
100844,139041,19647,-0.122,-0.963,-0.029,-0.427,0,0.061,105.973
100844,139071,7887,-0.118,-0.956,-0.025,-0.427,0,0.061,105.979
100866,139041,19647,-0.113,-0.956,-0.026,-0.122,-0.488,-0.122,105.983
100866,139049,7877,-0.114,-0.958,-0.024,-0.122,-0.488,-0.122,105.989
100863,139041,19647,-0.115,-0.956,-0.023,0.427,-0.305,-0.366,105.993
100863,139040,7880,-0.118,-0.955,-0.022,0.427,-0.305,-0.366,105.999
100853,139041,19647,-0.12,-0.959,-0.014,0.488,0,-0.427,106.003
100853,139053,7879,-0.116,-0.965,-0.016,0.488,0,-0.427,106.009
100854,139041,19647,-0.11,-0.973,-0.021,-0.244,0.061,-0.488,106.013
100854,139052,7882,-0.114,-0.981,-0.033,-0.244,0.061,-0.488,106.019
100871,139041,19647,-0.118,-0.984,-0.027,-0.793,0.488,-0.122,106.023
100871,139077,7889,-0.124,-0.977,-0.02,-0.793,0.488,-0.122,106.029
100892,139041,19647,-0.123,-0.963,-0.024,0.244,0.244,0.183,106.033
100892,139055,7872,-0.115,-0.958,-0.032,0.244,0.244,0.183,106.039
100882,139041,19647,-0.114,-0.96,-0.028,0.549,-0.122,0,106.043
100882,139087,7916,-0.119,-0.955,-0.03,0.549,-0.122,0,106.049
100908,139041,19647,-0.124,-0.949,-0.032,0.061,0.122,0.061,106.052
100908,139082,7877,-0.122,-0.944,-0.034,0.061,0.122,0.061,106.059
100890,139041,19647,-0.118,-0.944,-0.032,0.122,-0.122,-0.244,106.062
100890,139067,7879,-0.114,-0.948,-0.027,0.122,-0.122,-0.244,106.069
100891,139041,19647,-0.113,-0.955,-0.026,0.244,-0.488,-0.61,106.072
100891,139069,7881,-0.113,-0.959,-0.026,0.244,-0.488,-0.61,106.078
100899,139041,19647,-0.115,-0.963,-0.025,-0.488,-0.122,-0.793,106.082
100899,139063,7881,-0.118,-0.971,-0.025,-0.488,-0.122,-0.793,106.088
100899,139041,19647,-0.119,-0.975,-0.02,-0.427,-0.122,-0.61,106.092
100899,139044,7881,-0.118,-0.976,-0.02,-0.427,-0.122,-0.61,106.098
100874,139041,19647,-0.119,-0.974,-0.026,0,-0.305,-0.488,106.102
100874,139070,7886,-0.117,-0.976,-0.02,0,-0.305,-0.488,106.108
100886,139041,19647,-0.117,-0.977,-0.02,0.061,-0.122,-0.549,106.112
100886,139071,7879,-0.118,-0.971,-0.022,0.061,-0.122,-0.549,106.118
100899,139041,19647,-0.118,-0.965,-0.023,0.427,-0.061,-0.183,106.122
100899,139071,7890,-0.117,-0.959,-0.025,0.427,-0.061,-0.183,106.128
100893,139041,19647,-0.113,-0.962,-0.024,0.244,0.061,-0.244,106.132
100893,139037,7883,-0.113,-0.963,-0.023,0.244,0.061,-0.244,106.138
100878,139041,19647,-0.115,-0.964,-0.029,-0.183,0.183,-0.061,106.142
100878,139046,7886,-0.115,-0.967,-0.028,-0.183,0.183,-0.061,106.148
100901,139041,19647,-0.115,-0.964,-0.029,-0.244,0.061,0.244,106.151
100901,139070,7876,-0.115,-0.96,-0.028,-0.244,0.061,0.244,106.158
100879,139041,19647,-0.114,-0.958,-0.024,0.305,-0.122,0.061,106.161
100879,139046,7878,-0.111,-0.954,-0.022,0.305,-0.122,0.061,106.168
100872,139041,19647,-0.115,-0.955,-0.015,0.915,-0.061,-0.305,106.171
100872,139052,7896,-0.115,-0.957,-0.013,0.915,-0.061,-0.305,106.177
100867,139041,19647,-0.109,-0.961,-0.012,0.854,0,-0.244,106.181
100867,139056,7882,-0.106,-0.964,-0.013,0.854,0,-0.244,106.187
100857,139041,19647,-0.106,-0.972,-0.02,-0.488,0.366,-0.183,106.191
100857,139060,7888,-0.114,-0.976,-0.028,-0.488,0.366,-0.183,106.197
100858,139041,19647,-0.121,-0.974,-0.029,-0.732,0.61,0.061,106.201
100858,139048,7879,-0.116,-0.968,-0.027,-0.732,0.61,0.061,106.207
100850,139041,19647,-0.112,-0.961,-0.025,0.366,0.305,0.183,106.211
100850,139048,7879,-0.113,-0.959,-0.024,0.366,0.305,0.183,106.217
100866,139041,19647,-0.111,-0.96,-0.024,0.549,0.183,-0.122,106.221
100866,139050,7873,-0.117,-0.957,-0.028,0.549,0.183,-0.122,106.227
100872,139041,19647,-0.117,-0.961,-0.03,-0.183,0.366,-0.122,106.231
100872,139037,7868,-0.117,-0.96,-0.027,-0.183,0.366,-0.122,106.237
100862,139041,19647,-0.117,-0.96,-0.026,-0.366,0.244,-0.183,106.241
100862,139031,7883,-0.116,-0.964,-0.023,-0.366,0.244,-0.183,106.247
100840,139041,19647,-0.115,-0.961,-0.025,-0.183,0.122,-0.183,106.25
100840,139041,7899,-0.113,-0.961,-0.022,-0.183,0.122,-0.183,106.257
100845,139041,19647,-0.116,-0.963,-0.016,0.183,0.122,-0.122,106.26
100845,139046,7882,-0.114,-0.965,-0.016,0.183,0.122,-0.122,106.267
100859,139041,19647,-0.114,-0.965,-0.018,0.061,0.366,0.061,106.27
100859,139049,7879,-0.115,-0.967,-0.017,0.061,0.366,0.061,106.276
100845,139041,19647,-0.119,-0.966,-0.02,-0.488,0.732,0.183,106.28
100845,139028,7868,-0.116,-0.969,-0.017,-0.488,0.732,0.183,106.286
100821,139041,19647,-0.115,-0.966,-0.017,-0.549,0.671,0.305,106.29
100821,139044,7886,-0.115,-0.964,-0.019,-0.549,0.671,0.305,106.296
100847,139041,19647,-0.119,-0.967,-0.018,-0.183,0.732,0.366,106.3
100847,139059,7888,-0.116,-0.964,-0.029,-0.183,0.732,0.366,106.306
100850,139041,19647,-0.114,-0.96,-0.028,0.122,0.732,0.427,106.31
100850,139047,7879,-0.116,-0.96,-0.029,0.122,0.732,0.427,106.316
100847,139041,19647,-0.116,-0.961,-0.03,0.305,0.488,0.122,106.32
100847,139055,7872,-0.115,-0.963,-0.03,0.305,0.488,0.122,106.326
100834,139041,19647,-0.115,-0.963,-0.033,0.122,0.366,0.061,106.33
100834,139044,7874,-0.115,-0.963,-0.031,0.122,0.366,0.061,106.336
100847,139041,19647,-0.115,-0.963,-0.031,0.122,0.366,0.061,106.34
100847,139074,7877,-0.114,-0.955,-0.033,0,0.244,-0.061,106.346
100840,139041,19647,-0.114,-0.955,-0.033,0,0.244,-0.061,106.349
100840,139035,7882,-0.115,-0.963,-0.026,0.061,0.122,-0.305,106.356
100830,139041,19647,-0.115,-0.963,-0.026,0.061,0.122,-0.305,106.359
100830,139037,7869,-0.112,-0.966,-0.019,-0.183,0,-0.183,106.366
100832,139041,19647,-0.112,-0.966,-0.019,-0.183,0,-0.183,106.369
100832,139036,7879,-0.115,-0.966,-0.022,-0.366,0.183,-0.183,106.375
100840,139041,19647,-0.115,-0.966,-0.022,-0.366,0.183,-0.183,106.379
100840,139042,7894,-0.115,-0.967,-0.012,0,0.305,-0.244,106.385
100843,139041,19647,-0.115,-0.967,-0.012,0,0.305,-0.244,106.389
100843,139032,7873,-0.115,-0.967,-0.018,0.305,0.305,0.122,106.395
100824,139041,19647,-0.115,-0.967,-0.018,0.305,0.305,0.122,106.399
100824,139024,7873,-0.114,-0.967,-0.027,-0.061,0.427,0.305,106.405
100825,139041,19647,-0.114,-0.967,-0.027,-0.061,0.427,0.305,106.409
100825,139037,7867,-0.117,-0.966,-0.031,-0.244,0.427,0.488,106.415
100840,139041,19647,-0.117,-0.966,-0.031,-0.244,0.427,0.488,106.419
100840,139043,7878,-0.115,-0.961,-0.03,0.122,0.122,0.488,106.425
100829,139041,19647,-0.115,-0.961,-0.03,0.122,0.122,0.488,106.429
100829,139036,7882,-0.111,-0.96,-0.023,0.427,-0.244,0.427,106.435
100834,139041,19647,-0.111,-0.96,-0.023,0.427,-0.244,0.427,106.439
100834,139073,7877,-0.113,-0.957,-0.022,0.244,-0.366,0.183,106.445
100825,139041,19647,-0.113,-0.957,-0.022,0.244,-0.366,0.183,106.448
100825,139028,7871,-0.112,-0.956,-0.023,0.122,-0.305,0.183,106.455
100820,139041,19647,-0.112,-0.956,-0.023,0.122,-0.305,0.183,106.458
100820,139051,7877,-0.114,-0.957,-0.023,-0.244,-0.061,-0.061,106.465
100828,139041,19647,-0.114,-0.957,-0.023,-0.244,-0.061,-0.061,106.468
100828,139050,7871,-0.114,-0.964,-0.027,-0.488,0,0,106.474
100830,139041,19647,-0.114,-0.964,-0.027,-0.488,0,0,106.478
100830,139043,7881,-0.114,-0.963,-0.023,-0.61,-0.122,0.061,106.484
100816,139041,19647,-0.115,-0.964,-0.02,-0.61,-0.122,0.061,106.488
100816,139034,7885,-0.116,-0.967,-0.012,-0.305,-0.061,0.183,106.494
100795,139041,19647,-0.111,-0.969,-0.015,-0.305,-0.061,0.183,106.498
100795,139013,7862,-0.11,-0.967,-0.022,-0.244,-0.061,0.183,106.504
100809,139041,19647,-0.115,-0.969,-0.024,-0.244,-0.061,0.183,106.508
100809,139022,7873,-0.115,-0.969,-0.026,-0.305,0.305,0.122,106.514
100799,139041,19647,-0.117,-0.967,-0.029,-0.305,0.305,0.122,106.518
100799,139046,7869,-0.118,-0.967,-0.033,0.183,0.244,0.366,106.524
100803,139041,19647,-0.114,-0.965,-0.03,0.183,0.244,0.366,106.528
100803,139019,7870,-0.112,-0.962,-0.031,0.427,-0.183,0.305,106.534
100787,139041,19647,-0.113,-0.961,-0.033,0.427,-0.183,0.305,106.538
100787,139018,7876,-0.114,-0.962,-0.027,0.305,-0.305,0.305,106.544
100789,139041,19647,-0.112,-0.967,-0.021,0.305,-0.305,0.305,106.547
100789,139013,7879,-0.108,-0.967,-0.022,0.244,-0.305,0.488,106.554
100819,139041,19647,-0.107,-0.963,-0.017,0.244,-0.305,0.488,106.557
100819,139016,7878,-0.108,-0.958,-0.011,0,-0.122,0.427,106.564
100770,139041,19647,-0.113,-0.959,-0.012,0,-0.122,0.427,106.567
100770,139012,7880,-0.118,-0.959,-0.01,-0.244,0.305,0.366,106.573
100789,139041,19647,-0.119,-0.959,-0.005,-0.244,0.305,0.366,106.577
100789,139023,7844,-0.113,-0.96,-0.008,0,0.427,0.244,106.583
100791,139041,19647,-0.111,-0.957,-0.015,0,0.427,0.244,106.587
100791,139027,7876,-0.108,-0.959,-0.02,-0.122,0.549,0.061,106.593
100793,139041,19647,-0.114,-0.969,-0.024,-0.122,0.549,0.061,106.597
100793,139016,7879,-0.118,-0.978,-0.026,-0.61,0.976,0.244,106.603
100807,139041,19647,-0.117,-0.978,-0.029,-0.61,0.976,0.244,106.607
100807,139009,7885,-0.114,-0.976,-0.036,-0.366,0.915,0.488,106.613
100809,139041,19647,-0.113,-0.969,-0.03,-0.366,0.915,0.488,106.617
100809,139017,7877,-0.114,-0.965,-0.03,0.488,0.427,0.488,106.623
100775,138785,19647,-0.113,-0.961,-0.027,0.488,0.427,0.488,106.627
100775,139000,7875,-0.114,-0.957,-0.028,0.244,0.305,0.61,106.633
100782,139041,19647,-0.117,-0.958,-0.027,0.244,0.305,0.61,106.637
100782,139015,7885,-0.113,-0.957,-0.022,0,0.366,0.61,106.643
100775,139041,19647,-0.109,-0.958,-0.021,0,0.366,0.61,106.646
100775,139023,7865,-0.11,-0.951,-0.024,0.122,0.305,0.488,106.653
100782,138785,19647,-0.111,-0.947,-0.023,0.122,0.305,0.488,106.656
100782,138998,7881,-0.111,-0.948,-0.021,-0.061,0.305,0.061,106.663
100767,138785,19647,-0.112,-0.95,-0.016,-0.061,0.305,0.061,106.666
100767,138991,7882,-0.117,-0.955,-0.021,-0.183,0.427,-0.183,106.672
100782,138785,19647,-0.116,-0.967,-0.013,-0.183,0.427,-0.183,106.676
100782,139000,7862,-0.111,-0.976,-0.023,-0.122,0.366,-0.183,106.682
100774,139041,19647,-0.109,-0.977,-0.024,-0.122,0.366,-0.183,106.686
100774,139017,7870,-0.116,-0.981,-0.019,-0.122,0.549,0.061,106.692
100775,139041,19647,-0.119,-0.981,-0.005,-0.122,0.549,0.061,106.696
100775,139014,7877,-0.119,-0.973,-0.004,0.183,0.793,0.244,106.702
100768,139041,19647,-0.113,-0.969,-0.018,0.183,0.793,0.244,106.706
100768,139025,7883,-0.11,-0.972,-0.025,-0.122,0.732,0.61,106.712
100790,139041,19647,-0.112,-0.969,-0.023,-0.122,0.732,0.61,106.716
100790,139017,7875,-0.115,-0.965,-0.024,-0.366,0.854,1.098,106.722
100743,138785,19647,-0.12,-0.956,-0.03,-0.366,0.854,1.098,106.726
100743,138987,7877,-0.119,-0.957,-0.03,-0.427,0.976,0.915,106.732
100754,138785,19647,-0.116,-0.955,-0.032,-0.427,0.976,0.915,106.736
100754,138988,7862,-0.114,-0.952,-0.032,-0.183,0.793,0.61,106.742
100738,138785,19647,-0.114,-0.951,-0.03,-0.183,0.793,0.61,106.745
100738,138994,7876,-0.116,-0.953,-0.026,0.488,0.244,0.305,106.752
100759,138785,19647,-0.112,-0.955,-0.025,0.488,0.244,0.305,106.755
100759,139005,7877,-0.106,-0.957,-0.029,0.305,0.244,0.061,106.762
100734,138785,19647,-0.109,-0.962,-0.026,0.305,0.244,0.061,106.765
100734,138981,7871,-0.114,-0.967,-0.023,-0.183,0.549,-0.122,106.771
100745,138785,19647,-0.113,-0.967,-0.021,-0.183,0.549,-0.122,106.775
100745,138980,7871,-0.116,-0.959,-0.021,0.183,0.61,-0.061,106.781
100735,138785,19647,-0.117,-0.961,-0.02,0.183,0.61,-0.061,106.785
100735,138989,7862,-0.111,-0.966,-0.022,0.183,0.427,0,106.791
100731,138785,19647,-0.113,-0.965,-0.028,0.183,0.427,0,106.795
100731,138972,7864,-0.12,-0.967,-0.026,-0.122,0.366,0.183,106.801
100745,138785,19647,-0.122,-0.965,-0.018,-0.122,0.366,0.183,106.805
100745,139000,7870,-0.12,-0.965,-0.013,0.305,0.366,0.183,106.811
100734,138785,19647,-0.109,-0.964,-0.015,0.305,0.366,0.183,106.815
100734,138969,7864,-0.108,-0.965,-0.023,0.244,0.183,0.183,106.821
100734,138785,19647,-0.108,-0.964,-0.027,0.244,0.183,0.183,106.825
100734,138990,7868,-0.112,-0.964,-0.024,-0.305,0.305,0.366,106.831
100744,138785,19647,-0.113,-0.962,-0.023,-0.305,0.305,0.366,106.835
100744,138976,7865,-0.114,-0.965,-0.02,-0.61,0.366,0.488,106.841
100714,138785,19647,-0.112,-0.966,-0.022,-0.61,0.366,0.488,106.844
100714,138968,7873,-0.109,-0.96,-0.028,-0.549,0.183,0.427,106.851
100706,138785,19647,-0.114,-0.958,-0.029,-0.549,0.183,0.427,106.854
100706,138988,7871,-0.111,-0.955,-0.024,-0.366,0.244,0.488,106.861
100723,138785,19647,-0.115,-0.953,-0.027,-0.366,0.244,0.488,106.864
100723,139004,7863,-0.115,-0.956,-0.025,-0.549,0.061,0.244,106.87
100730,138785,19647,-0.111,-0.964,-0.016,-0.549,0.061,0.244,106.874
100730,138996,7875,-0.115,-0.962,-0.021,-0.976,0.183,0.122,106.88
100726,138785,19647,-0.116,-0.963,-0.02,-0.976,0.183,0.122,106.884
100726,139002,7866,-0.115,-0.967,-0.012,-0.488,0.366,0.122,106.89
100717,138785,19647,-0.115,-0.963,-0.008,-0.488,0.366,0.122,106.894
100717,138981,7863,-0.114,-0.961,-0.013,0,0.244,0.244,106.9
100720,138785,19647,-0.116,-0.963,-0.015,0,0.244,0.244,106.904
100720,139001,7875,-0.114,-0.969,-0.018,-0.427,0.549,0.122,106.91
100726,138785,19647,-0.116,-0.974,-0.022,-0.427,0.549,0.122,106.914
100726,138990,7868,-0.121,-0.973,-0.023,-0.488,0.732,0.366,106.92
100710,138785,19647,-0.116,-0.968,-0.027,-0.488,0.732,0.366,106.924
100710,138978,7871,-0.114,-0.966,-0.031,-0.061,0.549,0.427,106.93
100710,138785,19647,-0.114,-0.966,-0.031,-0.061,0.549,0.427,106.934
100710,138974,7868,-0.108,-0.965,-0.031,0.061,0.305,0.549,106.94
100708,138785,19647,-0.108,-0.965,-0.031,0.061,0.305,0.549,106.943
100708,138978,7862,-0.109,-0.966,-0.028,-0.244,0.366,0.549,106.95
100714,138785,19647,-0.109,-0.966,-0.028,-0.244,0.366,0.549,106.953
100714,138962,7861,-0.11,-0.964,-0.025,-0.183,0.183,0.549,106.96
100704,138785,19647,-0.11,-0.964,-0.025,-0.183,0.183,0.549,106.963
100704,138947,7873,-0.113,-0.953,-0.025,0.122,0.061,0.427,106.969
100706,138785,19647,-0.113,-0.953,-0.025,0.122,0.061,0.427,106.973
100706,138971,7886,-0.11,-0.953,-0.014,0.061,0.183,0.305,106.979
100703,138785,19647,-0.11,-0.953,-0.014,0.061,0.183,0.305,106.983
100703,138975,7861,-0.112,-0.956,-0.016,-0.549,0.488,0.183,106.989
100722,138785,19647,-0.112,-0.956,-0.016,-0.549,0.488,0.183,106.993
100722,138967,7856,-0.114,-0.966,-0.016,-0.854,0.549,0,106.999
100723,138785,19647,-0.114,-0.966,-0.016,-0.854,0.549,0,107.003
100723,138947,7878,-0.116,-0.97,-0.01,-0.488,0.732,0.061,107.009
100708,138785,19647,-0.116,-0.97,-0.01,-0.488,0.732,0.061,107.013
100708,138979,7871,-0.11,-0.977,-0.02,-0.488,0.793,0.305,107.019
100734,138785,19647,-0.11,-0.977,-0.02,-0.488,0.793,0.305,107.023
100734,138997,7867,-0.112,-0.973,-0.025,-0.305,0.915,0.671,107.029
100732,138785,19647,-0.112,-0.973,-0.025,-0.305,0.915,0.671,107.033
100732,138970,7872,-0.115,-0.966,-0.024,0,0.854,0.61,107.039
100728,139041,19647,-0.115,-0.966,-0.024,0,0.854,0.61,107.042
100728,139008,7865,-0.112,-0.958,-0.041,0.061,0.549,0.549,107.049
100721,138785,19647,-0.112,-0.958,-0.041,0.061,0.549,0.549,107.052
100721,138998,7875,-0.111,-0.955,-0.035,0.183,0.244,0.61,107.059
100731,138785,19647,-0.111,-0.955,-0.035,0.183,0.244,0.61,107.062
100731,138991,7881,-0.115,-0.948,-0.018,0.305,0.061,0.427,107.068
100728,138785,19647,-0.115,-0.948,-0.018,0.305,0.061,0.427,107.072
100728,138986,7875,-0.112,-0.953,-0.025,0.305,0.061,0.427,107.078
100723,139041,19647,-0.108,-0.968,-0.012,-0.427,0.122,0.122,107.082
100723,139024,7877,-0.112,-0.962,-0.021,-0.427,0.122,0.122,107.088
100713,138785,19647,-0.115,-0.962,-0.019,-0.854,0.488,0.183,107.092
100713,138991,7862,-0.116,-0.963,-0.015,-0.854,0.488,0.183,107.098
100725,138785,19647,-0.117,-0.963,-0.022,-0.427,0.671,0.122,107.102
100725,138993,7886,-0.118,-0.965,-0.026,-0.427,0.671,0.122,107.108
100734,138785,19647,-0.119,-0.965,-0.024,-0.305,0.549,0.244,107.112
100734,138985,7875,-0.117,-0.965,-0.021,-0.305,0.549,0.244,107.118
100717,138785,19647,-0.116,-0.968,-0.021,-0.244,0.427,0.305,107.122
100717,138973,7876,-0.115,-0.966,-0.025,-0.244,0.427,0.305,107.128
100713,138785,19647,-0.119,-0.966,-0.029,-0.305,0.732,0.305,107.132
100713,138982,7858,-0.117,-0.971,-0.034,-0.305,0.732,0.305,107.138
100716,138785,19647,-0.115,-0.967,-0.032,-0.305,0.732,0.427,107.141
100716,138984,7865,-0.116,-0.967,-0.029,-0.305,0.732,0.427,107.148
100712,138785,19647,-0.113,-0.969,-0.024,-0.122,0.366,0.427,107.151
100712,138972,7873,-0.114,-0.968,-0.029,-0.122,0.366,0.427,107.158
100727,139041,19647,-0.114,-0.972,-0.02,0,0.122,0.549,107.161
100727,139022,7873,-0.11,-0.969,-0.019,0,0.122,0.549,107.167
100727,138785,19647,-0.109,-0.962,-0.026,0.305,0.183,0.793,107.171
100727,138986,7875,-0.112,-0.952,-0.023,0.305,0.183,0.793,107.177
100735,138785,19647,-0.113,-0.954,-0.02,0.183,0.366,0.488,107.181
100735,139006,7871,-0.113,-0.957,-0.021,0.183,0.366,0.488,107.187
100733,138785,19647,-0.112,-0.957,-0.025,-0.183,0.366,0.244,107.191
100733,139002,7881,-0.112,-0.958,-0.03,-0.183,0.366,0.244,107.197
100722,138785,19647,-0.113,-0.962,-0.025,-0.122,0.366,0.122,107.201
100722,138998,7880,-0.114,-0.966,-0.026,-0.122,0.366,0.122,107.207
100721,138785,19647,-0.11,-0.961,-0.021,0.549,0.122,0,107.211
100721,138999,7887,-0.111,-0.958,-0.015,0.549,0.122,0,107.217
100720,138785,19647,-0.112,-0.959,-0.023,0.549,0.183,0.061,107.221
100720,138967,7848,-0.115,-0.967,-0.018,0.549,0.183,0.061,107.227
100716,138785,19647,-0.116,-0.976,-0.007,-0.061,0.549,0.122,107.231
100716,139002,7875,-0.114,-0.977,-0.015,-0.061,0.549,0.122,107.237
100705,138785,19647,-0.114,-0.98,-0.023,-0.427,0.732,0.427,107.24
100705,139001,7872,-0.114,-0.98,-0.019,-0.427,0.732,0.427,107.247
100720,138785,19647,-0.114,-0.973,-0.016,0.549,0.671,0.793,107.25
100720,139000,7867,-0.116,-0.961,-0.019,0.549,0.671,0.793,107.257
100719,138785,19647,-0.114,-0.956,-0.022,0.732,0.488,1.098,107.26
100719,138989,7874,-0.111,-0.958,-0.022,0.732,0.488,1.098,107.266
100715,138785,19647,-0.108,-0.962,-0.027,0,0.671,0.976,107.27
100715,138993,7865,-0.112,-0.964,-0.026,0,0.671,0.976,107.276
100707,138785,19647,-0.112,-0.958,-0.026,-0.183,0.61,1.098,107.28
100707,138992,7855,-0.111,-0.955,-0.025,-0.183,0.61,1.098,107.286
100716,138785,19647,-0.111,-0.949,-0.022,0.061,0.488,0.854,107.29
100716,138984,7880,-0.109,-0.956,-0.022,0.061,0.488,0.854,107.296
100717,138785,19647,-0.105,-0.968,-0.026,-0.122,0.427,0.488,107.3
100717,138987,7868,-0.106,-0.952,-0.029,-0.122,0.427,0.488,107.306
100720,138785,19647,-0.115,-0.944,-0.026,-0.976,0.671,0.61,107.31
100720,138998,7860,-0.117,-0.96,-0.019,-0.976,0.671,0.61,107.316
100721,139041,19647,-0.11,-0.974,-0.018,-0.854,0.854,0.244,107.32
100721,139021,7859,-0.109,-0.97,-0.024,-0.854,0.854,0.244,107.326
100733,139041,19647,-0.113,-0.968,-0.026,-1.28,0.854,0.61,107.33
100733,139026,7873,-0.121,-0.971,-0.023,-1.28,0.854,0.61,107.336
100741,138785,19647,-0.122,-0.972,-0.017,-0.549,0.976,0.61,107.339
100741,138993,7872,-0.121,-0.97,-0.012,-0.549,0.976,0.61,107.346
100717,139041,19647,-0.116,-0.967,-0.012,-0.122,0.732,0.671,107.349
100717,139021,7878,-0.115,-0.969,-0.015,-0.122,0.732,0.671,107.355
100718,139041,19647,-0.114,-0.969,-0.017,-0.549,0.854,0.793,107.359
100718,139019,7866,-0.117,-0.966,-0.019,-0.549,0.854,0.793,107.365
100726,138785,19647,-0.118,-0.964,-0.022,-0.244,0.854,1.098,107.369
100726,139001,7870,-0.12,-0.96,-0.023,-0.244,0.854,1.098,107.375
100733,139041,19647,-0.114,-0.96,-0.021,0.305,0.488,0.976,107.379
100733,139011,7874,-0.112,-0.956,-0.025,0.305,0.488,0.976,107.385
100713,138785,19647,-0.116,-0.956,-0.032,-0.061,0.427,0.854,107.389
100713,138993,7883,-0.12,-0.956,-0.034,-0.061,0.427,0.854,107.395
100715,139041,19647,-0.116,-0.957,-0.031,-0.61,0.366,0.793,107.399
100715,139014,7868,-0.112,-0.96,-0.027,-0.61,0.366,0.793,107.405
100702,139041,19647,-0.113,-0.959,-0.021,-0.793,0.061,0.61,107.409
100702,139014,7876,-0.115,-0.957,-0.021,-0.793,0.061,0.61,107.415
100730,139041,19647,-0.113,-0.962,-0.021,-1.037,0,0.549,107.419
100730,139010,7865,-0.112,-0.969,-0.022,-1.037,0,0.549,107.425
100711,138785,19647,-0.118,-0.973,-0.013,-1.098,0.366,0.61,107.429
100711,139005,7865,-0.12,-0.975,-0.01,-1.098,0.366,0.61,107.435
100707,138785,19647,-0.118,-0.966,-0.013,-0.366,0.671,0.732,107.438
100707,139001,7864,-0.12,-0.96,-0.029,-0.366,0.671,0.732,107.445
100722,138785,19647,-0.118,-0.961,-0.032,-0.122,0.915,0.61,107.448
100722,139007,7867,-0.122,-0.965,-0.031,-0.122,0.915,0.61,107.455
100712,138785,19647,-0.123,-0.964,-0.027,0,0.915,0.61,107.458
100712,139005,7870,-0.122,-0.96,-0.027,0,0.915,0.61,107.464
100719,138785,19647,-0.123,-0.958,-0.032,0.061,0.793,0.61,107.468
100719,139007,7865,-0.118,-0.959,-0.028,0.061,0.793,0.61,107.474
100686,138785,19647,-0.115,-0.961,-0.023,0.183,0.244,0.549,107.478
100686,138984,7870,-0.113,-0.956,-0.019,0.183,0.244,0.549,107.484
100674,138785,19647,-0.107,-0.963,-0.018,-0.549,0.244,0.61,107.488
100674,138999,7878,-0.111,-0.968,-0.016,-0.549,0.244,0.61,107.494
100671,138785,19647,-0.114,-0.97,-0.015,-0.915,0.549,0.732,107.498
100671,138988,7871,-0.112,-0.97,-0.022,-0.915,0.549,0.732,107.504
100661,138785,19647,-0.111,-0.963,-0.021,-0.488,0.549,0.976,107.508
100661,138977,7861,-0.112,-0.961,-0.024,-0.488,0.549,0.976,107.514
100648,138785,19647,-0.112,-0.961,-0.024,-0.488,0.549,0.976,107.518
100648,138952,7861,-0.117,-0.965,-0.02,-0.366,0.61,0.854,107.524
100662,138785,19647,-0.117,-0.965,-0.02,-0.366,0.61,0.854,107.528
100662,138958,7855,-0.111,-0.959,-0.028,-0.183,0.549,0.793,107.534
100637,138785,19647,-0.111,-0.959,-0.028,-0.183,0.549,0.793,107.537
100637,138976,7870,-0.115,-0.967,-0.027,-0.244,0.488,0.732,107.544
100664,138785,19647,-0.115,-0.967,-0.027,-0.244,0.488,0.732,107.547
100664,138967,7864,-0.117,-0.959,-0.021,-0.061,0.549,0.488,107.553
100685,138785,19647,-0.117,-0.959,-0.021,-0.061,0.549,0.488,107.557
100685,138964,7868,-0.111,-0.962,-0.017,0.244,0.427,0.366,107.563
100685,138785,19647,-0.111,-0.962,-0.017,0.244,0.427,0.366,107.567
100685,138981,7864,-0.113,-0.965,-0.019,0.061,0.549,0.427,107.573
100678,138785,19647,-0.113,-0.965,-0.019,0.061,0.549,0.427,107.577
100678,139002,7878,-0.112,-0.97,-0.018,-0.244,0.732,0.671,107.583
100661,138785,19647,-0.112,-0.97,-0.018,-0.244,0.732,0.671,107.587
100661,138984,7870,-0.114,-0.967,-0.019,-0.427,0.854,0.671,107.593
100662,138785,19647,-0.114,-0.967,-0.019,-0.427,0.854,0.671,107.597
100662,138978,7867,-0.112,-0.959,-0.025,-0.427,0.976,0.793,107.603
100656,138785,19647,-0.112,-0.959,-0.025,-0.427,0.976,0.793,107.607
100656,138945,7866,-0.117,-0.957,-0.023,-0.549,0.854,0.915,107.613
100646,138785,19647,-0.117,-0.957,-0.023,-0.549,0.854,0.915,107.617
100646,138959,7860,-0.119,-0.961,-0.016,-0.61,0.854,0.732,107.623
100655,138785,19647,-0.119,-0.961,-0.016,-0.61,0.854,0.732,107.627
100655,138938,7879,-0.115,-0.961,-0.026,-1.037,0.976,0.549,107.633
100652,138785,19647,-0.115,-0.961,-0.026,-1.037,0.976,0.549,107.636
100652,138972,7874,-0.119,-0.972,-0.031,-1.22,0.976,0.793,107.643
100672,138785,19647,-0.119,-0.972,-0.031,-1.22,0.976,0.793,107.646
100672,138972,7869,-0.118,-0.974,-0.022,-0.732,0.915,0.732,107.652
100657,138785,19647,-0.118,-0.974,-0.022,-0.732,0.915,0.732,107.656
100657,138951,7878,-0.113,-0.97,-0.025,0.122,0.732,0.671,107.662
100674,138785,19647,-0.113,-0.967,-0.027,0.122,0.732,0.671,107.666
100674,139004,7861,-0.119,-0.968,-0.035,0.061,0.61,0.915,107.672
100702,138785,19647,-0.122,-0.961,-0.028,0.061,0.61,0.915,107.676
100702,138993,7880,-0.122,-0.955,-0.031,0.183,0.549,1.037,107.682
100670,138785,19647,-0.12,-0.953,-0.028,0.183,0.549,1.037,107.686
100670,138991,7881,-0.118,-0.956,-0.028,0,0.305,0.793,107.692
100695,138785,19647,-0.117,-0.955,-0.027,0,0.305,0.793,107.696
100695,138976,7874,-0.115,-0.959,-0.023,-0.244,0.427,0.671,107.702
100695,138785,19647,-0.116,-0.962,-0.021,-0.244,0.427,0.671,107.706
100695,138981,7864,-0.115,-0.956,-0.019,-0.183,0.549,0.488,107.712
100700,138785,19647,-0.115,-0.955,-0.023,-0.183,0.549,0.488,107.716
100700,138979,7879,-0.114,-0.953,-0.026,-0.061,0.549,0.244,107.722
100704,138785,19647,-0.112,-0.958,-0.025,-0.061,0.549,0.244,107.725
100704,139007,7879,-0.114,-0.96,-0.018,-0.427,0.61,0.183,107.732
100711,138785,19647,-0.115,-0.968,-0.017,-0.427,0.61,0.183,107.735
100711,138985,7877,-0.117,-0.974,-0.012,-0.793,0.793,0.183,107.742
100703,138785,19647,-0.117,-0.975,-0.012,-0.793,0.793,0.183,107.745
100703,139000,7872,-0.117,-0.975,-0.023,-0.854,0.976,0.366,107.751
100709,138785,19647,-0.116,-0.974,-0.025,-0.854,0.976,0.366,107.755
100709,138994,7868,-0.12,-0.971,-0.028,-0.244,0.915,0.61,107.761
100703,138785,19647,-0.119,-0.967,-0.028,-0.244,0.915,0.61,107.765
100703,138987,7870,-0.122,-0.967,-0.021,-0.061,0.854,0.549,107.771
100692,138785,19647,-0.12,-0.969,-0.02,-0.061,0.854,0.549,107.775
100692,138985,7860,-0.116,-0.97,-0.022,-0.061,0.671,0.61,107.781
100679,138785,19647,-0.113,-0.969,-0.026,-0.061,0.671,0.61,107.785
100679,138981,7879,-0.116,-0.96,-0.033,0.244,0.366,0.854,107.791
100685,138785,19647,-0.116,-0.952,-0.029,0.244,0.366,0.854,107.795
100685,139005,7882,-0.117,-0.95,-0.023,0.671,0.488,0.854,107.801
100701,139041,19647,-0.116,-0.949,-0.025,0.671,0.488,0.854,107.805
100701,139013,7865,-0.112,-0.953,-0.024,-0.061,0.366,0.488,107.811
100707,138785,19647,-0.114,-0.959,-0.028,-0.061,0.366,0.488,107.815
100707,138999,7879,-0.117,-0.959,-0.027,-0.671,0.488,0.488,107.821
100688,138785,19647,-0.12,-0.956,-0.026,-0.671,0.488,0.488,107.825
100688,139003,7866,-0.121,-0.956,-0.024,-0.732,0.488,0.488,107.831
100696,138785,19647,-0.114,-0.961,-0.025,-0.732,0.488,0.488,107.834
100696,138992,7874,-0.113,-0.966,-0.022,-0.61,0.305,0.366,107.841
100672,138785,19647,-0.114,-0.964,-0.022,-0.61,0.305,0.366,107.844
100672,138996,7860,-0.118,-0.965,-0.029,-0.732,0.549,0.427,107.85
100686,138785,19647,-0.12,-0.963,-0.029,-0.732,0.549,0.427,107.854
100686,138997,7866,-0.12,-0.962,-0.031,-0.793,0.671,0.244,107.86
100694,138785,19647,-0.123,-0.965,-0.028,-0.793,0.671,0.244,107.864
100694,138972,7861,-0.118,-0.97,-0.019,-0.305,0.427,0.183,107.87
100681,138785,19647,-0.113,-0.973,-0.015,-0.305,0.427,0.183,107.874
100681,138991,7884,-0.112,-0.971,-0.018,-0.122,0.305,0.305,107.88
100696,138785,19647,-0.114,-0.975,-0.019,-0.122,0.305,0.305,107.884
100696,138998,7878,-0.12,-0.981,-0.024,-0.549,0.732,0.671,107.89
100700,138785,19647,-0.123,-0.979,-0.03,-0.549,0.732,0.671,107.894
100700,138980,7868,-0.122,-0.975,-0.028,-0.305,0.732,0.976,107.9
100702,138785,19647,-0.116,-0.965,-0.029,-0.305,0.732,0.976,107.904
100702,138995,7875,-0.117,-0.958,-0.033,0.854,0.305,1.037,107.91
100693,138785,19647,-0.118,-0.955,-0.031,0.854,0.305,1.037,107.914
100693,138998,7873,-0.116,-0.95,-0.024,1.22,-0.061,1.037,107.92
100709,138785,19647,-0.115,-0.95,-0.021,1.22,-0.061,1.037,107.923
100709,138997,7856,-0.113,-0.953,-0.023,0.122,0.061,0.732,107.93
100705,138785,19647,-0.113,-0.954,-0.029,0.122,0.061,0.732,107.933
100705,139001,7867,-0.121,-0.956,-0.028,-0.793,0.366,0.732,107.94
100688,139041,19647,-0.12,-0.949,-0.029,-0.793,0.366,0.732,107.943
100688,139027,7864,-0.115,-0.952,-0.029,-0.366,0.305,0.427,107.949
100720,139041,19647,-0.116,-0.955,-0.028,-0.366,0.305,0.427,107.953
100720,139018,7865,-0.117,-0.957,-0.021,-0.122,0.183,0.061,107.959
100690,139041,19647,-0.115,-0.965,-0.011,-0.122,0.183,0.061,107.963
100690,139012,7865,-0.117,-0.969,-0.002,0.061,0.366,0,107.969
100700,138785,19647,-0.115,-0.968,-0.005,0.061,0.366,0,107.973
100700,138987,7876,-0.115,-0.969,-0.014,-0.122,0.671,0.122,107.979
100677,138785,19647,-0.119,-0.969,-0.023,-0.122,0.671,0.122,107.983
100677,138987,7869,-0.12,-0.971,-0.028,-0.793,1.159,0.427,107.989
100670,138785,19647,-0.121,-0.975,-0.026,-0.793,1.159,0.427,107.993
100670,138996,7877,-0.119,-0.978,-0.027,-0.671,1.098,0.793,107.999
100695,138785,19647,-0.117,-0.978,-0.03,-0.671,1.098,0.793,108.003
100695,138989,7868,-0.118,-0.972,-0.033,-0.427,0.854,0.854,108.009
100675,138785,19647,-0.117,-0.969,-0.035,-0.427,0.854,0.854,108.013
100675,138963,7867,-0.118,-0.956,-0.034,0.183,0.671,0.915,108.019
100672,138785,19647,-0.117,-0.948,-0.033,0.183,0.671,0.915,108.022
100672,138991,7865,-0.115,-0.948,-0.025,0.244,0.305,0.854,108.029
100709,139041,19647,-0.114,-0.947,-0.023,0.244,0.305,0.854,108.032
100709,139009,7875,-0.114,-0.945,-0.024,-0.183,0.183,0.61,108.039
100700,138785,19647,-0.114,-0.946,-0.024,-0.183,0.183,0.61,108.042
100700,138988,7883,-0.117,-0.944,-0.022,-0.488,0.366,0.427,108.048
100695,138785,19647,-0.118,-0.95,-0.018,-0.488,0.366,0.427,108.052
100695,138990,7872,-0.115,-0.955,-0.019,-0.61,0.488,0.061,108.058
100705,139041,19647,-0.115,-0.958,-0.025,-0.61,0.488,0.061,108.062
100705,139011,7864,-0.117,-0.969,-0.025,-0.671,0.549,-0.183,108.068
100701,138785,19647,-0.121,-0.974,-0.02,-0.671,0.549,-0.183,108.072
100701,138991,7873,-0.121,-0.97,-0.019,0,0.61,-0.122,108.078
100714,138785,19647,-0.121,-0.97,-0.011,0,0.61,-0.122,108.082
100714,138984,7862,-0.118,-0.976,-0.021,0.244,0.671,-0.122,108.088
100701,138785,19647,-0.117,-0.983,-0.025,0.244,0.671,-0.122,108.092
100701,138999,7880,-0.12,-0.979,-0.026,-0.244,0.854,0.183,108.098
100709,139041,19647,-0.12,-0.979,-0.026,-0.244,0.854,0.183,108.102
100709,139008,7866,-0.126,-0.964,-0.024,-0.305,0.793,0.427,108.108
100702,138785,19647,-0.126,-0.964,-0.024,-0.305,0.793,0.427,108.112
100702,139001,7869,-0.115,-0.964,-0.02,0.061,0.305,0.549,108.118
100682,138785,19647,-0.115,-0.964,-0.02,0.061,0.305,0.549,108.121
100682,138972,7866,-0.119,-0.947,-0.028,-0.122,0.244,0.671,108.128
100689,138785,19647,-0.119,-0.947,-0.028,-0.122,0.244,0.671,108.131
100689,138976,7879,-0.119,-0.957,-0.031,-0.122,0.427,0.183,108.138
100682,138785,19647,-0.119,-0.957,-0.031,-0.122,0.427,0.183,108.141
100682,138988,7868,-0.116,-0.953,-0.035,-0.122,0.244,0.122,108.147
100702,138785,19647,-0.116,-0.953,-0.035,-0.122,0.244,0.122,108.151
100702,138990,7878,-0.117,-0.958,-0.039,0.183,0.122,-0.244,108.157
100693,138785,19647,-0.117,-0.958,-0.039,0.183,0.122,-0.244,108.161
100693,138984,7862,-0.116,-0.963,-0.024,0.427,0,-0.305,108.167
100689,138785,19647,-0.116,-0.963,-0.024,0.427,0,-0.305,108.171
100689,138968,7875,-0.114,-0.956,-0.023,0.854,-0.061,-0.427,108.177
100691,138785,19647,-0.114,-0.956,-0.023,0.854,-0.061,-0.427,108.181
100691,138961,7856,-0.114,-0.962,-0.018,0.183,0.122,-0.671,108.187
100692,138785,19647,-0.114,-0.962,-0.018,0.183,0.122,-0.671,108.191
100692,138969,7875,-0.117,-0.967,-0.026,-0.793,0.488,-0.488,108.197
100695,138785,19647,-0.117,-0.967,-0.026,-0.793,0.488,-0.488,108.201
100695,138984,7876,-0.116,-0.962,-0.022,0.122,0.305,-0.488,108.207
100671,138785,19647,-0.116,-0.962,-0.022,0.122,0.305,-0.488,108.211
100671,138981,7868,-0.11,-0.959,-0.012,0.793,0,-0.671,108.217
100689,138785,19647,-0.11,-0.959,-0.012,0.793,0,-0.671,108.22
100689,138974,7874,-0.115,-0.966,-0.02,-0.427,0.366,-0.549,108.227
100679,138785,19647,-0.115,-0.966,-0.02,-0.427,0.366,-0.549,108.23
100679,138985,7878,-0.12,-0.971,-0.026,-1.098,0.671,-0.305,108.237
100677,138785,19647,-0.12,-0.971,-0.026,-1.098,0.671,-0.305,108.24
100677,138987,7871,-0.119,-0.967,-0.028,-1.098,0.671,-0.305,108.246
100675,138785,19647,-0.119,-0.962,-0.028,-0.244,0.305,-0.305,108.25
100675,138990,7864,-0.119,-0.957,-0.036,-0.244,0.305,-0.305,108.256
100675,138785,19647,-0.12,-0.953,-0.041,0.183,0,-0.488,108.26
100675,138968,7873,-0.122,-0.96,-0.033,0.183,0,-0.488,108.266
100672,138785,19647,-0.121,-0.962,-0.031,-0.122,-0.244,-0.61,108.27
100672,138995,7884,-0.121,-0.963,-0.032,-0.122,-0.244,-0.61,108.276
100688,138785,19647,-0.12,-0.967,-0.031,-0.61,-0.427,-0.61,108.28
100688,138990,7868,-0.119,-0.965,-0.026,-0.61,-0.427,-0.61,108.286
100684,138785,19647,-0.122,-0.963,-0.029,-0.427,-0.488,-0.793,108.29
100684,138991,7876,-0.121,-0.965,-0.026,-0.427,-0.488,-0.793,108.296
100701,139041,19647,-0.118,-0.967,-0.017,0.122,-0.61,-0.671,108.3
100701,139016,7869,-0.115,-0.966,-0.014,0.122,-0.61,-0.671,108.306
100700,139041,19647,-0.117,-0.966,-0.015,0.122,-0.549,-0.427,108.31
100700,139009,7873,-0.118,-0.969,-0.024,0.122,-0.549,-0.427,108.316
100708,139041,19647,-0.114,-0.975,-0.02,-0.305,-0.305,-0.427,108.319
100708,139017,7878,-0.115,-0.975,-0.014,-0.305,-0.305,-0.427,108.326
100691,138785,19647,-0.115,-0.969,-0.006,0,-0.122,-0.122,108.329
100691,139007,7872,-0.115,-0.962,-0.014,0,-0.122,-0.122,108.336
100690,139041,19647,-0.11,-0.96,-0.02,0,-0.122,0.122,108.339
100690,139023,7867,-0.109,-0.967,-0.024,0,-0.122,0.122,108.345
100723,139041,19647,-0.111,-0.967,-0.035,-0.244,0.122,0.122,108.349
100723,139012,7872,-0.117,-0.96,-0.037,-0.244,0.122,0.122,108.355
100698,138785,19647,-0.115,-0.961,-0.034,0.061,0.061,0.244,108.359
100698,138995,7865,-0.112,-0.961,-0.03,0.061,0.061,0.244,108.365
100679,138785,19647,-0.107,-0.962,-0.029,0.305,-0.305,-0.183,108.369
100679,138992,7867,-0.106,-0.964,-0.032,0.305,-0.305,-0.183,108.375
100668,138785,19647,-0.107,-0.964,-0.032,0.183,-0.366,-0.244,108.379
100668,139004,7876,-0.109,-0.957,-0.028,0.183,-0.366,-0.244,108.385
100675,138785,19647,-0.11,-0.955,-0.019,0.183,-0.366,-0.183,108.389
100675,138979,7865,-0.109,-0.958,-0.013,0.183,-0.366,-0.183,108.395
100666,138785,19647,-0.109,-0.96,-0.011,0.122,-0.366,-0.427,108.399
100666,138994,7861,-0.104,-0.962,-0.015,0.122,-0.366,-0.427,108.405
100650,138785,19647,-0.108,-0.966,-0.016,-0.671,-0.061,-0.305,108.409
100650,138989,7876,-0.11,-0.969,-0.016,-0.671,-0.061,-0.305,108.415
100654,138785,19647,-0.112,-0.971,-0.013,-0.61,0.366,-0.061,108.418
100654,138967,7883,-0.114,-0.965,-0.013,-0.61,0.366,-0.061,108.425
100658,138785,19647,-0.113,-0.959,-0.016,-0.122,0.427,-0.061,108.428
100658,138987,7871,-0.113,-0.962,-0.019,-0.122,0.427,-0.061,108.435
100652,138785,19647,-0.113,-0.966,-0.027,0.061,0.122,0.183,108.438
100652,138970,7859,-0.114,-0.962,-0.033,0.061,0.122,0.183,108.444
100633,138785,19647,-0.114,-0.96,-0.035,0,0.061,0.305,108.448
100633,138951,7868,-0.115,-0.962,-0.031,0,0.061,0.305,108.454
100633,138785,19647,-0.112,-0.962,-0.024,0.244,0,-0.061,108.458
100633,138967,7860,-0.112,-0.961,-0.02,0.244,0,-0.061,108.464
100641,138785,19647,-0.111,-0.963,-0.014,0.488,-0.122,-0.305,108.468
100641,138961,7873,-0.108,-0.963,-0.013,0.488,-0.122,-0.305,108.474
100630,138785,19647,-0.108,-0.968,-0.016,0.183,0.183,-0.244,108.478
100630,138972,7869,-0.113,-0.977,-0.014,0.183,0.183,-0.244,108.484
100634,138785,19647,-0.114,-0.972,-0.012,0.061,0.732,0,108.488
100634,138966,7850,-0.119,-0.968,-0.017,0.061,0.732,0,108.494
100604,138785,19647,-0.118,-0.966,-0.023,0.061,0.671,0.183,108.498
100604,138962,7865,-0.113,-0.967,-0.028,0.061,0.671,0.183,108.504
100604,138785,19647,-0.116,-0.969,-0.025,-0.488,0.732,0.488,108.508
100604,138955,7865,-0.12,-0.97,-0.022,-0.488,0.732,0.488,108.514
100624,138785,19647,-0.12,-0.971,-0.033,-0.793,0.854,0.671,108.517
100624,138926,7862,-0.12,-0.968,-0.035,-0.793,0.854,0.671,108.524
100588,138785,19647,-0.121,-0.957,-0.027,0.122,0.671,0.61,108.527
100588,138953,7862,-0.116,-0.946,-0.022,0.122,0.671,0.61,108.534
100604,138785,19647,-0.114,-0.945,-0.023,0.915,0.122,0.305,108.537
100604,138952,7863,-0.113,-0.95,-0.029,0.915,0.122,0.305,108.543
100612,138785,19647,-0.111,-0.953,-0.028,0.183,0.183,0,108.547
100612,138965,7859,-0.113,-0.961,-0.028,0.183,0.183,0,108.553
100619,138785,19647,-0.114,-0.967,-0.027,0.061,0.305,0,108.557
100619,138961,7871,-0.113,-0.966,-0.021,0.061,0.305,0,108.563
100628,138785,19647,-0.113,-0.965,-0.022,0.427,0.183,-0.061,108.567
100628,138963,7869,-0.112,-0.97,-0.019,0.427,0.183,-0.061,108.573
100639,138785,19647,-0.112,-0.975,-0.024,0,0.183,0.061,108.577
100639,138954,7875,-0.117,-0.979,-0.027,0,0.183,0.061,108.583
100612,138785,19647,-0.117,-0.979,-0.021,-0.671,0.366,0.549,108.587
100612,138947,7866,-0.118,-0.968,-0.019,-0.671,0.366,0.549,108.593
100641,138785,19647,-0.12,-0.963,-0.021,-0.671,0.366,0.61,108.597
100641,138928,7855,-0.116,-0.961,-0.021,-0.671,0.366,0.61,108.603
100618,138785,19647,-0.113,-0.962,-0.016,-0.549,0.305,0.549,108.607
100618,138964,7877,-0.111,-0.964,-0.02,-0.549,0.305,0.549,108.613
100620,138785,19647,-0.113,-0.957,-0.024,-0.671,0.488,0.732,108.616
100620,138972,7861,-0.119,-0.956,-0.026,-0.671,0.488,0.732,108.623
100635,138785,19647,-0.118,-0.952,-0.023,-0.427,0.549,0.549,108.626
100635,138948,7860,-0.115,-0.95,-0.02,-0.427,0.549,0.549,108.633
100622,138785,19647,-0.109,-0.953,-0.022,-0.061,0.427,0.122,108.636
100622,138956,7874,-0.108,-0.961,-0.025,-0.061,0.427,0.122,108.642
