103421,139783,7754,-0.119,-0.925,-0.261,0.122,0.183,0.061,203.56
103443,139809,19647,-0.119,-0.925,-0.261,0.122,0.183,0.061,203.564
103443,139791,7751,-0.121,-0.927,-0.266,0,-0.122,-0.061,203.57
103434,139809,19647,-0.121,-0.927,-0.266,0,-0.122,-0.061,203.574
103434,139776,7766,-0.126,-0.926,-0.265,-0.122,0.061,-0.061,203.58
103414,139809,19647,-0.126,-0.926,-0.265,-0.122,0.061,-0.061,203.583
103414,139815,7751,-0.119,-0.925,-0.264,0.305,0.244,-0.183,203.59
103471,139809,19647,-0.119,-0.925,-0.264,0.305,0.244,-0.183,203.593
103471,139799,7747,-0.115,-0.927,-0.271,0.61,-0.244,-0.244,203.6
103439,139809,19647,-0.115,-0.927,-0.271,0.61,-0.244,-0.244,203.603
103439,139780,7763,-0.12,-0.925,-0.259,0.732,-0.183,-0.122,203.609
103452,139809,19647,-0.12,-0.925,-0.259,0.732,-0.183,-0.122,203.613
103452,139787,7761,-0.115,-0.922,-0.258,0.915,-0.244,-0.122,203.619
103436,139809,19647,-0.115,-0.922,-0.258,0.915,-0.244,-0.122,203.623
103436,139793,7758,-0.111,-0.921,-0.265,0.427,-0.305,-0.122,203.629
103457,139809,19647,-0.111,-0.921,-0.265,0.427,-0.305,-0.122,203.633
103457,139797,7768,-0.121,-0.934,-0.257,-0.366,0,0,203.639
103442,139809,19647,-0.121,-0.934,-0.257,-0.366,0,0,203.643
103442,139780,7761,-0.119,-0.925,-0.26,-0.183,0.122,0.183,203.649
103423,139553,19647,-0.119,-0.925,-0.26,-0.183,0.122,0.183,203.653
103423,139766,7755,-0.118,-0.929,-0.261,-0.183,0.061,0,203.659
103430,139809,19647,-0.118,-0.929,-0.261,-0.183,0.061,0,203.663
103430,139815,7755,-0.118,-0.929,-0.261,0.061,0.122,0.061,203.669
103433,139809,19647,-0.118,-0.929,-0.261,0.061,0.122,0.061,203.673
103433,139817,7752,-0.119,-0.919,-0.27,0.122,0.366,0.366,203.679
103434,139809,19647,-0.119,-0.919,-0.27,0.122,0.366,0.366,203.683
103434,139779,7754,-0.114,-0.919,-0.265,0,0.244,0.244,203.689
103449,139809,19647,-0.114,-0.919,-0.265,0,0.244,0.244,203.692
103449,139795,7764,-0.116,-0.924,-0.264,0.427,0,0.061,203.699
103472,139809,19647,-0.116,-0.924,-0.264,0.427,0,0.061,203.702
103472,139824,7766,-0.118,-0.919,-0.267,0.549,0.061,0.122,203.708
103465,139809,19647,-0.116,-0.92,-0.267,0.549,0.061,0.122,203.712
103465,139819,7747,-0.12,-0.923,-0.256,0.488,0.061,0,203.718
103458,139809,19647,-0.117,-0.927,-0.244,0.488,0.061,0,203.722
103458,139809,7763,-0.116,-0.922,-0.249,0.61,0,-0.122,203.728
103434,139809,19647,-0.114,-0.922,-0.248,0.61,0,-0.122,203.732
103434,139809,7765,-0.113,-0.926,-0.251,-0.183,0.183,-0.061,203.738
103443,139809,19647,-0.115,-0.929,-0.255,-0.183,0.183,-0.061,203.742
103443,139802,7755,-0.118,-0.933,-0.259,-0.793,0.61,0.366,203.748
103431,139809,19647,-0.119,-0.932,-0.263,-0.793,0.61,0.366,203.752
103431,139801,7752,-0.12,-0.936,-0.267,-1.037,0.793,0.427,203.758
103455,139809,19647,-0.119,-0.932,-0.27,-1.037,0.793,0.427,203.762
103455,139817,7771,-0.117,-0.928,-0.272,-0.427,0.549,0.488,203.768
103457,139809,19647,-0.116,-0.924,-0.273,-0.427,0.549,0.488,203.772
103457,139832,7755,-0.117,-0.923,-0.272,0.183,0.427,0.61,203.778
103470,139809,19647,-0.118,-0.92,-0.274,0.183,0.427,0.61,203.782
103470,139831,7783,-0.119,-0.917,-0.274,0.61,0.549,0.427,203.788
103479,139809,19647,-0.122,-0.917,-0.271,0.61,0.549,0.427,203.791
103479,139836,7766,-0.121,-0.916,-0.271,0.915,0.305,0.061,203.798
103483,139809,19647,-0.12,-0.915,-0.266,0.915,0.305,0.061,203.801
103483,139851,7761,-0.12,-0.915,-0.264,1.037,-0.061,-0.061,203.807
103467,139809,19647,-0.117,-0.921,-0.253,1.037,-0.061,-0.061,203.811
103467,139823,7766,-0.115,-0.924,-0.245,0.427,-0.244,-0.183,203.817
103449,139809,19647,-0.117,-0.931,-0.252,0.427,-0.244,-0.183,203.821
103449,139832,7762,-0.116,-0.935,-0.248,-0.244,0.183,-0.183,203.827
103444,139809,19647,-0.118,-0.934,-0.251,-0.244,0.183,-0.183,203.831
103444,139836,7763,-0.121,-0.931,-0.258,-0.488,0.549,0.305,203.837
103468,139809,19647,-0.121,-0.934,-0.257,-0.488,0.549,0.305,203.841
103468,139823,7755,-0.118,-0.932,-0.255,-0.549,0.671,0.549,203.847
103457,139809,19647,-0.117,-0.929,-0.264,-0.549,0.671,0.549,203.851
103457,139795,7766,-0.119,-0.929,-0.266,-0.183,0.732,0.671,203.857
103449,139809,19647,-0.12,-0.924,-0.271,-0.183,0.732,0.671,203.861
103449,139825,7762,-0.117,-0.915,-0.279,0.244,0.488,0.671,203.867
103455,139809,19647,-0.117,-0.914,-0.272,0.244,0.488,0.671,203.871
103455,139803,7751,-0.117,-0.921,-0.272,0.488,0.122,0.488,203.877
103444,139809,19647,-0.12,-0.92,-0.274,0.488,0.122,0.488,203.88
103444,139809,7764,-0.117,-0.923,-0.269,0.488,-0.122,0.183,203.887
103454,139809,19647,-0.117,-0.924,-0.266,0.488,-0.122,0.183,203.89
103454,139776,7749,-0.118,-0.921,-0.257,0.488,-0.244,0,203.897
103413,139809,19647,-0.119,-0.921,-0.248,0.488,-0.244,0,203.9
103413,139781,7756,-0.117,-0.917,-0.255,0.122,-0.305,0,203.906
103435,139553,19647,-0.118,-0.917,-0.261,0.122,-0.305,0,203.91
103435,139773,7756,-0.122,-0.928,-0.257,-0.671,0.122,0.183,203.916
103434,139809,19647,-0.122,-0.934,-0.247,-0.671,0.122,0.183,203.92
103434,139793,7744,-0.122,-0.929,-0.248,-0.427,0.61,0.183,203.926
103414,139809,19647,-0.117,-0.928,-0.254,-0.427,0.61,0.183,203.93
103414,139788,7766,-0.114,-0.931,-0.261,-0.915,0.671,0.183,203.936
103425,139809,19647,-0.117,-0.929,-0.26,-0.915,0.671,0.183,203.94
103425,139808,7770,-0.12,-0.929,-0.262,-0.732,0.854,0.488,203.946
103440,139809,19647,-0.121,-0.926,-0.27,-0.732,0.854,0.488,203.95
103440,139778,7748,-0.121,-0.923,-0.271,-0.122,0.732,0.488,203.956
103439,139809,19647,-0.117,-0.923,-0.269,-0.122,0.732,0.488,203.96
103439,139806,7774,-0.115,-0.924,-0.271,0.61,0.366,0.244,203.966
103433,139809,19647,-0.113,-0.922,-0.27,0.61,0.366,0.244,203.97
103433,139777,7769,-0.112,-0.919,-0.265,0.732,0.122,0.244,203.976
103417,139809,19647,-0.112,-0.918,-0.26,0.732,0.122,0.244,203.98
103417,139776,7746,-0.115,-0.917,-0.261,0.305,0.122,0.244,203.986
103417,139553,19647,-0.114,-0.92,-0.266,0.305,0.122,0.244,203.989
103417,139760,7759,-0.112,-0.932,-0.255,-0.122,0.244,0.244,203.996
103402,139809,19647,-0.117,-0.933,-0.247,-0.122,0.244,0.244,203.999
103402,139784,7767,-0.118,-0.925,-0.25,0.122,0.122,0.305,204.005
103433,139809,19647,-0.115,-0.921,-0.255,0.122,0.122,0.305,204.009
103433,139781,7751,-0.116,-0.924,-0.26,-0.732,0.427,0.122,204.015
103428,139553,19647,-0.12,-0.933,-0.26,-0.732,0.427,0.122,204.019
103428,139771,7749,-0.122,-0.938,-0.26,-0.854,0.671,0.427,204.025
103416,139809,19647,-0.124,-0.933,-0.261,-0.854,0.671,0.427,204.029
103416,139781,7767,-0.123,-0.927,-0.26,-0.427,0.549,0.427,204.035
103420,139809,19647,-0.122,-0.922,-0.259,-0.427,0.549,0.427,204.039
103420,139788,7740,-0.12,-0.926,-0.258,0.061,0.244,0.122,204.045
103437,139809,19647,-0.118,-0.923,-0.262,0.061,0.244,0.122,204.049
103437,139781,7747,-0.12,-0.92,-0.267,-0.183,0.427,0.305,204.055
103423,139809,19647,-0.125,-0.923,-0.26,-0.183,0.427,0.305,204.059
103423,139800,7751,-0.127,-0.922,-0.263,-0.488,0.549,0.366,204.065
103418,139809,19647,-0.123,-0.925,-0.257,-0.488,0.549,0.366,204.069
103418,139779,7764,-0.119,-0.925,-0.25,-0.427,0.305,0.305,204.075
103443,139553,19647,-0.114,-0.923,-0.26,-0.427,0.305,0.305,204.078
103443,139762,7768,-0.112,-0.925,-0.267,-0.671,0.244,0.366,204.085
103408,139809,19647,-0.116,-0.929,-0.271,-0.671,0.244,0.366,204.088
103408,139776,7765,-0.119,-0.93,-0.269,-0.549,0.488,0.793,204.095
103406,139553,19647,-0.12,-0.927,-0.264,-0.549,0.488,0.793,204.098
103406,139773,7761,-0.116,-0.923,-0.263,-0.427,0.549,0.61,204.104
103408,139553,19647,-0.113,-0.926,-0.267,-0.427,0.549,0.61,204.108
103408,139760,7757,-0.112,-0.926,-0.266,-0.122,0.122,0.549,204.114
103407,139553,19647,-0.113,-0.922,-0.264,-0.122,0.122,0.549,204.118
103407,139766,7768,-0.118,-0.921,-0.263,0.244,0.366,0.549,204.124
103403,139553,19647,-0.117,-0.919,-0.258,0.244,0.366,0.549,204.128
103403,139765,7753,-0.117,-0.918,-0.255,0.366,0.244,0.305,204.134
103425,139809,19647,-0.115,-0.916,-0.259,0.366,0.244,0.305,204.138
103425,139797,7762,-0.115,-0.916,-0.257,-0.061,0.244,0.183,204.144
103445,139809,19647,-0.115,-0.916,-0.257,-0.061,0.244,0.183,204.148
103445,139797,7748,-0.115,-0.925,-0.264,-0.549,0.427,0.122,204.154
103415,139809,19647,-0.115,-0.925,-0.264,-0.549,0.427,0.122,204.158
103415,139781,7773,-0.121,-0.927,-0.261,-0.549,0.427,0.061,204.164
103415,139809,19647,-0.121,-0.927,-0.261,-0.549,0.427,0.061,204.168
103415,139789,7761,-0.121,-0.927,-0.265,-0.183,0.244,0.061,204.174
103403,139809,19647,-0.121,-0.927,-0.265,-0.183,0.244,0.061,204.178
103403,139779,7754,-0.118,-0.93,-0.264,-0.061,0.183,0.061,204.184
103408,139809,19647,-0.118,-0.93,-0.264,-0.061,0.183,0.061,204.187
103408,139800,7764,-0.12,-0.933,-0.267,-0.305,0.366,0.305,204.194
103402,139809,19647,-0.12,-0.933,-0.267,-0.305,0.366,0.305,204.197
103402,139788,7770,-0.12,-0.929,-0.256,0,0.427,0.488,204.203
103396,139553,19647,-0.12,-0.929,-0.256,0,0.427,0.488,204.207
103396,139775,7765,-0.116,-0.914,-0.266,-0.244,0.183,0.366,204.213
103418,139809,19647,-0.116,-0.914,-0.266,-0.244,0.183,0.366,204.217
103418,139801,7752,-0.118,-0.922,-0.254,-0.488,0.366,0.549,204.223
103442,139809,19647,-0.118,-0.922,-0.254,-0.488,0.366,0.549,204.227
103442,139824,7764,-0.118,-0.921,-0.256,-0.488,0.549,0.427,204.233
103455,139809,19647,-0.118,-0.921,-0.256,-0.488,0.549,0.427,204.237
103455,139792,7749,-0.115,-0.918,-0.253,-0.366,0.427,0.427,204.243
103441,139809,19647,-0.115,-0.918,-0.253,-0.366,0.427,0.427,204.247
103441,139810,7766,-0.112,-0.924,-0.266,-0.976,0.549,0.427,204.253
103447,139809,19647,-0.112,-0.924,-0.266,-0.976,0.549,0.427,204.257
103447,139797,7761,-0.122,-0.936,-0.263,-0.976,0.793,0.549,204.263
103424,139809,19647,-0.122,-0.936,-0.263,-0.976,0.793,0.549,204.267
103424,139804,7773,-0.118,-0.927,-0.272,-0.549,0.61,0.549,204.273
103427,139809,19647,-0.118,-0.927,-0.272,-0.549,0.61,0.549,204.276
103427,139790,7757,-0.113,-0.924,-0.267,0.061,0.244,0.488,204.283
103420,139809,19647,-0.113,-0.924,-0.267,0.061,0.244,0.488,204.286
103420,139791,7752,-0.117,-0.927,-0.261,0.061,0.244,0.488,204.293
103432,139809,19647,-0.119,-0.923,-0.26,0.366,0.366,0.549,204.296
103432,139798,7775,-0.119,-0.918,-0.266,0.366,0.366,0.549,204.302
103445,139809,19647,-0.118,-0.913,-0.262,0.427,0.427,0.427,204.306
103445,139806,7751,-0.12,-0.914,-0.259,0.427,0.427,0.427,204.312
103448,139809,19647,-0.12,-0.915,-0.264,0.244,0.427,0.183,204.316
103448,139793,7769,-0.116,-0.921,-0.268,0.244,0.427,0.183,204.322
103419,139809,19647,-0.119,-0.924,-0.266,-0.183,0.427,-0.061,204.326
103419,139791,7765,-0.121,-0.928,-0.257,-0.183,0.427,-0.061,204.332
103428,139809,19647,-0.12,-0.929,-0.248,-0.061,0.427,-0.183,204.336
103428,139825,7769,-0.116,-0.925,-0.247,-0.061,0.427,-0.183,204.342
103425,139809,19647,-0.112,-0.923,-0.26,-0.488,0.305,-0.061,204.346
103425,139792,7786,-0.115,-0.926,-0.269,-0.488,0.305,-0.061,204.352
103393,139809,19647,-0.121,-0.937,-0.268,-1.463,0.61,0.366,204.356
103393,139821,7767,-0.126,-0.941,-0.263,-1.463,0.61,0.366,204.362
103450,139809,19647,-0.124,-0.937,-0.256,-0.976,0.793,0.671,204.366
103450,139826,7772,-0.118,-0.928,-0.26,-0.976,0.793,0.671,204.372
103453,139809,19647,-0.115,-0.924,-0.266,-0.488,0.244,0.61,204.376
103453,139805,7762,-0.114,-0.921,-0.267,-0.488,0.244,0.61,204.382
103437,139809,19647,-0.119,-0.925,-0.258,-0.244,0.427,0.854,204.385
103437,139823,7767,-0.12,-0.924,-0.26,-0.244,0.427,0.854,204.392
103433,139809,19647,-0.121,-0.921,-0.265,0.061,0.61,0.976,204.395
103433,139827,7767,-0.124,-0.918,-0.266,0.061,0.61,0.976,204.401
103451,139809,19647,-0.121,-0.915,-0.268,0.122,0.488,0.488,204.405
103451,139825,7758,-0.117,-0.917,-0.271,0.122,0.488,0.488,204.411
103444,139809,19647,-0.116,-0.919,-0.267,0.488,0.366,0.183,204.415
103444,139841,7783,-0.122,-0.919,-0.266,0.488,0.366,0.183,204.421
103458,139809,19647,-0.117,-0.929,-0.261,0.427,0.366,-0.244,204.425
103458,139835,7766,-0.113,-0.928,-0.257,0.427,0.366,-0.244,204.431
103454,139809,19647,-0.112,-0.919,-0.258,-0.244,0.183,-0.305,204.435
103454,139800,7767,-0.109,-0.921,-0.26,-0.244,0.183,-0.305,204.441
103460,139809,19647,-0.113,-0.925,-0.266,-0.854,0.366,0,204.445
103460,139836,7776,-0.118,-0.932,-0.262,-0.854,0.366,0,204.451
103461,139809,19647,-0.119,-0.933,-0.254,-0.671,0.793,0.305,204.455
103461,139829,7788,-0.117,-0.929,-0.261,-0.671,0.793,0.305,204.461
103448,139809,19647,-0.114,-0.924,-0.269,-0.61,0.549,0.305,204.465
103448,139822,7768,-0.116,-0.924,-0.27,-0.61,0.549,0.305,204.471
103442,139809,19647,-0.117,-0.929,-0.266,-0.427,0.488,0.488,204.475
103442,139843,7784,-0.121,-0.929,-0.267,-0.427,0.488,0.488,204.481
103456,139809,19647,-0.122,-0.924,-0.27,0,0.427,0.549,204.484
103456,139850,7756,-0.119,-0.925,-0.268,0,0.427,0.549,204.491
103438,139809,19647,-0.121,-0.923,-0.265,0.793,0,0.061,204.494
103438,139842,7762,-0.121,-0.919,-0.26,0.793,0,0.061,204.5
103462,139809,19647,-0.117,-0.919,-0.261,1.28,-0.244,0,204.504
103462,139838,7772,-0.12,-0.917,-0.26,1.28,-0.244,0,204.51
103456,139809,19647,-0.119,-0.922,-0.256,0.671,-0.244,-0.305,204.514
103456,139835,7768,-0.121,-0.923,-0.247,0.671,-0.244,-0.305,204.52
103441,139809,19647,-0.117,-0.923,-0.254,0.061,-0.244,-0.305,204.524
103441,139824,7779,-0.118,-0.926,-0.261,0.061,-0.244,-0.305,204.53
103453,139809,19647,-0.117,-0.93,-0.265,-0.366,-0.183,-0.122,204.534
103453,139843,7772,-0.12,-0.929,-0.264,-0.366,-0.183,-0.122,204.54
103471,139809,19647,-0.124,-0.922,-0.269,-0.427,0,0.061,204.544
103471,139832,7765,-0.122,-0.925,-0.272,-0.427,0,0.061,204.55
103452,139809,19647,-0.119,-0.93,-0.27,-0.61,-0.183,-0.061,204.554
103452,139837,7791,-0.118,-0.928,-0.273,-0.61,-0.183,-0.061,204.56
103453,139809,19647,-0.118,-0.928,-0.273,0,-0.488,0,204.564
103453,139854,7779,-0.119,-0.922,-0.27,0,-0.488,0,204.57
103459,139809,19647,-0.116,-0.923,-0.264,0.488,-0.732,0.061,204.574
103459,139856,7781,-0.118,-0.925,-0.261,0.488,-0.732,0.061,204.58
103465,139809,19647,-0.118,-0.927,-0.257,0.427,-0.793,0.122,204.583
103465,139839,7780,-0.118,-0.926,-0.257,0.427,-0.793,0.122,204.59
103453,139809,19647,-0.116,-0.922,-0.254,-0.061,-0.732,0.061,204.593
103453,139855,7774,-0.118,-0.922,-0.252,-0.061,-0.732,0.061,204.599
103448,139809,19647,-0.118,-0.921,-0.252,-0.488,-0.549,0.061,204.603
103448,139846,7782,-0.117,-0.923,-0.252,-0.488,-0.549,0.061,204.609
103433,139809,19647,-0.118,-0.927,-0.254,-0.61,-0.183,0.061,204.613
103433,139829,7775,-0.118,-0.926,-0.251,-0.61,-0.183,0.061,204.619
103451,139809,19647,-0.116,-0.921,-0.253,-0.61,0.122,0.061,204.623
103451,139854,7779,-0.112,-0.925,-0.257,-0.61,0.122,0.061,204.629
103452,139809,19647,-0.112,-0.928,-0.255,-0.671,0.183,0.061,204.633
103452,139861,7771,-0.113,-0.931,-0.256,-0.671,0.183,0.061,204.639
103495,139809,19647,-0.115,-0.931,-0.257,-0.488,0.244,0.183,204.643
103495,139846,7772,-0.111,-0.932,-0.253,-0.488,0.244,0.183,204.649
103478,139809,19647,-0.11,-0.932,-0.254,-0.061,0.305,0.305,204.653
103478,139887,7780,-0.108,-0.926,-0.264,-0.061,0.305,0.305,204.659
103477,139809,19647,-0.108,-0.925,-0.261,0,0.305,0.427,204.663
103477,139864,7776,-0.114,-0.934,-0.257,0,0.305,0.427,204.669
103475,139809,19647,-0.113,-0.931,-0.253,0.305,0.61,0.427,204.673
103475,139875,7777,-0.11,-0.924,-0.253,0.305,0.61,0.427,204.679
103474,139809,19647,-0.11,-0.924,-0.257,0.244,0.671,0.427,204.682
103474,139893,7797,-0.109,-0.927,-0.259,0.244,0.671,0.427,204.689
103497,139809,19647,-0.109,-0.926,-0.265,0.183,0.793,0.61,204.692
103497,139876,7783,-0.112,-0.923,-0.26,0.183,0.793,0.61,204.698
103479,139809,19647,-0.115,-0.924,-0.263,0.122,1.098,0.854,204.702
103479,139860,7786,-0.118,-0.926,-0.266,0.122,1.098,0.854,204.708
103467,139809,19647,-0.119,-0.924,-0.262,0.061,1.159,0.61,204.712
103467,139866,7792,-0.12,-0.919,-0.266,0.061,1.159,0.61,204.718
103495,139809,19647,-0.116,-0.918,-0.265,-0.061,1.098,0.549,204.722
103495,139886,7776,-0.115,-0.925,-0.266,-0.061,1.098,0.549,204.728
103472,139809,19647,-0.119,-0.928,-0.267,0,1.22,0.549,204.732
103472,139862,7786,-0.12,-0.927,-0.266,0,1.22,0.549,204.738
103480,139809,19647,-0.12,-0.927,-0.266,0,1.22,0.549,204.742
103480,139863,7780,-0.118,-0.927,-0.264,0,1.28,0.549,204.748
103455,139809,19647,-0.118,-0.927,-0.264,0,1.28,0.549,204.752
103455,139888,7783,-0.116,-0.928,-0.269,0.122,1.098,0.61,204.758
103473,139809,19647,-0.116,-0.928,-0.269,0.122,1.098,0.61,204.762
103473,139871,7780,-0.12,-0.927,-0.257,-0.061,1.098,0.793,204.768
103440,139809,19647,-0.12,-0.927,-0.257,-0.061,1.098,0.793,204.772
103440,139853,7787,-0.12,-0.926,-0.256,-0.427,1.037,0.854,204.778
103421,139809,19647,-0.12,-0.926,-0.256,-0.427,1.037,0.854,204.781
103421,139836,7774,-0.121,-0.926,-0.265,-0.671,0.854,0.854,204.788
103445,139809,19647,-0.121,-0.926,-0.265,-0.671,0.854,0.854,204.791
103445,139822,7781,-0.123,-0.925,-0.256,-0.549,0.915,1.037,204.798
103412,139809,19647,-0.123,-0.925,-0.256,-0.549,0.915,1.037,204.801
103412,139832,7785,-0.12,-0.924,-0.255,-0.305,0.854,0.915,204.807
103437,139809,19647,-0.12,-0.924,-0.255,-0.305,0.854,0.915,204.811
103437,139799,7781,-0.12,-0.921,-0.263,-0.427,0.854,0.915,204.817
103457,139809,19647,-0.12,-0.921,-0.263,-0.427,0.854,0.915,204.821
103457,139838,7778,-0.125,-0.92,-0.267,-0.549,0.732,0.793,204.827
103474,139809,19647,-0.125,-0.92,-0.267,-0.549,0.732,0.793,204.831
103474,139872,7781,-0.123,-0.917,-0.272,-0.183,0.793,0.488,204.837
103497,139809,19647,-0.123,-0.917,-0.272,-0.183,0.793,0.488,204.841
103497,139845,7779,-0.124,-0.918,-0.271,0.122,0.366,0.183,204.847
103505,139809,19647,-0.124,-0.918,-0.271,0.122,0.366,0.183,204.851
103505,139886,7795,-0.119,-0.923,-0.262,0.366,0.061,-0.183,204.857
103507,139809,19647,-0.119,-0.923,-0.262,0.366,0.061,-0.183,204.861
103507,139887,7781,-0.119,-0.925,-0.254,0.183,0,-0.366,204.867
103484,139809,19647,-0.119,-0.925,-0.254,0.183,0,-0.366,204.87
103484,139883,7792,-0.117,-0.936,-0.253,-0.427,0.061,-0.366,204.877
103478,139809,19647,-0.117,-0.936,-0.253,-0.427,0.061,-0.366,204.88
103478,139867,7789,-0.117,-0.935,-0.25,-0.671,0.183,0.122,204.887
103483,139809,19647,-0.118,-0.933,-0.264,-0.671,0.183,0.122,204.89
103483,139873,7766,-0.118,-0.933,-0.274,-1.22,0.427,0.366,204.896
103496,139809,19647,-0.119,-0.937,-0.265,-1.22,0.427,0.366,204.9
103496,139849,7769,-0.12,-0.933,-0.264,-0.549,0.366,0.488,204.906
103483,139809,19647,-0.117,-0.924,-0.272,-0.549,0.366,0.488,204.91
103483,139859,7784,-0.117,-0.92,-0.267,0.122,-0.061,0.549,204.916
103495,139809,19647,-0.114,-0.913,-0.271,0.122,-0.061,0.549,204.92
103495,139846,7770,-0.114,-0.916,-0.267,0.061,-0.183,0.305,204.926
103480,139809,19647,-0.115,-0.918,-0.26,0.061,-0.183,0.305,204.93
103480,139877,7777,-0.116,-0.918,-0.258,0.244,-0.244,0.183,204.936
103503,139809,19647,-0.114,-0.914,-0.257,0.244,-0.244,0.183,204.94
103503,139884,7793,-0.112,-0.92,-0.254,0.061,-0.244,-0.061,204.946
103514,139809,19647,-0.113,-0.924,-0.25,0.061,-0.244,-0.061,204.95
103514,139889,7785,-0.114,-0.926,-0.252,0.427,-0.061,-0.183,204.956
103517,139809,19647,-0.119,-0.926,-0.25,0.427,-0.061,-0.183,204.96
103517,139868,7771,-0.119,-0.921,-0.251,0.244,0.183,-0.122,204.966
103503,139809,19647,-0.114,-0.923,-0.258,0.244,0.183,-0.122,204.97
103503,139870,7784,-0.117,-0.93,-0.259,-0.183,0.488,-0.122,204.976
103513,139809,19647,-0.117,-0.935,-0.262,-0.183,0.488,-0.122,204.979
103513,139883,7786,-0.119,-0.933,-0.271,-0.244,0.61,0,204.986
103507,139809,19647,-0.117,-0.932,-0.272,-0.244,0.61,0,204.989
103507,139868,7790,-0.114,-0.936,-0.265,0.061,0.427,0.122,204.995
103483,139809,19647,-0.116,-0.933,-0.261,0.061,0.427,0.122,204.999
103483,139895,7780,-0.114,-0.932,-0.257,0.305,0.061,0.305,205.005
103489,139809,19647,-0.114,-0.928,-0.258,0.305,0.061,0.305,205.009
103489,139859,7786,-0.111,-0.925,-0.255,-0.183,0.061,0.549,205.015
103478,139809,19647,-0.112,-0.922,-0.253,-0.183,0.061,0.549,205.019
103478,139855,7792,-0.116,-0.92,-0.256,-0.427,0.122,0.671,205.025
103472,139809,19647,-0.116,-0.919,-0.255,-0.427,0.122,0.671,205.029
103472,139870,7783,-0.119,-0.92,-0.254,-0.427,0.366,0.671,205.035
103482,139809,19647,-0.119,-0.922,-0.246,-0.427,0.366,0.671,205.039
103482,139860,7779,-0.12,-0.923,-0.246,-0.549,0.671,0.549,205.045
103495,139809,19647,-0.115,-0.92,-0.257,-0.549,0.671,0.549,205.049
103495,139857,7779,-0.115,-0.919,-0.26,-1.098,0.976,0.549,205.055
103484,139809,19647,-0.12,-0.925,-0.261,-1.098,0.976,0.549,205.059
103484,139852,7771,-0.122,-0.934,-0.263,-1.159,1.341,0.61,205.065
103470,139809,19647,-0.119,-0.935,-0.259,-1.159,1.341,0.61,205.069
103470,139839,7788,-0.118,-0.932,-0.26,-0.671,1.22,0.671,205.075
103468,139809,19647,-0.114,-0.933,-0.261,-0.671,1.22,0.671,205.078
103468,139859,7785,-0.109,-0.932,-0.259,-0.366,0.915,0.61,205.085
103454,139809,19647,-0.114,-0.928,-0.263,-0.366,0.915,0.61,205.088
103454,139841,7787,-0.118,-0.927,-0.262,-0.061,0.976,0.976,205.094
103458,139809,19647,-0.117,-0.923,-0.262,-0.061,0.976,0.976,205.098
103458,139874,7780,-0.117,-0.919,-0.262,-0.305,0.976,1.037,205.104
103477,139809,19647,-0.116,-0.915,-0.264,-0.305,0.976,1.037,205.108
103477,139856,7758,-0.116,-0.921,-0.265,-0.854,0.976,0.854,205.114
103442,139809,19647,-0.119,-0.927,-0.264,-0.854,0.976,0.854,205.118
103442,139855,7770,-0.121,-0.925,-0.26,-1.037,1.037,0.915,205.124
103421,139809,19647,-0.12,-0.926,-0.257,-1.037,1.037,0.915,205.128
103421,139833,7785,-0.117,-0.929,-0.261,-1.585,0.976,0.854,205.134
103415,139809,19647,-0.116,-0.929,-0.259,-1.585,0.976,0.854,205.138
103415,139826,7786,-0.117,-0.931,-0.257,-1.829,1.098,1.037,205.144
103429,139809,19647,-0.119,-0.931,-0.258,-1.829,1.098,1.037,205.148
103429,139847,7785,-0.118,-0.933,-0.261,-1.585,1.341,1.22,205.154
103433,139809,19647,-0.122,-0.931,-0.266,-1.585,1.341,1.22,205.158
103433,139836,7774,-0.12,-0.925,-0.267,-0.915,1.341,1.28,205.164
103452,139809,19647,-0.119,-0.921,-0.265,-0.915,1.341,1.28,205.167
103452,139865,7774,-0.12,-0.917,-0.269,-0.366,1.341,1.098,205.174
103482,139809,19647,-0.119,-0.915,-0.272,-0.366,1.341,1.098,205.177
103482,139883,7797,-0.12,-0.914,-0.262,0.061,1.159,0.854,205.184
103509,139809,19647,-0.118,-0.915,-0.263,0.061,1.159,0.854,205.187
103509,139887,7767,-0.117,-0.914,-0.27,-0.183,0.915,0.61,205.193
103494,139809,19647,-0.118,-0.918,-0.267,-0.183,0.915,0.61,205.197
103494,139901,7768,-0.117,-0.929,-0.258,-0.854,0.854,0.427,205.203
103495,139809,19647,-0.116,-0.929,-0.26,-0.854,0.854,0.427,205.207
103495,139879,7766,-0.117,-0.93,-0.264,-1.28,0.671,0.549,205.213
103475,139809,19647,-0.117,-0.931,-0.267,-1.28,0.671,0.549,205.217
103475,139885,7806,-0.12,-0.935,-0.271,-1.524,0.793,0.732,205.223
103469,139809,19647,-0.121,-0.933,-0.268,-1.524,0.793,0.732,205.227
103469,139852,7795,-0.121,-0.926,-0.265,-0.732,0.671,0.976,205.233
103454,139809,19647,-0.121,-0.922,-0.268,-0.732,0.671,0.976,205.237
103454,139849,7786,-0.121,-0.916,-0.268,-0.122,0.61,0.915,205.243
103453,139809,19647,-0.117,-0.915,-0.271,-0.122,0.61,0.915,205.247
103453,139860,7795,-0.12,-0.915,-0.275,0,0.488,0.61,205.253
103483,139809,19647,-0.12,-0.92,-0.266,0,0.488,0.61,205.257
103483,139869,7773,-0.125,-0.921,-0.252,0,0.183,0.305,205.263
103484,139809,19647,-0.122,-0.917,-0.253,0,0.183,0.305,205.267
103484,139890,7793,-0.116,-0.915,-0.258,-0.61,-0.061,0.244,205.273
103492,139809,19647,-0.116,-0.921,-0.252,-0.61,-0.061,0.244,205.276
103492,139894,7784,-0.118,-0.924,-0.251,-1.585,0.427,0.305,205.283
103503,139809,19647,-0.121,-0.929,-0.257,-1.585,0.427,0.305,205.286
103503,139870,7773,-0.126,-0.932,-0.262,-2.134,0.793,0.488,205.292
103481,139809,19647,-0.123,-0.934,-0.264,-2.134,0.793,0.488,205.296
103481,139856,7777,-0.122,-0.932,-0.27,-1.646,0.854,0.488,205.302
103447,139809,19647,-0.119,-0.932,-0.274,-1.646,0.854,0.488,205.306
103447,139874,7800,-0.119,-0.933,-0.268,-0.976,0.61,0.61,205.312
103474,139809,19647,-0.122,-0.928,-0.273,-0.976,0.61,0.61,205.316
103474,139868,7783,-0.122,-0.926,-0.268,-0.305,0.427,0.793,205.322
103464,139809,19647,-0.122,-0.926,-0.268,-0.305,0.427,0.793,205.326
103464,139857,7793,-0.12,-0.915,-0.285,-0.122,0.366,0.61,205.332
103454,139809,19647,-0.12,-0.915,-0.285,-0.122,0.366,0.61,205.336
103454,139893,7800,-0.118,-0.923,-0.248,0.671,0.183,0.244,205.342
103466,139809,19647,-0.118,-0.923,-0.248,0.671,0.183,0.244,205.346
103466,139862,7772,-0.11,-0.916,-0.25,-0.183,0.122,0.183,205.352
103448,139809,19647,-0.11,-0.916,-0.25,-0.183,0.122,0.183,205.356
103448,139858,7778,-0.116,-0.919,-0.255,-0.915,0.427,0.183,205.362
103428,139809,19647,-0.116,-0.919,-0.255,-0.915,0.427,0.183,205.365
103428,139850,7790,-0.116,-0.93,-0.264,-1.951,1.037,0.366,205.372
103421,139809,19647,-0.116,-0.93,-0.264,-1.951,1.037,0.366,205.375
103421,139840,7796,-0.119,-0.927,-0.272,-1.951,1.159,0.427,205.382
103421,139809,19647,-0.119,-0.927,-0.272,-1.951,1.159,0.427,205.385
103421,139848,7791,-0.113,-0.939,-0.267,-1.341,0.976,0.549,205.391
103432,139809,19647,-0.113,-0.939,-0.267,-1.341,0.976,0.549,205.395
103432,139843,7788,-0.119,-0.921,-0.277,-0.366,0.671,0.793,205.401
103400,139809,19647,-0.119,-0.921,-0.277,-0.366,0.671,0.793,205.405
103400,139838,7799,-0.12,-0.918,-0.268,0,0.671,0.793,205.411
103423,139809,19647,-0.12,-0.918,-0.268,0,0.671,0.793,205.415
103423,139852,7787,-0.119,-0.92,-0.254,0.183,0.549,0.61,205.421
103408,139809,19647,-0.119,-0.92,-0.254,0.183,0.549,0.61,205.425
103408,139820,7796,-0.117,-0.916,-0.255,-0.183,0.488,0.427,205.431
103392,139809,19647,-0.117,-0.916,-0.255,-0.183,0.488,0.427,205.435
103392,139837,7793,-0.119,-0.926,-0.251,-0.732,0.671,0.488,205.441
103407,139809,19647,-0.119,-0.926,-0.251,-0.732,0.671,0.488,205.445
103407,139854,7787,-0.12,-0.934,-0.264,-1.463,0.976,0.549,205.451
103401,139809,19647,-0.12,-0.934,-0.264,-1.463,0.976,0.549,205.455
103401,139846,7774,-0.12,-0.933,-0.274,-1.402,1.159,0.61,205.461
103384,139809,19647,-0.12,-0.933,-0.274,-1.402,1.159,0.61,205.465
103384,139835,7788,-0.12,-0.929,-0.275,-1.402,1.159,0.61,205.471
103403,139809,19647,-0.122,-0.93,-0.275,-0.976,1.22,0.915,205.474
103403,139861,7787,-0.121,-0.929,-0.279,-0.976,1.22,0.915,205.481
103398,139809,19647,-0.119,-0.923,-0.272,-0.366,0.915,1.037,205.484
103398,139842,7784,-0.115,-0.923,-0.269,-0.366,0.915,1.037,205.49
103399,139809,19647,-0.116,-0.92,-0.269,0,0.671,0.976,205.494
103399,139846,7794,-0.119,-0.914,-0.266,0,0.671,0.976,205.5
103416,139809,19647,-0.115,-0.913,-0.265,-0.549,0.488,1.098,205.504
103416,139872,7785,-0.115,-0.909,-0.275,-0.549,0.488,1.098,205.51
103423,139809,19647,-0.118,-0.911,-0.269,-1.341,0.488,1.037,205.514
103423,139852,7778,-0.123,-0.919,-0.266,-1.341,0.488,1.037,205.52
103437,139809,19647,-0.124,-0.921,-0.266,-1.22,0.793,0.854,205.524
103437,139879,7797,-0.125,-0.922,-0.266,-1.22,0.793,0.854,205.53
103410,139809,19647,-0.125,-0.92,-0.267,-0.793,0.61,0.488,205.534
103410,139853,7786,-0.121,-0.918,-0.272,-0.793,0.61,0.488,205.54
103376,139809,19647,-0.116,-0.922,-0.269,-0.915,0.61,0.366,205.544
103376,139869,7780,-0.119,-0.926,-0.264,-0.915,0.61,0.366,205.55
103381,139809,19647,-0.122,-0.93,-0.267,-1.037,0.732,0.488,205.554
103381,139842,7789,-0.118,-0.93,-0.267,-1.037,0.732,0.488,205.56
103381,139809,19647,-0.121,-0.926,-0.267,-0.671,0.549,0.488,205.563
103381,139882,7772,-0.122,-0.926,-0.27,-0.671,0.549,0.488,205.57
103383,139809,19647,-0.12,-0.924,-0.265,-0.061,0.305,0.549,205.573
103383,139866,7787,-0.119,-0.92,-0.262,-0.061,0.305,0.549,205.58
103415,139809,19647,-0.119,-0.918,-0.262,0.061,0.366,0.549,205.583
103415,139865,7786,-0.12,-0.919,-0.259,0.061,0.366,0.549,205.59
103428,139809,19647,-0.119,-0.92,-0.259,-0.122,0.488,0.488,205.593
103428,139870,7790,-0.124,-0.918,-0.272,-0.122,0.488,0.488,205.599
103440,139809,19647,-0.123,-0.922,-0.269,-0.305,0.488,0.366,205.603
103440,139884,7798,-0.122,-0.921,-0.26,-0.305,0.488,0.366,205.609
103427,139809,19647,-0.119,-0.921,-0.264,-0.427,0.366,0.305,205.613
103427,139854,7783,-0.118,-0.924,-0.271,-0.427,0.366,0.305,205.619
103377,139809,19647,-0.117,-0.93,-0.27,-1.28,0.427,0.183,205.623
103377,139857,7793,-0.12,-0.938,-0.269,-1.28,0.427,0.183,205.629
103392,139809,19647,-0.12,-0.942,-0.267,-1.037,0.549,0.671,205.633
103392,139881,7789,-0.12,-0.933,-0.265,-1.037,0.549,0.671,205.639
103399,139809,19647,-0.119,-0.924,-0.269,-0.671,0.427,0.976,205.643
103399,139862,7781,-0.12,-0.925,-0.269,-0.671,0.427,0.976,205.649
103400,139809,19647,-0.117,-0.925,-0.266,0,0.488,0.793,205.653
103400,139877,7794,-0.115,-0.917,-0.263,0,0.488,0.793,205.659
103411,139809,19647,-0.115,-0.911,-0.268,0.366,0.671,0.915,205.663
103411,139888,7795,-0.119,-0.907,-0.271,0.366,0.671,0.915,205.669
103413,139809,19647,-0.123,-0.911,-0.272,0.061,0.61,0.671,205.672
103413,139845,7795,-0.121,-0.916,-0.273,0.061,0.61,0.671,205.679
103388,139809,19647,-0.12,-0.915,-0.271,0.061,0.61,0.488,205.682
103388,139868,7800,-0.118,-0.918,-0.268,0.061,0.61,0.488,205.688
103375,139809,19647,-0.115,-0.922,-0.265,-0.366,0.366,0.183,205.692
103375,139847,7790,-0.113,-0.927,-0.265,-0.366,0.366,0.183,205.698
103377,139809,19647,-0.116,-0.931,-0.262,-1.159,0.366,0.122,205.702
103377,139846,7783,-0.117,-0.937,-0.264,-1.159,0.366,0.122,205.708
103374,139809,19647,-0.12,-0.935,-0.264,-1.098,0.732,0.549,205.712
103374,139827,7768,-0.124,-0.931,-0.269,-1.098,0.732,0.549,205.718
103363,139809,19647,-0.124,-0.929,-0.263,-0.488,0.793,0.976,205.722
103363,139809,7796,-0.122,-0.924,-0.265,-0.488,0.793,0.976,205.728
103371,139809,19647,-0.121,-0.922,-0.264,-0.061,0.671,0.976,205.732
103371,139821,7790,-0.119,-0.923,-0.266,-0.061,0.671,0.976,205.738
103359,139809,19647,-0.119,-0.918,-0.271,-0.305,0.671,0.976,205.742
103359,139823,7783,-0.12,-0.915,-0.273,-0.305,0.671,0.976,205.748
103355,139809,19647,-0.124,-0.923,-0.268,-0.549,0.854,0.976,205.752
103355,139833,7789,-0.121,-0.922,-0.261,-0.549,0.854,0.976,205.758
103363,139809,19647,-0.121,-0.92,-0.262,-0.427,0.793,0.732,205.762
103363,139830,7785,-0.119,-0.921,-0.266,-0.427,0.793,0.732,205.768
103377,139809,19647,-0.12,-0.922,-0.267,-0.61,0.732,0.488,205.771
103377,139814,7754,-0.124,-0.923,-0.271,-0.61,0.732,0.488,205.778
103356,139809,19647,-0.122,-0.928,-0.267,-0.305,0.732,0.427,205.781
103356,139821,7782,-0.117,-0.927,-0.261,-0.305,0.732,0.427,205.788
103361,139809,19647,-0.116,-0.921,-0.274,-0.305,0.671,0.427,205.791
103361,139834,7792,-0.115,-0.919,-0.273,-0.305,0.671,0.427,205.797
103370,139809,19647,-0.116,-0.928,-0.275,-0.549,0.671,0.549,205.801
103370,139825,7786,-0.118,-0.93,-0.27,-0.549,0.671,0.549,205.807
103360,139809,19647,-0.118,-0.925,-0.273,-0.549,0.61,0.549,205.811
103360,139825,7779,-0.119,-0.926,-0.276,-0.549,0.61,0.549,205.817
103358,139809,19647,-0.12,-0.926,-0.275,-0.366,0.366,0.549,205.821
103358,139843,7788,-0.12,-0.924,-0.273,-0.366,0.366,0.549,205.827
103354,139809,19647,-0.118,-0.923,-0.264,0.061,0.244,0.488,205.831
103354,139837,7774,-0.119,-0.92,-0.261,0.061,0.244,0.488,205.837
103341,139809,19647,-0.121,-0.914,-0.266,0,0.122,0.488,205.841
103341,139816,7768,-0.12,-0.914,-0.267,0,0.122,0.488,205.847
103333,139809,19647,-0.121,-0.919,-0.264,-0.061,0.305,0.549,205.851
103333,139840,7762,-0.121,-0.921,-0.257,-0.061,0.305,0.549,205.857
103344,139809,19647,-0.119,-0.918,-0.265,-0.183,0.488,0.366,205.861
103344,139838,7764,-0.119,-0.919,-0.272,-0.183,0.488,0.366,205.867
103338,139809,19647,-0.123,-0.919,-0.271,-0.488,0.61,0.244,205.87
103338,139830,7786,-0.125,-0.921,-0.276,-0.488,0.61,0.244,205.877
103339,139809,19647,-0.124,-0.923,-0.271,-0.366,0.427,0.305,205.88
103339,139816,7779,-0.121,-0.926,-0.264,-0.366,0.427,0.305,205.886
103317,139809,19647,-0.121,-0.93,-0.267,-0.305,0.305,0.244,205.89
103317,139818,7786,-0.123,-0.93,-0.263,-0.305,0.305,0.244,205.896
103320,139809,19647,-0.121,-0.928,-0.265,0,0.366,0.366,205.9
103320,139801,7760,-0.122,-0.926,-0.265,0,0.366,0.366,205.906
103309,139809,19647,-0.122,-0.923,-0.268,0.183,0.305,0.366,205.91
103309,139799,7772,-0.119,-0.92,-0.27,0.183,0.305,0.366,205.916
103311,139809,19647,-0.119,-0.92,-0.27,0.183,0.305,0.366,205.92
103311,139804,7786,-0.12,-0.923,-0.266,0.061,0.366,0.305,205.926
103313,139809,19647,-0.12,-0.923,-0.266,0.061,0.366,0.305,205.93
103313,139802,7775,-0.117,-0.922,-0.268,0.122,0.366,0.183,205.936
103320,139809,19647,-0.117,-0.922,-0.268,0.122,0.366,0.183,205.94
103320,139787,7784,-0.122,-0.924,-0.266,-0.427,0.305,0.244,205.946
103315,139809,19647,-0.122,-0.924,-0.266,-0.427,0.305,0.244,205.95
103315,139821,7784,-0.121,-0.92,-0.272,-0.549,0.305,0.427,205.956
103310,139809,19647,-0.121,-0.92,-0.272,-0.549,0.305,0.427,205.96
103310,139787,7768,-0.121,-0.924,-0.271,-0.671,0.305,0.366,205.966
103291,139809,19647,-0.121,-0.924,-0.271,-0.671,0.305,0.366,205.969
103291,139779,7767,-0.123,-0.925,-0.27,-0.122,0.244,0.305,205.976
103276,139809,19647,-0.123,-0.925,-0.27,-0.122,0.244,0.305,205.979
103276,139783,7771,-0.119,-0.914,-0.269,0.244,0,0.366,205.986
103242,139553,19647,-0.119,-0.914,-0.269,0.244,0,0.366,205.989
103242,139743,7758,-0.119,-0.922,-0.263,0.061,-0.183,0.183,205.995
103245,139553,19647,-0.119,-0.922,-0.263,0.061,-0.183,0.183,205.999
103245,139749,7781,-0.123,-0.921,-0.254,0.244,0.122,0.244,206.005
103259,139553,19647,-0.123,-0.921,-0.254,0.244,0.122,0.244,206.009
103259,139768,7780,-0.118,-0.919,-0.262,0.183,0.305,0.122,206.015
103269,139553,19647,-0.118,-0.919,-0.262,0.183,0.305,0.122,206.019
103269,139767,7774,-0.12,-0.927,-0.273,-0.671,0.366,0.061,206.025
103266,139553,19647,-0.12,-0.927,-0.273,-0.671,0.366,0.061,206.029
103266,139767,7792,-0.123,-0.932,-0.276,-0.732,0.671,0.366,206.035
103270,139553,19647,-0.123,-0.932,-0.276,-0.732,0.671,0.366,206.039
103270,139773,7794,-0.124,-0.926,-0.271,0.183,0.61,0.244,206.045
103266,139553,19647,-0.124,-0.926,-0.271,0.183,0.61,0.244,206.049
103266,139764,7763,-0.115,-0.92,-0.275,1.098,0.122,0,206.055
103275,139553,19647,-0.115,-0.92,-0.275,1.098,0.122,0,206.059
103275,139766,7774,-0.12,-0.924,-0.276,0.793,-0.061,0.183,206.065
103269,139553,19647,-0.119,-0.925,-0.271,0.793,-0.061,0.183,206.068
103269,139771,7760,-0.119,-0.918,-0.266,0.305,-0.061,0.305,206.075
103264,139809,19647,-0.118,-0.922,-0.258,0.305,-0.061,0.305,206.078
103264,139785,7769,-0.116,-0.925,-0.257,0.122,-0.122,0.183,206.084
103261,139809,19647,-0.115,-0.923,-0.252,0.122,-0.122,0.183,206.088
103261,139783,7780,-0.118,-0.921,-0.256,-0.427,0,0.366,206.094
103293,139809,19647,-0.119,-0.926,-0.265,-0.427,0,0.366,206.098
103293,139776,7772,-0.12,-0.928,-0.268,-1.098,0.488,0.549,206.104
103260,139553,19647,-0.126,-0.93,-0.26,-1.098,0.488,0.549,206.108
103260,139749,7766,-0.123,-0.926,-0.256,-0.671,0.61,0.793,206.114
103245,139809,19647,-0.12,-0.921,-0.262,-0.671,0.61,0.793,206.118
103245,139778,7769,-0.116,-0.922,-0.27,-0.61,0.549,0.488,206.124
103260,139553,19647,-0.117,-0.926,-0.271,-0.61,0.549,0.488,206.128
103260,139769,7768,-0.121,-0.925,-0.27,-0.305,0.915,0.61,206.134
103248,139553,19647,-0.121,-0.92,-0.278,-0.305,0.915,0.61,206.138
103248,139759,7778,-0.121,-0.913,-0.275,0.122,0.671,0.488,206.144
103271,139809,19647,-0.119,-0.915,-0.278,0.122,0.671,0.488,206.148
103271,139777,7779,-0.118,-0.917,-0.272,0.732,0.061,-0.061,206.154
103263,139553,19647,-0.118,-0.92,-0.273,0.732,0.061,-0.061,206.158
103263,139773,7770,-0.118,-0.923,-0.268,1.098,-0.061,-0.244,206.164
103251,139809,19647,-0.117,-0.923,-0.257,1.098,-0.061,-0.244,206.167
103251,139787,7771,-0.119,-0.919,-0.256,0.915,0,-0.305,206.174
103259,139553,19647,-0.116,-0.917,-0.263,0.915,0,-0.305,206.177
103259,139775,7773,-0.114,-0.926,-0.263,-0.122,0.244,-0.122,206.184
103251,139809,19647,-0.118,-0.938,-0.267,-0.122,0.244,-0.122,206.187
103251,139780,7778,-0.124,-0.939,-0.268,-0.427,0.671,0.122,206.193
103273,139553,19647,-0.125,-0.938,-0.263,-0.427,0.671,0.122,206.197
103273,139755,7771,-0.126,-0.934,-0.261,0.366,0.671,0.244,206.203
103266,139553,19647,-0.123,-0.925,-0.256,0.366,0.671,0.244,206.207
103266,139769,7776,-0.117,-0.913,-0.267,0.61,0.305,0.427,206.213
103282,139809,19647,-0.117,-0.914,-0.281,0.61,0.305,0.427,206.217
103282,139779,7774,-0.122,-0.924,-0.275,-0.244,0.549,0.549,206.223
103268,139809,19647,-0.12,-0.926,-0.268,-0.244,0.549,0.549,206.227
103268,139782,7772,-0.124,-0.922,-0.273,-0.183,0.61,0.549,206.233
103310,139809,19647,-0.116,-0.918,-0.275,-0.183,0.61,0.549,206.237
103310,139783,7766,-0.112,-0.921,-0.269,-0.061,0.061,0.122,206.243
103285,139809,19647,-0.116,-0.917,-0.272,-0.061,0.061,0.122,206.247
103285,139785,7764,-0.119,-0.918,-0.267,-0.183,0.061,0.183,206.253
103274,139809,19647,-0.123,-0.918,-0.268,-0.183,0.061,0.183,206.257
103274,139791,7774,-0.124,-0.917,-0.271,-0.61,0.244,0.183,206.263
103263,139809,19647,-0.126,-0.926,-0.265,-0.61,0.244,0.183,206.266
103263,139798,7767,-0.123,-0.929,-0.258,-0.366,0.122,0.061,206.273
103256,139809,19647,-0.12,-0.926,-0.261,-0.366,0.122,0.061,206.276
103256,139777,7768,-0.119,-0.926,-0.267,-0.183,-0.061,0.061,206.283
103259,139553,19647,-0.122,-0.923,-0.266,-0.183,-0.061,0.061,206.286
103259,139775,7761,-0.125,-0.926,-0.264,0,0,0.183,206.292
103289,139553,19647,-0.125,-0.927,-0.264,0,0,0.183,206.296
103289,139754,7779,-0.124,-0.931,-0.264,0.183,0.061,0.061,206.302
103276,139809,19647,-0.121,-0.928,-0.265,0.183,0.061,0.061,206.306
103276,139786,7785,-0.123,-0.925,-0.266,0.366,0.061,0,206.312
103290,139809,19647,-0.121,-0.917,-0.271,0.366,0.061,0,206.316
103290,139781,7774,-0.12,-0.913,-0.275,0.671,0,-0.183,206.322
103288,139809,19647,-0.123,-0.918,-0.271,0.671,0,-0.183,206.326
103288,139786,7768,-0.123,-0.923,-0.265,1.159,-0.183,-0.244,206.332
103279,139809,19647,-0.117,-0.925,-0.259,1.159,-0.183,-0.244,206.336
103279,139813,7783,-0.113,-0.923,-0.263,0.915,-0.305,-0.427,206.342
103274,139809,19647,-0.113,-0.921,-0.269,0.915,-0.305,-0.427,206.346
103274,139815,7791,-0.115,-0.924,-0.273,-0.122,-0.183,-0.244,206.352
103275,139809,19647,-0.118,-0.928,-0.266,-0.122,-0.183,-0.244,206.356
103275,139801,7773,-0.12,-0.927,-0.267,-0.305,0.244,0.122,206.362
103273,139809,19647,-0.12,-0.924,-0.273,-0.305,0.244,0.122,206.365
103273,139798,7762,-0.122,-0.931,-0.272,-0.122,0.061,0,206.372
103293,139809,19647,-0.119,-0.93,-0.26,-0.122,0.061,0,206.375
103293,139803,7778,-0.117,-0.922,-0.264,0.244,-0.244,0,206.382
103305,139809,19647,-0.119,-0.923,-0.268,0.244,-0.244,0,206.385
103305,139816,7781,-0.122,-0.926,-0.269,0.122,-0.061,0.122,206.391
103303,139809,19647,-0.123,-0.919,-0.266,0.122,-0.061,0.122,206.395
103303,139822,7768,-0.121,-0.917,-0.27,0.305,0.061,0.183,206.401
103311,139809,19647,-0.119,-0.915,-0.268,0.305,0.061,0.183,206.405
103311,139826,7768,-0.118,-0.918,-0.271,0.427,0,-0.122,206.411
103316,139809,19647,-0.116,-0.92,-0.269,0.427,0,-0.122,206.415
103316,139802,7760,-0.116,-0.923,-0.267,0.427,-0.122,-0.366,206.421
103298,139809,19647,-0.115,-0.927,-0.265,0.427,-0.122,-0.366,206.425
103298,139798,7788,-0.115,-0.93,-0.25,0.488,-0.244,-0.305,206.431
103280,139809,19647,-0.116,-0.934,-0.245,0.488,-0.244,-0.305,206.435
103280,139808,7781,-0.117,-0.93,-0.25,0.671,-0.183,-0.183,206.441
103257,139553,19647,-0.112,-0.919,-0.262,0.671,-0.183,-0.183,206.445
103257,139764,7772,-0.113,-0.926,-0.262,-0.061,0.061,0.061,206.451
103262,139809,19647,-0.115,-0.93,-0.253,-0.061,0.061,0.061,206.455
103262,139781,7786,-0.12,-0.928,-0.257,0.183,0.549,0.183,206.461
103250,139553,19647,-0.118,-0.928,-0.266,0.183,0.549,0.183,206.464
103250,139767,7779,-0.115,-0.926,-0.267,0.122,0.488,0.244,206.471
103266,139809,19647,-0.114,-0.922,-0.273,0.122,0.488,0.244,206.474
103266,139791,7789,-0.114,-0.924,-0.276,0.122,0.244,0.183,206.481
103277,139809,19647,-0.117,-0.927,-0.276,0.122,0.244,0.183,206.484
103277,139797,7768,-0.119,-0.924,-0.273,0.244,0.244,0.305,206.49
103306,139809,19647,-0.118,-0.924,-0.276,0.244,0.244,0.305,206.494
103306,139812,7786,-0.119,-0.923,-0.277,0.244,0.183,0.122,206.5
103297,139809,19647,-0.115,-0.922,-0.271,0.244,0.183,0.122,206.504
103297,139813,7785,-0.114,-0.92,-0.266,0.61,-0.122,-0.061,206.51
103310,139809,19647,-0.114,-0.92,-0.266,0.61,-0.122,-0.061,206.514
103310,139824,7784,-0.119,-0.919,-0.252,0.671,-0.061,0,206.52
103293,139809,19647,-0.119,-0.919,-0.252,0.671,-0.061,0,206.524
103293,139845,7777,-0.117,-0.926,-0.254,0.183,0.061,0.122,206.53
103301,139809,19647,-0.117,-0.926,-0.254,0.183,0.061,0.122,206.534
103301,139804,7774,-0.117,-0.923,-0.252,-0.183,0.244,0.183,206.54
103270,139809,19647,-0.117,-0.923,-0.252,-0.183,0.244,0.183,206.544
103270,139805,7790,-0.122,-0.933,-0.253,-0.61,0.671,0.305,206.55
103286,139809,19647,-0.122,-0.933,-0.253,-0.61,0.671,0.305,206.554
103286,139813,7783,-0.119,-0.93,-0.273,-0.732,0.854,0.549,206.56
103280,139553,19647,-0.119,-0.93,-0.273,-0.732,0.854,0.549,206.563
103280,139769,7773,-0.123,-0.932,-0.264,0.061,0.732,0.549,206.57
103237,139809,19647,-0.123,-0.932,-0.264,0.061,0.732,0.549,206.573
103237,139808,7780,-0.117,-0.915,-0.276,0.427,0.549,0.61,206.58
103263,139809,19647,-0.117,-0.915,-0.276,0.427,0.549,0.61,206.583
103263,139785,7778,-0.12,-0.921,-0.274,0.427,0.549,0.427,206.589
103275,139553,19647,-0.12,-0.921,-0.274,0.427,0.549,0.427,206.593
103275,139766,7779,-0.117,-0.919,-0.266,0.915,0.305,0.305,206.599
103254,139809,19647,-0.117,-0.919,-0.266,0.915,0.305,0.305,206.603
103254,139784,7791,-0.113,-0.91,-0.265,0.854,0.061,0,206.609
103238,139809,19647,-0.113,-0.91,-0.265,0.854,0.061,0,206.613
103238,139802,7777,-0.119,-0.922,-0.25,0.366,0.122,-0.244,206.619
103275,139553,19647,-0.119,-0.922,-0.25,0.366,0.122,-0.244,206.623
103275,139757,7773,-0.119,-0.924,-0.248,-0.366,0.366,-0.061,206.629
103237,139553,19647,-0.119,-0.924,-0.248,-0.366,0.366,-0.061,206.633
103237,139774,7783,-0.118,-0.927,-0.263,-1.524,0.732,0.122,206.639
103243,139809,19647,-0.118,-0.927,-0.263,-1.524,0.732,0.122,206.643
103243,139779,7794,-0.126,-0.937,-0.269,-1.159,1.037,0.366,206.649
103246,139553,19647,-0.126,-0.937,-0.269,-1.159,1.037,0.366,206.653
103246,139775,7776,-0.126,-0.937,-0.269,-1.159,1.037,0.366,206.659
103257,139809,19647,-0.121,-0.933,-0.27,-0.366,0.854,0.427,206.662
103257,139793,7789,-0.12,-0.925,-0.276,-0.366,0.854,0.427,206.669
103270,139809,19647,-0.114,-0.924,-0.277,0.183,0.427,0.427,206.672
103270,139793,7790,-0.119,-0.923,-0.274,0.183,0.427,0.427,206.679
103267,139809,19647,-0.118,-0.922,-0.273,0.671,0.183,0.61,206.682
103267,139789,7758,-0.117,-0.917,-0.269,0.671,0.183,0.61,206.688
103288,139809,19647,-0.115,-0.916,-0.267,0.488,-0.061,0.366,206.692
103288,139790,7766,-0.115,-0.918,-0.266,0.488,-0.061,0.366,206.698
103268,139809,19647,-0.114,-0.919,-0.258,0.549,-0.122,0,206.702
103268,139779,7780,-0.114,-0.919,-0.25,0.549,-0.122,0,206.708
103261,139809,19647,-0.117,-0.918,-0.241,0.244,-0.061,-0.061,206.712
103261,139776,7782,-0.116,-0.917,-0.244,0.244,-0.061,-0.061,206.718
103253,139809,19647,-0.114,-0.918,-0.261,-0.854,0.244,-0.061,206.722
103253,139778,7765,-0.114,-0.925,-0.264,-0.854,0.244,-0.061,206.728
103281,139809,19647,-0.123,-0.932,-0.258,-1.341,0.671,0.122,206.732
103281,139800,7790,-0.125,-0.936,-0.262,-1.341,0.671,0.122,206.738
103268,139809,19647,-0.122,-0.933,-0.264,-0.488,0.793,0.183,206.742
103268,139782,7784,-0.119,-0.928,-0.266,-0.488,0.793,0.183,206.748
103275,139809,19647,-0.116,-0.93,-0.273,-0.122,0.549,0.122,206.752
103275,139801,7789,-0.116,-0.931,-0.272,-0.122,0.549,0.122,206.758
103304,139809,19647,-0.117,-0.929,-0.271,0.183,0.488,0.244,206.761
103304,139811,7762,-0.123,-0.924,-0.271,0.183,0.488,0.244,206.768
103301,139809,19647,-0.122,-0.917,-0.267,0.366,0.183,0.244,206.771
103301,139817,7787,-0.117,-0.919,-0.269,0.366,0.183,0.244,206.778
103285,139809,19647,-0.113,-0.922,-0.266,0.366,-0.122,0.061,206.781
103285,139819,7783,-0.111,-0.923,-0.258,0.366,-0.122,0.061,206.787
103274,139809,19647,-0.117,-0.925,-0.252,0.305,-0.183,0.244,206.791
103274,139786,7768,-0.118,-0.926,-0.249,0.305,-0.183,0.244,206.797
103262,139809,19647,-0.113,-0.922,-0.253,-0.305,0.061,0.366,206.801
103262,139786,7774,-0.115,-0.917,-0.263,-0.305,0.061,0.366,206.807
103272,139809,19647,-0.12,-0.922,-0.263,-1.037,0.366,0.488,206.811
103272,139789,7784,-0.121,-0.931,-0.259,-1.037,0.366,0.488,206.817
103278,139809,19647,-0.121,-0.931,-0.266,-0.793,0.671,0.671,206.821
103278,139783,7779,-0.121,-0.923,-0.268,-0.793,0.671,0.671,206.827
103256,139809,19647,-0.117,-0.92,-0.27,-0.488,0.549,0.366,206.831
103256,139780,7797,-0.118,-0.921,-0.274,-0.488,0.549,0.366,206.837
103302,139809,19647,-0.118,-0.917,-0.274,0.183,0.488,0.122,206.841
103302,139802,7772,-0.121,-0.916,-0.274,0.183,0.488,0.122,206.847
103299,139809,19647,-0.118,-0.918,-0.275,0.549,0.305,0,206.851
103299,139788,7782,-0.12,-0.922,-0.273,0.549,0.305,0,206.857
103294,139809,19647,-0.117,-0.922,-0.269,0.61,0,-0.244,206.86
103294,139818,7785,-0.114,-0.924,-0.267,0.61,0,-0.244,206.867
103296,139809,19647,-0.117,-0.928,-0.262,0.427,-0.061,-0.244,206.87
103296,139787,7777,-0.115,-0.932,-0.251,0.427,-0.061,-0.244,206.877
103269,139809,19647,-0.117,-0.931,-0.248,0.427,0,-0.122,206.88
103269,139776,7793,-0.115,-0.931,-0.246,0.427,0,-0.122,206.886
103257,139809,19647,-0.112,-0.926,-0.253,-0.183,0.122,0.122,206.89
103257,139788,7781,-0.114,-0.917,-0.26,-0.183,0.122,0.122,206.896
103263,139553,19647,-0.12,-0.924,-0.263,-0.854,0.61,0.488,206.9
103263,139773,7782,-0.12,-0.93,-0.259,-0.854,0.61,0.488,206.906
103253,139553,19647,-0.123,-0.93,-0.263,-1.098,0.976,0.671,206.91
103253,139768,7794,-0.122,-0.927,-0.265,-1.098,0.976,0.671,206.916
103297,139809,19647,-0.117,-0.927,-0.265,-0.854,0.671,0.488,206.92
103297,139826,7779,-0.115,-0.925,-0.265,-0.854,0.671,0.488,206.926
103276,139809,19647,-0.115,-0.922,-0.27,-0.305,0.427,0.549,206.93
103276,139812,7795,-0.118,-0.922,-0.276,-0.305,0.427,0.549,206.936
103313,139809,19647,-0.12,-0.926,-0.274,-0.122,0.427,0.61,206.94
103313,139839,7797,-0.116,-0.928,-0.275,-0.122,0.427,0.61,206.946
103316,139809,19647,-0.115,-0.924,-0.268,0,0.366,0.366,206.95
103316,139821,7800,-0.114,-0.921,-0.263,0,0.366,0.366,206.956
103306,139809,19647,-0.115,-0.917,-0.27,0.305,0.061,0.305,206.959
103306,139863,7780,-0.115,-0.917,-0.269,0.305,0.061,0.305,206.966
103340,139809,19647,-0.115,-0.92,-0.261,0.244,0,0.244,206.969
103340,139856,7788,-0.119,-0.922,-0.253,0.244,0,0.244,206.976
103294,139809,19647,-0.119,-0.922,-0.244,0.305,0.183,0.244,206.979
103294,139826,7792,-0.116,-0.921,-0.245,0.305,0.183,0.244,206.985
103286,139809,19647,-0.114,-0.921,-0.26,-0.244,0.427,0.122,206.989
103286,139824,7780,-0.114,-0.929,-0.26,-0.244,0.427,0.122,206.995
103319,139809,19647,-0.119,-0.931,-0.263,-0.732,0.793,0.244,206.999
103319,139833,7794,-0.12,-0.927,-0.269,-0.732,0.793,0.244,207.005
103319,139809,19647,-0.123,-0.931,-0.266,-0.488,0.915,0.488,207.009
103319,139850,7795,-0.124,-0.924,-0.263,-0.488,0.915,0.488,207.015
103315,139809,19647,-0.116,-0.917,-0.266,-0.183,0.61,0.305,207.019
103315,139835,7786,-0.112,-0.924,-0.264,-0.183,0.61,0.305,207.025
103335,139809,19647,-0.114,-0.927,-0.267,-0.427,0.427,0.244,207.029
103335,139844,7789,-0.118,-0.926,-0.275,-0.427,0.427,0.244,207.035
103320,139809,19647,-0.122,-0.93,-0.276,-0.793,0.61,0.61,207.039
103320,139844,7784,-0.124,-0.932,-0.262,-0.793,0.61,0.61,207.045
103330,139809,19647,-0.119,-0.93,-0.259,-0.366,0.366,0.488,207.049
103330,139856,7784,-0.116,-0.923,-0.257,-0.366,0.366,0.488,207.055
103302,139809,19647,-0.112,-0.919,-0.257,-0.366,0.061,0.549,207.058
103302,139848,7793,-0.117,-0.921,-0.262,-0.366,0.061,0.549,207.065
103308,139809,19647,-0.119,-0.924,-0.258,-0.488,0.61,0.671,207.068
103308,139836,7796,-0.121,-0.926,-0.262,-0.488,0.61,0.671,207.075
103315,139809,19647,-0.12,-0.924,-0.267,-0.183,0.915,0.793,207.078
103315,139821,7790,-0.122,-0.926,-0.263,-0.183,0.915,0.793,207.084
103304,139809,19647,-0.118,-0.924,-0.261,0.244,0.793,0.427,207.088
103304,139823,7791,-0.117,-0.916,-0.266,0.244,0.793,0.427,207.094
103310,139809,19647,-0.117,-0.916,-0.266,0.244,0.793,0.427,207.098
103310,139863,7805,-0.12,-0.921,-0.276,0.305,0.671,0.183,207.104
103315,139809,19647,-0.12,-0.921,-0.276,0.305,0.671,0.183,207.108
103315,139857,7791,-0.118,-0.924,-0.272,0.305,0.671,0.061,207.114
103320,139809,19647,-0.118,-0.924,-0.272,0.305,0.671,0.061,207.118
103320,139852,7790,-0.11,-0.925,-0.261,0.183,0.305,-0.244,207.124
103301,139809,19647,-0.11,-0.925,-0.261,0.183,0.305,-0.244,207.128
103301,139852,7788,-0.11,-0.928,-0.266,-0.183,0,-0.244,207.134
103307,139809,19647,-0.11,-0.928,-0.266,-0.183,0,-0.244,207.138
103307,139815,7789,-0.124,-0.936,-0.262,-0.793,0.488,0.122,207.144
103291,139809,19647,-0.124,-0.936,-0.262,-0.793,0.488,0.122,207.148
103291,139813,7786,-0.12,-0.925,-0.261,-0.305,0.549,0.549,207.154
103266,139809,19647,-0.12,-0.925,-0.261,-0.305,0.549,0.549,207.157
103266,139822,7797,-0.115,-0.92,-0.261,0.122,0.244,0.427,207.164
103273,139809,19647,-0.115,-0.92,-0.261,0.122,0.244,0.427,207.167
103273,139834,7806,-0.124,-0.919,-0.265,0.122,0.427,0.61,207.174
103302,139809,19647,-0.124,-0.919,-0.265,0.122,0.427,0.61,207.177
103302,139847,7792,-0.122,-0.921,-0.263,-0.244,0.549,0.427,207.183
103299,139809,19647,-0.122,-0.921,-0.263,-0.244,0.549,0.427,207.187
103299,139843,7797,-0.117,-0.926,-0.257,-0.305,0.305,0,207.193
103320,139809,19647,-0.117,-0.926,-0.257,-0.305,0.305,0,207.197
103320,139837,7776,-0.117,-0.919,-0.264,-0.061,0.061,-0.122,207.203
103336,139809,19647,-0.117,-0.919,-0.264,-0.061,0.061,-0.122,207.207
103336,139870,7795,-0.119,-0.931,-0.264,-0.366,0.305,-0.061,207.213
103348,139809,19647,-0.119,-0.931,-0.264,-0.366,0.305,-0.061,207.217
103348,139869,7798,-0.116,-0.935,-0.259,0,0.488,0.061,207.223
103337,139809,19647,-0.116,-0.935,-0.259,0,0.488,0.061,207.227
103337,139840,7780,-0.111,-0.916,-0.274,0.366,0.244,0.183,207.233
103302,139809,19647,-0.111,-0.916,-0.274,0.366,0.244,0.183,207.237
103302,139861,7798,-0.119,-0.918,-0.274,0,0.427,0.305,207.243
103298,139809,19647,-0.122,-0.922,-0.271,0,0.427,0.305,207.247
103298,139867,7784,-0.12,-0.921,-0.268,0.366,0.427,0.488,207.253
103312,139809,19647,-0.118,-0.918,-0.265,0.366,0.427,0.488,207.256
103312,139858,7782,-0.116,-0.918,-0.269,0.488,0,0.183,207.263
103304,139809,19647,-0.115,-0.918,-0.275,0.488,0,0.183,207.266
103304,139860,7791,-0.115,-0.918,-0.272,0.427,-0.183,0,207.273
103320,139809,19647,-0.12,-0.923,-0.265,0.427,-0.183,0,207.276
103320,139849,7789,-0.118,-0.926,-0.258,0.366,-0.244,0,207.282
103307,139809,19647,-0.118,-0.925,-0.259,0.366,-0.244,0,207.286
103307,139847,7796,-0.117,-0.922,-0.261,0,-0.244,0,207.292
103319,139809,19647,-0.115,-0.927,-0.262,0,-0.244,0,207.296
103319,139861,7809,-0.115,-0.928,-0.26,-0.244,0,-0.061,207.302
103313,139809,19647,-0.118,-0.927,-0.26,-0.244,0,-0.061,207.306
103313,139864,7791,-0.117,-0.926,-0.258,-0.366,0.244,0.244,207.312
103308,139809,19647,-0.117,-0.927,-0.252,-0.366,0.244,0.244,207.316
103308,139880,7796,-0.119,-0.927,-0.259,-0.488,0.305,0.305,207.322
103296,139809,19647,-0.119,-0.93,-0.261,-0.488,0.305,0.305,207.326
103296,139866,7784,-0.12,-0.93,-0.264,-0.183,0.427,0.427,207.332
103283,139809,19647,-0.122,-0.924,-0.259,-0.183,0.427,0.427,207.336
103283,139861,7792,-0.119,-0.915,-0.257,0.366,0.122,0.427,207.342
103294,139809,19647,-0.115,-0.914,-0.26,0.366,0.122,0.427,207.346
103294,139856,7781,-0.118,-0.92,-0.261,0.366,0.183,0.122,207.352
103299,139809,19647,-0.116,-0.924,-0.257,0.366,0.183,0.122,207.355
103299,139856,7811,-0.115,-0.925,-0.259,0.122,0.488,0,207.362
103295,139809,19647,-0.114,-0.927,-0.259,0.122,0.488,0,207.365
103295,139853,7800,-0.114,-0.927,-0.256,0.061,0.488,-0.122,207.372
103293,139809,19647,-0.115,-0.922,-0.263,0.061,0.488,-0.122,207.375
103293,139865,7802,-0.114,-0.925,-0.262,-0.366,0.61,0,207.381
103313,139809,19647,-0.115,-0.931,-0.261,-0.366,0.61,0,207.385
103313,139865,7781,-0.116,-0.93,-0.265,-0.549,0.854,0.244,207.391
103298,139809,19647,-0.118,-0.927,-0.271,-0.549,0.854,0.244,207.395
103298,139856,7797,-0.12,-0.927,-0.273,-0.122,0.854,0.488,207.401
103299,139809,19647,-0.116,-0.927,-0.267,-0.122,0.854,0.488,207.405
103299,139856,7795,-0.116,-0.925,-0.272,0.427,0.549,0.488,207.411
103286,139809,19647,-0.118,-0.922,-0.268,0.427,0.549,0.488,207.415
103286,139868,7804,-0.121,-0.92,-0.268,0.793,0.366,0.366,207.421
103294,139809,19647,-0.12,-0.922,-0.265,0.793,0.366,0.366,207.425
103294,139858,7803,-0.119,-0.923,-0.263,0.793,0.244,0.366,207.431
103282,139809,19647,-0.117,-0.924,-0.254,0.793,0.244,0.366,207.435
103282,139866,7798,-0.114,-0.926,-0.254,0.671,0.244,0.244,207.441
103279,139809,19647,-0.116,-0.924,-0.254,0.671,0.244,0.244,207.445
103279,139855,7799,-0.117,-0.921,-0.255,0.366,0.305,0.244,207.451
103314,139809,19647,-0.115,-0.921,-0.261,0.366,0.305,0.244,207.454
103314,139855,7800,-0.116,-0.93,-0.261,0.061,0.61,0.244,207.461
103279,139809,19647,-0.117,-0.931,-0.261,0.061,0.61,0.244,207.464
103279,139840,7788,-0.119,-0.925,-0.268,-0.305,0.671,0.366,207.471
103283,139809,19647,-0.118,-0.93,-0.267,-0.305,0.671,0.366,207.474
103283,139829,7793,-0.116,-0.931,-0.262,-0.122,0.549,0.366,207.48
103266,139809,19647,-0.118,-0.927,-0.261,-0.122,0.549,0.366,207.484
103266,139854,7794,-0.118,-0.924,-0.262,-0.122,0.366,0.61,207.49
103275,139809,19647,-0.117,-0.922,-0.26,-0.122,0.366,0.61,207.494
103275,139817,7777,-0.116,-0.918,-0.261,-0.427,0.244,0.549,207.5
103236,139809,19647,-0.12,-0.918,-0.262,-0.427,0.244,0.549,207.504
103236,139829,7798,-0.12,-0.924,-0.258,-0.549,0.427,0.61,207.51
103270,139809,19647,-0.118,-0.918,-0.26,-0.549,0.427,0.61,207.514
103270,139821,7784,-0.119,-0.919,-0.261,-0.427,0.549,0.488,207.52
103255,139809,19647,-0.12,-0.921,-0.269,-0.427,0.549,0.488,207.524
103255,139801,7799,-0.119,-0.924,-0.265,-0.366,0.671,0.244,207.53
103258,139809,19647,-0.12,-0.925,-0.268,-0.366,0.671,0.244,207.534
103258,139826,7793,-0.119,-0.92,-0.267,0,0.549,0.183,207.54
103267,139809,19647,-0.119,-0.922,-0.268,0,0.549,0.183,207.544
103267,139842,7793,-0.119,-0.924,-0.265,0.305,0.183,-0.061,207.55
103249,139809,19647,-0.117,-0.928,-0.26,0.305,0.183,-0.061,207.554
103249,139789,7794,-0.116,-0.925,-0.255,0.488,0.061,0,207.56
103245,139809,19647,-0.117,-0.922,-0.257,0.488,0.061,0,207.563
103245,139809,7807,-0.116,-0.927,-0.256,-0.244,0.244,0.061,207.57
103248,139809,19647,-0.117,-0.929,-0.254,-0.244,0.244,0.061,207.573
103248,139816,7791,-0.116,-0.927,-0.256,-0.488,0.549,0.244,207.579
103267,139809,19647,-0.116,-0.928,-0.257,-0.488,0.549,0.244,207.583
103267,139821,7796,-0.116,-0.924,-0.261,-0.305,0.793,0.366,207.589
103241,139809,19647,-0.115,-0.917,-0.26,-0.305,0.793,0.366,207.593
103241,139817,7802,-0.115,-0.917,-0.266,-0.366,0.854,0.366,207.599
103253,139809,19647,-0.118,-0.918,-0.271,-0.366,0.854,0.366,207.603
103253,139801,7801,-0.12,-0.919,-0.269,-0.183,0.915,0.244,207.609
103231,139809,19647,-0.116,-0.921,-0.266,-0.183,0.915,0.244,207.613
103231,139809,7812,-0.113,-0.921,-0.272,0,0.488,0,207.619
103261,139809,19647,-0.114,-0.922,-0.27,0,0.488,0,207.623
103261,139825,7789,-0.116,-0.922,-0.269,-0.122,0.427,-0.183,207.629
103251,139809,19647,-0.116,-0.923,-0.266,-0.122,0.427,-0.183,207.633
103251,139840,7788,-0.119,-0.928,-0.264,-0.122,0.427,-0.305,207.639
103233,139809,19647,-0.117,-0.934,-0.256,-0.122,0.427,-0.305,207.643
103233,139829,7780,-0.113,-0.933,-0.256,-0.244,0.122,-0.427,207.649
103255,139809,19647,-0.111,-0.933,-0.251,-0.244,0.122,-0.427,207.652
103255,139829,7788,-0.11,-0.934,-0.245,-0.488,0.061,-0.061,207.659
103268,139809,19647,-0.115,-0.933,-0.252,-0.488,0.061,-0.061,207.662
103268,139845,7789,-0.122,-0.933,-0.258,-0.671,0.488,0.549,207.669
103267,139809,19647,-0.122,-0.934,-0.255,-0.671,0.488,0.549,207.672
103267,139834,7794,-0.12,-0.929,-0.255,-0.488,0.732,0.793,207.678
103278,139809,19647,-0.12,-0.925,-0.256,-0.488,0.732,0.793,207.682
103278,139831,7804,-0.114,-0.923,-0.26,-0.366,0.61,0.793,207.688
103276,139809,19647,-0.114,-0.923,-0.26,-0.366,0.61,0.793,207.692
103276,139841,7796,-0.116,-0.916,-0.272,-0.793,0.793,0.854,207.698
103260,139809,19647,-0.116,-0.916,-0.272,-0.793,0.793,0.854,207.702
103260,139820,7801,-0.117,-0.924,-0.278,-0.793,0.732,0.61,207.708
103247,139809,19647,-0.117,-0.924,-0.278,-0.793,0.732,0.61,207.712
103247,139814,7800,-0.113,-0.932,-0.267,-0.122,0.305,0.305,207.718
103228,139809,19647,-0.113,-0.932,-0.267,-0.122,0.305,0.305,207.722
103228,139795,7785,-0.115,-0.924,-0.26,0.427,-0.061,0.183,207.728
103227,139809,19647,-0.115,-0.924,-0.26,0.427,-0.061,0.183,207.732
103227,139820,7794,-0.115,-0.921,-0.261,0.366,0.061,0.305,207.738
103265,139809,19647,-0.115,-0.921,-0.261,0.366,0.061,0.305,207.742
103265,139824,7798,-0.119,-0.924,-0.255,0.183,0.305,0.427,207.748
103284,139809,19647,-0.119,-0.924,-0.255,0.183,0.305,0.427,207.752
103284,139835,7794,-0.113,-0.919,-0.251,0.061,0.244,0.488,207.758
103275,139809,19647,-0.113,-0.919,-0.251,0.061,0.244,0.488,207.761
103275,139831,7795,-0.121,-0.927,-0.26,-0.61,0.549,0.549,207.768
103261,139809,19647,-0.121,-0.927,-0.26,-0.61,0.549,0.549,207.771
103261,139869,7789,-0.121,-0.93,-0.264,-0.549,0.793,0.732,207.777
103289,139809,19647,-0.121,-0.93,-0.264,-0.549,0.793,0.732,207.781
103289,139872,7787,-0.12,-0.925,-0.276,-0.122,0.549,0.427,207.787
103289,139809,19647,-0.12,-0.925,-0.276,-0.122,0.549,0.427,207.791
103289,139848,7788,-0.114,-0.929,-0.268,0.61,0.122,0.244,207.797
103302,139809,19647,-0.114,-0.929,-0.268,0.61,0.122,0.244,207.801
103302,139876,7796,-0.114,-0.919,-0.271,0.488,-0.061,0.305,207.807
103295,139809,19647,-0.114,-0.919,-0.271,0.488,-0.061,0.305,207.811
103295,139864,7796,-0.119,-0.927,-0.259,0.488,0.183,0.305,207.817
103299,139809,19647,-0.119,-0.927,-0.259,0.488,0.183,0.305,207.821
103299,139865,7795,-0.112,-0.92,-0.254,0.671,0.061,0.366,207.827
103310,139809,19647,-0.112,-0.92,-0.254,0.671,0.061,0.366,207.831
103310,139848,7797,-0.113,-0.92,-0.248,0.671,0.061,0.366,207.837
103316,139809,19647,-0.113,-0.923,-0.254,0.122,0.183,0.427,207.841
103316,139874,7790,-0.115,-0.926,-0.255,0.122,0.183,0.427,207.847
103286,139809,19647,-0.117,-0.927,-0.259,-0.732,0.61,0.427,207.85
103286,139869,7798,-0.118,-0.929,-0.266,-0.732,0.61,0.427,207.857
103310,139809,19647,-0.119,-0.927,-0.265,-1.159,0.793,0.549,207.86
103310,139888,7792,-0.122,-0.927,-0.266,-1.159,0.793,0.549,207.867
103333,139809,19647,-0.123,-0.926,-0.265,-0.976,0.854,0.61,207.87
103333,139883,7797,-0.118,-0.926,-0.267,-0.976,0.854,0.61,207.876
103346,139809,19647,-0.12,-0.929,-0.271,-0.488,0.549,0.61,207.88
103346,139911,7812,-0.118,-0.932,-0.268,-0.488,0.549,0.61,207.886
103408,139809,19647,-0.116,-0.925,-0.274,0,0.183,0.488,207.89
103408,139947,7807,-0.116,-0.923,-0.269,0,0.183,0.488,207.896
103403,139809,19647,-0.115,-0.928,-0.26,0.366,0.061,0.305,207.9
103403,139943,7815,-0.114,-0.924,-0.26,0.366,0.061,0.305,207.906
103409,139809,19647,-0.117,-0.922,-0.255,0.427,0,0.488,207.91
103409,139960,7806,-0.118,-0.92,-0.25,0.427,0,0.488,207.916
103414,139809,19647,-0.116,-0.917,-0.255,-0.122,0.244,0.366,207.92
103414,139945,7810,-0.12,-0.917,-0.26,-0.122,0.244,0.366,207.926
103397,139809,19647,-0.116,-0.926,-0.261,-0.793,0.488,0.366,207.93
103397,139941,7814,-0.119,-0.928,-0.258,-0.793,0.488,0.366,207.936
103376,139809,19647,-0.117,-0.927,-0.264,-0.793,0.671,0.244,207.94
103376,139933,7813,-0.12,-0.929,-0.267,-0.793,0.671,0.244,207.946
103403,139809,19647,-0.123,-0.927,-0.273,-0.671,0.549,0.305,207.949
103403,139932,7807,-0.12,-0.929,-0.271,-0.671,0.549,0.305,207.956
103417,139809,19647,-0.117,-0.927,-0.266,0.122,0.061,0.305,207.959
103417,139965,7818,-0.117,-0.921,-0.267,0.122,0.061,0.305,207.966
103456,139809,19647,-0.115,-0.921,-0.267,0.122,-0.183,0.183,207.969
103456,140001,7818,-0.115,-0.928,-0.261,0.122,-0.183,0.183,207.975
103467,139809,19647,-0.113,-0.929,-0.253,-0.061,-0.061,0.244,207.979
103467,139981,7812,-0.116,-0.928,-0.253,-0.061,-0.061,0.244,207.985
103454,139809,19647,-0.116,-0.92,-0.253,-0.244,0,0.488,207.989
103454,139993,7799,-0.117,-0.921,-0.259,-0.244,0,0.488,207.995
103428,139809,19647,-0.114,-0.926,-0.253,-0.061,0.366,0.427,207.999
103428,139986,7829,-0.117,-0.927,-0.25,-0.061,0.366,0.427,208.005
103409,139809,19647,-0.119,-0.925,-0.26,-0.061,0.671,0.366,208.009
103409,139935,7811,-0.117,-0.922,-0.268,-0.061,0.671,0.366,208.015
103384,139809,19647,-0.119,-0.92,-0.275,-0.671,0.854,0.244,208.019
103384,139933,7825,-0.119,-0.922,-0.271,-0.671,0.854,0.244,208.025
103378,139809,19647,-0.115,-0.929,-0.27,-0.793,0.854,0.122,208.029
103378,139913,7802,-0.116,-0.923,-0.274,-0.793,0.854,0.122,208.035
103351,139809,19647,-0.118,-0.922,-0.275,-0.671,0.549,0.061,208.039
103351,139936,7813,-0.114,-0.93,-0.274,-0.671,0.549,0.061,208.045
103370,139809,19647,-0.114,-0.93,-0.271,-0.122,0.305,0.061,208.048
103370,139938,7802,-0.115,-0.926,-0.271,-0.122,0.305,0.061,208.055
103410,139809,19647,-0.111,-0.926,-0.271,0.061,0.061,0.244,208.058
103410,139934,7804,-0.112,-0.924,-0.264,0.061,0.061,0.244,208.065
103380,139809,19647,-0.115,-0.925,-0.247,0.61,-0.061,0.244,208.068
103380,139946,7820,-0.114,-0.924,-0.243,0.61,-0.061,0.244,208.074
103368,139809,19647,-0.113,-0.914,-0.252,0.244,-0.122,0.488,208.078
103368,139929,7818,-0.111,-0.916,-0.252,0.244,-0.122,0.488,208.084
103363,139809,19647,-0.116,-0.929,-0.25,-0.671,0.305,0.488,208.088
103363,139907,7801,-0.12,-0.936,-0.248,-0.671,0.305,0.488,208.094
103317,139809,19647,-0.124,-0.93,-0.251,-0.488,0.732,0.732,208.098
103317,139908,7804,-0.122,-0.928,-0.254,-0.488,0.732,0.732,208.104
103308,139809,19647,-0.122,-0.927,-0.245,-0.671,0.61,0.549,208.108
103308,139912,7806,-0.117,-0.927,-0.257,-0.671,0.61,0.549,208.114
103320,139809,19647,-0.112,-0.926,-0.27,-0.854,0.61,0.488,208.118
103320,139899,7804,-0.119,-0.932,-0.27,-0.854,0.61,0.488,208.124
103317,139809,19647,-0.123,-0.938,-0.274,-0.732,0.915,0.671,208.128
103317,139885,7820,-0.12,-0.932,-0.273,-0.732,0.915,0.671,208.134
103345,139809,19647,-0.117,-0.926,-0.276,0,0.549,0.732,208.138
103345,139915,7815,-0.115,-0.918,-0.274,0,0.549,0.732,208.144
103369,139809,19647,-0.112,-0.913,-0.277,0.427,0.061,0.61,208.147
103369,139918,7797,-0.115,-0.915,-0.276,0.427,0.061,0.61,208.154
103344,139809,19647,-0.117,-0.916,-0.268,0.305,0.244,0.671,208.157
103344,139926,7820,-0.117,-0.917,-0.272,0.305,0.244,0.671,208.164
103339,139809,19647,-0.12,-0.918,-0.268,-0.061,0.122,0.549,208.167
103339,139908,7810,-0.117,-0.92,-0.262,-0.061,0.122,0.549,208.173
103326,139809,19647,-0.116,-0.917,-0.258,-0.488,-0.061,0.366,208.177
103326,139898,7815,-0.118,-0.918,-0.247,-0.488,-0.061,0.366,208.183
103323,139809,19647,-0.118,-0.92,-0.243,-1.098,0.183,0.305,208.187
103323,139896,7821,-0.12,-0.926,-0.256,-1.098,0.183,0.305,208.193
103327,139809,19647,-0.122,-0.935,-0.263,-1.707,0.732,0.427,208.197
103327,139921,7806,-0.121,-0.94,-0.266,-1.707,0.732,0.427,208.203
103341,139809,19647,-0.119,-0.935,-0.268,-1.402,0.854,0.671,208.207
103341,139915,7822,-0.12,-0.934,-0.259,-1.402,0.854,0.671,208.213
103324,139809,19647,-0.12,-0.931,-0.25,-0.183,0.671,0.671,208.217
103324,139921,7815,-0.116,-0.92,-0.262,-0.183,0.671,0.671,208.223
103340,139809,19647,-0.112,-0.916,-0.273,-0.183,0.366,0.793,208.227
103340,139929,7813,-0.113,-0.924,-0.267,-0.183,0.366,0.793,208.233
103328,139809,19647,-0.116,-0.928,-0.264,-0.427,0.61,0.793,208.237
103328,139907,7814,-0.117,-0.928,-0.263,-0.427,0.61,0.793,208.243
103318,139809,19647,-0.117,-0.927,-0.26,-0.061,0.61,0.793,208.247
103318,139914,7800,-0.115,-0.923,-0.261,-0.061,0.61,0.793,208.253
103340,139809,19647,-0.113,-0.915,-0.254,0.732,0.305,0.427,208.256
103340,139905,7820,-0.115,-0.914,-0.258,0.732,0.305,0.427,208.263
103307,139809,19647,-0.113,-0.914,-0.266,0.793,0.305,0.366,208.266
103307,139913,7817,-0.115,-0.917,-0.264,0.793,0.305,0.366,208.272
103325,139809,19647,-0.115,-0.917,-0.264,0.793,0.305,0.366,208.276
103325,139902,7811,-0.122,-0.924,-0.264,0.122,0.549,0.183,208.282
103304,139809,19647,-0.122,-0.924,-0.264,0.122,0.549,0.183,208.286
103304,139909,7806,-0.118,-0.918,-0.264,-0.122,0.549,-0.122,208.292
103318,139809,19647,-0.118,-0.918,-0.264,-0.122,0.549,-0.122,208.296
103318,139928,7812,-0.116,-0.937,-0.264,-0.671,0.427,-0.122,208.302
103328,139809,19647,-0.116,-0.937,-0.264,-0.671,0.427,-0.122,208.306
103328,139953,7816,-0.119,-0.929,-0.268,-0.854,0.671,0.183,208.312
103348,139809,19647,-0.119,-0.929,-0.268,-0.854,0.671,0.183,208.316
103348,139939,7805,-0.118,-0.929,-0.269,-0.854,0.732,0.427,208.322
103345,139809,19647,-0.118,-0.929,-0.269,-0.854,0.732,0.427,208.326
103345,139918,7820,-0.118,-0.931,-0.268,-0.732,0.671,0.549,208.332
103328,139809,19647,-0.118,-0.931,-0.268,-0.732,0.671,0.549,208.336
103328,139885,7808,-0.117,-0.922,-0.266,-0.671,0.61,0.732,208.342
103267,139809,19647,-0.117,-0.922,-0.266,-0.671,0.61,0.732,208.345
103267,139898,7804,-0.119,-0.921,-0.253,-0.671,0.366,0.854,208.352
103278,139809,19647,-0.119,-0.921,-0.253,-0.671,0.366,0.854,208.355
103278,139859,7803,-0.111,-0.927,-0.257,-1.341,0.244,0.976,208.362
103279,139809,19647,-0.111,-0.927,-0.257,-1.341,0.244,0.976,208.365
103279,139876,7808,-0.119,-0.931,-0.264,-1.768,0.549,1.037,208.371
103265,139809,19647,-0.119,-0.931,-0.264,-1.768,0.549,1.037,208.375
103265,139885,7797,-0.119,-0.925,-0.263,-1.585,0.915,1.159,208.381
103276,139809,19647,-0.119,-0.925,-0.263,-1.585,0.915,1.159,208.385
103276,139884,7807,-0.113,-0.917,-0.262,-0.671,0.793,1.098,208.391
103296,139809,19647,-0.113,-0.917,-0.262,-0.671,0.793,1.098,208.395
103296,139894,7794,-0.115,-0.919,-0.267,-0.549,0.732,0.854,208.401
103281,139809,19647,-0.115,-0.919,-0.267,-0.549,0.732,0.854,208.405
103281,139885,7812,-0.115,-0.92,-0.269,-0.488,0.854,0.671,208.411
103286,139809,19647,-0.115,-0.92,-0.269,-0.488,0.854,0.671,208.415
103286,139864,7802,-0.116,-0.917,-0.262,0.061,0.732,0.488,208.421
103255,139809,19647,-0.115,-0.914,-0.262,0.061,0.732,0.488,208.425
103255,139865,7792,-0.113,-0.917,-0.265,-0.122,0.549,0.305,208.431
103256,139809,19647,-0.114,-0.923,-0.257,-0.122,0.549,0.305,208.435
103256,139877,7795,-0.117,-0.931,-0.26,-0.61,0.61,0.305,208.441
103236,139809,19647,-0.118,-0.931,-0.262,-0.61,0.61,0.305,208.444
103236,139865,7801,-0.12,-0.931,-0.255,-0.61,0.793,0.488,208.451
103255,139809,19647,-0.12,-0.929,-0.26,-0.61,0.793,0.488,208.454
103255,139861,7796,-0.117,-0.928,-0.265,-0.854,0.793,0.549,208.461
103223,139809,19647,-0.118,-0.928,-0.265,-0.854,0.793,0.549,208.464
103223,139845,7804,-0.12,-0.927,-0.269,-1.22,0.915,0.793,208.47
103235,139809,19647,-0.123,-0.93,-0.272,-1.22,0.915,0.793,208.474
103235,139867,7791,-0.125,-0.928,-0.277,-1.098,0.976,1.037,208.48
103244,139809,19647,-0.118,-0.923,-0.274,-1.098,0.976,1.037,208.484
103244,139890,7797,-0.117,-0.921,-0.27,-0.366,0.671,0.915,208.49
103206,139809,19647,-0.116,-0.917,-0.266,-0.366,0.671,0.915,208.494
103206,139853,7807,-0.116,-0.914,-0.27,0.122,0.305,0.671,208.5
103265,139809,19647,-0.116,-0.912,-0.267,0.122,0.305,0.671,208.504
