103644,141345,19647,-0.071,-0.915,-0.308,0.488,0.61,0.61,526.568
103644,141553,8051,-0.072,-0.911,-0.304,0.488,0.61,0.61,526.574
103631,141345,19647,-0.071,-0.916,-0.293,2.073,-0.488,0,526.578
103631,141509,8065,-0.07,-0.918,-0.273,2.073,-0.488,0,526.584
103644,141345,19647,-0.066,-0.909,-0.278,1.768,-1.098,-0.061,526.588
103644,141538,8043,-0.066,-0.906,-0.289,1.768,-1.098,-0.061,526.594
103660,141345,19647,-0.072,-0.923,-0.28,-0.061,-0.671,-0.244,526.598
103660,141515,8071,-0.072,-0.937,-0.249,-0.061,-0.671,-0.244,526.604
103636,141345,19647,-0.062,-0.926,-0.249,0,-0.366,-0.122,526.608
103636,141505,8060,-0.06,-0.918,-0.262,0,-0.366,-0.122,526.614
103617,141345,19647,-0.068,-0.925,-0.275,-1.646,0.854,0.244,526.618
103617,141508,8062,-0.074,-0.932,-0.285,-1.646,0.854,0.244,526.624
103635,141345,19647,-0.078,-0.935,-0.286,-2.317,2.012,0.915,526.628
103635,141501,8052,-0.079,-0.934,-0.286,-2.317,2.012,0.915,526.634
103624,141345,19647,-0.072,-0.925,-0.287,-0.915,1.768,0.854,526.637
103624,141491,8059,-0.067,-0.91,-0.306,-0.915,1.768,0.854,526.644
103638,141345,19647,-0.069,-0.91,-0.313,-0.366,0.976,0.488,526.647
103638,141509,8051,-0.078,-0.922,-0.306,-0.366,0.976,0.488,526.653
103647,141345,19647,-0.079,-0.925,-0.3,0.549,0.366,0.488,526.657
103647,141503,8048,-0.073,-0.914,-0.303,0.549,0.366,0.488,526.663
103655,141345,19647,-0.069,-0.911,-0.297,1.768,-0.793,0,526.667
103655,141532,8050,-0.067,-0.913,-0.288,1.768,-0.793,0,526.673
103653,141345,19647,-0.068,-0.919,-0.278,1.89,-1.159,-0.305,526.677
103653,141531,8062,-0.074,-0.929,-0.264,1.89,-1.159,-0.305,526.683
103618,141345,19647,-0.071,-0.935,-0.265,1.159,-0.793,-0.183,526.687
103618,141532,8043,-0.062,-0.932,-0.259,1.159,-0.793,-0.183,526.693
103624,141345,19647,-0.065,-0.919,-0.259,-0.244,-0.366,0.366,526.697
103624,141512,8047,-0.069,-0.914,-0.269,-0.244,-0.366,0.366,526.703
103632,141345,19647,-0.073,-0.933,-0.264,-2.073,1.037,0.732,526.707
103632,141517,8074,-0.072,-0.942,-0.268,-2.073,1.037,0.732,526.713
103652,141345,19647,-0.07,-0.93,-0.281,-2.805,2.195,1.037,526.717
103652,141528,8063,-0.072,-0.914,-0.293,-2.805,2.195,1.037,526.723
103637,141345,19647,-0.078,-0.914,-0.295,-2.378,2.134,1.098,526.727
103637,141521,8058,-0.077,-0.918,-0.302,-2.378,2.134,1.098,526.733
103651,141345,19647,-0.075,-0.917,-0.313,-0.671,1.646,0.915,526.736
103651,141510,8058,-0.075,-0.916,-0.312,-0.671,1.646,0.915,526.743
103622,141345,19647,-0.076,-0.919,-0.304,0.793,0.549,0.305,526.746
103622,141556,8054,-0.074,-0.917,-0.291,0.793,0.549,0.305,526.752
103643,141345,19647,-0.068,-0.914,-0.277,1.768,-0.732,-0.122,526.756
103643,141514,8055,-0.06,-0.91,-0.283,1.768,-0.732,-0.122,526.762
103617,141345,19647,-0.062,-0.921,-0.276,0.427,-0.915,0.061,526.766
103617,141530,8048,-0.071,-0.937,-0.24,0.427,-0.915,0.061,526.772
103597,141345,19647,-0.069,-0.927,-0.249,-0.793,-0.061,0.488,526.776
103597,141517,8044,-0.063,-0.915,-0.283,-0.793,-0.061,0.488,526.782
103610,141345,19647,-0.066,-0.933,-0.281,-2.561,1.22,0.915,526.786
103610,141511,8047,-0.077,-0.94,-0.284,-2.561,1.22,0.915,526.792
103629,141345,19647,-0.081,-0.927,-0.294,-2.378,2.256,1.463,526.796
103629,141492,8051,-0.079,-0.924,-0.3,-2.378,2.256,1.463,526.802
103621,141345,19647,-0.079,-0.924,-0.3,-2.378,2.256,1.463,526.806
103621,141502,8055,-0.072,-0.908,-0.302,-0.366,2.073,1.098,526.812
103640,141345,19647,-0.072,-0.908,-0.302,-0.366,2.073,1.098,526.816
103640,141522,8063,-0.073,-0.908,-0.307,1.22,0.732,0.488,526.822
103660,141345,19647,-0.073,-0.908,-0.307,1.22,0.732,0.488,526.826
103660,141530,8065,-0.077,-0.923,-0.288,1.159,-0.061,-0.061,526.832
103649,141345,19647,-0.077,-0.923,-0.288,1.159,-0.061,-0.061,526.835
103649,141545,8066,-0.061,-0.921,-0.281,1.829,-0.854,-0.61,526.842
103658,141345,19647,-0.061,-0.921,-0.281,1.829,-0.854,-0.61,526.845
103658,141554,8063,-0.07,-0.922,-0.261,1.22,-1.28,-0.549,526.852
103646,141345,19647,-0.07,-0.922,-0.261,1.22,-1.28,-0.549,526.855
103646,141535,8061,-0.069,-0.939,-0.268,-0.366,-0.305,0,526.861
103663,141345,19647,-0.069,-0.939,-0.268,-0.366,-0.305,0,526.865
103663,141550,8051,-0.066,-0.925,-0.273,-0.793,0.732,0.488,526.871
103653,141345,19647,-0.066,-0.925,-0.273,-0.793,0.732,0.488,526.875
103653,141545,8052,-0.077,-0.92,-0.289,-1.463,1.402,1.22,526.881
103647,141345,19647,-0.077,-0.92,-0.289,-1.463,1.402,1.22,526.885
103647,141558,8057,-0.072,-0.927,-0.302,-1.341,1.951,0.915,526.891
103649,141345,19647,-0.072,-0.927,-0.302,-1.341,1.951,0.915,526.895
103649,141548,8047,-0.07,-0.906,-0.306,-0.549,1.341,0.549,526.901
103665,141345,19647,-0.07,-0.906,-0.306,-0.549,1.341,0.549,526.905
103665,141542,8060,-0.071,-0.921,-0.295,0.244,0.366,0.122,526.911
103658,141345,19647,-0.071,-0.921,-0.295,0.244,0.366,0.122,526.915
103658,141563,8057,-0.065,-0.912,-0.277,1.463,-0.427,-0.305,526.921
103673,141345,19647,-0.065,-0.912,-0.277,1.463,-0.427,-0.305,526.925
103673,141564,8066,-0.069,-0.915,-0.286,1.037,-0.915,-0.366,526.931
103660,141345,19647,-0.069,-0.915,-0.286,1.037,-0.915,-0.366,526.934
103660,141552,8054,-0.073,-0.944,-0.256,0.244,-0.427,-0.122,526.941
103666,141345,19647,-0.073,-0.944,-0.256,0.244,-0.427,-0.122,526.944
103666,141553,8072,-0.059,-0.914,-0.274,0.244,0.122,0,526.951
103660,141345,19647,-0.059,-0.914,-0.274,0.244,0.122,0,526.954
103660,141547,8062,-0.069,-0.915,-0.29,-1.646,0.793,0.366,526.96
103665,141345,19647,-0.076,-0.937,-0.279,-1.646,0.793,0.366,526.964
103665,141550,8069,-0.08,-0.942,-0.287,-1.646,1.402,0.976,526.97
103652,141345,19647,-0.078,-0.929,-0.298,-1.646,1.402,0.976,526.974
103652,141561,8055,-0.076,-0.916,-0.304,-0.61,1.159,0.854,526.98
103675,141601,19647,-0.075,-0.912,-0.31,-0.61,1.159,0.854,526.984
103675,141569,8064,-0.076,-0.915,-0.3,0.976,0.488,0.305,526.99
103655,141345,19647,-0.074,-0.916,-0.29,0.976,0.488,0.305,526.994
103655,141545,8063,-0.068,-0.911,-0.294,1.89,-0.549,-0.183,527
103654,141345,19647,-0.062,-0.905,-0.301,1.89,-0.549,-0.183,527.004
103654,141565,8079,-0.064,-0.905,-0.302,1.159,-1.22,-0.671,527.01
103681,141345,19647,-0.069,-0.923,-0.286,1.159,-1.22,-0.671,527.014
103681,141557,8057,-0.073,-0.939,-0.256,1.402,-1.159,-0.671,527.02
103665,141345,19647,-0.064,-0.932,-0.238,1.402,-1.159,-0.671,527.024
103665,141538,8063,-0.052,-0.908,-0.272,0.549,-1.098,-0.671,527.03
103644,141345,19647,-0.057,-0.915,-0.287,0.549,-1.098,-0.671,527.033
103644,141553,8060,-0.074,-0.933,-0.283,-1.28,0.122,0.122,527.04
103669,141345,19647,-0.083,-0.943,-0.276,-1.28,0.122,0.122,527.043
103669,141543,8060,-0.074,-0.936,-0.273,-0.244,0.976,0.732,527.05
103620,141345,19647,-0.067,-0.913,-0.287,-0.244,0.976,0.732,527.053
103620,141544,8042,-0.07,-0.906,-0.303,0,0.915,0.244,527.059
103666,141345,19647,-0.074,-0.917,-0.299,0,0.915,0.244,527.063
103666,141532,8069,-0.078,-0.927,-0.294,0.732,0.549,0.061,527.069
103645,141345,19647,-0.078,-0.928,-0.285,0.732,0.549,0.061,527.073
103645,141528,8055,-0.068,-0.922,-0.269,1.22,-0.366,-0.305,527.079
103660,141345,19647,-0.059,-0.912,-0.281,1.22,-0.366,-0.305,527.083
103660,141552,8053,-0.064,-0.918,-0.277,0.244,-0.549,-0.244,527.089
103658,141345,19647,-0.068,-0.931,-0.259,0.244,-0.549,-0.244,527.093
103658,141553,8054,-0.069,-0.932,-0.269,-0.488,0.122,0.305,527.099
103663,141601,19647,-0.067,-0.93,-0.286,-0.488,0.122,0.305,527.103
103663,141588,8068,-0.069,-0.926,-0.286,-1.037,0.671,0.61,527.109
103667,141345,19647,-0.072,-0.922,-0.284,-1.037,0.671,0.61,527.113
103667,141558,8052,-0.074,-0.919,-0.284,-0.122,0.793,0.854,527.119
103667,141345,19647,-0.077,-0.919,-0.287,-0.122,0.793,0.854,527.123
103667,141548,8058,-0.073,-0.915,-0.296,0.061,0.671,0.549,527.129
103652,141345,19647,-0.072,-0.919,-0.3,0.061,0.671,0.549,527.132
103652,141522,8054,-0.072,-0.919,-0.29,0.549,0.244,0,527.139
103642,141345,19647,-0.075,-0.92,-0.28,0.549,0.244,0,527.142
103642,141561,8055,-0.07,-0.925,-0.27,1.524,-0.305,-0.366,527.149
103651,141601,19647,-0.064,-0.922,-0.257,1.524,-0.305,-0.366,527.152
103651,141581,8055,-0.06,-0.913,-0.27,0.366,-0.122,-0.427,527.158
103666,141345,19647,-0.062,-0.918,-0.279,0.366,-0.122,-0.427,527.162
103666,141542,8055,-0.068,-0.936,-0.269,-1.22,0.671,0.061,527.168
103652,141345,19647,-0.071,-0.939,-0.269,-1.22,0.671,0.061,527.172
103652,141560,8062,-0.07,-0.931,-0.278,-0.671,1.402,0.671,527.178
103646,141601,19647,-0.069,-0.924,-0.291,-0.671,1.402,0.671,527.182
103646,141575,8054,-0.071,-0.919,-0.302,-0.427,1.768,0.671,527.188
103636,141345,19647,-0.075,-0.921,-0.301,-0.427,1.768,0.671,527.192
103636,141543,8053,-0.078,-0.922,-0.309,0,1.341,0.732,527.198
103623,141345,19647,-0.077,-0.925,-0.299,0,1.341,0.732,527.202
103623,141518,8056,-0.071,-0.921,-0.288,1.341,0.366,0.305,527.208
103602,141345,19647,-0.067,-0.912,-0.299,1.341,0.366,0.305,527.212
103602,141506,8045,-0.069,-0.91,-0.298,1.341,-0.549,0.061,527.218
103577,141345,19647,-0.071,-0.928,-0.281,1.341,-0.549,0.061,527.222
103577,141463,8041,-0.069,-0.939,-0.263,1.402,-0.61,0.183,527.228
103569,141345,19647,-0.066,-0.923,-0.258,1.402,-0.61,0.183,527.231
103569,141509,8043,-0.065,-0.907,-0.275,0.366,-0.305,0.366,527.238
103580,141345,19647,-0.069,-0.913,-0.286,0.366,-0.305,0.366,527.241
103580,141461,8051,-0.073,-0.931,-0.273,-1.098,0.549,0.793,527.248
103570,141345,19647,-0.076,-0.936,-0.273,-1.098,0.549,0.793,527.251
103570,141502,8048,-0.073,-0.926,-0.291,-0.732,1.098,0.793,527.257
103578,141345,19647,-0.071,-0.919,-0.299,-0.732,1.098,0.793,527.261
103578,141478,8049,-0.072,-0.918,-0.298,-0.061,0.915,0.488,527.267
103555,141345,19647,-0.071,-0.921,-0.295,-0.061,0.915,0.488,527.271
103555,141453,8055,-0.073,-0.926,-0.291,1.22,0.244,0.244,527.277
103558,141345,19647,-0.072,-0.931,-0.274,1.22,0.244,0.244,527.281
103558,141481,8052,-0.065,-0.925,-0.261,2.012,-0.183,-0.122,527.287
103569,141345,19647,-0.065,-0.909,-0.259,2.012,-0.183,-0.122,527.291
103569,141466,8040,-0.063,-0.904,-0.282,0.549,-0.183,0,527.297
103531,141345,19647,-0.072,-0.922,-0.284,0.549,-0.183,0,527.301
103531,141444,8046,-0.078,-0.941,-0.266,-0.854,0.549,0.427,527.307
103549,141345,19647,-0.073,-0.937,-0.268,-0.854,0.549,0.427,527.311
103549,141444,8039,-0.069,-0.92,-0.279,-0.732,1.098,0.366,527.317
103543,141345,19647,-0.069,-0.913,-0.286,-0.732,1.098,0.366,527.321
103543,141449,8037,-0.075,-0.917,-0.292,-0.854,1.402,0.488,527.327
103548,141345,19647,-0.078,-0.926,-0.293,-0.854,1.402,0.488,527.331
103548,141450,8051,-0.077,-0.931,-0.294,-0.61,1.341,0.427,527.337
103560,141345,19647,-0.069,-0.929,-0.292,-0.61,1.341,0.427,527.34
103560,141429,8047,-0.064,-0.918,-0.29,-0.122,0.61,0,527.347
103515,141345,19647,-0.064,-0.912,-0.288,-0.122,0.61,0,527.35
103515,141428,8035,-0.068,-0.914,-0.288,0.244,0.061,0.305,527.356
103550,141345,19647,-0.071,-0.923,-0.283,0.244,0.061,0.305,527.36
103550,141441,8039,-0.069,-0.926,-0.28,0.549,0,0.488,527.366
103544,141345,19647,-0.067,-0.928,-0.27,0.549,0,0.488,527.37
103544,141432,8030,-0.062,-0.927,-0.245,0.366,0.122,0.427,527.376
103520,141345,19647,-0.059,-0.911,-0.263,0.366,0.122,0.427,527.38
103520,141427,8029,-0.067,-0.906,-0.285,-1.768,0.915,0.915,527.386
103522,141345,19647,-0.08,-0.924,-0.276,-1.768,0.915,0.915,527.39
103522,141448,8050,-0.081,-0.935,-0.272,-2.195,1.768,1.037,527.396
103517,141345,19647,-0.073,-0.93,-0.289,-2.195,1.768,1.037,527.4
103517,141447,8030,-0.069,-0.924,-0.297,-1.341,1.768,0.61,527.406
103530,141345,19647,-0.069,-0.924,-0.297,-1.341,1.768,0.61,527.41
103530,141418,8053,-0.073,-0.916,-0.306,-0.244,1.28,0.61,527.416
103503,141345,19647,-0.073,-0.916,-0.306,-0.244,1.28,0.61,527.42
103503,141431,8040,-0.075,-0.922,-0.303,1.402,0.549,0.427,527.426
103479,141345,19647,-0.075,-0.922,-0.303,1.402,0.549,0.427,527.429
103479,141402,8035,-0.064,-0.918,-0.299,2.073,-0.549,-0.183,527.436
103468,141345,19647,-0.064,-0.918,-0.299,2.073,-0.549,-0.183,527.439
103468,141399,8029,-0.065,-0.921,-0.26,1.707,-1.098,-0.183,527.446
103408,141345,19647,-0.065,-0.921,-0.26,1.707,-1.098,-0.183,527.449
103408,141359,8036,-0.07,-0.915,-0.268,-0.122,-0.305,0.244,527.456
103411,141345,19647,-0.07,-0.915,-0.268,-0.122,-0.305,0.244,527.459
103411,141345,8032,-0.072,-0.933,-0.269,-0.976,0.488,0.427,527.465
103403,141345,19647,-0.072,-0.933,-0.269,-0.976,0.488,0.427,527.469
103403,141352,8009,-0.07,-0.931,-0.275,-1.098,1.22,0.488,527.475
103366,141345,19647,-0.07,-0.931,-0.275,-1.098,1.22,0.488,527.479
103366,141338,8015,-0.074,-0.919,-0.294,-1.159,1.585,0.488,527.485
103371,141345,19647,-0.074,-0.919,-0.294,-1.159,1.585,0.488,527.489
103371,141336,8027,-0.078,-0.93,-0.29,-0.427,1.341,0.427,527.495
103360,141345,19647,-0.078,-0.93,-0.29,-0.427,1.341,0.427,527.499
103360,141321,8009,-0.07,-0.912,-0.301,0.061,0.549,0.183,527.505
103337,141345,19647,-0.07,-0.912,-0.301,0.061,0.549,0.183,527.509
103337,141322,8032,-0.071,-0.925,-0.277,0.366,-0.183,0.061,527.515
103379,141345,19647,-0.071,-0.925,-0.277,0.366,-0.183,0.061,527.519
103379,141354,7994,-0.064,-0.918,-0.271,0.061,-0.366,0.244,527.525
103352,141089,19647,-0.064,-0.918,-0.271,0.061,-0.366,0.244,527.529
103352,141302,8021,-0.068,-0.925,-0.281,-1.037,0.244,0.427,527.535
103375,141345,19647,-0.068,-0.925,-0.281,-1.037,0.244,0.427,527.538
103375,141328,8016,-0.07,-0.925,-0.288,-0.915,0.793,0.671,527.545
103371,141345,19647,-0.07,-0.925,-0.288,-0.915,0.793,0.671,527.548
103371,141335,8022,-0.067,-0.922,-0.289,-0.915,0.793,0.671,527.554
103341,141089,19647,-0.072,-0.922,-0.288,-0.61,0.793,0.549,527.558
103341,141307,8017,-0.07,-0.923,-0.283,-0.61,0.793,0.549,527.564
103355,141345,19647,-0.069,-0.919,-0.276,0.488,0.61,0.488,527.568
103355,141326,8013,-0.072,-0.912,-0.287,0.488,0.61,0.488,527.574
103361,141345,19647,-0.068,-0.913,-0.298,0,0.305,0.366,527.578
103361,141314,8006,-0.068,-0.928,-0.281,0,0.305,0.366,527.584
103341,141089,19647,-0.068,-0.932,-0.278,-0.183,0.061,0.183,527.588
103341,141305,8020,-0.071,-0.932,-0.261,-0.183,0.061,0.183,527.594
103345,141345,19647,-0.065,-0.927,-0.242,0.122,0.061,0.183,527.598
103345,141321,8004,-0.058,-0.91,-0.262,0.122,0.061,0.183,527.604
103381,141089,19647,-0.062,-0.91,-0.286,-2.256,0.915,0.732,527.608
103381,141306,8028,-0.075,-0.924,-0.289,-2.256,0.915,0.732,527.614
103364,141089,19647,-0.083,-0.945,-0.295,-2.927,2.073,1.159,527.618
103364,141302,8011,-0.079,-0.947,-0.271,-2.927,2.073,1.159,527.624
103366,141089,19647,-0.067,-0.917,-0.27,-0.793,1.768,1.037,527.628
103366,141310,8012,-0.06,-0.894,-0.305,-0.793,1.768,1.037,527.634
103333,141089,19647,-0.067,-0.911,-0.314,-1.402,1.28,0.915,527.637
103333,141310,8031,-0.083,-0.931,-0.311,-1.402,1.28,0.915,527.644
103343,141089,19647,-0.081,-0.937,-0.309,-0.427,1.22,1.098,527.647
103343,141298,8023,-0.072,-0.923,-0.301,-0.427,1.22,1.098,527.654
103339,141089,19647,-0.069,-0.9,-0.309,1.707,-0.183,0.366,527.657
103339,141300,8013,-0.063,-0.9,-0.302,1.707,-0.183,0.366,527.663
103361,141089,19647,-0.07,-0.914,-0.286,2.622,-1.159,-0.183,527.667
103361,141310,8009,-0.071,-0.922,-0.269,2.622,-1.159,-0.183,527.673
103358,141345,19647,-0.071,-0.917,-0.27,1.768,-1.098,-0.366,527.677
103358,141318,8024,-0.064,-0.915,-0.28,1.768,-1.098,-0.366,527.683
103390,141345,19647,-0.066,-0.927,-0.268,0.061,-0.793,-0.427,527.687
103390,141320,8022,-0.07,-0.93,-0.258,0.061,-0.793,-0.427,527.693
103392,141345,19647,-0.073,-0.931,-0.249,0,-0.183,0,527.697
103392,141326,8021,-0.072,-0.927,-0.264,0,-0.183,0,527.703
103363,141345,19647,-0.066,-0.927,-0.282,-1.28,0.854,0.122,527.707
103363,141357,8015,-0.067,-0.935,-0.277,-1.28,0.854,0.122,527.713
103367,141345,19647,-0.071,-0.938,-0.281,-1.768,1.463,0.549,527.717
103367,141317,8013,-0.074,-0.931,-0.291,-1.768,1.463,0.549,527.723
103329,141345,19647,-0.074,-0.929,-0.274,-1.037,1.463,0.854,527.727
103329,141330,8012,-0.07,-0.928,-0.256,-1.037,1.463,0.854,527.733
103352,141345,19647,-0.062,-0.91,-0.278,-0.793,1.098,0.915,527.736
103352,141314,8034,-0.065,-0.906,-0.295,-0.793,1.098,0.915,527.743
103345,141345,19647,-0.076,-0.922,-0.302,-2.439,1.28,1.341,527.746
103345,141328,8018,-0.079,-0.934,-0.302,-2.439,1.28,1.341,527.753
103332,141345,19647,-0.075,-0.928,-0.3,-1.341,1.463,1.22,527.756
103332,141318,8029,-0.071,-0.914,-0.296,-1.341,1.463,1.22,527.762
103351,141345,19647,-0.069,-0.907,-0.301,0.61,0.427,0.549,527.766
103351,141329,8023,-0.07,-0.907,-0.301,0.61,0.427,0.549,527.772
103346,141089,19647,-0.074,-0.912,-0.296,1.402,-0.427,0.366,527.776
103346,141306,8020,-0.076,-0.916,-0.289,1.402,-0.427,0.366,527.782
103344,141345,19647,-0.072,-0.917,-0.289,1.341,-0.854,-0.305,527.786
103344,141315,8022,-0.067,-0.921,-0.278,1.341,-0.854,-0.305,527.792
103358,141089,19647,-0.069,-0.932,-0.262,1.22,-0.854,-0.976,527.796
103358,141297,8018,-0.067,-0.933,-0.259,1.22,-0.854,-0.976,527.802
103383,141089,19647,-0.064,-0.926,-0.271,0.793,-0.549,-0.366,527.806
103383,141304,8020,-0.068,-0.92,-0.275,0.793,-0.549,-0.366,527.812
103358,141345,19647,-0.072,-0.927,-0.273,-0.671,0.427,0.061,527.816
103358,141331,8023,-0.069,-0.937,-0.273,-0.671,0.427,0.061,527.822
103371,141345,19647,-0.068,-0.934,-0.277,-0.61,1.22,0.244,527.826
103371,141325,8018,-0.067,-0.923,-0.284,-0.61,1.22,0.244,527.832
103379,141345,19647,-0.066,-0.911,-0.298,-0.976,1.28,0.61,527.835
103379,141334,8024,-0.073,-0.917,-0.299,-0.976,1.28,0.61,527.842
103381,141345,19647,-0.074,-0.93,-0.295,-0.366,0.915,0.732,527.845
103381,141331,8023,-0.072,-0.929,-0.294,-0.366,0.915,0.732,527.852
103409,141345,19647,-0.07,-0.918,-0.292,1.098,0.122,0.61,527.855
103409,141362,8011,-0.067,-0.908,-0.292,1.098,0.122,0.61,527.861
103374,141345,19647,-0.07,-0.914,-0.281,0.976,-0.488,0.427,527.865
103374,141324,8026,-0.073,-0.919,-0.288,0.976,-0.488,0.427,527.871
103377,141345,19647,-0.073,-0.926,-0.284,0.549,-0.549,0.305,527.875
103377,141346,8007,-0.072,-0.931,-0.272,0.549,-0.549,0.305,527.881
103396,141345,19647,-0.07,-0.931,-0.244,0.793,-0.305,0,527.885
103396,141358,8014,-0.065,-0.921,-0.242,0.793,-0.305,0,527.891
103409,141345,19647,-0.062,-0.911,-0.276,-0.671,0.305,0.305,527.895
103409,141373,8023,-0.069,-0.923,-0.28,-0.671,0.305,0.305,527.901
103440,141345,19647,-0.083,-0.941,-0.278,-2.317,1.524,0.854,527.905
103440,141388,8032,-0.08,-0.945,-0.276,-2.317,1.524,0.854,527.911
103453,141345,19647,-0.07,-0.932,-0.281,-1.28,1.707,0.793,527.915
103453,141355,8028,-0.066,-0.903,-0.299,-1.28,1.707,0.793,527.921
103430,141345,19647,-0.071,-0.907,-0.306,-1.22,1.098,0.732,527.925
103430,141388,8026,-0.077,-0.925,-0.282,-1.22,1.098,0.732,527.931
103442,141345,19647,-0.073,-0.918,-0.285,-0.305,0.671,0.61,527.934
103442,141403,8034,-0.07,-0.91,-0.305,-0.305,0.671,0.61,527.941
103416,141345,19647,-0.07,-0.923,-0.298,-0.183,0,-0.061,527.944
103416,141381,8029,-0.068,-0.92,-0.291,-0.183,0,-0.061,527.951
103417,141345,19647,-0.07,-0.917,-0.289,0.976,-0.61,0,527.954
103417,141391,8014,-0.07,-0.929,-0.269,0.976,-0.61,0,527.96
103419,141345,19647,-0.065,-0.921,-0.274,1.22,-0.732,-0.061,527.964
103419,141371,8039,-0.063,-0.909,-0.294,1.22,-0.732,-0.061,527.97
103391,141345,19647,-0.072,-0.921,-0.287,-0.305,-0.244,0.183,527.974
103391,141374,8012,-0.075,-0.931,-0.278,-0.305,-0.244,0.183,527.98
103431,141345,19647,-0.072,-0.929,-0.281,-0.061,0.183,0.305,527.984
103431,141382,8015,-0.069,-0.923,-0.289,-0.061,0.183,0.305,527.99
103428,141345,19647,-0.071,-0.918,-0.291,-0.122,0.366,0.122,527.994
103428,141370,8039,-0.073,-0.92,-0.29,-0.122,0.366,0.122,528
103418,141345,19647,-0.073,-0.92,-0.29,-0.122,0.366,0.122,528.004
103418,141415,8026,-0.076,-0.927,-0.267,0.549,0.305,0.183,528.01
103442,141345,19647,-0.076,-0.927,-0.267,0.549,0.305,0.183,528.014
103442,141400,8016,-0.059,-0.909,-0.286,0.61,0,-0.061,528.02
103448,141345,19647,-0.059,-0.909,-0.286,0.61,0,-0.061,528.024
103448,141412,8041,-0.073,-0.94,-0.259,-0.976,0,-0.122,528.03
103452,141345,19647,-0.073,-0.94,-0.259,-0.976,0,-0.122,528.033
103452,141414,8026,-0.067,-0.922,-0.261,-0.732,0.427,0.305,528.04
103449,141345,19647,-0.067,-0.922,-0.261,-0.732,0.427,0.305,528.043
103449,141392,8036,-0.07,-0.915,-0.287,-1.829,0.915,0.549,528.049
103469,141345,19647,-0.07,-0.915,-0.287,-1.829,0.915,0.549,528.053
103469,141389,8030,-0.082,-0.935,-0.303,-2.439,1.463,0.732,528.059
103448,141345,19647,-0.082,-0.935,-0.303,-2.439,1.463,0.732,528.063
103448,141375,8031,-0.071,-0.916,-0.314,-0.305,1.463,0.671,528.069
103440,141345,19647,-0.071,-0.916,-0.314,-0.305,1.463,0.671,528.073
103440,141385,8035,-0.072,-0.914,-0.3,2.073,0.488,0,528.079
103447,141345,19647,-0.072,-0.914,-0.3,2.073,0.488,0,528.083
103447,141394,8033,-0.065,-0.908,-0.293,2.927,-0.793,-0.427,528.089
103443,141345,19647,-0.065,-0.908,-0.293,2.927,-0.793,-0.427,528.093
103443,141393,8043,-0.068,-0.93,-0.261,1.951,-1.341,-0.671,528.099
103441,141345,19647,-0.068,-0.93,-0.261,1.951,-1.341,-0.671,528.103
103441,141412,8023,-0.051,-0.918,-0.246,1.402,-1.22,-0.854,528.109
103443,141345,19647,-0.051,-0.918,-0.246,1.402,-1.22,-0.854,528.113
103443,141412,8025,-0.068,-0.932,-0.275,-1.768,-0.305,-0.122,528.119
103412,141345,19647,-0.068,-0.932,-0.275,-1.768,-0.305,-0.122,528.123
103412,141347,8022,-0.079,-0.945,-0.282,-3.293,1.524,0.854,528.129
103418,141345,19647,-0.079,-0.945,-0.282,-3.293,1.524,0.854,528.132
103418,141369,8045,-0.068,-0.92,-0.295,-1.28,2.134,1.159,528.139
103404,141345,19647,-0.068,-0.92,-0.295,-1.28,2.134,1.159,528.142
103404,141355,8014,-0.069,-0.91,-0.301,0.305,1.402,0.915,528.149
103391,141345,19647,-0.071,-0.916,-0.304,0.305,1.402,0.915,528.152
103391,141344,8032,-0.076,-0.924,-0.297,0.793,0.671,1.098,528.158
103354,141345,19647,-0.079,-0.917,-0.291,0.793,0.671,1.098,528.162
103354,141335,8020,-0.071,-0.909,-0.295,1.28,-0.122,0.488,528.168
103359,141345,19647,-0.067,-0.912,-0.287,1.28,-0.122,0.488,528.172
103359,141340,8021,-0.072,-0.922,-0.255,1.463,-0.671,-0.183,528.178
103379,141345,19647,-0.068,-0.925,-0.244,1.463,-0.671,-0.183,528.182
103379,141351,8026,-0.062,-0.917,-0.265,-0.305,-0.488,0.061,528.188
103365,141345,19647,-0.063,-0.922,-0.277,-0.305,-0.488,0.061,528.192
103365,141329,8020,-0.07,-0.937,-0.261,-2.134,0.671,0.427,528.198
103392,141345,19647,-0.072,-0.942,-0.241,-2.134,0.671,0.427,528.202
103392,141343,8024,-0.068,-0.93,-0.25,-1.951,1.829,0.976,528.208
103383,141345,19647,-0.067,-0.912,-0.282,-1.951,1.829,0.976,528.212
103383,141343,8039,-0.07,-0.913,-0.303,-4.146,2.744,1.098,528.218
103402,141345,19647,-0.08,-0.932,-0.307,-4.146,2.744,1.098,528.222
103402,141339,8015,-0.085,-0.943,-0.317,-2.927,2.988,1.402,528.228
103410,141345,19647,-0.079,-0.929,-0.324,-2.927,2.988,1.402,528.231
103410,141320,8016,-0.078,-0.912,-0.331,0.488,1.585,0.854,528.238
103371,141345,19647,-0.072,-0.909,-0.327,0.488,1.585,0.854,528.241
103371,141329,8031,-0.069,-0.912,-0.31,3.11,-0.61,0,528.248
103402,141345,19647,-0.065,-0.913,-0.298,3.11,-0.61,0,528.251
103402,141341,8023,-0.068,-0.909,-0.294,3.293,-1.829,-0.244,528.257
103415,141345,19647,-0.065,-0.907,-0.283,3.293,-1.829,-0.244,528.261
103415,141346,8018,-0.066,-0.915,-0.268,2.744,-1.951,-0.854,528.267
103406,141345,19647,-0.064,-0.921,-0.262,2.744,-1.951,-0.854,528.271
103406,141357,8035,-0.063,-0.921,-0.253,1.768,-1.707,-0.671,528.277
103429,141345,19647,-0.065,-0.927,-0.252,1.768,-1.707,-0.671,528.281
103429,141379,8015,-0.07,-0.933,-0.26,-0.305,-0.488,-0.366,528.287
103398,141345,19647,-0.067,-0.936,-0.262,-0.305,-0.488,-0.366,528.291
103398,141346,8020,-0.072,-0.931,-0.27,-0.732,0.61,0.183,528.297
103424,141345,19647,-0.074,-0.927,-0.282,-0.732,0.61,0.183,528.301
103424,141353,8024,-0.069,-0.926,-0.289,-1.037,1.341,0.61,528.307
103420,141345,19647,-0.072,-0.929,-0.295,-1.037,1.341,0.61,528.311
103420,141390,8016,-0.075,-0.929,-0.296,-0.305,1.22,0.61,528.317
103433,141345,19647,-0.075,-0.925,-0.287,-0.305,1.22,0.61,528.321
103433,141376,8010,-0.072,-0.913,-0.275,0.976,0.366,0.488,528.327
103460,141345,19647,-0.068,-0.909,-0.276,0.976,0.366,0.488,528.331
103460,141411,8031,-0.064,-0.909,-0.282,0.549,-0.244,0.183,528.337
103457,141345,19647,-0.069,-0.915,-0.285,0.549,-0.244,0.183,528.34
103457,141377,8026,-0.073,-0.924,-0.279,0.061,-0.122,0.244,528.347
103471,141345,19647,-0.072,-0.93,-0.275,0.061,-0.122,0.244,528.35
103471,141404,8031,-0.069,-0.929,-0.275,0.305,0.122,0.183,528.356
103450,141345,19647,-0.068,-0.927,-0.277,0.305,0.122,0.183,528.36
103450,141360,8026,-0.067,-0.929,-0.265,0.183,0.366,0.488,528.366
103469,141345,19647,-0.067,-0.926,-0.266,0.183,0.366,0.488,528.37
103469,141381,8034,-0.07,-0.917,-0.29,-0.915,0.854,0.732,528.376
103437,141345,19647,-0.072,-0.919,-0.29,-0.915,0.854,0.732,528.38
103437,141381,8032,-0.077,-0.923,-0.276,-1.463,1.28,0.793,528.386
103427,141345,19647,-0.072,-0.92,-0.282,-1.463,1.28,0.793,528.39
103427,141386,8031,-0.068,-0.92,-0.293,-1.402,1.159,0.366,528.396
103451,141345,19647,-0.067,-0.924,-0.293,-1.402,1.159,0.366,528.4
103451,141394,8018,-0.07,-0.922,-0.286,-1.22,0.854,0.305,528.406
103437,141345,19647,-0.072,-0.916,-0.29,-1.22,0.854,0.305,528.41
103437,141379,8024,-0.069,-0.92,-0.291,-0.366,0.427,0.244,528.416
103474,141345,19647,-0.07,-0.919,-0.294,-0.366,0.427,0.244,528.42
103474,141386,8038,-0.07,-0.915,-0.303,0.732,-0.122,0.122,528.426
103495,141345,19647,-0.071,-0.916,-0.289,0.732,-0.122,0.122,528.429
103495,141410,8027,-0.07,-0.923,-0.283,1.524,-0.732,-0.122,528.436
103466,141345,19647,-0.065,-0.921,-0.282,1.524,-0.732,-0.122,528.439
103466,141423,8039,-0.064,-0.924,-0.272,1.28,-0.854,-0.244,528.446
103496,141345,19647,-0.068,-0.928,-0.252,1.28,-0.854,-0.244,528.449
103496,141423,8028,-0.066,-0.919,-0.254,0.671,-0.427,0.122,528.456
103454,141345,19647,-0.066,-0.911,-0.274,0.671,-0.427,0.122,528.459
103454,141398,8035,-0.07,-0.925,-0.275,-1.463,0.549,0.305,528.465
103478,141345,19647,-0.073,-0.943,-0.265,-1.463,0.549,0.305,528.469
103478,141405,8041,-0.073,-0.941,-0.266,-2.073,1.829,0.549,528.475
103456,141345,19647,-0.064,-0.923,-0.281,-2.073,1.829,0.549,528.479
103456,141427,8036,-0.067,-0.916,-0.297,-2.134,1.951,0.854,528.485
103486,141345,19647,-0.072,-0.922,-0.3,-2.134,1.951,0.854,528.489
103486,141433,8036,-0.076,-0.929,-0.297,-1.28,1.646,1.159,528.495
103492,141345,19647,-0.076,-0.922,-0.297,-1.28,1.646,1.159,528.499
103492,141428,8037,-0.07,-0.916,-0.297,0.305,0.671,0.854,528.505
103499,141345,19647,-0.069,-0.91,-0.303,0.305,0.671,0.854,528.509
103499,141417,8033,-0.068,-0.912,-0.301,0.915,-0.427,0.366,528.515
103488,141345,19647,-0.073,-0.915,-0.294,0.915,-0.427,0.366,528.519
103488,141421,8043,-0.072,-0.92,-0.278,1.585,-0.915,0.122,528.525
103477,141345,19647,-0.07,-0.923,-0.257,1.585,-0.915,0.122,528.529
103477,141398,8028,-0.062,-0.916,-0.257,1.159,-1.037,-0.305,528.535
103467,141345,19647,-0.057,-0.911,-0.273,1.159,-1.037,-0.305,528.538
103467,141399,8021,-0.067,-0.923,-0.273,-0.61,-0.305,-0.061,528.545
103452,141345,19647,-0.074,-0.934,-0.267,-0.61,-0.305,-0.061,528.548
103452,141391,8024,-0.073,-0.94,-0.264,-1.159,0.854,0.427,528.554
103449,141345,19647,-0.068,-0.94,-0.258,-1.159,0.854,0.427,528.558
103449,141399,8018,-0.068,-0.924,-0.26,-1.585,1.341,0.549,528.564
103428,141345,19647,-0.066,-0.908,-0.28,-1.585,1.341,0.549,528.568
103428,141375,8044,-0.074,-0.913,-0.294,-2.805,1.89,1.159,528.574
103429,141345,19647,-0.077,-0.93,-0.301,-2.805,1.89,1.159,528.578
103429,141359,8022,-0.076,-0.934,-0.307,-2.317,2.073,1.037,528.584
103424,141345,19647,-0.077,-0.933,-0.309,-2.317,2.073,1.037,528.588
103424,141358,8026,-0.073,-0.924,-0.304,0.488,1.098,0.61,528.594
103410,141345,19647,-0.073,-0.924,-0.304,0.488,1.098,0.61,528.598
103410,141397,8029,-0.068,-0.909,-0.302,2.195,-0.305,0.366,528.604
103420,141345,19647,-0.068,-0.909,-0.302,2.195,-0.305,0.366,528.608
103420,141356,8018,-0.065,-0.915,-0.277,2.134,-1.037,0.061,528.614
103412,141345,19647,-0.065,-0.915,-0.277,2.134,-1.037,0.061,528.618
103412,141374,8012,-0.067,-0.919,-0.269,1.341,-1.037,-0.183,528.624
103413,141345,19647,-0.067,-0.919,-0.269,1.341,-1.037,-0.183,528.628
103413,141353,8016,-0.064,-0.922,-0.26,0.427,-0.61,0.122,528.634
103387,141345,19647,-0.064,-0.922,-0.26,0.427,-0.61,0.122,528.637
103387,141366,8019,-0.065,-0.929,-0.26,-1.22,0.366,0.427,528.644
103409,141345,19647,-0.065,-0.929,-0.26,-1.22,0.366,0.427,528.647
103409,141348,8027,-0.072,-0.926,-0.279,-2.256,1.524,0.732,528.654
103437,141345,19647,-0.072,-0.926,-0.279,-2.256,1.524,0.732,528.657
103437,141376,8025,-0.074,-0.931,-0.292,-1.585,2.012,0.732,528.663
103429,141345,19647,-0.074,-0.931,-0.292,-1.585,2.012,0.732,528.667
103429,141397,8021,-0.072,-0.921,-0.289,-0.488,1.341,0.549,528.673
103462,141345,19647,-0.072,-0.921,-0.289,-0.488,1.341,0.549,528.677
103462,141386,8028,-0.07,-0.917,-0.301,0,0.427,0.488,528.683
103483,141345,19647,-0.07,-0.917,-0.301,0,0.427,0.488,528.687
103483,141424,8024,-0.072,-0.92,-0.271,0.671,-0.366,0.305,528.693
103486,141345,19647,-0.072,-0.92,-0.271,0.671,-0.366,0.305,528.697
103486,141423,8041,-0.067,-0.926,-0.243,0.671,-0.549,0.183,528.703
103503,141345,19647,-0.067,-0.926,-0.243,0.671,-0.549,0.183,528.707
103503,141405,8022,-0.065,-0.915,-0.282,-2.5,0.671,0.793,528.713
103460,141345,19647,-0.065,-0.915,-0.282,-2.5,0.671,0.793,528.717
103460,141412,8031,-0.081,-0.951,-0.251,-2.744,2.073,1.098,528.723
103454,141345,19647,-0.081,-0.951,-0.251,-2.744,2.073,1.098,528.727
103454,141395,8012,-0.063,-0.909,-0.299,-2.256,2.256,1.037,528.733
103469,141345,19647,-0.063,-0.909,-0.299,-2.256,2.256,1.037,528.736
103469,141400,8026,-0.07,-0.915,-0.304,-2.256,2.256,1.037,528.743
103500,141345,19647,-0.078,-0.926,-0.308,-2.439,2.561,1.22,528.746
103500,141419,8039,-0.079,-0.928,-0.317,-2.439,2.561,1.22,528.752
103503,141345,19647,-0.077,-0.926,-0.326,0.061,1.829,1.037,528.756
103503,141417,8026,-0.072,-0.914,-0.323,0.061,1.829,1.037,528.762
103498,141345,19647,-0.069,-0.905,-0.315,3.232,0.061,0.244,528.766
103498,141419,8031,-0.069,-0.903,-0.299,3.232,0.061,0.244,528.772
103493,141345,19647,-0.068,-0.903,-0.287,4.024,-1.585,-0.305,528.776
103493,141431,8033,-0.064,-0.905,-0.283,4.024,-1.585,-0.305,528.782
103512,141345,19647,-0.064,-0.91,-0.275,2.378,-1.951,-0.915,528.786
103512,141417,8022,-0.061,-0.915,-0.266,2.378,-1.951,-0.915,528.792
103493,141345,19647,-0.065,-0.923,-0.266,0.976,-1.524,-1.037,528.796
103493,141408,8047,-0.065,-0.935,-0.265,0.976,-1.524,-1.037,528.802
103484,141345,19647,-0.066,-0.947,-0.267,0.183,-0.61,-0.61,528.806
103484,141416,8021,-0.068,-0.945,-0.262,0.183,-0.61,-0.61,528.812
103476,141345,19647,-0.062,-0.932,-0.271,-0.732,0.305,0.305,528.816
103476,141403,8039,-0.067,-0.925,-0.281,-0.732,0.305,0.305,528.822
103491,141345,19647,-0.077,-0.933,-0.28,-1.341,1.159,0.976,528.826
103491,141412,8033,-0.076,-0.936,-0.277,-1.341,1.159,0.976,528.832
103457,141345,19647,-0.072,-0.922,-0.282,-0.793,1.28,1.159,528.835
103457,141391,8018,-0.073,-0.91,-0.288,-0.793,1.28,1.159,528.842
103483,141345,19647,-0.078,-0.907,-0.294,-0.549,0.854,0.915,528.845
103483,141431,8039,-0.079,-0.917,-0.291,-0.549,0.854,0.915,528.852
103508,141345,19647,-0.076,-0.926,-0.283,0.305,0.244,0.427,528.855
103508,141414,8021,-0.073,-0.923,-0.283,0.305,0.244,0.427,528.861
103511,141345,19647,-0.072,-0.919,-0.277,0.915,-0.305,-0.122,528.865
103511,141432,8039,-0.069,-0.913,-0.274,0.915,-0.305,-0.122,528.871
103505,141345,19647,-0.067,-0.917,-0.279,0.183,-0.549,-0.244,528.875
103505,141439,8034,-0.067,-0.927,-0.276,0.183,-0.549,-0.244,528.881
103520,141345,19647,-0.07,-0.931,-0.274,-0.305,-0.061,0,528.885
103520,141420,8033,-0.075,-0.929,-0.28,-0.305,-0.061,0,528.891
103485,141345,19647,-0.073,-0.926,-0.279,-0.183,0.305,0.183,528.895
103485,141412,8032,-0.069,-0.925,-0.27,-0.183,0.305,0.183,528.901
103496,141345,19647,-0.07,-0.919,-0.269,-0.305,0.427,0.366,528.905
103496,141423,8039,-0.068,-0.916,-0.283,-0.305,0.427,0.366,528.911
103517,141345,19647,-0.068,-0.921,-0.284,-1.28,0.793,0.366,528.915
103517,141431,8033,-0.073,-0.924,-0.279,-1.28,0.793,0.366,528.921
103497,141345,19647,-0.072,-0.919,-0.287,-1.22,0.793,0.366,528.925
103497,141446,8038,-0.072,-0.924,-0.283,-1.22,0.793,0.366,528.931
103513,141345,19647,-0.069,-0.923,-0.273,-0.549,0.549,0.122,528.934
103513,141462,8024,-0.066,-0.915,-0.277,-0.549,0.549,0.122,528.941
103525,141345,19647,-0.063,-0.914,-0.286,-1.646,0.427,0.427,528.944
103525,141448,8040,-0.071,-0.926,-0.292,-1.646,0.427,0.427,528.951
103520,141345,19647,-0.074,-0.928,-0.297,-1.585,0.732,0.732,528.954
103520,141453,8032,-0.075,-0.924,-0.297,-1.585,0.732,0.732,528.96
103525,141345,19647,-0.072,-0.92,-0.289,0.183,0.549,0.488,528.964
103525,141469,8040,-0.068,-0.919,-0.286,0.183,0.549,0.488,528.97
103515,141345,19647,-0.066,-0.917,-0.292,1.037,0.061,0.244,528.974
103515,141459,8045,-0.07,-0.921,-0.292,1.037,0.061,0.244,528.98
103518,141345,19647,-0.075,-0.921,-0.294,0.915,-0.305,0.305,528.984
103518,141431,8041,-0.076,-0.919,-0.291,0.915,-0.305,0.305,528.99
103510,141345,19647,-0.075,-0.918,-0.28,1.22,-0.488,0.061,528.994
103510,141426,8042,-0.071,-0.916,-0.279,1.22,-0.488,0.061,529
103496,141345,19647,-0.068,-0.925,-0.278,1.159,-0.488,-0.366,529.004
103496,141424,8024,-0.069,-0.93,-0.271,1.159,-0.488,-0.366,529.01
103536,141345,19647,-0.07,-0.927,-0.269,0.793,-0.244,-0.183,529.014
103536,141461,8041,-0.07,-0.924,-0.265,0.793,-0.244,-0.183,529.02
103527,141345,19647,-0.07,-0.922,-0.252,-0.183,0.122,0.061,529.023
103527,141464,8043,-0.068,-0.921,-0.251,-0.183,0.122,0.061,529.03
103539,141345,19647,-0.065,-0.923,-0.263,-1.768,0.732,0.122,529.033
103539,141439,8040,-0.065,-0.932,-0.272,-1.768,0.732,0.122,529.04
103519,141345,19647,-0.069,-0.936,-0.261,-3.049,1.646,0.549,529.043
103519,141458,8029,-0.07,-0.922,-0.282,-3.049,1.646,0.549,529.049
103516,141345,19647,-0.068,-0.923,-0.302,-3.415,2.195,1.037,529.053
103516,141442,8025,-0.071,-0.937,-0.293,-3.415,2.195,1.037,529.059
103500,141345,19647,-0.071,-0.929,-0.292,-1.585,1.829,1.159,529.063
103500,141439,8026,-0.064,-0.916,-0.307,-1.585,1.829,1.159,529.069
103497,141345,19647,-0.069,-0.91,-0.315,-0.61,1.28,1.22,529.073
103497,141454,8029,-0.076,-0.91,-0.335,-0.61,1.28,1.22,529.079
103503,141345,19647,-0.08,-0.92,-0.326,0.671,0.488,0.915,529.083
103503,141424,8040,-0.073,-0.923,-0.298,0.671,0.488,0.915,529.089
103496,141345,19647,-0.067,-0.916,-0.293,2.683,-1.098,0.122,529.093
103496,141432,8030,-0.06,-0.907,-0.29,2.683,-1.098,0.122,529.099
103472,141345,19647,-0.063,-0.914,-0.278,2.256,-1.524,-0.305,529.103
103472,141423,8034,-0.067,-0.923,-0.261,2.256,-1.524,-0.305,529.109
103473,141345,19647,-0.07,-0.921,-0.25,1.341,-1.037,0.122,529.113
103473,141420,8027,-0.064,-0.916,-0.265,1.341,-1.037,0.122,529.119
103499,141345,19647,-0.066,-0.92,-0.27,-0.854,-0.183,0.061,529.123
103499,141397,8018,-0.071,-0.937,-0.264,-0.854,-0.183,0.061,529.129
103489,141345,19647,-0.077,-0.945,-0.262,-0.915,0.732,0.366,529.132
103489,141403,8030,-0.075,-0.94,-0.266,-0.915,0.732,0.366,529.139
103485,141345,19647,-0.074,-0.927,-0.27,-0.732,1.524,0.793,529.142
103485,141402,8035,-0.073,-0.915,-0.279,-0.732,1.524,0.793,529.148
103473,141345,19647,-0.071,-0.918,-0.286,-1.28,1.402,0.976,529.152
103473,141401,8027,-0.075,-0.925,-0.29,-1.28,1.402,0.976,529.158
103472,141345,19647,-0.076,-0.929,-0.295,-1.463,1.341,1.037,529.162
103472,141384,8029,-0.075,-0.932,-0.279,-1.463,1.341,1.037,529.168
103482,141345,19647,-0.068,-0.929,-0.26,-0.488,0.976,0.854,529.172
103482,141401,8023,-0.063,-0.912,-0.279,-0.488,0.976,0.854,529.178
103493,141345,19647,-0.067,-0.904,-0.29,-1.159,0.61,1.159,529.182
103493,141378,8021,-0.077,-0.916,-0.289,-1.159,0.61,1.159,529.188
103453,141345,19647,-0.077,-0.916,-0.289,-1.159,0.61,1.159,529.192
103453,141380,8023,-0.079,-0.927,-0.284,-1.402,1.22,1.402,529.198
103443,141345,19647,-0.079,-0.927,-0.284,-1.402,1.22,1.402,529.202
103443,141374,8028,-0.065,-0.908,-0.291,-0.061,0.915,0.854,529.208
103428,141345,19647,-0.065,-0.908,-0.291,-0.061,0.915,0.854,529.212
103428,141360,8016,-0.077,-0.922,-0.299,-0.122,0.488,0.61,529.218
103437,141345,19647,-0.077,-0.922,-0.299,-0.122,0.488,0.61,529.222
103437,141352,8017,-0.07,-0.929,-0.273,-0.366,0.366,0.671,529.228
103453,141345,19647,-0.07,-0.929,-0.273,-0.366,0.366,0.671,529.231
103453,141347,8027,-0.067,-0.907,-0.28,-0.061,0,0.244,529.238
103436,141345,19647,-0.067,-0.907,-0.28,-0.061,0,0.244,529.241
103436,141362,8034,-0.073,-0.924,-0.27,-0.854,0.061,0.244,529.248
103461,141345,19647,-0.073,-0.924,-0.27,-0.854,0.061,0.244,529.251
103461,141368,8035,-0.069,-0.936,-0.274,-1.768,0.488,0.488,529.257
103457,141345,19647,-0.069,-0.936,-0.274,-1.768,0.488,0.488,529.261
103457,141365,8020,-0.07,-0.917,-0.276,-1.524,0.976,0.732,529.267
103453,141345,19647,-0.07,-0.917,-0.276,-1.524,0.976,0.732,529.271
103453,141383,8017,-0.079,-0.922,-0.289,-1.463,1.28,0.976,529.277
103443,141345,19647,-0.079,-0.922,-0.289,-1.463,1.28,0.976,529.281
103443,141370,8018,-0.075,-0.919,-0.297,-1.402,1.22,0.915,529.287
103432,141345,19647,-0.075,-0.919,-0.297,-1.402,1.22,0.915,529.291
103432,141372,8017,-0.075,-0.917,-0.3,-0.61,0.854,0.793,529.297
103438,141345,19647,-0.075,-0.917,-0.3,-0.61,0.854,0.793,529.301
103438,141367,8022,-0.072,-0.917,-0.286,0.427,0.305,0.488,529.307
103442,141345,19647,-0.072,-0.917,-0.286,0.427,0.305,0.488,529.311
103442,141367,8036,-0.066,-0.925,-0.284,0.854,-0.427,-0.061,529.317
103473,141345,19647,-0.066,-0.925,-0.284,0.854,-0.427,-0.061,529.321
103473,141398,8021,-0.064,-0.918,-0.258,0.122,-0.427,-0.244,529.327
103483,141345,19647,-0.064,-0.918,-0.258,0.122,-0.427,-0.244,529.331
103483,141418,8028,-0.065,-0.909,-0.286,-1.646,0.122,0.427,529.337
103503,141345,19647,-0.071,-0.929,-0.28,-1.646,0.122,0.427,529.34
103503,141417,8019,-0.075,-0.945,-0.275,-2.256,0.976,0.732,529.347
103548,141345,19647,-0.074,-0.937,-0.283,-2.256,0.976,0.732,529.35
103548,141446,8033,-0.075,-0.924,-0.283,-1.098,1.341,1.098,529.356
103520,141345,19647,-0.072,-0.912,-0.28,-1.098,1.341,1.098,529.36
103520,141425,8030,-0.069,-0.912,-0.293,-0.549,0.915,1.098,529.366
103510,141345,19647,-0.077,-0.92,-0.298,-0.549,0.915,1.098,529.37
103510,141427,8038,-0.079,-0.926,-0.285,-0.305,0.671,0.854,529.376
103478,141345,19647,-0.074,-0.92,-0.287,-0.305,0.671,0.854,529.38
103478,141403,8014,-0.07,-0.912,-0.292,-0.122,0.427,0.427,529.386
103486,141345,19647,-0.068,-0.917,-0.29,-0.122,0.427,0.427,529.39
103486,141383,8025,-0.069,-0.922,-0.276,-0.305,0.061,0.366,529.396
103465,141345,19647,-0.071,-0.921,-0.272,-0.305,0.061,0.366,529.4
103465,141405,8035,-0.067,-0.925,-0.263,-0.732,0.183,0.427,529.406
103466,141345,19647,-0.062,-0.927,-0.258,-0.732,0.183,0.427,529.41
103466,141388,8042,-0.064,-0.916,-0.29,-1.951,0.854,0.732,529.416
103456,141345,19647,-0.073,-0.924,-0.295,-1.951,0.854,0.732,529.42
103456,141380,8041,-0.081,-0.936,-0.284,-2.195,1.646,1.341,529.426
103474,141345,19647,-0.076,-0.936,-0.279,-2.195,1.646,1.341,529.429
103474,141389,8022,-0.075,-0.923,-0.288,-0.915,1.646,1.159,529.436
103475,141345,19647,-0.072,-0.913,-0.296,-0.915,1.646,1.159,529.439
103475,141375,8027,-0.073,-0.91,-0.303,-0.793,1.22,0.976,529.446
103466,141345,19647,-0.078,-0.911,-0.313,-0.793,1.22,0.976,529.449
103466,141386,8027,-0.082,-0.917,-0.309,-0.305,0.976,0.976,529.456
103498,141345,19647,-0.075,-0.921,-0.304,-0.305,0.976,0.976,529.459
103498,141382,8031,-0.071,-0.918,-0.302,0.976,0,0.244,529.465
103488,141345,19647,-0.07,-0.915,-0.283,0.976,0,0.244,529.469
103488,141367,8031,-0.064,-0.912,-0.27,1.402,-1.037,-0.122,529.475
103452,141345,19647,-0.065,-0.911,-0.282,1.402,-1.037,-0.122,529.479
103452,141388,8035,-0.068,-0.921,-0.284,0.061,-0.671,0.122,529.485
103444,141345,19647,-0.076,-0.939,-0.261,0.061,-0.671,0.122,529.489
103444,141363,8008,-0.071,-0.94,-0.247,-0.122,-0.061,0.305,529.495
103445,141345,19647,-0.058,-0.921,-0.267,-0.122,-0.061,0.305,529.499
103445,141362,8013,-0.061,-0.912,-0.28,-1.585,0.549,0.732,529.505
103451,141345,19647,-0.074,-0.928,-0.277,-1.585,0.549,0.732,529.509
103451,141361,8019,-0.081,-0.937,-0.274,-1.951,1.646,1.28,529.515
103433,141345,19647,-0.078,-0.93,-0.281,-1.951,1.646,1.28,529.519
103433,141347,8031,-0.073,-0.91,-0.299,-1.402,1.829,1.28,529.525
103435,141345,19647,-0.071,-0.907,-0.307,-1.402,1.829,1.28,529.529
103435,141365,8004,-0.075,-0.92,-0.305,-0.854,1.463,0.976,529.535
103425,141345,19647,-0.074,-0.929,-0.301,-0.854,1.463,0.976,529.538
103425,141368,8019,-0.076,-0.919,-0.295,0.305,0.854,0.915,529.545
103447,141345,19647,-0.075,-0.907,-0.306,0.305,0.854,0.915,529.548
103447,141365,8012,-0.072,-0.911,-0.293,0.854,-0.122,0.244,529.554
103442,141345,19647,-0.069,-0.923,-0.276,0.854,-0.122,0.244,529.558
103442,141387,8018,-0.067,-0.923,-0.279,0.488,-0.549,0.061,529.564
103464,141345,19647,-0.067,-0.919,-0.289,0.488,-0.549,0.061,529.568
103464,141363,8004,-0.074,-0.919,-0.276,-0.915,-0.122,0.366,529.574
103472,141345,19647,-0.075,-0.925,-0.266,-0.915,-0.122,0.366,529.578
103472,141398,8018,-0.07,-0.927,-0.269,-1.037,0.366,0.61,529.584
103479,141345,19647,-0.071,-0.927,-0.27,-1.037,0.366,0.61,529.588
103479,141404,8027,-0.07,-0.931,-0.265,-1.524,1.098,0.854,529.594
103457,141345,19647,-0.069,-0.925,-0.276,-1.524,1.098,0.854,529.598
103457,141376,8015,-0.074,-0.921,-0.286,-2.439,1.707,1.159,529.604
103449,141345,19647,-0.078,-0.926,-0.285,-2.439,1.707,1.159,529.608
103449,141402,8020,-0.078,-0.92,-0.297,-1.463,1.951,1.159,529.614
103483,141345,19647,-0.077,-0.915,-0.306,-1.463,1.951,1.159,529.618
103483,141398,8033,-0.077,-0.918,-0.297,-0.488,1.524,0.671,529.624
103476,141345,19647,-0.071,-0.916,-0.299,-0.488,1.524,0.671,529.628
103476,141393,8025,-0.071,-0.913,-0.308,0.183,0.61,0.305,529.634
103461,141345,19647,-0.077,-0.916,-0.305,0.183,0.61,0.305,529.637
103461,141401,8026,-0.077,-0.919,-0.295,0.793,-0.122,0.183,529.644
103456,141345,19647,-0.072,-0.924,-0.281,0.793,-0.122,0.183,529.647
103456,141405,8036,-0.065,-0.926,-0.271,0.854,-0.671,0,529.654
103436,141345,19647,-0.061,-0.914,-0.284,0.854,-0.671,0,529.657
103436,141351,8031,-0.069,-0.92,-0.286,-0.427,-0.244,0.366,529.663
103430,141345,19647,-0.078,-0.935,-0.272,-0.427,-0.244,0.366,529.667
103430,141356,8017,-0.073,-0.927,-0.267,-0.427,0.427,0.915,529.673
103441,141345,19647,-0.067,-0.915,-0.281,-0.427,0.427,0.915,529.677
103441,141367,8008,-0.069,-0.914,-0.279,-1.524,0.976,0.976,529.683
103433,141345,19647,-0.072,-0.926,-0.28,-1.524,0.976,0.976,529.687
103433,141378,8020,-0.076,-0.932,-0.288,-1.768,1.585,0.976,529.693
103440,141345,19647,-0.076,-0.928,-0.292,-1.768,1.585,0.976,529.697
103440,141379,8013,-0.078,-0.923,-0.286,-0.915,1.585,0.793,529.703
103463,141345,19647,-0.072,-0.91,-0.294,-0.915,1.585,0.793,529.707
103463,141373,8015,-0.068,-0.912,-0.295,-0.244,0.976,0.427,529.713
103474,141345,19647,-0.072,-0.926,-0.278,-0.244,0.976,0.427,529.717
103474,141381,8004,-0.066,-0.922,-0.293,-0.366,0.671,0.427,529.723
103493,141345,19647,-0.068,-0.915,-0.306,-0.366,0.671,0.427,529.727
103493,141377,8015,-0.07,-0.922,-0.293,-1.159,0.488,0.549,529.733
103467,141345,19647,-0.072,-0.922,-0.288,-1.159,0.488,0.549,529.736
103467,141404,8028,-0.068,-0.921,-0.294,-0.183,0.427,0.549,529.743
103466,141345,19647,-0.07,-0.922,-0.301,-0.183,0.427,0.549,529.746
103466,141377,8020,-0.072,-0.92,-0.305,0.549,0.488,0.61,529.753
103466,141345,19647,-0.074,-0.917,-0.306,0.549,0.488,0.61,529.756
103466,141379,8035,-0.079,-0.919,-0.299,1.463,0.122,0.549,529.762
103450,141345,19647,-0.077,-0.923,-0.281,1.463,0.122,0.549,529.766
103450,141376,8016,-0.07,-0.92,-0.265,2.012,-0.427,0.061,529.772
103445,141345,19647,-0.067,-0.907,-0.266,2.012,-0.427,0.061,529.776
103445,141347,8020,-0.066,-0.907,-0.279,0.183,-0.488,-0.122,529.782
103444,141345,19647,-0.066,-0.907,-0.279,0.183,-0.488,-0.122,529.786
103444,141363,8033,-0.078,-0.932,-0.276,-1.585,0.549,0.061,529.792
103449,141345,19647,-0.078,-0.932,-0.276,-1.585,0.549,0.061,529.796
103449,141362,8020,-0.071,-0.937,-0.268,-1.341,1.098,0.183,529.802
103466,141345,19647,-0.071,-0.937,-0.268,-1.341,1.098,0.183,529.806
103466,141384,8021,-0.074,-0.917,-0.302,-1.037,1.22,0.488,529.812
103431,141345,19647,-0.074,-0.917,-0.302,-1.037,1.22,0.488,529.816
103431,141384,8033,-0.081,-0.931,-0.3,-0.183,0.854,0.976,529.822
103476,141345,19647,-0.081,-0.931,-0.3,-0.183,0.854,0.976,529.826
103476,141386,8031,-0.078,-0.912,-0.294,1.037,0,0.671,529.832
103447,141345,19647,-0.078,-0.912,-0.294,1.037,0,0.671,529.835
103447,141391,8029,-0.072,-0.905,-0.299,0.976,-0.61,0.061,529.842
103445,141345,19647,-0.072,-0.905,-0.299,0.976,-0.61,0.061,529.845
103445,141363,8017,-0.074,-0.92,-0.283,0.671,-0.671,-0.183,529.852
103456,141345,19647,-0.074,-0.92,-0.283,0.671,-0.671,-0.183,529.855
103456,141405,8001,-0.075,-0.92,-0.296,0.732,-0.427,-0.366,529.861
103457,141345,19647,-0.075,-0.92,-0.296,0.732,-0.427,-0.366,529.865
103457,141378,8026,-0.072,-0.919,-0.268,1.402,-0.427,-0.366,529.871
103467,141345,19647,-0.072,-0.919,-0.268,1.402,-0.427,-0.366,529.875
103467,141411,8022,-0.07,-0.919,-0.291,0.244,-0.122,-0.488,529.881
103451,141345,19647,-0.07,-0.919,-0.291,0.244,-0.122,-0.488,529.885
103451,141380,8026,-0.073,-0.938,-0.278,-0.366,0.366,-0.183,529.891
103477,141345,19647,-0.073,-0.938,-0.278,-0.366,0.366,-0.183,529.895
103477,141413,8015,-0.068,-0.916,-0.272,-0.305,0.366,0.061,529.901
103475,141345,19647,-0.068,-0.916,-0.272,-0.305,0.366,0.061,529.905
103475,141404,8016,-0.074,-0.92,-0.299,-1.341,0.61,0.183,529.911
103463,141345,19647,-0.074,-0.92,-0.299,-1.341,0.61,0.183,529.915
103463,141392,8025,-0.077,-0.92,-0.299,0.122,0.549,0.366,529.921
103434,141345,19647,-0.077,-0.92,-0.299,0.122,0.549,0.366,529.925
103434,141355,8012,-0.072,-0.912,-0.293,1.341,-0.061,-0.183,529.931
103427,141345,19647,-0.072,-0.912,-0.293,1.341,-0.061,-0.183,529.934
103427,141359,8020,-0.072,-0.911,-0.287,1.341,-0.061,-0.183,529.941
103422,141345,19647,-0.071,-0.914,-0.291,1.646,-0.671,-0.427,529.944
103422,141353,8008,-0.073,-0.92,-0.284,1.646,-0.671,-0.427,529.951
103393,141345,19647,-0.071,-0.924,-0.283,1.22,-0.793,-0.549,529.954
103393,141356,8018,-0.071,-0.927,-0.285,1.22,-0.793,-0.549,529.96
103402,141345,19647,-0.067,-0.928,-0.277,0.854,-0.671,-0.549,529.964
103402,141328,8013,-0.068,-0.932,-0.257,0.854,-0.671,-0.549,529.97
103388,141345,19647,-0.067,-0.931,-0.241,0.854,-0.427,-0.244,529.974
103388,141367,8017,-0.062,-0.918,-0.266,0.854,-0.427,-0.244,529.98
103423,141345,19647,-0.066,-0.916,-0.289,-1.402,0.793,0.061,529.984
103423,141381,8028,-0.075,-0.931,-0.282,-1.402,0.793,0.061,529.99
103428,141345,19647,-0.077,-0.935,-0.281,-1.89,1.646,0.549,529.994
103428,141345,8008,-0.073,-0.927,-0.291,-1.89,1.646,0.549,530
103418,141345,19647,-0.07,-0.921,-0.302,-0.854,1.646,0.488,530.004
103418,141355,8032,-0.069,-0.917,-0.312,-0.854,1.646,0.488,530.01
103446,141345,19647,-0.071,-0.918,-0.315,0.244,0.915,0.366,530.014
103446,141379,8021,-0.071,-0.922,-0.313,0.244,0.915,0.366,530.02
103455,141345,19647,-0.069,-0.922,-0.304,1.524,-0.366,0.305,530.024
103455,141392,8025,-0.067,-0.92,-0.299,1.524,-0.366,0.305,530.03
103480,141345,19647,-0.063,-0.914,-0.278,2.073,-1.159,-0.183,530.033
103480,141371,8018,-0.065,-0.912,-0.264,2.073,-1.159,-0.183,530.04
103433,141345,19647,-0.068,-0.913,-0.263,1.159,-1.159,0.061,530.043
103433,141375,8020,-0.067,-0.918,-0.274,1.159,-1.159,0.061,530.049
103423,141345,19647,-0.072,-0.926,-0.277,-0.732,-0.061,0.427,530.053
103423,141344,8014,-0.077,-0.932,-0.263,-0.732,-0.061,0.427,530.059
103421,141345,19647,-0.077,-0.934,-0.255,-0.61,0.854,0.61,530.063
103421,141376,8000,-0.067,-0.932,-0.247,-0.61,0.854,0.61,530.069
103436,141345,19647,-0.062,-0.92,-0.265,-1.707,1.524,0.732,530.073
103436,141325,8015,-0.073,-0.92,-0.285,-1.707,1.524,0.732,530.079
103412,141345,19647,-0.081,-0.932,-0.292,-3.537,2.5,1.159,530.083
103412,141362,8023,-0.084,-0.936,-0.307,-3.537,2.5,1.159,530.089
103436,141345,19647,-0.082,-0.929,-0.305,-2.317,2.378,1.341,530.093
103436,141388,8016,-0.076,-0.917,-0.31,-2.317,2.378,1.341,530.099
103421,141345,19647,-0.075,-0.914,-0.321,0.366,1.037,0.732,530.103
103421,141364,8015,-0.077,-0.919,-0.319,0.366,1.037,0.732,530.109
103423,141345,19647,-0.076,-0.919,-0.295,2.622,-0.122,0.427,530.113
103423,141348,8022,-0.07,-0.911,-0.289,2.622,-0.122,0.427,530.119
103429,141345,19647,-0.062,-0.902,-0.295,2.927,-1.22,-0.061,530.123
103429,141333,8022,-0.065,-0.902,-0.28,2.927,-1.22,-0.061,530.129
103423,141345,19647,-0.073,-0.913,-0.266,1.646,-1.341,-0.549,530.133
103423,141346,8012,-0.072,-0.921,-0.265,1.646,-1.341,-0.549,530.139
103426,141345,19647,-0.067,-0.925,-0.271,0.305,-0.61,-0.366,530.142
103426,141353,8011,-0.069,-0.925,-0.278,0.305,-0.61,-0.366,530.149
103414,141345,19647,-0.071,-0.926,-0.282,-0.305,0.305,-0.244,530.152
103414,141336,8024,-0.076,-0.928,-0.285,-0.305,0.305,-0.244,530.158
103431,141345,19647,-0.076,-0.927,-0.289,-0.183,0.915,0,530.162
103431,141374,8015,-0.072,-0.929,-0.287,-0.183,0.915,0,530.168
103431,141345,19647,-0.07,-0.927,-0.295,-0.183,1.037,-0.244,530.172
103431,141352,8018,-0.072,-0.927,-0.294,-0.183,1.037,-0.244,530.178
103424,141345,19647,-0.076,-0.926,-0.286,0.305,0.488,0.122,530.182
103424,141345,8014,-0.071,-0.92,-0.28,0.305,0.488,0.122,530.188
103450,141345,19647,-0.07,-0.919,-0.289,0.427,-0.061,0.305,530.192
103450,141357,8004,-0.069,-0.915,-0.283,0.427,-0.061,0.305,530.198
103442,141345,19647,-0.069,-0.915,-0.274,0.183,-0.244,0.244,530.202
103442,141326,8043,-0.065,-0.921,-0.276,0.183,-0.244,0.244,530.208
103426,141345,19647,-0.067,-0.922,-0.274,0,-0.122,0.244,530.212
103426,141351,8014,-0.071,-0.926,-0.267,0,-0.122,0.244,530.218
103455,141345,19647,-0.067,-0.923,-0.269,-0.732,0.305,0.366,530.222
103455,141337,8013,-0.064,-0.921,-0.284,-0.732,0.305,0.366,530.228
103432,141345,19647,-0.069,-0.925,-0.286,-1.768,0.915,0.732,530.232
103432,141335,8011,-0.075,-0.932,-0.283,-1.768,0.915,0.732,530.238
103423,141345,19647,-0.079,-0.93,-0.283,-1.098,1.402,0.915,530.241
103423,141342,8017,-0.076,-0.919,-0.294,-1.098,1.402,0.915,530.248
103423,141345,19647,-0.071,-0.914,-0.297,-0.61,1.22,0.61,530.251
103423,141338,8005,-0.074,-0.919,-0.299,-0.61,1.22,0.61,530.257
103437,141345,19647,-0.074,-0.918,-0.299,-0.061,0.732,0.183,530.261
103437,141369,8010,-0.074,-0.92,-0.29,-0.061,0.732,0.183,530.267
103450,141345,19647,-0.071,-0.917,-0.287,0.732,0.244,-0.183,530.271
103450,141370,8031,-0.066,-0.918,-0.28,0.732,0.244,-0.183,530.277
103462,141345,19647,-0.064,-0.92,-0.279,0.976,-0.244,-0.305,530.281
103462,141367,8018,-0.064,-0.926,-0.272,0.976,-0.244,-0.305,530.287
103474,141345,19647,-0.066,-0.934,-0.262,0,-0.183,-0.061,530.291
103474,141371,8018,-0.066,-0.925,-0.269,0,-0.183,-0.061,530.297
103451,141345,19647,-0.069,-0.921,-0.293,-1.341,0.671,0.366,530.301
103451,141365,8018,-0.073,-0.927,-0.297,-1.341,0.671,0.366,530.307
103447,141345,19647,-0.075,-0.933,-0.292,-1.037,1.037,0.854,530.311
103447,141345,8025,-0.076,-0.934,-0.284,-1.037,1.037,0.854,530.317
103438,141345,19647,-0.074,-0.926,-0.273,0.244,0.793,0.854,530.321
103438,141330,8033,-0.07,-0.908,-0.279,0.244,0.793,0.854,530.327
103441,141345,19647,-0.069,-0.898,-0.299,-0.366,0.549,0.732,530.331
103441,141361,7999,-0.078,-0.911,-0.296,-0.366,0.549,0.732,530.337
103421,141345,19647,-0.081,-0.935,-0.274,-0.61,0.732,0.61,530.34
103421,141361,8019,-0.072,-0.931,-0.266,-0.61,0.732,0.61,530.347
103424,141345,19647,-0.064,-0.906,-0.291,-0.488,0.671,0.061,530.35
103424,141316,8021,-0.068,-0.906,-0.3,-0.488,0.671,0.061,530.357
103431,141345,19647,-0.077,-0.925,-0.293,-1.463,0.854,0.183,530.36
103431,141343,8010,-0.078,-0.929,-0.299,-1.463,0.854,0.183,530.366
103424,141345,19647,-0.08,-0.93,-0.305,-0.183,0.732,0.305,530.37
103424,141334,8011,-0.073,-0.924,-0.298,-0.183,0.732,0.305,530.376
103439,141345,19647,-0.071,-0.915,-0.298,1.28,-0.061,-0.305,530.38
103439,141320,8016,-0.069,-0.916,-0.292,1.28,-0.061,-0.305,530.386
103441,141345,19647,-0.069,-0.916,-0.292,1.28,-0.061,-0.305,530.39
103441,141342,8023,-0.071,-0.925,-0.262,1.768,-0.854,-0.305,530.396
103429,141345,19647,-0.071,-0.925,-0.262,1.768,-0.854,-0.305,530.4
103429,141335,8011,-0.064,-0.915,-0.285,0.549,-0.732,-0.183,530.406
103399,141345,19647,-0.064,-0.915,-0.285,0.549,-0.732,-0.183,530.41
103399,141331,8017,-0.068,-0.939,-0.248,-0.549,-0.122,-0.122,530.416
103412,141345,19647,-0.068,-0.939,-0.248,-0.549,-0.122,-0.122,530.42
103412,141329,8000,-0.062,-0.914,-0.289,-0.854,0.732,0.305,530.426
103420,141345,19647,-0.062,-0.914,-0.289,-0.854,0.732,0.305,530.43
103420,141321,8022,-0.076,-0.934,-0.287,-2.317,1.585,0.854,530.436
103435,141345,19647,-0.076,-0.934,-0.287,-2.317,1.585,0.854,530.439
103435,141340,8006,-0.07,-0.916,-0.294,-0.915,1.585,1.28,530.446
103439,141345,19647,-0.07,-0.916,-0.294,-0.915,1.585,1.28,530.449
103439,141336,8003,-0.068,-0.914,-0.306,-0.488,0.915,0.976,530.456
103432,141345,19647,-0.068,-0.914,-0.306,-0.488,0.915,0.976,530.459
103432,141349,8027,-0.078,-0.926,-0.299,-0.122,0.61,0.793,530.465
103431,141345,19647,-0.078,-0.926,-0.299,-0.122,0.61,0.793,530.469
103431,141365,8021,-0.072,-0.909,-0.29,1.28,-0.061,0.549,530.475
103438,141345,19647,-0.072,-0.909,-0.29,1.28,-0.061,0.549,530.479
103438,141359,8003,-0.065,-0.914,-0.279,1.585,-0.732,-0.122,530.485
103447,141345,19647,-0.065,-0.914,-0.279,1.585,-0.732,-0.122,530.489
103447,141330,8014,-0.073,-0.929,-0.287,0.305,-0.488,-0.122,530.495
103439,141345,19647,-0.073,-0.929,-0.287,0.305,-0.488,-0.122,530.499
103439,141344,8011,-0.065,-0.926,-0.263,0.122,0.183,-0.122,530.505
103463,141345,19647,-0.065,-0.926,-0.263,0.122,0.183,-0.122,530.509
103463,141364,8009,-0.066,-0.917,-0.292,-0.183,0.183,0.061,530.515
103440,141345,19647,-0.066,-0.917,-0.292,-0.183,0.183,0.061,530.519
103440,141352,8010,-0.078,-0.94,-0.285,-1.28,0.915,0.549,530.525
103465,141345,19647,-0.078,-0.94,-0.285,-1.28,0.915,0.549,530.529
103465,141384,8019,-0.073,-0.928,-0.28,-0.305,1.22,0.671,530.535
103466,141345,19647,-0.07,-0.911,-0.28,-0.305,1.22,0.671,530.538
103466,141342,8016,-0.07,-0.901,-0.29,0,0.793,0.366,530.545
103468,141345,19647,-0.075,-0.914,-0.295,0,0.793,0.366,530.548
103468,141372,8019,-0.077,-0.935,-0.278,-0.427,0.488,0.244,530.555
103470,141345,19647,-0.069,-0.935,-0.267,-0.427,0.488,0.244,530.558
103470,141377,8027,-0.065,-0.915,-0.281,-0.732,0.366,0.244,530.564
103469,141345,19647,-0.068,-0.911,-0.287,-0.732,0.366,0.244,530.568
103469,141371,8009,-0.071,-0.923,-0.287,-1.524,0.793,0.488,530.574
103484,141345,19647,-0.076,-0.934,-0.293,-1.524,0.793,0.488,530.578
103484,141390,8025,-0.077,-0.927,-0.294,-1.159,1.037,0.854,530.584
103510,141345,19647,-0.073,-0.923,-0.296,-1.159,1.037,0.854,530.588
103510,141410,8027,-0.074,-0.921,-0.29,-0.488,0.61,0.671,530.594
103528,141345,19647,-0.069,-0.916,-0.285,-0.488,0.61,0.671,530.598
103528,141402,8022,-0.073,-0.914,-0.289,0.305,0.244,0.488,530.604
103536,141345,19647,-0.073,-0.915,-0.289,0.305,0.244,0.488,530.608
103536,141424,8027,-0.067,-0.92,-0.294,0.427,0.183,0.305,530.614
103534,141345,19647,-0.07,-0.919,-0.289,0.427,0.183,0.305,530.618
103534,141412,8022,-0.07,-0.923,-0.28,0.854,-0.122,0.061,530.624
103518,141345,19647,-0.072,-0.928,-0.258,0.854,-0.122,0.061,530.628
103518,141408,8020,-0.065,-0.919,-0.253,1.28,0,0,530.634
103526,141345,19647,-0.067,-0.909,-0.28,1.28,0,0,530.637
103526,141455,8045,-0.068,-0.919,-0.297,-0.427,0.732,0.122,530.644
103576,141345,19647,-0.073,-0.934,-0.285,-0.427,0.732,0.122,530.647
103576,141469,8038,-0.08,-0.934,-0.289,-0.427,1.159,0.488,530.654
103584,141345,19647,-0.076,-0.924,-0.291,-0.427,1.159,0.488,530.657
103584,141448,8038,-0.068,-0.92,-0.289,0.793,0.854,0.305,530.663
103601,141345,19647,-0.069,-0.912,-0.302,0.793,0.854,0.305,530.667
103601,141484,8024,-0.074,-0.917,-0.296,0.976,0.122,0.244,530.673
103596,141345,19647,-0.076,-0.93,-0.276,0.976,0.122,0.244,530.677
103596,141450,8031,-0.069,-0.925,-0.253,0.976,-0.366,0.305,530.683
103609,141345,19647,-0.059,-0.909,-0.258,0.976,-0.366,0.305,530.687
103609,141482,8046,-0.061,-0.906,-0.288,-1.341,0.122,0.183,530.693
103612,141345,19647,-0.068,-0.923,-0.294,-1.341,0.122,0.183,530.697
103612,141465,8020,-0.074,-0.94,-0.283,-2.256,1.159,0.732,530.703
103648,141345,19647,-0.073,-0.938,-0.28,-2.256,1.159,0.732,530.707
103648,141492,8033,-0.071,-0.919,-0.299,-0.976,1.402,0.915,530.713
103625,141345,19647,-0.072,-0.913,-0.305,-0.976,1.402,0.915,530.717
103625,141473,8031,-0.075,-0.92,-0.305,0.244,1.037,0.61,530.723
103646,141345,19647,-0.078,-0.923,-0.303,0.244,1.037,0.61,530.727
103646,141494,8029,-0.078,-0.924,-0.298,1.829,0.061,0.427,530.733
103662,141345,19647,-0.075,-0.912,-0.297,1.829,0.061,0.427,530.736
103662,141492,8034,-0.071,-0.906,-0.301,2.073,-1.037,-0.244,530.743
103649,141345,19647,-0.072,-0.92,-0.284,2.073,-1.037,-0.244,530.746
103649,141484,8024,-0.071,-0.93,-0.256,2.378,-1.402,-0.549,530.753
103643,141345,19647,-0.066,-0.925,-0.259,2.378,-1.402,-0.549,530.756
103643,141511,8061,-0.063,-0.916,-0.272,1.28,-1.098,-0.488,530.762
103685,141345,19647,-0.065,-0.923,-0.27,1.28,-1.098,-0.488,530.766
103685,141492,8038,-0.068,-0.931,-0.268,-0.122,0,0.061,530.772
103682,141345,19647,-0.068,-0.932,-0.267,-0.122,0,0.061,530.776
103682,141504,8039,-0.068,-0.93,-0.272,-0.122,0.854,0.488,530.782
103670,141345,19647,-0.07,-0.928,-0.271,-0.122,0.854,0.488,530.786
103670,141540,8046,-0.069,-0.919,-0.278,-0.976,1.159,0.732,530.792
103703,141345,19647,-0.071,-0.915,-0.299,-0.976,1.159,0.732,530.796
103703,141540,8050,-0.076,-0.928,-0.294,-1.768,1.159,0.915,530.802
103682,141345,19647,-0.075,-0.933,-0.282,-1.768,1.159,0.915,530.806
103682,141522,8048,-0.071,-0.924,-0.272,-0.671,0.671,0.793,530.812
103688,141345,19647,-0.071,-0.91,-0.287,-0.671,0.671,0.793,530.816
103688,141546,8052,-0.073,-0.909,-0.3,-0.915,0.427,0.549,530.822
103692,141345,19647,-0.077,-0.922,-0.292,-0.915,0.427,0.549,530.826
103692,141564,8032,-0.079,-0.93,-0.29,-0.305,0.183,0.549,530.832
103665,141345,19647,-0.079,-0.923,-0.288,-0.305,0.183,0.549,530.835
103665,141563,8032,-0.067,-0.918,-0.281,0.549,-0.061,0.122,530.842
103682,141345,19647,-0.069,-0.915,-0.291,0.549,-0.061,0.122,530.845
103682,141538,8038,-0.068,-0.915,-0.299,0.183,-0.122,0,530.852
103704,141345,19647,-0.072,-0.929,-0.286,0.183,-0.122,0,530.855
103704,141537,8033,-0.076,-0.932,-0.272,-0.061,-0.183,0,530.861
103707,141345,19647,-0.069,-0.928,-0.254,-0.061,-0.183,0,530.865
103707,141552,8031,-0.061,-0.916,-0.264,-0.549,0,0,530.871
103686,141345,19647,-0.067,-0.914,-0.287,-0.549,0,0,530.875
103686,141555,8051,-0.073,-0.926,-0.284,-2.317,0.793,0.427,530.881
103697,141345,19647,-0.077,-0.936,-0.278,-2.317,0.793,0.427,530.885
103697,141537,8039,-0.077,-0.938,-0.28,-1.341,1.341,0.671,530.891
103677,141345,19647,-0.07,-0.935,-0.274,-1.341,1.341,0.671,530.895
103677,141542,8048,-0.065,-0.922,-0.255,-0.061,1.098,0.61,530.901
103666,141345,19647,-0.061,-0.91,-0.277,-0.061,1.098,0.61,530.905
103666,141524,8030,-0.065,-0.915,-0.299,-1.463,1.159,0.976,530.911
103672,141345,19647,-0.078,-0.92,-0.299,-1.463,1.159,0.976,530.915
103672,141525,8042,-0.082,-0.922,-0.309,-1.707,1.768,1.159,530.921
103670,141345,19647,-0.077,-0.92,-0.311,-1.707,1.768,1.159,530.925
103670,141526,8037,-0.069,-0.921,-0.303,0.61,0.976,0.488,530.931
103684,141345,19647,-0.068,-0.919,-0.292,0.61,0.976,0.488,530.934
103684,141503,8037,-0.067,-0.915,-0.282,1.89,-0.366,0.244,530.941
103669,141345,19647,-0.063,-0.908,-0.278,1.89,-0.366,0.244,530.944
103669,141510,8044,-0.066,-0.901,-0.29,0.61,-0.549,0.305,530.951
103639,141345,19647,-0.075,-0.917,-0.29,0.61,-0.549,0.305,530.954
103639,141489,8028,-0.078,-0.932,-0.258,-0.061,-0.122,0.183,530.96
103616,141345,19647,-0.069,-0.923,-0.261,-0.061,-0.122,0.183,530.964
103616,141493,8034,-0.062,-0.915,-0.28,-0.915,0.305,0,530.97
103651,141345,19647,-0.066,-0.924,-0.284,-0.915,0.305,0,530.974
103651,141529,8035,-0.074,-0.933,-0.289,-2.012,1.159,0.305,530.98
103615,141345,19647,-0.074,-0.933,-0.289,-2.012,1.159,0.305,530.984
103615,141487,8046,-0.081,-0.937,-0.277,-0.671,1.524,0.671,530.99
103636,141345,19647,-0.081,-0.937,-0.277,-0.671,1.524,0.671,530.994
103636,141482,8038,-0.062,-0.913,-0.279,-0.244,1.037,0.427,531
103649,141345,19647,-0.062,-0.913,-0.279,-0.244,1.037,0.427,531.004
103649,141478,8047,-0.076,-0.921,-0.297,-1.768,1.159,0.915,531.01
103627,141345,19647,-0.076,-0.921,-0.297,-1.768,1.159,0.915,531.014
103627,141490,8046,-0.076,-0.932,-0.274,-0.488,1.22,1.098,531.02
103640,141345,19647,-0.076,-0.932,-0.274,-0.488,1.22,1.098,531.024
103640,141495,8053,-0.065,-0.905,-0.297,0.122,0.732,0.732,531.03
103625,141345,19647,-0.065,-0.905,-0.297,0.122,0.732,0.732,531.034
103625,141460,8032,-0.076,-0.928,-0.273,-0.061,0.549,0.915,531.04
103626,141345,19647,-0.076,-0.928,-0.273,-0.061,0.549,0.915,531.043
103626,141484,8040,-0.067,-0.906,-0.3,-0.671,0.732,0.671,531.05
103609,141345,19647,-0.067,-0.906,-0.3,-0.671,0.732,0.671,531.053
103609,141489,8032,-0.08,-0.924,-0.306,-0.366,0.671,0.305,531.059
103602,141345,19647,-0.08,-0.924,-0.306,-0.366,0.671,0.305,531.063
103602,141489,8030,-0.067,-0.939,-0.24,0.854,0.122,0,531.069
103634,141345,19647,-0.067,-0.939,-0.24,0.854,0.122,0,531.073
103634,141480,8046,-0.065,-0.894,-0.322,-2.012,0.427,0,531.079
103632,141345,19647,-0.065,-0.894,-0.322,-2.012,0.427,0,531.083
103632,141457,8046,-0.083,-0.946,-0.28,-1.098,0.915,0.549,531.089
103650,141345,19647,-0.083,-0.946,-0.28,-1.098,0.915,0.549,531.093
103650,141504,8029,-0.067,-0.915,-0.275,0.549,0.732,0.244,531.099
103669,141345,19647,-0.067,-0.915,-0.275,0.549,0.732,0.244,531.103
103669,141489,8050,-0.068,-0.913,-0.291,0,0.488,0.305,531.109
103643,141345,19647,-0.068,-0.913,-0.291,0,0.488,0.305,531.113
103643,141477,8039,-0.074,-0.929,-0.293,-0.549,0.549,0.61,531.119
103649,141345,19647,-0.074,-0.929,-0.293,-0.549,0.549,0.61,531.123
103649,141481,8049,-0.072,-0.92,-0.298,-0.549,0.549,0.61,531.129
103643,141345,19647,-0.07,-0.912,-0.292,0.427,0.244,0.488,531.133
103643,141496,8031,-0.073,-0.911,-0.295,0.427,0.244,0.488,531.139
103627,141345,19647,-0.07,-0.918,-0.285,1.646,-0.122,0.122,531.142
103627,141460,8054,-0.075,-0.93,-0.269,1.646,-0.122,0.122,531.149
103634,141345,19647,-0.073,-0.928,-0.253,1.098,-0.366,-0.061,531.152
103634,141486,8036,-0.065,-0.907,-0.272,1.098,-0.366,-0.061,531.159
103610,141345,19647,-0.066,-0.901,-0.3,-1.28,0.061,0.183,531.162
103610,141455,8029,-0.076,-0.924,-0.282,-1.28,0.061,0.183,531.168
103635,141345,19647,-0.079,-0.943,-0.27,-1.22,0.793,0.122,531.172
103635,141462,8031,-0.07,-0.935,-0.262,-1.22,0.793,0.122,531.178
103628,141345,19647,-0.065,-0.918,-0.28,-0.915,1.098,-0.122,531.182
103628,141468,8027,-0.064,-0.912,-0.303,-0.915,1.098,-0.122,531.188
103628,141345,19647,-0.072,-0.928,-0.301,-1.646,1.159,0.427,531.192
103628,141464,8038,-0.078,-0.944,-0.296,-1.646,1.159,0.427,531.198
103637,141345,19647,-0.075,-0.94,-0.283,-0.061,0.854,0.915,531.202
103637,141486,8023,-0.069,-0.912,-0.29,-0.061,0.854,0.915,531.208
103646,141345,19647,-0.068,-0.896,-0.307,0.366,0.183,0.671,531.212
103646,141493,8032,-0.075,-0.908,-0.304,0.366,0.183,0.671,531.218
103624,141345,19647,-0.075,-0.928,-0.292,1.341,-0.183,0.427,531.222
103624,141493,8032,-0.074,-0.927,-0.279,1.341,-0.183,0.427,531.228
103646,141345,19647,-0.068,-0.917,-0.274,2.317,-0.549,0.122,531.232
103646,141486,8038,-0.066,-0.902,-0.285,2.317,-0.549,0.122,531.238
103610,141345,19647,-0.067,-0.906,-0.295,1.159,-0.61,-0.244,531.241
103610,141478,8041,-0.074,-0.924,-0.28,1.159,-0.61,-0.244,531.248
103649,141345,19647,-0.078,-0.937,-0.267,0.732,-0.366,-0.244,531.251
103649,141478,8039,-0.071,-0.936,-0.243,0.732,-0.366,-0.244,531.258
103630,141345,19647,-0.061,-0.918,-0.256,-0.183,-0.061,-0.427,531.261
103630,141468,8036,-0.059,-0.912,-0.295,-0.183,-0.061,-0.427,531.267
103613,141345,19647,-0.075,-0.929,-0.292,-2.683,0.976,0.122,531.271
103613,141479,8046,-0.085,-0.945,-0.281,-2.683,0.976,0.122,531.277
103629,141345,19647,-0.08,-0.942,-0.281,-1.768,1.585,0.915,531.281
103629,141479,8034,-0.07,-0.927,-0.284,-1.768,1.585,0.915,531.287
103660,141345,19647,-0.066,-0.905,-0.294,-0.915,1.22,0.732,531.291
103660,141498,8033,-0.072,-0.905,-0.309,-0.915,1.22,0.732,531.297
103639,141345,19647,-0.079,-0.92,-0.314,-0.793,0.915,0.976,531.301
103639,141505,8037,-0.082,-0.927,-0.308,-0.793,0.915,0.976,531.307
103683,141345,19647,-0.081,-0.923,-0.296,0.854,0.061,0.61,531.311
103683,141510,8040,-0.073,-0.914,-0.29,0.854,0.061,0.61,531.317
103643,141345,19647,-0.062,-0.908,-0.281,2.073,-1.037,-0.305,531.321
103643,141476,8027,-0.068,-0.916,-0.266,2.073,-1.037,-0.305,531.327
103664,141345,19647,-0.07,-0.928,-0.241,1.28,-1.098,-0.305,531.331
103664,141509,8046,-0.061,-0.922,-0.251,1.28,-1.098,-0.305,531.337
103684,141345,19647,-0.06,-0.921,-0.281,-1.524,0.061,0,531.34
103684,141492,8042,-0.068,-0.929,-0.277,-1.524,0.061,0,531.347
103642,141345,19647,-0.075,-0.938,-0.271,-2.439,1.402,0.488,531.35
103642,141458,8027,-0.074,-0.939,-0.271,-2.439,1.402,0.488,531.357
103672,141345,19647,-0.068,-0.928,-0.281,-1.28,2.073,0.976,531.36
103672,141522,8041,-0.067,-0.913,-0.3,-1.28,2.073,0.976,531.366
103666,141345,19647,-0.068,-0.913,-0.313,-1.28,1.768,1.159,531.37
103666,141471,8034,-0.077,-0.924,-0.315,-1.28,1.768,1.159,531.376
103665,141345,19647,-0.08,-0.932,-0.298,-0.061,1.341,1.159,531.38
103665,141478,8018,-0.074,-0.924,-0.283,-0.061,1.341,1.159,531.386
103661,141345,19647,-0.063,-0.907,-0.298,1.402,0.122,0.549,531.39
103661,141501,8042,-0.064,-0.907,-0.305,1.402,0.122,0.549,531.396
103687,141345,19647,-0.073,-0.913,-0.297,0.732,-0.671,0.549,531.4
103687,141502,8039,-0.079,-0.916,-0.289,0.732,-0.671,0.549,531.406
103669,141345,19647,-0.079,-0.925,-0.267,1.037,-0.671,0.366,531.41
103669,141525,8034,-0.066,-0.911,-0.27,1.037,-0.671,0.366,531.416
103677,141345,19647,-0.061,-0.901,-0.293,0.366,-0.793,-0.244,531.42
103677,141480,8031,-0.069,-0.923,-0.289,0.366,-0.793,-0.244,531.426
103630,141345,19647,-0.076,-0.938,-0.284,0.061,-0.122,0,531.43
103630,141492,8048,-0.077,-0.941,-0.281,0.061,-0.122,0,531.436
103654,141345,19647,-0.072,-0.929,-0.274,0.732,0.183,0.183,531.44
103654,141480,8027,-0.066,-0.916,-0.281,0.732,0.183,0.183,531.446
103641,141345,19647,-0.068,-0.915,-0.284,0.976,0.061,0.305,531.449
103641,141489,8038,-0.073,-0.923,-0.277,0.976,0.061,0.305,531.456
103673,141345,19647,-0.074,-0.925,-0.274,-0.061,0.427,0.671,531.459
103673,141496,8029,-0.075,-0.922,-0.282,-0.061,0.427,0.671,531.465
103668,141345,19647,-0.073,-0.917,-0.284,-0.488,0.61,0.488,531.469
103668,141507,8039,-0.068,-0.918,-0.276,-0.488,0.61,0.488,531.475
103653,141345,19647,-0.069,-0.921,-0.276,-0.183,0.427,0.488,531.479
103653,141531,8048,-0.071,-0.922,-0.273,-0.183,0.427,0.488,531.485
103687,141345,19647,-0.074,-0.921,-0.285,-0.854,0.61,0.671,531.489
103687,141538,8041,-0.074,-0.932,-0.277,-0.854,0.61,0.671,531.495
103680,141345,19647,-0.07,-0.932,-0.269,-0.732,0.854,0.61,531.499
103680,141501,8044,-0.068,-0.915,-0.292,-0.732,0.854,0.61,531.505
103662,141345,19647,-0.073,-0.911,-0.304,-1.585,1.037,0.915,531.509
103662,141502,8042,-0.08,-0.918,-0.302,-1.585,1.037,0.915,531.515
