103121,140577,19647,-0.086,-0.943,-0.203,-0.793,0.61,0.488,625.442
103121,140679,7895,-0.085,-0.943,-0.195,-0.671,0.671,0.427,625.449
103127,140577,19647,-0.085,-0.943,-0.195,-0.671,0.671,0.427,625.452
103127,140684,7901,-0.09,-0.942,-0.201,-0.61,0.793,0.61,625.459
103125,140577,19647,-0.09,-0.942,-0.201,-0.61,0.793,0.61,625.462
103125,140683,7897,-0.086,-0.94,-0.213,-0.976,0.61,0.671,625.468
103127,140577,19647,-0.086,-0.94,-0.213,-0.976,0.61,0.671,625.472
103127,140680,7898,-0.085,-0.945,-0.211,-0.976,0.427,0.549,625.478
103153,140577,19647,-0.085,-0.945,-0.211,-0.976,0.427,0.549,625.482
103153,140670,7895,-0.084,-0.943,-0.206,-0.244,0.244,0.427,625.488
103110,140577,19647,-0.084,-0.943,-0.206,-0.244,0.244,0.427,625.492
103110,140665,7889,-0.081,-0.939,-0.2,0.244,0.427,0.488,625.498
103123,140577,19647,-0.081,-0.939,-0.2,0.244,0.427,0.488,625.502
103123,140685,7903,-0.085,-0.937,-0.209,0.183,0.488,0.61,625.508
103145,140577,19647,-0.085,-0.937,-0.209,0.183,0.488,0.61,625.512
103145,140650,7889,-0.092,-0.93,-0.208,-0.549,0.305,0.671,625.518
103128,140577,19647,-0.092,-0.93,-0.208,-0.549,0.305,0.671,625.522
103128,140676,7906,-0.084,-0.942,-0.207,-0.549,0.061,0.122,625.528
103130,140577,19647,-0.084,-0.942,-0.207,-0.549,0.061,0.122,625.532
103130,140690,7897,-0.086,-0.951,-0.202,-0.122,0.122,0,625.538
103135,140577,19647,-0.086,-0.951,-0.202,-0.122,0.122,0,625.541
103135,140680,7890,-0.084,-0.938,-0.205,0,0.183,0.244,625.548
103105,140577,19647,-0.084,-0.938,-0.205,0,0.183,0.244,625.551
103105,140681,7899,-0.088,-0.939,-0.204,-0.183,0.244,0.366,625.557
103123,140577,19647,-0.088,-0.939,-0.204,-0.183,0.244,0.366,625.561
103123,140699,7893,-0.086,-0.941,-0.205,-0.183,0.244,0.366,625.567
103137,140577,19647,-0.085,-0.946,-0.204,0.061,0.366,0.183,625.571
103137,140675,7893,-0.082,-0.943,-0.203,0.061,0.366,0.183,625.577
103123,140577,19647,-0.081,-0.938,-0.201,0.305,0.244,0.183,625.581
103123,140674,7915,-0.084,-0.936,-0.201,0.305,0.244,0.183,625.587
103122,140577,19647,-0.083,-0.937,-0.203,0.244,0.244,0.183,625.591
103122,140687,7901,-0.084,-0.942,-0.197,0.244,0.244,0.183,625.597
103115,140577,19647,-0.082,-0.942,-0.203,-0.366,0.366,0.183,625.601
103115,140679,7895,-0.083,-0.943,-0.207,-0.366,0.366,0.183,625.607
103120,140577,19647,-0.085,-0.946,-0.207,-0.793,0.366,0.305,625.611
103120,140672,7899,-0.087,-0.946,-0.206,-0.793,0.366,0.305,625.617
103123,140577,19647,-0.086,-0.943,-0.206,-0.427,0.366,0.305,625.621
103123,140667,7890,-0.084,-0.941,-0.201,-0.427,0.366,0.305,625.627
103118,140577,19647,-0.081,-0.942,-0.201,-0.183,0.366,0.366,625.631
103118,140645,7892,-0.084,-0.943,-0.202,-0.183,0.366,0.366,625.637
103104,140577,19647,-0.085,-0.944,-0.208,-0.183,0.427,0.488,625.64
103104,140701,7898,-0.085,-0.939,-0.212,-0.183,0.427,0.488,625.647
103116,140577,19647,-0.083,-0.938,-0.207,-0.366,0.366,0.549,625.65
103116,140678,7895,-0.085,-0.937,-0.201,-0.366,0.366,0.549,625.657
103102,140577,19647,-0.085,-0.94,-0.2,-0.061,0.427,0.427,625.66
103102,140684,7893,-0.084,-0.94,-0.201,-0.061,0.427,0.427,625.666
103125,140577,19647,-0.082,-0.942,-0.2,-0.122,0.488,0.366,625.67
103125,140671,7896,-0.084,-0.941,-0.201,-0.122,0.488,0.366,625.676
103097,140577,19647,-0.086,-0.942,-0.202,-0.305,0.61,0.549,625.68
103097,140665,7894,-0.084,-0.942,-0.202,-0.305,0.61,0.549,625.686
103085,140577,19647,-0.083,-0.94,-0.199,-0.549,0.732,0.549,625.69
103085,140660,7878,-0.087,-0.941,-0.204,-0.549,0.732,0.549,625.696
103087,140577,19647,-0.086,-0.941,-0.211,-0.854,0.61,0.549,625.7
103087,140672,7901,-0.085,-0.941,-0.207,-0.854,0.61,0.549,625.706
103084,140577,19647,-0.087,-0.943,-0.207,-0.671,0.671,0.488,625.71
103084,140662,7892,-0.086,-0.945,-0.211,-0.671,0.671,0.488,625.716
103101,140577,19647,-0.086,-0.944,-0.208,-0.488,0.61,0.488,625.72
103101,140662,7897,-0.085,-0.938,-0.205,-0.488,0.61,0.488,625.726
103071,140577,19647,-0.086,-0.936,-0.207,-0.366,0.427,0.427,625.73
103071,140628,7876,-0.086,-0.94,-0.206,-0.366,0.427,0.427,625.736
103085,140577,19647,-0.082,-0.945,-0.201,-0.061,0.305,0.244,625.739
103085,140654,7887,-0.08,-0.945,-0.196,-0.061,0.305,0.244,625.746
103108,140577,19647,-0.084,-0.944,-0.195,-0.061,0.427,0.427,625.749
103108,140642,7892,-0.085,-0.94,-0.199,-0.061,0.427,0.427,625.756
103081,140577,19647,-0.086,-0.937,-0.202,-0.488,0.732,0.671,625.759
103081,140645,7885,-0.085,-0.941,-0.206,-0.488,0.732,0.671,625.765
103088,140577,19647,-0.086,-0.942,-0.207,-0.366,0.793,0.488,625.769
103088,140647,7890,-0.084,-0.941,-0.208,-0.366,0.793,0.488,625.775
103061,140577,19647,-0.085,-0.939,-0.21,-0.305,0.793,0.427,625.779
103061,140630,7897,-0.086,-0.939,-0.209,-0.305,0.793,0.427,625.785
103068,140577,19647,-0.083,-0.941,-0.202,-0.183,0.671,0.366,625.789
103068,140675,7876,-0.082,-0.941,-0.208,-0.183,0.671,0.366,625.795
103068,140577,19647,-0.084,-0.942,-0.209,-0.122,0.61,0.244,625.799
103068,140673,7892,-0.083,-0.945,-0.208,-0.122,0.61,0.244,625.805
103075,140577,19647,-0.084,-0.946,-0.207,0,0.488,0.305,625.809
103075,140649,7898,-0.086,-0.94,-0.206,0,0.488,0.305,625.815
103084,140577,19647,-0.085,-0.942,-0.206,-0.122,0.427,0.488,625.819
103084,140665,7881,-0.085,-0.944,-0.209,-0.122,0.427,0.488,625.825
103106,140577,19647,-0.086,-0.941,-0.211,-0.244,0.305,0.488,625.829
103106,140654,7893,-0.09,-0.94,-0.209,-0.244,0.305,0.488,625.835
103098,140577,19647,-0.088,-0.94,-0.201,-0.061,0,0.488,625.838
103098,140657,7897,-0.085,-0.944,-0.198,-0.061,0,0.488,625.845
103121,140577,19647,-0.082,-0.947,-0.197,0.122,0.061,0.427,625.848
103121,140668,7903,-0.084,-0.943,-0.197,0.122,0.061,0.427,625.855
103097,140577,19647,-0.086,-0.936,-0.202,-0.061,0.366,0.549,625.858
103097,140663,7886,-0.09,-0.933,-0.206,-0.061,0.366,0.549,625.864
103129,140577,19647,-0.086,-0.936,-0.205,-0.305,0.549,0.549,625.868
103129,140682,7890,-0.087,-0.942,-0.205,-0.305,0.549,0.549,625.874
103129,140577,19647,-0.087,-0.945,-0.21,-0.122,0.488,0.305,625.878
103129,140685,7899,-0.086,-0.943,-0.201,-0.122,0.488,0.305,625.884
103116,140577,19647,-0.086,-0.943,-0.203,0.061,0.427,0.183,625.888
103116,140695,7902,-0.086,-0.937,-0.211,0.061,0.427,0.183,625.894
103110,140577,19647,-0.087,-0.94,-0.208,0.183,0.305,0.244,625.898
103110,140692,7890,-0.086,-0.939,-0.208,0.183,0.305,0.244,625.904
103132,140577,19647,-0.084,-0.939,-0.211,0.305,0.244,0.122,625.908
103132,140680,7902,-0.084,-0.943,-0.208,0.305,0.244,0.122,625.914
103130,140577,19647,-0.083,-0.945,-0.202,0.549,0.061,0.061,625.918
103130,140672,7894,-0.084,-0.944,-0.205,0.549,0.061,0.061,625.924
103113,140577,19647,-0.085,-0.941,-0.204,0.549,-0.122,0.183,625.928
103113,140691,7888,-0.085,-0.937,-0.198,0.549,-0.122,0.183,625.934
103126,140577,19647,-0.088,-0.938,-0.202,0.061,0.061,0.183,625.937
103126,140681,7908,-0.088,-0.941,-0.204,0.061,0.061,0.183,625.944
103130,140577,19647,-0.086,-0.94,-0.206,-0.122,0.183,0.183,625.947
103130,140665,7901,-0.088,-0.938,-0.207,-0.122,0.183,0.183,625.954
103112,140577,19647,-0.09,-0.939,-0.205,0.122,0.183,0.061,625.957
103112,140695,7882,-0.09,-0.941,-0.202,0.122,0.183,0.061,625.963
103118,140577,19647,-0.087,-0.939,-0.202,0.183,0,-0.061,625.967
103118,140672,7884,-0.083,-0.941,-0.205,0.183,0,-0.061,625.973
103136,140577,19647,-0.085,-0.943,-0.205,-0.244,0,-0.061,625.977
103136,140677,7910,-0.084,-0.94,-0.204,-0.244,0,-0.061,625.983
103114,140577,19647,-0.084,-0.941,-0.208,-0.122,0.122,-0.061,625.987
103114,140701,7907,-0.086,-0.943,-0.208,-0.122,0.122,-0.061,625.993
103108,140577,19647,-0.085,-0.946,-0.205,0.366,-0.122,0,625.997
103108,140676,7902,-0.082,-0.945,-0.198,0.366,-0.122,0,626.003
103097,140577,19647,-0.081,-0.943,-0.2,0.305,-0.183,0.061,626.007
103097,140681,7907,-0.083,-0.945,-0.196,0.305,-0.183,0.061,626.013
103127,140577,19647,-0.083,-0.945,-0.196,0.305,-0.183,0.061,626.017
103127,140667,7894,-0.086,-0.939,-0.193,0.122,0.183,0.183,626.023
103115,140577,19647,-0.086,-0.939,-0.193,0.122,0.183,0.183,626.027
103115,140663,7908,-0.087,-0.933,-0.206,0.122,0.549,0.244,626.033
103108,140577,19647,-0.087,-0.933,-0.206,0.122,0.549,0.244,626.036
103108,140696,7897,-0.085,-0.942,-0.213,0,0.549,0.122,626.043
103122,140577,19647,-0.085,-0.942,-0.213,0,0.549,0.122,626.046
103122,140683,7911,-0.079,-0.948,-0.208,0,0.427,-0.183,626.053
103120,140577,19647,-0.079,-0.948,-0.208,0,0.427,-0.183,626.056
103120,140702,7902,-0.08,-0.943,-0.207,0.183,0.305,0,626.062
103105,140577,19647,-0.08,-0.943,-0.207,0.183,0.305,0,626.066
103105,140703,7900,-0.083,-0.94,-0.199,0.244,0.305,0.183,626.072
103108,140577,19647,-0.083,-0.94,-0.199,0.244,0.305,0.183,626.076
103108,140703,7905,-0.085,-0.941,-0.212,0.488,0.366,0.427,626.082
103100,140577,19647,-0.085,-0.941,-0.212,0.488,0.366,0.427,626.086
103100,140702,7893,-0.085,-0.942,-0.208,0.183,0.366,0.549,626.092
103105,140577,19647,-0.085,-0.942,-0.208,0.183,0.366,0.549,626.096
103105,140689,7890,-0.081,-0.941,-0.197,0.305,0.244,0.427,626.102
103113,140577,19647,-0.081,-0.941,-0.197,0.305,0.244,0.427,626.106
103113,140676,7900,-0.086,-0.941,-0.195,0.183,0.183,0.488,626.112
103091,140577,19647,-0.086,-0.941,-0.195,0.183,0.183,0.488,626.116
103091,140693,7900,-0.088,-0.943,-0.207,-0.183,0.549,0.549,626.122
103123,140577,19647,-0.088,-0.943,-0.207,-0.183,0.549,0.549,626.126
103123,140676,7886,-0.091,-0.945,-0.211,-0.244,0.793,0.549,626.132
103111,140577,19647,-0.091,-0.945,-0.211,-0.244,0.793,0.549,626.135
103111,140665,7893,-0.081,-0.941,-0.198,0.183,0.488,0.366,626.142
103088,140577,19647,-0.081,-0.941,-0.198,0.183,0.488,0.366,626.145
103088,140672,7896,-0.082,-0.934,-0.202,0.366,0.305,0.305,626.152
103108,140577,19647,-0.082,-0.934,-0.202,0.366,0.305,0.305,626.155
103108,140680,7916,-0.085,-0.939,-0.205,-0.122,0.488,0.305,626.161
103096,140577,19647,-0.088,-0.947,-0.204,-0.122,0.488,0.305,626.165
103096,140692,7887,-0.087,-0.945,-0.21,-0.244,0.488,0.427,626.171
103099,140577,19647,-0.087,-0.945,-0.21,-0.244,0.488,0.427,626.175
103099,140672,7908,-0.087,-0.941,-0.203,0.183,0.183,0.427,626.181
103088,140577,19647,-0.085,-0.937,-0.202,0.183,0.183,0.427,626.185
103088,140652,7895,-0.084,-0.939,-0.198,0.061,0.122,0.183,626.191
103103,140577,19647,-0.083,-0.939,-0.198,0.061,0.122,0.183,626.195
103103,140659,7883,-0.085,-0.939,-0.205,-0.549,0.427,0.183,626.201
103078,140577,19647,-0.086,-0.939,-0.209,-0.549,0.427,0.183,626.205
103078,140633,7916,-0.089,-0.942,-0.215,-0.549,0.671,0.183,626.211
103093,140577,19647,-0.089,-0.943,-0.214,-0.549,0.671,0.183,626.215
103093,140649,7901,-0.085,-0.94,-0.209,0,0.244,-0.061,626.221
103098,140577,19647,-0.086,-0.943,-0.201,0,0.244,-0.061,626.225
103098,140664,7896,-0.083,-0.943,-0.196,0.488,-0.122,-0.244,626.231
103091,140577,19647,-0.081,-0.942,-0.197,0.488,-0.122,-0.244,626.234
103091,140670,7882,-0.081,-0.937,-0.2,0.122,-0.061,-0.122,626.241
103094,140577,19647,-0.084,-0.938,-0.206,0.122,-0.061,-0.122,626.244
103094,140683,7895,-0.085,-0.944,-0.207,-0.488,0.305,0.183,626.251
103120,140577,19647,-0.084,-0.944,-0.207,-0.488,0.305,0.183,626.254
103120,140669,7888,-0.085,-0.946,-0.205,-0.244,0.305,0.244,626.26
103124,140577,19647,-0.083,-0.945,-0.199,-0.244,0.305,0.244,626.264
103124,140670,7895,-0.083,-0.941,-0.194,0.61,0.244,0.061,626.27
103131,140577,19647,-0.081,-0.937,-0.198,0.61,0.244,0.061,626.274
103131,140677,7879,-0.082,-0.938,-0.202,0.549,0.305,0.061,626.28
103122,140577,19647,-0.087,-0.94,-0.205,0.549,0.305,0.061,626.284
103122,140684,7895,-0.083,-0.942,-0.207,0.183,0.366,0.183,626.29
103102,140577,19647,-0.087,-0.946,-0.209,0.183,0.366,0.183,626.294
103102,140666,7902,-0.084,-0.945,-0.206,0.427,0.122,0.183,626.3
103127,140577,19647,-0.083,-0.945,-0.203,0.427,0.122,0.183,626.304
103127,140654,7886,-0.083,-0.945,-0.199,0.915,0.061,0.122,626.31
103116,140577,19647,-0.083,-0.943,-0.194,0.915,0.061,0.122,626.314
103116,140656,7898,-0.081,-0.942,-0.187,0.915,0.122,0.183,626.32
103124,140577,19647,-0.08,-0.938,-0.189,0.915,0.122,0.183,626.324
103124,140687,7899,-0.083,-0.94,-0.199,-0.061,0.305,0.427,626.33
103128,140577,19647,-0.087,-0.94,-0.205,-0.061,0.305,0.427,626.333
103128,140682,7890,-0.088,-0.946,-0.21,-0.793,0.488,0.549,626.34
103115,140577,19647,-0.086,-0.944,-0.211,-0.793,0.488,0.549,626.343
103115,140681,7900,-0.086,-0.942,-0.206,-0.061,0.244,0.366,626.35
103113,140577,19647,-0.087,-0.939,-0.205,-0.061,0.244,0.366,626.353
103113,140702,7904,-0.086,-0.937,-0.204,0.671,0.061,0.244,626.359
103120,140577,19647,-0.086,-0.94,-0.198,0.671,0.061,0.244,626.363
103120,140682,7866,-0.084,-0.945,-0.197,0.793,0.122,0.122,626.369
103095,140577,19647,-0.082,-0.95,-0.199,0.793,0.122,0.122,626.373
103095,140687,7900,-0.086,-0.946,-0.206,-0.061,0.061,0.305,626.379
103127,140577,19647,-0.085,-0.943,-0.205,-0.061,0.061,0.305,626.383
103127,140668,7892,-0.086,-0.943,-0.207,-0.244,0.244,0.549,626.389
103128,140577,19647,-0.087,-0.94,-0.204,-0.244,0.244,0.549,626.393
103128,140660,7881,-0.083,-0.938,-0.206,0.183,0.305,0.427,626.399
103120,140577,19647,-0.083,-0.937,-0.205,0.183,0.305,0.427,626.403
103120,140688,7889,-0.084,-0.94,-0.203,0.488,0.244,0.305,626.409
103106,140577,19647,-0.086,-0.941,-0.195,0.488,0.244,0.305,626.413
103106,140673,7898,-0.086,-0.941,-0.192,0.488,0.244,0.244,626.419
103100,140577,19647,-0.084,-0.947,-0.193,0.488,0.244,0.244,626.423
103100,140696,7896,-0.082,-0.943,-0.197,0.061,0.305,0.244,626.429
103109,140577,19647,-0.083,-0.941,-0.202,0.061,0.305,0.244,626.432
103109,140665,7888,-0.087,-0.944,-0.205,-0.732,0.305,0.366,626.439
103111,140577,19647,-0.086,-0.945,-0.205,-0.732,0.305,0.366,626.442
103111,140670,7889,-0.085,-0.944,-0.202,-0.793,0.305,0.427,626.449
103100,140577,19647,-0.084,-0.95,-0.195,-0.793,0.305,0.427,626.452
103100,140666,7902,-0.082,-0.945,-0.197,-0.366,0.366,0.488,626.458
103103,140577,19647,-0.085,-0.944,-0.193,-0.366,0.366,0.488,626.462
103103,140688,7901,-0.083,-0.935,-0.2,-0.244,0.488,0.671,626.468
103098,140577,19647,-0.084,-0.932,-0.207,-0.244,0.488,0.671,626.472
103098,140638,7889,-0.085,-0.936,-0.205,-0.122,0.61,0.793,626.478
103094,140577,19647,-0.085,-0.938,-0.205,-0.122,0.61,0.793,626.482
103094,140650,7895,-0.086,-0.938,-0.204,0.427,0.549,0.488,626.488
103099,140577,19647,-0.084,-0.936,-0.205,0.427,0.549,0.488,626.492
103099,140655,7897,-0.086,-0.938,-0.205,0.915,0.305,0.061,626.498
103106,140577,19647,-0.086,-0.942,-0.207,0.915,0.305,0.061,626.502
103106,140688,7895,-0.084,-0.943,-0.198,1.463,0.183,-0.061,626.508
103109,140577,19647,-0.083,-0.945,-0.196,1.463,0.183,-0.061,626.512
103109,140663,7908,-0.084,-0.947,-0.198,1.28,0,-0.061,626.518
103117,140577,19647,-0.084,-0.945,-0.192,1.28,0,-0.061,626.522
103117,140671,7903,-0.083,-0.942,-0.196,0.366,0.061,0.122,626.528
103116,140577,19647,-0.085,-0.943,-0.201,0.366,0.061,0.122,626.531
103116,140690,7892,-0.084,-0.942,-0.202,-0.793,0.305,0.366,626.538
103113,140577,19647,-0.084,-0.942,-0.211,-0.793,0.305,0.366,626.541
103113,140691,7881,-0.085,-0.946,-0.204,-0.976,0.305,0.61,626.548
103112,140577,19647,-0.084,-0.947,-0.196,-0.976,0.305,0.61,626.551
103112,140691,7893,-0.083,-0.942,-0.198,-0.732,0.488,0.488,626.557
103110,140577,19647,-0.084,-0.941,-0.199,-0.732,0.488,0.488,626.561
103110,140698,7907,-0.087,-0.939,-0.202,-0.61,0.488,0.61,626.567
103101,140577,19647,-0.088,-0.938,-0.204,-0.61,0.488,0.61,626.571
103101,140705,7889,-0.088,-0.938,-0.209,-0.488,0.427,0.61,626.577
103115,140577,19647,-0.089,-0.941,-0.214,-0.488,0.427,0.61,626.581
103115,140693,7902,-0.086,-0.944,-0.207,0,0.183,0.305,626.587
103118,140577,19647,-0.083,-0.947,-0.199,0,0.183,0.305,626.591
103118,140677,7900,-0.084,-0.945,-0.198,0.732,0.061,0.183,626.597
103104,140577,19647,-0.084,-0.945,-0.198,0.732,0.061,0.183,626.601
103104,140680,7898,-0.084,-0.938,-0.199,0.488,0.183,0.183,626.607
103151,140577,19647,-0.084,-0.938,-0.199,0.488,0.183,0.183,626.611
103151,140695,7896,-0.087,-0.942,-0.201,0.122,0.427,0.244,626.617
103124,140577,19647,-0.087,-0.942,-0.201,0.122,0.427,0.244,626.621
103124,140695,7898,-0.082,-0.944,-0.194,0.183,0.427,0.244,626.627
103122,140577,19647,-0.082,-0.944,-0.194,0.183,0.427,0.244,626.63
103122,140686,7884,-0.085,-0.936,-0.199,0,0.366,0.244,626.637
103134,140577,19647,-0.085,-0.936,-0.199,0,0.366,0.244,626.64
103134,140691,7897,-0.085,-0.941,-0.209,-0.244,0.366,0.305,626.647
103131,140577,19647,-0.085,-0.941,-0.209,-0.244,0.366,0.305,626.65
103131,140724,7891,-0.087,-0.944,-0.199,-0.183,0.183,0.183,626.656
103132,140577,19647,-0.087,-0.944,-0.199,-0.183,0.183,0.183,626.66
103132,140705,7887,-0.082,-0.944,-0.196,-0.061,0.183,0.061,626.666
103127,140577,19647,-0.082,-0.944,-0.196,-0.061,0.183,0.061,626.67
103127,140694,7890,-0.083,-0.946,-0.196,-0.122,0.427,0.122,626.676
103129,140577,19647,-0.083,-0.946,-0.196,-0.122,0.427,0.122,626.68
103129,140708,7891,-0.083,-0.943,-0.199,-0.427,0.671,0.488,626.686
103154,140577,19647,-0.083,-0.943,-0.199,-0.427,0.671,0.488,626.69
103154,140695,7886,-0.087,-0.936,-0.197,-0.244,0.61,0.549,626.696
103118,140577,19647,-0.087,-0.936,-0.197,-0.244,0.61,0.549,626.7
103118,140707,7894,-0.082,-0.939,-0.197,0.183,0.549,0.427,626.706
103135,140577,19647,-0.082,-0.939,-0.197,0.183,0.549,0.427,626.71
103135,140695,7895,-0.081,-0.941,-0.202,0.122,0.732,0.305,626.716
103132,140577,19647,-0.081,-0.941,-0.202,0.122,0.732,0.305,626.72
103132,140695,7898,-0.087,-0.938,-0.207,0.122,0.671,0.305,626.726
103117,140577,19647,-0.087,-0.938,-0.207,0.122,0.671,0.305,626.729
103117,140678,7897,-0.084,-0.946,-0.203,0.244,0.427,0.122,626.736
103099,140577,19647,-0.084,-0.946,-0.203,0.244,0.427,0.122,626.739
103099,140674,7890,-0.08,-0.943,-0.204,0.244,0.427,0.122,626.746
103073,140577,19647,-0.083,-0.944,-0.204,0.244,0.366,0.061,626.749
103073,140674,7905,-0.083,-0.944,-0.202,0.244,0.366,0.061,626.755
103090,140577,19647,-0.082,-0.945,-0.201,0.122,0.366,0.244,626.759
103090,140692,7892,-0.084,-0.944,-0.202,0.122,0.366,0.244,626.765
103075,140577,19647,-0.085,-0.946,-0.197,0.122,0.488,0.427,626.769
103075,140640,7889,-0.083,-0.946,-0.199,0.122,0.488,0.427,626.775
103077,140577,19647,-0.081,-0.943,-0.197,0.366,0.549,0.549,626.779
103077,140643,7889,-0.082,-0.939,-0.198,0.366,0.549,0.549,626.785
103087,140577,19647,-0.083,-0.942,-0.198,-0.061,0.549,0.671,626.789
103087,140653,7894,-0.081,-0.944,-0.195,-0.061,0.549,0.671,626.795
103093,140577,19647,-0.085,-0.944,-0.2,-0.244,0.427,0.671,626.799
103093,140644,7888,-0.085,-0.941,-0.198,-0.244,0.427,0.671,626.805
103072,140577,19647,-0.086,-0.938,-0.197,-0.244,0.366,0.671,626.809
103072,140685,7874,-0.085,-0.937,-0.197,-0.244,0.366,0.671,626.815
103079,140577,19647,-0.084,-0.937,-0.202,-0.183,0.427,0.427,626.819
103079,140663,7890,-0.086,-0.941,-0.2,-0.183,0.427,0.427,626.825
103074,140577,19647,-0.087,-0.946,-0.197,-0.183,0.427,0.244,626.828
103074,140684,7897,-0.087,-0.946,-0.196,-0.183,0.427,0.244,626.835
103094,140577,19647,-0.086,-0.944,-0.198,-0.061,0.366,0.244,626.838
103094,140647,7899,-0.083,-0.941,-0.197,-0.061,0.366,0.244,626.845
103077,140577,19647,-0.084,-0.938,-0.198,-0.122,0.427,0.244,626.848
103077,140673,7904,-0.087,-0.943,-0.203,-0.122,0.427,0.244,626.854
103106,140577,19647,-0.089,-0.943,-0.205,-0.122,0.488,0.305,626.858
103106,140670,7890,-0.088,-0.949,-0.204,-0.122,0.488,0.305,626.864
103100,140577,19647,-0.085,-0.949,-0.199,0,0.488,0.305,626.868
103100,140652,7900,-0.086,-0.943,-0.201,0,0.488,0.305,626.874
103100,140577,19647,-0.086,-0.936,-0.206,0,0.183,0.305,626.878
103100,140698,7888,-0.086,-0.937,-0.203,0,0.183,0.305,626.884
103101,140577,19647,-0.088,-0.94,-0.202,-0.061,0.122,0.305,626.888
103101,140693,7914,-0.089,-0.943,-0.206,-0.061,0.122,0.305,626.894
103133,140577,19647,-0.086,-0.946,-0.202,0,0.183,0.122,626.898
103133,140719,7899,-0.087,-0.945,-0.201,0,0.183,0.122,626.904
103123,140577,19647,-0.087,-0.938,-0.203,0.061,0.183,-0.122,626.908
103123,140706,7906,-0.087,-0.937,-0.204,0.061,0.183,-0.122,626.914
103122,140577,19647,-0.084,-0.941,-0.199,-0.061,0.244,-0.061,626.918
103122,140715,7910,-0.083,-0.943,-0.2,-0.061,0.244,-0.061,626.924
103139,140577,19647,-0.082,-0.947,-0.197,0,0.183,-0.061,626.927
103139,140706,7894,-0.08,-0.948,-0.196,0,0.183,-0.061,626.934
103104,140577,19647,-0.084,-0.945,-0.199,0.122,0.366,0.122,626.937
103104,140703,7901,-0.084,-0.941,-0.2,0.122,0.366,0.122,626.944
103127,140577,19647,-0.083,-0.94,-0.197,0.305,0.427,0.305,626.947
103127,140733,7897,-0.081,-0.94,-0.197,0.305,0.427,0.305,626.953
103118,140577,19647,-0.082,-0.942,-0.201,0.366,0.305,0.366,626.957
103118,140707,7898,-0.083,-0.943,-0.199,0.366,0.305,0.366,626.963
103142,140577,19647,-0.086,-0.942,-0.194,0.305,0.488,0.366,626.967
103142,140711,7898,-0.085,-0.942,-0.194,0.305,0.488,0.366,626.973
103140,140577,19647,-0.083,-0.94,-0.194,0.244,0.549,0.244,626.977
103140,140702,7899,-0.08,-0.942,-0.198,0.244,0.549,0.244,626.983
103137,140577,19647,-0.079,-0.939,-0.202,-0.244,0.549,0.305,626.987
103137,140722,7897,-0.083,-0.939,-0.2,-0.244,0.549,0.305,626.993
103155,140577,19647,-0.083,-0.942,-0.203,-0.549,0.549,0.305,626.997
103155,140720,7898,-0.082,-0.948,-0.2,-0.549,0.549,0.305,627.003
103145,140577,19647,-0.083,-0.946,-0.201,-0.122,0.549,0.305,627.007
103145,140700,7884,-0.081,-0.942,-0.201,-0.122,0.549,0.305,627.013
103143,140577,19647,-0.085,-0.943,-0.2,0.305,0.549,0.305,627.017
103143,140704,7896,-0.086,-0.941,-0.199,0.305,0.549,0.305,627.023
103132,140577,19647,-0.086,-0.942,-0.204,0.549,0.61,0.366,627.026
103132,140717,7905,-0.088,-0.942,-0.203,0.549,0.61,0.366,627.033
103119,140577,19647,-0.083,-0.947,-0.195,0.732,0.366,0.427,627.036
103119,140711,7922,-0.08,-0.945,-0.195,0.732,0.366,0.427,627.043
103121,140577,19647,-0.083,-0.942,-0.202,0.305,0.244,0.488,627.046
103121,140704,7904,-0.088,-0.938,-0.201,0.305,0.244,0.488,627.052
103113,140577,19647,-0.086,-0.94,-0.195,0.061,0.305,0.549,627.056
103113,140699,7916,-0.086,-0.944,-0.199,0.061,0.305,0.549,627.062
103129,140577,19647,-0.087,-0.943,-0.2,-0.183,0.366,0.549,627.066
103129,140684,7906,-0.084,-0.946,-0.199,-0.183,0.366,0.549,627.072
103125,140577,19647,-0.08,-0.946,-0.2,-0.122,0.549,0.427,627.076
103125,140692,7922,-0.082,-0.939,-0.199,-0.122,0.549,0.427,627.082
103129,140577,19647,-0.082,-0.939,-0.198,0.183,0.488,0.549,627.086
103129,140669,7899,-0.087,-0.939,-0.202,0.183,0.488,0.549,627.092
103126,140577,19647,-0.087,-0.938,-0.2,0.122,0.427,0.549,627.096
103126,140702,7897,-0.089,-0.939,-0.196,0.122,0.427,0.549,627.102
103124,140577,19647,-0.085,-0.94,-0.197,-0.244,0.305,0.366,627.106
103124,140689,7904,-0.082,-0.944,-0.198,-0.244,0.305,0.366,627.112
103096,140577,19647,-0.084,-0.942,-0.201,-0.427,0.305,0.305,627.116
103096,140693,7895,-0.085,-0.94,-0.202,-0.427,0.305,0.305,627.122
103111,140577,19647,-0.084,-0.941,-0.196,-0.488,0.366,0.366,627.125
103111,140716,7904,-0.083,-0.944,-0.197,-0.488,0.366,0.366,627.132
103101,140577,19647,-0.083,-0.947,-0.192,-0.244,0.549,0.366,627.135
103101,140672,7905,-0.083,-0.947,-0.189,-0.244,0.549,0.366,627.142
103110,140577,19647,-0.082,-0.944,-0.194,-0.427,0.854,0.549,627.145
103110,140692,7898,-0.083,-0.943,-0.198,-0.427,0.854,0.549,627.151
103117,140577,19647,-0.087,-0.944,-0.2,-0.671,0.854,0.793,627.155
103117,140687,7907,-0.089,-0.944,-0.206,-0.671,0.854,0.793,627.161
103122,140577,19647,-0.087,-0.938,-0.208,-0.183,0.915,0.732,627.165
103122,140711,7892,-0.088,-0.939,-0.212,-0.183,0.915,0.732,627.171
103128,140577,19647,-0.086,-0.943,-0.207,0.305,0.549,0.427,627.175
103128,140685,7893,-0.083,-0.942,-0.203,0.305,0.549,0.427,627.181
103118,140577,19647,-0.083,-0.942,-0.203,0.305,0.549,0.427,627.185
103118,140716,7912,-0.083,-0.943,-0.2,0.427,0.061,0.244,627.191
103144,140577,19647,-0.083,-0.943,-0.2,0.427,0.061,0.244,627.195
103144,140707,7900,-0.084,-0.941,-0.193,0.488,-0.061,0.244,627.201
103112,140577,19647,-0.084,-0.941,-0.193,0.488,-0.061,0.244,627.205
103112,140709,7898,-0.079,-0.938,-0.193,0.488,0,0.366,627.211
103133,140577,19647,-0.079,-0.938,-0.193,0.488,0,0.366,627.215
103133,140686,7905,-0.084,-0.942,-0.195,-0.122,0.244,0.427,627.221
103140,140577,19647,-0.084,-0.942,-0.195,-0.122,0.244,0.427,627.224
103140,140686,7905,-0.087,-0.946,-0.198,-0.488,0.427,0.488,627.231
103139,140577,19647,-0.087,-0.946,-0.198,-0.488,0.427,0.488,627.234
103139,140690,7897,-0.086,-0.937,-0.193,-0.549,0.61,0.549,627.241
103137,140577,19647,-0.086,-0.937,-0.193,-0.549,0.61,0.549,627.244
103137,140709,7914,-0.085,-0.94,-0.202,-0.61,0.732,0.366,627.25
103154,140577,19647,-0.085,-0.94,-0.202,-0.61,0.732,0.366,627.254
103154,140696,7910,-0.088,-0.945,-0.205,-0.671,0.671,0.305,627.26
103174,140577,19647,-0.088,-0.945,-0.205,-0.671,0.671,0.305,627.264
103174,140699,7912,-0.089,-0.939,-0.207,-0.366,0.549,0.305,627.27
103150,140577,19647,-0.089,-0.939,-0.207,-0.366,0.549,0.305,627.274
103150,140690,7889,-0.081,-0.943,-0.198,0.244,0.244,0.122,627.28
103135,140577,19647,-0.081,-0.943,-0.198,0.244,0.244,0.122,627.284
103135,140715,7911,-0.083,-0.943,-0.198,0.61,0,0,627.29
103147,140577,19647,-0.083,-0.943,-0.198,0.61,0,0,627.294
103147,140695,7904,-0.084,-0.943,-0.196,0.244,0.061,0.183,627.3
103132,140577,19647,-0.084,-0.943,-0.196,0.244,0.061,0.183,627.304
103132,140695,7905,-0.083,-0.938,-0.193,-0.183,0.244,0.244,627.31
103150,140577,19647,-0.083,-0.938,-0.193,-0.183,0.244,0.244,627.314
103150,140687,7907,-0.083,-0.951,-0.199,-0.427,0.427,0.305,627.32
103142,140577,19647,-0.083,-0.951,-0.199,-0.427,0.427,0.305,627.323
103142,140719,7901,-0.083,-0.949,-0.196,-0.549,0.427,0.305,627.33
103139,140577,19647,-0.085,-0.943,-0.201,-0.549,0.427,0.305,627.333
103139,140679,7890,-0.085,-0.938,-0.203,-0.854,0.366,0.488,627.34
103141,140577,19647,-0.086,-0.938,-0.198,-0.854,0.366,0.488,627.343
103141,140694,7909,-0.086,-0.942,-0.202,-0.671,0.244,0.549,627.349
103131,140577,19647,-0.082,-0.943,-0.201,-0.671,0.244,0.549,627.353
103131,140712,7911,-0.086,-0.943,-0.203,-0.305,0.305,0.427,627.359
103141,140577,19647,-0.085,-0.942,-0.198,-0.305,0.305,0.427,627.363
103141,140700,7908,-0.085,-0.939,-0.198,-0.122,0.366,0.488,627.369
103120,140577,19647,-0.087,-0.939,-0.197,-0.122,0.366,0.488,627.373
103120,140735,7911,-0.084,-0.942,-0.197,0.183,0.305,0.305,627.379
103150,140577,19647,-0.084,-0.945,-0.196,0.183,0.305,0.305,627.383
103150,140701,7903,-0.083,-0.944,-0.193,-0.061,0.427,0.244,627.389
103130,140577,19647,-0.083,-0.942,-0.201,-0.061,0.427,0.244,627.393
103130,140711,7907,-0.082,-0.943,-0.198,-0.244,0.549,0.305,627.399
103144,140577,19647,-0.085,-0.945,-0.199,-0.244,0.549,0.305,627.403
103144,140720,7907,-0.085,-0.946,-0.197,-0.183,0.488,0.366,627.409
103139,140577,19647,-0.088,-0.94,-0.198,-0.183,0.488,0.366,627.413
103139,140716,7894,-0.088,-0.94,-0.197,-0.122,0.488,0.366,627.419
103131,140577,19647,-0.085,-0.942,-0.2,-0.122,0.488,0.366,627.422
103131,140716,7912,-0.082,-0.943,-0.204,0,0.427,0.366,627.429
103145,140577,19647,-0.082,-0.944,-0.203,0,0.427,0.366,627.432
103145,140728,7885,-0.081,-0.942,-0.203,0,0.183,0.366,627.439
103157,140577,19647,-0.083,-0.941,-0.199,0,0.183,0.366,627.442
103157,140721,7908,-0.082,-0.943,-0.196,0.488,0.122,0.305,627.448
103141,140577,19647,-0.083,-0.943,-0.194,0.488,0.122,0.305,627.452
103141,140736,7903,-0.087,-0.941,-0.193,0.61,0.244,0.244,627.458
103154,140577,19647,-0.086,-0.938,-0.199,0.61,0.244,0.244,627.462
103154,140724,7897,-0.085,-0.941,-0.206,0.366,0.366,0.305,627.468
103150,140577,19647,-0.085,-0.941,-0.201,0.366,0.366,0.305,627.472
103150,140737,7911,-0.086,-0.944,-0.201,0.305,0.305,0.244,627.478
103143,140577,19647,-0.087,-0.949,-0.199,0.305,0.305,0.244,627.482
103143,140741,7902,-0.083,-0.946,-0.195,0.488,0.122,0.183,627.488
103166,140577,19647,-0.086,-0.941,-0.193,0.488,0.122,0.183,627.492
103166,140702,7903,-0.085,-0.938,-0.194,0.244,0.122,0.183,627.498
103137,140577,19647,-0.084,-0.94,-0.197,0.244,0.122,0.183,627.502
103137,140727,7907,-0.086,-0.939,-0.201,-0.244,0.183,0.183,627.508
103162,140577,19647,-0.087,-0.943,-0.202,-0.244,0.183,0.183,627.512
103162,140746,7911,-0.084,-0.947,-0.196,-0.183,0.183,0.122,627.518
103170,140577,19647,-0.085,-0.944,-0.195,-0.183,0.183,0.122,627.521
103170,140739,7899,-0.083,-0.945,-0.191,0.061,0.183,0,627.528
103164,140577,19647,-0.085,-0.944,-0.194,0.061,0.183,0,627.531
103164,140741,7882,-0.087,-0.94,-0.194,-0.061,0.366,0.122,627.538
103175,140577,19647,-0.087,-0.942,-0.197,-0.061,0.366,0.122,627.541
103175,140747,7908,-0.084,-0.945,-0.196,-0.488,0.427,0.183,627.547
103162,140577,19647,-0.082,-0.947,-0.196,-0.488,0.427,0.183,627.551
103162,140705,7918,-0.083,-0.946,-0.194,-0.854,0.305,0.244,627.557
103153,140577,19647,-0.083,-0.944,-0.198,-0.854,0.305,0.244,627.561
103153,140778,7905,-0.085,-0.942,-0.203,-1.037,0.427,0.366,627.567
103177,140577,19647,-0.085,-0.941,-0.202,-1.037,0.427,0.366,627.571
103177,140737,7910,-0.082,-0.938,-0.204,-1.098,0.305,0.549,627.577
103157,140577,19647,-0.085,-0.939,-0.202,-1.098,0.305,0.549,627.581
103157,140734,7904,-0.087,-0.943,-0.201,-0.732,0.183,0.366,627.587
103166,140577,19647,-0.084,-0.943,-0.201,-0.732,0.183,0.366,627.591
103166,140727,7909,-0.081,-0.938,-0.196,-0.305,0.122,0.244,627.597
103133,140577,19647,-0.081,-0.942,-0.195,-0.305,0.122,0.244,627.601
103133,140730,7919,-0.08,-0.945,-0.195,-0.183,0.244,0.183,627.607
103155,140577,19647,-0.081,-0.943,-0.197,-0.183,0.244,0.183,627.611
103155,140750,7906,-0.083,-0.945,-0.196,-0.305,0.366,0.366,627.617
103175,140577,19647,-0.081,-0.946,-0.194,-0.305,0.366,0.366,627.62
103175,140746,7899,-0.085,-0.942,-0.198,-0.488,0.366,0.549,627.627
103151,140577,19647,-0.084,-0.94,-0.2,-0.488,0.366,0.549,627.63
103151,140732,7919,-0.085,-0.938,-0.199,-0.671,0.427,0.488,627.637
103154,140577,19647,-0.084,-0.942,-0.198,-0.671,0.427,0.488,627.64
103154,140752,7902,-0.084,-0.944,-0.195,-0.732,0.549,0.427,627.646
103155,140577,19647,-0.087,-0.947,-0.196,-0.732,0.549,0.427,627.65
103155,140731,7902,-0.082,-0.947,-0.194,-0.366,0.61,0.549,627.656
103149,140577,19647,-0.081,-0.941,-0.193,-0.366,0.61,0.549,627.66
103149,140731,7903,-0.084,-0.938,-0.195,-0.305,0.488,0.549,627.666
103166,140577,19647,-0.084,-0.94,-0.197,-0.305,0.488,0.549,627.67
103166,140746,7908,-0.084,-0.945,-0.194,-0.427,0.61,0.549,627.676
103167,140577,19647,-0.084,-0.944,-0.197,-0.427,0.61,0.549,627.68
103167,140742,7914,-0.084,-0.948,-0.2,-0.366,0.915,0.549,627.686
103161,140577,19647,-0.083,-0.945,-0.198,-0.366,0.915,0.549,627.69
103161,140731,7915,-0.085,-0.941,-0.196,-0.183,0.976,0.549,627.696
103170,140577,19647,-0.084,-0.938,-0.203,-0.183,0.976,0.549,627.7
103170,140755,7907,-0.083,-0.94,-0.206,-0.305,0.854,0.549,627.706
103177,140577,19647,-0.082,-0.939,-0.205,-0.305,0.854,0.549,627.71
103177,140744,7899,-0.084,-0.934,-0.206,-0.671,0.61,0.427,627.716
103164,140577,19647,-0.083,-0.936,-0.204,-0.671,0.61,0.427,627.719
103164,140737,7911,-0.086,-0.94,-0.201,-0.671,0.427,0.244,627.726
103175,140577,19647,-0.084,-0.946,-0.201,-0.671,0.427,0.244,627.729
103175,140742,7911,-0.082,-0.946,-0.205,-0.549,0.244,0.183,627.736
103174,140577,19647,-0.083,-0.946,-0.206,-0.549,0.244,0.183,627.739
103174,140733,7917,-0.086,-0.945,-0.205,-0.427,0.183,0.427,627.745
103149,140577,19647,-0.087,-0.947,-0.201,-0.427,0.183,0.427,627.749
103149,140744,7919,-0.091,-0.946,-0.197,0,0.061,0.427,627.755
103185,140577,19647,-0.089,-0.946,-0.195,0,0.061,0.427,627.759
103185,140738,7901,-0.086,-0.944,-0.192,0,0.183,0.488,627.765
103175,140577,19647,-0.088,-0.941,-0.192,0,0.183,0.488,627.769
103175,140748,7903,-0.088,-0.942,-0.198,-0.061,0.488,0.61,627.775
103180,140577,19647,-0.088,-0.942,-0.198,-0.061,0.488,0.61,627.779
103180,140762,7902,-0.086,-0.942,-0.196,-0.366,0.488,0.549,627.785
103181,140577,19647,-0.086,-0.942,-0.196,-0.366,0.488,0.549,627.789
103181,140743,7910,-0.087,-0.944,-0.198,-0.61,0.488,0.244,627.795
103167,140577,19647,-0.087,-0.944,-0.198,-0.61,0.488,0.244,627.799
103167,140776,7915,-0.081,-0.94,-0.198,-0.488,0.549,0.305,627.805
103183,140577,19647,-0.081,-0.94,-0.198,-0.488,0.549,0.305,627.809
103183,140787,7910,-0.083,-0.939,-0.199,-0.305,0.549,0.244,627.815
103168,140577,19647,-0.083,-0.939,-0.199,-0.305,0.549,0.244,627.818
103168,140764,7920,-0.082,-0.937,-0.2,-0.183,0.549,0.122,627.825
103186,140577,19647,-0.082,-0.937,-0.2,-0.183,0.549,0.122,627.828
103186,140791,7911,-0.081,-0.942,-0.205,-0.183,0.305,0.061,627.835
103193,140577,19647,-0.081,-0.942,-0.205,-0.183,0.305,0.061,627.838
103193,140773,7913,-0.083,-0.947,-0.201,-0.183,0.061,0.183,627.844
103181,140577,19647,-0.083,-0.947,-0.201,-0.183,0.061,0.183,627.848
103181,140788,7909,-0.084,-0.94,-0.204,-0.488,-0.183,0.366,627.854
103178,140577,19647,-0.084,-0.94,-0.204,-0.488,-0.183,0.366,627.858
103178,140758,7908,-0.087,-0.942,-0.203,-0.366,-0.244,0.305,627.864
103172,140577,19647,-0.087,-0.942,-0.203,-0.366,-0.244,0.305,627.868
103172,140764,7924,-0.088,-0.943,-0.192,-0.305,0,0.427,627.874
103178,140577,19647,-0.088,-0.943,-0.192,-0.305,0,0.427,627.878
103178,140788,7900,-0.087,-0.941,-0.2,-0.366,0.183,0.366,627.884
103178,140577,19647,-0.087,-0.941,-0.2,-0.366,0.183,0.366,627.888
103178,140754,7907,-0.088,-0.941,-0.199,-0.427,0.305,0.305,627.894
103185,140577,19647,-0.088,-0.941,-0.199,-0.427,0.305,0.305,627.898
103185,140762,7910,-0.087,-0.94,-0.198,-0.427,0.366,0.244,627.904
103173,140577,19647,-0.087,-0.94,-0.198,-0.427,0.366,0.244,627.908
103173,140755,7906,-0.086,-0.941,-0.202,-0.61,0.244,0.122,627.914
103199,140577,19647,-0.086,-0.941,-0.202,-0.61,0.244,0.122,627.917
103199,140762,7914,-0.084,-0.942,-0.205,-0.61,0.244,0.122,627.924
103178,140577,19647,-0.083,-0.95,-0.198,-0.488,0.061,0.061,627.927
103178,140767,7935,-0.081,-0.949,-0.197,-0.488,0.061,0.061,627.934
103196,140577,19647,-0.083,-0.947,-0.193,-0.488,0.183,0.244,627.937
103196,140788,7912,-0.085,-0.944,-0.197,-0.488,0.183,0.244,627.943
103182,140577,19647,-0.085,-0.941,-0.193,-0.122,0.366,0.305,627.947
103182,140757,7909,-0.084,-0.94,-0.193,-0.122,0.366,0.305,627.953
103171,140577,19647,-0.081,-0.942,-0.198,0.122,0.549,0.488,627.957
103171,140782,7917,-0.082,-0.937,-0.197,0.122,0.549,0.488,627.963
103164,140577,19647,-0.08,-0.938,-0.198,0.061,0.671,0.427,627.967
103164,140768,7908,-0.084,-0.936,-0.195,0.061,0.671,0.427,627.973
103161,140577,19647,-0.081,-0.941,-0.202,-0.305,0.732,0.366,627.977
103161,140750,7907,-0.082,-0.938,-0.199,-0.305,0.732,0.366,627.983
103174,140577,19647,-0.081,-0.943,-0.202,-0.732,0.61,0.305,627.987
103174,140760,7915,-0.081,-0.948,-0.199,-0.732,0.61,0.305,627.993
103178,140577,19647,-0.083,-0.945,-0.197,-0.854,0.427,0.427,627.997
103178,140740,7927,-0.081,-0.942,-0.201,-0.854,0.427,0.427,628.003
103157,140577,19647,-0.081,-0.94,-0.201,-1.159,0.61,0.549,628.007
103157,140764,7902,-0.083,-0.943,-0.203,-1.159,0.61,0.549,628.013
103170,140577,19647,-0.084,-0.944,-0.203,-0.915,0.732,0.61,628.016
103170,140766,7909,-0.086,-0.945,-0.204,-0.915,0.732,0.61,628.023
103149,140577,19647,-0.087,-0.943,-0.201,-0.427,0.671,0.671,628.026
103149,140746,7915,-0.084,-0.943,-0.2,-0.427,0.671,0.671,628.033
103178,140577,19647,-0.087,-0.943,-0.196,-0.122,0.549,0.61,628.036
103178,140762,7913,-0.086,-0.941,-0.198,-0.122,0.549,0.61,628.042
103149,140577,19647,-0.086,-0.938,-0.2,-0.427,0.549,0.671,628.046
103149,140761,7919,-0.088,-0.94,-0.205,-0.427,0.549,0.671,628.052
103151,140577,19647,-0.086,-0.944,-0.204,-0.732,0.61,0.793,628.056
103151,140756,7917,-0.086,-0.945,-0.199,-0.732,0.61,0.793,628.062
103153,140577,19647,-0.085,-0.946,-0.193,-0.732,0.61,0.732,628.066
103153,140728,7918,-0.083,-0.942,-0.192,-0.732,0.61,0.732,628.072
103144,140577,19647,-0.085,-0.938,-0.198,-1.037,0.671,0.671,628.076
103144,140749,7935,-0.086,-0.938,-0.2,-1.037,0.671,0.671,628.082
103145,140577,19647,-0.086,-0.94,-0.202,-1.28,0.854,0.671,628.086
103145,140746,7901,-0.086,-0.943,-0.205,-1.28,0.854,0.671,628.092
103150,140577,19647,-0.087,-0.945,-0.207,-1.037,0.732,0.732,628.096
103150,140717,7900,-0.089,-0.945,-0.204,-1.037,0.732,0.732,628.102
103139,140577,19647,-0.088,-0.942,-0.203,-0.488,0.488,0.61,628.106
103139,140734,7913,-0.086,-0.941,-0.202,-0.488,0.488,0.61,628.112
103133,140577,19647,-0.086,-0.94,-0.202,-0.488,0.549,0.61,628.115
103133,140705,7908,-0.087,-0.939,-0.202,-0.488,0.549,0.61,628.122
103144,140577,19647,-0.084,-0.939,-0.207,-0.915,0.488,0.671,628.125
103144,140739,7913,-0.087,-0.938,-0.202,-0.915,0.488,0.671,628.132
103144,140577,19647,-0.087,-0.94,-0.2,-0.854,0.488,0.488,628.135
103144,140729,7918,-0.088,-0.942,-0.202,-0.854,0.488,0.488,628.141
103135,140577,19647,-0.086,-0.94,-0.201,-0.671,0.549,0.366,628.145
103135,140727,7908,-0.085,-0.937,-0.203,-0.671,0.549,0.366,628.151
103140,140577,19647,-0.085,-0.938,-0.205,-0.854,0.671,0.427,628.155
103140,140732,7895,-0.089,-0.941,-0.204,-0.854,0.671,0.427,628.161
103141,140577,19647,-0.087,-0.943,-0.201,-0.732,0.61,0.366,628.165
103141,140722,7917,-0.088,-0.944,-0.201,-0.732,0.61,0.366,628.171
103138,140577,19647,-0.084,-0.943,-0.202,-0.549,0.549,0.366,628.175
103138,140764,7913,-0.085,-0.939,-0.2,-0.549,0.549,0.366,628.181
103149,140577,19647,-0.084,-0.94,-0.197,-0.61,0.488,0.427,628.185
103149,140726,7915,-0.083,-0.942,-0.201,-0.61,0.488,0.427,628.191
103153,140577,19647,-0.083,-0.941,-0.202,-0.854,0.427,0.427,628.195
103153,140714,7907,-0.083,-0.941,-0.199,-0.854,0.427,0.427,628.201
103131,140577,19647,-0.082,-0.938,-0.2,-1.037,0.488,0.427,628.205
103131,140728,7918,-0.082,-0.941,-0.198,-1.037,0.488,0.427,628.211
103147,140577,19647,-0.084,-0.943,-0.202,-0.915,0.671,0.366,628.214
103147,140721,7902,-0.083,-0.942,-0.204,-0.915,0.671,0.366,628.221
103135,140577,19647,-0.086,-0.941,-0.2,-0.976,0.732,0.549,628.224
103135,140709,7910,-0.088,-0.94,-0.208,-0.976,0.732,0.549,628.231
103138,140577,19647,-0.085,-0.94,-0.207,-1.098,0.793,0.488,628.234
103138,140701,7910,-0.083,-0.942,-0.206,-1.098,0.793,0.488,628.24
103128,140577,19647,-0.084,-0.944,-0.202,-0.854,0.854,0.305,628.244
103128,140706,7914,-0.084,-0.948,-0.197,-0.854,0.854,0.305,628.25
103139,140577,19647,-0.084,-0.942,-0.202,-0.427,0.61,0.488,628.254
103139,140722,7909,-0.085,-0.938,-0.202,-0.427,0.61,0.488,628.26
103138,140577,19647,-0.086,-0.938,-0.204,-0.854,0.61,0.671,628.264
103138,140703,7889,-0.087,-0.94,-0.207,-0.854,0.61,0.671,628.27
103127,140577,19647,-0.087,-0.944,-0.207,-1.22,0.793,0.549,628.274
103127,140722,7924,-0.085,-0.943,-0.216,-1.22,0.793,0.549,628.28
103147,140577,19647,-0.087,-0.941,-0.211,-0.732,0.61,0.549,628.284
103147,140714,7914,-0.085,-0.939,-0.208,-0.732,0.61,0.549,628.29
103128,140577,19647,-0.084,-0.942,-0.204,-0.061,0.366,0.488,628.294
103128,140714,7903,-0.081,-0.943,-0.201,-0.061,0.366,0.488,628.3
103129,140577,19647,-0.082,-0.94,-0.204,-0.366,0.305,0.427,628.304
103129,140705,7912,-0.084,-0.94,-0.204,-0.366,0.305,0.427,628.31
103117,140577,19647,-0.086,-0.94,-0.203,-0.61,0.427,0.732,628.313
103117,140723,7911,-0.088,-0.94,-0.206,-0.61,0.427,0.732,628.32
103107,140577,19647,-0.088,-0.937,-0.2,-0.244,0.427,0.61,628.323
103107,140708,7920,-0.09,-0.937,-0.198,-0.244,0.427,0.61,628.33
103118,140577,19647,-0.085,-0.942,-0.198,-0.183,0.427,0.427,628.333
103118,140738,7905,-0.083,-0.945,-0.193,-0.183,0.427,0.427,628.339
103122,140577,19647,-0.085,-0.944,-0.19,-0.732,0.61,0.427,628.343
103122,140703,7900,-0.084,-0.937,-0.204,-0.732,0.61,0.427,628.349
103101,140577,19647,-0.088,-0.94,-0.211,-1.89,0.732,0.732,628.353
103101,140713,7917,-0.091,-0.943,-0.21,-1.89,0.732,0.732,628.359
103106,140577,19647,-0.091,-0.943,-0.21,-1.89,0.732,0.732,628.363
103106,140695,7910,-0.088,-0.945,-0.207,-1.524,0.732,0.671,628.369
103136,140577,19647,-0.088,-0.945,-0.207,-1.524,0.732,0.671,628.373
103136,140715,7889,-0.085,-0.939,-0.201,-0.427,0.549,0.549,628.379
103108,140577,19647,-0.085,-0.939,-0.201,-0.427,0.549,0.549,628.383
103108,140714,7903,-0.083,-0.94,-0.204,-0.061,0.305,0.549,628.389
103105,140577,19647,-0.083,-0.94,-0.204,-0.061,0.305,0.549,628.393
103105,140714,7915,-0.086,-0.942,-0.207,-0.549,0.427,0.488,628.399
103105,140577,19647,-0.086,-0.942,-0.207,-0.549,0.427,0.488,628.403
103105,140717,7904,-0.085,-0.941,-0.206,-0.793,0.61,0.549,628.409
103082,140577,19647,-0.085,-0.941,-0.206,-0.793,0.61,0.549,628.412
103082,140693,7923,-0.083,-0.937,-0.205,-0.183,0.427,0.488,628.419
103108,140577,19647,-0.083,-0.937,-0.205,-0.183,0.427,0.488,628.422
103108,140723,7911,-0.084,-0.937,-0.198,0,0.305,0.183,628.429
103117,140577,19647,-0.084,-0.937,-0.198,0,0.305,0.183,628.432
103117,140711,7904,-0.082,-0.948,-0.198,-0.122,0.305,0.122,628.438
103097,140577,19647,-0.082,-0.948,-0.198,-0.122,0.305,0.122,628.442
103097,140711,7908,-0.083,-0.942,-0.202,-0.732,0.427,0.427,628.448
103109,140577,19647,-0.083,-0.942,-0.202,-0.732,0.427,0.427,628.452
103109,140699,7901,-0.085,-0.939,-0.207,-1.28,0.61,0.671,628.458
103111,140577,19647,-0.085,-0.939,-0.207,-1.28,0.61,0.671,628.462
103111,140703,7913,-0.084,-0.944,-0.198,-1.098,0.671,0.732,628.468
103115,140577,19647,-0.084,-0.944,-0.198,-1.098,0.671,0.732,628.472
103115,140741,7916,-0.083,-0.947,-0.206,-0.793,0.732,0.671,628.478
103123,140577,19647,-0.083,-0.947,-0.206,-0.793,0.732,0.671,628.482
103123,140728,7902,-0.088,-0.937,-0.205,-1.037,0.854,0.915,628.488
103121,140577,19647,-0.088,-0.937,-0.205,-1.037,0.854,0.915,628.492
103121,140714,7901,-0.086,-0.944,-0.215,-1.037,0.915,0.976,628.498
103115,140577,19647,-0.086,-0.944,-0.215,-1.037,0.915,0.976,628.502
103115,140717,7917,-0.088,-0.942,-0.211,-0.549,0.915,0.854,628.508
103100,140577,19647,-0.091,-0.936,-0.205,-0.549,0.915,0.854,628.511
103100,140712,7911,-0.085,-0.934,-0.198,-0.122,0.793,0.671,628.518
103107,140577,19647,-0.082,-0.938,-0.199,-0.122,0.793,0.671,628.521
103107,140713,7911,-0.085,-0.943,-0.198,-0.427,0.732,0.488,628.528
103132,140577,19647,-0.081,-0.946,-0.199,-0.427,0.732,0.488,628.531
103132,140705,7912,-0.086,-0.944,-0.199,-1.037,0.915,0.61,628.537
103085,140577,19647,-0.088,-0.943,-0.205,-1.037,0.915,0.61,628.541
103085,140710,7911,-0.09,-0.943,-0.208,-1.22,0.976,0.854,628.547
103105,140577,19647,-0.089,-0.943,-0.209,-1.22,0.976,0.854,628.551
103105,140711,7913,-0.088,-0.943,-0.21,-0.793,0.793,0.793,628.557
103098,140577,19647,-0.088,-0.94,-0.205,-0.793,0.793,0.793,628.561
103098,140712,7904,-0.089,-0.939,-0.205,-0.61,0.732,0.671,628.567
103102,140577,19647,-0.089,-0.939,-0.205,-0.61,0.732,0.671,628.571
103102,140704,7904,-0.086,-0.94,-0.204,-0.488,0.61,0.549,628.577
103114,140577,19647,-0.087,-0.939,-0.211,-0.488,0.61,0.549,628.581
103114,140744,7904,-0.087,-0.938,-0.212,-0.854,0.549,0.549,628.587
103099,140577,19647,-0.089,-0.942,-0.204,-0.854,0.549,0.549,628.591
103099,140716,7900,-0.087,-0.946,-0.203,-0.732,0.488,0.549,628.597
103097,140577,19647,-0.085,-0.942,-0.201,-0.732,0.488,0.549,628.601
103097,140730,7894,-0.084,-0.941,-0.204,-0.793,0.488,0.549,628.607
103089,140577,19647,-0.087,-0.941,-0.209,-0.793,0.488,0.549,628.61
103089,140721,7907,-0.088,-0.945,-0.208,-0.915,0.732,0.671,628.617
103092,140577,19647,-0.088,-0.946,-0.205,-0.915,0.732,0.671,628.62
103092,140729,7907,-0.088,-0.942,-0.206,-0.854,0.732,0.671,628.627
103113,140577,19647,-0.09,-0.941,-0.205,-0.854,0.732,0.671,628.63
103113,140713,7907,-0.088,-0.937,-0.203,-0.671,0.671,0.671,628.636
103091,140577,19647,-0.085,-0.936,-0.205,-0.671,0.671,0.671,628.64
103091,140711,7897,-0.089,-0.938,-0.206,-0.549,0.732,0.61,628.646
103100,140577,19647,-0.088,-0.94,-0.209,-0.549,0.732,0.61,628.65
103100,140730,7915,-0.09,-0.942,-0.207,-0.366,0.61,0.488,628.656
103106,140577,19647,-0.084,-0.939,-0.208,-0.366,0.61,0.488,628.66
103106,140701,7909,-0.087,-0.94,-0.208,0,0.366,0.427,628.666
103090,140577,19647,-0.084,-0.941,-0.201,0,0.366,0.427,628.67
103090,140717,7914,-0.083,-0.939,-0.207,-0.244,0.488,0.366,628.676
103105,140577,19647,-0.084,-0.938,-0.213,-0.244,0.488,0.366,628.68
103105,140711,7897,-0.084,-0.943,-0.203,-0.183,0.488,0.366,628.686
103090,140577,19647,-0.085,-0.944,-0.204,-0.183,0.488,0.366,628.69
103090,140698,7900,-0.084,-0.938,-0.2,0.183,0.427,0.488,628.696
103085,140577,19647,-0.086,-0.937,-0.195,0.183,0.427,0.488,628.7
103085,140709,7909,-0.084,-0.938,-0.203,0.244,0.427,0.549,628.706
103098,140577,19647,-0.085,-0.937,-0.208,0.244,0.427,0.549,628.709
103098,140716,7915,-0.086,-0.939,-0.207,-0.305,0.61,0.549,628.716
103077,140577,19647,-0.089,-0.939,-0.21,-0.305,0.61,0.549,628.719
103077,140712,7910,-0.089,-0.939,-0.213,-0.244,0.61,0.549,628.726
103114,140577,19647,-0.088,-0.941,-0.214,-0.244,0.61,0.549,628.729
103114,140706,7901,-0.087,-0.939,-0.211,0.366,0.61,0.427,628.735
103094,140577,19647,-0.083,-0.939,-0.211,0.366,0.61,0.427,628.739
103094,140711,7910,-0.086,-0.941,-0.204,0.061,0.427,0.305,628.745
103106,140577,19647,-0.086,-0.941,-0.205,0.061,0.427,0.305,628.749
103106,140704,7901,-0.087,-0.941,-0.206,-0.366,0.244,0.305,628.755
103102,140577,19647,-0.086,-0.943,-0.21,-0.366,0.244,0.305,628.759
103102,140706,7920,-0.09,-0.945,-0.208,-0.732,0.244,0.305,628.765
103091,140577,19647,-0.088,-0.942,-0.206,-0.732,0.244,0.305,628.769
103091,140712,7910,-0.089,-0.94,-0.202,-0.427,0.427,0.488,628.775
103087,140577,19647,-0.087,-0.943,-0.202,-0.427,0.427,0.488,628.779
103087,140695,7904,-0.085,-0.944,-0.2,-0.244,0.488,0.427,628.785
103086,140577,19647,-0.085,-0.942,-0.2,-0.244,0.488,0.427,628.789
103086,140745,7920,-0.087,-0.939,-0.204,-0.427,0.732,0.488,628.795
103097,140577,19647,-0.09,-0.939,-0.209,-0.427,0.732,0.488,628.799
103097,140714,7894,-0.091,-0.94,-0.208,-0.305,0.793,0.488,628.805
103074,140577,19647,-0.091,-0.939,-0.209,-0.305,0.793,0.488,628.808
103074,140723,7908,-0.09,-0.942,-0.21,-0.061,0.488,0.183,628.815
103091,140577,19647,-0.089,-0.942,-0.21,-0.061,0.488,0.183,628.818
103091,140722,7909,-0.083,-0.937,-0.209,0.183,0.122,0.061,628.825
103068,140577,19647,-0.084,-0.934,-0.205,0.183,0.122,0.061,628.828
103068,140745,7903,-0.083,-0.935,-0.207,0.122,0.061,0.061,628.834
103087,140577,19647,-0.082,-0.938,-0.209,0.122,0.061,0.061,628.838
103087,140711,7908,-0.082,-0.943,-0.213,0,0.183,0.183,628.844
103100,140577,19647,-0.085,-0.943,-0.219,0,0.183,0.183,628.848
103100,140726,7904,-0.083,-0.94,-0.215,0,0,0.305,628.854
103094,140577,19647,-0.086,-0.938,-0.21,0,0,0.305,628.858
103094,140694,7888,-0.086,-0.94,-0.208,0.183,-0.305,0.305,628.864
103073,140577,19647,-0.084,-0.94,-0.208,0.183,-0.305,0.305,628.868
103073,140730,7916,-0.087,-0.937,-0.21,0.183,-0.122,0.183,628.874
103071,140577,19647,-0.088,-0.94,-0.21,0.183,-0.122,0.183,628.878
103071,140721,7918,-0.088,-0.941,-0.202,0.244,-0.183,0.244,628.884
103095,140577,19647,-0.088,-0.941,-0.2,0.244,-0.183,0.244,628.888
103095,140698,7897,-0.089,-0.94,-0.199,0.305,-0.183,0.244,628.894
103070,140577,19647,-0.09,-0.941,-0.198,0.305,-0.183,0.244,628.898
103070,140711,7916,-0.087,-0.942,-0.198,0.183,0.061,0.122,628.904
103086,140577,19647,-0.089,-0.941,-0.199,0.183,0.061,0.122,628.907
103086,140719,7912,-0.09,-0.941,-0.201,0.122,0.244,0,628.914
103080,140577,19647,-0.088,-0.943,-0.2,0.122,0.244,0,628.917
103080,140691,7908,-0.092,-0.943,-0.206,-0.122,0.549,-0.061,628.924
103069,140577,19647,-0.089,-0.939,-0.207,-0.122,0.549,-0.061,628.927
103069,140704,7918,-0.088,-0.941,-0.208,-0.244,0.671,0.061,628.933
103079,140577,19647,-0.086,-0.943,-0.207,-0.244,0.671,0.061,628.937
103079,140693,7901,-0.087,-0.944,-0.211,0.122,0.427,0.122,628.943
103068,140577,19647,-0.085,-0.946,-0.207,0.122,0.427,0.122,628.947
103068,140720,7915,-0.084,-0.948,-0.202,0.488,0.244,0,628.953
103095,140577,19647,-0.084,-0.948,-0.202,0.488,0.244,0,628.957
103095,140714,7902,-0.082,-0.938,-0.2,0.732,0.244,0.122,628.963
103067,140577,19647,-0.082,-0.938,-0.2,0.732,0.244,0.122,628.967
103067,140712,7912,-0.088,-0.933,-0.207,0.488,0.427,0.305,628.973
103067,140577,19647,-0.088,-0.933,-0.207,0.488,0.427,0.305,628.977
103067,140719,7918,-0.083,-0.947,-0.201,0.549,0.305,0,628.983
103073,140577,19647,-0.083,-0.947,-0.201,0.549,0.305,0,628.987
103073,140721,7903,-0.082,-0.942,-0.207,0.549,0.366,-0.061,628.993
103071,140577,19647,-0.082,-0.942,-0.207,0.549,0.366,-0.061,628.997
103071,140707,7904,-0.083,-0.942,-0.208,0.183,0.366,0.183,629.003
103068,140577,19647,-0.083,-0.942,-0.208,0.183,0.366,0.183,629.006
103068,140710,7907,-0.086,-0.948,-0.21,-0.061,0.305,0.366,629.013
103092,140577,19647,-0.086,-0.948,-0.21,-0.061,0.305,0.366,629.016
103092,140720,7905,-0.088,-0.942,-0.207,-0.061,0.305,0.427,629.023
103084,140577,19647,-0.088,-0.942,-0.207,-0.061,0.305,0.427,629.026
103084,140710,7921,-0.086,-0.938,-0.203,0.061,0.183,0.366,629.032
103074,140577,19647,-0.086,-0.938,-0.203,0.061,0.183,0.366,629.036
103074,140755,7916,-0.085,-0.942,-0.205,-0.427,0.122,0.549,629.042
103094,140577,19647,-0.085,-0.942,-0.205,-0.427,0.122,0.549,629.046
103094,140710,7894,-0.09,-0.945,-0.207,-0.61,0.366,0.61,629.052
103071,140577,19647,-0.09,-0.945,-0.207,-0.61,0.366,0.61,629.056
103071,140703,7909,-0.091,-0.937,-0.205,0.061,0.488,0.488,629.062
103058,140577,19647,-0.091,-0.937,-0.205,0.061,0.488,0.488,629.066
103058,140691,7903,-0.085,-0.941,-0.194,0.671,0.488,0.366,629.072
103054,140577,19647,-0.085,-0.941,-0.194,0.671,0.488,0.366,629.076
103054,140681,7897,-0.088,-0.942,-0.2,0.183,0.61,0.366,629.082
103080,140577,19647,-0.088,-0.942,-0.2,0.183,0.61,0.366,629.086
103080,140691,7906,-0.091,-0.934,-0.211,-0.183,0.549,0.427,629.092
103055,140577,19647,-0.091,-0.934,-0.211,-0.183,0.549,0.427,629.096
103055,140681,7906,-0.088,-0.937,-0.21,-0.183,0.549,0.427,629.102
103083,140577,19647,-0.087,-0.94,-0.207,0.061,0.366,0.061,629.105
103083,140694,7919,-0.087,-0.941,-0.2,0.061,0.366,0.061,629.112
103086,140577,19647,-0.082,-0.947,-0.203,0.366,0.244,-0.244,629.115
103086,140681,7905,-0.083,-0.942,-0.202,0.366,0.244,-0.244,629.122
103057,140577,19647,-0.078,-0.941,-0.202,-0.061,0.427,0.061,629.125
103057,140674,7904,-0.083,-0.948,-0.207,-0.061,0.427,0.061,629.131
103041,140577,19647,-0.085,-0.943,-0.21,-0.61,0.427,0.488,629.135
103041,140696,7910,-0.087,-0.938,-0.215,-0.61,0.427,0.488,629.141
103069,140577,19647,-0.088,-0.941,-0.205,-0.305,0.305,0.549,629.145
103069,140682,7910,-0.086,-0.942,-0.199,-0.305,0.305,0.549,629.151
103043,140577,19647,-0.083,-0.938,-0.2,0.488,0.305,0.366,629.155
103043,140691,7909,-0.085,-0.937,-0.199,0.488,0.305,0.366,629.161
103063,140577,19647,-0.086,-0.935,-0.203,0.122,0.427,0.305,629.165
103063,140677,7901,-0.087,-0.936,-0.208,0.122,0.427,0.305,629.171
103053,140577,19647,-0.09,-0.941,-0.21,-0.366,0.61,0.244,629.175
103053,140684,7916,-0.089,-0.947,-0.208,-0.366,0.61,0.244,629.181
103049,140577,19647,-0.085,-0.943,-0.204,0.244,0.427,0.061,629.185
103049,140703,7919,-0.084,-0.944,-0.202,0.244,0.427,0.061,629.191
103082,140577,19647,-0.085,-0.944,-0.201,0.854,0.305,0.061,629.195
103082,140678,7895,-0.089,-0.941,-0.202,0.854,0.305,0.061,629.201
103057,140577,19647,-0.091,-0.939,-0.204,0,0.366,0.305,629.204
103057,140709,7917,-0.087,-0.938,-0.211,0,0.366,0.305,629.211
103076,140577,19647,-0.087,-0.939,-0.211,-0.183,0.366,0.244,629.214
103076,140708,7903,-0.087,-0.942,-0.206,-0.183,0.366,0.244,629.221
103066,140577,19647,-0.083,-0.944,-0.201,0.427,0.122,0.061,629.224
103066,140696,7915,-0.082,-0.942,-0.202,0.427,0.122,0.061,629.23
103070,140577,19647,-0.084,-0.938,-0.2,0.366,0,0.122,629.234
103070,140709,7915,-0.083,-0.937,-0.204,0.366,0,0.122,629.24
103080,140577,19647,-0.085,-0.941,-0.203,-0.122,0.244,0.244,629.244
103080,140711,7925,-0.086,-0.943,-0.202,-0.122,0.244,0.244,629.25
103072,140577,19647,-0.087,-0.944,-0.204,0,0.488,0.183,629.254
103072,140685,7907,-0.086,-0.941,-0.205,0,0.488,0.183,629.26
103055,140577,19647,-0.085,-0.943,-0.201,-0.061,0.549,0.183,629.264
103055,140705,7924,-0.086,-0.94,-0.204,-0.061,0.549,0.183,629.27
103064,140577,19647,-0.086,-0.94,-0.205,-0.122,0.488,0.305,629.274
103064,140712,7896,-0.087,-0.94,-0.202,-0.122,0.488,0.305,629.28
103066,140577,19647,-0.09,-0.937,-0.203,-0.061,0.488,0.244,629.284
103066,140692,7907,-0.085,-0.935,-0.204,-0.061,0.488,0.244,629.29
103069,140577,19647,-0.085,-0.939,-0.204,-0.122,0.244,0,629.294
103069,140697,7902,-0.086,-0.942,-0.202,-0.122,0.244,0,629.3
103060,140577,19647,-0.086,-0.944,-0.205,0.488,0.183,0.061,629.303
103060,140682,7896,-0.085,-0.948,-0.204,0.488,0.183,0.061,629.31
103069,140577,19647,-0.084,-0.946,-0.201,0.732,0.122,0.061,629.313
103069,140692,7896,-0.083,-0.944,-0.204,0.732,0.122,0.061,629.32
103073,140577,19647,-0.081,-0.942,-0.207,0.488,0.122,0.122,629.323
103073,140670,7907,-0.083,-0.944,-0.206,0.488,0.122,0.122,629.329
103066,140577,19647,-0.085,-0.943,-0.203,0.366,0.061,0.305,629.333
103066,140705,7905,-0.083,-0.942,-0.206,0.366,0.061,0.305,629.339
103070,140577,19647,-0.084,-0.941,-0.205,0.061,0,0.366,629.343
103070,140694,7893,-0.084,-0.941,-0.205,0.061,0,0.366,629.349
103063,140577,19647,-0.086,-0.942,-0.208,0,0.061,0.366,629.353
103063,140677,7911,-0.087,-0.938,-0.207,0,0.061,0.366,629.359
103075,140577,19647,-0.087,-0.935,-0.203,0.305,0.183,0.305,629.363
103075,140692,7907,-0.088,-0.939,-0.203,0.305,0.183,0.305,629.369
103092,140577,19647,-0.088,-0.939,-0.205,0.305,-0.061,0,629.373
103092,140676,7918,-0.092,-0.939,-0.2,0.305,-0.061,0,629.379
103062,140577,19647,-0.089,-0.94,-0.202,0,0.061,-0.122,629.383
103062,140688,7915,-0.089,-0.94,-0.207,0,0.061,-0.122,629.389
103050,140577,19647,-0.089,-0.944,-0.21,0.244,0.183,-0.122,629.393
103050,140710,7906,-0.086,-0.946,-0.203,0.244,0.183,-0.122,629.399
103067,140577,19647,-0.086,-0.944,-0.204,0.671,0.122,-0.061,629.402
103067,140714,7900,-0.084,-0.942,-0.202,0.671,0.122,-0.061,629.409
103078,140577,19647,-0.083,-0.94,-0.201,0.671,0,-0.061,629.412
103078,140697,7906,-0.082,-0.942,-0.202,0.671,0,-0.061,629.419
103051,140577,19647,-0.083,-0.945,-0.204,0.488,0.061,0.061,629.422
103051,140707,7900,-0.086,-0.942,-0.204,0.488,0.061,0.061,629.428
103062,140577,19647,-0.082,-0.941,-0.202,0.427,0.122,0.183,629.432
103062,140702,7898,-0.079,-0.941,-0.196,0.427,0.122,0.183,629.438
103061,140577,19647,-0.081,-0.939,-0.196,0.549,0.061,0.183,629.442
103061,140698,7910,-0.082,-0.94,-0.198,0.549,0.061,0.183,629.448
103065,140577,19647,-0.082,-0.942,-0.199,0.244,0.183,0.122,629.452
103065,140699,7908,-0.08,-0.944,-0.198,0.244,0.183,0.122,629.458
103073,140577,19647,-0.081,-0.941,-0.2,-0.244,0.305,0.305,629.462
103073,140695,7908,-0.081,-0.941,-0.204,-0.244,0.305,0.305,629.468
103051,140577,19647,-0.085,-0.943,-0.206,-0.244,0.366,0.305,629.472
103051,140707,7918,-0.087,-0.942,-0.205,-0.244,0.366,0.305,629.478
103088,140577,19647,-0.083,-0.943,-0.202,0.244,0.305,0.244,629.482
103088,140703,7906,-0.08,-0.942,-0.198,0.244,0.305,0.244,629.488
103075,140577,19647,-0.083,-0.941,-0.199,0.244,0.183,0.183,629.492
103075,140700,7919,-0.085,-0.94,-0.199,0.244,0.183,0.183,629.498
103078,140577,19647,-0.082,-0.941,-0.199,0,0.305,0.305,629.501
103078,140680,7898,-0.086,-0.943,-0.203,0,0.305,0.305,629.508
103073,140577,19647,-0.087,-0.946,-0.204,0.061,0.488,0.549,629.511
103073,140684,7911,-0.085,-0.945,-0.203,0.061,0.488,0.549,629.518
103043,140577,19647,-0.087,-0.939,-0.201,0.183,0.366,0.61,629.521
103043,140694,7922,-0.086,-0.937,-0.2,0.183,0.366,0.61,629.527
103063,140577,19647,-0.085,-0.939,-0.2,0.305,0.305,0.488,629.531
103063,140688,7911,-0.088,-0.939,-0.199,0.305,0.305,0.488,629.537
103068,140577,19647,-0.088,-0.939,-0.199,0.305,0.305,0.488,629.541
103068,140700,7916,-0.083,-0.941,-0.201,0.549,0.427,0.305,629.547
103078,140577,19647,-0.083,-0.941,-0.201,0.549,0.427,0.305,629.551
103078,140724,7912,-0.085,-0.941,-0.21,0.305,0.366,0.244,629.557
103086,140577,19647,-0.085,-0.941,-0.21,0.305,0.366,0.244,629.561
103086,140700,7911,-0.087,-0.944,-0.205,-0.061,0.366,0.366,629.567
103062,140577,19647,-0.087,-0.944,-0.205,-0.061,0.366,0.366,629.571
103062,140728,7908,-0.086,-0.939,-0.201,0.244,0.305,0.366,629.577
103098,140577,19647,-0.086,-0.939,-0.201,0.244,0.305,0.366,629.581
103098,140729,7906,-0.083,-0.942,-0.199,0.427,0.488,0.366,629.587
103073,140577,19647,-0.083,-0.942,-0.199,0.427,0.488,0.366,629.591
103073,140701,7912,-0.088,-0.937,-0.207,-0.061,0.61,0.366,629.597
103078,140577,19647,-0.088,-0.937,-0.207,-0.061,0.61,0.366,629.601
103078,140719,7911,-0.086,-0.944,-0.206,-0.549,0.488,0.488,629.607
103085,140577,19647,-0.086,-0.944,-0.206,-0.549,0.488,0.488,629.61
103085,140741,7910,-0.087,-0.941,-0.209,-0.061,0.183,0.305,629.617
103090,140577,19647,-0.087,-0.941,-0.209,-0.061,0.183,0.305,629.62
103090,140725,7915,-0.086,-0.941,-0.198,0.366,0.244,0.122,629.626
103096,140577,19647,-0.086,-0.941,-0.198,0.366,0.244,0.122,629.63
103096,140724,7915,-0.082,-0.945,-0.197,0.61,0.244,-0.061,629.636
103077,140577,19647,-0.082,-0.945,-0.197,0.61,0.244,-0.061,629.64
103077,140736,7906,-0.085,-0.942,-0.202,-0.244,0.183,0.061,629.646
103086,140577,19647,-0.085,-0.942,-0.202,-0.244,0.183,0.061,629.65
103086,140710,7919,-0.083,-0.945,-0.199,-0.549,0.427,0.366,629.656
103106,140577,19647,-0.083,-0.945,-0.199,-0.549,0.427,0.366,629.66
103106,140718,7918,-0.085,-0.937,-0.197,0.122,0.549,0.427,629.666
103084,140577,19647,-0.085,-0.937,-0.197,0.122,0.549,0.427,629.67
103084,140722,7913,-0.082,-0.941,-0.2,0.305,0.671,0.427,629.676
103097,140577,19647,-0.082,-0.941,-0.2,0.305,0.671,0.427,629.68
103097,140731,7914,-0.084,-0.941,-0.219,0,0.732,0.427,629.686
103119,140577,19647,-0.084,-0.941,-0.219,0,0.732,0.427,629.69
103119,140724,7915,-0.089,-0.943,-0.214,-0.305,0.671,0.366,629.696
103117,140577,19647,-0.088,-0.942,-0.211,-0.305,0.671,0.366,629.699
103117,140730,7906,-0.085,-0.941,-0.208,0.122,0.244,0.183,629.706
103101,140577,19647,-0.085,-0.94,-0.201,0.122,0.244,0.183,629.709
103101,140744,7924,-0.083,-0.943,-0.198,0.732,-0.122,0,629.716
103119,140577,19647,-0.085,-0.945,-0.197,0.732,-0.122,0,629.719
103119,140728,7903,-0.082,-0.943,-0.198,0.183,0,0,629.725
103105,140577,19647,-0.084,-0.947,-0.198,0.183,0,0,629.729
103105,140745,7897,-0.085,-0.95,-0.203,-0.366,0.244,0.305,629.735
103105,140577,19647,-0.083,-0.945,-0.206,-0.366,0.244,0.305,629.739
103105,140746,7911,-0.086,-0.943,-0.202,0.061,0.183,0.671,629.745
103102,140577,19647,-0.088,-0.945,-0.195,0.061,0.183,0.671,629.749
103102,140751,7926,-0.085,-0.941,-0.195,0.366,0.305,0.671,629.755
103095,140577,19647,-0.085,-0.934,-0.197,0.366,0.305,0.671,629.759
103095,140718,7917,-0.087,-0.933,-0.2,-0.183,0.366,0.671,629.765
103100,140577,19647,-0.088,-0.936,-0.198,-0.183,0.366,0.671,629.769
103100,140728,7904,-0.091,-0.944,-0.204,-0.366,0.366,0.427,629.775
103109,140577,19647,-0.087,-0.947,-0.201,-0.366,0.366,0.427,629.779
103109,140742,7926,-0.085,-0.943,-0.201,0.061,0.305,0.122,629.785
103085,140577,19647,-0.086,-0.94,-0.197,0.061,0.305,0.122,629.789
103085,140730,7889,-0.087,-0.939,-0.197,0.122,0.366,0.122,629.795
103093,140577,19647,-0.087,-0.94,-0.197,0.122,0.366,0.122,629.799
103093,140725,7929,-0.084,-0.944,-0.199,-0.122,0.61,0.061,629.805
103095,140577,19647,-0.086,-0.945,-0.202,-0.122,0.61,0.061,629.808
103095,140735,7903,-0.084,-0.944,-0.207,-0.427,0.732,0.122,629.815
103091,140577,19647,-0.086,-0.942,-0.206,-0.427,0.732,0.122,629.818
103091,140732,7913,-0.083,-0.944,-0.204,-0.244,0.488,0.244,629.824
103087,140577,19647,-0.082,-0.948,-0.203,-0.244,0.488,0.244,629.828
103087,140737,7914,-0.081,-0.946,-0.201,0,0.244,0.427,629.834
103115,140577,19647,-0.081,-0.939,-0.202,0,0.244,0.427,629.838
103115,140757,7918,-0.084,-0.937,-0.203,-0.305,0.122,0.61,629.844
103103,140577,19647,-0.087,-0.94,-0.205,-0.305,0.122,0.61,629.848
103103,140736,7933,-0.087,-0.945,-0.207,-0.366,0.244,0.549,629.854
103097,140577,19647,-0.086,-0.944,-0.2,-0.366,0.244,0.549,629.858
103097,140730,7906,-0.085,-0.943,-0.199,-0.061,0.061,0.488,629.864
103081,140577,19647,-0.084,-0.94,-0.2,-0.061,0.061,0.488,629.868
103081,140720,7919,-0.087,-0.937,-0.203,0.122,0,0.366,629.874
103120,140577,19647,-0.087,-0.936,-0.205,0.122,0,0.366,629.878
103120,140735,7930,-0.089,-0.94,-0.203,0.305,0,0.183,629.884
103088,140577,19647,-0.089,-0.945,-0.198,0.305,0,0.183,629.888
103088,140740,7913,-0.084,-0.944,-0.196,0.305,0,0.061,629.894
103094,140577,19647,-0.084,-0.94,-0.197,0.305,0,0.061,629.897
103094,140751,7907,-0.084,-0.939,-0.201,-0.122,0.061,0,629.904
103089,140577,19647,-0.086,-0.941,-0.202,-0.122,0.061,0,629.907
103089,140725,7915,-0.087,-0.94,-0.202,-0.305,0.244,0.183,629.914
103095,140577,19647,-0.089,-0.945,-0.198,-0.305,0.244,0.183,629.917
103095,140752,7923,-0.088,-0.944,-0.201,0.366,0.305,0.183,629.923
103105,140577,19647,-0.084,-0.942,-0.199,0.366,0.305,0.183,629.927
103105,140773,7914,-0.082,-0.942,-0.195,0.915,0.305,0,629.933
103103,140577,19647,-0.083,-0.941,-0.196,0.915,0.305,0,629.937
103103,140739,7923,-0.081,-0.938,-0.198,0.61,0.488,0.122,629.943
103084,140577,19647,-0.086,-0.94,-0.2,0.61,0.488,0.122,629.947
103084,140746,7918,-0.085,-0.942,-0.195,0.122,0.427,0.366,629.953
103097,140577,19647,-0.083,-0.942,-0.197,0.122,0.427,0.366,629.957
103097,140750,7914,-0.082,-0.941,-0.203,-0.183,0.305,0.305,629.963
103101,140577,19647,-0.083,-0.944,-0.205,-0.183,0.305,0.305,629.967
103101,140734,7943,-0.081,-0.944,-0.202,-0.122,0.305,0.244,629.973
103097,140577,19647,-0.081,-0.941,-0.205,-0.122,0.305,0.244,629.977
103097,140742,7901,-0.082,-0.943,-0.202,0.122,0.122,0.305,629.983
103110,140577,19647,-0.084,-0.942,-0.201,0.122,0.122,0.305,629.987
103110,140720,7913,-0.087,-0.944,-0.199,0,0.061,0.427,629.993
103077,140577,19647,-0.085,-0.944,-0.203,0,0.061,0.427,629.997
103077,140730,7920,-0.088,-0.939,-0.204,0.183,0.183,0.427,630.003
103098,140577,19647,-0.088,-0.939,-0.202,0.183,0.183,0.427,630.006
103098,140734,7910,-0.086,-0.942,-0.202,0.305,0.244,0.427,630.013
103089,140577,19647,-0.083,-0.944,-0.196,0.305,0.244,0.427,630.016
103089,140756,7915,-0.085,-0.939,-0.193,0.122,0.244,0.366,630.022
103098,140577,19647,-0.086,-0.938,-0.198,0.122,0.244,0.366,630.026
103098,140715,7923,-0.085,-0.942,-0.192,-0.061,0.305,0.366,630.032
103097,140577,19647,-0.085,-0.938,-0.192,-0.061,0.305,0.366,630.036
103097,140752,7915,-0.085,-0.939,-0.198,-0.122,0.427,0.366,630.042
103080,140577,19647,-0.085,-0.943,-0.196,-0.122,0.427,0.366,630.046
103080,140717,7923,-0.085,-0.949,-0.197,-0.488,0.488,0.366,630.052
103091,140577,19647,-0.081,-0.947,-0.198,-0.488,0.488,0.366,630.056
103091,140706,7905,-0.084,-0.944,-0.197,-0.427,0.671,0.488,630.062
103072,140577,19647,-0.084,-0.94,-0.201,-0.427,0.671,0.488,630.066
103072,140700,7916,-0.085,-0.934,-0.202,-0.427,0.61,0.671,630.072
103069,140577,19647,-0.087,-0.933,-0.205,-0.427,0.61,0.671,630.076
103069,140723,7923,-0.084,-0.94,-0.204,-0.366,0.427,0.488,630.082
103088,140577,19647,-0.084,-0.946,-0.201,-0.366,0.427,0.488,630.086
103088,140710,7915,-0.086,-0.944,-0.199,-0.244,0.366,0.366,630.092
103087,140577,19647,-0.085,-0.942,-0.198,-0.244,0.366,0.366,630.096
103087,140716,7923,-0.083,-0.939,-0.197,-0.183,0.366,0.305,630.102
103108,140577,19647,-0.087,-0.941,-0.197,-0.183,0.366,0.305,630.105
103108,140728,7906,-0.086,-0.943,-0.198,-0.305,0.549,0.366,630.112
103075,140577,19647,-0.088,-0.944,-0.198,-0.305,0.549,0.366,630.115
103075,140719,7912,-0.088,-0.944,-0.201,-0.366,0.671,0.366,630.122
103085,140577,19647,-0.083,-0.941,-0.204,-0.366,0.671,0.366,630.125
103085,140698,7906,-0.087,-0.938,-0.204,-0.122,0.61,0.305,630.131
103069,140577,19647,-0.087,-0.938,-0.204,-0.122,0.61,0.305,630.135
103069,140720,7920,-0.085,-0.943,-0.205,0.122,0.488,0.244,630.141
103075,140577,19647,-0.085,-0.943,-0.205,0.122,0.488,0.244,630.145
103075,140702,7921,-0.085,-0.946,-0.2,0.427,0.305,0.305,630.151
103087,140577,19647,-0.085,-0.946,-0.2,0.427,0.305,0.305,630.155
103087,140718,7910,-0.086,-0.937,-0.194,0.427,0.244,0.244,630.161
103082,140577,19647,-0.086,-0.937,-0.194,0.427,0.244,0.244,630.165
103082,140700,7907,-0.086,-0.939,-0.198,0.122,0.427,0.183,630.171
103076,140577,19647,-0.086,-0.939,-0.198,0.122,0.427,0.183,630.175
103076,140733,7913,-0.085,-0.943,-0.198,-0.122,0.61,0.244,630.181
103100,140577,19647,-0.085,-0.943,-0.198,-0.122,0.61,0.244,630.185
103100,140721,7907,-0.086,-0.946,-0.197,-0.061,0.488,0.305,630.191
103063,140577,19647,-0.086,-0.946,-0.197,-0.061,0.488,0.305,630.195
103063,140721,7907,-0.088,-0.939,-0.194,-0.061,0.427,0.244,630.201
103075,140577,19647,-0.088,-0.939,-0.194,-0.061,0.427,0.244,630.204
103075,140712,7909,-0.084,-0.943,-0.2,-0.305,0.427,0.305,630.211
103087,140577,19647,-0.084,-0.943,-0.2,-0.305,0.427,0.305,630.214
103087,140720,7922,-0.084,-0.941,-0.202,-0.122,0.427,0.305,630.22
103086,140577,19647,-0.084,-0.941,-0.202,-0.122,0.427,0.305,630.224
103086,140729,7920,-0.086,-0.939,-0.204,0,0.366,0.305,630.23
103088,140577,19647,-0.086,-0.939,-0.204,0,0.366,0.305,630.234
103088,140732,7921,-0.085,-0.942,-0.204,-0.122,0.366,0.366,630.24
103101,140577,19647,-0.085,-0.942,-0.204,-0.122,0.366,0.366,630.244
103101,140721,7910,-0.085,-0.943,-0.203,-0.183,0.366,0.244,630.25
103083,140577,19647,-0.085,-0.943,-0.203,-0.183,0.366,0.244,630.254
103083,140744,7921,-0.083,-0.944,-0.194,-0.061,0.305,0.244,630.26
103112,140577,19647,-0.083,-0.944,-0.194,-0.061,0.305,0.244,630.264
103112,140733,7922,-0.085,-0.94,-0.202,-0.549,0.427,0.366,630.27
103089,140577,19647,-0.085,-0.94,-0.202,-0.549,0.427,0.366,630.274
103089,140722,7916,-0.087,-0.937,-0.203,-0.549,0.427,0.366,630.28
103105,140577,19647,-0.087,-0.942,-0.204,-1.037,0.549,0.366,630.284
103105,140739,7912,-0.084,-0.95,-0.204,-1.037,0.549,0.366,630.29
103099,140577,19647,-0.083,-0.948,-0.202,-0.488,0.366,0.366,630.293
103099,140733,7905,-0.083,-0.945,-0.195,-0.488,0.366,0.366,630.3
103086,140577,19647,-0.083,-0.936,-0.196,-0.305,0.305,0.549,630.303
103086,140716,7910,-0.085,-0.938,-0.199,-0.305,0.305,0.549,630.31
103088,140577,19647,-0.085,-0.941,-0.2,-0.427,0.366,0.549,630.313
103088,140747,7920,-0.085,-0.944,-0.203,-0.427,0.366,0.549,630.319
103097,140577,19647,-0.085,-0.944,-0.198,-0.488,0.366,0.427,630.323
103097,140751,7919,-0.085,-0.943,-0.201,-0.488,0.366,0.427,630.329
103081,140577,19647,-0.084,-0.941,-0.204,-0.366,0.305,0.488,630.333
103081,140740,7911,-0.084,-0.938,-0.201,-0.366,0.305,0.488,630.339
103118,140577,19647,-0.086,-0.941,-0.199,0,0.183,0.305,630.343
103118,140756,7922,-0.085,-0.943,-0.197,0,0.183,0.305,630.349
103088,140577,19647,-0.083,-0.94,-0.198,0.061,0.244,0.305,630.353
103088,140724,7928,-0.085,-0.943,-0.203,0.061,0.244,0.305,630.359
103113,140577,19647,-0.086,-0.945,-0.199,-0.183,0.427,0.488,630.363
103113,140719,7928,-0.082,-0.944,-0.202,-0.183,0.427,0.488,630.369
103091,140577,19647,-0.085,-0.942,-0.2,0,0.427,0.61,630.373
103091,140721,7920,-0.084,-0.94,-0.2,0,0.427,0.61,630.379
103117,140577,19647,-0.085,-0.936,-0.196,-0.183,0.488,0.61,630.383
103117,140739,7912,-0.084,-0.935,-0.198,-0.183,0.488,0.61,630.389
