103777,140321,19647,-0.098,-0.914,-0.282,-0.122,0.793,1.159,329.016
103777,140417,7975,-0.098,-0.92,-0.276,-0.122,0.793,1.159,329.022
103800,140321,19647,-0.094,-0.91,-0.296,-0.549,0.793,0.915,329.025
103800,140424,7971,-0.096,-0.917,-0.295,-0.549,0.793,0.915,329.032
103813,140321,19647,-0.099,-0.924,-0.288,-1.159,1.037,1.22,329.035
103813,140411,7969,-0.101,-0.92,-0.291,-1.159,1.037,1.22,329.042
103758,140321,19647,-0.103,-0.919,-0.29,-0.854,1.341,1.22,329.045
103758,140385,7960,-0.101,-0.919,-0.291,-0.854,1.341,1.22,329.051
103807,140321,19647,-0.099,-0.913,-0.297,-0.61,1.098,0.976,329.055
103807,140444,7957,-0.097,-0.914,-0.289,-0.61,1.098,0.976,329.061
103796,140321,19647,-0.098,-0.913,-0.292,-0.976,1.098,0.976,329.065
103796,140426,7953,-0.102,-0.915,-0.305,-0.976,1.098,0.976,329.071
103795,140321,19647,-0.105,-0.914,-0.305,-1.037,1.22,0.793,329.075
103795,140449,7979,-0.11,-0.913,-0.308,-1.037,1.22,0.793,329.081
103826,140321,19647,-0.109,-0.909,-0.3,0.061,0.854,0.549,329.085
103826,140454,7967,-0.108,-0.901,-0.293,0.061,0.854,0.549,329.091
103768,140321,19647,-0.105,-0.901,-0.293,0.671,0.366,-0.122,329.095
103768,140395,7974,-0.1,-0.906,-0.301,0.671,0.366,-0.122,329.101
103843,140321,19647,-0.1,-0.919,-0.296,0.244,0.122,-0.366,329.105
103843,140471,7976,-0.102,-0.93,-0.278,0.244,0.122,-0.366,329.111
103832,140321,19647,-0.097,-0.931,-0.269,0.427,-0.061,-0.427,329.115
103832,140476,7964,-0.094,-0.921,-0.289,0.427,-0.061,-0.427,329.121
103831,140321,19647,-0.098,-0.926,-0.295,-0.549,0,0,329.124
103831,140452,7977,-0.106,-0.935,-0.282,-0.549,0,0,329.131
103846,140321,19647,-0.109,-0.936,-0.284,-0.732,0.305,0.732,329.134
103846,140474,7969,-0.101,-0.936,-0.273,-0.732,0.305,0.732,329.141
103826,140321,19647,-0.097,-0.929,-0.281,-1.159,0.366,1.28,329.144
103826,140465,7975,-0.092,-0.917,-0.303,-1.159,0.366,1.28,329.15
103814,140321,19647,-0.102,-0.919,-0.304,-1.524,0.671,1.89,329.154
103814,140434,7972,-0.108,-0.918,-0.297,-1.524,0.671,1.89,329.16
103835,140321,19647,-0.108,-0.911,-0.301,-0.122,0.915,2.012,329.164
103835,140457,7969,-0.101,-0.895,-0.309,-0.122,0.915,2.012,329.17
103803,140321,19647,-0.095,-0.887,-0.31,0.671,0.305,1.098,329.174
103803,140423,7969,-0.099,-0.901,-0.283,0.671,0.305,1.098,329.18
103791,140321,19647,-0.1,-0.905,-0.265,0.976,-0.061,0.183,329.184
103791,140457,7959,-0.1,-0.891,-0.302,0.976,-0.061,0.183,329.19
103814,140321,19647,-0.099,-0.897,-0.32,-0.671,0.061,-0.244,329.194
103814,140424,7969,-0.107,-0.922,-0.292,-0.671,0.061,-0.244,329.2
103809,140321,19647,-0.104,-0.926,-0.28,0.244,0.122,-0.61,329.204
103809,140419,7982,-0.1,-0.917,-0.281,0.244,0.122,-0.61,329.21
103810,140321,19647,-0.093,-0.916,-0.281,0.854,-0.122,-0.793,329.214
103810,140403,7958,-0.099,-0.918,-0.298,0.854,-0.122,-0.793,329.22
103797,140321,19647,-0.103,-0.923,-0.306,0.061,0.183,-0.671,329.223
103797,140428,7967,-0.107,-0.934,-0.301,0.061,0.183,-0.671,329.23
103793,140321,19647,-0.108,-0.934,-0.296,0.732,0.366,-0.183,329.233
103793,140433,7974,-0.104,-0.925,-0.285,0.732,0.366,-0.183,329.24
103823,140321,19647,-0.098,-0.921,-0.274,1.463,-0.305,-0.305,329.243
103823,140426,7952,-0.092,-0.918,-0.288,1.463,-0.305,-0.305,329.249
103802,140321,19647,-0.095,-0.914,-0.304,0.549,-0.427,0.122,329.253
103802,140419,7964,-0.105,-0.92,-0.302,0.549,-0.427,0.122,329.259
103820,140321,19647,-0.112,-0.918,-0.292,-0.122,-0.122,0.549,329.263
103820,140431,7980,-0.108,-0.916,-0.276,-0.122,-0.122,0.549,329.269
103799,140321,19647,-0.1,-0.918,-0.272,0.915,-0.549,0.061,329.273
103799,140421,7967,-0.093,-0.912,-0.286,0.915,-0.549,0.061,329.279
103787,140321,19647,-0.094,-0.909,-0.298,0.549,-0.549,-0.061,329.283
103787,140409,7961,-0.099,-0.913,-0.296,0.549,-0.549,-0.061,329.289
103758,140321,19647,-0.106,-0.915,-0.292,0.061,0.122,0,329.293
103758,140411,7976,-0.103,-0.918,-0.29,0.061,0.122,0,329.299
103774,140321,19647,-0.1,-0.916,-0.292,0.305,0.183,-0.183,329.303
103774,140426,7959,-0.094,-0.916,-0.296,0.305,0.183,-0.183,329.309
103761,140321,19647,-0.094,-0.916,-0.291,0.793,0.122,-0.366,329.313
103761,140395,7963,-0.098,-0.92,-0.294,0.793,0.122,-0.366,329.319
103760,140321,19647,-0.099,-0.922,-0.295,0.61,0.061,-0.305,329.322
103760,140418,7972,-0.096,-0.924,-0.29,0.61,0.061,-0.305,329.329
103774,140321,19647,-0.099,-0.921,-0.286,0.488,-0.122,-0.122,329.332
103774,140441,7972,-0.098,-0.923,-0.268,0.488,-0.122,-0.122,329.339
103795,140321,19647,-0.096,-0.916,-0.27,0.488,-0.183,-0.122,329.342
103795,140449,7970,-0.095,-0.907,-0.288,0.488,-0.183,-0.122,329.348
103828,140321,19647,-0.095,-0.907,-0.288,0.488,-0.183,-0.122,329.352
103828,140461,7959,-0.104,-0.928,-0.287,-0.915,0.305,0.122,329.358
103802,140321,19647,-0.104,-0.928,-0.287,-0.915,0.305,0.122,329.362
103802,140435,7966,-0.102,-0.921,-0.276,-0.061,0.61,0.305,329.368
103791,140321,19647,-0.102,-0.921,-0.276,-0.061,0.61,0.305,329.372
103791,140434,7961,-0.093,-0.909,-0.3,0.732,0.366,-0.122,329.378
103786,140321,19647,-0.093,-0.909,-0.3,0.732,0.366,-0.122,329.382
103786,140410,7969,-0.102,-0.92,-0.292,0.366,0.488,-0.183,329.388
103746,140321,19647,-0.102,-0.92,-0.292,0.366,0.488,-0.183,329.392
103746,140367,7963,-0.101,-0.911,-0.304,0.61,0.793,0.122,329.398
103732,140321,19647,-0.101,-0.911,-0.304,0.61,0.793,0.122,329.402
103732,140370,7965,-0.094,-0.923,-0.283,1.098,0.305,-0.488,329.408
103726,140321,19647,-0.094,-0.923,-0.283,1.098,0.305,-0.488,329.412
103726,140343,7956,-0.094,-0.912,-0.304,0.976,-0.061,-0.427,329.418
103704,140321,19647,-0.094,-0.912,-0.304,0.976,-0.061,-0.427,329.421
103704,140331,7951,-0.105,-0.923,-0.286,-0.061,0.244,-0.122,329.428
103733,140321,19647,-0.105,-0.923,-0.286,-0.061,0.244,-0.122,329.431
103733,140369,7952,-0.101,-0.912,-0.292,0.915,0.183,-0.244,329.438
103718,140321,19647,-0.101,-0.912,-0.292,0.915,0.183,-0.244,329.441
103718,140329,7962,-0.097,-0.923,-0.288,0.915,-0.061,-0.61,329.447
103730,140321,19647,-0.097,-0.923,-0.288,0.915,-0.061,-0.61,329.451
103730,140365,7971,-0.104,-0.922,-0.289,0.549,0.061,-0.305,329.457
103718,140321,19647,-0.104,-0.922,-0.289,0.549,0.061,-0.305,329.461
103718,140309,7952,-0.097,-0.918,-0.289,0.732,0.122,-0.244,329.467
103736,140321,19647,-0.097,-0.918,-0.289,0.732,0.122,-0.244,329.471
103736,140353,7951,-0.096,-0.923,-0.282,1.037,0.061,-0.244,329.477
103683,140321,19647,-0.096,-0.923,-0.282,1.037,0.061,-0.244,329.481
103683,140340,7951,-0.095,-0.921,-0.291,0.854,0.122,-0.122,329.487
103714,140321,19647,-0.095,-0.921,-0.291,0.854,0.122,-0.122,329.491
103714,140331,7949,-0.097,-0.918,-0.293,0.427,0.122,0.244,329.497
103699,140321,19647,-0.099,-0.918,-0.289,0.427,0.122,0.244,329.501
103699,140354,7942,-0.099,-0.916,-0.286,0.488,0.244,0.244,329.507
103729,140321,19647,-0.099,-0.913,-0.278,0.488,0.244,0.244,329.511
103729,140344,7947,-0.097,-0.912,-0.274,0.915,0.305,0,329.517
103705,140321,19647,-0.095,-0.911,-0.284,0.915,0.305,0,329.52
103705,140336,7946,-0.096,-0.913,-0.297,0.244,0.305,-0.061,329.527
103724,140321,19647,-0.1,-0.917,-0.295,0.244,0.305,-0.061,329.53
103724,140374,7948,-0.103,-0.923,-0.287,-0.061,0.488,0.061,329.536
103755,140321,19647,-0.103,-0.923,-0.284,-0.061,0.488,0.061,329.54
103755,140359,7956,-0.099,-0.92,-0.284,0.488,0.244,-0.122,329.546
103741,140321,19647,-0.097,-0.922,-0.276,0.488,0.244,-0.122,329.55
103741,140328,7944,-0.092,-0.923,-0.281,0.61,0,-0.061,329.556
103758,140321,19647,-0.095,-0.93,-0.283,0.61,0,-0.061,329.56
103758,140391,7955,-0.095,-0.929,-0.282,-0.122,0.244,0.366,329.566
103745,140321,19647,-0.096,-0.919,-0.29,-0.122,0.244,0.366,329.57
103745,140356,7950,-0.098,-0.915,-0.294,-0.305,0.427,0.488,329.576
103723,140321,19647,-0.102,-0.92,-0.286,-0.305,0.427,0.488,329.58
103723,140368,7960,-0.098,-0.919,-0.28,0.183,0.427,0.549,329.586
103756,140321,19647,-0.095,-0.912,-0.288,0.183,0.427,0.549,329.59
103756,140359,7952,-0.096,-0.908,-0.304,-0.061,0.305,0.427,329.596
103750,140321,19647,-0.098,-0.912,-0.299,-0.061,0.305,0.427,329.6
103750,140353,7956,-0.101,-0.92,-0.293,0.183,0.183,0.366,329.606
103745,140321,19647,-0.105,-0.923,-0.289,0.183,0.183,0.366,329.61
103745,140353,7954,-0.103,-0.917,-0.288,0.61,0,0.122,329.616
103747,140321,19647,-0.097,-0.914,-0.281,0.61,0,0.122,329.619
103747,140325,7965,-0.095,-0.917,-0.281,0.61,-0.183,-0.183,329.626
103748,140321,19647,-0.099,-0.919,-0.286,0.61,-0.183,-0.183,329.629
103748,140371,7958,-0.101,-0.92,-0.293,0.061,0,0.061,329.636
103734,140321,19647,-0.104,-0.924,-0.282,0.061,0,0.061,329.639
103734,140324,7931,-0.102,-0.921,-0.284,0.183,0.122,0.183,329.645
103709,140321,19647,-0.099,-0.92,-0.291,0.183,0.122,0.183,329.649
103709,140326,7946,-0.097,-0.924,-0.29,-0.122,0.122,0.183,329.655
103710,140321,19647,-0.102,-0.92,-0.292,-0.122,0.122,0.183,329.659
103710,140325,7938,-0.1,-0.92,-0.304,-0.366,0.244,0.427,329.665
103669,140321,19647,-0.1,-0.933,-0.295,-0.366,0.244,0.427,329.669
103669,140296,7946,-0.102,-0.931,-0.27,0,0.244,0.488,329.675
103663,140321,19647,-0.1,-0.914,-0.274,0,0.244,0.488,329.679
103663,140318,7946,-0.096,-0.908,-0.292,-0.366,0.061,0.549,329.685
103651,140065,19647,-0.097,-0.92,-0.292,-0.366,0.061,0.549,329.689
103651,140281,7955,-0.098,-0.927,-0.289,-0.61,0.244,0.732,329.695
103675,140321,19647,-0.102,-0.921,-0.29,-0.61,0.244,0.732,329.699
103675,140299,7950,-0.105,-0.912,-0.286,-0.061,0.427,0.793,329.705
103659,140321,19647,-0.102,-0.905,-0.282,-0.061,0.427,0.793,329.709
103659,140293,7931,-0.098,-0.907,-0.29,0.61,0.183,0.244,329.715
103635,140065,19647,-0.096,-0.918,-0.285,0.61,0.183,0.244,329.718
103635,140283,7940,-0.096,-0.917,-0.281,0.61,0.122,0.122,329.725
103642,140065,19647,-0.098,-0.913,-0.27,0.61,0.122,0.122,329.728
103642,140275,7941,-0.094,-0.914,-0.278,0.122,0.122,-0.061,329.735
103627,140065,19647,-0.091,-0.917,-0.294,0.122,0.122,-0.061,329.738
103627,140257,7943,-0.096,-0.934,-0.282,-0.671,0.244,0,329.744
103617,140065,19647,-0.094,-0.941,-0.266,-0.671,0.244,0,329.748
103617,140258,7944,-0.093,-0.927,-0.284,-0.427,0.366,0.549,329.754
103585,140065,19647,-0.094,-0.922,-0.295,-0.427,0.366,0.549,329.758
103585,140248,7938,-0.1,-0.926,-0.287,-0.427,0.305,0.793,329.764
103593,140065,19647,-0.098,-0.925,-0.289,-0.427,0.305,0.793,329.768
103593,140234,7929,-0.098,-0.914,-0.292,0.122,0.305,1.159,329.774
103586,140065,19647,-0.097,-0.912,-0.288,0.122,0.305,1.159,329.778
103586,140230,7931,-0.099,-0.911,-0.288,0.244,0.366,0.732,329.784
103545,140065,19647,-0.103,-0.906,-0.292,0.244,0.366,0.732,329.788
103545,140239,7923,-0.1,-0.909,-0.296,0.061,0.244,0.427,329.794
103551,140065,19647,-0.1,-0.918,-0.287,0.061,0.244,0.427,329.798
103551,140213,7929,-0.097,-0.92,-0.292,-0.305,0.183,0.061,329.804
103533,140065,19647,-0.101,-0.911,-0.292,-0.305,0.183,0.061,329.808
103533,140215,7933,-0.106,-0.921,-0.272,-0.732,0.183,-0.061,329.814
103535,140065,19647,-0.099,-0.935,-0.261,-0.732,0.183,-0.061,329.817
103535,140197,7926,-0.093,-0.926,-0.29,-0.976,0.244,0.183,329.824
103552,140065,19647,-0.091,-0.931,-0.308,-0.976,0.244,0.183,329.827
103552,140227,7928,-0.104,-0.94,-0.295,-1.585,0.671,0.671,329.834
103548,140065,19647,-0.107,-0.934,-0.283,-1.585,0.671,0.671,329.837
103548,140222,7942,-0.106,-0.915,-0.295,-0.427,0.671,1.28,329.843
103519,140065,19647,-0.101,-0.915,-0.291,-0.427,0.671,1.28,329.847
103519,140203,7927,-0.101,-0.918,-0.284,0.61,0.305,0.915,329.853
103535,140065,19647,-0.101,-0.909,-0.284,0.61,0.305,0.915,329.857
103535,140210,7928,-0.101,-0.9,-0.278,1.159,0.183,0.61,329.863
103521,140065,19647,-0.1,-0.896,-0.287,1.159,0.183,0.61,329.867
103521,140209,7935,-0.102,-0.896,-0.298,0.366,0.183,0.183,329.873
103544,140065,19647,-0.102,-0.913,-0.292,0.366,0.183,0.183,329.877
103544,140218,7932,-0.103,-0.931,-0.282,0.305,0.305,-0.305,329.883
103512,140065,19647,-0.099,-0.93,-0.289,0.305,0.305,-0.305,329.887
103512,140214,7933,-0.095,-0.921,-0.302,0.488,0,-0.488,329.893
103501,140065,19647,-0.095,-0.929,-0.279,0.488,0,-0.488,329.897
103501,140178,7929,-0.096,-0.936,-0.254,0.671,-0.305,-0.305,329.903
103480,140065,19647,-0.088,-0.922,-0.279,0.671,-0.305,-0.305,329.907
103480,140225,7941,-0.09,-0.916,-0.309,-1.341,0,0.427,329.913
103484,140065,19647,-0.101,-0.93,-0.303,-1.341,0,0.427,329.916
103484,140182,7924,-0.106,-0.932,-0.279,-1.402,0.61,0.915,329.923
103472,140065,19647,-0.102,-0.917,-0.286,-1.402,0.61,0.915,329.926
103472,140190,7922,-0.098,-0.906,-0.302,0.061,0.488,0.732,329.933
103483,140065,19647,-0.102,-0.904,-0.307,0.061,0.488,0.732,329.936
103483,140196,7910,-0.104,-0.908,-0.298,0.671,0.183,0.244,329.942
103470,140065,19647,-0.104,-0.908,-0.298,0.671,0.183,0.244,329.946
103470,140188,7914,-0.095,-0.905,-0.289,1.28,-0.183,-0.061,329.952
103439,140065,19647,-0.095,-0.905,-0.289,1.28,-0.183,-0.061,329.956
103439,140176,7922,-0.096,-0.913,-0.298,0.061,-0.366,-0.61,329.962
103440,140065,19647,-0.096,-0.913,-0.298,0.061,-0.366,-0.61,329.966
103440,140157,7927,-0.105,-0.933,-0.255,0.244,-0.305,-0.732,329.972
103424,140065,19647,-0.105,-0.933,-0.255,0.244,-0.305,-0.732,329.976
103424,140181,7920,-0.093,-0.916,-0.287,-1.22,-0.488,-0.366,329.982
103451,140065,19647,-0.093,-0.916,-0.287,-1.22,-0.488,-0.366,329.986
103451,140182,7917,-0.108,-0.936,-0.281,-1.951,0.244,0.366,329.992
103446,140065,19647,-0.108,-0.936,-0.281,-1.951,0.244,0.366,329.996
103446,140164,7917,-0.106,-0.922,-0.283,-0.244,0.732,0.61,330.002
103425,140065,19647,-0.106,-0.922,-0.283,-0.244,0.732,0.61,330.006
103425,140181,7923,-0.092,-0.917,-0.297,0.488,0.366,0.427,330.012
103448,140065,19647,-0.092,-0.917,-0.297,0.488,0.366,0.427,330.015
103448,140192,7932,-0.102,-0.927,-0.262,1.037,0.244,0.488,330.022
103443,140065,19647,-0.102,-0.927,-0.262,1.037,0.244,0.488,330.025
103443,140157,7920,-0.085,-0.891,-0.289,0.122,0.183,0.183,330.032
103460,140065,19647,-0.085,-0.891,-0.289,0.122,0.183,0.183,330.035
103460,140211,7916,-0.098,-0.936,-0.286,-1.585,0.793,0.061,330.041
103467,140065,19647,-0.098,-0.936,-0.286,-1.585,0.793,0.061,330.045
103467,140175,7929,-0.099,-0.921,-0.286,-0.183,0.976,0.427,330.051
103456,140065,19647,-0.099,-0.921,-0.286,-0.183,0.976,0.427,330.055
103456,140182,7919,-0.093,-0.914,-0.305,-0.183,0.671,0.122,330.061
103489,140065,19647,-0.093,-0.914,-0.305,-0.183,0.671,0.122,330.065
103489,140204,7922,-0.1,-0.923,-0.297,0.854,0.549,0.305,330.071
103489,140065,19647,-0.1,-0.923,-0.297,0.854,0.549,0.305,330.075
103489,140204,7917,-0.101,-0.911,-0.289,1.524,0.305,-0.122,330.081
103476,140065,19647,-0.101,-0.911,-0.289,1.524,0.305,-0.122,330.085
103476,140196,7926,-0.096,-0.906,-0.286,1.524,0.305,-0.122,330.091
103467,140065,19647,-0.094,-0.912,-0.278,1.28,-0.183,-0.488,330.095
103467,140210,7935,-0.096,-0.927,-0.261,1.28,-0.183,-0.488,330.101
103483,140065,19647,-0.094,-0.929,-0.267,-0.061,-0.061,-0.427,330.105
103483,140217,7909,-0.094,-0.923,-0.283,-0.061,-0.061,-0.427,330.111
103444,140065,19647,-0.099,-0.928,-0.284,-1.463,0.305,0,330.114
103444,140189,7922,-0.101,-0.937,-0.275,-1.463,0.305,0,330.121
103443,140065,19647,-0.099,-0.934,-0.269,-0.793,0.732,0.549,330.124
103443,140166,7918,-0.097,-0.922,-0.278,-0.793,0.732,0.549,330.131
103443,140065,19647,-0.097,-0.915,-0.3,-0.915,1.037,1.098,330.134
103443,140163,7923,-0.102,-0.917,-0.301,-0.915,1.037,1.098,330.14
103407,140065,19647,-0.104,-0.921,-0.289,-0.122,1.28,1.159,330.144
103407,140146,7935,-0.099,-0.914,-0.292,-0.122,1.28,1.159,330.15
103411,140065,19647,-0.096,-0.91,-0.299,0.549,0.976,0.854,330.154
103411,140161,7926,-0.099,-0.906,-0.293,0.549,0.976,0.854,330.16
103385,140065,19647,-0.1,-0.905,-0.297,0.366,0.549,0.549,330.164
103385,140157,7914,-0.104,-0.908,-0.297,0.366,0.549,0.549,330.17
103412,140065,19647,-0.104,-0.915,-0.285,0.549,0.305,0.122,330.174
103412,140153,7923,-0.102,-0.923,-0.262,0.549,0.305,0.122,330.18
103390,140065,19647,-0.09,-0.928,-0.258,0.244,0.122,-0.427,330.184
103390,140141,7916,-0.083,-0.921,-0.289,0.244,0.122,-0.427,330.19
103406,140065,19647,-0.093,-0.929,-0.297,-1.463,0.427,0.061,330.194
103406,140144,7924,-0.104,-0.94,-0.278,-1.463,0.427,0.061,330.2
103408,140065,19647,-0.109,-0.93,-0.28,-0.915,0.976,1.037,330.204
103408,140136,7922,-0.103,-0.916,-0.287,-0.915,0.976,1.037,330.21
103411,140065,19647,-0.099,-0.916,-0.288,-0.183,0.915,0.915,330.214
103411,140131,7932,-0.096,-0.916,-0.295,-0.183,0.915,0.915,330.22
103396,140065,19647,-0.099,-0.914,-0.293,0.305,0.671,0.732,330.223
103396,140101,7929,-0.101,-0.911,-0.294,0.305,0.671,0.732,330.23
103415,140065,19647,-0.104,-0.907,-0.276,0.61,0.488,0.61,330.233
103415,140147,7927,-0.096,-0.901,-0.281,0.61,0.488,0.61,330.239
103412,140065,19647,-0.093,-0.905,-0.306,-0.122,0.122,0,330.243
103412,140134,7914,-0.094,-0.923,-0.297,-0.122,0.122,0,330.249
103380,140065,19647,-0.102,-0.931,-0.281,-0.244,0.061,-0.244,330.253
103380,140139,7906,-0.102,-0.927,-0.278,-0.244,0.061,-0.244,330.259
103448,140065,19647,-0.097,-0.921,-0.282,0.183,0,-0.244,330.263
103448,140173,7911,-0.093,-0.922,-0.286,0.183,0,-0.244,330.269
103463,140065,19647,-0.097,-0.925,-0.283,0.183,-0.061,0,330.273
103463,140159,7911,-0.099,-0.925,-0.278,0.183,-0.061,0,330.279
103452,140065,19647,-0.102,-0.929,-0.279,0.122,0.244,0.427,330.283
103452,140183,7919,-0.1,-0.924,-0.284,0.122,0.244,0.427,330.289
103457,140065,19647,-0.099,-0.921,-0.3,-0.61,0.366,0.488,330.293
103457,140190,7908,-0.099,-0.925,-0.291,-0.61,0.366,0.488,330.299
103444,140065,19647,-0.103,-0.919,-0.284,-0.488,0.305,0.671,330.303
103444,140149,7910,-0.101,-0.912,-0.287,-0.488,0.305,0.671,330.309
103466,140065,19647,-0.101,-0.909,-0.277,-0.122,0.244,0.427,330.312
103466,140158,7922,-0.099,-0.912,-0.288,-0.122,0.244,0.427,330.319
103467,140065,19647,-0.098,-0.915,-0.29,-0.427,0.244,0.122,330.322
103467,140177,7931,-0.098,-0.917,-0.281,-0.427,0.244,0.122,330.329
103457,140065,19647,-0.101,-0.914,-0.284,-0.61,0.305,0.122,330.332
103457,140185,7926,-0.099,-0.919,-0.279,-0.61,0.305,0.122,330.338
103456,140065,19647,-0.1,-0.926,-0.278,-0.183,0.305,-0.122,330.342
103456,140203,7936,-0.096,-0.924,-0.279,-0.183,0.305,-0.122,330.348
103484,140065,19647,-0.091,-0.918,-0.282,-0.366,0.366,0,330.352
103484,140192,7916,-0.095,-0.924,-0.288,-0.366,0.366,0,330.358
103453,140065,19647,-0.098,-0.933,-0.288,-0.488,0.671,0.244,330.362
103453,140185,7919,-0.097,-0.925,-0.292,-0.488,0.671,0.244,330.368
103463,140065,19647,-0.097,-0.916,-0.297,-0.061,0.671,0.61,330.372
103463,140211,7927,-0.1,-0.922,-0.283,-0.061,0.671,0.61,330.378
103462,140065,19647,-0.1,-0.918,-0.277,0.427,0.427,0.427,330.382
103462,140195,7930,-0.096,-0.91,-0.295,0.427,0.427,0.427,330.388
103513,140065,19647,-0.099,-0.912,-0.294,0.122,0.427,0.427,330.392
103513,140206,7939,-0.101,-0.923,-0.28,0.122,0.427,0.427,330.398
103498,140065,19647,-0.093,-0.924,-0.276,0.366,0.366,0.305,330.402
103498,140211,7941,-0.091,-0.918,-0.289,0.366,0.366,0.305,330.408
103523,140065,19647,-0.096,-0.921,-0.288,-0.183,0.305,0.488,330.411
103523,140240,7929,-0.098,-0.926,-0.279,-0.183,0.305,0.488,330.418
103532,140065,19647,-0.094,-0.92,-0.273,-0.732,0.488,0.854,330.421
103532,140212,7931,-0.095,-0.923,-0.276,-0.732,0.488,0.854,330.428
103530,140065,19647,-0.09,-0.932,-0.257,-1.707,0.671,0.793,330.431
103530,140222,7921,-0.091,-0.924,-0.273,-1.707,0.671,0.793,330.437
103515,140065,19647,-0.093,-0.918,-0.298,-2.256,1.341,1.22,330.441
103515,140190,7931,-0.103,-0.927,-0.276,-2.256,1.341,1.22,330.447
103520,140065,19647,-0.106,-0.914,-0.285,-1.829,1.829,1.646,330.451
103520,140259,7934,-0.102,-0.906,-0.302,-1.829,1.829,1.646,330.457
103540,140065,19647,-0.104,-0.917,-0.297,-1.89,1.829,1.341,330.461
103540,140238,7916,-0.103,-0.92,-0.285,-1.89,1.829,1.341,330.467
103538,140065,19647,-0.098,-0.911,-0.296,-0.732,1.463,0.854,330.471
103538,140240,7927,-0.096,-0.91,-0.309,-0.732,1.463,0.854,330.477
103531,140065,19647,-0.098,-0.913,-0.303,-0.427,1.037,0.549,330.481
103531,140238,7938,-0.104,-0.91,-0.313,-0.427,1.037,0.549,330.487
103523,140065,19647,-0.105,-0.917,-0.311,0.427,0.732,0.305,330.491
103523,140249,7927,-0.102,-0.92,-0.306,0.427,0.732,0.305,330.497
103542,140065,19647,-0.102,-0.917,-0.295,1.829,-0.061,-0.183,330.501
103542,140253,7928,-0.095,-0.919,-0.287,1.829,-0.061,-0.183,330.507
103512,140065,19647,-0.091,-0.914,-0.288,1.768,-0.671,-0.427,330.511
103512,140224,7917,-0.092,-0.917,-0.291,1.768,-0.671,-0.427,330.517
103518,140065,19647,-0.098,-0.928,-0.287,0.549,-0.488,-0.183,330.52
103518,140257,7940,-0.1,-0.931,-0.278,0.549,-0.488,-0.183,330.527
103520,140065,19647,-0.099,-0.921,-0.267,0.244,-0.244,-0.061,330.53
103520,140252,7924,-0.096,-0.913,-0.274,0.244,-0.244,-0.061,330.536
103528,140065,19647,-0.096,-0.913,-0.274,0.244,-0.244,-0.061,330.54
103528,140224,7938,-0.096,-0.926,-0.284,-0.366,-0.183,0.061,330.546
103518,140065,19647,-0.096,-0.926,-0.284,-0.366,-0.183,0.061,330.55
103518,140245,7939,-0.103,-0.923,-0.273,-0.915,0.488,0.366,330.556
103532,140065,19647,-0.103,-0.923,-0.273,-0.915,0.488,0.366,330.56
103532,140244,7928,-0.098,-0.91,-0.291,-0.366,0.732,0.549,330.566
103525,140065,19647,-0.098,-0.91,-0.291,-0.366,0.732,0.549,330.57
103525,140265,7929,-0.102,-0.928,-0.29,-0.305,0.671,0.366,330.576
103517,140065,19647,-0.102,-0.928,-0.29,-0.305,0.671,0.366,330.58
103517,140237,7918,-0.102,-0.923,-0.293,-0.549,0.732,0.488,330.586
103517,140065,19647,-0.102,-0.923,-0.293,-0.549,0.732,0.488,330.59
103517,140231,7933,-0.103,-0.928,-0.275,-0.427,0.427,0.366,330.596
103512,140065,19647,-0.103,-0.928,-0.275,-0.427,0.427,0.366,330.6
103512,140236,7936,-0.099,-0.911,-0.294,0.244,0.122,0.366,330.606
103519,140065,19647,-0.099,-0.911,-0.294,0.244,0.122,0.366,330.61
103519,140239,7930,-0.104,-0.934,-0.278,-0.671,0.183,0.549,330.616
103503,140065,19647,-0.104,-0.934,-0.278,-0.671,0.183,0.549,330.619
103503,140253,7930,-0.096,-0.91,-0.286,-0.183,0.122,0.671,330.626
103534,140065,19647,-0.096,-0.91,-0.286,-0.183,0.122,0.671,330.629
103534,140237,7936,-0.097,-0.91,-0.284,-0.366,0.305,0.488,330.636
103528,140065,19647,-0.097,-0.91,-0.284,-0.366,0.305,0.488,330.639
103528,140236,7929,-0.096,-0.911,-0.294,-0.366,0.488,0.183,330.645
103517,140065,19647,-0.096,-0.911,-0.294,-0.366,0.488,0.183,330.649
103517,140247,7935,-0.092,-0.923,-0.285,-0.427,0.549,-0.122,330.655
103500,140065,19647,-0.092,-0.923,-0.285,-0.427,0.549,-0.122,330.659
103500,140237,7926,-0.095,-0.916,-0.292,-0.305,0.244,0,330.665
103526,140065,19647,-0.095,-0.916,-0.292,-0.305,0.244,0,330.669
103526,140239,7930,-0.096,-0.926,-0.289,-0.61,0.061,0.183,330.675
103503,140065,19647,-0.096,-0.926,-0.289,-0.61,0.061,0.183,330.679
103503,140255,7916,-0.097,-0.925,-0.294,-0.976,0.183,0.366,330.685
103517,140065,19647,-0.1,-0.927,-0.28,-0.976,0.183,0.366,330.689
103517,140250,7928,-0.104,-0.922,-0.275,-0.488,0.244,0.488,330.695
103517,140065,19647,-0.101,-0.916,-0.287,-0.488,0.244,0.488,330.699
103517,140234,7953,-0.101,-0.92,-0.289,-1.098,0.61,0.671,330.705
103522,140065,19647,-0.102,-0.918,-0.29,-1.098,0.61,0.671,330.709
103522,140250,7920,-0.103,-0.913,-0.293,-1.463,0.915,0.793,330.715
103551,140065,19647,-0.104,-0.918,-0.285,-1.463,0.915,0.793,330.718
103551,140276,7950,-0.103,-0.922,-0.269,-0.976,0.793,0.61,330.725
103566,140321,19647,-0.095,-0.917,-0.273,-0.976,0.793,0.61,330.728
103566,140296,7952,-0.085,-0.909,-0.3,-1.89,0.61,0.732,330.735
103586,140321,19647,-0.089,-0.928,-0.302,-1.89,0.61,0.732,330.738
103586,140295,7939,-0.103,-0.944,-0.277,-2.073,0.915,1.037,330.744
103609,140321,19647,-0.107,-0.924,-0.269,-2.073,0.915,1.037,330.748
103609,140315,7937,-0.099,-0.902,-0.294,-0.854,0.61,1.341,330.754
103622,140321,19647,-0.097,-0.907,-0.306,-0.854,0.61,1.341,330.758
103622,140333,7948,-0.1,-0.917,-0.299,-0.671,0.549,0.732,330.764
103630,140321,19647,-0.1,-0.916,-0.298,-0.671,0.549,0.732,330.768
103630,140338,7957,-0.104,-0.914,-0.288,0.244,0.732,0.549,330.774
103620,140321,19647,-0.102,-0.913,-0.276,0.244,0.732,0.549,330.778
103620,140321,7935,-0.095,-0.903,-0.286,0.793,0.244,0.061,330.784
103607,140321,19647,-0.087,-0.905,-0.297,0.793,0.244,0.061,330.788
103607,140301,7945,-0.094,-0.921,-0.297,-0.305,0.122,-0.183,330.794
103604,140321,19647,-0.101,-0.93,-0.281,-0.305,0.122,-0.183,330.798
103604,140300,7949,-0.099,-0.922,-0.278,-0.183,0.427,0,330.804
103607,140321,19647,-0.097,-0.917,-0.28,-0.183,0.427,0,330.808
103607,140323,7942,-0.089,-0.921,-0.283,-0.732,0.183,-0.061,330.814
103663,140321,19647,-0.092,-0.923,-0.289,-0.732,0.183,-0.061,330.817
103663,140345,7945,-0.098,-0.927,-0.29,-1.402,0.488,0.366,330.824
103642,140321,19647,-0.103,-0.929,-0.279,-1.402,0.488,0.366,330.827
103642,140311,7958,-0.102,-0.929,-0.268,-1.159,0.854,0.915,330.834
103614,140321,19647,-0.097,-0.921,-0.271,-1.159,0.854,0.915,330.837
103614,140313,7963,-0.092,-0.921,-0.293,-1.646,0.915,1.037,330.843
103644,140321,19647,-0.096,-0.92,-0.297,-1.646,0.915,1.037,330.847
103644,140360,7925,-0.106,-0.924,-0.287,-2.195,1.28,1.585,330.853
103634,140321,19647,-0.109,-0.926,-0.26,-2.195,1.28,1.585,330.857
103634,140331,7943,-0.099,-0.912,-0.256,-2.134,1.341,1.585,330.863
103628,140321,19647,-0.089,-0.891,-0.301,-2.134,1.341,1.585,330.867
103628,140336,7940,-0.095,-0.912,-0.312,-3.659,1.524,1.402,330.873
103598,140321,19647,-0.104,-0.934,-0.29,-3.659,1.524,1.402,330.877
103598,140308,7926,-0.11,-0.923,-0.273,-1.28,1.829,1.646,330.883
103597,140321,19647,-0.106,-0.908,-0.275,-1.28,1.829,1.646,330.887
103597,140308,7950,-0.096,-0.899,-0.309,-0.732,1.524,0.976,330.893
103564,140065,19647,-0.089,-0.905,-0.32,-0.732,1.524,0.976,330.897
103564,140281,7925,-0.093,-0.919,-0.301,-1.707,1.402,0.732,330.903
103554,140065,19647,-0.098,-0.922,-0.309,-1.707,1.402,0.732,330.907
103554,140283,7943,-0.103,-0.921,-0.311,-0.976,1.402,0.793,330.913
103550,140065,19647,-0.106,-0.917,-0.301,-0.976,1.402,0.793,330.916
103550,140284,7930,-0.097,-0.908,-0.302,0.549,0.488,0.183,330.923
103545,140065,19647,-0.092,-0.909,-0.301,0.549,0.488,0.183,330.926
103545,140257,7935,-0.1,-0.922,-0.281,0.976,-0.183,-0.061,330.933
103541,140065,19647,-0.1,-0.921,-0.28,0.976,-0.183,-0.061,330.936
103541,140244,7933,-0.096,-0.908,-0.296,0.244,-0.183,0.061,330.942
103551,140065,19647,-0.101,-0.909,-0.301,0.244,-0.183,0.061,330.946
103551,140244,7945,-0.106,-0.923,-0.284,-0.244,-0.122,0,330.952
103521,140065,19647,-0.104,-0.924,-0.265,-0.244,-0.122,0,330.956
103521,140251,7945,-0.096,-0.924,-0.253,-0.305,0.183,0.061,330.962
103494,140065,19647,-0.085,-0.925,-0.275,-0.305,0.183,0.061,330.966
103494,140218,7931,-0.086,-0.926,-0.307,-2.378,0.854,0.427,330.972
103513,140065,19647,-0.099,-0.934,-0.303,-2.378,0.854,0.427,330.976
103513,140226,7922,-0.105,-0.934,-0.289,-2.073,1.585,1.524,330.982
103515,140065,19647,-0.104,-0.916,-0.282,-2.073,1.585,1.524,330.986
103515,140225,7923,-0.098,-0.902,-0.296,-0.854,1.463,1.463,330.992
103508,140065,19647,-0.092,-0.912,-0.301,-0.854,1.463,1.463,330.996
103508,140225,7936,-0.09,-0.918,-0.299,-0.122,1.28,1.037,331.002
103490,140065,19647,-0.098,-0.914,-0.299,-0.122,1.28,1.037,331.006
103490,140232,7944,-0.104,-0.911,-0.288,0.183,0.915,1.22,331.012
103534,140065,19647,-0.1,-0.911,-0.279,0.183,0.915,1.22,331.015
103534,140243,7933,-0.097,-0.905,-0.284,-0.305,0.305,0.671,331.022
103514,140065,19647,-0.095,-0.906,-0.291,-0.305,0.305,0.671,331.025
103514,140244,7947,-0.099,-0.916,-0.291,-1.22,0.366,0.488,331.032
103573,140065,19647,-0.104,-0.929,-0.268,-1.22,0.366,0.488,331.035
103573,140262,7943,-0.101,-0.931,-0.271,-1.585,0.976,0.61,331.041
103583,140065,19647,-0.095,-0.923,-0.298,-1.585,0.976,0.61,331.045
103583,140283,7931,-0.096,-0.93,-0.301,-2.134,1.159,0.793,331.051
103608,140321,19647,-0.104,-0.938,-0.281,-2.134,1.159,0.793,331.055
103608,140288,7944,-0.105,-0.93,-0.277,-0.61,1.22,1.341,331.061
103632,140321,19647,-0.102,-0.91,-0.294,-0.61,1.22,1.341,331.065
103632,140297,7947,-0.1,-0.909,-0.304,-1.22,1.22,1.341,331.071
103609,140321,19647,-0.099,-0.916,-0.3,-1.22,1.22,1.341,331.075
103609,140292,7943,-0.101,-0.917,-0.306,-1.402,1.402,1.341,331.081
103660,140321,19647,-0.099,-0.915,-0.302,-1.402,1.402,1.341,331.085
103660,140342,7938,-0.104,-0.911,-0.296,-0.488,1.159,1.22,331.091
103686,140321,19647,-0.101,-0.905,-0.301,-0.488,1.159,1.22,331.095
103686,140359,7958,-0.102,-0.908,-0.308,0.305,0.671,0.732,331.101
103717,140321,19647,-0.102,-0.917,-0.292,0.305,0.671,0.732,331.105
103717,140369,7946,-0.1,-0.915,-0.286,0.671,0.366,0.488,331.111
103726,140321,19647,-0.097,-0.902,-0.311,0.671,0.366,0.488,331.114
103726,140364,7965,-0.106,-0.912,-0.306,-0.244,0.366,0.305,331.121
103735,140321,19647,-0.109,-0.928,-0.269,-0.244,0.366,0.305,331.124
103735,140384,7940,-0.102,-0.923,-0.271,0.244,0.244,0.244,331.131
103727,140321,19647,-0.102,-0.923,-0.271,0.244,0.244,0.244,331.134
103727,140368,7944,-0.095,-0.918,-0.308,-1.524,0.244,0.305,331.14
103733,140321,19647,-0.095,-0.918,-0.308,-1.524,0.244,0.305,331.144
103733,140365,7953,-0.105,-0.931,-0.289,-1.22,0.732,0.671,331.15
103729,140321,19647,-0.105,-0.931,-0.289,-1.22,0.732,0.671,331.154
103729,140362,7941,-0.1,-0.914,-0.287,-0.671,0.61,0.671,331.16
103733,140321,19647,-0.1,-0.914,-0.287,-0.671,0.61,0.671,331.164
103733,140388,7948,-0.094,-0.917,-0.299,-1.037,0.244,0.793,331.17
103793,140321,19647,-0.094,-0.917,-0.299,-1.037,0.244,0.793,331.174
103793,140410,7952,-0.103,-0.922,-0.279,-0.61,0.427,1.159,331.18
103794,140321,19647,-0.103,-0.922,-0.279,-0.61,0.427,1.159,331.184
103794,140403,7964,-0.098,-0.91,-0.302,-0.183,0.366,0.793,331.19
103773,140321,19647,-0.098,-0.91,-0.302,-0.183,0.366,0.793,331.194
103773,140402,7963,-0.105,-0.907,-0.289,0.549,0.366,0.732,331.2
103770,140321,19647,-0.105,-0.907,-0.289,0.549,0.366,0.732,331.204
103770,140427,7938,-0.104,-0.916,-0.29,0.244,0.366,0.549,331.21
103733,140321,19647,-0.104,-0.916,-0.29,0.244,0.366,0.549,331.214
103733,140379,7961,-0.1,-0.922,-0.281,0.244,0.305,0.061,331.22
103757,140321,19647,-0.1,-0.922,-0.281,0.244,0.305,0.061,331.223
103757,140381,7944,-0.102,-0.918,-0.263,0.183,0.305,0.305,331.23
103721,140321,19647,-0.102,-0.918,-0.263,0.183,0.305,0.305,331.233
103721,140361,7959,-0.091,-0.917,-0.306,-1.829,0.671,0.549,331.239
103720,140321,19647,-0.091,-0.917,-0.306,-1.829,0.671,0.549,331.243
103720,140387,7959,-0.109,-0.943,-0.277,-1.646,1.341,1.098,331.249
103761,140321,19647,-0.109,-0.943,-0.277,-1.646,1.341,1.098,331.253
103761,140407,7959,-0.095,-0.905,-0.309,-0.732,1.159,1.22,331.259
103763,140321,19647,-0.095,-0.905,-0.309,-0.732,1.159,1.22,331.263
103763,140411,7957,-0.104,-0.923,-0.297,0.061,1.037,1.037,331.269
103797,140321,19647,-0.104,-0.923,-0.297,0.061,1.037,1.037,331.273
103797,140403,7963,-0.104,-0.915,-0.308,0.061,1.037,1.037,331.279
103784,140321,19647,-0.104,-0.912,-0.307,0.671,0.854,0.915,331.283
103784,140413,7953,-0.105,-0.916,-0.282,0.671,0.854,0.915,331.289
103776,140321,19647,-0.093,-0.902,-0.295,0.854,0.244,0.305,331.293
103776,140382,7957,-0.092,-0.891,-0.317,0.854,0.244,0.305,331.299
103744,140321,19647,-0.101,-0.909,-0.307,-0.183,0.305,0.122,331.303
103744,140403,7962,-0.112,-0.92,-0.297,-0.183,0.305,0.122,331.309
103758,140321,19647,-0.112,-0.918,-0.301,0.244,0.488,0,331.313
103758,140394,7955,-0.099,-0.916,-0.3,0.244,0.488,0,331.319
103769,140321,19647,-0.089,-0.916,-0.302,0.549,-0.183,-0.61,331.322
103769,140400,7955,-0.092,-0.919,-0.302,0.549,-0.183,-0.61,331.329
103769,140321,19647,-0.099,-0.923,-0.292,0.61,-0.122,-0.305,331.332
103769,140396,7938,-0.107,-0.915,-0.294,0.61,-0.122,-0.305,331.339
103779,140321,19647,-0.111,-0.919,-0.295,0.427,0,-0.122,331.342
103779,140403,7948,-0.106,-0.92,-0.288,0.427,0,-0.122,331.348
103824,140321,19647,-0.103,-0.92,-0.287,0.61,-0.305,-0.122,331.352
103824,140420,7946,-0.102,-0.922,-0.28,0.61,-0.305,-0.122,331.358
103803,140321,19647,-0.102,-0.928,-0.265,0.549,-0.305,0,331.362
103803,140421,7951,-0.1,-0.93,-0.278,0.549,-0.305,0,331.368
103791,140321,19647,-0.1,-0.923,-0.289,-0.244,-0.183,0.305,331.372
103791,140424,7963,-0.102,-0.922,-0.285,-0.244,-0.183,0.305,331.378
103807,140321,19647,-0.106,-0.927,-0.275,-0.244,-0.183,0.61,331.382
103807,140419,7974,-0.102,-0.924,-0.273,-0.244,-0.183,0.61,331.388
103812,140321,19647,-0.099,-0.91,-0.294,-0.244,0,0.732,331.392
103812,140416,7946,-0.101,-0.911,-0.307,-0.244,0,0.732,331.398
103786,140321,19647,-0.103,-0.918,-0.298,-0.366,0.244,0.732,331.402
103786,140391,7942,-0.102,-0.911,-0.292,-0.366,0.244,0.732,331.408
103799,140321,19647,-0.1,-0.907,-0.292,0.427,0.488,0.61,331.412
103799,140409,7969,-0.1,-0.907,-0.288,0.427,0.488,0.61,331.418
103820,140321,19647,-0.099,-0.901,-0.292,0.732,0.244,0,331.421
103820,140408,7945,-0.098,-0.899,-0.295,0.732,0.244,0,331.428
103788,140321,19647,-0.099,-0.905,-0.304,0.061,0.183,-0.366,331.431
103788,140443,7958,-0.102,-0.916,-0.311,0.061,0.183,-0.366,331.438
103805,140321,19647,-0.099,-0.925,-0.302,-0.244,0.244,-0.671,331.441
103805,140427,7953,-0.103,-0.921,-0.294,-0.244,0.244,-0.671,331.447
103814,140321,19647,-0.102,-0.921,-0.286,0.549,0,-0.793,331.451
103814,140431,7954,-0.099,-0.929,-0.267,0.549,0,-0.793,331.457
103793,140321,19647,-0.094,-0.925,-0.282,0.244,-0.549,-0.61,331.461
103793,140413,7953,-0.089,-0.917,-0.307,0.244,-0.549,-0.61,331.467
103799,140321,19647,-0.098,-0.928,-0.301,-1.22,-0.122,0.122,331.471
103799,140434,7955,-0.106,-0.933,-0.29,-1.22,-0.122,0.122,331.477
103801,140321,19647,-0.105,-0.918,-0.295,0.244,0.488,0.61,331.481
103801,140393,7964,-0.099,-0.909,-0.303,0.244,0.488,0.61,331.487
103795,140321,19647,-0.099,-0.905,-0.305,0.976,0.183,0.244,331.491
103795,140439,7983,-0.102,-0.911,-0.297,0.976,0.183,0.244,331.497
103801,140321,19647,-0.104,-0.915,-0.291,1.646,-0.183,0.061,331.501
103801,140399,7951,-0.099,-0.905,-0.293,1.646,-0.183,0.061,331.507
103768,140321,19647,-0.095,-0.898,-0.297,1.402,-0.488,-0.244,331.511
103768,140419,7962,-0.097,-0.909,-0.295,1.402,-0.488,-0.244,331.517
103798,140321,19647,-0.1,-0.92,-0.269,1.098,-0.549,-0.793,331.52
103798,140423,7948,-0.098,-0.92,-0.246,1.098,-0.549,-0.793,331.527
103781,140321,19647,-0.09,-0.914,-0.267,0,-0.244,-0.732,331.53
103781,140404,7965,-0.092,-0.919,-0.305,0,-0.244,-0.732,331.537
103814,140321,19647,-0.101,-0.937,-0.294,-1.707,0.61,-0.305,331.54
103814,140438,7953,-0.106,-0.939,-0.273,-1.707,0.61,-0.305,331.546
103811,140321,19647,-0.104,-0.926,-0.285,0.061,0.915,0.305,331.55
103811,140421,7952,-0.097,-0.924,-0.291,0.061,0.915,0.305,331.556
103830,140321,19647,-0.094,-0.927,-0.295,0.183,0.854,0.183,331.56
103830,140440,7951,-0.095,-0.922,-0.303,0.183,0.854,0.183,331.566
103814,140321,19647,-0.098,-0.916,-0.307,0.183,0.854,0.915,331.57
103814,140432,7953,-0.104,-0.919,-0.297,0.183,0.854,0.915,331.576
103832,140321,19647,-0.107,-0.915,-0.284,0.61,0.671,0.854,331.58
103832,140416,7948,-0.103,-0.905,-0.284,0.61,0.671,0.854,331.586
103808,140321,19647,-0.092,-0.901,-0.301,0.366,-0.183,0.183,331.59
103808,140432,7949,-0.089,-0.904,-0.299,0.366,-0.183,0.183,331.596
103815,140321,19647,-0.096,-0.92,-0.289,-0.427,-0.061,0.122,331.6
103815,140401,7953,-0.1,-0.92,-0.282,-0.427,-0.061,0.122,331.606
103804,140321,19647,-0.103,-0.912,-0.291,0,0.244,0.061,331.61
103804,140400,7958,-0.098,-0.911,-0.293,0,0.244,0.061,331.616
103806,140321,19647,-0.094,-0.918,-0.289,0.366,0.366,-0.305,331.619
103806,140402,7942,-0.095,-0.925,-0.294,0.366,0.366,-0.305,331.626
103784,140321,19647,-0.101,-0.929,-0.286,0.732,0.61,-0.244,331.629
103784,140423,7956,-0.102,-0.922,-0.285,0.732,0.61,-0.244,331.636
103806,140321,19647,-0.103,-0.915,-0.288,0.549,0.732,-0.122,331.639
103806,140429,7948,-0.101,-0.923,-0.289,0.549,0.732,-0.122,331.645
103823,140321,19647,-0.099,-0.925,-0.29,-0.244,0.671,0.061,331.649
103823,140389,7954,-0.101,-0.931,-0.27,-0.244,0.671,0.061,331.655
103770,140321,19647,-0.103,-0.922,-0.267,-0.549,0.793,0.366,331.659
103770,140376,7952,-0.1,-0.905,-0.295,-0.549,0.793,0.366,331.665
103743,140321,19647,-0.102,-0.91,-0.295,-1.22,0.915,0.488,331.669
103743,140367,7946,-0.107,-0.918,-0.285,-1.22,0.915,0.488,331.675
103719,140321,19647,-0.107,-0.917,-0.294,-0.549,1.159,0.427,331.679
103719,140352,7932,-0.103,-0.917,-0.298,-0.549,1.159,0.427,331.685
103696,140321,19647,-0.098,-0.916,-0.306,-0.366,0.976,0.183,331.689
103696,140307,7953,-0.099,-0.923,-0.304,-0.366,0.976,0.183,331.695
103672,140321,19647,-0.098,-0.925,-0.288,0.183,0.549,0.061,331.699
103672,140291,7944,-0.097,-0.921,-0.295,0.183,0.549,0.061,331.705
103697,140321,19647,-0.098,-0.916,-0.302,0.366,0.122,0.183,331.709
103697,140324,7957,-0.1,-0.92,-0.294,0.366,0.122,0.183,331.715
103684,140321,19647,-0.101,-0.917,-0.285,0.305,-0.122,0.122,331.718
103684,140299,7934,-0.101,-0.915,-0.291,0.305,-0.122,0.122,331.725
103644,140065,19647,-0.103,-0.916,-0.286,0.244,-0.122,-0.061,331.728
103644,140283,7938,-0.102,-0.914,-0.279,0.244,-0.122,-0.061,331.735
103667,140065,19647,-0.102,-0.914,-0.279,0.244,-0.122,-0.061,331.738
103667,140286,7932,-0.1,-0.916,-0.281,0.122,0,-0.061,331.744
103662,140065,19647,-0.1,-0.916,-0.281,0.122,0,-0.061,331.748
103662,140281,7954,-0.092,-0.922,-0.258,-0.061,0.305,-0.305,331.754
103670,140321,19647,-0.092,-0.922,-0.258,-0.061,0.305,-0.305,331.758
103670,140291,7954,-0.09,-0.925,-0.307,-1.402,0.732,-0.183,331.764
103715,140065,19647,-0.09,-0.925,-0.307,-1.402,0.732,-0.183,331.768
103715,140278,7938,-0.099,-0.937,-0.292,-2.378,1.28,0.549,331.774
103692,140065,19647,-0.099,-0.937,-0.292,-2.378,1.28,0.549,331.778
103692,140276,7923,-0.098,-0.915,-0.305,-1.098,1.341,0.976,331.784
103700,140321,19647,-0.098,-0.915,-0.305,-1.098,1.341,0.976,331.788
103700,140290,7923,-0.104,-0.913,-0.299,-0.122,0.915,1.037,331.794
103704,140065,19647,-0.104,-0.913,-0.299,-0.122,0.915,1.037,331.798
103704,140274,7928,-0.101,-0.907,-0.297,0.488,0.61,1.037,331.804
103689,140065,19647,-0.101,-0.907,-0.297,0.488,0.61,1.037,331.808
103689,140277,7942,-0.097,-0.904,-0.298,0.793,0.122,0.488,331.814
103729,140321,19647,-0.097,-0.904,-0.298,0.793,0.122,0.488,331.817
103729,140291,7929,-0.102,-0.914,-0.284,0.671,-0.122,-0.061,331.824
103708,140321,19647,-0.102,-0.914,-0.284,0.671,-0.122,-0.061,331.827
103708,140299,7934,-0.097,-0.92,-0.286,0.427,-0.122,-0.366,331.834
103743,140321,19647,-0.097,-0.92,-0.286,0.427,-0.122,-0.366,331.837
103743,140294,7943,-0.095,-0.924,-0.274,0.305,-0.305,-0.549,331.843
103773,140321,19647,-0.095,-0.924,-0.274,0.305,-0.305,-0.549,331.847
103773,140351,7933,-0.096,-0.925,-0.301,-0.061,-0.061,-0.305,331.853
103757,140321,19647,-0.096,-0.925,-0.301,-0.061,-0.061,-0.305,331.857
103757,140334,7945,-0.108,-0.931,-0.27,-0.671,0.305,0.305,331.863
103785,140321,19647,-0.108,-0.931,-0.27,-0.671,0.305,0.305,331.867
103785,140355,7934,-0.093,-0.912,-0.277,0.122,0.305,0.549,331.873
103783,140321,19647,-0.093,-0.912,-0.277,0.122,0.305,0.549,331.877
103783,140359,7934,-0.094,-0.915,-0.281,-1.037,0.427,0.732,331.883
103747,140321,19647,-0.099,-0.918,-0.292,-1.037,0.427,0.732,331.887
103747,140341,7941,-0.101,-0.916,-0.298,-1.829,1.159,1.098,331.893
103755,140321,19647,-0.106,-0.919,-0.294,-1.829,1.159,1.098,331.897
103755,140322,7932,-0.111,-0.916,-0.297,-0.793,1.22,0.915,331.903
103721,140321,19647,-0.101,-0.909,-0.306,-0.793,1.22,0.915,331.907
103721,140296,7932,-0.093,-0.914,-0.305,-0.122,0.732,0.427,331.913
103693,140321,19647,-0.094,-0.925,-0.298,-0.122,0.732,0.427,331.916
103693,140316,7916,-0.098,-0.923,-0.303,0.366,0.61,0.488,331.923
103711,140065,19647,-0.1,-0.91,-0.309,0.366,0.61,0.488,331.926
103711,140281,7914,-0.103,-0.913,-0.305,0.671,0.305,0.549,331.933
103656,140065,19647,-0.099,-0.909,-0.281,0.671,0.305,0.549,331.936
103656,140250,7929,-0.095,-0.908,-0.294,1.037,-0.244,0.061,331.942
103668,140065,19647,-0.092,-0.915,-0.307,1.037,-0.244,0.061,331.946
103668,140252,7899,-0.098,-0.923,-0.293,0,-0.122,-0.183,331.952
103660,140065,19647,-0.103,-0.919,-0.282,0,-0.122,-0.183,331.956
103660,140253,7930,-0.099,-0.914,-0.277,0.732,-0.122,-0.122,331.962
103661,140065,19647,-0.094,-0.916,-0.277,0.732,-0.122,-0.122,331.966
103661,140273,7925,-0.093,-0.916,-0.278,0.244,-0.305,-0.366,331.972
103680,140065,19647,-0.094,-0.919,-0.28,0.244,-0.305,-0.366,331.976
103680,140243,7924,-0.097,-0.93,-0.287,-1.037,0.305,-0.061,331.982
103667,140065,19647,-0.099,-0.933,-0.279,-1.037,0.305,-0.061,331.986
103667,140233,7925,-0.1,-0.928,-0.269,-0.671,0.732,0.366,331.992
103669,140065,19647,-0.095,-0.915,-0.279,-0.671,0.732,0.366,331.996
103669,140263,7934,-0.089,-0.916,-0.288,-0.976,0.854,0.61,332.002
103652,140065,19647,-0.096,-0.923,-0.293,-0.976,0.854,0.61,332.006
103652,140266,7932,-0.107,-0.922,-0.3,-1.28,1.22,0.976,332.012
103686,140065,19647,-0.112,-0.921,-0.301,-1.28,1.22,0.976,332.016
103686,140279,7922,-0.104,-0.914,-0.295,0.183,1.037,1.037,332.022
103685,140065,19647,-0.099,-0.907,-0.292,0.183,1.037,1.037,332.025
103685,140249,7931,-0.094,-0.906,-0.302,1.28,0.366,0.244,332.032
103671,140065,19647,-0.095,-0.911,-0.304,1.28,0.366,0.244,332.035
103671,140277,7927,-0.097,-0.92,-0.294,1.037,0.427,0,332.041
103682,140065,19647,-0.099,-0.915,-0.298,1.037,0.427,0,332.045
103682,140254,7923,-0.1,-0.909,-0.303,0.793,0.305,-0.244,332.051
103662,140065,19647,-0.098,-0.914,-0.297,0.793,0.305,-0.244,332.055
103662,140261,7920,-0.094,-0.919,-0.288,0.793,-0.183,-0.61,332.061
103663,140065,19647,-0.093,-0.921,-0.286,0.793,-0.183,-0.61,332.065
103663,140277,7935,-0.094,-0.929,-0.281,0.305,-0.122,-0.549,332.071
103662,140321,19647,-0.094,-0.93,-0.281,0.305,-0.122,-0.549,332.075
103662,140290,7917,-0.091,-0.916,-0.301,-0.366,-0.183,0,332.081
103668,140065,19647,-0.095,-0.921,-0.296,-0.366,-0.183,0,332.085
103668,140276,7916,-0.098,-0.93,-0.273,-0.488,0.061,0.366,332.091
103674,140065,19647,-0.1,-0.919,-0.28,-0.488,0.061,0.366,332.095
103674,140240,7933,-0.094,-0.912,-0.285,-0.427,0.183,0.549,332.101
103669,140065,19647,-0.096,-0.914,-0.294,-0.427,0.183,0.549,332.105
103669,140276,7937,-0.101,-0.918,-0.297,-0.671,0.427,0.488,332.111
103681,140065,19647,-0.107,-0.921,-0.287,-0.671,0.427,0.488,332.114
103681,140286,7928,-0.104,-0.914,-0.281,0.305,0.366,0.488,332.121
103681,140321,19647,-0.102,-0.91,-0.292,0.305,0.366,0.488,332.124
103681,140298,7928,-0.099,-0.916,-0.295,0.183,0.122,0.122,332.131
103688,140321,19647,-0.101,-0.92,-0.292,0.183,0.122,0.122,332.134
103688,140303,7931,-0.101,-0.92,-0.297,0.366,0.183,0.061,332.14
103675,140065,19647,-0.1,-0.923,-0.296,0.366,0.183,0.061,332.144
103675,140273,7930,-0.105,-0.926,-0.286,0.671,0.061,-0.061,332.15
103695,140321,19647,-0.102,-0.923,-0.28,0.671,0.061,-0.061,332.154
103695,140295,7925,-0.096,-0.919,-0.283,0.793,-0.183,-0.061,332.16
103717,140065,19647,-0.093,-0.918,-0.278,0.793,-0.183,-0.061,332.164
103717,140277,7951,-0.097,-0.914,-0.27,0.305,0,0.183,332.17
103722,140321,19647,-0.096,-0.91,-0.286,0.305,0,0.183,332.174
103722,140298,7935,-0.097,-0.916,-0.286,-0.732,0.427,0.305,332.18
103754,140321,19647,-0.097,-0.923,-0.278,-0.732,0.427,0.305,332.184
103754,140323,7939,-0.094,-0.916,-0.275,-0.732,0.732,0.366,332.19
103748,140321,19647,-0.093,-0.914,-0.287,-0.732,0.732,0.366,332.194
103748,140303,7924,-0.096,-0.918,-0.298,-1.037,0.732,0.244,332.2
103739,140321,19647,-0.095,-0.917,-0.301,-1.037,0.732,0.244,332.204
103739,140313,7948,-0.099,-0.916,-0.304,-0.732,0.549,0.366,332.21
103704,140321,19647,-0.103,-0.918,-0.306,-0.732,0.549,0.366,332.214
103704,140292,7927,-0.098,-0.916,-0.303,0.305,0,0.244,332.22
103687,140321,19647,-0.098,-0.911,-0.298,0.305,0,0.244,332.223
103687,140291,7938,-0.099,-0.912,-0.296,1.159,-0.61,-0.183,332.23
103699,140065,19647,-0.101,-0.912,-0.299,1.159,-0.61,-0.183,332.233
103699,140278,7927,-0.1,-0.918,-0.294,0.915,-0.549,-0.366,332.239
103687,140065,19647,-0.098,-0.916,-0.289,0.915,-0.549,-0.366,332.243
103687,140264,7923,-0.1,-0.918,-0.292,0.183,-0.61,-0.427,332.249
103708,140321,19647,-0.104,-0.928,-0.277,0.183,-0.61,-0.427,332.253
103708,140299,7926,-0.1,-0.931,-0.26,0.183,-0.549,-0.183,332.259
103704,140321,19647,-0.098,-0.926,-0.263,0.183,-0.549,-0.183,332.263
103704,140306,7934,-0.095,-0.922,-0.277,-0.732,-0.183,0.244,332.269
103729,140321,19647,-0.094,-0.927,-0.284,-0.732,-0.183,0.244,332.273
103729,140306,7932,-0.103,-0.928,-0.289,-1.463,0.549,0.793,332.279
103751,140321,19647,-0.104,-0.926,-0.287,-1.463,0.549,0.793,332.283
103751,140341,7918,-0.102,-0.917,-0.291,-0.183,0.915,1.28,332.289
103732,140321,19647,-0.098,-0.913,-0.279,-0.183,0.915,1.28,332.293
103732,140321,7952,-0.093,-0.912,-0.278,0.671,0.732,0.854,332.299
103716,140321,19647,-0.089,-0.905,-0.299,0.671,0.732,0.854,332.303
103716,140325,7933,-0.093,-0.902,-0.312,0.061,0.854,0.732,332.309
103765,140321,19647,-0.098,-0.913,-0.3,0.061,0.854,0.732,332.312
103765,140329,7932,-0.098,-0.916,-0.284,0.549,0.671,0.366,332.319
103745,140321,19647,-0.094,-0.915,-0.286,0.549,0.671,0.366,332.322
103745,140345,7930,-0.09,-0.91,-0.276,0.488,0.183,-0.183,332.329
103741,140321,19647,-0.09,-0.91,-0.276,0.488,0.183,-0.183,332.332
103741,140353,7953,-0.093,-0.915,-0.299,-0.671,0.305,-0.244,332.339
103771,140321,19647,-0.093,-0.915,-0.299,-0.671,0.305,-0.244,332.342
103771,140343,7928,-0.099,-0.926,-0.276,-0.305,0.549,-0.061,332.348
103758,140321,19647,-0.099,-0.926,-0.276,-0.305,0.549,-0.061,332.352
103758,140330,7939,-0.093,-0.931,-0.277,-0.244,0.488,0,332.358
103769,140321,19647,-0.093,-0.931,-0.277,-0.244,0.488,0,332.362
103769,140356,7946,-0.099,-0.918,-0.297,-0.549,0.793,0.732,332.368
103751,140321,19647,-0.099,-0.918,-0.297,-0.549,0.793,0.732,332.372
103751,140326,7933,-0.107,-0.932,-0.286,-0.854,1.037,1.098,332.378
103769,140321,19647,-0.107,-0.932,-0.286,-0.854,1.037,1.098,332.382
103769,140338,7929,-0.098,-0.911,-0.3,-0.183,0.793,1.098,332.388
103761,140321,19647,-0.098,-0.911,-0.3,-0.183,0.793,1.098,332.392
103761,140328,7942,-0.102,-0.905,-0.299,0.366,0.427,0.854,332.398
103764,140321,19647,-0.102,-0.905,-0.299,0.366,0.427,0.854,332.402
103764,140313,7943,-0.098,-0.919,-0.286,0.549,0.183,0.488,332.408
103758,140321,19647,-0.098,-0.919,-0.286,0.549,0.183,0.488,332.412
103758,140360,7949,-0.093,-0.909,-0.283,0.366,-0.061,0.183,332.418
103794,140321,19647,-0.093,-0.909,-0.283,0.366,-0.061,0.183,332.421
103794,140352,7936,-0.099,-0.925,-0.297,-0.671,0.244,0.183,332.428
103785,140321,19647,-0.099,-0.925,-0.297,-0.671,0.244,0.183,332.431
103785,140346,7950,-0.101,-0.934,-0.277,-0.305,0.488,0.549,332.438
103768,140321,19647,-0.101,-0.934,-0.277,-0.305,0.488,0.549,332.441
103768,140307,7944,-0.098,-0.913,-0.287,-0.122,0.671,0.671,332.447
103791,140321,19647,-0.098,-0.913,-0.287,-0.122,0.671,0.671,332.451
103791,140323,7953,-0.106,-0.916,-0.294,-0.244,0.915,0.732,332.457
103788,140321,19647,-0.106,-0.916,-0.294,-0.244,0.915,0.732,332.461
103788,140303,7933,-0.1,-0.925,-0.295,0.305,0.793,0.61,332.467
103771,140321,19647,-0.1,-0.925,-0.295,0.305,0.793,0.61,332.471
103771,140316,7933,-0.099,-0.914,-0.294,0.305,0.793,0.61,332.477
103791,140321,19647,-0.098,-0.916,-0.278,0.732,0.183,0.183,332.481
103791,140351,7942,-0.094,-0.916,-0.27,0.732,0.183,0.183,332.487
103793,140321,19647,-0.093,-0.911,-0.283,0.488,0,0.061,332.491
103793,140344,7933,-0.095,-0.913,-0.299,0.488,0,0.061,332.497
103780,140321,19647,-0.1,-0.916,-0.308,-0.549,0.366,0.183,332.501
103780,140317,7939,-0.104,-0.925,-0.294,-0.549,0.366,0.183,332.507
103764,140321,19647,-0.102,-0.933,-0.26,0.488,0.427,0.122,332.511
103764,140293,7932,-0.094,-0.925,-0.244,0.488,0.427,0.122,332.517
103734,140065,19647,-0.087,-0.905,-0.295,-0.061,0.305,0.305,332.52
103734,140270,7938,-0.089,-0.92,-0.312,-0.061,0.305,0.305,332.527
103727,140065,19647,-0.103,-0.932,-0.293,-1.463,1.037,0.732,332.53
103727,140257,7922,-0.107,-0.925,-0.291,-1.463,1.037,0.732,332.536
103694,140065,19647,-0.105,-0.91,-0.292,0.183,1.22,0.976,332.54
103694,140216,7929,-0.099,-0.903,-0.293,0.183,1.22,0.976,332.546
103683,140065,19647,-0.093,-0.912,-0.288,0.854,0.732,0.183,332.55
103683,140208,7934,-0.092,-0.916,-0.297,0.854,0.732,0.183,332.556
103658,140065,19647,-0.097,-0.918,-0.296,0.305,0.793,0,332.56
103658,140205,7922,-0.1,-0.915,-0.289,0.305,0.793,0,332.566
103648,140065,19647,-0.098,-0.909,-0.305,-0.122,0.488,0,332.57
103648,140220,7933,-0.098,-0.909,-0.305,-0.122,0.488,0,332.576
103660,140065,19647,-0.099,-0.92,-0.284,0.366,0.183,-0.305,332.58
103660,140219,7920,-0.102,-0.925,-0.265,0.366,0.183,-0.305,332.586
103680,140065,19647,-0.097,-0.914,-0.28,0.976,0,-0.366,332.59
103680,140235,7921,-0.091,-0.914,-0.305,0.976,0,-0.366,332.596
103684,140065,19647,-0.099,-0.931,-0.297,-0.366,0.122,-0.122,332.6
103684,140199,7921,-0.102,-0.936,-0.286,-0.366,0.122,-0.122,332.606
103668,140065,19647,-0.099,-0.927,-0.289,0.549,0.244,0.305,332.61
103668,140210,7938,-0.096,-0.922,-0.285,0.549,0.244,0.305,332.616
103696,140065,19647,-0.094,-0.922,-0.274,1.341,0,0.244,332.619
103696,140245,7912,-0.092,-0.916,-0.271,1.341,0,0.244,332.626
103695,140065,19647,-0.096,-0.909,-0.286,0.549,0,0.427,332.629
103695,140237,7908,-0.1,-0.916,-0.297,0.549,0,0.427,332.635
103692,140065,19647,-0.104,-0.927,-0.288,-0.305,0.244,0.549,332.639
103692,140238,7913,-0.103,-0.92,-0.283,-0.305,0.244,0.549,332.645
103724,140065,19647,-0.099,-0.918,-0.287,0.366,0.244,0.488,332.649
103724,140247,7914,-0.098,-0.921,-0.29,0.366,0.244,0.488,332.655
103699,140065,19647,-0.096,-0.928,-0.293,1.402,-0.061,0.427,332.659
103699,140247,7921,-0.094,-0.93,-0.285,1.402,-0.061,0.427,332.665
103704,140065,19647,-0.094,-0.925,-0.287,2.012,-0.305,0.671,332.669
103704,140240,7934,-0.096,-0.917,-0.29,2.012,-0.305,0.671,332.675
103719,140065,19647,-0.101,-0.919,-0.279,2.012,-0.183,0.671,332.679
103719,140221,7931,-0.102,-0.924,-0.259,2.012,-0.183,0.671,332.685
103697,140065,19647,-0.098,-0.917,-0.268,2.073,-0.061,0.915,332.689
103697,140233,7928,-0.094,-0.907,-0.297,2.073,-0.061,0.915,332.695
103698,140065,19647,-0.1,-0.918,-0.291,0.915,0.305,0.976,332.699
103698,140239,7931,-0.107,-0.924,-0.283,0.915,0.305,0.976,332.705
103739,140065,19647,-0.103,-0.925,-0.281,1.707,0.61,0.854,332.709
103739,140258,7946,-0.101,-0.916,-0.282,1.707,0.61,0.854,332.715
103735,140065,19647,-0.098,-0.906,-0.301,1.768,0.183,0.549,332.718
103735,140275,7943,-0.092,-0.917,-0.306,1.768,0.183,0.549,332.725
103779,140321,19647,-0.093,-0.925,-0.295,1.768,0.244,0.488,332.728
103779,140296,7940,-0.099,-0.921,-0.292,1.768,0.244,0.488,332.734
103808,140321,19647,-0.098,-0.921,-0.29,1.768,0.183,0.488,332.738
103808,140309,7934,-0.095,-0.911,-0.291,1.768,0.183,0.488,332.744
103798,140321,19647,-0.096,-0.911,-0.298,1.22,-0.244,0.183,332.748
103798,140313,7944,-0.099,-0.919,-0.286,1.22,-0.244,0.183,332.754
103790,140321,19647,-0.101,-0.92,-0.278,1.646,-0.305,0.122,332.758
103790,140290,7927,-0.099,-0.915,-0.278,1.646,-0.305,0.122,332.764
103798,140321,19647,-0.098,-0.912,-0.277,1.341,-0.305,0.061,332.768
103798,140295,7937,-0.095,-0.908,-0.272,1.341,-0.305,0.061,332.774
103792,140321,19647,-0.094,-0.912,-0.283,0.549,-0.061,-0.122,332.778
103792,140332,7933,-0.1,-0.925,-0.284,0.549,-0.061,-0.122,332.784
103781,140321,19647,-0.105,-0.938,-0.261,0.244,0.305,0.183,332.788
103781,140288,7921,-0.095,-0.932,-0.266,0.244,0.305,0.183,332.794
103838,140321,19647,-0.091,-0.919,-0.288,-0.183,0.244,0.488,332.798
103838,140343,7942,-0.101,-0.931,-0.29,-0.183,0.244,0.488,332.804
103835,140321,19647,-0.106,-0.933,-0.276,-0.366,0.732,0.854,332.808
103835,140328,7941,-0.107,-0.929,-0.28,-0.366,0.732,0.854,332.814
103864,140321,19647,-0.105,-0.92,-0.284,0.488,0.915,1.037,332.817
103864,140350,7938,-0.1,-0.91,-0.295,0.488,0.915,1.037,332.824
103872,140321,19647,-0.1,-0.909,-0.297,0.732,0.61,0.61,332.827
103872,140357,7949,-0.099,-0.911,-0.294,0.732,0.61,0.61,332.834
103890,140321,19647,-0.098,-0.906,-0.29,1.28,0.427,0.488,332.837
103890,140368,7940,-0.097,-0.897,-0.288,1.28,0.427,0.488,332.843
103912,140321,19647,-0.098,-0.903,-0.298,0.915,0,-0.183,332.847
103912,140391,7945,-0.094,-0.917,-0.295,0.915,0,-0.183,332.853
103891,140321,19647,-0.095,-0.926,-0.271,0.61,-0.244,-0.61,332.857
103891,140374,7940,-0.094,-0.931,-0.259,0.61,-0.244,-0.61,332.863
103920,140321,19647,-0.088,-0.924,-0.283,0.061,-0.305,-0.549,332.867
103920,140376,7947,-0.092,-0.925,-0.296,0.061,-0.305,-0.549,332.873
103938,140321,19647,-0.098,-0.941,-0.277,-0.915,0,-0.061,332.877
103938,140418,7950,-0.105,-0.936,-0.271,-0.915,0,-0.061,332.883
103953,140321,19647,-0.104,-0.929,-0.279,-0.366,0.366,0.488,332.887
103953,140401,7968,-0.103,-0.933,-0.274,-0.366,0.366,0.488,332.893
103948,140321,19647,-0.099,-0.925,-0.275,0.122,0.427,0.854,332.897
103948,140408,7949,-0.097,-0.917,-0.291,0.122,0.427,0.854,332.903
103941,140321,19647,-0.103,-0.926,-0.29,0.122,0.61,1.22,332.907
103941,140402,7943,-0.105,-0.932,-0.267,0.122,0.61,1.22,332.913
103947,140321,19647,-0.105,-0.932,-0.267,0.122,0.61,1.22,332.916
103947,140405,7954,-0.089,-0.906,-0.275,0.671,0.427,1.159,332.923
103910,140321,19647,-0.089,-0.906,-0.275,0.671,0.427,1.159,332.926
103910,140388,7944,-0.094,-0.918,-0.293,-0.366,0.183,0.732,332.933
103884,140321,19647,-0.094,-0.918,-0.293,-0.366,0.183,0.732,332.936
103884,140356,7958,-0.108,-0.913,-0.286,-0.305,0.732,0.976,332.942
103884,140321,19647,-0.108,-0.913,-0.286,-0.305,0.732,0.976,332.946
103884,140351,7933,-0.101,-0.909,-0.287,0.366,0.671,0.549,332.952
103852,140321,19647,-0.101,-0.909,-0.287,0.366,0.671,0.549,332.956
103852,140310,7951,-0.095,-0.915,-0.269,1.037,0.122,-0.183,332.962
103835,140321,19647,-0.095,-0.915,-0.269,1.037,0.122,-0.183,332.966
103835,140323,7942,-0.102,-0.916,-0.29,0.549,0.183,-0.305,332.972
103822,140321,19647,-0.102,-0.916,-0.29,0.549,0.183,-0.305,332.976
103822,140316,7930,-0.103,-0.925,-0.284,-0.488,0.488,-0.305,332.982
103789,140065,19647,-0.103,-0.925,-0.284,-0.488,0.488,-0.305,332.986
103789,140275,7935,-0.106,-0.921,-0.278,-0.427,0.427,-0.488,332.992
103776,140065,19647,-0.106,-0.921,-0.278,-0.427,0.427,-0.488,332.996
103776,140270,7939,-0.09,-0.935,-0.281,-0.61,0.244,-0.488,333.002
103735,140065,19647,-0.09,-0.935,-0.281,-0.61,0.244,-0.488,333.006
103735,140266,7930,-0.097,-0.936,-0.283,-1.341,0.122,0.244,333.012
103737,140065,19647,-0.097,-0.936,-0.283,-1.341,0.122,0.244,333.015
103737,140251,7913,-0.102,-0.925,-0.264,-0.854,0.61,0.854,333.022
103728,140065,19647,-0.102,-0.925,-0.264,-0.854,0.61,0.854,333.025
103728,140238,7932,-0.097,-0.912,-0.301,-0.427,0.61,1.159,333.032
103702,140065,19647,-0.097,-0.912,-0.301,-0.427,0.61,1.159,333.035
103702,140242,7924,-0.102,-0.92,-0.292,-0.915,0.854,1.159,333.041
103713,140065,19647,-0.102,-0.92,-0.292,-0.915,0.854,1.159,333.045
103713,140239,7930,-0.098,-0.909,-0.29,-0.427,0.793,1.28,333.051
103719,140065,19647,-0.098,-0.909,-0.29,-0.427,0.793,1.28,333.055
103719,140238,7917,-0.098,-0.91,-0.287,0,0.305,0.61,333.061
103704,140065,19647,-0.098,-0.91,-0.287,0,0.305,0.61,333.065
103704,140212,7926,-0.096,-0.916,-0.283,-0.244,0.122,0.305,333.071
103714,140065,19647,-0.098,-0.92,-0.277,-0.244,0.122,0.305,333.075
103714,140224,7941,-0.097,-0.917,-0.275,-0.732,0.305,0,333.081
103712,140065,19647,-0.096,-0.917,-0.283,-0.732,0.305,0,333.085
103712,140226,7933,-0.096,-0.922,-0.28,-0.915,0.305,-0.244,333.091
103709,140065,19647,-0.1,-0.925,-0.274,-0.915,0.305,-0.244,333.095
103709,140217,7927,-0.099,-0.924,-0.272,-0.976,0.488,-0.122,333.101
103698,140065,19647,-0.101,-0.927,-0.275,-0.976,0.488,-0.122,333.105
103698,140233,7927,-0.097,-0.929,-0.28,-1.28,0.854,0,333.111
103707,140065,19647,-0.098,-0.93,-0.286,-1.28,0.854,0,333.114
103707,140221,7916,-0.099,-0.929,-0.283,-0.915,1.037,0.244,333.121
103679,140065,19647,-0.099,-0.924,-0.278,-0.915,1.037,0.244,333.124
103679,140203,7938,-0.097,-0.918,-0.277,-0.793,0.915,0.427,333.131
103689,140065,19647,-0.095,-0.913,-0.289,-0.793,0.915,0.427,333.134
103689,140193,7916,-0.095,-0.916,-0.298,-1.524,0.976,0.488,333.14
103665,140065,19647,-0.1,-0.922,-0.294,-1.524,0.976,0.488,333.144
103665,140195,7916,-0.102,-0.922,-0.29,-1.159,0.915,0.732,333.15
103679,140065,19647,-0.102,-0.922,-0.28,-1.159,0.915,0.732,333.154
103679,140207,7929,-0.097,-0.923,-0.27,-0.671,0.488,0.732,333.16
103658,140065,19647,-0.094,-0.922,-0.277,-0.671,0.488,0.732,333.164
103658,140203,7924,-0.092,-0.926,-0.285,-1.524,0.549,0.854,333.17
103672,140065,19647,-0.097,-0.931,-0.286,-1.524,0.549,0.854,333.174
103672,140191,7914,-0.097,-0.927,-0.281,-1.89,1.037,1.402,333.18
103663,140065,19647,-0.1,-0.921,-0.282,-1.89,1.037,1.402,333.184
103663,140179,7925,-0.099,-0.925,-0.277,-1.829,1.402,1.585,333.19
103623,140065,19647,-0.095,-0.92,-0.286,-1.829,1.402,1.585,333.194
103623,140136,7934,-0.096,-0.912,-0.306,-1.89,1.22,1.585,333.2
103634,140065,19647,-0.101,-0.918,-0.301,-1.89,1.22,1.585,333.204
103634,140176,7919,-0.104,-0.915,-0.293,-1.341,1.037,1.585,333.21
103628,140065,19647,-0.101,-0.909,-0.299,-1.341,1.037,1.585,333.214
103628,140139,7916,-0.103,-0.907,-0.3,-0.305,0.793,1.037,333.22
103625,140065,19647,-0.107,-0.904,-0.301,-0.305,0.793,1.037,333.223
103625,140158,7913,-0.102,-0.905,-0.295,0.183,0.305,0.366,333.23
103605,140065,19647,-0.099,-0.912,-0.286,0.183,0.305,0.366,333.233
103605,140144,7912,-0.099,-0.914,-0.278,0.122,0,-0.183,333.239
103591,140065,19647,-0.102,-0.913,-0.284,0.122,0,-0.183,333.243
103591,140122,7906,-0.105,-0.919,-0.277,-0.488,0,-0.549,333.249
103601,140065,19647,-0.102,-0.925,-0.274,-0.488,0,-0.549,333.253
103601,140136,7926,-0.098,-0.928,-0.274,-0.793,0.122,-0.488,333.259
103593,140065,19647,-0.099,-0.93,-0.267,-0.793,0.122,-0.488,333.263
103593,140144,7912,-0.098,-0.931,-0.285,-1.768,0.427,0.122,333.269
103568,140065,19647,-0.1,-0.933,-0.293,-1.768,0.427,0.122,333.273
103568,140101,7900,-0.103,-0.935,-0.29,-2.378,0.915,0.732,333.279
103582,140065,19647,-0.105,-0.934,-0.287,-2.378,0.915,0.732,333.283
103582,140089,7898,-0.097,-0.931,-0.275,-1.829,0.915,1.037,333.289
103568,140065,19647,-0.095,-0.919,-0.282,-1.829,0.915,1.037,333.293
103568,140108,7911,-0.094,-0.908,-0.295,-1.646,0.793,1.098,333.299
103585,140065,19647,-0.098,-0.914,-0.295,-1.646,0.793,1.098,333.303
103585,140088,7905,-0.104,-0.914,-0.284,-1.098,0.915,1.159,333.309
103611,140065,19647,-0.104,-0.906,-0.285,-1.098,0.915,1.159,333.312
103611,140114,7903,-0.101,-0.905,-0.284,-0.244,0.854,0.671,333.319
103600,140065,19647,-0.101,-0.906,-0.282,-0.244,0.854,0.671,333.322
103600,140089,7908,-0.098,-0.905,-0.281,0.488,0.61,0,333.329
103578,140065,19647,-0.096,-0.912,-0.276,0.488,0.61,0,333.332
103578,140094,7901,-0.094,-0.914,-0.285,-0.244,0.732,-0.305,333.339
103575,140065,19647,-0.1,-0.917,-0.301,-0.244,0.732,-0.305,333.342
103575,140097,7905,-0.101,-0.927,-0.295,-1.159,1.037,-0.366,333.348
103564,140065,19647,-0.103,-0.934,-0.283,-1.159,1.037,-0.366,333.352
103564,140083,7907,-0.097,-0.933,-0.284,-0.61,0.671,0,333.358
103591,140065,19647,-0.095,-0.934,-0.28,-0.61,0.671,0,333.362
103591,140118,7891,-0.091,-0.93,-0.289,-0.976,0.427,0.366,333.368
103596,140065,19647,-0.092,-0.93,-0.29,-0.976,0.427,0.366,333.372
103596,140075,7904,-0.099,-0.931,-0.272,-1.098,0.488,1.159,333.378
103570,140065,19647,-0.098,-0.926,-0.265,-1.098,0.488,1.159,333.382
103570,140102,7905,-0.098,-0.918,-0.27,-0.854,0.854,1.524,333.388
103616,140065,19647,-0.097,-0.914,-0.273,-0.854,0.854,1.524,333.392
103616,140129,7917,-0.096,-0.908,-0.292,-1.646,1.037,1.707,333.398
103611,140065,19647,-0.096,-0.913,-0.299,-1.646,1.037,1.707,333.402
103611,140094,7918,-0.102,-0.921,-0.284,-2.012,1.585,2.012,333.408
103628,140065,19647,-0.101,-0.917,-0.292,-2.012,1.585,2.012,333.411
103628,140105,7915,-0.1,-0.906,-0.309,-1.341,1.646,1.585,333.418
103629,140065,19647,-0.099,-0.912,-0.313,-1.341,1.646,1.585,333.421
103629,140110,7904,-0.101,-0.915,-0.31,-0.305,1.159,1.159,333.428
103599,140065,19647,-0.101,-0.912,-0.308,-0.305,1.159,1.159,333.431
103599,140092,7898,-0.102,-0.91,-0.305,0.244,0.61,0.61,333.437
103592,140065,19647,-0.1,-0.909,-0.303,0.244,0.61,0.61,333.441
103592,140082,7902,-0.098,-0.913,-0.296,0.366,-0.061,0.061,333.447
103607,140065,19647,-0.097,-0.912,-0.293,0.366,-0.061,0.061,333.451
103607,140089,7895,-0.101,-0.912,-0.289,0.061,-0.244,-0.305,333.457
103611,140065,19647,-0.103,-0.921,-0.279,0.061,-0.244,-0.305,333.461
103611,140103,7909,-0.102,-0.922,-0.274,-0.427,-0.061,-0.366,333.467
103631,140065,19647,-0.102,-0.918,-0.275,-0.427,-0.061,-0.366,333.471
103631,140097,7910,-0.1,-0.925,-0.273,-1.159,0.061,-0.244,333.477
103613,140065,19647,-0.1,-0.927,-0.28,-1.159,0.061,-0.244,333.481
103613,140119,7912,-0.099,-0.926,-0.291,-1.646,0.488,0.366,333.487
103629,140065,19647,-0.107,-0.931,-0.29,-1.646,0.488,0.366,333.491
103629,140129,7900,-0.104,-0.926,-0.279,-0.854,0.915,0.61,333.497
103628,140065,19647,-0.099,-0.922,-0.273,-0.854,0.915,0.61,333.501
103628,140082,7914,-0.095,-0.924,-0.278,-0.793,0.915,0.549,333.507
103597,140065,19647,-0.091,-0.919,-0.289,-0.793,0.915,0.549,333.511
103597,140112,7911,-0.094,-0.916,-0.293,-2.012,0.854,1.098,333.517
103623,140065,19647,-0.094,-0.916,-0.293,-2.012,0.854,1.098,333.52
103623,140130,7899,-0.105,-0.917,-0.291,-1.707,1.037,1.463,333.527
103628,140065,19647,-0.105,-0.917,-0.291,-1.707,1.037,1.463,333.53
103628,140122,7895,-0.098,-0.913,-0.288,-0.671,0.854,1.037,333.536
103610,140065,19647,-0.098,-0.913,-0.288,-0.671,0.854,1.037,333.54
103610,140110,7910,-0.096,-0.911,-0.297,-0.488,0.732,0.793,333.546
103663,140065,19647,-0.096,-0.911,-0.297,-0.488,0.732,0.793,333.55
103663,140106,7903,-0.1,-0.921,-0.288,-0.915,0.915,0.671,333.556
103646,140065,19647,-0.1,-0.921,-0.288,-0.915,0.915,0.671,333.56
103646,140118,7920,-0.096,-0.914,-0.296,-1.159,0.854,0.488,333.566
103659,140065,19647,-0.096,-0.914,-0.296,-1.159,0.854,0.488,333.57
103659,140134,7911,-0.102,-0.922,-0.292,-0.671,0.732,0.488,333.576
103685,140065,19647,-0.102,-0.922,-0.292,-0.671,0.732,0.488,333.58
103685,140126,7903,-0.101,-0.92,-0.276,-0.061,0.488,0.366,333.586
103668,140065,19647,-0.101,-0.92,-0.276,-0.061,0.488,0.366,333.59
103668,140131,7899,-0.089,-0.914,-0.295,-0.671,0.305,0.427,333.596
103665,140065,19647,-0.089,-0.914,-0.295,-0.671,0.305,0.427,333.6
103665,140163,7901,-0.103,-0.922,-0.285,-1.037,0.976,0.671,333.606
103658,140065,19647,-0.103,-0.922,-0.285,-1.037,0.976,0.671,333.61
103658,140122,7892,-0.1,-0.913,-0.282,-0.732,1.098,0.671,333.616
103669,140065,19647,-0.1,-0.913,-0.282,-0.732,1.098,0.671,333.619
103669,140154,7920,-0.09,-0.917,-0.313,-1.463,1.037,0.427,333.626
103659,140065,19647,-0.09,-0.917,-0.313,-1.463,1.037,0.427,333.629
103659,140140,7911,-0.104,-0.925,-0.303,-0.671,1.159,0.61,333.635
103661,140065,19647,-0.104,-0.925,-0.303,-0.671,1.159,0.61,333.639
103661,140122,7902,-0.1,-0.917,-0.277,0.244,0.854,0.671,333.645
103666,140065,19647,-0.1,-0.917,-0.277,0.244,0.854,0.671,333.649
103666,140120,7904,-0.097,-0.913,-0.309,-0.366,0.488,0.671,333.655
103648,140065,19647,-0.097,-0.913,-0.309,-0.366,0.488,0.671,333.659
103648,140132,7902,-0.108,-0.92,-0.294,-0.366,0.488,0.671,333.665
103688,140065,19647,-0.109,-0.924,-0.287,-0.305,0.61,0.976,333.669
103688,140130,7900,-0.108,-0.916,-0.291,-0.305,0.61,0.976,333.675
103716,140065,19647,-0.105,-0.91,-0.288,0.244,0.427,0.854,333.679
103716,140175,7895,-0.106,-0.915,-0.283,0.244,0.427,0.854,333.685
103704,140065,19647,-0.1,-0.917,-0.295,0.305,0,0.488,333.689
103704,140172,7914,-0.096,-0.918,-0.299,0.305,0,0.488,333.695
103740,140065,19647,-0.103,-0.926,-0.29,-0.244,0.122,0.61,333.699
103740,140175,7905,-0.107,-0.927,-0.279,-0.244,0.122,0.61,333.705
103706,140065,19647,-0.105,-0.913,-0.288,0.549,0.183,0.488,333.709
103706,140163,7921,-0.105,-0.906,-0.294,0.549,0.183,0.488,333.715
103729,140065,19647,-0.102,-0.905,-0.288,0.61,-0.061,0.061,333.718
103729,140166,7914,-0.098,-0.906,-0.297,0.61,-0.061,0.061,333.725
103746,140065,19647,-0.099,-0.917,-0.298,-0.427,0.061,0.122,333.728
103746,140172,7909,-0.103,-0.931,-0.287,-0.427,0.061,0.122,333.735
103748,140065,19647,-0.102,-0.926,-0.289,0.061,0.183,0.183,333.738
103748,140170,7923,-0.1,-0.916,-0.295,0.061,0.183,0.183,333.744
103752,140065,19647,-0.1,-0.907,-0.294,0.488,-0.244,0.183,333.748
103752,140201,7903,-0.097,-0.912,-0.286,0.488,-0.244,0.183,333.754
103759,140065,19647,-0.096,-0.924,-0.282,0.061,-0.183,0.122,333.758
103759,140182,7907,-0.097,-0.928,-0.289,0.061,-0.183,0.122,333.764
103770,140065,19647,-0.098,-0.922,-0.296,-0.549,0,0.427,333.768
103770,140187,7927,-0.101,-0.92,-0.287,-0.549,0,0.427,333.774
103769,140065,19647,-0.101,-0.927,-0.269,-0.305,-0.061,0.61,333.778
103769,140209,7934,-0.1,-0.928,-0.26,-0.305,-0.061,0.61,333.784
103788,140065,19647,-0.095,-0.917,-0.281,-0.854,0.122,0.793,333.788
103788,140230,7913,-0.096,-0.91,-0.298,-0.854,0.122,0.793,333.794
103788,140065,19647,-0.103,-0.917,-0.286,-1.951,0.732,1.037,333.798
103788,140205,7915,-0.105,-0.921,-0.275,-1.951,0.732,1.037,333.804
103780,140065,19647,-0.101,-0.911,-0.29,-1.28,1.098,0.976,333.808
103780,140206,7906,-0.1,-0.909,-0.303,-1.28,1.098,0.976,333.814
103793,140065,19647,-0.105,-0.915,-0.297,-0.671,1.159,0.488,333.817
103793,140191,7916,-0.099,-0.91,-0.307,-0.671,1.159,0.488,333.824
103797,140065,19647,-0.1,-0.911,-0.311,0.427,0.915,0.244,333.827
103797,140213,7922,-0.101,-0.917,-0.298,0.427,0.915,0.244,333.834
103811,140065,19647,-0.098,-0.914,-0.295,1.524,0.305,-0.122,333.837
103811,140211,7916,-0.097,-0.912,-0.292,1.524,0.305,-0.122,333.843
103836,140065,19647,-0.094,-0.92,-0.275,1.585,0,-0.488,333.847
103836,140199,7924,-0.093,-0.924,-0.261,1.585,0,-0.488,333.853
103805,140065,19647,-0.089,-0.911,-0.286,0.549,0.122,-0.305,333.857
103805,140209,7918,-0.093,-0.914,-0.31,0.549,0.122,-0.305,333.863
103805,140065,19647,-0.103,-0.937,-0.28,-0.549,0.61,0.183,333.867
103805,140231,7933,-0.107,-0.93,-0.282,-0.549,0.61,0.183,333.873
103828,140065,19647,-0.104,-0.916,-0.299,1.037,0.671,0.61,333.877
103828,140231,7935,-0.103,-0.914,-0.3,1.037,0.671,0.61,333.883
103816,140065,19647,-0.101,-0.918,-0.296,1.402,0.427,0.305,333.887
103816,140245,7922,-0.1,-0.922,-0.298,1.402,0.427,0.305,333.893
103820,140065,19647,-0.101,-0.922,-0.292,1.341,0.366,0.366,333.897
103820,140227,7930,-0.099,-0.92,-0.297,1.341,0.366,0.366,333.903
103856,140065,19647,-0.098,-0.919,-0.295,1.646,0,0.244,333.907
103856,140240,7909,-0.097,-0.913,-0.283,1.646,0,0.244,333.913
103821,140065,19647,-0.096,-0.913,-0.272,1.585,-0.366,0.244,333.916
103821,140212,7914,-0.098,-0.916,-0.278,1.585,-0.366,0.244,333.923
103826,140065,19647,-0.099,-0.926,-0.29,0.183,0.061,0.427,333.926
103826,140240,7907,-0.099,-0.933,-0.294,0.183,0.061,0.427,333.933
103824,140065,19647,-0.104,-0.93,-0.283,0,0.366,0.976,333.936
103824,140199,7912,-0.105,-0.924,-0.284,0,0.366,0.976,333.942
103797,140065,19647,-0.106,-0.914,-0.286,1.22,0.427,1.037,333.946
103797,140188,7922,-0.105,-0.913,-0.282,1.22,0.427,1.037,333.952
103803,140065,19647,-0.105,-0.911,-0.286,1.89,0.61,0.671,333.956
103803,140177,7915,-0.102,-0.908,-0.3,1.89,0.61,0.671,333.962
