135607,141511,10972,-0.248,-0.933,-0.227,1.402,-0.366,-1.768,262.15
135607,141336,13733,-0.251,-0.933,-0.232,1.402,-0.366,-1.768,262.156
135607,141511,10972,-0.252,-0.929,-0.231,1.646,-0.549,-1.402,262.16
135607,141333,13744,-0.25,-0.93,-0.225,1.646,-0.549,-1.402,262.166
135615,141511,10972,-0.248,-0.932,-0.221,2.134,-0.915,-0.793,262.17
135615,141358,13748,-0.252,-0.928,-0.223,2.134,-0.915,-0.793,262.176
135599,141511,10972,-0.252,-0.928,-0.223,2.134,-0.915,-0.793,262.18
135599,141323,13742,-0.249,-0.914,-0.218,2.683,-1.28,-0.183,262.186
135587,141511,10972,-0.249,-0.914,-0.218,2.683,-1.28,-0.183,262.19
135587,141342,13739,-0.252,-0.911,-0.219,2.927,-1.402,0.122,262.196
135603,141511,10972,-0.252,-0.911,-0.219,2.927,-1.402,0.122,262.2
135603,141349,13726,-0.251,-0.917,-0.213,2.866,-1.646,-0.061,262.206
135596,141511,10972,-0.251,-0.917,-0.213,2.866,-1.646,-0.061,262.21
135596,141356,13736,-0.251,-0.908,-0.202,3.049,-1.829,-0.366,262.216
135600,141511,10972,-0.251,-0.908,-0.202,3.049,-1.829,-0.366,262.219
135600,141344,13733,-0.248,-0.91,-0.2,2.744,-1.402,-0.488,262.226
135612,141511,10972,-0.248,-0.91,-0.2,2.744,-1.402,-0.488,262.229
135612,141367,13747,-0.247,-0.919,-0.203,1.646,-0.732,-0.427,262.235
135623,141511,10972,-0.247,-0.919,-0.203,1.646,-0.732,-0.427,262.239
135623,141376,13739,-0.25,-0.922,-0.203,0.488,-0.122,-0.366,262.245
135610,141511,10972,-0.25,-0.922,-0.203,0.488,-0.122,-0.366,262.249
135610,141344,13756,-0.25,-0.921,-0.212,-0.427,0.305,0,262.255
135608,141511,10972,-0.25,-0.921,-0.212,-0.427,0.305,0,262.259
135608,141357,13744,-0.247,-0.921,-0.215,-1.402,0.488,0.244,262.265
135613,141511,10972,-0.247,-0.921,-0.215,-1.402,0.488,0.244,262.269
135613,141343,13741,-0.248,-0.922,-0.216,-1.768,0.671,0.305,262.275
135618,141511,10972,-0.248,-0.922,-0.216,-1.768,0.671,0.305,262.279
135618,141341,13739,-0.248,-0.923,-0.219,-1.524,0.854,0.549,262.285
135593,141511,10972,-0.248,-0.923,-0.219,-1.524,0.854,0.549,262.289
135593,141360,13734,-0.247,-0.917,-0.217,-1.341,0.793,0.793,262.295
135596,141511,10972,-0.247,-0.917,-0.217,-1.341,0.793,0.793,262.299
135596,141354,13740,-0.246,-0.919,-0.22,-1.341,0.976,0.915,262.305
135603,141511,10972,-0.246,-0.919,-0.22,-1.341,0.976,0.915,262.309
135603,141380,13752,-0.247,-0.917,-0.22,-1.22,1.159,1.098,262.315
135613,141511,10972,-0.247,-0.917,-0.22,-1.22,1.159,1.098,262.318
135613,141380,13752,-0.25,-0.921,-0.222,-1.098,1.098,1.402,262.325
135597,141511,10972,-0.25,-0.921,-0.222,-1.098,1.098,1.402,262.328
135597,141371,13760,-0.249,-0.92,-0.226,-1.037,1.037,1.463,262.335
135626,141511,10972,-0.251,-0.922,-0.224,-1.037,1.037,1.463,262.338
135626,141341,13744,-0.248,-0.921,-0.22,-0.854,0.915,1.402,262.344
135635,141511,10972,-0.248,-0.923,-0.225,-0.854,0.915,1.402,262.348
135635,141368,13757,-0.252,-0.923,-0.221,-0.732,0.915,1.463,262.354
135616,141511,10972,-0.25,-0.921,-0.216,-0.732,0.915,1.463,262.358
135616,141364,13759,-0.25,-0.918,-0.213,-0.488,0.61,1.707,262.364
135635,141511,10972,-0.251,-0.915,-0.212,-0.488,0.61,1.707,262.368
135635,141368,13762,-0.253,-0.911,-0.215,-0.671,0.549,1.646,262.374
135637,141511,10972,-0.254,-0.913,-0.218,-0.671,0.549,1.646,262.378
135637,141372,13765,-0.252,-0.917,-0.22,-1.098,0.61,1.402,262.384
135641,141511,10972,-0.252,-0.915,-0.219,-1.098,0.61,1.402,262.388
135641,141376,13749,-0.253,-0.915,-0.221,-1.098,0.488,1.098,262.394
135630,141511,10972,-0.256,-0.913,-0.224,-1.098,0.488,1.098,262.398
135630,141386,13757,-0.256,-0.915,-0.223,-0.793,0.488,0.854,262.404
135640,141511,10972,-0.257,-0.916,-0.219,-0.793,0.488,0.854,262.408
135640,141370,13763,-0.255,-0.919,-0.22,-0.244,0.305,0.549,262.414
135659,141511,10972,-0.258,-0.921,-0.219,-0.244,0.305,0.549,262.417
135659,141406,13755,-0.257,-0.924,-0.218,0.183,0.183,0.488,262.424
135647,141511,10972,-0.258,-0.922,-0.217,0.183,0.183,0.488,262.427
135647,141398,13764,-0.257,-0.922,-0.217,0.122,0.183,0.61,262.433
135644,141511,10972,-0.258,-0.918,-0.215,0.122,0.183,0.61,262.437
135644,141408,13771,-0.258,-0.919,-0.221,-0.244,0.244,0.549,262.443
135622,141511,10972,-0.257,-0.922,-0.218,-0.244,0.244,0.549,262.447
135622,141393,13761,-0.258,-0.926,-0.22,-0.427,0.305,0.488,262.453
135668,141511,10972,-0.257,-0.924,-0.22,-0.427,0.305,0.488,262.457
135668,141395,13758,-0.257,-0.917,-0.22,-0.244,0.183,0.549,262.463
135654,141511,10972,-0.256,-0.913,-0.221,-0.244,0.183,0.549,262.467
135654,141395,13771,-0.253,-0.911,-0.218,-0.366,0,0.305,262.473
135679,141511,10972,-0.249,-0.914,-0.218,-0.366,0,0.305,262.477
135679,141394,13763,-0.252,-0.916,-0.217,-0.427,0.122,-0.061,262.483
135672,141511,10972,-0.255,-0.919,-0.217,-0.427,0.122,-0.061,262.487
135672,141381,13758,-0.252,-0.911,-0.216,-0.671,0.488,0.061,262.493
135686,141511,10972,-0.251,-0.911,-0.211,-0.671,0.488,0.061,262.497
135686,141395,13762,-0.249,-0.911,-0.216,-0.915,0.793,0.244,262.503
135663,141511,10972,-0.25,-0.915,-0.215,-0.915,0.793,0.244,262.507
135663,141391,13776,-0.251,-0.914,-0.214,-1.341,0.915,0,262.513
135670,141511,10972,-0.25,-0.913,-0.216,-1.341,0.915,0,262.516
135670,141386,13768,-0.251,-0.915,-0.222,-1.585,1.22,-0.183,262.523
135661,141511,10972,-0.249,-0.92,-0.223,-1.585,1.22,-0.183,262.526
135661,141390,13762,-0.25,-0.92,-0.223,-1.707,1.22,-0.244,262.533
135675,141511,10972,-0.251,-0.919,-0.227,-1.707,1.22,-0.244,262.536
135675,141386,13754,-0.252,-0.922,-0.224,-1.402,1.098,-0.244,262.542
135650,141511,10972,-0.254,-0.922,-0.226,-1.402,1.098,-0.244,262.546
135650,141388,13770,-0.25,-0.924,-0.225,-0.793,0.976,-0.183,262.552
135657,141511,10972,-0.25,-0.923,-0.218,-0.793,0.976,-0.183,262.556
135657,141365,13750,-0.252,-0.924,-0.22,-0.244,0.854,-0.183,262.562
135644,141511,10972,-0.249,-0.919,-0.219,-0.244,0.854,-0.183,262.566
135644,141379,13751,-0.252,-0.917,-0.218,-0.366,0.732,-0.061,262.572
135680,141511,10972,-0.252,-0.918,-0.217,-0.366,0.732,-0.061,262.576
135680,141373,13753,-0.253,-0.918,-0.22,-0.61,0.671,0,262.582
135654,141511,10972,-0.253,-0.919,-0.222,-0.61,0.671,0,262.586
135654,141348,13761,-0.255,-0.917,-0.222,-0.671,0.427,-0.122,262.592
135663,141511,10972,-0.25,-0.917,-0.223,-0.671,0.427,-0.122,262.596
135663,141320,13755,-0.249,-0.921,-0.222,-0.549,0.366,-0.305,262.602
135663,141511,10972,-0.25,-0.917,-0.225,-0.549,0.366,-0.305,262.606
135663,141359,13752,-0.248,-0.916,-0.228,-0.427,0.305,-0.183,262.612
135663,141511,10972,-0.244,-0.917,-0.223,-0.427,0.305,-0.183,262.615
135663,141350,13739,-0.247,-0.917,-0.223,0.061,0.305,-0.183,262.622
135648,141511,10972,-0.247,-0.917,-0.224,0.061,0.305,-0.183,262.625
135648,141363,13742,-0.245,-0.917,-0.225,0.427,0.427,-0.122,262.632
135641,141511,10972,-0.249,-0.917,-0.224,0.427,0.427,-0.122,262.635
135641,141364,13740,-0.246,-0.919,-0.224,0.427,0.366,0,262.641
135637,141511,10972,-0.245,-0.921,-0.224,0.427,0.366,0,262.645
135637,141350,13745,-0.249,-0.923,-0.225,0.488,0.366,0.122,262.651
135649,141511,10972,-0.248,-0.925,-0.224,0.488,0.366,0.122,262.655
135649,141353,13746,-0.247,-0.924,-0.222,0.732,0.183,0.366,262.661
135656,141511,10972,-0.25,-0.924,-0.213,0.732,0.183,0.366,262.665
135656,141331,13756,-0.253,-0.922,-0.216,0.976,0.061,0.671,262.671
135643,141511,10972,-0.253,-0.922,-0.222,0.976,0.061,0.671,262.675
135643,141338,13747,-0.253,-0.922,-0.223,0.732,0.183,0.915,262.681
135652,141511,10972,-0.254,-0.924,-0.221,0.732,0.183,0.915,262.685
135652,141347,13736,-0.252,-0.923,-0.219,0.976,0.061,0.854,262.691
135658,141511,10972,-0.253,-0.919,-0.22,0.976,0.061,0.854,262.695
135658,141334,13717,-0.255,-0.917,-0.22,1.28,-0.061,0.915,262.701
135640,141511,10972,-0.253,-0.913,-0.225,1.28,-0.061,0.915,262.705
135640,141339,13733,-0.252,-0.912,-0.223,1.159,-0.122,0.732,262.711
135629,141511,10972,-0.252,-0.916,-0.221,1.159,-0.122,0.732,262.714
135629,141348,13744,-0.252,-0.916,-0.22,1.28,-0.122,0.488,262.721
135634,141511,10972,-0.25,-0.92,-0.221,1.28,-0.122,0.488,262.724
135634,141352,13748,-0.25,-0.918,-0.217,1.402,0.183,0.305,262.731
135661,141511,10972,-0.248,-0.917,-0.219,1.402,0.183,0.305,262.734
135661,141328,13735,-0.252,-0.918,-0.217,1.22,0.305,0.427,262.74
135669,141511,10972,-0.248,-0.912,-0.21,1.22,0.305,0.427,262.744
135669,141337,13728,-0.249,-0.914,-0.211,0.976,0.488,0.549,262.75
135666,141511,10972,-0.254,-0.915,-0.21,0.976,0.488,0.549,262.754
135666,141353,13743,-0.252,-0.917,-0.209,0.244,0.549,0.488,262.76
135665,141511,10972,-0.255,-0.919,-0.212,0.244,0.549,0.488,262.764
135665,141381,13738,-0.258,-0.921,-0.217,-0.244,0.427,0.61,262.77
135678,141511,10972,-0.258,-0.921,-0.217,-0.244,0.427,0.61,262.774
135678,141366,13746,-0.256,-0.919,-0.217,-0.366,0.244,0.549,262.78
135703,141511,10972,-0.256,-0.919,-0.217,-0.366,0.244,0.549,262.784
135703,141352,13741,-0.256,-0.919,-0.217,-0.122,0.244,0.305,262.79
135694,141511,10972,-0.256,-0.919,-0.217,-0.122,0.244,0.305,262.794
135694,141372,13751,-0.253,-0.919,-0.215,-0.061,0.366,0.183,262.8
135681,141511,10972,-0.253,-0.919,-0.215,-0.061,0.366,0.183,262.804
135681,141374,13732,-0.249,-0.913,-0.216,-0.488,0.549,0.061,262.81
135652,141511,10972,-0.249,-0.913,-0.216,-0.488,0.549,0.061,262.813
135652,141365,13732,-0.249,-0.919,-0.217,-1.037,0.915,0.061,262.82
135680,141511,10972,-0.249,-0.919,-0.217,-1.037,0.915,0.061,262.823
135680,141354,13740,-0.245,-0.92,-0.224,-1.28,1.037,0.122,262.83
135672,141511,10972,-0.245,-0.92,-0.224,-1.28,1.037,0.122,262.833
135672,141349,13740,-0.241,-0.919,-0.224,-1.28,0.915,0.183,262.839
135677,141511,10972,-0.241,-0.919,-0.224,-1.28,0.915,0.183,262.843
135677,141357,13746,-0.25,-0.923,-0.228,-1.098,0.732,0.427,262.849
135672,141511,10972,-0.25,-0.923,-0.228,-1.098,0.732,0.427,262.853
135672,141361,13745,-0.251,-0.923,-0.231,-0.671,0.183,0.671,262.859
135672,141511,10972,-0.251,-0.923,-0.231,-0.671,0.183,0.671,262.863
135672,141357,13741,-0.255,-0.921,-0.23,0.488,-0.244,0.671,262.869
135663,141511,10972,-0.255,-0.921,-0.23,0.488,-0.244,0.671,262.873
135663,141355,13750,-0.257,-0.917,-0.22,1.585,-0.549,0.488,262.879
135680,141511,10972,-0.257,-0.917,-0.22,1.585,-0.549,0.488,262.883
135680,141370,13762,-0.256,-0.912,-0.208,2.073,-0.671,-0.061,262.889
135689,141511,10972,-0.256,-0.912,-0.208,2.073,-0.671,-0.061,262.893
135689,141350,13752,-0.253,-0.917,-0.205,1.829,-0.61,-0.549,262.899
135670,141511,10972,-0.253,-0.917,-0.205,1.829,-0.61,-0.549,262.903
135670,141363,13739,-0.251,-0.916,-0.198,1.037,-0.183,-0.61,262.909
135682,141511,10972,-0.251,-0.916,-0.198,1.037,-0.183,-0.61,262.912
135682,141334,13731,-0.249,-0.911,-0.208,-0.183,0.305,-0.427,262.919
135671,141511,10972,-0.249,-0.911,-0.208,-0.183,0.305,-0.427,262.922
135671,141352,13742,-0.246,-0.916,-0.207,-0.183,0.305,-0.427,262.929
135655,141511,10972,-0.25,-0.918,-0.216,-1.341,0.793,-0.427,262.932
135655,141341,13740,-0.251,-0.922,-0.215,-1.341,0.793,-0.427,262.938
135682,141511,10972,-0.247,-0.926,-0.217,-1.646,0.976,-0.305,262.942
135682,141360,13731,-0.246,-0.922,-0.22,-1.646,0.976,-0.305,262.948
135663,141511,10972,-0.246,-0.921,-0.221,-1.524,0.793,0,262.952
135663,141345,13753,-0.246,-0.923,-0.223,-1.524,0.793,0,262.958
135656,141511,10972,-0.247,-0.927,-0.225,-1.037,0.549,0.366,262.962
135656,141335,13754,-0.247,-0.925,-0.225,-1.037,0.549,0.366,262.968
135678,141511,10972,-0.247,-0.925,-0.223,-0.427,0.366,0.793,262.972
135678,141345,13748,-0.251,-0.919,-0.216,-0.427,0.366,0.793,262.978
135668,141511,10972,-0.252,-0.914,-0.214,-0.122,0.244,1.341,262.982
135668,141341,13749,-0.25,-0.913,-0.217,-0.122,0.244,1.341,262.988
135680,141511,10972,-0.25,-0.918,-0.219,-0.366,0.061,1.463,262.992
135680,141331,13738,-0.25,-0.922,-0.219,-0.366,0.061,1.463,262.998
135680,141511,10972,-0.251,-0.92,-0.214,-0.549,0.244,1.402,263.002
135680,141373,13731,-0.252,-0.923,-0.219,-0.549,0.244,1.402,263.008
135687,141511,10972,-0.252,-0.921,-0.218,-0.671,0.61,1.463,263.011
135687,141337,13730,-0.251,-0.92,-0.214,-0.671,0.61,1.463,263.018
135678,141511,10972,-0.25,-0.917,-0.21,-1.037,0.915,1.585,263.021
135678,141347,13740,-0.25,-0.918,-0.213,-1.037,0.915,1.585,263.028
135683,141511,10972,-0.251,-0.92,-0.216,-1.646,1.28,1.707,263.031
135683,141350,13728,-0.251,-0.921,-0.213,-1.646,1.28,1.707,263.037
135697,141511,10972,-0.255,-0.921,-0.215,-2.195,1.524,1.89,263.041
135697,141346,13747,-0.255,-0.917,-0.219,-2.195,1.524,1.89,263.047
135704,141511,10972,-0.25,-0.915,-0.216,-2.5,1.402,1.829,263.051
135704,141347,13748,-0.253,-0.911,-0.217,-2.5,1.402,1.829,263.057
135692,141511,10972,-0.253,-0.911,-0.22,-2.561,1.463,1.402,263.061
135692,141344,13749,-0.253,-0.914,-0.217,-2.561,1.463,1.402,263.067
135703,141511,10972,-0.252,-0.918,-0.224,-2.561,1.463,0.976,263.071
135703,141335,13739,-0.251,-0.917,-0.224,-2.561,1.463,0.976,263.077
135694,141511,10972,-0.252,-0.915,-0.225,-2.012,1.22,0.671,263.081
135694,141345,13750,-0.256,-0.915,-0.22,-2.012,1.22,0.671,263.087
135715,141511,10972,-0.257,-0.916,-0.222,-1.341,1.159,0.549,263.091
135715,141351,13727,-0.256,-0.921,-0.225,-1.341,1.159,0.549,263.097
135712,141511,10972,-0.259,-0.921,-0.227,-1.037,0.915,0.366,263.101
135712,141331,13743,-0.256,-0.921,-0.226,-1.037,0.915,0.366,263.107
135682,141511,10972,-0.257,-0.921,-0.223,-0.732,0.793,0.244,263.11
135682,141334,13743,-0.255,-0.919,-0.224,-0.732,0.793,0.244,263.117
135701,141511,10972,-0.257,-0.917,-0.222,-0.549,0.61,0.183,263.12
135701,141324,13739,-0.255,-0.916,-0.225,-0.549,0.61,0.183,263.127
135672,141511,10972,-0.249,-0.917,-0.222,-0.427,0.488,0.183,263.13
135672,141347,13749,-0.252,-0.917,-0.222,-0.427,0.488,0.183,263.136
135698,141511,10972,-0.253,-0.916,-0.222,-0.244,0.488,0.183,263.14
135698,141338,13728,-0.25,-0.916,-0.222,-0.244,0.488,0.183,263.146
135683,141511,10972,-0.25,-0.913,-0.225,-0.183,0.366,0.122,263.15
135683,141316,13730,-0.25,-0.913,-0.224,-0.183,0.366,0.122,263.156
135663,141255,10972,-0.253,-0.918,-0.219,0.122,0.366,0.122,263.16
135663,141303,13749,-0.253,-0.92,-0.218,0.122,0.366,0.122,263.166
135649,141255,10972,-0.25,-0.918,-0.223,0.244,0.488,0.183,263.17
135649,141286,13722,-0.252,-0.916,-0.222,0.244,0.488,0.183,263.176
135643,141255,10972,-0.252,-0.918,-0.223,-0.122,0.549,0.183,263.18
135643,141285,13737,-0.249,-0.919,-0.223,-0.122,0.549,0.183,263.186
135665,141255,10972,-0.252,-0.92,-0.223,-0.244,0.427,0.183,263.19
135665,141299,13725,-0.251,-0.922,-0.224,-0.244,0.427,0.183,263.196
135663,141255,10972,-0.256,-0.922,-0.224,-0.305,0.366,0.366,263.2
135663,141304,13726,-0.254,-0.924,-0.227,-0.305,0.366,0.366,263.206
135670,141255,10972,-0.252,-0.92,-0.222,0,0.122,0.488,263.21
135670,141308,13715,-0.254,-0.92,-0.217,0,0.122,0.488,263.216
135669,141255,10972,-0.251,-0.918,-0.218,0.183,0,0.61,263.219
135669,141292,13725,-0.249,-0.919,-0.22,0.183,0,0.61,263.226
135654,141255,10972,-0.25,-0.918,-0.219,-0.122,0.122,0.488,263.229
135654,141277,13726,-0.247,-0.916,-0.219,-0.122,0.122,0.488,263.235
135648,141255,10972,-0.249,-0.912,-0.214,-0.183,0.244,0.488,263.239
135648,141297,13721,-0.253,-0.913,-0.215,-0.183,0.244,0.488,263.245
135641,141255,10972,-0.255,-0.915,-0.222,-0.366,0.549,0.427,263.249
135641,141266,13716,-0.253,-0.917,-0.227,-0.366,0.549,0.427,263.255
135642,141255,10972,-0.253,-0.917,-0.225,-0.427,0.549,0,263.259
135642,141284,13705,-0.251,-0.919,-0.223,-0.427,0.549,0,263.265
135648,141255,10972,-0.249,-0.916,-0.225,-0.183,0.549,-0.183,263.269
135648,141280,13720,-0.251,-0.918,-0.222,-0.183,0.549,-0.183,263.275
135645,141255,10972,-0.252,-0.92,-0.221,-0.122,0.549,-0.244,263.279
135645,141261,13722,-0.253,-0.92,-0.221,-0.122,0.549,-0.244,263.285
135624,141255,10972,-0.245,-0.925,-0.22,-0.122,0.427,0,263.289
135624,141259,13711,-0.246,-0.927,-0.22,-0.122,0.427,0,263.295
135620,141255,10972,-0.25,-0.922,-0.218,0.061,0.427,0.61,263.299
135620,141248,13718,-0.251,-0.918,-0.218,0.061,0.427,0.61,263.305
135637,141255,10972,-0.251,-0.916,-0.216,-0.183,0.427,1.098,263.309
135637,141239,13723,-0.252,-0.914,-0.219,-0.183,0.427,1.098,263.315
135648,141255,10972,-0.253,-0.916,-0.215,-0.488,0.732,1.524,263.318
135648,141262,13715,-0.253,-0.915,-0.221,-0.488,0.732,1.524,263.325
135631,141255,10972,-0.25,-0.918,-0.223,-0.671,0.793,1.585,263.328
135631,141271,13702,-0.251,-0.919,-0.224,-0.671,0.793,1.585,263.334
135648,141255,10972,-0.255,-0.921,-0.22,-0.976,0.854,1.463,263.338
135648,141262,13706,-0.254,-0.922,-0.219,-0.976,0.854,1.463,263.344
135634,141255,10972,-0.251,-0.917,-0.215,-0.854,1.037,1.402,263.348
135634,141253,13703,-0.25,-0.909,-0.214,-0.854,1.037,1.402,263.354
135634,141255,10972,-0.252,-0.913,-0.219,-1.159,1.037,1.28,263.358
135634,141263,13700,-0.252,-0.918,-0.223,-1.159,1.037,1.28,263.364
135649,141255,10972,-0.252,-0.918,-0.223,-1.159,1.037,1.28,263.368
135649,141264,13704,-0.25,-0.919,-0.224,-1.829,1.098,1.098,263.374
135645,141255,10972,-0.25,-0.919,-0.224,-1.829,1.098,1.098,263.378
135645,141284,13694,-0.252,-0.916,-0.219,-1.707,1.22,1.098,263.384
135644,141255,10972,-0.252,-0.916,-0.219,-1.707,1.22,1.098,263.388
135644,141275,13698,-0.252,-0.915,-0.218,-1.28,1.341,1.28,263.394
135638,141255,10972,-0.252,-0.915,-0.218,-1.28,1.341,1.28,263.398
135638,141266,13701,-0.255,-0.917,-0.224,-1.159,1.463,1.28,263.404
135634,141255,10972,-0.255,-0.917,-0.224,-1.159,1.463,1.28,263.408
135634,141253,13705,-0.255,-0.921,-0.226,-1.159,1.341,1.22,263.414
135639,141255,10972,-0.255,-0.921,-0.226,-1.159,1.341,1.22,263.417
135639,141238,13693,-0.259,-0.918,-0.222,-0.793,1.037,1.22,263.424
135652,141255,10972,-0.259,-0.918,-0.222,-0.793,1.037,1.22,263.427
135652,141265,13692,-0.259,-0.925,-0.23,-0.366,0.671,0.976,263.433
135662,141255,10972,-0.259,-0.925,-0.23,-0.366,0.671,0.976,263.437
135662,141275,13694,-0.261,-0.923,-0.224,-0.061,0.183,0.732,263.443
135658,141255,10972,-0.261,-0.923,-0.224,-0.061,0.183,0.732,263.447
135658,141262,13701,-0.256,-0.92,-0.225,0.244,-0.183,0.61,263.453
135625,141255,10972,-0.256,-0.92,-0.225,0.244,-0.183,0.61,263.457
135625,141263,13705,-0.254,-0.927,-0.213,0.366,-0.061,0.671,263.463
135636,141255,10972,-0.254,-0.927,-0.213,0.366,-0.061,0.671,263.467
135636,141250,13698,-0.249,-0.925,-0.225,-0.122,0.427,1.159,263.473
135646,141255,10972,-0.249,-0.925,-0.225,-0.122,0.427,1.159,263.477
135646,141265,13693,-0.248,-0.915,-0.221,-1.037,0.854,2.012,263.483
135625,141255,10972,-0.248,-0.915,-0.221,-1.037,0.854,2.012,263.487
135625,141279,13701,-0.251,-0.909,-0.226,-1.22,1.22,2.683,263.493
135650,141255,10972,-0.251,-0.909,-0.226,-1.22,1.22,2.683,263.497
135650,141266,13692,-0.25,-0.909,-0.229,-1.585,1.22,2.622,263.503
135643,141255,10972,-0.25,-0.909,-0.229,-1.585,1.22,2.622,263.507
135643,141277,13695,-0.249,-0.906,-0.226,-1.951,0.915,2.134,263.513
135632,141255,10972,-0.249,-0.906,-0.226,-1.951,0.915,2.134,263.516
135632,141251,13707,-0.253,-0.906,-0.226,-2.195,0.732,1.707,263.523
135623,141255,10972,-0.256,-0.907,-0.224,-2.195,0.732,1.707,263.526
135623,141258,13694,-0.258,-0.907,-0.233,-2.683,0.793,1.28,263.533
135656,141255,10972,-0.26,-0.91,-0.237,-2.683,0.793,1.28,263.536
135656,141257,13689,-0.26,-0.912,-0.24,-2.378,0.671,0.61,263.542
135651,141255,10972,-0.265,-0.919,-0.247,-2.378,0.671,0.61,263.546
135651,141258,13694,-0.264,-0.926,-0.239,-1.037,0.122,-0.183,263.552
135649,141255,10972,-0.263,-0.931,-0.223,-1.037,0.122,-0.183,263.556
135649,141261,13695,-0.256,-0.927,-0.216,1.463,-0.366,-0.427,263.562
135655,141255,10972,-0.252,-0.922,-0.214,1.463,-0.366,-0.427,263.566
135655,141258,13699,-0.255,-0.92,-0.218,1.28,-0.061,0.305,263.572
135649,141255,10972,-0.256,-0.923,-0.221,1.28,-0.061,0.305,263.576
135649,141247,13686,-0.256,-0.922,-0.223,0,0.244,1.159,263.582
135664,141255,10972,-0.255,-0.92,-0.219,0,0.244,1.159,263.586
135664,141252,13697,-0.258,-0.912,-0.213,-0.305,0.305,1.341,263.592
135653,141255,10972,-0.258,-0.902,-0.212,-0.305,0.305,1.341,263.596
135653,141269,13696,-0.26,-0.901,-0.215,-1.037,0.732,1.341,263.602
135633,141255,10972,-0.256,-0.901,-0.218,-1.037,0.732,1.341,263.606
135633,141258,13707,-0.251,-0.906,-0.221,-1.89,0.854,0.793,263.612
135636,141255,10972,-0.25,-0.911,-0.223,-1.89,0.854,0.793,263.615
135636,141256,13688,-0.254,-0.907,-0.223,-1.768,0.976,0.549,263.622
135656,141255,10972,-0.256,-0.904,-0.222,-1.768,0.976,0.549,263.625
135656,141259,13693,-0.256,-0.905,-0.225,-1.341,0.915,0.549,263.632
135642,141255,10972,-0.258,-0.907,-0.226,-1.341,0.915,0.549,263.635
135642,141257,13688,-0.256,-0.913,-0.233,-1.341,0.854,-0.122,263.641
135642,141255,10972,-0.258,-0.922,-0.234,-1.341,0.854,-0.122,263.645
135642,141249,13714,-0.257,-0.93,-0.235,-0.488,0.366,-0.793,263.651
135631,141255,10972,-0.256,-0.923,-0.236,-0.488,0.366,-0.793,263.655
135631,141264,13693,-0.26,-0.92,-0.239,1.037,-0.183,-0.732,263.661
135622,141255,10972,-0.262,-0.922,-0.238,1.037,-0.183,-0.732,263.665
135622,141251,13707,-0.26,-0.928,-0.233,1.341,-0.244,-0.305,263.671
135635,141255,10972,-0.259,-0.933,-0.233,1.341,-0.244,-0.305,263.675
135635,141236,13694,-0.263,-0.93,-0.233,1.768,-0.61,-0.183,263.681
135629,141255,10972,-0.258,-0.926,-0.226,1.768,-0.61,-0.183,263.685
135629,141215,13705,-0.259,-0.922,-0.223,2.134,-0.976,0.183,263.691
135627,141255,10972,-0.258,-0.918,-0.22,2.134,-0.976,0.183,263.695
135627,141238,13703,-0.255,-0.92,-0.218,2.256,-1.22,0.366,263.701
135642,141255,10972,-0.255,-0.919,-0.215,2.256,-1.22,0.366,263.705
135642,141236,13695,-0.257,-0.914,-0.219,1.89,-1.22,0.427,263.711
135644,141255,10972,-0.257,-0.907,-0.216,1.89,-1.22,0.427,263.714
135644,141244,13686,-0.256,-0.904,-0.214,1.402,-0.915,0.183,263.721
135655,141255,10972,-0.256,-0.903,-0.214,1.402,-0.915,0.183,263.724
135655,141234,13684,-0.256,-0.903,-0.216,1.037,-0.671,-0.305,263.73
135659,141255,10972,-0.254,-0.905,-0.22,1.037,-0.671,-0.305,263.734
135659,141242,13705,-0.253,-0.907,-0.221,0.61,-0.488,-0.671,263.74
135647,141255,10972,-0.252,-0.913,-0.225,0.61,-0.488,-0.671,263.744
135647,141252,13710,-0.255,-0.914,-0.229,0.549,-0.305,-1.037,263.75
135643,141255,10972,-0.255,-0.917,-0.229,0.549,-0.305,-1.037,263.754
135643,141238,13701,-0.254,-0.924,-0.229,0.976,-0.244,-1.402,263.76
135646,141255,10972,-0.255,-0.928,-0.231,0.976,-0.244,-1.402,263.764
135646,141237,13707,-0.253,-0.927,-0.23,1.646,-0.549,-1.22,263.77
135647,141255,10972,-0.253,-0.924,-0.229,1.646,-0.549,-1.22,263.774
135647,141247,13705,-0.254,-0.926,-0.226,1.829,-0.61,-0.732,263.78
135630,141255,10972,-0.252,-0.927,-0.224,1.829,-0.61,-0.732,263.784
135630,141223,13715,-0.252,-0.927,-0.219,2.012,-0.366,-0.183,263.79
135621,141255,10972,-0.256,-0.927,-0.216,2.012,-0.366,-0.183,263.794
135621,141245,13695,-0.256,-0.921,-0.211,2.195,0,0.427,263.8
135628,141255,10972,-0.253,-0.917,-0.212,2.195,0,0.427,263.804
135628,141215,13686,-0.254,-0.917,-0.212,1.585,0.122,0.976,263.81
135637,141255,10972,-0.253,-0.916,-0.21,1.585,0.122,0.976,263.813
135637,141253,13689,-0.251,-0.913,-0.209,0.488,0.366,1.341,263.82
135650,141255,10972,-0.248,-0.916,-0.209,0.488,0.366,1.341,263.823
135650,141254,13692,-0.25,-0.91,-0.216,-0.854,0.671,1.707,263.83
135616,141255,10972,-0.253,-0.91,-0.215,-0.854,0.671,1.707,263.833
135616,141211,13702,-0.255,-0.908,-0.216,-1.829,0.915,1.585,263.839
135614,141255,10972,-0.255,-0.907,-0.217,-1.829,0.915,1.585,263.843
135614,141204,13675,-0.254,-0.908,-0.218,-2.317,1.037,1.22,263.849
135604,141255,10972,-0.256,-0.909,-0.217,-2.317,1.037,1.22,263.853
135604,141204,13689,-0.256,-0.911,-0.224,-2.561,1.098,0.61,263.859
135614,141255,10972,-0.255,-0.915,-0.226,-2.561,1.098,0.61,263.863
135614,141199,13671,-0.256,-0.917,-0.22,-2.439,1.28,0.305,263.869
135630,141255,10972,-0.255,-0.914,-0.224,-2.439,1.28,0.305,263.873
135630,141199,13678,-0.255,-0.921,-0.222,-2.195,1.585,0.488,263.879
135613,141255,10972,-0.255,-0.92,-0.219,-2.195,1.585,0.488,263.883
135613,141208,13676,-0.254,-0.92,-0.222,-1.829,1.646,0.549,263.889
135636,141255,10972,-0.257,-0.918,-0.223,-1.829,1.646,0.549,263.893
135636,141204,13674,-0.255,-0.921,-0.222,-1.89,1.585,0.488,263.899
135626,141255,10972,-0.257,-0.925,-0.226,-1.89,1.585,0.488,263.903
135626,141204,13676,-0.26,-0.922,-0.227,-1.89,1.524,0.366,263.909
135632,141255,10972,-0.26,-0.928,-0.234,-1.89,1.524,0.366,263.912
135632,141182,13656,-0.26,-0.925,-0.237,-1.524,1.098,0.427,263.919
135627,141255,10972,-0.259,-0.917,-0.236,-1.524,1.098,0.427,263.922
135627,141201,13676,-0.258,-0.913,-0.241,-0.732,0.366,0.305,263.929
135614,141255,10972,-0.256,-0.918,-0.239,-0.732,0.366,0.305,263.932
135614,141203,13672,-0.256,-0.923,-0.237,0.366,-0.183,0,263.938
135613,141255,10972,-0.257,-0.928,-0.234,0.366,-0.183,0,263.942
135613,141216,13681,-0.255,-0.927,-0.231,1.463,-0.61,0,263.948
135588,141255,10972,-0.253,-0.92,-0.224,1.463,-0.61,0,263.952
135588,141192,13685,-0.251,-0.912,-0.222,2.195,-1.159,0.366,263.958
135607,141255,10972,-0.252,-0.908,-0.221,2.195,-1.159,0.366,263.962
135607,141195,13672,-0.254,-0.908,-0.214,2.317,-1.159,0.549,263.968
135608,141255,10972,-0.254,-0.908,-0.214,2.317,-1.159,0.549,263.972
135608,141192,13663,-0.251,-0.908,-0.209,1.89,-0.915,0.305,263.978
135626,141255,10972,-0.251,-0.908,-0.209,1.89,-0.915,0.305,263.982
135626,141198,13667,-0.257,-0.909,-0.207,0.854,-0.549,-0.061,263.988
135626,141255,10972,-0.257,-0.909,-0.207,0.854,-0.549,-0.061,263.992
135626,141196,13662,-0.26,-0.908,-0.217,0.305,-0.183,0.061,263.998
135625,141255,10972,-0.26,-0.908,-0.217,0.305,-0.183,0.061,264.002
135625,141235,13663,-0.262,-0.916,-0.221,0.183,0.244,-0.183,264.008
135618,141255,10972,-0.262,-0.916,-0.221,0.183,0.244,-0.183,264.012
135618,141213,13661,-0.26,-0.918,-0.222,0,0.488,-0.549,264.018
135616,141255,10972,-0.26,-0.918,-0.222,0,0.488,-0.549,264.021
135616,141204,13675,-0.263,-0.917,-0.225,0,0.488,-0.915,264.028
135604,141255,10972,-0.263,-0.917,-0.225,0,0.488,-0.915,264.031
135604,141188,13666,-0.257,-0.932,-0.225,0.427,0.244,-1.22,264.037
135623,141255,10972,-0.257,-0.932,-0.225,0.427,0.244,-1.22,264.041
135623,141206,13640,-0.251,-0.93,-0.224,0.915,0,-1.159,264.047
135618,141255,10972,-0.251,-0.93,-0.224,0.915,0,-1.159,264.051
135618,141199,13655,-0.253,-0.925,-0.22,1.159,-0.427,-0.61,264.057
135610,141255,10972,-0.253,-0.925,-0.22,1.159,-0.427,-0.61,264.061
135610,141201,13674,-0.254,-0.915,-0.215,1.159,-0.671,-0.122,264.067
135609,141255,10972,-0.254,-0.915,-0.215,1.159,-0.671,-0.122,264.071
135609,141199,13660,-0.252,-0.912,-0.216,0.732,-0.366,0.122,264.077
135603,141255,10972,-0.252,-0.912,-0.216,0.732,-0.366,0.122,264.081
135603,141198,13675,-0.253,-0.913,-0.213,0.183,0,0.244,264.087
135614,141255,10972,-0.253,-0.913,-0.213,0.183,0,0.244,264.091
135614,141190,13671,-0.251,-0.906,-0.214,-0.427,0.488,0.122,264.097
135619,141255,10972,-0.251,-0.906,-0.214,-0.427,0.488,0.122,264.101
135619,141202,13666,-0.254,-0.913,-0.221,-0.976,0.732,-0.366,264.107
135636,141255,10972,-0.254,-0.913,-0.221,-0.976,0.732,-0.366,264.11
135636,141205,13665,-0.254,-0.916,-0.224,-0.976,0.732,-0.366,264.117
135622,141255,10972,-0.257,-0.916,-0.223,-0.732,0.671,-0.793,264.12
135622,141189,13659,-0.255,-0.919,-0.222,-0.732,0.671,-0.793,264.127
135616,141255,10972,-0.252,-0.916,-0.223,0.122,0.183,-0.915,264.13
135616,141187,13653,-0.257,-0.916,-0.223,0.122,0.183,-0.915,264.137
135611,141255,10972,-0.257,-0.917,-0.224,0.549,-0.122,-1.159,264.14
135611,141185,13652,-0.257,-0.918,-0.227,0.549,-0.122,-1.159,264.146
135604,141255,10972,-0.258,-0.925,-0.23,0.732,-0.366,-1.585,264.15
135604,141175,13656,-0.257,-0.926,-0.23,0.732,-0.366,-1.585,264.156
135618,141255,10972,-0.257,-0.926,-0.23,1.159,-0.671,-1.768,264.16
135618,141179,13656,-0.258,-0.926,-0.227,1.159,-0.671,-1.768,264.166
135626,141255,10972,-0.256,-0.923,-0.228,1.89,-1.037,-1.89,264.17
135626,141173,13665,-0.256,-0.923,-0.231,1.89,-1.037,-1.89,264.176
135601,141255,10972,-0.254,-0.919,-0.23,2.439,-1.463,-2.012,264.18
135601,141200,13653,-0.256,-0.918,-0.228,2.439,-1.463,-2.012,264.186
135623,141255,10972,-0.255,-0.917,-0.227,3.049,-1.768,-2.073,264.19
135623,141180,13662,-0.252,-0.92,-0.23,3.049,-1.768,-2.073,264.196
135602,141255,10972,-0.249,-0.92,-0.231,3.537,-2.073,-2.256,264.2
135602,141167,13648,-0.249,-0.924,-0.229,3.537,-2.073,-2.256,264.206
135623,141255,10972,-0.247,-0.924,-0.227,4.268,-2.317,-2.622,264.21
135623,141193,13648,-0.249,-0.922,-0.219,4.268,-2.317,-2.622,264.216
135623,141255,10972,-0.249,-0.915,-0.211,5,-2.622,-2.378,264.219
135623,141196,13656,-0.249,-0.913,-0.212,5,-2.622,-2.378,264.226
135614,141255,10972,-0.25,-0.914,-0.207,5.183,-2.805,-2.134,264.229
135614,141163,13669,-0.248,-0.914,-0.204,5.183,-2.805,-2.134,264.235
135607,141255,10972,-0.246,-0.919,-0.205,4.878,-2.683,-2.012,264.239
135607,141170,13663,-0.245,-0.918,-0.206,4.878,-2.683,-2.012,264.245
135612,141255,10972,-0.245,-0.915,-0.195,4.146,-2.378,-1.646,264.249
135612,141176,13642,-0.244,-0.918,-0.195,4.146,-2.378,-1.646,264.255
135612,141255,10972,-0.242,-0.919,-0.193,3.171,-1.707,-1.159,264.259
135612,141183,13663,-0.242,-0.919,-0.195,3.171,-1.707,-1.159,264.265
135620,141255,10972,-0.244,-0.916,-0.201,1.646,-0.976,-0.427,264.269
135620,141183,13661,-0.245,-0.918,-0.207,1.646,-0.976,-0.427,264.275
135605,141255,10972,-0.25,-0.923,-0.208,0.305,-0.488,0,264.279
135605,141184,13669,-0.254,-0.931,-0.206,0.305,-0.488,0,264.285
135625,141255,10972,-0.253,-0.93,-0.205,0.183,-0.183,0.183,264.289
135625,141187,13650,-0.254,-0.919,-0.204,0.183,-0.183,0.183,264.295
135615,141255,10972,-0.25,-0.914,-0.205,0.122,-0.366,0.366,264.299
135615,141175,13661,-0.247,-0.916,-0.206,0.122,-0.366,0.366,264.305
135647,141255,10972,-0.247,-0.919,-0.206,-0.427,0.122,0.183,264.309
135647,141171,13660,-0.25,-0.922,-0.209,-0.427,0.122,0.183,264.315
135635,141255,10972,-0.248,-0.921,-0.208,-1.037,0.793,0.244,264.318
135635,141178,13657,-0.247,-0.92,-0.209,-1.037,0.793,0.244,264.325
135631,141255,10972,-0.25,-0.919,-0.204,-1.28,1.037,0.549,264.328
135631,141185,13655,-0.249,-0.917,-0.205,-1.28,1.037,0.549,264.335
135632,141255,10972,-0.246,-0.923,-0.21,-1.463,1.341,0.732,264.338
135632,141163,13651,-0.246,-0.925,-0.209,-1.463,1.341,0.732,264.344
135635,141255,10972,-0.246,-0.932,-0.214,-1.951,1.463,0.915,264.348
135635,141202,13669,-0.245,-0.931,-0.213,-1.951,1.463,0.915,264.354
135622,141255,10972,-0.246,-0.926,-0.21,-1.829,1.463,1.585,264.358
135622,141193,13674,-0.245,-0.92,-0.209,-1.829,1.463,1.585,264.364
135625,141255,10972,-0.248,-0.919,-0.21,-1.768,1.524,2.012,264.368
135625,141207,13645,-0.246,-0.917,-0.208,-1.768,1.524,2.012,264.374
135633,141255,10972,-0.247,-0.92,-0.206,-2.439,1.646,2.256,264.378
135633,141209,13664,-0.246,-0.914,-0.213,-2.439,1.646,2.256,264.384
135663,141255,10972,-0.245,-0.913,-0.217,-3.049,1.707,2.439,264.388
135663,141181,13656,-0.244,-0.914,-0.212,-3.049,1.707,2.439,264.394
135646,141255,10972,-0.246,-0.916,-0.216,-3.232,1.951,2.378,264.398
135646,141186,13663,-0.251,-0.916,-0.22,-3.232,1.951,2.378,264.404
135646,141255,10972,-0.25,-0.919,-0.224,-3.171,2.012,2.073,264.408
135646,141176,13666,-0.249,-0.923,-0.222,-3.171,2.012,2.073,264.414
135644,141255,10972,-0.25,-0.925,-0.221,-2.5,1.707,2.012,264.417
135644,141179,13657,-0.251,-0.922,-0.221,-2.5,1.707,2.012,264.424
135649,141255,10972,-0.257,-0.919,-0.219,-1.646,1.463,2.073,264.427
135649,141182,13668,-0.254,-0.923,-0.22,-1.646,1.463,2.073,264.434
135639,141255,10972,-0.257,-0.922,-0.218,-1.341,1.159,1.951,264.437
135639,141197,13658,-0.259,-0.92,-0.22,-1.341,1.159,1.951,264.443
135634,141255,10972,-0.26,-0.918,-0.227,-1.159,0.854,1.829,264.447
135634,141184,13668,-0.26,-0.918,-0.222,-1.159,0.854,1.829,264.453
135645,141255,10972,-0.263,-0.917,-0.218,-0.488,0.61,1.402,264.457
135645,141179,13654,-0.262,-0.918,-0.222,-0.488,0.61,1.402,264.463
135644,141255,10972,-0.259,-0.917,-0.218,0,0.305,0.793,264.467
135644,141176,13658,-0.259,-0.916,-0.216,0,0.305,0.793,264.473
135636,141255,10972,-0.255,-0.916,-0.218,0.366,0.244,0.122,264.477
135636,141187,13671,-0.257,-0.914,-0.214,0.366,0.244,0.122,264.483
135651,141255,10972,-0.255,-0.916,-0.219,0.549,0.244,-0.244,264.487
135651,141200,13657,-0.256,-0.918,-0.217,0.549,0.244,-0.244,264.493
135661,141255,10972,-0.256,-0.92,-0.212,0.671,0.183,-0.427,264.497
135661,141214,13661,-0.253,-0.921,-0.212,0.671,0.183,-0.427,264.503
135650,141255,10972,-0.252,-0.919,-0.207,0.671,0.122,-0.244,264.507
135650,141226,13668,-0.251,-0.919,-0.21,0.671,0.122,-0.244,264.513
135653,141255,10972,-0.25,-0.917,-0.214,-0.122,0.183,-0.122,264.516
135653,141207,13659,-0.251,-0.919,-0.218,-0.122,0.183,-0.122,264.523
135664,141255,10972,-0.25,-0.92,-0.223,-0.793,0.244,-0.122,264.526
135664,141220,13663,-0.248,-0.922,-0.223,-0.793,0.244,-0.122,264.533
135671,141255,10972,-0.247,-0.923,-0.222,-0.488,0.183,-0.061,264.536
135671,141203,13659,-0.246,-0.924,-0.223,-0.488,0.183,-0.061,264.542
135678,141255,10972,-0.248,-0.923,-0.222,0.122,0.061,0.122,264.546
135678,141194,13664,-0.246,-0.921,-0.22,0.122,0.061,0.122,264.552
135685,141255,10972,-0.249,-0.916,-0.218,0.122,-0.122,0.366,264.556
135685,141198,13666,-0.247,-0.919,-0.223,0.122,-0.122,0.366,264.562
135685,141255,10972,-0.247,-0.919,-0.223,0.122,-0.122,0.366,264.566
135685,141219,13645,-0.25,-0.922,-0.22,0.244,-0.183,0.488,264.572
135682,141255,10972,-0.25,-0.922,-0.22,0.244,-0.183,0.488,264.576
135682,141201,13659,-0.252,-0.918,-0.213,0.671,-0.122,0.671,264.582
135678,141255,10972,-0.252,-0.918,-0.213,0.671,-0.122,0.671,264.586
135678,141202,13651,-0.251,-0.917,-0.21,1.037,-0.061,0.732,264.592
135692,141255,10972,-0.251,-0.917,-0.21,1.037,-0.061,0.732,264.596
135692,141206,13638,-0.251,-0.916,-0.208,0.671,0.061,0.671,264.602
135664,141255,10972,-0.251,-0.916,-0.208,0.671,0.061,0.671,264.606
135664,141212,13643,-0.25,-0.924,-0.21,0.244,0.305,0.671,264.612
135664,141255,10972,-0.25,-0.924,-0.21,0.244,0.305,0.671,264.615
135664,141194,13650,-0.251,-0.922,-0.205,-0.122,0.671,0.915,264.622
135662,141255,10972,-0.251,-0.922,-0.205,-0.122,0.671,0.915,264.625
135662,141179,13649,-0.25,-0.918,-0.215,-0.549,0.732,0.976,264.632
135657,141255,10972,-0.25,-0.918,-0.215,-0.549,0.732,0.976,264.635
135657,141170,13644,-0.248,-0.922,-0.215,-1.037,0.854,1.159,264.641
135670,141255,10972,-0.248,-0.922,-0.215,-1.037,0.854,1.159,264.645
135670,141168,13633,-0.253,-0.921,-0.216,-1.402,1.037,1.28,264.651
135652,141255,10972,-0.253,-0.921,-0.216,-1.402,1.037,1.28,264.655
135652,141173,13636,-0.255,-0.915,-0.215,-1.22,1.22,1.524,264.661
135639,141255,10972,-0.255,-0.915,-0.215,-1.22,1.22,1.524,264.665
135639,141145,13653,-0.249,-0.915,-0.218,-1.22,1.28,1.707,264.671
135641,141255,10972,-0.249,-0.915,-0.218,-1.22,1.28,1.707,264.675
135641,141170,13631,-0.253,-0.914,-0.212,-1.463,1.22,1.524,264.681
135662,141255,10972,-0.253,-0.914,-0.212,-1.463,1.22,1.524,264.685
135662,141168,13629,-0.254,-0.911,-0.212,-1.341,1.341,1.341,264.691
135655,141255,10972,-0.254,-0.911,-0.212,-1.341,1.341,1.341,264.695
135655,141143,13625,-0.254,-0.922,-0.221,-1.707,1.341,1.28,264.701
135643,141255,10972,-0.254,-0.922,-0.221,-1.707,1.341,1.28,264.705
135643,141148,13637,-0.252,-0.925,-0.223,-1.951,1.28,1.28,264.711
135655,141255,10972,-0.253,-0.922,-0.221,-1.951,1.28,1.28,264.714
135655,141139,13629,-0.253,-0.922,-0.223,-1.89,1.524,1.341,264.721
135649,141255,10972,-0.251,-0.921,-0.228,-1.89,1.524,1.341,264.724
135649,141151,13639,-0.25,-0.921,-0.226,-1.707,1.341,1.402,264.731
135633,141255,10972,-0.252,-0.922,-0.227,-1.707,1.341,1.402,264.734
135633,141118,13631,-0.252,-0.925,-0.222,-1.159,1.159,1.585,264.74
135636,141255,10972,-0.249,-0.929,-0.218,-1.159,1.159,1.585,264.744
135636,141131,13619,-0.252,-0.922,-0.216,-0.366,1.037,1.951,264.75
135645,141255,10972,-0.251,-0.919,-0.212,-0.366,1.037,1.951,264.754
135645,141143,13631,-0.252,-0.914,-0.211,-0.366,0.854,2.317,264.76
135633,141255,10972,-0.253,-0.91,-0.213,-0.366,0.854,2.317,264.764
135633,141148,13638,-0.254,-0.912,-0.214,-0.732,0.854,2.378,264.77
135637,141255,10972,-0.256,-0.917,-0.21,-0.732,0.854,2.378,264.774
135637,141120,13638,-0.256,-0.918,-0.214,-0.976,0.976,2.012,264.78
135629,141255,10972,-0.26,-0.914,-0.219,-0.976,0.976,2.012,264.784
135629,141152,13631,-0.262,-0.911,-0.22,-1.28,0.915,1.707,264.79
135634,141255,10972,-0.262,-0.913,-0.221,-1.28,0.915,1.707,264.794
135634,141140,13631,-0.264,-0.915,-0.22,-1.098,0.732,1.159,264.8
135633,141255,10972,-0.267,-0.915,-0.218,-1.098,0.732,1.159,264.804
135633,141156,13630,-0.264,-0.917,-0.221,-0.671,0.488,0.488,264.81
135637,141255,10972,-0.262,-0.917,-0.222,-0.671,0.488,0.488,264.814
135637,141167,13628,-0.261,-0.921,-0.221,-0.427,0.366,0.183,264.82
135610,141255,10972,-0.261,-0.921,-0.219,-0.427,0.366,0.183,264.823
135610,141155,13626,-0.261,-0.92,-0.219,-0.305,0.488,0.122,264.83
135638,141255,10972,-0.263,-0.92,-0.22,-0.305,0.488,0.122,264.833
135638,141143,13617,-0.259,-0.918,-0.223,-0.183,0.427,0,264.839
135637,141255,10972,-0.253,-0.915,-0.221,-0.183,0.427,0,264.843
135637,141144,13626,-0.255,-0.916,-0.221,-0.061,0.488,-0.122,264.849
135628,141255,10972,-0.257,-0.917,-0.223,-0.061,0.488,-0.122,264.853
135628,141135,13618,-0.254,-0.923,-0.223,-0.244,0.488,-0.061,264.859
135614,141255,10972,-0.253,-0.922,-0.226,-0.244,0.488,-0.061,264.863
135614,141117,13623,-0.254,-0.921,-0.227,-0.061,0.244,0.244,264.869
135633,141255,10972,-0.254,-0.915,-0.225,-0.061,0.244,0.244,264.873
135633,141102,13624,-0.256,-0.915,-0.224,0.427,0.061,0.244,264.879
135618,141255,10972,-0.254,-0.916,-0.221,0.427,0.061,0.244,264.883
135618,141117,13621,-0.252,-0.915,-0.224,0.427,0.061,0.061,264.889
135603,141255,10972,-0.254,-0.916,-0.221,0.427,0.061,0.061,264.893
135603,141122,13624,-0.254,-0.915,-0.216,0.488,-0.061,0.061,264.899
135633,141255,10972,-0.255,-0.914,-0.213,0.488,-0.061,0.061,264.903
135633,141105,13621,-0.255,-0.916,-0.213,0.427,0.183,0,264.909
135603,141255,10972,-0.253,-0.917,-0.212,0.427,0.183,0,264.913
135603,141129,13621,-0.254,-0.914,-0.208,0.366,0.427,0,264.919
135624,141255,10972,-0.256,-0.917,-0.211,0.366,0.427,0,264.922
135624,141099,13621,-0.258,-0.917,-0.21,0,0.61,0.122,264.929
135603,141255,10972,-0.257,-0.92,-0.209,0,0.61,0.122,264.932
135603,141110,13633,-0.256,-0.923,-0.21,-0.366,0.549,0.122,264.939
135601,141255,10972,-0.253,-0.923,-0.208,-0.366,0.549,0.122,264.942
135601,141080,13624,-0.257,-0.921,-0.214,-0.549,0.61,0.305,264.948
135614,141255,10972,-0.258,-0.919,-0.22,-0.549,0.61,0.305,264.952
135614,141093,13630,-0.26,-0.923,-0.219,-0.732,0.61,0.366,264.958
135612,141255,10972,-0.255,-0.924,-0.216,-0.732,0.61,0.366,264.962
135612,141090,13643,-0.252,-0.925,-0.223,-0.61,0.244,0.366,264.968
135616,141255,10972,-0.253,-0.922,-0.223,-0.61,0.244,0.366,264.972
135616,141100,13637,-0.25,-0.919,-0.225,-0.61,0.183,0.488,264.978
135627,141255,10972,-0.252,-0.915,-0.225,-0.61,0.183,0.488,264.982
135627,141094,13630,-0.251,-0.915,-0.221,-0.183,0.305,0.732,264.988
135617,141255,10972,-0.249,-0.912,-0.22,-0.183,0.305,0.732,264.992
135617,141110,13621,-0.251,-0.913,-0.215,-0.122,0.366,0.854,264.998
135614,141255,10972,-0.253,-0.912,-0.214,-0.122,0.366,0.854,265.002
135614,141093,13614,-0.25,-0.914,-0.217,-0.244,0.366,0.854,265.008
135627,141255,10972,-0.252,-0.914,-0.221,-0.244,0.366,0.854,265.012
135627,141093,13621,-0.252,-0.914,-0.215,-0.427,0.427,0.854,265.018
135635,141255,10972,-0.254,-0.912,-0.214,-0.427,0.427,0.854,265.021
135635,141109,13625,-0.255,-0.913,-0.216,-0.61,0.549,0.61,265.028
135618,141255,10972,-0.258,-0.92,-0.217,-0.61,0.549,0.61,265.031
135618,141101,13624,-0.257,-0.919,-0.222,-0.915,0.793,0.305,265.038
135608,141255,10972,-0.259,-0.918,-0.226,-0.915,0.793,0.305,265.041
135608,141123,13634,-0.259,-0.915,-0.228,-0.854,0.671,0.122,265.047
135600,141255,10972,-0.258,-0.923,-0.227,-0.854,0.671,0.122,265.051
135600,141080,13630,-0.257,-0.925,-0.224,-0.122,0.549,-0.183,265.057
135596,141255,10972,-0.256,-0.924,-0.222,-0.122,0.549,-0.183,265.061
135596,141081,13626,-0.254,-0.92,-0.223,0.244,0.305,-0.366,265.067
135622,141255,10972,-0.251,-0.92,-0.222,0.244,0.305,-0.366,265.071
135622,141082,13612,-0.252,-0.917,-0.22,0.244,0.122,-0.244,265.077
135626,141255,10972,-0.249,-0.923,-0.216,0.244,0.122,-0.244,265.081
135626,141097,13632,-0.251,-0.92,-0.213,0.366,0.244,0.061,265.087
135609,141255,10972,-0.252,-0.917,-0.213,0.366,0.244,0.061,265.091
135609,141115,13628,-0.253,-0.917,-0.21,0.183,0.305,0.488,265.097
135607,141255,10972,-0.249,-0.917,-0.211,0.183,0.305,0.488,265.101
135607,141089,13641,-0.249,-0.914,-0.211,-0.061,0.488,0.976,265.107
135612,141255,10972,-0.251,-0.913,-0.213,-0.061,0.488,0.976,265.111
135612,141120,13644,-0.252,-0.913,-0.214,-0.427,0.61,1.28,265.117
135611,141255,10972,-0.254,-0.914,-0.216,-0.427,0.61,1.28,265.12
135611,141105,13627,-0.256,-0.916,-0.219,-0.854,0.61,1.402,265.127
135616,141255,10972,-0.257,-0.92,-0.222,-0.854,0.61,1.402,265.13
135616,141107,13638,-0.259,-0.918,-0.223,-0.854,0.488,1.22,265.137
135617,141255,10972,-0.26,-0.919,-0.224,-0.854,0.488,1.22,265.14
135617,141111,13617,-0.262,-0.916,-0.221,-0.305,0.244,0.915,265.146
135634,141255,10972,-0.263,-0.92,-0.222,-0.305,0.244,0.915,265.15
135634,141120,13639,-0.26,-0.924,-0.219,0.122,0.122,0.488,265.156
135623,141255,10972,-0.26,-0.924,-0.219,0.122,0.122,0.488,265.16
135623,141103,13627,-0.262,-0.924,-0.219,0.488,0,0.305,265.166
135633,141255,10972,-0.262,-0.924,-0.219,0.488,0,0.305,265.17
135633,141098,13620,-0.259,-0.917,-0.21,0.244,0.305,0.305,265.176
135617,141255,10972,-0.259,-0.917,-0.21,0.244,0.305,0.305,265.18
135617,141106,13612,-0.258,-0.922,-0.212,-0.549,0.793,0.305,265.186
135611,141255,10972,-0.258,-0.922,-0.212,-0.549,0.793,0.305,265.19
135611,141085,13615,-0.253,-0.916,-0.211,-1.585,1.22,0.305,265.196
135605,141255,10972,-0.253,-0.916,-0.211,-1.585,1.22,0.305,265.2
135605,141073,13623,-0.254,-0.913,-0.222,-2.195,1.524,0.366,265.206
135608,141255,10972,-0.254,-0.913,-0.222,-2.195,1.524,0.366,265.21
135608,141083,13612,-0.253,-0.912,-0.226,-2.317,1.463,0.427,265.216
135596,141255,10972,-0.253,-0.912,-0.226,-2.317,1.463,0.427,265.219
135596,141082,13630,-0.25,-0.913,-0.22,-1.768,1.22,0.183,265.226
135606,141255,10972,-0.25,-0.913,-0.22,-1.768,1.22,0.183,265.229
135606,141057,13617,-0.247,-0.909,-0.221,-1.098,1.037,0,265.236
135587,141255,10972,-0.247,-0.909,-0.221,-1.098,1.037,0,265.239
135587,141068,13622,-0.253,-0.92,-0.217,-0.793,1.098,0.061,265.245
135597,141255,10972,-0.253,-0.92,-0.217,-0.793,1.098,0.061,265.249
135597,141059,13604,-0.253,-0.922,-0.221,-1.098,1.098,0.366,265.255
135585,141255,10972,-0.253,-0.922,-0.221,-1.098,1.098,0.366,265.259
135585,141057,13610,-0.256,-0.923,-0.222,-0.976,1.098,0.61,265.265
135597,140999,10972,-0.256,-0.923,-0.222,-0.976,1.098,0.61,265.269
135597,141055,13616,-0.262,-0.924,-0.222,-0.671,0.976,0.854,265.275
135597,140999,10972,-0.262,-0.924,-0.222,-0.671,0.976,0.854,265.279
135597,141055,13618,-0.262,-0.924,-0.227,-0.427,0.732,1.037,265.285
135614,141255,10972,-0.262,-0.924,-0.227,-0.427,0.732,1.037,265.289
135614,141070,13607,-0.261,-0.918,-0.225,0,0.305,0.976,265.295
135591,141255,10972,-0.261,-0.918,-0.225,0,0.305,0.976,265.299
135591,141072,13630,-0.259,-0.912,-0.225,0.549,-0.122,0.61,265.305
135598,141255,10972,-0.259,-0.912,-0.225,0.549,-0.122,0.61,265.309
135598,141076,13614,-0.257,-0.914,-0.219,0.549,-0.122,0.61,265.315
135593,141255,10972,-0.257,-0.918,-0.219,1.037,-0.244,0.183,265.318
135593,141095,13608,-0.258,-0.917,-0.216,1.037,-0.244,0.183,265.325
135590,141255,10972,-0.256,-0.914,-0.216,0.915,-0.183,-0.061,265.328
135590,141066,13609,-0.254,-0.91,-0.217,0.915,-0.183,-0.061,265.335
135587,141255,10972,-0.251,-0.907,-0.216,0.366,0,-0.305,265.338
135587,141058,13621,-0.252,-0.908,-0.218,0.366,0,-0.305,265.344
135595,141255,10972,-0.251,-0.909,-0.22,0.183,0.305,-0.671,265.348
135595,141072,13609,-0.252,-0.912,-0.222,0.183,0.305,-0.671,265.354
135605,141255,10972,-0.252,-0.917,-0.218,-0.061,0.549,-1.037,265.358
135605,141072,13605,-0.25,-0.914,-0.217,-0.061,0.549,-1.037,265.364
135583,141255,10972,-0.251,-0.914,-0.22,-0.305,0.61,-1.098,265.368
135583,141076,13606,-0.249,-0.916,-0.219,-0.305,0.61,-1.098,265.374
135604,141255,10972,-0.25,-0.917,-0.218,-0.488,0.793,-1.098,265.378
135604,141083,13611,-0.25,-0.923,-0.22,-0.488,0.793,-1.098,265.384
135588,141255,10972,-0.249,-0.93,-0.223,-0.488,0.793,-0.732,265.388
135588,141065,13620,-0.248,-0.93,-0.219,-0.488,0.793,-0.732,265.394
135593,141255,10972,-0.249,-0.93,-0.219,-0.427,0.854,0.061,265.398
135593,141064,13629,-0.249,-0.928,-0.217,-0.427,0.854,0.061,265.404
135589,141255,10972,-0.252,-0.923,-0.218,-0.732,0.915,0.915,265.408
135589,141071,13614,-0.253,-0.922,-0.223,-0.732,0.915,0.915,265.414
135564,140999,10972,-0.257,-0.925,-0.226,-0.793,0.915,1.524,265.417
135564,141043,13616,-0.252,-0.924,-0.227,-0.793,0.915,1.524,265.424
135581,141255,10972,-0.255,-0.92,-0.227,-0.488,0.671,1.89,265.427
135581,141073,13606,-0.256,-0.917,-0.221,-0.488,0.671,1.89,265.434
135570,141255,10972,-0.256,-0.917,-0.218,-0.305,0.366,1.829,265.437
135570,141075,13617,-0.258,-0.916,-0.22,-0.305,0.366,1.829,265.443
135582,140999,10972,-0.258,-0.92,-0.224,-0.549,0.244,1.524,265.447
135582,141044,13609,-0.258,-0.92,-0.222,-0.549,0.244,1.524,265.453
135586,140999,10972,-0.256,-0.92,-0.221,-0.549,0.061,1.402,265.457
135586,141052,13590,-0.257,-0.917,-0.219,-0.549,0.061,1.402,265.463
135570,141255,10972,-0.26,-0.91,-0.216,-0.061,0.061,1.402,265.467
135570,141067,13615,-0.259,-0.907,-0.213,-0.061,0.061,1.402,265.473
135604,140999,10972,-0.256,-0.911,-0.216,-0.122,0.244,1.28,265.477
135604,141054,13606,-0.258,-0.914,-0.216,-0.122,0.244,1.28,265.483
135602,140999,10972,-0.255,-0.914,-0.22,-0.732,0.488,0.976,265.487
135602,141041,13604,-0.255,-0.914,-0.224,-0.732,0.488,0.976,265.493
135597,141255,10972,-0.255,-0.916,-0.224,-0.854,0.793,0.732,265.497
135597,141056,13611,-0.256,-0.914,-0.22,-0.854,0.793,0.732,265.503
135580,140999,10972,-0.254,-0.914,-0.223,-0.732,0.915,0.61,265.507
135580,141037,13612,-0.252,-0.919,-0.223,-0.732,0.915,0.61,265.513
135599,140999,10972,-0.252,-0.917,-0.222,-1.098,0.915,0.488,265.516
135599,141027,13600,-0.25,-0.918,-0.219,-1.098,0.915,0.488,265.523
135586,140999,10972,-0.25,-0.919,-0.216,-1.159,1.159,0.854,265.526
135586,141030,13607,-0.251,-0.916,-0.218,-1.159,1.159,0.854,265.533
135609,140999,10972,-0.253,-0.915,-0.217,-1.585,1.524,1.28,265.536
135609,141045,13593,-0.255,-0.917,-0.216,-1.585,1.524,1.28,265.542
135601,140999,10972,-0.259,-0.917,-0.218,-1.707,1.707,1.646,265.546
135601,141034,13604,-0.26,-0.914,-0.215,-1.707,1.707,1.646,265.552
135598,140999,10972,-0.26,-0.912,-0.217,-1.89,1.768,1.524,265.556
135598,141048,13596,-0.262,-0.913,-0.219,-1.89,1.768,1.524,265.562
135571,140999,10972,-0.265,-0.909,-0.221,-1.768,1.707,1.22,265.566
135571,141036,13597,-0.264,-0.909,-0.219,-1.768,1.707,1.22,265.572
135582,140999,10972,-0.265,-0.909,-0.223,-1.707,1.829,0.61,265.576
135582,141044,13604,-0.262,-0.916,-0.222,-1.707,1.829,0.61,265.582
135603,140999,10972,-0.263,-0.914,-0.219,-1.585,1.707,0.061,265.586
135603,141023,13592,-0.26,-0.915,-0.22,-1.585,1.707,0.061,265.592
135602,140999,10972,-0.261,-0.917,-0.223,-1.524,1.707,-0.366,265.596
135602,141042,13599,-0.26,-0.918,-0.222,-1.524,1.707,-0.366,265.602
135583,140999,10972,-0.254,-0.917,-0.227,-1.646,1.524,-0.549,265.606
135583,141030,13598,-0.256,-0.916,-0.226,-1.646,1.524,-0.549,265.612
135580,140999,10972,-0.256,-0.919,-0.224,-1.829,1.463,-0.549,265.616
135580,141024,13604,-0.257,-0.922,-0.231,-1.829,1.463,-0.549,265.622
135590,140999,10972,-0.254,-0.917,-0.234,-1.89,1.402,-0.549,265.625
135590,141033,13598,-0.253,-0.914,-0.237,-1.89,1.402,-0.549,265.632
135581,140999,10972,-0.254,-0.918,-0.234,-1.341,1.037,-0.549,265.635
135581,141035,13602,-0.255,-0.919,-0.234,-1.341,1.037,-0.549,265.641
135573,140999,10972,-0.255,-0.922,-0.233,-0.366,0.488,-0.61,265.645
135573,141039,13593,-0.253,-0.919,-0.233,-0.366,0.488,-0.61,265.651
135575,140999,10972,-0.253,-0.915,-0.229,0.549,0.122,-0.488,265.655
135575,141035,13586,-0.254,-0.91,-0.222,0.549,0.122,-0.488,265.661
135579,140999,10972,-0.253,-0.912,-0.224,0.549,0.061,-0.61,265.665
135579,141027,13611,-0.254,-0.917,-0.229,0.549,0.061,-0.61,265.671
135590,140999,10972,-0.251,-0.919,-0.227,0.427,0.122,-0.793,265.675
135590,141012,13607,-0.251,-0.919,-0.226,0.427,0.122,-0.793,265.681
135572,140999,10972,-0.253,-0.917,-0.219,0.732,0.122,-0.793,265.685
135572,141051,13605,-0.253,-0.918,-0.221,0.732,0.122,-0.793,265.691
135566,140999,10972,-0.255,-0.917,-0.228,0.549,0.122,-0.61,265.695
135566,141027,13596,-0.257,-0.916,-0.225,0.549,0.122,-0.61,265.701
135552,140999,10972,-0.255,-0.922,-0.226,0.366,0.122,-0.854,265.705
135552,141028,13616,-0.256,-0.926,-0.227,0.366,0.122,-0.854,265.711
135550,140999,10972,-0.256,-0.926,-0.222,0.793,0.183,-0.915,265.715
135550,141013,13598,-0.258,-0.922,-0.223,0.793,0.183,-0.915,265.721
135558,140999,10972,-0.257,-0.921,-0.223,1.037,0,-0.61,265.724
135558,141038,13602,-0.257,-0.918,-0.218,1.037,0,-0.61,265.731
135557,140999,10972,-0.253,-0.917,-0.218,0.915,-0.244,-0.61,265.734
135557,141038,13608,-0.251,-0.918,-0.219,0.915,-0.244,-0.61,265.74
135535,140999,10972,-0.255,-0.919,-0.218,0.671,-0.305,-0.671,265.744
135535,141033,13611,-0.255,-0.918,-0.218,0.671,-0.305,-0.671,265.75
135560,140999,10972,-0.256,-0.918,-0.216,0.366,-0.305,-0.549,265.754
135560,141011,13603,-0.255,-0.916,-0.214,0.366,-0.305,-0.549,265.76
135542,140999,10972,-0.255,-0.916,-0.214,0.366,-0.305,-0.549,265.764
135542,141047,13603,-0.254,-0.909,-0.214,-0.122,-0.122,-0.366,265.77
135569,140999,10972,-0.254,-0.909,-0.214,-0.122,-0.122,-0.366,265.774
135569,141015,13602,-0.251,-0.911,-0.218,-0.671,0.366,-0.366,265.78
135562,140999,10972,-0.251,-0.911,-0.218,-0.671,0.366,-0.366,265.784
135562,141042,13608,-0.249,-0.918,-0.221,-1.28,0.854,-0.427,265.79
135564,140999,10972,-0.249,-0.918,-0.221,-1.28,0.854,-0.427,265.794
135564,141024,13606,-0.25,-0.916,-0.228,-1.28,0.976,-0.366,265.8
135568,140999,10972,-0.25,-0.916,-0.228,-1.28,0.976,-0.366,265.804
135568,141032,13609,-0.254,-0.919,-0.228,-1.341,1.098,-0.122,265.81
135562,140999,10972,-0.254,-0.919,-0.228,-1.341,1.098,-0.122,265.814
135562,141041,13607,-0.253,-0.92,-0.229,-1.28,1.098,0.122,265.82
135557,140999,10972,-0.253,-0.92,-0.229,-1.28,1.098,0.122,265.823
135557,141021,13606,-0.256,-0.918,-0.227,-0.915,0.854,0.122,265.83
135558,140999,10972,-0.256,-0.918,-0.227,-0.915,0.854,0.122,265.833
135558,141014,13600,-0.253,-0.915,-0.222,-0.61,0.732,0.122,265.84
135584,140999,10972,-0.253,-0.915,-0.222,-0.61,0.732,0.122,265.843
135584,141025,13603,-0.256,-0.915,-0.23,-0.732,0.793,-0.061,265.849
135584,140999,10972,-0.256,-0.915,-0.23,-0.732,0.793,-0.061,265.853
135584,141010,13605,-0.253,-0.922,-0.231,-0.915,0.793,-0.244,265.859
135565,140999,10972,-0.253,-0.922,-0.231,-0.915,0.793,-0.244,265.863
135565,141040,13617,-0.251,-0.926,-0.222,-0.549,0.854,-0.427,265.869
135543,140999,10972,-0.251,-0.926,-0.222,-0.549,0.854,-0.427,265.873
135543,141038,13600,-0.254,-0.919,-0.22,0.061,0.854,-0.122,265.879
135570,140999,10972,-0.254,-0.919,-0.22,0.061,0.854,-0.122,265.883
135570,141016,13600,-0.25,-0.923,-0.224,-0.427,0.549,0.122,265.889
135570,140999,10972,-0.25,-0.923,-0.224,-0.427,0.549,0.122,265.893
135570,141055,13593,-0.248,-0.919,-0.232,-0.61,0.427,0.244,265.899
135574,141255,10972,-0.248,-0.919,-0.232,-0.61,0.427,0.244,265.903
135574,141060,13595,-0.25,-0.916,-0.228,-0.061,0.244,0.549,265.909
135589,141255,10972,-0.25,-0.913,-0.227,-0.061,0.244,0.549,265.913
135589,141080,13612,-0.25,-0.909,-0.226,0.488,0.122,0.488,265.919
135561,140999,10972,-0.249,-0.91,-0.228,0.488,0.122,0.488,265.922
135561,141042,13594,-0.249,-0.914,-0.225,0.671,0.122,0.061,265.929
135578,140999,10972,-0.248,-0.916,-0.224,0.671,0.122,0.061,265.932
135578,141039,13612,-0.253,-0.915,-0.223,0.427,0.122,-0.061,265.939
135580,141255,10972,-0.249,-0.915,-0.224,0.427,0.122,-0.061,265.942
135580,141057,13619,-0.249,-0.914,-0.219,0.366,0.244,-0.122,265.948
135577,140999,10972,-0.252,-0.912,-0.22,0.366,0.244,-0.122,265.952
135577,141051,13606,-0.252,-0.913,-0.221,0.305,0.305,-0.244,265.958
135577,140999,10972,-0.254,-0.92,-0.223,0.305,0.305,-0.244,265.962
135577,141049,13595,-0.254,-0.923,-0.225,0.488,0.366,-0.366,265.968
135580,140999,10972,-0.252,-0.92,-0.228,0.488,0.366,-0.366,265.972
135580,141050,13599,-0.252,-0.919,-0.224,0.549,0.305,-0.305,265.978
135592,141255,10972,-0.255,-0.924,-0.223,0.549,0.305,-0.305,265.982
135592,141057,13595,-0.254,-0.923,-0.221,0.61,0.427,-0.305,265.988
135581,141255,10972,-0.257,-0.92,-0.221,0.61,0.427,-0.305,265.992
135581,141085,13620,-0.255,-0.919,-0.22,0.427,0.305,-0.305,265.998
135587,141255,10972,-0.252,-0.919,-0.219,0.427,0.305,-0.305,266.002
135587,141062,13610,-0.251,-0.917,-0.219,-0.122,0.244,-0.305,266.008
135603,141255,10972,-0.251,-0.914,-0.219,-0.122,0.244,-0.305,266.012
135603,141067,13601,-0.251,-0.915,-0.223,-0.366,0.305,-0.366,266.018
135608,141255,10972,-0.252,-0.918,-0.223,-0.366,0.305,-0.366,266.021
135608,141060,13607,-0.251,-0.916,-0.221,-0.366,0.427,-0.305,266.028
135592,141255,10972,-0.247,-0.918,-0.226,-0.366,0.427,-0.305,266.031
135592,141076,13617,-0.25,-0.92,-0.224,-0.427,0.549,-0.305,266.038
135611,141255,10972,-0.251,-0.922,-0.224,-0.427,0.549,-0.305,266.041
135611,141091,13619,-0.247,-0.92,-0.227,-0.366,0.488,-0.305,266.047
135627,141255,10972,-0.25,-0.921,-0.225,-0.366,0.488,-0.305,266.051
135627,141110,13615,-0.249,-0.917,-0.227,-0.183,0.427,-0.183,266.057
135629,141255,10972,-0.25,-0.92,-0.23,-0.183,0.427,-0.183,266.061
135629,141108,13619,-0.249,-0.92,-0.231,-0.122,0.305,-0.183,266.067
135625,141255,10972,-0.247,-0.921,-0.227,-0.122,0.305,-0.183,266.071
135625,141088,13618,-0.247,-0.923,-0.229,0,0.183,-0.061,266.077
135627,141255,10972,-0.249,-0.922,-0.225,0,0.183,-0.061,266.081
135627,141098,13619,-0.253,-0.92,-0.222,0.122,0.244,0.061,266.087
135622,141255,10972,-0.25,-0.917,-0.219,0.122,0.244,0.061,266.091
135622,141120,13617,-0.249,-0.916,-0.219,0.122,0.183,0.183,266.097
135640,141255,10972,-0.247,-0.917,-0.215,0.122,0.183,0.183,266.101
135640,141088,13630,-0.247,-0.916,-0.215,0.244,0.122,0.244,266.107
135638,141255,10972,-0.248,-0.915,-0.215,0.244,0.122,0.244,266.111
135638,141080,13622,-0.252,-0.913,-0.217,-0.244,0.549,0.488,266.117
135646,141255,10972,-0.251,-0.912,-0.222,-0.244,0.549,0.488,266.12
135646,141103,13622,-0.251,-0.916,-0.226,-0.793,0.732,0.488,266.127
135649,141255,10972,-0.249,-0.918,-0.227,-0.793,0.732,0.488,266.13
135649,141106,13627,-0.251,-0.921,-0.228,-0.915,0.793,0.244,266.137
135686,141255,10972,-0.255,-0.921,-0.226,-0.915,0.793,0.244,266.14
135686,141120,13612,-0.252,-0.915,-0.226,-0.671,0.915,0.061,266.146
135661,141255,10972,-0.25,-0.918,-0.229,-0.671,0.915,0.061,266.15
135661,141138,13630,-0.247,-0.92,-0.228,-0.61,0.854,0,266.156
135661,141255,10972,-0.248,-0.921,-0.229,-0.61,0.854,0,266.16
135661,141127,13642,-0.247,-0.924,-0.223,-0.427,0.671,0.183,266.166
135666,141255,10972,-0.246,-0.925,-0.222,-0.427,0.671,0.183,266.17
135666,141131,13638,-0.247,-0.921,-0.222,-0.244,0.61,0.549,266.176
135672,141255,10972,-0.252,-0.916,-0.221,-0.244,0.61,0.549,266.18
135672,141121,13625,-0.251,-0.915,-0.218,-0.305,0.671,0.915,266.186
135668,141255,10972,-0.254,-0.919,-0.221,-0.305,0.671,0.915,266.19
135668,141130,13648,-0.253,-0.917,-0.218,-0.732,0.671,0.915,266.196
135667,141255,10972,-0.251,-0.917,-0.216,-0.732,0.671,0.915,266.2
135667,141119,13643,-0.254,-0.915,-0.22,-0.976,0.793,0.915,266.206
135696,141255,10972,-0.253,-0.91,-0.222,-0.976,0.793,0.915,266.21
135696,141132,13637,-0.256,-0.914,-0.225,-1.037,0.854,0.671,266.216
135676,141255,10972,-0.256,-0.914,-0.221,-1.037,0.854,0.671,266.219
135676,141111,13641,-0.253,-0.92,-0.226,-0.671,0.793,0.366,266.226
135698,141255,10972,-0.253,-0.917,-0.223,-0.671,0.793,0.366,266.229
135698,141141,13639,-0.252,-0.915,-0.218,-0.671,0.549,0.122,266.236
135680,141255,10972,-0.249,-0.913,-0.224,-0.671,0.549,0.122,266.239
135680,141129,13642,-0.25,-0.917,-0.223,-0.549,0.488,0.183,266.245
135678,141255,10972,-0.252,-0.921,-0.226,-0.549,0.488,0.183,266.249
135678,141136,13643,-0.254,-0.923,-0.23,-0.427,0.427,0.183,266.255
135691,141255,10972,-0.252,-0.926,-0.233,-0.427,0.427,0.183,266.259
135691,141139,13632,-0.253,-0.926,-0.234,-0.244,0.183,0.183,266.265
135692,141255,10972,-0.251,-0.92,-0.234,-0.244,0.183,0.183,266.269
135692,141141,13650,-0.249,-0.918,-0.233,0.244,-0.183,0.244,266.275
135688,141255,10972,-0.247,-0.919,-0.23,0.244,-0.183,0.244,266.279
135688,141143,13639,-0.248,-0.918,-0.226,0.915,-0.366,0.244,266.285
135688,141255,10972,-0.247,-0.917,-0.225,0.915,-0.366,0.244,266.289
135688,141140,13659,-0.249,-0.915,-0.227,0.915,-0.488,0.244,266.295
135698,141255,10972,-0.247,-0.919,-0.228,0.915,-0.488,0.244,266.299
135698,141131,13650,-0.248,-0.922,-0.221,1.22,-0.488,0.427,266.305
135677,141255,10972,-0.249,-0.918,-0.217,1.22,-0.488,0.427,266.309
135677,141165,13675,-0.251,-0.917,-0.216,1.524,-0.305,0.549,266.315
135697,141255,10972,-0.249,-0.914,-0.216,1.524,-0.305,0.549,266.319
135697,141147,13668,-0.249,-0.914,-0.211,1.22,-0.122,0.671,266.325
135686,141255,10972,-0.249,-0.913,-0.216,1.22,-0.122,0.671,266.328
135686,141162,13664,-0.251,-0.914,-0.217,0.366,0.122,0.61,266.335
135693,141255,10972,-0.252,-0.915,-0.218,0.366,0.122,0.61,266.338
135693,141176,13638,-0.251,-0.915,-0.218,-0.183,0.244,0.427,266.344
135716,141255,10972,-0.252,-0.919,-0.221,-0.183,0.244,0.427,266.348
135716,141150,13656,-0.25,-0.918,-0.22,-0.549,0.488,0.488,266.354
135701,141255,10972,-0.25,-0.918,-0.22,-0.549,0.488,0.488,266.358
135701,141151,13665,-0.253,-0.918,-0.222,-0.976,0.671,0.488,266.364
135699,141255,10972,-0.253,-0.918,-0.222,-0.976,0.671,0.488,266.368
135699,141150,13678,-0.254,-0.919,-0.226,-1.159,0.793,0.427,266.374
135697,141255,10972,-0.254,-0.919,-0.226,-1.159,0.793,0.427,266.378
135697,141147,13666,-0.25,-0.917,-0.227,-1.098,0.915,0.427,266.384
135720,141255,10972,-0.25,-0.917,-0.227,-1.098,0.915,0.427,266.388
135720,141143,13665,-0.253,-0.92,-0.224,-0.427,0.976,0.549,266.394
135719,141255,10972,-0.253,-0.92,-0.224,-0.427,0.976,0.549,266.398
135719,141152,13658,-0.256,-0.922,-0.225,-0.427,0.915,0.61,266.404
135707,141255,10972,-0.256,-0.922,-0.225,-0.427,0.915,0.61,266.408
135707,141150,13648,-0.252,-0.918,-0.223,-0.305,0.671,0.671,266.414
135722,141255,10972,-0.252,-0.918,-0.223,-0.305,0.671,0.671,266.417
135722,141162,13657,-0.254,-0.917,-0.226,-0.305,0.427,0.549,266.424
135704,141255,10972,-0.254,-0.917,-0.226,-0.305,0.427,0.549,266.427
135704,141171,13672,-0.255,-0.917,-0.224,-0.244,0.427,0.549,266.434
135721,141255,10972,-0.255,-0.917,-0.224,-0.244,0.427,0.549,266.437
135721,141178,13678,-0.25,-0.91,-0.224,-0.549,0.366,0.488,266.444
135702,141255,10972,-0.25,-0.91,-0.224,-0.549,0.366,0.488,266.447
135702,141158,13684,-0.25,-0.919,-0.221,-0.732,0.427,0.305,266.453
135711,141255,10972,-0.25,-0.919,-0.221,-0.732,0.427,0.305,266.457
135711,141165,13657,-0.255,-0.917,-0.227,-0.732,0.61,0.244,266.463
135695,141255,10972,-0.255,-0.917,-0.227,-0.732,0.61,0.244,266.467
135695,141181,13684,-0.248,-0.918,-0.226,-0.732,0.61,0.061,266.473
135687,141255,10972,-0.248,-0.918,-0.226,-0.732,0.61,0.061,266.477
135687,141162,13661,-0.249,-0.919,-0.223,-0.244,0.671,0.061,266.483
135716,141255,10972,-0.249,-0.919,-0.223,-0.244,0.671,0.061,266.487
135716,141165,13660,-0.248,-0.915,-0.226,-0.122,0.61,0.244,266.493
135705,141255,10972,-0.248,-0.915,-0.226,-0.122,0.61,0.244,266.497
135705,141164,13675,-0.248,-0.92,-0.225,-0.305,0.61,0.427,266.503
135718,141255,10972,-0.248,-0.92,-0.225,-0.305,0.61,0.427,266.507
135718,141175,13676,-0.245,-0.919,-0.228,-0.305,0.61,0.427,266.513
135716,141255,10972,-0.249,-0.918,-0.225,-0.305,0.61,0.549,266.517
135716,141165,13659,-0.248,-0.918,-0.229,-0.305,0.61,0.549,266.523
135706,141255,10972,-0.249,-0.918,-0.229,-0.183,0.61,0.488,266.526
135706,141164,13671,-0.249,-0.92,-0.231,-0.183,0.61,0.488,266.533
135707,141255,10972,-0.247,-0.922,-0.23,0.183,0.366,0.427,266.536
135707,141184,13664,-0.251,-0.922,-0.23,0.183,0.366,0.427,266.542
135710,141255,10972,-0.25,-0.922,-0.226,0.549,0.122,0.549,266.546
135710,141177,13669,-0.25,-0.922,-0.227,0.549,0.122,0.549,266.552
135723,141255,10972,-0.249,-0.92,-0.223,0.915,0.122,0.61,266.556
135723,141187,13648,-0.25,-0.917,-0.217,0.915,0.122,0.61,266.562
135713,141255,10972,-0.255,-0.913,-0.217,0.793,0.122,0.61,266.566
135713,141179,13665,-0.251,-0.915,-0.218,0.793,0.122,0.61,266.572
135731,141255,10972,-0.254,-0.918,-0.221,0.244,0.183,0.671,266.576
135731,141176,13670,-0.255,-0.919,-0.226,0.244,0.183,0.671,266.582
135719,141255,10972,-0.251,-0.918,-0.224,0,0.305,0.488,266.586
135719,141180,13694,-0.255,-0.919,-0.218,0,0.305,0.488,266.592
135710,141255,10972,-0.254,-0.916,-0.222,0.244,0.183,0.366,266.596
135710,141182,13664,-0.254,-0.915,-0.223,0.244,0.183,0.366,266.602
135730,141255,10972,-0.254,-0.918,-0.223,0.427,0.244,0.244,266.606
135730,141170,13664,-0.253,-0.916,-0.222,0.427,0.244,0.244,266.612
135748,141255,10972,-0.253,-0.912,-0.223,0.305,0.122,-0.061,266.616
135748,141200,13679,-0.252,-0.915,-0.225,0.305,0.122,-0.061,266.622
135729,141255,10972,-0.251,-0.917,-0.226,0.122,0.061,-0.305,266.625
135729,141202,13685,-0.252,-0.916,-0.225,0.122,0.061,-0.305,266.632
135721,141255,10972,-0.252,-0.915,-0.224,0.488,0.122,-0.305,266.635
135721,141196,13681,-0.251,-0.917,-0.225,0.488,0.122,-0.305,266.642
135733,141255,10972,-0.249,-0.919,-0.225,0.732,0.183,-0.244,266.645
135733,141206,13686,-0.247,-0.923,-0.223,0.732,0.183,-0.244,266.651
135729,141255,10972,-0.245,-0.926,-0.224,0.61,0.366,-0.061,266.655
135729,141202,13672,-0.244,-0.922,-0.223,0.61,0.366,-0.061,266.661
135740,141255,10972,-0.245,-0.924,-0.223,0.488,0.366,0.305,266.665
135740,141187,13688,-0.246,-0.921,-0.223,0.488,0.366,0.305,266.671
135742,141255,10972,-0.248,-0.913,-0.224,0.305,0.305,0.854,266.675
135742,141202,13680,-0.251,-0.912,-0.224,0.305,0.305,0.854,266.681
135752,141255,10972,-0.251,-0.916,-0.225,0.183,0.244,0.976,266.685
135752,141188,13680,-0.251,-0.917,-0.224,0.183,0.244,0.976,266.691
135732,141255,10972,-0.253,-0.916,-0.22,0.549,-0.061,0.671,266.695
135732,141202,13686,-0.252,-0.916,-0.217,0.549,-0.061,0.671,266.701
135766,141255,10972,-0.253,-0.915,-0.22,0.854,-0.122,0.366,266.705
135766,141203,13677,-0.252,-0.917,-0.22,0.854,-0.122,0.366,266.711
135759,141255,10972,-0.25,-0.92,-0.214,1.037,-0.122,0.183,266.715
135759,141205,13679,-0.251,-0.92,-0.212,1.037,-0.122,0.183,266.721
135743,141255,10972,-0.252,-0.92,-0.214,0.854,-0.061,0,266.724
135743,141209,13696,-0.252,-0.916,-0.212,0.854,-0.061,0,266.731
135747,141255,10972,-0.25,-0.918,-0.219,0.122,0.366,0,266.734
135747,141207,13684,-0.249,-0.92,-0.22,0.122,0.366,0,266.74
135751,141255,10972,-0.248,-0.922,-0.22,-0.549,0.915,0.122,266.744
135751,141209,13694,-0.249,-0.922,-0.224,-0.549,0.915,0.122,266.75
135750,141255,10972,-0.248,-0.922,-0.23,-1.28,1.159,0.122,266.754
135750,141234,13694,-0.246,-0.921,-0.225,-1.28,1.159,0.122,266.76
135757,141255,10972,-0.245,-0.919,-0.228,-1.341,1.037,0.549,266.764
135757,141215,13708,-0.245,-0.918,-0.229,-1.341,1.037,0.549,266.77
135750,141255,10972,-0.247,-0.917,-0.23,-0.976,0.915,0.915,266.774
135750,141220,13712,-0.249,-0.915,-0.229,-0.976,0.915,0.915,266.78
135762,141255,10972,-0.249,-0.917,-0.228,-0.488,0.732,1.098,266.784
135762,141217,13703,-0.247,-0.921,-0.226,-0.488,0.732,1.098,266.79
135764,141255,10972,-0.249,-0.917,-0.219,-0.427,0.549,1.098,266.794
135764,141223,13688,-0.25,-0.916,-0.219,-0.427,0.549,1.098,266.8
135752,141255,10972,-0.249,-0.909,-0.22,-0.427,0.549,1.28,266.804
135752,141232,13695,-0.253,-0.912,-0.218,-0.427,0.549,1.28,266.81
135762,141255,10972,-0.256,-0.912,-0.218,-0.488,0.854,1.22,266.814
135762,141232,13690,-0.257,-0.914,-0.218,-0.488,0.854,1.22,266.82
135772,141255,10972,-0.255,-0.919,-0.219,-0.793,0.976,0.976,266.823
135772,141232,13696,-0.251,-0.917,-0.217,-0.793,0.976,0.976,266.83
135770,141255,10972,-0.25,-0.914,-0.219,-1.159,0.915,0.671,266.833
135770,141218,13693,-0.254,-0.918,-0.222,-1.159,0.915,0.671,266.84
135764,141255,10972,-0.254,-0.921,-0.221,-1.524,0.976,0.549,266.843
135764,141200,13692,-0.255,-0.918,-0.223,-1.524,0.976,0.549,266.849
135770,141255,10972,-0.255,-0.916,-0.223,-1.341,0.976,0.671,266.853
135770,141228,13698,-0.252,-0.914,-0.225,-1.341,0.976,0.671,266.859
135762,141255,10972,-0.252,-0.916,-0.23,-1.22,0.732,0.427,266.863
135762,141214,13709,-0.253,-0.922,-0.229,-1.22,0.732,0.427,266.869
135745,141255,10972,-0.25,-0.922,-0.236,-0.732,0.61,0.122,266.873
135745,141213,13707,-0.252,-0.925,-0.235,-0.732,0.61,0.122,266.879
135759,141255,10972,-0.251,-0.922,-0.233,0,0.183,0.183,266.883
135759,141196,13720,-0.25,-0.921,-0.232,0,0.183,0.183,266.889
135766,141255,10972,-0.251,-0.917,-0.233,0.671,-0.305,0.305,266.893
135766,141213,13697,-0.249,-0.918,-0.23,0.671,-0.305,0.305,266.899
135756,141255,10972,-0.249,-0.917,-0.226,0.915,-0.549,0.183,266.903
135756,141209,13711,-0.248,-0.92,-0.225,0.915,-0.549,0.183,266.909
135761,141255,10972,-0.248,-0.919,-0.225,0.915,-0.427,0.183,266.913
135761,141225,13698,-0.248,-0.917,-0.227,0.915,-0.427,0.183,266.919
135775,141255,10972,-0.248,-0.915,-0.225,0.915,-0.427,0.305,266.922
135775,141244,13703,-0.251,-0.916,-0.224,0.915,-0.427,0.305,266.929
135788,141255,10972,-0.252,-0.914,-0.223,1.28,-0.427,0.305,266.932
135788,141255,13714,-0.252,-0.915,-0.223,1.28,-0.427,0.305,266.939
135777,141255,10972,-0.254,-0.912,-0.215,1.585,-0.549,0.122,266.942
135777,141252,13714,-0.253,-0.913,-0.217,1.585,-0.549,0.122,266.948
135766,141255,10972,-0.253,-0.913,-0.217,1.585,-0.549,0.122,266.952
135766,141229,13710,-0.253,-0.916,-0.217,1.159,-0.366,0,266.958
135777,141255,10972,-0.253,-0.916,-0.217,1.159,-0.366,0,266.962
135777,141214,13719,-0.249,-0.92,-0.218,0.854,-0.244,-0.183,266.968
135762,141255,10972,-0.249,-0.92,-0.218,0.854,-0.244,-0.183,266.972
135762,141217,13704,-0.25,-0.925,-0.22,0.976,-0.122,-0.244,266.978
135764,141255,10972,-0.25,-0.925,-0.22,0.976,-0.122,-0.244,266.982
135764,141221,13705,-0.25,-0.919,-0.217,0.61,0.122,-0.061,266.988
135759,141255,10972,-0.25,-0.919,-0.217,0.61,0.122,-0.061,266.992
135759,141212,13708,-0.25,-0.92,-0.215,0.122,0.183,0.183,266.998
135756,141255,10972,-0.25,-0.92,-0.215,0.122,0.183,0.183,267.002
135756,141241,13710,-0.25,-0.917,-0.216,-0.183,0.427,0.488,267.008
135745,141255,10972,-0.25,-0.917,-0.216,-0.183,0.427,0.488,267.012
135745,141229,13724,-0.253,-0.911,-0.216,-0.671,0.61,0.671,267.018
135764,141255,10972,-0.253,-0.911,-0.216,-0.671,0.61,0.671,267.021
135764,141232,13711,-0.251,-0.916,-0.22,-1.037,0.854,0.61,267.028
135776,141255,10972,-0.251,-0.916,-0.22,-1.037,0.854,0.61,267.031
135776,141231,13707,-0.252,-0.919,-0.223,-1.037,0.976,0.61,267.038
135783,141255,10972,-0.252,-0.919,-0.223,-1.037,0.976,0.61,267.041
135783,141263,13718,-0.249,-0.918,-0.222,-0.976,0.976,0.549,267.047
135775,141255,10972,-0.249,-0.918,-0.222,-0.976,0.976,0.549,267.051
135775,141262,13735,-0.252,-0.92,-0.222,-0.671,0.976,0.488,267.057
135772,141255,10972,-0.252,-0.92,-0.222,-0.671,0.976,0.488,267.061
135772,141250,13714,-0.25,-0.919,-0.223,-0.793,0.976,0.488,267.067
135771,141255,10972,-0.25,-0.919,-0.223,-0.793,0.976,0.488,267.071
135771,141244,13720,-0.25,-0.918,-0.224,-1.159,0.915,0.61,267.077
135763,141255,10972,-0.25,-0.918,-0.224,-1.159,0.915,0.61,267.081
135763,141237,13717,-0.254,-0.919,-0.221,-1.22,1.037,0.732,267.087
135746,141255,10972,-0.254,-0.919,-0.221,-1.22,1.037,0.732,267.091
135746,141216,13734,-0.254,-0.919,-0.223,-1.159,1.159,0.793,267.097
