137684,144216,13909,-0.144,-0.943,-0.201,0.793,0.305,0.244,566.572
137670,144327,10972,-0.144,-0.943,-0.201,0.793,0.305,0.244,566.576
137670,144226,13915,-0.143,-0.943,-0.201,0.366,0.244,0.305,566.582
137683,144327,10972,-0.143,-0.943,-0.201,0.366,0.244,0.305,566.586
137683,144232,13896,-0.145,-0.939,-0.198,-0.061,0.244,0.122,566.592
137673,144327,10972,-0.145,-0.939,-0.198,-0.061,0.244,0.122,566.596
137673,144213,13908,-0.143,-0.948,-0.196,-0.061,0.305,0,566.602
137698,144327,10972,-0.143,-0.948,-0.196,-0.061,0.305,0,566.606
137698,144218,13888,-0.144,-0.95,-0.2,-0.061,0.427,0.244,566.612
137697,144327,10972,-0.144,-0.95,-0.2,-0.061,0.427,0.244,566.616
137697,144215,13886,-0.141,-0.944,-0.2,-0.061,0.427,0.244,566.622
137704,144327,10972,-0.142,-0.943,-0.198,-0.244,0.366,0.366,566.626
137704,144219,13886,-0.141,-0.941,-0.199,-0.244,0.366,0.366,566.632
137699,144327,10972,-0.141,-0.941,-0.2,-0.183,0.305,0.366,566.635
137699,144196,13900,-0.141,-0.945,-0.201,-0.183,0.305,0.366,566.642
137681,144327,10972,-0.141,-0.949,-0.193,-0.061,0.61,0.488,566.645
137681,144205,13903,-0.142,-0.949,-0.19,-0.061,0.61,0.488,566.652
137685,144327,10972,-0.143,-0.942,-0.192,-0.488,0.671,0.61,566.655
137685,144199,13900,-0.146,-0.94,-0.198,-0.488,0.671,0.61,566.661
137689,144327,10972,-0.146,-0.94,-0.204,-1.037,0.61,0.732,566.665
137689,144219,13906,-0.143,-0.941,-0.205,-1.037,0.61,0.732,566.671
137705,144327,10972,-0.139,-0.944,-0.199,-0.671,0.488,0.366,566.675
137705,144219,13890,-0.145,-0.944,-0.199,-0.671,0.488,0.366,566.681
137688,144327,10972,-0.145,-0.942,-0.205,-0.183,0.427,0.488,566.685
137688,144232,13884,-0.144,-0.939,-0.202,-0.183,0.427,0.488,566.691
137690,144327,10972,-0.144,-0.94,-0.201,-0.061,0.427,0.549,566.695
137690,144224,13910,-0.146,-0.942,-0.198,-0.061,0.427,0.549,566.701
137683,144327,10972,-0.145,-0.941,-0.195,-0.061,0.366,0.366,566.705
137683,144190,13909,-0.144,-0.94,-0.199,-0.061,0.366,0.366,566.711
137678,144327,10972,-0.146,-0.942,-0.202,-0.244,0.366,0.366,566.715
137678,144223,13904,-0.144,-0.949,-0.195,-0.244,0.366,0.366,566.721
137678,144327,10972,-0.146,-0.951,-0.19,-0.122,0.488,0.305,566.725
137678,144219,13908,-0.146,-0.948,-0.193,-0.122,0.488,0.305,566.731
137689,144327,10972,-0.143,-0.941,-0.199,0,0.61,0.366,566.734
137689,144213,13891,-0.144,-0.943,-0.199,0,0.61,0.366,566.741
137712,144327,10972,-0.141,-0.941,-0.199,0.061,0.488,0.244,566.744
137712,144182,13896,-0.141,-0.94,-0.196,0.061,0.488,0.244,566.751
137686,144327,10972,-0.141,-0.943,-0.2,0.061,0.61,0.305,566.754
137686,144192,13893,-0.142,-0.944,-0.201,0.061,0.61,0.305,566.76
137656,144327,10972,-0.139,-0.943,-0.199,-0.671,0.732,0.427,566.764
137656,144197,13897,-0.139,-0.943,-0.198,-0.671,0.732,0.427,566.77
137695,144327,10972,-0.142,-0.944,-0.2,-0.915,0.549,0.488,566.774
137695,144217,13898,-0.14,-0.944,-0.202,-0.915,0.549,0.488,566.78
137679,144327,10972,-0.142,-0.944,-0.198,-0.854,0.427,0.427,566.784
137679,144205,13893,-0.142,-0.94,-0.201,-0.854,0.427,0.427,566.79
137688,144327,10972,-0.145,-0.938,-0.2,-0.427,0.366,0.427,566.794
137688,144190,13889,-0.142,-0.942,-0.199,-0.427,0.366,0.427,566.8
137672,144327,10972,-0.143,-0.943,-0.196,0.244,0.244,0.427,566.804
137672,144182,13886,-0.142,-0.941,-0.193,0.244,0.244,0.427,566.81
137681,144327,10972,-0.142,-0.941,-0.195,0.549,0.366,0.366,566.814
137681,144198,13893,-0.142,-0.943,-0.198,0.549,0.366,0.366,566.82
137694,144327,10972,-0.141,-0.942,-0.198,-0.061,0.305,0.183,566.824
137694,144194,13885,-0.139,-0.941,-0.2,-0.061,0.305,0.183,566.83
137695,144327,10972,-0.14,-0.943,-0.197,-0.183,0.183,0.061,566.834
137695,144204,13892,-0.142,-0.947,-0.194,-0.183,0.183,0.061,566.84
137681,144327,10972,-0.141,-0.948,-0.198,0.183,0.244,0.061,566.843
137681,144199,13893,-0.142,-0.944,-0.195,0.183,0.244,0.061,566.85
137712,144327,10972,-0.142,-0.945,-0.193,0,0.427,0.183,566.853
137712,144213,13886,-0.143,-0.944,-0.193,0,0.427,0.183,566.859
137700,144327,10972,-0.142,-0.948,-0.195,-0.122,0.549,0.183,566.863
137700,144191,13895,-0.144,-0.943,-0.196,-0.122,0.549,0.183,566.869
137691,144327,10972,-0.142,-0.937,-0.197,-0.305,0.427,0.366,566.873
137691,144196,13887,-0.143,-0.94,-0.199,-0.305,0.427,0.366,566.879
137674,144327,10972,-0.141,-0.944,-0.199,-0.244,0.305,0.366,566.883
137674,144192,13906,-0.144,-0.945,-0.199,-0.244,0.305,0.366,566.889
137690,144327,10972,-0.142,-0.946,-0.195,0.183,0.366,0.366,566.893
137690,144176,13891,-0.143,-0.946,-0.194,0.183,0.366,0.366,566.899
137673,144327,10972,-0.144,-0.943,-0.195,0.183,0.305,0.366,566.903
137673,144207,13879,-0.144,-0.945,-0.194,0.183,0.305,0.366,566.909
137692,144327,10972,-0.141,-0.943,-0.192,0.061,0.427,0.244,566.913
137692,144207,13895,-0.146,-0.941,-0.197,0.061,0.427,0.244,566.919
137683,144327,10972,-0.145,-0.942,-0.199,-0.366,0.366,0.183,566.923
137683,144207,13888,-0.144,-0.945,-0.197,-0.366,0.366,0.183,566.929
137698,144327,10972,-0.144,-0.948,-0.196,-0.61,0.427,0.244,566.933
137698,144205,13885,-0.144,-0.947,-0.198,-0.61,0.427,0.244,566.939
137701,144327,10972,-0.141,-0.945,-0.198,-0.305,0.549,0.427,566.942
137701,144208,13884,-0.142,-0.945,-0.203,-0.305,0.549,0.427,566.949
137710,144327,10972,-0.141,-0.943,-0.202,-0.549,0.427,0.488,566.952
137710,144201,13863,-0.141,-0.943,-0.2,-0.549,0.427,0.488,566.959
137686,144327,10972,-0.14,-0.944,-0.193,-0.427,0.488,0.549,566.962
137686,144170,13875,-0.145,-0.942,-0.194,-0.427,0.488,0.549,566.968
137685,144327,10972,-0.143,-0.942,-0.195,-0.732,0.671,0.732,566.972
137685,144192,13878,-0.143,-0.939,-0.198,-0.732,0.671,0.732,566.978
137691,144327,10972,-0.139,-0.938,-0.199,-1.28,0.671,0.488,566.982
137691,144178,13878,-0.144,-0.941,-0.202,-1.28,0.671,0.488,566.988
137684,144327,10972,-0.143,-0.944,-0.207,-0.976,0.671,0.366,566.992
137684,144161,13875,-0.14,-0.945,-0.205,-0.976,0.671,0.366,566.998
137667,144327,10972,-0.139,-0.945,-0.203,-0.549,0.427,0.366,567.002
137667,144169,13888,-0.141,-0.944,-0.202,-0.549,0.427,0.366,567.008
137684,144327,10972,-0.141,-0.943,-0.195,-0.305,0.488,0.488,567.012
137684,144181,13879,-0.141,-0.938,-0.19,-0.305,0.488,0.488,567.018
137697,144327,10972,-0.143,-0.932,-0.185,-0.244,0.61,0.366,567.022
137697,144208,13871,-0.147,-0.936,-0.198,-0.244,0.61,0.366,567.028
137701,144327,10972,-0.146,-0.95,-0.208,-0.183,0.732,0.183,567.032
137701,144193,13887,-0.141,-0.961,-0.197,-0.183,0.732,0.183,567.038
137724,144327,10972,-0.139,-0.956,-0.189,-0.122,0.427,0.366,567.041
137724,144199,13878,-0.141,-0.941,-0.2,-0.122,0.427,0.366,567.048
137696,144327,10972,-0.141,-0.929,-0.21,-1.768,0.366,0.854,567.051
137696,144176,13876,-0.143,-0.935,-0.208,-1.768,0.366,0.854,567.058
137689,144327,10972,-0.147,-0.944,-0.199,-0.183,0.671,0.183,567.061
137689,144176,13877,-0.149,-0.946,-0.195,-0.183,0.671,0.183,567.067
137687,144327,10972,-0.149,-0.946,-0.195,-0.183,0.671,0.183,567.071
137687,144199,13875,-0.142,-0.94,-0.201,0.61,0.488,0.183,567.077
137687,144327,10972,-0.142,-0.94,-0.201,0.61,0.488,0.183,567.081
137687,144194,13889,-0.141,-0.941,-0.198,-0.671,0.122,0.61,567.087
137693,144327,10972,-0.141,-0.941,-0.198,-0.671,0.122,0.61,567.091
137693,144208,13881,-0.139,-0.947,-0.202,-0.427,0.244,0.305,567.097
137687,144327,10972,-0.139,-0.947,-0.202,-0.427,0.244,0.305,567.101
137687,144198,13872,-0.145,-0.942,-0.198,-0.732,0.366,0.183,567.107
137690,144327,10972,-0.145,-0.942,-0.198,-0.732,0.366,0.183,567.111
137690,144197,13879,-0.143,-0.948,-0.202,-0.549,0.488,0.427,567.117
137689,144327,10972,-0.143,-0.948,-0.202,-0.549,0.488,0.427,567.121
137689,144211,13886,-0.139,-0.947,-0.202,0.244,0.427,0.488,567.127
137705,144327,10972,-0.139,-0.947,-0.202,0.244,0.427,0.488,567.131
137705,144194,13870,-0.138,-0.946,-0.201,0.61,0.244,0.488,567.137
137698,144327,10972,-0.138,-0.946,-0.201,0.61,0.244,0.488,567.141
137698,144179,13877,-0.136,-0.943,-0.199,0.793,0.122,0.427,567.147
137684,144327,10972,-0.136,-0.943,-0.199,0.793,0.122,0.427,567.15
137684,144177,13870,-0.141,-0.939,-0.195,0.244,0.244,0.427,567.157
137691,144327,10972,-0.141,-0.939,-0.195,0.244,0.244,0.427,567.16
137691,144189,13871,-0.144,-0.94,-0.199,-0.854,0.427,0.305,567.166
137682,144327,10972,-0.144,-0.94,-0.199,-0.854,0.427,0.305,567.17
137682,144160,13893,-0.146,-0.948,-0.199,-0.976,0.488,0.183,567.176
137667,144327,10972,-0.146,-0.948,-0.199,-0.976,0.488,0.183,567.18
137667,144196,13879,-0.143,-0.948,-0.196,0.183,0.183,0.122,567.186
137689,144327,10972,-0.143,-0.948,-0.196,0.183,0.183,0.122,567.19
137689,144199,13873,-0.144,-0.942,-0.197,0.183,-0.061,0.549,567.196
137705,144327,10972,-0.144,-0.942,-0.197,0.183,-0.061,0.549,567.2
137705,144209,13890,-0.145,-0.937,-0.196,0.427,0.183,0.549,567.206
137697,144327,10972,-0.145,-0.937,-0.196,0.427,0.183,0.549,567.21
137697,144192,13889,-0.145,-0.939,-0.191,0.366,0.427,0.427,567.216
137691,144327,10972,-0.145,-0.937,-0.193,0.366,0.427,0.427,567.22
137691,144184,13868,-0.146,-0.937,-0.197,-0.549,0.427,0.427,567.226
137697,144327,10972,-0.148,-0.943,-0.201,-0.549,0.427,0.427,567.23
137697,144187,13876,-0.145,-0.944,-0.198,-0.671,0.366,0.305,567.236
137677,144327,10972,-0.143,-0.948,-0.195,-0.671,0.366,0.305,567.24
137677,144204,13874,-0.144,-0.949,-0.197,-0.244,0.366,0.183,567.246
137696,144327,10972,-0.141,-0.947,-0.201,-0.244,0.366,0.183,567.249
137696,144189,13887,-0.142,-0.943,-0.203,-0.061,0.305,0.488,567.256
137685,144327,10972,-0.142,-0.943,-0.201,-0.061,0.305,0.488,567.259
137685,144177,13875,-0.138,-0.94,-0.196,-0.183,0.183,0.549,567.265
137682,144327,10972,-0.141,-0.942,-0.196,-0.183,0.183,0.549,567.269
137682,144188,13885,-0.145,-0.948,-0.194,-0.183,0.244,0.488,567.275
137704,144327,10972,-0.142,-0.944,-0.199,-0.183,0.244,0.488,567.279
137704,144179,13869,-0.14,-0.941,-0.2,-0.427,0.244,0.427,567.285
137699,144327,10972,-0.141,-0.943,-0.199,-0.427,0.244,0.427,567.289
137699,144196,13888,-0.141,-0.941,-0.199,-0.305,0.122,0.366,567.295
137684,144327,10972,-0.139,-0.943,-0.196,-0.305,0.122,0.366,567.299
137684,144185,13891,-0.142,-0.943,-0.196,0.122,0.244,0.366,567.305
137695,144327,10972,-0.144,-0.944,-0.199,0.122,0.244,0.366,567.309
137695,144186,13870,-0.143,-0.944,-0.204,0.61,0.305,0.427,567.315
137692,144327,10972,-0.147,-0.942,-0.207,0.61,0.305,0.427,567.319
137692,144168,13900,-0.144,-0.939,-0.199,0.549,0.244,0.427,567.325
137705,144327,10972,-0.143,-0.94,-0.202,0.549,0.244,0.427,567.329
137705,144183,13875,-0.143,-0.94,-0.203,0.488,0.183,0.366,567.335
137703,144327,10972,-0.142,-0.94,-0.2,0.488,0.183,0.366,567.339
137703,144190,13872,-0.145,-0.941,-0.2,0.488,0.183,0.183,567.345
137696,144327,10972,-0.145,-0.942,-0.196,0.488,0.183,0.183,567.348
137696,144177,13889,-0.144,-0.946,-0.195,0.122,0.305,0,567.355
137698,144327,10972,-0.146,-0.943,-0.196,0.122,0.305,0,567.358
137698,144188,13882,-0.147,-0.943,-0.197,0.061,0.244,0.061,567.365
137697,144327,10972,-0.146,-0.946,-0.2,0.061,0.244,0.061,567.368
137697,144224,13895,-0.143,-0.944,-0.201,0.061,0.244,0.122,567.374
137719,144327,10972,-0.145,-0.945,-0.195,0.061,0.244,0.122,567.378
137719,144211,13878,-0.143,-0.947,-0.197,0.122,0.183,0.183,567.384
137728,144327,10972,-0.142,-0.946,-0.2,0.122,0.183,0.183,567.388
137728,144208,13881,-0.141,-0.946,-0.196,0.183,0.244,0.305,567.394
137725,144327,10972,-0.141,-0.949,-0.195,0.183,0.244,0.305,567.398
137725,144190,13875,-0.144,-0.945,-0.195,0.244,0.427,0.488,567.404
137717,144327,10972,-0.143,-0.94,-0.194,0.244,0.427,0.488,567.408
137717,144204,13882,-0.146,-0.939,-0.194,-0.183,0.488,0.61,567.414
137725,144327,10972,-0.147,-0.939,-0.197,-0.183,0.488,0.61,567.418
137725,144226,13881,-0.146,-0.94,-0.198,-0.427,0.427,0.427,567.424
137714,144327,10972,-0.144,-0.944,-0.195,-0.427,0.427,0.427,567.428
137714,144186,13891,-0.143,-0.947,-0.196,-0.183,0.366,0.366,567.434
137713,144327,10972,-0.144,-0.948,-0.193,-0.183,0.366,0.366,567.438
137713,144212,13898,-0.141,-0.943,-0.194,-0.427,0.488,0.671,567.444
137715,144327,10972,-0.142,-0.944,-0.193,-0.427,0.488,0.671,567.447
137715,144197,13884,-0.142,-0.941,-0.192,-0.488,0.671,0.549,567.454
137715,144327,10972,-0.145,-0.941,-0.194,-0.488,0.671,0.549,567.457
137715,144200,13882,-0.147,-0.94,-0.198,-0.549,0.671,0.427,567.464
137702,144327,10972,-0.145,-0.94,-0.198,-0.549,0.671,0.427,567.467
137702,144197,13885,-0.143,-0.94,-0.195,-0.671,0.671,0.366,567.473
137713,144327,10972,-0.144,-0.942,-0.198,-0.671,0.671,0.366,567.477
137713,144202,13888,-0.143,-0.946,-0.196,-0.305,0.671,0.305,567.483
137706,144327,10972,-0.144,-0.946,-0.204,-0.305,0.671,0.305,567.487
137706,144199,13886,-0.143,-0.943,-0.205,-0.244,0.549,0.366,567.493
137687,144327,10972,-0.143,-0.945,-0.201,-0.244,0.549,0.366,567.497
137687,144159,13897,-0.141,-0.943,-0.201,-0.061,0.366,0.366,567.503
137699,144327,10972,-0.141,-0.943,-0.201,-0.061,0.366,0.366,567.507
137699,144201,13882,-0.142,-0.945,-0.201,0.183,0.366,0.366,567.513
137694,144327,10972,-0.144,-0.944,-0.198,0.183,0.366,0.366,567.517
137694,144194,13883,-0.142,-0.943,-0.195,0.305,0.366,0.305,567.523
137704,144327,10972,-0.143,-0.945,-0.194,0.305,0.366,0.305,567.527
137704,144192,13880,-0.139,-0.942,-0.202,-0.061,0.366,0.244,567.533
137707,144327,10972,-0.141,-0.946,-0.203,-0.061,0.366,0.244,567.536
137707,144186,13868,-0.14,-0.946,-0.2,-0.244,0.183,0.122,567.543
137702,144327,10972,-0.14,-0.945,-0.202,-0.244,0.183,0.122,567.546
137702,144177,13859,-0.14,-0.945,-0.199,0,0.183,0.244,567.553
137714,144327,10972,-0.139,-0.947,-0.196,0,0.183,0.244,567.556
137714,144178,13881,-0.141,-0.946,-0.188,0.183,0.305,0.488,567.562
137710,144327,10972,-0.146,-0.943,-0.189,0.183,0.305,0.488,567.566
137710,144174,13875,-0.145,-0.939,-0.188,-0.183,0.61,0.549,567.572
137694,144327,10972,-0.147,-0.94,-0.195,-0.183,0.61,0.549,567.576
137694,144172,13886,-0.145,-0.942,-0.201,-0.732,0.549,0.366,567.582
137693,144327,10972,-0.146,-0.943,-0.2,-0.732,0.549,0.366,567.586
137693,144172,13865,-0.142,-0.946,-0.2,-0.854,0.305,0.366,567.592
137733,144327,10972,-0.137,-0.945,-0.204,-0.854,0.305,0.366,567.596
137733,144175,13857,-0.142,-0.947,-0.205,-0.366,0.305,0.549,567.602
137724,144327,10972,-0.143,-0.947,-0.2,-0.366,0.305,0.549,567.606
137724,144189,13878,-0.139,-0.944,-0.202,0.122,0.549,0.549,567.612
137713,144327,10972,-0.141,-0.938,-0.202,0.122,0.549,0.549,567.616
137713,144194,13877,-0.141,-0.938,-0.198,0.488,0.488,0.366,567.622
137700,144327,10972,-0.141,-0.938,-0.2,0.488,0.488,0.366,567.626
137700,144189,13882,-0.143,-0.939,-0.195,0.427,0.244,0.366,567.632
137693,144327,10972,-0.143,-0.938,-0.195,0.427,0.244,0.366,567.636
137693,144174,13884,-0.142,-0.94,-0.197,0.671,0.183,0.244,567.642
137715,144327,10972,-0.146,-0.943,-0.189,0.671,0.183,0.244,567.645
137715,144205,13885,-0.145,-0.945,-0.181,0.915,0.305,0.061,567.652
137704,144327,10972,-0.141,-0.947,-0.18,0.915,0.305,0.061,567.655
137704,144190,13865,-0.145,-0.951,-0.189,0.732,0.549,0,567.661
137709,144327,10972,-0.145,-0.951,-0.189,0.732,0.549,0,567.665
137709,144188,13872,-0.145,-0.941,-0.201,-0.366,0.488,0.061,567.671
137698,144327,10972,-0.145,-0.941,-0.201,-0.366,0.488,0.061,567.675
137698,144212,13875,-0.141,-0.944,-0.2,-0.793,0.366,0.305,567.681
137706,144327,10972,-0.141,-0.944,-0.2,-0.793,0.366,0.305,567.685
137706,144190,13873,-0.142,-0.949,-0.202,-0.305,0.549,0.488,567.691
137713,144327,10972,-0.142,-0.949,-0.202,-0.305,0.549,0.488,567.695
137713,144176,13873,-0.143,-0.944,-0.195,-0.366,0.793,0.793,567.701
137718,144327,10972,-0.143,-0.944,-0.195,-0.366,0.793,0.793,567.705
137718,144159,13878,-0.146,-0.94,-0.192,-0.854,0.671,0.793,567.711
137737,144327,10972,-0.146,-0.94,-0.192,-0.854,0.671,0.793,567.715
137737,144175,13882,-0.145,-0.937,-0.2,-0.976,0.61,0.732,567.721
137705,144327,10972,-0.145,-0.937,-0.2,-0.976,0.61,0.732,567.725
137705,144182,13869,-0.145,-0.94,-0.205,-1.037,0.549,0.366,567.731
137713,144327,10972,-0.145,-0.94,-0.205,-1.037,0.549,0.366,567.735
137713,144195,13876,-0.14,-0.947,-0.2,-0.122,0.366,0.183,567.741
137730,144327,10972,-0.14,-0.947,-0.2,-0.122,0.366,0.183,567.744
137730,144187,13869,-0.144,-0.942,-0.202,0.183,0.183,0.305,567.751
137718,144327,10972,-0.144,-0.942,-0.202,0.183,0.183,0.305,567.754
137718,144207,13876,-0.142,-0.941,-0.196,0.122,0.122,0.183,567.761
137700,144327,10972,-0.142,-0.941,-0.196,0.122,0.122,0.183,567.764
137700,144177,13870,-0.142,-0.944,-0.186,0,0.244,0.061,567.77
137712,144327,10972,-0.142,-0.944,-0.186,0,0.244,0.061,567.774
137712,144174,13853,-0.142,-0.945,-0.192,-0.427,0.61,0.244,567.78
137703,144327,10972,-0.142,-0.945,-0.192,-0.427,0.61,0.244,567.784
137703,144184,13862,-0.142,-0.948,-0.203,-0.732,0.61,0.366,567.79
137692,144327,10972,-0.142,-0.948,-0.203,-0.732,0.61,0.366,567.794
137692,144196,13868,-0.141,-0.944,-0.201,-0.366,0.366,0.427,567.8
137734,144327,10972,-0.141,-0.944,-0.201,-0.366,0.366,0.427,567.804
137734,144197,13863,-0.143,-0.942,-0.197,0.122,0.366,0.61,567.81
137739,144327,10972,-0.143,-0.942,-0.197,0.122,0.366,0.61,567.814
137739,144173,13850,-0.144,-0.94,-0.197,0.122,0.366,0.61,567.82
137718,144327,10972,-0.145,-0.939,-0.195,0.488,0.732,0.549,567.824
137718,144154,13863,-0.143,-0.937,-0.2,0.488,0.732,0.549,567.83
137709,144327,10972,-0.144,-0.935,-0.203,-0.305,0.549,0.488,567.834
137709,144176,13873,-0.145,-0.936,-0.202,-0.305,0.549,0.488,567.84
137714,144327,10972,-0.145,-0.941,-0.194,-0.488,0.183,0.244,567.843
137714,144190,13867,-0.142,-0.946,-0.195,-0.488,0.183,0.244,567.85
137713,144327,10972,-0.141,-0.948,-0.193,0,0.244,0.183,567.853
137713,144173,13847,-0.144,-0.947,-0.197,0,0.244,0.183,567.86
137726,144327,10972,-0.143,-0.94,-0.198,0.061,0.366,0.305,567.863
137726,144175,13871,-0.144,-0.94,-0.2,0.061,0.366,0.305,567.869
137718,144327,10972,-0.146,-0.945,-0.195,0.549,0.305,0.122,567.873
137718,144180,13867,-0.143,-0.947,-0.196,0.549,0.305,0.122,567.879
137729,144327,10972,-0.141,-0.949,-0.2,1.098,0.244,0.061,567.883
137729,144188,13861,-0.139,-0.948,-0.198,1.098,0.244,0.061,567.889
137706,144327,10972,-0.138,-0.949,-0.199,0.976,0.305,0.366,567.893
137706,144168,13869,-0.139,-0.947,-0.196,0.976,0.305,0.366,567.899
137704,144327,10972,-0.139,-0.943,-0.195,0.061,0.305,0.549,567.903
137704,144188,13864,-0.14,-0.944,-0.202,0.061,0.305,0.549,567.909
137714,144327,10972,-0.143,-0.942,-0.203,-0.61,0.488,0.366,567.913
137714,144218,13875,-0.144,-0.943,-0.2,-0.61,0.488,0.366,567.919
137719,144327,10972,-0.142,-0.945,-0.197,-1.159,0.305,0.366,567.923
137719,144172,13873,-0.14,-0.946,-0.199,-1.159,0.305,0.366,567.929
137716,144327,10972,-0.144,-0.944,-0.198,-0.61,0.305,0.549,567.933
137716,144181,13869,-0.144,-0.943,-0.195,-0.61,0.305,0.549,567.939
137704,144327,10972,-0.147,-0.943,-0.198,0.305,0.366,0.61,567.942
137704,144179,13863,-0.143,-0.942,-0.196,0.305,0.366,0.61,567.949
137709,144327,10972,-0.141,-0.941,-0.193,0.61,0.122,0.671,567.952
137709,144193,13871,-0.144,-0.937,-0.192,0.61,0.122,0.671,567.959
137723,144327,10972,-0.144,-0.938,-0.19,0.366,0.183,0.61,567.962
137723,144193,13863,-0.147,-0.937,-0.19,0.366,0.183,0.61,567.968
137724,144327,10972,-0.147,-0.94,-0.195,-0.244,0.488,0.244,567.972
137724,144170,13853,-0.148,-0.941,-0.199,-0.244,0.488,0.244,567.978
137713,144327,10972,-0.146,-0.943,-0.2,-0.427,0.488,0.061,567.982
137713,144169,13858,-0.146,-0.946,-0.204,-0.427,0.488,0.061,567.988
137717,144327,10972,-0.144,-0.949,-0.2,0,0.305,0.122,567.992
137717,144172,13868,-0.138,-0.95,-0.192,0,0.305,0.122,567.998
137708,144327,10972,-0.142,-0.948,-0.192,0.366,0.305,0.427,568.002
137708,144167,13857,-0.144,-0.945,-0.201,0.366,0.305,0.427,568.008
137720,144327,10972,-0.143,-0.942,-0.195,0,0.549,0.427,568.012
137720,144176,13860,-0.14,-0.939,-0.2,0,0.549,0.427,568.018
137719,144327,10972,-0.138,-0.94,-0.199,-0.305,0.366,0.244,568.022
137719,144156,13857,-0.143,-0.943,-0.203,-0.305,0.366,0.244,568.028
137721,144327,10972,-0.142,-0.947,-0.205,0,0.122,0.305,568.032
137721,144177,13871,-0.141,-0.946,-0.198,0,0.122,0.305,568.038
137717,144327,10972,-0.14,-0.944,-0.2,0.244,0.183,0.427,568.042
137717,144168,13875,-0.14,-0.945,-0.198,0.244,0.183,0.427,568.048
137713,144327,10972,-0.143,-0.943,-0.198,0.122,0.244,0.671,568.051
137713,144209,13870,-0.144,-0.942,-0.199,0.122,0.244,0.671,568.058
137721,144327,10972,-0.147,-0.943,-0.198,0.366,0.244,0.549,568.061
137721,144196,13871,-0.145,-0.941,-0.196,0.366,0.244,0.549,568.067
137729,144327,10972,-0.145,-0.94,-0.193,0.549,0.183,0.366,568.071
137729,144183,13858,-0.147,-0.943,-0.196,0.549,0.183,0.366,568.077
137736,144327,10972,-0.144,-0.941,-0.195,0.488,0.122,0.244,568.081
137736,144176,13871,-0.145,-0.942,-0.2,0.488,0.122,0.244,568.087
137724,144327,10972,-0.144,-0.943,-0.199,0.183,0.061,0.061,568.091
137724,144178,13881,-0.141,-0.944,-0.198,0.183,0.061,0.061,568.097
137734,144327,10972,-0.143,-0.947,-0.199,0.488,0,0,568.101
137734,144187,13863,-0.145,-0.946,-0.195,0.488,0,0,568.107
137732,144327,10972,-0.146,-0.945,-0.194,0.915,0.122,0.061,568.111
137732,144179,13886,-0.147,-0.943,-0.189,0.915,0.122,0.061,568.117
137725,144327,10972,-0.147,-0.942,-0.188,0.732,0.122,0.122,568.121
137725,144166,13878,-0.146,-0.943,-0.19,0.732,0.122,0.122,568.127
137723,144327,10972,-0.146,-0.946,-0.194,0.488,0.244,0.061,568.131
137723,144190,13868,-0.144,-0.945,-0.198,0.488,0.244,0.061,568.137
137731,144327,10972,-0.142,-0.944,-0.201,-0.244,0.183,0.122,568.141
137731,144182,13867,-0.141,-0.944,-0.198,-0.244,0.183,0.122,568.147
137739,144327,10972,-0.14,-0.947,-0.198,-0.549,0.122,0.305,568.15
137739,144167,13874,-0.14,-0.947,-0.194,-0.549,0.122,0.305,568.157
137729,144327,10972,-0.141,-0.946,-0.193,-0.244,0.427,0.427,568.16
137729,144190,13884,-0.146,-0.946,-0.192,-0.244,0.427,0.427,568.167
137732,144327,10972,-0.143,-0.943,-0.194,-0.549,0.793,0.549,568.17
137732,144166,13858,-0.145,-0.942,-0.199,-0.549,0.793,0.549,568.176
137730,144327,10972,-0.143,-0.942,-0.195,-0.854,0.732,0.549,568.18
137730,144175,13870,-0.143,-0.942,-0.192,-0.854,0.732,0.549,568.186
137728,144327,10972,-0.143,-0.944,-0.19,-0.427,0.671,0.427,568.19
137728,144172,13875,-0.145,-0.945,-0.196,-0.427,0.671,0.427,568.196
137721,144327,10972,-0.145,-0.941,-0.198,0.061,0.671,0.427,568.2
137721,144190,13884,-0.144,-0.941,-0.203,0.061,0.671,0.427,568.206
137709,144327,10972,-0.144,-0.94,-0.197,0.305,0.427,0.549,568.21
137709,144177,13860,-0.142,-0.941,-0.196,0.305,0.427,0.549,568.216
137726,144327,10972,-0.142,-0.946,-0.198,0.244,0.244,0.549,568.22
137726,144171,13880,-0.143,-0.947,-0.195,0.244,0.244,0.549,568.226
137725,144327,10972,-0.144,-0.945,-0.197,0,0.366,0.488,568.23
137725,144187,13871,-0.146,-0.94,-0.19,0,0.366,0.488,568.236
137727,144327,10972,-0.145,-0.941,-0.19,-0.183,0.61,0.488,568.24
137727,144144,13869,-0.144,-0.94,-0.187,-0.183,0.61,0.488,568.246
137722,144327,10972,-0.147,-0.943,-0.187,0,0.549,0.244,568.249
137722,144171,13861,-0.145,-0.945,-0.189,0,0.549,0.244,568.256
137729,144327,10972,-0.145,-0.945,-0.2,-0.183,0.854,0.122,568.259
137729,144166,13867,-0.145,-0.945,-0.208,-0.183,0.854,0.122,568.266
137723,144327,10972,-0.145,-0.945,-0.208,-0.183,0.854,0.122,568.269
137723,144171,13866,-0.143,-0.947,-0.207,-0.915,0.488,0.183,568.275
137715,144327,10972,-0.143,-0.947,-0.207,-0.915,0.488,0.183,568.279
137715,144172,13843,-0.137,-0.948,-0.204,-0.244,0.122,0.244,568.285
137717,144327,10972,-0.137,-0.948,-0.204,-0.244,0.122,0.244,568.289
137717,144145,13866,-0.141,-0.941,-0.204,0.427,0.244,0.549,568.295
137716,144327,10972,-0.141,-0.941,-0.204,0.427,0.244,0.549,568.299
137716,144139,13878,-0.145,-0.94,-0.198,0.305,0.366,0.671,568.305
137711,144327,10972,-0.145,-0.94,-0.198,0.305,0.366,0.671,568.309
137711,144166,13873,-0.144,-0.942,-0.196,0.488,0,0.305,568.315
137718,144327,10972,-0.144,-0.942,-0.196,0.488,0,0.305,568.319
137718,144165,13860,-0.14,-0.941,-0.196,0.549,-0.305,0.122,568.325
137728,144327,10972,-0.14,-0.941,-0.196,0.549,-0.305,0.122,568.329
137728,144177,13858,-0.143,-0.941,-0.194,0.488,-0.122,0.122,568.335
137730,144327,10972,-0.143,-0.941,-0.194,0.488,-0.122,0.122,568.339
137730,144156,13871,-0.144,-0.948,-0.193,0.732,-0.061,0,568.345
137726,144327,10972,-0.144,-0.948,-0.193,0.732,-0.061,0,568.348
137726,144142,13867,-0.141,-0.945,-0.172,0.488,-0.122,0,568.355
137721,144327,10972,-0.141,-0.945,-0.172,0.488,-0.122,0,568.358
137721,144148,13863,-0.145,-0.941,-0.195,-0.366,0.183,0.366,568.365
137709,144327,10972,-0.145,-0.941,-0.195,-0.366,0.183,0.366,568.368
137709,144168,13861,-0.144,-0.951,-0.194,-1.28,0.732,0.244,568.374
137726,144327,10972,-0.144,-0.951,-0.194,-1.28,0.732,0.244,568.378
137726,144153,13856,-0.139,-0.95,-0.188,-0.976,0.305,0.183,568.384
137739,144327,10972,-0.139,-0.95,-0.188,-0.976,0.305,0.183,568.388
137739,144161,13856,-0.141,-0.941,-0.201,-1.159,0.122,0.915,568.394
137707,144327,10972,-0.141,-0.941,-0.201,-1.159,0.122,0.915,568.398
137707,144160,13848,-0.145,-0.939,-0.197,-0.793,0.732,0.976,568.404
137728,144327,10972,-0.145,-0.939,-0.197,-0.793,0.732,0.976,568.408
137728,144139,13858,-0.145,-0.94,-0.201,-0.488,0.793,0.549,568.414
137722,144327,10972,-0.142,-0.938,-0.202,-0.488,0.793,0.549,568.418
137722,144159,13859,-0.142,-0.938,-0.2,-0.122,0.244,0.488,568.424
137740,144327,10972,-0.142,-0.942,-0.202,-0.122,0.244,0.488,568.428
137740,144149,13858,-0.141,-0.942,-0.2,0.732,0.183,0.305,568.434
137714,144327,10972,-0.139,-0.942,-0.193,0.732,0.183,0.305,568.438
137714,144146,13851,-0.14,-0.941,-0.19,1.341,0.244,0,568.444
137724,144327,10972,-0.146,-0.941,-0.193,1.341,0.244,0,568.447
137724,144154,13857,-0.143,-0.941,-0.195,0.976,0.122,-0.061,568.454
137712,144327,10972,-0.143,-0.944,-0.196,0.976,0.122,-0.061,568.457
137712,144172,13875,-0.145,-0.948,-0.193,-0.061,0.061,-0.061,568.464
137713,144327,10972,-0.143,-0.949,-0.197,-0.061,0.061,-0.061,568.467
137713,144163,13869,-0.142,-0.952,-0.197,-0.732,0.244,0.122,568.473
137705,144327,10972,-0.141,-0.952,-0.199,-0.732,0.244,0.122,568.477
137705,144162,13869,-0.141,-0.948,-0.198,-0.976,0.305,0.549,568.483
137730,144327,10972,-0.144,-0.947,-0.196,-0.976,0.305,0.549,568.487
137730,144157,13879,-0.14,-0.943,-0.199,-1.037,0.305,0.915,568.493
137720,144327,10972,-0.143,-0.944,-0.196,-1.037,0.305,0.915,568.497
137720,144138,13846,-0.142,-0.948,-0.186,-0.854,0.671,0.854,568.503
137691,144327,10972,-0.143,-0.945,-0.179,-0.854,0.671,0.854,568.507
137691,144139,13849,-0.145,-0.942,-0.185,-0.854,1.098,0.976,568.513
137697,144327,10972,-0.147,-0.937,-0.198,-0.854,1.098,0.976,568.517
137697,144140,13846,-0.147,-0.938,-0.203,-1.341,0.976,0.732,568.523
137724,144327,10972,-0.146,-0.94,-0.202,-1.341,0.976,0.732,568.527
137724,144149,13838,-0.142,-0.938,-0.199,-0.793,0.366,0.366,568.533
137710,144327,10972,-0.139,-0.938,-0.202,-0.793,0.366,0.366,568.537
137710,144132,13854,-0.139,-0.944,-0.203,-0.305,0.122,0.366,568.543
137703,144327,10972,-0.143,-0.946,-0.198,-0.305,0.122,0.366,568.546
137703,144155,13863,-0.142,-0.943,-0.197,-0.305,0.488,0.366,568.553
137713,144327,10972,-0.146,-0.944,-0.194,-0.305,0.488,0.366,568.556
137713,144154,13850,-0.146,-0.94,-0.188,-0.61,0.671,0.366,568.563
137717,144327,10972,-0.142,-0.94,-0.183,-0.61,0.671,0.366,568.566
137717,144160,13854,-0.142,-0.942,-0.186,-0.854,0.793,0.305,568.572
137745,144327,10972,-0.144,-0.944,-0.195,-0.854,0.793,0.305,568.576
137745,144159,13853,-0.146,-0.945,-0.204,-1.159,0.793,0.366,568.582
137747,144327,10972,-0.142,-0.947,-0.21,-1.159,0.793,0.366,568.586
137747,144165,13869,-0.146,-0.948,-0.206,-1.037,0.671,0.427,568.592
137755,144327,10972,-0.143,-0.948,-0.204,-1.037,0.671,0.427,568.596
137755,144144,13842,-0.141,-0.943,-0.2,-0.671,0.366,0.732,568.602
137718,144327,10972,-0.143,-0.938,-0.208,-0.671,0.366,0.732,568.606
137718,144144,13851,-0.142,-0.938,-0.206,-0.915,0.427,0.915,568.612
137722,144327,10972,-0.145,-0.94,-0.198,-0.915,0.427,0.915,568.616
137722,144139,13853,-0.146,-0.942,-0.195,-0.976,0.61,0.732,568.622
137722,144327,10972,-0.146,-0.945,-0.189,-0.976,0.61,0.732,568.626
137722,144136,13866,-0.147,-0.943,-0.192,-1.341,0.61,0.671,568.632
137711,144327,10972,-0.147,-0.943,-0.192,-1.341,0.61,0.671,568.636
137711,144142,13870,-0.149,-0.944,-0.195,-1.22,0.488,0.549,568.642
137732,144327,10972,-0.144,-0.943,-0.194,-1.22,0.488,0.549,568.646
137732,144143,13850,-0.141,-0.944,-0.199,-0.305,0.427,0.549,568.652
137723,144327,10972,-0.139,-0.945,-0.203,-0.305,0.427,0.549,568.655
137723,144134,13867,-0.137,-0.939,-0.205,0.366,0.427,0.488,568.662
137718,144327,10972,-0.138,-0.942,-0.203,0.366,0.427,0.488,568.665
137718,144154,13852,-0.138,-0.942,-0.199,1.037,0.305,0.366,568.671
137723,144327,10972,-0.139,-0.94,-0.198,1.037,0.305,0.366,568.675
137723,144153,13868,-0.14,-0.936,-0.2,1.037,0.183,0.183,568.681
137709,144327,10972,-0.14,-0.938,-0.196,1.037,0.183,0.183,568.685
137709,144164,13871,-0.145,-0.943,-0.202,0.549,0.427,0.122,568.691
137701,144327,10972,-0.146,-0.946,-0.202,0.549,0.427,0.122,568.695
137701,144138,13856,-0.141,-0.944,-0.199,0.061,0.305,0,568.701
137704,144327,10972,-0.143,-0.948,-0.197,0.061,0.305,0,568.705
137704,144144,13864,-0.147,-0.945,-0.194,0.183,0.305,0.122,568.711
137716,144327,10972,-0.149,-0.944,-0.196,0.183,0.305,0.122,568.715
137716,144150,13857,-0.148,-0.94,-0.197,0.305,0.427,0.427,568.721
137686,144327,10972,-0.148,-0.94,-0.194,0.305,0.427,0.427,568.725
137686,144154,13849,-0.148,-0.941,-0.185,0.366,0.366,0.305,568.731
137713,144327,10972,-0.146,-0.943,-0.186,0.366,0.366,0.305,568.735
137713,144143,13854,-0.147,-0.943,-0.196,0.061,0.488,0.427,568.741
137719,144327,10972,-0.149,-0.939,-0.203,0.061,0.488,0.427,568.744
137719,144135,13847,-0.146,-0.939,-0.201,-1.098,0.61,0.366,568.751
137698,144327,10972,-0.146,-0.942,-0.201,-1.098,0.61,0.366,568.754
137698,144153,13866,-0.142,-0.946,-0.2,-1.28,0.549,0.183,568.761
137682,144327,10972,-0.139,-0.947,-0.201,-1.28,0.549,0.183,568.764
137682,144146,13853,-0.141,-0.948,-0.2,-0.366,0.183,0.244,568.771
137724,144327,10972,-0.14,-0.948,-0.196,-0.366,0.183,0.244,568.774
137724,144152,13857,-0.141,-0.946,-0.2,0.549,0.305,0.366,568.78
137712,144071,10972,-0.142,-0.941,-0.198,0.549,0.305,0.366,568.784
137712,144117,13850,-0.142,-0.94,-0.194,1.037,0.244,0.366,568.79
137710,144071,10972,-0.14,-0.941,-0.192,1.037,0.244,0.366,568.794
137710,144105,13861,-0.141,-0.938,-0.194,1.098,0.061,0.305,568.8
137702,144327,10972,-0.141,-0.942,-0.196,1.098,0.061,0.305,568.804
137702,144131,13862,-0.14,-0.941,-0.2,0.488,-0.061,0.183,568.81
137715,144327,10972,-0.143,-0.943,-0.2,0.488,-0.061,0.183,568.814
137715,144139,13853,-0.14,-0.946,-0.196,-0.061,0,0.183,568.82
137699,144327,10972,-0.143,-0.947,-0.197,-0.061,0,0.183,568.824
137699,144137,13868,-0.142,-0.949,-0.199,-0.244,0.244,0.366,568.83
137693,144327,10972,-0.142,-0.948,-0.195,-0.244,0.244,0.366,568.834
137693,144145,13858,-0.146,-0.947,-0.189,-0.305,0.366,0.488,568.84
137691,144327,10972,-0.145,-0.947,-0.197,-0.305,0.366,0.488,568.844
137691,144133,13861,-0.147,-0.945,-0.201,-0.549,0.549,0.549,568.85
137699,144327,10972,-0.144,-0.943,-0.2,-0.549,0.549,0.549,568.853
137699,144141,13858,-0.142,-0.948,-0.199,0.122,0.366,0.122,568.86
137704,144071,10972,-0.142,-0.948,-0.199,0.122,0.366,0.122,568.863
137704,144127,13868,-0.141,-0.94,-0.196,0.549,0.183,0.183,568.869
137703,144327,10972,-0.141,-0.94,-0.196,0.549,0.183,0.183,568.873
137703,144133,13857,-0.14,-0.94,-0.194,0.549,0.183,0.366,568.879
137698,144327,10972,-0.14,-0.94,-0.194,0.549,0.183,0.366,568.883
137698,144138,13864,-0.14,-0.939,-0.196,0.305,0.305,0.061,568.889
137708,144327,10972,-0.14,-0.939,-0.196,0.305,0.305,0.061,568.893
137708,144143,13871,-0.146,-0.944,-0.191,0,0.366,0.122,568.899
137709,144327,10972,-0.146,-0.944,-0.191,0,0.366,0.122,568.903
137709,144154,13859,-0.142,-0.949,-0.189,-0.061,0.305,0.061,568.909
137708,144327,10972,-0.142,-0.949,-0.189,-0.061,0.305,0.061,568.913
137708,144158,13858,-0.137,-0.945,-0.2,-0.61,0.305,0.183,568.919
137722,144327,10972,-0.137,-0.945,-0.2,-0.61,0.305,0.183,568.923
137722,144139,13857,-0.141,-0.945,-0.195,-0.671,0.305,0.366,568.929
137721,144327,10972,-0.141,-0.945,-0.195,-0.671,0.305,0.366,568.933
137721,144155,13869,-0.147,-0.948,-0.201,-0.244,0.61,0.366,568.939
137717,144327,10972,-0.147,-0.948,-0.201,-0.244,0.61,0.366,568.943
137717,144136,13851,-0.147,-0.945,-0.196,-0.183,0.854,0.549,568.949
137707,144327,10972,-0.147,-0.945,-0.196,-0.183,0.854,0.549,568.952
137707,144165,13869,-0.146,-0.94,-0.194,-0.61,0.671,0.732,568.959
137727,144327,10972,-0.146,-0.94,-0.194,-0.61,0.671,0.732,568.962
137727,144157,13859,-0.143,-0.942,-0.194,-0.793,0.732,0.61,568.969
137718,144327,10972,-0.143,-0.942,-0.194,-0.793,0.732,0.61,568.972
137718,144139,13872,-0.145,-0.945,-0.202,-0.488,1.037,0.305,568.978
137721,144327,10972,-0.145,-0.945,-0.202,-0.488,1.037,0.305,568.982
137721,144156,13878,-0.142,-0.942,-0.196,-0.244,0.793,0.366,568.988
137711,144327,10972,-0.142,-0.942,-0.196,-0.244,0.793,0.366,568.992
137711,144148,13865,-0.148,-0.94,-0.193,-0.122,0.61,0.549,568.998
137720,144327,10972,-0.148,-0.94,-0.193,-0.122,0.61,0.549,569.002
137720,144150,13852,-0.145,-0.944,-0.197,-0.122,0.488,0.366,569.008
137698,144327,10972,-0.145,-0.944,-0.197,-0.122,0.488,0.366,569.012
137698,144149,13866,-0.142,-0.945,-0.198,-0.122,0.488,0.366,569.018
137708,144327,10972,-0.142,-0.946,-0.196,-0.122,0.366,0.183,569.022
137708,144162,13863,-0.142,-0.942,-0.197,-0.122,0.366,0.183,569.028
137721,144327,10972,-0.144,-0.942,-0.201,-0.183,0.488,0.305,569.032
137721,144162,13870,-0.146,-0.942,-0.207,-0.183,0.488,0.305,569.038
137718,144327,10972,-0.144,-0.941,-0.204,0,0.488,0.061,569.042
137718,144143,13850,-0.143,-0.945,-0.192,0,0.488,0.061,569.048
137720,144327,10972,-0.141,-0.948,-0.195,-0.061,0.244,0,569.051
137720,144136,13860,-0.141,-0.944,-0.202,-0.061,0.244,0,569.058
137714,144327,10972,-0.144,-0.94,-0.202,-0.732,0.366,0.366,569.061
137714,144130,13883,-0.14,-0.942,-0.202,-0.732,0.366,0.366,569.068
137730,144071,10972,-0.142,-0.945,-0.199,-1.037,0.427,0.366,569.071
137730,144123,13853,-0.142,-0.945,-0.198,-1.037,0.427,0.366,569.077
137716,144327,10972,-0.14,-0.947,-0.198,-0.488,0.183,0.366,569.081
137716,144140,13863,-0.142,-0.946,-0.2,-0.488,0.183,0.366,569.087
137729,144327,10972,-0.144,-0.947,-0.189,-0.305,0.122,0.61,569.091
137729,144155,13863,-0.142,-0.946,-0.186,-0.305,0.122,0.61,569.097
137723,144327,10972,-0.145,-0.942,-0.187,-0.183,0.366,0.732,569.101
137723,144155,13845,-0.145,-0.938,-0.19,-0.183,0.366,0.732,569.107
137722,144327,10972,-0.144,-0.936,-0.196,-0.488,0.671,0.488,569.111
137722,144158,13854,-0.144,-0.938,-0.196,-0.488,0.671,0.488,569.117
137725,144327,10972,-0.143,-0.942,-0.199,-0.488,0.61,-0.061,569.121
137725,144153,13851,-0.142,-0.945,-0.202,-0.488,0.61,-0.061,569.127
137716,144327,10972,-0.143,-0.946,-0.202,-0.244,0.244,0,569.131
137716,144132,13862,-0.143,-0.944,-0.201,-0.244,0.244,0,569.137
137711,144327,10972,-0.144,-0.945,-0.203,0.61,0.122,0.122,569.141
137711,144160,13855,-0.143,-0.945,-0.201,0.61,0.122,0.122,569.147
137710,144071,10972,-0.143,-0.941,-0.199,1.098,0.183,0.061,569.15
137710,144127,13879,-0.142,-0.942,-0.194,1.098,0.183,0.061,569.157
137716,144327,10972,-0.143,-0.941,-0.188,1.28,0.061,0,569.16
137716,144159,13860,-0.14,-0.943,-0.185,1.28,0.061,0,569.167
137745,144327,10972,-0.142,-0.947,-0.187,0.915,0.122,0.061,569.17
137745,144146,13854,-0.143,-0.943,-0.194,0.915,0.122,0.061,569.176
137736,144327,10972,-0.143,-0.946,-0.197,0,0.427,0.061,569.18
137736,144133,13840,-0.139,-0.948,-0.198,0,0.427,0.061,569.186
137739,144327,10972,-0.14,-0.944,-0.199,-0.488,0.366,0,569.19
137739,144141,13857,-0.138,-0.945,-0.195,-0.488,0.366,0,569.196
137716,144327,10972,-0.139,-0.948,-0.192,-0.061,0.366,0.122,569.2
137716,144132,13859,-0.138,-0.95,-0.191,-0.061,0.366,0.122,569.206
137732,144327,10972,-0.143,-0.947,-0.195,-0.061,0.671,0.488,569.21
137732,144145,13854,-0.143,-0.944,-0.203,-0.061,0.671,0.488,569.216
137732,144071,10972,-0.143,-0.944,-0.201,-0.427,0.671,0.793,569.22
137732,144127,13852,-0.144,-0.941,-0.195,-0.427,0.671,0.793,569.226
137729,144327,10972,-0.144,-0.941,-0.199,-0.305,0.366,0.793,569.23
137729,144129,13851,-0.144,-0.939,-0.197,-0.305,0.366,0.793,569.236
137721,144327,10972,-0.144,-0.941,-0.198,0,0.305,0.671,569.24
137721,144135,13847,-0.143,-0.94,-0.197,0,0.305,0.671,569.246
137719,144327,10972,-0.143,-0.942,-0.197,0.183,0.366,0.61,569.249
137719,144152,13850,-0.142,-0.941,-0.192,0.183,0.366,0.61,569.256
137724,144327,10972,-0.146,-0.942,-0.192,-0.061,0.366,0.366,569.259
137724,144158,13865,-0.145,-0.937,-0.193,-0.061,0.366,0.366,569.266
137723,144327,10972,-0.146,-0.94,-0.195,-0.732,0.366,0.244,569.269
137723,144141,13850,-0.149,-0.943,-0.194,-0.732,0.366,0.244,569.275
137723,144327,10972,-0.145,-0.943,-0.192,-0.793,0.305,0.122,569.279
137723,144140,13854,-0.146,-0.946,-0.193,-0.793,0.305,0.122,569.285
137725,144327,10972,-0.144,-0.949,-0.195,-0.305,0.549,0.183,569.289
137725,144141,13869,-0.141,-0.946,-0.198,-0.305,0.549,0.183,569.295
137724,144327,10972,-0.144,-0.941,-0.198,-0.366,0.549,0.488,569.299
137724,144144,13869,-0.141,-0.941,-0.197,-0.366,0.549,0.488,569.305
137732,144327,10972,-0.141,-0.939,-0.201,-0.427,0.549,0.549,569.309
137732,144128,13855,-0.143,-0.942,-0.197,-0.427,0.549,0.549,569.315
137730,144327,10972,-0.143,-0.944,-0.195,0,0.61,0.427,569.319
137730,144134,13858,-0.142,-0.944,-0.194,0,0.61,0.427,569.325
137709,144071,10972,-0.142,-0.942,-0.197,-0.061,0.671,0.488,569.329
137709,144121,13858,-0.149,-0.938,-0.197,-0.061,0.671,0.488,569.335
137727,144327,10972,-0.146,-0.938,-0.198,-0.366,0.732,0.427,569.339
137727,144136,13850,-0.143,-0.942,-0.192,-0.366,0.732,0.427,569.345
137729,144327,10972,-0.143,-0.944,-0.188,-0.305,0.732,-0.061,569.348
137729,144138,13851,-0.14,-0.945,-0.194,-0.305,0.732,-0.061,569.355
137717,144327,10972,-0.142,-0.948,-0.203,-0.61,0.549,0.061,569.358
137717,144138,13856,-0.143,-0.947,-0.206,-0.61,0.549,0.061,569.365
137727,144071,10972,-0.139,-0.952,-0.203,-0.793,0.305,0.183,569.368
137727,144126,13865,-0.139,-0.954,-0.2,-0.793,0.305,0.183,569.374
137717,144327,10972,-0.141,-0.951,-0.196,-0.061,0.244,0.488,569.378
137717,144136,13850,-0.14,-0.948,-0.204,-0.061,0.244,0.488,569.384
137711,144071,10972,-0.142,-0.942,-0.205,0.183,0.427,0.671,569.388
137711,144124,13850,-0.143,-0.939,-0.202,0.183,0.427,0.671,569.394
137713,144327,10972,-0.143,-0.942,-0.198,0.427,0.305,0.549,569.398
137713,144135,13869,-0.147,-0.94,-0.194,0.427,0.305,0.549,569.404
137733,144327,10972,-0.146,-0.938,-0.191,0.122,0.305,0.488,569.408
137733,144132,13849,-0.143,-0.938,-0.198,0.122,0.305,0.488,569.414
137713,144327,10972,-0.144,-0.938,-0.199,-0.61,0.305,0.427,569.418
137713,144160,13856,-0.149,-0.938,-0.198,-0.61,0.305,0.427,569.424
137731,144327,10972,-0.145,-0.941,-0.198,-0.732,0.183,0.244,569.428
137731,144132,13847,-0.143,-0.943,-0.199,-0.732,0.183,0.244,569.434
137724,144327,10972,-0.14,-0.945,-0.195,-0.427,0.061,0.305,569.438
137724,144147,13842,-0.141,-0.947,-0.187,-0.427,0.061,0.305,569.444
137732,144327,10972,-0.142,-0.949,-0.19,0,0.366,0.427,569.447
137732,144147,13855,-0.145,-0.945,-0.194,0,0.366,0.427,569.454
137726,144327,10972,-0.145,-0.945,-0.194,0,0.366,0.427,569.457
137726,144140,13862,-0.14,-0.947,-0.196,-0.244,0.671,0.427,569.464
137715,144327,10972,-0.14,-0.947,-0.196,-0.244,0.671,0.427,569.467
137715,144149,13867,-0.135,-0.949,-0.191,-0.183,0.366,0.488,569.473
137750,144327,10972,-0.135,-0.949,-0.191,-0.183,0.366,0.488,569.477
137750,144142,13855,-0.141,-0.943,-0.2,-0.366,0.488,0.549,569.483
137753,144327,10972,-0.141,-0.943,-0.2,-0.366,0.488,0.549,569.487
137753,144134,13848,-0.138,-0.941,-0.199,-0.488,0.732,0.549,569.493
137717,144071,10972,-0.138,-0.941,-0.199,-0.488,0.732,0.549,569.497
137717,144122,13865,-0.143,-0.942,-0.197,-0.244,0.427,0.366,569.503
137727,144327,10972,-0.143,-0.942,-0.197,-0.244,0.427,0.366,569.507
137727,144147,13866,-0.144,-0.94,-0.194,-0.305,0.244,0.366,569.513
137734,144327,10972,-0.144,-0.94,-0.194,-0.305,0.244,0.366,569.517
137734,144146,13844,-0.144,-0.943,-0.202,-0.061,0.305,0.366,569.523
137737,144327,10972,-0.144,-0.943,-0.202,-0.061,0.305,0.366,569.527
137737,144137,13861,-0.147,-0.939,-0.197,0.366,0.366,0.366,569.533
137717,144071,10972,-0.147,-0.939,-0.197,0.366,0.366,0.366,569.537
137717,144122,13853,-0.145,-0.941,-0.193,0.488,0.366,0.366,569.543
137720,144071,10972,-0.145,-0.941,-0.193,0.488,0.366,0.366,569.546
137720,144114,13850,-0.146,-0.945,-0.191,0.244,0.488,0.305,569.553
137717,144327,10972,-0.146,-0.945,-0.191,0.244,0.488,0.305,569.556
137717,144160,13856,-0.145,-0.939,-0.201,-0.366,0.732,0.305,569.563
137731,144327,10972,-0.145,-0.939,-0.201,-0.366,0.732,0.305,569.566
137731,144140,13869,-0.142,-0.947,-0.207,-0.732,0.732,0.244,569.572
137720,144327,10972,-0.142,-0.947,-0.207,-0.732,0.732,0.244,569.576
137720,144139,13852,-0.143,-0.948,-0.204,-0.305,0.366,0.183,569.582
137734,144327,10972,-0.143,-0.948,-0.204,-0.305,0.366,0.183,569.586
137734,144167,13860,-0.141,-0.944,-0.195,0.244,0.244,0.427,569.592
137742,144327,10972,-0.141,-0.944,-0.195,0.244,0.244,0.427,569.596
137742,144150,13859,-0.142,-0.943,-0.189,0.671,0.366,0.427,569.602
137742,144327,10972,-0.142,-0.943,-0.189,0.671,0.366,0.427,569.606
137742,144144,13864,-0.142,-0.94,-0.187,0.427,0.366,0.427,569.612
137726,144327,10972,-0.143,-0.942,-0.192,0.427,0.366,0.427,569.616
137726,144138,13842,-0.141,-0.94,-0.195,-0.122,0.305,0.366,569.622
137742,144327,10972,-0.142,-0.94,-0.195,-0.122,0.305,0.366,569.626
137742,144134,13859,-0.141,-0.941,-0.2,-0.488,0.061,0.183,569.632
137727,144327,10972,-0.142,-0.944,-0.2,-0.488,0.061,0.183,569.636
137727,144138,13876,-0.139,-0.949,-0.197,-0.122,0.183,0.305,569.642
137724,144071,10972,-0.142,-0.946,-0.198,-0.122,0.183,0.305,569.646
137724,144116,13865,-0.143,-0.945,-0.2,0.427,0.305,0.427,569.652
137729,144071,10972,-0.144,-0.945,-0.198,0.427,0.305,0.427,569.655
137729,144120,13862,-0.144,-0.942,-0.194,0.061,0.366,0.488,569.662
137722,144071,10972,-0.141,-0.941,-0.195,0.061,0.366,0.488,569.665
137722,144115,13870,-0.141,-0.939,-0.198,-0.305,0.427,0.305,569.671
137721,144327,10972,-0.143,-0.942,-0.199,-0.305,0.427,0.305,569.675
137721,144154,13860,-0.144,-0.942,-0.199,-0.549,0.61,0.244,569.681
137732,144327,10972,-0.144,-0.946,-0.199,-0.549,0.61,0.244,569.685
137732,144143,13870,-0.145,-0.946,-0.196,-0.244,0.427,0.122,569.691
137728,144327,10972,-0.145,-0.943,-0.196,-0.244,0.427,0.122,569.695
137728,144152,13862,-0.143,-0.944,-0.201,0.305,0.244,0.122,569.701
137738,144071,10972,-0.144,-0.945,-0.197,0.305,0.244,0.122,569.705
137738,144126,13857,-0.146,-0.944,-0.195,0.305,0.183,0.183,569.711
137728,144327,10972,-0.145,-0.941,-0.194,0.305,0.183,0.183,569.715
137728,144130,13875,-0.142,-0.939,-0.197,0.122,0.305,0.244,569.721
137730,144327,10972,-0.141,-0.94,-0.193,0.122,0.305,0.244,569.725
137730,144151,13875,-0.144,-0.942,-0.193,0,0.427,0.183,569.731
137752,144327,10972,-0.141,-0.948,-0.192,0,0.427,0.183,569.735
137752,144146,13867,-0.14,-0.946,-0.189,0.122,0.488,0.122,569.741
137738,144327,10972,-0.143,-0.944,-0.191,0.122,0.488,0.122,569.745
137738,144138,13875,-0.145,-0.944,-0.195,0.122,0.549,0.244,569.751
137727,144327,10972,-0.142,-0.944,-0.198,0.122,0.549,0.244,569.754
137727,144138,13869,-0.141,-0.944,-0.197,0.183,0.488,0.305,569.761
137740,144327,10972,-0.142,-0.943,-0.193,0.183,0.488,0.305,569.764
137740,144142,13863,-0.141,-0.945,-0.193,-0.244,0.427,0.427,569.771
137710,144327,10972,-0.141,-0.945,-0.196,-0.244,0.427,0.427,569.774
137710,144137,13861,-0.141,-0.943,-0.196,-0.549,0.61,0.488,569.78
137730,144327,10972,-0.144,-0.944,-0.197,-0.549,0.61,0.488,569.784
137730,144161,13855,-0.144,-0.941,-0.199,-0.793,0.793,0.549,569.79
137717,144327,10972,-0.145,-0.942,-0.198,-0.793,0.793,0.549,569.794
137717,144157,13868,-0.143,-0.942,-0.2,-0.671,0.61,0.427,569.8
137729,144327,10972,-0.142,-0.942,-0.198,-0.671,0.61,0.427,569.804
137729,144167,13875,-0.143,-0.945,-0.193,-0.244,0.427,0.549,569.81
137736,144327,10972,-0.144,-0.942,-0.194,-0.244,0.427,0.549,569.814
137736,144141,13854,-0.143,-0.943,-0.193,0.305,0.488,0.549,569.82
137705,144327,10972,-0.141,-0.942,-0.192,0.305,0.488,0.549,569.824
137705,144133,13861,-0.147,-0.942,-0.19,0.305,0.366,0.427,569.83
137719,144327,10972,-0.147,-0.939,-0.197,0.305,0.366,0.427,569.834
137719,144144,13865,-0.146,-0.941,-0.198,-0.061,0.305,0.305,569.84
137740,144071,10972,-0.144,-0.943,-0.197,-0.061,0.305,0.305,569.844
137740,144120,13868,-0.143,-0.941,-0.2,-0.549,0.366,0.122,569.85
137720,144071,10972,-0.142,-0.943,-0.204,-0.549,0.366,0.122,569.853
137720,144112,13865,-0.144,-0.948,-0.199,-0.915,0.366,0.061,569.86
137722,144327,10972,-0.144,-0.95,-0.198,-0.915,0.366,0.061,569.863
137722,144137,13867,-0.14,-0.951,-0.197,-0.366,0.427,0.122,569.869
137740,144327,10972,-0.14,-0.95,-0.196,-0.366,0.427,0.122,569.873
137740,144144,13860,-0.139,-0.947,-0.197,-0.183,0.244,0.427,569.879
137731,144327,10972,-0.143,-0.942,-0.198,-0.183,0.244,0.427,569.883
137731,144139,13854,-0.141,-0.939,-0.194,0,0.183,0.671,569.889
137735,144071,10972,-0.144,-0.941,-0.196,0,0.183,0.671,569.893
137735,144111,13869,-0.146,-0.94,-0.195,0.366,0.183,0.549,569.899
137709,144327,10972,-0.145,-0.938,-0.192,0.366,0.183,0.549,569.903
137709,144147,13867,-0.146,-0.939,-0.199,0.244,0.183,0.549,569.909
137713,144327,10972,-0.143,-0.939,-0.197,0.244,0.183,0.549,569.913
137713,144146,13859,-0.144,-0.941,-0.192,0.244,0.183,0.244,569.919
137718,144327,10972,-0.146,-0.941,-0.194,0.244,0.183,0.244,569.923
137718,144151,13868,-0.147,-0.944,-0.196,0.427,0.183,0.061,569.929
137722,144327,10972,-0.145,-0.943,-0.191,0.427,0.183,0.061,569.933
137722,144149,13868,-0.14,-0.946,-0.189,0.305,0.183,0,569.939
137730,144327,10972,-0.141,-0.944,-0.19,0.305,0.183,0,569.943
137730,144136,13868,-0.141,-0.947,-0.193,0.122,0.366,0.061,569.949
137739,144071,10972,-0.142,-0.949,-0.192,0.122,0.366,0.061,569.952
137739,144124,13853,-0.139,-0.95,-0.187,0.244,0.549,0,569.959
137724,144071,10972,-0.139,-0.948,-0.189,0.244,0.549,0,569.962
137724,144109,13864,-0.141,-0.945,-0.191,-0.366,0.61,0.305,569.969
137733,144327,10972,-0.143,-0.943,-0.2,-0.366,0.61,0.305,569.972
137733,144130,13867,-0.146,-0.941,-0.207,-1.341,0.61,0.427,569.978
137724,144327,10972,-0.145,-0.945,-0.201,-1.341,0.61,0.427,569.982
137724,144129,13860,-0.141,-0.945,-0.197,-0.915,0.427,0.305,569.988
137743,144071,10972,-0.14,-0.947,-0.198,-0.915,0.427,0.305,569.992
137743,144127,13854,-0.141,-0.948,-0.192,-0.61,0.488,0.61,569.998
137727,144327,10972,-0.14,-0.945,-0.193,-0.61,0.488,0.61,570.002
137727,144129,13860,-0.143,-0.945,-0.194,-0.854,0.549,0.793,570.008
137718,144327,10972,-0.147,-0.943,-0.199,-0.854,0.549,0.793,570.012
137718,144132,13860,-0.144,-0.939,-0.196,-0.671,0.427,0.732,570.018
137721,144327,10972,-0.139,-0.941,-0.196,-0.671,0.427,0.732,570.022
137721,144134,13879,-0.141,-0.94,-0.195,-0.427,0.183,0.61,570.028
137732,144327,10972,-0.143,-0.941,-0.195,-0.427,0.183,0.61,570.032
137732,144150,13876,-0.144,-0.942,-0.198,0.122,0.244,0.61,570.038
137749,144071,10972,-0.144,-0.943,-0.203,0.122,0.244,0.61,570.042
137749,144118,13861,-0.143,-0.941,-0.203,0.549,0.305,0.427,570.048
137724,144071,10972,-0.146,-0.939,-0.198,0.549,0.305,0.427,570.051
137724,144125,13863,-0.146,-0.941,-0.195,0.366,0.122,0.305,570.058
137728,144327,10972,-0.146,-0.941,-0.195,0.366,0.122,0.305,570.061
137728,144143,13865,-0.144,-0.944,-0.197,0.366,0.183,0.305,570.068
137719,144071,10972,-0.144,-0.944,-0.197,0.366,0.183,0.305,570.071
137719,144123,13858,-0.149,-0.945,-0.186,0,0.488,0.305,570.077
137731,144327,10972,-0.149,-0.945,-0.186,0,0.488,0.305,570.081
137731,144144,13858,-0.146,-0.936,-0.198,-0.671,0.671,0.427,570.087
137725,144327,10972,-0.146,-0.936,-0.198,-0.671,0.671,0.427,570.091
137725,144140,13857,-0.144,-0.943,-0.203,-1.098,0.427,0.122,570.097
137746,144327,10972,-0.144,-0.943,-0.203,-1.098,0.427,0.122,570.101
137746,144128,13863,-0.142,-0.948,-0.196,-1.22,0.244,0.305,570.107
137733,144327,10972,-0.142,-0.948,-0.196,-1.22,0.244,0.305,570.111
137733,144148,13870,-0.14,-0.948,-0.206,-1.341,0.427,0.671,570.117
137746,144071,10972,-0.14,-0.948,-0.206,-1.341,0.427,0.671,570.121
137746,144127,13860,-0.141,-0.946,-0.198,-0.793,0.427,0.732,570.127
137728,144327,10972,-0.141,-0.946,-0.198,-0.793,0.427,0.732,570.131
137728,144135,13861,-0.142,-0.941,-0.192,-0.183,0.366,0.854,570.137
137726,144071,10972,-0.142,-0.941,-0.192,-0.183,0.366,0.854,570.141
137726,144117,13864,-0.146,-0.941,-0.192,0.305,0.488,0.671,570.147
137713,144327,10972,-0.146,-0.941,-0.192,0.305,0.488,0.671,570.15
137713,144128,13859,-0.143,-0.939,-0.196,0.244,0.305,0.427,570.157
137737,144327,10972,-0.143,-0.939,-0.196,0.244,0.305,0.427,570.16
137737,144151,13858,-0.143,-0.946,-0.199,-0.122,0.183,0.122,570.167
137744,144327,10972,-0.143,-0.946,-0.199,-0.122,0.183,0.122,570.17
137744,144155,13849,-0.14,-0.948,-0.197,0.061,0.183,0.183,570.176
137724,144327,10972,-0.14,-0.948,-0.197,0.061,0.183,0.183,570.18
137724,144143,13858,-0.146,-0.942,-0.193,0.244,0.366,0.427,570.186
137738,144071,10972,-0.146,-0.942,-0.193,0.244,0.366,0.427,570.19
137738,144126,13858,-0.144,-0.941,-0.191,0.183,0.427,0.549,570.196
137733,144327,10972,-0.144,-0.941,-0.191,0.183,0.427,0.549,570.2
137733,144129,13877,-0.146,-0.941,-0.196,0.183,0.427,0.549,570.206
137732,144327,10972,-0.147,-0.94,-0.201,-0.244,0.427,0.427,570.21
137732,144148,13867,-0.146,-0.943,-0.196,-0.244,0.427,0.427,570.216
137746,144327,10972,-0.145,-0.944,-0.195,-0.854,0.427,0.305,570.22
137746,144145,13871,-0.142,-0.944,-0.192,-0.854,0.427,0.305,570.226
137736,144327,10972,-0.142,-0.946,-0.19,-0.915,0.549,0.366,570.23
137736,144133,13862,-0.142,-0.945,-0.197,-0.915,0.549,0.366,570.236
137746,144327,10972,-0.143,-0.946,-0.202,-0.915,0.854,0.427,570.24
137746,144130,13863,-0.142,-0.945,-0.204,-0.915,0.854,0.427,570.246
137757,144327,10972,-0.143,-0.942,-0.204,-1.098,0.732,0.488,570.249
137757,144137,13871,-0.142,-0.943,-0.2,-1.098,0.732,0.488,570.256
137787,144327,10972,-0.139,-0.943,-0.192,-0.793,0.488,0.732,570.259
137787,144141,13855,-0.143,-0.942,-0.193,-0.793,0.488,0.732,570.266
137742,144327,10972,-0.145,-0.943,-0.201,-0.427,0.732,0.61,570.269
137742,144144,13879,-0.143,-0.943,-0.202,-0.427,0.732,0.61,570.275
137735,144327,10972,-0.142,-0.944,-0.201,-0.915,0.549,0.488,570.279
137735,144133,13873,-0.142,-0.942,-0.198,-0.915,0.549,0.488,570.285
137717,144327,10972,-0.142,-0.939,-0.199,-1.159,0.122,0.732,570.289
137717,144139,13871,-0.143,-0.94,-0.198,-1.159,0.122,0.732,570.295
137730,144327,10972,-0.146,-0.939,-0.196,-0.732,0.244,0.61,570.299
137730,144143,13872,-0.146,-0.939,-0.193,-0.732,0.244,0.61,570.305
137736,144071,10972,-0.142,-0.943,-0.194,-0.183,0.305,0.488,570.309
137736,144121,13865,-0.139,-0.945,-0.196,-0.183,0.305,0.488,570.315
137748,144071,10972,-0.14,-0.945,-0.196,0.244,0.366,0.549,570.319
137748,144127,13871,-0.139,-0.946,-0.197,0.244,0.366,0.549,570.325
137734,144071,10972,-0.139,-0.944,-0.201,0.366,0.305,0.488,570.329
137734,144127,13859,-0.139,-0.943,-0.197,0.366,0.305,0.488,570.335
137737,144071,10972,-0.141,-0.942,-0.198,0.427,0.305,0.366,570.339
137737,144116,13877,-0.139,-0.941,-0.195,0.427,0.305,0.366,570.345
137742,144327,10972,-0.142,-0.942,-0.193,0.732,0.549,0.244,570.348
137742,144145,13867,-0.145,-0.939,-0.198,0.732,0.549,0.244,570.355
137743,144071,10972,-0.148,-0.944,-0.197,-0.244,0.61,0.183,570.358
137743,144127,13867,-0.147,-0.947,-0.194,-0.244,0.61,0.183,570.365
137747,144071,10972,-0.148,-0.95,-0.2,-0.854,0.549,0.488,570.368
137747,144122,13857,-0.151,-0.943,-0.2,-0.854,0.549,0.488,570.374
137726,144327,10972,-0.15,-0.939,-0.202,-1.646,0.366,0.61,570.378
137726,144144,13862,-0.147,-0.947,-0.198,-1.646,0.366,0.61,570.384
137720,144071,10972,-0.146,-0.952,-0.195,-1.22,0.244,0.366,570.388
137720,144125,13876,-0.143,-0.95,-0.195,-1.22,0.244,0.366,570.394
137710,144327,10972,-0.146,-0.942,-0.198,-0.244,0.61,0.549,570.398
137710,144135,13881,-0.148,-0.939,-0.201,-0.244,0.61,0.549,570.404
137705,144071,10972,-0.145,-0.941,-0.196,-0.061,0.488,0.671,570.408
137705,144105,13875,-0.144,-0.941,-0.191,-0.061,0.488,0.671,570.414
137721,144071,10972,-0.143,-0.94,-0.188,0,0.366,0.549,570.418
137721,144112,13846,-0.145,-0.935,-0.195,0,0.366,0.549,570.424
137712,144327,10972,-0.144,-0.938,-0.2,-0.732,0.732,0.366,570.428
137712,144161,13867,-0.143,-0.944,-0.199,-0.732,0.732,0.366,570.434
137722,144071,10972,-0.143,-0.945,-0.201,-0.305,0.793,0.061,570.438
137722,144117,13873,-0.143,-0.946,-0.206,-0.305,0.793,0.061,570.444
137722,144071,10972,-0.141,-0.945,-0.208,0.427,0.305,0.183,570.448
137722,144107,13863,-0.138,-0.945,-0.21,0.427,0.305,0.183,570.454
137716,144071,10972,-0.136,-0.947,-0.199,0.732,-0.183,0.427,570.457
137716,144101,13873,-0.137,-0.944,-0.187,0.732,-0.183,0.427,570.464
137706,144071,10972,-0.14,-0.943,-0.187,0.183,0.122,0.61,570.467
137706,144117,13878,-0.142,-0.94,-0.196,0.183,0.122,0.61,570.473
137710,144327,10972,-0.144,-0.941,-0.206,-0.122,0.671,0.305,570.477
137710,144131,13866,-0.147,-0.943,-0.201,-0.122,0.671,0.305,570.483
137738,144327,10972,-0.144,-0.948,-0.19,0.183,0.305,0.183,570.487
137738,144134,13875,-0.143,-0.949,-0.184,0.183,0.305,0.183,570.493
137724,144327,10972,-0.143,-0.948,-0.195,-0.488,-0.122,0.366,570.497
137724,144132,13864,-0.142,-0.946,-0.202,-0.488,-0.122,0.366,570.503
137732,144327,10972,-0.143,-0.944,-0.203,-0.366,0.305,0.427,570.507
137732,144130,13871,-0.15,-0.941,-0.2,-0.366,0.305,0.427,570.513
137720,144327,10972,-0.148,-0.938,-0.202,0.366,0.427,0.366,570.517
137720,144128,13873,-0.147,-0.941,-0.203,0.366,0.427,0.366,570.523
137715,144327,10972,-0.145,-0.942,-0.203,0.549,0.183,0.427,570.527
137715,144137,13877,-0.144,-0.94,-0.201,0.549,0.183,0.427,570.533
137735,144327,10972,-0.142,-0.939,-0.198,0.061,0.061,0.244,570.537
137735,144132,13882,-0.143,-0.941,-0.197,0.061,0.061,0.244,570.543
137719,144071,10972,-0.144,-0.945,-0.196,-0.488,0.305,0,570.547
137719,144096,13865,-0.143,-0.95,-0.194,-0.488,0.305,0,570.553
137708,144071,10972,-0.144,-0.946,-0.198,-0.488,0.305,0.122,570.556
137708,144122,13876,-0.142,-0.948,-0.188,-0.488,0.305,0.122,570.563
137705,144327,10972,-0.144,-0.949,-0.181,-0.122,0.244,0.244,570.566
137705,144130,13880,-0.144,-0.946,-0.184,-0.122,0.244,0.244,570.572
137713,144327,10972,-0.142,-0.939,-0.19,0,0.427,0.488,570.576
137713,144149,13878,-0.141,-0.938,-0.205,0,0.427,0.488,570.582
137728,144071,10972,-0.141,-0.941,-0.205,-0.305,0.488,0.427,570.586
137728,144103,13873,-0.14,-0.948,-0.197,-0.305,0.488,0.427,570.592
137710,144071,10972,-0.139,-0.946,-0.189,-0.427,0.549,0.488,570.596
137710,144115,13876,-0.145,-0.939,-0.203,-0.427,0.549,0.488,570.602
137699,144071,10972,-0.146,-0.933,-0.21,-0.671,0.915,0.854,570.606
137699,144121,13885,-0.146,-0.939,-0.207,-0.671,0.915,0.854,570.612
137743,144327,10972,-0.149,-0.943,-0.193,0,0.793,0.427,570.616
137743,144137,13876,-0.142,-0.95,-0.191,0,0.793,0.427,570.622
137732,144327,10972,-0.14,-0.944,-0.198,-0.183,0.366,0.427,570.626
137732,144144,13878,-0.141,-0.941,-0.203,-0.183,0.366,0.427,570.632
137719,144327,10972,-0.146,-0.944,-0.2,-0.366,0.366,0.549,570.636
137719,144130,13874,-0.146,-0.947,-0.196,-0.366,0.366,0.549,570.642
137727,144327,10972,-0.143,-0.945,-0.198,0.549,0.427,0.366,570.646
137727,144136,13883,-0.142,-0.94,-0.195,0.549,0.427,0.366,570.652
137729,144327,10972,-0.142,-0.94,-0.195,0.549,0.427,0.366,570.655
137729,144128,13882,-0.146,-0.94,-0.202,0.183,0.305,0.427,570.662
137728,144071,10972,-0.146,-0.94,-0.202,0.183,0.305,0.427,570.665
137728,144125,13880,-0.148,-0.941,-0.198,0,0.366,0.244,570.672
137728,144071,10972,-0.148,-0.941,-0.198,0,0.366,0.244,570.675
137728,144115,13872,-0.143,-0.942,-0.194,0,0.244,0.061,570.681
137712,144071,10972,-0.143,-0.942,-0.194,0,0.244,0.061,570.685
137712,144123,13868,-0.144,-0.948,-0.197,-0.427,0.061,0.244,570.691
137719,144071,10972,-0.144,-0.948,-0.197,-0.427,0.061,0.244,570.695
137719,144103,13893,-0.145,-0.945,-0.201,-0.305,0.366,0.305,570.701
137727,144071,10972,-0.145,-0.945,-0.201,-0.305,0.366,0.305,570.705
137727,144125,13886,-0.142,-0.94,-0.198,-0.183,0.488,0.366,570.711
137737,144071,10972,-0.142,-0.94,-0.198,-0.183,0.488,0.366,570.715
137737,144120,13867,-0.145,-0.942,-0.198,0.122,0.488,0.488,570.721
137735,144071,10972,-0.145,-0.942,-0.198,0.122,0.488,0.488,570.725
137735,144115,13887,-0.14,-0.94,-0.203,0.061,0.488,0.549,570.731
137725,144327,10972,-0.14,-0.94,-0.203,0.061,0.488,0.549,570.735
137725,144136,13872,-0.144,-0.945,-0.199,-0.488,0.427,0.305,570.741
137739,144327,10972,-0.144,-0.945,-0.199,-0.488,0.427,0.305,570.745
137739,144138,13884,-0.142,-0.947,-0.194,-0.549,0.244,0.244,570.751
137737,144327,10972,-0.142,-0.947,-0.194,-0.549,0.244,0.244,570.754
137737,144165,13883,-0.145,-0.947,-0.188,-0.427,0.305,0.427,570.761
137764,144327,10972,-0.145,-0.947,-0.188,-0.427,0.305,0.427,570.764
137764,144144,13867,-0.148,-0.94,-0.19,-0.183,0.61,0.366,570.771
137740,144327,10972,-0.148,-0.94,-0.19,-0.183,0.61,0.366,570.774
137740,144130,13887,-0.145,-0.939,-0.2,-0.183,0.793,0.244,570.78
137736,144327,10972,-0.145,-0.939,-0.2,-0.183,0.793,0.244,570.784
137736,144136,13879,-0.14,-0.944,-0.204,-0.854,0.305,0.244,570.79
137751,144327,10972,-0.14,-0.944,-0.204,-0.854,0.305,0.244,570.794
137751,144152,13881,-0.14,-0.948,-0.199,-0.793,0.244,0.366,570.8
137746,144327,10972,-0.14,-0.948,-0.199,-0.793,0.244,0.366,570.804
137746,144154,13872,-0.141,-0.947,-0.197,-0.061,0.61,0.427,570.81
137769,144327,10972,-0.144,-0.942,-0.199,-0.061,0.61,0.427,570.814
137769,144143,13872,-0.143,-0.938,-0.199,0.183,0.732,0.427,570.82
137737,144071,10972,-0.144,-0.936,-0.203,0.183,0.732,0.427,570.824
137737,144121,13897,-0.144,-0.937,-0.206,0.183,0.427,0.427,570.83
137738,144327,10972,-0.145,-0.939,-0.2,0.183,0.427,0.427,570.834
137738,144132,13876,-0.144,-0.942,-0.193,0.549,0.244,0.244,570.84
137741,144327,10972,-0.143,-0.942,-0.191,0.549,0.244,0.244,570.844
137741,144135,13889,-0.143,-0.944,-0.196,0.427,0.183,0.244,570.85
137755,144327,10972,-0.142,-0.945,-0.199,0.427,0.183,0.244,570.853
137755,144160,13876,-0.144,-0.943,-0.195,0.183,0.305,0.122,570.86
137730,144327,10972,-0.144,-0.945,-0.196,0.183,0.305,0.122,570.863
137730,144144,13897,-0.142,-0.947,-0.195,0.061,0.122,0.183,570.87
137755,144327,10972,-0.142,-0.946,-0.192,0.061,0.122,0.183,570.873
137755,144160,13887,-0.146,-0.946,-0.193,0.122,0.122,0.366,570.879
137739,144327,10972,-0.144,-0.943,-0.197,0.122,0.122,0.366,570.883
137739,144138,13875,-0.142,-0.94,-0.198,-0.427,0.305,0.488,570.889
137758,144327,10972,-0.144,-0.944,-0.199,-0.427,0.305,0.488,570.893
137758,144161,13898,-0.143,-0.947,-0.199,-0.671,0.305,0.488,570.899
137739,144327,10972,-0.141,-0.948,-0.2,-0.671,0.305,0.488,570.903
137739,144155,13881,-0.144,-0.944,-0.201,-0.244,0.366,0.61,570.909
137765,144327,10972,-0.142,-0.942,-0.194,-0.244,0.366,0.61,570.913
137765,144152,13866,-0.144,-0.941,-0.191,-0.183,0.61,0.671,570.919
137773,144327,10972,-0.143,-0.94,-0.189,-0.183,0.61,0.671,570.923
137773,144159,13883,-0.145,-0.938,-0.199,-0.122,0.671,0.488,570.929
137755,144327,10972,-0.142,-0.938,-0.196,-0.122,0.671,0.488,570.933
137755,144158,13883,-0.146,-0.941,-0.189,-0.671,0.671,0.244,570.939
137754,144327,10972,-0.147,-0.942,-0.186,-0.671,0.671,0.244,570.943
137754,144170,13876,-0.144,-0.944,-0.194,-1.037,0.61,0.305,570.949
137773,144327,10972,-0.145,-0.947,-0.202,-1.037,0.61,0.305,570.952
137773,144155,13886,-0.146,-0.948,-0.202,-1.098,0.61,0.366,570.959
137764,144327,10972,-0.146,-0.947,-0.202,-1.098,0.61,0.366,570.962
137764,144129,13886,-0.143,-0.945,-0.202,-0.915,0.488,0.61,570.969
137772,144327,10972,-0.141,-0.942,-0.202,-0.915,0.488,0.61,570.972
137772,144130,13873,-0.146,-0.941,-0.199,-0.549,0.549,0.732,570.978
137740,144327,10972,-0.148,-0.94,-0.201,-0.549,0.549,0.732,570.982
137740,144133,13870,-0.146,-0.939,-0.205,0,0.732,0.732,570.988
137745,144327,10972,-0.144,-0.941,-0.198,0,0.732,0.732,570.992
137745,144138,13880,-0.145,-0.946,-0.192,-0.122,0.793,0.488,570.998
137754,144071,10972,-0.144,-0.944,-0.192,-0.122,0.793,0.488,571.002
137754,144127,13879,-0.147,-0.942,-0.195,-0.61,0.793,0.549,571.008
137751,144327,10972,-0.145,-0.938,-0.195,-0.61,0.793,0.549,571.012
137751,144153,13870,-0.144,-0.938,-0.197,-1.22,0.732,0.305,571.018
137761,144327,10972,-0.146,-0.943,-0.198,-1.22,0.732,0.305,571.022
137761,144143,13860,-0.146,-0.943,-0.203,-0.61,0.671,0,571.028
137760,144327,10972,-0.145,-0.948,-0.207,-0.61,0.671,0,571.032
137760,144133,13880,-0.143,-0.944,-0.204,-0.061,0.488,0.183,571.038
137754,144327,10972,-0.143,-0.943,-0.203,-0.061,0.488,0.183,571.042
137754,144130,13882,-0.142,-0.944,-0.199,0.061,0.183,0.427,571.048
137745,144327,10972,-0.139,-0.941,-0.198,0.061,0.183,0.427,571.051
137745,144145,13877,-0.142,-0.94,-0.197,0.183,0.305,0.427,571.058
137769,144327,10972,-0.143,-0.94,-0.196,0.183,0.305,0.427,571.061
137769,144175,13889,-0.141,-0.943,-0.199,0.244,0.671,0.366,571.068
137766,144071,10972,-0.143,-0.941,-0.193,0.244,0.671,0.366,571.071
137766,144124,13893,-0.143,-0.942,-0.197,-0.244,0.671,0.366,571.077
137780,144327,10972,-0.141,-0.948,-0.197,-0.244,0.671,0.366,571.081
137780,144163,13883,-0.14,-0.95,-0.196,-0.366,0.427,0.305,571.087
137752,144071,10972,-0.14,-0.947,-0.2,-0.366,0.427,0.305,571.091
137752,144125,13868,-0.145,-0.943,-0.204,-0.366,0.549,0.488,571.097
137739,144327,10972,-0.145,-0.941,-0.201,-0.366,0.549,0.488,571.101
137739,144139,13878,-0.145,-0.938,-0.2,-0.549,0.549,0.549,571.107
137755,144327,10972,-0.145,-0.943,-0.194,-0.549,0.549,0.549,571.111
137755,144135,13884,-0.146,-0.94,-0.199,-0.427,0.305,0.488,571.117
137752,144327,10972,-0.148,-0.941,-0.202,-0.427,0.305,0.488,571.121
137752,144166,13883,-0.147,-0.942,-0.198,-0.549,0.305,0.549,571.127
137740,144327,10972,-0.145,-0.948,-0.196,-0.549,0.305,0.549,571.131
137740,144140,13895,-0.144,-0.949,-0.194,-0.427,0.122,0.427,571.137
137753,144327,10972,-0.143,-0.947,-0.194,-0.427,0.122,0.427,571.141
137753,144138,13891,-0.142,-0.944,-0.193,-0.671,0.183,0.671,571.147
137749,144327,10972,-0.144,-0.939,-0.194,-0.671,0.183,0.671,571.151
137749,144137,13902,-0.146,-0.94,-0.196,-0.549,0.61,0.427,571.157
137753,144327,10972,-0.145,-0.944,-0.194,-0.549,0.61,0.427,571.16
137753,144146,13892,-0.144,-0.945,-0.195,0.061,0.61,0.122,571.167
137768,144327,10972,-0.139,-0.949,-0.198,0.061,0.61,0.122,571.17
137768,144149,13891,-0.139,-0.946,-0.2,0.061,0.244,0.305,571.176
137752,144327,10972,-0.139,-0.945,-0.206,0.061,0.244,0.305,571.18
137752,144128,13900,-0.139,-0.943,-0.206,0.305,0.122,0.366,571.186
137755,144327,10972,-0.137,-0.943,-0.21,0.305,0.122,0.366,571.19
137755,144144,13882,-0.137,-0.939,-0.205,0.305,0.183,0.183,571.196
137779,144327,10972,-0.141,-0.938,-0.198,0.305,0.183,0.183,571.2
137779,144155,13911,-0.142,-0.941,-0.198,0.061,0.244,0.183,571.206
137760,144327,10972,-0.144,-0.948,-0.198,0.061,0.244,0.183,571.21
137760,144158,13897,-0.144,-0.952,-0.197,0.061,0.427,0.366,571.216
137757,144327,10972,-0.149,-0.945,-0.196,0.061,0.427,0.366,571.22
137757,144143,13884,-0.15,-0.945,-0.201,-0.305,0.366,0.549,571.226
137754,144327,10972,-0.152,-0.938,-0.196,-0.305,0.366,0.549,571.23
137754,144156,13893,-0.151,-0.937,-0.192,-0.305,0.122,0.549,571.236
137777,144327,10972,-0.146,-0.937,-0.186,-0.305,0.122,0.549,571.24
137777,144156,13898,-0.148,-0.943,-0.188,0.549,0.488,0.305,571.246
137776,144327,10972,-0.146,-0.943,-0.196,0.549,0.488,0.305,571.25
137776,144148,13882,-0.148,-0.939,-0.202,-0.244,0.793,0.305,571.256
137761,144327,10972,-0.148,-0.939,-0.202,-0.244,0.793,0.305,571.259
137761,144131,13882,-0.146,-0.943,-0.199,-0.732,0.61,0.122,571.266
137771,144071,10972,-0.146,-0.943,-0.199,-0.732,0.61,0.122,571.269
137771,144126,13894,-0.143,-0.947,-0.205,-0.488,0.366,0,571.276
137772,144327,10972,-0.143,-0.947,-0.205,-0.488,0.366,0,571.279
137772,144130,13883,-0.142,-0.944,-0.201,0,0.305,0.122,571.285
137770,144327,10972,-0.142,-0.944,-0.201,0,0.305,0.122,571.289
137770,144147,13890,-0.137,-0.944,-0.201,0.488,0.244,0.427,571.295
137776,144327,10972,-0.137,-0.944,-0.201,0.488,0.244,0.427,571.299
137776,144157,13903,-0.141,-0.942,-0.196,0.549,0.183,0.427,571.305
137761,144327,10972,-0.141,-0.942,-0.196,0.549,0.183,0.427,571.309
137761,144138,13891,-0.141,-0.941,-0.194,0.366,0.061,0.122,571.315
137796,144327,10972,-0.141,-0.941,-0.194,0.366,0.061,0.122,571.319
137796,144149,13901,-0.145,-0.946,-0.191,0.183,0.183,0.183,571.325
137779,144327,10972,-0.145,-0.946,-0.191,0.183,0.183,0.183,571.329
137779,144152,13910,-0.145,-0.946,-0.192,-0.427,0.488,0.427,571.335
137754,144327,10972,-0.145,-0.946,-0.192,-0.427,0.488,0.427,571.339
137754,144175,13908,-0.146,-0.946,-0.193,-0.671,0.61,0.488,571.345
137767,144327,10972,-0.146,-0.946,-0.193,-0.671,0.61,0.488,571.349
137767,144163,13904,-0.143,-0.94,-0.205,-0.671,0.549,0.549,571.355
137773,144327,10972,-0.143,-0.94,-0.205,-0.671,0.549,0.549,571.358
137773,144177,13897,-0.144,-0.941,-0.2,-0.427,0.732,0.549,571.365
137781,144327,10972,-0.144,-0.941,-0.2,-0.427,0.732,0.549,571.368
137781,144134,13897,-0.144,-0.944,-0.2,-0.488,0.793,0.427,571.375
137766,144327,10972,-0.144,-0.944,-0.2,-0.488,0.793,0.427,571.378
137766,144145,13909,-0.143,-0.941,-0.206,-0.671,0.61,0.183,571.384
137748,144327,10972,-0.143,-0.941,-0.206,-0.671,0.61,0.183,571.388
137748,144151,13910,-0.142,-0.939,-0.2,-0.305,0.244,0.122,571.394
137759,144327,10972,-0.142,-0.939,-0.2,-0.305,0.244,0.122,571.398
137759,144162,13899,-0.146,-0.94,-0.195,-0.305,0.244,0.122,571.404
137786,144327,10972,-0.147,-0.944,-0.194,0.427,0.122,0.122,571.408
137786,144142,13909,-0.143,-0.944,-0.195,0.427,0.122,0.122,571.414
137776,144327,10972,-0.145,-0.945,-0.198,0.854,0.244,0.122,571.418
137776,144148,13904,-0.147,-0.944,-0.201,0.854,0.244,0.122,571.424
137771,144327,10972,-0.144,-0.943,-0.197,0.549,0,0.122,571.428
137771,144147,13918,-0.141,-0.94,-0.197,0.549,0,0.122,571.434
137765,144327,10972,-0.141,-0.941,-0.197,0.366,-0.122,0.061,571.438
137765,144162,13909,-0.143,-0.943,-0.195,0.366,-0.122,0.061,571.444
137787,144327,10972,-0.142,-0.945,-0.193,0.061,0.244,0.061,571.448
137787,144143,13875,-0.143,-0.947,-0.189,0.061,0.244,0.061,571.454
137758,144327,10972,-0.147,-0.946,-0.188,-0.61,0.671,0.427,571.457
137758,144148,13910,-0.144,-0.943,-0.196,-0.61,0.671,0.427,571.464
137768,144327,10972,-0.144,-0.942,-0.2,-1.037,0.732,0.549,571.467
137768,144158,13905,-0.146,-0.946,-0.201,-1.037,0.732,0.549,571.474
137781,144327,10972,-0.141,-0.946,-0.204,-0.732,0.61,0.488,571.477
137781,144146,13891,-0.141,-0.944,-0.203,-0.732,0.61,0.488,571.483
137767,144327,10972,-0.143,-0.943,-0.202,-0.488,0.488,0.61,571.487
137767,144153,13896,-0.143,-0.939,-0.2,-0.488,0.488,0.61,571.493
137750,144327,10972,-0.143,-0.943,-0.2,-0.061,0.427,0.854,571.497
137750,144143,13907,-0.146,-0.943,-0.198,-0.061,0.427,0.854,571.503
137768,144327,10972,-0.145,-0.941,-0.186,0,0.549,0.671,571.507
137768,144161,13917,-0.149,-0.94,-0.189,0,0.549,0.671,571.513
137773,144327,10972,-0.149,-0.936,-0.2,-0.549,0.61,0.427,571.517
