139282,143559,10972,-0.126,-0.948,-0.206,-1.463,1.037,0.732,128.82
139282,143567,14489,-0.126,-0.944,-0.208,-1.159,0.671,0.732,128.826
139269,143559,10972,-0.128,-0.946,-0.204,-1.159,0.671,0.732,128.83
139269,143540,14481,-0.129,-0.946,-0.203,-0.366,0.61,0.793,128.836
139271,143559,10972,-0.131,-0.94,-0.204,-0.366,0.61,0.793,128.84
139271,143528,14474,-0.132,-0.94,-0.202,0.061,0.488,0.488,128.846
139268,143559,10972,-0.13,-0.944,-0.194,0.061,0.488,0.488,128.85
139268,143544,14486,-0.124,-0.945,-0.177,0.122,0.061,0.305,128.856
139232,143559,10972,-0.126,-0.947,-0.168,0.122,0.061,0.305,128.86
139232,143546,14478,-0.128,-0.942,-0.185,-0.854,0.61,0.549,128.866
139238,143559,10972,-0.129,-0.941,-0.204,-0.854,0.61,0.549,128.869
139238,143542,14469,-0.128,-0.94,-0.205,-1.463,0.915,0.427,128.876
139269,143559,10972,-0.126,-0.949,-0.198,-1.463,0.915,0.427,128.879
139269,143536,14471,-0.126,-0.953,-0.199,-0.976,0.366,0.183,128.885
139252,143559,10972,-0.125,-0.95,-0.201,-0.976,0.366,0.183,128.889
139252,143525,14466,-0.12,-0.948,-0.208,-0.488,0.671,0.488,128.895
139247,143559,10972,-0.122,-0.946,-0.206,-0.488,0.671,0.488,128.899
139247,143547,14489,-0.122,-0.945,-0.201,0.244,0.915,0.488,128.905
139252,143559,10972,-0.123,-0.949,-0.195,0.244,0.915,0.488,128.909
139252,143535,14488,-0.122,-0.947,-0.193,-0.122,0.549,0.488,128.915
139257,143559,10972,-0.123,-0.944,-0.201,-0.122,0.549,0.488,128.919
139257,143563,14472,-0.125,-0.94,-0.207,-0.915,0.427,0.61,128.925
139248,143559,10972,-0.128,-0.939,-0.206,-0.915,0.427,0.61,128.929
139248,143561,14484,-0.13,-0.944,-0.201,-0.549,0.366,0.366,128.935
139280,143559,10972,-0.128,-0.947,-0.199,-0.549,0.366,0.366,128.939
139280,143549,14471,-0.127,-0.947,-0.204,0.183,0.122,0.305,128.945
139256,143559,10972,-0.124,-0.944,-0.198,0.183,0.122,0.305,128.949
139256,143529,14460,-0.124,-0.942,-0.197,0.549,-0.183,0.244,128.955
139271,143559,10972,-0.126,-0.938,-0.195,0.549,-0.183,0.244,128.959
139271,143514,14461,-0.125,-0.94,-0.193,0.366,-0.183,0.183,128.965
139258,143559,10972,-0.125,-0.945,-0.191,0.366,-0.183,0.183,128.968
139258,143526,14456,-0.127,-0.948,-0.189,-0.061,0.244,0.183,128.975
139263,143559,10972,-0.129,-0.951,-0.182,-0.061,0.244,0.183,128.978
139263,143536,14459,-0.125,-0.949,-0.18,-0.915,0.854,0.122,128.984
139224,143559,10972,-0.125,-0.949,-0.18,-0.915,0.854,0.122,128.988
139224,143533,14467,-0.135,-0.945,-0.205,-1.098,1.098,0.061,128.994
139232,143559,10972,-0.135,-0.945,-0.205,-1.098,1.098,0.061,128.998
139232,143534,14480,-0.127,-0.948,-0.203,-0.366,0.549,-0.122,129.004
139198,143559,10972,-0.127,-0.948,-0.203,-0.366,0.549,-0.122,129.008
139198,143478,14459,-0.125,-0.945,-0.198,0,0.183,0.183,129.014
139213,143559,10972,-0.125,-0.945,-0.198,0,0.183,0.183,129.018
139213,143497,14453,-0.13,-0.941,-0.201,0.244,0.427,0.366,129.024
139184,143559,10972,-0.13,-0.941,-0.201,0.244,0.427,0.366,129.028
139184,143484,14446,-0.122,-0.948,-0.186,0.244,0,0.244,129.034
139159,143559,10972,-0.122,-0.948,-0.186,0.244,0,0.244,129.038
139159,143482,14455,-0.127,-0.946,-0.193,-0.427,-0.122,0.427,129.044
139170,143559,10972,-0.127,-0.946,-0.193,-0.427,-0.122,0.427,129.048
139170,143469,14439,-0.125,-0.946,-0.192,-0.854,0.244,0.488,129.054
139157,143559,10972,-0.125,-0.946,-0.192,-0.854,0.244,0.488,129.058
139157,143446,14446,-0.122,-0.953,-0.199,-0.854,0.488,0.366,129.064
139143,143559,10972,-0.122,-0.953,-0.199,-0.854,0.488,0.366,129.067
139143,143448,14437,-0.125,-0.949,-0.206,-1.037,0.549,0.61,129.074
139153,143559,10972,-0.125,-0.949,-0.206,-1.037,0.549,0.61,129.077
139153,143465,14439,-0.126,-0.944,-0.205,-1.341,0.488,0.793,129.083
139169,143559,10972,-0.126,-0.944,-0.205,-1.341,0.488,0.793,129.087
139169,143455,14440,-0.13,-0.941,-0.201,-0.854,0.488,0.732,129.093
139159,143559,10972,-0.13,-0.941,-0.201,-0.854,0.488,0.732,129.097
139159,143450,14451,-0.128,-0.948,-0.189,-0.305,0.61,0.732,129.103
139162,143559,10972,-0.128,-0.948,-0.189,-0.305,0.61,0.732,129.107
139162,143450,14459,-0.128,-0.944,-0.191,-0.427,0.549,0.793,129.113
139171,143559,10972,-0.128,-0.944,-0.191,-0.427,0.549,0.793,129.117
139171,143461,14451,-0.129,-0.942,-0.198,-0.61,0.427,0.488,129.123
139193,143559,10972,-0.129,-0.942,-0.198,-0.61,0.427,0.488,129.127
139193,143447,14447,-0.127,-0.943,-0.197,-0.61,0.427,0.488,129.133
139166,143559,10972,-0.125,-0.942,-0.199,-0.732,0.488,0.305,129.137
139166,143446,14437,-0.128,-0.945,-0.197,-0.732,0.488,0.305,129.143
139177,143559,10972,-0.128,-0.944,-0.201,-0.244,0.854,0.488,129.147
139177,143466,14441,-0.127,-0.944,-0.21,-0.244,0.854,0.488,129.153
139185,143559,10972,-0.125,-0.946,-0.206,-0.549,0.671,0.366,129.157
139185,143478,14440,-0.125,-0.947,-0.204,-0.549,0.671,0.366,129.163
139177,143559,10972,-0.122,-0.946,-0.2,-0.793,0.366,0.244,129.166
139177,143453,14436,-0.122,-0.949,-0.206,-0.793,0.366,0.244,129.173
139195,143559,10972,-0.126,-0.946,-0.198,-0.488,0.61,0.488,129.176
139195,143477,14447,-0.126,-0.948,-0.191,-0.488,0.61,0.488,129.183
139186,143559,10972,-0.126,-0.947,-0.188,-0.366,0.671,0.488,129.186
139186,143466,14446,-0.128,-0.943,-0.198,-0.366,0.671,0.488,129.192
139189,143559,10972,-0.128,-0.942,-0.208,-0.488,0.549,0.427,129.196
139189,143486,14442,-0.129,-0.943,-0.205,-0.488,0.549,0.427,129.202
139192,143559,10972,-0.128,-0.948,-0.193,-0.366,0.366,0.305,129.206
139192,143483,14453,-0.127,-0.948,-0.19,-0.366,0.366,0.305,129.212
139193,143559,10972,-0.129,-0.946,-0.199,-1.037,0.488,0.549,129.216
139193,143488,14447,-0.129,-0.944,-0.202,-1.037,0.488,0.549,129.222
139191,143559,10972,-0.129,-0.941,-0.207,-1.402,0.61,0.488,129.226
139191,143495,14445,-0.131,-0.941,-0.208,-1.402,0.61,0.488,129.232
139199,143559,10972,-0.126,-0.943,-0.209,-0.61,0.244,0.488,129.236
139199,143500,14442,-0.128,-0.95,-0.206,-0.61,0.244,0.488,129.242
139204,143559,10972,-0.127,-0.949,-0.2,0.488,0,0.793,129.246
139204,143487,14454,-0.125,-0.947,-0.201,0.488,0,0.793,129.252
139198,143559,10972,-0.125,-0.946,-0.201,0.427,0.122,0.793,129.256
139198,143501,14438,-0.122,-0.94,-0.196,0.427,0.122,0.793,129.262
139202,143559,10972,-0.12,-0.942,-0.193,0.732,0.366,0.305,129.265
139202,143486,14451,-0.124,-0.946,-0.193,0.732,0.366,0.305,129.272
139206,143559,10972,-0.124,-0.946,-0.194,1.098,0.488,0.305,129.275
139206,143473,14433,-0.123,-0.947,-0.19,1.098,0.488,0.305,129.281
139187,143559,10972,-0.122,-0.948,-0.184,0.122,0.488,0.305,129.285
139187,143494,14460,-0.124,-0.943,-0.19,0.122,0.488,0.305,129.291
139201,143559,10972,-0.128,-0.945,-0.205,-1.524,0.488,0.244,129.295
139201,143487,14448,-0.126,-0.947,-0.211,-1.524,0.488,0.244,129.301
139226,143559,10972,-0.128,-0.948,-0.206,-1.585,0.366,0.183,129.305
139226,143519,14434,-0.126,-0.947,-0.203,-1.585,0.366,0.183,129.311
139193,143559,10972,-0.13,-0.946,-0.202,-0.793,0.244,0.488,129.315
139193,143512,14436,-0.131,-0.944,-0.195,-0.793,0.244,0.488,129.321
139209,143559,10972,-0.129,-0.943,-0.194,-0.122,0.366,0.61,129.325
139209,143519,14448,-0.132,-0.941,-0.199,-0.122,0.366,0.61,129.331
139223,143559,10972,-0.131,-0.937,-0.2,0,0.366,0.549,129.335
139223,143508,14448,-0.128,-0.939,-0.194,0,0.366,0.549,129.341
139217,143559,10972,-0.128,-0.944,-0.184,-0.122,0.244,0.305,129.345
139217,143475,14451,-0.127,-0.943,-0.185,-0.122,0.244,0.305,129.351
139209,143559,10972,-0.126,-0.943,-0.201,-0.305,0.793,0.244,129.355
139209,143476,14459,-0.129,-0.946,-0.208,-0.305,0.793,0.244,129.361
139204,143559,10972,-0.127,-0.946,-0.206,-0.244,0.793,0,129.364
139204,143491,14455,-0.123,-0.946,-0.199,-0.244,0.793,0,129.371
139201,143559,10972,-0.121,-0.944,-0.198,0,0.244,-0.061,129.374
139201,143503,14443,-0.121,-0.942,-0.201,0,0.244,-0.061,129.381
139225,143559,10972,-0.121,-0.944,-0.203,0.122,0.366,0.122,129.384
139225,143516,14441,-0.126,-0.947,-0.204,0.122,0.366,0.122,129.39
139219,143559,10972,-0.124,-0.948,-0.203,0.366,0.671,0.244,129.394
139219,143487,14453,-0.123,-0.952,-0.195,0.366,0.671,0.244,129.4
139202,143559,10972,-0.121,-0.95,-0.195,0.122,0.061,0.488,129.404
139202,143475,14432,-0.124,-0.944,-0.203,0.122,0.061,0.488,129.41
139186,143559,10972,-0.127,-0.946,-0.204,-0.183,-0.061,0.732,129.414
139186,143490,14460,-0.124,-0.942,-0.203,-0.183,-0.061,0.732,129.42
139195,143559,10972,-0.125,-0.945,-0.198,0.183,-0.061,0.549,129.424
139195,143495,14451,-0.128,-0.945,-0.185,0.183,-0.061,0.549,129.43
139201,143559,10972,-0.13,-0.946,-0.182,0.244,0.244,0.732,129.434
139201,143498,14446,-0.129,-0.942,-0.186,0.244,0.244,0.732,129.44
139222,143559,10972,-0.13,-0.943,-0.198,-0.488,0.488,0.488,129.444
139222,143483,14443,-0.131,-0.941,-0.196,-0.488,0.488,0.488,129.45
139203,143559,10972,-0.127,-0.943,-0.203,-0.915,0.427,0.305,129.454
139203,143481,14447,-0.123,-0.944,-0.205,-0.915,0.427,0.305,129.46
139204,143559,10972,-0.122,-0.948,-0.203,-0.854,0.305,0.366,129.463
139204,143522,14442,-0.118,-0.948,-0.207,-0.854,0.305,0.366,129.47
139228,143559,10972,-0.12,-0.946,-0.207,-0.488,0.732,0.305,129.473
139228,143493,14446,-0.121,-0.945,-0.204,-0.488,0.732,0.305,129.48
139212,143559,10972,-0.127,-0.944,-0.205,0.061,0.793,0.244,129.483
139212,143489,14441,-0.128,-0.945,-0.2,0.061,0.793,0.244,129.489
139206,143559,10972,-0.128,-0.942,-0.193,0.366,0.488,0.305,129.493
139206,143504,14462,-0.128,-0.945,-0.193,0.366,0.488,0.305,129.499
139207,143559,10972,-0.132,-0.941,-0.201,0.488,0.183,0.305,129.503
139207,143522,14473,-0.13,-0.942,-0.203,0.488,0.183,0.305,129.509
139216,143559,10972,-0.127,-0.947,-0.193,0.61,0,0.122,129.513
139216,143499,14443,-0.125,-0.949,-0.191,0.61,0,0.122,129.519
139229,143559,10972,-0.123,-0.948,-0.198,0.366,0.122,0.061,129.523
139229,143513,14444,-0.125,-0.944,-0.207,0.366,0.122,0.061,129.529
139216,143559,10972,-0.122,-0.942,-0.205,-0.244,0.244,0.183,129.533
139216,143518,14456,-0.121,-0.949,-0.199,-0.244,0.244,0.183,129.539
139219,143559,10972,-0.124,-0.953,-0.196,-0.122,0.305,0.244,129.543
139219,143504,14440,-0.128,-0.949,-0.2,-0.122,0.305,0.244,129.549
139236,143559,10972,-0.13,-0.944,-0.204,-0.061,0.793,0.671,129.553
139236,143497,14450,-0.131,-0.939,-0.21,-0.061,0.793,0.671,129.559
139207,143559,10972,-0.125,-0.941,-0.204,0.244,0.427,0.549,129.562
139207,143507,14448,-0.123,-0.944,-0.198,0.244,0.427,0.549,129.569
139218,143559,10972,-0.122,-0.947,-0.195,0,0.061,0.488,129.572
139218,143510,14441,-0.127,-0.946,-0.192,0,0.061,0.488,129.579
139221,143559,10972,-0.127,-0.946,-0.192,0,0.061,0.488,129.582
139221,143487,14452,-0.131,-0.943,-0.186,-0.793,0.549,0.732,129.588
139222,143559,10972,-0.131,-0.943,-0.186,-0.793,0.549,0.732,129.592
139222,143497,14450,-0.13,-0.951,-0.188,-1.22,0.854,0.61,129.598
139195,143559,10972,-0.13,-0.951,-0.188,-1.22,0.854,0.61,129.602
139195,143475,14446,-0.131,-0.95,-0.197,-1.341,0.732,0.61,129.608
139194,143559,10972,-0.131,-0.95,-0.197,-1.341,0.732,0.61,129.612
139194,143488,14446,-0.128,-0.941,-0.203,-1.22,0.549,0.793,129.618
139200,143559,10972,-0.128,-0.941,-0.203,-1.22,0.549,0.793,129.622
139200,143494,14436,-0.127,-0.937,-0.202,-1.159,0.488,0.732,129.628
139197,143559,10972,-0.127,-0.937,-0.202,-1.159,0.488,0.732,129.632
139197,143466,14436,-0.125,-0.941,-0.203,-0.427,0.854,0.549,129.638
139214,143559,10972,-0.125,-0.941,-0.203,-0.427,0.854,0.549,129.642
139214,143484,14442,-0.125,-0.94,-0.209,-0.366,0.854,0.488,129.648
139205,143559,10972,-0.125,-0.94,-0.209,-0.366,0.854,0.488,129.652
139205,143462,14441,-0.124,-0.949,-0.197,-0.305,0.305,0.244,129.658
139214,143559,10972,-0.124,-0.949,-0.197,-0.305,0.305,0.244,129.661
139214,143507,14436,-0.125,-0.95,-0.193,0.122,0.305,0.244,129.668
139226,143559,10972,-0.125,-0.95,-0.193,0.122,0.305,0.244,129.671
139226,143474,14437,-0.128,-0.943,-0.197,-0.488,0.61,0.427,129.678
139211,143559,10972,-0.128,-0.943,-0.197,-0.488,0.61,0.427,129.681
139211,143482,14435,-0.127,-0.944,-0.202,-0.549,0.488,0.244,129.687
139205,143559,10972,-0.127,-0.944,-0.202,-0.549,0.488,0.244,129.691
139205,143500,14443,-0.127,-0.946,-0.193,-0.366,0.427,0.183,129.697
139182,143559,10972,-0.127,-0.946,-0.193,-0.366,0.427,0.183,129.701
139182,143480,14437,-0.126,-0.95,-0.199,-0.061,0.549,0.366,129.707
139216,143559,10972,-0.126,-0.95,-0.199,-0.061,0.549,0.366,129.711
139216,143492,14426,-0.125,-0.949,-0.202,-0.183,0.549,0.488,129.717
139218,143559,10972,-0.125,-0.949,-0.202,-0.183,0.549,0.488,129.721
139218,143479,14424,-0.124,-0.944,-0.204,0.122,0.427,0.427,129.727
139208,143559,10972,-0.124,-0.939,-0.202,0.122,0.427,0.427,129.731
139208,143486,14431,-0.126,-0.94,-0.201,0.122,0.427,0.488,129.737
139202,143559,10972,-0.127,-0.939,-0.192,0.122,0.427,0.488,129.741
139202,143493,14442,-0.127,-0.942,-0.189,-0.366,0.671,0.427,129.747
139209,143559,10972,-0.128,-0.939,-0.196,-0.366,0.671,0.427,129.751
139209,143494,14443,-0.128,-0.94,-0.201,-0.976,0.549,0.366,129.757
139199,143559,10972,-0.127,-0.946,-0.204,-0.976,0.549,0.366,129.76
139199,143469,14427,-0.125,-0.949,-0.202,-1.037,0.427,0.183,129.767
139193,143559,10972,-0.126,-0.951,-0.202,-1.037,0.427,0.183,129.77
139193,143459,14423,-0.125,-0.947,-0.198,-0.793,0.488,0.305,129.777
139189,143559,10972,-0.129,-0.948,-0.201,-0.793,0.488,0.305,129.78
139189,143493,14427,-0.129,-0.944,-0.204,0,0.732,0.427,129.786
139197,143559,10972,-0.127,-0.944,-0.206,0,0.732,0.427,129.79
139197,143471,14413,-0.126,-0.942,-0.203,0.61,0.427,0.244,129.796
139212,143559,10972,-0.124,-0.942,-0.197,0.61,0.427,0.244,129.8
139212,143465,14432,-0.125,-0.943,-0.191,0.61,0.183,0.183,129.806
139185,143559,10972,-0.126,-0.946,-0.192,0.61,0.183,0.183,129.81
139185,143477,14427,-0.126,-0.945,-0.194,-0.061,0.732,0.305,129.816
139179,143559,10972,-0.127,-0.946,-0.194,-0.061,0.732,0.305,129.82
139179,143483,14425,-0.125,-0.947,-0.193,-0.732,0.549,0.244,129.826
139201,143559,10972,-0.126,-0.947,-0.2,-0.732,0.549,0.244,129.83
139201,143460,14402,-0.127,-0.947,-0.206,-0.61,0.305,0.305,129.836
139183,143559,10972,-0.125,-0.945,-0.208,-0.61,0.305,0.305,129.84
139183,143482,14423,-0.127,-0.945,-0.205,-0.244,0.549,0.549,129.846
139206,143559,10972,-0.13,-0.945,-0.209,-0.244,0.549,0.549,129.85
139206,143486,14418,-0.128,-0.946,-0.207,-0.366,0.488,0.671,129.856
139208,143559,10972,-0.123,-0.945,-0.209,-0.366,0.488,0.671,129.859
139208,143474,14428,-0.125,-0.944,-0.2,-0.305,0.244,0.61,129.866
139208,143559,10972,-0.126,-0.943,-0.199,-0.305,0.244,0.61,129.869
139208,143493,14408,-0.126,-0.945,-0.199,-0.061,0.244,0.671,129.876
139177,143559,10972,-0.125,-0.947,-0.196,-0.061,0.244,0.671,129.879
139177,143468,14423,-0.129,-0.946,-0.189,-0.122,0.244,0.732,129.885
139193,143559,10972,-0.13,-0.945,-0.188,-0.122,0.244,0.732,129.889
139193,143491,14417,-0.129,-0.938,-0.192,-0.549,0.366,0.61,129.895
139201,143559,10972,-0.131,-0.938,-0.197,-0.549,0.366,0.61,129.899
139201,143520,14427,-0.13,-0.94,-0.201,-0.183,0.427,0.305,129.905
139199,143559,10972,-0.13,-0.941,-0.207,-0.183,0.427,0.305,129.909
139199,143484,14417,-0.127,-0.942,-0.197,-0.244,0.305,0.061,129.915
139226,143559,10972,-0.123,-0.948,-0.197,-0.244,0.305,0.061,129.919
139226,143491,14415,-0.124,-0.948,-0.199,-0.915,0.488,0.122,129.925
139208,143559,10972,-0.125,-0.944,-0.204,-0.915,0.488,0.122,129.929
139208,143483,14424,-0.126,-0.946,-0.207,-1.159,0.854,0.061,129.935
139207,143559,10972,-0.123,-0.947,-0.203,-1.159,0.854,0.061,129.939
139207,143471,14421,-0.125,-0.949,-0.201,-0.488,0.427,0.122,129.945
139207,143559,10972,-0.123,-0.951,-0.202,-0.488,0.427,0.122,129.949
139207,143473,14414,-0.125,-0.947,-0.2,0.122,0.366,0.61,129.955
139189,143559,10972,-0.125,-0.942,-0.199,0.122,0.366,0.61,129.958
139189,143479,14422,-0.123,-0.942,-0.203,0.122,0.61,0.61,129.965
139198,143559,10972,-0.125,-0.938,-0.203,0.122,0.61,0.61,129.968
139198,143499,14425,-0.126,-0.938,-0.202,0.427,0.366,0.366,129.975
139222,143559,10972,-0.125,-0.94,-0.201,0.427,0.366,0.366,129.978
139222,143506,14413,-0.126,-0.943,-0.203,0.488,0.122,0.305,129.984
139222,143559,10972,-0.126,-0.945,-0.197,0.488,0.122,0.305,129.988
139222,143497,14409,-0.126,-0.947,-0.197,0.366,0.122,0.366,129.994
139223,143559,10972,-0.127,-0.939,-0.201,0.366,0.122,0.366,129.998
139223,143500,14398,-0.128,-0.943,-0.193,0,-0.061,0.244,130.004
139211,143559,10972,-0.128,-0.946,-0.189,0,-0.061,0.244,130.008
139211,143489,14414,-0.127,-0.948,-0.182,0.122,0.061,0.244,130.014
139199,143559,10972,-0.131,-0.951,-0.181,0.122,0.061,0.244,130.018
139199,143505,14423,-0.13,-0.951,-0.19,-0.61,0.549,0.427,130.024
139195,143559,10972,-0.131,-0.947,-0.195,-0.61,0.549,0.427,130.028
139195,143485,14418,-0.13,-0.948,-0.204,-1.159,0.854,0.61,130.034
139224,143559,10972,-0.124,-0.945,-0.207,-1.159,0.854,0.61,130.038
139224,143499,14412,-0.123,-0.947,-0.208,-0.488,0.61,0.549,130.044
139215,143559,10972,-0.119,-0.949,-0.206,-0.488,0.61,0.549,130.048
139215,143471,14415,-0.118,-0.949,-0.207,0.183,0.671,0.61,130.054
139218,143559,10972,-0.119,-0.94,-0.213,0.183,0.671,0.61,130.057
139218,143509,14414,-0.119,-0.938,-0.215,0,0.854,0.61,130.064
139217,143559,10972,-0.12,-0.941,-0.211,0,0.854,0.61,130.067
139217,143503,14408,-0.121,-0.942,-0.199,-0.183,0.366,0.305,130.074
139225,143559,10972,-0.121,-0.942,-0.193,-0.183,0.366,0.305,130.077
139225,143520,14420,-0.124,-0.944,-0.195,-0.427,0.305,0.427,130.083
139223,143559,10972,-0.127,-0.944,-0.199,-0.427,0.305,0.427,130.087
139223,143500,14405,-0.13,-0.946,-0.197,-0.488,0.244,0.305,130.093
139215,143559,10972,-0.13,-0.949,-0.196,-0.488,0.244,0.305,130.097
139215,143505,14399,-0.131,-0.948,-0.198,-0.488,-0.061,0.244,130.103
139217,143559,10972,-0.132,-0.944,-0.205,-0.488,-0.061,0.244,130.107
139217,143488,14419,-0.131,-0.943,-0.201,-0.061,-0.061,0.427,130.113
139225,143559,10972,-0.132,-0.941,-0.199,-0.061,-0.061,0.427,130.117
139225,143499,14415,-0.13,-0.945,-0.192,0.793,0.183,0.305,130.123
139248,143559,10972,-0.129,-0.942,-0.188,0.793,0.183,0.305,130.127
139248,143512,14414,-0.134,-0.941,-0.195,0.488,0.549,0.244,130.133
139230,143559,10972,-0.133,-0.942,-0.198,0.488,0.549,0.244,130.137
139230,143526,14419,-0.129,-0.947,-0.193,0.183,0.671,0.061,130.143
139234,143559,10972,-0.127,-0.949,-0.191,0.183,0.671,0.061,130.147
139234,143498,14399,-0.125,-0.95,-0.193,-0.366,0.427,-0.061,130.153
139224,143559,10972,-0.122,-0.943,-0.195,-0.366,0.427,-0.061,130.156
139224,143487,14425,-0.125,-0.947,-0.204,-0.915,0.427,0.305,130.163
139246,143559,10972,-0.126,-0.945,-0.206,-0.915,0.427,0.305,130.166
139246,143500,14420,-0.127,-0.948,-0.21,-0.915,0.671,0.61,130.173
139221,143559,10972,-0.127,-0.948,-0.21,-0.915,0.671,0.61,130.176
139221,143513,14418,-0.126,-0.948,-0.202,-0.793,0.732,0.488,130.182
139239,143559,10972,-0.126,-0.948,-0.202,-0.793,0.732,0.488,130.186
139239,143489,14408,-0.127,-0.944,-0.201,-0.244,0.427,0.61,130.192
139224,143559,10972,-0.127,-0.944,-0.201,-0.244,0.427,0.61,130.196
139224,143484,14412,-0.129,-0.945,-0.201,0.183,0.122,0.854,130.202
139223,143559,10972,-0.129,-0.945,-0.201,0.183,0.122,0.854,130.206
139223,143501,14438,-0.124,-0.938,-0.203,-0.061,-0.122,0.854,130.212
139224,143559,10972,-0.124,-0.938,-0.203,-0.061,-0.122,0.854,130.216
139224,143493,14398,-0.124,-0.944,-0.197,-0.366,-0.122,0.671,130.222
139234,143559,10972,-0.124,-0.944,-0.197,-0.366,-0.122,0.671,130.226
139234,143506,14407,-0.13,-0.941,-0.197,-0.366,0.122,0.427,130.232
139239,143559,10972,-0.13,-0.941,-0.197,-0.366,0.122,0.427,130.236
139239,143490,14420,-0.13,-0.944,-0.198,-0.488,0.305,0.122,130.242
139245,143559,10972,-0.13,-0.944,-0.198,-0.488,0.305,0.122,130.246
139245,143477,14417,-0.124,-0.948,-0.194,-0.549,0.244,0,130.252
139226,143559,10972,-0.124,-0.948,-0.194,-0.549,0.244,0,130.256
139226,143488,14411,-0.123,-0.945,-0.201,-0.793,0.488,0.122,130.262
139199,143559,10972,-0.123,-0.945,-0.201,-0.793,0.488,0.122,130.265
139199,143508,14393,-0.126,-0.947,-0.197,-0.732,0.671,0.244,130.272
139238,143559,10972,-0.126,-0.947,-0.197,-0.732,0.671,0.244,130.275
139238,143502,14422,-0.131,-0.945,-0.194,-0.305,0.793,0.183,130.281
139239,143559,10972,-0.131,-0.945,-0.194,-0.305,0.793,0.183,130.285
139239,143471,14414,-0.128,-0.944,-0.201,-0.366,0.732,0.305,130.291
139223,143559,10972,-0.128,-0.944,-0.201,-0.366,0.732,0.305,130.295
139223,143474,14407,-0.122,-0.945,-0.2,-0.854,0.549,0.366,130.301
139215,143559,10972,-0.122,-0.945,-0.2,-0.854,0.549,0.366,130.305
139215,143469,14417,-0.124,-0.945,-0.194,-0.671,0.732,0.549,130.311
139215,143559,10972,-0.124,-0.945,-0.194,-0.671,0.732,0.549,130.315
139215,143472,14416,-0.125,-0.947,-0.192,-0.671,0.732,0.549,130.321
139225,143559,10972,-0.128,-0.943,-0.2,-0.122,1.037,0.732,130.325
139225,143481,14408,-0.126,-0.943,-0.205,-0.122,1.037,0.732,130.331
139214,143559,10972,-0.125,-0.94,-0.208,-0.244,0.732,0.915,130.335
139214,143497,14430,-0.126,-0.947,-0.204,-0.244,0.732,0.915,130.341
139231,143559,10972,-0.126,-0.947,-0.199,-0.976,0.61,0.976,130.345
139231,143514,14423,-0.127,-0.944,-0.204,-0.976,0.61,0.976,130.351
139224,143559,10972,-0.127,-0.945,-0.211,-1.159,0.854,0.61,130.355
139224,143497,14399,-0.127,-0.942,-0.203,-1.159,0.854,0.61,130.361
139219,143559,10972,-0.13,-0.947,-0.193,-0.427,1.037,0.549,130.364
139219,143483,14403,-0.13,-0.949,-0.185,-0.427,1.037,0.549,130.371
139218,143559,10972,-0.134,-0.943,-0.188,-0.244,0.915,0.793,130.374
139218,143486,14412,-0.132,-0.939,-0.206,-0.244,0.915,0.793,130.381
139198,143559,10972,-0.131,-0.935,-0.208,-0.549,0.61,0.854,130.384
139198,143480,14397,-0.13,-0.94,-0.2,-0.549,0.61,0.854,130.39
139222,143559,10972,-0.129,-0.942,-0.199,-0.915,0.488,0.732,130.394
139222,143465,14407,-0.13,-0.945,-0.202,-0.915,0.488,0.732,130.4
139205,143559,10972,-0.133,-0.948,-0.21,-1.402,1.098,0.793,130.404
139205,143459,14418,-0.134,-0.947,-0.208,-1.402,1.098,0.793,130.41
139191,143559,10972,-0.131,-0.945,-0.205,-0.732,1.22,0.488,130.414
139191,143473,14427,-0.126,-0.947,-0.212,-0.732,1.22,0.488,130.42
139221,143559,10972,-0.125,-0.945,-0.209,0.122,0.427,0.366,130.424
139221,143464,14398,-0.126,-0.943,-0.206,0.122,0.427,0.366,130.43
139216,143559,10972,-0.125,-0.943,-0.195,0.732,0.244,0.427,130.434
139216,143455,14403,-0.126,-0.944,-0.182,0.732,0.244,0.427,130.44
139227,143559,10972,-0.127,-0.946,-0.191,0.244,0.793,0.366,130.444
139227,143460,14410,-0.128,-0.943,-0.202,0.244,0.793,0.366,130.45
139206,143559,10972,-0.128,-0.942,-0.216,-0.671,0.732,0.366,130.454
139206,143470,14398,-0.128,-0.943,-0.218,-0.671,0.732,0.366,130.46
139211,143559,10972,-0.124,-0.943,-0.213,-0.915,0,0.244,130.463
139211,143492,14398,-0.125,-0.945,-0.209,-0.915,0,0.244,130.47
139220,143559,10972,-0.127,-0.948,-0.205,-0.244,0.122,0.366,130.473
139220,143476,14390,-0.131,-0.948,-0.198,-0.244,0.122,0.366,130.48
139228,143559,10972,-0.132,-0.944,-0.193,0.244,0.549,0.488,130.483
139228,143496,14397,-0.132,-0.942,-0.199,0.244,0.549,0.488,130.489
139228,143559,10972,-0.131,-0.937,-0.21,-0.244,0.122,0.366,130.493
139228,143485,14397,-0.128,-0.936,-0.211,-0.244,0.122,0.366,130.499
139238,143559,10972,-0.128,-0.943,-0.211,-0.122,-0.305,0.183,130.503
139238,143486,14397,-0.125,-0.943,-0.205,-0.122,-0.305,0.183,130.509
139243,143559,10972,-0.123,-0.948,-0.195,0.244,0.061,0.183,130.513
139243,143503,14399,-0.125,-0.948,-0.193,0.244,0.061,0.183,130.519
139237,143559,10972,-0.127,-0.945,-0.196,0.183,0.671,0.305,130.523
139237,143507,14398,-0.128,-0.94,-0.205,0.183,0.671,0.305,130.529
139237,143559,10972,-0.129,-0.94,-0.208,-0.122,0.183,0.122,130.533
139237,143472,14397,-0.126,-0.942,-0.2,-0.122,0.183,0.122,130.539
139242,143559,10972,-0.128,-0.946,-0.191,0.183,-0.305,0.244,130.543
139242,143470,14397,-0.126,-0.947,-0.191,0.183,-0.305,0.244,130.549
139241,143559,10972,-0.13,-0.946,-0.194,0.244,0.122,0.549,130.553
139241,143489,14396,-0.131,-0.941,-0.198,0.244,0.122,0.549,130.559
139226,143559,10972,-0.129,-0.943,-0.198,0.061,0.366,0.366,130.562
139226,143478,14387,-0.128,-0.943,-0.198,0.061,0.366,0.366,130.569
139223,143559,10972,-0.13,-0.948,-0.199,0.366,0,0.183,130.572
139223,143472,14411,-0.128,-0.947,-0.198,0.366,0,0.183,130.579
139227,143559,10972,-0.126,-0.945,-0.193,0.366,0.305,0.183,130.582
139227,143486,14402,-0.129,-0.946,-0.193,0.366,0.305,0.183,130.588
139236,143559,10972,-0.129,-0.945,-0.197,0.061,0.915,0.183,130.592
139236,143487,14410,-0.129,-0.944,-0.204,0.061,0.915,0.183,130.598
139211,143559,10972,-0.127,-0.943,-0.211,-0.427,0.732,0.244,130.602
139211,143496,14404,-0.127,-0.943,-0.207,-0.427,0.732,0.244,130.608
139250,143559,10972,-0.125,-0.948,-0.206,-0.244,0.122,0.305,130.612
139250,143493,14398,-0.124,-0.947,-0.207,-0.244,0.122,0.305,130.618
139238,143559,10972,-0.126,-0.95,-0.206,0.183,0.488,0.549,130.622
139238,143494,14403,-0.128,-0.944,-0.207,0.183,0.488,0.549,130.628
139229,143559,10972,-0.13,-0.94,-0.208,0.305,0.671,0.671,130.632
139229,143473,14383,-0.13,-0.943,-0.203,0.305,0.671,0.671,130.638
139212,143559,10972,-0.127,-0.945,-0.196,0.244,0.244,0.671,130.642
139212,143485,14400,-0.127,-0.949,-0.183,0.244,0.244,0.671,130.648
139218,143559,10972,-0.128,-0.949,-0.185,-0.183,0.549,0.793,130.652
139218,143461,14399,-0.128,-0.944,-0.196,-0.183,0.549,0.793,130.658
139216,143559,10972,-0.132,-0.937,-0.2,-1.463,1.037,0.793,130.661
139216,143474,14387,-0.129,-0.936,-0.2,-1.463,1.037,0.793,130.668
139224,143559,10972,-0.127,-0.941,-0.199,-1.402,0.854,0.366,130.671
139224,143499,14378,-0.126,-0.949,-0.2,-1.402,0.854,0.366,130.678
139240,143559,10972,-0.127,-0.948,-0.198,-0.671,1.037,0.244,130.681
139240,143458,14388,-0.128,-0.945,-0.2,-0.671,1.037,0.244,130.687
139205,143559,10972,-0.127,-0.942,-0.203,-0.488,1.037,0.427,130.691
139205,143472,14393,-0.123,-0.943,-0.204,-0.488,1.037,0.427,130.697
139217,143559,10972,-0.124,-0.942,-0.207,-0.366,0.488,0.122,130.701
139217,143492,14402,-0.125,-0.943,-0.215,-0.366,0.488,0.122,130.707
139220,143559,10972,-0.122,-0.945,-0.214,-0.061,0.366,0.061,130.711
139220,143453,14398,-0.124,-0.947,-0.208,-0.061,0.366,0.061,130.717
139222,143559,10972,-0.125,-0.949,-0.2,0.122,0.549,0.244,130.721
139222,143468,14408,-0.125,-0.95,-0.194,0.122,0.549,0.244,130.727
139224,143559,10972,-0.128,-0.948,-0.187,-0.061,0.732,0.488,130.731
139224,143501,14390,-0.13,-0.946,-0.188,-0.061,0.732,0.488,130.737
139222,143559,10972,-0.128,-0.946,-0.198,-0.427,0.61,0.488,130.741
139222,143502,14370,-0.132,-0.945,-0.202,-0.427,0.61,0.488,130.747
139226,143559,10972,-0.132,-0.943,-0.207,-0.427,0.549,0.549,130.751
139226,143477,14374,-0.128,-0.944,-0.209,-0.427,0.549,0.549,130.757
139221,143559,10972,-0.128,-0.938,-0.206,-0.183,0.305,0.366,130.76
139221,143461,14386,-0.125,-0.941,-0.209,-0.183,0.305,0.366,130.767
139235,143559,10972,-0.125,-0.941,-0.209,-0.183,0.305,0.366,130.77
139235,143483,14381,-0.128,-0.943,-0.206,-0.122,0.427,0.305,130.777
139232,143559,10972,-0.128,-0.943,-0.206,-0.122,0.427,0.305,130.78
139232,143477,14394,-0.128,-0.938,-0.204,-0.061,0.61,0.122,130.786
139240,143559,10972,-0.128,-0.938,-0.204,-0.061,0.61,0.122,130.79
139240,143491,14402,-0.13,-0.948,-0.198,-0.549,0.122,0.183,130.796
139251,143559,10972,-0.13,-0.948,-0.198,-0.549,0.122,0.183,130.8
139251,143496,14409,-0.129,-0.954,-0.188,-0.488,0.305,0.427,130.806
139263,143559,10972,-0.129,-0.954,-0.188,-0.488,0.305,0.427,130.81
139263,143519,14389,-0.126,-0.943,-0.202,-0.366,0.488,0.732,130.816
139275,143559,10972,-0.126,-0.943,-0.202,-0.366,0.488,0.732,130.82
139275,143506,14380,-0.123,-0.941,-0.208,-0.305,0.183,0.61,130.826
139275,143559,10972,-0.123,-0.941,-0.208,-0.305,0.183,0.61,130.83
139275,143530,14397,-0.123,-0.94,-0.209,0.366,0.061,0.427,130.836
139260,143559,10972,-0.123,-0.94,-0.209,0.366,0.061,0.427,130.84
139260,143515,14409,-0.118,-0.943,-0.212,0.549,0.427,0.366,130.846
139280,143559,10972,-0.118,-0.943,-0.212,0.549,0.427,0.366,130.85
139280,143511,14390,-0.124,-0.946,-0.207,0.061,0.305,-0.061,130.856
139284,143559,10972,-0.124,-0.946,-0.207,0.061,0.305,-0.061,130.859
139284,143528,14392,-0.126,-0.951,-0.193,-0.061,0.122,-0.061,130.866
139302,143559,10972,-0.126,-0.951,-0.193,-0.061,0.122,-0.061,130.869
139302,143519,14389,-0.132,-0.949,-0.194,0.366,0.244,0.122,130.876
139299,143559,10972,-0.132,-0.949,-0.194,0.366,0.244,0.122,130.879
139299,143522,14383,-0.135,-0.94,-0.201,0.61,0.061,0.305,130.885
139268,143559,10972,-0.135,-0.94,-0.201,0.61,0.061,0.305,130.889
139268,143498,14386,-0.128,-0.937,-0.195,0.366,-0.427,0.427,130.895
139291,143559,10972,-0.128,-0.937,-0.195,0.366,-0.427,0.427,130.899
139291,143517,14382,-0.134,-0.943,-0.194,-0.244,-0.183,0.305,130.905
139278,143559,10972,-0.134,-0.943,-0.194,-0.244,-0.183,0.305,130.909
139278,143528,14398,-0.134,-0.945,-0.2,-0.427,0.671,0.183,130.915
139253,143559,10972,-0.132,-0.942,-0.208,-0.427,0.671,0.183,130.919
139253,143507,14394,-0.13,-0.947,-0.21,-0.793,0.427,-0.061,130.925
139274,143559,10972,-0.125,-0.948,-0.208,-0.793,0.427,-0.061,130.929
139274,143545,14391,-0.121,-0.95,-0.205,-0.366,0,0,130.935
139278,143559,10972,-0.122,-0.945,-0.205,-0.366,0,0,130.939
139278,143546,14400,-0.124,-0.943,-0.203,0.549,0.305,0.122,130.945
139301,143559,10972,-0.124,-0.946,-0.202,0.549,0.305,0.122,130.949
139301,143544,14391,-0.127,-0.947,-0.193,0.793,0.488,0.244,130.955
139283,143559,10972,-0.126,-0.945,-0.193,0.793,0.488,0.244,130.958
139283,143540,14397,-0.128,-0.944,-0.197,0.183,0.183,0.488,130.965
139293,143559,10972,-0.129,-0.943,-0.198,0.183,0.183,0.488,130.968
139293,143529,14391,-0.125,-0.946,-0.194,-1.159,-0.061,0.488,130.975
139276,143559,10972,-0.127,-0.945,-0.198,-1.159,-0.061,0.488,130.978
139276,143523,14403,-0.129,-0.947,-0.2,-1.402,0.244,0.549,130.984
139280,143559,10972,-0.127,-0.951,-0.203,-1.402,0.244,0.549,130.988
139280,143537,14405,-0.126,-0.949,-0.203,-0.549,0.549,0.549,130.994
139284,143559,10972,-0.129,-0.948,-0.206,-0.549,0.549,0.549,130.998
139284,143527,14395,-0.13,-0.942,-0.21,-0.183,0.183,0.549,131.004
139279,143559,10972,-0.126,-0.941,-0.212,-0.183,0.183,0.549,131.008
139279,143518,14395,-0.123,-0.941,-0.207,0.122,-0.183,0.61,131.014
139294,143559,10972,-0.124,-0.942,-0.201,0.122,-0.183,0.61,131.018
139294,143523,14382,-0.127,-0.942,-0.198,0.366,0.183,0.427,131.024
139289,143559,10972,-0.126,-0.944,-0.198,0.366,0.183,0.427,131.028
139289,143483,14396,-0.128,-0.943,-0.2,0.183,0.61,0.305,131.034
139283,143559,10972,-0.128,-0.945,-0.198,0.183,0.61,0.305,131.038
139283,143515,14391,-0.126,-0.944,-0.198,0.244,0.366,0.122,131.044
139291,143559,10972,-0.125,-0.941,-0.195,0.244,0.366,0.122,131.048
139291,143524,14385,-0.127,-0.943,-0.196,-0.061,0.061,0,131.054
139289,143559,10972,-0.129,-0.947,-0.195,-0.061,0.061,0,131.058
139289,143502,14388,-0.128,-0.951,-0.201,-0.427,0.427,0.122,131.064
139279,143559,10972,-0.135,-0.947,-0.203,-0.427,0.427,0.122,131.067
139279,143505,14390,-0.131,-0.945,-0.197,-0.854,0.61,0.305,131.074
139284,143559,10972,-0.128,-0.944,-0.197,-0.854,0.61,0.305,131.077
139284,143516,14379,-0.129,-0.948,-0.199,-0.61,0.366,0.366,131.083
139288,143559,10972,-0.133,-0.947,-0.202,-0.61,0.366,0.366,131.087
139288,143502,14399,-0.13,-0.942,-0.203,0,0.549,0.549,131.093
139298,143559,10972,-0.129,-0.942,-0.203,0,0.549,0.549,131.097
139298,143541,14391,-0.122,-0.943,-0.199,0.183,0.549,0.366,131.103
139318,143559,10972,-0.125,-0.942,-0.199,0.183,0.549,0.366,131.107
139318,143528,14388,-0.126,-0.943,-0.203,0.122,0.61,0.427,131.113
139293,143559,10972,-0.126,-0.94,-0.203,0.122,0.61,0.427,131.117
139293,143505,14397,-0.126,-0.946,-0.202,-0.305,0.732,0.366,131.123
139299,143559,10972,-0.126,-0.945,-0.205,-0.305,0.732,0.366,131.127
139299,143494,14405,-0.127,-0.945,-0.207,-0.793,0.549,0.366,131.133
139294,143559,10972,-0.127,-0.947,-0.205,-0.793,0.549,0.366,131.137
139294,143524,14393,-0.127,-0.948,-0.204,-0.671,0.427,0.488,131.143
139288,143559,10972,-0.128,-0.944,-0.2,-0.671,0.427,0.488,131.147
139288,143515,14392,-0.131,-0.943,-0.198,-0.427,0.549,0.671,131.153
139303,143559,10972,-0.127,-0.946,-0.201,-0.427,0.549,0.671,131.157
139303,143535,14386,-0.129,-0.945,-0.202,-0.305,0.549,0.549,131.163
139284,143559,10972,-0.13,-0.946,-0.201,-0.305,0.549,0.549,131.166
139284,143546,14385,-0.13,-0.945,-0.199,0.244,0.366,0.366,131.173
139297,143559,10972,-0.129,-0.943,-0.203,0.244,0.366,0.366,131.176
139297,143507,14392,-0.127,-0.945,-0.201,0.122,0.305,0.549,131.182
139294,143559,10972,-0.128,-0.946,-0.199,0.122,0.305,0.549,131.186
139294,143496,14375,-0.129,-0.943,-0.203,0.244,0.366,0.549,131.192
139294,143559,10972,-0.127,-0.939,-0.202,0.244,0.366,0.549,131.196
139294,143511,14381,-0.128,-0.939,-0.202,0.183,0.427,0.366,131.202
139282,143559,10972,-0.128,-0.941,-0.198,0.183,0.427,0.366,131.206
139282,143510,14386,-0.129,-0.944,-0.196,-0.122,0.549,0.244,131.212
139303,143559,10972,-0.126,-0.942,-0.197,-0.122,0.549,0.244,131.216
139303,143526,14392,-0.127,-0.945,-0.195,-0.854,0.549,0.183,131.222
139291,143559,10972,-0.127,-0.949,-0.194,-0.854,0.549,0.183,131.226
139291,143505,14360,-0.127,-0.948,-0.198,-1.159,0.671,0.305,131.232
139290,143559,10972,-0.127,-0.947,-0.205,-1.159,0.671,0.305,131.236
139290,143526,14387,-0.125,-0.942,-0.206,-1.098,0.671,0.366,131.242
139290,143559,10972,-0.123,-0.947,-0.203,-1.098,0.671,0.366,131.246
139290,143517,14369,-0.126,-0.951,-0.204,-0.549,0.488,0.427,131.252
139285,143559,10972,-0.125,-0.946,-0.208,-0.549,0.488,0.427,131.256
139285,143515,14381,-0.125,-0.942,-0.21,-0.183,0.488,0.61,131.262
139302,143559,10972,-0.128,-0.941,-0.207,-0.183,0.488,0.61,131.265
139302,143535,14402,-0.126,-0.942,-0.206,0.183,0.244,0.427,131.272
139301,143559,10972,-0.127,-0.943,-0.203,0.183,0.244,0.427,131.275
139301,143548,14378,-0.127,-0.941,-0.205,0.366,0.061,0.244,131.282
139299,143559,10972,-0.128,-0.944,-0.202,0.366,0.061,0.244,131.285
139299,143544,14398,-0.129,-0.942,-0.201,0.366,0.122,0.305,131.291
139314,143559,10972,-0.125,-0.945,-0.19,0.366,0.122,0.305,131.295
139314,143531,14372,-0.124,-0.946,-0.184,0.305,0.061,0.183,131.301
139295,143559,10972,-0.129,-0.944,-0.187,0.305,0.061,0.183,131.305
139295,143505,14388,-0.13,-0.944,-0.2,-0.061,0.305,0.122,131.311
139282,143559,10972,-0.129,-0.945,-0.214,-0.061,0.305,0.122,131.315
139282,143527,14396,-0.127,-0.949,-0.205,-0.305,0.305,0.061,131.321
139274,143559,10972,-0.125,-0.951,-0.195,-0.305,0.305,0.061,131.325
139274,143543,14381,-0.124,-0.946,-0.196,-0.122,0.366,0.305,131.331
139296,143559,10972,-0.13,-0.947,-0.203,-0.122,0.366,0.305,131.335
139296,143526,14366,-0.131,-0.946,-0.205,0,0.915,0.61,131.341
139304,143559,10972,-0.13,-0.942,-0.206,0,0.915,0.61,131.345
139304,143537,14381,-0.128,-0.94,-0.207,0.244,0.427,0.427,131.351
139283,143559,10972,-0.127,-0.937,-0.204,0.244,0.427,0.427,131.355
139283,143524,14368,-0.128,-0.939,-0.204,0.183,-0.122,0.488,131.361
139297,143559,10972,-0.127,-0.943,-0.198,0.183,-0.122,0.488,131.364
139297,143514,14369,-0.127,-0.946,-0.188,0.183,0.183,0.427,131.371
139311,143559,10972,-0.127,-0.946,-0.188,0.183,0.183,0.427,131.374
139311,143511,14370,-0.132,-0.947,-0.187,-0.427,0.793,0.244,131.381
139308,143559,10972,-0.132,-0.947,-0.187,-0.427,0.793,0.244,131.384
139308,143520,14384,-0.129,-0.942,-0.21,-0.976,0.488,0.244,131.39
139317,143559,10972,-0.129,-0.942,-0.21,-0.976,0.488,0.244,131.394
139317,143533,14370,-0.127,-0.949,-0.205,-0.122,0.122,0.183,131.4
139335,143559,10972,-0.127,-0.949,-0.205,-0.122,0.122,0.183,131.404
139335,143531,14369,-0.125,-0.948,-0.207,0,0.549,0.61,131.41
139318,143559,10972,-0.125,-0.948,-0.207,0,0.549,0.61,131.414
139318,143532,14365,-0.126,-0.944,-0.209,0.061,0.671,0.61,131.42
139321,143559,10972,-0.126,-0.944,-0.209,0.061,0.671,0.61,131.424
139321,143507,14373,-0.125,-0.946,-0.197,0.488,0.305,0.549,131.43
139287,143559,10972,-0.125,-0.946,-0.197,0.488,0.305,0.549,131.434
139287,143505,14377,-0.129,-0.944,-0.19,0.183,0.366,0.793,131.44
139304,143559,10972,-0.129,-0.944,-0.19,0.183,0.366,0.793,131.444
139304,143539,14378,-0.133,-0.943,-0.194,-0.671,0.732,0.61,131.45
139308,143559,10972,-0.133,-0.943,-0.194,-0.671,0.732,0.61,131.454
139308,143527,14372,-0.129,-0.938,-0.213,-1.159,0.61,0.183,131.46
139280,143559,10972,-0.129,-0.938,-0.213,-1.159,0.61,0.183,131.464
139280,143526,14377,-0.124,-0.944,-0.209,-1.037,0.122,0.122,131.47
139318,143559,10972,-0.124,-0.944,-0.209,-1.037,0.122,0.122,131.473
139318,143523,14374,-0.125,-0.954,-0.195,-0.305,0.427,0.305,131.48
139336,143559,10972,-0.125,-0.954,-0.195,-0.305,0.427,0.305,131.483
139336,143538,14373,-0.13,-0.947,-0.195,0.061,0.732,0.366,131.489
139316,143559,10972,-0.13,-0.947,-0.195,0.061,0.732,0.366,131.493
139316,143508,14388,-0.127,-0.945,-0.214,-0.183,0.549,0.305,131.499
139297,143559,10972,-0.127,-0.945,-0.214,-0.183,0.549,0.305,131.503
139297,143524,14389,-0.126,-0.937,-0.208,-0.427,0.366,0.305,131.509
139329,143559,10972,-0.126,-0.937,-0.208,-0.427,0.366,0.305,131.513
139329,143550,14368,-0.129,-0.939,-0.206,-0.427,0.366,0.305,131.519
139314,143559,10972,-0.131,-0.945,-0.199,-0.305,0.671,0.244,131.523
139314,143526,14376,-0.132,-0.945,-0.2,-0.305,0.671,0.244,131.529
139307,143559,10972,-0.134,-0.945,-0.205,0.061,0.61,0.183,131.533
139307,143556,14367,-0.131,-0.946,-0.198,0.061,0.61,0.183,131.539
139312,143559,10972,-0.129,-0.946,-0.192,0.488,-0.183,0.122,131.543
139312,143534,14375,-0.128,-0.948,-0.191,0.488,-0.183,0.122,131.549
139315,143559,10972,-0.127,-0.945,-0.195,0.61,-0.183,0.427,131.553
139315,143532,14364,-0.13,-0.946,-0.192,0.61,-0.183,0.427,131.559
139314,143559,10972,-0.131,-0.946,-0.196,0.366,0.305,0.61,131.563
139314,143512,14356,-0.13,-0.943,-0.204,0.366,0.305,0.61,131.569
139295,143559,10972,-0.123,-0.949,-0.203,0.122,0.305,0.488,131.572
139295,143529,14356,-0.12,-0.947,-0.196,0.122,0.305,0.488,131.579
139316,143559,10972,-0.12,-0.945,-0.19,-0.366,0.366,0.488,131.582
139316,143529,14360,-0.12,-0.943,-0.199,-0.366,0.366,0.488,131.588
139294,143559,10972,-0.124,-0.943,-0.208,-0.61,0.915,0.488,131.592
139294,143544,14366,-0.125,-0.945,-0.211,-0.61,0.915,0.488,131.598
139328,143559,10972,-0.128,-0.944,-0.206,-0.427,0.915,0.427,131.602
139328,143555,14368,-0.127,-0.942,-0.206,-0.427,0.915,0.427,131.608
139318,143559,10972,-0.123,-0.943,-0.213,-0.732,0.305,0.488,131.612
139318,143523,14382,-0.125,-0.943,-0.213,-0.732,0.305,0.488,131.618
139324,143559,10972,-0.125,-0.943,-0.209,-0.732,0.122,0.366,131.622
139324,143529,14377,-0.127,-0.946,-0.209,-0.732,0.122,0.366,131.628
139316,143559,10972,-0.13,-0.949,-0.206,-0.305,0.183,0.183,131.632
139316,143523,14364,-0.13,-0.948,-0.203,-0.305,0.183,0.183,131.638
139318,143559,10972,-0.133,-0.946,-0.197,0.549,0.061,0.305,131.642
139318,143522,14360,-0.133,-0.942,-0.187,0.549,0.061,0.305,131.648
139301,143559,10972,-0.133,-0.941,-0.184,0.793,0,0.305,131.652
139301,143519,14371,-0.134,-0.939,-0.186,0.793,0,0.305,131.658
139332,143559,10972,-0.134,-0.939,-0.192,0,0.427,0.122,131.661
139332,143544,14364,-0.13,-0.945,-0.197,0,0.427,0.122,131.668
139321,143559,10972,-0.129,-0.946,-0.199,-0.427,0.549,-0.061,131.671
139321,143524,14380,-0.125,-0.948,-0.203,-0.427,0.549,-0.061,131.678
139316,143559,10972,-0.125,-0.947,-0.203,-0.244,0.427,0.122,131.681
139316,143543,14389,-0.126,-0.947,-0.206,-0.244,0.427,0.122,131.688
139332,143559,10972,-0.123,-0.945,-0.209,0,0.488,0.244,131.691
139332,143534,14379,-0.121,-0.948,-0.205,0,0.488,0.244,131.697
139326,143559,10972,-0.125,-0.942,-0.208,0.427,0.366,0.244,131.701
139326,143532,14366,-0.127,-0.942,-0.209,0.427,0.366,0.244,131.707
139332,143559,10972,-0.127,-0.941,-0.211,0.122,0.122,0.366,131.711
139332,143526,14371,-0.127,-0.94,-0.21,0.122,0.122,0.366,131.717
139339,143559,10972,-0.127,-0.945,-0.208,0.183,-0.061,0.366,131.721
139339,143519,14365,-0.128,-0.948,-0.198,0.183,-0.061,0.366,131.727
139335,143559,10972,-0.131,-0.948,-0.192,0.366,0,0.366,131.731
139335,143522,14365,-0.129,-0.946,-0.191,0.366,0,0.366,131.737
139348,143559,10972,-0.129,-0.942,-0.203,0.122,-0.122,0.549,131.741
139348,143525,14370,-0.133,-0.943,-0.199,0.122,-0.122,0.549,131.747
139334,143559,10972,-0.129,-0.945,-0.192,-0.122,-0.427,0.366,131.751
139334,143528,14373,-0.124,-0.945,-0.194,-0.122,-0.427,0.366,131.757
139313,143559,10972,-0.124,-0.945,-0.199,-0.549,-0.061,0.427,131.761
139313,143524,14386,-0.123,-0.946,-0.205,-0.549,-0.061,0.427,131.767
139343,143559,10972,-0.126,-0.942,-0.2,-1.159,0.549,0.366,131.77
139343,143555,14368,-0.127,-0.946,-0.195,-1.159,0.549,0.366,131.777
139346,143559,10972,-0.127,-0.946,-0.2,-0.915,0.61,0.183,131.78
139346,143534,14363,-0.127,-0.947,-0.196,-0.915,0.61,0.183,131.786
139326,143559,10972,-0.124,-0.946,-0.196,-0.61,0.549,0.366,131.79
139326,143570,14383,-0.127,-0.944,-0.198,-0.61,0.549,0.366,131.796
139343,143559,10972,-0.126,-0.945,-0.203,-0.427,0.427,0.305,131.8
139343,143554,14374,-0.128,-0.943,-0.207,-0.427,0.427,0.305,131.806
139326,143559,10972,-0.129,-0.943,-0.202,-0.488,0.305,0.122,131.81
139326,143548,14377,-0.128,-0.949,-0.2,-0.488,0.305,0.122,131.816
139342,143559,10972,-0.127,-0.948,-0.203,-0.305,0.427,0.183,131.82
139342,143542,14361,-0.127,-0.943,-0.206,-0.305,0.427,0.183,131.826
139340,143559,10972,-0.128,-0.944,-0.208,0.305,0.305,0.244,131.83
139340,143547,14370,-0.126,-0.94,-0.209,0.305,0.305,0.244,131.836
139338,143559,10972,-0.125,-0.943,-0.204,0.671,0,0.244,131.84
139338,143534,14364,-0.123,-0.947,-0.195,0.671,0,0.244,131.846
139348,143559,10972,-0.129,-0.942,-0.195,0.549,0.244,0.305,131.85
139348,143543,14384,-0.126,-0.944,-0.189,0.549,0.244,0.305,131.856
139350,143559,10972,-0.128,-0.943,-0.188,-0.366,0.793,0.305,131.86
139350,143550,14382,-0.132,-0.94,-0.195,-0.366,0.793,0.305,131.866
139363,143559,10972,-0.131,-0.946,-0.201,-1.22,1.037,0.305,131.869
139363,143554,14378,-0.13,-0.949,-0.205,-1.22,1.037,0.305,131.876
139328,143559,10972,-0.128,-0.95,-0.203,-1.159,0.732,0.427,131.879
139328,143548,14387,-0.129,-0.952,-0.203,-1.159,0.732,0.427,131.886
139325,143559,10972,-0.129,-0.948,-0.202,-1.037,0.793,0.671,131.889
139325,143531,14382,-0.127,-0.943,-0.206,-1.037,0.793,0.671,131.895
139333,143559,10972,-0.129,-0.942,-0.213,-0.793,0.976,0.671,131.899
139333,143546,14385,-0.128,-0.942,-0.212,-0.793,0.976,0.671,131.905
139348,143559,10972,-0.127,-0.94,-0.208,-0.122,0.671,0.488,131.909
139348,143556,14375,-0.124,-0.942,-0.206,-0.122,0.671,0.488,131.915
139339,143559,10972,-0.126,-0.945,-0.196,0.183,0.183,0.671,131.919
139339,143542,14367,-0.126,-0.946,-0.194,0.183,0.183,0.671,131.925
139312,143559,10972,-0.125,-0.948,-0.196,0.244,0.305,0.671,131.929
139312,143549,14368,-0.127,-0.944,-0.198,0.244,0.305,0.671,131.935
139344,143559,10972,-0.127,-0.941,-0.194,0.244,0.366,0.488,131.939
139344,143536,14378,-0.131,-0.942,-0.195,0.244,0.366,0.488,131.945
139347,143559,10972,-0.127,-0.941,-0.202,-0.061,0.244,0.366,131.949
139347,143550,14370,-0.127,-0.936,-0.205,-0.061,0.244,0.366,131.955
139365,143559,10972,-0.127,-0.94,-0.204,-0.366,0.122,0.244,131.959
139365,143542,14368,-0.125,-0.943,-0.201,-0.366,0.122,0.244,131.965
139381,143559,10972,-0.125,-0.943,-0.201,-0.366,0.122,0.244,131.968
139381,143558,14385,-0.129,-0.947,-0.193,-0.488,0.488,0.183,131.975
139358,143559,10972,-0.129,-0.947,-0.193,-0.488,0.488,0.183,131.978
139358,143566,14364,-0.128,-0.948,-0.209,-0.793,0.732,0.305,131.985
139350,143559,10972,-0.128,-0.948,-0.209,-0.793,0.732,0.305,131.988
139350,143573,14380,-0.125,-0.951,-0.203,-0.427,0.305,0.244,131.994
139377,143559,10972,-0.125,-0.951,-0.203,-0.427,0.305,0.244,131.998
139377,143556,14374,-0.123,-0.946,-0.187,0.122,0.244,0.366,132.004
139385,143559,10972,-0.123,-0.946,-0.187,0.122,0.244,0.366,132.008
139385,143544,14358,-0.129,-0.945,-0.204,0,0.61,0.427,132.014
139377,143559,10972,-0.129,-0.945,-0.204,0,0.61,0.427,132.018
139377,143565,14367,-0.127,-0.943,-0.207,-0.854,0.61,0.244,132.024
139372,143559,10972,-0.127,-0.943,-0.207,-0.854,0.61,0.244,132.028
139372,143570,14371,-0.125,-0.945,-0.203,-1.28,0.061,0.244,132.034
139387,143559,10972,-0.125,-0.945,-0.203,-1.28,0.061,0.244,132.038
139387,143552,14362,-0.128,-0.947,-0.209,-0.488,0.488,0.488,132.044
139377,143559,10972,-0.128,-0.947,-0.209,-0.488,0.488,0.488,132.048
139377,143554,14358,-0.127,-0.939,-0.203,0.732,0.732,0.427,132.054
139370,143559,10972,-0.127,-0.939,-0.203,0.732,0.732,0.427,132.058
139370,143541,14364,-0.122,-0.941,-0.198,0.976,-0.183,0.366,132.064
139361,143559,10972,-0.122,-0.941,-0.198,0.976,-0.183,0.366,132.067
139361,143549,14382,-0.131,-0.945,-0.203,0.305,-0.122,0.366,132.074
139363,143559,10972,-0.131,-0.945,-0.203,0.305,-0.122,0.366,132.077
139363,143568,14373,-0.13,-0.951,-0.199,-0.305,0.427,0.183,132.084
139375,143559,10972,-0.13,-0.951,-0.199,-0.305,0.427,0.183,132.087
139375,143577,14370,-0.129,-0.951,-0.192,0.061,0.366,0.183,132.093
139391,143559,10972,-0.129,-0.951,-0.192,0.061,0.366,0.183,132.097
139391,143574,14358,-0.131,-0.941,-0.194,0.305,0.244,0.366,132.103
139398,143559,10972,-0.131,-0.941,-0.194,0.305,0.244,0.366,132.107
139398,143575,14370,-0.133,-0.944,-0.198,0.183,0.305,0.305,132.113
139380,143559,10972,-0.133,-0.944,-0.198,0.183,0.305,0.305,132.117
139380,143554,14372,-0.126,-0.948,-0.193,-0.305,0.366,0.244,132.123
139381,143559,10972,-0.127,-0.946,-0.202,-0.305,0.366,0.244,132.127
139381,143577,14365,-0.128,-0.944,-0.205,-1.098,0.427,0.549,132.133
139386,143559,10972,-0.125,-0.945,-0.21,-1.098,0.427,0.549,132.137
139386,143592,14371,-0.125,-0.945,-0.204,-1.22,0.366,0.427,132.143
139367,143559,10972,-0.123,-0.945,-0.199,-1.22,0.366,0.427,132.147
139367,143553,14375,-0.125,-0.942,-0.203,-0.915,0.366,0.488,132.153
139391,143559,10972,-0.128,-0.942,-0.208,-0.915,0.366,0.488,132.157
139391,143570,14351,-0.129,-0.943,-0.207,-0.427,0.549,0.732,132.163
139390,143559,10972,-0.13,-0.944,-0.207,-0.427,0.549,0.732,132.167
139390,143569,14375,-0.129,-0.943,-0.208,0.183,0.183,0.671,132.173
139376,143559,10972,-0.126,-0.945,-0.2,0.183,0.183,0.671,132.176
139376,143544,14370,-0.126,-0.947,-0.191,0.305,0.061,0.549,132.183
139385,143559,10972,-0.126,-0.944,-0.189,0.305,0.061,0.549,132.186
139385,143589,14360,-0.132,-0.942,-0.198,-0.122,0.488,0.366,132.192
139393,143559,10972,-0.132,-0.941,-0.201,-0.122,0.488,0.366,132.196
139393,143576,14358,-0.129,-0.947,-0.199,-0.488,0.488,0.061,132.202
139411,143559,10972,-0.127,-0.947,-0.192,-0.488,0.488,0.061,132.206
139411,143572,14356,-0.127,-0.946,-0.198,-0.854,0.366,0.305,132.212
139380,143559,10972,-0.125,-0.946,-0.202,-0.854,0.366,0.305,132.216
139380,143558,14372,-0.123,-0.947,-0.203,-1.159,0.732,0.488,132.222
139401,143559,10972,-0.124,-0.945,-0.203,-1.159,0.732,0.488,132.226
139401,143565,14351,-0.128,-0.946,-0.203,-0.671,0.732,0.305,132.232
139398,143559,10972,-0.125,-0.945,-0.205,-0.671,0.732,0.305,132.236
139398,143564,14348,-0.126,-0.943,-0.202,-0.244,0.488,0.61,132.242
139406,143559,10972,-0.129,-0.94,-0.202,-0.244,0.488,0.61,132.246
139406,143570,14368,-0.129,-0.938,-0.209,0.183,0.549,0.61,132.252
139405,143559,10972,-0.128,-0.941,-0.205,0.183,0.549,0.61,132.256
139405,143561,14371,-0.126,-0.944,-0.198,0.183,0.549,0.427,132.262
139392,143559,10972,-0.129,-0.942,-0.201,0.183,0.549,0.427,132.266
139392,143571,14356,-0.129,-0.938,-0.198,0.061,0.427,0.244,132.272
139402,143559,10972,-0.128,-0.942,-0.195,0.061,0.427,0.244,132.275
139402,143593,14377,-0.13,-0.946,-0.199,-0.244,0.305,0,132.282
139401,143559,10972,-0.131,-0.945,-0.206,-0.244,0.305,0,132.285
139401,143599,14364,-0.132,-0.942,-0.21,-0.549,0.305,0,132.292
139405,143559,10972,-0.13,-0.945,-0.206,-0.549,0.305,0,132.295
139405,143581,14354,-0.126,-0.95,-0.201,-0.305,0.183,0.244,132.301
139390,143559,10972,-0.125,-0.952,-0.2,-0.305,0.183,0.244,132.305
139390,143573,14365,-0.126,-0.951,-0.202,0.305,0.305,0.549,132.311
139395,143559,10972,-0.126,-0.95,-0.203,0.305,0.305,0.549,132.315
139395,143570,14371,-0.128,-0.947,-0.201,0.915,0.305,0.732,132.321
139418,143559,10972,-0.125,-0.941,-0.201,0.915,0.305,0.732,132.325
139418,143575,14352,-0.125,-0.939,-0.207,1.098,0.061,0.61,132.331
139393,143559,10972,-0.122,-0.941,-0.204,1.098,0.061,0.61,132.335
139393,143558,14350,-0.121,-0.942,-0.202,0.732,0.061,0.488,132.341
139416,143559,10972,-0.121,-0.944,-0.195,0.732,0.061,0.488,132.345
139416,143579,14383,-0.122,-0.945,-0.19,-0.183,0.366,0.305,132.351
139432,143559,10972,-0.127,-0.944,-0.188,-0.183,0.366,0.305,132.355
139432,143575,14360,-0.13,-0.946,-0.194,-1.037,0.732,0.183,132.361
139414,143559,10972,-0.13,-0.947,-0.203,-1.037,0.732,0.183,132.365
139414,143572,14363,-0.129,-0.95,-0.202,-1.159,0.488,0.061,132.371
139412,143559,10972,-0.127,-0.953,-0.198,-1.159,0.488,0.061,132.374
139412,143579,14364,-0.128,-0.951,-0.199,-1.524,0.183,0.366,132.381
139405,143559,10972,-0.134,-0.945,-0.202,-1.524,0.183,0.366,132.384
139405,143600,14377,-0.132,-0.945,-0.203,-1.037,0.61,0.427,132.391
139412,143559,10972,-0.131,-0.943,-0.21,-1.037,0.61,0.427,132.394
139412,143597,14368,-0.131,-0.941,-0.211,-0.061,0.732,0.488,132.4
139399,143559,10972,-0.13,-0.94,-0.213,-0.061,0.732,0.488,132.404
139399,143602,14357,-0.131,-0.94,-0.215,0.549,0.427,0.61,132.41
139403,143559,10972,-0.126,-0.945,-0.208,0.549,0.427,0.61,132.414
139403,143586,14363,-0.128,-0.942,-0.195,0.671,0.366,0.427,132.42
139420,143559,10972,-0.127,-0.943,-0.185,0.671,0.366,0.427,132.424
139420,143586,14376,-0.127,-0.943,-0.187,0.061,0.671,0.305,132.43
139409,143559,10972,-0.128,-0.944,-0.197,0.061,0.671,0.305,132.434
139409,143570,14370,-0.129,-0.945,-0.209,-0.366,0.61,0.061,132.44
139418,143559,10972,-0.121,-0.946,-0.212,-0.366,0.61,0.061,132.444
139418,143597,14360,-0.121,-0.945,-0.207,-0.427,-0.061,0.061,132.45
139406,143559,10972,-0.122,-0.946,-0.203,-0.427,-0.061,0.061,132.454
139406,143576,14362,-0.123,-0.946,-0.204,-0.244,0,0.427,132.46
139414,143559,10972,-0.128,-0.949,-0.205,-0.244,0,0.427,132.464
139414,143577,14369,-0.128,-0.947,-0.199,0.488,0.488,0.427,132.47
139414,143559,10972,-0.127,-0.946,-0.188,0.488,0.488,0.427,132.473
139414,143597,14365,-0.13,-0.945,-0.182,0.488,0,0.549,132.48
139413,143559,10972,-0.128,-0.944,-0.189,0.488,0,0.549,132.483
139413,143572,14357,-0.129,-0.939,-0.206,-0.366,-0.061,0.793,132.49
139397,143559,10972,-0.13,-0.941,-0.208,-0.366,-0.061,0.793,132.493
139397,143590,14363,-0.13,-0.948,-0.199,-0.915,0.366,0.549,132.499
139398,143559,10972,-0.126,-0.946,-0.196,-0.915,0.366,0.549,132.503
139398,143601,14372,-0.127,-0.945,-0.203,-0.976,0.549,0.549,132.509
139414,143559,10972,-0.127,-0.944,-0.202,-0.976,0.549,0.549,132.513
139414,143599,14365,-0.125,-0.945,-0.207,-0.549,0.61,0.61,132.519
139419,143559,10972,-0.127,-0.941,-0.211,-0.549,0.61,0.61,132.523
139419,143576,14370,-0.125,-0.94,-0.21,-0.061,0.244,0.366,132.529
139415,143559,10972,-0.12,-0.943,-0.2,-0.061,0.244,0.366,132.533
139415,143610,14362,-0.118,-0.942,-0.2,0,0.061,0.122,132.539
139420,143559,10972,-0.122,-0.939,-0.202,0,0.061,0.122,132.543
139420,143596,14361,-0.127,-0.941,-0.201,-0.366,0.61,0.061,132.549
139412,143559,10972,-0.128,-0.944,-0.198,-0.366,0.61,0.061,132.553
139412,143573,14372,-0.131,-0.946,-0.199,-0.122,0.732,-0.061,132.559
139393,143559,10972,-0.134,-0.946,-0.197,-0.122,0.732,-0.061,132.563
139393,143561,14361,-0.13,-0.95,-0.19,-0.305,0.305,0,132.569
139393,143559,10972,-0.13,-0.95,-0.19,-0.305,0.305,0,132.572
139393,143562,14384,-0.132,-0.947,-0.191,-0.183,0.122,0.305,132.579
139397,143559,10972,-0.132,-0.947,-0.191,-0.183,0.122,0.305,132.582
139397,143567,14367,-0.129,-0.944,-0.208,0.061,0.366,0.305,132.589
139400,143559,10972,-0.129,-0.944,-0.208,0.061,0.366,0.305,132.592
139400,143562,14369,-0.125,-0.94,-0.2,0.183,0.427,0.122,132.598
139395,143559,10972,-0.125,-0.94,-0.2,0.183,0.427,0.122,132.602
139395,143561,14378,-0.127,-0.943,-0.21,-0.305,0.671,0.305,132.608
139406,143559,10972,-0.127,-0.943,-0.21,-0.305,0.671,0.305,132.612
139406,143567,14380,-0.126,-0.949,-0.2,-0.915,0.793,0.366,132.618
139384,143559,10972,-0.126,-0.949,-0.2,-0.915,0.793,0.366,132.622
139384,143554,14357,-0.127,-0.945,-0.203,-1.585,0.671,0.61,132.628
139412,143559,10972,-0.127,-0.945,-0.203,-1.585,0.671,0.61,132.632
139412,143557,14369,-0.125,-0.943,-0.207,-0.793,0.549,0.732,132.638
139372,143559,10972,-0.125,-0.943,-0.207,-0.793,0.549,0.732,132.642
139372,143538,14356,-0.132,-0.943,-0.207,-0.488,0.732,1.22,132.648
139373,143559,10972,-0.132,-0.943,-0.207,-0.488,0.732,1.22,132.652
139373,143554,14366,-0.136,-0.944,-0.199,-1.098,0.732,0.854,132.658
139348,143559,10972,-0.136,-0.944,-0.199,-1.098,0.732,0.854,132.662
139348,143535,14375,-0.13,-0.943,-0.206,-1.28,0.488,0.427,132.668
139364,143559,10972,-0.13,-0.943,-0.206,-1.28,0.488,0.427,132.671
139364,143565,14365,-0.127,-0.943,-0.2,-0.427,0.427,0.488,132.678
139364,143559,10972,-0.127,-0.943,-0.2,-0.427,0.427,0.488,132.681
139364,143550,14371,-0.128,-0.944,-0.209,-0.061,0.305,0.549,132.688
139363,143559,10972,-0.128,-0.944,-0.209,-0.061,0.305,0.549,132.691
139363,143546,14353,-0.125,-0.945,-0.199,0.549,0.305,0.427,132.697
139347,143559,10972,-0.125,-0.945,-0.199,0.549,0.305,0.427,132.701
139347,143542,14370,-0.126,-0.938,-0.204,0.366,0.366,0.366,132.707
139356,143559,10972,-0.126,-0.938,-0.204,0.366,0.366,0.366,132.711
139356,143502,14354,-0.125,-0.935,-0.206,0.366,0.366,0.366,132.717
139345,143559,10972,-0.125,-0.939,-0.208,-0.061,0.549,0.427,132.721
139345,143524,14358,-0.127,-0.942,-0.202,-0.061,0.549,0.427,132.727
139363,143559,10972,-0.124,-0.947,-0.198,-0.183,0.61,0.183,132.731
139363,143561,14355,-0.126,-0.948,-0.196,-0.183,0.61,0.183,132.737
139379,143559,10972,-0.128,-0.947,-0.209,-0.305,0.427,0.183,132.741
139379,143556,14356,-0.127,-0.944,-0.211,-0.305,0.427,0.183,132.747
139358,143559,10972,-0.126,-0.946,-0.207,-0.244,0.183,0.183,132.751
139358,143513,14332,-0.123,-0.949,-0.205,-0.244,0.183,0.183,132.757
139347,143559,10972,-0.124,-0.952,-0.195,-0.244,0.061,0.183,132.761
139347,143517,14360,-0.126,-0.95,-0.189,-0.244,0.061,0.183,132.767
139366,143559,10972,-0.127,-0.946,-0.2,-0.549,0.427,0.549,132.771
139366,143544,14351,-0.128,-0.947,-0.204,-0.549,0.427,0.549,132.777
139361,143559,10972,-0.13,-0.947,-0.203,-0.305,0.549,0.671,132.78
139361,143535,14352,-0.13,-0.946,-0.204,-0.305,0.549,0.671,132.787
139374,143559,10972,-0.125,-0.942,-0.2,-0.183,0.183,0.427,132.79
139374,143562,14364,-0.124,-0.938,-0.199,-0.183,0.183,0.427,132.796
139379,143559,10972,-0.127,-0.938,-0.204,-0.366,0.427,0.61,132.8
139379,143540,14346,-0.128,-0.942,-0.203,-0.366,0.427,0.61,132.806
139377,143559,10972,-0.127,-0.945,-0.198,-0.366,0.732,0.427,132.81
139377,143529,14330,-0.125,-0.943,-0.195,-0.366,0.732,0.427,132.816
139375,143559,10972,-0.126,-0.94,-0.199,-0.488,0.549,0.366,132.82
139375,143540,14358,-0.129,-0.937,-0.212,-0.488,0.549,0.366,132.826
139375,143559,10972,-0.128,-0.939,-0.214,-0.183,0.488,0.366,132.83
139375,143544,14360,-0.13,-0.944,-0.209,-0.183,0.488,0.366,132.836
139378,143559,10972,-0.127,-0.946,-0.201,0.549,0.305,0.183,132.84
139378,143518,14344,-0.127,-0.95,-0.194,0.549,0.305,0.183,132.846
139391,143559,10972,-0.129,-0.945,-0.187,0.671,0.244,0.244,132.85
139391,143563,14337,-0.129,-0.946,-0.188,0.671,0.244,0.244,132.856
139373,143559,10972,-0.129,-0.943,-0.195,0.061,0.549,0.427,132.86
139373,143558,14350,-0.132,-0.937,-0.204,0.061,0.549,0.427,132.866
139380,143559,10972,-0.132,-0.941,-0.213,-0.671,0.488,0.244,132.87
139380,143537,14353,-0.128,-0.949,-0.208,-0.671,0.488,0.244,132.876
139427,143559,10972,-0.127,-0.949,-0.205,-0.549,0.427,0.244,132.879
139427,143549,14352,-0.129,-0.948,-0.207,-0.549,0.427,0.244,132.886
139379,143559,10972,-0.129,-0.947,-0.207,-0.183,0.671,0.488,132.889
139379,143570,14359,-0.128,-0.946,-0.202,-0.183,0.671,0.488,132.895
139403,143559,10972,-0.125,-0.944,-0.193,-0.122,0.488,0.549,132.899
139403,143543,14355,-0.127,-0.945,-0.197,-0.122,0.488,0.549,132.905
139381,143559,10972,-0.129,-0.941,-0.2,-0.793,0.427,0.671,132.909
139381,143541,14350,-0.128,-0.942,-0.208,-0.793,0.427,0.671,132.915
139386,143559,10972,-0.131,-0.941,-0.209,-1.341,0.549,0.793,132.919
139386,143530,14362,-0.128,-0.945,-0.208,-1.341,0.549,0.793,132.925
139380,143559,10972,-0.128,-0.943,-0.204,-1.28,0.366,0.61,132.929
139380,143551,14351,-0.129,-0.942,-0.208,-1.28,0.366,0.61,132.935
139390,143559,10972,-0.129,-0.944,-0.211,-0.671,0.427,0.732,132.939
139390,143571,14353,-0.13,-0.946,-0.206,-0.671,0.427,0.732,132.945
139404,143559,10972,-0.127,-0.946,-0.199,0.305,0.305,0.549,132.949
139404,143529,14338,-0.126,-0.936,-0.192,0.305,0.305,0.549,132.955
139395,143559,10972,-0.128,-0.938,-0.191,0,0.183,0.427,132.959
139395,143532,14343,-0.127,-0.94,-0.191,0,0.183,0.427,132.965
139369,143559,10972,-0.128,-0.944,-0.198,-0.732,0.671,0.183,132.969
139369,143570,14353,-0.131,-0.947,-0.204,-0.732,0.671,0.183,132.975
139432,143559,10972,-0.129,-0.949,-0.21,-0.915,0.732,0,132.978
139432,143566,14364,-0.124,-0.952,-0.209,-0.915,0.732,0,132.985
139389,143559,10972,-0.124,-0.952,-0.208,-0.793,0.305,0.183,132.988
139389,143569,14349,-0.123,-0.951,-0.208,-0.793,0.305,0.183,132.995
139409,143559,10972,-0.122,-0.954,-0.208,-0.122,0.549,0.488,132.998
139409,143542,14335,-0.127,-0.945,-0.21,-0.122,0.549,0.488,133.004
139391,143559,10972,-0.128,-0.938,-0.213,0.305,0.732,0.61,133.008
139391,143548,14359,-0.13,-0.936,-0.211,0.305,0.732,0.61,133.014
139388,143559,10972,-0.133,-0.937,-0.205,0.61,0.244,0.549,133.018
139388,143559,14355,-0.13,-0.938,-0.201,0.61,0.244,0.549,133.024
139395,143559,10972,-0.127,-0.942,-0.193,0.183,0.061,0.366,133.028
139395,143548,14344,-0.128,-0.945,-0.189,0.183,0.061,0.366,133.034
139391,143559,10972,-0.13,-0.946,-0.192,-1.098,0.488,0.305,133.038
139391,143551,14356,-0.129,-0.948,-0.198,-1.098,0.488,0.305,133.044
139408,143559,10972,-0.132,-0.945,-0.206,-1.22,0.488,0.183,133.048
139408,143567,14333,-0.134,-0.946,-0.206,-1.22,0.488,0.183,133.054
139409,143559,10972,-0.129,-0.948,-0.198,-0.427,0.183,0.427,133.058
139409,143552,14344,-0.13,-0.951,-0.196,-0.427,0.183,0.427,133.064
139397,143559,10972,-0.126,-0.948,-0.196,0.244,0.366,0.854,133.068
139397,143542,14349,-0.121,-0.943,-0.196,0.244,0.366,0.854,133.074
139388,143559,10972,-0.125,-0.943,-0.2,0.305,0.793,0.732,133.077
139388,143577,14367,-0.121,-0.942,-0.21,0.305,0.793,0.732,133.084
139408,143559,10972,-0.123,-0.938,-0.21,0.183,0.61,0.549,133.087
139408,143591,14348,-0.123,-0.937,-0.213,0.183,0.61,0.549,133.094
139395,143559,10972,-0.122,-0.941,-0.214,0.122,0.549,0.61,133.097
139395,143554,14344,-0.124,-0.943,-0.214,0.122,0.549,0.61,133.103
139418,143559,10972,-0.128,-0.943,-0.209,-0.061,0.61,0.366,133.107
139418,143570,14364,-0.125,-0.946,-0.208,-0.061,0.61,0.366,133.113
139397,143559,10972,-0.125,-0.942,-0.207,-0.305,0.183,0.061,133.117
139397,143533,14369,-0.129,-0.942,-0.205,-0.305,0.183,0.061,133.123
139401,143559,10972,-0.129,-0.945,-0.202,-0.244,-0.183,0.122,133.127
139401,143555,14356,-0.131,-0.942,-0.201,-0.244,-0.183,0.122,133.133
139388,143559,10972,-0.134,-0.941,-0.199,-0.122,0,0.244,133.137
139388,143553,14350,-0.135,-0.94,-0.201,-0.122,0,0.244,133.143
139408,143559,10972,-0.133,-0.944,-0.203,-0.061,0,0.183,133.147
139408,143549,14353,-0.131,-0.945,-0.199,-0.061,0,0.183,133.153
139389,143559,10972,-0.132,-0.945,-0.193,-0.183,0,0.244,133.157
139389,143542,14347,-0.129,-0.944,-0.2,-0.183,0,0.244,133.163
139404,143559,10972,-0.129,-0.944,-0.2,-0.183,0,0.244,133.167
139404,143553,14346,-0.13,-0.944,-0.205,-0.671,0.488,0.366,133.173
139399,143559,10972,-0.13,-0.944,-0.205,-0.671,0.488,0.366,133.176
139399,143544,14348,-0.127,-0.945,-0.201,-0.061,0.671,0.122,133.183
139402,143559,10972,-0.127,-0.945,-0.201,-0.061,0.671,0.122,133.186
139402,143579,14361,-0.123,-0.944,-0.201,0.305,0.427,0.244,133.193
139415,143559,10972,-0.123,-0.944,-0.201,0.305,0.427,0.244,133.196
139415,143566,14344,-0.126,-0.946,-0.202,-0.061,0.305,0.488,133.202
139415,143559,10972,-0.126,-0.946,-0.202,-0.061,0.305,0.488,133.206
139415,143548,14359,-0.126,-0.943,-0.206,-0.427,0.488,0.427,133.212
139422,143559,10972,-0.126,-0.943,-0.206,-0.427,0.488,0.427,133.216
139422,143559,14357,-0.126,-0.947,-0.202,-0.61,0.427,0.427,133.222
139419,143559,10972,-0.126,-0.947,-0.202,-0.61,0.427,0.427,133.226
139419,143579,14347,-0.126,-0.948,-0.206,-0.244,0.122,0.549,133.232
139421,143559,10972,-0.126,-0.948,-0.206,-0.244,0.122,0.549,133.236
139421,143582,14328,-0.127,-0.947,-0.201,0,0,0.732,133.242
139413,143559,10972,-0.127,-0.947,-0.201,0,0,0.732,133.246
139413,143566,14359,-0.129,-0.941,-0.198,0.061,0.122,0.793,133.252
139407,143559,10972,-0.129,-0.941,-0.198,0.061,0.122,0.793,133.256
139407,143559,14351,-0.13,-0.941,-0.199,-0.122,0.305,0.793,133.262
139415,143559,10972,-0.13,-0.941,-0.199,-0.122,0.305,0.793,133.266
139415,143562,14352,-0.133,-0.942,-0.206,-0.488,0.671,0.549,133.272
139391,143559,10972,-0.133,-0.942,-0.206,-0.488,0.671,0.549,133.275
139391,143581,14352,-0.129,-0.946,-0.203,-0.793,0.488,0.305,133.282
139417,143559,10972,-0.129,-0.946,-0.203,-0.793,0.488,0.305,133.285
139417,143580,14374,-0.123,-0.942,-0.209,-0.732,0.244,0.183,133.292
139414,143559,10972,-0.123,-0.942,-0.209,-0.732,0.244,0.183,133.295
139414,143575,14367,-0.127,-0.945,-0.206,-0.488,0.427,0.122,133.301
139419,143559,10972,-0.127,-0.945,-0.206,-0.488,0.427,0.122,133.305
139419,143558,14356,-0.125,-0.943,-0.198,0.244,0.366,-0.061,133.311
139415,143559,10972,-0.125,-0.943,-0.198,0.244,0.366,-0.061,133.315
139415,143571,14362,-0.128,-0.943,-0.2,0.366,0.122,0.183,133.321
139403,143559,10972,-0.128,-0.944,-0.201,0.366,0.122,0.183,133.325
139403,143570,14360,-0.126,-0.945,-0.2,0.488,0.183,0.122,133.331
139420,143559,10972,-0.126,-0.946,-0.191,0.488,0.183,0.122,133.335
139420,143581,14359,-0.126,-0.948,-0.192,0.488,0.244,0,133.341
139401,143559,10972,-0.128,-0.947,-0.197,0.488,0.244,0,133.345
139401,143569,14354,-0.131,-0.948,-0.201,0.244,0.61,0.122,133.351
139417,143559,10972,-0.13,-0.948,-0.207,0.244,0.61,0.122,133.355
139417,143562,14351,-0.127,-0.943,-0.204,-0.244,0.488,0.305,133.361
139408,143559,10972,-0.127,-0.941,-0.203,-0.244,0.488,0.305,133.365
139408,143575,14353,-0.129,-0.942,-0.205,-0.793,0.427,0.427,133.371
139430,143559,10972,-0.127,-0.945,-0.204,-0.793,0.427,0.427,133.374
139430,143570,14364,-0.126,-0.946,-0.207,-0.671,0.793,0.427,133.381
139399,143559,10972,-0.126,-0.948,-0.203,-0.671,0.793,0.427,133.384
139399,143552,14370,-0.129,-0.948,-0.201,-0.793,0.732,0.61,133.391
139401,143559,10972,-0.13,-0.946,-0.195,-0.793,0.732,0.61,133.394
139401,143564,14356,-0.128,-0.946,-0.201,-0.976,0.549,0.854,133.4
139409,143559,10972,-0.131,-0.944,-0.203,-0.976,0.549,0.854,133.404
139409,143522,14350,-0.132,-0.939,-0.205,-1.037,0.732,0.854,133.41
139409,143559,10972,-0.13,-0.941,-0.204,-1.037,0.732,0.854,133.414
139409,143540,14363,-0.133,-0.942,-0.207,-1.402,0.732,0.915,133.42
139401,143559,10972,-0.131,-0.942,-0.209,-1.402,0.732,0.915,133.424
139401,143550,14366,-0.13,-0.944,-0.204,-1.341,0.732,0.732,133.43
139389,143559,10972,-0.131,-0.944,-0.199,-1.341,0.732,0.732,133.434
139389,143561,14352,-0.132,-0.942,-0.202,-0.488,0.976,0.488,133.44
139393,143559,10972,-0.133,-0.943,-0.209,-0.488,0.976,0.488,133.444
139393,143570,14355,-0.128,-0.943,-0.207,0.488,0.732,0.427,133.45
139408,143559,10972,-0.124,-0.94,-0.201,0.488,0.732,0.427,133.454
139408,143570,14355,-0.122,-0.937,-0.202,0.427,0.244,0.427,133.46
139394,143559,10972,-0.125,-0.938,-0.2,0.427,0.244,0.427,133.464
139394,143524,14349,-0.124,-0.942,-0.204,-0.122,0.427,0.244,133.47
139387,143559,10972,-0.126,-0.944,-0.205,-0.122,0.427,0.244,133.474
139387,143551,14348,-0.128,-0.943,-0.204,-0.732,1.037,0.122,133.48
139384,143559,10972,-0.129,-0.945,-0.21,-0.732,1.037,0.122,133.483
139384,143529,14351,-0.129,-0.948,-0.207,-0.915,0.549,0.305,133.49
139395,143559,10972,-0.126,-0.952,-0.199,-0.915,0.549,0.305,133.493
139395,143530,14342,-0.123,-0.951,-0.202,-0.488,0.244,0.488,133.499
139376,143559,10972,-0.125,-0.948,-0.2,-0.488,0.244,0.488,133.503
139376,143537,14345,-0.125,-0.946,-0.198,-0.854,0.549,0.61,133.509
139387,143559,10972,-0.129,-0.942,-0.205,-0.854,0.549,0.61,133.513
139387,143528,14358,-0.131,-0.939,-0.204,-0.793,0.915,0.671,133.519
139396,143559,10972,-0.13,-0.939,-0.208,-0.793,0.915,0.671,133.523
139396,143556,14344,-0.129,-0.938,-0.214,-0.549,0.549,0.549,133.529
139409,143559,10972,-0.126,-0.94,-0.211,-0.549,0.549,0.549,133.533
139409,143566,14345,-0.127,-0.942,-0.215,-0.244,0.305,0.488,133.539
139398,143559,10972,-0.126,-0.943,-0.212,-0.244,0.305,0.488,133.543
139398,143543,14345,-0.122,-0.945,-0.207,0,0.305,0.305,133.549
139400,143559,10972,-0.123,-0.945,-0.207,0,0.305,0.305,133.553
139400,143551,14344,-0.128,-0.941,-0.206,0.305,0.427,0.183,133.559
139414,143559,10972,-0.128,-0.944,-0.201,0.305,0.427,0.183,133.563
139414,143549,14346,-0.129,-0.944,-0.201,0.488,0.427,0.244,133.569
139387,143559,10972,-0.131,-0.944,-0.202,0.488,0.427,0.244,133.573
139387,143551,14353,-0.129,-0.944,-0.204,0.244,0.183,0.305,133.579
139392,143559,10972,-0.128,-0.945,-0.203,0.244,0.183,0.305,133.582
139392,143544,14349,-0.128,-0.947,-0.192,0,0.061,0.305,133.589
139383,143559,10972,-0.129,-0.945,-0.184,0,0.061,0.305,133.592
139383,143530,14340,-0.13,-0.945,-0.195,-0.305,0.549,0.488,133.599
139396,143559,10972,-0.131,-0.943,-0.204,-0.305,0.549,0.488,133.602
139396,143519,14327,-0.13,-0.945,-0.209,-0.732,0.671,0.549,133.608
139382,143559,10972,-0.129,-0.945,-0.204,-0.732,0.671,0.549,133.612
139382,143533,14367,-0.128,-0.946,-0.202,-0.366,0.305,0.488,133.618
139400,143559,10972,-0.127,-0.943,-0.204,-0.366,0.305,0.488,133.622
139400,143555,14346,-0.13,-0.941,-0.206,-0.305,0.488,0.549,133.628
139385,143559,10972,-0.129,-0.943,-0.209,-0.305,0.488,0.549,133.632
139385,143560,14336,-0.13,-0.941,-0.211,-0.061,0.671,0.488,133.638
139391,143559,10972,-0.125,-0.944,-0.206,-0.061,0.671,0.488,133.642
139391,143568,14342,-0.128,-0.942,-0.2,-0.061,0.305,0.488,133.648
139397,143559,10972,-0.128,-0.942,-0.198,-0.061,0.305,0.488,133.652
139397,143543,14325,-0.126,-0.945,-0.199,-0.366,0.488,0.488,133.658
139373,143559,10972,-0.13,-0.943,-0.203,-0.366,0.488,0.488,133.662
139373,143539,14339,-0.132,-0.946,-0.199,-0.732,0.671,0.366,133.668
139384,143559,10972,-0.128,-0.944,-0.2,-0.732,0.671,0.366,133.672
139384,143519,14340,-0.127,-0.944,-0.203,-0.915,0.488,0.427,133.678
139379,143559,10972,-0.127,-0.946,-0.205,-0.915,0.488,0.427,133.681
139379,143547,14344,-0.127,-0.946,-0.21,-0.549,0.61,0.488,133.688
139382,143559,10972,-0.128,-0.944,-0.208,-0.549,0.61,0.488,133.691
139382,143534,14329,-0.129,-0.942,-0.206,-0.488,0.61,0.488,133.698
139385,143559,10972,-0.129,-0.942,-0.204,-0.488,0.61,0.488,133.701
139385,143527,14320,-0.131,-0.941,-0.204,-0.183,0.427,0.427,133.707
139396,143559,10972,-0.127,-0.943,-0.209,-0.183,0.427,0.427,133.711
139396,143525,14335,-0.129,-0.945,-0.205,-0.061,0.305,0.366,133.717
139377,143559,10972,-0.126,-0.945,-0.203,-0.061,0.305,0.366,133.721
139377,143529,14336,-0.127,-0.943,-0.203,-0.183,0.366,0.427,133.727
139389,143559,10972,-0.128,-0.941,-0.204,-0.183,0.366,0.427,133.731
139389,143527,14351,-0.129,-0.941,-0.207,-0.488,0.366,0.488,133.737
139387,143559,10972,-0.126,-0.944,-0.205,-0.488,0.366,0.488,133.741
139387,143541,14337,-0.127,-0.948,-0.204,0,0.427,0.488,133.747
139411,143559,10972,-0.13,-0.946,-0.205,0,0.427,0.488,133.751
139411,143563,14347,-0.129,-0.94,-0.204,-0.061,0.488,0.427,133.757
139391,143559,10972,-0.128,-0.94,-0.2,-0.061,0.488,0.427,133.761
139391,143541,14361,-0.129,-0.939,-0.202,-0.427,0.366,0.244,133.767
