150967,168387,13990,-0.048,-0.945,-0.192,-0.244,0.488,0.244,329.622
150967,168436,14394,-0.051,-0.947,-0.194,0.183,0.427,0.183,329.628
150975,168387,13990,-0.051,-0.947,-0.194,0.183,0.427,0.183,329.632
150975,168411,14395,-0.049,-0.946,-0.191,0.366,0.488,0.183,329.638
150950,168387,13990,-0.049,-0.946,-0.191,0.366,0.488,0.183,329.641
150950,168375,14385,-0.049,-0.944,-0.186,0.793,0.549,0.061,329.648
150925,168387,13990,-0.049,-0.944,-0.186,0.793,0.549,0.061,329.651
150925,168342,14398,-0.049,-0.948,-0.189,0.854,0.549,0.183,329.658
150909,168387,13990,-0.049,-0.948,-0.189,0.854,0.549,0.183,329.661
150909,168357,14386,-0.048,-0.943,-0.183,0.427,0.488,0.183,329.667
150897,168387,13990,-0.048,-0.943,-0.183,0.427,0.488,0.183,329.671
150897,168349,14404,-0.047,-0.943,-0.19,-0.366,0.427,0.122,329.677
150901,168387,13990,-0.047,-0.943,-0.19,-0.366,0.427,0.122,329.681
150901,168354,14370,-0.046,-0.947,-0.193,-0.976,0.244,0.122,329.687
150924,168387,13990,-0.046,-0.947,-0.193,-0.976,0.244,0.122,329.691
150924,168351,14412,-0.049,-0.948,-0.196,-0.976,0.183,0.122,329.697
150920,168387,13990,-0.049,-0.948,-0.196,-0.976,0.183,0.122,329.701
150920,168358,14363,-0.047,-0.946,-0.198,-0.854,0.244,0.061,329.707
150901,168387,13990,-0.047,-0.946,-0.198,-0.854,0.244,0.061,329.711
150901,168343,14394,-0.046,-0.945,-0.192,-0.244,0.366,0.122,329.717
150902,168387,13990,-0.046,-0.945,-0.192,-0.244,0.366,0.122,329.721
150902,168325,14383,-0.048,-0.942,-0.187,0.366,0.488,0.183,329.727
150856,168387,13990,-0.048,-0.942,-0.187,0.366,0.488,0.183,329.731
150856,168304,14366,-0.047,-0.946,-0.189,0.671,0.488,0.183,329.737
150841,168387,13990,-0.047,-0.946,-0.189,0.671,0.488,0.183,329.74
150841,168312,14374,-0.047,-0.947,-0.193,0.305,0.488,0.122,329.747
150839,168387,13990,-0.047,-0.947,-0.193,0.305,0.488,0.122,329.75
150839,168297,14392,-0.044,-0.945,-0.193,-0.122,0.488,0.122,329.757
150860,168387,13990,-0.044,-0.945,-0.193,-0.122,0.488,0.122,329.76
150860,168353,14376,-0.045,-0.94,-0.192,0.061,0.427,0.305,329.766
150867,168387,13990,-0.045,-0.945,-0.196,0.061,0.427,0.305,329.77
150867,168337,14392,-0.047,-0.945,-0.191,0.305,0.427,0.488,329.776
150900,168387,13990,-0.047,-0.946,-0.193,0.305,0.427,0.488,329.78
150900,168361,14385,-0.046,-0.941,-0.187,0.366,0.427,0.61,329.786
150895,168387,13990,-0.048,-0.939,-0.182,0.366,0.427,0.61,329.79
150895,168356,14388,-0.048,-0.943,-0.184,0.061,0.366,0.61,329.796
150872,168387,13990,-0.047,-0.944,-0.187,0.061,0.366,0.61,329.8
150872,168321,14378,-0.049,-0.946,-0.191,-0.549,0.366,0.366,329.806
150842,168387,13990,-0.05,-0.946,-0.193,-0.549,0.366,0.366,329.81
150842,168304,14396,-0.047,-0.945,-0.193,-0.671,0.427,0.183,329.816
150827,168387,13990,-0.05,-0.947,-0.197,-0.671,0.427,0.183,329.82
150827,168307,14400,-0.05,-0.946,-0.191,-0.305,0.366,0.183,329.826
150821,168387,13990,-0.047,-0.947,-0.188,-0.305,0.366,0.183,329.83
150821,168317,14390,-0.048,-0.947,-0.192,-0.183,0.427,0.122,329.836
150852,168387,13990,-0.047,-0.942,-0.189,-0.183,0.427,0.122,329.839
150852,168312,14403,-0.048,-0.942,-0.19,-0.244,0.427,0.183,329.846
150862,168387,13990,-0.045,-0.944,-0.192,-0.244,0.427,0.183,329.849
150862,168334,14395,-0.048,-0.945,-0.187,-0.305,0.427,0.244,329.856
150871,168387,13990,-0.045,-0.945,-0.19,-0.305,0.427,0.244,329.859
150871,168340,14402,-0.045,-0.943,-0.191,-0.488,0.305,0.366,329.865
150856,168387,13990,-0.044,-0.94,-0.189,-0.488,0.305,0.366,329.869
150856,168342,14396,-0.047,-0.941,-0.191,-0.793,0.244,0.488,329.875
150844,168387,13990,-0.047,-0.946,-0.192,-0.793,0.244,0.488,329.879
150844,168362,14394,-0.047,-0.945,-0.196,-0.915,0.183,0.488,329.885
150849,168387,13990,-0.047,-0.945,-0.193,-0.915,0.183,0.488,329.889
150849,168326,14387,-0.046,-0.949,-0.199,-0.732,0.183,0.549,329.895
150826,168387,13990,-0.048,-0.947,-0.201,-0.732,0.183,0.549,329.899
150826,168339,14390,-0.05,-0.946,-0.201,-0.366,0.305,0.549,329.905
150857,168387,13990,-0.048,-0.948,-0.198,-0.366,0.305,0.549,329.909
150857,168350,14385,-0.049,-0.944,-0.189,0.366,0.366,0.488,329.915
150860,168387,13990,-0.05,-0.942,-0.192,0.366,0.366,0.488,329.919
150860,168346,14392,-0.049,-0.943,-0.19,0.61,0.427,0.488,329.925
150897,168387,13990,-0.047,-0.945,-0.189,0.61,0.427,0.488,329.929
150897,168341,14389,-0.049,-0.943,-0.185,0.915,0.488,0.488,329.935
150899,168387,13990,-0.05,-0.941,-0.183,0.915,0.488,0.488,329.938
150899,168338,14406,-0.048,-0.94,-0.181,0.549,0.427,0.488,329.945
150895,168387,13990,-0.047,-0.944,-0.179,0.549,0.427,0.488,329.948
150895,168362,14384,-0.048,-0.943,-0.186,-0.305,0.366,0.427,329.955
150882,168387,13990,-0.05,-0.942,-0.187,-0.305,0.366,0.427,329.958
150882,168334,14383,-0.049,-0.945,-0.186,-1.22,0.305,0.305,329.964
150873,168387,13990,-0.047,-0.947,-0.188,-1.22,0.305,0.305,329.968
150873,168350,14375,-0.049,-0.946,-0.193,-1.707,0.244,0.366,329.974
150835,168387,13990,-0.048,-0.949,-0.198,-1.707,0.244,0.366,329.978
150835,168339,14395,-0.048,-0.945,-0.198,-1.402,0.366,0.366,329.984
150832,168387,13990,-0.047,-0.947,-0.198,-1.402,0.366,0.366,329.988
150832,168312,14404,-0.047,-0.948,-0.195,-0.732,0.305,0.244,329.994
150838,168387,13990,-0.051,-0.946,-0.199,-0.732,0.305,0.244,329.998
150838,168328,14393,-0.049,-0.944,-0.202,-0.183,0.427,0.244,330.004
150847,168387,13990,-0.046,-0.943,-0.2,-0.183,0.427,0.244,330.008
150847,168314,14382,-0.047,-0.944,-0.189,0.671,0.549,0.244,330.014
150843,168387,13990,-0.048,-0.944,-0.184,0.671,0.549,0.244,330.018
150843,168311,14395,-0.044,-0.942,-0.18,0.793,0.488,0.244,330.024
150853,168387,13990,-0.047,-0.941,-0.18,0.793,0.488,0.244,330.028
150853,168342,14388,-0.05,-0.944,-0.187,-0.427,0.305,0.427,330.034
150858,168387,13990,-0.044,-0.947,-0.19,-0.427,0.305,0.427,330.037
150858,168330,14388,-0.047,-0.945,-0.189,-1.22,0.305,0.427,330.044
150882,168387,13990,-0.046,-0.944,-0.187,-1.22,0.305,0.427,330.047
150882,168341,14412,-0.048,-0.946,-0.19,-1.098,0.183,0.488,330.054
150925,168387,13990,-0.048,-0.943,-0.197,-1.098,0.183,0.488,330.057
150925,168380,14389,-0.047,-0.945,-0.2,-1.037,0.183,0.671,330.063
150907,168387,13990,-0.049,-0.948,-0.2,-1.037,0.183,0.671,330.067
150907,168348,14406,-0.047,-0.948,-0.198,-0.244,0.244,0.671,330.073
150885,168387,13990,-0.047,-0.945,-0.192,-0.244,0.244,0.671,330.077
150885,168361,14397,-0.05,-0.943,-0.19,0.61,0.427,0.427,330.083
150863,168387,13990,-0.05,-0.944,-0.192,0.61,0.427,0.427,330.087
150863,168340,14398,-0.047,-0.945,-0.193,0.549,0.488,0.244,330.093
150859,168387,13990,-0.046,-0.942,-0.189,0.549,0.488,0.244,330.097
150859,168334,14378,-0.049,-0.941,-0.186,0.549,0.549,0,330.103
150842,168387,13990,-0.047,-0.945,-0.184,0.549,0.549,0,330.107
150842,168333,14397,-0.045,-0.946,-0.187,0.122,0.488,0,330.113
150859,168387,13990,-0.048,-0.943,-0.187,0.122,0.488,0,330.117
150859,168317,14394,-0.045,-0.945,-0.186,-0.427,0.366,0.183,330.123
150855,168387,13990,-0.046,-0.944,-0.19,-0.427,0.366,0.183,330.127
150855,168305,14392,-0.047,-0.944,-0.187,-0.854,0.305,0.244,330.133
150863,168387,13990,-0.044,-0.945,-0.188,-0.854,0.305,0.244,330.136
150863,168333,14383,-0.046,-0.947,-0.193,-0.793,0.305,0.488,330.143
150838,168387,13990,-0.048,-0.945,-0.197,-0.793,0.305,0.488,330.146
150838,168312,14393,-0.047,-0.945,-0.198,-0.793,0.305,0.61,330.153
150823,168387,13990,-0.049,-0.947,-0.2,-0.793,0.305,0.61,330.156
150823,168368,14395,-0.047,-0.945,-0.196,-0.244,0.305,0.488,330.162
150834,168387,13990,-0.047,-0.947,-0.192,-0.244,0.305,0.488,330.166
150834,168341,14398,-0.051,-0.946,-0.194,0.244,0.427,0.366,330.172
150830,168387,13990,-0.05,-0.942,-0.195,0.244,0.427,0.366,330.176
150830,168347,14404,-0.048,-0.946,-0.192,0.549,0.488,0.244,330.182
150846,168387,13990,-0.047,-0.944,-0.192,0.549,0.488,0.244,330.186
150846,168355,14395,-0.049,-0.944,-0.185,0.732,0.488,0.122,330.192
150864,168387,13990,-0.051,-0.944,-0.181,0.732,0.488,0.122,330.196
150864,168364,14396,-0.048,-0.943,-0.181,0.488,0.549,0.183,330.202
150897,168387,13990,-0.048,-0.943,-0.181,0.488,0.549,0.183,330.206
150897,168363,14393,-0.045,-0.941,-0.195,-0.671,0.488,0.183,330.212
150880,168387,13990,-0.045,-0.941,-0.195,-0.671,0.488,0.183,330.216
150880,168374,14394,-0.046,-0.944,-0.189,-0.854,0.305,0.305,330.222
150901,168387,13990,-0.046,-0.944,-0.189,-0.854,0.305,0.305,330.226
150901,168382,14396,-0.046,-0.946,-0.193,-0.549,0.244,0.488,330.232
150879,168387,13990,-0.046,-0.946,-0.193,-0.549,0.244,0.488,330.235
150879,168377,14405,-0.049,-0.949,-0.198,-0.61,0.427,0.61,330.242
150837,168387,13990,-0.049,-0.949,-0.198,-0.61,0.427,0.61,330.245
150837,168329,14400,-0.049,-0.942,-0.198,0.122,0.488,0.671,330.252
150789,168387,13990,-0.049,-0.942,-0.198,0.122,0.488,0.671,330.255
150789,168326,14390,-0.048,-0.945,-0.194,0.732,0.366,0.549,330.261
150793,168387,13990,-0.048,-0.945,-0.194,0.732,0.366,0.549,330.265
150793,168289,14398,-0.049,-0.941,-0.18,0.915,0.366,0.549,330.271
150771,168387,13990,-0.049,-0.941,-0.18,0.915,0.366,0.549,330.275
150771,168302,14380,-0.047,-0.945,-0.194,-0.061,0.427,0.488,330.281
150798,168387,13990,-0.047,-0.945,-0.194,-0.061,0.427,0.488,330.285
150798,168302,14395,-0.049,-0.944,-0.19,-0.122,0.366,0.305,330.291
150850,168387,13990,-0.049,-0.944,-0.19,-0.122,0.366,0.305,330.295
150850,168333,14387,-0.044,-0.942,-0.19,-0.122,0.305,0.366,330.301
150823,168387,13990,-0.044,-0.942,-0.19,-0.122,0.305,0.366,330.305
150823,168334,14411,-0.049,-0.945,-0.194,-0.427,0.366,0.366,330.311
150827,168387,13990,-0.049,-0.945,-0.194,-0.427,0.366,0.366,330.315
150827,168354,14402,-0.046,-0.944,-0.193,-0.366,0.427,0.427,330.321
150819,168387,13990,-0.046,-0.944,-0.193,-0.366,0.427,0.427,330.325
150819,168307,14386,-0.045,-0.945,-0.197,-0.244,0.427,0.427,330.331
150783,168387,13990,-0.045,-0.945,-0.197,-0.244,0.427,0.427,330.334
150783,168313,14372,-0.048,-0.943,-0.189,0.183,0.549,0.366,330.341
150777,168387,13990,-0.048,-0.943,-0.189,0.183,0.549,0.366,330.344
150777,168303,14397,-0.049,-0.94,-0.191,0.183,0.549,0.366,330.351
150794,168387,13990,-0.048,-0.943,-0.19,0.183,0.427,0.305,330.354
150794,168282,14387,-0.047,-0.945,-0.192,0.183,0.427,0.305,330.36
150788,168387,13990,-0.046,-0.943,-0.193,-0.183,0.366,0.244,330.364
150788,168339,14390,-0.045,-0.946,-0.188,-0.183,0.366,0.244,330.37
150815,168387,13990,-0.048,-0.945,-0.188,-0.183,0.366,0.305,330.374
150815,168323,14387,-0.045,-0.943,-0.188,-0.183,0.366,0.305,330.38
150821,168387,13990,-0.046,-0.943,-0.187,-0.305,0.305,0.488,330.384
150821,168338,14392,-0.045,-0.945,-0.188,-0.305,0.305,0.488,330.39
150844,168387,13990,-0.045,-0.945,-0.194,-0.732,0.366,0.671,330.394
150844,168346,14392,-0.046,-0.95,-0.2,-0.732,0.366,0.671,330.4
150824,168387,13990,-0.048,-0.948,-0.194,-0.732,0.244,0.732,330.404
150824,168336,14395,-0.047,-0.943,-0.19,-0.732,0.244,0.732,330.41
150824,168387,13990,-0.05,-0.943,-0.188,0,0.305,0.793,330.414
150824,168311,14391,-0.047,-0.941,-0.188,0,0.305,0.793,330.42
150797,168387,13990,-0.05,-0.941,-0.191,-0.244,0.366,0.793,330.424
150797,168315,14402,-0.052,-0.944,-0.192,-0.244,0.366,0.793,330.43
150784,168387,13990,-0.051,-0.945,-0.19,-0.549,0.427,0.427,330.433
150784,168321,14394,-0.053,-0.945,-0.184,-0.549,0.427,0.427,330.44
150799,168387,13990,-0.048,-0.944,-0.19,-0.305,0.488,0.061,330.443
150799,168313,14401,-0.049,-0.942,-0.188,-0.305,0.488,0.061,330.45
150786,168387,13990,-0.048,-0.944,-0.188,-0.244,0.488,-0.061,330.453
150786,168339,14407,-0.048,-0.946,-0.189,-0.244,0.488,-0.061,330.459
150822,168387,13990,-0.049,-0.944,-0.189,-0.488,0.427,-0.183,330.463
150822,168333,14401,-0.046,-0.939,-0.187,-0.488,0.427,-0.183,330.469
150847,168387,13990,-0.045,-0.941,-0.188,-0.854,0.366,-0.122,330.473
150847,168329,14399,-0.045,-0.946,-0.19,-0.854,0.366,-0.122,330.479
150861,168387,13990,-0.045,-0.948,-0.193,-1.098,0.244,0.122,330.483
150861,168339,14406,-0.045,-0.948,-0.198,-1.098,0.244,0.122,330.489
150827,168387,13990,-0.045,-0.948,-0.2,-1.037,0.305,0.305,330.493
150827,168340,14393,-0.047,-0.946,-0.198,-1.037,0.305,0.305,330.499
150822,168387,13990,-0.047,-0.945,-0.202,-0.488,0.305,0.305,330.503
150822,168333,14413,-0.047,-0.942,-0.199,-0.488,0.305,0.305,330.509
150800,168387,13990,-0.045,-0.944,-0.194,0.366,0.488,0.427,330.513
150800,168346,14391,-0.048,-0.944,-0.191,0.366,0.488,0.427,330.519
150831,168387,13990,-0.049,-0.942,-0.192,0.915,0.549,0.183,330.523
150831,168344,14389,-0.052,-0.942,-0.192,0.915,0.549,0.183,330.529
150834,168387,13990,-0.05,-0.944,-0.186,0.732,0.549,0.061,330.532
150834,168391,14397,-0.047,-0.949,-0.184,0.732,0.549,0.061,330.539
150898,168387,13990,-0.045,-0.949,-0.186,0.061,0.488,0,330.542
150898,168394,14408,-0.046,-0.947,-0.185,0.061,0.488,0,330.549
150908,168387,13990,-0.047,-0.941,-0.18,-0.427,0.488,0.122,330.552
150908,168393,14409,-0.049,-0.944,-0.186,-0.427,0.488,0.122,330.558
150916,168387,13990,-0.047,-0.945,-0.192,-1.28,0.305,0.122,330.562
150916,168386,14400,-0.048,-0.942,-0.191,-1.28,0.305,0.122,330.568
150905,168387,13990,-0.048,-0.945,-0.193,-1.463,0.244,0.122,330.572
150905,168381,14425,-0.047,-0.948,-0.194,-1.463,0.244,0.122,330.578
150892,168387,13990,-0.049,-0.948,-0.198,-1.159,0.183,0.122,330.582
150892,168370,14415,-0.045,-0.946,-0.197,-1.159,0.183,0.122,330.588
150879,168387,13990,-0.047,-0.947,-0.198,-0.732,0.305,0.061,330.592
150879,168388,14419,-0.048,-0.947,-0.203,-0.732,0.305,0.061,330.598
150907,168387,13990,-0.049,-0.945,-0.197,0.183,0.488,0,330.602
150907,168401,14403,-0.047,-0.942,-0.19,0.183,0.488,0,330.608
150893,168387,13990,-0.045,-0.941,-0.187,1.037,0.488,-0.244,330.612
150893,168404,14412,-0.046,-0.941,-0.185,1.037,0.488,-0.244,330.618
150914,168387,13990,-0.044,-0.944,-0.188,0.549,0.488,-0.244,330.622
150914,168427,14413,-0.043,-0.943,-0.188,0.549,0.488,-0.244,330.628
150922,168387,13990,-0.044,-0.943,-0.189,0,0.366,-0.305,330.631
150922,168413,14420,-0.045,-0.947,-0.19,0,0.366,-0.305,330.638
150911,168387,13990,-0.042,-0.946,-0.193,-0.427,0.183,-0.244,330.641
150911,168409,14411,-0.044,-0.948,-0.194,-0.427,0.183,-0.244,330.648
150912,168387,13990,-0.044,-0.946,-0.195,-0.488,0.244,0.061,330.651
150912,168404,14412,-0.044,-0.947,-0.198,-0.488,0.244,0.061,330.657
150881,168387,13990,-0.047,-0.945,-0.195,-0.122,0.366,0.427,330.661
150881,168389,14421,-0.048,-0.943,-0.193,-0.122,0.366,0.427,330.667
150875,168387,13990,-0.048,-0.944,-0.193,0.61,0.488,0.549,330.671
150875,168376,14415,-0.05,-0.942,-0.19,0.61,0.488,0.549,330.677
150892,168387,13990,-0.047,-0.941,-0.191,0.976,0.427,0.488,330.681
150892,168371,14416,-0.048,-0.944,-0.186,0.976,0.427,0.488,330.687
150877,168387,13990,-0.049,-0.942,-0.185,0.671,0.366,0.244,330.691
150877,168395,14404,-0.047,-0.942,-0.188,0.671,0.366,0.244,330.697
150881,168387,13990,-0.049,-0.947,-0.187,0.122,0.488,0.061,330.701
150881,168389,14400,-0.047,-0.947,-0.186,0.122,0.488,0.061,330.707
150886,168387,13990,-0.045,-0.942,-0.192,-0.305,0.488,-0.122,330.711
150886,168416,14426,-0.043,-0.944,-0.198,-0.305,0.488,-0.122,330.717
150890,168387,13990,-0.047,-0.947,-0.195,-0.427,0.488,0.061,330.721
150890,168387,14400,-0.044,-0.945,-0.187,-0.427,0.488,0.061,330.727
150838,168387,13990,-0.042,-0.944,-0.189,0.061,0.427,0.305,330.73
150838,168352,14427,-0.045,-0.943,-0.189,0.061,0.427,0.305,330.737
150839,168387,13990,-0.048,-0.946,-0.192,-0.488,0.366,0.488,330.74
150839,168344,14384,-0.047,-0.947,-0.189,-0.488,0.366,0.488,330.747
150785,168387,13990,-0.046,-0.944,-0.19,-0.488,0.366,0.488,330.75
150785,168302,14391,-0.051,-0.944,-0.193,-0.488,0.366,0.488,330.756
150763,168387,13990,-0.049,-0.941,-0.189,-0.305,0.305,0.305,330.76
150763,168295,14388,-0.046,-0.939,-0.191,-0.305,0.305,0.305,330.766
150740,168387,13990,-0.047,-0.945,-0.194,-0.366,0.244,0.183,330.77
150740,168279,14394,-0.043,-0.946,-0.195,-0.366,0.244,0.183,330.776
150742,168387,13990,-0.045,-0.945,-0.191,-0.244,0.183,0.122,330.78
150742,168294,14385,-0.043,-0.944,-0.19,-0.244,0.183,0.122,330.786
150763,168387,13990,-0.043,-0.944,-0.19,-0.244,0.183,0.122,330.79
150763,168309,14413,-0.043,-0.948,-0.202,-0.305,0.183,0.305,330.796
150784,168387,13990,-0.043,-0.948,-0.202,-0.305,0.183,0.305,330.8
150784,168321,14396,-0.041,-0.945,-0.192,0,0.366,0.427,330.806
150775,168387,13990,-0.041,-0.945,-0.192,0,0.366,0.427,330.81
150775,168323,14406,-0.043,-0.943,-0.189,0.671,0.427,0.61,330.816
150790,168387,13990,-0.043,-0.943,-0.189,0.671,0.427,0.61,330.82
150790,168323,14404,-0.047,-0.946,-0.188,0.732,0.366,1.098,330.826
150777,168387,13990,-0.047,-0.946,-0.188,0.732,0.366,1.098,330.829
150777,168320,14412,-0.052,-0.94,-0.185,0.732,0.366,1.159,330.836
150780,168387,13990,-0.052,-0.94,-0.185,0.732,0.366,1.159,330.839
150780,168294,14399,-0.052,-0.945,-0.182,0.183,0.305,0.854,330.846
150746,168387,13990,-0.052,-0.945,-0.182,0.183,0.305,0.854,330.849
150746,168297,14399,-0.052,-0.942,-0.187,-0.366,0.366,0.488,330.855
150714,168387,13990,-0.052,-0.942,-0.187,-0.366,0.366,0.488,330.859
150714,168254,14398,-0.046,-0.946,-0.193,-1.159,0.366,0.305,330.865
150701,168387,13990,-0.046,-0.946,-0.193,-1.159,0.366,0.305,330.869
150701,168248,14387,-0.046,-0.947,-0.197,-1.22,0.305,0.122,330.875
150692,168387,13990,-0.046,-0.947,-0.197,-1.22,0.305,0.122,330.879
150692,168243,14398,-0.043,-0.944,-0.196,-0.671,0.427,0.244,330.885
150732,168387,13990,-0.043,-0.944,-0.196,-0.671,0.427,0.244,330.889
150732,168262,14406,-0.044,-0.943,-0.193,0.061,0.366,0.488,330.895
150749,168387,13990,-0.044,-0.943,-0.193,0.061,0.366,0.488,330.899
150749,168285,14401,-0.048,-0.943,-0.189,0.671,0.366,0.61,330.905
150724,168387,13990,-0.048,-0.943,-0.189,0.671,0.366,0.61,330.909
150724,168273,14395,-0.049,-0.946,-0.188,0.305,0.427,0.671,330.915
150740,168387,13990,-0.049,-0.946,-0.188,0.305,0.427,0.671,330.919
150740,168279,14385,-0.048,-0.942,-0.188,-0.61,0.427,0.488,330.925
150738,168387,13990,-0.048,-0.942,-0.188,-0.61,0.427,0.488,330.928
150738,168261,14393,-0.048,-0.945,-0.187,-0.793,0.244,0.305,330.935
150750,168387,13990,-0.05,-0.943,-0.185,-0.793,0.244,0.305,330.938
150750,168263,14413,-0.051,-0.945,-0.19,-0.976,0.122,0.366,330.945
150758,168387,13990,-0.051,-0.947,-0.192,-0.976,0.122,0.366,330.948
150758,168299,14409,-0.048,-0.945,-0.193,-1.037,0.183,0.305,330.954
150791,168387,13990,-0.045,-0.946,-0.197,-1.037,0.183,0.305,330.958
150791,168307,14416,-0.045,-0.948,-0.194,-0.793,0.244,0.366,330.964
150800,168387,13990,-0.045,-0.946,-0.194,-0.793,0.244,0.366,330.968
150800,168293,14407,-0.042,-0.943,-0.196,-0.366,0.366,0.488,330.974
150793,168387,13990,-0.043,-0.943,-0.192,-0.366,0.366,0.488,330.978
150793,168284,14409,-0.045,-0.94,-0.191,0.061,0.305,0.671,330.984
150810,168387,13990,-0.048,-0.94,-0.188,0.061,0.305,0.671,330.988
150810,168302,14393,-0.048,-0.943,-0.195,-0.122,0.366,0.732,330.994
150775,168387,13990,-0.048,-0.945,-0.191,-0.122,0.366,0.732,330.998
150775,168290,14403,-0.048,-0.941,-0.191,-0.244,0.305,0.61,331.004
150766,168387,13990,-0.047,-0.944,-0.194,-0.244,0.305,0.61,331.008
150766,168302,14402,-0.047,-0.944,-0.195,-0.183,0.366,0.488,331.014
150755,168387,13990,-0.048,-0.944,-0.189,-0.183,0.366,0.488,331.018
150755,168277,14395,-0.047,-0.946,-0.186,0.122,0.488,0.427,331.024
150742,168387,13990,-0.047,-0.945,-0.187,0.122,0.488,0.427,331.027
150742,168268,14385,-0.048,-0.945,-0.193,-0.183,0.427,0.366,331.034
150715,168387,13990,-0.048,-0.945,-0.192,-0.183,0.427,0.366,331.037
150715,168265,14409,-0.047,-0.946,-0.191,-0.366,0.427,0.305,331.044
150701,168387,13990,-0.048,-0.944,-0.187,-0.366,0.427,0.305,331.047
150701,168255,14404,-0.047,-0.944,-0.186,-0.366,0.366,0.488,331.053
150707,168387,13990,-0.044,-0.944,-0.194,-0.366,0.366,0.488,331.057
150707,168256,14410,-0.047,-0.943,-0.196,-0.732,0.305,0.61,331.063
150739,168387,13990,-0.047,-0.946,-0.192,-0.732,0.305,0.61,331.067
150739,168264,14389,-0.047,-0.945,-0.189,-0.366,0.305,0.488,331.073
150730,168387,13990,-0.049,-0.944,-0.19,-0.366,0.305,0.488,331.077
150730,168271,14392,-0.047,-0.941,-0.189,-0.122,0.305,0.366,331.083
150788,168387,13990,-0.049,-0.941,-0.189,-0.122,0.305,0.366,331.087
150788,168316,14396,-0.046,-0.945,-0.195,-0.488,0.366,0.244,331.093
150799,168387,13990,-0.049,-0.949,-0.194,-0.488,0.366,0.244,331.097
150799,168301,14418,-0.046,-0.947,-0.195,-0.366,0.366,0.061,331.103
150835,168387,13990,-0.047,-0.943,-0.191,-0.366,0.366,0.061,331.107
150835,168332,14409,-0.048,-0.944,-0.193,0.244,0.488,0.122,331.113
150837,168387,13990,-0.048,-0.947,-0.194,0.244,0.488,0.122,331.117
150837,168330,14408,-0.046,-0.944,-0.195,0.366,0.549,0.244,331.123
150828,168387,13990,-0.043,-0.945,-0.191,0.366,0.549,0.244,331.126
150828,168326,14413,-0.045,-0.946,-0.19,0.488,0.549,0.305,331.133
150787,168387,13990,-0.043,-0.948,-0.187,0.488,0.549,0.305,331.136
150787,168344,14407,-0.044,-0.946,-0.184,0.549,0.488,0.61,331.143
150781,168387,13990,-0.046,-0.942,-0.185,0.549,0.488,0.61,331.146
150781,168297,14393,-0.045,-0.945,-0.188,0.061,0.366,0.793,331.152
150816,168387,13990,-0.048,-0.942,-0.188,0.061,0.366,0.793,331.156
150816,168282,14420,-0.049,-0.943,-0.187,-0.488,0.366,0.854,331.162
150802,168387,13990,-0.049,-0.943,-0.191,-0.488,0.366,0.854,331.166
150802,168311,14411,-0.05,-0.941,-0.193,-1.098,0.305,0.671,331.172
150832,168387,13990,-0.049,-0.944,-0.193,-1.098,0.305,0.671,331.176
150832,168332,14401,-0.047,-0.946,-0.193,-0.976,0.305,0.427,331.182
150816,168387,13990,-0.048,-0.946,-0.192,-0.976,0.305,0.427,331.186
150816,168384,14428,-0.048,-0.944,-0.197,-0.732,0.305,0.366,331.192
150826,168387,13990,-0.047,-0.943,-0.197,-0.732,0.305,0.366,331.196
150826,168354,14402,-0.049,-0.944,-0.192,-0.366,0.427,0.244,331.202
150797,168387,13990,-0.047,-0.946,-0.193,-0.366,0.427,0.244,331.206
150797,168326,14424,-0.045,-0.945,-0.195,0.305,0.488,0.366,331.212
150771,168387,13990,-0.045,-0.946,-0.194,0.305,0.488,0.366,331.216
150771,168311,14397,-0.045,-0.944,-0.19,0.793,0.549,0.427,331.222
150766,168387,13990,-0.046,-0.947,-0.19,0.793,0.549,0.427,331.225
150766,168281,14391,-0.045,-0.945,-0.189,0.793,0.549,0.549,331.232
150759,168387,13990,-0.049,-0.941,-0.182,0.793,0.549,0.549,331.235
150759,168296,14409,-0.048,-0.941,-0.184,0.183,0.488,0.61,331.241
150754,168387,13990,-0.047,-0.939,-0.186,0.183,0.488,0.61,331.245
150754,168328,14400,-0.047,-0.944,-0.191,-0.549,0.366,0.488,331.251
150796,168387,13990,-0.047,-0.944,-0.195,-0.549,0.366,0.488,331.255
150796,168313,14412,-0.049,-0.945,-0.191,-0.732,0.305,0.305,331.261
150769,168387,13990,-0.05,-0.944,-0.189,-0.732,0.305,0.305,331.265
150769,168316,14414,-0.05,-0.945,-0.196,-0.915,0.305,0.366,331.271
150778,168387,13990,-0.05,-0.946,-0.196,-0.915,0.305,0.366,331.275
150778,168288,14398,-0.046,-0.948,-0.194,-0.671,0.305,0.244,331.281
150777,168387,13990,-0.045,-0.944,-0.196,-0.671,0.305,0.244,331.285
150777,168329,14407,-0.046,-0.943,-0.191,0.183,0.427,0.366,331.291
150796,168387,13990,-0.049,-0.943,-0.191,0.183,0.427,0.366,331.295
150796,168307,14402,-0.046,-0.943,-0.191,0.488,0.427,0.488,331.301
150800,168387,13990,-0.042,-0.946,-0.19,0.488,0.427,0.488,331.305
150800,168321,14393,-0.041,-0.943,-0.19,0.244,0.366,0.61,331.311
150789,168387,13990,-0.044,-0.945,-0.189,0.244,0.366,0.61,331.315
150789,168329,14402,-0.049,-0.944,-0.187,-0.061,0.244,0.915,331.321
150798,168387,13990,-0.049,-0.945,-0.194,-0.061,0.244,0.915,331.324
150798,168346,14412,-0.05,-0.944,-0.184,-0.427,0.244,1.037,331.331
150812,168387,13990,-0.048,-0.941,-0.181,-0.427,0.244,1.037,331.334
150812,168342,14404,-0.05,-0.945,-0.199,-1.22,0.305,0.854,331.341
150817,168387,13990,-0.05,-0.949,-0.195,-1.22,0.305,0.854,331.344
150817,168380,14408,-0.05,-0.946,-0.185,-1.463,0.427,0.549,331.35
150800,168387,13990,-0.049,-0.939,-0.192,-1.463,0.427,0.549,331.354
150800,168361,14412,-0.052,-0.945,-0.194,-1.28,0.366,0.366,331.36
150825,168387,13990,-0.048,-0.948,-0.193,-1.28,0.366,0.366,331.364
150825,168376,14410,-0.048,-0.946,-0.195,-0.915,0.427,0,331.37
150842,168387,13990,-0.045,-0.944,-0.193,-0.915,0.427,0,331.374
150842,168350,14415,-0.045,-0.947,-0.187,-0.427,0.488,-0.061,331.38
150827,168387,13990,-0.045,-0.947,-0.187,-0.427,0.488,-0.061,331.384
150827,168381,14416,-0.046,-0.945,-0.191,-0.305,0.488,0.061,331.39
150812,168387,13990,-0.046,-0.945,-0.191,-0.305,0.488,0.061,331.394
150812,168379,14413,-0.045,-0.944,-0.193,-0.61,0.366,0.183,331.4
150853,168387,13990,-0.045,-0.944,-0.193,-0.61,0.366,0.183,331.404
150853,168396,14415,-0.044,-0.946,-0.193,-0.732,0.366,0.305,331.41
150883,168387,13990,-0.044,-0.946,-0.193,-0.732,0.366,0.305,331.414
150883,168404,14411,-0.044,-0.943,-0.196,-0.671,0.305,0.549,331.42
150901,168387,13990,-0.044,-0.943,-0.196,-0.671,0.305,0.549,331.423
150901,168429,14419,-0.045,-0.944,-0.193,-0.366,0.305,0.793,331.43
150918,168387,13990,-0.045,-0.944,-0.193,-0.366,0.305,0.793,331.433
150918,168436,14420,-0.047,-0.946,-0.193,0,0.305,1.037,331.44
150910,168643,13990,-0.047,-0.946,-0.193,0,0.305,1.037,331.443
150910,168454,14416,-0.049,-0.944,-0.193,0,0.366,1.22,331.449
150909,168643,13990,-0.049,-0.944,-0.193,0,0.366,1.22,331.453
150909,168460,14419,-0.047,-0.946,-0.194,-0.122,0.244,1.22,331.459
150897,168387,13990,-0.047,-0.946,-0.194,-0.122,0.244,1.22,331.463
150897,168446,14428,-0.049,-0.945,-0.186,-0.061,0.183,1.159,331.469
150928,168643,13990,-0.049,-0.945,-0.186,-0.061,0.183,1.159,331.473
150928,168456,14427,-0.051,-0.945,-0.192,0.061,0.122,1.28,331.479
150917,168643,13990,-0.051,-0.945,-0.192,0.061,0.122,1.28,331.483
150917,168457,14422,-0.051,-0.947,-0.195,-0.244,0.305,0.976,331.489
150934,168643,13990,-0.051,-0.947,-0.195,-0.244,0.305,0.976,331.493
150934,168479,14435,-0.053,-0.943,-0.196,0.061,0.427,0.732,331.499
150966,168643,13990,-0.053,-0.943,-0.196,0.061,0.427,0.732,331.503
150966,168487,14424,-0.05,-0.946,-0.193,0.427,0.427,0.61,331.509
150985,168643,13990,-0.05,-0.946,-0.193,0.427,0.427,0.61,331.513
150985,168512,14435,-0.049,-0.941,-0.188,0.671,0.366,0.61,331.519
150987,168643,13990,-0.049,-0.941,-0.188,0.671,0.366,0.61,331.522
150987,168517,14446,-0.05,-0.949,-0.196,0.671,0.366,0.61,331.529
150992,168643,13990,-0.048,-0.948,-0.197,0.671,0.427,0.488,331.532
150992,168561,14439,-0.045,-0.944,-0.194,0.671,0.427,0.488,331.538
150978,168643,13990,-0.047,-0.941,-0.192,0.976,0.366,0.305,331.542
150978,168523,14428,-0.049,-0.944,-0.184,0.976,0.366,0.305,331.548
150992,168643,13990,-0.046,-0.943,-0.189,1.037,0.305,0.488,331.552
150992,168505,14428,-0.048,-0.941,-0.186,1.037,0.305,0.488,331.558
150962,168643,13990,-0.047,-0.941,-0.187,0.549,0.488,0.427,331.562
150962,168490,14440,-0.048,-0.943,-0.192,0.549,0.488,0.427,331.568
150986,168643,13990,-0.049,-0.947,-0.193,0.366,0.427,0.427,331.572
150986,168550,14436,-0.047,-0.948,-0.189,0.366,0.427,0.427,331.578
151012,168643,13990,-0.049,-0.945,-0.191,0.183,0.427,0.427,331.582
151012,168553,14428,-0.049,-0.943,-0.193,0.183,0.427,0.427,331.588
151026,168643,13990,-0.05,-0.943,-0.195,-0.061,0.366,0.305,331.592
151026,168574,14436,-0.048,-0.946,-0.194,-0.061,0.366,0.305,331.598
151030,168643,13990,-0.049,-0.945,-0.193,0,0.427,0.122,331.602
151030,168582,14449,-0.051,-0.943,-0.186,0,0.427,0.122,331.608
151023,168643,13990,-0.049,-0.942,-0.188,0.183,0.427,0.183,331.612
151023,168572,14426,-0.047,-0.944,-0.19,0.183,0.427,0.183,331.618
151003,168643,13990,-0.044,-0.944,-0.192,-0.061,0.366,0.305,331.621
151003,168586,14438,-0.043,-0.945,-0.193,-0.061,0.366,0.305,331.628
150987,168643,13990,-0.046,-0.945,-0.189,-0.305,0.366,0.427,331.631
150987,168550,14433,-0.047,-0.946,-0.189,-0.305,0.366,0.427,331.638
150945,168643,13990,-0.049,-0.946,-0.188,-0.671,0.305,0.61,331.641
150945,168531,14429,-0.048,-0.946,-0.188,-0.671,0.305,0.61,331.647
150952,168643,13990,-0.047,-0.944,-0.189,-0.915,0.305,0.549,331.651
150952,168542,14433,-0.048,-0.945,-0.193,-0.915,0.305,0.549,331.657
150927,168643,13990,-0.051,-0.947,-0.195,-0.976,0.244,0.488,331.661
150927,168496,14420,-0.052,-0.945,-0.192,-0.976,0.244,0.488,331.667
150913,168643,13990,-0.052,-0.939,-0.19,-0.732,0.244,0.366,331.671
150913,168504,14433,-0.051,-0.944,-0.193,-0.732,0.244,0.366,331.677
150911,168643,13990,-0.052,-0.947,-0.189,-0.671,0.244,0.122,331.681
150911,168489,14423,-0.051,-0.945,-0.188,-0.671,0.244,0.122,331.687
150911,168643,13990,-0.049,-0.943,-0.19,-0.671,0.305,-0.122,331.691
150911,168519,14432,-0.048,-0.944,-0.194,-0.671,0.305,-0.122,331.697
150922,168643,13990,-0.046,-0.948,-0.193,-0.732,0.427,-0.061,331.701
150922,168528,14427,-0.044,-0.947,-0.19,-0.732,0.427,-0.061,331.707
150940,168643,13990,-0.044,-0.945,-0.19,-0.732,0.366,0.122,331.711
150940,168498,14433,-0.046,-0.947,-0.189,-0.732,0.366,0.122,331.717
150936,168643,13990,-0.045,-0.948,-0.195,-0.793,0.244,0.427,331.72
150936,168568,14426,-0.044,-0.945,-0.198,-0.793,0.244,0.427,331.727
150968,168643,13990,-0.044,-0.943,-0.19,-0.671,0.366,0.671,331.73
150968,168585,14444,-0.047,-0.943,-0.189,-0.671,0.366,0.671,331.736
151002,168643,13990,-0.049,-0.945,-0.189,-0.183,0.366,0.854,331.74
151002,168561,14417,-0.048,-0.941,-0.192,-0.183,0.366,0.854,331.746
151009,168643,13990,-0.051,-0.945,-0.189,-0.305,0.366,0.915,331.75
151009,168579,14442,-0.05,-0.945,-0.181,-0.305,0.366,0.915,331.756
151012,168643,13990,-0.051,-0.942,-0.182,-0.915,0.244,0.793,331.76
151012,168628,14434,-0.05,-0.943,-0.188,-0.915,0.244,0.793,331.766
151033,168643,13990,-0.051,-0.945,-0.194,-1.768,0.244,0.549,331.77
151033,168630,14439,-0.05,-0.947,-0.193,-1.768,0.244,0.549,331.776
151057,168643,13990,-0.051,-0.944,-0.189,-1.768,0.305,0.427,331.78
151057,168676,14453,-0.049,-0.941,-0.187,-1.768,0.305,0.427,331.786
151093,168643,13990,-0.048,-0.947,-0.192,-1.89,0.183,0.427,331.79
151093,168695,14448,-0.051,-0.948,-0.198,-1.89,0.183,0.427,331.796
151118,168899,13990,-0.049,-0.946,-0.199,-1.829,0.183,0.305,331.8
151118,168710,14464,-0.044,-0.946,-0.199,-1.829,0.183,0.305,331.806
151157,168899,13990,-0.044,-0.944,-0.202,-1.22,0.366,0.366,331.81
151157,168741,14455,-0.048,-0.945,-0.194,-1.22,0.366,0.366,331.816
151186,168899,13990,-0.049,-0.943,-0.191,-0.427,0.427,0.488,331.819
151186,168735,14455,-0.05,-0.945,-0.191,-0.427,0.427,0.488,331.826
151204,168899,13990,-0.05,-0.944,-0.196,-0.366,0.427,0.427,331.829
151204,168764,14468,-0.05,-0.944,-0.195,-0.366,0.427,0.427,331.835
151242,168899,13990,-0.048,-0.944,-0.192,-0.366,0.488,0.244,331.839
151242,168814,14447,-0.052,-0.943,-0.191,-0.366,0.488,0.244,331.845
151244,168899,13990,-0.048,-0.943,-0.192,-0.244,0.427,0.244,331.849
151244,168798,14478,-0.046,-0.947,-0.194,-0.244,0.427,0.244,331.855
151248,168899,13990,-0.047,-0.948,-0.198,-0.488,0.427,0.244,331.859
151248,168802,14456,-0.047,-0.948,-0.194,-0.488,0.427,0.244,331.865
151231,168899,13990,-0.044,-0.945,-0.192,-0.183,0.366,0.183,331.869
151231,168775,14473,-0.048,-0.942,-0.192,-0.183,0.366,0.183,331.875
151240,168899,13990,-0.048,-0.946,-0.197,-0.122,0.305,0.488,331.879
151240,168803,14468,-0.048,-0.944,-0.194,-0.122,0.305,0.488,331.885
151252,168899,13990,-0.046,-0.946,-0.195,0,0.305,0.61,331.889
151252,168786,14478,-0.049,-0.942,-0.196,0,0.305,0.61,331.895
151231,168899,13990,-0.051,-0.943,-0.194,0.244,0.305,0.793,331.899
151231,168814,14455,-0.052,-0.946,-0.193,0.244,0.305,0.793,331.905
151250,168899,13990,-0.053,-0.946,-0.194,0.366,0.427,0.732,331.909
151250,168793,14489,-0.05,-0.943,-0.194,0.366,0.427,0.732,331.915
151238,168899,13990,-0.051,-0.945,-0.192,0.305,0.427,0.305,331.918
151238,168811,14464,-0.052,-0.943,-0.19,0.305,0.427,0.305,331.925
151224,168899,13990,-0.055,-0.944,-0.193,0.061,0.488,-0.061,331.928
151224,168784,14461,-0.052,-0.949,-0.192,0.061,0.488,-0.061,331.934
151232,168899,13990,-0.052,-0.947,-0.187,-0.061,0.549,-0.305,331.938
151232,168788,14459,-0.051,-0.943,-0.191,-0.061,0.549,-0.305,331.944
151186,168899,13990,-0.05,-0.945,-0.194,-0.122,0.549,-0.427,331.948
151186,168777,14463,-0.045,-0.946,-0.192,-0.122,0.549,-0.427,331.954
151186,168899,13990,-0.044,-0.947,-0.192,-0.061,0.488,-0.244,331.958
151186,168792,14452,-0.042,-0.947,-0.195,-0.061,0.488,-0.244,331.964
151168,168899,13990,-0.042,-0.947,-0.195,-0.061,0.488,-0.244,331.968
151168,168761,14449,-0.041,-0.946,-0.197,0.183,0.427,0.122,331.974
151166,168899,13990,-0.041,-0.946,-0.197,0.183,0.427,0.122,331.978
151166,168743,14452,-0.046,-0.947,-0.19,0.305,0.427,0.427,331.984
151170,168899,13990,-0.046,-0.947,-0.19,0.305,0.427,0.427,331.988
151170,168767,14459,-0.047,-0.942,-0.192,0.305,0.305,0.671,331.994
151168,168899,13990,-0.047,-0.942,-0.192,0.305,0.305,0.671,331.998
151168,168777,14460,-0.051,-0.945,-0.194,-0.183,0.366,0.732,332.004
151167,168899,13990,-0.051,-0.945,-0.194,-0.183,0.366,0.732,332.008
151167,168764,14468,-0.052,-0.943,-0.19,-0.427,0.366,0.427,332.014
151179,168899,13990,-0.052,-0.943,-0.19,-0.427,0.366,0.427,332.017
151179,168799,14459,-0.055,-0.944,-0.192,-0.549,0.427,0.061,332.024
151179,168899,13990,-0.055,-0.944,-0.192,-0.549,0.427,0.061,332.027
151179,168784,14447,-0.048,-0.948,-0.198,-0.671,0.427,-0.122,332.033
151121,168899,13990,-0.048,-0.948,-0.198,-0.671,0.427,-0.122,332.037
151121,168779,14466,-0.046,-0.947,-0.189,-0.488,0.366,-0.061,332.043
151085,168899,13990,-0.046,-0.947,-0.189,-0.488,0.366,-0.061,332.047
151085,168725,14444,-0.046,-0.941,-0.195,0,0.366,0.122,332.053
151051,168643,13990,-0.046,-0.941,-0.195,0,0.366,0.122,332.057
151051,168702,14449,-0.043,-0.943,-0.191,-0.122,0.366,0.366,332.063
151055,168643,13990,-0.043,-0.943,-0.191,-0.122,0.366,0.366,332.067
151055,168694,14446,-0.047,-0.945,-0.191,0.183,0.427,0.549,332.073
151012,168643,13990,-0.047,-0.945,-0.191,0.183,0.427,0.549,332.077
151012,168662,14441,-0.05,-0.942,-0.189,0,0.427,0.61,332.083
151031,168643,13990,-0.05,-0.942,-0.189,0,0.427,0.61,332.087
151031,168666,14424,-0.049,-0.945,-0.195,-0.488,0.366,0.61,332.093
150977,168643,13990,-0.049,-0.945,-0.195,-0.488,0.366,0.61,332.097
150977,168642,14438,-0.049,-0.95,-0.202,-0.915,0.183,0.549,332.103
150980,168643,13990,-0.049,-0.95,-0.202,-0.915,0.183,0.549,332.107
150980,168660,14431,-0.048,-0.946,-0.195,-0.427,0.305,0.61,332.113
150993,168643,13990,-0.051,-0.944,-0.193,-0.427,0.305,0.61,332.116
150993,168674,14423,-0.048,-0.945,-0.196,0.427,0.366,0.671,332.123
150975,168643,13990,-0.048,-0.942,-0.19,0.427,0.366,0.671,332.126
150975,168660,14430,-0.047,-0.941,-0.185,0.671,0.366,0.671,332.132
150996,168643,13990,-0.049,-0.945,-0.19,0.671,0.366,0.671,332.136
150996,168687,14434,-0.049,-0.944,-0.188,0.305,0.427,0.61,332.142
150986,168643,13990,-0.048,-0.942,-0.185,0.305,0.427,0.61,332.146
150986,168652,14428,-0.048,-0.944,-0.183,-0.122,0.427,0.549,332.152
150969,168643,13990,-0.048,-0.942,-0.19,-0.122,0.427,0.549,332.156
150969,168676,14418,-0.05,-0.945,-0.194,-0.854,0.366,0.61,332.162
150969,168643,13990,-0.049,-0.946,-0.195,-0.854,0.366,0.61,332.166
150969,168660,14436,-0.05,-0.946,-0.201,-0.915,0.305,0.61,332.172
150985,168643,13990,-0.048,-0.946,-0.2,-0.915,0.305,0.61,332.176
150985,168679,14439,-0.048,-0.946,-0.198,-0.183,0.366,0.488,332.182
151003,168643,13990,-0.048,-0.945,-0.197,-0.183,0.366,0.488,332.186
151003,168672,14418,-0.05,-0.942,-0.196,0.305,0.427,0.305,332.192
151009,168643,13990,-0.051,-0.941,-0.193,0.305,0.427,0.305,332.196
151009,168680,14454,-0.046,-0.945,-0.188,0.793,0.488,0.305,332.202
151010,168643,13990,-0.049,-0.942,-0.185,0.793,0.488,0.305,332.206
151010,168687,14416,-0.048,-0.943,-0.182,0.854,0.366,0.305,332.212
151015,168643,13990,-0.048,-0.942,-0.184,0.854,0.366,0.305,332.215
151015,168654,14436,-0.046,-0.944,-0.187,-0.183,0.305,0.305,332.222
151000,168643,13990,-0.047,-0.946,-0.194,-0.183,0.305,0.305,332.225
151000,168661,14443,-0.048,-0.946,-0.19,-0.793,0.366,0.305,332.231
150987,168643,13990,-0.048,-0.944,-0.193,-0.793,0.366,0.305,332.235
150987,168652,14429,-0.052,-0.945,-0.195,-0.854,0.366,0.366,332.241
151013,168643,13990,-0.051,-0.942,-0.194,-0.854,0.366,0.366,332.245
151013,168683,14439,-0.051,-0.946,-0.193,-0.549,0.366,0.366,332.251
151007,168643,13990,-0.049,-0.948,-0.196,-0.549,0.366,0.366,332.255
151007,168688,14438,-0.05,-0.945,-0.2,-0.366,0.488,0.122,332.261
150983,168643,13990,-0.05,-0.945,-0.196,-0.366,0.488,0.122,332.265
150983,168675,14433,-0.051,-0.943,-0.191,0.122,0.549,-0.061,332.271
151018,168643,13990,-0.052,-0.947,-0.194,0.122,0.549,-0.061,332.275
151018,168702,14438,-0.049,-0.943,-0.19,0.61,0.549,-0.183,332.281
151021,168643,13990,-0.049,-0.943,-0.188,0.61,0.549,-0.183,332.285
151021,168687,14435,-0.045,-0.942,-0.19,0.549,0.427,-0.244,332.291
150999,168643,13990,-0.046,-0.94,-0.193,0.549,0.427,-0.244,332.295
150999,168675,14434,-0.045,-0.945,-0.198,0,0.366,-0.183,332.301
150968,168643,13990,-0.044,-0.946,-0.193,0,0.366,-0.183,332.304
150968,168660,14438,-0.044,-0.943,-0.189,0.061,0.305,-0.061,332.311
150961,168643,13990,-0.043,-0.942,-0.197,0.061,0.305,-0.061,332.314
150961,168653,14430,-0.046,-0.944,-0.193,0.366,0.305,0.366,332.321
150956,168643,13990,-0.047,-0.947,-0.19,0.366,0.305,0.366,332.324
150956,168624,14441,-0.049,-0.946,-0.193,0.305,0.244,0.549,332.33
150966,168643,13990,-0.048,-0.945,-0.192,0.305,0.244,0.549,332.334
150966,168664,14444,-0.048,-0.943,-0.188,0.122,0.305,0.61,332.34
150958,168643,13990,-0.049,-0.942,-0.185,0.122,0.305,0.61,332.344
150958,168666,14427,-0.053,-0.942,-0.184,0,0.366,0.61,332.35
150967,168643,13990,-0.052,-0.944,-0.192,0,0.366,0.61,332.354
150967,168677,14432,-0.049,-0.944,-0.193,-0.427,0.366,0.366,332.36
150966,168643,13990,-0.05,-0.942,-0.192,-0.427,0.366,0.366,332.364
150966,168661,14448,-0.05,-0.946,-0.191,-0.488,0.366,0.183,332.37
150955,168643,13990,-0.049,-0.945,-0.189,-0.488,0.366,0.183,332.374
150955,168681,14433,-0.05,-0.943,-0.189,-0.61,0.366,0,332.38
150982,168643,13990,-0.049,-0.944,-0.19,-0.61,0.366,0,332.384
150982,168667,14422,-0.047,-0.945,-0.193,-0.183,0.366,-0.122,332.39
150984,168643,13990,-0.048,-0.946,-0.193,-0.183,0.366,-0.122,332.394
150984,168690,14431,-0.046,-0.947,-0.193,-0.061,0.366,-0.122,332.4
150991,168899,13990,-0.046,-0.948,-0.192,-0.061,0.366,-0.122,332.404
150991,168711,14441,-0.045,-0.944,-0.195,0,0.427,0.061,332.41
150996,168899,13990,-0.047,-0.941,-0.191,0,0.427,0.061,332.413
150996,168718,14452,-0.044,-0.941,-0.191,0.244,0.488,0.366,332.42
150991,168643,13990,-0.044,-0.943,-0.191,0.244,0.488,0.366,332.423
150991,168692,14455,-0.046,-0.944,-0.192,0.183,0.427,0.549,332.429
150995,168643,13990,-0.047,-0.944,-0.191,0.183,0.427,0.549,332.433
150995,168688,14444,-0.047,-0.946,-0.19,-0.061,0.305,0.671,332.439
150981,168643,13990,-0.046,-0.946,-0.191,-0.061,0.305,0.671,332.443
150981,168682,14444,-0.047,-0.946,-0.191,-0.244,0.305,0.732,332.449
150985,168899,13990,-0.049,-0.947,-0.195,-0.244,0.305,0.732,332.453
150985,168711,14430,-0.046,-0.944,-0.192,-0.427,0.244,0.732,332.459
151015,168899,13990,-0.047,-0.944,-0.192,-0.427,0.244,0.732,332.463
151015,168708,14446,-0.05,-0.946,-0.193,-0.061,0.244,0.732,332.469
151037,168899,13990,-0.048,-0.944,-0.195,-0.061,0.244,0.732,332.473
151037,168745,14457,-0.047,-0.942,-0.192,0,0.366,0.488,332.479
151063,168899,13990,-0.049,-0.942,-0.193,0,0.366,0.488,332.483
151063,168756,14437,-0.048,-0.945,-0.194,0.183,0.488,0.427,332.489
151041,168899,13990,-0.046,-0.946,-0.196,0.183,0.488,0.427,332.493
151041,168757,14447,-0.048,-0.945,-0.184,0.366,0.549,0.549,332.499
151035,168899,13990,-0.049,-0.944,-0.188,0.366,0.549,0.549,332.502
151035,168727,14441,-0.05,-0.942,-0.187,0.427,0.549,0.61,332.509
151012,168899,13990,-0.052,-0.942,-0.186,0.427,0.549,0.61,332.512
151012,168740,14440,-0.049,-0.947,-0.186,-0.244,0.427,0.488,332.519
150976,168643,13990,-0.047,-0.943,-0.183,-0.244,0.427,0.488,332.522
150976,168702,14447,-0.049,-0.94,-0.189,-1.098,0.305,0.305,332.528
150991,168899,13990,-0.052,-0.944,-0.187,-1.098,0.305,0.305,332.532
150991,168706,14438,-0.048,-0.945,-0.19,-1.646,0.244,0.244,332.538
150968,168899,13990,-0.049,-0.945,-0.19,-1.646,0.244,0.244,332.542
150968,168719,14449,-0.048,-0.943,-0.193,-1.585,0.244,0.122,332.548
150976,168899,13990,-0.048,-0.943,-0.193,-1.585,0.244,0.122,332.552
150976,168716,14446,-0.044,-0.944,-0.196,-1.341,0.183,0.244,332.558
150970,168643,13990,-0.044,-0.944,-0.196,-1.341,0.183,0.244,332.562
150970,168702,14431,-0.045,-0.947,-0.2,-0.732,0.305,0.305,332.568
150966,168643,13990,-0.045,-0.947,-0.2,-0.732,0.305,0.305,332.572
150966,168683,14431,-0.047,-0.944,-0.197,-0.183,0.427,0.427,332.578
150934,168643,13990,-0.047,-0.944,-0.197,-0.183,0.427,0.427,332.582
150934,168669,14437,-0.046,-0.944,-0.193,0.305,0.427,0.488,332.588
150949,168643,13990,-0.046,-0.944,-0.193,0.305,0.427,0.488,332.592
150949,168646,14424,-0.048,-0.945,-0.198,0.366,0.427,0.427,332.598
150925,168643,13990,-0.048,-0.945,-0.198,0.366,0.427,0.427,332.601
150925,168664,14432,-0.05,-0.938,-0.173,0.183,0.305,0.366,332.608
150950,168643,13990,-0.05,-0.938,-0.173,0.183,0.305,0.366,332.611
150950,168691,14429,-0.051,-0.945,-0.198,-1.22,0.366,0.061,332.618
150956,168643,13990,-0.051,-0.945,-0.198,-1.22,0.366,0.061,332.621
150956,168665,14440,-0.047,-0.947,-0.192,-0.061,0.244,-0.061,332.627
150947,168643,13990,-0.047,-0.947,-0.192,-0.061,0.244,-0.061,332.631
150947,168679,14437,-0.051,-0.943,-0.187,-0.549,0.366,0.244,332.637
150944,168643,13990,-0.051,-0.943,-0.187,-0.549,0.366,0.244,332.641
150944,168670,14444,-0.046,-0.941,-0.195,-0.427,0.305,0.183,332.647
150941,168643,13990,-0.046,-0.941,-0.195,-0.427,0.305,0.183,332.651
150941,168684,14441,-0.046,-0.946,-0.188,-0.793,0.183,0.244,332.657
150918,168643,13990,-0.046,-0.946,-0.188,-0.793,0.183,0.244,332.661
150918,168624,14433,-0.048,-0.947,-0.198,-1.159,0.244,0.427,332.667
150905,168643,13990,-0.048,-0.947,-0.198,-1.159,0.244,0.427,332.671
150905,168624,14425,-0.048,-0.943,-0.196,-0.915,0.305,0.549,332.677
150924,168643,13990,-0.048,-0.943,-0.196,-0.915,0.305,0.549,332.681
150924,168630,14445,-0.049,-0.946,-0.197,-0.61,0.244,0.549,332.687
150932,168643,13990,-0.049,-0.946,-0.197,-0.61,0.244,0.549,332.691
150932,168641,14428,-0.05,-0.945,-0.195,-0.61,0.244,0.549,332.697
150918,168643,13990,-0.048,-0.943,-0.194,-0.549,0.366,0.305,332.701
150918,168675,14439,-0.05,-0.943,-0.193,-0.549,0.366,0.305,332.707
150935,168643,13990,-0.051,-0.943,-0.19,-0.305,0.244,0.244,332.71
150935,168675,14440,-0.045,-0.946,-0.198,-0.305,0.244,0.244,332.717
150946,168643,13990,-0.047,-0.948,-0.191,0,0.427,0.244,332.72
150946,168665,14439,-0.048,-0.945,-0.191,0,0.427,0.244,332.726
150950,168643,13990,-0.046,-0.942,-0.186,0.366,0.427,0.244,332.73
150950,168701,14447,-0.047,-0.947,-0.188,0.366,0.427,0.244,332.736
150981,168643,13990,-0.049,-0.947,-0.193,0,0.366,0.366,332.74
150981,168694,14424,-0.048,-0.943,-0.189,0,0.366,0.366,332.746
150951,168643,13990,-0.048,-0.941,-0.19,-0.549,0.366,0.366,332.75
150951,168688,14454,-0.048,-0.944,-0.193,-0.549,0.366,0.366,332.756
150994,168899,13990,-0.049,-0.945,-0.19,-0.488,0.305,0.427,332.76
150994,168712,14432,-0.049,-0.946,-0.191,-0.488,0.305,0.427,332.766
151010,168899,13990,-0.049,-0.943,-0.196,-0.488,0.427,0.366,332.77
151010,168722,14447,-0.049,-0.945,-0.196,-0.488,0.427,0.366,332.776
151042,168899,13990,-0.046,-0.946,-0.195,-0.549,0.488,0.122,332.78
151042,168716,14448,-0.049,-0.946,-0.199,-0.549,0.488,0.122,332.786
151059,168899,13990,-0.049,-0.947,-0.196,0.122,0.488,0.061,332.79
151059,168754,14453,-0.048,-0.943,-0.192,0.122,0.488,0.061,332.796
151048,168899,13990,-0.05,-0.942,-0.19,0.854,0.488,0.061,332.799
151048,168741,14442,-0.049,-0.941,-0.191,0.854,0.488,0.061,332.806
151037,168899,13990,-0.049,-0.943,-0.189,0.61,0.549,0.183,332.809
151037,168755,14454,-0.05,-0.941,-0.186,0.61,0.549,0.183,332.816
151015,168899,13990,-0.046,-0.945,-0.186,0.244,0.488,0.305,332.819
151015,168724,14452,-0.044,-0.943,-0.191,0.244,0.488,0.305,332.825
150993,168899,13990,-0.045,-0.942,-0.187,-0.366,0.427,0.427,332.829
150993,168716,14442,-0.046,-0.943,-0.185,-0.366,0.427,0.427,332.835
150943,168643,13990,-0.046,-0.943,-0.188,-0.793,0.305,0.671,332.839
150943,168694,14429,-0.048,-0.947,-0.192,-0.793,0.305,0.671,332.845
150968,168643,13990,-0.048,-0.943,-0.201,-1.28,0.183,0.793,332.849
150968,168702,14437,-0.046,-0.943,-0.198,-1.28,0.183,0.793,332.855
150958,168899,13990,-0.048,-0.948,-0.197,-1.098,0.244,0.793,332.859
150958,168718,14437,-0.05,-0.947,-0.192,-1.098,0.244,0.793,332.865
150985,168899,13990,-0.053,-0.942,-0.196,-0.915,0.305,0.61,332.869
150985,168712,14436,-0.052,-0.943,-0.201,-0.915,0.305,0.61,332.875
151011,168899,13990,-0.052,-0.946,-0.201,-0.671,0.488,0.305,332.879
151011,168745,14436,-0.051,-0.945,-0.199,-0.671,0.488,0.305,332.885
150966,168899,13990,-0.051,-0.946,-0.194,0.366,0.427,0,332.889
150966,168732,14452,-0.052,-0.943,-0.194,0.366,0.427,0,332.895
150951,168643,13990,-0.047,-0.945,-0.191,0.793,0.61,0,332.898
150951,168702,14436,-0.047,-0.946,-0.188,0.793,0.61,0,332.905
150945,168643,13990,-0.046,-0.945,-0.193,0.915,0.671,-0.183,332.908
150945,168691,14446,-0.047,-0.944,-0.196,0.915,0.671,-0.183,332.915
150923,168643,13990,-0.045,-0.945,-0.187,1.037,0.61,-0.122,332.918
150923,168685,14451,-0.047,-0.943,-0.181,1.037,0.61,-0.122,332.924
150919,168643,13990,-0.043,-0.943,-0.185,0.488,0.61,0.061,332.928
150919,168702,14434,-0.043,-0.945,-0.193,0.488,0.61,0.061,332.934
150902,168643,13990,-0.046,-0.947,-0.196,-0.549,0.488,0.183,332.938
150902,168692,14432,-0.047,-0.947,-0.195,-0.549,0.488,0.183,332.944
150902,168643,13990,-0.048,-0.943,-0.195,-0.549,0.427,0.122,332.948
150902,168698,14437,-0.047,-0.942,-0.194,-0.549,0.427,0.122,332.954
150875,168643,13990,-0.05,-0.942,-0.197,-0.305,0.427,0.183,332.958
150875,168649,14420,-0.048,-0.946,-0.194,-0.305,0.427,0.183,332.964
150874,168643,13990,-0.047,-0.944,-0.199,-0.061,0.488,0.061,332.968
150874,168664,14432,-0.051,-0.945,-0.197,-0.061,0.488,0.061,332.974
150860,168643,13990,-0.048,-0.945,-0.195,0.366,0.549,-0.061,332.978
150860,168636,14429,-0.048,-0.943,-0.193,0.366,0.549,-0.061,332.984
150864,168643,13990,-0.044,-0.945,-0.19,0.793,0.427,0,332.988
150864,168664,14430,-0.044,-0.946,-0.189,0.793,0.427,0,332.994
150866,168643,13990,-0.046,-0.946,-0.187,0.488,0.427,0.061,332.997
150866,168651,14434,-0.044,-0.944,-0.181,0.488,0.427,0.061,333.004
150888,168643,13990,-0.048,-0.945,-0.183,0.122,0.488,0.183,333.007
150888,168643,14420,-0.047,-0.943,-0.191,0.122,0.488,0.183,333.014
150871,168643,13990,-0.044,-0.944,-0.197,-0.549,0.549,0.366,333.017
150871,168619,14437,-0.045,-0.946,-0.193,-0.549,0.549,0.366,333.023
150880,168643,13990,-0.045,-0.948,-0.195,-0.366,0.366,0.488,333.027
150880,168639,14423,-0.046,-0.943,-0.192,-0.366,0.366,0.488,333.033
150873,168643,13990,-0.047,-0.943,-0.188,-0.305,0.305,0.61,333.037
150873,168669,14435,-0.048,-0.945,-0.195,-0.305,0.305,0.61,333.043
150880,168643,13990,-0.049,-0.948,-0.197,-0.549,0.366,0.549,333.047
150880,168661,14419,-0.048,-0.946,-0.197,-0.549,0.366,0.549,333.053
150895,168643,13990,-0.047,-0.944,-0.191,-0.488,0.305,0.366,333.057
150895,168648,14425,-0.05,-0.945,-0.188,-0.488,0.305,0.366,333.063
150910,168643,13990,-0.048,-0.945,-0.192,-0.122,0.427,0.305,333.067
150910,168667,14423,-0.048,-0.946,-0.197,-0.122,0.427,0.305,333.073
150891,168643,13990,-0.046,-0.947,-0.198,0.183,0.427,0.122,333.077
150891,168672,14434,-0.046,-0.946,-0.191,0.183,0.427,0.122,333.083
150919,168643,13990,-0.048,-0.945,-0.188,0.549,0.366,0.305,333.087
150919,168683,14430,-0.049,-0.943,-0.188,0.549,0.366,0.305,333.093
150915,168643,13990,-0.047,-0.943,-0.193,0.183,0.366,0.427,333.096
150915,168681,14433,-0.048,-0.943,-0.19,0.183,0.366,0.427,333.103
150913,168643,13990,-0.045,-0.944,-0.192,-0.183,0.366,0.488,333.106
150913,168684,14426,-0.045,-0.941,-0.191,-0.183,0.366,0.488,333.113
150897,168643,13990,-0.046,-0.943,-0.185,-0.122,0.427,0.549,333.116
150897,168698,14430,-0.049,-0.946,-0.185,-0.122,0.427,0.549,333.122
150894,168643,13990,-0.05,-0.943,-0.186,-0.671,0.427,0.61,333.126
150894,168699,14425,-0.049,-0.944,-0.193,-0.671,0.427,0.61,333.132
150888,168899,13990,-0.049,-0.944,-0.193,-0.671,0.427,0.61,333.136
150888,168705,14466,-0.049,-0.947,-0.192,-1.524,0.366,0.427,333.142
150914,168899,13990,-0.049,-0.947,-0.192,-1.524,0.366,0.427,333.146
150914,168735,14436,-0.051,-0.945,-0.187,-1.159,0.366,0.305,333.152
150920,168899,13990,-0.051,-0.945,-0.187,-1.159,0.366,0.305,333.156
150920,168746,14445,-0.048,-0.945,-0.192,-1.098,0.244,0.183,333.162
150950,168899,13990,-0.048,-0.945,-0.192,-1.098,0.244,0.183,333.166
150950,168750,14445,-0.047,-0.948,-0.199,-1.341,0.244,0.061,333.172
150957,168899,13990,-0.047,-0.948,-0.199,-1.341,0.244,0.061,333.176
150957,168738,14439,-0.044,-0.94,-0.198,-0.915,0.305,0,333.182
151003,168899,13990,-0.044,-0.94,-0.198,-0.915,0.305,0,333.186
151003,168755,14450,-0.045,-0.943,-0.188,-0.305,0.305,0.061,333.192
151020,168899,13990,-0.045,-0.943,-0.188,-0.305,0.305,0.061,333.195
151020,168774,14446,-0.046,-0.942,-0.195,-0.061,0.366,0.244,333.202
151036,168899,13990,-0.046,-0.942,-0.195,-0.061,0.366,0.244,333.205
151036,168787,14442,-0.046,-0.945,-0.185,-0.549,0.366,0.366,333.212
151059,168899,13990,-0.046,-0.945,-0.185,-0.549,0.366,0.366,333.215
151059,168768,14446,-0.049,-0.946,-0.194,-0.732,0.305,0.549,333.221
151034,168899,13990,-0.049,-0.946,-0.194,-0.732,0.305,0.549,333.225
151034,168790,14441,-0.049,-0.944,-0.193,-1.159,0.305,0.549,333.231
151047,168899,13990,-0.049,-0.944,-0.193,-1.159,0.305,0.549,333.235
151047,168805,14445,-0.05,-0.947,-0.198,-1.341,0.305,0.488,333.241
151048,168899,13990,-0.05,-0.947,-0.198,-1.341,0.305,0.488,333.245
151048,168827,14452,-0.048,-0.945,-0.197,-0.793,0.427,0.427,333.251
151067,168899,13990,-0.048,-0.945,-0.197,-0.793,0.427,0.427,333.255
151067,168846,14466,-0.046,-0.944,-0.194,-0.122,0.366,0.366,333.261
151077,168899,13990,-0.046,-0.944,-0.194,-0.122,0.366,0.366,333.265
151077,168828,14469,-0.049,-0.943,-0.194,-0.183,0.366,0.305,333.271
151090,168899,13990,-0.049,-0.943,-0.194,-0.183,0.366,0.305,333.275
151090,168824,14468,-0.046,-0.944,-0.189,0.183,0.427,0.366,333.281
151104,168899,13990,-0.047,-0.941,-0.185,0.183,0.427,0.366,333.285
151104,168840,14481,-0.047,-0.939,-0.189,0.122,0.366,0.488,333.291
151117,168899,13990,-0.047,-0.941,-0.189,0.122,0.366,0.488,333.294
151117,168849,14466,-0.048,-0.944,-0.185,-0.671,0.366,0.488,333.301
151111,168899,13990,-0.045,-0.945,-0.194,-0.671,0.366,0.488,333.304
151111,168857,14464,-0.045,-0.945,-0.193,-1.28,0.305,0.488,333.311
151114,168899,13990,-0.047,-0.943,-0.19,-1.28,0.305,0.488,333.314
151114,168864,14469,-0.052,-0.942,-0.197,-1.524,0.305,0.671,333.32
151134,168899,13990,-0.049,-0.944,-0.207,-1.524,0.305,0.671,333.324
151134,168874,14453,-0.048,-0.944,-0.203,-1.22,0.305,0.549,333.33
151135,168899,13990,-0.049,-0.945,-0.194,-1.22,0.305,0.549,333.334
151135,168856,14457,-0.049,-0.943,-0.195,0.061,0.366,0.488,333.34
151150,168899,13990,-0.047,-0.945,-0.193,0.061,0.366,0.488,333.344
151150,168878,14455,-0.048,-0.945,-0.191,0.427,0.488,0.427,333.35
151137,168899,13990,-0.046,-0.944,-0.193,0.427,0.488,0.427,333.354
151137,168879,14457,-0.047,-0.946,-0.193,0.244,0.305,0.549,333.36
151168,168899,13990,-0.045,-0.946,-0.193,0.244,0.305,0.549,333.364
151168,168896,14474,-0.047,-0.943,-0.189,0.061,0.305,0.671,333.37
151176,168899,13990,-0.046,-0.944,-0.189,0.061,0.305,0.671,333.374
151176,168932,14476,-0.045,-0.94,-0.189,-0.122,0.305,0.732,333.38
151197,168899,13990,-0.047,-0.942,-0.189,-0.122,0.305,0.732,333.384
151197,168930,14466,-0.048,-0.947,-0.192,-0.671,0.305,0.915,333.39
151201,168899,13990,-0.048,-0.943,-0.198,-0.671,0.305,0.915,333.393
151201,168958,14474,-0.048,-0.943,-0.202,-1.037,0.427,0.793,333.4
151203,168899,13990,-0.047,-0.944,-0.198,-1.037,0.427,0.793,333.403
151203,168957,14467,-0.049,-0.943,-0.197,-0.549,0.427,0.671,333.41
151203,168899,13990,-0.049,-0.943,-0.195,-0.549,0.427,0.671,333.413
151203,168952,14475,-0.053,-0.943,-0.188,0,0.427,0.671,333.419
151191,168899,13990,-0.05,-0.946,-0.192,0,0.427,0.671,333.423
151191,168919,14458,-0.05,-0.945,-0.191,-0.244,0.305,0.488,333.429
151160,168899,13990,-0.048,-0.945,-0.193,-0.244,0.305,0.488,333.433
151160,168911,14468,-0.047,-0.946,-0.19,-0.549,0.305,0.244,333.439
151137,168899,13990,-0.045,-0.944,-0.191,-0.549,0.305,0.244,333.443
151137,168953,14454,-0.046,-0.944,-0.191,-0.854,0.183,0.427,333.449
151128,168899,13990,-0.044,-0.943,-0.194,-0.854,0.183,0.427,333.453
151128,168888,14469,-0.044,-0.943,-0.191,-1.159,0.183,0.671,333.459
151139,168899,13990,-0.045,-0.944,-0.197,-1.159,0.183,0.671,333.463
151139,168910,14467,-0.046,-0.948,-0.204,-1.402,0.244,0.854,333.469
151117,168899,13990,-0.045,-0.945,-0.202,-1.402,0.244,0.854,333.473
151117,168893,14469,-0.047,-0.944,-0.199,-0.793,0.244,0.915,333.479
151115,168899,13990,-0.047,-0.944,-0.201,-0.793,0.244,0.915,333.483
151115,168908,14473,-0.049,-0.941,-0.2,0,0.305,0.915,333.489
151121,168899,13990,-0.049,-0.943,-0.194,0,0.305,0.915,333.492
151121,168885,14454,-0.049,-0.944,-0.189,0.671,0.366,0.976,333.499
151110,168899,13990,-0.049,-0.942,-0.189,0.671,0.366,0.976,333.502
151110,168889,14456,-0.049,-0.943,-0.187,0.915,0.427,0.793,333.509
151107,168899,13990,-0.05,-0.942,-0.186,0.915,0.427,0.793,333.512
151107,168899,14462,-0.049,-0.942,-0.183,0,0.427,0.61,333.518
151095,168899,13990,-0.05,-0.946,-0.19,0,0.427,0.61,333.522
151095,168867,14465,-0.047,-0.944,-0.194,-0.854,0.244,0.488,333.528
151109,168899,13990,-0.047,-0.943,-0.187,-0.854,0.244,0.488,333.532
151109,168889,14446,-0.05,-0.943,-0.194,-0.915,0.183,0.61,333.538
151095,168899,13990,-0.051,-0.944,-0.198,-0.915,0.183,0.61,333.542
151095,168881,14460,-0.051,-0.943,-0.197,-0.976,0.305,0.671,333.548
151110,168899,13990,-0.05,-0.944,-0.198,-0.976,0.305,0.671,333.552
151110,168866,14459,-0.049,-0.946,-0.2,-0.793,0.305,0.549,333.558
151067,168899,13990,-0.051,-0.946,-0.2,-0.793,0.305,0.549,333.562
151067,168878,14464,-0.052,-0.944,-0.193,-0.244,0.366,0.366,333.568
151109,168899,13990,-0.05,-0.94,-0.191,-0.244,0.366,0.366,333.572
151109,168886,14452,-0.052,-0.941,-0.188,0.488,0.427,0.122,333.578
151086,168899,13990,-0.049,-0.944,-0.187,0.488,0.427,0.122,333.582
151086,168906,14468,-0.047,-0.943,-0.191,0,0.366,0.122,333.588
151095,168899,13990,-0.048,-0.943,-0.194,0,0.366,0.122,333.591
151095,168875,14447,-0.048,-0.943,-0.191,-0.671,0.427,0.183,333.598
151074,168899,13990,-0.045,-0.948,-0.192,-0.671,0.427,0.183,333.601
151074,168894,14454,-0.046,-0.944,-0.19,-0.61,0.305,0.305,333.608
151075,168899,13990,-0.047,-0.943,-0.196,-0.61,0.305,0.305,333.611
151075,168876,14438,-0.045,-0.941,-0.195,-0.854,0.244,0.549,333.617
151093,168899,13990,-0.048,-0.943,-0.198,-0.854,0.244,0.549,333.621
151093,168885,14456,-0.048,-0.944,-0.198,-0.732,0.305,0.732,333.627
151116,168899,13990,-0.05,-0.944,-0.198,-0.732,0.305,0.732,333.631
151116,168897,14462,-0.05,-0.943,-0.201,-0.183,0.305,0.732,333.637
151120,168899,13990,-0.052,-0.942,-0.201,-0.183,0.305,0.732,333.641
151120,168903,14448,-0.052,-0.946,-0.202,0.061,0.427,0.61,333.647
151152,168899,13990,-0.054,-0.945,-0.195,0.061,0.427,0.61,333.651
151152,168903,14448,-0.051,-0.943,-0.197,0.671,0.61,0.305,333.657
151106,168899,13990,-0.051,-0.947,-0.198,0.671,0.61,0.305,333.661
151106,168894,14458,-0.052,-0.942,-0.195,0.854,0.61,0,333.667
151138,168899,13990,-0.052,-0.941,-0.196,0.854,0.61,0,333.671
151138,168915,14449,-0.051,-0.945,-0.195,1.22,0.61,-0.122,333.677
151118,168899,13990,-0.049,-0.947,-0.19,1.22,0.61,-0.122,333.681
151118,168910,14452,-0.05,-0.943,-0.183,1.22,0.671,-0.061,333.687
151140,168899,13990,-0.047,-0.943,-0.188,1.22,0.671,-0.061,333.69
151140,168905,14472,-0.045,-0.943,-0.192,0.488,0.549,0.122,333.697
151131,168899,13990,-0.047,-0.942,-0.188,0.488,0.549,0.122,333.7
151131,168914,14466,-0.047,-0.943,-0.181,-0.061,0.366,0.244,333.707
151129,168899,13990,-0.048,-0.941,-0.187,-0.061,0.366,0.244,333.71
151129,168895,14453,-0.049,-0.944,-0.195,-0.671,0.305,0.488,333.716
151101,168899,13990,-0.048,-0.945,-0.191,-0.671,0.305,0.488,333.72
151101,168908,14449,-0.051,-0.943,-0.191,-1.098,0.183,0.366,333.726
151095,168899,13990,-0.051,-0.943,-0.191,-1.098,0.183,0.366,333.73
151095,168905,14444,-0.048,-0.945,-0.202,-1.28,0.244,0.366,333.736
151099,168899,13990,-0.048,-0.945,-0.202,-1.28,0.244,0.366,333.74
151099,168898,14460,-0.045,-0.944,-0.197,-0.61,0.366,0.366,333.746
151132,168899,13990,-0.045,-0.944,-0.197,-0.61,0.366,0.366,333.75
151132,168925,14462,-0.049,-0.946,-0.194,0.122,0.366,0.61,333.756
151134,168899,13990,-0.049,-0.946,-0.194,0.122,0.366,0.61,333.76
151134,168926,14471,-0.049,-0.946,-0.19,0.427,0.244,0.671,333.766
151156,168899,13990,-0.049,-0.946,-0.19,0.427,0.244,0.671,333.77
151156,168954,14463,-0.046,-0.944,-0.187,0.122,0.366,0.549,333.776
151191,169155,13990,-0.046,-0.944,-0.187,0.122,0.366,0.549,333.78
151191,168985,14467,-0.047,-0.945,-0.189,-0.427,0.305,0.671,333.786
151212,169155,13990,-0.047,-0.945,-0.189,-0.427,0.305,0.671,333.789
151212,168985,14470,-0.048,-0.942,-0.19,-0.488,0.366,0.671,333.796
151199,169155,13990,-0.048,-0.942,-0.19,-0.488,0.366,0.671,333.799
151199,168988,14473,-0.052,-0.947,-0.194,-0.854,0.244,0.61,333.806
151169,168899,13990,-0.052,-0.947,-0.194,-0.854,0.244,0.61,333.809
151169,168957,14455,-0.053,-0.946,-0.193,-0.976,0.244,0.427,333.815
151161,168899,13990,-0.053,-0.946,-0.193,-0.976,0.244,0.427,333.819
151161,168945,14468,-0.052,-0.942,-0.191,-1.037,0.244,0.183,333.825
151161,169155,13990,-0.052,-0.942,-0.191,-1.037,0.244,0.183,333.829
151161,168974,14469,-0.051,-0.945,-0.195,-1.159,0.244,0,333.835
151187,168899,13990,-0.051,-0.945,-0.195,-1.159,0.244,0,333.839
151187,168955,14465,-0.049,-0.942,-0.197,-1.037,0.244,-0.061,333.845
151168,169155,13990,-0.049,-0.942,-0.197,-1.037,0.244,-0.061,333.849
151168,168976,14463,-0.048,-0.946,-0.202,-0.427,0.366,-0.061,333.855
151190,168899,13990,-0.048,-0.946,-0.202,-0.427,0.366,-0.061,333.859
151190,168946,14463,-0.045,-0.945,-0.198,0.061,0.427,0,333.865
151184,169155,13990,-0.045,-0.945,-0.198,0.061,0.427,0,333.869
151184,168969,14487,-0.048,-0.943,-0.192,0.061,0.427,0,333.875
151166,169155,13990,-0.048,-0.941,-0.189,0.305,0.366,0.183,333.879
151166,168972,14461,-0.047,-0.944,-0.194,0.305,0.366,0.183,333.885
151137,168899,13990,-0.049,-0.944,-0.199,-0.366,0.427,0.061,333.888
151137,168934,14450,-0.052,-0.947,-0.193,-0.366,0.427,0.061,333.895
151140,168899,13990,-0.054,-0.942,-0.189,-0.305,0.488,-0.305,333.898
151140,168956,14457,-0.055,-0.944,-0.189,-0.305,0.488,-0.305,333.905
151153,168899,13990,-0.055,-0.942,-0.191,-0.366,0.488,-0.549,333.908
151153,168931,14457,-0.054,-0.944,-0.195,-0.366,0.488,-0.549,333.914
151134,168899,13990,-0.053,-0.942,-0.195,-0.488,0.488,-1.037,333.918
151134,168934,14453,-0.052,-0.945,-0.198,-0.488,0.488,-1.037,333.924
151142,169155,13990,-0.049,-0.947,-0.195,-0.122,0.61,-1.524,333.928
151142,168978,14466,-0.046,-0.943,-0.197,-0.122,0.61,-1.524,333.934
151196,169155,13990,-0.047,-0.943,-0.194,0.366,0.671,-1.585,333.938
151196,168977,14467,-0.047,-0.946,-0.19,0.366,0.671,-1.585,333.944
151215,169155,13990,-0.043,-0.945,-0.2,0.488,0.732,-1.341,333.948
151215,169025,14468,-0.04,-0.946,-0.204,0.488,0.732,-1.341,333.954
151253,169155,13990,-0.036,-0.948,-0.196,0.61,0.61,-1.098,333.958
151253,169022,14473,-0.037,-0.944,-0.191,0.61,0.61,-1.098,333.964
151269,169155,13990,-0.039,-0.94,-0.19,0.61,0.427,-0.305,333.968
151269,169021,14473,-0.036,-0.939,-0.196,0.61,0.427,-0.305,333.974
151278,169155,13990,-0.038,-0.944,-0.195,-0.366,0.183,0.671,333.978
151278,169037,14471,-0.043,-0.947,-0.194,-0.366,0.183,0.671,333.984
151270,169155,13990,-0.044,-0.946,-0.194,-0.854,0.122,0.976,333.987
151270,169010,14473,-0.046,-0.946,-0.195,-0.854,0.122,0.976,333.994
151242,169155,13990,-0.045,-0.946,-0.196,-0.854,0.244,1.22,333.997
151242,169001,14475,-0.048,-0.945,-0.196,-0.854,0.244,1.22,334.004
151210,169155,13990,-0.051,-0.946,-0.194,-0.793,0.305,1.402,334.007
151210,168980,14463,-0.047,-0.946,-0.196,-0.793,0.305,1.402,334.013
151185,168899,13990,-0.051,-0.948,-0.2,-0.366,0.244,1.341,334.017
151185,168959,14453,-0.048,-0.94,-0.195,-0.366,0.244,1.341,334.023
151167,168899,13990,-0.05,-0.94,-0.189,0.183,0.366,1.037,334.027
151167,168937,14459,-0.053,-0.942,-0.192,0.183,0.366,1.037,334.033
151169,169155,13990,-0.05,-0.944,-0.198,0.061,0.549,0.915,334.037
151169,168960,14459,-0.049,-0.943,-0.195,0.061,0.549,0.915,334.043
151165,168899,13990,-0.049,-0.939,-0.191,0.427,0.488,0.671,334.047
151165,168932,14451,-0.051,-0.941,-0.194,0.427,0.488,0.671,334.053
151172,169155,13990,-0.048,-0.944,-0.192,0.366,0.549,0.488,334.057
151172,168982,14453,-0.045,-0.942,-0.192,0.366,0.549,0.488,334.063
151159,168899,13990,-0.046,-0.944,-0.191,0.061,0.488,0.366,334.067
151159,168927,14450,-0.044,-0.943,-0.189,0.061,0.488,0.366,334.073
151120,168899,13990,-0.044,-0.94,-0.191,-0.305,0.366,0.549,334.077
151120,168916,14437,-0.047,-0.942,-0.193,-0.305,0.366,0.549,334.083
151083,168899,13990,-0.048,-0.947,-0.198,-0.793,0.366,0.732,334.086
151083,168892,14452,-0.047,-0.95,-0.198,-0.793,0.366,0.732,334.093
151040,168899,13990,-0.048,-0.948,-0.201,-0.732,0.427,0.671,334.096
151040,168872,14447,-0.049,-0.946,-0.198,-0.732,0.427,0.671,334.103
151003,168899,13990,-0.047,-0.943,-0.199,-0.427,0.366,0.549,334.106
151003,168823,14413,-0.052,-0.944,-0.197,-0.427,0.366,0.549,334.112
150973,168899,13990,-0.051,-0.945,-0.194,0.122,0.366,0.549,334.116
150973,168835,14422,-0.053,-0.943,-0.188,0.122,0.366,0.549,334.122
150945,168899,13990,-0.052,-0.943,-0.192,0.549,0.549,0.244,334.126
150945,168813,14419,-0.052,-0.941,-0.196,0.549,0.549,0.244,334.132
150954,168899,13990,-0.051,-0.942,-0.188,0.183,0.488,-0.183,334.136
150954,168815,14427,-0.048,-0.943,-0.185,0.183,0.488,-0.183,334.142
150939,168899,13990,-0.047,-0.943,-0.188,-0.366,0.488,-0.305,334.146
150939,168804,14442,-0.05,-0.944,-0.193,-0.366,0.488,-0.305,334.152
150955,168899,13990,-0.049,-0.943,-0.194,-0.976,0.427,-0.366,334.156
150955,168806,14429,-0.048,-0.946,-0.193,-0.976,0.427,-0.366,334.162
150954,168899,13990,-0.045,-0.944,-0.189,-0.671,0.366,-0.488,334.166
150954,168803,14427,-0.042,-0.942,-0.189,-0.671,0.366,-0.488,334.172
150902,168899,13990,-0.044,-0.941,-0.197,-0.793,0.244,-0.183,334.176
150902,168797,14424,-0.045,-0.944,-0.196,-0.793,0.244,-0.183,334.182
150900,168899,13990,-0.043,-0.943,-0.195,-1.098,0.122,0,334.185
150900,168746,14433,-0.044,-0.945,-0.199,-1.098,0.122,0,334.192
150894,168899,13990,-0.044,-0.94,-0.184,-1.159,0.061,0.244,334.195
150894,168736,14409,-0.047,-0.939,-0.195,-1.159,0.061,0.244,334.202
150866,168899,13990,-0.046,-0.952,-0.218,-1.402,-0.061,0.427,334.205
150866,168725,14417,-0.042,-0.95,-0.207,-1.402,-0.061,0.427,334.211
150854,168899,13990,-0.042,-0.946,-0.194,-0.427,0.061,0.488,334.215
150854,168709,14413,-0.043,-0.945,-0.197,-0.427,0.061,0.488,334.221
150861,168643,13990,-0.044,-0.941,-0.197,0.61,0.061,0.915,334.225
150861,168702,14407,-0.049,-0.942,-0.191,0.61,0.061,0.915,334.231
150868,168643,13990,-0.049,-0.942,-0.194,0.305,0.183,1.037,334.235
150868,168700,14426,-0.05,-0.942,-0.192,0.305,0.183,1.037,334.241
150829,168643,13990,-0.048,-0.945,-0.183,-0.122,0.244,0.854,334.245
150829,168683,14414,-0.048,-0.942,-0.181,-0.122,0.244,0.854,334.251
150842,168643,13990,-0.05,-0.94,-0.182,-0.488,0.305,0.732,334.255
150842,168639,14407,-0.05,-0.945,-0.184,-0.488,0.305,0.732,334.261
150810,168643,13990,-0.049,-0.946,-0.191,-1.646,0.244,0.61,334.265
150810,168663,14432,-0.051,-0.945,-0.193,-1.646,0.244,0.61,334.271
150809,168643,13990,-0.05,-0.944,-0.197,-2.195,0.122,0.488,334.275
150809,168656,14405,-0.052,-0.945,-0.192,-2.195,0.122,0.488,334.281
150801,168643,13990,-0.052,-0.942,-0.193,-1.646,0,0.244,334.284
150801,168644,14421,-0.053,-0.94,-0.196,-1.646,0,0.244,334.291
150823,168643,13990,-0.052,-0.943,-0.203,-1.646,0.183,0,334.294
150823,168639,14411,-0.052,-0.945,-0.204,-1.646,0.183,0,334.301
150808,168643,13990,-0.051,-0.947,-0.206,-1.159,0.427,-0.549,334.304
150808,168689,14424,-0.047,-0.942,-0.202,-1.159,0.427,-0.549,334.31
150858,168643,13990,-0.047,-0.942,-0.202,-1.159,0.427,-0.549,334.314
150858,168700,14409,-0.046,-0.941,-0.196,-0.122,0.488,-0.793,334.32
150856,168643,13990,-0.046,-0.941,-0.196,-0.122,0.488,-0.793,334.324
150856,168682,14411,-0.044,-0.943,-0.202,0.244,0.549,-0.61,334.33
150868,168899,13990,-0.044,-0.943,-0.202,0.244,0.549,-0.61,334.334
150868,168712,14416,-0.038,-0.946,-0.197,0.366,0.488,-0.366,334.34
150880,168899,13990,-0.038,-0.946,-0.197,0.366,0.488,-0.366,334.344
150880,168723,14417,-0.046,-0.94,-0.189,0.305,0.366,-0.061,334.35
150866,168643,13990,-0.046,-0.94,-0.189,0.305,0.366,-0.061,334.354
150866,168699,14424,-0.046,-0.95,-0.215,-0.793,0.122,0.244,334.36
150861,168899,13990,-0.046,-0.95,-0.215,-0.793,0.122,0.244,334.364
150861,168706,14412,-0.046,-0.946,-0.2,-1.22,0.305,0.122,334.37
150866,168899,13990,-0.046,-0.946,-0.2,-1.22,0.305,0.122,334.374
150866,168711,14425,-0.05,-0.942,-0.196,0.732,0.305,0.244,334.38
150857,168643,13990,-0.05,-0.942,-0.196,0.732,0.305,0.244,334.383
150857,168692,14438,-0.05,-0.946,-0.194,1.098,0.427,0.427,334.39
150883,168899,13990,-0.05,-0.946,-0.194,1.098,0.427,0.427,334.393
150883,168720,14422,-0.047,-0.942,-0.188,0.976,0.61,0.183,334.4
150881,168643,13990,-0.047,-0.942,-0.188,0.976,0.61,0.183,334.403
150881,168698,14422,-0.045,-0.943,-0.187,0.549,0.549,0.244,334.409
150852,168899,13990,-0.045,-0.943,-0.187,0.549,0.549,0.244,334.413
150852,168715,14428,-0.041,-0.944,-0.188,-0.122,0.427,0.488,334.419
150868,168899,13990,-0.041,-0.944,-0.188,-0.122,0.427,0.488,334.423
150868,168705,14406,-0.046,-0.945,-0.198,-1.098,0.305,0.732,334.429
150834,168643,13990,-0.046,-0.945,-0.198,-1.098,0.305,0.732,334.433
150834,168701,14412,-0.045,-0.945,-0.201,-1.402,0.244,1.037,334.439
150820,168643,13990,-0.045,-0.945,-0.201,-1.402,0.244,1.037,334.443
150820,168678,14412,-0.044,-0.938,-0.197,-1.098,0.122,1.402,334.449
150789,168643,13990,-0.044,-0.938,-0.197,-1.098,0.122,1.402,334.453
150789,168657,14407,-0.049,-0.945,-0.202,-1.037,0.122,1.585,334.459
150770,168643,13990,-0.05,-0.95,-0.203,-1.037,0.122,1.585,334.463
150770,168623,14393,-0.05,-0.946,-0.208,-0.854,0.244,1.585,334.469
150741,168643,13990,-0.049,-0.942,-0.202,-0.854,0.244,1.585,334.473
150741,168579,14399,-0.049,-0.943,-0.192,0.183,0.305,1.402,334.479
150736,168643,13990,-0.049,-0.941,-0.184,0.183,0.305,1.402,334.482
150736,168605,14397,-0.05,-0.938,-0.181,0.244,0.183,1.341,334.489
150755,168643,13990,-0.053,-0.938,-0.185,0.244,0.183,1.341,334.492
150755,168612,14409,-0.052,-0.945,-0.193,-0.976,0.183,1.037,334.499
150771,168643,13990,-0.052,-0.949,-0.201,-0.976,0.183,1.037,334.502
150771,168626,14395,-0.05,-0.95,-0.201,-1.341,0.366,0.427,334.508
150811,168643,13990,-0.05,-0.948,-0.203,-1.341,0.366,0.427,334.512
150811,168650,14409,-0.051,-0.938,-0.201,-0.549,0.427,0,334.518
150837,168643,13990,-0.049,-0.941,-0.2,-0.549,0.427,0,334.522
150837,168671,14400,-0.05,-0.945,-0.201,0.061,0.549,-0.061,334.528
150845,168643,13990,-0.049,-0.947,-0.201,0.061,0.549,-0.061,334.532
150845,168658,14400,-0.05,-0.944,-0.203,0.488,0.732,0,334.538
150800,168643,13990,-0.047,-0.944,-0.199,0.488,0.732,0,334.542
150800,168633,14381,-0.046,-0.942,-0.195,1.098,0.793,-0.183,334.548
150751,168643,13990,-0.045,-0.941,-0.196,1.098,0.793,-0.183,334.552
150751,168630,14389,-0.046,-0.939,-0.191,1.159,0.793,-0.305,334.558
150712,168643,13990,-0.046,-0.943,-0.195,1.159,0.793,-0.305,334.562
150712,168585,14391,-0.047,-0.942,-0.199,0.732,0.793,-0.305,334.568
