149491,166346,14233,-0.045,-0.943,-0.199,-0.793,0.244,0.244,393.046
149539,166339,13990,-0.045,-0.943,-0.199,-0.793,0.244,0.244,393.05
149539,166352,14236,-0.048,-0.945,-0.198,-0.427,0.305,0.366,393.056
149522,166339,13990,-0.048,-0.945,-0.198,-0.427,0.305,0.366,393.06
149522,166374,14236,-0.044,-0.942,-0.198,0,0.427,0.427,393.066
149555,166339,13990,-0.044,-0.942,-0.198,0,0.427,0.427,393.069
149555,166369,14237,-0.047,-0.938,-0.195,0.427,0.549,0.244,393.076
149531,166339,13990,-0.047,-0.938,-0.195,0.427,0.549,0.244,393.079
149531,166383,14240,-0.045,-0.944,-0.199,0.854,0.549,0.244,393.086
149520,166339,13990,-0.045,-0.944,-0.199,0.854,0.549,0.244,393.089
149520,166356,14232,-0.047,-0.944,-0.185,0.976,0.61,0.244,393.095
149510,166339,13990,-0.047,-0.944,-0.185,0.976,0.61,0.244,393.099
149510,166348,14232,-0.047,-0.944,-0.191,0.61,0.488,0.305,393.105
149498,166339,13990,-0.047,-0.944,-0.191,0.61,0.488,0.305,393.109
149498,166377,14235,-0.043,-0.944,-0.192,-0.183,0.366,0.366,393.115
149509,166339,13990,-0.043,-0.944,-0.192,-0.183,0.366,0.366,393.119
149509,166369,14218,-0.045,-0.944,-0.194,-0.427,0.305,0.427,393.125
149526,166339,13990,-0.045,-0.944,-0.194,-0.427,0.305,0.427,393.129
149526,166372,14229,-0.045,-0.943,-0.194,-0.671,0.244,0.549,393.135
149514,166339,13990,-0.045,-0.943,-0.194,-0.671,0.244,0.549,393.139
149514,166364,14224,-0.049,-0.942,-0.201,-0.793,0.244,0.61,393.145
149522,166339,13990,-0.049,-0.942,-0.201,-0.793,0.244,0.61,393.149
149522,166363,14227,-0.049,-0.942,-0.2,-0.732,0.305,0.549,393.155
149520,166339,13990,-0.047,-0.946,-0.199,-0.732,0.305,0.549,393.159
149520,166356,14237,-0.048,-0.945,-0.195,-0.244,0.366,0.305,393.165
149500,166339,13990,-0.049,-0.942,-0.194,-0.244,0.366,0.305,393.168
149500,166351,14238,-0.049,-0.944,-0.196,0.122,0.488,0.122,393.175
149507,166339,13990,-0.051,-0.946,-0.198,0.122,0.488,0.122,393.178
149507,166364,14240,-0.051,-0.943,-0.197,0.244,0.549,0,393.185
149509,166339,13990,-0.05,-0.943,-0.19,0.244,0.549,0,393.188
149509,166368,14239,-0.046,-0.943,-0.188,0.427,0.549,-0.122,393.194
149517,166339,13990,-0.046,-0.943,-0.19,0.427,0.549,-0.122,393.198
149517,166365,14227,-0.045,-0.944,-0.195,0.122,0.427,-0.244,393.204
149518,166339,13990,-0.043,-0.945,-0.193,0.122,0.427,-0.244,393.208
149518,166376,14222,-0.044,-0.944,-0.193,-0.244,0.366,-0.183,393.214
149543,166339,13990,-0.043,-0.946,-0.192,-0.244,0.366,-0.183,393.218
149543,166369,14217,-0.045,-0.947,-0.194,-0.061,0.305,0.183,393.224
149530,166339,13990,-0.043,-0.946,-0.198,-0.061,0.305,0.183,393.228
149530,166389,14237,-0.042,-0.948,-0.2,-0.244,0.305,0.488,393.234
149542,166339,13990,-0.042,-0.947,-0.203,-0.244,0.305,0.488,393.238
149542,166386,14228,-0.047,-0.945,-0.199,0.183,0.366,0.671,393.244
149550,166339,13990,-0.047,-0.941,-0.197,0.183,0.366,0.671,393.248
149550,166396,14229,-0.047,-0.944,-0.193,0.732,0.488,0.671,393.254
149561,166339,13990,-0.049,-0.941,-0.198,0.732,0.488,0.671,393.258
149561,166379,14234,-0.052,-0.942,-0.193,0.854,0.61,0.305,393.264
149564,166339,13990,-0.051,-0.94,-0.187,0.854,0.61,0.305,393.267
149564,166395,14247,-0.048,-0.94,-0.183,1.037,0.61,-0.183,393.274
149555,166595,13990,-0.047,-0.942,-0.187,1.037,0.61,-0.183,393.277
149555,166401,14233,-0.044,-0.945,-0.19,0.183,0.549,-0.244,393.284
149563,166339,13990,-0.044,-0.943,-0.189,0.183,0.549,-0.244,393.287
149563,166392,14225,-0.046,-0.944,-0.184,-0.488,0.305,-0.244,393.293
149524,166339,13990,-0.044,-0.945,-0.191,-0.488,0.305,-0.244,393.297
149524,166390,14231,-0.045,-0.945,-0.196,-1.037,0.122,-0.061,393.303
149510,166339,13990,-0.042,-0.948,-0.197,-1.037,0.122,-0.061,393.307
149510,166332,14245,-0.041,-0.947,-0.192,-1.402,0.183,0.305,393.313
149482,166339,13990,-0.04,-0.944,-0.198,-1.402,0.183,0.305,393.317
149482,166338,14226,-0.043,-0.945,-0.2,-1.22,0.061,0.671,393.323
149482,166339,13990,-0.048,-0.943,-0.2,-1.22,0.061,0.671,393.327
149482,166345,14227,-0.044,-0.943,-0.196,-0.854,0.366,0.732,393.333
149499,166339,13990,-0.045,-0.943,-0.198,-0.854,0.366,0.732,393.337
149499,166329,14231,-0.047,-0.943,-0.199,-0.61,0.427,0.549,393.343
149514,166339,13990,-0.05,-0.945,-0.198,-0.61,0.427,0.549,393.347
149514,166353,14211,-0.05,-0.944,-0.196,-0.244,0.488,0.366,393.353
149517,166339,13990,-0.048,-0.941,-0.199,-0.244,0.488,0.366,393.357
149517,166375,14243,-0.045,-0.94,-0.192,0.244,0.549,0.122,393.363
149551,166339,13990,-0.044,-0.944,-0.19,0.244,0.549,0.122,393.366
149551,166387,14236,-0.044,-0.944,-0.189,0.427,0.488,0,393.373
149569,166595,13990,-0.044,-0.945,-0.194,0.427,0.488,0,393.376
149569,166418,14245,-0.045,-0.946,-0.194,0.061,0.366,0.061,393.383
149598,166595,13990,-0.043,-0.946,-0.192,0.061,0.366,0.061,393.386
149598,166401,14241,-0.044,-0.948,-0.19,-0.244,0.305,0.244,393.392
149566,166595,13990,-0.043,-0.945,-0.192,-0.244,0.305,0.244,393.396
149566,166408,14225,-0.043,-0.945,-0.197,-0.427,0.244,0.549,393.402
149568,166339,13990,-0.047,-0.948,-0.196,-0.427,0.244,0.549,393.406
149568,166371,14243,-0.049,-0.945,-0.194,-0.305,0.244,0.854,393.412
149543,166339,13990,-0.045,-0.943,-0.197,-0.305,0.244,0.854,393.416
149543,166385,14237,-0.045,-0.943,-0.199,-0.183,0.366,0.854,393.422
149527,166339,13990,-0.05,-0.944,-0.194,-0.183,0.366,0.854,393.426
149527,166368,14233,-0.05,-0.942,-0.194,0.183,0.427,0.793,393.432
149561,166339,13990,-0.051,-0.94,-0.191,0.183,0.427,0.793,393.436
149561,166374,14225,-0.049,-0.942,-0.193,-0.061,0.488,0.549,393.442
149550,166339,13990,-0.051,-0.946,-0.192,-0.061,0.488,0.549,393.446
149550,166391,14242,-0.051,-0.945,-0.193,-0.366,0.427,0.183,393.452
149581,166339,13990,-0.046,-0.943,-0.191,-0.366,0.427,0.183,393.456
149581,166399,14222,-0.046,-0.945,-0.19,-0.305,0.427,0,393.462
149575,166339,13990,-0.044,-0.947,-0.192,-0.305,0.427,0,393.465
149575,166384,14235,-0.043,-0.944,-0.194,-0.61,0.488,0.122,393.472
149548,166339,13990,-0.042,-0.949,-0.201,-0.61,0.488,0.122,393.475
149548,166369,14232,-0.041,-0.948,-0.199,-0.793,0.366,0.366,393.482
149536,166339,13990,-0.039,-0.947,-0.198,-0.793,0.366,0.366,393.485
149536,166350,14227,-0.043,-0.942,-0.195,-0.366,0.305,0.671,393.491
149559,166339,13990,-0.043,-0.943,-0.197,-0.366,0.305,0.671,393.495
149559,166355,14216,-0.043,-0.943,-0.202,-0.183,0.244,1.037,393.501
149533,166339,13990,-0.044,-0.943,-0.201,-0.183,0.244,1.037,393.505
149533,166360,14235,-0.046,-0.943,-0.194,0,0.183,1.159,393.511
149585,166595,13990,-0.05,-0.943,-0.192,0,0.183,1.159,393.515
149585,166403,14242,-0.049,-0.943,-0.192,0,0.305,1.098,393.521
149594,166595,13990,-0.05,-0.943,-0.193,0,0.305,1.098,393.525
149594,166429,14225,-0.051,-0.944,-0.191,-0.061,0.244,0.671,393.531
149619,166595,13990,-0.049,-0.945,-0.191,-0.061,0.244,0.671,393.535
149619,166412,14256,-0.05,-0.948,-0.193,-0.366,0.122,0.427,393.541
149642,166595,13990,-0.049,-0.945,-0.193,-0.366,0.122,0.427,393.545
149642,166443,14235,-0.05,-0.949,-0.193,-0.366,0.305,0.244,393.551
149618,166595,13990,-0.046,-0.948,-0.193,-0.366,0.305,0.244,393.555
149618,166406,14249,-0.045,-0.947,-0.194,-0.122,0.488,0.122,393.561
149608,166339,13990,-0.048,-0.942,-0.19,-0.122,0.488,0.122,393.564
149608,166386,14215,-0.047,-0.944,-0.19,0.061,0.427,0.122,393.571
149539,166339,13990,-0.042,-0.943,-0.194,0.061,0.427,0.122,393.574
149539,166341,14236,-0.043,-0.946,-0.194,-0.305,0.427,0.305,393.581
149498,166339,13990,-0.042,-0.943,-0.192,-0.305,0.427,0.305,393.584
149498,166293,14212,-0.045,-0.942,-0.19,-0.305,0.427,0.488,393.59
149481,166339,13990,-0.045,-0.942,-0.19,-0.305,0.427,0.488,393.594
149481,166287,14204,-0.046,-0.941,-0.193,-0.366,0.427,0.488,393.6
149468,166339,13990,-0.046,-0.941,-0.193,-0.366,0.427,0.488,393.604
149468,166275,14212,-0.048,-0.944,-0.193,-0.427,0.366,0.427,393.61
149443,166339,13990,-0.048,-0.944,-0.193,-0.427,0.366,0.427,393.614
149443,166288,14202,-0.05,-0.944,-0.198,-0.854,0.427,0.244,393.62
149477,166339,13990,-0.05,-0.944,-0.198,-0.854,0.427,0.244,393.624
149477,166294,14206,-0.048,-0.945,-0.194,-0.732,0.427,0,393.63
149489,166339,13990,-0.048,-0.945,-0.194,-0.732,0.427,0,393.634
149489,166328,14211,-0.047,-0.947,-0.2,-0.366,0.427,0.061,393.64
149512,166339,13990,-0.047,-0.947,-0.2,-0.366,0.427,0.061,393.644
149512,166326,14212,-0.045,-0.943,-0.19,0.061,0.488,0.183,393.65
149545,166339,13990,-0.045,-0.943,-0.19,0.061,0.488,0.183,393.654
149545,166341,14212,-0.045,-0.944,-0.193,0.061,0.366,0.366,393.66
149551,166339,13990,-0.045,-0.944,-0.193,0.061,0.366,0.366,393.663
149551,166339,14222,-0.043,-0.949,-0.196,-0.305,0.366,0.732,393.67
149548,166339,13990,-0.043,-0.949,-0.196,-0.305,0.366,0.732,393.673
149548,166356,14220,-0.043,-0.942,-0.187,0,0.305,0.976,393.68
149576,166339,13990,-0.043,-0.942,-0.187,0,0.305,0.976,393.683
149576,166388,14221,-0.049,-0.944,-0.199,-0.488,0.366,1.159,393.689
149603,166339,13990,-0.049,-0.944,-0.199,-0.488,0.366,1.159,393.693
149603,166393,14225,-0.05,-0.945,-0.195,-0.793,0.305,1.22,393.699
149638,166339,13990,-0.05,-0.945,-0.195,-0.793,0.305,1.22,393.703
149638,166383,14230,-0.047,-0.945,-0.204,-0.488,0.183,0.915,393.709
149614,166339,13990,-0.047,-0.945,-0.204,-0.488,0.183,0.915,393.713
149614,166380,14222,-0.051,-0.946,-0.191,-0.122,0.305,0.61,393.719
149615,166339,13990,-0.051,-0.946,-0.191,-0.122,0.305,0.61,393.723
149615,166385,14207,-0.046,-0.942,-0.192,0.061,0.427,0.549,393.729
149597,166339,13990,-0.046,-0.942,-0.192,0.061,0.427,0.549,393.733
149597,166369,14199,-0.047,-0.943,-0.198,0.061,0.427,0.549,393.739
149552,166339,13990,-0.045,-0.947,-0.199,-0.061,0.488,0.488,393.743
149552,166378,14221,-0.046,-0.949,-0.19,-0.061,0.488,0.488,393.749
149569,166339,13990,-0.047,-0.942,-0.19,0.244,0.366,0.549,393.753
149569,166365,14222,-0.045,-0.94,-0.196,0.244,0.366,0.549,393.759
149573,166339,13990,-0.045,-0.942,-0.196,0.061,0.427,0.793,393.762
149573,166366,14229,-0.044,-0.942,-0.192,0.061,0.427,0.793,393.769
149581,166595,13990,-0.045,-0.942,-0.192,-0.122,0.488,0.854,393.772
149581,166401,14213,-0.048,-0.939,-0.194,-0.122,0.488,0.854,393.779
149597,166339,13990,-0.047,-0.939,-0.19,-0.488,0.427,0.915,393.782
149597,166388,14210,-0.049,-0.944,-0.191,-0.488,0.427,0.915,393.788
149611,166595,13990,-0.051,-0.948,-0.194,-0.793,0.305,0.793,393.792
149611,166406,14220,-0.048,-0.944,-0.194,-0.793,0.305,0.793,393.798
149608,166339,13990,-0.049,-0.944,-0.195,-1.037,0.305,0.549,393.802
149608,166399,14223,-0.049,-0.943,-0.197,-1.037,0.305,0.549,393.808
149593,166595,13990,-0.05,-0.947,-0.2,-1.159,0.244,0.488,393.812
149593,166417,14232,-0.048,-0.944,-0.199,-1.159,0.244,0.488,393.818
149602,166595,13990,-0.047,-0.946,-0.198,-0.854,0.305,0.427,393.822
149602,166412,14228,-0.046,-0.947,-0.197,-0.854,0.305,0.427,393.828
149589,166339,13990,-0.049,-0.945,-0.193,-0.244,0.305,0.427,393.832
149589,166377,14226,-0.048,-0.945,-0.193,-0.244,0.305,0.427,393.838
149611,166339,13990,-0.049,-0.944,-0.191,0.061,0.305,0.549,393.842
149611,166387,14217,-0.047,-0.945,-0.192,0.061,0.305,0.549,393.848
149622,166595,13990,-0.048,-0.943,-0.192,-0.183,0.366,0.488,393.852
149622,166434,14209,-0.047,-0.938,-0.195,-0.183,0.366,0.488,393.858
149651,166595,13990,-0.048,-0.942,-0.194,-0.732,0.366,0.488,393.861
149651,166445,14221,-0.047,-0.944,-0.194,-0.732,0.366,0.488,393.868
149628,166595,13990,-0.046,-0.941,-0.197,-0.976,0.366,0.488,393.871
149628,166451,14225,-0.051,-0.94,-0.199,-0.976,0.366,0.488,393.878
149636,166595,13990,-0.051,-0.944,-0.201,-1.098,0.366,0.305,393.881
149636,166446,14209,-0.047,-0.943,-0.199,-1.098,0.366,0.305,393.887
149603,166595,13990,-0.047,-0.945,-0.198,-0.854,0.427,0.305,393.891
149603,166424,14223,-0.049,-0.946,-0.196,-0.854,0.427,0.305,393.897
149600,166595,13990,-0.049,-0.946,-0.203,-0.671,0.427,0.366,393.901
149600,166406,14217,-0.045,-0.943,-0.204,-0.671,0.427,0.366,393.907
149563,166339,13990,-0.046,-0.943,-0.195,-0.183,0.366,0.488,393.911
149563,166380,14219,-0.048,-0.944,-0.191,-0.183,0.366,0.488,393.917
149579,166339,13990,-0.047,-0.942,-0.191,0.183,0.305,0.488,393.921
149579,166378,14197,-0.047,-0.944,-0.188,0.183,0.305,0.488,393.927
149551,166339,13990,-0.049,-0.943,-0.192,-0.183,0.366,0.549,393.931
149551,166380,14195,-0.047,-0.941,-0.19,-0.183,0.366,0.549,393.937
149586,166339,13990,-0.048,-0.943,-0.194,-0.61,0.244,0.549,393.941
149586,166399,14219,-0.05,-0.94,-0.195,-0.61,0.244,0.549,393.947
149618,166595,13990,-0.051,-0.943,-0.19,-0.915,0.244,0.549,393.951
149618,166423,14202,-0.052,-0.944,-0.196,-0.915,0.244,0.549,393.957
149618,166595,13990,-0.051,-0.947,-0.202,-1.22,0.244,0.366,393.96
149618,166442,14216,-0.05,-0.944,-0.202,-1.22,0.244,0.366,393.967
149653,166595,13990,-0.049,-0.942,-0.2,-0.488,0.427,0.061,393.97
149653,166485,14210,-0.049,-0.943,-0.202,-0.488,0.427,0.061,393.977
149644,166595,13990,-0.046,-0.944,-0.2,0.305,0.549,-0.061,393.98
149644,166440,14214,-0.047,-0.943,-0.199,0.305,0.549,-0.061,393.986
149644,166595,13990,-0.045,-0.946,-0.195,0.732,0.549,0.061,393.99
149644,166466,14223,-0.042,-0.941,-0.196,0.732,0.549,0.061,393.996
149689,166595,13990,-0.043,-0.943,-0.194,0.854,0.488,0.183,394
149689,166503,14218,-0.042,-0.944,-0.192,0.854,0.488,0.183,394.006
149686,166595,13990,-0.044,-0.943,-0.193,0.488,0.366,0.549,394.01
149686,166506,14219,-0.044,-0.946,-0.192,0.488,0.366,0.549,394.016
149747,166595,13990,-0.044,-0.944,-0.196,0.122,0.366,0.732,394.02
149747,166528,14223,-0.047,-0.944,-0.191,0.122,0.366,0.732,394.026
149736,166595,13990,-0.045,-0.942,-0.188,-0.183,0.305,0.976,394.03
149736,166512,14229,-0.052,-0.939,-0.191,-0.183,0.305,0.976,394.036
149750,166595,13990,-0.052,-0.943,-0.195,-0.976,0.183,0.976,394.04
149750,166550,14237,-0.05,-0.944,-0.196,-0.976,0.183,0.976,394.046
149775,166595,13990,-0.05,-0.944,-0.195,-1.22,0.183,0.854,394.05
149775,166560,14234,-0.05,-0.944,-0.194,-1.22,0.183,0.854,394.056
149758,166595,13990,-0.055,-0.945,-0.198,-1.037,0.366,0.549,394.059
149758,166553,14229,-0.054,-0.948,-0.203,-1.037,0.366,0.549,394.066
149749,166595,13990,-0.052,-0.947,-0.204,-0.61,0.488,0.244,394.069
149749,166543,14228,-0.05,-0.948,-0.2,-0.61,0.488,0.244,394.076
149730,166595,13990,-0.052,-0.94,-0.201,0.122,0.549,0,394.079
149730,166538,14225,-0.049,-0.937,-0.197,0.122,0.549,0,394.085
149695,166595,13990,-0.046,-0.941,-0.193,0.427,0.549,-0.061,394.089
149695,166498,14223,-0.044,-0.946,-0.199,0.427,0.549,-0.061,394.095
149665,166595,13990,-0.044,-0.943,-0.196,0.305,0.61,0,394.099
149665,166496,14231,-0.043,-0.942,-0.192,0.305,0.61,0,394.105
149684,166595,13990,-0.042,-0.944,-0.19,0.244,0.488,0.183,394.109
149684,166474,14221,-0.046,-0.942,-0.194,0.244,0.488,0.183,394.115
149648,166595,13990,-0.046,-0.942,-0.194,-0.183,0.366,0.366,394.119
149648,166491,14214,-0.045,-0.942,-0.194,-0.183,0.366,0.366,394.125
149674,166595,13990,-0.048,-0.941,-0.194,-0.366,0.305,0.366,394.129
149674,166491,14219,-0.049,-0.944,-0.192,-0.366,0.305,0.366,394.135
149648,166595,13990,-0.047,-0.944,-0.196,-0.427,0.366,0.427,394.139
149648,166485,14217,-0.048,-0.946,-0.203,-0.427,0.366,0.427,394.145
149612,166595,13990,-0.048,-0.946,-0.206,-0.549,0.366,0.366,394.149
149612,166446,14210,-0.047,-0.944,-0.201,-0.549,0.366,0.366,394.155
149606,166595,13990,-0.046,-0.943,-0.197,0.244,0.366,0.427,394.158
149606,166452,14208,-0.046,-0.943,-0.192,0.244,0.366,0.427,394.165
149581,166595,13990,-0.048,-0.941,-0.191,0.305,0.549,0.488,394.168
149581,166413,14216,-0.05,-0.942,-0.194,0.305,0.549,0.488,394.175
149579,166595,13990,-0.047,-0.945,-0.197,0.183,0.549,0.549,394.178
149579,166430,14216,-0.047,-0.946,-0.197,0.183,0.549,0.549,394.184
149590,166595,13990,-0.047,-0.946,-0.197,0.183,0.549,0.549,394.188
149590,166406,14212,-0.045,-0.943,-0.191,0.305,0.549,0.61,394.194
149608,166595,13990,-0.045,-0.943,-0.191,0.305,0.549,0.61,394.198
149608,166417,14217,-0.047,-0.943,-0.184,0.061,0.488,0.671,394.204
149599,166595,13990,-0.047,-0.943,-0.184,0.061,0.488,0.671,394.208
149599,166455,14219,-0.049,-0.946,-0.193,-0.549,0.305,0.976,394.214
149576,166595,13990,-0.049,-0.946,-0.193,-0.549,0.305,0.976,394.218
149576,166433,14218,-0.049,-0.942,-0.2,-1.037,0.244,0.793,394.224
149550,166339,13990,-0.049,-0.942,-0.2,-1.037,0.244,0.793,394.228
149550,166387,14202,-0.049,-0.944,-0.199,-1.037,0.183,0.61,394.234
149517,166595,13990,-0.049,-0.944,-0.199,-1.037,0.183,0.61,394.238
149517,166400,14202,-0.05,-0.945,-0.198,-0.854,0.183,0.61,394.244
149542,166339,13990,-0.05,-0.945,-0.198,-0.854,0.183,0.61,394.248
149542,166381,14199,-0.047,-0.945,-0.201,-0.61,0.122,0.61,394.254
149548,166339,13990,-0.047,-0.945,-0.201,-0.61,0.122,0.61,394.257
149548,166397,14203,-0.048,-0.943,-0.198,-0.549,0.244,0.427,394.264
149608,166595,13990,-0.048,-0.943,-0.198,-0.549,0.244,0.427,394.267
149608,166408,14201,-0.045,-0.94,-0.193,-0.488,0.366,0.427,394.274
149630,166595,13990,-0.045,-0.94,-0.193,-0.488,0.366,0.427,394.277
149630,166462,14224,-0.046,-0.943,-0.189,-0.488,0.305,0.549,394.283
149648,166595,13990,-0.046,-0.943,-0.189,-0.488,0.305,0.549,394.287
149648,166481,14206,-0.05,-0.944,-0.19,-0.61,0.305,0.61,394.293
149686,166595,13990,-0.05,-0.944,-0.19,-0.61,0.305,0.61,394.297
149686,166480,14233,-0.049,-0.942,-0.195,-1.098,0.183,0.793,394.303
149679,166595,13990,-0.049,-0.942,-0.195,-1.098,0.183,0.793,394.307
149679,166496,14221,-0.051,-0.944,-0.196,-1.524,0.122,0.732,394.313
149662,166595,13990,-0.051,-0.944,-0.196,-1.524,0.122,0.732,394.317
149662,166508,14219,-0.053,-0.944,-0.201,-1.402,0.122,0.61,394.323
149657,166595,13990,-0.053,-0.944,-0.201,-1.402,0.122,0.61,394.327
149657,166459,14205,-0.05,-0.947,-0.201,-1.159,0.244,0.366,394.333
149640,166595,13990,-0.05,-0.946,-0.2,-1.159,0.244,0.366,394.337
149640,166465,14201,-0.05,-0.943,-0.195,-0.793,0.366,0.183,394.343
149649,166595,13990,-0.052,-0.944,-0.193,-0.793,0.366,0.183,394.347
149649,166495,14208,-0.05,-0.941,-0.196,-0.244,0.366,0.122,394.353
149694,166595,13990,-0.047,-0.944,-0.194,-0.244,0.366,0.122,394.356
149694,166468,14214,-0.045,-0.944,-0.192,-0.488,0.427,0.061,394.363
149693,166595,13990,-0.046,-0.943,-0.195,-0.488,0.427,0.061,394.366
149693,166506,14221,-0.048,-0.945,-0.197,-0.732,0.366,0,394.373
149715,166595,13990,-0.047,-0.941,-0.194,-0.732,0.366,0,394.376
149715,166522,14225,-0.048,-0.941,-0.197,-0.976,0.244,0.061,394.382
149733,166595,13990,-0.047,-0.943,-0.196,-0.976,0.244,0.061,394.386
149733,166539,14223,-0.048,-0.945,-0.202,-1.159,0.244,0.244,394.392
149726,166595,13990,-0.048,-0.944,-0.202,-1.159,0.244,0.244,394.396
149726,166507,14222,-0.048,-0.945,-0.2,-0.976,0.244,0.305,394.402
149716,166595,13990,-0.048,-0.945,-0.205,-0.976,0.244,0.305,394.406
149716,166506,14215,-0.049,-0.944,-0.199,-0.671,0.244,0.366,394.412
149724,166595,13990,-0.048,-0.946,-0.198,-0.671,0.244,0.366,394.416
149724,166534,14225,-0.05,-0.944,-0.198,-0.305,0.366,0.183,394.422
149734,166595,13990,-0.05,-0.944,-0.2,-0.305,0.366,0.183,394.426
149734,166520,14225,-0.049,-0.945,-0.199,-0.122,0.488,-0.061,394.432
149756,166595,13990,-0.048,-0.943,-0.192,-0.122,0.488,-0.061,394.436
149756,166568,14219,-0.048,-0.944,-0.192,0.244,0.427,-0.061,394.442
149783,166595,13990,-0.05,-0.944,-0.195,0.244,0.427,-0.061,394.446
149783,166564,14234,-0.049,-0.945,-0.203,-0.183,0.427,0,394.452
149812,166595,13990,-0.045,-0.945,-0.204,-0.183,0.427,0,394.455
149812,166614,14220,-0.046,-0.944,-0.197,0.122,0.427,0,394.462
149838,166595,13990,-0.046,-0.946,-0.197,0.122,0.427,0,394.465
149838,166624,14230,-0.045,-0.942,-0.197,0.61,0.488,0.183,394.472
149830,166595,13990,-0.044,-0.941,-0.197,0.61,0.488,0.183,394.475
149830,166624,14236,-0.044,-0.943,-0.196,0.549,0.549,0.366,394.481
149836,166595,13990,-0.046,-0.946,-0.196,0.549,0.549,0.366,394.485
149836,166620,14246,-0.047,-0.944,-0.198,0.732,0.488,0.732,394.491
149796,166595,13990,-0.047,-0.944,-0.196,0.732,0.488,0.732,394.495
149796,166602,14237,-0.047,-0.943,-0.195,0.366,0.366,0.915,394.501
149789,166595,13990,-0.049,-0.945,-0.192,0.366,0.366,0.915,394.505
149789,166583,14210,-0.049,-0.944,-0.192,-0.122,0.305,0.854,394.511
149767,166595,13990,-0.05,-0.946,-0.193,-0.122,0.305,0.854,394.515
149767,166586,14228,-0.049,-0.944,-0.196,-0.427,0.244,0.61,394.521
149763,166595,13990,-0.049,-0.944,-0.195,-0.427,0.244,0.61,394.525
149763,166565,14220,-0.053,-0.945,-0.197,-0.366,0.305,0.366,394.531
149758,166595,13990,-0.053,-0.945,-0.202,-0.366,0.305,0.366,394.535
149758,166567,14204,-0.05,-0.943,-0.204,-0.244,0.427,0.305,394.541
149757,166595,13990,-0.048,-0.946,-0.2,-0.244,0.427,0.305,394.545
149757,166562,14225,-0.048,-0.943,-0.198,0.122,0.549,0.183,394.551
149767,166595,13990,-0.046,-0.941,-0.195,0.122,0.549,0.183,394.554
149767,166583,14216,-0.045,-0.942,-0.197,0.366,0.488,0.122,394.561
149766,166595,13990,-0.048,-0.943,-0.2,0.366,0.488,0.122,394.564
149766,166547,14212,-0.048,-0.942,-0.199,0.305,0.549,0.122,394.571
149724,166595,13990,-0.047,-0.944,-0.195,0.305,0.549,0.122,394.574
149724,166531,14213,-0.045,-0.943,-0.192,0.549,0.549,0.122,394.58
149684,166595,13990,-0.043,-0.943,-0.19,0.549,0.549,0.122,394.584
149684,166509,14203,-0.043,-0.943,-0.191,0.366,0.549,0.183,394.59
149636,166595,13990,-0.049,-0.943,-0.193,0.366,0.549,0.183,394.594
149636,166463,14204,-0.049,-0.945,-0.195,-0.244,0.427,0.305,394.6
149618,166595,13990,-0.048,-0.943,-0.193,-0.244,0.427,0.305,394.604
149618,166434,14196,-0.047,-0.945,-0.198,-0.549,0.305,0.305,394.61
149610,166595,13990,-0.051,-0.945,-0.2,-0.549,0.305,0.305,394.614
149610,166425,14208,-0.048,-0.944,-0.198,-0.732,0.366,0.305,394.62
149580,166595,13990,-0.051,-0.945,-0.196,-0.732,0.366,0.305,394.624
149580,166434,14205,-0.052,-0.944,-0.197,-0.427,0.366,0.305,394.63
149583,166339,13990,-0.049,-0.942,-0.201,-0.427,0.366,0.305,394.634
149583,166377,14195,-0.047,-0.945,-0.2,-0.305,0.427,0.305,394.64
149560,166339,13990,-0.048,-0.945,-0.199,-0.305,0.427,0.305,394.644
149560,166363,14188,-0.046,-0.943,-0.2,0.244,0.427,0.244,394.65
149558,166339,13990,-0.044,-0.945,-0.198,0.244,0.427,0.244,394.653
149558,166362,14188,-0.048,-0.946,-0.191,0.732,0.427,0.244,394.66
149520,166339,13990,-0.046,-0.945,-0.189,0.732,0.427,0.244,394.663
149520,166349,14188,-0.044,-0.944,-0.193,0.549,0.427,0.305,394.67
149511,166339,13990,-0.046,-0.944,-0.196,0.549,0.427,0.305,394.673
149511,166340,14183,-0.05,-0.942,-0.194,-0.061,0.549,0.427,394.679
149488,166339,13990,-0.047,-0.941,-0.189,-0.061,0.549,0.427,394.683
149488,166321,14187,-0.049,-0.942,-0.191,-0.366,0.366,0.366,394.689
149485,166339,13990,-0.05,-0.942,-0.191,-0.366,0.366,0.366,394.693
149485,166290,14169,-0.051,-0.944,-0.187,-0.793,0.244,0.366,394.699
149443,166339,13990,-0.051,-0.944,-0.197,-0.793,0.244,0.366,394.703
149443,166257,14167,-0.051,-0.944,-0.204,-1.463,0.244,0.305,394.709
149430,166339,13990,-0.05,-0.948,-0.202,-1.463,0.244,0.305,394.713
149430,166254,14186,-0.049,-0.947,-0.2,-0.915,0.366,0.122,394.719
149432,166339,13990,-0.049,-0.943,-0.197,-0.915,0.366,0.122,394.723
149432,166251,14171,-0.049,-0.942,-0.201,0.061,0.427,0.061,394.729
149430,166339,13990,-0.049,-0.945,-0.2,0.061,0.427,0.061,394.733
149430,166264,14172,-0.049,-0.944,-0.197,0.366,0.488,0.061,394.739
149439,166339,13990,-0.047,-0.943,-0.198,0.366,0.488,0.061,394.743
149439,166253,14170,-0.047,-0.938,-0.192,0.549,0.549,-0.061,394.749
149448,166339,13990,-0.045,-0.943,-0.19,0.549,0.549,-0.061,394.752
149448,166279,14174,-0.045,-0.942,-0.188,0.671,0.61,0.122,394.759
149462,166339,13990,-0.043,-0.941,-0.191,0.671,0.61,0.122,394.762
149462,166295,14172,-0.044,-0.945,-0.197,0.244,0.427,0.305,394.769
149475,166339,13990,-0.044,-0.945,-0.197,0.244,0.427,0.305,394.772
149475,166294,14192,-0.044,-0.945,-0.193,-0.61,0.305,0.427,394.778
149493,166339,13990,-0.044,-0.945,-0.193,-0.61,0.305,0.427,394.782
149493,166310,14182,-0.05,-0.943,-0.196,-0.976,0.305,0.549,394.788
149479,166339,13990,-0.05,-0.943,-0.196,-0.976,0.305,0.549,394.792
149479,166306,14176,-0.049,-0.945,-0.198,-0.854,0.244,0.61,394.798
149491,166339,13990,-0.049,-0.945,-0.198,-0.854,0.244,0.61,394.802
149491,166304,14179,-0.052,-0.944,-0.2,-0.732,0.244,0.61,394.808
149461,166339,13990,-0.052,-0.944,-0.2,-0.732,0.244,0.61,394.812
149461,166299,14181,-0.05,-0.945,-0.202,-0.427,0.305,0.488,394.818
149491,166339,13990,-0.05,-0.945,-0.202,-0.427,0.305,0.488,394.822
149491,166316,14170,-0.05,-0.943,-0.192,-0.183,0.427,0.305,394.828
149474,166339,13990,-0.05,-0.943,-0.192,-0.183,0.427,0.305,394.832
149474,166322,14180,-0.047,-0.943,-0.2,0,0.488,0.122,394.838
149517,166339,13990,-0.047,-0.943,-0.2,0,0.488,0.122,394.842
149517,166355,14177,-0.047,-0.942,-0.198,0.183,0.488,0,394.848
149531,166339,13990,-0.047,-0.942,-0.198,0.183,0.488,0,394.851
149531,166347,14182,-0.041,-0.945,-0.203,0.427,0.488,0.183,394.858
149526,166339,13990,-0.041,-0.945,-0.203,0.427,0.488,0.183,394.861
149526,166346,14167,-0.045,-0.942,-0.191,0.61,0.549,0.427,394.868
149553,166339,13990,-0.045,-0.942,-0.191,0.61,0.549,0.427,394.871
149553,166375,14179,-0.045,-0.944,-0.19,0.366,0.488,0.671,394.877
149544,166339,13990,-0.045,-0.944,-0.19,0.366,0.488,0.671,394.881
149544,166341,14174,-0.05,-0.942,-0.192,-0.427,0.244,0.793,394.887
149517,166339,13990,-0.05,-0.942,-0.192,-0.427,0.244,0.793,394.891
149517,166352,14172,-0.052,-0.945,-0.198,-0.854,0.244,0.671,394.897
149486,166339,13990,-0.052,-0.945,-0.198,-0.854,0.244,0.671,394.901
149486,166333,14203,-0.054,-0.944,-0.193,-0.61,0.183,0.488,394.907
149498,166339,13990,-0.054,-0.944,-0.193,-0.61,0.183,0.488,394.911
149498,166326,14156,-0.054,-0.941,-0.196,-0.61,0.183,0.488,394.917
149521,166339,13990,-0.052,-0.945,-0.199,-0.732,0.244,0.305,394.921
149521,166297,14192,-0.048,-0.942,-0.197,-0.732,0.244,0.305,394.927
149530,166339,13990,-0.046,-0.946,-0.194,-0.488,0.305,0.061,394.931
149530,166321,14167,-0.048,-0.946,-0.199,-0.488,0.305,0.061,394.937
149519,166339,13990,-0.047,-0.945,-0.205,-0.305,0.427,0,394.941
149519,166290,14188,-0.049,-0.945,-0.199,-0.305,0.427,0,394.947
149520,166339,13990,-0.049,-0.94,-0.194,0.244,0.427,0.061,394.95
149520,166306,14186,-0.043,-0.944,-0.199,0.244,0.427,0.061,394.957
149531,166339,13990,-0.041,-0.944,-0.193,0.549,0.549,0.122,394.96
149531,166331,14187,-0.047,-0.941,-0.192,0.549,0.549,0.122,394.967
149478,166339,13990,-0.046,-0.942,-0.196,0.061,0.427,0.244,394.97
149478,166309,14186,-0.045,-0.941,-0.199,0.061,0.427,0.244,394.976
149466,166339,13990,-0.046,-0.944,-0.198,-0.488,0.305,0.366,394.98
149466,166286,14175,-0.049,-0.943,-0.196,-0.488,0.305,0.366,394.986
149414,166339,13990,-0.049,-0.943,-0.196,-0.427,0.305,0.305,394.99
149414,166286,14179,-0.05,-0.943,-0.196,-0.427,0.305,0.305,394.996
149428,166339,13990,-0.051,-0.947,-0.201,-0.366,0.244,0.183,395
149428,166260,14165,-0.048,-0.946,-0.204,-0.366,0.244,0.183,395.006
149434,166339,13990,-0.046,-0.945,-0.2,-0.061,0.305,0.244,395.01
149434,166287,14171,-0.05,-0.943,-0.198,-0.061,0.305,0.244,395.016
149441,166339,13990,-0.048,-0.943,-0.197,0.671,0.366,0.244,395.02
149441,166272,14191,-0.047,-0.945,-0.197,0.671,0.366,0.244,395.026
149486,166339,13990,-0.044,-0.944,-0.198,1.159,0.549,0.122,395.03
149486,166303,14182,-0.045,-0.94,-0.195,1.159,0.549,0.122,395.036
149485,166339,13990,-0.046,-0.944,-0.189,1.341,0.671,0.183,395.04
149485,166309,14180,-0.046,-0.943,-0.192,1.341,0.671,0.183,395.046
149506,166339,13990,-0.047,-0.941,-0.193,1.22,0.671,0.183,395.049
149506,166286,14168,-0.045,-0.944,-0.194,1.22,0.671,0.183,395.056
149475,166339,13990,-0.044,-0.939,-0.189,0.671,0.61,0.305,395.059
149475,166293,14173,-0.047,-0.94,-0.188,0.671,0.61,0.305,395.065
149449,166339,13990,-0.051,-0.946,-0.19,-0.183,0.366,0.427,395.069
149449,166260,14166,-0.048,-0.947,-0.194,-0.183,0.366,0.427,395.075
149397,166339,13990,-0.049,-0.942,-0.192,-1.037,0.183,0.488,395.079
149397,166241,14174,-0.049,-0.945,-0.194,-1.037,0.183,0.488,395.085
149403,166339,13990,-0.047,-0.946,-0.195,-1.098,0.183,0.366,395.089
149403,166222,14177,-0.047,-0.945,-0.195,-1.098,0.183,0.366,395.095
149386,166339,13990,-0.047,-0.944,-0.202,-0.732,0.183,0.366,395.099
149386,166215,14182,-0.047,-0.942,-0.201,-0.732,0.183,0.366,395.105
149384,166339,13990,-0.045,-0.943,-0.2,-0.183,0.305,0.488,395.109
149384,166194,14155,-0.047,-0.945,-0.198,-0.183,0.305,0.488,395.115
149419,166339,13990,-0.046,-0.943,-0.195,0.366,0.488,0.366,395.119
149419,166236,14171,-0.043,-0.943,-0.189,0.366,0.488,0.366,395.125
149421,166339,13990,-0.046,-0.943,-0.192,0.427,0.427,0.488,395.129
149421,166237,14170,-0.048,-0.943,-0.193,0.427,0.427,0.488,395.135
149458,166339,13990,-0.046,-0.941,-0.192,-0.122,0.366,0.549,395.139
149458,166267,14185,-0.048,-0.944,-0.192,-0.122,0.366,0.549,395.145
149473,166339,13990,-0.046,-0.944,-0.194,-0.427,0.305,0.61,395.148
149473,166261,14182,-0.047,-0.944,-0.191,-0.427,0.305,0.61,395.155
149493,166339,13990,-0.049,-0.944,-0.193,-0.61,0.305,0.732,395.158
149493,166295,14186,-0.05,-0.945,-0.197,-0.61,0.305,0.732,395.165
149506,166339,13990,-0.049,-0.949,-0.198,-0.854,0.244,0.732,395.168
149506,166283,14178,-0.05,-0.944,-0.198,-0.854,0.244,0.732,395.174
149490,166339,13990,-0.052,-0.942,-0.197,-0.61,0.305,0.61,395.178
149490,166298,14171,-0.05,-0.941,-0.198,-0.61,0.305,0.61,395.184
149458,166339,13990,-0.049,-0.945,-0.198,-0.122,0.305,0.488,395.188
149458,166255,14184,-0.052,-0.942,-0.195,-0.122,0.305,0.488,395.194
149452,166339,13990,-0.051,-0.942,-0.195,0.305,0.427,0.305,395.198
149452,166228,14159,-0.048,-0.945,-0.198,0.305,0.427,0.305,395.204
149417,166339,13990,-0.05,-0.945,-0.196,0.488,0.427,0.122,395.208
149417,166239,14171,-0.048,-0.943,-0.192,0.488,0.427,0.122,395.214
149444,166339,13990,-0.049,-0.944,-0.189,0.427,0.427,0,395.218
149444,166235,14179,-0.048,-0.943,-0.19,0.427,0.427,0,395.224
149462,166339,13990,-0.048,-0.946,-0.196,-0.183,0.488,-0.061,395.228
149462,166267,14173,-0.044,-0.948,-0.194,-0.183,0.488,-0.061,395.234
149480,166339,13990,-0.045,-0.944,-0.194,-0.549,0.427,0.061,395.238
149480,166281,14171,-0.044,-0.942,-0.193,-0.549,0.427,0.061,395.244
149472,166339,13990,-0.047,-0.943,-0.196,-0.915,0.366,0.183,395.247
149472,166269,14166,-0.046,-0.946,-0.194,-0.915,0.366,0.183,395.254
149485,166339,13990,-0.045,-0.942,-0.197,-1.159,0.244,0.305,395.257
149485,166274,14170,-0.048,-0.943,-0.201,-1.159,0.244,0.305,395.264
149451,166339,13990,-0.049,-0.946,-0.197,-0.976,0.305,0.305,395.267
149451,166251,14184,-0.048,-0.942,-0.198,-0.976,0.305,0.305,395.273
149476,166339,13990,-0.046,-0.942,-0.197,-0.549,0.366,0.305,395.277
149476,166233,14153,-0.049,-0.943,-0.198,-0.549,0.366,0.305,395.283
149464,166339,13990,-0.047,-0.944,-0.2,-0.366,0.305,0.183,395.287
149464,166253,14169,-0.049,-0.94,-0.196,-0.366,0.305,0.183,395.293
149493,166339,13990,-0.049,-0.942,-0.192,-0.183,0.305,0.305,395.297
149493,166282,14162,-0.049,-0.946,-0.194,-0.183,0.305,0.305,395.303
149531,166339,13990,-0.048,-0.947,-0.202,-0.549,0.366,0.244,395.307
149531,166289,14174,-0.044,-0.945,-0.201,-0.549,0.366,0.244,395.313
149552,166339,13990,-0.045,-0.943,-0.197,-0.61,0.244,0.183,395.317
149552,166326,14187,-0.047,-0.944,-0.192,-0.61,0.244,0.183,395.323
149605,166339,13990,-0.048,-0.946,-0.196,-0.244,0.305,0.366,395.327
149605,166342,14201,-0.046,-0.944,-0.196,-0.244,0.305,0.366,395.333
149632,166339,13990,-0.048,-0.94,-0.199,-0.244,0.305,0.549,395.337
149632,166351,14178,-0.048,-0.942,-0.195,-0.244,0.305,0.549,395.343
149587,166339,13990,-0.047,-0.942,-0.197,-0.122,0.244,0.549,395.346
149587,166346,14199,-0.051,-0.942,-0.197,-0.122,0.244,0.549,395.353
149580,166339,13990,-0.051,-0.942,-0.197,-0.122,0.244,0.549,395.356
149580,166327,14171,-0.05,-0.943,-0.19,-0.122,0.244,0.488,395.362
149551,166339,13990,-0.05,-0.943,-0.19,-0.122,0.244,0.488,395.366
149551,166283,14194,-0.053,-0.941,-0.194,-0.183,0.366,0.183,395.372
149517,166339,13990,-0.053,-0.941,-0.194,-0.183,0.366,0.183,395.376
149517,166286,14183,-0.053,-0.942,-0.197,-0.549,0.305,0,395.382
149540,166339,13990,-0.053,-0.942,-0.197,-0.549,0.305,0,395.386
149540,166283,14167,-0.047,-0.947,-0.195,-0.305,0.366,-0.183,395.392
149548,166339,13990,-0.047,-0.947,-0.195,-0.305,0.366,-0.183,395.396
149548,166319,14193,-0.046,-0.942,-0.194,-0.061,0.427,-0.183,395.402
149588,166339,13990,-0.046,-0.942,-0.194,-0.061,0.427,-0.183,395.406
149588,166314,14194,-0.042,-0.944,-0.198,-0.244,0.305,-0.122,395.412
149592,166339,13990,-0.042,-0.944,-0.198,-0.244,0.305,-0.122,395.416
149592,166322,14177,-0.044,-0.945,-0.198,-0.427,0.366,0.061,395.422
149591,166339,13990,-0.044,-0.945,-0.198,-0.427,0.366,0.061,395.426
149591,166308,14182,-0.045,-0.944,-0.201,-0.427,0.244,0.305,395.432
149562,166339,13990,-0.045,-0.944,-0.201,-0.427,0.244,0.305,395.436
149562,166315,14180,-0.047,-0.944,-0.196,-0.366,0.244,0.427,395.442
149551,166339,13990,-0.047,-0.944,-0.196,-0.366,0.244,0.427,395.445
149551,166302,14184,-0.05,-0.947,-0.195,0.061,0.366,0.488,395.452
149550,166339,13990,-0.05,-0.947,-0.195,0.061,0.366,0.488,395.455
149550,166296,14168,-0.049,-0.947,-0.193,0.244,0.427,0.427,395.462
149525,166339,13990,-0.049,-0.947,-0.193,0.244,0.427,0.427,395.465
149525,166303,14177,-0.05,-0.944,-0.187,0.366,0.488,0.305,395.471
149544,166339,13990,-0.05,-0.944,-0.187,0.366,0.488,0.305,395.475
149544,166302,14179,-0.045,-0.944,-0.192,0.183,0.427,0.183,395.481
149576,166339,13990,-0.045,-0.944,-0.192,0.183,0.427,0.183,395.485
149576,166308,14183,-0.044,-0.943,-0.191,-0.488,0.366,0.244,395.491
149568,166339,13990,-0.044,-0.943,-0.191,-0.488,0.366,0.244,395.495
149568,166317,14183,-0.043,-0.941,-0.192,-0.61,0.366,0.244,395.501
149566,166339,13990,-0.045,-0.944,-0.193,-0.61,0.366,0.244,395.505
149566,166314,14182,-0.045,-0.945,-0.199,-0.793,0.183,0.61,395.511
149540,166339,13990,-0.046,-0.944,-0.2,-0.793,0.183,0.61,395.515
149540,166305,14176,-0.047,-0.944,-0.2,-1.037,0.305,0.854,395.521
149526,166339,13990,-0.047,-0.945,-0.204,-1.037,0.305,0.854,395.525
149526,166265,14182,-0.048,-0.945,-0.199,-0.427,0.427,0.976,395.531
149486,166339,13990,-0.05,-0.942,-0.197,-0.427,0.427,0.976,395.535
149486,166250,14179,-0.053,-0.943,-0.199,0,0.427,0.854,395.541
149480,166339,13990,-0.051,-0.947,-0.198,0,0.427,0.854,395.544
149480,166227,14173,-0.052,-0.942,-0.197,0.244,0.549,0.427,395.551
149456,166339,13990,-0.053,-0.942,-0.195,0.244,0.549,0.427,395.554
149456,166196,14162,-0.052,-0.946,-0.196,0.61,0.549,0.061,395.56
149431,166339,13990,-0.048,-0.945,-0.197,0.61,0.549,0.061,395.564
149431,166199,14168,-0.05,-0.946,-0.196,0.427,0.549,-0.183,395.57
149437,166339,13990,-0.048,-0.945,-0.197,0.427,0.549,-0.183,395.574
149437,166172,14164,-0.047,-0.943,-0.195,0.488,0.61,-0.183,395.58
149439,166339,13990,-0.039,-0.943,-0.189,0.488,0.61,-0.183,395.584
149439,166188,14168,-0.042,-0.942,-0.189,0.671,0.488,0.061,395.59
149441,166339,13990,-0.043,-0.943,-0.198,0.671,0.488,0.061,395.594
149441,166193,14176,-0.04,-0.945,-0.199,0,0.427,0.488,395.6
149453,166339,13990,-0.042,-0.946,-0.197,0,0.427,0.488,395.604
149453,166191,14164,-0.044,-0.944,-0.193,-0.183,0.183,0.732,395.61
149420,166339,13990,-0.045,-0.943,-0.193,-0.183,0.183,0.732,395.614
149420,166172,14166,-0.048,-0.941,-0.197,-0.488,0.122,1.037,395.62
149425,166339,13990,-0.048,-0.943,-0.202,-0.488,0.122,1.037,395.624
149425,166205,14157,-0.047,-0.944,-0.198,-0.549,0.305,1.098,395.63
149390,166339,13990,-0.049,-0.941,-0.195,-0.549,0.305,1.098,395.634
149390,166172,14165,-0.054,-0.942,-0.193,0.061,0.427,0.854,395.64
149395,166339,13990,-0.052,-0.942,-0.19,0.061,0.427,0.854,395.643
149395,166169,14158,-0.051,-0.944,-0.188,0,0.427,0.488,395.65
149375,166083,13990,-0.048,-0.942,-0.19,0,0.427,0.488,395.653
149375,166143,14168,-0.05,-0.943,-0.194,-0.671,0.366,0.244,395.66
149370,166083,13990,-0.049,-0.945,-0.193,-0.671,0.366,0.244,395.663
149370,166137,14150,-0.046,-0.947,-0.192,-0.793,0.366,0.061,395.669
149382,166083,13990,-0.047,-0.946,-0.192,-0.793,0.366,0.061,395.673
149382,166132,14156,-0.047,-0.947,-0.196,-1.037,0.305,0.061,395.679
149386,166083,13990,-0.046,-0.947,-0.191,-1.037,0.305,0.061,395.683
149386,166127,14153,-0.047,-0.946,-0.198,-1.037,0.183,0.305,395.689
149361,166083,13990,-0.042,-0.944,-0.209,-1.037,0.183,0.305,395.693
149361,166118,14155,-0.04,-0.944,-0.203,-0.854,0.244,0.488,395.699
149385,166083,13990,-0.043,-0.94,-0.2,-0.854,0.244,0.488,395.703
149385,166118,14152,-0.046,-0.942,-0.2,0,0.305,0.549,395.709
149351,166083,13990,-0.047,-0.946,-0.2,0,0.305,0.549,395.713
149351,166081,14153,-0.048,-0.941,-0.201,0.488,0.427,0.488,395.719
149358,166083,13990,-0.047,-0.943,-0.197,0.488,0.427,0.488,395.723
149358,166086,14158,-0.049,-0.944,-0.195,0.976,0.61,0.244,395.729
149339,166083,13990,-0.05,-0.943,-0.195,0.976,0.61,0.244,395.733
149339,166095,14160,-0.046,-0.941,-0.187,0.915,0.61,0.244,395.739
149370,166083,13990,-0.047,-0.942,-0.191,0.915,0.61,0.244,395.742
149370,166115,14159,-0.047,-0.944,-0.196,0.427,0.549,0.183,395.749
149380,166083,13990,-0.045,-0.945,-0.188,0.427,0.549,0.183,395.752
149380,166099,14137,-0.047,-0.946,-0.186,0.122,0.427,0.061,395.758
149378,166083,13990,-0.048,-0.943,-0.189,0.122,0.427,0.061,395.762
149378,166127,14160,-0.047,-0.942,-0.194,-0.488,0.366,0.244,395.768
149371,166339,13990,-0.048,-0.944,-0.198,-0.488,0.366,0.244,395.772
149371,166145,14156,-0.047,-0.944,-0.2,-0.854,0.366,0.366,395.778
149362,166083,13990,-0.047,-0.947,-0.199,-0.854,0.366,0.366,395.782
149362,166098,14159,-0.049,-0.949,-0.203,-0.61,0.366,0.488,395.788
149344,166083,13990,-0.049,-0.945,-0.2,-0.61,0.366,0.488,395.792
149344,166104,14162,-0.048,-0.943,-0.201,0,0.366,0.366,395.798
149347,166083,13990,-0.05,-0.944,-0.203,0,0.366,0.366,395.802
149347,166091,14166,-0.049,-0.942,-0.2,0.549,0.549,0.244,395.808
149352,166083,13990,-0.045,-0.943,-0.196,0.549,0.549,0.244,395.812
149352,166101,14158,-0.049,-0.942,-0.192,0.793,0.61,0.061,395.818
149380,166083,13990,-0.047,-0.942,-0.191,0.793,0.61,0.061,395.822
149380,166122,14165,-0.047,-0.942,-0.191,0.732,0.488,-0.122,395.828
149374,166083,13990,-0.045,-0.943,-0.192,0.732,0.488,-0.122,395.832
149374,166142,14164,-0.045,-0.945,-0.194,0.366,0.488,-0.122,395.838
149394,166083,13990,-0.047,-0.942,-0.189,0.366,0.488,-0.122,395.841
149394,166138,14169,-0.046,-0.944,-0.182,0.122,0.427,0.061,395.848
149425,166083,13990,-0.048,-0.946,-0.187,0.122,0.427,0.061,395.851
149425,166142,14172,-0.047,-0.945,-0.193,-0.366,0.305,0.488,395.857
149441,166339,13990,-0.043,-0.945,-0.196,-0.366,0.305,0.488,395.861
149441,166168,14169,-0.048,-0.948,-0.194,-0.61,0.183,0.671,395.867
149433,166339,13990,-0.046,-0.945,-0.195,-0.61,0.183,0.671,395.871
149433,166171,14173,-0.048,-0.943,-0.192,-0.427,0.244,0.732,395.877
149478,166339,13990,-0.049,-0.941,-0.197,-0.427,0.244,0.732,395.881
149478,166177,14157,-0.048,-0.943,-0.201,-0.549,0.305,0.61,395.887
149461,166339,13990,-0.05,-0.941,-0.199,-0.549,0.305,0.61,395.891
149461,166194,14167,-0.051,-0.943,-0.194,-0.061,0.366,0.305,395.897
149487,166339,13990,-0.051,-0.94,-0.195,-0.061,0.366,0.305,395.901
149487,166194,14179,-0.054,-0.943,-0.196,0.366,0.488,-0.061,395.907
149478,166339,13990,-0.051,-0.942,-0.195,0.366,0.488,-0.061,395.911
149478,166221,14178,-0.047,-0.945,-0.196,0.366,0.61,-0.427,395.917
149462,166339,13990,-0.043,-0.946,-0.193,0.366,0.61,-0.427,395.921
149462,166187,14178,-0.044,-0.943,-0.189,0.427,0.671,-0.671,395.927
149474,166339,13990,-0.044,-0.941,-0.188,0.427,0.671,-0.671,395.931
149474,166197,14187,-0.044,-0.944,-0.19,-0.061,0.549,-0.427,395.937
149480,166339,13990,-0.044,-0.944,-0.19,-0.061,0.549,-0.427,395.94
149480,166167,14183,-0.042,-0.944,-0.194,-0.61,0.427,0.061,395.947
149443,166339,13990,-0.042,-0.944,-0.194,-0.61,0.427,0.061,395.95
149443,166167,14175,-0.042,-0.941,-0.193,-1.159,0.122,0.488,395.956
149412,166083,13990,-0.042,-0.941,-0.193,-1.159,0.122,0.488,395.96
149412,166142,14183,-0.046,-0.945,-0.199,-1.646,0.122,0.671,395.966
149400,166083,13990,-0.046,-0.945,-0.199,-1.646,0.122,0.671,395.97
149400,166122,14169,-0.049,-0.942,-0.202,-1.28,0.183,0.732,395.976
149387,166083,13990,-0.049,-0.942,-0.202,-1.28,0.183,0.732,395.98
149387,166098,14173,-0.049,-0.943,-0.201,-0.61,0.366,0.549,395.986
149412,166083,13990,-0.049,-0.943,-0.201,-0.61,0.366,0.549,395.99
149412,166125,14164,-0.048,-0.944,-0.2,0.061,0.488,0.244,395.996
149435,166339,13990,-0.048,-0.944,-0.2,0.061,0.488,0.244,396
149435,166154,14159,-0.048,-0.947,-0.199,0.488,0.488,0,396.006
149442,166339,13990,-0.048,-0.947,-0.199,0.488,0.488,0,396.01
149442,166178,14170,-0.044,-0.943,-0.193,0.793,0.61,-0.122,396.016
149474,166339,13990,-0.044,-0.943,-0.193,0.793,0.61,-0.122,396.02
149474,166178,14169,-0.044,-0.947,-0.184,0.854,0.549,0.061,396.026
149497,166339,13990,-0.044,-0.947,-0.184,0.854,0.549,0.061,396.03
149497,166196,14176,-0.042,-0.941,-0.191,0.061,0.366,0.305,396.036
149482,166339,13990,-0.042,-0.941,-0.191,0.061,0.366,0.305,396.039
149482,166157,14171,-0.042,-0.948,-0.189,-0.61,0.183,0.671,396.046
149452,166339,13990,-0.042,-0.948,-0.189,-0.61,0.183,0.671,396.049
149452,166148,14169,-0.045,-0.944,-0.194,-0.793,0.122,1.037,396.055
149435,166083,13990,-0.045,-0.944,-0.194,-0.793,0.122,1.037,396.059
149435,166131,14164,-0.048,-0.944,-0.198,-0.793,0.183,1.159,396.065
149424,166339,13990,-0.048,-0.944,-0.198,-0.793,0.183,1.159,396.069
149424,166171,14170,-0.052,-0.944,-0.194,-0.488,0.305,0.976,396.075
149460,166339,13990,-0.052,-0.944,-0.194,-0.488,0.305,0.976,396.079
149460,166174,14171,-0.052,-0.946,-0.193,-0.488,0.305,0.976,396.085
149506,166339,13990,-0.052,-0.944,-0.194,-0.183,0.427,0.488,396.089
149506,166188,14176,-0.052,-0.945,-0.197,-0.183,0.427,0.488,396.095
149507,166339,13990,-0.05,-0.943,-0.196,-0.366,0.366,0,396.099
149507,166205,14165,-0.05,-0.944,-0.195,-0.366,0.366,0,396.105
149533,166339,13990,-0.048,-0.942,-0.19,-0.061,0.427,-0.305,396.109
149533,166201,14171,-0.048,-0.94,-0.193,-0.061,0.427,-0.305,396.115
149520,166339,13990,-0.045,-0.945,-0.191,-0.183,0.427,-0.305,396.119
149520,166196,14178,-0.045,-0.943,-0.191,-0.183,0.427,-0.305,396.125
149548,166339,13990,-0.044,-0.949,-0.192,-0.488,0.427,-0.183,396.128
149548,166180,14168,-0.041,-0.945,-0.193,-0.488,0.427,-0.183,396.135
149519,166339,13990,-0.043,-0.942,-0.195,-0.854,0.244,0.122,396.138
149519,166175,14185,-0.041,-0.943,-0.194,-0.854,0.244,0.122,396.145
149517,166339,13990,-0.042,-0.944,-0.199,-0.976,0.183,0.488,396.148
149517,166215,14171,-0.045,-0.943,-0.204,-0.976,0.183,0.488,396.154
149532,166339,13990,-0.046,-0.947,-0.2,-0.671,0.183,0.671,396.158
149532,166178,14183,-0.045,-0.943,-0.202,-0.671,0.183,0.671,396.164
149509,166339,13990,-0.048,-0.944,-0.201,-0.183,0.244,0.671,396.168
149509,166189,14161,-0.05,-0.945,-0.198,-0.183,0.244,0.671,396.174
149501,166339,13990,-0.05,-0.946,-0.197,0.244,0.427,0.488,396.178
149501,166175,14169,-0.05,-0.941,-0.194,0.244,0.427,0.488,396.184
149516,166339,13990,-0.049,-0.942,-0.193,0.366,0.427,0.183,396.188
149516,166175,14177,-0.05,-0.945,-0.19,0.366,0.427,0.183,396.194
149520,166339,13990,-0.049,-0.946,-0.189,0.366,0.488,0.061,396.198
149520,166160,14160,-0.049,-0.943,-0.188,0.366,0.488,0.061,396.204
149514,166339,13990,-0.046,-0.944,-0.19,-0.122,0.488,0.122,396.208
149514,166160,14168,-0.047,-0.942,-0.19,-0.122,0.488,0.122,396.214
149494,166339,13990,-0.043,-0.944,-0.197,-0.915,0.305,0.305,396.218
149494,166156,14173,-0.043,-0.946,-0.198,-0.915,0.305,0.305,396.224
149487,166083,13990,-0.044,-0.941,-0.194,-1.28,0.061,0.488,396.228
149487,166141,14159,-0.046,-0.942,-0.195,-1.28,0.061,0.488,396.234
149446,166083,13990,-0.044,-0.946,-0.199,-1.22,0.122,0.854,396.237
149446,166123,14164,-0.044,-0.946,-0.204,-1.22,0.122,0.854,396.244
149440,166083,13990,-0.046,-0.942,-0.206,-1.098,0.183,0.976,396.247
149440,166108,14162,-0.049,-0.942,-0.2,-1.098,0.183,0.976,396.253
149403,166083,13990,-0.05,-0.944,-0.198,-0.61,0.183,0.854,396.257
149403,166111,14156,-0.051,-0.942,-0.2,-0.61,0.183,0.854,396.263
149432,166083,13990,-0.051,-0.941,-0.196,-0.244,0.366,0.61,396.267
149432,166107,14155,-0.052,-0.941,-0.193,-0.244,0.366,0.61,396.273
149439,166083,13990,-0.051,-0.943,-0.198,-0.061,0.427,0.244,396.277
149439,166140,14169,-0.048,-0.949,-0.199,-0.061,0.427,0.244,396.283
149442,166083,13990,-0.05,-0.947,-0.194,0.183,0.427,0.061,396.287
149442,166133,14182,-0.047,-0.943,-0.193,0.183,0.427,0.061,396.293
149484,166339,13990,-0.046,-0.94,-0.194,0.244,0.488,0.061,396.297
149484,166166,14180,-0.044,-0.944,-0.196,0.244,0.488,0.061,396.303
149508,166339,13990,-0.042,-0.946,-0.192,0.061,0.488,0.244,396.307
149508,166186,14168,-0.044,-0.942,-0.196,0.061,0.488,0.244,396.313
149520,166339,13990,-0.046,-0.941,-0.195,-0.183,0.427,0.488,396.317
149520,166184,14159,-0.045,-0.942,-0.193,-0.183,0.427,0.488,396.323
149476,166339,13990,-0.046,-0.944,-0.197,-0.366,0.305,0.549,396.326
149476,166154,14170,-0.046,-0.944,-0.197,-0.366,0.305,0.549,396.333
149480,166339,13990,-0.046,-0.941,-0.195,-0.366,0.305,0.671,396.336
149480,166144,14158,-0.047,-0.942,-0.195,-0.366,0.305,0.671,396.343
149463,166339,13990,-0.046,-0.94,-0.192,-0.244,0.305,0.793,396.346
149463,166150,14163,-0.048,-0.941,-0.196,-0.244,0.305,0.793,396.352
149456,166083,13990,-0.052,-0.944,-0.197,-0.427,0.366,0.61,396.356
149456,166127,14177,-0.05,-0.944,-0.195,-0.427,0.366,0.61,396.362
149458,166083,13990,-0.048,-0.944,-0.198,-0.366,0.427,0.305,396.366
149458,166110,14162,-0.046,-0.944,-0.2,-0.366,0.427,0.305,396.372
149438,166083,13990,-0.048,-0.948,-0.201,-0.061,0.488,0.183,396.376
149438,166129,14141,-0.047,-0.946,-0.197,-0.061,0.488,0.183,396.382
149461,166083,13990,-0.046,-0.943,-0.189,0.488,0.488,0.122,396.386
149461,166111,14159,-0.043,-0.944,-0.197,0.488,0.488,0.122,396.392
149429,166083,13990,-0.045,-0.944,-0.198,0.366,0.488,0.183,396.396
149429,166110,14152,-0.048,-0.941,-0.194,0.366,0.488,0.183,396.402
149425,166083,13990,-0.046,-0.943,-0.193,0.183,0.488,0.122,396.406
149425,166118,14152,-0.046,-0.945,-0.195,0.183,0.488,0.122,396.412
149413,166083,13990,-0.045,-0.945,-0.195,0.061,0.366,0.305,396.416
149413,166121,14158,-0.047,-0.942,-0.197,0.061,0.366,0.305,396.422
149403,166083,13990,-0.049,-0.942,-0.197,-0.305,0.305,0.427,396.426
149403,166076,14156,-0.047,-0.945,-0.198,-0.305,0.305,0.427,396.432
149386,166083,13990,-0.045,-0.944,-0.193,-0.305,0.366,0.488,396.435
149386,166091,14168,-0.045,-0.945,-0.193,-0.305,0.366,0.488,396.442
149391,166083,13990,-0.048,-0.942,-0.196,-0.122,0.366,0.427,396.445
149391,166092,14145,-0.048,-0.944,-0.198,-0.122,0.366,0.427,396.451
149399,166083,13990,-0.05,-0.945,-0.201,-0.244,0.305,0.366,396.455
149399,166100,14168,-0.048,-0.945,-0.202,-0.244,0.305,0.366,396.461
149388,166083,13990,-0.046,-0.947,-0.199,0.061,0.488,0.244,396.465
149388,166090,14160,-0.047,-0.942,-0.195,0.061,0.488,0.244,396.471
149381,166083,13990,-0.048,-0.942,-0.196,0.549,0.488,0.183,396.475
149381,166059,14166,-0.045,-0.941,-0.197,0.549,0.488,0.183,396.481
149402,166083,13990,-0.046,-0.942,-0.192,0.793,0.549,0.305,396.485
149402,166063,14144,-0.044,-0.944,-0.187,0.793,0.549,0.305,396.491
149365,166083,13990,-0.048,-0.942,-0.19,0.427,0.549,0.427,396.495
149365,166061,14146,-0.047,-0.943,-0.189,0.427,0.549,0.427,396.501
149341,166083,13990,-0.049,-0.944,-0.186,-0.122,0.488,0.427,396.505
149341,166038,14136,-0.049,-0.943,-0.19,-0.122,0.488,0.427,396.511
149337,166083,13990,-0.047,-0.942,-0.193,-0.671,0.366,0.244,396.515
149337,166024,14147,-0.049,-0.943,-0.19,-0.671,0.366,0.244,396.521
149323,166083,13990,-0.049,-0.943,-0.19,-0.671,0.366,0.244,396.525
149323,166013,14141,-0.047,-0.945,-0.194,-1.037,0.305,0.122,396.531
149301,166083,13990,-0.047,-0.945,-0.194,-1.037,0.305,0.122,396.534
149301,166022,14150,-0.046,-0.945,-0.2,-1.159,0.305,0.122,396.541
149323,166083,13990,-0.046,-0.945,-0.2,-1.159,0.305,0.122,396.544
149323,166027,14143,-0.045,-0.944,-0.199,-0.915,0.305,0.183,396.55
149325,166083,13990,-0.045,-0.944,-0.199,-0.915,0.305,0.183,396.554
149325,166005,14146,-0.045,-0.944,-0.2,-0.549,0.305,0.183,396.56
149310,166083,13990,-0.045,-0.944,-0.2,-0.549,0.305,0.183,396.564
149310,165982,14142,-0.046,-0.944,-0.199,0,0.305,0.305,396.57
149315,166083,13990,-0.046,-0.944,-0.199,0,0.305,0.305,396.574
149315,166025,14145,-0.044,-0.941,-0.196,0.244,0.427,0.488,396.58
149330,166083,13990,-0.044,-0.941,-0.196,0.244,0.427,0.488,396.584
149330,166019,14146,-0.047,-0.946,-0.195,0.244,0.488,0.427,396.59
149368,166083,13990,-0.047,-0.946,-0.195,0.244,0.488,0.427,396.594
149368,166030,14152,-0.052,-0.944,-0.191,0.427,0.427,0.427,396.6
149354,166083,13990,-0.052,-0.944,-0.191,0.427,0.427,0.427,396.604
149354,166027,14132,-0.047,-0.944,-0.19,0.366,0.366,0.305,396.61
149363,166083,13990,-0.047,-0.944,-0.19,0.366,0.366,0.305,396.614
149363,166024,14158,-0.052,-0.946,-0.19,0,0.488,0.183,396.62
149373,166083,13990,-0.052,-0.946,-0.19,0,0.488,0.183,396.623
149373,166041,14150,-0.047,-0.944,-0.191,-0.366,0.427,0.183,396.63
149352,166083,13990,-0.047,-0.944,-0.191,-0.366,0.427,0.183,396.633
149352,166028,14153,-0.047,-0.943,-0.193,-0.61,0.366,0.061,396.64
149341,166083,13990,-0.047,-0.943,-0.193,-0.61,0.366,0.061,396.643
149341,166016,14126,-0.047,-0.946,-0.204,-1.159,0.366,0.061,396.649
149314,166083,13990,-0.047,-0.946,-0.204,-1.159,0.366,0.061,396.653
149314,166019,14142,-0.046,-0.948,-0.204,-0.732,0.427,0.122,396.659
149357,166083,13990,-0.046,-0.948,-0.204,-0.732,0.427,0.122,396.663
149357,166017,14146,-0.046,-0.945,-0.202,0.183,0.549,0.122,396.669
149369,166083,13990,-0.045,-0.946,-0.198,0.183,0.549,0.122,396.673
149369,166029,14151,-0.048,-0.945,-0.2,0.549,0.61,0.061,396.679
149381,166083,13990,-0.046,-0.942,-0.196,0.549,0.61,0.061,396.683
149381,166040,14145,-0.044,-0.944,-0.196,0.671,0.61,0.061,396.689
149376,166083,13990,-0.043,-0.941,-0.196,0.671,0.61,0.061,396.693
149376,166057,14141,-0.044,-0.943,-0.193,0.671,0.549,0,396.699
149400,166083,13990,-0.045,-0.941,-0.185,0.671,0.549,0,396.703
149400,166050,14151,-0.045,-0.941,-0.188,0.305,0.366,0.183,396.709
149381,166083,13990,-0.046,-0.943,-0.19,0.305,0.366,0.183,396.713
149381,166059,14160,-0.048,-0.945,-0.191,-0.488,0.305,0.366,396.719
149369,166083,13990,-0.047,-0.942,-0.196,-0.488,0.305,0.366,396.723
149369,166041,14147,-0.046,-0.946,-0.201,-1.037,0.183,0.671,396.729
149388,166083,13990,-0.045,-0.945,-0.195,-1.037,0.183,0.671,396.732
149388,166027,14146,-0.048,-0.946,-0.197,-0.915,0.244,0.915,396.739
149374,166083,13990,-0.044,-0.946,-0.201,-0.915,0.244,0.915,396.742
149374,166033,14160,-0.046,-0.945,-0.204,-0.732,0.305,0.793,396.748
149422,166083,13990,-0.05,-0.946,-0.2,-0.732,0.305,0.793,396.752
149422,166069,14162,-0.05,-0.943,-0.197,0.427,0.427,0.61,396.758
149435,166083,13990,-0.05,-0.938,-0.195,0.427,0.427,0.61,396.762
149435,166082,14172,-0.046,-0.938,-0.199,1.037,0.61,0.488,396.768
149456,166083,13990,-0.047,-0.943,-0.196,1.037,0.61,0.488,396.772
149456,166106,14166,-0.047,-0.944,-0.19,1.037,0.732,0.305,396.778
149476,166083,13990,-0.047,-0.941,-0.191,1.037,0.732,0.305,396.782
149476,166087,14172,-0.048,-0.941,-0.182,0.854,0.671,0.305,396.788
149447,166083,13990,-0.046,-0.942,-0.187,0.854,0.671,0.305,396.792
149447,166094,14158,-0.045,-0.942,-0.191,-0.061,0.488,0.244,396.798
149430,166083,13990,-0.044,-0.943,-0.188,-0.061,0.488,0.244,396.802
149430,166066,14156,-0.044,-0.944,-0.186,-1.098,0.305,0.488,396.808
149352,166083,13990,-0.047,-0.948,-0.188,-1.098,0.305,0.488,396.812
149352,166063,14153,-0.045,-0.945,-0.199,-1.585,0.122,0.427,396.818
149326,166083,13990,-0.046,-0.946,-0.209,-1.585,0.122,0.427,396.821
149326,166001,14142,-0.049,-0.947,-0.205,-1.28,0.244,0.427,396.828
149299,166083,13990,-0.048,-0.943,-0.201,-1.28,0.244,0.427,396.831
149299,166007,14145,-0.044,-0.942,-0.196,-0.122,0.366,0.549,396.838
149323,166083,13990,-0.047,-0.945,-0.194,-0.122,0.366,0.549,396.841
149323,165979,14139,-0.048,-0.944,-0.199,0.366,0.427,0.305,396.847
149341,166083,13990,-0.046,-0.943,-0.2,0.366,0.427,0.305,396.851
149341,166013,14133,-0.044,-0.945,-0.193,0.366,0.488,0.183,396.857
149367,166083,13990,-0.045,-0.941,-0.186,0.366,0.488,0.183,396.861
149367,166035,14157,-0.045,-0.941,-0.188,0.366,0.549,0.183,396.867
149396,166083,13990,-0.045,-0.942,-0.187,0.366,0.549,0.183,396.871
149396,166057,14152,-0.043,-0.943,-0.192,-0.366,0.366,0.427,396.877
149424,166083,13990,-0.045,-0.945,-0.193,-0.366,0.366,0.427,396.881
149424,166075,14139,-0.045,-0.946,-0.197,-0.854,0.244,0.61,396.887
149426,166083,13990,-0.047,-0.943,-0.195,-0.854,0.244,0.61,396.891
149426,166044,14148,-0.048,-0.944,-0.194,-0.915,0.122,0.854,396.897
149407,166083,13990,-0.048,-0.943,-0.199,-0.915,0.122,0.854,396.901
149407,166033,14160,-0.046,-0.945,-0.201,-0.793,0.183,0.976,396.907
149381,166083,13990,-0.048,-0.947,-0.196,-0.793,0.183,0.976,396.911
149381,166017,14151,-0.048,-0.947,-0.197,-0.61,0.244,0.854,396.917
149353,166083,13990,-0.052,-0.945,-0.197,-0.61,0.244,0.854,396.921
149353,165978,14142,-0.049,-0.946,-0.199,-0.244,0.305,0.61,396.927
149316,166083,13990,-0.048,-0.941,-0.197,-0.244,0.305,0.61,396.93
149316,165968,14129,-0.047,-0.941,-0.194,-0.305,0.366,0.366,396.937
149350,166083,13990,-0.045,-0.942,-0.194,-0.305,0.366,0.366,396.94
149350,165987,14138,-0.047,-0.943,-0.196,-0.366,0.427,0.122,396.946
149372,166083,13990,-0.046,-0.941,-0.193,-0.366,0.427,0.122,396.95
149372,165999,14145,-0.045,-0.941,-0.196,-0.366,0.366,0,396.956
149422,166083,13990,-0.047,-0.944,-0.193,-0.366,0.366,0,396.96
149422,166051,14152,-0.046,-0.943,-0.194,-0.488,0.366,0.122,396.966
149437,166083,13990,-0.044,-0.945,-0.194,-0.488,0.366,0.122,396.97
149437,166061,14152,-0.043,-0.945,-0.193,-0.732,0.305,0.244,396.976
149443,166083,13990,-0.046,-0.947,-0.196,-0.732,0.305,0.244,396.98
149443,166047,14159,-0.045,-0.946,-0.196,-0.793,0.244,0.427,396.986
149417,166083,13990,-0.045,-0.944,-0.198,-0.793,0.244,0.427,396.99
149417,166042,14134,-0.047,-0.944,-0.194,-0.671,0.244,0.427,396.996
149411,166083,13990,-0.045,-0.943,-0.195,-0.671,0.244,0.427,397
149411,166043,14149,-0.046,-0.946,-0.198,-0.732,0.244,0.488,397.006
149431,166083,13990,-0.047,-0.944,-0.201,-0.732,0.244,0.488,397.01
149431,166028,14140,-0.044,-0.942,-0.195,-0.488,0.244,0.488,397.016
149426,166083,13990,-0.047,-0.942,-0.195,-0.488,0.244,0.488,397.019
149426,166010,14143,-0.048,-0.944,-0.203,-0.183,0.305,0.488,397.026
149469,166083,13990,-0.045,-0.947,-0.2,-0.183,0.305,0.488,397.029
149469,166083,14171,-0.049,-0.943,-0.195,0,0.366,0.488,397.036
149520,166083,13990,-0.045,-0.943,-0.192,0,0.366,0.488,397.039
149520,166081,14158,-0.044,-0.944,-0.196,0.183,0.305,0.549,397.045
149548,166083,13990,-0.046,-0.944,-0.19,0.183,0.305,0.549,397.049
149548,166121,14175,-0.047,-0.944,-0.187,-0.061,0.244,0.671,397.055
149562,166339,13990,-0.046,-0.944,-0.192,-0.061,0.244,0.671,397.059
149562,166155,14166,-0.047,-0.944,-0.196,-0.976,0.183,0.732,397.065
149552,166083,13990,-0.046,-0.946,-0.194,-0.976,0.183,0.732,397.069
149552,166138,14163,-0.049,-0.943,-0.195,-1.402,0.183,0.793,397.075
149539,166083,13990,-0.051,-0.942,-0.193,-1.402,0.183,0.793,397.079
149539,166098,14167,-0.049,-0.944,-0.199,-1.463,0.183,0.854,397.085
149497,166083,13990,-0.049,-0.948,-0.202,-1.463,0.183,0.854,397.089
149497,166088,14150,-0.047,-0.947,-0.203,-1.22,0.183,0.793,397.095
149518,166083,13990,-0.048,-0.944,-0.199,-1.22,0.183,0.793,397.099
149518,166073,14149,-0.048,-0.945,-0.198,-0.305,0.366,0.61,397.105
149481,166083,13990,-0.047,-0.943,-0.203,-0.305,0.366,0.61,397.109
149481,166078,14167,-0.046,-0.946,-0.198,0.305,0.488,0.488,397.115
149509,166083,13990,-0.046,-0.946,-0.198,0.305,0.488,0.488,397.118
149509,166073,14157,-0.046,-0.942,-0.195,0.549,0.488,0.488,397.125
149525,166083,13990,-0.046,-0.942,-0.195,0.549,0.488,0.488,397.128
149525,166112,14159,-0.047,-0.943,-0.192,0.244,0.488,0.427,397.135
149568,166083,13990,-0.047,-0.943,-0.192,0.244,0.488,0.427,397.138
149568,166142,14170,-0.048,-0.944,-0.194,-0.122,0.305,0.305,397.144
149584,166339,13990,-0.048,-0.944,-0.194,-0.122,0.305,0.305,397.148
149584,166153,14172,-0.045,-0.946,-0.195,-0.488,0.244,0.488,397.154
149555,166083,13990,-0.045,-0.946,-0.195,-0.488,0.244,0.488,397.158
149555,166131,14156,-0.048,-0.945,-0.198,-0.854,0.305,0.488,397.164
149539,166083,13990,-0.048,-0.945,-0.198,-0.854,0.305,0.488,397.168
149539,166124,14162,-0.048,-0.945,-0.203,-0.671,0.427,0.488,397.174
149503,166083,13990,-0.048,-0.945,-0.203,-0.671,0.427,0.488,397.178
149503,166110,14168,-0.047,-0.943,-0.195,-0.122,0.427,0.427,397.184
149520,166083,13990,-0.047,-0.943,-0.195,-0.122,0.427,0.427,397.188
149520,166089,14149,-0.046,-0.943,-0.2,0.122,0.427,0.427,397.194
149515,166083,13990,-0.046,-0.943,-0.2,0.122,0.427,0.427,397.198
149515,166116,14154,-0.047,-0.945,-0.197,0.244,0.427,0.427,397.204
149537,166083,13990,-0.047,-0.945,-0.197,0.244,0.427,0.427,397.208
149537,166114,14157,-0.047,-0.942,-0.19,0.244,0.366,0.488,397.214
149545,166083,13990,-0.047,-0.942,-0.19,0.244,0.366,0.488,397.217
149545,166118,14142,-0.048,-0.944,-0.196,-0.366,0.366,0.549,397.224
149557,166083,13990,-0.048,-0.944,-0.196,-0.366,0.366,0.549,397.227
149557,166119,14152,-0.046,-0.942,-0.195,-0.366,0.305,0.671,397.234
149537,166083,13990,-0.046,-0.942,-0.195,-0.366,0.305,0.671,397.237
149537,166103,14166,-0.047,-0.944,-0.197,-0.488,0.244,0.732,397.243
149513,166083,13990,-0.047,-0.944,-0.197,-0.488,0.244,0.732,397.247
149513,166097,14158,-0.047,-0.942,-0.198,-0.427,0.244,0.671,397.253
149528,166083,13990,-0.047,-0.942,-0.198,-0.427,0.244,0.671,397.257
149528,166080,14157,-0.048,-0.944,-0.199,-0.427,0.244,0.671,397.263
149489,166083,13990,-0.049,-0.942,-0.198,-0.061,0.305,0.671,397.267
149489,166069,14155,-0.048,-0.946,-0.198,-0.061,0.305,0.671,397.273
149495,166083,13990,-0.048,-0.945,-0.197,0.305,0.427,0.488,397.277
149495,166069,14160,-0.048,-0.939,-0.195,0.305,0.427,0.488,397.283
149496,166083,13990,-0.049,-0.943,-0.193,0.305,0.61,0.305,397.287
149496,166074,14145,-0.045,-0.943,-0.194,0.305,0.61,0.305,397.293
149479,166083,13990,-0.047,-0.946,-0.195,0.183,0.488,0.366,397.297
149479,166075,14155,-0.051,-0.946,-0.192,0.183,0.488,0.366,397.303
149496,166083,13990,-0.048,-0.943,-0.19,0,0.366,0.366,397.307
149496,166041,14158,-0.048,-0.944,-0.193,0,0.366,0.366,397.313
149523,166083,13990,-0.049,-0.945,-0.193,-0.305,0.305,0.366,397.316
149523,166085,14169,-0.048,-0.947,-0.197,-0.305,0.305,0.366,397.323
149525,166083,13990,-0.047,-0.946,-0.193,-0.427,0.244,0.366,397.326
149525,166088,14164,-0.045,-0.944,-0.187,-0.427,0.244,0.366,397.333
149522,166083,13990,-0.047,-0.942,-0.196,-0.671,0.366,0.305,397.336
149522,166092,14162,-0.05,-0.942,-0.2,-0.671,0.366,0.305,397.342
149488,166083,13990,-0.051,-0.944,-0.198,-0.854,0.366,0.366,397.346
149488,166057,14157,-0.049,-0.948,-0.198,-0.854,0.366,0.366,397.352
149494,166083,13990,-0.049,-0.945,-0.205,-0.732,0.305,0.305,397.356
149494,166046,14149,-0.049,-0.943,-0.2,-0.732,0.305,0.305,397.362
149458,166083,13990,-0.046,-0.942,-0.194,-0.366,0.366,0.366,397.366
149458,166053,14147,-0.047,-0.944,-0.195,-0.366,0.366,0.366,397.372
149450,166083,13990,-0.046,-0.94,-0.202,0,0.427,0.427,397.376
149450,166059,14147,-0.047,-0.945,-0.198,0,0.427,0.427,397.382
149486,166083,13990,-0.048,-0.942,-0.193,0,0.427,0.427,397.386
149486,166072,14131,-0.047,-0.943,-0.194,0,0.427,0.427,397.392
149487,166083,13990,-0.048,-0.942,-0.193,0,0.366,0.427,397.396
149487,166093,14147,-0.046,-0.941,-0.194,0,0.366,0.427,397.402
149519,166083,13990,-0.049,-0.943,-0.194,-0.488,0.305,0.427,397.406
149519,166105,14155,-0.049,-0.946,-0.192,-0.488,0.305,0.427,397.412
149537,166083,13990,-0.048,-0.948,-0.196,-1.037,0.305,0.488,397.415
149537,166106,14144,-0.05,-0.945,-0.196,-1.037,0.305,0.488,397.422
149533,166083,13990,-0.049,-0.946,-0.201,-0.915,0.366,0.488,397.425
149533,166125,14162,-0.05,-0.942,-0.199,-0.915,0.366,0.488,397.432
149535,166083,13990,-0.049,-0.94,-0.201,-0.732,0.366,0.549,397.435
149535,166106,14150,-0.049,-0.945,-0.203,-0.732,0.366,0.549,397.441
149529,166083,13990,-0.049,-0.945,-0.203,-0.61,0.427,0.488,397.445
149529,166138,14160,-0.051,-0.941,-0.2,-0.61,0.427,0.488,397.451
149548,166083,13990,-0.048,-0.941,-0.2,0.061,0.305,0.305,397.455
149548,166141,14140,-0.047,-0.94,-0.2,0.061,0.305,0.305,397.461
149574,166339,13990,-0.047,-0.942,-0.198,0.366,0.488,0.244,397.465
149574,166145,14168,-0.047,-0.941,-0.194,0.366,0.488,0.244,397.471
149596,166339,13990,-0.044,-0.943,-0.194,0.427,0.427,0.305,397.475
149596,166161,14165,-0.046,-0.943,-0.194,0.427,0.427,0.305,397.481
149602,166083,13990,-0.047,-0.944,-0.191,0.244,0.427,0.366,397.485
149602,166137,14157,-0.047,-0.943,-0.192,0.244,0.427,0.366,397.491
149620,166339,13990,-0.048,-0.943,-0.194,-0.061,0.427,0.488,397.495
149620,166161,14170,-0.048,-0.945,-0.198,-0.061,0.427,0.488,397.501
149619,166339,13990,-0.046,-0.944,-0.195,-0.244,0.427,0.488,397.505
149619,166152,14166,-0.048,-0.944,-0.196,-0.244,0.427,0.488,397.511
149590,166083,13990,-0.051,-0.943,-0.197,-0.244,0.427,0.549,397.514
149590,166130,14175,-0.051,-0.942,-0.192,-0.244,0.427,0.549,397.521
149617,166339,13990,-0.049,-0.946,-0.193,-0.305,0.427,0.488,397.524
149617,166154,14165,-0.051,-0.941,-0.194,-0.305,0.427,0.488,397.531
149588,166339,13990,-0.051,-0.943,-0.194,-0.488,0.366,0.366,397.534
149588,166184,14165,-0.05,-0.944,-0.195,-0.488,0.366,0.366,397.54
149624,166339,13990,-0.046,-0.945,-0.196,-0.976,0.305,0.305,397.544
149624,166157,14158,-0.043,-0.945,-0.201,-0.976,0.305,0.305,397.55
149664,166339,13990,-0.045,-0.943,-0.201,-1.037,0.244,0.244,397.554
149664,166195,14161,-0.048,-0.946,-0.196,-1.037,0.244,0.244,397.56
149665,166339,13990,-0.048,-0.941,-0.202,-0.488,0.366,0.366,397.564
149665,166243,14167,-0.045,-0.942,-0.2,-0.488,0.366,0.366,397.57
149688,166339,13990,-0.044,-0.945,-0.199,-0.183,0.305,0.366,397.574
149688,166228,14171,-0.049,-0.943,-0.203,-0.183,0.305,0.366,397.58
149683,166339,13990,-0.048,-0.943,-0.202,-0.122,0.427,0.427,397.584
149683,166242,14166,-0.049,-0.944,-0.195,-0.122,0.427,0.427,397.59
149696,166339,13990,-0.049,-0.94,-0.195,0.122,0.427,0.366,397.594
149696,166216,14164,-0.051,-0.94,-0.194,0.122,0.427,0.366,397.6
149665,166339,13990,-0.052,-0.943,-0.195,-0.061,0.427,0.305,397.604
149665,166210,14179,-0.052,-0.943,-0.195,-0.061,0.427,0.305,397.61
149662,166339,13990,-0.049,-0.944,-0.2,-0.366,0.427,0.122,397.613
149662,166173,14169,-0.046,-0.946,-0.197,-0.366,0.427,0.122,397.62
149630,166339,13990,-0.048,-0.944,-0.197,-0.427,0.427,0.122,397.623
149630,166169,14156,-0.048,-0.947,-0.195,-0.427,0.427,0.122,397.63
149616,166339,13990,-0.048,-0.944,-0.198,-0.244,0.366,0.244,397.633
149616,166166,14162,-0.048,-0.942,-0.196,-0.244,0.366,0.244,397.639
149620,166339,13990,-0.045,-0.945,-0.196,0,0.305,0.305,397.643
149620,166153,14165,-0.047,-0.943,-0.196,0,0.305,0.305,397.649
149627,166339,13990,-0.048,-0.944,-0.198,-0.122,0.488,0.305,397.653
149627,166169,14165,-0.044,-0.942,-0.2,-0.122,0.488,0.305,397.659
149637,166339,13990,-0.047,-0.939,-0.196,0.061,0.549,0.305,397.663
149637,166177,14163,-0.05,-0.944,-0.196,0.061,0.549,0.305,397.669
149630,166339,13990,-0.05,-0.941,-0.196,0,0.488,0.488,397.673
149630,166155,14155,-0.049,-0.944,-0.191,0,0.488,0.488,397.679
149611,166339,13990,-0.048,-0.943,-0.196,-0.488,0.488,0.488,397.683
149611,166158,14171,-0.048,-0.945,-0.196,-0.488,0.488,0.488,397.689
149583,166083,13990,-0.048,-0.947,-0.197,-0.671,0.366,0.427,397.693
149583,166132,14138,-0.051,-0.943,-0.198,-0.671,0.366,0.427,397.699
149559,166083,13990,-0.051,-0.943,-0.198,-0.671,0.366,0.427,397.703
149559,166127,14167,-0.046,-0.941,-0.196,-0.488,0.366,0.366,397.709
149572,166083,13990,-0.046,-0.941,-0.196,-0.488,0.366,0.366,397.713
149572,166104,14159,-0.048,-0.944,-0.203,-0.549,0.305,0.366,397.719
149554,166083,13990,-0.048,-0.944,-0.203,-0.549,0.305,0.366,397.722
149554,166110,14169,-0.046,-0.945,-0.195,-0.427,0.366,0.305,397.729
149602,166083,13990,-0.046,-0.945,-0.195,-0.427,0.366,0.305,397.732
149602,166127,14154,-0.047,-0.943,-0.195,0.183,0.305,0.366,397.738
149586,166339,13990,-0.047,-0.943,-0.195,0.183,0.305,0.366,397.742
149586,166152,14164,-0.044,-0.947,-0.199,0,0.366,0.427,397.748
149600,166083,13990,-0.044,-0.947,-0.199,0,0.366,0.427,397.752
149600,166130,14169,-0.048,-0.94,-0.199,0.183,0.427,0.488,397.758
149614,166083,13990,-0.048,-0.94,-0.199,0.183,0.427,0.488,397.762
149614,166119,14184,-0.047,-0.944,-0.196,0.427,0.488,0.61,397.768
149646,166339,13990,-0.047,-0.944,-0.196,0.427,0.488,0.61,397.772
149646,166167,14166,-0.05,-0.942,-0.185,0.427,0.427,0.671,397.778
149648,166339,13990,-0.05,-0.942,-0.185,0.427,0.427,0.671,397.782
149648,166168,14158,-0.047,-0.945,-0.197,-0.244,0.244,0.61,397.788
149628,166339,13990,-0.047,-0.945,-0.197,-0.244,0.244,0.61,397.792
149628,166146,14160,-0.05,-0.942,-0.193,-1.159,0.244,0.61,397.798
149609,166339,13990,-0.05,-0.942,-0.193,-1.159,0.244,0.61,397.802
149609,166152,14175,-0.05,-0.946,-0.196,-1.098,0.122,0.549,397.808
149593,166083,13990,-0.05,-0.946,-0.196,-1.098,0.122,0.549,397.812
149593,166141,14163,-0.047,-0.948,-0.205,-1.037,0.244,0.427,397.818
149548,166083,13990,-0.047,-0.948,-0.205,-1.037,0.244,0.427,397.821
149548,166095,14168,-0.049,-0.945,-0.198,-0.488,0.305,0.366,397.828
149514,166083,13990,-0.049,-0.945,-0.198,-0.488,0.305,0.366,397.831
149514,166107,14155,-0.05,-0.946,-0.202,-0.244,0.427,0.183,397.837
149547,166083,13990,-0.05,-0.946,-0.202,-0.244,0.427,0.183,397.841
149547,166072,14148,-0.046,-0.942,-0.196,-0.061,0.488,0,397.847
149518,166083,13990,-0.046,-0.941,-0.197,-0.061,0.488,0,397.851
149518,166083,14142,-0.047,-0.943,-0.194,0.183,0.488,0,397.857
149541,166083,13990,-0.048,-0.944,-0.194,0.183,0.488,0,397.861
149541,166090,14159,-0.05,-0.943,-0.197,-0.244,0.366,0,397.867
149520,166083,13990,-0.047,-0.948,-0.197,-0.244,0.366,0,397.871
149520,166056,14139,-0.048,-0.946,-0.197,-0.671,0.366,0.061,397.877
149534,166083,13990,-0.045,-0.942,-0.198,-0.671,0.366,0.061,397.881
149534,166076,14150,-0.046,-0.943,-0.199,-0.61,0.305,0.183,397.887
149504,166083,13990,-0.048,-0.944,-0.2,-0.61,0.305,0.183,397.891
149504,166058,14143,-0.047,-0.942,-0.193,-0.427,0.305,0.366,397.897
149512,166083,13990,-0.049,-0.943,-0.19,-0.427,0.305,0.366,397.901
149512,166074,14133,-0.048,-0.943,-0.195,-0.305,0.305,0.549,397.907
149496,166083,13990,-0.05,-0.942,-0.199,-0.305,0.305,0.549,397.911
149496,166062,14150,-0.048,-0.946,-0.2,-0.488,0.305,0.549,397.917
149500,166083,13990,-0.048,-0.945,-0.2,-0.488,0.305,0.549,397.92
149500,166085,14138,-0.05,-0.945,-0.199,-0.061,0.366,0.488,397.927
149531,166083,13990,-0.051,-0.944,-0.202,-0.061,0.366,0.488,397.93
149531,166062,14145,-0.049,-0.941,-0.201,0.671,0.427,0.366,397.936
149538,166083,13990,-0.046,-0.943,-0.196,0.671,0.427,0.366,397.94
149538,166081,14165,-0.049,-0.944,-0.193,1.098,0.488,0.427,397.946
149532,166083,13990,-0.047,-0.939,-0.193,1.098,0.488,0.427,397.95
149532,166075,14156,-0.046,-0.94,-0.191,0.61,0.488,0.244,397.956
149510,166083,13990,-0.048,-0.942,-0.193,0.61,0.488,0.244,397.96
149510,166074,14142,-0.048,-0.943,-0.192,0,0.427,0.244,397.966
149492,166083,13990,-0.049,-0.945,-0.193,0,0.427,0.244,397.97
149492,166014,14143,-0.048,-0.943,-0.197,-0.366,0.305,0.305,397.976
149468,166083,13990,-0.047,-0.946,-0.2,-0.366,0.305,0.305,397.98
149468,166031,14136,-0.047,-0.944,-0.199,-0.183,0.305,0.305,397.986
149451,166083,13990,-0.047,-0.938,-0.194,-0.183,0.305,0.305,397.99
