149327,165571,13990,-0.049,-0.943,-0.191,0.671,0.549,0.305,402.772
149327,165590,14158,-0.048,-0.945,-0.188,0.488,0.61,0.122,402.778
149309,165571,13990,-0.05,-0.945,-0.192,0.488,0.61,0.122,402.781
149309,165597,14153,-0.047,-0.946,-0.196,0.244,0.549,0,402.788
149317,165571,13990,-0.046,-0.942,-0.189,0.244,0.549,0,402.791
149317,165582,14159,-0.047,-0.941,-0.189,0.061,0.427,0.061,402.798
149282,165571,13990,-0.045,-0.945,-0.192,0.061,0.427,0.061,402.801
149282,165576,14169,-0.046,-0.944,-0.197,-0.305,0.366,0.244,402.807
149347,165571,13990,-0.046,-0.943,-0.198,-0.305,0.366,0.244,402.811
149347,165609,14154,-0.044,-0.944,-0.193,-0.427,0.305,0.488,402.817
149336,165571,13990,-0.044,-0.945,-0.198,-0.427,0.305,0.488,402.821
149336,165624,14165,-0.047,-0.944,-0.203,-0.366,0.366,0.549,402.827
149344,165571,13990,-0.049,-0.945,-0.198,-0.366,0.366,0.549,402.831
149344,165617,14158,-0.049,-0.943,-0.196,0.061,0.366,0.549,402.837
149346,165571,13990,-0.049,-0.948,-0.198,0.061,0.366,0.549,402.841
149346,165609,14150,-0.048,-0.945,-0.198,0.244,0.427,0.488,402.847
149330,165571,13990,-0.045,-0.942,-0.198,0.244,0.427,0.488,402.851
149330,165609,14166,-0.049,-0.941,-0.196,0.488,0.427,0.305,402.857
149336,165571,13990,-0.051,-0.942,-0.19,0.488,0.427,0.305,402.861
149336,165607,14144,-0.048,-0.943,-0.19,0.488,0.549,0.183,402.867
149315,165571,13990,-0.047,-0.943,-0.194,0.488,0.549,0.183,402.871
149315,165606,14147,-0.045,-0.945,-0.194,0.305,0.488,0.244,402.877
149332,165571,13990,-0.043,-0.943,-0.194,0.305,0.488,0.244,402.88
149332,165585,14154,-0.045,-0.945,-0.19,0.244,0.366,0.488,402.887
149337,165571,13990,-0.044,-0.945,-0.192,0.244,0.366,0.488,402.89
149337,165601,14167,-0.045,-0.942,-0.187,0,0.366,0.732,402.897
149357,165571,13990,-0.048,-0.943,-0.195,0,0.366,0.732,402.9
149357,165597,14163,-0.048,-0.946,-0.2,-0.366,0.305,0.854,402.906
149349,165571,13990,-0.048,-0.947,-0.193,-0.366,0.305,0.854,402.91
149349,165631,14164,-0.05,-0.944,-0.193,-0.122,0.366,0.854,402.916
149348,165571,13990,-0.05,-0.943,-0.194,-0.122,0.366,0.854,402.92
149348,165568,14162,-0.052,-0.941,-0.191,0,0.488,0.793,402.926
149322,165571,13990,-0.053,-0.943,-0.193,0,0.488,0.793,402.93
149322,165559,14167,-0.05,-0.947,-0.196,-0.244,0.427,0.427,402.936
149294,165571,13990,-0.051,-0.944,-0.195,-0.244,0.427,0.427,402.94
149294,165537,14134,-0.051,-0.943,-0.191,-0.061,0.427,0.122,402.946
149290,165571,13990,-0.05,-0.942,-0.194,-0.061,0.427,0.122,402.95
149290,165520,14139,-0.048,-0.943,-0.192,-0.122,0.427,0.122,402.956
149285,165571,13990,-0.044,-0.947,-0.198,-0.122,0.427,0.122,402.96
149285,165542,14151,-0.045,-0.946,-0.202,-0.366,0.366,0.122,402.966
149333,165571,13990,-0.047,-0.946,-0.2,-0.366,0.366,0.122,402.97
149333,165550,14155,-0.044,-0.944,-0.202,0.366,0.427,0.244,402.976
149336,165571,13990,-0.041,-0.945,-0.197,0.366,0.427,0.244,402.979
149336,165598,14174,-0.044,-0.943,-0.196,0.854,0.366,0.549,402.986
149365,165571,13990,-0.045,-0.943,-0.194,0.854,0.366,0.549,402.989
149365,165607,14160,-0.047,-0.942,-0.193,0.793,0.366,0.793,402.996
149374,165571,13990,-0.043,-0.942,-0.197,0.793,0.366,0.793,402.999
149374,165610,14151,-0.05,-0.944,-0.192,0.793,0.488,0.915,403.005
149375,165571,13990,-0.05,-0.942,-0.189,0.793,0.488,0.915,403.009
149375,165585,14151,-0.051,-0.94,-0.188,0.61,0.488,0.732,403.015
149363,165571,13990,-0.051,-0.94,-0.188,0.61,0.488,0.732,403.019
149363,165579,14163,-0.049,-0.943,-0.185,0.183,0.305,0.427,403.025
149369,165571,13990,-0.049,-0.943,-0.185,0.183,0.305,0.427,403.029
149369,165580,14160,-0.05,-0.946,-0.188,-0.244,0.305,0.305,403.035
149399,165571,13990,-0.05,-0.946,-0.188,-0.244,0.305,0.305,403.039
149399,165606,14176,-0.047,-0.943,-0.193,-0.671,0.305,0.183,403.045
149436,165827,13990,-0.047,-0.943,-0.193,-0.671,0.305,0.183,403.049
149436,165670,14168,-0.045,-0.946,-0.198,-0.793,0.305,0.305,403.055
149454,165827,13990,-0.045,-0.946,-0.198,-0.793,0.305,0.305,403.059
149454,165669,14181,-0.045,-0.943,-0.193,-0.488,0.244,0.549,403.065
149470,165827,13990,-0.045,-0.943,-0.193,-0.488,0.244,0.549,403.069
149470,165681,14181,-0.045,-0.946,-0.196,-0.305,0.366,0.549,403.075
149458,165827,13990,-0.045,-0.946,-0.196,-0.305,0.366,0.549,403.078
149458,165675,14176,-0.05,-0.943,-0.195,-0.427,0.427,0.488,403.085
149475,165827,13990,-0.05,-0.943,-0.195,-0.427,0.427,0.488,403.088
149475,165684,14171,-0.048,-0.942,-0.192,-0.305,0.366,0.549,403.095
149477,165827,13990,-0.048,-0.942,-0.192,-0.305,0.366,0.549,403.098
149477,165672,14165,-0.052,-0.943,-0.19,-0.366,0.366,0.305,403.104
149451,165827,13990,-0.052,-0.943,-0.19,-0.366,0.366,0.305,403.108
149451,165664,14191,-0.049,-0.944,-0.2,-0.488,0.366,0.122,403.114
149480,165827,13990,-0.049,-0.944,-0.2,-0.488,0.366,0.122,403.118
149480,165674,14176,-0.046,-0.945,-0.196,-0.305,0.366,0.061,403.124
149484,165827,13990,-0.046,-0.945,-0.196,-0.305,0.366,0.061,403.128
149484,165668,14175,-0.045,-0.942,-0.195,0.122,0.305,0.122,403.134
149515,165827,13990,-0.045,-0.942,-0.195,0.122,0.305,0.122,403.138
149515,165697,14182,-0.044,-0.946,-0.192,0.427,0.366,0.305,403.144
149545,165827,13990,-0.044,-0.946,-0.192,0.427,0.366,0.305,403.148
149545,165728,14182,-0.047,-0.948,-0.189,0.427,0.366,0.61,403.154
149549,165827,13990,-0.047,-0.948,-0.189,0.427,0.366,0.61,403.158
149549,165727,14183,-0.045,-0.941,-0.192,0.427,0.366,0.61,403.164
149552,165827,13990,-0.045,-0.942,-0.192,0.061,0.244,0.915,403.168
149552,165730,14188,-0.049,-0.942,-0.195,0.061,0.244,0.915,403.174
149556,165827,13990,-0.047,-0.939,-0.191,-0.244,0.305,0.976,403.177
149556,165738,14187,-0.049,-0.942,-0.193,-0.244,0.305,0.976,403.184
149548,165827,13990,-0.052,-0.943,-0.199,-0.488,0.244,0.854,403.187
149548,165743,14196,-0.053,-0.944,-0.197,-0.488,0.244,0.854,403.194
149540,165827,13990,-0.05,-0.944,-0.194,-0.671,0.305,0.549,403.197
149540,165747,14182,-0.052,-0.943,-0.193,-0.671,0.305,0.549,403.203
149547,165827,13990,-0.052,-0.946,-0.193,-0.61,0.427,0.305,403.207
149547,165717,14187,-0.052,-0.947,-0.192,-0.61,0.427,0.305,403.213
149543,165827,13990,-0.051,-0.947,-0.189,-0.732,0.305,0.244,403.217
149543,165713,14192,-0.045,-0.946,-0.192,-0.732,0.305,0.244,403.223
149540,165827,13990,-0.047,-0.944,-0.194,-0.793,0.427,0.183,403.227
149540,165739,14184,-0.047,-0.943,-0.194,-0.793,0.427,0.183,403.233
149562,165827,13990,-0.046,-0.947,-0.193,-0.854,0.305,0.427,403.237
149562,165731,14189,-0.045,-0.943,-0.196,-0.854,0.305,0.427,403.243
149565,165827,13990,-0.043,-0.942,-0.197,-0.732,0.183,0.793,403.247
149565,165731,14209,-0.047,-0.944,-0.198,-0.732,0.183,0.793,403.253
149578,165827,13990,-0.047,-0.944,-0.196,-0.549,0.183,1.037,403.257
149578,165759,14194,-0.047,-0.943,-0.197,-0.549,0.183,1.037,403.263
149638,165827,13990,-0.049,-0.945,-0.194,-0.488,0.183,1.159,403.267
149638,165775,14190,-0.047,-0.943,-0.195,-0.488,0.183,1.159,403.273
149668,165827,13990,-0.052,-0.944,-0.195,-0.671,0.305,1.159,403.276
149668,165839,14196,-0.05,-0.941,-0.192,-0.671,0.305,1.159,403.283
149687,165827,13990,-0.05,-0.943,-0.192,-0.671,0.244,0.793,403.286
149687,165869,14212,-0.052,-0.946,-0.195,-0.671,0.244,0.793,403.293
149708,165827,13990,-0.052,-0.944,-0.203,-0.732,0.244,0.488,403.296
149708,165849,14229,-0.049,-0.946,-0.203,-0.732,0.244,0.488,403.302
149714,165827,13990,-0.048,-0.947,-0.197,0.061,0.366,0.305,403.306
149714,165873,14214,-0.049,-0.944,-0.197,0.061,0.366,0.305,403.312
149695,165827,13990,-0.049,-0.943,-0.192,0.854,0.427,0.305,403.316
149695,165842,14214,-0.047,-0.946,-0.193,0.854,0.427,0.305,403.322
149677,165827,13990,-0.045,-0.946,-0.188,0.793,0.366,0.488,403.326
149677,165832,14194,-0.048,-0.943,-0.181,0.793,0.366,0.488,403.332
149665,165827,13990,-0.047,-0.943,-0.186,0.061,0.305,0.549,403.336
149665,165799,14210,-0.045,-0.942,-0.189,0.061,0.305,0.549,403.342
149661,165827,13990,-0.047,-0.943,-0.192,-0.915,0.244,0.854,403.346
149661,165831,14204,-0.048,-0.942,-0.19,-0.915,0.244,0.854,403.352
149688,165827,13990,-0.049,-0.943,-0.187,-1.524,0.183,0.976,403.356
149688,165834,14207,-0.051,-0.943,-0.194,-1.524,0.183,0.976,403.362
149705,165827,13990,-0.052,-0.944,-0.199,-2.012,0.061,1.037,403.366
149705,165886,14196,-0.051,-0.942,-0.2,-2.012,0.061,1.037,403.372
149709,165827,13990,-0.051,-0.945,-0.199,-1.646,0.122,0.854,403.375
149709,165881,14219,-0.053,-0.943,-0.199,-1.646,0.122,0.854,403.382
149706,165827,13990,-0.052,-0.941,-0.201,-1.037,0.183,0.488,403.385
149706,165839,14210,-0.053,-0.943,-0.198,-1.037,0.183,0.488,403.391
149713,165827,13990,-0.05,-0.943,-0.197,-0.549,0.305,0.244,403.395
149713,165845,14200,-0.051,-0.944,-0.194,-0.549,0.305,0.244,403.401
149693,165827,13990,-0.05,-0.945,-0.196,-0.366,0.488,0.122,403.405
149693,165822,14218,-0.047,-0.941,-0.197,-0.366,0.488,0.122,403.411
149690,165827,13990,-0.047,-0.942,-0.195,-0.061,0.488,0,403.415
149690,165851,14211,-0.045,-0.946,-0.194,-0.061,0.488,0,403.421
149744,165827,13990,-0.044,-0.947,-0.196,-0.183,0.366,0.183,403.425
149744,165852,14207,-0.046,-0.941,-0.197,-0.183,0.366,0.183,403.431
149777,166083,13990,-0.047,-0.941,-0.192,-0.183,0.366,0.366,403.435
149777,165889,14223,-0.045,-0.946,-0.197,-0.183,0.366,0.366,403.441
149786,166083,13990,-0.05,-0.945,-0.198,-0.122,0.305,0.671,403.445
149786,165923,14223,-0.049,-0.943,-0.196,-0.122,0.305,0.671,403.451
149787,166083,13990,-0.05,-0.944,-0.198,-0.244,0.305,0.671,403.455
149787,165907,14220,-0.05,-0.946,-0.201,-0.244,0.305,0.671,403.461
149788,165827,13990,-0.051,-0.944,-0.196,-0.061,0.305,0.488,403.465
149788,165887,14209,-0.051,-0.941,-0.192,-0.061,0.305,0.488,403.471
149752,166083,13990,-0.053,-0.942,-0.194,0.122,0.427,0.427,403.474
149752,165889,14239,-0.052,-0.944,-0.197,0.122,0.427,0.427,403.481
149750,165827,13990,-0.051,-0.945,-0.199,0.183,0.427,0.366,403.484
149750,165872,14208,-0.051,-0.943,-0.192,0.183,0.427,0.366,403.491
149711,165827,13990,-0.05,-0.941,-0.194,0.244,0.427,0.122,403.494
149711,165852,14208,-0.05,-0.943,-0.193,0.244,0.427,0.122,403.5
149718,165827,13990,-0.046,-0.947,-0.193,0.183,0.427,0.122,403.504
149718,165850,14196,-0.05,-0.945,-0.195,0.183,0.427,0.122,403.51
149693,165827,13990,-0.052,-0.944,-0.196,-0.061,0.488,0.183,403.514
149693,165835,14206,-0.049,-0.947,-0.197,-0.061,0.488,0.183,403.52
149685,165827,13990,-0.043,-0.946,-0.195,0,0.488,0.183,403.524
149685,165850,14204,-0.046,-0.943,-0.19,0,0.488,0.183,403.53
149669,165827,13990,-0.046,-0.946,-0.196,0,0.427,0.366,403.534
149669,165851,14214,-0.048,-0.942,-0.193,0,0.427,0.366,403.54
149701,165827,13990,-0.051,-0.94,-0.19,-0.122,0.366,0.427,403.544
149701,165851,14205,-0.05,-0.944,-0.189,-0.122,0.366,0.427,403.55
149689,165827,13990,-0.05,-0.944,-0.195,-0.244,0.305,0.488,403.554
149689,165824,14214,-0.051,-0.943,-0.194,-0.244,0.305,0.488,403.56
149701,165827,13990,-0.047,-0.942,-0.195,-0.366,0.427,0.488,403.564
149701,165847,14207,-0.048,-0.941,-0.193,-0.366,0.427,0.488,403.57
149679,165827,13990,-0.049,-0.941,-0.193,-0.366,0.305,0.488,403.573
149679,165815,14213,-0.051,-0.945,-0.193,-0.366,0.305,0.488,403.58
149664,165827,13990,-0.047,-0.944,-0.196,-0.671,0.366,0.427,403.583
149664,165835,14184,-0.048,-0.943,-0.194,-0.671,0.366,0.427,403.59
149697,165827,13990,-0.05,-0.946,-0.198,-0.488,0.366,0.488,403.593
149697,165842,14207,-0.048,-0.946,-0.2,-0.488,0.366,0.488,403.599
149706,165827,13990,-0.048,-0.946,-0.2,-0.488,0.366,0.488,403.603
149706,165872,14222,-0.046,-0.945,-0.193,-0.183,0.427,0.549,403.609
149718,165827,13990,-0.046,-0.945,-0.193,-0.183,0.427,0.549,403.613
149718,165873,14199,-0.05,-0.943,-0.193,0.122,0.305,0.671,403.619
149700,165827,13990,-0.05,-0.943,-0.193,0.122,0.305,0.671,403.623
149700,165834,14215,-0.048,-0.946,-0.201,-0.061,0.427,0.793,403.629
149697,165827,13990,-0.048,-0.946,-0.201,-0.061,0.427,0.793,403.633
149697,165844,14210,-0.05,-0.937,-0.19,0.122,0.427,0.793,403.639
149669,165827,13990,-0.05,-0.937,-0.19,0.122,0.427,0.793,403.643
149669,165803,14204,-0.053,-0.941,-0.189,0.061,0.366,0.671,403.649
149640,165827,13990,-0.053,-0.941,-0.189,0.061,0.366,0.671,403.653
149640,165808,14196,-0.051,-0.943,-0.194,-0.488,0.427,0.488,403.659
149626,165827,13990,-0.051,-0.943,-0.194,-0.488,0.427,0.488,403.663
149626,165772,14199,-0.05,-0.943,-0.196,-0.854,0.427,0.244,403.669
149615,165827,13990,-0.05,-0.943,-0.196,-0.854,0.427,0.244,403.672
149615,165761,14189,-0.049,-0.945,-0.199,-0.732,0.305,0.244,403.679
149608,165827,13990,-0.049,-0.945,-0.199,-0.732,0.305,0.244,403.682
149608,165746,14199,-0.048,-0.944,-0.197,-0.671,0.366,0.305,403.688
149633,165827,13990,-0.048,-0.944,-0.197,-0.671,0.366,0.305,403.692
149633,165746,14195,-0.048,-0.945,-0.194,-0.061,0.366,0.427,403.698
149629,165827,13990,-0.048,-0.945,-0.194,-0.061,0.366,0.427,403.702
149629,165762,14195,-0.047,-0.943,-0.2,0.305,0.366,0.549,403.708
149641,165827,13990,-0.047,-0.943,-0.2,0.305,0.366,0.549,403.712
149641,165794,14201,-0.05,-0.943,-0.193,0.549,0.488,0.549,403.718
149672,165827,13990,-0.05,-0.943,-0.193,0.549,0.488,0.549,403.722
149672,165801,14221,-0.049,-0.94,-0.19,0.793,0.488,0.793,403.728
149672,165827,13990,-0.049,-0.94,-0.19,0.793,0.488,0.793,403.732
149672,165827,14214,-0.052,-0.941,-0.186,0.244,0.366,0.793,403.738
149700,165827,13990,-0.052,-0.941,-0.186,0.244,0.366,0.793,403.742
149700,165840,14200,-0.052,-0.943,-0.195,-0.732,0.366,0.549,403.748
149707,165827,13990,-0.051,-0.943,-0.188,-0.732,0.366,0.549,403.752
149707,165834,14224,-0.049,-0.941,-0.196,-1.463,0.305,0.427,403.758
149716,165827,13990,-0.049,-0.944,-0.195,-1.463,0.305,0.427,403.762
149716,165817,14210,-0.051,-0.943,-0.195,-1.524,0.244,0.366,403.768
149717,165827,13990,-0.051,-0.945,-0.2,-1.524,0.244,0.366,403.771
149717,165840,14212,-0.05,-0.949,-0.202,-1.341,0.305,0.305,403.778
149699,165827,13990,-0.047,-0.947,-0.204,-1.341,0.305,0.305,403.781
149699,165847,14203,-0.048,-0.943,-0.199,-0.61,0.427,0.366,403.788
149722,165827,13990,-0.047,-0.941,-0.199,-0.61,0.427,0.366,403.791
149722,165856,14217,-0.05,-0.943,-0.198,0.244,0.427,0.549,403.797
149743,165827,13990,-0.051,-0.941,-0.197,0.244,0.427,0.549,403.801
149743,165829,14229,-0.051,-0.943,-0.194,0.549,0.366,0.61,403.807
149746,165827,13990,-0.049,-0.943,-0.192,0.549,0.366,0.61,403.811
149746,165886,14229,-0.052,-0.942,-0.191,0.305,0.427,0.61,403.817
149789,166083,13990,-0.049,-0.943,-0.197,0.305,0.427,0.61,403.821
149789,165907,14219,-0.05,-0.94,-0.195,-0.366,0.366,0.488,403.827
149777,166083,13990,-0.051,-0.942,-0.194,-0.366,0.366,0.488,403.831
149777,165892,14228,-0.053,-0.943,-0.196,-0.61,0.366,0.244,403.837
149802,166083,13990,-0.052,-0.946,-0.193,-0.61,0.366,0.244,403.841
149802,165908,14217,-0.052,-0.943,-0.197,-0.732,0.488,0.122,403.847
149774,166083,13990,-0.05,-0.943,-0.198,-0.732,0.488,0.122,403.851
149774,165908,14227,-0.049,-0.947,-0.2,-0.488,0.366,0.061,403.857
149781,165827,13990,-0.049,-0.945,-0.199,-0.488,0.366,0.061,403.861
149781,165884,14215,-0.049,-0.945,-0.196,-0.061,0.427,0.061,403.867
149749,166083,13990,-0.05,-0.943,-0.197,-0.061,0.427,0.061,403.87
149749,165913,14231,-0.049,-0.943,-0.195,0.183,0.488,0.122,403.877
149782,166083,13990,-0.044,-0.942,-0.194,0.183,0.488,0.122,403.88
149782,165893,14223,-0.047,-0.945,-0.193,0.244,0.427,0.244,403.886
149791,166083,13990,-0.047,-0.942,-0.195,0.244,0.427,0.244,403.89
149791,165888,14217,-0.047,-0.941,-0.196,-0.183,0.427,0.488,403.896
149783,166083,13990,-0.05,-0.947,-0.194,-0.183,0.427,0.488,403.9
149783,165911,14231,-0.051,-0.942,-0.195,-0.488,0.366,0.488,403.906
149835,166083,13990,-0.049,-0.943,-0.191,-0.488,0.366,0.488,403.91
149835,165957,14240,-0.049,-0.943,-0.195,-0.732,0.366,0.427,403.916
149831,166083,13990,-0.052,-0.943,-0.202,-0.732,0.366,0.427,403.92
149831,165973,14226,-0.052,-0.943,-0.202,-0.732,0.366,0.305,403.926
149837,166083,13990,-0.051,-0.941,-0.195,-0.732,0.366,0.305,403.93
149837,165933,14228,-0.054,-0.94,-0.192,-0.061,0.427,0.122,403.936
149816,166083,13990,-0.053,-0.942,-0.191,-0.061,0.427,0.122,403.94
149816,165933,14231,-0.056,-0.943,-0.192,0.122,0.427,-0.122,403.946
149792,166083,13990,-0.051,-0.944,-0.19,0.122,0.427,-0.122,403.95
149792,165945,14232,-0.05,-0.943,-0.192,0.061,0.549,-0.305,403.956
149806,166083,13990,-0.051,-0.944,-0.19,0.061,0.549,-0.305,403.96
149806,165928,14232,-0.048,-0.946,-0.191,0.183,0.488,-0.366,403.966
149815,166083,13990,-0.047,-0.942,-0.19,0.183,0.488,-0.366,403.969
149815,165938,14217,-0.043,-0.943,-0.196,-0.305,0.427,-0.305,403.976
149823,166083,13990,-0.045,-0.95,-0.201,-0.305,0.427,-0.305,403.979
149823,165950,14238,-0.044,-0.947,-0.201,-0.61,0.366,-0.183,403.985
149856,166083,13990,-0.044,-0.945,-0.198,-0.61,0.366,-0.183,403.989
149856,165981,14243,-0.043,-0.943,-0.196,-0.488,0.427,0.122,403.995
149891,166083,13990,-0.046,-0.941,-0.195,-0.488,0.427,0.122,403.999
149891,165994,14245,-0.048,-0.943,-0.199,-0.488,0.366,0.488,404.005
149886,166083,13990,-0.048,-0.94,-0.198,-0.488,0.366,0.488,404.009
149886,165999,14230,-0.048,-0.943,-0.197,-0.305,0.366,0.427,404.015
149900,166083,13990,-0.049,-0.945,-0.197,-0.305,0.366,0.427,404.019
149900,166000,14225,-0.052,-0.943,-0.193,-0.183,0.305,0.366,404.025
149844,166083,13990,-0.05,-0.944,-0.196,-0.183,0.305,0.366,404.029
149844,165963,14235,-0.049,-0.944,-0.196,-0.366,0.366,0.305,404.035
149798,166083,13990,-0.052,-0.946,-0.195,-0.366,0.366,0.305,404.039
149798,165958,14226,-0.052,-0.946,-0.197,-0.183,0.427,0.183,404.045
149790,166083,13990,-0.05,-0.944,-0.195,-0.183,0.427,0.183,404.049
149790,165906,14230,-0.05,-0.943,-0.198,0.122,0.427,0.244,404.055
149758,166083,13990,-0.046,-0.945,-0.199,0.122,0.427,0.244,404.058
149758,165936,14228,-0.047,-0.945,-0.191,0.549,0.488,0.366,404.065
149814,166083,13990,-0.048,-0.942,-0.187,0.549,0.488,0.366,404.068
149814,165900,14230,-0.047,-0.943,-0.19,0.549,0.488,0.488,404.075
149803,166083,13990,-0.045,-0.941,-0.193,0.549,0.488,0.488,404.078
149803,165963,14229,-0.047,-0.943,-0.191,0.061,0.427,0.61,404.084
149815,166083,13990,-0.047,-0.94,-0.189,0.061,0.427,0.61,404.088
149815,165948,14219,-0.052,-0.943,-0.193,-0.366,0.305,0.732,404.094
149825,166083,13990,-0.05,-0.944,-0.191,-0.366,0.305,0.732,404.098
149825,165974,14222,-0.047,-0.94,-0.192,-0.793,0.244,0.671,404.104
149822,166083,13990,-0.05,-0.942,-0.192,-0.793,0.244,0.671,404.108
149822,165957,14231,-0.054,-0.944,-0.196,-1.341,0.244,0.549,404.114
149823,166083,13990,-0.053,-0.947,-0.197,-1.341,0.244,0.549,404.118
149823,165943,14218,-0.051,-0.947,-0.201,-1.28,0.244,0.305,404.124
149778,166083,13990,-0.052,-0.948,-0.2,-1.28,0.244,0.305,404.128
149778,165925,14233,-0.051,-0.945,-0.196,-0.61,0.244,0.122,404.134
149783,166083,13990,-0.05,-0.943,-0.203,-0.61,0.244,0.122,404.138
149783,165923,14226,-0.05,-0.946,-0.202,-0.122,0.366,0.061,404.144
149772,166083,13990,-0.047,-0.946,-0.2,-0.122,0.366,0.061,404.148
149772,165914,14249,-0.047,-0.945,-0.201,0.244,0.427,0.122,404.154
149810,166083,13990,-0.047,-0.942,-0.193,0.244,0.427,0.122,404.158
149810,165962,14242,-0.047,-0.944,-0.194,0.671,0.549,0.305,404.164
149817,166083,13990,-0.045,-0.944,-0.197,0.671,0.549,0.305,404.167
149817,165963,14232,-0.047,-0.941,-0.195,0.732,0.305,0.488,404.174
149809,166083,13990,-0.047,-0.941,-0.192,0.732,0.305,0.488,404.177
149809,165938,14220,-0.047,-0.944,-0.194,0.427,0.305,0.793,404.183
149785,166083,13990,-0.047,-0.944,-0.194,0.427,0.305,0.793,404.187
149785,165937,14231,-0.048,-0.94,-0.192,-0.061,0.305,0.854,404.193
149785,166083,13990,-0.048,-0.94,-0.192,-0.061,0.305,0.854,404.197
149785,165900,14230,-0.051,-0.946,-0.193,-0.366,0.366,0.793,404.203
149749,166083,13990,-0.051,-0.946,-0.193,-0.366,0.366,0.793,404.207
149749,165888,14234,-0.053,-0.945,-0.197,-0.488,0.427,0.61,404.213
149727,165827,13990,-0.053,-0.945,-0.197,-0.488,0.427,0.61,404.217
149727,165841,14203,-0.055,-0.941,-0.197,-0.366,0.366,0.427,404.223
149687,165827,13990,-0.055,-0.941,-0.197,-0.366,0.366,0.427,404.227
149687,165846,14208,-0.051,-0.942,-0.199,0,0.488,0.305,404.233
149697,165827,13990,-0.051,-0.942,-0.199,0,0.488,0.305,404.237
149697,165830,14208,-0.05,-0.943,-0.189,0.183,0.488,0.305,404.243
149672,165827,13990,-0.05,-0.943,-0.189,0.183,0.488,0.305,404.247
149672,165822,14217,-0.047,-0.944,-0.193,-0.061,0.549,0.244,404.253
149696,165827,13990,-0.047,-0.944,-0.193,-0.061,0.549,0.244,404.256
149696,165796,14215,-0.046,-0.944,-0.195,-0.183,0.305,0.488,404.263
149654,165827,13990,-0.046,-0.944,-0.195,-0.183,0.305,0.488,404.266
149654,165821,14212,-0.044,-0.942,-0.193,-0.366,0.183,0.732,404.273
149643,165827,13990,-0.044,-0.942,-0.193,-0.366,0.183,0.732,404.276
149643,165778,14211,-0.049,-0.944,-0.194,-0.854,0.244,0.854,404.282
149623,165827,13990,-0.049,-0.944,-0.194,-0.854,0.244,0.854,404.286
149623,165766,14209,-0.051,-0.942,-0.195,-1.037,0.122,1.037,404.292
149601,165827,13990,-0.051,-0.942,-0.195,-1.037,0.122,1.037,404.296
149601,165737,14215,-0.053,-0.948,-0.203,-1.159,0.183,0.976,404.302
149569,165827,13990,-0.053,-0.948,-0.203,-1.159,0.183,0.976,404.306
149569,165743,14205,-0.054,-0.945,-0.205,-0.854,0.244,0.671,404.312
149584,165827,13990,-0.054,-0.945,-0.205,-0.854,0.244,0.671,404.316
149584,165760,14210,-0.052,-0.944,-0.2,0.366,0.427,0.366,404.322
149586,165827,13990,-0.052,-0.944,-0.2,0.366,0.427,0.366,404.326
149586,165756,14207,-0.052,-0.944,-0.199,0.366,0.427,0.366,404.332
149622,165827,13990,-0.051,-0.944,-0.196,0.976,0.671,0.122,404.336
149622,165745,14218,-0.05,-0.948,-0.194,0.976,0.671,0.122,404.342
149628,165827,13990,-0.05,-0.943,-0.194,1.28,0.61,0,404.346
149628,165780,14212,-0.048,-0.939,-0.191,1.28,0.61,0,404.352
149675,165827,13990,-0.048,-0.942,-0.184,1.341,0.61,0,404.355
149675,165790,14222,-0.047,-0.943,-0.186,1.341,0.61,0,404.362
149644,165827,13990,-0.045,-0.941,-0.191,0.366,0.61,0.122,404.365
149644,165775,14218,-0.046,-0.942,-0.193,0.366,0.61,0.122,404.372
149625,165827,13990,-0.047,-0.946,-0.194,-0.549,0.427,0.305,404.375
149625,165769,14212,-0.05,-0.946,-0.197,-0.549,0.427,0.305,404.381
149568,165827,13990,-0.05,-0.944,-0.198,-0.854,0.305,0.488,404.385
149568,165753,14201,-0.05,-0.945,-0.201,-0.854,0.305,0.488,404.391
149541,165827,13990,-0.05,-0.947,-0.204,-0.671,0.305,0.366,404.395
149541,165716,14192,-0.05,-0.946,-0.201,-0.671,0.305,0.366,404.401
149499,165827,13990,-0.049,-0.946,-0.195,-0.122,0.305,0.305,404.405
149499,165673,14197,-0.052,-0.945,-0.193,-0.122,0.305,0.305,404.411
149486,165827,13990,-0.053,-0.945,-0.195,0.366,0.366,0.305,404.415
149486,165666,14192,-0.051,-0.946,-0.203,0.366,0.366,0.305,404.421
149498,165827,13990,-0.049,-0.947,-0.195,0.244,0.488,0.122,404.425
149498,165688,14208,-0.051,-0.943,-0.191,0.244,0.488,0.122,404.431
149530,165827,13990,-0.05,-0.945,-0.192,0.488,0.549,0.061,404.435
149530,165717,14187,-0.05,-0.945,-0.19,0.488,0.549,0.061,404.441
149564,165827,13990,-0.046,-0.945,-0.193,0.305,0.427,0.183,404.445
149564,165726,14199,-0.049,-0.942,-0.196,0.305,0.427,0.183,404.451
149606,165827,13990,-0.048,-0.946,-0.192,0.061,0.366,0.305,404.454
149606,165751,14213,-0.046,-0.945,-0.192,0.061,0.366,0.305,404.461
149592,165827,13990,-0.046,-0.942,-0.19,-0.366,0.305,0.427,404.464
149592,165766,14198,-0.051,-0.94,-0.195,-0.366,0.305,0.427,404.471
149617,165827,13990,-0.049,-0.941,-0.197,-0.915,0.244,0.549,404.474
149617,165752,14223,-0.049,-0.946,-0.199,-0.915,0.244,0.549,404.48
149575,165827,13990,-0.051,-0.948,-0.203,-0.793,0.305,0.549,404.484
149575,165725,14202,-0.05,-0.947,-0.203,-0.793,0.305,0.549,404.49
149530,165827,13990,-0.05,-0.943,-0.203,-0.244,0.427,0.305,404.494
149530,165730,14192,-0.051,-0.944,-0.197,-0.244,0.427,0.305,404.5
149523,165827,13990,-0.049,-0.947,-0.2,0.61,0.488,0.183,404.504
149523,165701,14199,-0.051,-0.944,-0.199,0.61,0.488,0.183,404.51
149545,165827,13990,-0.05,-0.941,-0.188,1.159,0.549,0.122,404.514
149545,165701,14183,-0.05,-0.942,-0.185,1.159,0.549,0.122,404.52
149528,165827,13990,-0.049,-0.943,-0.192,1.037,0.488,0,404.524
149528,165693,14210,-0.046,-0.943,-0.195,1.037,0.488,0,404.53
149540,165827,13990,-0.049,-0.946,-0.192,0.427,0.549,0,404.534
149540,165696,14204,-0.045,-0.944,-0.189,0.427,0.549,0,404.54
149532,165827,13990,-0.044,-0.943,-0.188,0,0.488,0.183,404.544
149532,165709,14196,-0.049,-0.944,-0.189,0,0.488,0.183,404.55
149551,165827,13990,-0.05,-0.944,-0.19,-0.427,0.488,0.427,404.553
149551,165716,14183,-0.049,-0.944,-0.193,-0.427,0.488,0.427,404.56
149533,165827,13990,-0.05,-0.944,-0.193,-0.793,0.366,0.427,404.563
149533,165708,14202,-0.047,-0.945,-0.195,-0.793,0.366,0.427,404.57
149486,165827,13990,-0.048,-0.945,-0.199,-0.976,0.366,0.488,404.573
149486,165660,14198,-0.051,-0.943,-0.196,-0.976,0.366,0.488,404.579
149454,165827,13990,-0.049,-0.943,-0.2,-0.793,0.427,0.427,404.583
149454,165653,14180,-0.049,-0.945,-0.198,-0.793,0.427,0.427,404.589
149447,165827,13990,-0.053,-0.945,-0.194,-0.061,0.488,0.305,404.593
149447,165646,14184,-0.052,-0.945,-0.194,-0.061,0.488,0.305,404.599
149469,165827,13990,-0.052,-0.944,-0.196,0.366,0.549,0.122,404.603
149469,165646,14181,-0.049,-0.943,-0.192,0.366,0.549,0.122,404.609
149489,165827,13990,-0.047,-0.946,-0.186,0.488,0.549,-0.061,404.613
149489,165708,14185,-0.046,-0.945,-0.19,0.488,0.549,-0.061,404.619
149553,165827,13990,-0.046,-0.946,-0.186,0.244,0.488,0.061,404.623
149553,165732,14206,-0.048,-0.946,-0.19,0.244,0.488,0.061,404.629
149557,165827,13990,-0.047,-0.946,-0.19,-0.305,0.427,0.183,404.633
149557,165731,14208,-0.049,-0.946,-0.191,-0.305,0.427,0.183,404.639
149593,165827,13990,-0.047,-0.947,-0.191,-0.793,0.366,0.305,404.643
149593,165754,14208,-0.05,-0.946,-0.195,-0.793,0.366,0.305,404.649
149579,165827,13990,-0.046,-0.943,-0.197,-0.671,0.366,0.427,404.652
149579,165725,14208,-0.047,-0.943,-0.194,-0.671,0.366,0.427,404.659
149549,165827,13990,-0.051,-0.946,-0.201,-0.366,0.305,0.488,404.662
149549,165707,14200,-0.048,-0.944,-0.198,-0.366,0.305,0.488,404.669
149534,165827,13990,-0.051,-0.945,-0.194,-0.183,0.366,0.366,404.672
149534,165729,14201,-0.051,-0.945,-0.197,-0.183,0.366,0.366,404.678
149523,165827,13990,-0.049,-0.943,-0.196,0.061,0.366,0.244,404.682
149523,165690,14214,-0.052,-0.941,-0.191,0.061,0.366,0.244,404.688
149542,165827,13990,-0.049,-0.946,-0.19,0.061,0.366,0.122,404.692
149542,165724,14210,-0.049,-0.945,-0.187,0.061,0.366,0.122,404.698
149563,165827,13990,-0.05,-0.945,-0.191,0.061,0.366,0,404.702
149563,165704,14226,-0.049,-0.945,-0.196,0.061,0.366,0,404.708
149555,165827,13990,-0.049,-0.943,-0.189,0,0.427,0,404.712
149555,165723,14204,-0.048,-0.941,-0.19,0,0.427,0,404.718
149564,165827,13990,-0.046,-0.943,-0.196,-0.427,0.427,0.061,404.722
149564,165734,14205,-0.046,-0.946,-0.194,-0.427,0.427,0.061,404.728
149558,165827,13990,-0.045,-0.945,-0.196,-0.793,0.305,0.122,404.732
149558,165727,14219,-0.05,-0.942,-0.198,-0.793,0.305,0.122,404.738
149574,165827,13990,-0.045,-0.943,-0.198,-0.549,0.305,0.305,404.742
149574,165716,14202,-0.047,-0.942,-0.196,-0.549,0.305,0.305,404.748
149534,165827,13990,-0.051,-0.944,-0.196,-0.305,0.366,0.488,404.751
149534,165710,14209,-0.049,-0.943,-0.195,-0.305,0.366,0.488,404.758
149532,165827,13990,-0.049,-0.944,-0.192,-0.244,0.427,0.427,404.761
149532,165684,14213,-0.047,-0.943,-0.195,-0.244,0.427,0.427,404.767
149536,165827,13990,-0.047,-0.943,-0.195,-0.244,0.427,0.427,404.771
149536,165688,14219,-0.049,-0.946,-0.196,-0.061,0.427,0.305,404.777
149565,165827,13990,-0.049,-0.946,-0.196,-0.061,0.427,0.305,404.781
149565,165719,14217,-0.049,-0.944,-0.199,0,0.427,0.183,404.787
149594,165827,13990,-0.049,-0.944,-0.199,0,0.427,0.183,404.791
149594,165718,14230,-0.052,-0.947,-0.196,0.305,0.488,0.183,404.797
149612,165827,13990,-0.052,-0.947,-0.196,0.305,0.488,0.183,404.801
149612,165738,14212,-0.049,-0.941,-0.187,0.732,0.549,0.122,404.807
149635,165827,13990,-0.049,-0.941,-0.187,0.732,0.549,0.122,404.811
149635,165752,14222,-0.048,-0.942,-0.19,0.793,0.488,0.061,404.817
149645,165827,13990,-0.048,-0.942,-0.19,0.793,0.488,0.061,404.821
149645,165769,14218,-0.048,-0.945,-0.191,0.244,0.488,0.244,404.827
149619,165827,13990,-0.048,-0.945,-0.191,0.244,0.488,0.244,404.831
149619,165739,14218,-0.045,-0.945,-0.194,-0.183,0.366,0.244,404.837
149613,165827,13990,-0.045,-0.945,-0.194,-0.183,0.366,0.244,404.841
149613,165747,14226,-0.049,-0.943,-0.192,-0.122,0.427,0.183,404.847
149576,165827,13990,-0.049,-0.943,-0.192,-0.122,0.427,0.183,404.85
149576,165727,14228,-0.052,-0.943,-0.198,-0.488,0.427,0.122,404.857
149572,165827,13990,-0.052,-0.943,-0.198,-0.488,0.427,0.122,404.86
149572,165687,14216,-0.05,-0.946,-0.198,-0.488,0.366,0.061,404.867
149571,165827,13990,-0.05,-0.946,-0.198,-0.488,0.366,0.061,404.87
149571,165711,14227,-0.046,-0.945,-0.194,0.305,0.549,-0.122,404.876
149574,165827,13990,-0.046,-0.945,-0.194,0.305,0.549,-0.122,404.88
149574,165701,14226,-0.048,-0.944,-0.196,0.793,0.671,-0.183,404.886
149584,165827,13990,-0.048,-0.944,-0.196,0.793,0.671,-0.183,404.89
149584,165706,14223,-0.045,-0.94,-0.188,1.037,0.488,-0.061,404.896
149603,165827,13990,-0.045,-0.94,-0.188,1.037,0.488,-0.061,404.9
149603,165712,14211,-0.048,-0.944,-0.192,0.793,0.366,0,404.906
149575,165827,13990,-0.048,-0.944,-0.192,0.793,0.366,0,404.91
149575,165706,14223,-0.049,-0.948,-0.188,0.122,0.427,0.122,404.916
149563,165827,13990,-0.048,-0.945,-0.187,0.122,0.427,0.122,404.92
149563,165696,14219,-0.045,-0.946,-0.195,-0.427,0.366,0.366,404.926
149550,165827,13990,-0.048,-0.946,-0.197,-0.427,0.366,0.366,404.93
149550,165688,14221,-0.048,-0.946,-0.2,-0.427,0.305,0.488,404.936
149515,165827,13990,-0.047,-0.943,-0.197,-0.427,0.305,0.488,404.94
149515,165672,14207,-0.048,-0.942,-0.194,0.366,0.305,0.61,404.946
149491,165827,13990,-0.051,-0.941,-0.191,0.366,0.305,0.61,404.949
149491,165658,14200,-0.049,-0.943,-0.193,0.488,0.427,0.549,404.956
149510,165827,13990,-0.049,-0.944,-0.193,0.488,0.427,0.549,404.959
149510,165657,14217,-0.049,-0.943,-0.191,0.427,0.488,0.549,404.965
149495,165827,13990,-0.049,-0.943,-0.189,0.427,0.488,0.549,404.969
149495,165679,14216,-0.05,-0.944,-0.192,0.244,0.427,0.549,404.975
149521,165827,13990,-0.051,-0.943,-0.191,0.244,0.427,0.549,404.979
149521,165654,14214,-0.05,-0.941,-0.188,0,0.366,0.488,404.985
149515,165827,13990,-0.047,-0.946,-0.188,0,0.366,0.488,404.989
149515,165651,14206,-0.047,-0.944,-0.186,-0.549,0.305,0.427,404.995
149517,165571,13990,-0.049,-0.943,-0.187,-0.549,0.305,0.427,404.999
149517,165625,14196,-0.049,-0.946,-0.191,-1.098,0.183,0.61,405.005
149489,165827,13990,-0.047,-0.947,-0.198,-1.098,0.183,0.61,405.009
149489,165656,14207,-0.047,-0.947,-0.198,-1.402,0.183,0.671,405.015
149482,165571,13990,-0.048,-0.943,-0.194,-1.402,0.183,0.671,405.019
149482,165611,14217,-0.048,-0.943,-0.198,-1.037,0.244,0.732,405.025
149459,165571,13990,-0.048,-0.943,-0.196,-1.037,0.244,0.732,405.029
149459,165597,14205,-0.048,-0.942,-0.195,-0.366,0.427,0.671,405.035
149463,165571,13990,-0.048,-0.941,-0.198,-0.366,0.427,0.671,405.039
149463,165617,14203,-0.049,-0.944,-0.202,-0.061,0.366,0.549,405.045
149467,165571,13990,-0.049,-0.948,-0.198,-0.061,0.366,0.549,405.048
149467,165628,14211,-0.048,-0.946,-0.197,0.366,0.427,0.427,405.055
149460,165827,13990,-0.049,-0.946,-0.193,0.366,0.427,0.427,405.058
149460,165632,14201,-0.048,-0.944,-0.189,0.854,0.549,0.366,405.064
149485,165571,13990,-0.047,-0.94,-0.19,0.854,0.549,0.366,405.068
149485,165623,14228,-0.05,-0.942,-0.189,0.976,0.427,0.427,405.074
149485,165827,13990,-0.049,-0.944,-0.192,0.976,0.427,0.427,405.078
149485,165653,14216,-0.047,-0.945,-0.192,0.488,0.427,0.427,405.084
149492,165827,13990,-0.046,-0.947,-0.191,0.488,0.427,0.427,405.088
149492,165645,14219,-0.048,-0.946,-0.184,0.366,0.427,0.61,405.094
149510,165827,13990,-0.05,-0.944,-0.187,0.366,0.427,0.61,405.098
149510,165638,14192,-0.048,-0.943,-0.189,0,0.244,0.793,405.104
149488,165827,13990,-0.05,-0.943,-0.192,0,0.244,0.793,405.108
149488,165654,14212,-0.049,-0.943,-0.19,-0.488,0.305,0.854,405.114
149483,165571,13990,-0.048,-0.942,-0.191,-0.488,0.305,0.854,405.118
149483,165628,14203,-0.049,-0.943,-0.193,-0.549,0.366,0.793,405.124
149476,165827,13990,-0.05,-0.944,-0.19,-0.549,0.366,0.793,405.128
149476,165660,14215,-0.051,-0.942,-0.193,-0.61,0.305,0.732,405.134
149487,165571,13990,-0.051,-0.946,-0.195,-0.61,0.305,0.732,405.138
149487,165618,14204,-0.051,-0.944,-0.195,-0.793,0.305,0.549,405.144
149501,165571,13990,-0.049,-0.942,-0.191,-0.793,0.305,0.549,405.147
149501,165622,14218,-0.051,-0.945,-0.191,-0.915,0.305,0.366,405.154
149505,165827,13990,-0.05,-0.946,-0.193,-0.915,0.305,0.366,405.157
149505,165637,14220,-0.052,-0.946,-0.194,-0.854,0.244,0.122,405.164
149525,165827,13990,-0.048,-0.944,-0.198,-0.854,0.244,0.122,405.167
149525,165652,14205,-0.046,-0.943,-0.196,-0.915,0.366,0,405.173
149545,165827,13990,-0.048,-0.943,-0.193,-0.915,0.366,0,405.177
149545,165660,14218,-0.048,-0.942,-0.196,-0.61,0.366,-0.122,405.183
149549,165827,13990,-0.048,-0.943,-0.201,-0.61,0.366,-0.122,405.187
149549,165654,14213,-0.047,-0.945,-0.2,-0.122,0.366,-0.122,405.193
149562,165827,13990,-0.047,-0.948,-0.193,-0.122,0.366,-0.122,405.197
149562,165682,14231,-0.048,-0.945,-0.193,0.183,0.366,0.061,405.203
149544,165827,13990,-0.047,-0.94,-0.192,0.183,0.366,0.061,405.207
149544,165651,14223,-0.048,-0.942,-0.192,0.244,0.366,0.183,405.213
149586,165827,13990,-0.048,-0.941,-0.189,0.244,0.366,0.183,405.217
149586,165688,14230,-0.049,-0.941,-0.189,-0.305,0.366,0.305,405.223
149597,165827,13990,-0.05,-0.944,-0.193,-0.305,0.366,0.305,405.227
149597,165667,14220,-0.05,-0.944,-0.197,-1.037,0.244,0.305,405.233
149622,165827,13990,-0.051,-0.947,-0.199,-1.037,0.244,0.305,405.237
149622,165683,14224,-0.049,-0.946,-0.197,-1.037,0.183,0.244,405.243
149604,165827,13990,-0.047,-0.945,-0.2,-1.037,0.183,0.244,405.246
149604,165699,14234,-0.047,-0.946,-0.201,-0.61,0.122,0.183,405.253
149609,165827,13990,-0.046,-0.944,-0.196,-0.61,0.122,0.183,405.256
149609,165690,14232,-0.049,-0.944,-0.197,-0.122,0.244,0.244,405.262
149581,165827,13990,-0.05,-0.942,-0.194,-0.122,0.244,0.244,405.266
149581,165667,14244,-0.049,-0.943,-0.19,0.122,0.488,0.183,405.272
149577,165827,13990,-0.048,-0.943,-0.191,0.122,0.488,0.183,405.276
149577,165659,14218,-0.048,-0.943,-0.192,0,0.549,0.183,405.282
149542,165827,13990,-0.047,-0.944,-0.188,0,0.549,0.183,405.286
149542,165663,14217,-0.049,-0.944,-0.188,-0.183,0.366,0.122,405.292
149534,165827,13990,-0.048,-0.943,-0.187,-0.183,0.366,0.122,405.296
149534,165667,14208,-0.047,-0.944,-0.191,-0.915,0.366,0.122,405.302
149516,165827,13990,-0.047,-0.944,-0.193,-0.915,0.366,0.122,405.306
149516,165648,14228,-0.047,-0.943,-0.19,-1.402,0.244,0.305,405.312
149535,165827,13990,-0.047,-0.944,-0.199,-1.402,0.244,0.305,405.316
149535,165658,14216,-0.048,-0.947,-0.201,-1.341,0.244,0.366,405.322
149533,165827,13990,-0.046,-0.947,-0.203,-1.341,0.244,0.366,405.326
149533,165671,14218,-0.05,-0.944,-0.197,-0.671,0.305,0.427,405.332
149557,165827,13990,-0.053,-0.942,-0.198,-0.671,0.305,0.427,405.336
149557,165671,14227,-0.048,-0.945,-0.194,-0.122,0.305,0.488,405.342
149588,165827,13990,-0.051,-0.944,-0.193,-0.122,0.305,0.488,405.345
149588,165694,14242,-0.049,-0.942,-0.193,0.183,0.427,0.305,405.352
149622,165827,13990,-0.049,-0.942,-0.193,0.183,0.427,0.305,405.355
149622,165723,14221,-0.048,-0.944,-0.188,0.183,0.366,0.122,405.361
149612,165827,13990,-0.048,-0.944,-0.188,0.183,0.366,0.122,405.365
149612,165734,14244,-0.048,-0.945,-0.193,-0.183,0.366,0.122,405.371
149627,165827,13990,-0.048,-0.945,-0.193,-0.183,0.366,0.122,405.375
149627,165694,14228,-0.045,-0.944,-0.197,-0.366,0.427,0.244,405.381
149641,165827,13990,-0.045,-0.944,-0.197,-0.366,0.427,0.244,405.385
149641,165742,14232,-0.046,-0.944,-0.194,-0.244,0.427,0.488,405.391
149613,165827,13990,-0.046,-0.944,-0.194,-0.244,0.427,0.488,405.395
149613,165728,14231,-0.047,-0.943,-0.193,0.061,0.305,0.732,405.401
149589,165827,13990,-0.047,-0.943,-0.193,0.061,0.305,0.732,405.405
149589,165708,14231,-0.047,-0.944,-0.193,0.122,0.305,0.793,405.411
149579,165827,13990,-0.047,-0.944,-0.193,0.122,0.305,0.793,405.415
149579,165698,14213,-0.052,-0.943,-0.194,0,0.427,0.61,405.421
149555,165827,13990,-0.052,-0.943,-0.194,0,0.427,0.61,405.425
149555,165685,14232,-0.048,-0.942,-0.193,0,0.366,0.488,405.431
149553,165827,13990,-0.048,-0.942,-0.193,0,0.366,0.488,405.435
149553,165653,14221,-0.051,-0.942,-0.193,0.061,0.427,0.366,405.441
149529,165827,13990,-0.051,-0.942,-0.193,0.061,0.427,0.366,405.444
149529,165638,14240,-0.047,-0.948,-0.194,0.183,0.488,0.122,405.451
149516,165571,13990,-0.047,-0.948,-0.194,0.183,0.488,0.122,405.454
149516,165624,14215,-0.044,-0.945,-0.189,0.366,0.549,0.183,405.46
149515,165571,13990,-0.044,-0.945,-0.189,0.366,0.549,0.183,405.464
149515,165604,14221,-0.044,-0.946,-0.19,0.122,0.488,0.366,405.47
149478,165571,13990,-0.044,-0.946,-0.19,0.122,0.488,0.366,405.474
149478,165601,14232,-0.047,-0.943,-0.194,0.061,0.488,0.61,405.48
149474,165571,13990,-0.047,-0.943,-0.194,0.061,0.488,0.61,405.484
149474,165581,14203,-0.049,-0.946,-0.184,0,0.427,0.793,405.49
149473,165571,13990,-0.049,-0.946,-0.184,0,0.427,0.793,405.494
149473,165577,14205,-0.049,-0.944,-0.191,0,0.427,0.793,405.5
149492,165571,13990,-0.048,-0.943,-0.198,-0.549,0.366,0.793,405.504
149492,165553,14222,-0.052,-0.944,-0.194,-0.549,0.366,0.793,405.51
149442,165571,13990,-0.05,-0.946,-0.193,-0.427,0.427,0.671,405.514
149442,165584,14222,-0.051,-0.944,-0.194,-0.427,0.427,0.671,405.52
149441,165571,13990,-0.051,-0.941,-0.192,-0.122,0.427,0.366,405.524
149441,165556,14213,-0.048,-0.942,-0.193,-0.122,0.427,0.366,405.53
149427,165571,13990,-0.048,-0.943,-0.195,-0.183,0.366,0.244,405.533
149427,165564,14221,-0.048,-0.943,-0.189,-0.183,0.366,0.244,405.54
149429,165571,13990,-0.047,-0.941,-0.19,-0.366,0.366,0.244,405.543
149429,165554,14203,-0.047,-0.945,-0.194,-0.366,0.366,0.244,405.55
149415,165571,13990,-0.046,-0.946,-0.196,-0.488,0.366,0.366,405.553
149415,165558,14224,-0.046,-0.945,-0.195,-0.488,0.366,0.366,405.559
149423,165571,13990,-0.046,-0.94,-0.191,-0.61,0.305,0.427,405.563
149423,165564,14203,-0.048,-0.944,-0.195,-0.61,0.305,0.427,405.569
149393,165571,13990,-0.049,-0.945,-0.196,-0.61,0.305,0.488,405.573
149393,165532,14216,-0.047,-0.944,-0.195,-0.61,0.305,0.488,405.579
149393,165571,13990,-0.049,-0.947,-0.198,-0.61,0.366,0.488,405.583
149393,165520,14206,-0.051,-0.942,-0.196,-0.61,0.366,0.488,405.589
149359,165571,13990,-0.053,-0.943,-0.196,-0.61,0.366,0.305,405.593
149359,165506,14198,-0.052,-0.942,-0.197,-0.61,0.366,0.305,405.599
149363,165571,13990,-0.052,-0.943,-0.197,-0.488,0.488,0.183,405.603
149363,165505,14186,-0.053,-0.945,-0.199,-0.488,0.488,0.183,405.609
149358,165571,13990,-0.049,-0.946,-0.197,-0.305,0.427,-0.061,405.613
149358,165476,14204,-0.051,-0.944,-0.191,-0.305,0.427,-0.061,405.619
149376,165571,13990,-0.05,-0.94,-0.194,-0.183,0.427,-0.061,405.623
149376,165484,14202,-0.05,-0.945,-0.196,-0.183,0.427,-0.061,405.629
149346,165571,13990,-0.046,-0.945,-0.195,0,0.427,0.061,405.633
149346,165514,14207,-0.043,-0.944,-0.197,0,0.427,0.061,405.639
149378,165571,13990,-0.045,-0.944,-0.194,0.061,0.427,0.061,405.642
149378,165476,14195,-0.044,-0.942,-0.196,0.061,0.427,0.061,405.649
149354,165571,13990,-0.047,-0.943,-0.201,0,0.488,0.305,405.652
149354,165492,14199,-0.045,-0.943,-0.192,0,0.488,0.305,405.658
149354,165571,13990,-0.045,-0.945,-0.197,0.183,0.366,0.61,405.662
149354,165477,14195,-0.046,-0.946,-0.199,0.183,0.366,0.61,405.668
149382,165571,13990,-0.046,-0.943,-0.196,0.488,0.427,0.732,405.672
149382,165497,14207,-0.048,-0.941,-0.193,0.488,0.427,0.732,405.678
149380,165571,13990,-0.05,-0.943,-0.19,0.61,0.366,0.732,405.682
149380,165506,14219,-0.05,-0.947,-0.188,0.61,0.366,0.732,405.688
149401,165571,13990,-0.052,-0.943,-0.192,0.183,0.366,0.61,405.692
149401,165518,14208,-0.049,-0.942,-0.192,0.183,0.366,0.61,405.698
149402,165571,13990,-0.049,-0.943,-0.191,-0.244,0.488,0.427,405.702
149402,165520,14209,-0.052,-0.944,-0.19,-0.244,0.488,0.427,405.708
149415,165571,13990,-0.051,-0.946,-0.189,-0.427,0.427,0.183,405.712
149415,165528,14208,-0.048,-0.943,-0.19,-0.427,0.427,0.183,405.718
149405,165571,13990,-0.05,-0.944,-0.191,-0.671,0.305,0.122,405.722
149405,165517,14209,-0.05,-0.943,-0.193,-0.671,0.305,0.122,405.728
149442,165571,13990,-0.047,-0.944,-0.192,-0.732,0.366,0.183,405.732
149442,165545,14206,-0.046,-0.941,-0.193,-0.732,0.366,0.183,405.738
149443,165571,13990,-0.047,-0.944,-0.197,-0.61,0.305,0.305,405.741
149443,165539,14223,-0.047,-0.947,-0.193,-0.61,0.305,0.305,405.748
149474,165571,13990,-0.044,-0.944,-0.195,-0.549,0.244,0.427,405.751
149474,165559,14226,-0.045,-0.943,-0.195,-0.549,0.244,0.427,405.757
149500,165571,13990,-0.049,-0.943,-0.191,-0.671,0.183,0.305,405.761
149500,165598,14212,-0.049,-0.944,-0.192,-0.671,0.183,0.305,405.767
149511,165571,13990,-0.049,-0.944,-0.194,-0.915,0.183,0.366,405.771
149511,165609,14242,-0.052,-0.944,-0.201,-0.915,0.183,0.366,405.777
149522,165571,13990,-0.052,-0.944,-0.199,-0.854,0.183,0.122,405.781
149522,165607,14228,-0.047,-0.943,-0.196,-0.854,0.183,0.122,405.787
149520,165571,13990,-0.05,-0.944,-0.195,-0.366,0.244,-0.061,405.791
149520,165601,14229,-0.047,-0.948,-0.196,-0.366,0.244,-0.061,405.797
149510,165571,13990,-0.045,-0.949,-0.194,-0.183,0.244,0,405.801
149510,165618,14215,-0.045,-0.945,-0.197,-0.183,0.244,0,405.807
149468,165571,13990,-0.043,-0.943,-0.193,0,0.427,0.183,405.811
149468,165585,14217,-0.044,-0.945,-0.192,0,0.427,0.183,405.817
149494,165571,13990,-0.048,-0.943,-0.194,0.244,0.366,0.366,405.821
149494,165597,14224,-0.043,-0.942,-0.197,0.244,0.366,0.366,405.827
149496,165571,13990,-0.044,-0.943,-0.193,0.122,0.427,0.549,405.83
149496,165584,14226,-0.046,-0.944,-0.193,0.122,0.427,0.549,405.837
149475,165571,13990,-0.047,-0.942,-0.194,0.061,0.488,0.671,405.84
149475,165590,14222,-0.047,-0.942,-0.194,0.061,0.488,0.671,405.847
149462,165571,13990,-0.048,-0.943,-0.2,-0.183,0.366,0.793,405.85
149462,165566,14218,-0.049,-0.945,-0.201,-0.183,0.366,0.793,405.856
149439,165571,13990,-0.051,-0.947,-0.194,-0.122,0.305,0.61,405.86
149439,165571,14217,-0.051,-0.945,-0.189,-0.122,0.305,0.61,405.866
149419,165571,13990,-0.052,-0.944,-0.193,0.122,0.305,0.427,405.87
149419,165533,14222,-0.049,-0.944,-0.192,0.122,0.305,0.427,405.876
149441,165571,13990,-0.05,-0.943,-0.187,-0.183,0.305,0.366,405.88
149441,165537,14209,-0.046,-0.943,-0.188,-0.183,0.305,0.366,405.886
149435,165571,13990,-0.049,-0.942,-0.19,-0.793,0.122,0.427,405.89
149435,165517,14226,-0.052,-0.946,-0.19,-0.793,0.122,0.427,405.896
149418,165571,13990,-0.047,-0.945,-0.194,-1.463,0.061,0.488,405.9
149418,165531,14221,-0.048,-0.943,-0.197,-1.463,0.061,0.488,405.906
149430,165571,13990,-0.046,-0.946,-0.199,-1.646,0.061,0.549,405.91
149430,165538,14216,-0.048,-0.945,-0.197,-1.646,0.061,0.549,405.916
149447,165571,13990,-0.047,-0.942,-0.194,-1.22,0.061,0.549,405.92
149447,165531,14203,-0.048,-0.943,-0.202,-1.22,0.061,0.549,405.926
149451,165571,13990,-0.048,-0.942,-0.208,-0.854,0.305,0.671,405.93
149451,165535,14229,-0.049,-0.942,-0.201,-0.854,0.305,0.671,405.936
149434,165571,13990,-0.049,-0.942,-0.201,-0.854,0.305,0.671,405.939
149434,165530,14222,-0.052,-0.941,-0.2,-0.061,0.427,0.427,405.946
149463,165571,13990,-0.052,-0.941,-0.2,-0.061,0.427,0.427,405.949
149463,165548,14225,-0.05,-0.946,-0.196,0.366,0.549,0.061,405.955
149469,165571,13990,-0.05,-0.946,-0.196,0.366,0.549,0.061,405.959
149469,165578,14230,-0.05,-0.943,-0.192,0.488,0.427,0.061,405.965
149483,165571,13990,-0.05,-0.943,-0.192,0.488,0.427,0.061,405.969
149483,165568,14224,-0.043,-0.942,-0.183,0.61,0.427,-0.061,405.975
149499,165571,13990,-0.043,-0.942,-0.183,0.61,0.427,-0.061,405.979
149499,165581,14226,-0.044,-0.945,-0.193,0.183,0.366,0.122,405.985
149491,165571,13990,-0.044,-0.945,-0.193,0.183,0.366,0.122,405.989
149491,165571,14233,-0.046,-0.945,-0.189,-0.61,0.122,0.488,405.995
149469,165571,13990,-0.046,-0.945,-0.189,-0.61,0.122,0.488,405.999
149469,165556,14217,-0.045,-0.942,-0.194,-0.854,0.061,0.671,406.005
149457,165571,13990,-0.045,-0.942,-0.194,-0.854,0.061,0.671,406.009
149457,165566,14241,-0.049,-0.942,-0.194,-0.854,0.122,0.793,406.015
149451,165571,13990,-0.049,-0.942,-0.194,-0.854,0.122,0.793,406.019
149451,165566,14220,-0.052,-0.941,-0.199,-0.915,0.183,0.854,406.025
149469,165571,13990,-0.052,-0.941,-0.199,-0.915,0.183,0.854,406.028
149469,165552,14212,-0.052,-0.942,-0.198,-0.915,0.305,0.732,406.035
149441,165571,13990,-0.052,-0.942,-0.198,-0.915,0.305,0.732,406.038
149441,165560,14211,-0.05,-0.945,-0.196,-0.915,0.366,0.488,406.045
149444,165571,13990,-0.05,-0.945,-0.196,-0.915,0.366,0.488,406.048
149444,165537,14215,-0.046,-0.944,-0.201,-0.488,0.427,0.122,406.054
149429,165571,13990,-0.046,-0.944,-0.201,-0.488,0.427,0.122,406.058
149429,165537,14217,-0.048,-0.944,-0.192,-0.305,0.427,0.122,406.064
149408,165571,13990,-0.048,-0.944,-0.192,-0.305,0.427,0.122,406.068
149408,165510,14222,-0.046,-0.944,-0.194,-0.305,0.366,0.244,406.074
149403,165571,13990,-0.046,-0.944,-0.194,-0.305,0.366,0.244,406.078
149403,165517,14209,-0.045,-0.944,-0.191,-0.427,0.427,0.549,406.084
149409,165571,13990,-0.044,-0.944,-0.195,-0.427,0.427,0.549,406.088
149409,165509,14222,-0.045,-0.943,-0.201,-0.61,0.305,0.732,406.094
149411,165571,13990,-0.05,-0.943,-0.198,-0.61,0.305,0.732,406.098
149411,165534,14215,-0.048,-0.943,-0.19,-0.549,0.244,0.915,406.104
149412,165571,13990,-0.049,-0.945,-0.193,-0.549,0.244,0.915,406.108
149412,165533,14215,-0.052,-0.944,-0.201,-0.488,0.244,0.915,406.114
149428,165571,13990,-0.053,-0.946,-0.203,-0.488,0.244,0.915,406.118
149428,165531,14226,-0.053,-0.946,-0.202,-0.427,0.427,0.549,406.124
149445,165571,13990,-0.05,-0.944,-0.202,-0.427,0.427,0.549,406.128
149445,165519,14194,-0.051,-0.943,-0.198,0.244,0.61,0.244,406.134
149457,165571,13990,-0.052,-0.943,-0.197,0.244,0.61,0.244,406.137
149457,165536,14225,-0.049,-0.944,-0.203,0.61,0.732,0.122,406.144
149469,165571,13990,-0.048,-0.943,-0.199,0.61,0.732,0.122,406.147
149469,165554,14222,-0.051,-0.944,-0.193,1.037,0.732,-0.061,406.153
149465,165571,13990,-0.048,-0.943,-0.187,1.037,0.732,-0.061,406.157
149465,165544,14228,-0.049,-0.942,-0.18,1.098,0.61,-0.061,406.163
149458,165571,13990,-0.047,-0.942,-0.186,1.098,0.61,-0.061,406.167
149458,165533,14233,-0.046,-0.945,-0.188,-0.122,0.488,0.061,406.173
149431,165571,13990,-0.044,-0.947,-0.194,-0.122,0.488,0.061,406.177
149431,165530,14218,-0.046,-0.946,-0.193,-0.854,0.305,0.244,406.183
149406,165571,13990,-0.048,-0.946,-0.194,-0.854,0.305,0.244,406.187
149406,165491,14218,-0.05,-0.944,-0.199,-0.854,0.122,0.549,406.193
149381,165571,13990,-0.05,-0.945,-0.203,-0.854,0.122,0.549,406.197
149381,165483,14199,-0.047,-0.946,-0.201,-0.549,0.244,0.61,406.203
149369,165571,13990,-0.048,-0.941,-0.197,-0.549,0.244,0.61,406.207
149369,165487,14221,-0.053,-0.944,-0.193,-0.061,0.305,0.488,406.213
149389,165571,13990,-0.05,-0.943,-0.197,-0.061,0.305,0.488,406.217
149389,165498,14214,-0.049,-0.943,-0.198,0.061,0.366,0.305,406.223
149390,165571,13990,-0.051,-0.941,-0.194,0.061,0.366,0.305,406.226
149390,165496,14223,-0.05,-0.942,-0.188,0.427,0.427,0,406.233
149414,165571,13990,-0.051,-0.945,-0.184,0.427,0.427,0,406.236
149414,165527,14249,-0.05,-0.943,-0.194,0,0.427,-0.122,406.243
149430,165571,13990,-0.049,-0.942,-0.195,0,0.427,-0.122,406.246
149430,165511,14203,-0.047,-0.944,-0.196,-0.732,0.427,-0.122,406.252
149419,165571,13990,-0.046,-0.943,-0.197,-0.732,0.427,-0.122,406.256
149419,165516,14215,-0.048,-0.948,-0.2,-0.793,0.305,-0.061,406.262
149419,165571,13990,-0.047,-0.944,-0.198,-0.793,0.305,-0.061,406.266
149419,165511,14219,-0.042,-0.944,-0.198,-0.244,0.366,0.061,406.272
149403,165571,13990,-0.046,-0.944,-0.199,-0.244,0.366,0.061,406.276
149403,165465,14208,-0.047,-0.944,-0.198,0.305,0.488,0.305,406.282
149371,165571,13990,-0.049,-0.941,-0.198,0.305,0.488,0.305,406.286
149371,165462,14209,-0.05,-0.94,-0.193,0.671,0.427,0.549,406.292
149336,165571,13990,-0.048,-0.943,-0.196,0.671,0.427,0.549,406.296
149336,165433,14195,-0.049,-0.94,-0.192,0.61,0.427,0.488,406.302
149288,165571,13990,-0.05,-0.944,-0.186,0.61,0.427,0.488,406.306
149288,165418,14203,-0.048,-0.943,-0.185,0.244,0.305,0.244,406.312
149290,165571,13990,-0.049,-0.944,-0.193,0.244,0.305,0.244,406.316
149290,165384,14204,-0.05,-0.946,-0.194,-0.793,0.305,0.183,406.322
149263,165315,13990,-0.049,-0.946,-0.19,-0.793,0.305,0.183,406.326
149263,165370,14211,-0.048,-0.943,-0.188,-1.037,0.305,0.122,406.332
149258,165315,13990,-0.046,-0.943,-0.192,-1.037,0.305,0.122,406.335
149258,165373,14194,-0.046,-0.946,-0.191,-1.037,0.183,0.427,406.342
149240,165315,13990,-0.045,-0.947,-0.194,-1.037,0.183,0.427,406.345
149240,165366,14190,-0.046,-0.948,-0.195,-1.22,0.122,0.549,406.351
149242,165315,13990,-0.045,-0.943,-0.2,-1.22,0.122,0.549,406.355
149242,165337,14200,-0.044,-0.946,-0.204,-1.28,0.183,0.854,406.361
149210,165315,13990,-0.043,-0.946,-0.201,-1.28,0.183,0.854,406.365
149210,165347,14197,-0.048,-0.945,-0.198,-0.793,0.305,1.098,406.371
149225,165315,13990,-0.051,-0.944,-0.201,-0.793,0.305,1.098,406.375
149225,165319,14184,-0.049,-0.944,-0.199,-0.122,0.427,1.037,406.381
149208,165315,13990,-0.053,-0.943,-0.202,-0.122,0.427,1.037,406.385
149208,165328,14209,-0.052,-0.944,-0.202,0.366,0.488,0.732,406.391
149232,165315,13990,-0.052,-0.945,-0.202,0.366,0.488,0.732,406.395
149232,165340,14189,-0.05,-0.945,-0.197,0.976,0.549,0.366,406.401
149241,165315,13990,-0.052,-0.942,-0.195,0.976,0.549,0.366,406.405
149241,165352,14197,-0.05,-0.94,-0.197,1.707,0.671,0.122,406.411
149271,165571,13990,-0.048,-0.943,-0.192,1.707,0.671,0.122,406.415
149271,165386,14198,-0.047,-0.945,-0.186,1.829,0.793,0.122,406.421
149319,165571,13990,-0.046,-0.943,-0.186,1.829,0.793,0.122,406.425
149319,165411,14212,-0.044,-0.943,-0.184,1.22,0.61,0.122,406.431
149361,165571,13990,-0.044,-0.941,-0.184,1.22,0.61,0.122,406.434
149361,165492,14222,-0.043,-0.945,-0.189,0.122,0.366,0.488,406.441
149387,165571,13990,-0.044,-0.946,-0.193,0.122,0.366,0.488,406.444
149387,165479,14209,-0.046,-0.944,-0.191,-0.732,0.183,0.915,406.451
149377,165571,13990,-0.046,-0.946,-0.194,-0.732,0.183,0.915,406.454
149377,165478,14217,-0.05,-0.944,-0.197,-0.976,0.061,1.159,406.46
149391,165571,13990,-0.05,-0.94,-0.192,-0.976,0.061,1.159,406.464
149391,165460,14207,-0.049,-0.943,-0.191,-1.159,-0.061,1.159,406.47
149366,165571,13990,-0.052,-0.943,-0.193,-1.159,-0.061,1.159,406.474
149366,165456,14228,-0.053,-0.941,-0.196,-1.341,-0.061,0.976,406.48
149348,165571,13990,-0.053,-0.942,-0.191,-1.341,-0.061,0.976,406.484
149348,165472,14207,-0.055,-0.943,-0.194,-1.585,-0.061,0.61,406.49
149378,165571,13990,-0.055,-0.945,-0.196,-1.585,-0.061,0.61,406.494
149378,165463,14220,-0.055,-0.943,-0.193,-1.585,0,0.183,406.5
149393,165571,13990,-0.052,-0.941,-0.193,-1.585,0,0.183,406.504
149393,165476,14202,-0.051,-0.945,-0.197,-0.976,0.061,-0.122,406.51
149397,165571,13990,-0.05,-0.945,-0.198,-0.976,0.061,-0.122,406.514
149397,165466,14225,-0.046,-0.944,-0.195,-0.732,0.122,-0.183,406.52
149384,165571,13990,-0.047,-0.946,-0.196,-0.732,0.122,-0.183,406.523
149384,165483,14217,-0.046,-0.948,-0.202,-0.427,0.305,0,406.53
149361,165571,13990,-0.046,-0.948,-0.202,-0.427,0.305,0,406.533
149361,165442,14214,-0.044,-0.943,-0.196,0.305,0.427,0.366,406.54
149355,165571,13990,-0.044,-0.943,-0.196,0.305,0.427,0.366,406.543
149355,165431,14215,-0.046,-0.942,-0.199,0.61,0.427,0.671,406.549
149357,165571,13990,-0.046,-0.942,-0.199,0.61,0.427,0.671,406.553
149357,165443,14221,-0.049,-0.943,-0.197,0.488,0.488,0.793,406.559
149405,165571,13990,-0.049,-0.943,-0.197,0.488,0.488,0.793,406.563
149405,165458,14212,-0.053,-0.94,-0.193,0.366,0.427,0.793,406.569
149389,165571,13990,-0.053,-0.94,-0.193,0.366,0.427,0.793,406.573
149389,165494,14222,-0.052,-0.945,-0.193,0,0.427,0.854,406.579
149417,165571,13990,-0.052,-0.945,-0.193,0,0.427,0.854,406.583
149417,165481,14210,-0.053,-0.945,-0.197,-0.366,0.427,0.61,406.589
149415,165571,13990,-0.053,-0.945,-0.197,-0.366,0.427,0.61,406.593
149415,165500,14212,-0.052,-0.942,-0.194,-0.427,0.488,0.366,406.599
149393,165571,13990,-0.052,-0.942,-0.194,-0.427,0.488,0.366,406.603
149393,165471,14215,-0.051,-0.946,-0.193,0.366,0.488,0.427,406.609
149329,165571,13990,-0.051,-0.946,-0.193,0.366,0.488,0.427,406.613
149329,165428,14214,-0.049,-0.945,-0.195,0.427,0.549,0.305,406.619
149345,165571,13990,-0.049,-0.945,-0.195,0.427,0.549,0.305,406.623
149345,165434,14212,-0.05,-0.943,-0.196,0.366,0.427,0.366,406.629
149322,165571,13990,-0.05,-0.943,-0.196,0.366,0.427,0.366,406.632
149322,165387,14203,-0.046,-0.938,-0.188,0.305,0.549,0.488,406.639
149329,165571,13990,-0.046,-0.938,-0.188,0.305,0.549,0.488,406.642
149329,165397,14201,-0.052,-0.942,-0.196,-0.122,0.427,0.549,406.648
149312,165571,13990,-0.052,-0.942,-0.196,-0.122,0.427,0.549,406.652
149312,165421,14203,-0.048,-0.945,-0.195,-0.427,0.366,0.549,406.658
149348,165571,13990,-0.048,-0.945,-0.195,-0.427,0.366,0.549,406.662
149348,165446,14221,-0.05,-0.944,-0.194,-0.488,0.366,0.488,406.668
149374,165571,13990,-0.05,-0.944,-0.194,-0.488,0.366,0.488,406.672
149374,165478,14209,-0.048,-0.943,-0.201,-0.488,0.366,0.488,406.678
149431,165571,13990,-0.049,-0.947,-0.195,-0.366,0.549,0.366,406.682
149431,165530,14220,-0.05,-0.944,-0.197,-0.366,0.549,0.366,406.688
149492,165571,13990,-0.051,-0.944,-0.198,0.244,0.549,0.366,406.692
149492,165553,14224,-0.046,-0.945,-0.198,0.244,0.549,0.366,406.698
149534,165571,13990,-0.047,-0.943,-0.192,0.488,0.549,0.488,406.702
149534,165582,14244,-0.048,-0.942,-0.188,0.488,0.549,0.488,406.708
149581,165827,13990,-0.05,-0.941,-0.182,0.366,0.366,0.793,406.712
149581,165636,14228,-0.049,-0.941,-0.179,0.366,0.366,0.793,406.718
149606,165571,13990,-0.05,-0.939,-0.175,-0.61,0.183,0.854,406.721
149606,165629,14237,-0.05,-0.938,-0.182,-0.61,0.183,0.854,406.728
149589,165827,13990,-0.048,-0.942,-0.193,-2.012,0.122,0.671,406.731
149589,165636,14228,-0.048,-0.945,-0.193,-2.012,0.122,0.671,406.738
149552,165571,13990,-0.051,-0.948,-0.197,-2.683,0,0.793,406.741
149552,165622,14229,-0.048,-0.948,-0.204,-2.683,0,0.793,406.747
149509,165571,13990,-0.052,-0.947,-0.207,-2.256,0.061,0.915,406.751
149509,165564,14231,-0.052,-0.946,-0.208,-2.256,0.061,0.915,406.757
149419,165571,13990,-0.053,-0.946,-0.204,-1.159,0.427,0.732,406.761
149419,165529,14236,-0.05,-0.944,-0.198,-1.159,0.427,0.732,406.767
149346,165571,13990,-0.052,-0.944,-0.199,-0.122,0.549,0.549,406.771
149346,165461,14211,-0.049,-0.945,-0.203,-0.122,0.549,0.549,406.777
149261,165571,13990,-0.045,-0.947,-0.199,0.244,0.61,0.427,406.781
149261,165399,14191,-0.046,-0.941,-0.193,0.244,0.61,0.427,406.787
149228,165571,13990,-0.049,-0.938,-0.19,0.61,0.61,0.427,406.791
149228,165376,14200,-0.049,-0.941,-0.195,0.61,0.61,0.427,406.797
149180,165315,13990,-0.05,-0.94,-0.197,0.488,0.671,0.366,406.801
149180,165323,14202,-0.048,-0.942,-0.193,0.488,0.671,0.366,406.807
149208,165315,13990,-0.046,-0.942,-0.193,0.366,0.366,0.366,406.811
149208,165316,14177,-0.049,-0.941,-0.194,0.366,0.366,0.366,406.817
149194,165315,13990,-0.051,-0.945,-0.192,0.061,0.305,0.488,406.821
149194,165337,14193,-0.046,-0.945,-0.191,0.061,0.305,0.488,406.827
149233,165571,13990,-0.049,-0.942,-0.197,-0.244,0.305,0.549,406.83
149233,165379,14203,-0.048,-0.946,-0.197,-0.244,0.305,0.549,406.837
149254,165315,13990,-0.048,-0.945,-0.193,-0.305,0.305,0.61,406.84
149254,165367,14208,-0.053,-0.942,-0.195,-0.305,0.305,0.61,406.846
149253,165571,13990,-0.052,-0.942,-0.193,-0.305,0.366,0.61,406.85
149253,165386,14195,-0.053,-0.942,-0.197,-0.305,0.366,0.61,406.856
149258,165571,13990,-0.052,-0.944,-0.199,-0.244,0.427,0.488,406.86
149258,165400,14202,-0.053,-0.943,-0.193,-0.244,0.427,0.488,406.866
149275,165571,13990,-0.053,-0.941,-0.193,0.183,0.488,0.366,406.87
149275,165430,14191,-0.053,-0.941,-0.191,0.183,0.488,0.366,406.876
149314,165571,13990,-0.052,-0.943,-0.191,0.061,0.488,0.366,406.88
149314,165441,14203,-0.051,-0.944,-0.19,0.061,0.488,0.366,406.886
149354,165571,13990,-0.051,-0.943,-0.186,-0.427,0.366,0.305,406.89
149354,165478,14223,-0.052,-0.945,-0.189,-0.427,0.366,0.305,406.896
149363,165571,13990,-0.05,-0.941,-0.191,-0.793,0.366,0.244,406.9
149363,165516,14207,-0.049,-0.945,-0.193,-0.793,0.366,0.244,406.906
149400,165571,13990,-0.048,-0.946,-0.196,-1.159,0.366,0.366,406.91
149400,165488,14215,-0.048,-0.943,-0.193,-1.159,0.366,0.366,406.916
149404,165571,13990,-0.049,-0.943,-0.195,-1.159,0.305,0.366,406.92
149404,165541,14223,-0.05,-0.946,-0.198,-1.159,0.305,0.366,406.926
149438,165571,13990,-0.051,-0.944,-0.203,-1.22,0.305,0.366,406.929
149438,165532,14218,-0.05,-0.945,-0.203,-1.22,0.305,0.366,406.936
149427,165571,13990,-0.047,-0.942,-0.202,-0.488,0.366,0.366,406.939
149427,165555,14228,-0.05,-0.945,-0.199,-0.488,0.366,0.366,406.945
149444,165571,13990,-0.05,-0.943,-0.197,0.366,0.427,0.427,406.949
149444,165532,14238,-0.047,-0.944,-0.193,0.366,0.427,0.427,406.955
149478,165571,13990,-0.049,-0.946,-0.187,0.427,0.488,0.427,406.959
149478,165579,14249,-0.048,-0.943,-0.19,0.427,0.488,0.427,406.965
149513,165571,13990,-0.048,-0.943,-0.192,-0.244,0.427,0.427,406.969
149513,165603,14238,-0.049,-0.943,-0.193,-0.244,0.427,0.427,406.975
149563,165827,13990,-0.05,-0.944,-0.191,-0.793,0.305,0.427,406.979
149563,165639,14230,-0.05,-0.943,-0.191,-0.793,0.305,0.427,406.985
149602,165571,13990,-0.048,-0.94,-0.191,-0.854,0.183,0.488,406.989
149602,165624,14238,-0.047,-0.944,-0.197,-0.854,0.183,0.488,406.995
149560,165827,13990,-0.054,-0.948,-0.197,-1.098,0.244,0.671,406.999
149560,165639,14236,-0.054,-0.945,-0.197,-1.098,0.244,0.671,407.005
149491,165571,13990,-0.053,-0.944,-0.2,-1.159,0.305,0.732,407.009
149491,165557,14209,-0.051,-0.944,-0.202,-1.159,0.305,0.732,407.015
149409,165571,13990,-0.055,-0.944,-0.196,-0.488,0.305,0.61,407.019
149409,165530,14211,-0.053,-0.946,-0.194,-0.488,0.305,0.61,407.025
149373,165571,13990,-0.054,-0.944,-0.205,0,0.427,0.305,407.028
149373,165463,14205,-0.052,-0.943,-0.203,0,0.427,0.305,407.035
149324,165571,13990,-0.051,-0.941,-0.193,0.366,0.549,0.122,407.038
149324,165441,14223,-0.05,-0.942,-0.193,0.366,0.549,0.122,407.044
149361,165571,13990,-0.05,-0.941,-0.189,0.732,0.549,0.122,407.048
149361,165477,14207,-0.049,-0.942,-0.189,0.732,0.549,0.122,407.054
149384,165571,13990,-0.048,-0.945,-0.193,0.244,0.488,0.122,407.058
149384,165482,14207,-0.047,-0.943,-0.191,0.244,0.488,0.122,407.064
149433,165571,13990,-0.047,-0.943,-0.193,-0.488,0.366,0.183,407.068
149433,165542,14230,-0.049,-0.945,-0.191,-0.488,0.366,0.183,407.074
149444,165571,13990,-0.046,-0.943,-0.189,-0.915,0.305,0.366,407.078
149444,165546,14220,-0.049,-0.942,-0.193,-0.915,0.305,0.366,407.084
149484,165571,13990,-0.05,-0.943,-0.202,-1.585,0.305,0.488,407.088
149484,165596,14232,-0.052,-0.947,-0.198,-1.585,0.305,0.488,407.094
149507,165571,13990,-0.051,-0.944,-0.198,-1.524,0.244,0.61,407.098
149507,165605,14225,-0.051,-0.943,-0.199,-1.524,0.244,0.61,407.104
149526,165827,13990,-0.053,-0.942,-0.203,-1.22,0.244,0.671,407.108
149526,165632,14221,-0.051,-0.947,-0.205,-1.22,0.244,0.671,407.114
149560,165827,13990,-0.051,-0.947,-0.205,-1.22,0.244,0.671,407.118
149560,165641,14238,-0.052,-0.941,-0.206,-0.793,0.305,0.549,407.124
149562,165827,13990,-0.052,-0.941,-0.206,-0.793,0.305,0.549,407.127
149562,165675,14240,-0.05,-0.94,-0.19,0.244,0.366,0.244,407.134
149606,165827,13990,-0.05,-0.94,-0.19,0.244,0.366,0.244,407.137
149606,165660,14250,-0.05,-0.941,-0.198,0.671,0.549,0,407.143
149623,165827,13990,-0.05,-0.941,-0.198,0.671,0.549,0,407.147
149623,165702,14234,-0.047,-0.941,-0.193,0.183,0.549,-0.061,407.153
149623,165827,13990,-0.047,-0.941,-0.193,0.183,0.549,-0.061,407.157
149623,165673,14254,-0.048,-0.943,-0.188,0.122,0.427,-0.061,407.163
149598,165827,13990,-0.048,-0.943,-0.188,0.122,0.427,-0.061,407.167
149598,165671,14236,-0.048,-0.945,-0.199,-0.244,0.366,0.183,407.173
149576,165827,13990,-0.048,-0.945,-0.199,-0.244,0.366,0.183,407.177
149576,165678,14242,-0.048,-0.94,-0.2,-0.793,0.427,0.427,407.183
149545,165571,13990,-0.048,-0.94,-0.2,-0.793,0.427,0.427,407.187
149545,165631,14224,-0.052,-0.945,-0.203,-0.61,0.427,0.427,407.193
149502,165571,13990,-0.052,-0.945,-0.203,-0.61,0.427,0.427,407.197
149502,165590,14228,-0.052,-0.945,-0.195,-0.183,0.488,0.488,407.203
149494,165571,13990,-0.052,-0.945,-0.195,-0.183,0.488,0.488,407.207
149494,165567,14235,-0.051,-0.946,-0.199,0.122,0.427,0.244,407.213
149505,165571,13990,-0.051,-0.946,-0.199,0.122,0.427,0.244,407.217
149505,165595,14236,-0.052,-0.944,-0.196,0.183,0.427,0.122,407.223
149533,165571,13990,-0.052,-0.944,-0.196,0.183,0.427,0.122,407.226
149533,165624,14222,-0.05,-0.944,-0.195,0.183,0.366,0.061,407.233
149532,165571,13990,-0.05,-0.944,-0.195,0.183,0.366,0.061,407.236
149532,165564,14235,-0.047,-0.945,-0.199,-0.122,0.366,0.061,407.243
149525,165571,13990,-0.047,-0.945,-0.199,-0.122,0.366,0.061,407.246
149525,165591,14227,-0.049,-0.942,-0.19,-0.122,0.366,0.244,407.252
149507,165571,13990,-0.049,-0.942,-0.19,-0.122,0.366,0.244,407.256
149507,165592,14233,-0.048,-0.941,-0.196,-0.305,0.305,0.488,407.262
149482,165571,13990,-0.048,-0.944,-0.201,-0.305,0.305,0.488,407.266
149482,165560,14225,-0.048,-0.947,-0.202,-0.732,0.305,0.488,407.272
149435,165571,13990,-0.048,-0.943,-0.202,-0.732,0.305,0.488,407.276
149435,165534,14228,-0.049,-0.941,-0.198,-0.244,0.427,0.488,407.282
149450,165571,13990,-0.052,-0.942,-0.198,-0.244,0.427,0.488,407.286
149450,165553,14215,-0.052,-0.941,-0.202,0.305,0.427,0.488,407.292
149420,165571,13990,-0.051,-0.939,-0.2,0.305,0.427,0.488,407.296
149420,165551,14205,-0.055,-0.943,-0.198,0.549,0.488,0.305,407.302
149471,165571,13990,-0.052,-0.943,-0.196,0.549,0.488,0.305,407.306
149471,165563,14218,-0.051,-0.944,-0.193,0.854,0.427,0.183,407.312
149484,165571,13990,-0.053,-0.946,-0.193,0.854,0.427,0.183,407.316
149484,165589,14226,-0.051,-0.945,-0.191,0.732,0.427,0,407.322
149518,165571,13990,-0.051,-0.943,-0.192,0.732,0.427,0,407.325
149518,165599,14219,-0.047,-0.943,-0.194,0.305,0.427,-0.061,407.332
149507,165571,13990,-0.045,-0.942,-0.195,0.305,0.427,-0.061,407.335
149507,165599,14224,-0.049,-0.945,-0.19,0.244,0.427,0.122,407.341
149512,165571,13990,-0.049,-0.945,-0.19,0.244,0.427,0.122,407.345
149512,165601,14215,-0.049,-0.943,-0.196,0,0.366,0.366,407.351
149474,165571,13990,-0.047,-0.946,-0.197,0,0.366,0.366,407.355
149474,165570,14233,-0.045,-0.943,-0.197,-0.244,0.366,0.61,407.361
149458,165571,13990,-0.049,-0.943,-0.2,-0.244,0.366,0.61,407.365
149458,165543,14209,-0.052,-0.945,-0.196,0,0.366,0.61,407.371
149421,165571,13990,-0.054,-0.944,-0.197,0,0.366,0.61,407.375
149421,165537,14218,-0.053,-0.942,-0.195,0.061,0.427,0.61,407.381
149411,165571,13990,-0.048,-0.946,-0.198,0.061,0.427,0.61,407.385
149411,165506,14215,-0.049,-0.944,-0.195,0.122,0.427,0.427,407.391
149399,165571,13990,-0.052,-0.944,-0.197,0.122,0.427,0.427,407.395
149399,165537,14210,-0.053,-0.944,-0.2,0.305,0.366,0.122,407.401
149430,165571,13990,-0.049,-0.943,-0.198,0.305,0.366,0.122,407.405
149430,165515,14211,-0.051,-0.943,-0.196,0.549,0.427,0,407.411
149417,165571,13990,-0.051,-0.945,-0.197,0.549,0.427,0,407.415
149417,165550,14213,-0.048,-0.946,-0.196,0.671,0.488,0.061,407.421
149440,165571,13990,-0.046,-0.944,-0.193,0.671,0.488,0.061,407.424
149440,165549,14220,-0.047,-0.942,-0.188,0.61,0.549,0.183,407.431
149459,165571,13990,-0.048,-0.942,-0.191,0.61,0.549,0.183,407.434
149459,165581,14231,-0.045,-0.946,-0.188,0.061,0.427,0.427,407.441
149452,165571,13990,-0.048,-0.943,-0.187,0.061,0.427,0.427,407.444
149452,165567,14211,-0.049,-0.941,-0.195,-0.61,0.305,0.671,407.45
149444,165571,13990,-0.051,-0.942,-0.197,-0.61,0.305,0.671,407.454
149444,165537,14224,-0.049,-0.948,-0.194,-0.732,0.305,0.61,407.46
149465,165571,13990,-0.05,-0.945,-0.194,-0.732,0.305,0.61,407.464
149465,165546,14200,-0.054,-0.947,-0.195,-0.549,0.305,0.488,407.47
149427,165571,13990,-0.053,-0.944,-0.201,-0.549,0.305,0.488,407.474
149427,165555,14217,-0.053,-0.943,-0.194,-0.122,0.305,0.305,407.48
149463,165571,13990,-0.053,-0.942,-0.19,-0.122,0.305,0.305,407.484
149463,165556,14216,-0.049,-0.943,-0.192,0.183,0.427,0.183,407.49
149447,165571,13990,-0.05,-0.943,-0.191,0.183,0.427,0.183,407.494
149447,165550,14232,-0.052,-0.944,-0.192,0.061,0.488,0,407.5
149478,165571,13990,-0.049,-0.944,-0.196,0.061,0.488,0,407.504
149478,165568,14204,-0.046,-0.946,-0.195,0,0.366,0,407.51
149438,165571,13990,-0.044,-0.944,-0.195,0,0.366,0,407.514
149438,165518,14231,-0.046,-0.942,-0.192,0,0.366,0.061,407.52
149452,165571,13990,-0.049,-0.941,-0.192,0,0.366,0.061,407.523
149452,165533,14229,-0.048,-0.94,-0.197,0.061,0.427,0.244,407.53
149406,165571,13990,-0.047,-0.943,-0.196,0.061,0.427,0.244,407.533
149406,165526,14219,-0.046,-0.942,-0.194,0,0.427,0.427,407.539
149434,165571,13990,-0.047,-0.941,-0.194,0,0.427,0.427,407.543
149434,165524,14213,-0.052,-0.944,-0.194,-0.183,0.183,0.61,407.549
149393,165571,13990,-0.051,-0.946,-0.194,-0.183,0.183,0.61,407.553
149393,165489,14209,-0.049,-0.948,-0.198,-0.549,0.183,0.549,407.559
149405,165571,13990,-0.05,-0.943,-0.195,-0.549,0.183,0.549,407.563
149405,165517,14215,-0.05,-0.943,-0.193,-0.366,0.183,0.427,407.569
149434,165571,13990,-0.053,-0.944,-0.195,-0.366,0.183,0.427,407.573
149434,165551,14228,-0.052,-0.944,-0.193,-0.305,0.305,0.244,407.579
149423,165571,13990,-0.052,-0.943,-0.197,-0.305,0.305,0.244,407.583
149423,165533,14207,-0.049,-0.944,-0.2,-0.427,0.427,0.122,407.589
149394,165571,13990,-0.048,-0.946,-0.194,-0.427,0.427,0.122,407.593
149394,165497,14210,-0.05,-0.943,-0.188,0,0.427,0.122,407.599
149364,165571,13990,-0.045,-0.939,-0.19,0,0.427,0.122,407.603
149364,165499,14207,-0.047,-0.944,-0.192,-0.244,0.427,0.244,407.609
149340,165571,13990,-0.049,-0.946,-0.189,-0.244,0.427,0.244,407.613
149340,165473,14200,-0.048,-0.939,-0.193,-0.488,0.427,0.366,407.619
149323,165571,13990,-0.049,-0.941,-0.189,-0.488,0.427,0.366,407.622
149323,165472,14215,-0.048,-0.942,-0.191,-0.671,0.183,0.488,407.629
149317,165571,13990,-0.046,-0.941,-0.192,-0.671,0.183,0.488,407.632
149317,165433,14202,-0.047,-0.946,-0.197,-1.159,0.122,0.671,407.638
149303,165571,13990,-0.049,-0.944,-0.197,-1.159,0.122,0.671,407.642
149303,165447,14193,-0.047,-0.945,-0.199,-1.524,0.183,0.793,407.648
149280,165571,13990,-0.05,-0.943,-0.203,-1.524,0.183,0.793,407.652
149280,165408,14205,-0.051,-0.942,-0.204,-1.341,0.183,0.793,407.658
149284,165571,13990,-0.051,-0.944,-0.206,-1.341,0.183,0.793,407.662
149284,165440,14197,-0.051,-0.945,-0.205,-0.61,0.366,0.61,407.668
149281,165571,13990,-0.05,-0.945,-0.206,-0.61,0.366,0.61,407.672
149281,165411,14190,-0.049,-0.942,-0.201,0.305,0.488,0.427,407.678
149281,165571,13990,-0.05,-0.943,-0.198,0.305,0.488,0.427,407.682
149281,165404,14201,-0.052,-0.941,-0.195,1.037,0.427,0.366,407.688
149289,165571,13990,-0.052,-0.942,-0.193,1.037,0.427,0.366,407.692
149289,165417,14208,-0.048,-0.944,-0.192,1.037,0.488,0.244,407.698
149326,165571,13990,-0.049,-0.945,-0.192,1.037,0.488,0.244,407.702
149326,165420,14200,-0.052,-0.943,-0.189,0.854,0.488,0.244,407.708
149316,165571,13990,-0.052,-0.943,-0.189,0.854,0.488,0.244,407.712
149316,165459,14204,-0.051,-0.942,-0.185,0.244,0.366,0.305,407.718
