134292,153027,13990,-0.012,-0.959,-0.09,-1.463,-0.732,-0.61,264.094
134292,152873,12667,-0.005,-0.955,-0.119,-3.659,-1.585,-1.402,264.101
134260,153027,13990,-0.004,-0.966,-0.138,-3.659,-1.585,-1.402,264.104
134260,152869,12686,-0.001,-0.986,-0.143,-3.232,-0.854,-0.793,264.11
134280,153027,13990,0.001,-0.995,-0.138,-3.232,-0.854,-0.793,264.114
134280,152880,12682,0.003,-0.987,-0.132,-0.244,0.549,0.122,264.12
134261,153027,13990,-0.004,-0.974,-0.122,-0.244,0.549,0.122,264.124
134261,152857,12671,-0.008,-0.965,-0.115,2.317,1.524,1.646,264.13
134204,152771,13990,-0.013,-0.967,-0.098,2.317,1.524,1.646,264.134
134204,152807,12675,-0.019,-0.965,-0.087,3.537,1.768,2.195,264.14
134237,153027,13990,-0.027,-0.955,-0.065,3.537,1.768,2.195,264.144
134237,152867,12680,-0.027,-0.947,-0.053,2.805,1.098,1.585,264.15
134174,152771,13990,-0.025,-0.941,-0.073,2.805,1.098,1.585,264.154
134174,152810,12667,-0.023,-0.948,-0.073,0.183,0.244,0.549,264.16
134145,152771,13990,-0.019,-0.957,-0.082,0.183,0.244,0.549,264.164
134145,152781,12668,-0.015,-0.96,-0.093,-1.707,-0.427,-0.793,264.17
134119,152771,13990,-0.014,-0.957,-0.093,-1.707,-0.427,-0.793,264.174
134119,152775,12664,-0.01,-0.954,-0.099,-2.439,-0.793,-0.854,264.18
134109,152771,13990,-0.007,-0.955,-0.116,-2.439,-0.793,-0.854,264.184
134109,152770,12653,-0.008,-0.967,-0.129,-2.561,-0.366,-0.549,264.19
134046,152771,13990,-0.006,-0.981,-0.135,-2.561,-0.366,-0.549,264.193
134046,152716,12653,0.003,-0.989,-0.135,-1.28,0.244,-0.061,264.2
134014,152771,13990,-0.002,-0.984,-0.132,-1.28,0.244,-0.061,264.203
134014,152701,12636,-0.004,-0.98,-0.112,1.707,1.159,1.159,264.209
133914,152771,13990,-0.008,-0.962,-0.108,1.707,1.159,1.159,264.213
133914,152607,12624,-0.013,-0.955,-0.1,3.354,2.195,1.89,264.219
133810,152515,13990,-0.021,-0.96,-0.067,3.354,2.195,1.89,264.223
133810,152545,12622,-0.024,-0.956,-0.051,3.171,2.012,1.646,264.229
133839,152771,13990,-0.025,-0.938,-0.075,3.171,2.012,1.646,264.233
133839,152579,12626,-0.024,-0.945,-0.089,-0.366,1.098,0.671,264.239
133796,152515,13990,-0.018,-0.964,-0.071,-0.366,1.098,0.671,264.243
133796,152528,12602,-0.018,-0.97,-0.062,-2.073,0,-0.427,264.249
133747,152515,13990,-0.013,-0.955,-0.088,-2.073,0,-0.427,264.253
133747,152517,12594,-0.014,-0.948,-0.101,-3.841,-0.854,-0.488,264.259
133737,152515,13990,-0.012,-0.962,-0.108,-3.841,-0.854,-0.488,264.263
133737,152513,12591,-0.004,-0.976,-0.131,-3.963,-0.854,-0.488,264.269
133709,152515,13990,0.001,-0.984,-0.147,-3.963,-0.854,-0.488,264.273
133709,152494,12592,0.003,-0.987,-0.141,-2.195,0.061,0.061,264.279
133639,152515,13990,-0.002,-0.975,-0.135,-2.195,0.061,0.061,264.282
133639,152459,12577,-0.006,-0.964,-0.123,1.829,1.402,1.463,264.289
133613,152515,13990,-0.012,-0.965,-0.11,1.829,1.402,1.463,264.292
133613,152446,12572,-0.013,-0.961,-0.097,3.659,2.378,1.951,264.299
133540,152515,13990,-0.018,-0.949,-0.086,3.659,2.378,1.951,264.302
133540,152382,12568,-0.023,-0.945,-0.069,3.232,2.378,1.646,264.308
133494,152515,13990,-0.026,-0.954,-0.052,3.232,2.378,1.646,264.312
133494,152401,12567,-0.027,-0.956,-0.046,1.22,1.28,1.037,264.318
133511,152515,13990,-0.028,-0.944,-0.057,1.22,1.28,1.037,264.322
133511,152368,12554,-0.022,-0.951,-0.07,-2.744,-0.122,0.122,264.328
133514,152515,13990,-0.014,-0.969,-0.073,-2.744,-0.122,0.122,264.332
133514,152394,12557,-0.008,-0.967,-0.084,-5.244,-1.28,-0.915,264.338
133427,152515,13990,-0.007,-0.955,-0.113,-5.244,-1.28,-0.915,264.342
133427,152351,12551,-0.011,-0.962,-0.14,-6.037,-1.524,-0.732,264.348
133424,152515,13990,-0.008,-0.98,-0.141,-6.037,-1.524,-0.732,264.352
133424,152334,12534,-0.004,-0.984,-0.157,-4.329,-0.854,-0.305,264.358
133385,152259,13990,-0.005,-0.984,-0.149,-4.329,-0.854,-0.305,264.362
133385,152304,12533,-0.005,-0.98,-0.134,-0.488,0.305,0.732,264.368
133330,152259,13990,-0.008,-0.961,-0.133,-0.488,0.305,0.732,264.372
133330,152245,12526,-0.016,-0.954,-0.12,2.805,1.646,1.768,264.378
133344,152259,13990,-0.021,-0.954,-0.094,2.805,1.646,1.768,264.382
133344,152251,12537,-0.026,-0.951,-0.072,4.146,2.073,1.89,264.388
133351,152259,13990,-0.026,-0.944,-0.057,4.146,2.073,1.89,264.391
133351,152301,12525,-0.03,-0.94,-0.058,2.195,1.22,1.22,264.398
133372,152259,13990,-0.025,-0.946,-0.046,2.195,1.22,1.22,264.401
133372,152287,12531,-0.021,-0.958,-0.053,-1.28,-0.305,-0.305,264.407
133414,152515,13990,-0.021,-0.958,-0.053,-1.28,-0.305,-0.305,264.411
133414,152336,12527,-0.012,-0.971,-0.083,-4.573,-1.463,-1.646,264.417
133422,152515,13990,-0.012,-0.971,-0.083,-4.573,-1.463,-1.646,264.421
133422,152352,12532,-0,-0.957,-0.121,-5.488,-1.768,-1.524,264.427
133486,152515,13990,-0,-0.957,-0.121,-5.488,-1.768,-1.524,264.431
133486,152373,12552,0.006,-0.989,-0.168,-4.329,-1.098,-0.854,264.437
133460,152515,13990,0.006,-0.989,-0.168,-4.329,-1.098,-0.854,264.441
133460,152358,12544,0.006,-0.995,-0.149,0.305,0.488,0.488,264.447
133429,152515,13990,0.006,-0.995,-0.149,0.305,0.488,0.488,264.451
133429,152363,12548,-0.013,-0.957,-0.113,4.756,2.195,2.5,264.457
133438,152515,13990,-0.013,-0.957,-0.113,4.756,2.195,2.5,264.461
133438,152351,12541,-0.027,-0.946,-0.072,5.732,2.5,2.805,264.467
133449,152515,13990,-0.027,-0.946,-0.072,5.732,2.5,2.805,264.471
133449,152387,12563,-0.027,-0.939,-0.053,2.866,1.463,1.707,264.477
133468,152515,13990,-0.027,-0.939,-0.053,2.866,1.463,1.707,264.48
133468,152374,12553,-0.022,-0.951,-0.079,-0.976,-0.122,0.183,264.487
133479,152515,13990,-0.022,-0.951,-0.079,-0.976,-0.122,0.183,264.49
133479,152372,12544,-0.01,-0.974,-0.103,-3.963,-0.976,-1.037,264.497
133493,152515,13990,-0.01,-0.974,-0.103,-3.963,-0.976,-1.037,264.5
133493,152370,12544,-0.004,-0.985,-0.127,-3.963,-0.915,-0.976,264.506
133529,152515,13990,-0.004,-0.985,-0.127,-3.963,-0.915,-0.976,264.51
133529,152414,12583,-0.005,-0.974,-0.126,-1.22,0.183,-0.122,264.516
133569,152515,13990,-0.005,-0.974,-0.126,-1.22,0.183,-0.122,264.52
133569,152424,12560,-0.009,-0.96,-0.12,1.646,1.341,0.976,264.526
133556,152515,13990,-0.009,-0.96,-0.12,1.646,1.341,0.976,264.53
133556,152446,12563,-0.02,-0.945,-0.086,3.537,1.768,1.524,264.536
133547,152515,13990,-0.02,-0.945,-0.086,3.537,1.768,1.524,264.54
133547,152447,12560,-0.024,-0.943,-0.077,2.439,1.341,1.22,264.546
133633,152515,13990,-0.024,-0.943,-0.077,2.439,1.341,1.22,264.55
133633,152493,12571,-0.027,-0.951,-0.083,2.439,1.341,1.22,264.556
133629,152515,13990,-0.02,-0.959,-0.065,-0.183,0.183,0.244,264.56
133629,152477,12578,-0.017,-0.954,-0.06,-0.183,0.183,0.244,264.566
133664,152515,13990,-0.021,-0.963,-0.076,-2.5,-1.341,-0.488,264.57
133664,152482,12577,-0.013,-0.969,-0.099,-2.5,-1.341,-0.488,264.576
133704,152515,13990,-0.002,-0.973,-0.128,-5.183,-1.707,-1.22,264.579
133704,152541,12594,0.002,-0.979,-0.133,-5.183,-1.707,-1.22,264.586
133737,152515,13990,0.002,-0.976,-0.132,-3.902,-1.037,-1.22,264.589
133737,152568,12561,-0.003,-0.97,-0.137,-3.902,-1.037,-1.22,264.596
133706,152515,13990,-0.004,-0.972,-0.146,-0.793,0.549,0,264.599
133706,152546,12590,-0.008,-0.976,-0.143,-0.793,0.549,0,264.605
133702,152515,13990,-0.007,-0.972,-0.129,2.622,1.829,0.915,264.609
133702,152521,12572,-0.008,-0.967,-0.112,2.622,1.829,0.915,264.615
133678,152515,13990,-0.017,-0.967,-0.074,4.695,2.378,1.768,264.619
133678,152528,12578,-0.025,-0.958,-0.042,4.695,2.378,1.768,264.625
133681,152515,13990,-0.03,-0.936,-0.058,3.476,1.707,1.951,264.629
133681,152546,12586,-0.031,-0.939,-0.072,3.476,1.707,1.951,264.635
133669,152515,13990,-0.026,-0.959,-0.043,-1.037,0.244,0.305,264.639
133669,152528,12576,-0.018,-0.964,-0.059,-1.037,0.244,0.305,264.645
133724,152515,13990,-0.009,-0.948,-0.104,-4.756,-1.463,-1.159,264.649
133724,152522,12592,-0.009,-0.949,-0.123,-4.756,-1.463,-1.159,264.655
133791,152515,13990,-0.004,-0.968,-0.135,-5.915,-1.768,-1.159,264.659
133791,152571,12594,0.002,-0.988,-0.151,-5.915,-1.768,-1.159,264.665
133784,152515,13990,0.007,-1,-0.158,-3.049,-0.732,-0.793,264.669
133784,152561,12599,0.009,-0.989,-0.145,-3.049,-0.732,-0.793,264.675
133811,152771,13990,-0.005,-0.958,-0.124,2.134,0.854,1.098,264.678
133811,152587,12589,-0.018,-0.948,-0.11,2.134,0.854,1.098,264.685
133755,152515,13990,-0.023,-0.955,-0.091,4.573,2.073,2.439,264.688
133755,152554,12604,-0.022,-0.955,-0.078,4.573,2.073,2.439,264.695
133712,152515,13990,-0.021,-0.949,-0.067,3.415,1.829,1.524,264.698
133712,152516,12586,-0.024,-0.946,-0.065,3.415,1.829,1.524,264.704
133702,152515,13990,-0.025,-0.946,-0.069,0.549,0.549,0.61,264.708
133702,152546,12588,-0.027,-0.947,-0.076,0.549,0.549,0.61,264.714
133733,152515,13990,-0.024,-0.964,-0.07,-2.073,-0.549,-0.427,264.718
133733,152553,12600,-0.02,-0.971,-0.079,-2.073,-0.549,-0.427,264.724
133762,152771,13990,-0.014,-0.96,-0.084,-3.963,-1.22,-1.28,264.728
133762,152596,12592,-0.014,-0.955,-0.093,-3.963,-1.22,-1.28,264.734
133784,152771,13990,-0.014,-0.959,-0.114,-5,-1.646,-1.098,264.738
133784,152596,12601,-0.013,-0.972,-0.141,-5,-1.646,-1.098,264.744
133806,152771,13990,-0.006,-0.988,-0.162,-4.817,-1.159,-1.037,264.748
133806,152631,12604,0.007,-1.001,-0.164,-4.817,-1.159,-1.037,264.754
133850,152771,13990,0.013,-0.999,-0.152,-1.28,-0.061,-0.549,264.758
133850,152637,12604,0.005,-0.976,-0.148,-1.28,-0.061,-0.549,264.764
133873,152771,13990,-0.011,-0.961,-0.129,3.78,1.951,1.524,264.768
133873,152655,12607,-0.022,-0.956,-0.103,3.78,1.951,1.524,264.774
133948,152771,13990,-0.022,-0.947,-0.082,6.22,2.683,2.439,264.777
133948,152719,12626,-0.024,-0.931,-0.049,6.22,2.683,2.439,264.784
133997,152771,13990,-0.028,-0.922,-0.032,4.146,1.524,1.585,264.787
133997,152758,12635,-0.031,-0.919,-0.06,4.146,1.524,1.585,264.794
134042,152771,13990,-0.025,-0.945,-0.077,-1.707,-0.122,-0.366,264.797
134042,152789,12643,-0.017,-0.976,-0.072,-1.707,-0.122,-0.366,264.803
134098,152771,13990,-0.004,-0.974,-0.091,-5.061,-1.646,-1.951,264.807
134098,152817,12646,0.002,-0.967,-0.125,-5.061,-1.646,-1.951,264.813
134106,153027,13990,0,-0.984,-0.142,-6.159,-1.707,-1.402,264.817
134106,152835,12660,0.004,-1.002,-0.141,-6.159,-1.707,-1.402,264.823
134163,153027,13990,0.006,-0.992,-0.148,-2.988,-0.427,-0.305,264.827
134163,152876,12643,0,-0.971,-0.145,-2.988,-0.427,-0.305,264.833
134146,153027,13990,-0.007,-0.968,-0.129,1.28,1.098,1.341,264.837
134146,152858,12649,-0.009,-0.96,-0.125,1.28,1.098,1.341,264.843
134093,152771,13990,-0.015,-0.953,-0.119,4.085,2.378,1.951,264.847
134093,152828,12650,-0.019,-0.955,-0.094,4.085,2.378,1.951,264.853
134114,153027,13990,-0.023,-0.958,-0.075,4.695,2.439,1.89,264.857
134114,152841,12642,-0.03,-0.952,-0.059,4.695,2.439,1.89,264.863
134065,152771,13990,-0.03,-0.943,-0.043,2.988,1.646,1.402,264.867
134065,152827,12653,-0.03,-0.944,-0.05,2.988,1.646,1.402,264.873
134111,153027,13990,-0.026,-0.951,-0.079,-1.707,0.183,-0.061,264.876
134111,152834,12642,-0.017,-0.962,-0.079,-1.707,0.183,-0.061,264.883
134160,153027,13990,-0.014,-0.969,-0.09,-4.939,-1.159,-1.524,264.886
134160,152906,12669,-0.005,-0.973,-0.111,-4.939,-1.159,-1.524,264.893
134183,153027,13990,-0.001,-0.97,-0.135,-5.488,-1.646,-1.341,264.896
134183,152857,12661,-0.001,-0.971,-0.156,-5.488,-1.646,-1.341,264.902
134242,153027,13990,0.002,-0.983,-0.166,-3.415,-0.671,-0.61,264.906
134242,152914,12657,0.003,-0.996,-0.158,-3.415,-0.671,-0.61,264.912
134194,153027,13990,0.002,-0.986,-0.143,1.524,0.854,0.488,264.916
134194,152888,12673,-0.006,-0.966,-0.128,1.524,0.854,0.488,264.922
134225,153027,13990,-0.015,-0.96,-0.111,5.549,2.134,2.195,264.926
134225,152907,12663,-0.02,-0.952,-0.093,5.549,2.134,2.195,264.932
134255,153027,13990,-0.026,-0.947,-0.062,6.098,2.439,2.256,264.936
134255,152939,12677,-0.029,-0.94,-0.05,6.098,2.439,2.256,264.942
134307,153027,13990,-0.026,-0.931,-0.073,3.171,1.524,0.976,264.946
134307,152955,12675,-0.023,-0.937,-0.071,3.171,1.524,0.976,264.952
134315,153027,13990,-0.019,-0.958,-0.06,-0.793,-0.244,-0.488,264.956
134315,152999,12673,-0.016,-0.968,-0.068,-0.793,-0.244,-0.488,264.962
134352,153027,13990,-0.015,-0.962,-0.09,-3.354,-1.463,-1.037,264.966
134352,153044,12684,-0.008,-0.957,-0.111,-3.354,-1.463,-1.037,264.972
134407,153027,13990,-0.002,-0.965,-0.144,-4.817,-1.829,-0.854,264.975
134407,153086,12688,0.005,-0.995,-0.154,-4.817,-1.829,-0.854,264.982
134485,153283,13990,0.009,-1.014,-0.145,-2.744,-0.793,-0.549,264.985
134485,153114,12700,0.004,-0.992,-0.13,-2.744,-0.793,-0.549,264.992
134432,153283,13990,0.004,-0.992,-0.13,-2.744,-0.793,-0.549,264.995
134432,153122,12684,-0.017,-0.947,-0.112,1.402,0.976,1.098,265.001
134374,153027,13990,-0.017,-0.947,-0.112,1.402,0.976,1.098,265.005
134374,153053,12673,-0.023,-0.955,-0.09,4.085,2.317,2.073,265.011
134312,153027,13990,-0.023,-0.955,-0.09,4.085,2.317,2.073,265.015
134312,153036,12680,-0.02,-0.942,-0.085,3.963,2.134,1.22,265.021
134363,153283,13990,-0.02,-0.942,-0.085,3.963,2.134,1.22,265.025
134363,153097,12681,-0.019,-0.952,-0.055,2.073,1.037,0.488,265.031
134432,153283,13990,-0.019,-0.952,-0.055,2.073,1.037,0.488,265.035
134432,153114,12689,-0.023,-0.951,-0.078,-0.183,-0.122,-0.122,265.041
134523,153283,13990,-0.023,-0.951,-0.078,-0.183,-0.122,-0.122,265.045
134523,153164,12696,-0.012,-0.962,-0.098,-3.354,-1.22,-0.793,265.051
134552,153283,13990,-0.012,-0.962,-0.098,-3.354,-1.22,-0.793,265.055
134552,153212,12708,0.001,-0.985,-0.141,-5,-1.89,-1.341,265.061
134550,153283,13990,0.001,-0.985,-0.141,-5,-1.89,-1.341,265.065
134550,153199,12689,0.011,-0.993,-0.159,-4.451,-1.463,-1.037,265.071
134589,153283,13990,0.011,-0.993,-0.159,-4.451,-1.463,-1.037,265.074
134589,153230,12733,-0.004,-0.97,-0.13,-0.549,0.122,0.244,265.081
134581,153283,13990,-0.004,-0.97,-0.13,-0.549,0.122,0.244,265.084
134581,153182,12701,-0.021,-0.944,-0.096,4.024,1.951,1.951,265.091
134601,153283,13990,-0.021,-0.944,-0.096,4.024,1.951,1.951,265.094
134601,153210,12719,-0.028,-0.94,-0.064,4.939,2.317,2.256,265.1
134617,153283,13990,-0.028,-0.94,-0.064,4.939,2.317,2.256,265.104
134617,153208,12710,-0.027,-0.944,-0.055,2.927,1.22,1.098,265.11
134607,153283,13990,-0.027,-0.944,-0.055,2.927,1.22,1.098,265.114
134607,153214,12702,-0.013,-0.975,-0.092,-0.549,-0.427,-0.305,265.12
134692,153283,13990,-0.013,-0.975,-0.092,-0.549,-0.427,-0.305,265.124
134692,153258,12710,0.003,-0.966,-0.112,-3.232,-1.707,-1.28,265.13
134753,153283,13990,0.003,-0.966,-0.112,-3.232,-1.707,-1.28,265.134
134753,153313,12717,-0.001,-0.965,-0.132,-3.537,-1.585,-0.671,265.14
134741,153283,13990,-0.003,-0.984,-0.137,-3.537,-1.585,-0.671,265.144
134741,153283,12722,0.001,-0.995,-0.136,-1.646,-0.366,0,265.15
134771,153283,13990,0.003,-0.986,-0.13,-1.646,-0.366,0,265.154
134771,153286,12713,-0.001,-0.967,-0.125,1.28,0.915,0.854,265.16
134702,153283,13990,-0.007,-0.956,-0.124,1.28,0.915,0.854,265.164
134702,153242,12737,-0.014,-0.955,-0.114,3.841,1.89,1.951,265.17
134677,153283,13990,-0.018,-0.96,-0.095,3.841,1.89,1.951,265.174
134677,153247,12712,-0.021,-0.959,-0.073,4.634,2.134,1.89,265.18
134652,153283,13990,-0.027,-0.946,-0.058,4.634,2.134,1.89,265.183
134652,153252,12733,-0.029,-0.932,-0.052,2.927,1.341,1.402,265.19
134693,153283,13990,-0.026,-0.932,-0.055,2.927,1.341,1.402,265.193
134693,153255,12738,-0.021,-0.95,-0.073,-0.976,-0.244,0.122,265.199
134725,153283,13990,-0.013,-0.964,-0.093,-0.976,-0.244,0.122,265.203
134725,153295,12724,-0.008,-0.975,-0.102,-3.841,-1.463,-1.098,265.209
134766,153283,13990,-0.003,-0.984,-0.109,-3.841,-1.463,-1.098,265.213
134766,153330,12743,-0.001,-0.978,-0.121,-3.659,-1.463,-1.098,265.219
134844,153539,13990,-0.005,-0.965,-0.143,-3.659,-1.463,-1.098,265.223
134844,153372,12736,-0.005,-0.978,-0.143,-2.134,-0.366,-0.061,265.229
134836,153539,13990,-0.004,-0.991,-0.131,-2.134,-0.366,-0.061,265.233
134836,153359,12750,-0.006,-0.978,-0.126,0.793,0.976,0.732,265.239
134820,153539,13990,-0.006,-0.959,-0.126,0.793,0.976,0.732,265.243
134820,153358,12748,-0.016,-0.954,-0.116,2.866,1.951,1.646,265.249
134805,153539,13990,-0.021,-0.96,-0.093,2.866,1.951,1.646,265.253
134805,153345,12739,-0.025,-0.956,-0.068,4.695,2.195,1.707,265.259
134840,153539,13990,-0.03,-0.938,-0.064,4.695,2.195,1.707,265.263
134840,153349,12749,-0.03,-0.933,-0.073,2.744,1.402,0.915,265.269
134806,153539,13990,-0.029,-0.945,-0.072,2.744,1.402,0.915,265.272
134806,153344,12743,-0.021,-0.961,-0.073,0.061,0,-0.549,265.279
134837,153539,13990,-0.014,-0.966,-0.092,0.061,0,-0.549,265.282
134837,153344,12757,-0.006,-0.973,-0.112,-2.5,-1.037,-1.402,265.289
134882,153539,13990,-0.004,-0.98,-0.115,-2.5,-1.037,-1.402,265.292
134882,153354,12752,-0.006,-0.979,-0.125,-2.317,-0.915,-1.22,265.298
134907,153539,13990,-0.005,-0.977,-0.137,-2.317,-0.915,-1.22,265.302
134907,153406,12746,-0.008,-0.986,-0.132,-0.549,-0.244,-0.488,265.308
134842,153283,13990,-0.015,-0.986,-0.132,-0.549,-0.244,-0.488,265.312
134842,153334,12751,-0.02,-0.973,-0.13,2.073,0.61,0,265.318
134807,153283,13990,-0.018,-0.964,-0.117,2.073,0.61,0,265.322
134807,153307,12738,-0.021,-0.959,-0.104,4.085,0.61,0.061,265.328
134773,153283,13990,-0.018,-0.951,-0.089,4.085,0.61,0.061,265.332
134773,153308,12742,-0.021,-0.948,-0.051,4.451,-0.061,-0.305,265.338
134798,153539,13990,-0.024,-0.938,-0.029,4.451,-0.061,-0.305,265.342
134798,153344,12732,-0.023,-0.922,-0.056,2.073,-0.976,-0.976,265.348
134864,153539,13990,-0.02,-0.934,-0.084,2.073,-0.976,-0.976,265.352
134864,153367,12758,-0.012,-0.969,-0.076,-2.073,-1.646,-1.951,265.358
134914,153539,13990,-0.006,-0.978,-0.098,-2.073,-1.646,-1.951,265.362
134914,153417,12768,-0.001,-0.98,-0.12,-3.598,-2.134,-2.256,265.368
134969,153539,13990,0.004,-0.979,-0.127,-3.598,-2.134,-2.256,265.372
134969,153414,12779,0.004,-0.974,-0.13,-2.073,-1.463,-1.28,265.378
134999,153539,13990,-0.001,-0.977,-0.124,-2.073,-1.463,-1.28,265.381
134999,153457,12787,-0.005,-0.978,-0.121,0.915,-0.061,-0.244,265.388
134985,153539,13990,-0.009,-0.967,-0.123,0.915,-0.061,-0.244,265.391
134985,153449,12774,-0.01,-0.956,-0.109,2.744,0.793,0.488,265.397
134965,153539,13990,-0.007,-0.95,-0.086,2.744,0.793,0.488,265.401
134965,153408,12759,-0.01,-0.944,-0.071,3.659,0.671,0.671,265.407
134939,153539,13990,-0.019,-0.936,-0.073,3.659,0.671,0.671,265.411
134939,153425,12775,-0.02,-0.938,-0.079,1.768,0.488,0.488,265.417
134977,153539,13990,-0.02,-0.952,-0.075,1.768,0.488,0.488,265.421
134977,153433,12764,-0.016,-0.961,-0.065,-0.549,-0.305,-0.61,265.427
134995,153539,13990,-0.009,-0.962,-0.089,-0.549,-0.305,-0.61,265.431
134995,153448,12780,-0.008,-0.973,-0.099,-2.561,-1.22,-1.22,265.437
135061,153539,13990,-0.006,-0.985,-0.095,-2.561,-1.22,-1.22,265.441
135061,153468,12770,-0.004,-0.986,-0.114,-3.293,-0.854,-1.22,265.447
135067,153539,13990,-0.004,-0.99,-0.132,-3.293,-0.854,-1.22,265.451
135067,153498,12796,-0.001,-0.992,-0.117,-2.073,-0.183,-0.732,265.457
135092,153539,13990,-0.002,-0.975,-0.114,-2.073,-0.183,-0.732,265.461
135092,153484,12781,-0.007,-0.955,-0.117,0.61,0.122,0.061,265.467
135087,153539,13990,-0.01,-0.949,-0.106,0.61,0.122,0.061,265.47
135087,153480,12778,-0.007,-0.948,-0.101,1.768,0.427,0.305,265.477
135109,153539,13990,-0.008,-0.946,-0.099,1.768,0.427,0.305,265.48
135109,153497,12790,-0.005,-0.943,-0.096,1.585,0.427,0.183,265.487
135042,153539,13990,-0.005,-0.956,-0.096,1.585,0.427,0.183,265.49
135042,153465,12768,-0.008,-0.964,-0.077,0.488,0.183,0.183,265.496
135065,153539,13990,-0.014,-0.959,-0.07,0.488,0.183,0.183,265.5
135065,153471,12783,-0.018,-0.953,-0.092,-0.549,0,0.244,265.506
135062,153539,13990,-0.017,-0.96,-0.099,-0.549,0,0.244,265.51
135062,153483,12782,-0.007,-0.978,-0.088,-1.098,-0.366,-0.305,265.516
135121,153539,13990,-0.004,-0.973,-0.095,-1.098,-0.366,-0.305,265.52
135121,153542,12795,-0.005,-0.962,-0.107,-1.159,-0.793,-0.549,265.526
135147,153539,13990,-0.001,-0.961,-0.114,-1.159,-0.793,-0.549,265.53
135147,153530,12783,-0.001,-0.968,-0.109,-0.61,-0.488,0.061,265.536
135143,153539,13990,0,-0.962,-0.107,-0.61,-0.488,0.061,265.54
135143,153540,12802,-0.002,-0.955,-0.109,-0.244,0.244,0.427,265.546
135154,153539,13990,-0.01,-0.967,-0.106,-0.244,0.244,0.427,265.55
135154,153517,12794,-0.009,-0.973,-0.109,-0.549,0.732,0.488,265.556
135106,153539,13990,-0.007,-0.965,-0.104,-0.549,0.732,0.488,265.56
135106,153536,12814,-0.009,-0.956,-0.101,-0.122,0.732,0.61,265.566
135116,153539,13990,-0.012,-0.955,-0.106,-0.122,0.732,0.61,265.57
135116,153526,12774,-0.012,-0.968,-0.099,-0.061,0.61,0.732,265.576
135131,153539,13990,-0.01,-0.971,-0.091,-0.061,0.61,0.732,265.579
135131,153528,12790,-0.007,-0.96,-0.099,0,0.366,0.427,265.586
135169,153539,13990,-0.007,-0.96,-0.099,0,0.366,0.427,265.589
135169,153565,12792,-0.012,-0.954,-0.089,0,0,0.488,265.595
135193,153539,13990,-0.012,-0.954,-0.089,0,0,0.488,265.599
135193,153571,12805,-0.007,-0.968,-0.101,-0.732,-0.122,0.183,265.605
135208,153539,13990,-0.007,-0.968,-0.101,-0.732,-0.122,0.183,265.609
135208,153570,12793,0.001,-0.971,-0.116,-1.159,-0.183,0,265.615
135149,153539,13990,0.001,-0.971,-0.116,-1.159,-0.183,0,265.619
135149,153535,12790,-0.002,-0.974,-0.095,-0.244,0.366,0.732,265.625
135155,153539,13990,-0.002,-0.974,-0.095,-0.244,0.366,0.732,265.629
135155,153555,12769,-0.011,-0.949,-0.102,-0.061,0.854,1.463,265.635
135156,153539,13990,-0.011,-0.949,-0.102,-0.061,0.854,1.463,265.639
135156,153577,12792,-0.012,-0.972,-0.092,-0.61,1.037,0.915,265.645
135150,153539,13990,-0.012,-0.972,-0.092,-0.61,1.037,0.915,265.649
135150,153583,12788,-0.014,-0.949,-0.093,-0.366,0.366,0.732,265.655
135151,153539,13990,-0.014,-0.949,-0.093,-0.366,0.366,0.732,265.659
135151,153570,12803,-0.017,-0.959,-0.09,-0.671,-0.183,0.732,265.665
135163,153539,13990,-0.017,-0.959,-0.09,-0.671,-0.183,0.732,265.668
135163,153585,12776,-0.013,-0.963,-0.11,-1.524,-0.549,0.244,265.675
135171,153539,13990,-0.013,-0.963,-0.11,-1.524,-0.549,0.244,265.678
135171,153568,12796,-0.011,-0.975,-0.103,-1.341,-0.61,0.183,265.685
135145,153539,13990,-0.011,-0.975,-0.103,-1.341,-0.61,0.183,265.688
135145,153562,12792,-0.005,-0.96,-0.118,-0.915,-0.244,0.488,265.694
135138,153539,13990,-0.005,-0.96,-0.118,-0.915,-0.244,0.488,265.698
135138,153569,12779,-0.014,-0.966,-0.109,-0.488,0.244,0.732,265.704
135134,153539,13990,-0.014,-0.966,-0.109,-0.488,0.244,0.732,265.708
135134,153563,12791,-0.01,-0.953,-0.088,0.122,0.488,0.732,265.714
135134,153539,13990,-0.01,-0.953,-0.088,0.122,0.488,0.732,265.718
135134,153563,12808,-0.017,-0.949,-0.094,-0.061,0.061,0.671,265.724
135209,153795,13990,-0.017,-0.949,-0.094,-0.061,0.061,0.671,265.728
135209,153619,12789,-0.012,-0.96,-0.1,-0.061,0.061,0.671,265.734
135215,153795,13990,-0.008,-0.974,-0.095,-0.915,-0.488,0.061,265.738
135215,153613,12791,-0.006,-0.977,-0.092,-0.915,-0.488,0.061,265.744
135211,153795,13990,-0.009,-0.968,-0.097,-0.61,-0.732,-0.061,265.748
135211,153633,12794,-0.017,-0.959,-0.109,-0.61,-0.732,-0.061,265.754
135177,153795,13990,-0.012,-0.968,-0.124,-0.427,-0.366,0.305,265.758
135177,153600,12793,-0.005,-0.978,-0.119,-0.427,-0.366,0.305,265.764
135189,153795,13990,-0.004,-0.98,-0.117,0.854,0,-0.061,265.767
135189,153607,12801,-0.006,-0.966,-0.113,0.854,0,-0.061,265.774
135148,153539,13990,-0.016,-0.952,-0.11,2.866,0.976,0.366,265.777
135148,153558,12794,-0.016,-0.947,-0.108,2.866,0.976,0.366,265.784
135158,153539,13990,-0.018,-0.951,-0.102,3.476,1.402,0.793,265.787
135158,153592,12779,-0.023,-0.949,-0.102,3.476,1.402,0.793,265.793
135091,153539,13990,-0.028,-0.957,-0.092,2.988,1.28,0.122,265.797
135091,153497,12777,-0.016,-0.963,-0.065,2.988,1.28,0.122,265.803
135065,153539,13990,-0.011,-0.951,-0.062,1.768,0.244,-0.793,265.807
135065,153516,12779,-0.011,-0.951,-0.068,1.768,0.244,-0.793,265.813
135018,153539,13990,-0.018,-0.968,-0.071,-0.427,-0.671,-1.22,265.817
135018,153494,12780,-0.021,-0.979,-0.072,-0.427,-0.671,-1.22,265.823
135009,153539,13990,-0.02,-0.977,-0.083,-1.768,-1.585,-1.402,265.827
135009,153471,12768,-0.025,-0.976,-0.096,-1.768,-1.585,-1.402,265.833
135036,153539,13990,-0.018,-0.975,-0.121,-2.5,-2.256,-1.037,265.837
135036,153500,12788,-0.01,-0.982,-0.143,-2.5,-2.256,-1.037,265.843
135068,153539,13990,-0.006,-1,-0.13,-1.28,-2.439,-0.976,265.847
135068,153507,12767,-0.002,-0.992,-0.136,-1.28,-2.439,-0.976,265.853
135077,153539,13990,-0.009,-0.967,-0.137,1.829,-1.402,-0.427,265.857
135077,153520,12791,-0.011,-0.957,-0.118,1.829,-1.402,-0.427,265.863
135096,153539,13990,-0.008,-0.95,-0.101,4.207,0,0.61,265.866
135096,153510,12782,-0.004,-0.942,-0.092,4.207,0,0.61,265.873
135081,153539,13990,-0.007,-0.936,-0.094,3.232,0.488,0.427,265.876
135081,153506,12774,-0.009,-0.937,-0.101,3.232,0.488,0.427,265.883
135090,153539,13990,0.002,-0.945,-0.095,1.402,0.427,0.488,265.886
135090,153504,12781,0.008,-0.956,-0.093,1.402,0.427,0.488,265.892
135110,153539,13990,0.008,-0.959,-0.088,0.732,0.122,0.549,265.896
135110,153551,12788,0.008,-0.961,-0.084,0.732,0.122,0.549,265.902
135073,153539,13990,0.011,-0.962,-0.092,0.549,0.183,0.488,265.906
135073,153510,12795,0.012,-0.969,-0.089,0.549,0.183,0.488,265.912
135137,153539,13990,0.013,-0.968,-0.075,0.793,0.122,0.61,265.916
135137,153556,12794,0.003,-0.962,-0.062,0.793,0.122,0.61,265.922
135106,153539,13990,-0.006,-0.955,-0.069,0.549,-0.244,1.341,265.926
135106,153535,12789,-0.008,-0.955,-0.093,0.549,-0.244,1.341,265.932
135107,153539,13990,-0.003,-0.968,-0.104,-1.524,-0.305,1.402,265.936
135107,153529,12777,0,-0.981,-0.104,-1.524,-0.305,1.402,265.942
135059,153539,13990,0.006,-0.982,-0.119,-1.951,0.061,0.915,265.946
135059,153523,12776,0.005,-0.979,-0.127,-1.951,0.061,0.915,265.952
135066,153539,13990,-0.001,-0.976,-0.126,-0.915,0.854,1.707,265.956
135066,153491,12780,-0.005,-0.97,-0.117,-0.915,0.854,1.707,265.962
135090,153539,13990,-0.011,-0.961,-0.103,1.829,2.134,2.5,265.965
135090,153528,12777,-0.018,-0.955,-0.093,1.829,2.134,2.5,265.972
135114,153539,13990,-0.021,-0.948,-0.076,2.622,2.439,2.622,265.975
135114,153533,12788,-0.023,-0.946,-0.059,2.622,2.439,2.622,265.982
135175,153539,13990,-0.024,-0.945,-0.056,1.22,1.585,2.378,265.985
135175,153586,12797,-0.023,-0.944,-0.06,1.22,1.585,2.378,265.991
135177,153539,13990,-0.024,-0.946,-0.067,-1.585,0.305,1.585,265.995
135177,153548,12790,-0.02,-0.957,-0.073,-1.585,0.305,1.585,266.001
135193,153539,13990,-0.014,-0.969,-0.081,-4.268,-0.671,0.427,266.005
135193,153584,12812,-0.014,-0.97,-0.104,-4.268,-0.671,0.427,266.011
135167,153539,13990,-0.009,-0.976,-0.126,-5.549,-0.854,-0.122,266.015
135167,153573,12789,-0.005,-0.984,-0.149,-5.549,-0.854,-0.122,266.021
135139,153539,13990,-0.004,-0.992,-0.158,-3.72,-0.122,0.183,266.025
135139,153550,12790,-0.008,-0.994,-0.14,-3.72,-0.122,0.183,266.031
135137,153539,13990,-0.005,-0.981,-0.132,0.427,1.22,1.037,266.035
135137,153554,12795,-0.006,-0.956,-0.135,0.427,1.22,1.037,266.041
135119,153539,13990,-0.014,-0.955,-0.108,3.476,2.317,1.89,266.045
135119,153530,12804,-0.022,-0.964,-0.073,3.476,2.317,1.89,266.051
135118,153539,13990,-0.025,-0.954,-0.057,4.512,2.683,1.524,266.055
135118,153544,12799,-0.028,-0.939,-0.068,4.512,2.683,1.524,266.061
135192,153539,13990,-0.026,-0.932,-0.068,1.707,2.012,0.671,266.065
135192,153569,12793,-0.024,-0.942,-0.061,1.707,2.012,0.671,266.071
135212,153539,13990,-0.019,-0.954,-0.069,-0.793,0.244,-0.61,266.074
135212,153577,12785,-0.016,-0.964,-0.088,-0.793,0.244,-0.61,266.081
135187,153539,13990,-0.011,-0.968,-0.092,-2.805,-0.793,-1.585,266.084
135187,153576,12800,-0.006,-0.961,-0.098,-2.805,-0.793,-1.585,266.09
135115,153539,13990,-0.005,-0.956,-0.108,-3.11,-1.159,-1.159,266.094
135115,153501,12794,-0.006,-0.971,-0.116,-3.11,-1.159,-1.159,266.1
134983,153539,13990,-0.003,-0.993,-0.122,-2.805,-0.732,-0.854,266.104
134983,153427,12768,0.001,-0.995,-0.118,-2.805,-0.732,-0.854,266.11
134866,153539,13990,0.005,-0.983,-0.112,-1.402,-0.183,-0.366,266.114
134866,153361,12758,-0.003,-0.97,-0.108,-1.402,-0.183,-0.366,266.12
134828,153283,13990,-0.01,-0.971,-0.116,-0.183,0.61,0.976,266.124
134828,153308,12749,-0.008,-0.977,-0.118,-0.183,0.61,0.976,266.13
134774,153283,13990,-0.007,-0.969,-0.096,1.098,1.22,0.976,266.134
134774,153286,12745,-0.01,-0.946,-0.086,1.098,1.22,0.976,266.14
134765,153283,13990,-0.017,-0.934,-0.093,1.829,1.22,1.098,266.144
134765,153298,12746,-0.021,-0.947,-0.095,1.829,1.22,1.098,266.15
134778,153283,13990,-0.019,-0.957,-0.078,0.671,0.854,0.732,266.154
134778,153285,12738,-0.015,-0.947,-0.069,0.671,0.854,0.732,266.16
134766,153283,13990,-0.018,-0.944,-0.084,-0.671,-0.427,0.244,266.163
134766,153297,12746,-0.017,-0.957,-0.09,-0.671,-0.427,0.244,266.17
134784,153283,13990,-0.017,-0.957,-0.09,-0.671,-0.427,0.244,266.173
134784,153320,12744,-0.005,-0.974,-0.105,-2.195,-0.976,-0.244,266.18
134816,153283,13990,-0.005,-0.974,-0.105,-2.195,-0.976,-0.244,266.183
134816,153335,12741,-0.001,-0.977,-0.132,-2.5,-1.098,-0.549,266.189
134792,153283,13990,-0.001,-0.977,-0.132,-2.5,-1.098,-0.549,266.193
134792,153309,12726,0.005,-0.985,-0.139,-1.768,-0.305,-0.244,266.199
134678,153283,13990,0.005,-0.985,-0.139,-1.768,-0.305,-0.244,266.203
134678,153238,12726,-0.002,-0.957,-0.107,1.159,0.915,0.549,266.209
134624,153283,13990,-0.002,-0.957,-0.107,1.159,0.915,0.549,266.213
134624,153210,12720,-0.021,-0.944,-0.077,3.902,1.951,1.829,266.219
134614,153283,13990,-0.021,-0.944,-0.077,3.902,1.951,1.829,266.223
134614,153194,12714,-0.019,-0.943,-0.081,3.415,2.073,1.951,266.229
134651,153283,13990,-0.019,-0.943,-0.081,3.415,2.073,1.951,266.233
134651,153208,12718,-0.01,-0.965,-0.083,0.915,0.915,0.854,266.239
134630,153283,13990,-0.01,-0.965,-0.083,0.915,0.915,0.854,266.243
134630,153224,12717,-0.009,-0.975,-0.101,-1.098,-0.244,0.122,266.249
134641,153283,13990,-0.009,-0.975,-0.101,-1.098,-0.244,0.122,266.253
134641,153222,12716,-0.001,-0.973,-0.122,-1.707,-0.244,0.244,266.259
134571,153283,13990,-0.001,-0.973,-0.122,-1.707,-0.244,0.244,266.263
134571,153158,12723,0.001,-0.984,-0.116,-0.915,0.244,0.854,266.269
134511,153283,13990,0.001,-0.984,-0.116,-0.915,0.244,0.854,266.272
134511,153134,12695,-0.01,-0.965,-0.113,0.854,1.22,1.28,266.279
134485,153283,13990,-0.01,-0.965,-0.113,0.854,1.22,1.28,266.282
134485,153113,12708,-0.016,-0.964,-0.086,2.622,2.012,1.951,266.288
134521,153283,13990,-0.016,-0.964,-0.086,2.622,2.012,1.951,266.292
134521,153124,12703,-0.023,-0.947,-0.08,2.927,1.951,1.89,266.298
134556,153283,13990,-0.023,-0.947,-0.08,2.927,1.951,1.89,266.302
134556,153146,12708,-0.025,-0.937,-0.06,2.378,1.22,1.524,266.308
134567,153283,13990,-0.025,-0.937,-0.06,2.378,1.22,1.524,266.312
134567,153190,12710,-0.024,-0.936,-0.07,0.61,0,0.915,266.318
134673,153283,13990,-0.017,-0.946,-0.072,0.61,0,0.915,266.322
134673,153194,12715,-0.014,-0.949,-0.08,-2.134,-0.915,-0.061,266.328
134668,153283,13990,-0.007,-0.947,-0.093,-2.134,-0.915,-0.061,266.332
134668,153209,12732,-0.002,-0.96,-0.105,-4.268,-1.341,-0.183,266.338
134713,153283,13990,-0.01,-0.979,-0.108,-4.268,-1.341,-0.183,266.342
134713,153227,12725,-0.009,-0.989,-0.105,-4.39,-1.098,0.061,266.348
134732,153283,13990,-0.007,-0.976,-0.119,-4.39,-1.098,0.061,266.352
134732,153232,12738,-0.01,-0.967,-0.132,-3.232,-0.549,0.549,266.358
134711,153283,13990,-0.015,-0.982,-0.115,-3.232,-0.549,0.549,266.361
134711,153220,12734,-0.016,-0.982,-0.101,-1.402,0,0.793,266.368
134679,153283,13990,-0.017,-0.965,-0.1,-1.402,0,0.793,266.371
134679,153186,12731,-0.017,-0.951,-0.102,-0.244,0.244,0.854,266.378
134667,153283,13990,-0.016,-0.951,-0.1,-0.244,0.244,0.854,266.381
134667,153225,12717,-0.015,-0.958,-0.102,0.305,0.183,0.671,266.387
134657,153283,13990,-0.017,-0.965,-0.093,0.305,0.183,0.671,266.391
134657,153213,12722,-0.014,-0.961,-0.084,-0.122,-0.183,0.366,266.397
134667,153283,13990,-0.011,-0.953,-0.093,-0.122,-0.183,0.366,266.401
134667,153224,12734,-0.015,-0.954,-0.09,-0.671,-0.427,0.366,266.407
134709,153283,13990,-0.015,-0.958,-0.081,-0.671,-0.427,0.366,266.411
134709,153237,12722,-0.012,-0.958,-0.093,-1.22,-0.854,0.061,266.417
134669,153283,13990,-0.009,-0.953,-0.102,-1.22,-0.854,0.061,266.421
134669,153194,12721,-0.006,-0.96,-0.105,-2.256,-1.28,0,266.427
134715,153283,13990,-0.006,-0.968,-0.114,-2.256,-1.28,0,266.431
134715,153227,12718,-0.006,-0.97,-0.124,-2.134,-1.22,0.366,266.437
134679,153283,13990,-0.003,-0.968,-0.129,-2.134,-1.22,0.366,266.441
134679,153203,12728,-0.007,-0.969,-0.135,-0.976,-0.61,0.976,266.447
134698,153283,13990,-0.006,-0.973,-0.129,-0.976,-0.61,0.976,266.451
134698,153226,12727,-0.006,-0.973,-0.117,1.341,0.305,1.402,266.457
134646,153283,13990,-0.007,-0.963,-0.106,1.341,0.305,1.402,266.461
134646,153193,12739,-0.017,-0.957,-0.097,2.744,0.854,1.585,266.467
134644,153283,13990,-0.021,-0.966,-0.066,2.744,0.854,1.585,266.47
134644,153206,12729,-0.02,-0.957,-0.055,2.622,0.732,1.402,266.477
134701,153283,13990,-0.025,-0.932,-0.068,2.622,0.732,1.402,266.48
134701,153218,12723,-0.027,-0.934,-0.08,-0.549,-0.122,0.793,266.486
134665,153283,13990,-0.019,-0.969,-0.09,-0.549,-0.122,0.793,266.49
134665,153189,12749,-0.004,-0.989,-0.091,-2.561,-0.793,-0.488,266.496
134692,153283,13990,0,-0.974,-0.099,-2.561,-0.793,-0.488,266.5
134692,153211,12719,-0.004,-0.957,-0.103,-3.232,-0.854,-0.305,266.506
134659,153283,13990,-0.008,-0.954,-0.103,-3.232,-0.854,-0.305,266.51
134659,153178,12727,-0.011,-0.958,-0.108,-2.561,-0.122,0.854,266.516
134669,153283,13990,-0.012,-0.966,-0.11,-2.561,-0.122,0.854,266.52
134669,153202,12715,-0.01,-0.965,-0.114,-2.195,0,1.098,266.526
134662,153283,13990,-0.012,-0.97,-0.115,-2.195,0,1.098,266.53
134662,153197,12728,-0.008,-0.974,-0.108,-1.524,-0.122,1.341,266.536
134715,153283,13990,-0.011,-0.964,-0.106,-1.524,-0.122,1.341,266.54
134715,153232,12727,-0.013,-0.957,-0.102,-0.854,-0.122,1.646,266.546
134749,153283,13990,-0.016,-0.959,-0.101,-0.854,-0.122,1.646,266.55
134749,153269,12736,-0.017,-0.961,-0.107,-0.854,-0.122,1.585,266.556
134766,153283,13990,-0.017,-0.969,-0.106,-0.854,-0.122,1.585,266.559
134766,153264,12740,-0.019,-0.974,-0.097,-0.671,-0.305,1.159,266.566
134809,153283,13990,-0.015,-0.964,-0.108,-0.671,-0.305,1.159,266.569
134809,153264,12739,-0.013,-0.962,-0.108,-0.366,-0.427,1.037,266.576
134800,153283,13990,-0.015,-0.965,-0.099,-0.366,-0.427,1.037,266.579
134800,153259,12738,-0.017,-0.957,-0.109,0.244,-0.183,0.854,266.585
134741,153283,13990,-0.016,-0.949,-0.112,0.244,-0.183,0.854,266.589
134741,153249,12738,-0.016,-0.958,-0.109,0.244,0.305,0.793,266.595
134721,153283,13990,-0.015,-0.963,-0.107,0.244,0.305,0.793,266.599
134721,153210,12727,-0.01,-0.955,-0.11,0.366,0.427,0.732,266.605
134700,153283,13990,-0.012,-0.957,-0.116,0.366,0.427,0.732,266.609
134700,153183,12725,-0.012,-0.978,-0.099,0.305,0.732,0.915,266.615
134659,153283,13990,-0.014,-0.98,-0.091,0.305,0.732,0.915,266.619
134659,153153,12726,-0.016,-0.959,-0.098,0.549,0.915,0.793,266.625
134636,153283,13990,-0.017,-0.952,-0.095,0.549,0.915,0.793,266.629
134636,153135,12730,-0.019,-0.967,-0.084,0.305,0.549,0.915,266.635
134636,153283,13990,-0.016,-0.968,-0.076,0.305,0.549,0.915,266.639
134636,153132,12727,-0.017,-0.952,-0.089,-0.854,-0.122,0.549,266.645
134632,153283,13990,-0.016,-0.956,-0.109,-0.854,-0.122,0.549,266.649
134632,153135,12719,-0.009,-0.968,-0.115,-2.378,-0.671,0.427,266.655
134664,153283,13990,-0.01,-0.971,-0.11,-2.378,-0.671,0.427,266.659
134664,153153,12725,-0.011,-0.971,-0.113,-1.22,-0.671,0.915,266.665
134649,153283,13990,-0.013,-0.972,-0.123,-1.22,-0.671,0.915,266.668
134649,153184,12725,-0.015,-0.971,-0.128,-0.183,0,1.341,266.675
134626,153283,13990,-0.016,-0.973,-0.125,-0.183,0,1.341,266.678
134626,153102,12706,-0.016,-0.969,-0.113,1.28,0.671,1.402,266.684
134557,153283,13990,-0.015,-0.959,-0.104,1.28,0.671,1.402,266.688
134557,153092,12712,-0.015,-0.952,-0.105,2.317,0.976,1.28,266.694
134579,153027,13990,-0.014,-0.954,-0.095,2.317,0.976,1.28,266.698
134579,153071,12704,-0.019,-0.955,-0.076,2.561,1.037,1.037,266.704
134540,153283,13990,-0.024,-0.946,-0.079,2.561,1.037,1.037,266.708
134540,153107,12716,-0.022,-0.945,-0.082,1.28,0.427,0.732,266.714
134554,153283,13990,-0.018,-0.956,-0.073,1.28,0.427,0.732,266.718
134554,153105,12724,-0.013,-0.963,-0.076,-0.793,-0.488,0.061,266.724
134552,153283,13990,-0.014,-0.962,-0.099,-0.793,-0.488,0.061,266.728
134552,153118,12723,-0.012,-0.969,-0.118,-2.805,-0.854,-0.427,266.734
134598,153283,13990,-0.006,-0.979,-0.12,-2.805,-0.854,-0.427,266.738
134598,153150,12715,-0.005,-0.982,-0.126,-2.012,-0.427,-0.305,266.744
134558,153027,13990,-0.005,-0.982,-0.129,-2.012,-0.427,-0.305,266.748
134558,153076,12705,-0.01,-0.977,-0.123,0.305,0.549,0.549,266.754
134556,153283,13990,-0.01,-0.97,-0.123,0.305,0.549,0.549,266.758
134556,153100,12714,-0.012,-0.965,-0.113,2.805,1.28,1.402,266.764
134535,153283,13990,-0.012,-0.965,-0.113,2.805,1.28,1.402,266.767
134535,153101,12722,-0.019,-0.959,-0.095,4.085,1.646,1.89,266.774
134542,153027,13990,-0.019,-0.959,-0.095,4.085,1.646,1.89,266.777
134542,153084,12708,-0.021,-0.951,-0.084,3.659,1.707,1.585,266.783
134495,153027,13990,-0.021,-0.951,-0.084,3.659,1.707,1.585,266.787
134495,153053,12703,-0.02,-0.954,-0.08,1.951,1.524,0.976,266.793
134497,153027,13990,-0.02,-0.954,-0.08,1.951,1.524,0.976,266.797
134497,153032,12714,-0.019,-0.953,-0.072,0.061,0.976,0.488,266.803
134476,153027,13990,-0.019,-0.953,-0.072,0.061,0.976,0.488,266.807
134476,153050,12705,-0.013,-0.96,-0.107,-1.585,0.061,0.366,266.813
134458,153027,13990,-0.013,-0.96,-0.107,-1.585,0.061,0.366,266.817
134458,153028,12698,-0.007,-0.982,-0.126,-1.585,0.061,0.488,266.823
134469,153027,13990,-0.007,-0.982,-0.126,-1.585,0.061,0.488,266.827
134469,153036,12717,-0.01,-0.981,-0.117,0.488,0.793,1.159,266.833
134488,153027,13990,-0.01,-0.981,-0.117,0.488,0.793,1.159,266.837
134488,153044,12695,-0.018,-0.96,-0.103,2.5,1.524,1.89,266.843
134494,153027,13990,-0.018,-0.96,-0.103,2.5,1.524,1.89,266.847
134494,153070,12696,-0.026,-0.968,-0.103,3.171,2.012,1.585,266.853
134439,153027,13990,-0.026,-0.968,-0.103,3.171,2.012,1.585,266.857
134439,153014,12695,-0.014,-0.959,-0.094,3.415,1.829,0.732,266.863
134391,153027,13990,-0.014,-0.959,-0.094,3.415,1.829,0.732,266.866
134391,152991,12682,-0.023,-0.942,-0.071,2.988,1.463,0.976,266.873
134396,153027,13990,-0.023,-0.942,-0.071,2.988,1.463,0.976,266.876
134396,152984,12696,-0.023,-0.951,-0.079,1.89,1.22,0.793,266.882
134412,153027,13990,-0.023,-0.951,-0.079,1.89,1.22,0.793,266.886
134412,153030,12699,-0.015,-0.958,-0.075,0.244,0.61,0.122,266.892
134452,153027,13990,-0.015,-0.958,-0.075,0.244,0.61,0.122,266.896
134452,153070,12698,-0.013,-0.968,-0.101,-1.463,0.305,-0.061,266.902
134496,153027,13990,-0.013,-0.968,-0.101,-1.463,0.305,-0.061,266.906
134496,153077,12732,-0.008,-0.98,-0.106,-1.463,0.305,-0.061,266.912
134465,153027,13990,-0.004,-0.978,-0.112,-1.524,0.244,0.183,266.916
134465,153073,12702,-0.014,-0.969,-0.123,-1.524,0.244,0.183,266.922
134470,153283,13990,-0.021,-0.973,-0.135,-0.244,0.732,1.098,266.926
134470,153094,12702,-0.021,-0.987,-0.129,-0.244,0.732,1.098,266.932
134469,153283,13990,-0.016,-0.988,-0.124,1.89,1.463,1.22,266.936
134469,153098,12714,-0.013,-0.968,-0.13,1.89,1.463,1.22,266.942
134453,153283,13990,-0.016,-0.958,-0.112,4.146,2.256,1.463,266.946
134453,153096,12710,-0.02,-0.958,-0.087,4.146,2.256,1.463,266.952
134459,153283,13990,-0.028,-0.956,-0.082,6.037,2.988,1.646,266.956
134459,153109,12696,-0.037,-0.95,-0.064,6.037,2.988,1.646,266.962
134471,153283,13990,-0.037,-0.94,-0.042,5.366,2.256,1.159,266.965
134471,153137,12707,-0.031,-0.931,-0.05,5.366,2.256,1.159,266.972
134499,153283,13990,-0.026,-0.939,-0.062,2.866,0.427,0.305,266.975
134499,153156,12703,-0.019,-0.964,-0.063,2.866,0.427,0.305,266.981
134523,153283,13990,-0.016,-0.968,-0.077,-0.305,-0.671,-1.037,266.985
134523,153178,12715,-0.011,-0.96,-0.094,-0.305,-0.671,-1.037,266.991
134563,153283,13990,-0.007,-0.955,-0.128,-2.805,-0.61,-1.28,266.995
134563,153220,12712,-0.001,-0.976,-0.143,-2.805,-0.61,-1.28,267.001
134558,153283,13990,-0.002,-1.012,-0.139,-2.012,-0.183,-0.732,267.005
134558,153255,12717,-0.001,-1.012,-0.12,-2.012,-0.183,-0.732,267.011
134594,153283,13990,-0.005,-0.966,-0.126,1.829,1.098,0.183,267.015
134594,153251,12697,-0.014,-0.942,-0.124,1.829,1.098,0.183,267.021
134573,153283,13990,-0.018,-0.955,-0.106,4.573,2.744,1.646,267.025
134573,153237,12707,-0.02,-0.967,-0.087,4.573,2.744,1.646,267.031
134569,153283,13990,-0.023,-0.959,-0.072,5.61,3.11,1.22,267.035
134569,153264,12727,-0.024,-0.942,-0.049,5.61,3.11,1.22,267.041
134570,153283,13990,-0.031,-0.937,-0.043,4.451,2.195,1.037,267.045
134570,153243,12708,-0.032,-0.943,-0.051,4.451,2.195,1.037,267.051
134581,153283,13990,-0.029,-0.951,-0.044,1.28,0.427,0.183,267.055
134581,153230,12723,-0.021,-0.967,-0.05,1.28,0.427,0.183,267.061
134628,153283,13990,-0.016,-0.973,-0.078,-2.439,-1.098,-1.098,267.064
134628,153296,12718,-0.006,-0.974,-0.112,-2.439,-1.098,-1.098,267.071
134663,153283,13990,0.001,-0.982,-0.128,-4.512,-1.341,-1.28,267.074
134663,153277,12722,0.007,-0.995,-0.139,-4.512,-1.341,-1.28,267.081
134671,153283,13990,0.006,-1.001,-0.155,-1.829,0,-0.488,267.084
134671,153305,12719,0.002,-0.999,-0.161,-1.829,0,-0.488,267.09
134670,153283,13990,-0.004,-0.977,-0.137,2.561,2.317,1.098,267.094
134670,153291,12735,-0.009,-0.957,-0.114,2.561,2.317,1.098,267.1
134731,153283,13990,-0.021,-0.944,-0.096,6.585,4.024,2.622,267.104
134731,153325,12723,-0.033,-0.94,-0.062,6.585,4.024,2.622,267.11
134717,153283,13990,-0.039,-0.938,-0.026,7.073,3.902,2.561,267.114
134717,153312,12728,-0.044,-0.928,-0.005,7.073,3.902,2.561,267.12
134719,153283,13990,-0.045,-0.916,-0.029,2.622,1.829,1.159,267.124
134719,153301,12721,-0.041,-0.932,-0.048,2.622,1.829,1.159,267.13
134666,153283,13990,-0.027,-0.968,-0.053,-3.232,-0.61,-0.976,267.134
134666,153255,12740,-0.011,-0.974,-0.095,-3.232,-0.61,-0.976,267.14
134658,153283,13990,-0.001,-0.974,-0.118,-5.671,-1.951,-2.256,267.144
134658,153245,12735,0.003,-0.982,-0.133,-5.671,-1.951,-2.256,267.15
134622,153283,13990,0,-0.994,-0.151,-4.207,-0.732,-1.28,267.154
134622,153224,12729,0,-1.013,-0.149,-4.207,-0.732,-1.28,267.16
134602,153283,13990,0.004,-1.004,-0.127,0.671,1.463,-0.122,267.163
134602,153229,12714,-0.002,-0.967,-0.116,0.671,1.463,-0.122,267.17
134564,153283,13990,-0.015,-0.943,-0.107,4.634,2.927,1.707,267.173
134564,153193,12714,-0.027,-0.946,-0.086,4.634,2.927,1.707,267.179
134551,153283,13990,-0.03,-0.955,-0.07,5.366,3.232,1.768,267.183
134551,153173,12711,-0.03,-0.95,-0.062,5.366,3.232,1.768,267.189
134520,153283,13990,-0.024,-0.951,-0.035,3.841,2.073,0.549,267.193
134520,153177,12707,-0.019,-0.948,-0.033,3.841,2.073,0.549,267.199
134530,153283,13990,-0.024,-0.938,-0.065,1.098,0.61,0,267.203
134530,153166,12720,-0.026,-0.956,-0.064,1.098,0.61,0,267.209
134515,153283,13990,-0.018,-0.961,-0.063,-1.341,-0.183,-0.793,267.213
134515,153168,12697,-0.016,-0.951,-0.098,-1.341,-0.183,-0.793,267.219
134505,153283,13990,-0.013,-0.961,-0.117,-4.085,-0.793,-1.159,267.223
134505,153143,12704,-0.004,-0.99,-0.117,-4.085,-0.793,-1.159,267.229
134471,153283,13990,0.002,-0.996,-0.12,-3.598,-0.366,-1.159,267.233
134471,153116,12690,0,-0.983,-0.118,-3.598,-0.366,-1.159,267.239
134453,153283,13990,-0.003,-0.958,-0.112,-1.098,0.488,0.305,267.243
134453,153106,12691,-0.017,-0.958,-0.103,-1.098,0.488,0.305,267.249
134391,153027,13990,-0.018,-0.968,-0.098,0.793,1.22,1.28,267.253
134391,153050,12694,-0.019,-0.963,-0.079,0.793,1.22,1.28,267.259
134332,153027,13990,-0.024,-0.955,-0.073,1.829,1.28,0.793,267.262
134332,153023,12675,-0.025,-0.948,-0.085,1.829,1.28,0.793,267.269
134367,153027,13990,-0.025,-0.953,-0.084,1.22,0.976,0.366,267.272
134367,153067,12689,-0.022,-0.968,-0.071,1.22,0.976,0.366,267.279
134377,153027,13990,-0.018,-0.961,-0.088,0.122,0.671,-0.366,267.282
134377,153040,12695,-0.016,-0.964,-0.093,0.122,0.671,-0.366,267.288
134339,153027,13990,-0.012,-0.974,-0.091,-0.793,0.488,-0.549,267.292
134339,153029,12700,-0.01,-0.965,-0.103,-0.793,0.488,-0.549,267.298
134364,153027,13990,-0.011,-0.963,-0.108,-0.854,0.854,-0.366,267.302
134364,153009,12690,-0.009,-0.974,-0.094,-0.854,0.854,-0.366,267.308
134318,153027,13990,-0.012,-0.973,-0.093,0.061,0.976,0.183,267.312
134318,152997,12705,-0.011,-0.969,-0.095,0.061,0.976,0.183,267.318
134257,153027,13990,-0.015,-0.962,-0.096,0.671,0.976,0.793,267.322
134257,152921,12664,-0.017,-0.957,-0.096,0.671,0.976,0.793,267.328
134179,153027,13990,-0.016,-0.955,-0.092,1.098,0.732,0.976,267.332
134179,152898,12667,-0.015,-0.963,-0.076,1.098,0.732,0.976,267.338
134197,153027,13990,-0.02,-0.961,-0.066,0.915,0.427,0.732,267.342
134197,152911,12671,-0.022,-0.953,-0.079,0.915,0.427,0.732,267.348
134249,153027,13990,-0.022,-0.953,-0.079,0.915,0.427,0.732,267.352
134249,152914,12679,-0.02,-0.971,-0.09,-0.427,0,0.366,267.358
134244,153027,13990,-0.02,-0.971,-0.09,-0.427,0,0.366,267.361
134244,152926,12689,-0.013,-0.963,-0.085,-1.22,-0.244,-0.305,267.368
134222,153027,13990,-0.013,-0.963,-0.085,-1.22,-0.244,-0.305,267.371
134222,152914,12673,-0.011,-0.95,-0.101,-1.524,-0.305,-0.183,267.377
134206,153027,13990,-0.011,-0.95,-0.101,-1.524,-0.305,-0.183,267.381
134206,152875,12657,-0.006,-0.982,-0.104,-1.89,0,0.061,267.387
134132,152771,13990,-0.006,-0.982,-0.104,-1.89,0,0.061,267.391
134132,152800,12652,-0.005,-0.97,-0.103,-1.22,0.61,0,267.397
134084,152771,13990,-0.005,-0.97,-0.103,-1.22,0.61,0,267.401
134084,152778,12646,-0.022,-0.959,-0.056,0.488,1.463,0.854,267.407
134085,152771,13990,-0.022,-0.959,-0.056,0.488,1.463,0.854,267.411
134085,152791,12660,-0.027,-0.942,-0.047,1.341,1.22,1.341,267.417
134167,153027,13990,-0.027,-0.942,-0.047,1.341,1.22,1.341,267.421
134167,152835,12661,-0.025,-0.953,-0.074,-1.768,-0.366,0.549,267.427
134163,153027,13990,-0.025,-0.953,-0.074,-1.768,-0.366,0.549,267.431
134163,152852,12659,-0.009,-0.975,-0.115,-4.451,-1.28,-0.854,267.437
134120,152771,13990,-0.009,-0.975,-0.115,-4.451,-1.28,-0.854,267.441
134120,152809,12660,-0.008,-0.977,-0.123,-5.366,-1.341,-1.159,267.447
134113,152771,13990,-0.008,-0.977,-0.123,-5.366,-1.341,-1.159,267.451
134113,152795,12657,-0.011,-0.967,-0.123,-3.476,-0.427,-0.305,267.457
134138,152771,13990,-0.011,-0.967,-0.123,-3.476,-0.427,-0.305,267.46
134138,152799,12653,-0.01,-0.964,-0.116,-1.585,0.427,0.305,267.467
134106,152771,13990,-0.01,-0.964,-0.116,-1.585,0.427,0.305,267.47
134106,152783,12649,-0.014,-0.979,-0.098,0.244,0.976,0.732,267.477
134122,152771,13990,-0.014,-0.979,-0.098,0.244,0.976,0.732,267.48
134122,152817,12655,-0.019,-0.954,-0.051,1.707,1.22,0.915,267.486
134087,152771,13990,-0.019,-0.954,-0.051,1.707,1.22,0.915,267.49
134087,152780,12637,-0.032,-0.946,-0.05,1.159,0.732,1.037,267.496
134132,152771,13990,-0.032,-0.946,-0.05,1.159,0.732,1.037,267.5
134132,152811,12648,-0.028,-0.957,-0.064,-1.402,-0.488,-0.061,267.506
134179,153027,13990,-0.02,-0.962,-0.077,-1.402,-0.488,-0.061,267.51
134179,152850,12659,-0.011,-0.967,-0.082,-3.659,-1.707,-1.037,267.516
134148,153027,13990,-0.006,-0.964,-0.102,-3.659,-1.707,-1.037,267.52
134148,152862,12665,-0.003,-0.958,-0.124,-4.207,-1.646,-0.915,267.526
134151,153027,13990,-0.003,-0.96,-0.139,-4.207,-1.646,-0.915,267.53
134151,152840,12649,-0.01,-0.981,-0.135,-2.927,-0.488,-0.183,267.536
134126,152771,13990,-0.013,-0.996,-0.116,-2.927,-0.488,-0.183,267.54
134126,152803,12660,-0.012,-0.976,-0.102,0,0.61,0.305,267.546
134120,152771,13990,-0.017,-0.943,-0.099,0,0.61,0.305,267.55
134120,152828,12666,-0.021,-0.939,-0.089,1.22,1.098,1.159,267.556
134130,152771,13990,-0.027,-0.959,-0.074,1.22,1.098,1.159,267.559
134130,152806,12661,-0.022,-0.966,-0.061,0.671,0.854,0.61,267.566
134149,152771,13990,-0.017,-0.954,-0.068,0.671,0.854,0.61,267.569
134149,152821,12666,-0.014,-0.954,-0.074,-1.402,-0.183,-0.244,267.576
134186,153027,13990,-0.016,-0.963,-0.076,-1.402,-0.183,-0.244,267.579
134186,152844,12671,-0.014,-0.97,-0.073,-3.11,-1.159,-0.488,267.585
134193,153027,13990,-0.009,-0.968,-0.087,-3.11,-1.159,-0.488,267.589
134193,152858,12681,-0.009,-0.97,-0.099,-4.024,-1.463,-0.427,267.595
134224,153027,13990,-0.007,-0.972,-0.104,-4.024,-1.463,-0.427,267.599
134224,152892,12680,-0.007,-0.965,-0.114,-3.598,-0.976,-0.244,267.605
134222,153027,13990,-0.009,-0.959,-0.127,-3.598,-0.976,-0.244,267.609
134222,152887,12676,-0.008,-0.97,-0.133,-2.927,-0.183,0.183,267.615
134174,153027,13990,-0.007,-0.977,-0.138,-2.927,-0.183,0.183,267.619
134174,152866,12660,-0.005,-0.982,-0.134,-1.28,0.854,0.366,267.625
134192,153027,13990,-0.009,-0.971,-0.123,-1.28,0.854,0.366,267.629
134192,152897,12660,-0.013,-0.958,-0.106,1.159,1.89,0.976,267.635
134218,153027,13990,-0.02,-0.949,-0.087,1.159,1.89,0.976,267.639
134218,152916,12668,-0.025,-0.944,-0.066,2.317,2.134,1.707,267.645
134227,153027,13990,-0.03,-0.945,-0.052,2.317,2.134,1.707,267.649
134227,152951,12679,-0.026,-0.944,-0.06,0.61,1.159,0.976,267.655
134300,153027,13990,-0.021,-0.951,-0.066,0.61,1.159,0.976,267.658
134300,152984,12678,-0.013,-0.963,-0.082,-2.317,-0.488,-0.183,267.665
134340,153027,13990,-0.008,-0.972,-0.092,-2.317,-0.488,-0.183,267.668
134340,152980,12692,-0.003,-0.975,-0.098,-3.963,-1.463,-0.427,267.674
134369,153027,13990,-0.001,-0.972,-0.114,-3.963,-1.463,-0.427,267.678
134369,153031,12690,-0.005,-0.973,-0.133,-3.72,-1.585,0.732,267.684
134299,153027,13990,-0.01,-0.988,-0.13,-3.72,-1.585,0.732,267.688
134299,152976,12685,-0.008,-0.988,-0.11,-1.707,-0.366,1.463,267.694
134328,153027,13990,-0.011,-0.967,-0.112,-1.707,-0.366,1.463,267.698
134328,153008,12676,-0.017,-0.953,-0.113,0.366,0.671,2.073,267.704
134330,153027,13990,-0.022,-0.96,-0.093,0.366,0.671,2.073,267.708
134330,153018,12683,-0.026,-0.962,-0.08,1.707,0.976,1.89,267.714
134383,153027,13990,-0.024,-0.95,-0.084,1.707,0.976,1.89,267.718
134383,153033,12679,-0.021,-0.946,-0.084,0.732,0.671,1.098,267.724
134331,153027,13990,-0.019,-0.947,-0.088,0.732,0.671,1.098,267.728
134331,153028,12688,-0.022,-0.956,-0.086,-0.671,0.244,0.366,267.734
134378,153027,13990,-0.018,-0.968,-0.081,-0.671,0.244,0.366,267.738
134378,153032,12683,-0.013,-0.964,-0.094,-1.951,-0.305,-0.183,267.744
134356,153027,13990,-0.01,-0.961,-0.112,-1.951,-0.305,-0.183,267.748
134356,153044,12688,-0.008,-0.972,-0.113,-2.805,-0.427,-0.061,267.754
134382,153027,13990,-0.007,-0.983,-0.107,-2.805,-0.427,-0.061,267.757
134382,153035,12687,-0.008,-0.974,-0.108,-1.707,-0.183,0.244,267.764
134374,153027,13990,-0.007,-0.965,-0.115,-1.707,-0.183,0.244,267.767
134374,153038,12700,-0.013,-0.971,-0.124,-0.549,0.305,1.098,267.774
134369,153027,13990,-0.011,-0.986,-0.121,-0.549,0.305,1.098,267.777
134369,153023,12682,-0.011,-0.979,-0.116,1.463,1.28,1.22,267.783
134365,153027,13990,-0.015,-0.962,-0.103,1.463,1.28,1.22,267.787
134365,153038,12700,-0.017,-0.951,-0.103,2.683,1.707,1.646,267.793
134356,153027,13990,-0.024,-0.952,-0.095,2.683,1.707,1.646,267.797
134356,153026,12680,-0.026,-0.956,-0.056,2.988,1.829,1.585,267.803
134409,153027,13990,-0.028,-0.953,-0.048,2.988,1.829,1.585,267.807
134409,153043,12691,-0.033,-0.939,-0.059,1.463,1.098,0.915,267.813
134393,153027,13990,-0.032,-0.935,-0.067,1.463,1.098,0.915,267.817
134393,153057,12701,-0.026,-0.958,-0.078,-1.829,-0.183,-0.244,267.823
134406,153027,13990,-0.014,-0.982,-0.075,-1.829,-0.183,-0.244,267.827
134406,153024,12712,-0.008,-0.974,-0.082,-3.537,-1.159,-1.524,267.833
134415,153027,13990,-0.009,-0.955,-0.118,-3.537,-1.159,-1.524,267.837
134415,153039,12693,-0.011,-0.963,-0.133,-4.451,-1.037,-0.854,267.843
134386,153027,13990,-0.006,-0.984,-0.121,-4.451,-1.037,-0.854,267.847
134386,153051,12700,-0.005,-0.984,-0.128,-2.439,-0.305,-0.305,267.853
134389,153027,13990,-0.007,-0.969,-0.132,-2.439,-0.305,-0.305,267.856
134389,153024,12688,-0.007,-0.969,-0.122,0.061,0.61,0.488,267.863
134366,153027,13990,-0.013,-0.963,-0.117,0.061,0.61,0.488,267.866
134366,153050,12699,-0.019,-0.958,-0.101,2.378,1.524,1.22,267.872
134358,153027,13990,-0.023,-0.953,-0.078,2.378,1.524,1.22,267.876
134358,153022,12690,-0.028,-0.948,-0.07,2.5,1.524,1.159,267.882
134380,153027,13990,-0.028,-0.945,-0.07,2.5,1.524,1.159,267.886
134380,153047,12703,-0.025,-0.947,-0.071,0.366,0.671,0.122,267.892
134404,153027,13990,-0.022,-0.958,-0.079,0.366,0.671,0.122,267.896
134404,153077,12691,-0.021,-0.971,-0.08,-1.951,-0.183,-1.098,267.902
134443,153027,13990,-0.016,-0.971,-0.088,-1.951,-0.183,-1.098,267.906
134443,153065,12704,-0.015,-0.964,-0.095,-3.171,-0.793,-1.402,267.912
134423,153027,13990,-0.011,-0.959,-0.099,-3.171,-0.793,-1.402,267.916
134423,153046,12701,-0.008,-0.958,-0.103,-3.11,-1.159,-0.976,267.922
134381,153027,13990,-0.007,-0.963,-0.113,-3.11,-1.159,-0.976,267.926
134381,153040,12701,-0.005,-0.972,-0.126,-2.622,-0.732,-0.61,267.932
134372,153027,13990,0.001,-0.972,-0.145,-2.622,-0.732,-0.61,267.936
134372,153010,12695,-0,-0.98,-0.138,-1.341,0.244,-0.122,267.942
134349,153027,13990,-0,-0.98,-0.138,-1.341,0.244,-0.122,267.946
134349,153032,12686,-0.006,-0.984,-0.107,1.707,1.402,0.915,267.952
134408,153027,13990,-0.006,-0.984,-0.107,1.707,1.402,0.915,267.955
134408,153064,12704,-0.023,-0.952,-0.091,2.866,2.012,1.646,267.962
134536,153283,13990,-0.023,-0.952,-0.091,2.866,2.012,1.646,267.965
134536,153168,12707,-0.033,-0.953,-0.042,2.378,1.28,1.28,267.972
134652,153283,13990,-0.033,-0.953,-0.042,2.378,1.28,1.28,267.975
134652,153251,12744,-0.024,-0.938,-0.081,-0.793,-0.122,0.244,267.981
134737,153283,13990,-0.024,-0.938,-0.081,-0.793,-0.122,0.244,267.985
134737,153333,12753,-0.014,-0.967,-0.082,-2.988,-1.28,-0.671,267.991
134840,153539,13990,-0.014,-0.967,-0.082,-2.988,-1.28,-0.671,267.995
134840,153402,12770,-0.004,-0.971,-0.138,-3.78,-1.707,-0.549,268.001
134953,153539,13990,-0.004,-0.971,-0.138,-3.78,-1.707,-0.549,268.005
134953,153480,12779,0.006,-0.987,-0.145,-1.402,-1.22,0.427,268.011
135014,153539,13990,0.006,-0.987,-0.145,-1.402,-1.22,0.427,268.015
135014,153562,12793,-0,-0.977,-0.128,2.439,0.488,1.829,268.021
135101,153795,13990,-0,-0.977,-0.128,2.439,0.488,1.829,268.025
135101,153626,12789,-0.012,-0.951,-0.099,5.061,1.951,2.866,268.031
135187,153795,13990,-0.012,-0.951,-0.099,5.061,1.951,2.866,268.035
135187,153674,12808,-0.026,-0.96,-0.075,4.939,2.256,2.683,268.041
135241,153795,13990,-0.026,-0.96,-0.075,4.939,2.256,2.683,268.045
135241,153720,12809,-0.025,-0.947,-0.063,3.049,1.707,1.768,268.051
135287,153795,13990,-0.025,-0.947,-0.063,3.049,1.707,1.768,268.054
135287,153752,12810,-0.024,-0.954,-0.074,0.549,0.854,0.793,268.061
135327,153795,13990,-0.024,-0.954,-0.074,0.549,0.854,0.793,268.064
135327,153765,12832,-0.017,-0.955,-0.096,-1.402,0,-0.183,268.07
135372,153795,13990,-0.017,-0.955,-0.096,-1.402,0,-0.183,268.074
135372,153780,12819,-0.008,-0.97,-0.107,-1.829,0,-0.183,268.08
135313,153795,13990,-0.008,-0.97,-0.107,-1.829,0,-0.183,268.084
135313,153761,12817,-0.007,-0.978,-0.12,-1.829,0,-0.183,268.09
135305,153795,13990,-0.012,-0.984,-0.125,-1.037,0.61,0.183,268.094
135305,153726,12812,-0.013,-0.98,-0.109,-1.037,0.61,0.183,268.1
135232,153795,13990,-0.013,-0.971,-0.106,0.671,1.098,0.854,268.104
135232,153665,12806,-0.019,-0.963,-0.099,0.671,1.098,0.854,268.11
135219,153795,13990,-0.024,-0.956,-0.098,2.256,1.707,1.22,268.114
135219,153670,12796,-0.026,-0.958,-0.089,2.256,1.707,1.22,268.12
135219,153795,13990,-0.025,-0.965,-0.068,2.5,1.707,0.915,268.124
135219,153676,12800,-0.026,-0.958,-0.053,2.5,1.707,0.915,268.13
135229,153795,13990,-0.029,-0.936,-0.06,1.585,0.915,0.427,268.134
135229,153693,12803,-0.03,-0.937,-0.07,1.585,0.915,0.427,268.14
135236,153795,13990,-0.026,-0.963,-0.083,-0.671,-0.366,-0.366,268.144
135236,153705,12814,-0.017,-0.972,-0.09,-0.671,-0.366,-0.366,268.15
135223,153795,13990,-0.01,-0.962,-0.1,-2.195,-1.585,-1.28,268.153
135223,153666,12797,-0.008,-0.96,-0.113,-2.195,-1.585,-1.28,268.16
135170,153795,13990,-0.009,-0.97,-0.126,-2.195,-1.28,-0.976,268.163
135170,153645,12804,-0.006,-0.979,-0.13,-2.195,-1.28,-0.976,268.169
135158,153795,13990,-0.003,-0.982,-0.138,-0.915,0.061,-0.488,268.173
135158,153639,12801,-0.001,-0.98,-0.143,-0.915,0.061,-0.488,268.179
135124,153795,13990,-0.009,-0.974,-0.119,1.402,1.28,0.488,268.183
135124,153603,12800,-0.014,-0.958,-0.106,1.402,1.28,0.488,268.189
135110,153539,13990,-0.019,-0.946,-0.089,3.72,2.317,1.341,268.193
135110,153599,12782,-0.024,-0.943,-0.075,3.72,2.317,1.341,268.199
135076,153539,13990,-0.028,-0.944,-0.071,3.11,2.134,1.159,268.203
135076,153532,12809,-0.026,-0.942,-0.064,3.11,2.134,1.159,268.209
135083,153539,13990,-0.027,-0.948,-0.055,1.159,1.22,0.183,268.213
135083,153576,12799,-0.022,-0.96,-0.057,1.159,1.22,0.183,268.219
135058,153539,13990,-0.016,-0.963,-0.084,-1.585,0,-0.915,268.223
135058,153559,12791,-0.018,-0.97,-0.085,-1.585,0,-0.915,268.229
135028,153539,13990,-0.012,-0.971,-0.077,-3.171,-0.61,-1.159,268.233
135028,153531,12774,-0.009,-0.961,-0.102,-3.171,-0.61,-1.159,268.239
135018,153539,13990,-0.006,-0.966,-0.119,-3.902,-0.488,-0.915,268.243
135018,153509,12789,-0.001,-0.984,-0.125,-3.902,-0.488,-0.915,268.249
134942,153539,13990,0.002,-0.98,-0.139,-3.11,-0.244,-0.61,268.252
134942,153496,12770,-0,-0.985,-0.138,-3.11,-0.244,-0.61,268.259
134890,153539,13990,-0.002,-0.987,-0.116,0,0.61,0.61,268.262
134890,153425,12753,-0.008,-0.966,-0.112,0,0.61,0.61,268.269
134818,153539,13990,-0.019,-0.958,-0.094,2.866,1.951,1.89,268.272
134818,153399,12737,-0.025,-0.957,-0.068,2.866,1.951,1.89,268.278
134781,153539,13990,-0.026,-0.951,-0.072,3.049,1.768,2.012,268.282
134781,153412,12742,-0.03,-0.94,-0.067,3.049,1.768,2.012,268.288
134772,153539,13990,-0.026,-0.94,-0.062,0.793,0.61,0.915,268.292
134772,153370,12737,-0.025,-0.952,-0.076,0.793,0.61,0.915,268.298
134719,153539,13990,-0.022,-0.967,-0.092,-2.073,-0.61,-0.244,268.302
134719,153354,12733,-0.016,-0.969,-0.103,-2.073,-0.61,-0.244,268.308
134717,153539,13990,-0.006,-0.966,-0.115,-2.805,-0.793,-0.671,268.312
134717,153362,12715,-0.003,-0.97,-0.119,-2.805,-0.793,-0.671,268.318
134745,153539,13990,-0.003,-0.973,-0.13,-1.829,-0.183,-0.061,268.322
134745,153419,12733,-0.004,-0.979,-0.132,-1.829,-0.183,-0.061,268.328
134762,153539,13990,-0.006,-0.986,-0.112,0.366,0.976,0.854,268.332
134762,153436,12736,-0.008,-0.972,-0.099,0.366,0.976,0.854,268.338
134746,153539,13990,-0.012,-0.952,-0.094,2.012,1.951,1.585,268.342
134746,153411,12724,-0.017,-0.953,-0.091,2.012,1.951,1.585,268.348
134734,153539,13990,-0.016,-0.965,-0.087,1.341,2.195,1.646,268.351
134734,153399,12714,-0.015,-0.965,-0.079,1.341,2.195,1.646,268.358
134701,153539,13990,-0.015,-0.956,-0.07,0.976,1.341,1.22,268.361
134701,153371,12711,-0.019,-0.948,-0.073,0.976,1.341,1.22,268.367
134707,153539,13990,-0.023,-0.948,-0.086,0.244,0.732,0.976,268.371
134707,153385,12735,-0.021,-0.958,-0.087,0.244,0.732,0.976,268.377
134722,153539,13990,-0.018,-0.961,-0.084,-1.037,0.366,0.366,268.381
134722,153366,12702,-0.019,-0.955,-0.088,-1.037,0.366,0.366,268.387
134709,153539,13990,-0.016,-0.951,-0.092,-2.195,-0.244,0.061,268.391
134709,153366,12712,-0.018,-0.953,-0.106,-2.195,-0.244,0.061,268.397
134672,153283,13990,-0.019,-0.97,-0.126,-2.988,-0.122,-0.061,268.401
134672,153315,12703,-0.016,-0.987,-0.121,-2.988,-0.122,-0.061,268.407
134608,153283,13990,-0.013,-0.983,-0.115,-1.829,0.305,-0.244,268.411
134608,153312,12703,-0.009,-0.973,-0.114,-1.829,0.305,-0.244,268.417
134629,153283,13990,-0.011,-0.964,-0.12,0.183,1.037,0.366,268.421
134629,153342,12709,-0.018,-0.967,-0.114,0.183,1.037,0.366,268.427
134631,153283,13990,-0.019,-0.97,-0.103,1.707,1.89,0.671,268.431
134631,153334,12701,-0.014,-0.965,-0.097,1.707,1.89,0.671,268.437
134632,153283,13990,-0.016,-0.955,-0.09,2.134,2.073,0.732,268.44
134632,153335,12706,-0.019,-0.954,-0.078,2.134,2.073,0.732,268.447
134645,153283,13990,-0.023,-0.953,-0.066,1.707,1.768,0.854,268.45
134645,153313,12699,-0.025,-0.953,-0.065,1.707,1.768,0.854,268.457
134653,153283,13990,-0.025,-0.951,-0.062,0.183,0.854,0.427,268.46
134653,153337,12706,-0.027,-0.956,-0.058,0.183,0.854,0.427,268.466
134653,153283,13990,-0.021,-0.964,-0.074,-2.622,-0.61,-0.488,268.47
134653,153317,12711,-0.013,-0.97,-0.096,-2.622,-0.61,-0.488,268.476
134712,153539,13990,-0.008,-0.972,-0.113,-4.207,-1.341,-1.098,268.48
134712,153373,12726,-0.009,-0.976,-0.126,-4.207,-1.341,-1.098,268.486
134691,153283,13990,-0.004,-0.985,-0.132,-3.232,-1.159,-0.671,268.49
134691,153341,12724,-0.004,-0.983,-0.138,-3.232,-1.159,-0.671,268.496
134730,153539,13990,-0.01,-0.976,-0.138,-0.732,0.122,0.061,268.5
134730,153360,12727,-0.011,-0.968,-0.125,-0.732,0.122,0.061,268.506
134708,153283,13990,-0.012,-0.962,-0.118,2.622,1.22,0.976,268.51
134708,153342,12724,-0.016,-0.955,-0.11,2.622,1.22,0.976,268.516
134721,153539,13990,-0.02,-0.958,-0.094,4.085,1.829,1.402,268.52
134721,153356,12725,-0.023,-0.957,-0.07,4.085,1.829,1.402,268.526
134802,153539,13990,-0.023,-0.957,-0.07,4.085,1.829,1.402,268.53
134802,153441,12741,-0.035,-0.938,-0.033,3.72,1.524,1.22,268.536
134792,153539,13990,-0.035,-0.938,-0.033,3.72,1.524,1.22,268.54
134792,153413,12744,-0.034,-0.94,-0.065,0.671,0.183,0.366,268.546
134814,153539,13990,-0.034,-0.94,-0.065,0.671,0.183,0.366,268.549
134814,153417,12733,-0.014,-0.969,-0.075,-3.049,-1.341,-1.28,268.556
134797,153539,13990,-0.014,-0.969,-0.075,-3.049,-1.341,-1.28,268.559
134797,153404,12730,-0.008,-0.955,-0.121,-4.451,-2.256,-2.256,268.565
134814,153539,13990,-0.008,-0.955,-0.121,-4.451,-2.256,-2.256,268.569
134814,153413,12737,-0.001,-0.981,-0.145,-4.878,-2.134,-1.646,268.575
134811,153539,13990,-0.001,-0.981,-0.145,-4.878,-2.134,-1.646,268.579
134811,153413,12748,0.004,-0.997,-0.155,-2.744,-1.159,-0.976,268.585
134839,153539,13990,0.004,-0.997,-0.155,-2.744,-1.159,-0.976,268.589
134839,153448,12734,-0.009,-0.965,-0.113,0.549,0.732,0.122,268.595
134854,153539,13990,-0.009,-0.965,-0.113,0.549,0.732,0.122,268.599
134854,153485,12753,-0.019,-0.949,-0.085,4.085,1.951,1.768,268.605
134911,153539,13990,-0.019,-0.949,-0.085,4.085,1.951,1.768,268.609
134911,153490,12745,-0.022,-0.94,-0.051,4.451,2.256,2.012,268.615
134939,153539,13990,-0.022,-0.94,-0.051,4.451,2.256,2.012,268.619
134939,153543,12759,-0.025,-0.95,-0.065,2.378,1.463,1.098,268.625
135029,153539,13990,-0.025,-0.95,-0.065,2.378,1.463,1.098,268.629
135029,153563,12761,-0.021,-0.97,-0.064,-0.854,0.244,-0.122,268.635
135020,153539,13990,-0.021,-0.97,-0.064,-0.854,0.244,-0.122,268.638
135020,153574,12772,-0.015,-0.966,-0.107,-3.049,-0.854,-0.671,268.645
135002,153539,13990,-0.015,-0.966,-0.107,-3.049,-0.854,-0.671,268.648
135002,153525,12773,-0.003,-0.982,-0.14,-4.085,-1.28,-0.671,268.655
134970,153539,13990,-0.003,-0.982,-0.14,-4.085,-1.28,-0.671,268.658
134970,153526,12776,-0.003,-0.982,-0.131,-3.049,-0.732,-0.366,268.664
134949,153539,13990,-0.003,-0.982,-0.131,-3.049,-0.732,-0.366,268.668
134949,153511,12755,-0.008,-0.971,-0.131,0.427,0.61,0.915,268.674
134977,153539,13990,-0.01,-0.959,-0.129,0.427,0.61,0.915,268.678
134977,153555,12755,-0.013,-0.957,-0.114,2.866,1.707,1.829,268.684
134984,153539,13990,-0.015,-0.954,-0.093,2.866,1.707,1.829,268.688
134984,153544,12779,-0.018,-0.955,-0.081,3.902,1.89,2.012,268.694
135022,153539,13990,-0.02,-0.949,-0.068,3.902,1.89,2.012,268.698
135022,153560,12758,-0.024,-0.943,-0.061,2.744,1.646,1.646,268.704
135016,153539,13990,-0.028,-0.949,-0.062,2.744,1.646,1.646,268.708
135016,153547,12784,-0.025,-0.96,-0.063,0.366,0.61,0.488,268.714
135042,153539,13990,-0.019,-0.962,-0.073,0.366,0.61,0.488,268.718
135042,153561,12782,-0.016,-0.953,-0.087,-2.439,-0.61,-0.61,268.724
135035,153539,13990,-0.013,-0.955,-0.096,-2.439,-0.61,-0.61,268.728
135035,153563,12769,-0.009,-0.967,-0.111,-3.659,-0.793,-0.671,268.734
135013,153539,13990,-0.007,-0.976,-0.131,-3.659,-0.793,-0.671,268.737
135013,153550,12773,-0.008,-0.985,-0.124,-2.805,-0.244,-0.305,268.744
135006,153539,13990,-0.008,-0.978,-0.111,-2.805,-0.244,-0.305,268.747
135006,153509,12766,-0.01,-0.962,-0.11,-0.183,0.61,0.488,268.754
135034,153539,13990,-0.017,-0.958,-0.108,-0.183,0.61,0.488,268.757
135034,153542,12756,-0.016,-0.963,-0.1,1.098,1.402,1.159,268.763
135051,153539,13990,-0.015,-0.963,-0.1,1.098,1.402,1.159,268.767
135051,153542,12780,-0.015,-0.964,-0.084,1.22,1.28,0.976,268.773
135095,153539,13990,-0.021,-0.962,-0.078,1.22,1.28,0.976,268.777
135095,153567,12784,-0.024,-0.956,-0.089,0.915,0.854,0.915,268.783
135117,153539,13990,-0.025,-0.966,-0.081,0.915,0.854,0.915,268.787
135117,153598,12786,-0.022,-0.97,-0.054,-0.061,0,0.488,268.793
135154,153795,13990,-0.023,-0.962,-0.064,-0.061,0,0.488,268.797
135154,153604,12792,-0.021,-0.958,-0.088,-1.707,-1.28,-0.122,268.803
135147,153795,13990,-0.018,-0.963,-0.103,-1.707,-1.28,-0.122,268.807
135147,153610,12781,-0.01,-0.966,-0.127,-2.683,-1.159,-0.61,268.813
135143,153539,13990,-0.004,-0.972,-0.153,-2.683,-1.159,-0.61,268.817
135143,153584,12802,0.004,-0.986,-0.144,-1.768,-0.549,-0.305,268.823
135132,153539,13990,0.001,-0.987,-0.137,-1.768,-0.549,-0.305,268.827
135132,153594,12792,-0.008,-0.97,-0.137,1.524,1.037,0.854,268.833
135091,153539,13990,-0.014,-0.959,-0.119,1.524,1.037,0.854,268.837
135091,153552,12774,-0.018,-0.957,-0.095,4.39,2.622,2.012,268.843
135094,153539,13990,-0.022,-0.951,-0.075,4.39,2.622,2.012,268.846
135094,153586,12783,-0.026,-0.939,-0.072,4.756,2.439,2.012,268.853
135116,153539,13990,-0.03,-0.938,-0.073,4.756,2.439,2.012,268.856
135116,153588,12796,-0.028,-0.948,-0.055,2.683,1.22,1.098,268.862
135165,153795,13990,-0.025,-0.951,-0.056,2.683,1.22,1.098,268.866
135165,153641,12791,-0.019,-0.951,-0.082,0.488,0.122,-0.122,268.872
135152,153795,13990,-0.016,-0.969,-0.091,0.488,0.122,-0.122,268.876
135152,153612,12794,-0.008,-0.979,-0.098,-1.524,-0.366,-0.976,268.882
135123,153795,13990,-0.002,-0.964,-0.125,-1.524,-0.366,-0.976,268.886
135123,153613,12807,-0.005,-0.976,-0.132,-1.707,-0.061,-0.366,268.892
135091,153539,13990,-0.009,-1,-0.111,-1.707,-0.061,-0.366,268.896
135091,153571,12787,-0.007,-0.987,-0.113,0.671,0.915,0.427,268.902
135093,153539,13990,-0.007,-0.959,-0.117,0.671,0.915,0.427,268.906
135093,153583,12793,-0.016,-0.956,-0.095,2.134,1.524,1.585,268.912
135098,153539,13990,-0.022,-0.961,-0.078,2.134,1.524,1.585,268.916
135098,153573,12780,-0.024,-0.952,-0.088,2.5,1.707,1.768,268.922
135088,153539,13990,-0.021,-0.949,-0.089,2.5,1.707,1.768,268.926
135088,153582,12794,-0.021,-0.961,-0.07,1.22,1.402,0.854,268.932
135128,153795,13990,-0.021,-0.962,-0.065,1.22,1.402,0.854,268.935
135128,153615,12792,-0.025,-0.945,-0.083,0.305,0.549,0.305,268.942
135124,153539,13990,-0.023,-0.946,-0.084,0.305,0.549,0.305,268.945
135124,153584,12780,-0.018,-0.968,-0.07,-0.732,-0.305,0,268.952
135159,153795,13990,-0.016,-0.966,-0.089,-0.732,-0.305,0,268.955
135159,153646,12802,-0.013,-0.953,-0.122,-2.073,-0.549,-0.549,268.961
135193,153795,13990,-0.012,-0.967,-0.125,-2.073,-0.549,-0.549,268.965
135193,153642,12792,-0.004,-0.992,-0.115,-1.951,-0.183,-0.427,268.971
135206,153795,13990,0.002,-0.985,-0.113,-1.951,-0.183,-0.427,268.975
135206,153663,12815,-0.012,-0.958,-0.106,0.488,0.549,0.305,268.981
135246,153795,13990,-0.021,-0.948,-0.097,0.488,0.549,0.305,268.985
135246,153673,12792,-0.02,-0.958,-0.087,1.524,1.098,1.22,268.991
135231,153795,13990,-0.022,-0.962,-0.077,1.524,1.098,1.22,268.995
135231,153677,12794,-0.019,-0.962,-0.08,0.793,0.732,0.732,269.001
135232,153795,13990,-0.02,-0.959,-0.077,0.793,0.732,0.732,269.005
135232,153662,12807,-0.023,-0.959,-0.07,-0.549,0.061,0.366,269.011
135254,153795,13990,-0.023,-0.961,-0.074,-0.549,0.061,0.366,269.015
135254,153677,12804,-0.017,-0.964,-0.084,-1.768,-0.732,-0.244,269.021
135211,153795,13990,-0.014,-0.96,-0.092,-1.768,-0.732,-0.244,269.025
135211,153656,12800,-0.014,-0.961,-0.11,-2.378,-1.037,-0.488,269.031
135185,153795,13990,-0.009,-0.973,-0.111,-2.378,-1.037,-0.488,269.034
135185,153639,12802,-0.014,-0.973,-0.117,-2.439,-0.549,-0.671,269.041
