138939,153539,13990,-0.001,-0.971,-0.078,-0.488,0.427,0.427,37.348
138939,153440,13332,0.001,-0.969,-0.073,-0.122,0.488,0.488,37.354
138941,153539,13990,0,-0.967,-0.068,-0.122,0.488,0.488,37.358
138941,153440,13364,0,-0.962,-0.072,-0.244,0.488,0.732,37.364
138948,153539,13990,0.001,-0.965,-0.073,-0.244,0.488,0.732,37.368
138948,153445,13335,0.002,-0.966,-0.072,-0.427,0.488,0.915,37.374
138934,153539,13990,-0,-0.967,-0.071,-0.427,0.488,0.915,37.378
138934,153448,13341,-0.002,-0.965,-0.072,-0.427,0.671,1.037,37.384
138952,153539,13990,-0.003,-0.964,-0.071,-0.427,0.671,1.037,37.387
138952,153455,13342,-0.002,-0.966,-0.081,-0.671,0.732,0.976,37.394
138956,153539,13990,-0.006,-0.971,-0.087,-0.671,0.732,0.976,37.397
138956,153443,13346,-0.004,-0.974,-0.082,-0.427,0.671,0.732,37.404
138969,153539,13990,-0.004,-0.964,-0.075,-0.427,0.671,0.732,37.407
138969,153443,13354,-0.003,-0.957,-0.07,0.244,0.488,0.732,37.413
138963,153539,13990,-0.006,-0.958,-0.074,0.244,0.488,0.732,37.417
138963,153445,13347,-0.004,-0.966,-0.079,0.122,0.427,0.549,37.423
138972,153539,13990,-0.002,-0.973,-0.083,0.122,0.427,0.549,37.427
138972,153465,13348,0.003,-0.972,-0.082,-0.061,0.488,0,37.433
138969,153539,13990,0.002,-0.969,-0.083,-0.061,0.488,0,37.437
138969,153447,13359,-0.002,-0.965,-0.081,0.854,0.488,0.305,37.443
138971,153539,13990,-0.006,-0.959,-0.074,0.854,0.488,0.305,37.447
138971,153449,13348,-0.004,-0.962,-0.07,1.524,0.549,0.793,37.453
138988,153539,13990,-0,-0.962,-0.071,1.524,0.549,0.793,37.457
138988,153481,13358,-0.001,-0.959,-0.071,1.098,0.549,0.488,37.463
139014,153539,13990,-0.002,-0.962,-0.067,1.098,0.549,0.488,37.467
139014,153456,13354,-0.004,-0.964,-0.075,0.244,0.488,0.244,37.473
139019,153539,13990,0.002,-0.968,-0.075,0.244,0.488,0.244,37.477
139019,153484,13350,0.005,-0.965,-0.075,0.061,0.305,0.366,37.483
139004,153539,13990,0.002,-0.965,-0.072,0.061,0.305,0.366,37.486
139004,153493,13347,-0,-0.966,-0.071,0.122,0.305,0.549,37.493
139015,153539,13990,-0,-0.965,-0.081,0.122,0.305,0.549,37.496
139015,153512,13351,-0.001,-0.963,-0.08,0.366,0.488,0.671,37.503
139043,153539,13990,0.001,-0.966,-0.07,0.366,0.488,0.671,37.506
139043,153498,13357,-0.002,-0.964,-0.071,0.671,0.549,0.488,37.512
139034,153539,13990,-0.004,-0.959,-0.072,0.671,0.549,0.488,37.516
139034,153517,13358,-0.005,-0.963,-0.068,0.488,0.549,0.488,37.522
139049,153539,13990,-0.005,-0.962,-0.068,0.488,0.549,0.488,37.526
139049,153499,13357,-0.004,-0.964,-0.062,0,0.488,0.427,37.532
139052,153539,13990,-0.004,-0.962,-0.063,0,0.488,0.427,37.536
139052,153525,13356,-0.006,-0.96,-0.068,-1.159,0.305,0.305,37.542
139040,153539,13990,-0.004,-0.965,-0.075,-1.159,0.305,0.305,37.546
139040,153534,13373,-0.001,-0.965,-0.076,-1.646,0.183,0.244,37.552
139041,153539,13990,-0.001,-0.968,-0.075,-1.646,0.183,0.244,37.556
139041,153552,13374,0,-0.969,-0.079,-1.524,0.061,0.244,37.562
139064,153539,13990,0,-0.97,-0.079,-1.524,0.061,0.244,37.566
139064,153514,13361,-0.002,-0.968,-0.082,-1.28,0.061,0.366,37.572
139066,153539,13990,-0.001,-0.967,-0.084,-1.28,0.061,0.366,37.576
139066,153524,13357,0.001,-0.968,-0.079,-0.732,0.183,0.61,37.582
139048,153539,13990,0.001,-0.967,-0.077,-0.732,0.183,0.61,37.585
139048,153520,13356,-0.001,-0.961,-0.074,0,0.244,0.732,37.592
139090,153539,13990,-0.001,-0.961,-0.076,0,0.244,0.732,37.595
139090,153524,13374,-0.003,-0.962,-0.071,-0.122,0.366,0.732,37.602
139086,153539,13990,-0.002,-0.964,-0.071,-0.122,0.366,0.732,37.605
139086,153533,13369,0,-0.964,-0.074,-0.488,0.366,0.671,37.611
139079,153539,13990,0.001,-0.966,-0.075,-0.488,0.366,0.671,37.615
139079,153556,13367,0,-0.965,-0.078,-0.732,0.244,0.732,37.621
139107,153539,13990,-0.002,-0.965,-0.078,-0.732,0.244,0.732,37.625
139107,153535,13354,-0,-0.967,-0.078,-0.854,0.366,0.915,37.631
139061,153539,13990,-0.001,-0.962,-0.074,-0.854,0.366,0.915,37.635
139061,153522,13367,-0.001,-0.964,-0.077,-0.427,0.366,0.915,37.641
139096,153539,13990,-0.005,-0.965,-0.073,-0.427,0.366,0.915,37.645
139096,153524,13366,-0.003,-0.969,-0.07,-0.366,0.427,0.976,37.651
139047,153539,13990,-0,-0.968,-0.072,-0.366,0.427,0.976,37.655
139047,153543,13365,-0.004,-0.965,-0.073,-0.61,0.427,0.915,37.661
139041,153539,13990,-0.006,-0.964,-0.073,-0.61,0.427,0.915,37.665
139041,153514,13361,-0.01,-0.962,-0.076,-1.159,0.427,0.854,37.671
139048,153539,13990,-0.01,-0.962,-0.076,-1.159,0.427,0.854,37.675
139048,153516,13358,-0.004,-0.963,-0.074,-1.22,0.488,0.61,37.681
139017,153539,13990,-0.004,-0.963,-0.074,-1.22,0.488,0.61,37.684
139017,153484,13353,-0.005,-0.966,-0.077,-1.037,0.366,0.366,37.691
139033,153539,13990,-0.005,-0.966,-0.077,-1.037,0.366,0.366,37.694
139033,153480,13354,-0.004,-0.967,-0.079,-1.098,0.427,0.427,37.701
139018,153539,13990,-0.004,-0.967,-0.079,-1.098,0.427,0.427,37.704
139018,153488,13340,-0.002,-0.965,-0.077,-0.793,0.488,0.427,37.71
139043,153539,13990,-0.002,-0.965,-0.077,-0.793,0.488,0.427,37.714
139043,153497,13357,-0.001,-0.965,-0.077,-0.488,0.366,0.488,37.72
139029,153539,13990,-0.001,-0.965,-0.077,-0.488,0.366,0.488,37.724
139029,153495,13362,0.001,-0.961,-0.076,-0.61,0.427,0.671,37.73
139037,153539,13990,0.001,-0.961,-0.076,-0.61,0.427,0.671,37.734
139037,153490,13351,-0.001,-0.963,-0.078,-0.976,0.488,0.61,37.74
139008,153539,13990,-0.001,-0.963,-0.078,-0.976,0.488,0.61,37.744
139008,153486,13360,0.001,-0.966,-0.083,-1.28,0.366,0.366,37.75
139051,153539,13990,0.001,-0.966,-0.083,-1.28,0.366,0.366,37.754
139051,153497,13333,-0.003,-0.966,-0.082,-0.854,0.183,0.427,37.76
139018,153539,13990,-0.003,-0.966,-0.082,-0.854,0.183,0.427,37.764
139018,153517,13348,-0.005,-0.964,-0.078,-0.122,0.305,0.427,37.77
139039,153539,13990,-0.005,-0.964,-0.078,-0.122,0.305,0.427,37.774
139039,153510,13358,-0.004,-0.967,-0.081,0.183,0.427,0.305,37.78
139047,153539,13990,-0.004,-0.967,-0.081,0.183,0.427,0.305,37.783
139047,153507,13347,-0.004,-0.968,-0.079,0.488,0.305,0.366,37.79
139047,153539,13990,-0.004,-0.968,-0.079,0.488,0.305,0.366,37.793
139047,153481,13363,-0.005,-0.961,-0.074,0.671,0.427,0.366,37.8
139051,153539,13990,-0.005,-0.961,-0.074,0.671,0.427,0.366,37.803
139051,153498,13346,-0.003,-0.963,-0.07,0.549,0.427,0.305,37.809
139020,153539,13990,-0.003,-0.963,-0.07,0.549,0.427,0.305,37.813
139020,153498,13340,-0.005,-0.96,-0.071,0.549,0.427,0.305,37.819
139032,153539,13990,-0.006,-0.964,-0.075,-0.305,0.427,0.183,37.823
139032,153482,13341,-0.002,-0.966,-0.077,-0.305,0.427,0.183,37.829
139000,153539,13990,-0.003,-0.968,-0.077,-0.793,0.427,0.061,37.833
139000,153479,13350,-0.002,-0.966,-0.074,-0.793,0.427,0.061,37.839
138997,153539,13990,-0.003,-0.964,-0.078,-0.732,0.366,0.122,37.843
138997,153475,13338,-0.002,-0.961,-0.073,-0.732,0.366,0.122,37.849
138998,153539,13990,-0.002,-0.959,-0.078,-0.854,0.305,0.305,37.853
138998,153465,13342,-0.002,-0.964,-0.08,-0.854,0.305,0.305,37.859
139000,153539,13990,-0.003,-0.969,-0.079,-0.732,0.305,0.305,37.863
139000,153467,13337,-0.001,-0.969,-0.081,-0.732,0.305,0.305,37.869
138988,153539,13990,0,-0.963,-0.082,-0.366,0.366,0.366,37.873
138988,153455,13340,0,-0.965,-0.08,-0.366,0.366,0.366,37.879
139020,153539,13990,-0.001,-0.962,-0.077,-0.061,0.427,0.61,37.882
139020,153445,13334,-0.001,-0.963,-0.076,-0.061,0.427,0.61,37.889
138975,153539,13990,-0.003,-0.966,-0.081,0,0.366,0.671,37.892
138975,153428,13345,-0.004,-0.964,-0.081,0,0.366,0.671,37.899
138972,153539,13990,-0.001,-0.965,-0.079,-0.122,0.366,0.61,37.902
138972,153439,13332,0.001,-0.963,-0.076,-0.122,0.366,0.61,37.908
138963,153539,13990,-0.003,-0.966,-0.079,-0.122,0.427,0.732,37.912
138963,153413,13340,-0.003,-0.964,-0.076,-0.122,0.427,0.732,37.918
138963,153539,13990,-0.002,-0.966,-0.075,-0.122,0.488,0.732,37.922
138963,153417,13320,-0.005,-0.968,-0.077,-0.122,0.488,0.732,37.928
138951,153539,13990,-0.005,-0.966,-0.079,-0.122,0.488,0.732,37.932
138951,153426,13330,-0.005,-0.964,-0.073,-0.122,0.488,0.732,37.938
138935,153539,13990,-0.005,-0.964,-0.074,-0.183,0.61,0.671,37.942
138935,153393,13323,-0.006,-0.965,-0.075,-0.183,0.61,0.671,37.948
138953,153539,13990,-0.007,-0.965,-0.073,-0.305,0.671,0.61,37.952
138953,153410,13321,-0.005,-0.963,-0.075,-0.305,0.671,0.61,37.958
138941,153539,13990,-0.006,-0.961,-0.075,-0.549,0.671,0.488,37.962
138941,153381,13325,-0.006,-0.964,-0.079,-0.549,0.671,0.488,37.968
138951,153539,13990,-0.007,-0.966,-0.078,-0.549,0.549,0.305,37.972
138951,153390,13317,-0.004,-0.967,-0.083,-0.549,0.549,0.305,37.978
138934,153539,13990,0.001,-0.965,-0.081,-0.122,0.427,0.183,37.981
138934,153389,13330,-0.002,-0.964,-0.079,-0.122,0.427,0.183,37.988
138932,153539,13990,-0.005,-0.962,-0.079,0.122,0.427,0.244,37.991
138932,153386,13323,-0.005,-0.964,-0.08,0.122,0.427,0.244,37.998
138936,153539,13990,-0.003,-0.966,-0.078,0.488,0.488,0.183,38.001
138936,153389,13330,-0.003,-0.966,-0.079,0.488,0.488,0.183,38.007
138940,153539,13990,-0.002,-0.963,-0.074,0.671,0.549,0.061,38.011
138940,153392,13310,-0.001,-0.962,-0.074,0.671,0.549,0.061,38.017
138928,153539,13990,-0,-0.965,-0.074,0.366,0.427,0.061,38.021
138928,153375,13328,-0.003,-0.964,-0.078,0.366,0.427,0.061,38.027
138917,153539,13990,-0.004,-0.966,-0.078,-0.183,0.427,0.061,38.031
138917,153380,13335,-0,-0.968,-0.082,-0.183,0.427,0.061,38.037
138921,153539,13990,-0.001,-0.969,-0.077,-0.305,0.366,0,38.041
138921,153373,13327,-0.001,-0.97,-0.077,-0.305,0.366,0,38.047
138905,153539,13990,0.001,-0.968,-0.073,0.061,0.305,0.244,38.051
138905,153369,13327,-0.001,-0.963,-0.07,0.061,0.305,0.244,38.057
138923,153539,13990,-0.005,-0.961,-0.073,-0.183,0.427,0.61,38.061
138923,153388,13330,-0.006,-0.966,-0.07,-0.183,0.427,0.61,38.067
138948,153539,13990,-0.006,-0.963,-0.073,-0.488,0.305,0.61,38.071
138948,153387,13328,-0.005,-0.963,-0.077,-0.488,0.305,0.61,38.077
138942,153539,13990,-0.005,-0.965,-0.073,-0.732,0.366,0.427,38.08
138942,153395,13330,-0.005,-0.962,-0.072,-0.732,0.366,0.427,38.087
138956,153539,13990,-0.001,-0.958,-0.073,-1.037,0.305,0.427,38.09
138956,153398,13318,-0.002,-0.964,-0.074,-1.037,0.305,0.427,38.097
138950,153539,13990,-0.005,-0.963,-0.076,-1.585,0.366,0.305,38.1
138950,153426,13318,-0.005,-0.966,-0.078,-1.585,0.366,0.305,38.106
138942,153539,13990,-0.005,-0.967,-0.084,-1.768,0.427,-0.061,38.11
138942,153398,13340,-0.002,-0.969,-0.082,-1.768,0.427,-0.061,38.116
138954,153539,13990,0,-0.967,-0.085,-1.646,0.366,-0.183,38.12
138954,153409,13330,-0.004,-0.967,-0.086,-1.646,0.366,-0.183,38.126
138950,153539,13990,-0.004,-0.968,-0.086,-1.098,0.366,-0.122,38.13
138950,153418,13330,-0.006,-0.965,-0.088,-1.098,0.366,-0.122,38.136
138952,153539,13990,-0.003,-0.967,-0.087,-0.244,0.366,-0.122,38.14
138952,153415,13328,0,-0.967,-0.087,-0.244,0.366,-0.122,38.146
138971,153539,13990,0.001,-0.965,-0.078,0.366,0.488,0.061,38.15
138971,153412,13335,0,-0.965,-0.075,0.366,0.488,0.061,38.156
138964,153539,13990,0.001,-0.962,-0.074,0.549,0.427,0.122,38.16
138964,153426,13322,-0.001,-0.966,-0.07,0.549,0.427,0.122,38.166
138963,153539,13990,-0.001,-0.964,-0.075,0.122,0.366,0.183,38.17
138963,153403,13328,0.002,-0.963,-0.077,0.122,0.366,0.183,38.176
138976,153539,13990,-0.001,-0.967,-0.074,-0.488,0.244,0.244,38.18
138976,153422,13326,-0.003,-0.965,-0.077,-0.488,0.244,0.244,38.186
138955,153539,13990,-0.003,-0.965,-0.081,-0.671,0.244,0.244,38.189
138955,153434,13337,-0.004,-0.97,-0.085,-0.671,0.244,0.244,38.196
138985,153539,13990,-0.001,-0.968,-0.082,-0.366,0.305,0.427,38.199
138985,153423,13323,-0.001,-0.964,-0.082,-0.366,0.305,0.427,38.205
138967,153539,13990,0.002,-0.962,-0.078,0.061,0.366,0.488,38.209
138967,153453,13324,-0.002,-0.96,-0.084,0.061,0.366,0.488,38.215
138989,153539,13990,-0.004,-0.962,-0.079,0.305,0.366,0.549,38.219
138989,153428,13345,-0.005,-0.965,-0.074,0.305,0.366,0.549,38.225
138976,153539,13990,-0.003,-0.965,-0.078,0.549,0.488,0.183,38.229
138976,153424,13333,-0.001,-0.966,-0.082,0.549,0.488,0.183,38.235
138953,153539,13990,-0.006,-0.964,-0.08,0.61,0.549,0.122,38.239
138953,153457,13344,-0.004,-0.964,-0.075,0.61,0.549,0.122,38.245
138992,153539,13990,-0.002,-0.962,-0.072,0.549,0.549,0.122,38.249
138992,153432,13345,-0,-0.963,-0.075,0.549,0.549,0.122,38.255
138980,153539,13990,-0.004,-0.963,-0.074,0.244,0.549,0.183,38.259
138980,153440,13343,-0.003,-0.965,-0.073,0.244,0.549,0.183,38.265
139005,153539,13990,-0.003,-0.965,-0.073,0.244,0.549,0.183,38.269
139005,153447,13340,-0.004,-0.962,-0.072,-0.122,0.366,0.122,38.275
138986,153539,13990,-0.004,-0.962,-0.072,-0.122,0.366,0.122,38.278
138986,153434,13356,-0.004,-0.968,-0.078,-0.793,0.305,0.061,38.285
138984,153539,13990,-0.004,-0.968,-0.078,-0.793,0.305,0.061,38.288
138984,153442,13344,-0.002,-0.962,-0.081,-1.28,0.183,-0.061,38.295
138983,153539,13990,-0.002,-0.962,-0.081,-1.28,0.183,-0.061,38.298
138983,153425,13341,-0.002,-0.968,-0.078,-0.854,0.183,-0.183,38.304
139006,153539,13990,-0.002,-0.968,-0.078,-0.854,0.183,-0.183,38.308
139006,153435,13341,-0.001,-0.966,-0.083,-0.549,0.244,-0.183,38.314
138997,153539,13990,-0.001,-0.966,-0.083,-0.549,0.244,-0.183,38.318
138997,153414,13348,-0.001,-0.968,-0.086,-0.122,0.366,-0.244,38.324
139002,153539,13990,-0.001,-0.968,-0.086,-0.122,0.366,-0.244,38.328
139002,153430,13338,-0.001,-0.967,-0.085,0.549,0.244,-0.305,38.334
138986,153539,13990,-0.001,-0.967,-0.085,0.549,0.244,-0.305,38.338
138986,153431,13340,-0.002,-0.965,-0.079,1.037,0.305,-0.183,38.344
139008,153539,13990,-0.002,-0.965,-0.079,1.037,0.305,-0.183,38.348
139008,153453,13341,-0.001,-0.964,-0.08,1.159,0.427,-0.061,38.354
138973,153539,13990,-0.001,-0.964,-0.08,1.159,0.427,-0.061,38.358
138973,153414,13345,0.002,-0.962,-0.08,0.976,0.427,0,38.364
138975,153539,13990,0.002,-0.962,-0.08,0.976,0.427,0,38.368
138975,153438,13334,0.001,-0.966,-0.072,0.915,0.427,0.061,38.374
138939,153539,13990,0.001,-0.966,-0.072,0.915,0.427,0.061,38.378
138939,153440,13337,-0.002,-0.963,-0.078,0.915,0.366,0.122,38.384
138925,153539,13990,-0.002,-0.963,-0.078,0.915,0.366,0.122,38.387
138925,153400,13337,0.001,-0.964,-0.075,0.427,0.427,0.061,38.394
138918,153539,13990,0.001,-0.964,-0.075,0.427,0.427,0.061,38.397
138918,153394,13347,0.002,-0.965,-0.073,0.122,0.488,0.244,38.403
138938,153539,13990,0.002,-0.965,-0.073,0.122,0.488,0.244,38.407
138938,153407,13338,0,-0.964,-0.073,0.122,0.366,0.305,38.413
138922,153539,13990,0.001,-0.964,-0.078,0.122,0.366,0.305,38.417
138922,153410,13352,-0.004,-0.965,-0.082,0.061,0.366,0.427,38.423
138946,153539,13990,-0,-0.969,-0.075,0.061,0.366,0.427,38.427
138946,153440,13344,0.002,-0.97,-0.077,0.122,0.427,0.366,38.433
138916,153539,13990,0.001,-0.966,-0.078,0.122,0.427,0.366,38.437
138916,153446,13339,-0.001,-0.965,-0.077,0.183,0.488,0.61,38.443
138926,153539,13990,-0.002,-0.965,-0.076,0.183,0.488,0.61,38.447
138926,153431,13341,-0.003,-0.966,-0.076,0.366,0.427,0.732,38.453
138918,153539,13990,-0,-0.965,-0.077,0.366,0.427,0.732,38.457
138918,153442,13331,-0,-0.962,-0.074,0.122,0.427,0.671,38.463
138919,153539,13990,-0,-0.963,-0.075,0.122,0.427,0.671,38.467
138919,153405,13348,-0.005,-0.964,-0.077,-0.366,0.427,0.488,38.473
138920,153539,13990,-0,-0.967,-0.075,-0.366,0.427,0.488,38.477
138920,153428,13343,0,-0.965,-0.075,-0.244,0.305,0.305,38.483
138919,153539,13990,-0.002,-0.961,-0.079,-0.244,0.305,0.305,38.486
138919,153428,13356,-0.003,-0.962,-0.077,-0.244,0.183,0.305,38.493
138922,153539,13990,0,-0.966,-0.078,-0.244,0.183,0.305,38.496
138922,153431,13346,0.002,-0.971,-0.081,-0.244,0.244,0.244,38.502
138897,153539,13990,0.005,-0.968,-0.084,-0.244,0.244,0.244,38.506
138897,153419,13347,0.003,-0.968,-0.079,0.061,0.366,0.427,38.512
138915,153539,13990,0.004,-0.963,-0.082,0.061,0.366,0.427,38.516
138915,153415,13345,0.002,-0.965,-0.078,0.427,0.427,0.793,38.522
138927,153539,13990,-0.001,-0.964,-0.071,0.427,0.427,0.793,38.526
138927,153424,13345,-0.001,-0.961,-0.074,0.488,0.488,1.037,38.532
138912,153539,13990,-0.001,-0.965,-0.068,0.488,0.488,1.037,38.536
138912,153407,13346,-0.002,-0.963,-0.07,0.122,0.488,0.854,38.542
138912,153539,13990,-0.002,-0.963,-0.071,0.122,0.488,0.854,38.546
138912,153422,13312,-0.003,-0.964,-0.073,-0.366,0.488,0.793,38.552
138897,153539,13990,-0.003,-0.967,-0.075,-0.366,0.488,0.793,38.556
138897,153444,13338,-0.002,-0.965,-0.075,-0.61,0.427,0.732,38.562
138910,153539,13990,-0.004,-0.962,-0.072,-0.61,0.427,0.732,38.566
138910,153399,13328,-0.002,-0.965,-0.079,-0.366,0.366,0.549,38.572
138886,153539,13990,-0.004,-0.966,-0.078,-0.366,0.366,0.549,38.576
138886,153409,13343,-0.002,-0.967,-0.078,-0.183,0.305,0.427,38.582
138888,153539,13990,-0.003,-0.965,-0.079,-0.183,0.305,0.427,38.585
138888,153392,13326,-0.003,-0.967,-0.076,0,0.305,0.305,38.592
138900,153539,13990,-0.005,-0.965,-0.079,0,0.305,0.305,38.595
138900,153405,13327,-0.003,-0.962,-0.077,0.183,0.366,0.366,38.601
138916,153539,13990,0,-0.965,-0.076,0.183,0.366,0.366,38.605
138916,153416,13353,0,-0.964,-0.073,0.305,0.366,0.366,38.611
138945,153539,13990,-0.002,-0.965,-0.077,0.305,0.366,0.366,38.615
138945,153436,13353,-0.004,-0.968,-0.077,0.244,0.244,0.427,38.621
138936,153539,13990,-0.001,-0.966,-0.078,0.244,0.244,0.427,38.625
138936,153438,13350,0,-0.963,-0.079,0.061,0.305,0.305,38.631
138955,153539,13990,-0,-0.965,-0.078,0.061,0.305,0.305,38.635
138955,153464,13335,-0.002,-0.967,-0.072,0,0.427,0.244,38.641
138953,153539,13990,0,-0.966,-0.072,0,0.427,0.244,38.645
138953,153455,13342,0.001,-0.966,-0.071,0.122,0.427,0.244,38.651
138952,153539,13990,0,-0.967,-0.076,0.122,0.427,0.244,38.655
138952,153467,13340,-0.001,-0.966,-0.08,0,0.366,0.305,38.661
138944,153539,13990,-0.002,-0.965,-0.078,0,0.366,0.305,38.665
138944,153468,13346,0.002,-0.968,-0.078,0.122,0.305,0.366,38.671
138975,153539,13990,-0.001,-0.964,-0.077,0.122,0.305,0.366,38.675
138975,153445,13343,-0.001,-0.96,-0.074,0.427,0.427,0.427,38.681
138954,153539,13990,-0.001,-0.965,-0.076,0.427,0.427,0.427,38.684
138954,153456,13335,-0.002,-0.966,-0.073,0.427,0.366,0.488,38.691
138939,153539,13990,-0,-0.967,-0.071,0.427,0.366,0.488,38.694
138939,153442,13350,0.001,-0.966,-0.074,0.366,0.427,0.488,38.7
138964,153539,13990,-0.001,-0.963,-0.076,0.366,0.427,0.488,38.704
138964,153425,13341,-0.004,-0.962,-0.074,0,0.488,0.671,38.71
138964,153539,13990,-0.004,-0.963,-0.072,0,0.488,0.671,38.714
138964,153439,13345,-0.005,-0.964,-0.077,-0.305,0.366,0.488,38.72
138974,153539,13990,-0.005,-0.965,-0.079,-0.305,0.366,0.488,38.724
138974,153441,13353,-0.003,-0.966,-0.074,-0.427,0.366,0.305,38.73
139004,153539,13990,-0.003,-0.965,-0.077,-0.427,0.366,0.305,38.734
139004,153455,13352,-0.005,-0.963,-0.078,-0.305,0.305,0.244,38.74
138994,153539,13990,-0.004,-0.97,-0.077,-0.305,0.305,0.244,38.744
138994,153451,13353,-0.004,-0.967,-0.078,-0.244,0.366,0.122,38.75
138985,153539,13990,-0.003,-0.967,-0.08,-0.244,0.366,0.122,38.754
138985,153463,13349,-0.002,-0.966,-0.078,0.122,0.366,0.061,38.76
139000,153539,13990,-0.003,-0.963,-0.072,0.122,0.366,0.061,38.764
139000,153447,13341,-0.002,-0.961,-0.073,0.305,0.366,0.183,38.77
138996,153539,13990,-0,-0.965,-0.072,0.305,0.366,0.183,38.774
138996,153451,13362,-0.001,-0.966,-0.072,0.305,0.305,0.305,38.78
139016,153539,13990,0.001,-0.965,-0.073,0.305,0.305,0.305,38.783
139016,153473,13345,0.003,-0.967,-0.068,0,0.366,0.366,38.79
138997,153539,13990,0.003,-0.964,-0.075,0,0.366,0.366,38.793
138997,153452,13349,0.001,-0.965,-0.075,-0.366,0.427,0.61,38.799
138985,153539,13990,-0.001,-0.966,-0.076,-0.366,0.427,0.61,38.803
138985,153464,13335,-0.004,-0.966,-0.078,-0.61,0.305,0.671,38.809
139000,153539,13990,0.002,-0.966,-0.077,-0.61,0.305,0.671,38.813
139000,153437,13329,-0.001,-0.965,-0.076,-0.549,0.366,0.488,38.819
138993,153539,13990,-0.003,-0.966,-0.077,-0.549,0.366,0.488,38.823
138993,153480,13342,-0.004,-0.967,-0.077,-0.305,0.427,0.61,38.829
138999,153539,13990,-0.003,-0.964,-0.073,-0.305,0.427,0.61,38.833
138999,153453,13333,-0.002,-0.966,-0.077,-0.061,0.549,0.488,38.839
138984,153539,13990,0.001,-0.966,-0.077,-0.061,0.549,0.488,38.843
138984,153465,13342,-0,-0.965,-0.078,0,0.488,0.427,38.849
138985,153539,13990,-0.004,-0.966,-0.073,0,0.488,0.427,38.853
138985,153469,13345,-0.004,-0.967,-0.073,0.122,0.488,0.488,38.859
139018,153539,13990,-0.004,-0.967,-0.073,0.122,0.488,0.488,38.863
139018,153456,13335,-0.004,-0.964,-0.081,-0.122,0.427,0.366,38.869
139014,153539,13990,-0.004,-0.964,-0.081,-0.122,0.427,0.366,38.873
139014,153451,13349,-0.001,-0.966,-0.07,-0.183,0.427,0.305,38.879
139038,153539,13990,-0.001,-0.966,-0.07,-0.183,0.427,0.305,38.882
139038,153451,13344,-0.003,-0.964,-0.076,0,0.366,0.427,38.889
139037,153539,13990,-0.003,-0.964,-0.076,0,0.366,0.427,38.892
139037,153481,13356,-0.002,-0.966,-0.075,0,0.427,0.427,38.898
139027,153539,13990,-0.002,-0.966,-0.075,0,0.427,0.427,38.902
139027,153472,13363,-0.004,-0.966,-0.075,0,0.366,0.244,38.908
139054,153539,13990,-0.004,-0.966,-0.075,0,0.366,0.244,38.912
139054,153481,13338,-0.001,-0.964,-0.075,0.061,0.366,0.244,38.918
139041,153539,13990,-0.001,-0.964,-0.075,0.061,0.366,0.244,38.922
139041,153477,13348,-0.004,-0.966,-0.079,0.122,0.427,0.305,38.928
139077,153539,13990,-0.004,-0.966,-0.079,0.122,0.427,0.305,38.932
139077,153481,13336,0,-0.965,-0.077,0.366,0.549,0.183,38.938
139063,153539,13990,0,-0.965,-0.077,0.366,0.549,0.183,38.942
139063,153513,13355,-0.001,-0.966,-0.073,0.427,0.427,0.183,38.948
139071,153539,13990,-0.001,-0.966,-0.073,0.427,0.427,0.183,38.952
139071,153502,13353,0,-0.963,-0.075,0.122,0.427,0.244,38.958
139053,153539,13990,0,-0.963,-0.075,0.122,0.427,0.244,38.962
139053,153485,13372,-0.002,-0.964,-0.071,-0.061,0.549,0.427,38.968
139067,153539,13990,-0.002,-0.964,-0.071,-0.061,0.549,0.427,38.972
139067,153498,13366,-0,-0.956,-0.07,-0.305,0.488,0.488,38.978
139077,153539,13990,-0,-0.956,-0.07,-0.305,0.488,0.488,38.981
139077,153484,13358,-0.005,-0.965,-0.078,-0.61,0.427,0.366,38.988
139075,153539,13990,-0.005,-0.965,-0.078,-0.61,0.427,0.366,38.991
139075,153490,13351,0,-0.969,-0.075,-0.488,0.305,0.244,38.998
139075,153539,13990,0,-0.969,-0.075,-0.488,0.305,0.244,39.001
139075,153482,13354,0,-0.968,-0.079,-0.488,0.305,0.244,39.007
139078,153539,13990,0,-0.968,-0.085,-0.427,0.366,0.244,39.011
139078,153483,13356,-0,-0.974,-0.091,-0.427,0.366,0.244,39.017
139067,153539,13990,-0.001,-0.972,-0.086,0.366,0.671,0.305,39.021
139067,153469,13362,0.001,-0.966,-0.074,0.366,0.671,0.305,39.027
139080,153539,13990,-0.001,-0.958,-0.069,1.402,0.488,0.732,39.031
139080,153517,13349,-0.004,-0.956,-0.068,1.402,0.488,0.732,39.037
139078,153539,13990,-0.007,-0.956,-0.063,1.098,0.549,0.793,39.041
139078,153498,13364,-0.006,-0.956,-0.058,1.098,0.549,0.793,39.047
139083,153539,13990,-0.003,-0.956,-0.062,0.122,0.244,0.305,39.051
139083,153534,13364,-0.005,-0.962,-0.072,0.122,0.244,0.305,39.057
139076,153539,13990,-0.005,-0.969,-0.071,-1.28,0.244,-0.061,39.061
139076,153537,13354,0,-0.973,-0.079,-1.28,0.244,-0.061,39.067
139080,153539,13990,-0.002,-0.972,-0.083,-1.463,0.366,-0.305,39.071
139080,153513,13361,-0.003,-0.971,-0.084,-1.463,0.366,-0.305,39.077
139099,153539,13990,-0.001,-0.97,-0.078,-0.915,0.366,0,39.08
139099,153513,13361,-0,-0.966,-0.083,-0.915,0.366,0,39.087
139093,153539,13990,-0.002,-0.966,-0.077,-0.305,0.488,0.244,39.09
139093,153503,13377,-0.002,-0.964,-0.077,-0.305,0.488,0.244,39.097
139105,153539,13990,-0.001,-0.965,-0.078,0.183,0.427,0.305,39.1
139105,153504,13362,-0.001,-0.967,-0.078,0.183,0.427,0.305,39.106
139101,153539,13990,-0.002,-0.969,-0.084,0.244,0.427,0.244,39.11
139101,153503,13354,0.003,-0.97,-0.074,0.244,0.427,0.244,39.116
139108,153539,13990,0.004,-0.966,-0.075,0.366,0.244,0.183,39.12
139108,153509,13359,0.003,-0.965,-0.078,0.366,0.244,0.183,39.126
139110,153539,13990,0.001,-0.962,-0.076,0.305,0.305,0.366,39.13
139110,153524,13355,-0.001,-0.964,-0.078,0.305,0.305,0.366,39.136
139100,153539,13990,0.001,-0.961,-0.073,0.305,0.305,0.488,39.14
139100,153514,13353,0,-0.963,-0.07,0.305,0.305,0.488,39.146
139104,153539,13990,0.001,-0.965,-0.068,0.183,0.366,0.61,39.15
139104,153496,13377,-0,-0.964,-0.068,0.183,0.366,0.61,39.156
139093,153539,13990,0,-0.962,-0.07,-0.488,0.305,0.854,39.16
139093,153507,13365,-0.003,-0.966,-0.075,-0.488,0.305,0.854,39.166
139087,153539,13990,-0.002,-0.967,-0.072,-1.28,0.366,0.732,39.17
139087,153524,13374,-0.002,-0.967,-0.073,-1.28,0.366,0.732,39.176
139092,153539,13990,-0.004,-0.963,-0.077,-1.402,0.488,0.61,39.179
139092,153492,13366,-0.006,-0.965,-0.075,-1.402,0.488,0.61,39.186
139097,153539,13990,-0.006,-0.965,-0.075,-1.037,0.549,0.427,39.189
139097,153524,13369,-0.008,-0.963,-0.072,-1.037,0.549,0.427,39.196
139111,153539,13990,-0.006,-0.965,-0.079,-0.671,0.488,0.122,39.199
139111,153519,13367,-0.003,-0.968,-0.08,-0.671,0.488,0.122,39.205
139139,153539,13990,-0.005,-0.969,-0.078,-0.183,0.488,-0.183,39.209
139139,153537,13349,-0.004,-0.969,-0.079,-0.183,0.488,-0.183,39.215
139125,153539,13990,-0.003,-0.966,-0.081,0.244,0.488,-0.183,39.219
139125,153543,13379,-0.002,-0.966,-0.079,0.244,0.488,-0.183,39.225
139150,153539,13990,-0.002,-0.965,-0.076,0.793,0.427,-0.061,39.229
139150,153546,13376,-0.001,-0.964,-0.073,0.793,0.427,-0.061,39.235
139127,153539,13990,0.001,-0.963,-0.076,0.793,0.305,0,39.239
139127,153551,13379,-0.001,-0.968,-0.071,0.793,0.305,0,39.245
139136,153539,13990,0.001,-0.969,-0.072,0.488,0.366,0.061,39.249
139136,153556,13384,0,-0.963,-0.07,0.488,0.366,0.061,39.255
139132,153539,13990,-0.001,-0.959,-0.074,-0.183,0.244,0.183,39.259
139132,153544,13377,-0.002,-0.962,-0.072,-0.183,0.244,0.183,39.265
139111,153539,13990,-0.004,-0.962,-0.078,-0.549,0.244,0.122,39.269
139111,153540,13380,-0.001,-0.966,-0.079,-0.549,0.244,0.122,39.275
139133,153539,13990,-0.003,-0.966,-0.075,-0.427,0.305,-0.061,39.278
139133,153546,13379,-0.001,-0.965,-0.078,-0.427,0.305,-0.061,39.285
139119,153539,13990,-0.003,-0.965,-0.076,-0.061,0.427,-0.122,39.288
139119,153561,13377,-0.002,-0.966,-0.073,-0.061,0.427,-0.122,39.295
139140,153539,13990,-0.003,-0.967,-0.075,0.244,0.366,-0.061,39.298
139140,153578,13376,-0.001,-0.972,-0.078,0.244,0.366,-0.061,39.304
139143,153539,13990,0.003,-0.965,-0.075,0.244,0.366,0.061,39.308
139143,153586,13383,0.001,-0.963,-0.071,0.244,0.366,0.061,39.314
139175,153795,13990,0.002,-0.963,-0.076,0.244,0.366,0.305,39.318
139175,153600,13388,-0.002,-0.961,-0.076,0.244,0.366,0.305,39.324
139153,153539,13990,-0.001,-0.962,-0.07,0.183,0.488,0.366,39.328
139153,153591,13364,0,-0.961,-0.073,0.183,0.488,0.366,39.334
139141,153539,13990,-0.001,-0.963,-0.076,-0.061,0.488,0.366,39.338
139141,153597,13392,-0.002,-0.965,-0.079,-0.061,0.488,0.366,39.344
139118,153539,13990,-0.001,-0.968,-0.074,0,0.488,0.366,39.348
139118,153562,13392,-0,-0.967,-0.072,0,0.488,0.366,39.354
139099,153539,13990,0,-0.967,-0.074,-0.183,0.488,0.488,39.358
139099,153550,13385,0.001,-0.967,-0.073,-0.183,0.488,0.488,39.364
139122,153539,13990,-0.002,-0.965,-0.073,-0.183,0.427,0.488,39.368
139122,153530,13374,-0.002,-0.965,-0.076,-0.183,0.427,0.488,39.374
139103,153539,13990,-0.001,-0.966,-0.075,-0.366,0.305,0.427,39.377
139103,153529,13386,-0.001,-0.962,-0.074,-0.366,0.305,0.427,39.384
139098,153539,13990,-0.001,-0.963,-0.077,-0.549,0.183,0.488,39.387
139098,153521,13386,-0,-0.968,-0.079,-0.549,0.183,0.488,39.394
139117,153539,13990,-0.001,-0.968,-0.079,-0.366,0.305,0.427,39.397
139117,153549,13384,0.001,-0.966,-0.077,-0.366,0.305,0.427,39.403
139121,153539,13990,-0.001,-0.966,-0.078,-0.061,0.244,0.61,39.407
139121,153546,13378,-0.001,-0.964,-0.078,-0.061,0.244,0.61,39.413
139101,153539,13990,-0.001,-0.966,-0.075,0.122,0.366,0.671,39.417
139101,153551,13382,-0.002,-0.963,-0.075,0.122,0.366,0.671,39.423
139100,153539,13990,-0.003,-0.962,-0.075,0.427,0.488,0.732,39.427
139100,153528,13386,0.002,-0.965,-0.076,0.427,0.488,0.732,39.433
139080,153539,13990,0,-0.968,-0.073,0.488,0.427,0.793,39.437
139080,153533,13367,0.001,-0.969,-0.073,0.488,0.427,0.793,39.443
139060,153539,13990,0.001,-0.969,-0.073,0.488,0.427,0.793,39.447
139060,153521,13387,-0.003,-0.964,-0.07,0.366,0.488,0.732,39.453
139060,153539,13990,-0.003,-0.964,-0.07,0.366,0.488,0.732,39.457
139060,153514,13357,-0.006,-0.966,-0.072,-0.122,0.427,0.732,39.463
139048,153539,13990,-0.006,-0.966,-0.072,-0.122,0.427,0.732,39.467
139048,153510,13373,0.002,-0.97,-0.073,-0.549,0.488,0.61,39.473
139057,153539,13990,0.002,-0.97,-0.073,-0.549,0.488,0.61,39.476
139057,153510,13363,-0.001,-0.965,-0.072,-0.549,0.366,0.61,39.483
139043,153539,13990,-0.001,-0.965,-0.072,-0.549,0.366,0.61,39.486
139043,153502,13371,-0.002,-0.962,-0.07,-0.549,0.305,0.732,39.493
139064,153539,13990,-0.002,-0.962,-0.07,-0.549,0.305,0.732,39.496
139064,153513,13383,-0.002,-0.967,-0.075,-0.671,0.305,0.549,39.502
139057,153539,13990,-0.002,-0.967,-0.075,-0.671,0.305,0.549,39.506
139057,153500,13369,-0.002,-0.968,-0.079,-1.098,0.183,0.366,39.512
139049,153539,13990,-0.002,-0.968,-0.079,-1.098,0.183,0.366,39.516
139049,153526,13375,-0,-0.965,-0.079,-0.976,0.122,0.183,39.522
139075,153539,13990,-0,-0.965,-0.079,-0.976,0.122,0.183,39.526
139075,153498,13377,0,-0.965,-0.08,-0.671,0.305,0.305,39.532
139046,153539,13990,0,-0.965,-0.08,-0.671,0.305,0.305,39.536
139046,153499,13362,-0.001,-0.964,-0.077,-0.366,0.305,0.305,39.542
139035,153539,13990,-0.001,-0.964,-0.077,-0.366,0.305,0.305,39.546
139035,153470,13372,0.001,-0.963,-0.076,0,0.366,0.244,39.552
139060,153539,13990,0.001,-0.963,-0.076,0,0.366,0.244,39.556
139060,153474,13357,-0.003,-0.964,-0.074,0.183,0.366,0.244,39.562
139047,153539,13990,-0.003,-0.964,-0.074,0.183,0.366,0.244,39.566
139047,153506,13361,0,-0.967,-0.081,-0.061,0.305,0.122,39.572
139042,153539,13990,0,-0.967,-0.081,-0.061,0.305,0.122,39.575
139042,153479,13376,0.002,-0.968,-0.075,0,0.305,0.061,39.582
139044,153539,13990,0.002,-0.968,-0.075,0,0.305,0.061,39.585
139044,153478,13355,-0,-0.962,-0.077,0.183,0.244,0.244,39.592
139008,153539,13990,-0,-0.962,-0.077,0.183,0.244,0.244,39.595
139008,153493,13362,0.002,-0.966,-0.077,0.427,0.366,0.366,39.601
139041,153539,13990,0.002,-0.965,-0.08,0.427,0.366,0.366,39.605
139041,153483,13361,0,-0.964,-0.078,0.488,0.366,0.366,39.611
139017,153539,13990,0,-0.968,-0.076,0.488,0.366,0.366,39.615
139017,153473,13356,-0,-0.965,-0.077,0.793,0.366,0.549,39.621
139041,153539,13990,-0.003,-0.963,-0.071,0.793,0.366,0.549,39.625
139041,153470,13358,-0.003,-0.961,-0.069,1.098,0.427,0.488,39.631
139026,153539,13990,-0.002,-0.96,-0.068,1.098,0.427,0.488,39.635
139026,153471,13364,-0.001,-0.965,-0.071,0.488,0.488,0.366,39.641
139039,153539,13990,-0.001,-0.963,-0.068,0.488,0.488,0.366,39.645
139039,153439,13358,-0.002,-0.963,-0.07,0.061,0.427,0.244,39.651
139035,153539,13990,-0.001,-0.963,-0.072,0.061,0.427,0.244,39.655
139035,153453,13352,-0.001,-0.964,-0.073,-0.244,0.366,0.305,39.661
139044,153539,13990,-0,-0.966,-0.07,-0.244,0.366,0.305,39.665
139044,153468,13350,0.001,-0.965,-0.077,-0.671,0.305,0.244,39.671
139026,153539,13990,-0.001,-0.966,-0.076,-0.671,0.305,0.244,39.674
139026,153445,13350,-0,-0.968,-0.075,-0.732,0.305,0.244,39.681
139026,153539,13990,0,-0.968,-0.081,-0.732,0.305,0.244,39.684
139026,153466,13356,0.001,-0.966,-0.077,-0.427,0.244,0.427,39.691
139019,153539,13990,0.003,-0.966,-0.073,-0.427,0.244,0.427,39.694
139019,153476,13362,-0.001,-0.963,-0.078,-0.244,0.427,0.488,39.7
139021,153539,13990,0,-0.968,-0.077,-0.244,0.427,0.488,39.704
139021,153462,13357,-0.003,-0.967,-0.074,-0.305,0.305,0.488,39.71
139030,153539,13990,-0.001,-0.966,-0.077,-0.305,0.305,0.488,39.714
139030,153451,13359,0.001,-0.965,-0.074,-0.061,0.366,0.61,39.72
139043,153539,13990,-0,-0.964,-0.072,-0.061,0.366,0.61,39.724
139043,153467,13344,-0.001,-0.96,-0.072,0.366,0.488,0.549,39.73
139023,153539,13990,-0.001,-0.962,-0.076,0.366,0.488,0.549,39.734
139023,153432,13359,0.001,-0.966,-0.08,0.305,0.366,0.549,39.74
139032,153539,13990,-0.002,-0.966,-0.074,0.305,0.366,0.549,39.744
139032,153452,13347,-0.002,-0.965,-0.071,0.122,0.427,0.427,39.75
139010,153539,13990,-0.002,-0.964,-0.071,0.122,0.427,0.427,39.754
139010,153448,13359,-0.002,-0.963,-0.069,-0.122,0.427,0.366,39.76
139008,153539,13990,-0.003,-0.965,-0.069,-0.122,0.427,0.366,39.764
139008,153403,13349,-0.004,-0.966,-0.072,-0.122,0.427,0.305,39.77
138990,153539,13990,-0.001,-0.966,-0.071,-0.122,0.427,0.305,39.773
138990,153415,13355,-0.002,-0.972,-0.074,-0.305,0.366,0.183,39.78
138981,153539,13990,-0,-0.971,-0.074,-0.305,0.366,0.183,39.783
138981,153413,13361,0.002,-0.967,-0.078,-0.244,0.366,0.244,39.79
138965,153539,13990,0.001,-0.965,-0.078,-0.244,0.366,0.244,39.793
138965,153415,13356,-0.001,-0.969,-0.074,0.244,0.427,0.427,39.799
138992,153539,13990,-0.002,-0.97,-0.076,0.244,0.427,0.427,39.803
138992,153405,13337,0.001,-0.966,-0.072,0.549,0.488,0.488,39.809
138981,153539,13990,0.002,-0.963,-0.07,0.549,0.488,0.488,39.813
138981,153404,13348,-0.005,-0.962,-0.068,0.488,0.488,0.671,39.819
138996,153539,13990,-0.002,-0.964,-0.069,0.488,0.488,0.671,39.823
138996,153401,13345,-0.004,-0.964,-0.07,0.366,0.427,0.61,39.829
138995,153539,13990,-0.002,-0.962,-0.069,0.366,0.427,0.61,39.833
138995,153443,13342,-0.003,-0.961,-0.072,-0.366,0.366,0.488,39.839
138983,153539,13990,-0.002,-0.962,-0.075,-0.366,0.366,0.488,39.843
138983,153429,13351,0,-0.964,-0.071,-0.915,0.366,0.427,39.849
139004,153539,13990,0.001,-0.969,-0.076,-0.915,0.366,0.427,39.853
139004,153401,13344,-0.002,-0.965,-0.078,-0.915,0.305,0.366,39.859
139003,153539,13990,-0.001,-0.967,-0.083,-0.915,0.305,0.366,39.863
139003,153413,13331,-0.003,-0.969,-0.079,-0.671,0.488,0.366,39.869
139017,153539,13990,0,-0.969,-0.075,-0.671,0.488,0.366,39.873
139017,153403,13358,-0.002,-0.966,-0.077,0.122,0.549,0.427,39.879
139021,153539,13990,-0.003,-0.967,-0.075,0.122,0.549,0.427,39.882
139021,153427,13350,-0.002,-0.964,-0.071,0.366,0.61,0.427,39.889
139026,153539,13990,-0.002,-0.963,-0.077,0.366,0.61,0.427,39.892
139026,153435,13347,-0.004,-0.965,-0.073,0.366,0.549,0.366,39.898
139044,153539,13990,-0.007,-0.961,-0.066,0.366,0.549,0.366,39.902
139044,153432,13363,-0.004,-0.964,-0.073,0.183,0.366,0.122,39.908
139049,153539,13990,-0.002,-0.965,-0.076,0.183,0.366,0.122,39.912
139049,153434,13361,-0.002,-0.965,-0.076,0,0.366,-0.061,39.918
139029,153539,13990,0.001,-0.964,-0.074,0,0.366,-0.061,39.922
139029,153438,13355,-0.002,-0.965,-0.075,0.061,0.305,0,39.928
139042,153539,13990,-0.001,-0.968,-0.073,0.061,0.305,0,39.932
139042,153448,13364,0.001,-0.969,-0.073,0,0.305,0.061,39.938
139038,153539,13990,-0.001,-0.964,-0.071,0,0.305,0.061,39.942
139038,153431,13354,0.002,-0.963,-0.079,-0.122,0.427,0.244,39.948
139015,153539,13990,0.002,-0.964,-0.075,-0.122,0.427,0.244,39.952
139015,153458,13352,0,-0.97,-0.072,0.061,0.427,0.549,39.958
139014,153539,13990,0.002,-0.971,-0.073,0.061,0.427,0.549,39.962
139014,153439,13351,-0,-0.965,-0.07,0.061,0.427,0.61,39.968
139022,153539,13990,-0.005,-0.963,-0.07,0.061,0.427,0.61,39.972
139022,153437,13349,-0.005,-0.963,-0.068,-0.366,0.488,0.488,39.978
139006,153539,13990,-0.006,-0.964,-0.07,-0.366,0.488,0.488,39.981
139006,153429,13358,-0.002,-0.966,-0.07,-0.793,0.427,0.122,39.988
139022,153539,13990,-0.002,-0.967,-0.071,-0.793,0.427,0.122,39.991
139022,153416,13362,-0.004,-0.968,-0.075,-0.976,0.366,-0.061,39.998
139029,153539,13990,-0.005,-0.97,-0.077,-0.976,0.366,-0.061,40.001
139029,153450,13353,-0.004,-0.967,-0.08,-0.793,0.305,-0.122,40.007
139020,153539,13990,-0.004,-0.969,-0.078,-0.793,0.305,-0.122,40.011
139020,153458,13366,-0.001,-0.969,-0.076,-0.183,0.305,0.122,40.017
139051,153539,13990,0.001,-0.966,-0.08,-0.183,0.305,0.122,40.021
139051,153464,13353,0.002,-0.967,-0.08,0.183,0.366,0.305,40.027
139055,153539,13990,0.001,-0.968,-0.074,0.183,0.366,0.305,40.031
139055,153452,13355,0.002,-0.963,-0.07,0.305,0.305,0.61,40.037
139029,153539,13990,0.004,-0.961,-0.07,0.305,0.305,0.61,40.041
139029,153455,13355,0.001,-0.961,-0.068,0.061,0.244,0.915,40.047
139030,153539,13990,0.001,-0.961,-0.068,0.061,0.244,0.915,40.051
139030,153455,13364,0.002,-0.963,-0.072,-0.366,0.244,0.976,40.057
139035,153539,13990,0.002,-0.963,-0.072,-0.366,0.244,0.976,40.061
139035,153469,13350,0,-0.965,-0.071,-0.671,0.366,0.61,40.067
139043,153539,13990,0,-0.965,-0.071,-0.671,0.366,0.61,40.071
139043,153455,13362,-0.002,-0.965,-0.079,-0.671,0.549,0.488,40.077
139055,153539,13990,-0.002,-0.965,-0.079,-0.671,0.549,0.488,40.08
139055,153468,13355,-0.006,-0.965,-0.071,-0.61,0.549,0.244,40.087
139064,153539,13990,-0.006,-0.965,-0.071,-0.61,0.549,0.244,40.09
139064,153468,13355,-0.005,-0.966,-0.073,-0.549,0.61,0.061,40.097
139051,153539,13990,-0.005,-0.966,-0.073,-0.549,0.61,0.061,40.1
139051,153480,13379,-0.004,-0.968,-0.074,-0.732,0.488,0,40.106
139080,153539,13990,-0.004,-0.968,-0.074,-0.732,0.488,0,40.11
139080,153490,13356,-0.004,-0.964,-0.075,-0.671,0.366,0,40.116
139068,153539,13990,-0.004,-0.964,-0.075,-0.671,0.366,0,40.12
139068,153486,13373,-0.001,-0.968,-0.079,-0.732,0.427,0.061,40.126
139038,153539,13990,-0.001,-0.968,-0.079,-0.732,0.427,0.061,40.13
139038,153484,13373,0,-0.965,-0.079,-0.671,0.366,0.122,40.136
139069,153539,13990,0,-0.965,-0.079,-0.671,0.366,0.122,40.14
139069,153484,13363,0.001,-0.963,-0.078,-0.366,0.366,0.183,40.146
139053,153539,13990,0.001,-0.963,-0.078,-0.366,0.366,0.183,40.15
139053,153491,13360,-0.003,-0.962,-0.073,-0.122,0.427,0.244,40.156
139040,153539,13990,-0.003,-0.962,-0.073,-0.122,0.427,0.244,40.16
139040,153464,13383,0.001,-0.962,-0.08,-0.244,0.427,0.061,40.166
139046,153539,13990,0.001,-0.962,-0.08,-0.244,0.427,0.061,40.17
139046,153479,13369,-0.001,-0.967,-0.074,-0.366,0.427,-0.061,40.176
139055,153539,13990,-0.001,-0.967,-0.074,-0.366,0.427,-0.061,40.179
139055,153471,13377,0.001,-0.965,-0.076,-0.244,0.427,0,40.186
139063,153539,13990,0.001,-0.965,-0.076,-0.244,0.427,0,40.189
139063,153494,13369,-0,-0.967,-0.08,-0.244,0.427,0,40.196
139083,153539,13990,-0.001,-0.967,-0.078,0,0.366,0,40.199
139083,153466,13379,-0.003,-0.969,-0.08,0,0.366,0,40.205
139076,153539,13990,-0.004,-0.969,-0.078,0.183,0.427,0.122,40.209
139076,153489,13365,-0.003,-0.966,-0.077,0.183,0.427,0.122,40.215
139083,153539,13990,-0.002,-0.964,-0.081,0.366,0.488,0.183,40.219
139083,153495,13379,-0.003,-0.964,-0.076,0.366,0.488,0.183,40.225
139086,153539,13990,0,-0.966,-0.075,0.549,0.488,0.122,40.229
139086,153513,13371,0.002,-0.966,-0.077,0.549,0.488,0.122,40.235
139083,153539,13990,-0.002,-0.962,-0.068,0.61,0.366,0.183,40.239
139083,153505,13383,-0.001,-0.962,-0.071,0.61,0.366,0.183,40.245
139083,153539,13990,-0.001,-0.959,-0.072,0.305,0.366,0.183,40.249
139083,153506,13383,0.001,-0.963,-0.069,0.305,0.366,0.183,40.255
139052,153539,13990,-0.002,-0.96,-0.07,0,0.488,0.122,40.259
139052,153496,13395,-0,-0.962,-0.068,0,0.488,0.122,40.265
139054,153539,13990,0.002,-0.964,-0.069,-0.244,0.427,0,40.269
139054,153497,13371,-0.001,-0.965,-0.07,-0.244,0.427,0,40.275
139033,153539,13990,0,-0.968,-0.071,-0.671,0.427,0.122,40.278
139033,153501,13370,0,-0.967,-0.072,-0.671,0.427,0.122,40.285
139040,153539,13990,-0.002,-0.966,-0.08,-1.037,0.366,0.183,40.288
139040,153486,13387,0.002,-0.965,-0.08,-1.037,0.366,0.183,40.295
139020,153539,13990,0,-0.97,-0.079,-0.854,0.244,0.366,40.298
139020,153495,13383,0.002,-0.969,-0.078,-0.854,0.244,0.366,40.304
139026,153539,13990,0.001,-0.965,-0.076,-0.671,0.305,0.61,40.308
139026,153486,13375,-0.001,-0.963,-0.076,-0.671,0.305,0.61,40.314
139028,153539,13990,0.001,-0.965,-0.08,-0.488,0.244,0.732,40.318
139028,153496,13374,0.003,-0.966,-0.08,-0.488,0.244,0.732,40.324
139014,153539,13990,0.004,-0.966,-0.082,-0.061,0.244,0.793,40.328
139014,153468,13367,0.002,-0.967,-0.077,-0.061,0.244,0.793,40.334
139009,153539,13990,0.002,-0.965,-0.078,0.183,0.305,0.793,40.338
139009,153462,13376,0.001,-0.965,-0.077,0.183,0.305,0.793,40.344
138992,153539,13990,-0.003,-0.963,-0.071,0.305,0.427,0.915,40.348
138992,153457,13364,-0.002,-0.958,-0.069,0.305,0.427,0.915,40.354
138994,153539,13990,-0.001,-0.961,-0.072,0.122,0.488,0.915,40.358
138994,153461,13376,0,-0.961,-0.07,0.122,0.488,0.915,40.364
138976,153539,13990,-0,-0.965,-0.07,-0.061,0.549,0.732,40.368
138976,153427,13350,0.002,-0.964,-0.076,-0.061,0.549,0.732,40.374
138956,153539,13990,-0.001,-0.965,-0.074,-0.366,0.427,0.549,40.378
138956,153430,13364,-0.002,-0.966,-0.073,-0.366,0.427,0.549,40.384
138951,153539,13990,-0.002,-0.967,-0.077,-0.549,0.366,0.549,40.387
138951,153424,13360,0.002,-0.968,-0.077,-0.549,0.366,0.549,40.394
138927,153539,13990,-0.001,-0.969,-0.077,-0.366,0.488,0.61,40.397
138927,153406,13354,-0.002,-0.968,-0.078,-0.366,0.488,0.61,40.403
138925,153539,13990,-0.001,-0.966,-0.078,-0.061,0.305,0.732,40.407
138925,153394,13361,-0.002,-0.967,-0.078,-0.061,0.305,0.732,40.413
138933,153539,13990,-0.002,-0.968,-0.079,0.183,0.305,0.854,40.417
138933,153408,13359,-0.001,-0.964,-0.08,0.183,0.305,0.854,40.423
138917,153539,13990,-0.005,-0.964,-0.074,0.244,0.366,0.854,40.427
138917,153403,13382,-0.003,-0.965,-0.071,0.244,0.366,0.854,40.433
138929,153539,13990,-0.005,-0.962,-0.07,0.183,0.305,0.793,40.437
138929,153405,13360,-0.004,-0.961,-0.077,0.183,0.305,0.793,40.443
138935,153539,13990,-0.002,-0.962,-0.072,-0.061,0.366,0.671,40.447
138935,153429,13366,-0.004,-0.964,-0.074,-0.061,0.366,0.671,40.453
138948,153539,13990,-0.001,-0.963,-0.072,-0.244,0.427,0.244,40.457
138948,153405,13352,0.001,-0.964,-0.071,-0.244,0.427,0.244,40.463
138921,153539,13990,-0.001,-0.963,-0.077,-0.305,0.366,0.183,40.467
138921,153390,13362,-0.004,-0.965,-0.078,-0.305,0.366,0.183,40.473
138907,153539,13990,-0.001,-0.967,-0.075,-0.305,0.366,0.122,40.477
138907,153433,13358,0.001,-0.968,-0.076,-0.305,0.366,0.122,40.483
138917,153539,13990,-0,-0.965,-0.072,-0.244,0.305,0.244,40.486
138917,153407,13363,0.001,-0.965,-0.075,-0.244,0.305,0.244,40.493
138941,153539,13990,0.001,-0.963,-0.076,-0.061,0.244,0.488,40.496
138941,153414,13350,-0.001,-0.965,-0.076,-0.061,0.244,0.488,40.502
138926,153539,13990,-0,-0.966,-0.076,-0.244,0.305,0.549,40.506
138926,153431,13361,0.001,-0.969,-0.077,-0.244,0.305,0.549,40.512
138930,153539,13990,0.001,-0.967,-0.081,-0.183,0.244,0.549,40.516
138930,153425,13367,0.003,-0.965,-0.078,-0.183,0.244,0.549,40.522
138950,153539,13990,0,-0.967,-0.079,-0.061,0.305,0.732,40.526
138950,153425,13357,0,-0.966,-0.079,-0.061,0.305,0.732,40.532
138931,153539,13990,-0.001,-0.967,-0.075,-0.061,0.366,0.793,40.536
138931,153412,13357,-0.003,-0.966,-0.076,-0.061,0.366,0.793,40.542
138930,153539,13990,-0.004,-0.966,-0.076,0.122,0.427,0.61,40.546
138930,153401,13356,-0.003,-0.964,-0.073,0.122,0.427,0.61,40.552
138916,153539,13990,-0.005,-0.962,-0.074,0.122,0.427,0.488,40.556
138916,153394,13371,-0.004,-0.962,-0.072,0.122,0.427,0.488,40.562
138921,153539,13990,-0.004,-0.963,-0.073,-0.061,0.488,0.366,40.566
138921,153376,13348,-0.002,-0.963,-0.075,-0.061,0.488,0.366,40.572
138923,153539,13990,-0.002,-0.965,-0.074,-0.122,0.427,0.305,40.576
138923,153399,13352,0,-0.967,-0.073,-0.122,0.427,0.305,40.582
138933,153539,13990,-0,-0.966,-0.076,-0.244,0.427,0.366,40.585
138933,153390,13352,-0.001,-0.964,-0.075,-0.244,0.427,0.366,40.592
138916,153539,13990,-0,-0.964,-0.072,-0.305,0.366,0.549,40.595
138916,153384,13358,0.001,-0.965,-0.073,-0.305,0.366,0.549,40.601
138925,153539,13990,-0.001,-0.965,-0.071,-0.305,0.427,0.732,40.605
138925,153389,13354,-0.001,-0.965,-0.073,-0.305,0.427,0.732,40.611
138935,153539,13990,0.001,-0.965,-0.078,-0.305,0.305,0.793,40.615
138935,153407,13351,-0.005,-0.965,-0.076,-0.305,0.305,0.793,40.621
138928,153539,13990,-0.003,-0.963,-0.075,-0.549,0.305,0.793,40.625
138928,153387,13334,-0,-0.963,-0.072,-0.549,0.305,0.793,40.631
138923,153539,13990,-0.002,-0.965,-0.076,-0.549,0.244,0.671,40.635
138923,153398,13332,-0.003,-0.964,-0.081,-0.549,0.244,0.671,40.641
138915,153539,13990,-0.003,-0.964,-0.081,-0.549,0.244,0.671,40.645
138915,153395,13350,-0.003,-0.967,-0.075,-0.244,0.305,0.427,40.651
138914,153539,13990,-0.003,-0.967,-0.075,-0.244,0.305,0.427,40.655
138914,153388,13348,-0.002,-0.965,-0.077,0,0.427,0.488,40.661
138907,153283,13990,-0.002,-0.965,-0.077,0,0.427,0.488,40.665
138907,153341,13347,-0.002,-0.965,-0.074,0.183,0.549,0.488,40.671
138903,153539,13990,-0.002,-0.965,-0.074,0.183,0.549,0.488,40.675
138903,153364,13339,-0.001,-0.966,-0.075,0.183,0.427,0.488,40.681
138905,153539,13990,-0.001,-0.966,-0.075,0.183,0.427,0.488,40.684
138905,153369,13353,-0.005,-0.964,-0.074,0.183,0.488,0.61,40.691
138906,153539,13990,-0.005,-0.964,-0.074,0.183,0.488,0.61,40.694
138906,153358,13353,-0.004,-0.963,-0.068,-0.122,0.427,0.732,40.701
138939,153539,13990,-0.004,-0.963,-0.068,-0.122,0.427,0.732,40.704
138939,153369,13336,-0.004,-0.965,-0.072,-0.305,0.366,0.488,40.71
138908,153539,13990,-0.004,-0.965,-0.072,-0.305,0.366,0.488,40.714
138908,153380,13338,-0.004,-0.965,-0.071,-0.488,0.366,0.305,40.72
138947,153539,13990,-0.004,-0.965,-0.071,-0.488,0.366,0.305,40.724
138947,153368,13337,-0.004,-0.965,-0.075,-0.549,0.305,0.183,40.73
138924,153539,13990,-0.004,-0.965,-0.075,-0.549,0.305,0.183,40.734
138924,153371,13363,-0.001,-0.97,-0.078,-0.488,0.366,0.122,40.74
138937,153539,13990,-0.001,-0.97,-0.078,-0.488,0.366,0.122,40.744
138937,153356,13348,-0.001,-0.967,-0.08,-0.122,0.366,0.244,40.75
138955,153539,13990,-0.001,-0.967,-0.08,-0.122,0.366,0.244,40.754
138955,153399,13366,-0.003,-0.964,-0.075,0.183,0.427,0.549,40.76
138947,153539,13990,-0.003,-0.964,-0.075,0.183,0.427,0.549,40.764
138947,153373,13343,-0.005,-0.961,-0.075,0.183,0.488,0.671,40.77
138949,153539,13990,-0.005,-0.961,-0.075,0.183,0.488,0.671,40.774
138949,153393,13344,-0.004,-0.964,-0.076,-0.183,0.427,0.427,40.78
138936,153539,13990,-0.004,-0.964,-0.076,-0.183,0.427,0.427,40.783
138936,153384,13346,-0.001,-0.965,-0.079,-0.244,0.305,0.244,40.79
138944,153539,13990,-0.001,-0.965,-0.079,-0.244,0.305,0.244,40.793
138944,153374,13348,-0.002,-0.966,-0.075,-0.183,0.305,0.305,40.8
138958,153539,13990,-0.002,-0.967,-0.076,-0.183,0.305,0.305,40.803
138958,153392,13350,-0.002,-0.967,-0.076,-0.183,0.366,0.366,40.809
138958,153539,13990,-0.002,-0.967,-0.076,-0.183,0.366,0.366,40.813
138958,153383,13357,-0.001,-0.964,-0.075,-0.427,0.488,0.366,40.819
138932,153539,13990,-0.002,-0.962,-0.072,-0.427,0.488,0.366,40.823
138932,153414,13350,-0.004,-0.962,-0.074,-0.427,0.488,0.549,40.829
138943,153539,13990,-0.003,-0.965,-0.07,-0.427,0.488,0.549,40.833
138943,153411,13352,-0.007,-0.964,-0.069,-0.427,0.366,0.488,40.839
138939,153539,13990,-0.005,-0.964,-0.072,-0.427,0.366,0.488,40.843
138939,153392,13354,-0.004,-0.963,-0.077,-0.61,0.244,0.366,40.849
138948,153539,13990,-0.005,-0.965,-0.081,-0.61,0.244,0.366,40.853
138948,153387,13345,-0.007,-0.968,-0.082,-0.61,0.122,0.061,40.859
138923,153539,13990,-0,-0.97,-0.087,-0.61,0.122,0.061,40.863
138923,153401,13359,0,-0.97,-0.082,-0.061,0.122,-0.244,40.869
138955,153539,13990,-0.006,-0.969,-0.077,-0.061,0.122,-0.244,40.873
138955,153384,13337,-0.005,-0.967,-0.083,0.915,0.183,-0.061,40.879
138920,153539,13990,-0,-0.967,-0.083,0.915,0.183,-0.061,40.882
138920,153414,13354,-0.003,-0.964,-0.08,1.829,0.366,0.061,40.889
138933,153539,13990,-0.003,-0.964,-0.073,1.829,0.366,0.061,40.892
138933,153400,13344,0.001,-0.96,-0.067,2.561,0.366,0.122,40.899
138930,153539,13990,0.001,-0.961,-0.065,2.561,0.366,0.122,40.902
138930,153390,13351,-0.001,-0.962,-0.065,1.768,0.305,0.244,40.908
138937,153539,13990,0.001,-0.964,-0.064,1.768,0.305,0.244,40.912
138937,153382,13363,0.005,-0.966,-0.063,0.732,0.427,0.183,40.918
138932,153539,13990,0.001,-0.965,-0.064,0.732,0.427,0.183,40.922
138932,153388,13346,0.001,-0.962,-0.069,0.122,0.366,0.305,40.928
138938,153539,13990,0.002,-0.962,-0.067,0.122,0.366,0.305,40.932
138938,153381,13355,0.002,-0.965,-0.071,-0.427,0.366,0.549,40.938
138920,153539,13990,0,-0.968,-0.074,-0.427,0.366,0.549,40.942
138920,153375,13353,0.003,-0.969,-0.074,-0.915,0.366,0.671,40.948
138945,153539,13990,0.001,-0.968,-0.075,-0.915,0.366,0.671,40.952
138945,153377,13347,0.002,-0.968,-0.074,-1.037,0.427,0.976,40.958
138951,153539,13990,0,-0.966,-0.072,-1.037,0.427,0.976,40.962
138951,153383,13372,-0.003,-0.965,-0.077,-0.793,0.427,1.037,40.968
138951,153539,13990,-0,-0.968,-0.078,-0.793,0.427,1.037,40.972
138951,153388,13366,-0.002,-0.965,-0.077,-0.549,0.427,1.159,40.978
138949,153539,13990,-0.005,-0.965,-0.07,-0.549,0.427,1.159,40.981
138949,153382,13359,-0.003,-0.962,-0.072,-0.244,0.488,1.28,40.988
138932,153539,13990,-0.005,-0.961,-0.07,-0.244,0.488,1.28,40.991
138932,153384,13348,-0.005,-0.963,-0.075,-0.549,0.549,1.22,40.998
138932,153539,13990,-0.003,-0.963,-0.073,-0.549,0.549,1.22,41.001
138932,153405,13361,-0.001,-0.964,-0.07,-0.793,0.61,0.854,41.007
138944,153539,13990,-0.003,-0.963,-0.069,-0.793,0.61,0.854,41.011
138944,153387,13359,-0.006,-0.959,-0.068,-1.098,0.671,0.732,41.017
138957,153539,13990,-0.003,-0.961,-0.067,-1.098,0.671,0.732,41.021
138957,153426,13365,-0.005,-0.966,-0.072,-1.646,0.61,0.732,41.027
138956,153539,13990,-0.004,-0.967,-0.074,-1.646,0.61,0.732,41.031
138956,153414,13354,-0.003,-0.966,-0.078,-2.012,0.488,0.549,41.037
138952,153539,13990,-0.003,-0.967,-0.081,-2.012,0.488,0.549,41.041
138952,153402,13358,0,-0.97,-0.082,-1.829,0.488,0.488,41.047
138976,153539,13990,-0.003,-0.968,-0.086,-1.829,0.488,0.488,41.051
138976,153410,13347,-0.004,-0.969,-0.081,-0.915,0.427,0.366,41.057
138962,153539,13990,-0.004,-0.969,-0.077,-0.915,0.427,0.366,41.061
138962,153432,13358,-0.004,-0.966,-0.08,-0.549,0.305,0.366,41.067
138974,153539,13990,-0.004,-0.967,-0.079,-0.549,0.305,0.366,41.071
138974,153428,13357,-0.006,-0.967,-0.078,-0.305,0.305,0.366,41.077
138979,153539,13990,-0.003,-0.964,-0.079,-0.305,0.305,0.366,41.08
138979,153426,13370,-0.004,-0.965,-0.075,-0.061,0.366,0.244,41.087
138992,153539,13990,-0.002,-0.964,-0.075,-0.061,0.366,0.244,41.09
138992,153422,13356,-0.006,-0.964,-0.076,0.183,0.366,0.122,41.097
138969,153539,13990,-0.003,-0.966,-0.077,0.183,0.366,0.122,41.1
138969,153422,13360,-0,-0.965,-0.074,0.183,0.366,0.061,41.106
138978,153539,13990,-0.002,-0.966,-0.076,0.183,0.366,0.061,41.11
138978,153421,13368,-0.001,-0.965,-0.075,0.061,0.488,0.183,41.116
138988,153539,13990,-0.001,-0.965,-0.078,0.061,0.488,0.183,41.12
138988,153423,13372,-0.002,-0.965,-0.075,0.183,0.488,0.366,41.126
138977,153539,13990,-0.002,-0.967,-0.075,0.183,0.488,0.366,41.13
138977,153443,13371,-0.001,-0.962,-0.075,0.244,0.549,0.366,41.136
139009,153539,13990,-0.002,-0.959,-0.072,0.244,0.549,0.366,41.14
139009,153471,13371,-0.002,-0.962,-0.074,0,0.427,0.488,41.146
139026,153539,13990,-0.003,-0.966,-0.072,0,0.427,0.488,41.15
139026,153437,13374,0,-0.967,-0.076,-0.366,0.427,0.305,41.156
139057,153539,13990,-0.001,-0.966,-0.077,-0.366,0.427,0.305,41.16
139057,153484,13383,-0.004,-0.967,-0.083,-0.427,0.366,0.183,41.166
139079,153539,13990,-0.001,-0.97,-0.079,-0.427,0.366,0.183,41.17
139079,153488,13394,-0.002,-0.97,-0.078,0,0.305,0.305,41.176
139124,153539,13990,-0.002,-0.965,-0.08,0,0.305,0.305,41.18
139124,153528,13387,-0.004,-0.965,-0.076,0.549,0.366,0.366,41.186
139117,153539,13990,-0.007,-0.964,-0.077,0.549,0.366,0.366,41.189
139117,153560,13395,-0.005,-0.965,-0.075,0.793,0.488,0.244,41.196
139141,153539,13990,-0.002,-0.969,-0.074,0.793,0.488,0.244,41.199
139141,153552,13408,-0.001,-0.968,-0.071,0.793,0.427,0.122,41.205
139123,153539,13990,-0.003,-0.961,-0.067,0.793,0.427,0.122,41.209
139123,153565,13385,-0.001,-0.96,-0.067,0.366,0.366,0.244,41.215
139103,153539,13990,-0.005,-0.96,-0.067,0.366,0.366,0.244,41.219
139103,153534,13394,-0.003,-0.963,-0.068,-0.366,0.305,0.305,41.225
139110,153539,13990,-0.001,-0.966,-0.071,-0.366,0.305,0.305,41.229
139110,153518,13392,0.001,-0.969,-0.077,-0.976,0.122,0.183,41.235
139090,153539,13990,-0.001,-0.965,-0.073,-0.976,0.122,0.183,41.239
139090,153522,13388,-0,-0.965,-0.072,-1.098,0.122,0.305,41.245
139085,153539,13990,-0,-0.965,-0.072,-1.098,0.122,0.305,41.249
139085,153504,13391,-0.001,-0.965,-0.078,-1.22,0.122,0.427,41.255
139057,153539,13990,-0.001,-0.965,-0.078,-1.22,0.122,0.427,41.259
139057,153503,13392,-0.003,-0.964,-0.08,-1.159,0.305,0.488,41.265
139068,153539,13990,-0.003,-0.964,-0.08,-1.159,0.305,0.488,41.269
139068,153461,13389,-0,-0.966,-0.078,-0.549,0.427,0.488,41.275
139045,153539,13990,-0,-0.966,-0.078,-0.549,0.427,0.488,41.279
139045,153481,13375,-0.006,-0.966,-0.075,-0.244,0.488,0.549,41.285
139032,153539,13990,-0.006,-0.966,-0.075,-0.244,0.488,0.549,41.288
139032,153426,13377,-0,-0.968,-0.073,-0.366,0.427,0.427,41.295
139002,153539,13990,-0,-0.968,-0.073,-0.366,0.427,0.427,41.298
139002,153433,13374,-0.003,-0.963,-0.076,-0.366,0.366,0.305,41.305
138983,153539,13990,-0.003,-0.963,-0.076,-0.366,0.366,0.305,41.308
138983,153416,13378,-0.003,-0.968,-0.077,-0.671,0.488,0.183,41.314
138971,153539,13990,-0.003,-0.968,-0.077,-0.671,0.488,0.183,41.318
138971,153425,13358,-0.003,-0.966,-0.075,-0.488,0.427,0.244,41.324
138932,153539,13990,-0.003,-0.966,-0.075,-0.488,0.427,0.244,41.328
138932,153417,13368,-0.005,-0.963,-0.073,-0.61,0.366,0.305,41.334
138936,153539,13990,-0.005,-0.963,-0.073,-0.61,0.366,0.305,41.338
138936,153360,13363,-0.005,-0.967,-0.077,-0.61,0.366,0.183,41.344
138935,153539,13990,-0.005,-0.967,-0.077,-0.61,0.366,0.183,41.348
138935,153372,13374,0,-0.965,-0.079,-0.549,0.366,0,41.354
138954,153539,13990,0,-0.965,-0.079,-0.549,0.366,0,41.358
138954,153368,13376,-0.002,-0.966,-0.079,-0.183,0.305,0.183,41.364
138947,153539,13990,-0.002,-0.966,-0.079,-0.183,0.305,0.183,41.368
138947,153414,13359,-0.001,-0.966,-0.077,-0.061,0.305,0.183,41.374
138920,153539,13990,-0.001,-0.966,-0.077,-0.061,0.305,0.183,41.378
138920,153410,13379,-0.003,-0.964,-0.075,-0.305,0.427,0.122,41.384
138969,153539,13990,-0.003,-0.964,-0.075,-0.305,0.427,0.122,41.387
138969,153397,13366,-0,-0.963,-0.074,-0.305,0.427,0.122,41.394
138947,153539,13990,-0.002,-0.964,-0.071,-0.427,0.305,0.061,41.397
138947,153398,13370,-0.002,-0.965,-0.075,-0.427,0.305,0.061,41.404
138960,153539,13990,-0.001,-0.968,-0.078,-0.488,0.305,0.244,41.407
138960,153381,13360,0.001,-0.969,-0.076,-0.488,0.305,0.244,41.413
138960,153539,13990,0.001,-0.966,-0.075,-0.427,0.427,0.427,41.417
138960,153368,13381,-0.001,-0.967,-0.077,-0.427,0.427,0.427,41.423
138964,153539,13990,-0.005,-0.965,-0.074,-0.305,0.488,0.549,41.427
138964,153383,13366,-0.001,-0.964,-0.071,-0.305,0.488,0.549,41.433
138943,153539,13990,-0.004,-0.963,-0.074,-0.427,0.427,0.549,41.437
138943,153381,13373,-0.006,-0.963,-0.079,-0.427,0.427,0.549,41.443
138955,153539,13990,-0.005,-0.963,-0.076,-0.549,0.549,0.366,41.447
138955,153393,13350,-0.006,-0.965,-0.083,-0.549,0.549,0.366,41.453
138950,153539,13990,-0.005,-0.966,-0.085,-0.366,0.549,0.183,41.457
138950,153407,13370,-0.003,-0.971,-0.083,-0.366,0.549,0.183,41.463
138986,153539,13990,-0.005,-0.966,-0.081,0.244,0.488,0.122,41.467
138986,153406,13367,-0.004,-0.965,-0.082,0.244,0.488,0.122,41.473
138982,153539,13990,-0.005,-0.967,-0.08,0.732,0.427,0.061,41.477
138982,153373,13377,-0.006,-0.964,-0.078,0.732,0.427,0.061,41.483
138964,153539,13990,-0.004,-0.964,-0.076,0.915,0.427,-0.061,41.486
138964,153407,13369,-0.002,-0.963,-0.074,0.915,0.427,-0.061,41.493
138967,153539,13990,-0,-0.966,-0.07,0.915,0.427,-0.183,41.496
138967,153387,13368,-0.002,-0.965,-0.069,0.915,0.427,-0.183,41.503
138982,153539,13990,-0,-0.96,-0.068,0.671,0.305,-0.061,41.506
138982,153395,13355,-0,-0.955,-0.073,0.671,0.305,-0.061,41.512
138977,153539,13990,-0.003,-0.958,-0.068,0.244,0.244,0,41.516
138977,153380,13371,-0.003,-0.965,-0.069,0.244,0.244,0,41.522
138967,153539,13990,-0.004,-0.965,-0.067,-0.244,0.122,-0.183,41.526
138967,153402,13360,-0.003,-0.968,-0.073,-0.244,0.122,-0.183,41.532
138961,153539,13990,-0,-0.966,-0.075,-0.915,0,-0.427,41.536
138961,153387,13357,-0.002,-0.971,-0.083,-0.915,0,-0.427,41.542
138956,153539,13990,0.001,-0.97,-0.087,-0.854,-0.061,-0.488,41.546
138956,153378,13357,-0.001,-0.97,-0.083,-0.854,-0.061,-0.488,41.552
138946,153539,13990,0,-0.97,-0.083,0.122,0.183,-0.244,41.556
138946,153382,13367,-0.001,-0.966,-0.075,0.122,0.183,-0.244,41.562
138965,153539,13990,-0.004,-0.961,-0.076,1.159,0.305,0,41.566
138965,153360,13356,-0.001,-0.963,-0.076,1.159,0.305,0,41.572
138919,153539,13990,-0,-0.962,-0.074,1.22,0.366,0.061,41.576
138919,153376,13369,0.002,-0.961,-0.078,1.22,0.366,0.061,41.582
138928,153539,13990,0.003,-0.967,-0.074,1.098,0.244,0.122,41.585
138928,153374,13357,0.001,-0.966,-0.074,1.098,0.244,0.122,41.592
138914,153539,13990,0,-0.963,-0.071,0.671,0.183,0.305,41.595
138914,153352,13375,-0,-0.964,-0.071,0.671,0.183,0.305,41.602
138925,153539,13990,-0.001,-0.961,-0.074,0.061,0.305,0.427,41.605
138925,153358,13353,-0.001,-0.961,-0.072,0.061,0.305,0.427,41.611
138906,153539,13990,0,-0.968,-0.077,-0.488,0.183,0.366,41.615
138906,153369,13354,-0.002,-0.968,-0.082,-0.488,0.183,0.366,41.621
138922,153539,13990,-0.002,-0.965,-0.073,-0.427,0.366,0.244,41.625
138922,153350,13365,-0,-0.963,-0.074,-0.427,0.366,0.244,41.631
138911,153539,13990,0,-0.965,-0.078,-0.183,0.183,0.244,41.635
138911,153362,13370,-0.002,-0.972,-0.081,-0.183,0.183,0.244,41.641
138928,153539,13990,-0.002,-0.968,-0.076,0.183,0.305,0.366,41.645
138928,153349,13368,-0.003,-0.967,-0.08,0.183,0.305,0.366,41.651
138949,153539,13990,-0.005,-0.963,-0.075,0.427,0.427,0.305,41.655
138949,153363,13355,-0.003,-0.962,-0.064,0.427,0.427,0.305,41.661
138915,153539,13990,-0.002,-0.963,-0.074,0.183,0.366,0.305,41.665
138915,153353,13388,-0.004,-0.966,-0.071,0.183,0.366,0.305,41.671
138928,153539,13990,0.001,-0.964,-0.071,-0.427,0.366,0.183,41.675
138928,153358,13359,0.003,-0.965,-0.078,-0.427,0.366,0.183,41.681
138930,153539,13990,0.005,-0.969,-0.077,-1.159,0.366,0.183,41.684
138930,153372,13366,0.002,-0.969,-0.074,-1.159,0.366,0.183,41.691
138910,153539,13990,0.002,-0.971,-0.08,-0.915,0.366,0.61,41.694
138910,153352,13363,-0.001,-0.967,-0.085,-0.915,0.366,0.61,41.701
138906,153283,13990,-0.001,-0.963,-0.079,-0.549,0.61,0.732,41.704
138906,153342,13368,-0,-0.968,-0.077,-0.549,0.61,0.732,41.71
138939,153539,13990,-0.003,-0.965,-0.073,0.305,0.732,0.854,41.714
138939,153365,13361,-0.001,-0.961,-0.073,0.305,0.732,0.854,41.72
138917,153539,13990,-0.002,-0.959,-0.077,0.366,0.671,0.793,41.724
138917,153369,13359,-0,-0.963,-0.076,0.366,0.671,0.793,41.73
138922,153539,13990,-0.002,-0.96,-0.072,0.183,0.61,0.732,41.734
138922,153392,13362,-0.003,-0.961,-0.075,0.183,0.61,0.732,41.74
138930,153539,13990,-0.004,-0.964,-0.076,0.488,0.549,0.732,41.744
138930,153382,13372,-0.004,-0.968,-0.074,0.488,0.549,0.732,41.75
138959,153539,13990,0,-0.966,-0.075,0.549,0.488,0.488,41.754
138959,153398,13374,-0.005,-0.965,-0.075,0.549,0.488,0.488,41.76
138919,153539,13990,-0.005,-0.965,-0.071,0.061,0.549,0.488,41.764
138919,153392,13369,0.002,-0.963,-0.077,0.061,0.549,0.488,41.77
138939,153539,13990,0.002,-0.966,-0.077,-0.244,0.244,0.549,41.774
138939,153403,13370,-0,-0.965,-0.073,-0.244,0.244,0.549,41.78
138917,153539,13990,0.003,-0.96,-0.076,-0.122,0.549,0.61,41.783
138917,153381,13372,0.002,-0.96,-0.079,-0.122,0.549,0.61,41.79
138866,153539,13990,-0.001,-0.966,-0.072,-0.061,0.732,0.793,41.793
138866,153348,13366,0.002,-0.968,-0.068,-0.061,0.732,0.793,41.8
138825,153283,13990,-0.005,-0.96,-0.082,-0.061,0.854,0.732,41.803
138825,153329,13343,-0.007,-0.966,-0.076,-0.061,0.854,0.732,41.809
138792,153283,13990,-0.004,-0.97,-0.067,-0.244,0.976,0.671,41.813
138792,153287,13353,-0.004,-0.968,-0.075,-0.244,0.976,0.671,41.819
138758,153283,13990,-0.001,-0.967,-0.076,0.122,0.854,0.366,41.823
138758,153259,13351,-0.005,-0.967,-0.07,0.122,0.854,0.366,41.829
138724,153283,13990,-0.004,-0.969,-0.073,0.183,0.793,0.244,41.833
138724,153254,13342,-0.004,-0.965,-0.066,0.183,0.793,0.244,41.839
138722,153283,13990,-0.004,-0.965,-0.066,0.183,0.793,0.244,41.843
138722,153233,13326,-0.003,-0.952,-0.065,0.061,0.61,0.244,41.849
138703,153283,13990,-0.003,-0.952,-0.065,0.061,0.61,0.244,41.853
138703,153230,13332,0.002,-0.975,-0.072,-0.732,0.549,0.122,41.859
138733,153283,13990,0.002,-0.975,-0.072,-0.732,0.549,0.122,41.863
138733,153239,13341,0.003,-0.965,-0.08,-1.402,0.427,0.061,41.869
138699,153283,13990,0.003,-0.965,-0.08,-1.402,0.427,0.061,41.873
138699,153276,13327,-0.006,-0.962,-0.075,-1.463,0.183,0.488,41.879
138700,153283,13990,-0.006,-0.962,-0.075,-1.463,0.183,0.488,41.882
138700,153245,13350,0.001,-0.964,-0.067,-0.854,0.244,0.488,41.889
138707,153283,13990,0.001,-0.964,-0.067,-0.854,0.244,0.488,41.892
138707,153236,13346,-0.005,-0.96,-0.078,-0.793,-0.061,0.122,41.899
138709,153283,13990,-0.005,-0.96,-0.078,-0.793,-0.061,0.122,41.902
138709,153218,13350,-0.006,-0.959,-0.075,-1.037,0.122,0.244,41.908
138657,153283,13990,-0.006,-0.959,-0.075,-1.037,0.122,0.244,41.912
138657,153243,13343,-0.002,-0.975,-0.077,-1.463,0.122,-0.244,41.918
138663,153283,13990,-0.002,-0.975,-0.077,-1.463,0.122,-0.244,41.922
138663,153218,13320,-0.001,-0.974,-0.088,-1.28,0.305,-0.671,41.928
138638,153283,13990,-0.001,-0.974,-0.088,-1.28,0.305,-0.671,41.932
138638,153241,13339,-0.003,-0.959,-0.077,-0.549,0.244,-0.122,41.938
138646,153283,13990,-0.003,-0.959,-0.077,-0.549,0.244,-0.122,41.942
138646,153200,13340,-0,-0.964,-0.071,0.244,0.488,0.183,41.948
138625,153283,13990,-0,-0.964,-0.071,0.244,0.488,0.183,41.952
138625,153199,13338,0,-0.965,-0.081,0.488,0.427,0.122,41.958
138626,153283,13990,0,-0.965,-0.081,0.488,0.427,0.122,41.962
138626,153169,13311,-0.003,-0.956,-0.066,0,0.427,0,41.968
138597,153283,13990,-0.003,-0.956,-0.066,0,0.427,0,41.972
138597,153206,13339,-0.002,-0.963,-0.068,0.061,0.305,0.061,41.978
138615,153283,13990,-0.002,-0.963,-0.068,0.061,0.305,0.061,41.981
138615,153205,13332,-0.002,-0.963,-0.083,-1.341,0.244,-0.244,41.988
138613,153283,13990,-0.003,-0.967,-0.082,-1.341,0.244,-0.244,41.991
138613,153217,13338,0,-0.971,-0.075,-1.463,0.366,-0.549,41.998
138610,153283,13990,0.004,-0.967,-0.078,-1.463,0.366,-0.549,42.001
138610,153232,13337,0.001,-0.96,-0.082,-1.098,0.122,-0.549,42.007
138630,153283,13990,-0.001,-0.961,-0.074,-1.098,0.122,-0.549,42.011
138630,153241,13344,0.001,-0.954,-0.077,-0.732,0.305,-0.244,42.017
138643,153283,13990,0.002,-0.965,-0.091,-0.732,0.305,-0.244,42.021
138643,153231,13364,0.003,-0.986,-0.089,0.183,0.549,-0.183,42.027
138658,153283,13990,0.01,-0.986,-0.085,0.183,0.549,-0.183,42.031
138658,153234,13335,0.002,-0.964,-0.076,1.159,0.61,0.183,42.037
138664,153283,13990,-0.003,-0.926,-0.056,1.159,0.61,0.183,42.041
138664,153236,13327,-0.011,-0.904,-0.052,1.707,-0.183,1.524,42.047
138646,153283,13990,-0.013,-0.941,-0.055,1.707,-0.183,1.524,42.051
138646,153254,13350,-0.01,-0.996,-0.064,0.488,-0.061,0.732,42.057
138674,153283,13990,-0.002,-1.024,-0.082,0.488,-0.061,0.732,42.061
138674,153252,13346,0.01,-1.011,-0.093,-2.073,0.854,-1.829,42.067
138707,153283,13990,0.012,-0.964,-0.084,-2.073,0.854,-1.829,42.071
138707,153266,13350,0.007,-0.931,-0.047,-2.439,0.244,-0.854,42.077
138718,153283,13990,-0.008,-0.935,-0.049,-2.439,0.244,-0.854,42.08
138718,153265,13360,-0.012,-0.95,-0.073,-2.439,0.122,0.427,42.087
138751,153283,13990,-0.004,-0.958,-0.072,-2.439,0.122,0.427,42.09
138751,153291,13352,-0,-0.953,-0.057,-4.207,0.244,-0.854,42.097
138702,153283,13990,0.001,-0.947,-0.059,-4.207,0.244,-0.854,42.1
138702,153264,13357,0.003,-0.944,-0.042,-6.585,-0.488,-1.159,42.106
138652,153283,13990,0.005,-0.94,-0.05,-6.585,-0.488,-1.159,42.11
138652,153215,13366,0.002,-0.955,-0.069,-11.159,-0.549,-0.488,42.116
138627,153283,13990,-0,-0.974,-0.09,-11.159,-0.549,-0.488,42.12
138627,153209,13330,0.001,-0.986,-0.09,-15.549,0.427,-1.341,42.126
138474,153283,13990,0.007,-0.989,-0.079,-15.549,0.427,-1.341,42.13
138474,153095,13328,0.012,-0.987,-0.072,-16.585,0,-1.646,42.136
138321,153027,13990,0.009,-0.974,-0.068,-16.585,0,-1.646,42.14
138321,152964,13281,0.005,-0.947,-0.068,-18.537,-0.244,-1.159,42.146
138131,153027,13990,0.003,-0.936,-0.076,-18.537,-0.244,-1.159,42.15
138131,152837,13255,0.003,-0.955,-0.079,-20.427,-0.183,-0.61,42.156
137997,152771,13990,0.003,-0.964,-0.083,-20.427,-0.183,-0.61,42.16
137997,152716,13238,0.002,-0.962,-0.09,-20.976,-0.793,-0.305,42.166
137822,152771,13990,0.006,-0.96,-0.107,-20.976,-0.793,-0.305,42.17
137822,152581,13230,0.005,-0.969,-0.121,-20.976,-0.671,0.244,42.176
137629,152515,13990,0,-0.985,-0.116,-20.976,-0.671,0.244,42.18
137629,152429,13189,0.001,-0.983,-0.119,-17.744,-0.732,0.854,42.186
137386,152259,13990,0.004,-0.97,-0.134,-17.744,-0.732,0.854,42.189
137386,152266,13156,0.003,-0.967,-0.151,-14.207,-0.61,1.22,42.196
137156,152259,13990,-0.002,-0.975,-0.146,-14.207,-0.61,1.22,42.199
137156,152074,13119,0.001,-0.983,-0.131,-7.561,-0.183,1.28,42.205
136980,152003,13990,0.003,-0.986,-0.135,-7.561,-0.183,1.28,42.209
136980,151933,13081,-0.002,-0.984,-0.14,-1.524,0.061,1.22,42.215
136827,152003,13990,0.003,-0.972,-0.134,-1.524,0.061,1.22,42.219
136827,151824,13072,0.003,-0.958,-0.116,1.646,0.427,1.341,42.225
136719,151747,13990,0.001,-0.948,-0.113,1.646,0.427,1.341,42.229
136719,151759,13063,-0.002,-0.949,-0.107,4.207,0.366,1.585,42.235
136647,151747,13990,-0.005,-0.957,-0.099,4.207,0.366,1.585,42.239
136647,151722,13039,-0.001,-0.962,-0.095,4.939,0.488,1.098,42.245
136537,151747,13990,0.003,-0.955,-0.095,4.939,0.488,1.098,42.249
136537,151628,13034,0.003,-0.95,-0.098,3.049,0.427,0.488,42.255
136469,151747,13990,0.003,-0.953,-0.099,3.049,0.427,0.488,42.259
136469,151578,13023,-0.001,-0.952,-0.107,1.768,0.488,0.549,42.265
136398,151747,13990,0,-0.962,-0.111,1.768,0.488,0.549,42.269
136398,151572,13008,0.002,-0.973,-0.107,2.5,0.61,0.366,42.275
136345,151491,13990,0.006,-0.977,-0.099,2.5,0.61,0.366,42.279
136345,151474,13002,0.005,-0.976,-0.093,3.049,0.488,0.183,42.285
136278,151491,13990,0.005,-0.961,-0.094,3.049,0.488,0.183,42.288
136278,151446,12983,0,-0.958,-0.101,1.585,0.549,0.671,42.295
