139366,154051,13990,0.002,-0.966,-0.071,-0.366,0.305,0.366,653.472
139366,153927,13432,-0.005,-0.96,-0.069,-0.122,0.183,0.549,653.478
139369,154051,13990,-0.005,-0.96,-0.069,-0.122,0.183,0.549,653.482
139369,153936,13444,0,-0.969,-0.076,-0.305,0.183,0.549,653.488
139329,154051,13990,0,-0.969,-0.076,-0.305,0.183,0.549,653.492
139329,153919,13452,-0.001,-0.965,-0.08,-0.549,0.183,0.366,653.498
139340,154051,13990,-0.001,-0.965,-0.08,-0.549,0.183,0.366,653.502
139340,153908,13436,-0.003,-0.967,-0.078,-0.122,0.183,0.549,653.508
139297,154051,13990,-0.003,-0.967,-0.078,-0.122,0.183,0.549,653.512
139297,153885,13443,-0.002,-0.965,-0.074,0.488,0.366,0.549,653.518
139283,154051,13990,-0.002,-0.965,-0.074,0.488,0.366,0.549,653.521
139283,153866,13436,-0.002,-0.964,-0.068,1.098,0.366,0.488,653.528
139252,154051,13990,-0.004,-0.962,-0.063,1.098,0.366,0.488,653.531
139252,153881,13416,-0.008,-0.96,-0.064,0.732,0.488,0.549,653.538
139245,153795,13990,-0.004,-0.965,-0.069,0.732,0.488,0.549,653.541
139245,153837,13425,-0.003,-0.966,-0.06,0.122,0.488,0.488,653.547
139239,153795,13990,-0.004,-0.963,-0.064,0.122,0.488,0.488,653.551
139239,153842,13419,-0.007,-0.962,-0.068,-0.732,0.244,0.549,653.557
139191,153795,13990,-0.007,-0.965,-0.074,-0.732,0.244,0.549,653.561
139191,153827,13426,-0.004,-0.971,-0.072,-1.159,0.244,0.549,653.567
139191,153795,13990,-0.002,-0.969,-0.072,-1.159,0.244,0.549,653.571
139191,153815,13414,-0.003,-0.968,-0.076,-1.037,0.244,0.488,653.577
139153,153795,13990,-0.002,-0.968,-0.078,-1.037,0.244,0.488,653.581
139153,153790,13415,-0.005,-0.965,-0.073,-0.793,0.366,0.61,653.587
139167,153795,13990,-0.003,-0.966,-0.076,-0.793,0.366,0.61,653.591
139167,153775,13408,-0.003,-0.967,-0.079,-0.305,0.366,0.488,653.597
139143,153795,13990,-0.004,-0.965,-0.077,-0.305,0.366,0.488,653.601
139143,153789,13425,-0.002,-0.964,-0.07,0.427,0.488,0.427,653.607
139141,153795,13990,-0.001,-0.961,-0.067,0.427,0.488,0.427,653.611
139141,153753,13389,-0.005,-0.961,-0.071,0.549,0.366,0.427,653.617
139132,153795,13990,-0.004,-0.965,-0.072,0.549,0.366,0.427,653.62
139132,153779,13392,-0.003,-0.967,-0.07,0.427,0.427,0.366,653.627
139142,153795,13990,-0.003,-0.963,-0.07,0.427,0.427,0.366,653.63
139142,153784,13403,-0.003,-0.965,-0.073,0.244,0.305,0.366,653.637
139132,153795,13990,-0.005,-0.967,-0.078,0.244,0.305,0.366,653.64
139132,153808,13399,-0.004,-0.971,-0.076,0.183,0.305,0.427,653.646
139135,153795,13990,-0.001,-0.968,-0.071,0.183,0.305,0.427,653.65
139135,153800,13412,-0.002,-0.963,-0.071,0.122,0.244,0.549,653.656
139141,153795,13990,-0.004,-0.964,-0.07,0.122,0.244,0.549,653.66
139141,153796,13399,-0.004,-0.962,-0.068,0,0.305,0.732,653.666
139144,153795,13990,-0.004,-0.964,-0.068,0,0.305,0.732,653.67
139144,153807,13399,-0.003,-0.967,-0.071,-0.061,0.244,0.488,653.676
139148,153795,13990,-0.005,-0.968,-0.069,-0.061,0.244,0.488,653.68
139148,153777,13413,-0.007,-0.964,-0.071,0,0.305,0.488,653.686
139146,153795,13990,-0.004,-0.964,-0.066,0,0.305,0.488,653.69
139146,153796,13408,-0.006,-0.962,-0.071,-0.061,0.305,0.427,653.696
139137,153795,13990,-0.006,-0.966,-0.074,-0.061,0.305,0.427,653.7
139137,153815,13424,-0.005,-0.969,-0.077,-0.244,0.366,0.305,653.706
139157,153795,13990,-0.002,-0.966,-0.076,-0.244,0.366,0.305,653.71
139157,153812,13405,-0.003,-0.964,-0.071,-0.061,0.305,0.244,653.716
139147,154051,13990,0,-0.963,-0.069,-0.061,0.305,0.244,653.719
139147,153856,13409,-0.003,-0.964,-0.067,0.183,0.366,0.366,653.726
139128,153795,13990,-0.004,-0.963,-0.068,0.183,0.366,0.366,653.729
139128,153833,13408,-0.003,-0.965,-0.072,-0.183,0.488,0.366,653.736
139150,153795,13990,-0.001,-0.97,-0.076,-0.183,0.488,0.366,653.739
139150,153847,13413,0,-0.969,-0.074,-0.122,0.427,0.244,653.745
139174,153795,13990,-0.003,-0.966,-0.07,-0.122,0.427,0.244,653.749
139174,153851,13402,-0.005,-0.962,-0.068,0,0.427,0.488,653.755
139148,154051,13990,-0.004,-0.963,-0.069,0,0.427,0.488,653.759
139148,153860,13408,-0.004,-0.964,-0.07,0.061,0.488,0.488,653.765
139158,153795,13990,-0.002,-0.963,-0.072,0.061,0.488,0.488,653.769
139158,153848,13419,-0.004,-0.966,-0.069,0.061,0.427,0.183,653.775
139180,153795,13990,-0.007,-0.963,-0.071,0.061,0.427,0.183,653.779
139180,153849,13406,-0.003,-0.965,-0.074,-0.122,0.488,0.183,653.785
139179,154051,13990,-0.002,-0.964,-0.074,-0.122,0.488,0.183,653.789
139179,153866,13428,-0.005,-0.962,-0.072,0,0.488,0.244,653.795
139243,154051,13990,-0.003,-0.967,-0.072,0,0.488,0.244,653.799
139243,153879,13414,-0.003,-0.969,-0.074,0.427,0.488,0.244,653.805
139235,154051,13990,0.001,-0.969,-0.073,0.427,0.488,0.244,653.809
139235,153917,13415,0.003,-0.968,-0.073,0.488,0.549,0.427,653.815
139241,154051,13990,0.002,-0.966,-0.067,0.488,0.549,0.427,653.818
139241,153936,13422,-0.001,-0.968,-0.065,0.793,0.549,0.732,653.825
139249,154051,13990,-0.004,-0.965,-0.063,0.793,0.549,0.732,653.828
139249,153911,13424,-0.001,-0.965,-0.065,0.122,0.427,0.793,653.835
139255,154051,13990,-0.005,-0.962,-0.067,0.122,0.427,0.793,653.838
139255,153936,13427,-0.004,-0.962,-0.067,-0.732,0.488,0.732,653.844
139240,154051,13990,-0.003,-0.961,-0.065,-0.732,0.488,0.732,653.848
139240,153934,13417,-0.004,-0.965,-0.068,-0.976,0.488,0.671,653.854
139226,154051,13990,-0.004,-0.965,-0.071,-0.976,0.488,0.671,653.858
139226,153938,13415,-0.007,-0.965,-0.071,-1.159,0.427,0.671,653.864
139256,154051,13990,-0.007,-0.964,-0.075,-1.159,0.427,0.671,653.868
139256,153948,13417,-0.003,-0.968,-0.077,-1.22,0.488,0.61,653.874
139260,154051,13990,-0.002,-0.969,-0.077,-1.22,0.488,0.61,653.878
139260,153968,13425,-0.005,-0.967,-0.08,-0.488,0.488,0.549,653.884
139290,154051,13990,-0.005,-0.97,-0.076,-0.488,0.488,0.549,653.888
139290,153939,13428,-0.001,-0.966,-0.073,0.122,0.488,0.671,653.894
139301,154051,13990,-0.005,-0.964,-0.069,0.122,0.488,0.671,653.898
139301,153987,13423,-0.008,-0.964,-0.067,0.366,0.488,0.854,653.904
139317,154051,13990,-0.005,-0.963,-0.069,0.366,0.488,0.854,653.908
139317,153978,13424,-0.007,-0.964,-0.067,-0.061,0.488,0.732,653.914
139337,154051,13990,-0.007,-0.963,-0.069,-0.061,0.488,0.732,653.917
139337,154024,13445,-0.006,-0.961,-0.067,-0.305,0.366,0.671,653.924
139371,154051,13990,-0.002,-0.964,-0.067,-0.305,0.366,0.671,653.927
139371,154015,13448,-0.006,-0.966,-0.074,-0.549,0.366,0.61,653.934
139381,154051,13990,-0.003,-0.967,-0.073,-0.549,0.366,0.61,653.937
139381,154047,13438,-0.007,-0.969,-0.074,-0.549,0.427,0.488,653.943
139394,154051,13990,-0.006,-0.969,-0.072,-0.549,0.427,0.488,653.947
139394,154049,13448,-0.002,-0.967,-0.075,-0.549,0.488,0.366,653.953
139389,154051,13990,-0.005,-0.966,-0.075,-0.549,0.488,0.366,653.957
139389,154057,13443,-0.01,-0.966,-0.075,-0.122,0.61,0.427,653.963
139427,154051,13990,-0.006,-0.963,-0.07,-0.122,0.61,0.427,653.967
139427,154056,13439,-0.005,-0.962,-0.068,0.427,0.549,0.305,653.973
139427,154051,13990,-0.005,-0.962,-0.068,0.427,0.549,0.305,653.977
139427,154084,13455,-0.007,-0.961,-0.071,0.427,0.366,0.122,653.983
139462,154051,13990,-0.007,-0.961,-0.071,0.427,0.366,0.122,653.987
139462,154104,13456,-0.008,-0.969,-0.072,0.244,0.366,-0.122,653.993
139476,154307,13990,-0.008,-0.969,-0.072,0.244,0.366,-0.122,653.997
139476,154142,13453,-0.005,-0.964,-0.066,0.122,0.366,-0.305,654.003
139492,154307,13990,-0.005,-0.964,-0.066,0.122,0.366,-0.305,654.007
139492,154147,13436,-0.005,-0.962,-0.063,-0.305,0.305,-0.305,654.013
139514,154307,13990,-0.005,-0.962,-0.063,-0.305,0.305,-0.305,654.017
139514,154180,13454,-0.008,-0.964,-0.066,-0.671,0.305,-0.671,654.023
139555,154307,13990,-0.008,-0.964,-0.066,-0.671,0.305,-0.671,654.026
139555,154180,13440,-0.004,-0.962,-0.07,-0.854,0.244,-0.854,654.033
139543,154307,13990,-0.004,-0.962,-0.07,-0.854,0.244,-0.854,654.036
139543,154200,13460,0,-0.975,-0.077,-0.915,0.183,-0.793,654.042
139569,154307,13990,0,-0.975,-0.077,-0.915,0.183,-0.793,654.046
139569,154224,13450,0.001,-0.97,-0.081,-0.488,0.244,-0.488,654.052
139579,154307,13990,0.001,-0.97,-0.081,-0.488,0.244,-0.488,654.056
139579,154259,13465,0.003,-0.972,-0.081,0.305,0.427,-0.183,654.062
139614,154307,13990,0.003,-0.972,-0.081,0.305,0.427,-0.183,654.066
139614,154252,13466,0,-0.967,-0.077,1.098,0.61,0.122,654.072
139644,154307,13990,0,-0.967,-0.077,1.098,0.61,0.122,654.076
139644,154277,13471,-0.002,-0.97,-0.072,2.073,0.732,0.305,654.082
139675,154307,13990,-0.002,-0.97,-0.072,2.073,0.732,0.305,654.086
139675,154297,13457,-0.002,-0.961,-0.068,2.256,0.671,0.427,654.092
139709,154307,13990,-0.002,-0.961,-0.068,2.256,0.671,0.427,654.096
139709,154319,13468,-0.005,-0.959,-0.061,1.707,0.61,0.305,654.102
139722,154307,13990,-0.005,-0.959,-0.061,1.707,0.61,0.305,654.106
139722,154341,13475,-0.003,-0.965,-0.066,0.976,0.488,0.244,654.112
139742,154307,13990,-0.003,-0.965,-0.066,0.976,0.488,0.244,654.115
139742,154363,13482,0.003,-0.97,-0.076,0.061,0.427,0.366,654.122
139752,154307,13990,0.003,-0.97,-0.076,0.061,0.427,0.366,654.125
139752,154364,13488,0.002,-0.969,-0.073,0.061,0.427,0.366,654.132
139748,154307,13990,0.003,-0.967,-0.069,0.183,0.427,0.854,654.135
139748,154367,13483,0.004,-0.965,-0.066,0.183,0.427,0.854,654.141
139780,154563,13990,-0.001,-0.962,-0.061,0.732,0.427,1.402,654.145
139780,154391,13482,-0.002,-0.96,-0.062,0.732,0.427,1.402,654.151
139796,154563,13990,-0.002,-0.961,-0.067,0.061,0.549,1.341,654.155
139796,154409,13488,-0.002,-0.962,-0.063,0.061,0.549,1.341,654.161
139818,154563,13990,-0.006,-0.963,-0.057,-0.854,0.488,0.976,654.165
139818,154450,13499,-0.009,-0.958,-0.058,-0.854,0.488,0.976,654.171
139823,154563,13990,-0.009,-0.958,-0.06,-1.829,0.366,0.732,654.175
139823,154429,13486,-0.008,-0.962,-0.062,-1.829,0.366,0.732,654.181
139832,154563,13990,-0.011,-0.967,-0.066,-2.683,0.366,0.305,654.185
139832,154417,13473,-0.008,-0.972,-0.073,-2.683,0.366,0.305,654.191
139823,154563,13990,-0.006,-0.973,-0.072,-2.866,0.183,0,654.195
139823,154417,13493,-0.004,-0.968,-0.072,-2.866,0.183,0,654.201
139834,154563,13990,-0.009,-0.967,-0.071,-2.744,0,0.183,654.205
139834,154430,13501,-0.01,-0.965,-0.076,-2.744,0,0.183,654.211
139863,154563,13990,-0.011,-0.965,-0.075,-2.256,0.183,0.244,654.215
139863,154426,13499,-0.008,-0.966,-0.078,-2.256,0.183,0.244,654.221
139854,154563,13990,-0.003,-0.965,-0.078,-1.524,0.183,0,654.224
139854,154426,13503,-0.003,-0.965,-0.07,-1.524,0.183,0,654.231
139883,154563,13990,-0.004,-0.964,-0.075,-0.915,0.244,-0.183,654.234
139883,154482,13499,-0.005,-0.962,-0.073,-0.915,0.244,-0.183,654.24
139901,154563,13990,-0.006,-0.965,-0.07,-0.61,0.183,-0.305,654.244
139901,154466,13504,-0.003,-0.967,-0.078,-0.61,0.183,-0.305,654.25
139911,154563,13990,-0.004,-0.971,-0.082,-0.549,0.183,-0.671,654.254
139911,154506,13505,0,-0.97,-0.085,-0.549,0.183,-0.671,654.26
139944,154563,13990,0.002,-0.969,-0.085,0.122,0.183,-0.854,654.264
139944,154495,13519,0.005,-0.969,-0.078,0.122,0.183,-0.854,654.27
139952,154563,13990,0.002,-0.965,-0.073,0.976,0.183,-0.488,654.274
139952,154528,13494,0.001,-0.964,-0.073,0.976,0.183,-0.488,654.28
139961,154563,13990,0.001,-0.967,-0.067,1.22,0.305,0,654.284
139961,154551,13517,-0.001,-0.967,-0.061,1.22,0.305,0,654.29
139967,154563,13990,0.001,-0.965,-0.065,0.854,0.305,0.366,654.294
139967,154540,13508,0.004,-0.959,-0.067,0.854,0.305,0.366,654.3
139966,154563,13990,0.002,-0.963,-0.064,0.244,0.183,0.61,654.304
139966,154546,13516,0.002,-0.966,-0.064,0.244,0.183,0.61,654.31
139991,154563,13990,0.002,-0.965,-0.07,-0.549,0.244,0.61,0.002
139991,154531,13520,0,-0.964,-0.072,-0.549,0.244,0.61,0.008
139969,154563,13990,0.002,-0.966,-0.075,-0.671,0.305,0.671,0.012
139969,154573,13521,-0.002,-0.968,-0.069,-0.671,0.305,0.671,0.018
140000,154563,13990,-0.001,-0.966,-0.068,-0.244,0.366,0.854,0.022
140000,154558,13493,-0.002,-0.962,-0.064,-0.244,0.366,0.854,0.028
140047,154563,13990,-0.007,-0.959,-0.065,-0.244,0.549,0.793,0.032
140047,154582,13505,-0.007,-0.958,-0.066,-0.244,0.549,0.793,0.038
140041,154819,13990,-0.005,-0.963,-0.068,-0.976,0.488,0.549,0.042
140041,154624,13530,-0.006,-0.968,-0.067,-0.976,0.488,0.549,0.048
140070,154819,13990,-0.004,-0.971,-0.071,-1.646,0.427,0.122,0.052
140070,154643,13528,-0.003,-0.969,-0.076,-1.646,0.427,0.122,0.058
140128,154819,13990,-0.005,-0.966,-0.073,-1.89,0.061,0.305,0.062
140128,154671,13529,-0.008,-0.965,-0.078,-1.89,0.061,0.305,0.068
140146,154819,13990,-0.005,-0.967,-0.08,-1.341,0.061,0.488,0.071
140146,154670,13522,-0.004,-0.966,-0.081,-1.341,0.061,0.488,0.078
140162,154819,13990,-0.002,-0.966,-0.081,-0.549,0.183,0.244,0.081
140162,154712,13527,-0,-0.968,-0.078,-0.549,0.183,0.244,0.088
140166,154819,13990,-0,-0.967,-0.078,0.488,0.183,0.366,0.091
140166,154737,13543,0.001,-0.963,-0.077,0.488,0.183,0.366,0.097
140208,154819,13990,-0.003,-0.961,-0.073,1.22,0.305,0.671,0.101
140208,154744,13528,-0.002,-0.963,-0.067,1.22,0.305,0.671,0.107
140192,154819,13990,0,-0.965,-0.067,1.341,0.305,0.671,0.111
140192,154744,13546,-0,-0.964,-0.069,1.341,0.305,0.671,0.117
140193,154819,13990,0.001,-0.965,-0.071,0.915,0.366,0.549,0.121
140193,154741,13522,0.002,-0.966,-0.073,0.915,0.366,0.549,0.127
140168,154819,13990,0.001,-0.964,-0.071,0.854,0.305,0.488,0.131
140168,154720,13531,-0.002,-0.968,-0.065,0.854,0.305,0.488,0.137
140125,154819,13990,-0.001,-0.963,-0.065,0.732,0.488,0.61,0.141
140125,154691,13521,-0.004,-0.961,-0.063,0.732,0.488,0.61,0.147
140085,154819,13990,-0.006,-0.961,-0.067,-0.061,0.488,0.732,0.151
140085,154680,13534,-0.005,-0.964,-0.069,-0.061,0.488,0.732,0.157
140057,154819,13990,-0.006,-0.966,-0.065,-0.427,0.549,0.427,0.161
140057,154658,13516,-0.003,-0.962,-0.065,-0.427,0.549,0.427,0.167
140045,154819,13990,-0.004,-0.962,-0.067,-0.854,0.427,0.244,0.17
140045,154627,13517,-0.007,-0.969,-0.072,-0.854,0.427,0.244,0.177
139997,154563,13990,-0.007,-0.971,-0.077,-1.098,0.427,0.061,0.18
139997,154617,13524,-0.007,-0.97,-0.082,-1.098,0.427,0.061,0.186
140003,154819,13990,-0.004,-0.969,-0.077,-0.732,0.488,0,0.19
140003,154633,13497,-0.002,-0.966,-0.075,-0.732,0.488,0,0.196
139985,154563,13990,-0.003,-0.968,-0.078,0.061,0.61,0.183,0.2
139985,154611,13525,-0.003,-0.969,-0.077,0.061,0.61,0.183,0.206
139978,154563,13990,-0.004,-0.967,-0.076,0.671,0.61,0.488,0.21
139978,154619,13502,-0.002,-0.964,-0.069,0.671,0.61,0.488,0.216
139995,154819,13990,-0.003,-0.965,-0.066,0.915,0.549,0.61,0.22
139995,154628,13511,-0.003,-0.964,-0.072,0.915,0.549,0.61,0.226
140015,154819,13990,-0.001,-0.96,-0.068,0.549,0.488,0.732,0.23
140015,154644,13523,-0,-0.96,-0.069,0.549,0.488,0.732,0.236
140047,154819,13990,0,-0.963,-0.073,0.122,0.427,0.61,0.24
140047,154648,13524,-0.001,-0.968,-0.071,0.122,0.427,0.61,0.246
140042,154819,13990,-0.003,-0.965,-0.067,0.122,0.366,0.366,0.25
140042,154679,13528,-0.006,-0.96,-0.069,0.122,0.366,0.366,0.256
140048,154819,13990,-0.006,-0.96,-0.069,0.122,0.366,0.366,0.26
140048,154657,13511,-0.002,-0.963,-0.071,-0.061,0.366,0.305,0.266
140042,154819,13990,-0.002,-0.963,-0.071,-0.061,0.366,0.305,0.269
140042,154662,13522,-0.002,-0.967,-0.073,0.061,0.427,0.183,0.276
140045,154819,13990,-0.002,-0.967,-0.073,0.061,0.427,0.183,0.279
140045,154679,13506,-0.004,-0.971,-0.071,0.366,0.427,0,0.286
140035,154819,13990,-0.004,-0.971,-0.071,0.366,0.427,0,0.289
140035,154643,13497,-0.008,-0.963,-0.061,0.671,0.366,0.122,0.295
140005,154819,13990,-0.008,-0.963,-0.061,0.671,0.366,0.122,0.299
140005,154624,13501,-0.006,-0.964,-0.069,0.122,0.244,0.305,0.305
140017,154819,13990,-0.006,-0.964,-0.069,0.122,0.244,0.305,0.309
140017,154632,13504,-0.001,-0.966,-0.066,-0.488,0.244,-0.122,0.315
139981,154563,13990,-0.001,-0.966,-0.066,-0.488,0.244,-0.122,0.319
139981,154607,13505,-0.002,-0.961,-0.071,-0.976,0.183,-0.183,0.325
139953,154563,13990,-0.002,-0.961,-0.071,-0.976,0.183,-0.183,0.329
139953,154576,13498,0,-0.967,-0.071,-1.28,0.305,-0.061,0.335
139951,154563,13990,0,-0.967,-0.071,-1.28,0.305,-0.061,0.339
139951,154577,13495,-0.003,-0.967,-0.069,-0.976,0.427,-0.122,0.345
139932,154563,13990,-0.003,-0.967,-0.069,-0.976,0.427,-0.122,0.349
139932,154591,13496,-0.003,-0.962,-0.069,-0.793,0.427,-0.061,0.355
139959,154563,13990,-0.003,-0.962,-0.069,-0.793,0.427,-0.061,0.359
139959,154581,13485,-0,-0.97,-0.074,-1.159,0.488,0.122,0.365
139936,154563,13990,-0,-0.97,-0.074,-1.159,0.488,0.122,0.368
139936,154600,13515,0.001,-0.968,-0.074,-0.976,0.488,0.122,0.375
139980,154563,13990,0.001,-0.968,-0.074,-0.976,0.488,0.122,0.378
139980,154596,13500,-0.005,-0.967,-0.076,-0.549,0.305,0.244,0.385
139991,154563,13990,-0.005,-0.967,-0.076,-0.549,0.305,0.244,0.388
139991,154618,13500,-0.002,-0.964,-0.08,0,0.427,0.366,0.394
140023,154819,13990,-0.002,-0.964,-0.08,0,0.427,0.366,0.398
140023,154662,13491,-0.001,-0.962,-0.073,0.488,0.488,0.244,0.404
140030,154819,13990,-0.004,-0.963,-0.073,0.488,0.488,0.244,0.408
140030,154664,13496,-0.002,-0.966,-0.072,0.671,0.61,0.122,0.414
140040,154819,13990,-0.003,-0.961,-0.069,0.671,0.61,0.122,0.418
140040,154668,13503,-0.006,-0.962,-0.065,0.488,0.427,0.183,0.424
140044,154819,13990,-0.004,-0.963,-0.066,0.488,0.427,0.183,0.428
140044,154678,13504,-0.005,-0.968,-0.071,0.305,0.366,0,0.434
140038,154819,13990,-0,-0.965,-0.071,0.305,0.366,0,0.438
140038,154652,13505,-0.001,-0.964,-0.072,0.061,0.366,0,0.444
140034,154819,13990,-0.001,-0.968,-0.07,0.061,0.366,0,0.448
140034,154677,13512,-0.004,-0.971,-0.072,0,0.366,0.122,0.454
140037,154819,13990,-0.001,-0.971,-0.074,0,0.366,0.122,0.458
140037,154661,13500,-0.001,-0.968,-0.072,0.244,0.488,0.305,0.464
140041,154819,13990,-0.002,-0.966,-0.073,0.244,0.488,0.305,0.467
140041,154684,13515,-0.002,-0.963,-0.071,0.549,0.488,0.366,0.474
140072,154819,13990,-0.005,-0.963,-0.07,0.549,0.488,0.366,0.477
140072,154709,13513,-0.001,-0.968,-0.069,0.732,0.488,0.244,0.484
140118,154819,13990,0.002,-0.968,-0.073,0.732,0.488,0.244,0.487
140118,154740,13508,-0.002,-0.964,-0.071,0.915,0.549,0.183,0.493
140157,154819,13990,-0.003,-0.962,-0.064,0.915,0.549,0.183,0.497
140157,154762,13508,-0.001,-0.963,-0.068,0.671,0.488,0.305,0.503
140167,154819,13990,0.001,-0.959,-0.067,0.671,0.488,0.305,0.507
140167,154776,13516,-0.003,-0.963,-0.065,0.122,0.427,0.305,0.513
140210,154819,13990,-0.001,-0.967,-0.07,0.122,0.427,0.305,0.517
140210,154790,13524,-0.001,-0.969,-0.071,-0.061,0.549,0.244,0.523
140187,154819,13990,-0.001,-0.967,-0.073,-0.061,0.549,0.244,0.527
140187,154801,13531,-0.001,-0.964,-0.07,-0.305,0.427,0.488,0.533
140213,154819,13990,-0.002,-0.965,-0.068,-0.305,0.427,0.488,0.537
140213,154799,13512,-0.003,-0.966,-0.068,-0.549,0.366,0.732,0.543
140213,154819,13990,-0.002,-0.964,-0.071,-0.549,0.366,0.732,0.547
140213,154818,13542,-0,-0.963,-0.069,-1.098,0.366,0.671,0.553
140227,154819,13990,-0.004,-0.965,-0.071,-1.098,0.366,0.671,0.557
140227,154812,13516,-0.006,-0.97,-0.07,-1.22,0.366,0.427,0.563
140213,154819,13990,-0.006,-0.966,-0.075,-1.22,0.366,0.427,0.566
140213,154798,13531,0.001,-0.967,-0.077,-1.037,0.244,0.244,0.573
140204,154819,13990,-0,-0.966,-0.076,-1.037,0.244,0.244,0.576
140204,154798,13524,-0.006,-0.966,-0.077,-0.488,0.305,0.183,0.583
140194,154819,13990,-0.004,-0.967,-0.075,-0.488,0.305,0.183,0.586
140194,154847,13533,-0,-0.965,-0.073,0.244,0.305,0.244,0.592
140188,154819,13990,-0.001,-0.963,-0.074,0.244,0.305,0.244,0.596
140188,154815,13536,-0.001,-0.967,-0.075,0.61,0.366,0.305,0.602
140206,154819,13990,-0.001,-0.968,-0.068,0.61,0.366,0.305,0.606
140206,154809,13530,0.001,-0.966,-0.065,0.61,0.427,0.366,0.612
140182,154819,13990,0.001,-0.966,-0.063,0.61,0.427,0.366,0.616
140182,154802,13527,0,-0.965,-0.064,0.305,0.427,0.366,0.622
140195,154819,13990,-0.001,-0.963,-0.069,0.305,0.427,0.366,0.626
140195,154778,13523,-0.003,-0.965,-0.068,-0.305,0.427,0.366,0.632
140158,154819,13990,0.003,-0.963,-0.063,-0.305,0.427,0.366,0.636
140158,154788,13531,0,-0.961,-0.066,-0.549,0.366,0.488,0.642
140163,154819,13990,-0.002,-0.964,-0.071,-0.549,0.366,0.488,0.646
140163,154780,13535,0.001,-0.966,-0.066,-0.732,0.427,0.427,0.652
140167,154819,13990,-0.004,-0.965,-0.066,-0.732,0.427,0.427,0.656
140167,154797,13524,-0.006,-0.964,-0.071,-1.098,0.305,0.427,0.662
140180,154819,13990,-0.005,-0.966,-0.076,-1.098,0.305,0.427,0.665
140180,154802,13528,-0.003,-0.969,-0.077,-1.402,0.183,0.244,0.672
140180,154819,13990,-0.003,-0.969,-0.078,-1.402,0.183,0.244,0.675
140180,154830,13530,-0.003,-0.97,-0.081,-1.098,0.061,0.183,0.682
140208,154819,13990,-0.002,-0.971,-0.078,-1.098,0.061,0.183,0.685
140208,154815,13516,-0.002,-0.965,-0.076,-0.305,0.122,0.427,0.691
140230,154819,13990,-0.001,-0.963,-0.076,-0.305,0.122,0.427,0.695
140230,154856,13539,-0.001,-0.965,-0.073,0.183,0.244,0.549,0.701
140257,154819,13990,-0.002,-0.963,-0.066,0.183,0.244,0.549,0.705
140257,154848,13541,-0.005,-0.962,-0.06,0.244,0.183,0.671,0.711
140272,154819,13990,-0.003,-0.96,-0.071,0.244,0.183,0.671,0.715
140272,154866,13529,-0.001,-0.965,-0.071,-0.915,0,0.61,0.721
140283,155075,13990,0.004,-0.966,-0.069,-0.915,0,0.61,0.725
140283,154889,13554,0.002,-0.962,-0.068,-1.098,0.061,0.488,0.731
140301,155075,13990,-0.001,-0.961,-0.071,-1.098,0.061,0.488,0.735
140301,154908,13552,-0.004,-0.967,-0.073,-0.854,0.122,0.366,0.741
140335,155075,13990,-0.003,-0.969,-0.076,-0.854,0.122,0.366,0.745
140335,154922,13535,-0,-0.966,-0.074,-0.488,0.427,0.061,0.751
140354,155075,13990,-0.005,-0.966,-0.073,-0.488,0.427,0.061,0.755
140354,154945,13551,-0.003,-0.968,-0.07,0.061,0.549,-0.061,0.761
140383,155075,13990,-0.004,-0.962,-0.065,0.061,0.549,-0.061,0.764
140383,154954,13560,-0.002,-0.964,-0.065,0,0.549,0.122,0.771
140369,155075,13990,-0.007,-0.964,-0.069,0,0.549,0.122,0.774
140369,154942,13542,-0.008,-0.966,-0.071,-0.366,0.549,0.061,0.781
140394,155075,13990,-0.001,-0.967,-0.069,-0.366,0.549,0.061,0.784
140394,154960,13549,0.002,-0.966,-0.071,-0.61,0.488,0.061,0.79
140394,155075,13990,-0.005,-0.966,-0.071,-0.61,0.488,0.061,0.794
140394,154953,13566,-0.002,-0.963,-0.072,-0.732,0.488,0.366,0.8
140403,155075,13990,-0.003,-0.965,-0.067,-0.732,0.488,0.366,0.804
140403,154965,13547,-0.001,-0.963,-0.067,-1.037,0.488,0.427,0.81
140374,155075,13990,0.002,-0.965,-0.068,-1.037,0.488,0.427,0.814
140374,154952,13549,0.001,-0.961,-0.073,-1.159,0.488,0.427,0.82
140369,155075,13990,-0.002,-0.962,-0.074,-1.159,0.488,0.427,0.824
140369,154982,13557,-0.004,-0.965,-0.076,-1.341,0.61,0.244,0.83
140353,155075,13990,-0.003,-0.964,-0.08,-1.341,0.61,0.244,0.834
140353,154938,13537,-0.006,-0.966,-0.08,-1.159,0.549,-0.061,0.84
140347,155075,13990,-0.003,-0.966,-0.08,-1.159,0.549,-0.061,0.844
140347,154951,13567,0.002,-0.965,-0.077,-0.427,0.61,-0.244,0.85
140353,155075,13990,0.002,-0.965,-0.077,-0.427,0.61,-0.244,0.854
140353,154954,13544,-0.004,-0.963,-0.076,0.244,0.61,-0.244,0.86
140381,155075,13990,-0.004,-0.963,-0.076,0.244,0.61,-0.244,0.863
140381,154975,13562,-0.004,-0.969,-0.076,0.732,0.671,-0.244,0.87
140406,155075,13990,-0.004,-0.969,-0.076,0.732,0.671,-0.244,0.873
140406,155007,13561,-0,-0.966,-0.074,0.976,0.549,-0.183,0.88
140439,155075,13990,-0,-0.966,-0.074,0.976,0.549,-0.183,0.883
140439,155049,13561,0.001,-0.964,-0.069,1.098,0.488,0.244,0.889
140443,155075,13990,0.001,-0.964,-0.069,1.098,0.488,0.244,0.893
140443,155052,13562,-0.001,-0.966,-0.068,0.427,0.488,0.366,0.899
140487,155075,13990,-0.001,-0.966,-0.068,0.427,0.488,0.366,0.903
140487,155062,13561,0.001,-0.967,-0.073,-0.183,0.427,0.244,0.909
140470,155075,13990,0.001,-0.967,-0.073,-0.183,0.427,0.244,0.913
140470,155055,13571,0.003,-0.968,-0.073,-0.305,0.427,0.244,0.919
140465,155075,13990,0.003,-0.968,-0.073,-0.305,0.427,0.244,0.923
140465,155069,13570,-0.003,-0.962,-0.068,-0.061,0.427,0.305,0.929
140449,155075,13990,-0.003,-0.962,-0.068,-0.061,0.427,0.305,0.933
140449,155047,13552,-0.003,-0.963,-0.068,-0.183,0.366,0.183,0.939
140427,155075,13990,-0.003,-0.963,-0.068,-0.183,0.366,0.183,0.943
140427,155047,13569,-0.002,-0.966,-0.069,-0.305,0.488,-0.061,0.949
140437,155075,13990,-0.002,-0.966,-0.069,-0.305,0.488,-0.061,0.953
140437,155033,13563,-0.002,-0.968,-0.075,-0.671,0.549,-0.061,0.959
140414,155075,13990,-0.002,-0.968,-0.075,-0.671,0.549,-0.061,0.962
140414,155040,13572,0.003,-0.967,-0.071,-0.427,0.549,0.122,0.969
140416,155075,13990,0.003,-0.967,-0.071,-0.427,0.549,0.122,0.972
140416,155051,13589,0.001,-0.963,-0.073,-0.366,0.488,0.305,0.979
140433,155075,13990,0.001,-0.963,-0.073,-0.366,0.488,0.305,0.982
140433,155016,13572,0.001,-0.965,-0.073,-0.671,0.488,0.305,0.988
140398,155075,13990,0.001,-0.965,-0.073,-0.671,0.488,0.305,0.992
140398,155023,13556,0.007,-0.967,-0.078,-0.671,0.488,0.305,0.998
140402,155075,13990,0.003,-0.967,-0.078,-0.732,0.366,0.366,1.002
140402,155000,13555,0.002,-0.969,-0.079,-0.732,0.366,0.366,1.008
140393,155075,13990,-0.001,-0.969,-0.077,-0.305,0.488,0.61,1.012
140393,155010,13551,0.002,-0.965,-0.074,-0.305,0.488,0.61,1.018
140385,155075,13990,0.002,-0.966,-0.072,0.305,0.488,0.793,1.022
140385,155004,13570,-0,-0.96,-0.075,0.305,0.488,0.793,1.028
140371,155075,13990,-0.001,-0.964,-0.07,0.549,0.61,0.793,1.032
140371,155023,13562,-0.003,-0.964,-0.072,0.549,0.61,0.793,1.038
140389,155075,13990,-0.004,-0.964,-0.07,0.488,0.61,0.732,1.042
140389,155031,13565,-0.004,-0.963,-0.066,0.488,0.61,0.732,1.048
140398,155075,13990,-0.005,-0.965,-0.066,0.305,0.549,0.488,1.052
140398,155036,13569,-0.004,-0.961,-0.069,0.305,0.549,0.488,1.058
140431,155075,13990,-0.003,-0.966,-0.07,-0.061,0.549,0.244,1.061
140431,155036,13562,-0.002,-0.966,-0.071,-0.061,0.549,0.244,1.068
140394,155075,13990,-0.003,-0.965,-0.069,-0.305,0.427,0.122,1.071
140394,155011,13564,-0.004,-0.964,-0.069,-0.305,0.427,0.122,1.078
140418,155075,13990,-0.002,-0.962,-0.072,-0.366,0.366,0.122,1.081
140418,155034,13560,-0.005,-0.962,-0.066,-0.366,0.366,0.122,1.087
140407,155075,13990,-0,-0.965,-0.067,-0.549,0.305,0.122,1.091
140407,155060,13576,0.004,-0.967,-0.068,-0.549,0.305,0.122,1.097
140383,155075,13990,0,-0.966,-0.065,-0.854,0.244,0.122,1.101
140383,155009,13552,-0,-0.966,-0.07,-0.854,0.244,0.122,1.107
140368,155075,13990,-0,-0.966,-0.079,-1.037,0.305,0.305,1.111
140368,155016,13566,0.003,-0.968,-0.071,-1.037,0.305,0.305,1.117
140357,155075,13990,0.002,-0.969,-0.069,-0.915,0.305,0.366,1.121
140357,154981,13555,0.002,-0.965,-0.072,-0.915,0.305,0.366,1.127
140328,155075,13990,0.002,-0.964,-0.068,-0.793,0.305,0.427,1.131
140328,155008,13559,-0,-0.96,-0.073,-0.793,0.305,0.427,1.137
140351,155075,13990,-0.002,-0.959,-0.071,-0.854,0.366,0.488,1.141
140351,155026,13562,-0.002,-0.964,-0.071,-0.854,0.366,0.488,1.147
140362,155075,13990,-0.002,-0.966,-0.072,-0.671,0.305,0.366,1.151
140362,155020,13570,-0.002,-0.966,-0.072,-0.671,0.305,0.366,1.157
140386,155075,13990,-0.001,-0.966,-0.077,-0.61,0.366,0.244,1.16
140386,155032,13549,-0.002,-0.967,-0.071,-0.61,0.366,0.244,1.167
140407,155075,13990,-0.001,-0.968,-0.072,-0.549,0.244,0.305,1.17
140407,155030,13561,-0.001,-0.965,-0.077,-0.549,0.244,0.305,1.177
140402,155075,13990,-0,-0.966,-0.079,-0.183,0.305,0.305,1.18
140402,155040,13559,-0.001,-0.967,-0.073,-0.183,0.305,0.305,1.186
140427,155075,13990,-0.001,-0.966,-0.069,-0.305,0.244,0.427,1.19
140427,155030,13552,0.003,-0.963,-0.071,-0.305,0.244,0.427,1.196
140416,155075,13990,0.002,-0.964,-0.077,-0.549,0.305,0.549,1.2
140416,155040,13561,-0,-0.965,-0.077,-0.549,0.305,0.549,1.206
140415,155075,13990,0,-0.97,-0.077,-0.671,0.305,0.61,1.21
140415,155037,13566,0.002,-0.967,-0.074,-0.671,0.305,0.61,1.216
140400,155075,13990,-0.003,-0.961,-0.069,-0.61,0.305,0.793,1.22
140400,155020,13574,0,-0.957,-0.066,-0.61,0.305,0.793,1.226
140412,155075,13990,-0.001,-0.961,-0.068,-0.61,0.366,0.793,1.23
140412,155042,13588,-0.003,-0.965,-0.071,-0.61,0.366,0.793,1.236
140426,155075,13990,0.003,-0.97,-0.073,-0.915,0.366,0.488,1.24
140426,155033,13576,-0.002,-0.968,-0.082,-0.915,0.366,0.488,1.246
140432,155075,13990,-0.004,-0.967,-0.078,-0.976,0.427,0.366,1.25
140432,155056,13575,-0.004,-0.965,-0.072,-0.976,0.427,0.366,1.256
140426,155075,13990,-0.005,-0.962,-0.076,-0.488,0.427,0.183,1.259
140426,155043,13570,-0.005,-0.961,-0.08,-0.488,0.427,0.183,1.266
140407,155075,13990,-0.003,-0.962,-0.076,-0.183,0.549,-0.061,1.269
140407,155053,13574,-0.002,-0.966,-0.074,-0.183,0.549,-0.061,1.276
140405,155075,13990,-0.003,-0.969,-0.076,0.183,0.549,-0.183,1.279
140405,155050,13570,0,-0.971,-0.074,0.183,0.549,-0.183,1.285
140405,155075,13990,0.002,-0.968,-0.07,0.305,0.488,-0.183,1.289
140405,155077,13565,0.002,-0.964,-0.07,0.305,0.488,-0.183,1.295
140433,155075,13990,-0.001,-0.964,-0.068,0.061,0.366,0.061,1.299
140433,155058,13567,-0.001,-0.964,-0.071,0.061,0.366,0.061,1.305
140420,155075,13990,-0.001,-0.968,-0.078,-0.366,0.366,0.305,1.309
140420,155071,13571,0.001,-0.968,-0.076,-0.366,0.366,0.305,1.315
140445,155075,13990,0.006,-0.966,-0.068,-0.061,0.366,0.244,1.319
140445,155079,13571,0.003,-0.965,-0.069,-0.061,0.366,0.244,1.325
140443,155075,13990,-0.001,-0.963,-0.075,0,0.305,0.488,1.329
140443,155085,13566,-0,-0.965,-0.073,0,0.305,0.488,1.335
140459,155075,13990,-0.001,-0.965,-0.072,-0.183,0.305,0.549,1.339
140459,155091,13569,-0.001,-0.963,-0.071,-0.183,0.305,0.549,1.345
140457,155075,13990,-0.002,-0.965,-0.073,-0.427,0.305,0.305,1.349
140457,155086,13567,-0.003,-0.969,-0.074,-0.427,0.305,0.305,1.355
140462,155075,13990,-0.001,-0.967,-0.072,-0.427,0.305,0.183,1.358
140462,155096,13571,0.001,-0.966,-0.074,-0.427,0.305,0.183,1.365
140474,155075,13990,-0.003,-0.966,-0.075,-0.366,0.244,0.183,1.368
140474,155106,13575,-0.005,-0.968,-0.076,-0.366,0.244,0.183,1.375
140463,155075,13990,0.001,-0.966,-0.079,-0.427,0.366,0.122,1.378
140463,155104,13577,0.002,-0.966,-0.078,-0.427,0.366,0.122,1.384
140472,155075,13990,-0.002,-0.964,-0.074,-0.061,0.427,0.183,1.388
140472,155095,13566,0.001,-0.964,-0.068,-0.061,0.427,0.183,1.394
140441,155075,13990,0.001,-0.968,-0.068,0.122,0.305,0.366,1.398
140441,155111,13580,-0.002,-0.963,-0.071,0.122,0.305,0.366,1.404
140456,155075,13990,-0.001,-0.961,-0.073,-0.305,0.183,0.549,1.408
140456,155094,13570,0.001,-0.964,-0.071,-0.305,0.183,0.549,1.414
140445,155075,13990,0.006,-0.966,-0.076,-0.488,0.305,0.488,1.418
140445,155065,13566,0.005,-0.967,-0.081,-0.488,0.305,0.488,1.424
140444,155075,13990,0.002,-0.966,-0.076,-0.427,0.488,0.427,1.428
140444,155051,13565,0.001,-0.966,-0.07,-0.427,0.488,0.427,1.434
140414,155075,13990,0.003,-0.964,-0.073,0.122,0.549,0.549,1.438
140414,155052,13562,-0.003,-0.966,-0.078,0.122,0.549,0.549,1.444
140402,155075,13990,-0.003,-0.966,-0.078,0.122,0.549,0.549,1.448
140402,155083,13557,-0.007,-0.965,-0.076,0.305,0.61,0.366,1.454
140407,155075,13990,-0.007,-0.965,-0.076,0.305,0.61,0.366,1.457
140407,155029,13553,0.001,-0.969,-0.069,0.366,0.61,0.244,1.464
140391,155075,13990,0.001,-0.969,-0.069,0.366,0.61,0.244,1.467
140391,155056,13558,-0.008,-0.961,-0.074,0.427,0.427,0.244,1.474
140399,155075,13990,-0.008,-0.961,-0.074,0.427,0.427,0.244,1.477
140399,155057,13569,-0.003,-0.968,-0.075,0.122,0.305,0.305,1.483
140419,155075,13990,-0.003,-0.968,-0.075,0.122,0.305,0.305,1.487
140419,155059,13565,0,-0.966,-0.074,0.305,0.366,0.183,1.493
140393,155075,13990,0,-0.966,-0.074,0.305,0.366,0.183,1.497
140393,155054,13577,0.004,-0.967,-0.074,0.61,0.305,0.244,1.503
140407,155075,13990,0.004,-0.967,-0.074,0.61,0.305,0.244,1.507
140407,155064,13565,-0,-0.964,-0.069,0.305,0.427,0.366,1.513
140381,155075,13990,-0,-0.964,-0.069,0.305,0.427,0.366,1.517
140381,155039,13571,-0.001,-0.959,-0.067,0.183,0.427,0.366,1.523
140363,155075,13990,-0.001,-0.959,-0.067,0.183,0.427,0.366,1.527
140363,155056,13559,0.003,-0.963,-0.069,-0.122,0.427,0.244,1.533
140334,155075,13990,0.003,-0.963,-0.069,-0.122,0.427,0.244,1.537
140334,155016,13565,0.002,-0.969,-0.072,-0.549,0.488,0.061,1.543
140352,155075,13990,0.002,-0.969,-0.072,-0.549,0.488,0.061,1.547
140352,155029,13573,0.002,-0.966,-0.076,-0.671,0.549,0,1.553
140340,155075,13990,0.002,-0.966,-0.076,-0.671,0.549,0,1.556
140340,155029,13570,-0.001,-0.969,-0.07,-0.61,0.61,0.244,1.563
140354,155075,13990,-0.001,-0.969,-0.07,-0.61,0.61,0.244,1.566
140354,155052,13571,0,-0.965,-0.071,-0.488,0.366,0.305,1.573
140386,155075,13990,0,-0.965,-0.071,-0.488,0.366,0.305,1.576
140386,155037,13555,-0,-0.968,-0.079,-0.793,0.366,0.549,1.582
140374,155075,13990,-0,-0.968,-0.079,-0.793,0.366,0.549,1.586
140374,155039,13566,-0.001,-0.966,-0.077,-0.854,0.366,0.732,1.592
140367,155075,13990,0.001,-0.969,-0.077,-0.854,0.366,0.732,1.596
140367,155040,13574,-0.003,-0.966,-0.074,-0.61,0.305,0.793,1.602
140400,155075,13990,-0.002,-0.962,-0.076,-0.61,0.305,0.793,1.606
140400,155042,13570,-0.003,-0.962,-0.077,-0.488,0.305,0.793,1.612
140409,155075,13990,-0.002,-0.965,-0.078,-0.488,0.305,0.793,1.616
140409,155046,13573,-0.001,-0.969,-0.078,-0.061,0.305,0.549,1.622
140390,155075,13990,0,-0.965,-0.077,-0.061,0.305,0.549,1.626
140390,155043,13581,-0.002,-0.965,-0.075,0.488,0.305,0.366,1.632
140401,155075,13990,-0.002,-0.962,-0.077,0.488,0.305,0.366,1.636
140401,155065,13572,-0,-0.963,-0.075,0.549,0.305,0.427,1.642
140393,155075,13990,-0.002,-0.965,-0.069,0.549,0.305,0.427,1.646
140393,155051,13575,-0.002,-0.964,-0.07,0.732,0.305,0.305,1.652
140405,155075,13990,-0.002,-0.962,-0.067,0.732,0.305,0.305,1.656
140405,155070,13577,-0.003,-0.962,-0.068,0.427,0.244,0.305,1.662
140411,155075,13990,-0.002,-0.965,-0.068,0.427,0.244,0.305,1.665
140411,155051,13580,-0.002,-0.966,-0.069,-0.488,0.366,0.305,1.672
140425,155075,13990,0.001,-0.966,-0.073,-0.488,0.366,0.305,1.675
140425,155057,13594,0.001,-0.97,-0.073,-0.976,0.366,0.061,1.681
140423,155075,13990,0.006,-0.969,-0.074,-0.976,0.366,0.061,1.685
140423,155051,13569,0.002,-0.966,-0.075,-0.976,0.366,0.122,1.691
140392,155075,13990,-0.005,-0.965,-0.076,-0.976,0.366,0.122,1.695
140392,155061,13577,-0.003,-0.969,-0.077,-0.854,0.488,0.366,1.701
140424,155075,13990,-0,-0.967,-0.077,-0.854,0.488,0.366,1.705
140424,155055,13594,-0.001,-0.963,-0.074,-0.366,0.488,0.305,1.711
140426,155075,13990,-0.003,-0.962,-0.077,-0.366,0.488,0.305,1.715
140426,155058,13578,-0.004,-0.966,-0.074,-0.122,0.61,0.305,1.721
140421,155075,13990,-0.006,-0.963,-0.077,-0.122,0.61,0.305,1.725
140421,155076,13587,-0.004,-0.966,-0.076,0.061,0.549,0.183,1.731
140440,155075,13990,-0,-0.966,-0.074,0.061,0.549,0.183,1.735
140440,155073,13581,-0.004,-0.964,-0.071,0.244,0.427,0.183,1.741
140436,155075,13990,-0.001,-0.962,-0.075,0.244,0.427,0.183,1.745
140436,155080,13585,0.001,-0.967,-0.077,0.244,0.366,0.122,1.751
140471,155075,13990,0.003,-0.968,-0.078,0.244,0.366,0.122,1.754
140471,155104,13588,0.002,-0.965,-0.072,0.61,0.488,0.183,1.761
140476,155075,13990,0.001,-0.963,-0.074,0.61,0.488,0.183,1.764
140476,155119,13601,0.001,-0.964,-0.068,0.732,0.366,0.488,1.771
140505,155075,13990,0.001,-0.966,-0.072,0.732,0.366,0.488,1.774
140505,155128,13601,0.002,-0.966,-0.076,0.244,0.427,0.549,1.78
140507,155331,13990,0.004,-0.967,-0.075,0.244,0.427,0.549,1.784
140507,155140,13606,0.001,-0.966,-0.065,0.183,0.488,0.488,1.79
140525,155075,13990,0,-0.965,-0.07,0.183,0.488,0.488,1.794
140525,155135,13592,-0.004,-0.96,-0.075,0.305,0.366,0.549,1.8
140526,155075,13990,-0.006,-0.964,-0.073,0.305,0.366,0.549,1.804
140526,155131,13593,-0.005,-0.963,-0.069,0.366,0.427,0.366,1.81
140529,155075,13990,-0.002,-0.965,-0.073,0.366,0.427,0.366,1.814
140529,155106,13592,-0.004,-0.966,-0.074,0.671,0.61,0,1.82
140518,155331,13990,-0.003,-0.966,-0.068,0.671,0.61,0,1.824
140518,155144,13593,-0,-0.966,-0.067,0.915,0.61,-0.061,1.83
140502,155075,13990,0,-0.964,-0.068,0.915,0.61,-0.061,1.834
140502,155109,13589,-0.004,-0.963,-0.069,0.61,0.549,0,1.84
140492,155075,13990,-0.004,-0.965,-0.069,0.61,0.549,0,1.844
140492,155119,13594,-0.001,-0.965,-0.074,0.122,0.427,0.061,1.85
140479,155075,13990,0.002,-0.964,-0.072,0.122,0.427,0.061,1.854
140479,155133,13579,0.003,-0.967,-0.067,0,0.305,0.183,1.86
140449,155075,13990,0.004,-0.967,-0.065,0,0.305,0.183,1.863
140449,155113,13593,0.001,-0.962,-0.071,-0.549,0.244,0.488,1.87
140473,155075,13990,0.003,-0.966,-0.078,-0.549,0.244,0.488,1.873
140473,155116,13582,0.004,-0.97,-0.078,-1.037,0.244,0.61,1.879
140441,155075,13990,0.007,-0.969,-0.079,-1.037,0.244,0.61,1.883
140441,155092,13613,0.005,-0.967,-0.076,-0.61,0.183,0.61,1.889
140486,155075,13990,0.001,-0.964,-0.075,-0.61,0.183,0.61,1.893
140486,155101,13591,0,-0.965,-0.076,-0.122,0.366,0.854,1.899
140455,155075,13990,0.002,-0.968,-0.076,-0.122,0.366,0.854,1.903
140455,155105,13587,-0.001,-0.968,-0.073,0.183,0.427,0.793,1.909
140483,155075,13990,-0,-0.965,-0.073,0.183,0.427,0.793,1.913
140483,155100,13596,-0.003,-0.964,-0.072,0.244,0.488,0.793,1.919
140482,155075,13990,-0.002,-0.965,-0.07,0.244,0.488,0.793,1.923
140482,155102,13591,-0.003,-0.965,-0.074,0.305,0.427,0.732,1.929
140455,155075,13990,-0.004,-0.964,-0.072,0.305,0.427,0.732,1.933
140455,155083,13590,-0.001,-0.963,-0.069,0.122,0.366,0.549,1.939
140484,155075,13990,-0.004,-0.969,-0.067,0.122,0.366,0.549,1.943
140484,155083,13585,-0.004,-0.966,-0.068,-0.061,0.366,0.549,1.949
140448,155075,13990,-0.002,-0.96,-0.07,-0.061,0.366,0.549,1.953
140448,155079,13580,-0.003,-0.961,-0.069,-0.305,0.366,0.61,1.959
140462,155075,13990,-0.002,-0.966,-0.071,-0.305,0.366,0.61,1.962
140462,155079,13563,-0,-0.965,-0.071,-0.61,0.427,0.488,1.969
140443,155075,13990,-0.001,-0.965,-0.075,-0.61,0.427,0.488,1.972
140443,155072,13590,-0,-0.968,-0.075,-0.793,0.366,0.427,1.979
140448,155075,13990,0.003,-0.969,-0.075,-0.793,0.366,0.427,1.982
140448,155111,13599,0.001,-0.968,-0.075,-0.488,0.305,0.549,1.988
140433,155075,13990,0,-0.966,-0.07,-0.488,0.305,0.549,1.992
140433,155085,13591,-0.002,-0.963,-0.07,-0.366,0.305,0.61,1.998
140463,155075,13990,-0.002,-0.967,-0.073,-0.366,0.305,0.61,2.002
140463,155091,13589,-0.004,-0.966,-0.074,-0.122,0.305,0.549,2.008
140460,155075,13990,-0.002,-0.967,-0.073,-0.122,0.305,0.549,2.012
140460,155087,13576,-0.006,-0.96,-0.072,0,0.244,0.366,2.018
140466,155075,13990,-0.006,-0.963,-0.075,0,0.244,0.366,2.022
140466,155113,13573,-0.005,-0.965,-0.074,-0.305,0.366,0.061,2.028
140486,155075,13990,-0.005,-0.965,-0.075,-0.305,0.366,0.061,2.032
140486,155120,13598,-0.001,-0.967,-0.072,-0.244,0.366,-0.122,2.038
140511,155075,13990,-0.001,-0.967,-0.072,-0.244,0.366,-0.122,2.042
140511,155100,13589,-0.002,-0.965,-0.076,0,0.366,-0.061,2.048
140492,155075,13990,-0.002,-0.965,-0.076,0,0.366,-0.061,2.052
140492,155115,13595,0,-0.97,-0.074,0.244,0.366,-0.061,2.058
140505,155075,13990,0,-0.97,-0.074,0.244,0.366,-0.061,2.061
140505,155116,13588,0.003,-0.964,-0.071,0.366,0.427,0.183,2.068
140517,155075,13990,0.003,-0.964,-0.071,0.366,0.427,0.183,2.071
140517,155118,13600,-0,-0.963,-0.063,0.305,0.427,0.427,2.077
140497,155075,13990,-0,-0.963,-0.063,0.305,0.427,0.427,2.081
140497,155123,13585,-0.002,-0.964,-0.07,-0.183,0.366,0.305,2.087
140512,155075,13990,-0.002,-0.964,-0.07,-0.183,0.366,0.305,2.091
140512,155131,13593,0.003,-0.966,-0.074,-0.427,0.366,0.244,2.097
140540,155075,13990,0.003,-0.966,-0.074,-0.427,0.366,0.244,2.101
140540,155133,13606,-0.002,-0.963,-0.073,-0.488,0.427,0.366,2.107
140541,155075,13990,-0.002,-0.963,-0.073,-0.488,0.427,0.366,2.111
140541,155133,13603,0.002,-0.965,-0.074,-0.427,0.366,0.305,2.117
140551,155075,13990,0.002,-0.965,-0.074,-0.427,0.366,0.305,2.121
140551,155124,13593,0,-0.967,-0.076,-0.244,0.427,0.183,2.127
140533,155075,13990,0,-0.967,-0.076,-0.244,0.427,0.183,2.131
140533,155122,13593,-0.001,-0.966,-0.075,0.183,0.366,0.305,2.137
140540,155331,13990,-0.001,-0.966,-0.075,0.183,0.366,0.305,2.141
140540,155141,13615,-0.002,-0.964,-0.067,0.305,0.305,0.305,2.147
140533,155331,13990,-0.002,-0.964,-0.067,0.305,0.305,0.305,2.151
140533,155162,13585,-0,-0.961,-0.069,-0.183,0.244,0.305,2.157
140517,155075,13990,-0,-0.961,-0.069,-0.183,0.244,0.305,2.16
140517,155131,13584,-0.003,-0.967,-0.07,-0.61,0.305,0.305,2.167
140511,155075,13990,-0.003,-0.967,-0.07,-0.61,0.305,0.305,2.17
140511,155111,13584,0.002,-0.964,-0.068,-0.854,0.305,0.305,2.177
140500,155075,13990,0.002,-0.964,-0.068,-0.854,0.305,0.305,2.18
140500,155101,13591,-0.002,-0.963,-0.07,-0.854,0.305,0.305,2.186
140514,155075,13990,-0.001,-0.964,-0.076,-1.098,0.366,0.305,2.19
140514,155129,13587,0.001,-0.968,-0.078,-1.098,0.366,0.305,2.196
140507,155075,13990,0.002,-0.97,-0.075,-0.915,0.305,0.183,2.2
140507,155119,13600,0.002,-0.969,-0.077,-0.915,0.305,0.183,2.206
140512,155075,13990,0.003,-0.971,-0.075,-0.488,0.305,0.305,2.21
140512,155131,13587,-0,-0.967,-0.074,-0.488,0.305,0.305,2.216
140522,155075,13990,-0.001,-0.969,-0.079,-0.061,0.488,0.488,2.22
140522,155092,13594,0.001,-0.968,-0.08,-0.061,0.488,0.488,2.226
140506,155075,13990,0.003,-0.966,-0.076,0.549,0.488,0.488,2.23
140506,155127,13611,-0.003,-0.962,-0.068,0.549,0.488,0.488,2.236
140512,155075,13990,-0.003,-0.961,-0.067,0.427,0.488,0.549,2.24
140512,155113,13578,-0.005,-0.964,-0.067,0.427,0.488,0.549,2.246
140497,155075,13990,-0.003,-0.966,-0.068,-0.061,0.366,0.427,2.25
140497,155108,13578,-0,-0.965,-0.076,-0.061,0.366,0.427,2.256
140495,155075,13990,-0,-0.966,-0.075,-0.61,0.305,0.244,2.259
140495,155126,13582,-0.001,-0.968,-0.077,-0.61,0.305,0.244,2.266
140491,155075,13990,-0,-0.963,-0.073,-0.61,0.488,0.488,2.269
140491,155114,13586,0,-0.967,-0.076,-0.61,0.488,0.488,2.276
140478,155075,13990,-0.001,-0.966,-0.076,-0.427,0.427,0.61,2.279
140478,155100,13583,0.001,-0.966,-0.072,-0.427,0.427,0.61,2.285
140476,155075,13990,-0.001,-0.965,-0.075,-0.122,0.427,0.488,2.289
140476,155103,13597,0.001,-0.964,-0.076,-0.122,0.427,0.488,2.295
140501,155075,13990,-0.002,-0.966,-0.078,0.061,0.61,0.488,2.299
140501,155078,13577,-0.001,-0.966,-0.075,0.061,0.61,0.488,2.305
140475,155075,13990,0.001,-0.967,-0.075,0.549,0.671,0.427,2.309
140475,155098,13599,-0.003,-0.964,-0.071,0.549,0.671,0.427,2.315
140502,155075,13990,-0.001,-0.963,-0.071,0.854,0.549,0.549,2.319
140502,155087,13577,-0.003,-0.964,-0.065,0.854,0.549,0.549,2.325
140488,155075,13990,-0.001,-0.963,-0.061,0.549,0.427,0.366,2.329
140488,155092,13594,-0.002,-0.958,-0.068,0.549,0.427,0.366,2.335
140493,155075,13990,-0.003,-0.964,-0.071,-0.366,0.244,0.244,2.339
140493,155117,13590,-0.001,-0.968,-0.078,-0.366,0.244,0.244,2.345
140521,155075,13990,0.001,-0.968,-0.078,-0.732,0.244,0.183,2.349
140521,155110,13576,0.002,-0.963,-0.077,-0.732,0.244,0.183,2.355
140503,155075,13990,0.002,-0.968,-0.079,-0.366,0.427,0.305,2.358
140503,155107,13578,0.002,-0.968,-0.073,-0.366,0.427,0.305,2.365
140516,155075,13990,0.002,-0.963,-0.077,0.061,0.549,0.366,2.368
140516,155096,13589,-0.001,-0.961,-0.076,0.061,0.549,0.366,2.375
140489,155075,13990,-0.003,-0.967,-0.073,0.366,0.549,0.488,2.378
140489,155078,13591,-0.003,-0.968,-0.072,0.366,0.549,0.488,2.384
140470,155075,13990,-0,-0.962,-0.072,0.61,0.61,0.366,2.388
140470,155083,13591,-0,-0.963,-0.071,0.61,0.61,0.366,2.394
140464,155075,13990,-0.001,-0.964,-0.072,0.488,0.488,0.305,2.398
140464,155070,13582,-0.006,-0.965,-0.069,0.488,0.488,0.305,2.404
140482,155075,13990,-0.002,-0.965,-0.073,0.488,0.488,0.244,2.408
140482,155081,13580,-0.001,-0.966,-0.074,0.488,0.488,0.244,2.414
140455,155075,13990,0,-0.967,-0.075,0.061,0.366,0,2.418
140455,155067,13586,0,-0.971,-0.072,0.061,0.366,0,2.424
140453,155075,13990,0.001,-0.969,-0.073,0.183,0.366,0.061,2.428
140453,155103,13580,-0.001,-0.962,-0.076,0.183,0.366,0.061,2.434
140461,155075,13990,-0.002,-0.963,-0.072,0.427,0.427,0.305,2.438
140461,155086,13587,-0.003,-0.964,-0.072,0.427,0.427,0.305,2.444
140495,155075,13990,0.002,-0.967,-0.068,0.427,0.427,0.488,2.448
140495,155080,13586,0.004,-0.968,-0.07,0.427,0.427,0.488,2.454
140472,155075,13990,0.003,-0.963,-0.073,0.305,0.427,0.61,2.457
140472,155099,13593,0.001,-0.965,-0.073,0.305,0.427,0.61,2.464
140478,155075,13990,-0.001,-0.965,-0.073,0.305,0.488,0.549,2.467
140478,155125,13599,0,-0.965,-0.073,0.305,0.488,0.549,2.474
140448,155075,13990,-0.002,-0.963,-0.072,0.305,0.488,0.366,2.477
140448,155108,13577,-0.002,-0.961,-0.073,0.305,0.488,0.366,2.483
140460,155075,13990,-0.001,-0.966,-0.069,0.427,0.549,0.305,2.487
140460,155099,13551,-0.003,-0.969,-0.072,0.427,0.549,0.305,2.493
140460,155075,13990,-0.002,-0.968,-0.071,0.183,0.427,0.305,2.497
140460,155083,13576,-0.001,-0.969,-0.069,0.183,0.427,0.305,2.503
140464,155075,13990,-0.001,-0.965,-0.069,0,0.366,0.366,2.507
140464,155070,13582,-0.003,-0.966,-0.069,0,0.366,0.366,2.513
140461,155075,13990,-0.001,-0.971,-0.071,-0.244,0.183,0.488,2.517
140461,155089,13592,-0,-0.971,-0.074,-0.244,0.183,0.488,2.523
140459,155075,13990,0.001,-0.968,-0.074,-0.366,0.061,0.61,2.527
140459,155083,13578,0.001,-0.966,-0.074,-0.366,0.061,0.61,2.533
140435,155075,13990,0,-0.967,-0.076,-0.183,-0.061,0.732,2.537
140435,155073,13586,-0,-0.964,-0.077,-0.183,-0.061,0.732,2.543
140462,155075,13990,0.001,-0.966,-0.072,0.061,0.183,0.793,2.547
140462,155062,13573,-0,-0.965,-0.069,0.061,0.183,0.793,2.553
140437,155075,13990,-0.003,-0.963,-0.07,0.427,0.366,0.793,2.556
140437,155057,13576,-0.005,-0.963,-0.07,0.427,0.366,0.793,2.563
140442,155075,13990,-0.004,-0.962,-0.067,0.183,0.488,0.671,2.566
140442,155072,13585,-0.002,-0.962,-0.067,0.183,0.488,0.671,2.573
140452,155075,13990,-0,-0.959,-0.067,0,0.427,0.244,2.576
140452,155081,13581,-0.003,-0.962,-0.071,0,0.427,0.244,2.582
140453,155075,13990,-0.005,-0.964,-0.067,-0.488,0.549,0.061,2.586
140453,155103,13586,-0.004,-0.968,-0.066,-0.488,0.549,0.061,2.592
140463,155075,13990,-0,-0.968,-0.07,-0.915,0.427,-0.061,2.596
140463,155096,13575,0,-0.966,-0.073,-0.915,0.427,-0.061,2.602
140449,155075,13990,-0.004,-0.97,-0.07,-1.037,0.366,-0.061,2.606
140449,155094,13597,-0.002,-0.971,-0.077,-1.037,0.366,-0.061,2.612
140470,155075,13990,0.001,-0.97,-0.077,-0.732,0.305,0.122,2.616
140470,155090,13574,-0.002,-0.971,-0.076,-0.732,0.305,0.122,2.622
140478,155075,13990,0,-0.971,-0.072,-0.122,0.549,0.183,2.626
140478,155111,13596,0.003,-0.967,-0.071,-0.122,0.549,0.183,2.632
140492,155075,13990,0.003,-0.967,-0.071,-0.122,0.549,0.183,2.636
140492,155100,13585,-0.003,-0.965,-0.073,0.244,0.366,0.305,2.642
140489,155075,13990,-0.003,-0.965,-0.073,0.244,0.366,0.305,2.646
140489,155111,13598,-0.001,-0.968,-0.074,0.305,0.61,0.427,2.652
140511,155075,13990,-0.001,-0.968,-0.074,0.305,0.61,0.427,2.655
140511,155115,13581,-0.001,-0.963,-0.063,0.61,0.61,0.183,2.662
140505,155331,13990,-0.001,-0.963,-0.063,0.61,0.61,0.183,2.665
140505,155136,13595,-0.001,-0.967,-0.073,0.122,0.61,0.244,2.672
140523,155075,13990,-0.001,-0.967,-0.073,0.122,0.61,0.244,2.675
140523,155124,13588,-0.002,-0.967,-0.073,-0.61,0.488,0.061,2.681
140516,155075,13990,-0.002,-0.967,-0.073,-0.61,0.488,0.061,2.685
140516,155135,13607,-0.001,-0.962,-0.072,-0.305,0.427,0.061,2.691
140521,155075,13990,-0.001,-0.962,-0.072,-0.305,0.427,0.061,2.695
140521,155119,13590,0.002,-0.971,-0.073,0,0.305,0.061,2.701
140528,155331,13990,0.002,-0.971,-0.073,0,0.305,0.061,2.705
140528,155143,13607,0.001,-0.967,-0.076,-0.122,0.244,0.183,2.711
140534,155075,13990,0.001,-0.967,-0.076,-0.122,0.244,0.183,2.715
140534,155123,13605,0.001,-0.965,-0.072,-0.244,0.305,0.427,2.721
140533,155331,13990,0.001,-0.965,-0.072,-0.244,0.305,0.427,2.725
140533,155169,13612,0.003,-0.968,-0.073,-0.061,0.366,0.549,2.731
140571,155331,13990,0.003,-0.968,-0.073,-0.061,0.366,0.549,2.735
140571,155176,13614,0.004,-0.962,-0.07,0.305,0.549,0.366,2.741
140582,155331,13990,0.004,-0.962,-0.07,0.305,0.549,0.366,2.745
140582,155166,13612,-0.005,-0.968,-0.064,0.427,0.549,0.488,2.751
140590,155331,13990,-0.005,-0.968,-0.064,0.427,0.549,0.488,2.754
140590,155159,13624,-0.001,-0.964,-0.067,0.549,0.671,0.427,2.761
140597,155331,13990,-0.001,-0.964,-0.067,0.549,0.671,0.427,2.764
140597,155176,13603,-0.003,-0.963,-0.064,0.244,0.793,0.427,2.771
140586,155331,13990,-0.003,-0.963,-0.064,0.244,0.793,0.427,2.774
140586,155157,13612,-0.003,-0.964,-0.068,-0.305,0.61,0.427,2.78
140566,155331,13990,-0.001,-0.967,-0.068,-0.305,0.61,0.427,2.784
140566,155157,13610,-0,-0.967,-0.071,-0.488,0.305,0.244,2.79
140518,155331,13990,-0.003,-0.966,-0.074,-0.488,0.305,0.244,2.794
140518,155137,13608,-0.002,-0.964,-0.072,-0.671,0.244,0.305,2.8
140523,155075,13990,-0.003,-0.966,-0.076,-0.671,0.244,0.305,2.804
140523,155100,13611,0.001,-0.97,-0.078,-0.549,0.183,0.305,2.81
140496,155331,13990,0.001,-0.97,-0.08,-0.549,0.183,0.305,2.814
140496,155146,13608,0.003,-0.967,-0.078,-0.122,0.366,0.366,2.82
140504,155075,13990,0.002,-0.965,-0.076,-0.122,0.366,0.366,2.824
140504,155128,13602,0,-0.967,-0.076,0.427,0.305,0.488,2.83
140481,155331,13990,0.003,-0.966,-0.074,0.427,0.305,0.488,2.834
140481,155136,13607,0.004,-0.963,-0.07,0.915,0.427,0.61,2.84
140481,155075,13990,-0.002,-0.962,-0.066,0.915,0.427,0.61,2.844
140481,155120,13602,-0.001,-0.963,-0.063,0.854,0.427,0.732,2.85
140450,155075,13990,-0.002,-0.964,-0.062,0.854,0.427,0.732,2.854
140450,155117,13587,-0.002,-0.962,-0.065,0.183,0.427,0.549,2.86
140459,155075,13990,-0.004,-0.965,-0.073,0.183,0.427,0.549,2.863
140459,155109,13605,0.001,-0.966,-0.068,-0.305,0.427,0.366,2.87
140443,155075,13990,-0.001,-0.966,-0.067,-0.305,0.427,0.366,2.873
140443,155116,13602,0,-0.965,-0.066,-0.488,0.427,0.549,2.879
140449,155075,13990,-0.004,-0.965,-0.069,-0.488,0.427,0.549,2.883
140449,155105,13592,-0.005,-0.966,-0.069,-0.793,0.427,0.671,2.889
140440,155075,13990,-0.003,-0.968,-0.07,-0.793,0.427,0.671,2.893
140440,155092,13592,-0.001,-0.965,-0.073,-1.28,0.366,0.488,2.899
140450,155075,13990,0,-0.967,-0.075,-1.28,0.366,0.488,2.903
140450,155084,13597,-0,-0.969,-0.077,-0.854,0.305,0.488,2.909
140425,155075,13990,-0.002,-0.966,-0.075,-0.854,0.305,0.488,2.913
140425,155095,13589,-0.005,-0.964,-0.073,-0.183,0.183,0.549,2.919
140441,155075,13990,-0.004,-0.963,-0.077,-0.183,0.183,0.549,2.923
140441,155089,13582,-0.001,-0.961,-0.072,0.183,0.366,0.488,2.929
140445,155075,13990,-0.004,-0.965,-0.073,0.183,0.366,0.488,2.933
140445,155107,13599,-0,-0.969,-0.071,0.427,0.488,0.244,2.939
140448,155075,13990,0.002,-0.966,-0.076,0.427,0.488,0.244,2.943
140448,155100,13594,-0,-0.965,-0.069,0.183,0.488,0.183,2.949
140480,155075,13990,-0.001,-0.963,-0.07,0.183,0.488,0.183,2.952
140480,155097,13585,-0.002,-0.965,-0.071,0.183,0.488,0.305,2.959
140439,155075,13990,0.001,-0.962,-0.065,0.183,0.488,0.305,2.962
140439,155100,13585,0.001,-0.962,-0.066,0.122,0.427,0.305,2.969
140438,155075,13990,-0.003,-0.962,-0.065,0.122,0.427,0.305,2.972
140438,155080,13594,-0.003,-0.965,-0.065,-0.183,0.366,0.244,2.978
140450,155075,13990,-0.002,-0.967,-0.068,-0.183,0.366,0.244,2.982
140450,155074,13587,0,-0.966,-0.069,-0.732,0.305,0.183,2.988
140430,155075,13990,-0.002,-0.967,-0.076,-0.732,0.305,0.183,2.992
140430,155071,13585,-0,-0.967,-0.077,-0.854,0.305,0.244,2.998
140443,155075,13990,-0,-0.965,-0.074,-0.854,0.305,0.244,3.002
140443,155076,13586,0,-0.965,-0.075,-0.244,0.366,0.244,3.008
140429,155075,13990,0,-0.967,-0.074,-0.244,0.366,0.244,3.012
140429,155104,13599,-0.001,-0.968,-0.072,0.488,0.427,0.427,3.018
140436,155075,13990,-0.003,-0.967,-0.072,0.488,0.427,0.427,3.022
140436,155118,13586,-0.001,-0.964,-0.07,0.793,0.549,0.366,3.028
140464,155075,13990,-0.003,-0.963,-0.066,0.793,0.549,0.366,3.032
140464,155101,13579,-0.003,-0.962,-0.067,0.732,0.549,0.366,3.038
140443,155075,13990,-0.004,-0.964,-0.068,0.732,0.549,0.366,3.042
140443,155108,13599,0,-0.963,-0.066,0.366,0.488,0.366,3.048
140480,155075,13990,0,-0.962,-0.067,0.366,0.488,0.366,3.052
140480,155103,13580,-0.001,-0.966,-0.065,0,0.427,0.244,3.058
140437,155075,13990,0.002,-0.969,-0.071,0,0.427,0.244,3.061
140437,155087,13592,0.003,-0.968,-0.072,-0.366,0.427,0.244,3.068
140457,155075,13990,0.001,-0.966,-0.067,-0.366,0.427,0.244,3.071
140457,155068,13575,0,-0.963,-0.07,-0.427,0.305,0.366,3.077
140432,155075,13990,0.001,-0.963,-0.071,-0.427,0.305,0.366,3.081
140432,155057,13598,0.002,-0.967,-0.071,-0.427,0.427,0.427,3.087
140440,155075,13990,0,-0.971,-0.076,-0.427,0.427,0.427,3.091
140440,155063,13583,0,-0.969,-0.076,-0.244,0.366,0.366,3.097
140428,155075,13990,-0,-0.967,-0.073,-0.244,0.366,0.366,3.101
140428,155063,13602,-0.001,-0.967,-0.07,0.061,0.427,0.488,3.107
140448,155075,13990,0.001,-0.967,-0.066,0.061,0.427,0.488,3.111
140448,155074,13597,-0.003,-0.964,-0.068,0.244,0.427,0.61,3.117
140438,155075,13990,-0.001,-0.963,-0.073,0.244,0.427,0.61,3.121
140438,155085,13590,0,-0.968,-0.071,0.305,0.488,0.427,3.127
140476,155075,13990,-0.001,-0.964,-0.071,0.305,0.488,0.427,3.131
140476,155086,13589,-0.001,-0.963,-0.074,0.183,0.488,0.366,3.137
140422,155075,13990,0.001,-0.963,-0.068,0.183,0.488,0.366,3.141
140422,155074,13593,0.001,-0.963,-0.066,0,0.488,0.427,3.147
140442,155075,13990,0,-0.965,-0.067,0,0.488,0.427,3.151
140442,155075,13578,-0,-0.964,-0.071,-0.183,0.488,0.488,3.157
140411,155075,13990,-0.004,-0.965,-0.07,-0.183,0.488,0.488,3.16
140411,155066,13590,0.001,-0.967,-0.072,-0.366,0.427,0.488,3.167
140394,155075,13990,0.001,-0.97,-0.073,-0.366,0.427,0.488,3.17
140394,155032,13580,-0.004,-0.97,-0.074,-0.244,0.366,0.427,3.177
140410,155075,13990,-0.002,-0.969,-0.072,-0.244,0.366,0.427,3.18
140410,155040,13591,-0.001,-0.969,-0.073,0,0.366,0.366,3.186
140401,155075,13990,-0.002,-0.97,-0.073,0,0.366,0.366,3.19
140401,155045,13582,-0.002,-0.966,-0.068,0.488,0.366,0.305,3.196
140429,155075,13990,-0.002,-0.963,-0.067,0.488,0.366,0.305,3.2
140429,155050,13569,-0.005,-0.959,-0.067,0.549,0.488,0.244,3.206
140422,155075,13990,-0.004,-0.962,-0.068,0.549,0.488,0.244,3.21
140422,155061,13587,-0.004,-0.964,-0.063,0.244,0.488,0,3.216
140427,155075,13990,-0.002,-0.961,-0.062,0.244,0.488,0,3.22
140427,155077,13587,-0,-0.958,-0.06,-0.427,0.305,-0.122,3.226
140445,155075,13990,-0,-0.958,-0.06,-0.427,0.305,-0.122,3.23
140445,155069,13579,-0,-0.964,-0.072,-1.341,0.244,-0.122,3.236
140456,155075,13990,-0,-0.964,-0.072,-1.341,0.244,-0.122,3.24
140456,155077,13591,-0.001,-0.97,-0.079,-1.28,0.305,-0.244,3.246
140446,155075,13990,-0.001,-0.97,-0.079,-1.28,0.305,-0.244,3.25
140446,155067,13587,0.003,-0.969,-0.078,-0.915,0.366,-0.183,3.256
140470,155075,13990,0.003,-0.969,-0.078,-0.915,0.366,-0.183,3.259
140470,155080,13583,0.003,-0.97,-0.08,-0.122,0.549,0.183,3.266
140452,155075,13990,0.003,-0.97,-0.08,-0.122,0.549,0.183,3.269
140452,155066,13590,0.002,-0.964,-0.07,0.732,0.549,0.488,3.275
140438,155075,13990,0.002,-0.964,-0.07,0.732,0.549,0.488,3.279
140438,155051,13581,0,-0.96,-0.065,0.793,0.61,0.61,3.285
140444,155075,13990,0,-0.96,-0.065,0.793,0.61,0.61,3.289
140444,155067,13597,0.001,-0.964,-0.065,0.183,0.61,0.427,3.295
140470,155075,13990,0.001,-0.964,-0.065,0.183,0.61,0.427,3.299
140470,155040,13584,-0.002,-0.96,-0.065,-0.549,0.549,0.366,3.305
140460,155075,13990,-0.002,-0.96,-0.065,-0.549,0.549,0.366,3.309
140460,155063,13585,-0.004,-0.967,-0.073,-1.28,0.488,0.305,3.315
140476,155075,13990,-0.004,-0.967,-0.073,-1.28,0.488,0.305,3.319
140476,155072,13599,0.001,-0.966,-0.076,-1.159,0.488,0.061,3.325
140484,155075,13990,0.001,-0.966,-0.076,-1.159,0.488,0.061,3.329
140484,155077,13597,0,-0.965,-0.079,-0.61,0.305,0.061,3.335
140481,155075,13990,0,-0.965,-0.079,-0.61,0.305,0.061,3.339
140481,155073,13592,0.001,-0.973,-0.078,-0.061,0.366,0.122,3.345
140476,155075,13990,0.001,-0.973,-0.078,-0.061,0.366,0.122,3.349
140476,155081,13600,-0,-0.968,-0.069,0.671,0.366,0.244,3.355
140456,155075,13990,-0,-0.968,-0.069,0.671,0.366,0.244,3.358
140456,155071,13578,0.001,-0.96,-0.068,0.854,0.427,0.427,3.365
140454,155075,13990,0.001,-0.96,-0.068,0.854,0.427,0.427,3.368
140454,155075,13598,0.002,-0.958,-0.064,0.854,0.427,0.427,3.375
140481,155075,13990,-0,-0.964,-0.064,0.366,0.366,0.427,3.378
140481,155092,13592,0.002,-0.964,-0.065,0.366,0.366,0.427,3.384
140468,155075,13990,0.003,-0.961,-0.068,-0.122,0.366,0.183,3.388
140468,155056,13586,0.002,-0.964,-0.069,-0.122,0.366,0.183,3.394
140487,155075,13990,0.001,-0.964,-0.069,-0.61,0.366,0.183,3.398
140487,155132,13585,-0,-0.962,-0.067,-0.61,0.366,0.183,3.404
140485,155075,13990,-0,-0.964,-0.067,-0.61,0.305,0.183,3.408
140485,155088,13597,0.001,-0.964,-0.071,-0.61,0.305,0.183,3.414
140474,155075,13990,-0,-0.966,-0.071,-0.61,0.366,0.061,3.418
140474,155117,13581,-0.002,-0.971,-0.069,-0.61,0.366,0.061,3.424
140470,155075,13990,-0.002,-0.974,-0.077,-0.793,0.366,-0.122,3.428
140470,155101,13602,-0.001,-0.975,-0.082,-0.793,0.366,-0.122,3.434
140496,155075,13990,-0.001,-0.971,-0.078,0,0.488,0,3.438
140496,155111,13589,0,-0.966,-0.07,0,0.488,0,3.444
140501,155075,13990,0.001,-0.963,-0.065,0.976,0.549,0.183,3.448
140501,155132,13601,-0.001,-0.958,-0.065,0.976,0.549,0.183,3.454
140507,155331,13990,-0.001,-0.96,-0.068,0.61,0.366,0.305,3.457
140507,155142,13599,0,-0.963,-0.069,0.61,0.366,0.305,3.464
140540,155075,13990,0.001,-0.967,-0.072,-0.183,0.427,0.061,3.467
140540,155133,13609,0.007,-0.965,-0.069,-0.183,0.427,0.061,3.474
140566,155331,13990,0.001,-0.962,-0.067,-0.366,0.244,0.061,3.477
140566,155161,13597,-0,-0.96,-0.071,-0.366,0.244,0.061,3.483
140534,155331,13990,0.002,-0.961,-0.075,-0.488,0.305,0.305,3.487
140534,155147,13610,0.002,-0.963,-0.075,-0.488,0.305,0.305,3.493
140526,155331,13990,0.003,-0.966,-0.07,-0.305,0.305,0.305,3.497
140526,155144,13603,0.003,-0.966,-0.07,-0.305,0.305,0.305,3.503
140540,155075,13990,0.003,-0.964,-0.074,0.122,0.305,0.366,3.507
140540,155106,13577,0.001,-0.968,-0.074,0.122,0.305,0.366,3.513
140514,155075,13990,0.003,-0.97,-0.073,0.122,0.427,0.488,3.517
140514,155109,13605,0.001,-0.967,-0.073,0.122,0.427,0.488,3.523
140492,155075,13990,0.001,-0.971,-0.069,0.366,0.427,0.61,3.527
140492,155081,13589,-0.001,-0.969,-0.067,0.366,0.427,0.61,3.533
140468,155075,13990,0,-0.968,-0.065,0.244,0.427,0.671,3.537
140468,155077,13598,-0.004,-0.964,-0.064,0.244,0.427,0.671,3.543
140473,155075,13990,-0.005,-0.962,-0.064,-0.183,0.549,0.61,3.547
140473,155094,13595,-0.007,-0.964,-0.064,-0.183,0.549,0.61,3.553
140486,155075,13990,-0.005,-0.964,-0.071,-0.61,0.427,0.488,3.556
140486,155086,13612,-0.002,-0.965,-0.073,-0.61,0.427,0.488,3.563
140479,155075,13990,0.002,-0.966,-0.074,-0.976,0.427,0.183,3.566
140479,155106,13582,0.003,-0.969,-0.072,-0.976,0.427,0.183,3.573
140484,155075,13990,0,-0.968,-0.07,-0.61,0.427,0.061,3.576
140484,155094,13609,-0.001,-0.969,-0.075,-0.61,0.427,0.061,3.582
140469,155075,13990,-0.001,-0.966,-0.075,-0.244,0.427,0.305,3.586
140469,155084,13580,0.002,-0.964,-0.071,-0.244,0.427,0.305,3.592
140447,155075,13990,-0.004,-0.961,-0.07,0.305,0.427,0.549,3.596
140447,155060,13597,-0.004,-0.96,-0.069,0.305,0.427,0.549,3.602
140425,155075,13990,-0.001,-0.963,-0.066,0.305,0.61,0.366,3.606
140425,155076,13601,0.001,-0.965,-0.068,0.305,0.61,0.366,3.612
140435,155075,13990,-0,-0.964,-0.068,0.122,0.488,0.122,3.616
140435,155068,13605,0,-0.965,-0.072,0.122,0.488,0.122,3.622
140416,155075,13990,0.001,-0.966,-0.075,-0.122,0.305,0.122,3.626
140416,155072,13579,-0.001,-0.966,-0.071,-0.122,0.305,0.122,3.632
140422,155075,13990,0.003,-0.971,-0.074,0.061,0.305,0.061,3.636
140422,155097,13595,0.003,-0.969,-0.073,0.061,0.305,0.061,3.642
140460,155075,13990,0.003,-0.967,-0.072,0.305,0.305,0.122,3.646
140460,155093,13599,0.001,-0.967,-0.071,0.305,0.305,0.122,3.652
140438,155075,13990,0,-0.963,-0.071,0.61,0.488,0.366,3.655
140438,155079,13608,-0.002,-0.968,-0.067,0.61,0.488,0.366,3.662
140420,155075,13990,0.001,-0.965,-0.07,0.61,0.549,0.61,3.665
140420,155076,13603,0.002,-0.963,-0.068,0.61,0.549,0.61,3.672
140416,155075,13990,0.001,-0.962,-0.067,0.366,0.488,0.488,3.675
140416,155066,13592,-0,-0.963,-0.062,0.366,0.488,0.488,3.681
140402,155075,13990,0.001,-0.963,-0.062,-0.061,0.366,0.305,3.685
140402,155052,13603,0.002,-0.963,-0.063,-0.061,0.366,0.305,3.691
140358,155075,13990,-0,-0.965,-0.061,-0.671,0.366,0.183,3.695
140358,155005,13592,-0.001,-0.966,-0.065,-0.671,0.366,0.183,3.701
140319,155075,13990,0.001,-0.966,-0.064,-1.585,0.183,0.244,3.705
140319,155047,13598,0.003,-0.964,-0.069,-1.585,0.183,0.244,3.711
140311,155075,13990,0.001,-0.971,-0.075,-2.134,0.183,0.244,3.715
140311,155006,13577,0.001,-0.974,-0.076,-2.134,0.183,0.244,3.721
140283,155075,13990,0.004,-0.972,-0.077,-2.134,0.183,0.244,3.725
140283,154980,13582,0.003,-0.97,-0.078,-2.134,0.183,0.244,3.731
140290,155075,13990,0.002,-0.962,-0.075,-1.463,0,0.488,3.735
140290,154976,13571,0.003,-0.956,-0.078,-1.463,0,0.488,3.741
140283,155075,13990,-0.001,-0.964,-0.077,-0.671,0.122,0.793,3.745
140283,154963,13563,0.001,-0.97,-0.071,-0.671,0.122,0.793,3.751
140260,155075,13990,0.002,-0.973,-0.075,0.122,0.305,0.671,3.754
140260,154951,13577,0.003,-0.965,-0.075,0.122,0.305,0.671,3.761
140262,155075,13990,0.002,-0.96,-0.076,0.183,0.427,0.61,3.764
140262,154946,13578,0.003,-0.962,-0.076,0.183,0.427,0.61,3.771
140227,155075,13990,0.003,-0.969,-0.072,0.488,0.549,0.793,3.774
140227,154979,13580,-0,-0.967,-0.074,0.488,0.549,0.793,3.78
140231,155075,13990,-0.001,-0.961,-0.067,0.671,0.488,0.793,3.784
140231,154930,13558,-0.004,-0.958,-0.065,0.671,0.488,0.793,3.79
140211,155075,13990,-0.003,-0.962,-0.064,0.366,0.427,0.671,3.794
140211,154920,13571,-0.005,-0.965,-0.061,0.366,0.427,0.671,3.8
140191,155075,13990,-0.001,-0.967,-0.066,-0.244,0.488,0.488,3.804
140191,154930,13562,0.003,-0.972,-0.07,-0.244,0.488,0.488,3.81
140191,155075,13990,0.003,-0.972,-0.07,-0.244,0.488,0.488,3.814
140191,154897,13579,-0.002,-0.969,-0.069,-0.854,0.366,0.366,3.82
140163,155075,13990,-0.002,-0.969,-0.069,-0.854,0.366,0.366,3.824
140163,154910,13570,-0.005,-0.966,-0.066,-0.915,0.244,0.549,3.83
140184,155075,13990,-0.005,-0.966,-0.066,-0.915,0.244,0.549,3.834
140184,154891,13547,0,-0.971,-0.07,-0.976,0.305,0.61,3.84
140154,155075,13990,0,-0.971,-0.07,-0.976,0.305,0.61,3.844
140154,154907,13562,0,-0.961,-0.071,-1.159,0.305,0.549,3.85
140155,154819,13990,0,-0.961,-0.071,-1.159,0.305,0.549,3.853
140155,154865,13558,-0.004,-0.97,-0.074,-1.28,0.244,0.61,3.86
140163,155075,13990,-0.004,-0.97,-0.074,-1.28,0.244,0.61,3.863
140163,154891,13551,-0,-0.963,-0.075,-0.915,0.366,0.61,3.87
140168,154819,13990,-0,-0.963,-0.075,-0.915,0.366,0.61,3.873
140168,154874,13576,-0,-0.972,-0.068,-0.671,0.427,0.61,3.879
140134,154819,13990,-0,-0.972,-0.068,-0.671,0.427,0.61,3.883
140134,154864,13553,0.001,-0.977,-0.071,-0.427,0.366,0.549,3.889
140132,154819,13990,0.001,-0.977,-0.071,-0.427,0.366,0.549,3.893
140132,154870,13572,0,-0.931,-0.067,-0.854,0.366,0.549,3.899
140128,154819,13990,0,-0.931,-0.067,-0.854,0.366,0.549,3.903
140128,154860,13557,-0.007,-0.975,-0.066,-1.341,0.244,0.976,3.909
140122,154819,13990,-0.007,-0.975,-0.066,-1.341,0.244,0.976,3.913
140122,154866,13548,0.008,-0.972,-0.083,-0.976,0.244,0.244,3.919
140130,154819,13990,0.008,-0.972,-0.083,-0.976,0.244,0.244,3.923
140130,154875,13576,0.003,-0.968,-0.078,-1.402,0.305,-0.061,3.929
140135,154819,13990,0.003,-0.968,-0.078,-1.402,0.305,-0.061,3.933
140135,154874,13565,-0.004,-0.967,-0.078,-0.671,0.305,0.671,3.939
140140,154819,13990,-0.004,-0.967,-0.078,-0.671,0.305,0.671,3.943
140140,154868,13564,-0.003,-0.963,-0.07,-0.061,0.366,0.854,3.949
140144,154819,13990,-0.003,-0.963,-0.07,-0.061,0.366,0.854,3.952
140144,154864,13563,-0.001,-0.966,-0.073,0.671,0.488,0.61,3.959
140134,155075,13990,-0.002,-0.966,-0.072,0.671,0.488,0.61,3.962
140134,154888,13558,-0.002,-0.964,-0.068,0.61,0.61,0.427,3.969
140143,154819,13990,-0.001,-0.957,-0.064,0.61,0.61,0.427,3.972
140143,154843,13547,-0.003,-0.951,-0.056,-0.366,0.366,0.427,3.978
140118,155075,13990,-0.005,-0.956,-0.059,-0.366,0.366,0.427,3.982
140118,154882,13557,-0.004,-0.965,-0.062,-1.768,0.183,0.122,3.988
140114,154819,13990,-0,-0.97,-0.074,-1.768,0.183,0.122,3.992
140114,154846,13548,-0.002,-0.973,-0.079,-2.317,0.061,-0.427,3.998
140093,154819,13990,0.002,-0.977,-0.08,-2.317,0.061,-0.427,4.002
140093,154844,13551,0.005,-0.977,-0.081,-1.585,0.061,-0.244,4.008
140072,154819,13990,0.001,-0.97,-0.086,-1.585,0.061,-0.244,4.012
140072,154814,13543,0.002,-0.972,-0.083,-0.915,0.244,0.305,4.018
140076,154819,13990,0.003,-0.97,-0.079,-0.915,0.244,0.305,4.022
140076,154829,13561,-0.002,-0.967,-0.081,-0.122,0.427,0.549,4.028
140101,154819,13990,-0.003,-0.968,-0.077,-0.122,0.427,0.549,4.032
140101,154818,13559,0.005,-0.965,-0.072,0.671,0.61,0.61,4.038
140090,154819,13990,0,-0.962,-0.067,0.671,0.61,0.61,4.042
140090,154835,13562,-0.001,-0.959,-0.07,0.976,0.488,0.671,4.048
140121,154819,13990,-0,-0.963,-0.064,0.976,0.488,0.671,4.051
140121,154858,13556,-0.002,-0.965,-0.063,0.732,0.488,0.549,4.058
140109,154819,13990,-0.001,-0.963,-0.068,0.732,0.488,0.549,4.061
140109,154840,13545,-0,-0.96,-0.073,-0.061,0.366,0.366,4.068
140120,154819,13990,0,-0.961,-0.072,-0.061,0.366,0.366,4.071
140120,154868,13544,0.002,-0.964,-0.072,-0.671,0.305,0.366,4.077
140102,154819,13990,-0.002,-0.966,-0.073,-0.671,0.305,0.366,4.081
140102,154818,13557,-0.003,-0.967,-0.073,-0.488,0.305,0.488,4.087
140088,154819,13990,0,-0.969,-0.075,-0.488,0.305,0.488,4.091
140088,154817,13555,0,-0.968,-0.074,-0.671,0.366,0.488,4.097
140086,154819,13990,0.001,-0.97,-0.073,-0.671,0.366,0.488,4.101
140086,154809,13541,0.001,-0.965,-0.069,-0.488,0.366,0.732,4.107
