146729,163523,13990,0.026,-0.952,-0.238,-7.927,-0.793,-0.366,630.17
146729,163335,13836,0.025,-0.952,-0.25,-7.927,-0.793,-0.366,630.177
146766,163523,13990,0.022,-0.964,-0.25,-5,0.061,0.244,630.18
146766,163358,13823,0.023,-0.967,-0.246,-5,0.061,0.244,630.186
146765,163523,13990,0.022,-0.958,-0.233,1.341,0.488,1.402,630.19
146765,163349,13811,0.019,-0.946,-0.206,1.341,0.488,1.402,630.196
146754,163523,13990,0.016,-0.933,-0.195,4.878,0.793,2.073,630.2
146754,163334,13813,0.014,-0.927,-0.193,4.878,0.793,2.073,630.206
146664,163267,13990,0.014,-0.927,-0.193,4.878,0.793,2.073,630.21
146664,163257,13819,0.013,-0.943,-0.186,4.268,0.915,1.89,630.216
146636,163267,13990,0.013,-0.943,-0.186,4.268,0.915,1.89,630.22
146636,163267,13805,0.014,-0.938,-0.184,2.134,0.488,1.037,630.226
146682,163267,13990,0.014,-0.938,-0.184,2.134,0.488,1.037,630.23
146682,163290,13813,0.012,-0.931,-0.197,-0.488,0.122,0.732,630.236
146738,163523,13990,0.012,-0.931,-0.197,-0.488,0.122,0.732,630.24
146738,163329,13817,0.02,-0.959,-0.218,-3.293,-0.122,0.305,630.246
146744,163523,13990,0.02,-0.959,-0.218,-3.293,-0.122,0.305,630.25
146744,163351,13818,0.021,-0.945,-0.22,-3.232,0,-0.305,630.256
146781,163523,13990,0.021,-0.945,-0.22,-3.232,0,-0.305,630.259
146781,163373,13825,0.018,-0.948,-0.216,-1.585,0.183,0.122,630.266
146801,163523,13990,0.018,-0.948,-0.216,-1.585,0.183,0.122,630.269
146801,163343,13825,0.02,-0.943,-0.211,0.183,0.305,0.427,630.276
146738,163267,13990,0.02,-0.943,-0.211,0.183,0.305,0.427,630.279
146738,163310,13813,0.016,-0.947,-0.206,0.671,0.305,0.305,630.285
146802,163523,13990,0.016,-0.947,-0.206,0.671,0.305,0.305,630.289
146802,163373,13822,0.015,-0.945,-0.209,1.463,0.61,0.427,630.295
146900,163523,13990,0.015,-0.945,-0.209,1.463,0.61,0.427,630.299
146900,163434,13852,0.014,-0.934,-0.184,2.378,0.671,0.366,630.305
146995,163523,13990,0.014,-0.934,-0.184,2.378,0.671,0.366,630.309
146995,163524,13854,0.017,-0.946,-0.217,1.402,0.671,0.305,630.315
146977,163523,13990,0.017,-0.946,-0.217,1.402,0.671,0.305,630.319
146977,163514,13847,0.025,-0.954,-0.2,0.61,0.61,-0.061,630.325
146938,163523,13990,0.025,-0.954,-0.2,0.61,0.61,-0.061,630.329
146938,163524,13843,0.015,-0.927,-0.184,1.646,0.671,0.061,630.335
146930,163523,13990,0.015,-0.927,-0.184,1.646,0.671,0.061,630.339
146930,163455,13830,0.016,-0.941,-0.203,0.122,0.61,0.61,630.345
146725,163267,13990,0.016,-0.941,-0.203,0.122,0.61,0.61,630.349
146725,163311,13821,0.022,-0.955,-0.208,-1.585,0.244,-0.183,630.355
146593,163267,13990,0.028,-0.958,-0.206,-1.585,0.244,-0.183,630.358
146593,163180,13805,0.022,-0.946,-0.205,-2.012,0.183,-0.305,630.365
146597,163267,13990,0.016,-0.937,-0.216,-2.012,0.183,-0.305,630.368
146597,163187,13818,0.016,-0.946,-0.226,-2.012,0.244,0.366,630.375
146614,163267,13990,0.022,-0.955,-0.213,-2.012,0.244,0.366,630.378
146614,163177,13811,0.02,-0.947,-0.181,0,0.061,0.427,630.384
146659,163267,13990,0.014,-0.93,-0.181,0,0.061,0.427,630.388
146659,163242,13825,0.014,-0.929,-0.208,-1.28,0.183,0.732,630.394
146773,163267,13990,0.015,-0.95,-0.22,-1.28,0.183,0.732,630.398
146773,163327,13834,0.022,-0.964,-0.215,-2.073,0.244,0.305,630.404
146822,163523,13990,0.025,-0.95,-0.201,-2.073,0.244,0.305,630.408
146822,163381,13840,0.02,-0.933,-0.211,-0.854,0.122,0.61,630.414
146821,163523,13990,0.011,-0.936,-0.215,-0.854,0.122,0.61,630.418
146821,163371,13820,0.013,-0.952,-0.209,0.122,0.549,1.159,630.424
146720,163267,13990,0.024,-0.953,-0.222,0.122,0.549,1.159,630.428
146720,163326,13828,0.027,-0.952,-0.234,1.768,0.549,0.671,630.434
146625,163267,13990,0.024,-0.958,-0.224,1.768,0.549,0.671,630.438
146625,163216,13810,0.02,-0.954,-0.204,3.963,0.976,1.159,630.444
146519,163267,13990,0.016,-0.938,-0.191,3.963,0.976,1.159,630.448
146519,163139,13806,0.018,-0.929,-0.201,4.329,0.976,1.768,630.454
146472,163267,13990,0.014,-0.939,-0.203,4.329,0.976,1.768,630.457
146472,163090,13787,0.018,-0.952,-0.19,3.049,0.732,1.463,630.464
146470,163267,13990,0.013,-0.946,-0.168,3.049,0.732,1.463,630.467
146470,163106,13800,0.007,-0.923,-0.147,1.341,0,1.402,630.474
146484,163267,13990,0.001,-0.904,-0.16,1.341,0,1.402,630.477
146484,163110,13799,0.005,-0.922,-0.202,-4.085,-0.366,0.915,630.483
146510,163267,13990,0.016,-0.962,-0.229,-4.085,-0.366,0.915,630.487
146510,163168,13798,0.027,-0.983,-0.229,-5.366,-0.61,-0.732,630.493
146547,163267,13990,0.025,-0.968,-0.215,-5.366,-0.61,-0.732,630.497
146547,163203,13808,0.016,-0.936,-0.207,-2.866,-0.305,-0.183,630.503
146553,163267,13990,0.008,-0.93,-0.222,-2.866,-0.305,-0.183,630.507
146553,163190,13791,0.011,-0.946,-0.239,-1.28,0.549,0.976,630.513
146523,163267,13990,0.021,-0.97,-0.238,-1.28,0.549,0.976,630.517
146523,163157,13790,0.031,-0.966,-0.224,2.439,0.732,0.366,630.523
146517,163267,13990,0.028,-0.947,-0.204,2.439,0.732,0.366,630.527
146517,163128,13788,0.018,-0.932,-0.192,5.122,0.854,1.22,630.533
146446,163267,13990,0.005,-0.933,-0.163,5.122,0.854,1.22,630.537
146446,163093,13793,0.006,-0.917,-0.146,3.537,0.549,1.951,630.543
146440,163267,13990,0.008,-0.904,-0.178,3.537,0.549,1.951,630.547
146440,163118,13800,0.011,-0.937,-0.213,-2.195,0.122,0.488,630.553
146480,163267,13990,0.021,-0.977,-0.205,-2.195,0.122,0.488,630.557
146480,163124,13798,0.026,-0.966,-0.198,-3.171,-0.244,-0.549,630.563
146505,163267,13990,0.021,-0.932,-0.198,-3.171,-0.244,-0.549,630.566
146505,163159,13797,0.009,-0.924,-0.212,-4.146,-0.183,0.305,630.573
146550,163267,13990,0.006,-0.945,-0.227,-4.146,-0.183,0.305,630.576
146550,163180,13790,0.016,-0.971,-0.236,-2.866,0.183,0.244,630.582
146568,163267,13990,0.03,-0.976,-0.25,-2.866,0.183,0.244,630.586
146568,163199,13798,0.034,-0.97,-0.251,0.915,0.671,-0.366,630.592
146654,163267,13990,0.023,-0.964,-0.214,0.915,0.671,-0.366,630.596
146654,163247,13825,0.015,-0.938,-0.171,5.366,1.159,1.463,630.602
146666,163267,13990,0.01,-0.909,-0.171,5.366,1.159,1.463,630.606
146666,163235,13809,0.007,-0.912,-0.191,3.902,0.976,2.256,630.612
146606,163267,13990,0.011,-0.94,-0.186,3.902,0.976,2.256,630.616
146606,163219,13803,0.016,-0.953,-0.16,1.768,0.427,0.976,630.622
146603,163267,13990,0.013,-0.934,-0.132,1.768,0.427,0.976,630.626
146603,163246,13809,0.005,-0.905,-0.142,-2.927,-0.488,0.61,630.632
146623,163267,13990,0.001,-0.915,-0.198,-2.927,-0.488,0.61,630.636
146623,163214,13792,0.013,-0.957,-0.242,-9.756,-0.305,-0.305,630.642
146601,163267,13990,0.03,-0.991,-0.253,-9.756,-0.305,-0.305,630.646
146601,163197,13788,0.032,-0.984,-0.243,-7.012,-0.244,-1.159,630.652
146584,163267,13990,0.02,-0.952,-0.245,-7.012,-0.244,-1.159,630.655
146584,163188,13801,0.014,-0.94,-0.268,-1.585,0.793,0.549,630.662
146578,163267,13990,0.012,-0.964,-0.265,-1.585,0.793,0.549,630.665
146578,163186,13798,0.024,-0.978,-0.24,4.939,1.585,0.854,630.672
146603,163267,13990,0.034,-0.955,-0.227,4.939,1.585,0.854,630.675
146603,163217,13810,0.027,-0.933,-0.197,9.573,1.707,1.098,630.682
146597,163267,13990,0.01,-0.925,-0.157,9.573,1.707,1.098,630.685
146597,163178,13792,-0.002,-0.914,-0.119,9.085,1.524,2.683,630.691
146572,163267,13990,-0.002,-0.893,-0.103,9.085,1.524,2.683,630.695
146572,163154,13806,0.002,-0.889,-0.128,0.305,-0.305,1.707,630.701
146587,163267,13990,0.01,-0.923,-0.177,0.305,-0.305,1.707,630.705
146587,163190,13814,0.018,-0.972,-0.222,-9.268,-1.098,-0.915,630.711
146669,163267,13990,0.027,-0.993,-0.221,-9.268,-1.098,-0.915,630.715
146669,163242,13799,0.027,-0.968,-0.202,-9.695,-1.341,-1.463,630.721
146695,163267,13990,0.016,-0.929,-0.217,-9.695,-1.341,-1.463,630.725
146695,163297,13808,0.01,-0.927,-0.255,-8.598,-0.366,0.366,630.731
146763,163267,13990,0.011,-0.97,-0.282,-8.598,-0.366,0.366,630.735
146763,163326,13815,0.02,-1.008,-0.277,-3.293,0.854,0.122,630.741
146786,163523,13990,0.03,-0.986,-0.25,-3.293,0.854,0.122,630.745
146786,163392,13817,0.031,-0.941,-0.233,4.939,1.341,0.244,630.751
146746,163523,13990,0.017,-0.928,-0.214,4.939,1.341,0.244,630.755
146746,163338,13815,0.008,-0.936,-0.181,9.207,1.89,2.317,630.761
146778,163523,13990,0.005,-0.923,-0.142,9.207,1.89,2.317,630.764
146778,163381,13823,0.007,-0.897,-0.137,7.439,1.098,2.256,630.771
146738,163267,13990,0.008,-0.905,-0.167,7.439,1.098,2.256,630.774
146738,163294,13797,0.003,-0.939,-0.174,0.122,0.305,0.61,630.78
146653,163267,13990,0.012,-0.959,-0.18,0.122,0.305,0.61,630.784
146653,163254,13802,0.023,-0.954,-0.203,-4.207,-0.427,-0.854,630.79
146707,163267,13990,0.022,-0.95,-0.21,-4.207,-0.427,-0.854,630.794
146707,163324,13817,0.014,-0.955,-0.21,-5.915,-0.244,-0.61,630.8
146785,163523,13990,0.014,-0.955,-0.21,-5.915,-0.244,-0.61,630.804
146785,163369,13812,0.015,-0.946,-0.23,-4.756,0.061,-0.183,630.81
146769,163523,13990,0.015,-0.946,-0.23,-4.756,0.061,-0.183,630.814
146769,163363,13829,0.018,-0.951,-0.212,-2.317,0.244,-0.244,630.82
146786,163523,13990,0.018,-0.951,-0.212,-2.317,0.244,-0.244,630.824
146786,163371,13826,0.02,-0.949,-0.227,-0.122,0.549,0.122,630.83
146846,163523,13990,0.02,-0.949,-0.227,-0.122,0.549,0.122,630.834
146846,163376,13836,0.02,-0.95,-0.211,2.195,0.549,0.671,630.84
146775,163523,13990,0.02,-0.95,-0.211,2.195,0.549,0.671,630.844
146775,163346,13810,0.018,-0.944,-0.196,3.049,0.793,0.854,630.85
146710,163267,13990,0.018,-0.944,-0.196,3.049,0.793,0.854,630.854
146710,163293,13818,0.013,-0.935,-0.204,2.317,0.793,0.915,630.86
146762,163267,13990,0.013,-0.935,-0.204,2.317,0.793,0.915,630.863
146762,163324,13813,0.02,-0.954,-0.193,1.89,0.732,0.549,630.87
146776,163523,13990,0.02,-0.954,-0.193,1.89,0.732,0.549,630.873
146776,163364,13824,0.008,-0.919,-0.158,0.244,0.305,0.732,630.88
146776,163523,13990,0.008,-0.919,-0.158,0.244,0.305,0.732,630.883
146776,163354,13822,0.006,-0.913,-0.178,-5,-0.305,0.671,630.889
146848,163523,13990,0.006,-0.913,-0.178,-5,-0.305,0.671,630.893
146848,163423,13844,0.024,-0.984,-0.25,-7.927,-0.427,-0.976,630.899
146831,163523,13990,0.024,-0.984,-0.25,-7.927,-0.427,-0.976,630.903
146831,163379,13813,0.029,-0.967,-0.249,-3.598,-0.122,-0.854,630.909
146738,163267,13990,0.029,-0.967,-0.249,-3.598,-0.122,-0.854,630.913
146738,163303,13814,0.007,-0.938,-0.22,1.22,0.854,1.098,630.919
146694,163267,13990,0.007,-0.938,-0.22,1.22,0.854,1.098,630.923
146694,163253,13802,0.015,-0.936,-0.202,3.963,0.976,0.915,630.929
146593,163267,13990,0.015,-0.936,-0.202,3.963,0.976,0.915,630.933
146593,163174,13800,0.022,-0.943,-0.216,3.963,1.098,0.183,630.939
146619,163267,13990,0.022,-0.943,-0.216,3.963,1.098,0.183,630.943
146619,163207,13786,0.019,-0.951,-0.21,3.963,1.098,0.183,630.949
146759,163523,13990,0.016,-0.954,-0.177,4.573,0.915,0.854,630.953
146759,163329,13820,0.012,-0.933,-0.148,4.573,0.915,0.854,630.959
146852,163523,13990,0.008,-0.903,-0.159,2.012,0.061,1.524,630.962
146852,163400,13839,0.006,-0.916,-0.197,2.012,0.061,1.524,630.969
146844,163523,13990,0.012,-0.958,-0.214,-3.476,0,0.427,630.972
146844,163444,13827,0.026,-0.98,-0.214,-3.476,0,0.427,630.979
146822,163523,13990,0.028,-0.96,-0.22,-3.537,-0.183,-0.915,630.982
146822,163404,13812,0.022,-0.936,-0.213,-3.537,-0.183,-0.915,630.988
146812,163523,13990,0.01,-0.932,-0.212,-2.927,0.366,0.244,630.992
146812,163358,13825,0.008,-0.945,-0.23,-2.927,0.366,0.244,630.998
146589,163267,13990,0.019,-0.964,-0.247,-1.159,0.488,0.305,631.002
146589,163198,13792,0.027,-0.968,-0.234,-1.159,0.488,0.305,631.008
146526,163267,13990,0.026,-0.952,-0.207,2.927,0.732,0.122,631.012
146526,163154,13785,0.015,-0.93,-0.198,2.927,0.732,0.122,631.018
146581,163267,13990,0.005,-0.93,-0.191,4.817,0.976,1.585,631.022
146581,163179,13792,0.007,-0.943,-0.176,4.817,0.976,1.585,631.028
146591,163267,13990,0.013,-0.931,-0.169,2.866,0.488,1.28,631.032
146591,163240,13799,0.013,-0.924,-0.182,2.866,0.488,1.28,631.038
146652,163267,13990,0.011,-0.937,-0.191,-1.28,0,0.305,631.042
146652,163323,13799,0.013,-0.948,-0.189,-1.28,0,0.305,631.048
146719,163523,13990,0.018,-0.939,-0.188,-3.902,-0.366,-0.183,631.052
146719,163349,13811,0.019,-0.933,-0.21,-3.902,-0.366,-0.183,631.058
146754,163523,13990,0.015,-0.947,-0.226,-5.793,-0.244,-0.305,631.061
146754,163379,13804,0.017,-0.961,-0.23,-5.793,-0.244,-0.305,631.068
146694,163267,13990,0.023,-0.963,-0.238,-3.78,0.183,-0.427,631.071
146694,163302,13818,0.022,-0.96,-0.25,-3.78,0.183,-0.427,631.078
146609,163267,13990,0.02,-0.964,-0.247,0,0.732,-0.061,631.081
146609,163222,13781,0.02,-0.958,-0.228,0,0.732,-0.061,631.087
146552,163267,13990,0.021,-0.947,-0.216,4.878,0.854,0.854,631.091
146552,163191,13781,0.016,-0.94,-0.203,4.878,0.854,0.854,631.097
146547,163267,13990,0.011,-0.937,-0.183,6.463,0.915,1.524,631.101
146547,163177,13780,0.01,-0.927,-0.167,6.463,0.915,1.524,631.107
146575,163267,13990,0.006,-0.922,-0.175,3.963,0.61,1.159,631.111
146575,163206,13800,0.01,-0.929,-0.178,3.963,0.61,1.159,631.117
146646,163267,13990,0.014,-0.935,-0.179,0,0.061,0.366,631.121
146646,163259,13814,0.014,-0.941,-0.185,0,0.061,0.366,631.127
146667,163267,13990,0.014,-0.948,-0.197,-3.11,-0.305,-0.366,631.131
146667,163292,13805,0.013,-0.945,-0.201,-3.11,-0.305,-0.366,631.137
146721,163523,13990,0.015,-0.94,-0.205,-4.695,-0.305,-0.549,631.141
146721,163351,13809,0.02,-0.945,-0.219,-4.695,-0.305,-0.549,631.147
146718,163267,13990,0.016,-0.959,-0.241,-4.329,0,-0.732,631.151
146718,163317,13801,0.02,-0.969,-0.25,-4.329,0,-0.732,631.157
146618,163267,13990,0.028,-0.968,-0.239,-0.488,0.549,-0.61,631.161
146618,163282,13787,0.026,-0.958,-0.232,-0.488,0.549,-0.61,631.167
146569,163267,13990,0.019,-0.944,-0.224,4.268,0.915,0.549,631.17
146569,163219,13793,0.011,-0.94,-0.203,4.268,0.915,0.549,631.177
146579,163267,13990,0.01,-0.937,-0.166,6.951,1.159,1.463,631.18
146579,163225,13798,0.01,-0.921,-0.157,6.951,1.159,1.463,631.186
146516,163267,13990,0.01,-0.917,-0.174,3.963,0.732,1.159,631.19
146516,163166,13783,0.011,-0.935,-0.188,3.963,0.732,1.159,631.196
146475,163267,13990,0.017,-0.953,-0.186,-0.305,0.427,0.183,631.2
146475,163133,13785,0.02,-0.947,-0.19,-0.305,0.427,0.183,631.206
146545,163267,13990,0.018,-0.938,-0.187,-2.561,-0.183,-0.183,631.21
146545,163190,13779,0.012,-0.939,-0.19,-2.561,-0.183,-0.183,631.216
146629,163267,13990,0.006,-0.941,-0.205,-4.451,-0.122,-0.061,631.22
146629,163242,13815,0.012,-0.947,-0.219,-4.451,-0.122,-0.061,631.226
146660,163267,13990,0.024,-0.953,-0.23,-4.756,0,-0.793,631.23
146660,163277,13784,0.023,-0.955,-0.239,-4.756,0,-0.793,631.236
146610,163267,13990,0.021,-0.96,-0.239,-2.256,0.305,-0.61,631.24
146610,163263,13804,0.021,-0.96,-0.232,-2.256,0.305,-0.61,631.246
146655,163267,13990,0.023,-0.947,-0.227,1.951,0.671,0.488,631.25
146655,163271,13805,0.02,-0.942,-0.212,1.951,0.671,0.488,631.256
146573,163267,13990,0.013,-0.943,-0.182,4.756,0.793,1.159,631.26
146573,163197,13801,0.008,-0.927,-0.16,4.756,0.793,1.159,631.266
146523,163267,13990,0.008,-0.917,-0.173,2.927,0.61,1.037,631.269
146523,163150,13786,0.01,-0.93,-0.201,2.927,0.61,1.037,631.276
146580,163267,13990,0.018,-0.958,-0.207,-1.037,0.549,0.122,631.279
146580,163206,13818,0.024,-0.966,-0.191,-1.037,0.549,0.122,631.285
146602,163267,13990,0.025,-0.938,-0.183,-1.524,0.305,-0.244,631.289
146602,163241,13795,0.014,-0.922,-0.208,-1.524,0.305,-0.244,631.295
146653,163267,13990,0.009,-0.939,-0.221,-2.927,0.854,0.61,631.299
146653,163275,13811,0.016,-0.963,-0.228,-2.927,0.854,0.61,631.305
146643,163267,13990,0.022,-0.971,-0.223,-1.463,0.793,0.183,631.309
146643,163290,13821,0.022,-0.957,-0.215,-1.463,0.793,0.183,631.315
146622,163267,13990,0.017,-0.943,-0.218,0.183,0.732,0.427,631.319
146622,163255,13813,0.01,-0.944,-0.22,0.183,0.732,0.427,631.325
146560,163267,13990,0.011,-0.953,-0.213,1.646,0.854,0.976,631.329
146560,163196,13789,0.019,-0.952,-0.193,1.646,0.854,0.976,631.335
146494,163267,13990,0.017,-0.933,-0.176,2.805,0.488,0.732,631.339
146494,163144,13788,0.007,-0.919,-0.164,2.805,0.488,0.732,631.345
146426,163267,13990,0.001,-0.924,-0.164,0.244,0.183,0.671,631.349
146426,163106,13778,0.003,-0.936,-0.186,0.244,0.183,0.671,631.355
146461,163267,13990,0.018,-0.951,-0.219,-3.902,-0.244,-0.488,631.359
146461,163115,13799,0.026,-0.964,-0.234,-3.902,-0.244,-0.488,631.365
146492,163267,13990,0.024,-0.965,-0.217,-3.963,-0.244,-1.098,631.368
146492,163154,13790,0.019,-0.948,-0.204,-3.963,-0.244,-1.098,631.375
146543,163267,13990,0.015,-0.932,-0.221,-2.073,-0.122,0.183,631.378
146543,163211,13803,0.016,-0.945,-0.234,-2.073,-0.122,0.183,631.384
146599,163267,13990,0.022,-0.966,-0.22,-0.549,0.305,0.305,631.388
146599,163265,13796,0.029,-0.967,-0.216,-0.549,0.305,0.305,631.394
146585,163267,13990,0.026,-0.948,-0.213,1.585,0.244,0.122,631.398
146585,163258,13818,0.017,-0.933,-0.183,1.585,0.244,0.122,631.404
146536,163267,13990,0.017,-0.933,-0.183,1.585,0.244,0.122,631.408
146536,163199,13808,0.009,-0.92,-0.194,1.28,0.305,1.22,631.414
146459,163267,13990,0.009,-0.92,-0.194,1.28,0.305,1.22,631.418
146459,163134,13791,0.02,-0.965,-0.213,-1.524,0.183,0.61,631.424
146423,163267,13990,0.02,-0.965,-0.213,-1.524,0.183,0.61,631.428
146423,163116,13778,0.02,-0.943,-0.211,-1.098,0.122,-0.244,631.434
146442,163267,13990,0.02,-0.943,-0.211,-1.098,0.122,-0.244,631.438
146442,163103,13779,0.011,-0.96,-0.219,-1.159,0.244,0.61,631.444
146486,163267,13990,0.011,-0.96,-0.219,-1.159,0.244,0.61,631.448
146486,163159,13792,0.024,-0.953,-0.229,0.793,0.427,0.793,631.454
146535,163267,13990,0.024,-0.953,-0.229,0.793,0.427,0.793,631.458
146535,163203,13789,0.006,-0.933,-0.142,2.866,0.488,0.854,631.464
146577,163267,13990,0.006,-0.933,-0.142,2.866,0.488,0.854,631.467
146577,163254,13797,-0.001,-0.891,-0.199,2.5,0.183,1.646,631.474
146600,163267,13990,-0.001,-0.891,-0.199,2.5,0.183,1.646,631.477
146600,163233,13808,0.025,-0.991,-0.206,-3.841,0.122,0.183,631.484
146538,163267,13990,0.025,-0.991,-0.206,-3.841,0.122,0.183,631.487
146538,163184,13794,0.015,-0.919,-0.194,-3.171,-0.427,-1.402,631.493
146448,163267,13990,0.015,-0.919,-0.194,-3.171,-0.427,-1.402,631.497
146448,163101,13782,0.008,-0.957,-0.253,-4.695,-0.122,0,631.503
146388,163267,13990,0.008,-0.957,-0.253,-4.695,-0.122,0,631.507
146388,163088,13768,0.038,-0.984,-0.238,-2.744,0.488,-0.488,631.513
146403,163011,13990,0.038,-0.984,-0.238,-2.744,0.488,-0.488,631.517
146403,163058,13772,0.008,-0.913,-0.191,2.5,0.793,-0.671,631.523
146421,163267,13990,0.008,-0.913,-0.191,2.5,0.793,-0.671,631.527
146421,163077,13793,0.013,-0.948,-0.211,3.963,1.159,1.707,631.533
146472,163267,13990,0.013,-0.948,-0.211,3.963,1.159,1.707,631.537
146472,163115,13788,0.027,-0.948,-0.161,3.902,0.671,0.732,631.543
146462,163267,13990,0.027,-0.948,-0.161,3.902,0.671,0.732,631.547
146462,163147,13787,0.01,-0.911,-0.145,1.768,0.122,0.549,631.553
146535,163267,13990,-0,-0.898,-0.177,1.768,0.122,0.549,631.557
146535,163165,13800,0.005,-0.938,-0.225,-4.146,-0.122,0.671,631.563
146480,163267,13990,0.021,-0.987,-0.234,-4.146,-0.122,0.671,631.566
146480,163108,13758,0.035,-0.984,-0.213,-3.72,-0.244,-1.037,631.573
146407,163011,13990,0.029,-0.943,-0.206,-3.72,-0.244,-1.037,631.576
146407,163040,13766,0.01,-0.919,-0.22,-2.5,0.244,0.122,631.583
146372,163011,13990,0.001,-0.933,-0.229,-2.5,0.244,0.122,631.586
146372,163021,13787,0.014,-0.96,-0.234,-0.976,0.732,0.61,631.592
146318,163011,13990,0.03,-0.97,-0.236,-0.976,0.732,0.61,631.596
146318,162941,13781,0.031,-0.958,-0.223,2.439,0.671,-0.244,631.602
146328,163011,13990,0.019,-0.947,-0.207,2.439,0.671,-0.244,631.606
146328,162962,13775,0.011,-0.935,-0.19,4.512,0.976,1.585,631.612
146314,163011,13990,0.011,-0.928,-0.189,4.512,0.976,1.585,631.616
146314,162957,13777,0.014,-0.933,-0.17,3.72,0.549,1.646,631.622
146260,163011,13990,0.013,-0.926,-0.127,3.72,0.549,1.646,631.626
146260,162927,13774,0.006,-0.9,-0.158,-1.159,0,0.488,631.632
146245,163011,13990,0.003,-0.919,-0.217,-1.159,0,0.488,631.636
146245,162873,13773,0.015,-0.972,-0.232,-7.317,-0.122,-0.976,631.642
146205,163011,13990,0.029,-0.992,-0.225,-7.317,-0.122,-0.976,631.646
146205,162831,13753,0.032,-0.962,-0.239,-5.244,-0.305,-1.646,631.652
146112,162755,13990,0.022,-0.942,-0.25,-5.244,-0.305,-1.646,631.656
146112,162763,13749,0.009,-0.951,-0.241,-1.768,0.549,0.122,631.662
146118,162755,13990,0.016,-0.961,-0.241,-1.768,0.549,0.122,631.665
146118,162786,13731,0.023,-0.956,-0.235,3.78,0.854,0.549,631.672
146139,163011,13990,0.027,-0.948,-0.22,3.78,0.854,0.549,631.675
146139,162821,13764,0.024,-0.942,-0.209,7.256,1.22,0.854,631.682
146103,162755,13990,0.01,-0.943,-0.18,7.256,1.22,0.854,631.685
146103,162790,13748,0.006,-0.927,-0.125,7.073,1.037,1.89,631.691
146114,162755,13990,0.008,-0.89,-0.118,7.073,1.037,1.89,631.695
146114,162812,13748,0.002,-0.899,-0.178,-0.488,0,1.037,631.701
146126,162755,13990,0.005,-0.954,-0.208,-0.488,0,1.037,631.705
146126,162802,13741,0.024,-0.986,-0.199,-5.732,-0.244,-1.22,631.711
146090,162755,13990,0.033,-0.965,-0.208,-5.732,-0.244,-1.22,631.715
146090,162767,13735,0.024,-0.939,-0.233,-6.159,-0.427,-1.098,631.721
146104,162755,13990,0.01,-0.941,-0.238,-6.159,-0.427,-1.098,631.725
146104,162758,13734,0.012,-0.963,-0.243,-3.963,0.488,0.244,631.731
146124,162755,13990,0.022,-0.969,-0.249,-3.963,0.488,0.244,631.735
146124,162799,13745,0.028,-0.958,-0.235,1.159,0.732,-0.183,631.741
146063,162755,13990,0.021,-0.946,-0.218,1.159,0.732,-0.183,631.745
146063,162729,13734,0.013,-0.937,-0.21,5.183,1.159,0.854,631.751
146083,162755,13990,0.015,-0.937,-0.199,5.183,1.159,0.854,631.755
146083,162771,13740,0.016,-0.938,-0.179,6.159,0.854,1.524,631.761
146100,162755,13990,0.016,-0.932,-0.16,6.159,0.854,1.524,631.764
146100,162710,13735,0.016,-0.922,-0.157,3.232,0.305,1.037,631.771
145946,162755,13990,0.01,-0.929,-0.178,3.232,0.305,1.037,631.774
145946,162647,13732,0.011,-0.944,-0.201,-2.195,-0.061,0.305,631.781
146028,162755,13990,0.02,-0.959,-0.211,-2.195,-0.061,0.305,631.784
146028,162693,13724,0.023,-0.958,-0.205,-4.268,-0.305,-0.671,631.79
146028,162755,13990,0.018,-0.943,-0.211,-4.268,-0.305,-0.671,631.794
146028,162679,13727,0.013,-0.935,-0.22,-4.146,0.061,-0.122,631.8
146028,162755,13990,0.016,-0.947,-0.232,-4.146,0.061,-0.122,631.804
146028,162734,13728,0.02,-0.966,-0.236,-1.829,0.549,-0.061,631.81
146156,163011,13990,0.024,-0.972,-0.235,-1.829,0.549,-0.061,631.814
146156,162821,13745,0.026,-0.956,-0.225,2.195,0.915,0.122,631.82
146161,163011,13990,0.02,-0.939,-0.207,2.195,0.915,0.122,631.824
146161,162828,13746,0.01,-0.937,-0.199,4.756,1.037,1.402,631.83
146138,162755,13990,0.009,-0.938,-0.176,4.756,1.037,1.402,631.834
146138,162812,13744,0.013,-0.927,-0.137,4.146,0.61,1.402,631.84
146162,163011,13990,0.01,-0.906,-0.164,4.146,0.61,1.402,631.844
146162,162827,13756,0.006,-0.927,-0.217,-1.829,0.305,0.488,631.85
146032,162755,13990,0.016,-0.971,-0.224,-1.829,0.305,0.488,631.854
146032,162708,13728,0.028,-0.977,-0.208,-2.988,0,-0.854,631.86
146008,162755,13990,0.028,-0.945,-0.209,-2.988,0,-0.854,631.863
146008,162704,13740,0.015,-0.927,-0.215,-2.012,0,-0.122,631.87
146063,162755,13990,0.006,-0.939,-0.218,-2.012,0,-0.122,631.873
146063,162768,13757,0.015,-0.953,-0.218,-1.037,0.305,0.671,631.88
146110,162755,13990,0.026,-0.957,-0.222,-1.037,0.305,0.671,631.883
146110,162801,13750,0.026,-0.955,-0.225,0.427,0.427,0,631.889
146142,163011,13990,0.019,-0.947,-0.213,0.427,0.427,0,631.893
146142,162839,13753,0.016,-0.944,-0.197,2.378,0.671,0.915,631.899
146115,163011,13990,0.016,-0.936,-0.193,2.378,0.671,0.915,631.903
146115,162818,13736,0.018,-0.931,-0.189,2.5,0.305,1.159,631.909
146095,162755,13990,0.014,-0.933,-0.171,2.5,0.305,1.159,631.913
146095,162795,13733,0.01,-0.928,-0.167,0,0.244,0.671,631.919
146085,162755,13990,0.009,-0.933,-0.189,0,0.244,0.671,631.923
146085,162770,13743,0.012,-0.945,-0.207,-4.085,0.061,-0.122,631.929
146030,162755,13990,0.02,-0.958,-0.219,-4.085,0.061,-0.122,631.933
146030,162703,13721,0.023,-0.964,-0.226,-5,0.122,-0.793,631.939
146097,162755,13990,0.023,-0.956,-0.226,-5,0.122,-0.793,631.943
146097,162742,13751,0.014,-0.943,-0.222,-2.5,0.244,-0.061,631.949
146178,163011,13990,0.014,-0.941,-0.225,-2.5,0.244,-0.061,631.953
146178,162836,13776,0.017,-0.953,-0.239,0.183,0.61,0.488,631.959
146291,163011,13990,0.023,-0.963,-0.237,0.183,0.61,0.488,631.962
146291,162945,13772,0.025,-0.958,-0.218,3.415,0.793,0.244,631.969
146257,163011,13990,0.02,-0.94,-0.201,3.415,0.793,0.244,631.972
146257,162962,13784,0.01,-0.928,-0.182,4.939,0.915,1.22,631.979
146304,163011,13990,0.008,-0.923,-0.166,4.939,0.915,1.22,631.982
146304,162954,13778,0.011,-0.924,-0.177,2.622,0.549,1.159,631.988
146245,163011,13990,0.016,-0.942,-0.201,2.622,0.549,1.159,631.992
146245,162872,13763,0.021,-0.959,-0.188,-0.549,0.305,-0.183,631.998
146129,162755,13990,0.021,-0.959,-0.188,-0.549,0.305,-0.183,632.002
146129,162798,13760,0.016,-0.934,-0.198,-2.073,-0.061,-0.061,632.008
146131,162755,13990,0.016,-0.934,-0.198,-2.073,-0.061,-0.061,632.012
146131,162813,13757,0.012,-0.953,-0.212,-3.11,0.122,0.305,632.018
146158,163011,13990,0.012,-0.953,-0.212,-3.11,0.122,0.305,632.022
146158,162831,13755,0.02,-0.949,-0.212,-1.829,0.061,-0.061,632.028
146248,163011,13990,0.02,-0.949,-0.212,-1.829,0.061,-0.061,632.032
146248,162897,13757,0.014,-0.95,-0.214,-0.671,0.366,0.366,632.038
146298,163011,13990,0.014,-0.95,-0.214,-0.671,0.366,0.366,632.042
146298,162960,13781,0.02,-0.937,-0.198,0.183,0.488,0.488,632.048
146353,163011,13990,0.02,-0.937,-0.198,0.183,0.488,0.488,632.052
146353,162956,13779,0.008,-0.939,-0.19,-0.305,0.488,0.305,632.058
146348,163011,13990,0.008,-0.939,-0.19,-0.305,0.488,0.305,632.061
146348,162970,13781,0.016,-0.936,-0.22,-1.89,0.427,-0.244,632.068
146272,163011,13990,0.016,-0.936,-0.22,-1.89,0.427,-0.244,632.071
146272,162904,13787,0.024,-0.962,-0.229,-1.402,0.549,-0.732,632.078
146244,163011,13990,0.024,-0.962,-0.229,-1.402,0.549,-0.732,632.081
146244,162887,13783,0.023,-0.948,-0.222,1.28,0.671,-0.061,632.087
146265,163011,13990,0.023,-0.948,-0.222,1.28,0.671,-0.061,632.091
146265,162909,13767,0.014,-0.939,-0.2,2.988,0.854,0.854,632.097
146259,163011,13990,0.014,-0.939,-0.2,2.988,0.854,0.854,632.101
146259,162921,13786,0.018,-0.952,-0.198,2.988,0.732,0.671,632.107
146315,163011,13990,0.018,-0.952,-0.198,2.988,0.732,0.671,632.111
146315,162952,13780,0.02,-0.932,-0.174,1.646,0.305,0.671,632.117
146302,163011,13990,0.02,-0.932,-0.174,1.646,0.305,0.671,632.121
146302,162963,13782,0.013,-0.937,-0.196,-1.28,0,0.915,632.127
146369,163011,13990,0.013,-0.937,-0.196,-1.28,0,0.915,632.131
146369,162996,13786,0.02,-0.947,-0.191,-2.805,-0.244,0.183,632.137
146309,163011,13990,0.02,-0.947,-0.191,-2.805,-0.244,0.183,632.141
146309,162938,13792,0.017,-0.943,-0.222,-2.805,-0.244,0.183,632.147
146257,163011,13990,0.018,-0.955,-0.229,-3.963,0.122,0,632.151
146257,162886,13772,0.017,-0.966,-0.21,-3.963,0.122,0,632.157
146268,163011,13990,0.018,-0.944,-0.197,-1.707,0.488,0.122,632.161
146268,162900,13790,0.014,-0.924,-0.213,-1.707,0.488,0.122,632.167
146290,163011,13990,0.011,-0.937,-0.231,-1.646,1.22,0.366,632.17
146290,162903,13785,0.018,-0.966,-0.232,-1.646,1.22,0.366,632.177
146302,163011,13990,0.031,-0.964,-0.227,1.159,1.89,0.061,632.18
146302,162940,13791,0.028,-0.947,-0.217,1.159,1.89,0.061,632.186
146319,163011,13990,0.018,-0.939,-0.207,4.268,2.317,0.793,632.19
146319,162943,13777,0.01,-0.936,-0.192,4.268,2.317,0.793,632.196
146263,163011,13990,0.01,-0.936,-0.179,4.756,2.073,1.463,632.2
146263,162905,13777,0.016,-0.933,-0.172,4.756,2.073,1.463,632.206
146241,163011,13990,0.017,-0.935,-0.188,1.951,1.402,0.671,632.21
146241,162884,13776,0.014,-0.941,-0.201,1.951,1.402,0.671,632.216
146170,163011,13990,0.017,-0.95,-0.192,-1.22,0.915,0.183,632.22
146170,162832,13775,0.017,-0.944,-0.17,-1.22,0.915,0.183,632.226
146091,162755,13990,0.014,-0.924,-0.168,-3.11,-0.061,0.122,632.23
146091,162745,13753,0.007,-0.918,-0.194,-3.11,-0.061,0.122,632.236
146135,162755,13990,0.01,-0.94,-0.218,-6.646,-0.244,-0.305,632.24
146135,162794,13758,0.016,-0.966,-0.217,-6.646,-0.244,-0.305,632.246
146205,163011,13990,0.023,-0.971,-0.232,-5.976,-0.427,-1.098,632.25
146205,162885,13779,0.025,-0.962,-0.252,-5.976,-0.427,-1.098,632.256
146260,163011,13990,0.026,-0.96,-0.255,-3.354,0.061,-0.366,632.26
146260,162919,13778,0.022,-0.957,-0.245,-3.354,0.061,-0.366,632.266
146339,163011,13990,0.02,-0.954,-0.232,2.256,0.854,0.915,632.269
146339,162974,13786,0.02,-0.946,-0.213,2.256,0.854,0.915,632.276
146365,163011,13990,0.022,-0.934,-0.197,6.22,0.976,1.341,632.279
146365,162960,13783,0.02,-0.932,-0.193,6.22,0.976,1.341,632.285
146270,163011,13990,0.012,-0.94,-0.173,5.61,1.098,1.585,632.289
146270,162904,13789,0.01,-0.927,-0.141,5.61,1.098,1.585,632.295
146249,163011,13990,0.008,-0.904,-0.154,1.585,0.427,1.159,632.299
146249,162897,13778,0.01,-0.917,-0.2,1.585,0.427,1.159,632.305
146184,163011,13990,0.013,-0.959,-0.22,-4.207,0.061,-0.122,632.309
146184,162827,13766,0.023,-0.975,-0.205,-4.207,0.061,-0.122,632.315
146162,162755,13990,0.027,-0.953,-0.203,-3.841,-0.427,-0.976,632.319
146162,162811,13767,0.017,-0.933,-0.219,-3.841,-0.427,-0.976,632.325
146102,162755,13990,0.013,-0.949,-0.238,-3.841,0.244,-0.061,632.329
146102,162764,13752,0.02,-0.964,-0.251,-3.841,0.244,-0.061,632.335
146097,162755,13990,0.027,-0.973,-0.254,-0.366,0.671,0.061,632.339
146097,162736,13752,0.032,-0.97,-0.245,-0.366,0.671,0.061,632.345
146092,162755,13990,0.026,-0.958,-0.221,5.244,0.915,0.61,632.349
146092,162773,13757,0.015,-0.933,-0.176,5.244,0.915,0.61,632.355
146125,162755,13990,0.003,-0.901,-0.16,7.561,1.037,2.256,632.359
146125,162739,13758,0,-0.899,-0.174,7.561,1.037,2.256,632.365
146118,162755,13990,0.005,-0.937,-0.178,3.841,0.732,1.585,632.368
146118,162746,13758,0.021,-0.957,-0.173,3.841,0.732,1.585,632.375
146174,162755,13990,0.023,-0.945,-0.185,0.732,0.061,-0.183,632.378
146174,162782,13763,0.016,-0.94,-0.196,0.732,0.061,-0.183,632.385
146226,163011,13990,0.01,-0.948,-0.19,-2.439,-0.122,0.122,632.388
146226,162848,13774,0.011,-0.948,-0.192,-2.439,-0.122,0.122,632.394
146173,163011,13990,0.017,-0.943,-0.201,-3.963,-0.305,0.122,632.398
146173,162842,13767,0.02,-0.945,-0.212,-3.963,-0.305,0.122,632.404
146182,162755,13990,0.018,-0.953,-0.219,-5,-0.244,-0.366,632.408
146182,162796,13765,0.021,-0.959,-0.226,-5,-0.244,-0.366,632.414
146127,162755,13990,0.025,-0.952,-0.228,-3.11,-0.122,0,632.418
146127,162808,13762,0.021,-0.945,-0.23,-3.11,-0.122,0,632.424
146140,162755,13990,0.021,-0.95,-0.228,-0.244,0.122,0.61,632.428
146140,162749,13761,0.018,-0.954,-0.209,-0.244,0.122,0.61,632.434
146068,162755,13990,0.014,-0.942,-0.209,2.5,0.183,1.159,632.438
146068,162703,13764,0.017,-0.936,-0.214,2.5,0.183,1.159,632.444
146103,162755,13990,0.017,-0.946,-0.219,2.866,0.549,1.098,632.448
146103,162705,13760,0.016,-0.955,-0.219,2.866,0.549,1.098,632.454
146127,162755,13990,0.019,-0.952,-0.205,4.085,0.732,0.793,632.458
146127,162665,13753,0.018,-0.934,-0.189,4.085,0.732,0.793,632.464
145996,162755,13990,0.01,-0.921,-0.174,3.963,0.61,1.098,632.467
145996,162579,13762,0.003,-0.921,-0.159,3.963,0.61,1.098,632.474
145865,162499,13990,0.006,-0.92,-0.165,0.915,0.244,0.915,632.477
145865,162418,13724,0.014,-0.935,-0.198,0.915,0.244,0.915,632.484
145709,162243,13990,0.023,-0.958,-0.219,-3.232,-0.122,-0.549,632.487
145709,162275,13742,0.023,-0.972,-0.217,-3.232,-0.122,-0.549,632.493
145554,162243,13990,0.024,-0.964,-0.212,-2.561,-0.183,-0.671,632.497
145554,162132,13691,0.02,-0.939,-0.208,-2.561,-0.183,-0.671,632.503
145303,161987,13990,0.013,-0.934,-0.218,-1.646,-0.061,0.549,632.507
145303,161920,13676,0.012,-0.951,-0.217,-1.646,-0.061,0.549,632.513
145149,161731,13990,0.017,-0.959,-0.205,-0.061,0.122,0.549,632.517
145149,161784,13635,0.019,-0.946,-0.204,-0.061,0.122,0.549,632.523
145029,161731,13990,0.017,-0.938,-0.214,0.854,0.183,0.305,632.527
145029,161678,13640,0.015,-0.939,-0.21,0.854,0.183,0.305,632.533
144960,161731,13990,0.017,-0.942,-0.192,1.646,0.366,0.61,632.537
144960,161622,13631,0.017,-0.944,-0.183,1.646,0.366,0.61,632.543
145013,161731,13990,0.015,-0.934,-0.181,0.915,0.244,0.549,632.547
145013,161686,13633,0.012,-0.934,-0.19,0.915,0.244,0.549,632.553
145110,161731,13990,0.014,-0.94,-0.203,-2.378,0.122,0.061,632.557
145110,161755,13646,0.019,-0.95,-0.215,-2.378,0.122,0.061,632.563
145195,161987,13990,0.023,-0.959,-0.226,-3.232,0,-0.549,632.566
145195,161890,13659,0.023,-0.962,-0.228,-3.232,0,-0.549,632.573
145176,161987,13990,0.019,-0.952,-0.221,-0.976,0.305,-0.122,632.576
145176,161858,13647,0.019,-0.944,-0.221,-0.976,0.305,-0.122,632.583
145190,161987,13990,0.018,-0.951,-0.23,1.402,0.732,0.671,632.586
145190,161844,13661,0.019,-0.957,-0.225,1.402,0.732,0.671,632.592
145111,161731,13990,0.019,-0.957,-0.225,1.402,0.732,0.671,632.596
145111,161761,13639,0.018,-0.94,-0.201,4.39,0.976,0.793,632.602
145045,161731,13990,0.018,-0.94,-0.201,4.39,0.976,0.793,632.606
145045,161710,13653,0.009,-0.932,-0.163,5.854,0.976,1.341,632.612
145096,161731,13990,0.009,-0.932,-0.163,5.854,0.976,1.341,632.616
145096,161759,13650,0.008,-0.913,-0.153,3.476,0.488,1.463,632.622
145216,161987,13990,0.008,-0.913,-0.153,3.476,0.488,1.463,632.626
145216,161871,13653,0.01,-0.946,-0.201,-2.561,0,0.427,632.632
145284,161987,13990,0.01,-0.946,-0.201,-2.561,0,0.427,632.636
145284,161934,13663,0.026,-0.957,-0.216,-5.915,-0.305,-0.976,632.642
145401,161987,13990,0.026,-0.957,-0.216,-5.915,-0.305,-0.976,632.646
145401,162033,13693,0.014,-0.953,-0.24,-5.427,-0.244,-0.854,632.652
145460,161987,13990,0.014,-0.953,-0.24,-5.427,-0.244,-0.854,632.656
145460,162046,13691,0.022,-0.961,-0.23,-2.012,0.488,0.061,632.662
145396,161987,13990,0.022,-0.961,-0.23,-2.012,0.488,0.061,632.665
145396,161960,13694,0.019,-0.945,-0.201,2.317,0.671,0.244,632.672
145310,161987,13990,0.019,-0.945,-0.201,2.317,0.671,0.244,632.675
145310,161922,13665,0.014,-0.93,-0.172,3.902,0.915,0.976,632.682
145273,161987,13990,0.014,-0.93,-0.172,3.902,0.915,0.976,632.685
145273,161901,13665,0.019,-0.948,-0.207,1.28,0.488,1.037,632.691
145298,161987,13990,0.019,-0.948,-0.207,1.28,0.488,1.037,632.695
145298,161919,13664,0.021,-0.938,-0.183,-0.915,0.122,0.305,632.701
145344,161987,13990,0.021,-0.938,-0.183,-0.915,0.122,0.305,632.705
145344,161968,13685,0.012,-0.944,-0.222,-1.829,-0.061,0.427,632.711
145462,162243,13990,0.012,-0.944,-0.222,-1.829,-0.061,0.427,632.715
145462,162050,13683,0.026,-0.96,-0.219,-1.951,0.366,0.427,632.721
145580,162243,13990,0.026,-0.96,-0.219,-1.951,0.366,0.427,632.725
145580,162183,13720,0.012,-0.947,-0.213,0.244,0.488,0.244,632.731
145741,162499,13990,0.012,-0.947,-0.213,0.244,0.488,0.244,632.735
145741,162342,13743,0.017,-0.943,-0.198,1.707,0.854,0.854,632.741
145863,162499,13990,0.017,-0.943,-0.198,1.707,0.854,0.854,632.745
145863,162397,13750,0.017,-0.936,-0.195,2.256,0.671,0.671,632.751
145879,162499,13990,0.015,-0.943,-0.195,2.256,0.671,0.671,632.755
145879,162452,13745,0.012,-0.946,-0.186,1.646,0.61,0.61,632.761
145938,162499,13990,0.012,-0.938,-0.179,1.646,0.61,0.61,632.764
145938,162451,13774,0.013,-0.936,-0.186,-0.366,0.183,0.427,632.771
145917,162499,13990,0.011,-0.941,-0.176,-0.366,0.183,0.427,632.774
145917,162414,13750,0.01,-0.934,-0.176,-3.171,-0.061,-0.122,632.781
145859,162499,13990,0.014,-0.934,-0.214,-3.171,-0.061,-0.122,632.784
145859,162421,13758,0.021,-0.953,-0.238,-5.732,-0.061,-0.854,632.79
145922,162499,13990,0.022,-0.972,-0.229,-5.732,-0.061,-0.854,632.794
145922,162455,13735,0.025,-0.964,-0.226,-2.988,0.061,-0.915,632.8
145928,162499,13990,0.023,-0.945,-0.229,-2.988,0.061,-0.915,632.804
145928,162463,13744,0.017,-0.944,-0.238,-0.244,0.549,0.244,632.81
145932,162499,13990,0.018,-0.958,-0.236,-0.244,0.549,0.244,632.814
145932,162480,13763,0.026,-0.956,-0.221,3.293,0.976,0.61,632.82
145918,162499,13990,0.024,-0.944,-0.188,3.293,0.976,0.61,632.824
145918,162472,13738,0.011,-0.925,-0.136,5.122,0.854,1.098,632.83
145866,162499,13990,0.001,-0.891,-0.127,5.122,0.854,1.098,632.834
145866,162454,13734,0,-0.902,-0.194,-0.793,0.488,0.976,632.84
145865,162499,13990,0.013,-0.959,-0.228,-0.793,0.488,0.976,632.844
145865,162443,13724,0.035,-0.995,-0.215,-4.451,0.183,-1.463,632.85
145801,162499,13990,0.037,-0.968,-0.213,-4.451,0.183,-1.463,632.854
145801,162391,13757,0.02,-0.938,-0.228,-2.927,0.244,-0.793,632.86
145848,162499,13990,0.006,-0.942,-0.227,-2.927,0.244,-0.793,632.864
145848,162424,13746,0.01,-0.952,-0.223,-0.671,0.793,0.976,632.87
145911,162499,13990,0.023,-0.947,-0.225,-0.671,0.793,0.976,632.873
145911,162509,13755,0.024,-0.954,-0.221,2.744,0.793,0.305,632.88
146001,162755,13990,0.019,-0.958,-0.224,2.744,0.793,0.305,632.883
146001,162578,13767,0.019,-0.948,-0.208,5.183,1.28,0.732,632.889
146073,162755,13990,0.017,-0.941,-0.189,5.183,1.28,0.732,632.893
146073,162630,13757,0.016,-0.929,-0.155,5.366,0.793,1.341,632.899
146058,162755,13990,0.01,-0.911,-0.143,5.366,0.793,1.341,632.903
146058,162610,13778,0.011,-0.911,-0.168,0.793,0.061,0.915,632.909
146024,162499,13990,0.013,-0.945,-0.199,0.793,0.061,0.915,632.913
146024,162533,13757,0.021,-0.972,-0.195,-3.841,-0.305,-0.488,632.919
145876,162499,13990,0.026,-0.959,-0.193,-3.841,-0.305,-0.488,632.923
145876,162447,13753,0.022,-0.939,-0.215,-5.427,-0.488,-0.732,632.929
145813,162499,13990,0.012,-0.946,-0.23,-5.427,-0.488,-0.732,632.933
145813,162387,13738,0.012,-0.959,-0.228,-4.329,0.122,0.122,632.939
145818,162499,13990,0.021,-0.956,-0.22,-4.329,0.122,0.122,632.943
145818,162400,13745,0.023,-0.946,-0.218,-0.915,0.305,0.183,632.949
145882,162499,13990,0.016,-0.946,-0.217,-0.915,0.305,0.183,632.953
145882,162449,13742,0.016,-0.945,-0.214,1.341,0.793,0.732,632.959
145913,162499,13990,0.021,-0.948,-0.212,1.341,0.793,0.732,632.963
145913,162499,13767,0.019,-0.947,-0.203,2.866,0.61,0.915,632.969
145977,162499,13990,0.018,-0.94,-0.195,2.866,0.61,0.915,632.972
145977,162542,13754,0.015,-0.936,-0.196,2.988,0.61,1.037,632.979
145912,162499,13990,0.015,-0.938,-0.188,2.988,0.61,1.037,632.982
145912,162480,13747,0.015,-0.938,-0.168,1.646,0.427,0.793,632.989
145892,162499,13990,0.011,-0.928,-0.173,1.646,0.427,0.793,632.992
145892,162454,13760,0.009,-0.931,-0.199,-2.012,0.244,0,632.998
145871,162499,13990,0.015,-0.944,-0.208,-2.012,0.244,0,633.002
145871,162440,13760,0.023,-0.951,-0.195,-3.963,0,-0.671,633.008
145828,162499,13990,0.022,-0.946,-0.204,-3.963,0,-0.671,633.012
145828,162435,13752,0.016,-0.948,-0.217,-3.902,-0.122,-0.244,633.018
145832,162499,13990,0.016,-0.952,-0.217,-3.902,-0.122,-0.244,633.022
145832,162452,13747,0.021,-0.954,-0.227,-3.049,0.061,0.122,633.028
145877,162499,13990,0.022,-0.959,-0.232,-3.049,0.061,0.122,633.032
145877,162456,13742,0.022,-0.957,-0.231,-0.732,0.366,0.244,633.038
145892,162499,13990,0.021,-0.949,-0.226,-0.732,0.366,0.244,633.042
145892,162475,13746,0.022,-0.948,-0.214,2.683,0.854,0.976,633.048
145826,162499,13990,0.018,-0.945,-0.202,2.683,0.854,0.976,633.052
145826,162402,13725,0.018,-0.939,-0.188,4.207,0.671,1.402,633.058
145771,162499,13990,0.017,-0.931,-0.179,4.207,0.671,1.402,633.062
145771,162365,13741,0.016,-0.924,-0.161,2.256,0.366,1.524,633.068
145717,162243,13990,0.014,-0.921,-0.159,2.256,0.366,1.524,633.071
145717,162289,13728,0.013,-0.926,-0.188,-2.561,-0.366,1.037,633.078
145655,162243,13990,0.021,-0.951,-0.21,-2.561,-0.366,1.037,633.081
145655,162264,13714,0.025,-0.966,-0.211,-5.793,-0.61,0.244,633.088
145684,162499,13990,0.025,-0.958,-0.211,-5.793,-0.61,0.244,633.091
145684,162310,13734,0.016,-0.945,-0.21,-5.671,-0.671,0.793,633.097
145727,162499,13990,0.01,-0.938,-0.228,-5.671,-0.671,0.793,633.101
145727,162321,13726,0.015,-0.952,-0.25,-4.756,-0.183,1.22,633.107
145671,162243,13990,0.019,-0.971,-0.264,-4.756,-0.183,1.22,633.111
145671,162290,13723,0.023,-0.975,-0.254,-0.061,0.366,0.732,633.117
145747,162499,13990,0.022,-0.959,-0.231,-0.061,0.366,0.732,633.121
145747,162342,13727,0.016,-0.935,-0.199,5.854,1.28,1.341,633.127
145674,162243,13990,0.005,-0.919,-0.177,5.854,1.28,1.341,633.131
145674,162259,13726,-0.003,-0.917,-0.165,6.89,1.646,1.829,633.137
145579,162243,13990,0,-0.922,-0.161,6.89,1.646,1.829,633.141
145579,162231,13708,0.006,-0.935,-0.185,3.293,1.22,0.244,633.147
145589,162243,13990,0.014,-0.953,-0.188,3.293,1.22,0.244,633.151
145589,162234,13707,0.019,-0.957,-0.18,-0.183,0.854,-1.037,633.157
145711,162499,13990,0.018,-0.945,-0.192,-0.183,0.854,-1.037,633.161
145711,162325,13718,0.017,-0.938,-0.207,-2.439,0.732,-0.793,633.167
145771,162499,13990,0.016,-0.945,-0.208,-2.439,0.732,-0.793,633.17
145771,162389,13739,0.023,-0.954,-0.214,-2.744,0.854,-0.732,633.177
145795,162499,13990,0.022,-0.951,-0.218,-2.744,0.854,-0.732,633.18
145795,162384,13723,0.02,-0.949,-0.219,-1.646,1.037,-0.549,633.187
145822,162499,13990,0.018,-0.95,-0.216,-1.646,1.037,-0.549,633.19
145822,162410,13739,0.021,-0.943,-0.206,0.183,1.098,-0.061,633.196
145777,162499,13990,0.021,-0.943,-0.206,0.183,1.098,-0.061,633.2
145777,162387,13713,0.017,-0.938,-0.184,0.488,0.976,0.183,633.206
145662,162243,13990,0.017,-0.938,-0.184,0.488,0.976,0.183,633.21
145662,162278,13713,0.014,-0.931,-0.17,-1.829,0.61,0.061,633.216
145590,162243,13990,0.014,-0.931,-0.17,-1.829,0.61,0.061,633.22
145590,162227,13711,0.017,-0.945,-0.235,-5.488,0.427,-0.488,633.226
145593,162243,13990,0.017,-0.945,-0.235,-5.488,0.427,-0.488,633.23
145593,162211,13698,0.026,-0.969,-0.226,-3.598,0.549,-0.854,633.236
145648,162243,13990,0.026,-0.969,-0.226,-3.598,0.549,-0.854,633.24
145648,162276,13717,0.019,-0.933,-0.239,-0.549,0.549,0.305,633.246
145697,162243,13990,0.019,-0.933,-0.239,-0.549,0.549,0.305,633.25
145697,162303,13714,0.02,-0.969,-0.241,2.012,1.159,0.732,633.256
145751,162499,13990,0.02,-0.969,-0.241,2.012,1.159,0.732,633.26
145751,162352,13723,0.028,-0.948,-0.211,5.671,1.159,0.854,633.266
145737,162499,13990,0.028,-0.948,-0.211,5.671,1.159,0.854,633.269
145737,162320,13729,0.007,-0.913,-0.15,5.854,1.22,2.073,633.276
145696,162243,13990,0.007,-0.913,-0.15,5.854,1.22,2.073,633.279
145696,162268,13710,0.013,-0.919,-0.184,1.341,0.488,1.402,633.286
145597,162243,13990,0.013,-0.919,-0.184,1.341,0.488,1.402,633.289
145597,162230,13712,0.024,-0.956,-0.192,-2.195,0,-0.244,633.295
145509,162243,13990,0.024,-0.956,-0.192,-2.195,0,-0.244,633.299
145509,162145,13688,0.012,-0.93,-0.168,-4.634,-0.183,0.122,633.305
145493,162243,13990,0.012,-0.93,-0.168,-4.634,-0.183,0.122,633.309
145493,162139,13697,0.013,-0.95,-0.248,-7.134,-0.183,0.366,633.315
145517,162243,13990,0.013,-0.95,-0.248,-7.134,-0.183,0.366,633.319
145517,162169,13708,0.033,-0.999,-0.265,-3.72,0.244,-0.305,633.325
145587,162243,13990,0.033,-0.999,-0.265,-3.72,0.244,-0.305,633.329
145587,162200,13715,0.023,-0.95,-0.24,3.72,0.976,1.585,633.335
145674,162243,13990,0.023,-0.95,-0.24,3.72,0.976,1.585,633.339
145674,162275,13707,0.017,-0.941,-0.222,3.72,0.976,1.585,633.345
145609,162243,13990,0.013,-0.939,-0.214,9.085,1.585,3.476,633.349
145609,162234,13713,0.015,-0.931,-0.197,9.085,1.585,3.476,633.355
145586,162243,13990,0.013,-0.929,-0.166,10.183,1.585,3.049,633.359
145586,162195,13689,0.01,-0.919,-0.137,10.183,1.585,3.049,633.365
145443,162243,13990,0.002,-0.907,-0.134,6.098,0.671,2.622,633.368
145443,162063,13667,0.001,-0.912,-0.149,6.098,0.671,2.622,633.375
145307,161987,13990,0.008,-0.926,-0.165,-1.829,-0.427,1.402,633.378
145307,161953,13657,0.016,-0.944,-0.182,-1.829,-0.427,1.402,633.385
145292,161987,13990,0.015,-0.952,-0.201,-6.951,-1.159,-0.305,633.388
145292,161956,13675,0.017,-0.958,-0.212,-6.951,-1.159,-0.305,633.394
145378,162243,13990,0.015,-0.956,-0.215,-7.622,-1.159,-0.427,633.398
145378,162049,13669,0.014,-0.949,-0.215,-7.622,-1.159,-0.427,633.404
145407,162243,13990,0.012,-0.944,-0.239,-6.402,-0.976,-0.061,633.408
145407,162090,13661,0.015,-0.962,-0.267,-6.402,-0.976,-0.061,633.414
145509,162243,13990,0.021,-0.987,-0.262,-2.317,-0.122,-0.122,633.418
145509,162180,13694,0.022,-0.969,-0.226,-2.317,-0.122,-0.122,633.424
145623,162243,13990,0.018,-0.931,-0.203,4.146,0.488,0.732,633.428
145623,162239,13701,0.007,-0.913,-0.191,4.146,0.488,0.732,633.434
145597,162243,13990,0,-0.927,-0.179,5,0.793,1.829,633.438
145597,162196,13704,0.008,-0.932,-0.185,5,0.793,1.829,633.444
145517,162243,13990,0.018,-0.938,-0.201,2.5,0.732,0.732,633.448
145517,162138,13681,0.021,-0.949,-0.198,2.5,0.732,0.732,633.454
145524,162243,13990,0.02,-0.953,-0.186,0.732,0.549,-0.061,633.458
145524,162144,13685,0.019,-0.939,-0.19,0.732,0.549,-0.061,633.464
145530,162243,13990,0.016,-0.927,-0.202,-0.915,0.488,0.244,633.468
145530,162168,13691,0.016,-0.938,-0.213,-0.915,0.488,0.244,633.474
145534,162243,13990,0.02,-0.959,-0.22,-1.28,0.488,0.061,633.477
145534,162155,13694,0.023,-0.963,-0.231,-1.28,0.488,0.061,633.484
145498,162243,13990,0.025,-0.959,-0.225,0.305,0.427,0,633.487
145498,162133,13674,0.022,-0.95,-0.219,0.305,0.427,0,633.493
145403,162243,13990,0.016,-0.945,-0.208,2.622,0.61,1.22,633.497
145403,162083,13667,0.013,-0.943,-0.197,2.622,0.61,1.22,633.503
145401,162243,13990,0.017,-0.942,-0.199,3.659,0.244,1.707,633.507
145401,162072,13676,0.015,-0.941,-0.205,3.659,0.244,1.707,633.513
145323,161987,13990,0.014,-0.951,-0.201,2.683,0.061,1.524,633.517
145323,161991,13664,0.013,-0.95,-0.175,2.683,0.061,1.524,633.523
145322,161987,13990,0.007,-0.931,-0.136,2.073,-0.061,1.585,633.527
145322,161988,13672,-0.001,-0.906,-0.141,2.073,-0.061,1.585,633.533
145464,162243,13990,-0.003,-0.911,-0.192,-3.415,-0.305,1.159,633.537
145464,162091,13692,0.009,-0.954,-0.218,-3.415,-0.305,1.159,633.543
145544,162243,13990,0.021,-0.973,-0.201,-6.159,-0.366,-0.671,633.547
145544,162179,13681,0.025,-0.951,-0.196,-6.159,-0.366,-0.671,633.553
145550,162243,13990,0.016,-0.932,-0.219,-5.366,-0.366,-0.549,633.557
145550,162183,13682,0.005,-0.946,-0.238,-5.366,-0.366,-0.549,633.563
145601,162243,13990,0.012,-0.966,-0.237,-3.78,0.305,0.305,633.567
145601,162239,13698,0.023,-0.968,-0.244,-3.78,0.305,0.305,633.573
145580,162243,13990,0.023,-0.963,-0.246,0.549,0.427,0.122,633.576
145580,162188,13680,0.017,-0.956,-0.224,0.549,0.427,0.122,633.583
145400,162243,13990,0.016,-0.945,-0.206,5.122,0.793,1.098,633.586
145400,162065,13668,0.016,-0.927,-0.198,5.122,0.793,1.098,633.592
145373,161987,13990,0.015,-0.928,-0.2,5.854,0.793,1.524,633.596
145373,162019,13660,0.013,-0.943,-0.191,5.854,0.793,1.524,633.602
145387,162243,13990,0.014,-0.943,-0.191,4.512,0.61,1.037,633.606
145387,162054,13668,0.017,-0.942,-0.175,4.512,0.61,1.037,633.612
145449,162243,13990,0.007,-0.932,-0.142,1.768,0.061,0.671,633.616
145449,162104,13692,0.002,-0.913,-0.163,1.768,0.061,0.671,633.622
145607,162243,13990,0.003,-0.922,-0.207,-3.537,-0.122,0.244,633.626
145607,162248,13701,0.013,-0.958,-0.208,-3.537,-0.122,0.244,633.632
145723,162499,13990,0.021,-0.97,-0.195,-4.756,-0.305,-0.976,633.636
145723,162352,13724,0.021,-0.951,-0.195,-4.756,-0.305,-0.976,633.642
145764,162499,13990,0.013,-0.929,-0.21,-4.573,-0.122,-0.732,633.646
145764,162400,13703,0.008,-0.937,-0.225,-4.573,-0.122,-0.732,633.652
145748,162499,13990,0.013,-0.964,-0.247,-4.024,0.549,-0.366,633.656
145748,162384,13726,0.026,-0.98,-0.256,-4.024,0.549,-0.366,633.662
145679,162243,13990,0.034,-0.971,-0.236,0.976,0.854,-0.793,633.666
145679,162303,13698,0.024,-0.947,-0.21,0.976,0.854,-0.793,633.672
145519,162243,13990,0.011,-0.926,-0.197,5.427,1.524,1.098,633.675
145519,162180,13697,0.008,-0.93,-0.196,5.427,1.524,1.098,633.682
145442,162243,13990,0.014,-0.941,-0.192,5.854,1.646,1.707,633.685
145442,162156,13663,0.021,-0.949,-0.184,5.854,1.646,1.707,633.692
145532,162243,13990,0.019,-0.943,-0.171,4.268,1.098,0.793,633.695
145532,162208,13698,0.012,-0.926,-0.154,4.268,1.098,0.793,633.701
145567,162243,13990,0.002,-0.914,-0.167,-0.427,0.549,0.976,633.705
145567,162215,13680,0.006,-0.927,-0.191,-0.427,0.549,0.976,633.711
145641,162499,13990,0.019,-0.956,-0.214,-5.061,-0.122,0.061,633.715
145641,162327,13704,0.026,-0.971,-0.217,-5.061,-0.122,0.061,633.721
145763,162499,13990,0.024,-0.957,-0.22,-5.061,-0.427,-0.671,633.725
145763,162375,13722,0.018,-0.942,-0.222,-5.061,-0.427,-0.671,633.731
145773,162499,13990,0.011,-0.942,-0.224,-3.659,-0.183,0.366,633.735
145773,162396,13718,0.011,-0.956,-0.234,-3.659,-0.183,0.366,633.741
145719,162499,13990,0.019,-0.968,-0.239,-0.671,0.061,0.305,633.745
145719,162332,13705,0.023,-0.96,-0.221,-0.671,0.061,0.305,633.751
145728,162499,13990,0.021,-0.941,-0.194,2.683,0.427,0.427,633.755
145728,162360,13718,0.007,-0.923,-0.165,2.683,0.427,0.427,633.761
145759,162499,13990,-0.005,-0.912,-0.161,2.378,0.61,1.341,633.765
145759,162372,13724,0.004,-0.921,-0.2,2.378,0.61,1.341,633.771
145794,162499,13990,0.019,-0.958,-0.234,-1.159,0.61,0.061,633.774
145794,162410,13730,0.028,-0.984,-0.219,-1.159,0.61,0.061,633.781
145895,162499,13990,0.029,-0.966,-0.188,0.488,0.366,-0.671,633.784
145895,162486,13733,0.016,-0.929,-0.19,0.488,0.366,-0.671,633.791
145954,162499,13990,0.016,-0.929,-0.19,0.488,0.366,-0.671,633.794
145954,162556,13752,0.001,-0.942,-0.204,0.244,0.732,1.159,633.8
145916,162499,13990,0.001,-0.942,-0.204,0.244,0.732,1.159,633.804
145916,162511,13745,0.03,-0.959,-0.223,-0.061,0.732,0.549,633.81
145873,162499,13990,0.03,-0.959,-0.223,-0.061,0.732,0.549,633.814
145873,162505,13736,0.017,-0.944,-0.206,0.976,0.732,-0.061,633.82
145850,162499,13990,0.017,-0.944,-0.206,0.976,0.732,-0.061,633.824
145850,162476,13732,0.008,-0.931,-0.173,2.683,0.976,1.463,633.83
145687,162499,13990,0.008,-0.931,-0.173,2.683,0.976,1.463,633.834
145687,162333,13726,0.012,-0.94,-0.191,1.585,0.305,1.463,633.84
145655,162243,13990,0.012,-0.94,-0.191,1.585,0.305,1.463,633.844
145655,162294,13703,0.016,-0.948,-0.192,-1.524,0.183,0.244,633.85
145695,162499,13990,0.016,-0.948,-0.192,-1.524,0.183,0.244,633.854
145695,162356,13712,0.009,-0.936,-0.187,-3.354,-0.061,0,633.86
145759,162499,13990,0.009,-0.936,-0.187,-3.354,-0.061,0,633.864
145759,162378,13723,0.011,-0.948,-0.222,-5.061,-0.488,-0.122,633.87
145828,162499,13990,0.011,-0.948,-0.222,-5.061,-0.488,-0.122,633.873
145828,162443,13732,0.022,-0.958,-0.22,-5.122,-0.671,-0.427,633.88
145961,162755,13990,0.022,-0.958,-0.22,-5.122,-0.671,-0.427,633.883
145961,162560,13748,0.019,-0.945,-0.224,-2.988,-0.732,-0.122,633.89
145935,162755,13990,0.019,-0.945,-0.224,-2.988,-0.732,-0.122,633.893
145935,162563,13740,0.019,-0.95,-0.222,-0.915,-0.488,0.732,633.899
145928,162499,13990,0.019,-0.95,-0.222,-0.915,-0.488,0.732,633.903
145928,162536,13735,0.015,-0.944,-0.2,1.341,-0.183,0.976,633.909
145902,162499,13990,0.015,-0.944,-0.2,1.341,-0.183,0.976,633.913
145902,162512,13736,0.013,-0.941,-0.202,1.646,0,1.098,633.919
145793,162499,13990,0.013,-0.941,-0.202,1.646,0,1.098,633.923
145793,162438,13721,0.015,-0.944,-0.199,0.183,0.305,0.854,633.929
145793,162499,13990,0.015,-0.944,-0.199,0.183,0.305,0.854,633.933
145793,162441,13724,0.015,-0.947,-0.206,-0.671,0.427,0.244,633.939
145844,162499,13990,0.013,-0.946,-0.206,-0.671,0.427,0.244,633.943
145844,162461,13734,0.014,-0.943,-0.204,-0.122,0.488,0.305,633.949
145854,162499,13990,0.012,-0.94,-0.212,-0.122,0.488,0.305,633.953
145854,162482,13727,0.011,-0.947,-0.225,0.305,0.549,0.366,633.959
145933,162499,13990,0.016,-0.96,-0.221,0.305,0.549,0.366,633.963
145933,162552,13750,0.019,-0.961,-0.211,2.195,0.549,0.366,633.969
145993,162499,13990,0.012,-0.942,-0.191,2.195,0.549,0.366,633.972
145993,162558,13724,0.01,-0.93,-0.168,2.988,0.305,1.098,633.979
145907,162499,13990,0.002,-0.922,-0.153,2.988,0.305,1.098,633.982
145907,162532,13735,0.007,-0.922,-0.164,-0.671,0,1.098,633.989
145887,162499,13990,0.013,-0.939,-0.193,-0.671,0,1.098,633.992
145887,162483,13728,0.017,-0.957,-0.184,-5.427,-0.244,-0.183,633.998
145802,162499,13990,0.021,-0.947,-0.181,-5.427,-0.244,-0.183,634.002
145802,162411,13717,0.021,-0.932,-0.223,-7.683,-0.61,-0.366,634.008
145716,162499,13990,0.017,-0.947,-0.247,-7.683,-0.61,-0.366,634.012
145716,162361,13708,0.018,-0.973,-0.239,-6.341,-0.244,0.305,634.018
145780,162499,13990,0.019,-0.969,-0.244,-6.341,-0.244,0.305,634.022
145780,162408,13719,0.02,-0.954,-0.246,-1.098,0.183,0.549,634.028
145825,162499,13990,0.015,-0.953,-0.243,-1.098,0.183,0.549,634.032
145825,162449,13717,0.015,-0.954,-0.217,3.293,0.793,0.854,634.038
145831,162499,13990,0.012,-0.945,-0.18,3.293,0.793,0.854,634.042
145831,162448,13707,0.009,-0.917,-0.132,4.634,0.61,1.28,634.048
145921,162499,13990,0.003,-0.89,-0.144,4.634,0.61,1.28,634.052
145921,162527,13748,0.003,-0.913,-0.214,-2.378,0.305,0.976,634.058
145957,162499,13990,0.018,-0.973,-0.233,-2.378,0.305,0.976,634.062
145957,162542,13736,0.031,-0.987,-0.209,-4.39,0.061,-0.671,634.068
145883,162499,13990,0.03,-0.95,-0.195,-4.39,0.061,-0.671,634.071
145883,162482,13734,0.016,-0.917,-0.212,-3.354,-0.244,0.427,634.078
145876,162499,13990,0,-0.935,-0.238,-3.354,-0.244,0.427,634.081
145876,162514,13721,0.006,-0.969,-0.251,-1.951,0.793,1.402,634.088
145915,162499,13990,0.02,-0.98,-0.253,-1.951,0.793,1.402,634.091
145915,162515,13718,0.026,-0.966,-0.238,3.049,1.037,0.366,634.097
145906,162499,13990,0.02,-0.946,-0.211,3.049,1.037,0.366,634.101
145906,162509,13734,0.01,-0.932,-0.189,6.28,1.22,1.28,634.107
145923,162499,13990,0.003,-0.928,-0.167,6.28,1.22,1.28,634.111
145923,162531,13729,0,-0.92,-0.157,4.817,0.793,1.829,634.117
145961,162755,13990,0.007,-0.921,-0.183,4.817,0.793,1.829,634.121
145961,162585,13730,0.011,-0.946,-0.188,-0.183,0,0.549,634.127
145946,162499,13990,0.015,-0.957,-0.166,-0.183,0,0.549,634.131
145946,162553,13713,0.014,-0.934,-0.174,-3.232,-0.549,-0.183,634.137
145869,162499,13990,0.013,-0.922,-0.216,-3.232,-0.549,-0.183,634.141
145869,162506,13729,0.006,-0.95,-0.233,-6.28,-0.244,-0.061,634.147
145825,162499,13990,0.015,-0.975,-0.231,-6.28,-0.244,-0.061,634.151
145825,162450,13703,0.024,-0.969,-0.23,-3.598,-0.061,-0.61,634.157
145746,162499,13990,0.022,-0.951,-0.237,-3.598,-0.061,-0.61,634.161
145746,162385,13713,0.012,-0.942,-0.222,-1.037,0.549,0.061,634.167
145683,162499,13990,0.006,-0.937,-0.216,-1.037,0.549,0.061,634.17
145683,162345,13683,0.016,-0.94,-0.222,1.341,0.854,0.671,634.177
145689,162499,13990,0.022,-0.949,-0.214,1.341,0.854,0.671,634.18
145689,162345,13701,0.022,-0.949,-0.196,3.049,0.61,0.427,634.187
145737,162499,13990,0.017,-0.934,-0.2,3.049,0.61,0.427,634.19
145737,162407,13697,0.011,-0.935,-0.209,2.744,0.61,0.976,634.196
145760,162499,13990,0.012,-0.949,-0.199,2.744,0.61,0.976,634.2
145760,162415,13699,0.014,-0.947,-0.185,2.195,0.427,0.732,634.206
145782,162499,13990,0.016,-0.936,-0.188,2.195,0.427,0.732,634.21
145782,162450,13716,0.01,-0.933,-0.203,-0.183,0.305,0.488,634.216
145786,162499,13990,0.012,-0.943,-0.202,-0.183,0.305,0.488,634.22
145786,162438,13714,0.012,-0.948,-0.188,-1.28,0.183,0.305,634.226
145758,162499,13990,0.016,-0.935,-0.187,-1.28,0.183,0.305,634.23
145758,162439,13716,0.014,-0.93,-0.207,-2.866,-0.122,0.122,634.236
145815,162499,13990,0.011,-0.95,-0.218,-2.866,-0.122,0.122,634.24
145815,162467,13706,0.016,-0.962,-0.22,-3.476,0,0.183,634.246
145845,162499,13990,0.019,-0.96,-0.227,-3.476,0,0.183,634.25
145845,162453,13714,0.017,-0.953,-0.232,-1.524,0.244,0.183,634.256
145803,162499,13990,0.013,-0.949,-0.225,-1.524,0.244,0.183,634.26
145803,162460,13694,0.011,-0.943,-0.202,1.22,0.793,0.671,634.266
145794,162499,13990,0.009,-0.927,-0.207,1.22,0.793,0.671,634.269
145794,162436,13687,0.012,-0.938,-0.23,1.951,1.037,0.61,634.276
145714,162499,13990,0.013,-0.96,-0.229,1.951,1.037,0.61,634.279
145714,162351,13695,0.02,-0.967,-0.213,3.476,1.159,-0.122,634.286
145638,162499,13990,0.021,-0.953,-0.207,3.476,1.159,-0.122,634.289
145638,162322,13686,0.015,-0.939,-0.183,4.573,0.976,0.488,634.295
145605,162243,13990,0.005,-0.919,-0.151,4.573,0.976,0.488,634.299
145605,162269,13674,-0.001,-0.907,-0.162,2.378,0.61,1.28,634.305
145613,162243,13990,0.005,-0.927,-0.198,2.378,0.61,1.28,634.309
145613,162267,13671,0.014,-0.958,-0.184,-1.89,0.244,-0.183,634.315
145613,162243,13990,0.022,-0.953,-0.173,-1.89,0.244,-0.183,634.319
145613,162288,13680,0.019,-0.927,-0.209,-4.695,-0.305,-0.854,634.325
145567,162243,13990,0.014,-0.941,-0.234,-4.695,-0.305,-0.854,634.329
145567,162273,13675,0.017,-0.969,-0.227,-5.671,-0.061,-0.244,634.335
145630,162243,13990,0.024,-0.963,-0.234,-5.671,-0.061,-0.244,634.339
145630,162291,13689,0.025,-0.957,-0.251,-2.683,0.061,-0.183,634.345
145530,162243,13990,0.019,-0.96,-0.254,-2.683,0.061,-0.183,634.349
145530,162181,13670,0.015,-0.966,-0.242,1.89,1.098,0.549,634.355
145477,162243,13990,0.014,-0.951,-0.206,1.89,1.098,0.549,634.359
145477,162165,13688,0.015,-0.925,-0.181,6.28,1.22,1.28,634.365
145590,162243,13990,0.005,-0.912,-0.193,6.28,1.22,1.28,634.368
145590,162224,13694,0.002,-0.928,-0.2,5.061,1.402,1.28,634.375
145621,162243,13990,0.006,-0.951,-0.192,5.061,1.402,1.28,634.378
145621,162290,13695,0.015,-0.951,-0.171,3.78,0.793,0.183,634.385
145679,162499,13990,0.015,-0.951,-0.171,3.78,0.793,0.183,634.388
145679,162355,13696,0.003,-0.917,-0.185,-0.061,0.305,0.061,634.394
145752,162499,13990,0.003,-0.917,-0.185,-0.061,0.305,0.061,634.398
145752,162402,13708,0.011,-0.959,-0.209,-3.11,0.183,-0.427,634.404
145760,162499,13990,0.011,-0.959,-0.209,-3.11,0.183,-0.427,634.408
145760,162387,13689,0.023,-0.951,-0.215,-2.622,0.061,-1.28,634.414
145637,162499,13990,0.023,-0.951,-0.215,-2.622,0.061,-1.28,634.418
145637,162306,13694,0.015,-0.948,-0.224,-1.585,0.671,-0.549,634.424
145610,162243,13990,0.015,-0.948,-0.224,-1.585,0.671,-0.549,634.428
145610,162243,13681,0.021,-0.949,-0.218,0.732,0.793,-0.122,634.434
145556,162243,13990,0.021,-0.949,-0.218,0.732,0.793,-0.122,634.438
145556,162195,13685,0.017,-0.948,-0.21,2.134,1.098,0.122,634.444
145527,162243,13990,0.017,-0.948,-0.21,2.134,1.098,0.122,634.448
145527,162206,13678,0.008,-0.928,-0.155,3.11,0.854,0.61,634.454
145576,162243,13990,0.008,-0.928,-0.155,3.11,0.854,0.61,634.458
145576,162262,13683,0.004,-0.915,-0.181,-1.768,0.61,0.122,634.464
145645,162499,13990,0.004,-0.915,-0.181,-1.768,0.61,0.122,634.468
145645,162310,13684,0.019,-0.972,-0.233,-5.244,0.427,-1.463,634.474
145701,162499,13990,0.019,-0.972,-0.233,-5.244,0.427,-1.463,634.477
145701,162342,13703,0.027,-0.952,-0.231,-3.049,0.427,-1.402,634.484
145693,162499,13990,0.027,-0.952,-0.231,-3.049,0.427,-1.402,634.487
145693,162357,13704,0.01,-0.942,-0.232,0.366,0.671,0.244,634.493
145742,162499,13990,0.01,-0.942,-0.232,0.366,0.671,0.244,634.497
145742,162358,13695,0.02,-0.964,-0.235,3.232,0.976,0,634.503
145665,162499,13990,0.02,-0.964,-0.235,3.232,0.976,0,634.507
145665,162313,13692,0.023,-0.952,-0.212,6.098,1.28,0,634.513
145645,162243,13990,0.023,-0.952,-0.212,6.098,1.28,0,634.517
145645,162299,13688,0.017,-0.929,-0.159,6.707,1.098,1.098,634.523
145642,162243,13990,0.017,-0.929,-0.159,6.707,1.098,1.098,634.527
145642,162252,13701,0.009,-0.9,-0.156,2.622,0.427,1.28,634.533
145609,162243,13990,0.009,-0.9,-0.156,2.622,0.427,1.28,634.537
145609,162243,13693,0.006,-0.924,-0.197,2.622,0.427,1.28,634.543
145599,162243,13990,0.017,-0.964,-0.211,-2.683,0.122,-0.183,634.547
145599,162228,13699,0.028,-0.975,-0.204,-2.683,0.122,-0.183,634.553
145694,162499,13990,0.028,-0.953,-0.209,-2.622,-0.427,-0.732,634.557
145694,162323,13716,0.017,-0.938,-0.212,-2.622,-0.427,-0.732,634.563
145804,162499,13990,0.007,-0.941,-0.213,-2.317,0,0.61,634.567
145804,162389,13731,0.008,-0.95,-0.217,-2.317,0,0.61,634.573
145825,162499,13990,0.02,-0.953,-0.217,-0.976,0.061,0.488,634.576
145825,162433,13713,0.021,-0.948,-0.222,-0.976,0.061,0.488,634.583
145825,162499,13990,0.017,-0.951,-0.218,0.061,0.427,0.244,634.586
145825,162437,13740,0.013,-0.951,-0.198,0.061,0.427,0.244,634.592
145809,162499,13990,0.017,-0.939,-0.184,1.585,0.427,0.793,634.596
145809,162394,13720,0.013,-0.926,-0.185,1.585,0.427,0.793,634.602
145691,162243,13990,0.01,-0.93,-0.187,0.061,0.366,0.671,634.606
145691,162286,13697,0.011,-0.942,-0.188,0.061,0.366,0.671,634.612
145591,162243,13990,0.017,-0.947,-0.207,-1.768,0.61,-0.122,634.616
145591,162215,13681,0.018,-0.954,-0.217,-1.768,0.61,-0.122,634.622
145588,162243,13990,0.018,-0.955,-0.21,-1.768,0.549,-0.427,634.626
145588,162185,13691,0.017,-0.949,-0.213,-1.768,0.549,-0.427,634.632
145626,162243,13990,0.016,-0.946,-0.212,-0.61,0.671,0.183,634.636
145626,162256,13698,0.017,-0.946,-0.213,-0.61,0.671,0.183,634.642
145686,162243,13990,0.015,-0.945,-0.214,0.671,0.671,0.549,634.646
145686,162303,13700,0.019,-0.945,-0.208,0.671,0.671,0.549,634.652
145791,162499,13990,0.017,-0.948,-0.206,1.768,0.488,0.61,634.656
145791,162415,13706,0.019,-0.944,-0.2,1.768,0.488,0.61,634.662
145768,162499,13990,0.015,-0.939,-0.194,1.951,0.366,0.854,634.666
145768,162377,13714,0.011,-0.935,-0.188,1.951,0.366,0.854,634.672
145720,162499,13990,0.012,-0.938,-0.187,0.366,0.122,0.732,634.675
145720,162353,13707,0.012,-0.94,-0.188,0.366,0.122,0.732,634.682
145688,162243,13990,0.016,-0.934,-0.193,-2.195,0,0.183,634.685
145688,162286,13699,0.015,-0.938,-0.213,-2.195,0,0.183,634.692
145600,162243,13990,0.016,-0.949,-0.215,-3.598,0.061,-0.244,634.695
145600,162227,13690,0.015,-0.953,-0.203,-3.598,0.061,-0.244,634.701
145566,162243,13990,0.016,-0.945,-0.214,-2.134,0,-0.244,634.705
145566,162193,13682,0.017,-0.947,-0.231,-2.134,0,-0.244,634.711
145591,162243,13990,0.017,-0.958,-0.234,-0.549,0.671,0.122,634.715
145591,162230,13688,0.022,-0.959,-0.228,-0.549,0.671,0.122,634.721
145629,162243,13990,0.021,-0.951,-0.219,2.805,1.037,0.305,634.725
145629,162253,13678,0.018,-0.944,-0.207,2.805,1.037,0.305,634.731
145604,162243,13990,0.014,-0.942,-0.188,5.061,1.22,0.976,634.735
145604,162244,13684,0.015,-0.932,-0.182,5.061,1.22,0.976,634.741
145574,162243,13990,0.014,-0.93,-0.18,4.268,1.098,1.037,634.745
145574,162199,13680,0.014,-0.935,-0.164,4.268,1.098,1.037,634.751
145597,162243,13990,0.012,-0.93,-0.162,1.098,0.61,0.305,634.755
145597,162188,13684,0.013,-0.927,-0.182,1.098,0.61,0.305,634.761
145509,162243,13990,0.017,-0.94,-0.204,-3.598,0.061,-0.488,634.765
145509,162113,13669,0.018,-0.956,-0.208,-3.598,0.061,-0.488,634.771
145527,162243,13990,0.021,-0.96,-0.21,-4.634,-0.244,-0.854,634.774
145527,162120,13687,0.018,-0.953,-0.212,-4.634,-0.244,-0.854,634.781
145629,162243,13990,0.012,-0.944,-0.201,-4.207,-0.244,-0.244,634.784
145629,162219,13687,0.015,-0.939,-0.217,-4.207,-0.244,-0.244,634.791
145709,162243,13990,0.018,-0.943,-0.239,-3.72,0.061,-0.061,634.794
145709,162298,13697,0.024,-0.966,-0.242,-3.72,0.061,-0.061,634.8
145751,162499,13990,0.028,-0.974,-0.235,-0.122,0.366,-0.183,634.804
145751,162346,13703,0.028,-0.949,-0.217,-0.122,0.366,-0.183,634.81
145738,162499,13990,0.018,-0.931,-0.207,3.537,0.854,1.037,634.814
145738,162360,13708,0.01,-0.931,-0.199,3.537,0.854,1.037,634.82
145774,162499,13990,0.012,-0.946,-0.189,4.39,1.037,1.768,634.824
145774,162336,13707,0.018,-0.947,-0.176,4.39,1.037,1.768,634.83
145669,162243,13990,0.016,-0.932,-0.179,2.439,0.671,0.793,634.834
145669,162273,13696,0.011,-0.929,-0.184,2.439,0.671,0.793,634.84
145563,162243,13990,0.005,-0.94,-0.179,-1.22,0.549,0.488,634.844
145563,162201,13675,0.01,-0.946,-0.188,-1.22,0.549,0.488,634.85
145557,162243,13990,0.016,-0.943,-0.193,-3.72,0,-0.305,634.854
145557,162200,13673,0.016,-0.94,-0.193,-3.72,0,-0.305,634.86
145573,162243,13990,0.012,-0.939,-0.205,-5.732,-0.122,-0.732,634.864
145573,162167,13661,0.012,-0.943,-0.225,-5.732,-0.122,-0.732,634.87
145547,162243,13990,0.022,-0.956,-0.239,-5,-0.061,-0.671,634.873
145547,162184,13672,0.026,-0.967,-0.25,-5,-0.061,-0.671,634.88
145542,162243,13990,0.028,-0.971,-0.245,-0.61,0.366,-0.427,634.883
145542,162178,13664,0.025,-0.962,-0.231,-0.61,0.366,-0.427,634.89
145538,162243,13990,0.018,-0.945,-0.229,3.841,0.915,0.915,634.893
145538,162201,13681,0.016,-0.945,-0.211,3.841,0.915,0.915,634.899
145498,162243,13990,0.016,-0.943,-0.169,6.037,1.037,1.646,634.903
145498,162132,13667,0.012,-0.923,-0.146,6.037,1.037,1.646,634.909
145466,162243,13990,0.006,-0.901,-0.162,3.476,0.549,1.402,634.913
145466,162087,13654,-0,-0.923,-0.174,3.476,0.549,1.402,634.919
145466,162243,13990,0.009,-0.945,-0.183,-1.768,0,0.305,634.923
145466,162111,13665,0.022,-0.948,-0.205,-1.768,0,0.305,634.929
145474,162243,13990,0.024,-0.953,-0.211,-4.329,-0.427,-0.854,634.933
145474,162107,13656,0.017,-0.957,-0.209,-4.329,-0.427,-0.854,634.939
145475,162243,13990,0.014,-0.956,-0.223,-3.963,-0.244,-0.305,634.943
145475,162118,13681,0.015,-0.957,-0.225,-3.963,-0.244,-0.305,634.949
145491,162243,13990,0.018,-0.955,-0.223,-2.317,0.122,-0.061,634.953
145491,162122,13663,0.02,-0.951,-0.226,-2.317,0.122,-0.061,634.959
145440,162243,13990,0.019,-0.959,-0.229,0.061,0.427,0.122,634.963
145440,162063,13662,0.02,-0.954,-0.226,0.061,0.427,0.122,634.969
145395,161987,13990,0.02,-0.945,-0.209,2.988,0.732,0.854,634.972
145395,162024,13644,0.015,-0.936,-0.196,2.988,0.732,0.854,634.979
145353,161987,13990,0.011,-0.929,-0.188,4.146,0.671,1.585,634.982
145353,161962,13651,0.013,-0.931,-0.186,4.146,0.671,1.585,634.989
145327,161987,13990,0.013,-0.931,-0.186,4.146,0.671,1.585,634.992
145327,161964,13649,0.016,-0.946,-0.188,2.5,0.427,1.159,634.998
145413,161987,13990,0.016,-0.946,-0.188,2.5,0.427,1.159,635.002
145413,162023,13645,0.015,-0.934,-0.191,0.061,0.305,0.366,635.008
145433,162243,13990,0.015,-0.934,-0.191,0.061,0.305,0.366,635.012
145433,162068,13675,0.015,-0.946,-0.201,-2.134,0.183,0.061,635.018
145502,162243,13990,0.015,-0.946,-0.201,-2.134,0.183,0.061,635.022
145502,162133,13684,0.019,-0.955,-0.22,-3.049,0.061,-0.244,635.028
145536,162243,13990,0.019,-0.955,-0.22,-3.049,0.061,-0.244,635.032
145536,162114,13669,0.017,-0.961,-0.228,-2.134,0.244,-0.305,635.038
145490,162243,13990,0.017,-0.961,-0.228,-2.134,0.244,-0.305,635.042
145490,162121,13675,0.017,-0.935,-0.213,0.244,0.488,0.183,635.048
145409,161987,13990,0.017,-0.935,-0.213,0.244,0.488,0.183,635.052
145409,162044,13664,0.015,-0.947,-0.208,2.378,0.732,0.793,635.058
145292,161987,13990,0.015,-0.947,-0.208,2.378,0.732,0.793,635.062
145292,161948,13639,0.02,-0.945,-0.193,3.415,0.732,0.854,635.068
145218,161987,13990,0.02,-0.945,-0.193,3.415,0.732,0.854,635.071
145218,161889,13639,0.015,-0.927,-0.175,3.232,0.549,0.915,635.078
145253,161987,13990,0.015,-0.927,-0.175,3.232,0.549,0.915,635.081
145253,161939,13637,0.015,-0.947,-0.201,0.549,0.305,1.037,635.088
145255,161987,13990,0.015,-0.947,-0.201,0.549,0.305,1.037,635.091
145255,161914,13649,0.018,-0.946,-0.19,-1.646,0.122,0.244,635.097
145341,161987,13990,0.018,-0.946,-0.19,-1.646,0.122,0.244,635.101
145341,161998,13643,0.007,-0.938,-0.207,-2.805,0.122,0.183,635.107
145378,161987,13990,0.007,-0.938,-0.207,-2.805,0.122,0.183,635.111
145378,162047,13663,0.019,-0.957,-0.216,-3.902,0.183,0.061,635.117
