142866,159171,13990,0.009,-0.943,-0.256,-4.878,-0.549,-0.488,12.187
142866,159083,13407,0.008,-0.963,-0.246,-0.915,0.671,0.915,12.193
142978,159171,13990,0.022,-0.959,-0.237,-0.915,0.671,0.915,12.197
142978,159156,13447,0.023,-0.936,-0.214,3.476,0.793,0.549,12.203
142876,159171,13990,0.013,-0.92,-0.207,3.476,0.793,0.549,12.206
142876,159058,13415,0.004,-0.929,-0.217,3.72,1.037,1.341,12.213
142633,158915,13990,0.011,-0.945,-0.203,3.72,1.037,1.341,12.216
142633,158846,13383,0.017,-0.941,-0.168,3.171,0.488,1.22,12.223
142409,158659,13990,0.01,-0.915,-0.159,3.171,0.488,1.22,12.226
142409,158649,13356,0.001,-0.9,-0.194,-0.976,-0.061,0.854,12.232
142284,158659,13990,0.003,-0.929,-0.226,-0.976,-0.061,0.854,12.236
142284,158539,13329,0.014,-0.971,-0.233,-4.329,0.061,-0.183,12.242
142332,158659,13990,0.026,-0.976,-0.234,-4.329,0.061,-0.183,12.246
142332,158603,13338,0.027,-0.958,-0.239,-2.744,0.122,-1.098,12.252
142469,158659,13990,0.02,-0.948,-0.242,-2.744,0.122,-1.098,12.256
142469,158706,13348,0.01,-0.951,-0.24,-0.549,0.732,0.427,12.262
142728,158915,13990,0.014,-0.954,-0.231,-0.549,0.732,0.427,12.266
142728,158961,13400,0.019,-0.95,-0.225,2.744,0.915,0.976,12.272
142957,159171,13990,0.02,-0.936,-0.219,2.744,0.915,0.976,12.276
142957,159108,13411,0.011,-0.937,-0.211,4.268,0.915,1.037,12.282
142910,159171,13990,0.01,-0.941,-0.201,4.268,0.915,1.037,12.286
142910,159069,13405,0.013,-0.934,-0.193,3.841,0.732,1.524,12.292
142780,158915,13990,0.01,-0.924,-0.179,3.841,0.732,1.524,12.296
142780,158940,13389,0.004,-0.92,-0.173,1.402,0.244,1.22,12.302
142575,158915,13990,0.004,-0.926,-0.183,1.402,0.244,1.22,12.305
142575,158778,13354,0.01,-0.935,-0.188,-2.744,-0.305,0.366,12.312
142349,158659,13990,0.014,-0.938,-0.2,-2.744,-0.305,0.366,12.315
142349,158610,13327,0.016,-0.949,-0.221,-6.098,-0.549,-0.854,12.322
142283,158659,13990,0.016,-0.956,-0.238,-6.098,-0.549,-0.854,12.325
142283,158575,13344,0.02,-0.965,-0.257,-5.915,-0.244,-1.037,12.331
142377,158659,13990,0.02,-0.965,-0.257,-5.915,-0.244,-1.037,12.335
142377,158637,13336,0.021,-0.959,-0.261,-1.89,0.427,-0.305,12.341
142430,158659,13990,0.021,-0.959,-0.261,-1.89,0.427,-0.305,12.345
142430,158697,13339,0.014,-0.949,-0.236,3.841,1.22,0.793,12.351
142586,158915,13990,0.014,-0.949,-0.236,3.841,1.22,0.793,12.355
142586,158848,13359,0.018,-0.936,-0.204,6.463,1.28,1.22,12.361
142606,158915,13990,0.018,-0.936,-0.204,6.463,1.28,1.22,12.365
142606,158831,13351,0.007,-0.92,-0.179,4.756,0.915,1.524,12.371
142449,158915,13990,0.007,-0.92,-0.179,4.756,0.915,1.524,12.375
142449,158729,13337,0.01,-0.929,-0.175,0.732,0.244,0.976,12.381
142376,158659,13990,0.01,-0.929,-0.175,0.732,0.244,0.976,12.385
142376,158638,13341,0.012,-0.93,-0.191,-3.841,-0.427,-0.244,12.391
142329,158659,13990,0.012,-0.93,-0.191,-3.841,-0.427,-0.244,12.395
142329,158594,13327,0.012,-0.959,-0.229,-6.463,-0.305,-0.732,12.401
142430,158659,13990,0.012,-0.959,-0.229,-6.463,-0.305,-0.732,12.404
142430,158684,13328,0.025,-0.964,-0.26,-4.817,-0.122,-0.793,12.411
142537,158915,13990,0.025,-0.964,-0.26,-4.817,-0.122,-0.793,12.414
142537,158791,13361,0.02,-0.962,-0.255,-0.427,0.732,0.244,12.421
142694,158915,13990,0.02,-0.962,-0.255,-0.427,0.732,0.244,12.424
142694,158942,13367,0.014,-0.94,-0.217,4.634,1.098,1.463,12.43
142623,158915,13990,0.014,-0.94,-0.217,4.634,1.098,1.463,12.434
142623,158865,13351,0.013,-0.927,-0.207,5.793,1.159,1.829,12.44
142555,158915,13990,0.013,-0.927,-0.207,5.793,1.159,1.829,12.444
142555,158804,13350,0.004,-0.927,-0.157,4.146,0.854,1.585,12.45
142395,158659,13990,0.004,-0.927,-0.157,4.146,0.854,1.585,12.454
142395,158649,13313,0.004,-0.932,-0.197,-0.976,0.244,0.793,12.46
142267,158659,13990,0.004,-0.932,-0.197,-0.976,0.244,0.793,12.464
142267,158526,13327,0.017,-0.939,-0.186,-4.329,-0.427,-0.305,12.47
142298,158659,13990,0.017,-0.939,-0.186,-4.329,-0.427,-0.305,12.474
142298,158581,13335,0.011,-0.925,-0.196,-4.329,-0.427,-0.305,12.48
142364,158659,13990,0.009,-0.935,-0.221,-7.317,-0.61,-0.549,12.484
142364,158651,13348,0.013,-0.958,-0.242,-7.317,-0.61,-0.549,12.49
142503,158915,13990,0.021,-0.969,-0.26,-6.585,-0.305,-1.159,12.494
142503,158787,13355,0.028,-0.969,-0.272,-6.585,-0.305,-1.159,12.5
142506,158915,13990,0.024,-0.964,-0.266,-1.951,0.305,-0.671,12.503
142506,158774,13348,0.019,-0.957,-0.251,-1.951,0.305,-0.671,12.51
142447,158915,13990,0.018,-0.948,-0.243,4.024,1.22,1.159,12.513
142447,158729,13343,0.018,-0.94,-0.232,4.024,1.22,1.159,12.52
142441,158659,13990,0.014,-0.936,-0.208,7.5,1.463,1.951,12.523
142441,158708,13345,0.011,-0.931,-0.195,7.5,1.463,1.951,12.529
142358,158659,13990,0.007,-0.924,-0.182,6.646,1.402,1.89,12.533
142358,158639,13316,-0,-0.926,-0.136,6.646,1.402,1.89,12.539
142344,158659,13990,-0.003,-0.899,-0.113,1.89,0.549,1.341,12.543
142344,158644,13354,-0.004,-0.881,-0.177,1.89,0.549,1.341,12.549
142436,158915,13990,0.001,-0.929,-0.236,-7.561,-0.366,-0.183,12.553
142436,158741,13326,0.02,-0.995,-0.247,-7.561,-0.366,-0.183,12.559
142548,158915,13990,0.032,-0.996,-0.246,-7.439,-0.793,-2.012,12.563
142548,158828,13363,0.03,-0.951,-0.246,-7.439,-0.793,-2.012,12.569
142626,158915,13990,0.012,-0.935,-0.262,-3.659,-0.061,-0.488,12.573
142626,158894,13358,0.002,-0.965,-0.28,-3.659,-0.061,-0.488,12.579
142613,158915,13990,0.018,-0.99,-0.269,1.829,1.037,0.854,12.583
142613,158870,13352,0.03,-0.97,-0.233,1.829,1.037,0.854,12.589
142496,158915,13990,0.026,-0.928,-0.209,7.012,1.341,0.854,12.593
142496,158771,13347,0.01,-0.909,-0.197,7.012,1.341,0.854,12.599
142331,158659,13990,-0.003,-0.917,-0.172,6.89,1.585,2.5,12.602
142331,158620,13309,-0.002,-0.918,-0.133,6.89,1.585,2.5,12.609
142224,158659,13990,0.004,-0.902,-0.13,2.744,0.244,1.951,12.612
142224,158535,13309,0.005,-0.899,-0.185,2.744,0.244,1.951,12.619
142219,158659,13990,0.007,-0.947,-0.228,-5.488,-0.549,0.122,12.622
142219,158535,13313,0.016,-0.989,-0.229,-5.488,-0.549,0.122,12.628
142339,158659,13990,0.027,-0.974,-0.216,-6.28,-0.732,-1.159,12.632
142339,158652,13320,0.022,-0.93,-0.231,-6.28,-0.732,-1.159,12.638
142475,158915,13990,0.009,-0.927,-0.245,-5.427,-0.183,-0.183,12.642
142475,158798,13357,0.005,-0.959,-0.262,-5.427,-0.183,-0.183,12.648
142552,158915,13990,0.014,-0.981,-0.277,-1.951,0.854,-0.061,12.652
142552,158884,13361,0.031,-0.971,-0.251,-1.951,0.854,-0.061,12.658
142578,158915,13990,0.028,-0.934,-0.202,3.415,0.793,0,12.662
142578,158882,13347,0.005,-0.907,-0.19,3.415,0.793,0,12.668
142486,158915,13990,-0.009,-0.916,-0.212,4.268,0.976,1.951,12.672
142486,158790,13343,0.003,-0.947,-0.22,4.268,0.976,1.951,12.678
142358,158659,13990,0.023,-0.958,-0.209,3.232,0.427,0.915,12.682
142358,158659,13327,0.024,-0.94,-0.191,3.232,0.427,0.915,12.688
142268,158659,13990,0.011,-0.921,-0.175,1.951,0.183,0.366,12.692
142268,158612,13334,0.001,-0.921,-0.192,1.951,0.183,0.366,12.698
142324,158659,13990,0.006,-0.942,-0.213,-1.585,0.305,0.61,12.702
142324,158637,13333,0.018,-0.956,-0.208,-1.585,0.305,0.61,12.708
142456,158915,13990,0.026,-0.946,-0.213,-3.476,-0.122,-0.854,12.711
142456,158768,13349,0.017,-0.936,-0.237,-3.476,-0.122,-0.854,12.718
142626,158915,13990,0.008,-0.95,-0.237,-3.232,0.244,-0.427,12.721
142626,158906,13382,0.011,-0.964,-0.209,-3.232,0.244,-0.427,12.727
142713,159171,13990,0.011,-0.939,-0.173,-0.61,0.183,0.549,12.731
142713,159002,13375,0.006,-0.903,-0.194,-0.61,0.183,0.549,12.737
142766,159171,13990,0.004,-0.921,-0.249,-2.927,0.244,0.305,12.741
142766,159008,13385,0.013,-0.975,-0.26,-2.927,0.244,0.305,12.747
142585,158915,13990,0.027,-0.988,-0.247,-1.098,0.427,-0.732,12.751
142585,158864,13358,0.031,-0.955,-0.242,-1.098,0.427,-0.732,12.757
142405,158659,13990,0.018,-0.931,-0.236,2.622,0.915,0.183,12.761
142405,158706,13340,0.005,-0.938,-0.229,2.622,0.915,0.183,12.767
142316,158659,13990,0.006,-0.951,-0.224,4.939,1.463,1.585,12.771
142316,158616,13325,0.02,-0.949,-0.217,4.939,1.463,1.585,12.777
142267,158659,13990,0.022,-0.94,-0.196,5.671,1.22,0.793,12.781
142267,158585,13322,0.016,-0.922,-0.175,5.671,1.22,0.793,12.787
142342,158659,13990,0.002,-0.906,-0.163,3.354,0.854,1.402,12.791
142342,158662,13352,0.002,-0.907,-0.18,3.354,0.854,1.402,12.797
142507,158915,13990,0.009,-0.94,-0.191,-1.098,-0.183,1.037,12.801
142507,158837,13373,0.018,-0.956,-0.185,-1.098,-0.183,1.037,12.807
142633,158915,13990,0.017,-0.94,-0.196,-4.512,-0.976,-0.488,12.81
142633,158932,13374,0.013,-0.933,-0.223,-4.512,-0.976,-0.488,12.817
142511,158915,13990,0.008,-0.953,-0.23,-6.646,-0.61,-0.244,12.82
142511,158819,13349,0.015,-0.966,-0.238,-6.646,-0.61,-0.244,12.827
142438,158915,13990,0.022,-0.965,-0.258,-4.756,-0.366,-0.366,12.83
142438,158744,13357,0.022,-0.963,-0.266,-4.756,-0.366,-0.366,12.836
142280,158659,13990,0.019,-0.959,-0.248,-0.854,0.427,0.122,12.84
142280,158586,13328,0.014,-0.944,-0.223,-0.854,0.427,0.122,12.846
142123,158659,13990,0.01,-0.922,-0.201,3.841,0.976,1.341,12.85
142123,158503,13331,0.008,-0.913,-0.195,3.841,0.976,1.341,12.856
142273,158659,13990,0.009,-0.928,-0.206,3.476,0.854,1.463,12.86
142273,158611,13336,0.011,-0.945,-0.209,3.476,0.854,1.463,12.866
142404,158915,13990,0.014,-0.95,-0.184,2.012,0.488,0.671,12.87
142404,158763,13353,0.012,-0.931,-0.155,2.012,0.488,0.671,12.876
142606,158915,13990,0.001,-0.903,-0.147,-1.646,-0.061,0.549,12.88
142606,158922,13386,-0.006,-0.911,-0.202,-1.646,-0.061,0.549,12.886
142615,158915,13990,0.007,-0.953,-0.26,-8.11,-0.183,-0.671,12.89
142615,158925,13366,0.028,-0.989,-0.284,-8.11,-0.183,-0.671,12.896
142614,158915,13990,0.039,-0.992,-0.276,-5.305,0.061,-2.012,12.9
142614,158888,13374,0.029,-0.964,-0.259,-5.305,0.061,-2.012,12.906
142400,158659,13990,0.014,-0.938,-0.247,2.195,0.915,0.244,12.909
142400,158700,13357,0.005,-0.941,-0.252,2.195,0.915,0.244,12.916
142180,158659,13990,0.013,-0.964,-0.248,7.134,1.402,1.89,12.919
142180,158541,13331,0.022,-0.968,-0.214,7.134,1.402,1.89,12.926
142199,158659,13990,0.022,-0.968,-0.214,7.134,1.402,1.89,12.929
142199,158565,13331,0.006,-0.892,-0.145,10.061,1.159,1.646,12.935
142228,158659,13990,0.006,-0.892,-0.145,10.061,1.159,1.646,12.939
142228,158601,13332,-0.009,-0.92,-0.17,5.671,0.732,2.439,12.945
142321,158659,13990,-0.009,-0.92,-0.17,5.671,0.732,2.439,12.949
142321,158695,13342,0.022,-0.93,-0.183,-0.732,-0.305,0.793,12.955
142493,158915,13990,0.022,-0.93,-0.183,-0.732,-0.305,0.793,12.959
142493,158816,13360,0.008,-0.939,-0.202,-5.183,-1.341,-0.732,12.965
142455,158915,13990,0.008,-0.939,-0.202,-5.183,-1.341,-0.732,12.969
142455,158804,13373,0.017,-0.952,-0.244,-7.012,-1.159,-0.427,12.975
142460,158915,13990,0.017,-0.952,-0.244,-7.012,-1.159,-0.427,12.979
142460,158773,13345,0.024,-0.958,-0.224,-6.646,-0.976,-1.037,12.985
142389,158915,13990,0.024,-0.958,-0.224,-6.646,-0.976,-1.037,12.989
142389,158734,13361,0.006,-0.929,-0.225,-3.78,-0.183,-0.366,12.995
142368,158659,13990,0.006,-0.929,-0.225,-3.78,-0.183,-0.366,12.999
142368,158717,13341,0.021,-0.981,-0.275,-2.744,0.366,0.671,13.005
142311,158659,13990,0.021,-0.981,-0.275,-2.744,0.366,0.671,13.008
142311,158661,13336,0.024,-0.946,-0.219,0.549,0.793,0.244,13.015
142221,158659,13990,0.024,-0.946,-0.219,0.549,0.793,0.244,13.018
142221,158584,13331,-0.004,-0.915,-0.212,4.024,1.159,1.524,13.025
142255,158659,13990,-0.004,-0.915,-0.212,4.024,1.159,1.524,13.028
142255,158590,13326,0.015,-0.95,-0.228,4.39,1.524,1.829,13.034
142246,158659,13990,0.015,-0.95,-0.228,4.39,1.524,1.829,13.038
142246,158612,13328,0.015,-0.942,-0.199,4.451,1.28,0.122,13.044
142361,158659,13990,0.015,-0.942,-0.199,4.451,1.28,0.122,13.048
142361,158714,13349,0,-0.925,-0.198,3.293,0.976,0.488,13.054
142512,158915,13990,0,-0.925,-0.198,3.293,0.976,0.488,13.058
142512,158838,13347,0.014,-0.948,-0.195,0.915,0.671,0.61,13.064
142537,158915,13990,0.014,-0.948,-0.195,0.915,0.671,0.61,13.068
142537,158886,13372,0.01,-0.919,-0.203,-0.732,0.122,-0.549,13.074
142559,158915,13990,0.01,-0.919,-0.203,-0.732,0.122,-0.549,13.078
142559,158888,13374,0.007,-0.94,-0.22,-3.049,0.122,-0.549,13.084
142460,158915,13990,0.011,-0.966,-0.205,-3.049,0.122,-0.549,13.088
142460,158769,13362,0.018,-0.949,-0.203,-2.622,-0.244,-0.854,13.094
142286,158659,13990,0.019,-0.932,-0.232,-2.622,-0.244,-0.854,13.098
142286,158626,13329,0.017,-0.947,-0.244,-3.354,0.122,-0.61,13.104
142172,158659,13990,0.016,-0.963,-0.233,-3.354,0.122,-0.61,13.108
142172,158561,13314,0.022,-0.955,-0.232,-0.671,0.61,-0.183,13.114
142173,158659,13990,0.022,-0.938,-0.23,-0.671,0.61,-0.183,13.117
142173,158562,13310,0.018,-0.936,-0.232,1.22,0.854,0.366,13.124
142187,158659,13990,0.016,-0.948,-0.226,1.22,0.854,0.366,13.127
142187,158592,13327,0.02,-0.953,-0.226,3.171,1.22,0.732,13.133
142298,158659,13990,0.022,-0.952,-0.223,3.171,1.22,0.732,13.137
142298,158663,13347,0.021,-0.946,-0.221,4.024,1.098,0.915,13.143
142419,158915,13990,0.014,-0.942,-0.21,4.024,1.098,0.915,13.147
142419,158776,13350,0.009,-0.931,-0.179,3.902,0.976,1.585,13.153
142297,158659,13990,0.002,-0.917,-0.167,3.902,0.976,1.585,13.157
142297,158657,13342,0.003,-0.916,-0.179,1.098,0.427,1.159,13.163
142189,158659,13990,0.005,-0.926,-0.202,1.098,0.427,1.159,13.167
142189,158571,13309,0.012,-0.946,-0.216,-3.049,-0.061,-0.305,13.173
142200,158659,13990,0.021,-0.959,-0.214,-3.049,-0.061,-0.305,13.177
142200,158531,13326,0.02,-0.954,-0.211,-3.232,-0.244,-0.793,13.183
142179,158659,13990,0.011,-0.937,-0.217,-3.232,-0.244,-0.793,13.187
142179,158522,13321,0.007,-0.939,-0.227,-2.866,-0.061,0,13.193
142403,158915,13990,0.011,-0.949,-0.232,-2.866,-0.061,0,13.197
142403,158761,13363,0.02,-0.953,-0.236,-1.402,0.183,0,13.203
142741,159171,13990,0.02,-0.961,-0.237,-1.402,0.183,0,13.207
142741,158995,13398,0.015,-0.962,-0.223,1.341,0.549,0.122,13.213
142882,159171,13990,0.012,-0.943,-0.219,1.341,0.549,0.122,13.216
142882,159144,13422,0.013,-0.931,-0.22,2.988,0.793,0.793,13.223
143051,159171,13990,0.012,-0.93,-0.195,2.988,0.793,0.793,13.226
143051,159227,13424,0.008,-0.928,-0.177,3.171,0.732,0.732,13.233
142991,159171,13990,0.007,-0.922,-0.185,3.171,0.732,0.732,13.236
142991,159152,13425,0.009,-0.933,-0.195,-0.061,0.488,0.122,13.242
142785,159171,13990,0.01,-0.949,-0.2,-0.061,0.488,0.122,13.246
142785,158989,13410,0.017,-0.943,-0.192,-3.049,0.183,-0.61,13.252
142592,158915,13990,0.014,-0.931,-0.204,-3.049,0.183,-0.61,13.256
142592,158820,13363,0.011,-0.936,-0.229,-4.695,-0.122,-0.671,13.262
142389,158659,13990,0.012,-0.953,-0.223,-4.695,-0.122,-0.671,13.266
142389,158667,13327,0.017,-0.952,-0.232,-3.902,-0.305,-0.732,13.272
142287,158659,13990,0.022,-0.942,-0.253,-3.902,-0.305,-0.732,13.276
142287,158584,13329,0.02,-0.958,-0.267,-2.256,0.122,-0.549,13.282
142368,158659,13990,0.021,-0.979,-0.259,-2.256,0.122,-0.549,13.286
142368,158664,13358,0.027,-0.964,-0.24,2.866,0.793,0.366,13.292
142353,158659,13990,0.022,-0.935,-0.197,2.866,0.793,0.366,13.296
142353,158653,13342,0.005,-0.914,-0.177,5.549,0.915,1.707,13.302
142448,158915,13990,-0.005,-0.908,-0.182,5.549,0.915,1.707,13.306
142448,158730,13360,0.002,-0.924,-0.18,2.744,0.854,1.524,13.312
142576,158915,13990,0.015,-0.938,-0.182,2.744,0.854,1.524,13.315
142576,158879,13382,0.016,-0.946,-0.204,-0.976,0.122,-0.061,13.322
142657,158915,13990,0.014,-0.948,-0.224,-0.976,0.122,-0.061,13.325
142657,158936,13392,0.012,-0.95,-0.219,-2.744,0.122,-0.183,13.332
142746,159171,13990,0.013,-0.95,-0.208,-2.744,0.122,-0.183,13.335
142746,159000,13407,0.013,-0.936,-0.213,-2.256,0.061,0.122,13.341
142765,159171,13990,0.012,-0.935,-0.223,-2.256,0.061,0.122,13.345
142765,159032,13389,0.016,-0.948,-0.238,-2.317,0.305,-0.122,13.351
142757,158915,13990,0.019,-0.961,-0.238,-2.317,0.305,-0.122,13.355
142757,158969,13381,0.024,-0.96,-0.225,-0.305,0.427,0,13.361
142678,158915,13990,0.02,-0.938,-0.214,-0.305,0.427,0,13.365
142678,158919,13389,0.011,-0.927,-0.209,1.22,0.549,0.915,13.371
142608,158915,13990,0.007,-0.937,-0.213,1.22,0.549,0.915,13.375
142608,158845,13387,0.015,-0.944,-0.222,1.22,0.61,0.976,13.381
142604,158915,13990,0.019,-0.95,-0.21,1.22,0.61,0.976,13.385
142604,158854,13367,0.016,-0.939,-0.189,1.524,0.427,0.427,13.391
142583,158915,13990,0.008,-0.913,-0.182,1.524,0.427,0.427,13.395
142583,158860,13375,0.002,-0.916,-0.199,-0.427,0.488,0.61,13.401
142656,158915,13990,0.008,-0.946,-0.22,-0.427,0.488,0.61,13.405
142656,158928,13389,0.019,-0.965,-0.218,-2.622,0.183,-0.366,13.411
142801,159171,13990,0.024,-0.949,-0.206,-2.622,0.183,-0.366,13.414
142801,159037,13400,0.015,-0.926,-0.197,-2.683,-0.183,-0.61,13.421
142880,159171,13990,0.006,-0.928,-0.216,-2.683,-0.183,-0.61,13.424
142880,159131,13416,0.008,-0.95,-0.246,-3.415,0.183,-0.061,13.431
142911,159171,13990,0.022,-0.972,-0.25,-3.415,0.183,-0.061,13.434
142911,159117,13420,0.027,-0.97,-0.244,-1.159,0.122,-0.61,13.44
142878,159171,13990,0.023,-0.952,-0.224,-1.159,0.122,-0.61,13.444
142878,159111,13428,0.011,-0.935,-0.216,1.707,0.549,0.549,13.45
142789,159171,13990,0.006,-0.929,-0.214,1.707,0.549,0.549,13.454
142789,159042,13396,0.012,-0.933,-0.197,2.134,0.671,1.037,13.46
142640,158915,13990,0.019,-0.932,-0.186,2.134,0.671,1.037,13.464
142640,158897,13395,0.011,-0.925,-0.182,0.488,0.305,0.244,13.47
142564,158915,13990,0.006,-0.919,-0.213,0.488,0.305,0.244,13.474
142564,158852,13373,0.012,-0.943,-0.238,-3.049,0.244,0.061,13.48
142580,158915,13990,0.019,-0.969,-0.236,-3.049,0.244,0.061,13.484
142580,158866,13387,0.026,-0.969,-0.233,-1.22,0.122,-0.488,13.49
142646,158915,13990,0.022,-0.952,-0.223,-1.22,0.122,-0.488,13.494
142646,158931,13414,0.011,-0.934,-0.223,0.915,0.366,0.488,13.5
142733,159171,13990,0.005,-0.938,-0.23,0.915,0.366,0.488,13.504
142733,158976,13393,0.011,-0.953,-0.228,1.951,0.732,0.793,13.51
142763,159171,13990,0.021,-0.95,-0.214,1.951,0.732,0.793,13.513
142763,159021,13418,0.02,-0.936,-0.213,2.988,0.488,0.488,13.52
142765,159171,13990,0.014,-0.93,-0.212,2.988,0.488,0.488,13.523
142765,159014,13384,0.01,-0.928,-0.196,2.622,0.366,1.159,13.53
142604,158915,13990,0.01,-0.928,-0.196,2.622,0.366,1.159,13.533
142604,158877,13380,0.009,-0.924,-0.176,1.463,-0.122,0.976,13.539
142499,158915,13990,0.009,-0.924,-0.176,1.463,-0.122,0.976,13.543
142499,158781,13353,0.011,-0.938,-0.203,-2.073,-0.366,0.244,13.549
142399,158659,13990,0.011,-0.938,-0.203,-2.073,-0.366,0.244,13.553
142399,158703,13365,0.016,-0.951,-0.219,-4.207,-0.488,-0.61,13.559
142468,158915,13990,0.016,-0.951,-0.219,-4.207,-0.488,-0.61,13.563
142468,158761,13383,0.015,-0.953,-0.229,-3.902,-0.122,-0.732,13.569
142541,158915,13990,0.015,-0.953,-0.229,-3.902,-0.122,-0.732,13.573
142541,158822,13384,0.021,-0.951,-0.241,-2.5,0.427,-0.366,13.579
142618,158915,13990,0.021,-0.951,-0.241,-2.5,0.427,-0.366,13.583
142618,158905,13386,0.02,-0.952,-0.259,0.366,1.037,-0.122,13.589
142662,158915,13990,0.02,-0.952,-0.259,0.366,1.037,-0.122,13.593
142662,158928,13391,0.021,-0.941,-0.215,4.451,1.402,0.671,13.599
142610,158915,13990,0.021,-0.941,-0.215,4.451,1.402,0.671,13.603
142610,158874,13379,0.01,-0.934,-0.211,5.793,1.524,1.463,13.609
142460,158915,13990,0.01,-0.934,-0.211,5.793,1.524,1.463,13.612
142460,158773,13382,0.017,-0.947,-0.2,4.756,1.28,0.854,13.619
142376,158659,13990,0.017,-0.947,-0.2,4.756,1.28,0.854,13.622
142376,158681,13363,0.011,-0.916,-0.162,2.5,0.549,0.671,13.629
142373,158659,13990,0.011,-0.916,-0.162,2.5,0.549,0.671,13.632
142373,158691,13363,0.007,-0.927,-0.193,-2.134,-0.061,0.305,13.638
142362,158659,13990,0.007,-0.927,-0.193,-2.134,-0.061,0.305,13.642
142362,158710,13357,0.022,-0.955,-0.208,-5.061,-0.61,-1.037,13.648
142392,158915,13990,0.022,-0.955,-0.208,-5.061,-0.61,-1.037,13.652
142392,158734,13363,0.015,-0.94,-0.224,-5.671,-0.671,-0.671,13.658
142513,158915,13990,0.015,-0.94,-0.224,-5.671,-0.671,-0.671,13.662
142513,158824,13387,0.015,-0.958,-0.242,-4.817,-0.427,-0.061,13.668
142497,158915,13990,0.015,-0.958,-0.242,-4.817,-0.427,-0.061,13.672
142497,158797,13386,0.027,-0.963,-0.264,-1.89,0.061,-0.122,13.678
142479,158915,13990,0.027,-0.963,-0.264,-1.89,0.061,-0.122,13.682
142479,158794,13392,0.022,-0.962,-0.237,-1.89,0.061,-0.122,13.688
142428,158915,13990,0.019,-0.936,-0.199,2.988,0.61,0.976,13.692
142428,158741,13365,0.009,-0.912,-0.2,2.988,0.61,0.976,13.698
142285,158659,13990,0.006,-0.925,-0.215,3.171,0.671,1.707,13.702
142285,158644,13355,0.012,-0.952,-0.212,3.171,0.671,1.707,13.708
142303,158659,13990,0.021,-0.952,-0.2,2.439,0.244,0.854,13.712
142303,158652,13367,0.017,-0.927,-0.188,2.439,0.244,0.854,13.718
142337,158659,13990,0.008,-0.914,-0.192,0.366,-0.061,0.854,13.721
142337,158648,13379,0.004,-0.928,-0.199,0.366,-0.061,0.854,13.728
142394,158915,13990,0.008,-0.947,-0.217,-2.439,-0.122,0.427,13.731
142394,158728,13376,0.019,-0.959,-0.231,-2.439,-0.122,0.427,13.737
142532,158915,13990,0.021,-0.959,-0.218,-2.561,-0.244,-0.61,13.741
142532,158817,13395,0.014,-0.945,-0.198,-2.561,-0.244,-0.61,13.747
142564,158915,13990,0.005,-0.928,-0.198,-1.951,-0.244,0,13.751
142564,158847,13399,0.004,-0.925,-0.226,-1.951,-0.244,0,13.757
142607,158915,13990,0.012,-0.95,-0.24,-3.354,-0.427,0,13.761
142607,158859,13408,0.021,-0.971,-0.238,-3.354,-0.427,0,13.767
142551,158915,13990,0.026,-0.963,-0.235,-0.854,-0.305,-0.61,13.771
142551,158780,13408,0.019,-0.943,-0.217,-0.854,-0.305,-0.61,13.777
142502,158915,13990,0.006,-0.932,-0.175,1.22,-0.122,0.793,13.781
142502,158767,13395,0.001,-0.912,-0.179,1.22,-0.122,0.793,13.787
142579,158915,13990,0.006,-0.92,-0.23,-1.463,-0.061,0.793,13.791
142579,158844,13416,0.02,-0.965,-0.247,-1.463,-0.061,0.793,13.797
142630,158915,13990,0.029,-0.976,-0.205,-2.378,-0.183,-0.671,13.801
142630,158869,13404,0.021,-0.933,-0.188,-2.378,-0.183,-0.671,13.807
142680,158915,13990,0.007,-0.902,-0.22,-2.256,0,0.244,13.811
142680,158929,13424,0.006,-0.925,-0.246,-2.256,0,0.244,13.817
142660,158915,13990,0.02,-0.973,-0.258,-2.378,0.549,0.366,13.82
142660,158913,13411,0.032,-0.985,-0.249,-2.378,0.549,0.366,13.827
142594,158915,13990,0.032,-0.957,-0.235,1.707,0.549,-0.366,13.83
142594,158851,13400,0.018,-0.932,-0.224,1.707,0.549,-0.366,13.836
142472,158915,13990,0.006,-0.932,-0.219,3.841,1.22,1.646,13.84
142472,158728,13382,0.008,-0.945,-0.214,3.841,1.22,1.646,13.846
142319,158659,13990,0.016,-0.95,-0.2,4.146,0.793,1.707,13.85
142319,158621,13374,0.017,-0.94,-0.164,4.146,0.793,1.707,13.856
142244,158659,13990,0.005,-0.907,-0.159,2.073,0.183,1.463,13.86
142244,158573,13361,-0.007,-0.898,-0.181,2.073,0.183,1.463,13.866
142293,158659,13990,-0.002,-0.931,-0.187,-3.11,-0.183,1.037,13.87
142293,158614,13374,0.015,-0.948,-0.204,-3.11,-0.183,1.037,13.876
142436,158915,13990,0.022,-0.949,-0.238,-6.22,-0.793,-0.854,13.88
142436,158721,13390,0.018,-0.958,-0.245,-6.22,-0.793,-0.854,13.886
142586,158915,13990,0.015,-0.962,-0.241,-4.939,-0.305,-0.671,13.89
142586,158873,13411,0.013,-0.957,-0.246,-4.939,-0.305,-0.671,13.896
142746,159171,13990,0.015,-0.95,-0.25,-1.159,0.488,0.061,13.9
142746,158982,13425,0.016,-0.948,-0.245,-1.159,0.488,0.061,13.906
142746,158915,13990,0.022,-0.948,-0.239,2.195,1.159,0.122,13.91
142746,158973,13402,0.021,-0.942,-0.231,2.195,1.159,0.122,13.916
142700,158915,13990,0.016,-0.933,-0.201,4.878,1.28,0.793,13.919
142700,158914,13393,0.009,-0.917,-0.172,4.878,1.28,0.793,13.926
142554,158915,13990,0.001,-0.908,-0.169,3.537,0.854,1.402,13.929
142554,158812,13399,0,-0.918,-0.159,3.537,0.854,1.402,13.936
142397,158659,13990,0.01,-0.93,-0.182,-2.317,-0.061,0.244,13.939
142397,158678,13355,0.018,-0.949,-0.235,-2.317,-0.061,0.244,13.945
142312,158659,13990,0.025,-0.974,-0.252,-6.951,-0.366,-1.28,13.949
142312,158599,13362,0.027,-0.974,-0.251,-6.951,-0.366,-1.28,13.955
142371,158659,13990,0.025,-0.96,-0.258,-4.085,0,-1.037,13.959
142371,158666,13368,0.02,-0.947,-0.26,-4.085,0,-1.037,13.965
142461,158659,13990,0.016,-0.948,-0.255,0.915,1.037,0.366,13.969
142461,158717,13387,0.017,-0.95,-0.245,0.915,1.037,0.366,13.975
142679,158915,13990,0.02,-0.949,-0.224,5.976,1.463,1.037,13.979
142679,158908,13414,0.018,-0.934,-0.202,5.976,1.463,1.037,13.985
142894,159171,13990,0.012,-0.919,-0.188,7.622,1.463,1.646,13.989
142894,159051,13439,0.007,-0.919,-0.18,7.622,1.463,1.646,13.995
143002,159171,13990,0.004,-0.928,-0.145,4.512,0.793,2.012,13.999
143002,159099,13454,0.005,-0.91,-0.139,4.512,0.793,2.012,14.005
143075,159171,13990,0.003,-0.908,-0.184,-2.378,-0.244,0.915,14.009
143075,159179,13461,0.006,-0.95,-0.208,-2.378,-0.244,0.915,14.015
143065,159171,13990,0.016,-0.973,-0.222,-7.439,-0.61,-0.915,14.018
143065,159112,13449,0.024,-0.965,-0.237,-7.439,-0.61,-0.915,14.025
142965,159171,13990,0.021,-0.952,-0.252,-6.768,-0.488,-1.28,14.028
142965,159042,13443,0.015,-0.951,-0.269,-6.768,-0.488,-1.28,14.035
142983,159171,13990,0.013,-0.96,-0.276,-2.622,0.488,-0.244,14.038
142983,159040,13461,0.021,-0.965,-0.272,-2.622,0.488,-0.244,14.044
142986,159171,13990,0.025,-0.954,-0.246,3.902,1.28,0,14.048
142986,159036,13457,0.022,-0.939,-0.225,3.902,1.28,0,14.054
142903,159171,13990,0.012,-0.929,-0.216,7.683,1.707,1.28,14.058
142903,158991,13436,0.011,-0.932,-0.208,7.683,1.707,1.28,14.064
142949,159171,13990,0.014,-0.937,-0.187,7.561,1.463,1.89,14.068
142949,159037,13456,0.012,-0.928,-0.16,7.561,1.463,1.89,14.074
142938,159171,13990,0.008,-0.911,-0.136,4.329,0.305,1.463,14.078
142938,159008,13453,-0.004,-0.896,-0.119,4.329,0.305,1.463,14.084
142821,158915,13990,-0.004,-0.895,-0.163,-3.902,-0.793,0.549,14.088
142821,158932,13436,0.01,-0.938,-0.236,-3.902,-0.793,0.549,14.094
142881,158915,13990,0.026,-0.996,-0.254,-10.244,-1.22,-2.012,14.098
142881,158949,13444,0.036,-0.998,-0.246,-10.244,-1.22,-2.012,14.104
142900,158915,13990,0.031,-0.956,-0.251,-7.195,-0.915,-1.951,14.108
142900,158969,13448,0.016,-0.936,-0.263,-7.195,-0.915,-1.951,14.114
142948,159171,13990,0.01,-0.955,-0.28,-3.11,0.732,0.488,14.117
142948,159043,13452,0.019,-0.977,-0.277,-3.11,0.732,0.488,14.124
143108,159171,13990,0.028,-0.969,-0.243,4.085,1.402,0.61,14.127
143108,159180,13490,0.026,-0.937,-0.214,4.085,1.402,0.61,14.134
143131,159171,13990,0.026,-0.937,-0.214,4.085,1.402,0.61,14.137
143131,159179,13478,0.001,-0.924,-0.206,8.476,1.646,1.768,14.143
143103,159171,13990,0.001,-0.924,-0.206,8.476,1.646,1.768,14.147
143103,159140,13467,0.013,-0.927,-0.178,7.744,1.585,2.256,14.153
143018,159171,13990,0.013,-0.927,-0.178,7.744,1.585,2.256,14.157
143018,159060,13457,0.003,-0.923,-0.152,4.512,0.549,1.098,14.163
142872,158915,13990,0.003,-0.923,-0.152,4.512,0.549,1.098,14.167
142872,158940,13439,0.01,-0.93,-0.219,-1.098,-0.183,0.427,14.173
142785,158915,13990,0.01,-0.93,-0.219,-1.098,-0.183,0.427,14.177
142785,158863,13444,0.026,-0.973,-0.226,-6.524,-0.671,-0.915,14.183
142839,158915,13990,0.026,-0.973,-0.226,-6.524,-0.671,-0.915,14.187
142839,158923,13454,0.018,-0.942,-0.247,-5.305,-0.549,-1.159,14.193
142926,159171,13990,0.018,-0.942,-0.247,-5.305,-0.549,-1.159,14.197
142926,159027,13436,0.018,-0.964,-0.24,-2.744,0.122,0.305,14.203
142923,159171,13990,0.018,-0.964,-0.24,-2.744,0.122,0.305,14.207
142923,159053,13451,0.018,-0.94,-0.229,1.646,0.549,0.61,14.213
142918,159171,13990,0.018,-0.94,-0.229,1.646,0.549,0.61,14.217
142918,159010,13436,0.007,-0.934,-0.185,4.512,0.854,1.28,14.223
142855,158915,13990,0.007,-0.934,-0.185,4.512,0.854,1.28,14.226
142855,158939,13439,0.009,-0.922,-0.195,4.085,0.732,1.707,14.233
142758,158915,13990,0.009,-0.922,-0.195,4.085,0.732,1.707,14.236
142758,158835,13404,0.009,-0.927,-0.169,0.793,0.427,0.854,14.242
142691,158915,13990,0.009,-0.927,-0.169,0.793,0.427,0.854,14.246
142691,158834,13418,0.013,-0.935,-0.232,-2.5,-0.183,0,14.252
142850,158915,13990,0.013,-0.935,-0.232,-2.5,-0.183,0,14.256
142850,158967,13445,0.024,-0.965,-0.238,-5,-0.183,-0.793,14.262
142969,159171,13990,0.024,-0.965,-0.238,-5,-0.183,-0.793,14.266
142969,159060,13461,0.019,-0.945,-0.241,-2.195,0,-0.915,14.272
143080,159171,13990,0.019,-0.945,-0.241,-2.195,0,-0.915,14.276
143080,159157,13469,0.018,-0.957,-0.247,0.305,0.732,0.427,14.282
143001,159171,13990,0.018,-0.957,-0.247,0.305,0.732,0.427,14.286
143001,159094,13448,0.025,-0.957,-0.225,3.476,0.854,0.915,14.292
142849,158915,13990,0.02,-0.943,-0.207,3.476,0.854,0.915,14.296
142849,158967,13447,0.014,-0.928,-0.199,4.878,0.915,1.463,14.302
142613,158915,13990,0.008,-0.927,-0.196,4.878,0.915,1.463,14.306
142613,158728,13400,0.006,-0.934,-0.168,2.927,0.732,1.707,14.312
142470,158659,13990,0.008,-0.916,-0.116,2.927,0.732,1.707,14.316
142470,158651,13399,0,-0.886,-0.145,-1.768,-0.549,0.976,14.322
142585,158915,13990,-0.007,-0.908,-0.225,-1.768,-0.549,0.976,14.325
142585,158727,13409,0.011,-0.978,-0.25,-8.11,-0.671,-0.854,14.332
142782,158915,13990,0.031,-0.999,-0.23,-8.11,-0.671,-0.854,14.335
142782,158944,13437,0.03,-0.962,-0.233,-5.183,-0.793,-1.768,14.342
143053,159171,13990,0.013,-0.93,-0.239,-5.183,-0.793,-1.768,14.345
143053,159143,13479,0.001,-0.935,-0.243,-3.171,0.244,0.122,14.351
143121,159171,13990,0.01,-0.957,-0.252,-3.171,0.244,0.122,14.355
143121,159204,13472,0.024,-0.967,-0.253,-0.061,0.854,-0.244,14.361
142933,159171,13990,0.031,-0.955,-0.246,-0.061,0.854,-0.244,14.365
142933,159044,13443,0.02,-0.946,-0.23,3.476,1.22,-0.061,14.371
142827,158915,13990,0.014,-0.936,-0.208,3.476,1.22,-0.061,14.375
142827,158953,13440,0.011,-0.923,-0.19,5.244,1.22,1.341,14.381
142575,158915,13990,0.01,-0.92,-0.182,5.244,1.22,1.341,14.385
142575,158734,13399,0.007,-0.929,-0.178,2.866,0.61,0.915,14.391
142431,158659,13990,0.012,-0.929,-0.176,2.866,0.61,0.915,14.395
142431,158629,13395,0.013,-0.928,-0.194,-1.402,0.122,-0.122,14.401
142566,158915,13990,0.014,-0.941,-0.219,-1.402,0.122,-0.122,14.405
142566,158741,13406,0.017,-0.961,-0.231,-3.537,0,-0.915,14.411
142714,158915,13990,0.022,-0.965,-0.229,-3.537,0,-0.915,14.415
142714,158876,13436,0.021,-0.946,-0.232,-2.134,0.183,-0.732,14.421
142931,159171,13990,0.013,-0.938,-0.231,-2.134,0.183,-0.732,14.424
142931,159045,13449,0.01,-0.945,-0.229,-0.427,0.793,0.244,14.431
143054,159171,13990,0.02,-0.952,-0.237,-0.427,0.793,0.244,14.434
143054,159141,13486,0.02,-0.948,-0.222,1.585,0.976,0.366,14.441
142977,159171,13990,0.017,-0.939,-0.202,1.585,0.976,0.366,14.444
142977,159120,13455,0.015,-0.929,-0.196,2.439,0.732,0.732,14.45
142924,159171,13990,0.009,-0.922,-0.202,2.439,0.732,0.732,14.454
142924,159054,13439,0.009,-0.93,-0.206,0.305,0.61,0.732,14.46
142830,158915,13990,0.014,-0.939,-0.19,0.305,0.61,0.732,14.464
142830,158957,13441,0.015,-0.929,-0.184,-1.402,0.122,-0.061,14.47
142778,158915,13990,0.007,-0.929,-0.204,-1.402,0.122,-0.061,14.474
142778,158949,13443,0.012,-0.942,-0.219,-4.329,-0.183,-0.61,14.48
142840,158915,13990,0.021,-0.95,-0.214,-4.329,-0.183,-0.61,14.484
142840,158968,13477,0.02,-0.947,-0.214,-5,-0.488,-0.793,14.49
142969,159171,13990,0.015,-0.942,-0.229,-5,-0.488,-0.793,14.494
142969,159111,13473,0.015,-0.948,-0.247,-5.244,-0.366,-0.244,14.5
143099,159171,13990,0.017,-0.96,-0.225,-5.244,-0.366,-0.244,14.504
143099,159192,13489,0.019,-0.947,-0.205,-3.171,-0.366,0.061,14.51
143183,159427,13990,0.019,-0.925,-0.234,-3.171,-0.366,0.061,14.514
143183,159271,13494,0.016,-0.946,-0.264,-2.866,0.244,0.305,14.52
143092,159171,13990,0.023,-0.974,-0.259,-2.866,0.244,0.305,14.523
143092,159169,13468,0.032,-0.967,-0.251,1.22,0.976,0.244,14.53
143009,159171,13990,0.029,-0.939,-0.251,1.22,0.976,0.244,14.533
143009,159115,13466,0.018,-0.932,-0.241,5.61,1.463,1.28,14.54
142919,159171,13990,0.008,-0.943,-0.214,5.61,1.463,1.28,14.543
142919,159031,13461,0.012,-0.938,-0.194,7.744,1.768,1.951,14.549
142905,159171,13990,0.012,-0.925,-0.182,7.744,1.768,1.951,14.553
142905,158987,13455,0.006,-0.921,-0.155,5.244,1.037,1.524,14.559
142993,159171,13990,0.001,-0.917,-0.145,5.244,1.037,1.524,14.563
142993,159100,13468,0.001,-0.911,-0.164,-0.366,0.122,0.793,14.569
143160,159171,13990,0.008,-0.922,-0.18,-0.366,0.122,0.793,14.573
143160,159220,13506,0.014,-0.942,-0.199,-6.524,-0.854,-0.671,14.579
143306,159427,13990,0.017,-0.958,-0.23,-6.524,-0.854,-0.671,14.583
143306,159342,13507,0.02,-0.965,-0.244,-8.354,-1.037,-1.28,14.589
143221,159427,13990,0.02,-0.961,-0.236,-8.354,-1.037,-1.28,14.593
143221,159272,13502,0.019,-0.948,-0.24,-5.488,-0.305,-0.61,14.599
143150,159171,13990,0.014,-0.947,-0.261,-5.488,-0.305,-0.61,14.603
143150,159188,13480,0.018,-0.964,-0.273,-2.378,0.793,-0.122,14.609
142991,159171,13990,0.026,-0.967,-0.272,-2.378,0.793,-0.122,14.613
142991,159030,13477,0.029,-0.956,-0.254,2.988,1.585,0.122,14.619
142733,158915,13990,0.025,-0.948,-0.232,2.988,1.585,0.122,14.622
142733,158824,13440,0.016,-0.935,-0.222,7.866,1.951,1.585,14.629
142694,158915,13990,0.013,-0.933,-0.211,7.866,1.951,1.585,14.632
142694,158817,13439,0.012,-0.934,-0.188,8.415,1.707,2.195,14.639
142791,158915,13990,0.01,-0.919,-0.15,8.415,1.707,2.195,14.642
142791,158902,13440,0.004,-0.894,-0.147,4.512,0.61,1.768,14.648
142895,159171,13990,0,-0.903,-0.169,4.512,0.61,1.768,14.652
142895,159019,13481,0.009,-0.932,-0.191,-2.622,-0.488,0.488,14.658
143040,159171,13990,0.02,-0.952,-0.209,-2.622,-0.488,0.488,14.662
143040,159093,13479,0.022,-0.955,-0.213,-6.768,-0.976,-1.22,14.668
143084,159171,13990,0.02,-0.949,-0.224,-6.768,-0.976,-1.22,14.672
143084,159150,13492,0.017,-0.943,-0.243,-7.378,-0.61,-0.793,14.678
143028,159171,13990,0.015,-0.959,-0.252,-7.378,-0.61,-0.793,14.682
143028,159115,13473,0.019,-0.972,-0.26,-4.329,-0.122,-0.183,14.688
142947,159171,13990,0.025,-0.973,-0.262,-4.329,-0.122,-0.183,14.692
142947,159030,13466,0.025,-0.955,-0.237,0.732,0.61,0.427,14.698
142895,159171,13990,0.014,-0.934,-0.213,0.732,0.61,0.427,14.702
142895,158988,13449,0.007,-0.923,-0.212,4.146,1.037,1.89,14.708
142974,159171,13990,0.008,-0.933,-0.198,4.146,1.037,1.89,14.712
142974,159062,13476,0.01,-0.936,-0.171,3.963,0.976,1.646,14.718
143031,159171,13990,0.005,-0.917,-0.174,3.963,0.976,1.646,14.721
143031,159153,13469,0.003,-0.914,-0.188,-0.427,0.427,0.671,14.728
143147,159427,13990,0.001,-0.933,-0.187,-0.427,0.427,0.671,14.731
143147,159255,13481,0.008,-0.941,-0.211,-5,-0.122,-0.488,14.738
143223,159427,13990,0.008,-0.941,-0.211,-5,-0.122,-0.488,14.741
143223,159276,13489,0.02,-0.94,-0.252,-6.22,0.061,-1.646,14.747
143187,159427,13990,0.02,-0.94,-0.252,-6.22,0.061,-1.646,14.751
143187,159240,13507,0.021,-0.979,-0.281,-2.378,0.793,-1.28,14.757
143086,159171,13990,0.021,-0.979,-0.281,-2.378,0.793,-1.28,14.761
143086,159186,13465,0.028,-0.958,-0.256,3.598,1.341,-0.183,14.767
142933,159171,13990,0.028,-0.958,-0.256,3.598,1.341,-0.183,14.771
142933,159038,13454,0.016,-0.941,-0.2,7.744,1.707,1.402,14.777
142870,159171,13990,0.016,-0.941,-0.2,7.744,1.707,1.402,14.781
142870,158989,13454,0.011,-0.907,-0.146,6.463,0.976,2.012,14.787
142781,158915,13990,0.011,-0.907,-0.146,6.463,0.976,2.012,14.791
142781,158928,13430,-0.001,-0.915,-0.184,0.183,0.122,1.341,14.797
142835,158915,13990,-0.001,-0.915,-0.184,0.183,0.122,1.341,14.801
142835,158960,13438,0.025,-0.968,-0.211,-4.146,-0.488,-0.549,14.807
142892,159171,13990,0.025,-0.968,-0.211,-4.146,-0.488,-0.549,14.811
142892,159023,13443,0.015,-0.943,-0.229,-5.366,-0.366,-0.549,14.817
143104,159171,13990,0.015,-0.943,-0.229,-5.366,-0.366,-0.549,14.821
143104,159191,13480,0.013,-0.944,-0.234,-3.963,0.305,0.305,14.827
143288,159427,13990,0.013,-0.944,-0.234,-3.963,0.305,0.305,14.83
143288,159356,13489,0.019,-0.954,-0.253,-2.073,0.671,-0.183,14.837
143278,159427,13990,0.019,-0.954,-0.253,-2.073,0.671,-0.183,14.84
143278,159349,13496,0.017,-0.94,-0.213,1.159,0.671,0.305,14.846
143137,159427,13990,0.017,-0.94,-0.213,1.159,0.671,0.305,14.85
143137,159232,13478,0.004,-0.92,-0.219,1.829,0.671,1.159,14.856
142973,159171,13990,0.004,-0.92,-0.219,1.829,0.671,1.159,14.86
142973,159066,13442,0.021,-0.957,-0.231,1.829,0.488,0.488,14.866
142702,158915,13990,0.021,-0.957,-0.231,1.829,0.488,0.488,14.87
142702,158870,13407,0.015,-0.943,-0.215,2.317,0.427,0.366,14.876
142520,158659,13990,0.015,-0.943,-0.215,2.317,0.427,0.366,14.88
142520,158706,13398,0.008,-0.934,-0.214,2.317,0.427,0.366,14.886
142518,158915,13990,0.012,-0.935,-0.22,2.195,0.915,0.854,14.89
142518,158728,13389,0.017,-0.941,-0.213,2.195,0.915,0.854,14.896
142623,158915,13990,0.018,-0.944,-0.2,1.768,0.671,0.427,14.9
142623,158826,13411,0.016,-0.928,-0.184,1.768,0.671,0.427,14.906
142809,159171,13990,0.011,-0.914,-0.174,0.549,0.183,0.732,14.91
142809,159012,13444,0.006,-0.916,-0.184,0.549,0.183,0.732,14.916
142980,159171,13990,0.011,-0.939,-0.217,-3.232,-0.244,0.549,14.92
142980,159137,13446,0.018,-0.962,-0.237,-3.232,-0.244,0.549,14.926
142963,159171,13990,0.025,-0.968,-0.233,-4.146,-0.183,-0.61,14.929
142963,159142,13445,0.025,-0.955,-0.231,-4.146,-0.183,-0.61,14.936
142874,159171,13990,0.014,-0.943,-0.23,-2.683,0.122,0.061,14.939
142874,159040,13430,0.005,-0.941,-0.219,-2.683,0.122,0.061,14.946
142657,158915,13990,0.011,-0.942,-0.234,-1.341,0.549,0.61,14.949
142657,158860,13417,0.019,-0.946,-0.237,-1.341,0.549,0.61,14.955
142472,158659,13990,0.019,-0.95,-0.227,0.244,0.732,0,14.959
142472,158699,13374,0.017,-0.939,-0.225,0.244,0.732,0,14.965
142397,158659,13990,0.017,-0.928,-0.221,2.378,0.793,0.671,14.969
142397,158644,13368,0.014,-0.933,-0.214,2.378,0.793,0.671,14.975
142380,158659,13990,0.013,-0.94,-0.209,2.988,0.732,1.159,14.979
142380,158630,13372,0.016,-0.937,-0.206,2.988,0.732,1.159,14.985
142427,158659,13990,0.012,-0.935,-0.204,1.951,0.488,0.793,14.989
142427,158710,13376,0.011,-0.939,-0.201,1.951,0.488,0.793,14.995
142442,158915,13990,0.015,-0.942,-0.206,0,0.183,0.488,14.999
142442,158751,13378,0.021,-0.944,-0.213,0,0.183,0.488,15.005
142403,158659,13990,0.017,-0.944,-0.214,-1.646,0.061,0.122,15.009
142403,158696,13368,0.016,-0.94,-0.215,-1.646,0.061,0.122,15.015
142295,158659,13990,0.017,-0.935,-0.216,-2.012,0.244,0.183,15.019
142295,158577,13347,0.015,-0.938,-0.198,-2.012,0.244,0.183,15.025
142216,158659,13990,0.011,-0.934,-0.204,-2.439,-0.061,0.244,15.028
142216,158481,13329,0.014,-0.935,-0.236,-2.439,-0.061,0.244,15.035
142210,158659,13990,0.017,-0.962,-0.252,-3.354,0.183,-0.122,15.038
142210,158498,13358,0.02,-0.977,-0.233,-3.354,0.183,-0.122,15.045
142333,158659,13990,0.022,-0.949,-0.214,-0.244,0.427,0.061,15.048
142333,158622,13367,0.013,-0.919,-0.216,-0.244,0.427,0.061,15.054
142474,158915,13990,0.004,-0.93,-0.224,0.366,0.732,1.037,15.058
142474,158761,13393,0.009,-0.953,-0.231,0.366,0.732,1.037,15.064
142593,158915,13990,0.023,-0.956,-0.227,1.463,0.793,0.488,15.068
142593,158838,13387,0.026,-0.936,-0.205,1.463,0.793,0.488,15.074
142612,158915,13990,0.015,-0.915,-0.2,1.768,0.488,0.61,15.078
142612,158872,13401,0.006,-0.92,-0.207,1.768,0.488,0.61,15.084
142520,158915,13990,0.011,-0.94,-0.204,0.244,0.366,1.159,15.088
142520,158769,13396,0.022,-0.944,-0.212,0.244,0.366,1.159,15.094
142316,158659,13990,0.026,-0.947,-0.226,-1.402,-0.244,0.183,15.098
142316,158580,13359,0.021,-0.955,-0.231,-1.402,-0.244,0.183,15.104
142189,158659,13990,0.018,-0.953,-0.214,-1.951,-0.122,0.427,15.108
142189,158495,13345,0.01,-0.936,-0.182,-1.951,-0.122,0.427,15.114
142192,158659,13990,0.009,-0.916,-0.185,-2.195,-0.305,0.915,15.118
142192,158502,13357,0.009,-0.918,-0.232,-2.195,-0.305,0.915,15.124
142197,158659,13990,0.014,-0.957,-0.249,-4.573,0.061,0.305,15.127
142197,158522,13364,0.022,-0.978,-0.246,-4.573,0.061,0.305,15.134
142278,158659,13990,0.027,-0.967,-0.253,-1.768,0.305,-0.305,15.137
142278,158602,13359,0.023,-0.949,-0.252,-1.768,0.305,-0.305,15.144
142412,158659,13990,0.012,-0.947,-0.241,2.012,0.793,1.159,15.147
142412,158711,13386,0.008,-0.945,-0.23,2.012,0.793,1.159,15.153
142469,158915,13990,0.012,-0.934,-0.213,5.305,1.037,1.951,15.157
142469,158750,13398,0.013,-0.927,-0.202,5.305,1.037,1.951,15.163
142578,158915,13990,0.01,-0.925,-0.201,5.366,0.854,1.463,15.167
142578,158840,13408,0.01,-0.93,-0.205,5.366,0.854,1.463,15.173
142627,158915,13990,0.012,-0.936,-0.198,3.049,0.427,0.976,15.177
142627,158875,13404,0.014,-0.935,-0.184,3.049,0.427,0.976,15.183
142545,158915,13990,0.008,-0.924,-0.159,0.244,-0.305,0.427,15.187
142545,158810,13396,0.004,-0.905,-0.164,0.244,-0.305,0.427,15.193
142477,158915,13990,0.003,-0.916,-0.202,-5.854,-0.61,-0.305,15.197
142477,158771,13408,0.014,-0.952,-0.248,-5.854,-0.61,-0.305,15.203
142411,158659,13990,0.03,-0.986,-0.28,-8.902,-0.671,-1.951,15.207
142411,158711,13397,0.037,-0.989,-0.272,-8.902,-0.671,-1.951,15.213
142356,158659,13990,0.031,-0.961,-0.267,-3.232,0.183,-1.524,15.217
142356,158647,13376,0.016,-0.94,-0.266,-3.232,0.183,-1.524,15.223
142355,158659,13990,0.013,-0.949,-0.257,3.598,1.768,0.976,15.226
142355,158688,13371,0.016,-0.956,-0.234,3.598,1.768,0.976,15.233
142437,158659,13990,0.023,-0.94,-0.221,8.841,2.256,1.463,15.236
142437,158688,13381,0.02,-0.93,-0.201,8.841,2.256,1.463,15.243
142489,158915,13990,0.006,-0.931,-0.163,9.451,2.134,1.951,15.246
142489,158764,13406,0.001,-0.915,-0.149,9.451,2.134,1.951,15.252
142562,158915,13990,0.002,-0.901,-0.174,5.061,1.463,2.012,15.256
142562,158833,13410,0.007,-0.925,-0.186,5.061,1.463,2.012,15.262
142596,158915,13990,0.012,-0.952,-0.175,-0.915,0.427,0.305,15.266
142596,158840,13416,0.02,-0.936,-0.174,-0.915,0.427,0.305,15.272
142557,158915,13990,0.015,-0.913,-0.193,-5.732,-0.305,-0.61,15.276
142557,158809,13417,0.006,-0.922,-0.216,-5.732,-0.305,-0.61,15.282
142484,158915,13990,0.009,-0.958,-0.232,-9.146,-0.671,-0.854,15.286
142484,158743,13404,0.023,-0.975,-0.248,-9.146,-0.671,-0.854,15.292
142431,158915,13990,0.028,-0.965,-0.267,-7.5,-0.671,-1.585,15.296
142431,158732,13382,0.026,-0.96,-0.273,-7.5,-0.671,-1.585,15.302
142360,158659,13990,0.017,-0.963,-0.258,-2.744,0.061,-0.244,15.306
142360,158668,13388,0.016,-0.962,-0.238,-2.744,0.061,-0.244,15.312
142418,158659,13990,0.015,-0.942,-0.218,3.354,0.427,1.159,15.316
142418,158706,13397,0.013,-0.922,-0.185,3.354,0.427,1.159,15.322
142412,158659,13990,0.005,-0.909,-0.165,3.354,0.488,1.402,15.326
142412,158669,13400,-0.001,-0.904,-0.189,3.354,0.488,1.402,15.332
142436,158915,13990,-0.001,-0.904,-0.189,3.354,0.488,1.402,15.335
142436,158728,13396,0.018,-0.958,-0.213,-1.341,0.366,0.61,15.342
142538,158915,13990,0.018,-0.958,-0.213,-1.341,0.366,0.61,15.345
142538,158815,13419,0.021,-0.932,-0.218,-3.476,-0.061,-0.793,15.351
142576,158915,13990,0.021,-0.932,-0.218,-3.476,-0.061,-0.793,15.355
142576,158827,13420,0.012,-0.951,-0.216,-4.512,0.061,-0.244,15.361
142616,158915,13990,0.012,-0.951,-0.216,-4.512,0.061,-0.244,15.365
142616,158854,13416,0.023,-0.953,-0.237,-4.939,0.244,-0.244,15.371
142615,158915,13990,0.023,-0.953,-0.237,-4.939,0.244,-0.244,15.375
142615,158838,13426,0.02,-0.943,-0.252,-4.756,0.366,-0.793,15.381
142551,158915,13990,0.02,-0.943,-0.252,-4.756,0.366,-0.793,15.385
142551,158794,13412,0.012,-0.946,-0.202,-3.354,0.61,-0.061,15.391
142392,158659,13990,0.012,-0.946,-0.202,-3.354,0.61,-0.061,15.395
142392,158719,13392,0.001,-0.904,-0.17,-2.195,0.366,0.549,15.401
142358,158659,13990,0.001,-0.904,-0.17,-2.195,0.366,0.549,15.405
142358,158641,13408,0.008,-0.943,-0.223,-5.854,-0.305,0,15.411
142343,158659,13990,0.008,-0.943,-0.223,-5.854,-0.305,0,15.415
142343,158628,13385,0.024,-0.959,-0.216,-8.11,-0.915,-1.159,15.421
142345,158659,13990,0.024,-0.959,-0.216,-8.11,-0.915,-1.159,15.424
142345,158656,13390,0.013,-0.906,-0.232,-7.073,-1.402,-0.854,15.431
142435,158915,13990,0.013,-0.906,-0.232,-7.073,-1.402,-0.854,15.434
142435,158754,13411,0.025,-0.982,-0.287,-6.707,-1.037,0.244,15.441
142545,158915,13990,0.025,-0.982,-0.287,-6.707,-1.037,0.244,15.444
142545,158824,13412,0.035,-0.965,-0.268,-2.5,-0.366,-0.366,15.45
142577,158915,13990,0.035,-0.965,-0.268,-2.5,-0.366,-0.366,15.454
142577,158864,13398,0.013,-0.931,-0.234,2.622,0.793,0.671,15.46
142499,158915,13990,0.013,-0.931,-0.234,2.622,0.793,0.671,15.464
142499,158770,13400,0.02,-0.94,-0.242,5.122,1.402,2.073,15.47
142238,158659,13990,0.02,-0.94,-0.242,5.122,1.402,2.073,15.474
142238,158594,13376,0.022,-0.935,-0.203,5.366,1.341,1.341,15.48
142125,158659,13990,0.022,-0.935,-0.203,5.366,1.341,1.341,15.484
142125,158470,13348,0.012,-0.909,-0.192,4.878,1.22,1.463,15.49
141997,158403,13990,0.003,-0.905,-0.192,4.878,1.22,1.463,15.494
141997,158351,13351,0.004,-0.927,-0.205,2.256,0.671,1.707,15.5
142014,158403,13990,0.012,-0.947,-0.215,2.256,0.671,1.707,15.504
142014,158399,13358,0.022,-0.95,-0.223,0.061,0.061,0.427,15.51
142208,158659,13990,0.018,-0.945,-0.219,0.061,0.061,0.427,15.514
142208,158577,13373,0.009,-0.947,-0.214,-0.305,0.244,0.488,15.52
142413,158915,13990,0.008,-0.944,-0.222,-0.305,0.244,0.488,15.524
142413,158738,13395,0.012,-0.945,-0.229,-0.549,0.366,0.915,15.53
142486,158915,13990,0.017,-0.956,-0.236,-0.549,0.366,0.915,15.533
142486,158809,13392,0.017,-0.952,-0.234,-0.183,0.366,0.732,15.54
142504,158915,13990,0.016,-0.938,-0.213,-0.183,0.366,0.732,15.543
142504,158808,13384,0.012,-0.923,-0.202,0.549,0.366,1.22,15.549
142323,158659,13990,0.008,-0.92,-0.197,0.549,0.366,1.22,15.553
142323,158654,13380,0.007,-0.925,-0.203,-0.793,0.122,1.159,15.559
142154,158659,13990,0.01,-0.94,-0.224,-0.793,0.122,1.159,15.563
142154,158504,13353,0.013,-0.945,-0.223,-2.683,-0.061,0.244,15.569
142052,158403,13990,0.013,-0.941,-0.215,-2.683,-0.061,0.244,15.573
142052,158429,13334,0.013,-0.932,-0.22,-3.11,-0.061,-0.061,15.579
142049,158403,13990,0.01,-0.939,-0.234,-3.11,-0.061,-0.061,15.583
142049,158421,13340,0.016,-0.952,-0.243,-3.293,0.122,-0.305,15.589
142090,158659,13990,0.022,-0.953,-0.243,-3.293,0.122,-0.305,15.593
142090,158481,13343,0.022,-0.946,-0.242,-2.012,0.244,-0.427,15.599
142176,158659,13990,0.017,-0.943,-0.243,-2.012,0.244,-0.427,15.603
142176,158541,13360,0.016,-0.944,-0.242,0.366,0.488,0.366,15.609
142291,158659,13990,0.019,-0.944,-0.246,0.366,0.488,0.366,15.613
142291,158638,13376,0.023,-0.944,-0.242,2.561,0.61,0.793,15.619
142312,158659,13990,0.02,-0.948,-0.227,2.561,0.61,0.793,15.623
142312,158641,13376,0.018,-0.94,-0.208,4.329,0.671,1.159,15.629
142226,158659,13990,0.014,-0.922,-0.206,4.329,0.671,1.159,15.632
142226,158571,13360,0.011,-0.927,-0.219,2.744,0.732,1.341,15.639
142180,158659,13990,0.015,-0.949,-0.225,2.744,0.732,1.341,15.642
142180,158533,13350,0.019,-0.952,-0.207,1.646,0.549,0.732,15.649
142196,158659,13990,0.016,-0.934,-0.193,1.646,0.549,0.732,15.652
142196,158604,13355,0.009,-0.918,-0.195,-0.061,0.366,0.671,15.658
142392,158915,13990,0.004,-0.927,-0.208,-0.061,0.366,0.671,15.662
142392,158776,13372,0.009,-0.944,-0.215,-2.866,0.366,0.366,15.668
142570,158915,13990,0.017,-0.949,-0.222,-2.866,0.366,0.366,15.672
142570,158957,13400,0.021,-0.941,-0.232,-3.841,-0.122,-0.366,15.678
142676,159171,13990,0.014,-0.943,-0.245,-3.841,-0.122,-0.366,15.682
142676,159042,13405,0.015,-0.953,-0.251,-2.622,0.122,0.183,15.688
142710,159171,13990,0.016,-0.958,-0.248,-2.622,0.122,0.183,15.692
142710,159048,13411,0.018,-0.956,-0.259,0.549,0.366,0.488,15.698
142502,158915,13990,0.021,-0.956,-0.262,0.549,0.366,0.488,15.702
142502,158858,13376,0.018,-0.958,-0.232,3.841,0.671,0.915,15.708
142253,158659,13990,0.016,-0.939,-0.188,3.841,0.671,0.915,15.712
142253,158689,13357,0.009,-0.904,-0.194,4.756,0.854,1.646,15.718
142232,158659,13990,0.003,-0.907,-0.211,4.756,0.854,1.646,15.722
142232,158642,13362,0.007,-0.936,-0.2,1.524,0.671,1.098,15.728
142206,158659,13990,0.018,-0.941,-0.19,1.524,0.671,1.098,15.731
142206,158614,13357,0.021,-0.924,-0.207,-0.976,-0.122,0.061,15.738
142251,158659,13990,0.013,-0.923,-0.215,-0.976,-0.122,0.061,15.741
142251,158684,13376,0.005,-0.946,-0.213,-3.78,-0.122,-0.061,15.748
142463,158915,13990,0.012,-0.955,-0.221,-3.78,-0.122,-0.061,15.751
142463,158858,13383,0.017,-0.95,-0.246,-4.878,-0.305,-0.671,15.757
142594,159171,13990,0.022,-0.958,-0.271,-4.878,-0.305,-0.671,15.761
142594,158994,13385,0.023,-0.968,-0.276,-3.354,0.122,-0.732,15.767
142594,159171,13990,0.022,-0.961,-0.264,-3.354,0.122,-0.732,15.771
142594,158988,13413,0.019,-0.944,-0.23,2.622,0.732,0.61,15.777
142664,159171,13990,0.013,-0.924,-0.211,2.622,0.732,0.61,15.781
142664,159021,13387,0.01,-0.922,-0.22,5.427,1.037,1.89,15.787
142597,159171,13990,0.011,-0.935,-0.211,5.427,1.037,1.89,15.791
142597,158988,13399,0.011,-0.94,-0.191,4.39,1.098,1.463,15.797
142590,158915,13990,0.012,-0.923,-0.18,4.39,1.098,1.463,15.801
142590,158972,13398,0.006,-0.911,-0.19,0.549,0.488,0.976,15.807
142623,159171,13990,0.006,-0.926,-0.215,0.549,0.488,0.976,15.811
142623,159003,13404,0.012,-0.956,-0.219,-2.927,0.122,0.244,15.817
142654,159171,13990,0.02,-0.957,-0.218,-2.927,0.122,0.244,15.821
142654,159014,13397,0.021,-0.943,-0.231,-3.72,0,-0.61,15.827
142623,159171,13990,0.014,-0.94,-0.247,-3.72,0,-0.61,15.83
142623,158995,13388,0.014,-0.952,-0.249,-3.293,0.366,-0.061,15.837
142625,159171,13990,0.02,-0.957,-0.252,-3.293,0.366,-0.061,15.84
142625,159020,13400,0.023,-0.957,-0.263,0,0.366,0.183,15.847
142558,158915,13990,0.019,-0.953,-0.25,0,0.366,0.183,15.85
142558,158931,13377,0.015,-0.945,-0.212,4.024,0.671,1.037,15.856
142450,158915,13990,0.012,-0.924,-0.192,4.024,0.671,1.037,15.86
142450,158858,13372,0.005,-0.913,-0.176,4.512,0.488,1.89,15.866
142388,158915,13990,-0,-0.907,-0.169,4.512,0.488,1.89,15.87
142388,158778,13362,0.006,-0.913,-0.208,-0.244,0.122,1.28,15.876
142325,158915,13990,0.014,-0.945,-0.236,-0.244,0.122,1.28,15.88
142325,158752,13356,0.02,-0.966,-0.229,-3.293,-0.061,-0.305,15.886
142369,158915,13990,0.02,-0.955,-0.231,-3.293,-0.061,-0.305,15.89
142369,158799,13376,0.014,-0.935,-0.236,-2.5,0.122,-0.244,15.896
142453,158915,13990,0.009,-0.929,-0.227,-2.5,0.122,-0.244,15.9
142453,158854,13395,0.009,-0.937,-0.23,-1.585,0.549,0.122,15.906
142537,158915,13990,0.017,-0.955,-0.243,-1.585,0.549,0.122,15.91
142537,158914,13388,0.023,-0.965,-0.256,-0.183,0.793,-0.488,15.916
142684,159171,13990,0.024,-0.957,-0.251,-0.183,0.793,-0.488,15.92
142684,159012,13402,0.019,-0.947,-0.225,2.5,0.915,0.244,15.926
142726,159171,13990,0.013,-0.934,-0.207,2.5,0.915,0.244,15.929
142726,159035,13411,0.012,-0.92,-0.209,3.78,0.793,1.585,15.936
142676,159171,13990,0.012,-0.92,-0.209,3.78,0.793,1.585,15.939
142676,159027,13413,0.006,-0.943,-0.207,2.317,0.427,1.28,15.946
142616,158915,13990,0.006,-0.943,-0.207,2.317,0.427,1.28,15.949
142616,158969,13399,0.02,-0.95,-0.216,0.793,0.122,0.427,15.955
142554,158915,13990,0.02,-0.95,-0.216,0.793,0.122,0.427,15.959
142554,158908,13384,0.009,-0.924,-0.197,-0.183,0,0.549,15.965
142497,158915,13990,0.009,-0.924,-0.197,-0.183,0,0.549,15.969
142497,158876,13390,0.004,-0.936,-0.219,-2.439,-0.061,0.183,15.975
142580,158915,13990,0.004,-0.936,-0.219,-2.439,-0.061,0.183,15.979
142580,158915,13402,0.023,-0.948,-0.227,-3.171,-0.183,-0.915,15.985
142651,159171,13990,0.023,-0.948,-0.227,-3.171,-0.183,-0.915,15.989
142651,159016,13408,0.014,-0.938,-0.229,-2.927,0.122,-0.61,15.995
142757,159171,13990,0.014,-0.938,-0.229,-2.927,0.122,-0.61,15.999
142757,159086,13419,0.017,-0.946,-0.245,-1.89,0.305,-0.122,16.005
142807,159171,13990,0.017,-0.946,-0.245,-1.89,0.305,-0.122,16.009
142807,159113,13431,0.019,-0.95,-0.245,0.244,0.549,-0.183,16.015
142724,159171,13990,0.019,-0.95,-0.245,0.244,0.549,-0.183,16.019
142724,159045,13425,0.017,-0.948,-0.225,2.439,0.854,0.183,16.025
142608,158915,13990,0.017,-0.948,-0.225,2.439,0.854,0.183,16.028
142608,158952,13403,0.007,-0.914,-0.187,2.866,0.854,0.732,16.035
142538,158915,13990,0.007,-0.914,-0.187,2.866,0.854,0.732,16.038
142538,158879,13379,0.015,-0.953,-0.238,-0.061,0.915,0.183,16.045
142561,158915,13990,0.015,-0.953,-0.238,-0.061,0.915,0.183,16.048
142561,158891,13392,0.026,-0.953,-0.225,1.098,0.549,-0.305,16.054
142595,158915,13990,0.026,-0.953,-0.225,1.098,0.549,-0.305,16.058
142595,158916,13406,0.012,-0.943,-0.23,1.89,0.854,0.915,16.064
142743,159171,13990,0.012,-0.943,-0.23,1.89,0.854,0.915,16.068
142743,159086,13433,0.016,-0.943,-0.212,2.927,0.732,1.037,16.074
142916,159171,13990,0.016,-0.943,-0.212,2.927,0.732,1.037,16.078
142916,159196,13436,0.016,-0.936,-0.206,2.927,0.732,1.037,16.084
142909,159171,13990,0.013,-0.933,-0.213,2.012,0.549,0.61,16.088
142909,159212,13465,0.012,-0.934,-0.204,2.012,0.549,0.61,16.094
142870,159171,13990,0.01,-0.929,-0.186,-0.122,0.183,0.549,16.098
142870,159130,13420,0.007,-0.92,-0.18,-0.122,0.183,0.549,16.104
142698,159171,13990,0.005,-0.92,-0.175,-3.72,-0.427,0.122,16.108
142698,159021,13426,0.006,-0.921,-0.206,-3.72,-0.427,0.122,16.114
142637,159171,13990,0.014,-0.942,-0.255,-7.744,-0.793,-0.854,16.118
142637,158981,13414,0.019,-0.974,-0.271,-7.744,-0.793,-0.854,16.124
142691,159171,13990,0.027,-0.979,-0.255,-5.183,-0.549,-1.341,16.128
142691,159033,13409,0.027,-0.953,-0.254,-5.183,-0.549,-1.341,16.134
142749,159171,13990,0.015,-0.937,-0.268,-0.671,0.549,0.061,16.137
142749,159119,13428,0.013,-0.949,-0.273,-0.671,0.549,0.061,16.144
142794,159171,13990,0.02,-0.963,-0.258,3.78,1.402,0.732,16.147
142794,159149,13428,0.029,-0.952,-0.23,3.78,1.402,0.732,16.153
142818,159171,13990,0.02,-0.926,-0.206,7.683,1.463,1.037,16.157
142818,159158,13443,0.009,-0.914,-0.194,7.683,1.463,1.037,16.163
142798,159171,13990,0.004,-0.922,-0.19,6.159,1.28,2.012,16.167
142798,159107,13444,0.009,-0.925,-0.17,6.159,1.28,2.012,16.173
142645,159171,13990,0.011,-0.92,-0.164,1.951,0.122,1.28,16.177
142645,158976,13410,0.009,-0.917,-0.182,1.951,0.122,1.28,16.183
142587,158915,13990,0.008,-0.927,-0.203,-4.39,-0.549,0.061,16.187
142587,158967,13414,0.013,-0.95,-0.222,-4.39,-0.549,0.061,16.193
142633,159171,13990,0.017,-0.962,-0.239,-7.439,-0.732,-1.098,16.197
142633,158988,13422,0.021,-0.961,-0.251,-7.439,-0.732,-1.098,16.203
142680,159171,13990,0.021,-0.954,-0.247,-6.341,-0.427,-1.22,16.207
142680,159052,13419,0.016,-0.949,-0.25,-6.341,-0.427,-1.22,16.213
142752,159171,13990,0.013,-0.95,-0.251,-2.866,0.427,-0.244,16.217
142752,159086,13435,0.014,-0.956,-0.245,-2.866,0.427,-0.244,16.223
142858,159171,13990,0.019,-0.946,-0.228,0.854,0.671,0.244,16.227
142858,159192,13436,0.017,-0.932,-0.2,0.854,0.671,0.244,16.233
142886,159171,13990,0.01,-0.916,-0.206,2.317,0.732,0.854,16.236
142886,159204,13426,0.006,-0.92,-0.232,2.317,0.732,0.854,16.243
142789,159171,13990,0.014,-0.952,-0.224,1.037,0.549,0.793,16.246
142789,159145,13430,0.022,-0.954,-0.203,1.037,0.549,0.793,16.253
142744,159171,13990,0.021,-0.921,-0.199,0.671,0.061,0.244,16.256
142744,159086,13435,0.007,-0.922,-0.219,0.671,0.061,0.244,16.262
142642,159171,13990,0.01,-0.948,-0.233,-2.134,0.183,0.244,16.266
142642,159010,13394,0.023,-0.955,-0.238,-2.134,0.183,0.244,16.272
142525,158915,13990,0.029,-0.943,-0.228,-2.256,0.061,-0.427,16.276
142525,158925,13402,0.018,-0.931,-0.232,-2.256,0.061,-0.427,16.282
142494,158915,13990,0.009,-0.93,-0.234,-1.159,0.427,0.183,16.286
142494,158913,13393,0.013,-0.944,-0.228,-1.159,0.427,0.183,16.292
142528,158915,13990,0.02,-0.947,-0.233,0.427,0.61,0.488,16.296
142528,158901,13404,0.024,-0.939,-0.24,0.427,0.61,0.488,16.302
142546,158915,13990,0.023,-0.939,-0.249,1.28,0.61,0.488,16.306
142546,158973,13403,0.014,-0.954,-0.25,1.28,0.61,0.488,16.312
142565,159171,13990,0.016,-0.966,-0.242,3.902,1.037,0.915,16.316
142565,158993,13407,0.014,-0.96,-0.212,3.902,1.037,0.915,16.322
142648,159171,13990,0.011,-0.933,-0.184,5.366,0.976,1.22,16.326
142648,159027,13416,0.003,-0.911,-0.192,5.366,0.976,1.22,16.332
142644,159171,13990,0.002,-0.918,-0.208,2.134,0.915,1.098,16.335
142644,159028,13419,0.006,-0.948,-0.206,2.134,0.915,1.098,16.342
142691,159171,13990,0.013,-0.954,-0.192,0.183,0.122,0.122,16.345
142691,159053,13433,0.018,-0.941,-0.187,0.183,0.122,0.122,16.351
142771,159171,13990,0.01,-0.921,-0.193,-2.134,-0.671,0,16.355
142771,159135,13419,0.003,-0.918,-0.205,-2.134,-0.671,0,16.361
142813,159171,13990,0.008,-0.933,-0.219,-5.488,-0.793,0,16.365
142813,159197,13431,0.017,-0.95,-0.233,-5.488,-0.793,0,16.371
142837,159171,13990,0.024,-0.959,-0.244,-5.732,-1.037,-1.098,16.375
142837,159162,13414,0.025,-0.954,-0.247,-5.732,-1.037,-1.098,16.381
142689,159171,13990,0.022,-0.942,-0.255,-4.024,-0.366,-0.549,16.385
142689,159037,13412,0.019,-0.947,-0.254,-4.024,-0.366,-0.549,16.391
142616,158915,13990,0.019,-0.958,-0.258,-1.22,0.488,0.122,16.395
142616,158943,13394,0.021,-0.961,-0.239,-1.22,0.488,0.122,16.401
142485,158915,13990,0.021,-0.938,-0.219,1.707,1.098,0.244,16.405
142485,158845,13387,0.016,-0.907,-0.216,1.707,1.098,0.244,16.411
142448,158915,13990,0.007,-0.912,-0.218,2.012,1.22,0.793,16.415
142448,158828,13384,0.01,-0.944,-0.221,2.012,1.22,0.793,16.421
142587,158915,13990,0.018,-0.95,-0.214,1.707,1.098,0.244,16.425
142587,158922,13408,0.021,-0.936,-0.215,1.707,1.098,0.244,16.431
142713,159171,13990,0.017,-0.935,-0.238,0.244,0.793,0,16.434
142713,159100,13429,0.016,-0.954,-0.245,0.244,0.793,0,16.441
142897,159171,13990,0.019,-0.965,-0.243,0.793,0.976,0.488,16.444
142897,159219,13446,0.024,-0.957,-0.23,0.793,0.976,0.488,16.451
142908,159171,13990,0.018,-0.94,-0.208,3.049,0.854,0.915,16.454
142908,159225,13447,0.009,-0.921,-0.204,3.049,0.854,0.915,16.46
142794,159171,13990,0.002,-0.923,-0.218,2.744,0.915,1.524,16.464
142794,159121,13439,0.011,-0.938,-0.22,2.744,0.915,1.524,16.47
142680,159171,13990,0.02,-0.947,-0.206,2.134,0.549,0.732,16.474
142680,158993,13403,0.018,-0.941,-0.196,2.134,0.549,0.732,16.48
142591,158915,13990,0.009,-0.927,-0.186,0.732,0.183,0.793,16.484
142591,158951,13400,0.001,-0.918,-0.165,0.732,0.183,0.793,16.49
142624,158915,13990,0,-0.914,-0.143,-4.085,-0.549,0.854,16.494
142624,158975,13414,-0.002,-0.902,-0.175,-4.085,-0.549,0.854,16.5
142749,159171,13990,0.009,-0.927,-0.241,-11.28,-1.402,-0.915,16.504
142749,159044,13427,0.02,-0.971,-0.288,-11.28,-1.402,-0.915,16.51
142851,159171,13990,0.035,-0.996,-0.311,-10.732,-1.22,-2.378,16.514
142851,159126,13451,0.039,-0.982,-0.309,-10.732,-1.22,-2.378,16.52
142997,159171,13990,0.028,-0.957,-0.294,-2.073,0.183,-0.854,16.524
142997,159212,13449,0.012,-0.95,-0.292,-2.073,0.183,-0.854,16.53
142965,159171,13990,0.012,-0.95,-0.292,-2.073,0.183,-0.854,16.533
142965,159182,13458,0.023,-0.953,-0.238,6.402,2.012,1.341,16.54
142906,159171,13990,0.023,-0.953,-0.238,6.402,2.012,1.341,16.543
142906,159118,13442,0.016,-0.923,-0.199,11.646,2.439,1.524,16.55
142820,159171,13990,0.016,-0.923,-0.199,11.646,2.439,1.524,16.553
142820,159058,13433,0.004,-0.902,-0.14,10.732,2.195,2.073,16.559
142749,159171,13990,0.004,-0.902,-0.14,10.732,2.195,2.073,16.563
142749,159012,13421,0.006,-0.899,-0.148,5.122,0.61,2.012,16.569
142728,159171,13990,0.006,-0.899,-0.148,5.122,0.61,2.012,16.573
142728,159004,13421,0.016,-0.952,-0.226,-4.451,-1.098,0.244,16.579
142767,159171,13990,0.016,-0.952,-0.226,-4.451,-1.098,0.244,16.583
142767,159057,13425,0.026,-0.977,-0.249,-9.207,-1.341,-1.768,16.589
142947,159171,13990,0.026,-0.977,-0.249,-9.207,-1.341,-1.768,16.593
142947,159214,13465,0.017,-0.96,-0.288,-7.866,-0.61,-1.402,16.599
143084,159427,13990,0.017,-0.96,-0.288,-7.866,-0.61,-1.402,16.603
143084,159339,13469,0.024,-0.965,-0.262,-3.11,0.549,-0.244,16.609
143244,159427,13990,0.024,-0.965,-0.262,-3.11,0.549,-0.244,16.613
143244,159443,13493,0.017,-0.912,-0.213,3.902,1.22,0.549,16.619
143315,159427,13990,0.017,-0.912,-0.213,3.902,1.22,0.549,16.623
143315,159475,13489,0.006,-0.929,-0.209,6.829,1.585,2.012,16.629
143182,159427,13990,0.006,-0.929,-0.209,6.829,1.585,2.012,16.632
143182,159366,13471,0.017,-0.934,-0.177,6.463,1.28,1.951,16.639
143022,159427,13990,0.017,-0.934,-0.177,6.463,1.28,1.951,16.642
143022,159243,13455,-0.001,-0.917,-0.178,3.11,0.366,1.28,16.649
142838,159171,13990,-0.001,-0.917,-0.178,3.11,0.366,1.28,16.652
142838,159123,13447,0.016,-0.95,-0.238,-3.598,-0.061,0.366,16.658
142687,159171,13990,0.016,-0.95,-0.238,-3.598,-0.061,0.366,16.662
142687,159005,13412,0.029,-0.97,-0.26,-6.89,-0.244,-1.463,16.668
142646,158915,13990,0.029,-0.97,-0.26,-6.89,-0.244,-1.463,16.672
142646,158967,13420,0.027,-0.951,-0.269,-4.207,0.183,-1.037,16.678
142613,158915,13990,0.018,-0.95,-0.263,-4.207,0.183,-1.037,16.682
142613,158975,13421,0.012,-0.955,-0.231,1.159,0.793,0.854,16.688
142574,158915,13990,0.012,-0.928,-0.191,1.159,0.793,0.854,16.692
142574,158969,13408,0.011,-0.9,-0.203,3.354,0.854,1.341,16.698
142645,159171,13990,0.009,-0.922,-0.237,3.354,0.854,1.341,16.702
142645,159012,13422,0.019,-0.969,-0.246,1.707,0.793,0.793,16.708
142639,159171,13990,0.031,-0.972,-0.218,1.707,0.793,0.793,16.712
142639,158993,13410,0.022,-0.93,-0.177,3.232,0.366,0.854,16.718
142670,159171,13990,-0,-0.898,-0.189,3.232,0.366,0.854,16.722
142670,159021,13406,-0.006,-0.922,-0.218,0.122,0.671,1.707,16.728
142747,159171,13990,0.013,-0.962,-0.232,0.122,0.671,1.707,16.731
142747,159082,13419,0.029,-0.97,-0.234,-1.524,0.366,-0.183,16.738
142799,159171,13990,0.026,-0.956,-0.231,-1.524,0.366,-0.183,16.741
142799,159151,13427,0.013,-0.937,-0.218,-0.671,0.61,0,16.748
142944,159427,13990,-0.001,-0.924,-0.188,-0.671,0.61,0,16.751
142944,159242,13451,-0.003,-0.915,-0.155,-1.037,0.183,1.098,16.757
142953,159427,13990,0.003,-0.906,-0.189,-1.037,0.183,1.098,16.761
142953,159234,13454,0.01,-0.933,-0.261,-6.402,-0.549,-0.549,16.767
142802,159171,13990,0.02,-0.98,-0.254,-6.402,-0.549,-0.549,16.771
142802,159145,13425,0.028,-0.97,-0.231,-5.305,-0.671,-1.463,16.777
142568,158915,13990,0.025,-0.931,-0.253,-5.305,-0.671,-1.463,16.781
142568,158913,13400,0.012,-0.938,-0.281,-2.195,-0.122,0.122,16.787
142369,158915,13990,0.01,-0.973,-0.282,-2.195,-0.122,0.122,16.791
142369,158763,13381,0.025,-0.975,-0.269,2.744,0.915,0.427,16.797
142208,158659,13990,0.029,-0.955,-0.247,2.744,0.915,0.427,16.801
142208,158586,13349,0.022,-0.935,-0.219,7.378,1.463,0.61,16.807
142285,158659,13990,0.009,-0.919,-0.206,7.378,1.463,0.61,16.811
142285,158687,13367,0.003,-0.917,-0.182,7.805,1.951,1.89,16.817
142528,158915,13990,0.009,-0.911,-0.16,7.805,1.951,1.89,16.821
142528,158907,13412,0.009,-0.908,-0.162,4.085,0.793,1.28,16.827
142780,159171,13990,0.008,-0.921,-0.17,4.085,0.793,1.28,16.83
142780,159169,13423,0.007,-0.938,-0.176,-1.829,-0.244,0,16.837
142938,159427,13990,0.01,-0.944,-0.201,-1.829,-0.244,0,16.84
142938,159248,13435,0.016,-0.95,-0.228,-6.707,-0.793,-1.037,16.847
142889,159171,13990,0.021,-0.959,-0.244,-6.707,-0.793,-1.037,16.85
142889,159205,13451,0.021,-0.961,-0.268,-7.134,-0.549,-1.28,16.856
142758,159171,13990,0.026,-0.967,-0.28,-7.134,-0.549,-1.28,16.86
142758,159078,13409,0.025,-0.968,-0.274,-2.378,0.305,-0.488,16.866
142466,158915,13990,0.022,-0.953,-0.265,-2.378,0.305,-0.488,16.87
142466,158856,13388,0.019,-0.945,-0.242,3.476,1.28,0.61,16.876
142366,158915,13990,0.016,-0.94,-0.226,3.476,1.28,0.61,16.88
142366,158779,13377,0.017,-0.929,-0.227,6.768,1.707,1.402,16.886
142395,158915,13990,0.012,-0.933,-0.219,6.768,1.707,1.402,16.89
142395,158808,13397,0.007,-0.938,-0.196,7.012,1.585,1.402,16.896
142503,158915,13990,0.006,-0.92,-0.186,7.012,1.585,1.402,16.9
142503,158922,13399,0.013,-0.911,-0.19,4.39,0.793,1.098,16.906
142695,159171,13990,0.012,-0.931,-0.177,4.39,0.793,1.098,16.91
142695,159127,13422,0.013,-0.933,-0.161,0.366,-0.122,0.305,16.916
142778,159171,13990,0.014,-0.92,-0.179,0.366,-0.122,0.305,16.92
142778,159131,13427,0.015,-0.928,-0.217,-5.61,-0.61,-0.549,16.926
142704,159171,13990,0.016,-0.96,-0.236,-5.61,-0.61,-0.549,16.929
142704,159089,13418,0.025,-0.972,-0.237,-7.561,-0.732,-1.28,16.936
142574,158915,13990,0.026,-0.956,-0.256,-7.561,-0.732,-1.28,16.939
142574,158968,13403,0.021,-0.956,-0.276,-5.183,-0.305,-0.488,16.946
142474,158915,13990,0.021,-0.976,-0.278,-5.183,-0.305,-0.488,16.949
142474,158855,13404,0.025,-0.973,-0.265,0.427,0.61,0.671,16.955
142434,158915,13990,0.023,-0.943,-0.233,0.427,0.61,0.671,16.959
142434,158879,13394,0.016,-0.921,-0.223,6.22,1.159,1.707,16.965
142471,158915,13990,0.01,-0.924,-0.23,6.22,1.159,1.707,16.969
142471,158916,13392,0.012,-0.934,-0.212,7.5,1.402,2.195,16.975
142613,159171,13990,0.014,-0.941,-0.185,7.5,1.402,2.195,16.979
142613,159024,13411,0.008,-0.925,-0.162,6.341,0.976,1.646,16.985
142711,159171,13990,-0,-0.903,-0.171,6.341,0.976,1.646,16.989
142711,159067,13420,0.001,-0.92,-0.193,0.671,0.427,1.098,16.995
142614,159171,13990,0.01,-0.948,-0.192,0.671,0.427,1.098,16.999
142614,159014,13421,0.017,-0.949,-0.193,-3.598,-0.061,-0.427,17.005
142640,159171,13990,0.014,-0.927,-0.21,-3.598,-0.061,-0.427,17.009
142640,159019,13415,0.01,-0.934,-0.246,-6.646,-0.244,-0.854,17.015
142575,159171,13990,0.017,-0.967,-0.254,-6.646,-0.244,-0.854,17.019
142575,158990,13418,0.024,-0.965,-0.254,-4.756,-0.244,-0.854,17.025
142500,158915,13990,0.027,-0.95,-0.26,-4.756,-0.244,-0.854,17.028
142500,158906,13394,0.024,-0.949,-0.255,-0.366,0.244,-0.122,17.035
142389,158915,13990,0.017,-0.956,-0.237,-0.366,0.244,-0.122,17.038
142389,158852,13380,0.017,-0.947,-0.229,3.841,0.793,0.976,17.045
142351,158915,13990,0.02,-0.938,-0.221,3.841,0.793,0.976,17.048
142351,158761,13368,0.017,-0.938,-0.208,4.756,0.793,1.22,17.054
142188,158659,13990,0.011,-0.934,-0.194,4.756,0.793,1.22,17.058
142188,158642,13353,0.011,-0.922,-0.176,3.232,0.61,1.341,17.064
142252,158915,13990,0.007,-0.913,-0.18,3.232,0.61,1.341,17.068
142252,158734,13376,0.009,-0.924,-0.203,-0.793,-0.061,0.915,17.074
142392,158915,13990,0.013,-0.944,-0.213,-0.793,-0.061,0.915,17.078
142392,158850,13409,0.02,-0.947,-0.213,-3.293,-0.549,-0.061,17.084
142601,159171,13990,0.021,-0.937,-0.224,-3.293,-0.549,-0.061,17.088
142601,159035,13416,0.016,-0.937,-0.232,-4.146,-0.305,-0.122,17.094
142718,159171,13990,0.012,-0.946,-0.229,-4.146,-0.305,-0.122,17.098
142718,159149,13446,0.016,-0.952,-0.237,-3.232,0,0.061,17.104
142722,159171,13990,0.02,-0.951,-0.253,-3.232,0,0.061,17.108
142722,159121,13437,0.022,-0.957,-0.262,-1.646,0.427,-0.183,17.114
142574,158915,13990,0.02,-0.966,-0.259,-1.646,0.427,-0.183,17.118
142574,158971,13403,0.019,-0.967,-0.244,2.439,1.037,0.549,17.124
142350,158915,13990,0.019,-0.967,-0.244,2.439,1.037,0.549,17.128
142350,158796,13375,0.016,-0.929,-0.217,5.732,1.341,1.585,17.134
