120832,141703,11506,-0.096,1.026,0.05,-0.854,-0.732,0.488,608.318
120829,141684,9298,-0.094,1.027,0.052,-0.854,-0.732,0.488,608.322
120829,141697,11516,-0.088,1.03,0.057,-0.366,-1.098,0.427,608.328
120853,141684,9298,-0.086,1.03,0.055,-0.366,-1.098,0.427,608.331
120853,141702,11516,-0.086,1.028,0.056,-0.244,-0.793,0.305,608.338
120865,141684,9298,-0.086,1.026,0.054,-0.244,-0.793,0.305,608.341
120865,141683,11509,-0.086,1.028,0.053,-0.244,-0.183,0.244,608.348
120859,141684,9298,-0.089,1.028,0.057,-0.244,-0.183,0.244,608.351
120859,141675,11515,-0.091,1.026,0.057,-0.244,0.366,0.183,608.357
120851,141684,9298,-0.093,1.027,0.054,-0.244,0.366,0.183,608.361
120851,141696,11500,-0.095,1.025,0.055,-0.366,0.61,0.244,608.367
120859,141684,9298,-0.094,1.023,0.06,-0.366,0.61,0.244,608.371
120859,141693,11513,-0.095,1.022,0.059,-0.671,0.671,0.366,608.377
120822,141684,9298,-0.1,1.02,0.056,-0.671,0.671,0.366,608.381
120822,141693,11519,-0.1,1.025,0.056,-0.61,0.671,0.488,608.387
120849,141684,9298,-0.099,1.025,0.052,-0.61,0.671,0.488,608.391
120849,141684,11520,-0.098,1.026,0.048,-0.366,0.488,0.488,608.397
120816,141684,9298,-0.101,1.029,0.052,-0.366,0.488,0.488,608.401
120816,141688,11529,-0.096,1.028,0.056,-0.488,0.244,0.549,608.407
120840,141684,9298,-0.094,1.029,0.057,-0.488,0.244,0.549,608.411
120840,141675,11513,-0.094,1.028,0.05,-0.122,0.061,0.488,608.417
120849,141684,9298,-0.092,1.029,0.053,-0.122,0.061,0.488,608.421
120849,141683,11504,-0.089,1.026,0.054,0,0,0.427,608.427
120861,141684,9298,-0.087,1.027,0.052,0,0,0.427,608.43
120861,141671,11512,-0.085,1.025,0.051,0,0.305,0.366,608.437
120835,141684,9298,-0.088,1.028,0.052,0,0.305,0.366,608.44
120835,141692,11526,-0.088,1.031,0.052,0.183,0.61,0.244,608.447
120834,141684,9298,-0.09,1.027,0.052,0.183,0.61,0.244,608.45
120834,141672,11518,-0.093,1.023,0.052,0.488,1.159,0.061,608.456
120845,141684,9298,-0.097,1.026,0.054,0.488,1.159,0.061,608.46
120845,141689,11509,-0.095,1.028,0.05,0.61,1.402,-0.061,608.466
120838,141684,9298,-0.095,1.026,0.051,0.61,1.402,-0.061,608.47
120838,141683,11519,-0.099,1.026,0.049,0.366,1.22,0.122,608.476
120841,141684,9298,-0.099,1.026,0.047,0.366,1.22,0.122,608.48
120841,141660,11506,-0.101,1.024,0.047,0.061,0.732,0.183,608.486
120835,141684,9298,-0.101,1.024,0.047,0.061,0.732,0.183,608.49
120835,141685,11508,-0.094,1.027,0.051,-0.244,0.122,0.244,608.496
120811,141684,9298,-0.094,1.027,0.051,-0.244,0.122,0.244,608.5
120811,141692,11505,-0.092,1.028,0.051,-0.061,-0.061,0.183,608.506
120827,141684,9298,-0.092,1.028,0.051,-0.061,-0.061,0.183,608.51
120827,141707,11509,-0.086,1.027,0.051,0,0.183,0.122,608.516
120853,141684,9298,-0.086,1.027,0.051,0,0.183,0.122,608.52
120853,141708,11509,-0.091,1.024,0.049,0,0.61,0.244,608.526
120837,141684,9298,-0.091,1.024,0.049,0,0.61,0.244,608.529
120837,141698,11521,-0.095,1.028,0.052,0.122,0.854,0.183,608.536
120829,141684,9298,-0.095,1.028,0.052,0.122,0.854,0.183,608.539
120829,141700,11503,-0.099,1.029,0.055,0.183,0.915,0.122,608.545
120837,141684,9298,-0.099,1.029,0.055,0.183,0.915,0.122,608.549
120837,141692,11504,-0.095,1.031,0.055,0.122,0.732,0.244,608.555
120846,141684,9298,-0.095,1.031,0.055,0.122,0.732,0.244,608.559
120846,141681,11495,-0.092,1.027,0.054,0,0.61,0.122,608.565
120828,141684,9298,-0.092,1.027,0.054,0,0.61,0.122,608.569
120828,141672,11508,-0.092,1.022,0.051,-0.183,0.488,0.122,608.575
120834,141684,9298,-0.092,1.022,0.051,-0.183,0.488,0.122,608.579
120834,141690,11515,-0.095,1.025,0.051,-0.244,0.549,0.305,608.585
120838,141684,9298,-0.095,1.025,0.051,-0.244,0.549,0.305,608.589
120838,141708,11513,-0.099,1.025,0.05,-0.122,0.732,0.183,608.595
120838,141684,9298,-0.099,1.025,0.05,-0.122,0.732,0.183,608.599
120838,141708,11489,-0.096,1.025,0.052,0.305,0.732,0.122,608.605
120833,141684,9298,-0.096,1.025,0.052,0.305,0.732,0.122,608.609
120833,141725,11510,-0.095,1.031,0.048,0.488,0.732,0.061,608.615
120869,141684,9298,-0.095,1.031,0.048,0.488,0.732,0.061,608.618
120869,141718,11497,-0.094,1.029,0.051,0.427,0.793,0.122,608.625
120859,141684,9298,-0.094,1.029,0.051,0.427,0.793,0.122,608.628
120859,141745,11501,-0.093,1.026,0.054,0.427,0.793,0.122,608.635
120849,141684,9298,-0.093,1.028,0.053,0,0.793,0.305,608.638
120849,141728,11487,-0.092,1.027,0.052,0,0.793,0.305,608.644
120857,141684,9298,-0.091,1.026,0.05,-0.244,0.671,0.366,608.648
120857,141728,11524,-0.093,1.025,0.051,-0.244,0.671,0.366,608.654
120847,141684,9298,-0.096,1.025,0.047,-0.427,0.854,0.244,608.658
120847,141714,11517,-0.097,1.022,0.049,-0.427,0.854,0.244,608.664
120842,141684,9298,-0.095,1.024,0.048,-0.183,0.854,0.122,608.668
120842,141704,11508,-0.095,1.025,0.05,-0.183,0.854,0.122,608.674
120831,141684,9298,-0.096,1.023,0.052,0.305,0.549,0.122,608.678
120831,141696,11510,-0.095,1.024,0.047,0.305,0.549,0.122,608.684
120836,141684,9298,-0.097,1.027,0.051,0.244,0.366,0.122,608.688
120836,141709,11513,-0.096,1.028,0.048,0.244,0.366,0.122,608.694
120838,141684,9298,-0.098,1.031,0.047,0.183,0.366,0.244,608.698
120838,141711,11517,-0.095,1.029,0.049,0.183,0.366,0.244,608.704
120844,141684,9298,-0.093,1.029,0.048,0.061,0.61,0.244,608.708
120844,141725,11513,-0.093,1.026,0.048,0.061,0.61,0.244,608.714
120849,141684,9298,-0.093,1.027,0.048,-0.183,0.671,0.305,608.717
120849,141719,11501,-0.091,1.028,0.05,-0.183,0.671,0.305,608.724
120859,141684,9298,-0.095,1.024,0.046,-0.549,0.488,0.549,608.727
120859,141733,11498,-0.098,1.022,0.05,-0.549,0.488,0.549,608.734
120843,141684,9298,-0.095,1.025,0.047,-0.732,0.427,0.61,608.737
120843,141727,11517,-0.097,1.025,0.047,-0.732,0.427,0.61,608.743
120831,141684,9298,-0.099,1.026,0.048,-0.549,0.366,0.427,608.747
120831,141729,11494,-0.097,1.027,0.048,-0.549,0.366,0.427,608.753
120834,141684,9298,-0.093,1.025,0.049,-0.366,0.183,0.427,608.757
120834,141709,11523,-0.098,1.023,0.05,-0.366,0.183,0.427,608.763
120825,141684,9298,-0.095,1.026,0.053,-0.671,-0.244,0.61,608.767
120825,141713,11509,-0.092,1.027,0.051,-0.671,-0.244,0.61,608.773
120828,141684,9298,-0.091,1.026,0.048,-0.854,-0.488,0.549,608.777
120828,141708,11510,-0.092,1.029,0.048,-0.854,-0.488,0.549,608.783
120839,141684,9298,-0.091,1.031,0.051,-0.671,-0.305,0.366,608.787
120839,141690,11510,-0.091,1.026,0.052,-0.671,-0.305,0.366,608.793
120845,141684,9298,-0.094,1.03,0.054,-0.427,0.244,0.305,608.797
120845,141722,11516,-0.093,1.028,0.052,-0.427,0.244,0.305,608.803
120852,141684,9298,-0.095,1.026,0.052,-0.183,0.488,0.427,608.807
120852,141705,11505,-0.094,1.027,0.049,-0.183,0.488,0.427,608.813
120843,141684,9298,-0.091,1.026,0.048,-0.366,0.488,0.488,608.816
120843,141693,11500,-0.093,1.027,0.053,-0.366,0.488,0.488,608.823
120835,141684,9298,-0.094,1.026,0.052,-0.305,0.366,0.488,608.826
120835,141700,11519,-0.091,1.027,0.052,-0.305,0.366,0.488,608.833
120823,141684,9298,-0.092,1.025,0.052,-0.183,0.305,0.488,608.836
120823,141701,11506,-0.094,1.026,0.052,-0.183,0.305,0.488,608.842
120836,141684,9298,-0.093,1.025,0.051,-0.488,0.488,0.427,608.846
120836,141705,11499,-0.094,1.025,0.052,-0.488,0.488,0.427,608.852
120820,141684,9298,-0.097,1.024,0.053,-0.732,0.671,0.488,608.856
120820,141706,11509,-0.098,1.024,0.049,-0.732,0.671,0.488,608.862
120830,141684,9298,-0.096,1.025,0.052,-0.61,0.488,0.61,608.866
120830,141703,11514,-0.097,1.023,0.054,-0.61,0.488,0.61,608.872
120823,141684,9298,-0.099,1.023,0.052,-0.305,0.366,0.61,608.876
120823,141715,11507,-0.095,1.027,0.046,-0.305,0.366,0.61,608.882
120829,141684,9298,-0.095,1.027,0.049,-0.122,0.366,0.61,608.886
120829,141689,11512,-0.094,1.029,0.052,-0.122,0.366,0.61,608.892
120811,141684,9298,-0.092,1.028,0.049,0.244,0.61,0.427,608.896
120811,141684,11508,-0.094,1.029,0.048,0.244,0.61,0.427,608.902
120820,141684,9298,-0.095,1.028,0.051,0.427,0.732,0.244,608.906
120820,141722,11509,-0.098,1.028,0.053,0.427,0.732,0.244,608.912
120821,141684,9298,-0.094,1.031,0.052,0.122,0.61,0.305,608.915
120821,141725,11514,-0.099,1.032,0.051,0.122,0.61,0.305,608.922
120840,141684,9298,-0.098,1.029,0.049,-0.305,0.427,0.305,608.925
120840,141712,11507,-0.098,1.029,0.05,-0.305,0.427,0.305,608.932
120835,141684,9298,-0.098,1.026,0.052,-0.427,0.122,0.122,608.935
120835,141701,11500,-0.095,1.024,0.051,-0.427,0.122,0.122,608.941
120834,141684,9298,-0.092,1.026,0.052,-0.549,-0.183,0.122,608.945
120834,141712,11505,-0.088,1.022,0.047,-0.549,-0.183,0.122,608.951
120829,141684,9298,-0.089,1.023,0.048,-0.61,-0.061,0.183,608.955
120829,141694,11498,-0.092,1.023,0.051,-0.61,-0.061,0.183,608.961
120831,141684,9298,-0.096,1.022,0.047,-0.183,0.488,0.122,608.965
120831,141706,11501,-0.095,1.02,0.048,-0.183,0.488,0.122,608.971
120832,141684,9298,-0.094,1.021,0.05,0.061,0.732,0.183,608.975
120832,141702,11505,-0.096,1.022,0.048,0.061,0.732,0.183,608.981
120826,141684,9298,-0.098,1.024,0.053,0.122,0.732,0.305,608.985
120826,141695,11502,-0.098,1.03,0.051,0.122,0.732,0.305,608.991
120823,141684,9298,-0.095,1.028,0.051,-0.122,0.427,0.366,608.995
120823,141704,11511,-0.093,1.032,0.048,-0.122,0.427,0.366,609.001
120818,141684,9298,-0.093,1.031,0.051,-0.549,0.244,0.366,609.005
120818,141694,11522,-0.095,1.027,0.051,-0.549,0.244,0.366,609.011
120817,141684,9298,-0.094,1.029,0.049,-0.976,0.244,0.366,609.014
120817,141696,11512,-0.092,1.029,0.049,-0.976,0.244,0.366,609.021
120818,141684,9298,-0.093,1.028,0.05,-0.976,0.244,0.427,609.024
120818,141706,11510,-0.096,1.026,0.051,-0.976,0.244,0.427,609.031
120822,141684,9298,-0.099,1.028,0.052,-0.915,0.305,0.366,609.034
120822,141681,11512,-0.098,1.027,0.049,-0.915,0.305,0.366,609.04
120814,141684,9298,-0.097,1.027,0.047,-0.488,0.366,0.305,609.044
120814,141716,11516,-0.098,1.025,0.049,-0.488,0.366,0.305,609.05
120831,141684,9298,-0.096,1.023,0.052,0.061,0.366,0.244,609.054
120831,141730,11502,-0.099,1.026,0.056,0.061,0.366,0.244,609.06
120808,141684,9298,-0.095,1.027,0.053,0.122,0.366,0.244,609.064
120808,141701,11508,-0.096,1.026,0.052,0.122,0.366,0.244,609.07
120811,141684,9298,-0.096,1.026,0.052,0.122,0.366,0.244,609.074
120811,141704,11511,-0.094,1.026,0.049,-0.061,0.427,0.305,609.08
120829,141684,9298,-0.094,1.026,0.049,-0.061,0.427,0.305,609.084
120829,141689,11512,-0.096,1.025,0.052,-0.183,0.427,0.366,609.09
120813,141684,9298,-0.096,1.025,0.052,-0.183,0.427,0.366,609.094
120813,141692,11500,-0.094,1.029,0.052,-0.488,0.549,0.305,609.1
120799,141684,9298,-0.094,1.029,0.052,-0.488,0.549,0.305,609.104
120799,141708,11519,-0.098,1.023,0.052,-0.671,0.488,0.366,609.11
120785,141684,9298,-0.098,1.023,0.052,-0.671,0.488,0.366,609.113
120785,141696,11503,-0.096,1.024,0.046,-0.488,0.488,0.549,609.12
120799,141684,9298,-0.096,1.024,0.046,-0.488,0.488,0.549,609.123
120799,141720,11502,-0.095,1.024,0.047,-0.61,0.366,0.61,609.129
120815,141684,9298,-0.095,1.024,0.047,-0.61,0.366,0.61,609.133
120815,141705,11509,-0.094,1.03,0.048,-0.549,0.244,0.61,609.139
120810,141684,9298,-0.094,1.03,0.048,-0.549,0.244,0.61,609.143
120810,141701,11510,-0.092,1.03,0.053,-0.427,0.183,0.61,609.149
120825,141684,9298,-0.092,1.03,0.053,-0.427,0.183,0.61,609.153
120825,141686,11504,-0.091,1.031,0.047,-0.244,0.122,0.549,609.159
120806,141684,9298,-0.091,1.031,0.047,-0.244,0.122,0.549,609.163
120806,141678,11505,-0.092,1.029,0.048,-0.305,0.244,0.366,609.169
120804,141684,9298,-0.092,1.029,0.048,-0.305,0.244,0.366,609.173
120804,141664,11499,-0.095,1.027,0.048,-0.549,0.244,0.427,609.179
120798,141684,9298,-0.095,1.027,0.048,-0.549,0.244,0.427,609.183
120798,141678,11515,-0.095,1.025,0.051,-0.427,0.122,0.427,609.189
120805,141684,9298,-0.095,1.025,0.051,-0.427,0.122,0.427,609.193
120805,141678,11506,-0.1,1.026,0.053,-0.244,0.061,0.183,609.199
120805,141684,9298,-0.1,1.026,0.053,-0.244,0.061,0.183,609.203
120805,141669,11501,-0.096,1.025,0.052,-0.305,-0.061,0.244,609.209
120804,141684,9298,-0.096,1.025,0.052,-0.305,-0.061,0.244,609.212
120804,141663,11504,-0.094,1.026,0.057,-0.427,-0.122,0.366,609.219
120798,141684,9298,-0.096,1.026,0.054,-0.427,-0.122,0.366,609.222
120798,141676,11507,-0.094,1.023,0.052,-0.549,-0.183,0.488,609.228
120804,141684,9298,-0.093,1.022,0.053,-0.549,-0.183,0.488,609.232
120804,141686,11515,-0.089,1.024,0.054,-0.793,-0.122,0.61,609.238
120809,141684,9298,-0.088,1.021,0.051,-0.793,-0.122,0.61,609.242
120809,141687,11505,-0.088,1.023,0.049,-0.671,0.183,0.549,609.248
120802,141684,9298,-0.089,1.023,0.058,-0.671,0.183,0.549,609.252
120802,141707,11502,-0.095,1.024,0.057,-0.305,0.488,0.488,609.258
120796,141684,9298,-0.096,1.026,0.054,-0.305,0.488,0.488,609.262
120796,141719,11510,-0.095,1.028,0.051,0.122,0.671,0.305,609.268
120810,141684,9298,-0.097,1.03,0.056,0.122,0.671,0.305,609.272
120810,141698,11501,-0.098,1.031,0.054,0.122,0.671,0.305,609.278
120800,141684,9298,-0.097,1.032,0.055,0.122,0.671,0.305,609.282
120800,141701,11496,-0.096,1.03,0.053,-0.183,0.366,0.305,609.288
120797,141684,9298,-0.094,1.032,0.054,-0.183,0.366,0.305,609.292
120797,141686,11502,-0.089,1.026,0.051,-0.366,0.061,0.305,609.298
120791,141684,9298,-0.087,1.026,0.051,-0.366,0.061,0.305,609.301
120791,141704,11506,-0.087,1.026,0.052,-0.366,0.122,0.244,609.308
120797,141684,9298,-0.088,1.027,0.056,-0.366,0.122,0.244,609.311
120797,141720,11484,-0.09,1.025,0.053,-0.122,0.549,0.183,609.318
120823,141684,9298,-0.092,1.021,0.054,-0.122,0.549,0.183,609.321
120823,141704,11502,-0.096,1.022,0.051,0.244,1.22,0.183,609.327
120805,141684,9298,-0.099,1.023,0.051,0.244,1.22,0.183,609.331
120805,141678,11494,-0.102,1.026,0.053,0.305,1.402,0.244,609.337
120797,141684,9298,-0.103,1.026,0.05,0.305,1.402,0.244,609.341
120797,141692,11498,-0.1,1.029,0.049,0.366,0.915,0.244,609.347
120797,141684,9298,-0.098,1.029,0.048,0.366,0.915,0.244,609.351
120797,141701,11510,-0.096,1.029,0.052,0.122,0.305,0.366,609.357
120806,141684,9298,-0.092,1.031,0.051,0.122,0.305,0.366,609.361
120806,141699,11509,-0.092,1.027,0.051,-0.427,0.122,0.427,609.367
120808,141684,9298,-0.094,1.026,0.05,-0.427,0.122,0.427,609.371
120808,141683,11486,-0.092,1.027,0.05,-0.793,0.366,0.549,609.377
120798,141684,9298,-0.09,1.026,0.047,-0.793,0.366,0.549,609.381
120798,141681,11510,-0.089,1.025,0.045,-0.793,0.427,0.61,609.387
120787,141684,9298,-0.087,1.026,0.046,-0.793,0.427,0.61,609.391
120787,141699,11502,-0.087,1.028,0.048,-0.488,0.305,0.488,609.397
120807,141684,9298,-0.091,1.024,0.052,-0.488,0.305,0.488,609.401
120807,141690,11498,-0.095,1.026,0.052,0,0.488,0.244,609.407
120801,141684,9298,-0.097,1.028,0.05,0,0.488,0.244,609.41
120801,141709,11492,-0.099,1.024,0.052,0.244,0.854,0.244,609.417
120808,141684,9298,-0.099,1.028,0.051,0.244,0.854,0.244,609.42
120808,141713,11506,-0.103,1.031,0.047,0.061,0.793,0.305,609.426
120784,141684,9298,-0.103,1.03,0.049,0.061,0.793,0.305,609.43
120784,141718,11509,-0.102,1.03,0.049,-0.305,0.427,0.305,609.436
120793,141684,9298,-0.099,1.031,0.052,-0.305,0.427,0.305,609.44
120793,141725,11490,-0.095,1.028,0.051,-0.549,-0.183,0.244,609.446
120787,141684,9298,-0.09,1.028,0.053,-0.549,-0.183,0.244,609.45
120787,141703,11482,-0.091,1.028,0.053,-0.61,-0.366,0.244,609.456
120805,141684,9298,-0.089,1.025,0.052,-0.61,-0.366,0.244,609.46
120805,141687,11511,-0.087,1.025,0.049,-0.61,-0.244,0.366,609.466
120803,141684,9298,-0.09,1.023,0.054,-0.61,-0.244,0.366,609.47
120803,141693,11485,-0.086,1.024,0.055,-0.366,0,0.488,609.476
120790,141684,9298,-0.089,1.021,0.055,-0.366,0,0.488,609.48
120790,141704,11513,-0.091,1.021,0.054,0,0.244,0.427,609.486
120789,141684,9298,-0.091,1.021,0.054,0,0.244,0.427,609.49
120789,141686,11500,-0.095,1.027,0.054,0.122,0.61,0.427,609.496
120793,141684,9298,-0.097,1.027,0.055,0.122,0.61,0.427,609.499
120793,141702,11504,-0.1,1.028,0.053,0.244,0.976,0.366,609.506
120801,141684,9298,-0.104,1.029,0.053,0.244,0.976,0.366,609.509
120801,141726,11508,-0.1,1.029,0.055,0.122,1.037,0.366,609.516
120793,141684,9298,-0.098,1.026,0.056,0.122,1.037,0.366,609.519
120793,141711,11484,-0.099,1.026,0.057,-0.61,0.549,0.671,609.525
120809,141684,9298,-0.102,1.028,0.05,-0.61,0.549,0.671,609.529
120809,141728,11498,-0.1,1.028,0.049,-1.037,0.305,0.732,609.535
120806,141684,9298,-0.096,1.028,0.046,-1.037,0.305,0.732,609.539
120806,141709,11489,-0.095,1.028,0.046,-0.61,0.427,0.488,609.545
120801,141684,9298,-0.096,1.027,0.05,-0.61,0.427,0.488,609.549
120801,141704,11489,-0.093,1.028,0.052,0,0.366,0.427,609.555
120786,141684,9298,-0.092,1.024,0.055,0,0.366,0.427,609.559
120786,141684,11499,-0.09,1.027,0.052,0.366,-0.061,0.488,609.565
120778,141684,9298,-0.087,1.03,0.049,0.366,-0.061,0.488,609.569
120778,141703,11511,-0.088,1.026,0.052,0.305,-0.061,0.488,609.575
120791,141684,9298,-0.092,1.029,0.052,0.305,-0.061,0.488,609.579
120791,141703,11502,-0.091,1.028,0.051,0.305,0.427,0.183,609.585
120803,141684,9298,-0.092,1.027,0.049,0.305,0.427,0.183,609.589
120803,141697,11508,-0.094,1.032,0.053,-0.061,0.793,0.305,609.595
120808,141684,9298,-0.095,1.029,0.045,-0.061,0.793,0.305,609.598
120808,141718,11480,-0.096,1.029,0.048,-0.427,0.793,0.427,609.605
120823,141684,9298,-0.098,1.028,0.05,-0.427,0.793,0.427,609.608
120823,141717,11500,-0.097,1.026,0.048,-0.61,0.549,0.427,609.615
120784,141684,9298,-0.097,1.023,0.051,-0.61,0.549,0.427,609.618
120784,141707,11493,-0.095,1.024,0.053,-0.793,0.244,0.549,609.624
120785,141684,9298,-0.095,1.024,0.049,-0.793,0.244,0.549,609.628
120785,141691,11504,-0.092,1.025,0.051,-0.915,0,0.793,609.634
120787,141684,9298,-0.091,1.025,0.052,-0.915,0,0.793,609.638
120787,141711,11489,-0.095,1.027,0.053,-0.732,0,0.793,609.644
120780,141684,9298,-0.095,1.027,0.053,-0.732,0,0.793,609.648
120780,141704,11502,-0.091,1.028,0.053,-0.305,0,0.61,609.654
120805,141684,9298,-0.091,1.028,0.053,-0.305,0,0.61,609.658
120805,141716,11507,-0.092,1.028,0.053,0,0.183,0.488,609.664
120799,141684,9298,-0.092,1.028,0.053,0,0.183,0.488,609.668
120799,141721,11513,-0.094,1.029,0.054,0.061,0.427,0.244,609.674
120803,141684,9298,-0.094,1.029,0.054,0.061,0.427,0.244,609.678
120803,141699,11499,-0.099,1.026,0.051,0,0.61,0.183,609.684
120788,141684,9298,-0.099,1.026,0.051,0,0.61,0.183,609.688
120788,141711,11513,-0.102,1.031,0.053,0,0.671,0.122,609.694
120810,141684,9298,-0.102,1.031,0.053,0,0.671,0.122,609.697
120810,141700,11498,-0.097,1.031,0.053,0.122,0.488,0,609.704
120793,141684,9298,-0.097,1.031,0.053,0.122,0.488,0,609.707
120793,141704,11507,-0.094,1.025,0.053,0.061,0,0.122,609.713
120792,141684,9298,-0.094,1.025,0.053,0.061,0,0.122,609.717
120792,141698,11504,-0.089,1.023,0.051,-0.183,-0.183,0.122,609.723
120795,141684,9298,-0.089,1.023,0.051,-0.183,-0.183,0.122,609.727
120795,141716,11502,-0.088,1.022,0.052,-0.183,-0.061,0.183,609.733
120779,141684,9298,-0.088,1.022,0.052,-0.183,-0.061,0.183,609.737
120779,141719,11514,-0.089,1.023,0.048,-0.122,0.305,0.305,609.743
120807,141684,9298,-0.089,1.023,0.048,-0.122,0.305,0.305,609.747
120807,141712,11510,-0.095,1.028,0.05,0.061,0.793,0.366,609.753
120815,141684,9298,-0.095,1.028,0.05,0.061,0.793,0.366,609.757
120815,141719,11511,-0.098,1.028,0.052,0.183,0.915,0.427,609.763
120793,141684,9298,-0.098,1.028,0.052,0.183,0.915,0.427,609.767
120793,141721,11494,-0.099,1.028,0.055,-0.122,0.793,0.427,609.773
120807,141684,9298,-0.099,1.028,0.055,-0.122,0.793,0.427,609.777
120807,141721,11505,-0.097,1.03,0.052,-0.61,0.549,0.427,609.783
120821,141684,9298,-0.097,1.03,0.052,-0.61,0.549,0.427,609.786
120821,141720,11507,-0.098,1.032,0.054,-0.61,0.549,0.427,609.793
120811,141684,9298,-0.096,1.032,0.052,-0.915,0.366,0.366,609.796
120811,141694,11495,-0.096,1.031,0.052,-0.915,0.366,0.366,609.803
120788,141684,9298,-0.092,1.028,0.049,-0.61,0.244,0.244,609.806
120788,141683,11511,-0.091,1.025,0.048,-0.61,0.244,0.244,609.812
120789,141684,9298,-0.091,1.026,0.05,-0.305,0.122,0.183,609.816
120789,141714,11516,-0.092,1.026,0.046,-0.305,0.122,0.183,609.822
120797,141684,9298,-0.094,1.023,0.048,-0.061,0.244,0.244,609.826
120797,141721,11512,-0.094,1.024,0.053,-0.061,0.244,0.244,609.832
120793,141684,9298,-0.095,1.024,0.054,0.244,0.366,0.244,609.836
120793,141709,11494,-0.097,1.022,0.053,0.244,0.366,0.244,609.842
120801,141684,9298,-0.099,1.024,0.052,0.671,0.61,0.183,609.846
120801,141707,11505,-0.099,1.023,0.055,0.671,0.61,0.183,609.852
120796,141684,9298,-0.1,1.027,0.055,0.366,0.671,0.183,609.856
120796,141732,11507,-0.1,1.027,0.052,0.366,0.671,0.183,609.862
120809,141684,9298,-0.097,1.03,0.053,-0.244,0.671,0.366,609.866
120809,141737,11499,-0.099,1.027,0.05,-0.244,0.671,0.366,609.872
120806,141684,9298,-0.095,1.027,0.053,-0.732,0.244,0.549,609.876
120806,141726,11491,-0.092,1.027,0.05,-0.732,0.244,0.549,609.882
120805,141684,9298,-0.087,1.026,0.051,-0.915,-0.122,0.732,609.885
120805,141721,11526,-0.086,1.023,0.051,-0.915,-0.122,0.732,609.892
120799,141684,9298,-0.092,1.021,0.052,-0.854,0.061,0.793,609.895
120799,141714,11495,-0.094,1.023,0.054,-0.854,0.061,0.793,609.901
120809,141684,9298,-0.095,1.025,0.048,-0.366,0.488,0.732,609.905
120809,141673,11495,-0.098,1.026,0.05,-0.366,0.488,0.732,609.911
120796,141684,9298,-0.095,1.027,0.054,0.305,0.61,0.549,609.915
120796,141694,11497,-0.094,1.029,0.056,0.305,0.61,0.549,609.921
120773,141684,9298,-0.096,1.032,0.054,0.366,0.427,0.427,609.925
120773,141689,11501,-0.093,1.032,0.052,0.366,0.427,0.427,609.931
120789,141684,9298,-0.09,1.033,0.05,-0.122,0.122,0.366,609.935
120789,141691,11502,-0.088,1.032,0.051,-0.122,0.122,0.366,609.941
120792,141684,9298,-0.087,1.026,0.052,-0.305,0.366,0.305,609.945
120792,141705,11494,-0.09,1.026,0.047,-0.305,0.366,0.305,609.951
120778,141684,9298,-0.095,1.024,0.05,-0.183,0.976,0.183,609.955
120778,141704,11499,-0.095,1.023,0.049,-0.183,0.976,0.183,609.961
120791,141684,9298,-0.098,1.025,0.047,0,1.28,0.183,609.965
120791,141701,11514,-0.099,1.025,0.051,0,1.28,0.183,609.971
120789,141684,9298,-0.102,1.021,0.049,0.305,0.854,0.244,609.975
120789,141712,11513,-0.1,1.025,0.051,0.305,0.854,0.244,609.981
120795,141684,9298,-0.1,1.028,0.052,0.488,0.366,0.305,609.984
120795,141691,11486,-0.101,1.029,0.052,0.488,0.366,0.305,609.991
120761,141684,9298,-0.098,1.027,0.054,0.183,0,0.366,609.994
120761,141694,11508,-0.098,1.028,0.051,0.183,0,0.366,610
120791,141684,9298,-0.093,1.026,0.051,-0.244,0.061,0.427,610.004
120791,141718,11488,-0.093,1.027,0.051,-0.244,0.061,0.427,610.01
120816,141684,9298,-0.093,1.024,0.049,-0.671,0.244,0.427,610.014
120816,141710,11483,-0.093,1.026,0.05,-0.671,0.244,0.427,610.02
120807,141684,9298,-0.091,1.026,0.049,-0.793,0.366,0.488,610.024
120807,141720,11505,-0.091,1.027,0.053,-0.793,0.366,0.488,610.03
120795,141684,9298,-0.091,1.028,0.05,-0.427,0.488,0.488,610.034
120795,141715,11497,-0.093,1.028,0.051,-0.427,0.488,0.488,610.04
120807,141684,9298,-0.095,1.028,0.051,0.183,0.732,0.427,610.044
120807,141694,11486,-0.097,1.028,0.052,0.183,0.732,0.427,610.05
120785,141684,9298,-0.097,1.029,0.05,0.427,0.854,0.244,610.054
120785,141689,11502,-0.097,1.03,0.048,0.427,0.854,0.244,610.06
120764,141684,9298,-0.096,1.027,0.049,0.305,0.671,0.244,610.064
120764,141700,11504,-0.094,1.03,0.046,0.305,0.671,0.244,610.07
120774,141684,9298,-0.095,1.029,0.052,-0.061,0.122,0.244,610.073
120774,141702,11507,-0.094,1.023,0.053,-0.061,0.122,0.244,610.08
120804,141684,9298,-0.092,1.023,0.05,-0.244,-0.061,0.305,610.083
120804,141714,11496,-0.092,1.022,0.05,-0.244,-0.061,0.305,610.09
120794,141684,9298,-0.094,1.024,0.05,-0.305,0.305,0.366,610.093
120794,141727,11504,-0.096,1.026,0.053,-0.305,0.305,0.366,610.099
120791,141684,9298,-0.094,1.022,0.052,-0.427,0.427,0.427,610.103
120791,141737,11505,-0.097,1.023,0.054,-0.427,0.427,0.427,610.109
120789,141684,9298,-0.096,1.026,0.054,-0.488,0.366,0.488,610.113
120789,141742,11503,-0.094,1.025,0.048,-0.488,0.366,0.488,610.119
120790,141684,9298,-0.094,1.029,0.051,-0.488,0.366,0.366,610.123
120790,141710,11482,-0.093,1.027,0.052,-0.488,0.366,0.366,610.129
120788,141684,9298,-0.094,1.028,0.051,-0.366,0.427,0.427,610.133
120788,141710,11490,-0.096,1.027,0.048,-0.366,0.427,0.427,610.139
120794,141684,9298,-0.096,1.027,0.049,-0.427,0.61,0.488,610.143
120794,141727,11486,-0.096,1.029,0.048,-0.427,0.61,0.488,610.149
120794,141684,9298,-0.098,1.029,0.052,-0.244,0.671,0.427,610.153
120794,141734,11496,-0.099,1.029,0.053,-0.244,0.671,0.427,610.159
120803,141684,9298,-0.098,1.026,0.051,-0.061,0.305,0.427,610.163
120803,141758,11490,-0.096,1.024,0.05,-0.061,0.305,0.427,610.169
120799,141684,9298,-0.097,1.027,0.054,-0.061,0.122,0.366,610.172
120799,141750,11523,-0.095,1.028,0.05,-0.061,0.122,0.366,610.179
120814,141684,9298,-0.091,1.026,0.057,0,0.183,0.244,610.182
120814,141744,11504,-0.091,1.026,0.052,0,0.183,0.244,610.189
120792,141684,9298,-0.093,1.026,0.048,-0.183,0.305,0.305,610.192
120792,141744,11489,-0.095,1.025,0.05,-0.183,0.305,0.305,610.198
120786,141684,9298,-0.095,1.026,0.05,-0.549,0.427,0.366,610.202
120786,141733,11503,-0.095,1.024,0.049,-0.549,0.427,0.366,610.208
120802,141684,9298,-0.093,1.026,0.05,-0.488,0.61,0.366,610.212
120802,141706,11508,-0.094,1.025,0.051,-0.488,0.61,0.366,610.218
120806,141684,9298,-0.094,1.025,0.051,-0.488,0.61,0.366,610.222
120806,141727,11487,-0.093,1.025,0.053,-0.305,0.549,0.366,610.228
120793,141684,9298,-0.093,1.025,0.053,-0.305,0.549,0.366,610.232
120793,141723,11503,-0.097,1.022,0.054,-0.244,0.244,0.427,610.238
120794,141684,9298,-0.097,1.022,0.054,-0.244,0.244,0.427,610.242
120794,141738,11499,-0.095,1.027,0.052,-0.305,0.183,0.549,610.248
120790,141684,9298,-0.095,1.027,0.052,-0.305,0.183,0.549,610.252
120790,141750,11511,-0.095,1.029,0.052,-0.427,0.366,0.488,610.258
120795,141684,9298,-0.095,1.029,0.052,-0.427,0.366,0.488,610.262
120795,141722,11496,-0.091,1.027,0.049,-0.488,0.183,0.366,610.268
120797,141684,9298,-0.091,1.027,0.049,-0.488,0.183,0.366,610.271
120797,141746,11482,-0.094,1.027,0.048,-0.488,0.183,0.427,610.278
120814,141684,9298,-0.094,1.027,0.048,-0.488,0.183,0.427,610.281
120814,141719,11502,-0.095,1.027,0.051,-0.488,0.244,0.427,610.288
120810,141684,9298,-0.095,1.027,0.051,-0.488,0.244,0.427,610.291
120810,141749,11495,-0.095,1.025,0.052,-0.305,0.61,0.488,610.297
120800,141684,9298,-0.095,1.025,0.052,-0.305,0.61,0.488,610.301
120800,141740,11491,-0.096,1.025,0.052,-0.061,0.732,0.427,610.307
120793,141684,9298,-0.096,1.025,0.052,-0.061,0.732,0.427,610.311
120793,141719,11493,-0.094,1.026,0.049,-0.244,0.671,0.366,610.317
120786,141684,9298,-0.094,1.026,0.049,-0.244,0.671,0.366,610.321
120786,141729,11504,-0.095,1.024,0.05,-0.488,0.488,0.366,610.327
120789,141684,9298,-0.095,1.024,0.05,-0.488,0.488,0.366,610.331
120789,141724,11507,-0.095,1.025,0.046,-0.427,0.305,0.427,610.337
120804,141684,9298,-0.095,1.025,0.046,-0.427,0.305,0.427,610.341
120804,141711,11512,-0.098,1.024,0.043,-0.427,0.061,0.488,610.347
120795,141684,9298,-0.098,1.024,0.043,-0.427,0.061,0.488,610.351
120795,141716,11508,-0.092,1.026,0.049,-0.732,-0.122,0.671,610.357
120793,141684,9298,-0.092,1.026,0.049,-0.732,-0.122,0.671,610.361
120793,141723,11506,-0.092,1.03,0.053,-0.488,-0.366,0.732,610.367
120804,141684,9298,-0.09,1.028,0.052,-0.488,-0.366,0.732,610.37
120804,141738,11493,-0.092,1.027,0.055,-0.366,-0.305,0.732,610.377
120791,141684,9298,-0.089,1.031,0.054,-0.366,-0.305,0.732,610.38
120791,141755,11506,-0.091,1.027,0.05,-0.671,0.061,0.793,610.387
120805,141684,9298,-0.09,1.029,0.052,-0.671,0.061,0.793,610.39
120805,141767,11491,-0.091,1.028,0.055,-0.793,0.488,0.732,610.396
120819,141684,9298,-0.092,1.027,0.052,-0.793,0.488,0.732,610.4
120819,141745,11490,-0.092,1.027,0.055,-0.854,0.61,0.549,610.406
120821,141684,9298,-0.095,1.029,0.055,-0.854,0.61,0.549,610.41
120821,141749,11508,-0.096,1.028,0.057,-0.915,0.549,0.488,610.416
120801,141684,9298,-0.093,1.025,0.058,-0.915,0.549,0.488,610.42
120801,141754,11502,-0.092,1.026,0.056,-0.549,0.366,0.488,610.426
120803,141684,9298,-0.095,1.025,0.055,-0.549,0.366,0.488,610.43
120803,141754,11502,-0.093,1.022,0.053,-0.061,0.488,0.366,610.436
120799,141684,9298,-0.098,1.024,0.05,-0.061,0.488,0.366,610.44
120799,141746,11504,-0.098,1.025,0.053,0.061,0.671,0.366,610.446
120808,141684,9298,-0.095,1.025,0.053,0.061,0.671,0.366,610.45
120808,141749,11496,-0.097,1.027,0.052,0.427,0.732,0.366,610.456
120809,141684,9298,-0.096,1.026,0.047,0.427,0.732,0.366,610.46
120809,141724,11503,-0.096,1.028,0.047,0.915,0.671,0.183,610.466
120795,141684,9298,-0.093,1.023,0.052,0.915,0.671,0.183,610.469
120795,141729,11493,-0.091,1.028,0.054,1.037,0.488,0.122,610.476
120796,141684,9298,-0.091,1.031,0.053,1.037,0.488,0.122,610.479
120796,141740,11515,-0.09,1.03,0.047,0.732,0.366,0.183,610.485
120793,141684,9298,-0.093,1.031,0.051,0.732,0.366,0.183,610.489
120793,141760,11513,-0.093,1.03,0.051,0.244,0.61,0.183,610.495
120784,141684,9298,-0.096,1.028,0.048,0.244,0.61,0.183,610.499
120784,141740,11501,-0.095,1.029,0.047,-0.244,0.671,0.061,610.505
120800,141684,9298,-0.092,1.03,0.044,-0.244,0.671,0.061,610.509
120800,141757,11518,-0.089,1.026,0.047,-0.427,0.427,0,610.515
120790,141684,9298,-0.092,1.02,0.042,-0.427,0.427,0,610.519
120790,141762,11499,-0.092,1.026,0.043,-0.61,0.061,0.244,610.525
120789,141684,9298,-0.092,1.027,0.049,-0.61,0.061,0.244,610.529
120789,141721,11523,-0.093,1.026,0.048,-0.366,0.122,0.183,610.535
120800,141684,9298,-0.096,1.026,0.05,-0.366,0.122,0.183,610.539
120800,141732,11499,-0.099,1.027,0.048,0.061,0.427,0.061,610.545
120813,141684,9298,-0.1,1.028,0.047,0.061,0.427,0.061,610.549
120813,141752,11502,-0.1,1.027,0.05,-0.122,0.61,0.061,610.555
120828,141684,9298,-0.1,1.028,0.05,-0.122,0.61,0.061,610.559
120828,141743,11504,-0.107,1.032,0.047,-0.549,0.427,0.183,610.565
120803,141684,9298,-0.102,1.031,0.048,-0.549,0.427,0.183,610.568
120803,141720,11497,-0.101,1.027,0.054,-0.915,0,0.183,610.575
120785,141684,9298,-0.098,1.028,0.056,-0.915,0,0.183,610.578
120785,141738,11492,-0.092,1.023,0.057,-1.22,-0.427,0.244,610.584
120791,141684,9298,-0.09,1.024,0.053,-1.22,-0.427,0.244,610.588
120791,141737,11509,-0.089,1.022,0.056,-1.402,-0.549,0.427,610.594
120804,141684,9298,-0.086,1.021,0.055,-1.402,-0.549,0.427,610.598
120804,141743,11502,-0.088,1.024,0.052,-0.976,-0.122,0.427,610.604
120796,141684,9298,-0.091,1.021,0.056,-0.976,-0.122,0.427,610.608
120796,141733,11505,-0.096,1.021,0.059,-0.549,0.427,0.427,610.614
120803,141684,9298,-0.098,1.024,0.058,-0.549,0.427,0.427,610.618
120803,141771,11512,-0.098,1.025,0.058,-0.244,0.732,0.427,610.624
120805,141684,9298,-0.099,1.026,0.057,-0.244,0.732,0.427,610.628
120805,141757,11505,-0.104,1.031,0.055,-0.366,0.915,0.488,610.634
120808,141684,9298,-0.105,1.029,0.056,-0.366,0.915,0.488,610.638
120808,141775,11500,-0.099,1.028,0.056,-0.793,0.671,0.671,610.644
120792,141684,9298,-0.097,1.029,0.051,-0.793,0.671,0.671,610.648
120792,141736,11497,-0.093,1.027,0.051,-1.159,0.122,0.732,610.654
120807,141684,9298,-0.089,1.027,0.049,-1.159,0.122,0.732,610.658
120807,141733,11513,-0.087,1.026,0.052,-1.098,0.061,0.732,610.664
120795,141684,9298,-0.087,1.027,0.049,-1.098,0.061,0.732,610.667
120795,141732,11510,-0.087,1.025,0.052,-0.732,0.366,0.732,610.674
120770,141684,9298,-0.09,1.025,0.05,-0.732,0.366,0.732,610.677
120770,141735,11511,-0.091,1.028,0.053,-0.183,0.61,0.671,610.684
120783,141684,9298,-0.096,1.026,0.052,-0.183,0.61,0.671,610.687
120783,141751,11510,-0.094,1.029,0.053,0.244,0.549,0.488,610.693
120797,141684,9298,-0.094,1.028,0.054,0.244,0.549,0.488,610.697
120797,141741,11517,-0.092,1.032,0.052,0.366,0.427,0.427,610.703
120799,141684,9298,-0.092,1.031,0.052,0.366,0.427,0.427,610.707
120799,141730,11513,-0.093,1.029,0.053,0.122,0.305,0.305,610.713
120794,141684,9298,-0.093,1.03,0.053,0.122,0.305,0.305,610.717
120794,141717,11511,-0.096,1.027,0.052,-0.305,0.366,0.183,610.723
120805,141684,9298,-0.095,1.026,0.048,-0.305,0.366,0.183,610.727
120805,141717,11510,-0.098,1.024,0.049,-0.671,0.61,0.427,610.733
120783,141684,9298,-0.099,1.023,0.048,-0.671,0.61,0.427,610.737
120783,141732,11501,-0.097,1.022,0.048,-0.549,0.549,0.549,610.743
120775,141684,9298,-0.094,1.024,0.055,-0.549,0.549,0.549,610.747
120775,141721,11513,-0.096,1.024,0.055,-0.366,0.183,0.61,610.753
120778,141684,9298,-0.096,1.026,0.054,-0.366,0.183,0.61,610.757
120778,141749,11514,-0.093,1.028,0.055,-0.061,-0.061,0.427,610.763
120774,141684,9298,-0.093,1.028,0.055,-0.061,-0.061,0.427,610.766
120774,141738,11495,-0.093,1.029,0.056,0.244,0.061,0.244,610.773
120780,141684,9298,-0.098,1.031,0.055,0.244,0.061,0.244,610.776
120780,141738,11495,-0.098,1.031,0.053,0.061,0.427,0.183,610.782
120776,141684,9298,-0.098,1.029,0.054,0.061,0.427,0.183,610.786
120776,141727,11492,-0.095,1.031,0.051,-0.244,0.366,0.244,610.792
120804,141684,9298,-0.095,1.031,0.051,-0.244,0.366,0.244,610.796
120804,141739,11497,-0.091,1.029,0.049,-0.427,0.122,0.305,610.802
120781,141684,9298,-0.091,1.029,0.049,-0.427,0.122,0.305,610.806
120781,141732,11496,-0.089,1.023,0.057,-0.427,0.122,0.183,610.812
120789,141684,9298,-0.089,1.023,0.057,-0.427,0.122,0.183,610.816
120789,141731,11504,-0.087,1.02,0.053,-0.305,0.488,0.183,610.822
120777,141684,9298,-0.087,1.02,0.053,-0.305,0.488,0.183,610.826
120777,141753,11506,-0.092,1.023,0.055,0,0.915,0.244,610.832
120777,141684,9298,-0.092,1.023,0.055,0,0.915,0.244,610.836
120777,141734,11478,-0.096,1.024,0.05,0.305,1.098,0.183,610.842
120788,141684,9298,-0.096,1.024,0.05,0.305,1.098,0.183,610.846
120788,141746,11492,-0.096,1.027,0.05,0.549,0.854,0.183,610.852
120787,141684,9298,-0.096,1.027,0.05,0.549,0.854,0.183,610.855
120787,141739,11502,-0.097,1.031,0.052,0.122,0.549,0.244,610.862
120795,141684,9298,-0.097,1.031,0.052,0.122,0.549,0.244,610.865
120795,141745,11500,-0.094,1.027,0.052,-0.549,0.305,0.366,610.872
120799,141684,9298,-0.094,1.027,0.052,-0.549,0.305,0.366,610.875
120799,141764,11511,-0.094,1.029,0.052,-0.61,0.305,0.305,610.881
120792,141684,9298,-0.094,1.029,0.052,-0.61,0.305,0.305,610.885
120792,141763,11495,-0.09,1.022,0.05,-0.61,0.427,0.366,610.891
120791,141684,9298,-0.09,1.022,0.05,-0.61,0.427,0.366,610.895
120791,141738,11490,-0.091,1.02,0.05,-0.488,0.61,0.366,610.901
120764,141684,9298,-0.091,1.02,0.05,-0.488,0.61,0.366,610.905
120764,141740,11496,-0.097,1.025,0.049,-0.183,0.793,0.305,610.911
120778,141684,9298,-0.097,1.025,0.049,-0.183,0.793,0.305,610.915
120778,141778,11501,-0.101,1.025,0.045,0.183,1.037,0.244,610.921
120802,141684,9298,-0.101,1.025,0.045,0.183,1.037,0.244,610.925
120802,141755,11502,-0.105,1.029,0.049,0.488,0.854,0.122,610.931
120804,141684,9298,-0.105,1.029,0.049,0.488,0.854,0.122,610.935
120804,141744,11503,-0.102,1.033,0.053,0.488,0.854,0.122,610.941
120811,141684,9298,-0.102,1.033,0.052,0.244,0.183,0.244,610.945
120811,141780,11497,-0.098,1.033,0.049,0.244,0.183,0.244,610.951
120801,141684,9298,-0.095,1.035,0.051,-0.671,-0.305,0.427,610.954
120801,141753,11487,-0.092,1.031,0.051,-0.671,-0.305,0.427,610.961
120785,141684,9298,-0.091,1.027,0.051,-1.341,-0.305,0.488,610.964
120785,141748,11502,-0.092,1.027,0.053,-1.341,-0.305,0.488,610.971
120775,141684,9298,-0.09,1.025,0.051,-1.402,-0.061,0.549,610.974
120775,141756,11504,-0.089,1.022,0.05,-1.402,-0.061,0.549,610.98
120792,141684,9298,-0.09,1.02,0.049,-0.854,0.244,0.427,610.984
120792,141746,11499,-0.091,1.02,0.051,-0.854,0.244,0.427,610.99
120791,141684,9298,-0.094,1.023,0.054,-0.305,0.427,0.366,610.994
120791,141735,11501,-0.094,1.025,0.053,-0.305,0.427,0.366,611
120775,141684,9298,-0.097,1.028,0.048,0.183,0.427,0.366,611.004
120775,141747,11503,-0.093,1.029,0.051,0.183,0.427,0.366,611.01
120789,141684,9298,-0.095,1.029,0.052,0.427,0.183,0.183,611.014
120789,141742,11503,-0.095,1.032,0.054,0.427,0.183,0.183,611.02
120775,141684,9298,-0.096,1.031,0.054,0.244,0.061,0.183,611.024
120775,141781,11504,-0.096,1.03,0.054,0.244,0.061,0.183,611.03
120770,141684,9298,-0.096,1.029,0.056,-0.61,0.122,0.366,611.034
120770,141758,11505,-0.095,1.029,0.06,-0.61,0.122,0.366,611.04
120776,141684,9298,-0.095,1.029,0.055,-1.037,0.183,0.427,611.044
120776,141767,11499,-0.094,1.026,0.058,-1.037,0.183,0.427,611.05
120767,141684,9298,-0.092,1.022,0.057,-0.976,0.122,0.427,611.053
120767,141745,11499,-0.089,1.02,0.053,-0.976,0.122,0.427,611.06
120784,141684,9298,-0.091,1.02,0.056,-0.61,0.122,0.366,611.063
120784,141736,11514,-0.094,1.02,0.059,-0.61,0.122,0.366,611.07
120785,141684,9298,-0.094,1.022,0.055,-0.061,0.488,0.366,611.073
120785,141744,11499,-0.096,1.024,0.051,-0.061,0.488,0.366,611.079
120778,141684,9298,-0.099,1.026,0.051,0.305,0.915,0.305,611.083
120778,141758,11502,-0.096,1.028,0.053,0.305,0.915,0.305,611.089
120783,141684,9298,-0.098,1.027,0.052,0.305,0.915,0.244,611.093
120783,141765,11484,-0.096,1.029,0.052,0.305,0.915,0.244,611.099
120795,141684,9298,-0.095,1.027,0.054,0.244,0.671,0.427,611.103
120795,141776,11521,-0.094,1.031,0.054,0.244,0.671,0.427,611.109
120792,141684,9298,-0.092,1.03,0.05,-0.183,0.427,0.488,611.113
120792,141778,11511,-0.092,1.03,0.045,-0.183,0.427,0.488,611.119
120800,141684,9298,-0.091,1.028,0.044,-0.61,0.366,0.366,611.123
120800,141784,11497,-0.09,1.025,0.051,-0.61,0.366,0.366,611.129
120783,141684,9298,-0.092,1.025,0.049,-0.427,0.366,0.427,611.133
120783,141756,11513,-0.09,1.023,0.05,-0.427,0.366,0.427,611.139
120770,141684,9298,-0.091,1.026,0.054,0.061,0.366,0.366,611.143
120770,141738,11494,-0.09,1.027,0.049,0.061,0.366,0.366,611.149
120769,141684,9298,-0.091,1.026,0.05,0.366,0.427,0.427,611.152
120769,141752,11501,-0.091,1.026,0.051,0.366,0.427,0.427,611.159
120781,141684,9298,-0.091,1.028,0.05,0.366,0.549,0.305,611.162
120781,141755,11501,-0.093,1.03,0.051,0.366,0.549,0.305,611.169
120792,141684,9298,-0.094,1.031,0.049,0.183,0.854,0.305,611.172
120792,141780,11505,-0.097,1.032,0.047,0.183,0.854,0.305,611.178
120778,141684,9298,-0.098,1.029,0.051,-0.305,0.793,0.488,611.182
120778,141772,11492,-0.102,1.028,0.049,-0.305,0.793,0.488,611.188
120784,141684,9298,-0.102,1.027,0.05,-0.854,0.732,0.61,611.192
120784,141765,11511,-0.102,1.029,0.048,-0.854,0.732,0.61,611.198
120789,141684,9298,-0.099,1.029,0.051,-1.159,0.488,0.61,611.202
120789,141750,11501,-0.096,1.025,0.054,-1.159,0.488,0.61,611.208
120780,141684,9298,-0.098,1.025,0.056,-0.915,0.061,0.549,611.212
120780,141756,11522,-0.098,1.025,0.052,-0.915,0.061,0.549,611.218
120785,141684,9298,-0.096,1.024,0.049,-0.427,-0.122,0.488,611.222
120785,141757,11499,-0.093,1.024,0.051,-0.427,-0.122,0.488,611.228
120786,141684,9298,-0.096,1.025,0.051,0,-0.122,0.366,611.232
120786,141753,11492,-0.096,1.028,0.054,0,-0.122,0.366,611.238
120802,141684,9298,-0.094,1.032,0.053,0.183,0.061,0.366,611.242
120802,141741,11499,-0.096,1.034,0.056,0.183,0.061,0.366,611.248
120789,141684,9298,-0.093,1.031,0.055,0.488,0,0.244,611.251
120789,141751,11509,-0.09,1.029,0.053,0.488,0,0.244,611.258
120790,141684,9298,-0.093,1.028,0.053,0.305,0.244,0.122,611.261
120790,141744,11516,-0.094,1.026,0.052,0.305,0.244,0.122,611.268
120805,141684,9298,-0.095,1.028,0.05,-0.366,0.488,0.305,611.271
120805,141766,11504,-0.094,1.027,0.055,-0.366,0.488,0.305,611.277
120788,141684,9298,-0.098,1.025,0.048,-0.671,0.427,0.244,611.281
120788,141776,11507,-0.096,1.027,0.049,-0.671,0.427,0.244,611.287
120776,141684,9298,-0.093,1.026,0.049,-0.671,0.244,0.183,611.291
120776,141742,11510,-0.092,1.023,0.05,-0.671,0.244,0.183,611.297
120766,141684,9298,-0.092,1.021,0.055,-0.61,0.061,0.244,611.301
120766,141767,11507,-0.09,1.026,0.053,-0.61,0.061,0.244,611.307
120772,141684,9298,-0.091,1.025,0.051,-0.366,0,0.366,611.311
120772,141762,11488,-0.091,1.024,0.049,-0.366,0,0.366,611.317
120782,141684,9298,-0.091,1.025,0.051,-0.244,0.244,0.305,611.321
120782,141762,11511,-0.093,1.025,0.049,-0.244,0.244,0.305,611.327
120779,141684,9298,-0.096,1.028,0.049,-0.183,0.549,0.244,611.331
120779,141750,11509,-0.099,1.028,0.054,-0.183,0.549,0.244,611.337
120774,141684,9298,-0.098,1.027,0.05,-0.305,0.61,0.366,611.341
120774,141751,11505,-0.098,1.027,0.054,-0.305,0.61,0.366,611.347
120764,141684,9298,-0.098,1.028,0.054,-0.488,0.305,0.427,611.35
120764,141747,11510,-0.095,1.027,0.055,-0.488,0.305,0.427,611.357
120773,141684,9298,-0.094,1.029,0.054,-0.427,0.122,0.427,611.36
120773,141764,11505,-0.093,1.027,0.055,-0.427,0.122,0.427,611.367
120793,141684,9298,-0.093,1.027,0.054,-0.305,0.122,0.305,611.37
120793,141764,11494,-0.092,1.026,0.054,-0.305,0.122,0.305,611.376
120779,141684,9298,-0.092,1.026,0.054,-0.305,0.122,0.305,611.38
120779,141732,11505,-0.095,1.026,0.056,-0.366,0.305,0.183,611.386
120788,141684,9298,-0.095,1.026,0.056,-0.366,0.305,0.183,611.39
120788,141738,11504,-0.096,1.023,0.055,-0.183,0.549,0.183,611.396
120785,141684,9298,-0.096,1.023,0.055,-0.183,0.549,0.183,611.4
120785,141749,11499,-0.095,1.025,0.051,-0.183,0.671,0.183,611.406
120794,141684,9298,-0.095,1.025,0.051,-0.183,0.671,0.183,611.41
120794,141752,11512,-0.093,1.026,0.053,-0.183,0.549,0.305,611.416
120793,141684,9298,-0.093,1.026,0.053,-0.183,0.549,0.305,611.42
120793,141733,11509,-0.093,1.026,0.051,0,0.488,0.366,611.426
120770,141684,9298,-0.093,1.026,0.051,0,0.488,0.366,611.43
120770,141754,11513,-0.096,1.027,0.051,0,0.488,0.427,611.436
120777,141684,9298,-0.096,1.027,0.051,0,0.488,0.427,611.44
120777,141752,11512,-0.096,1.025,0.049,-0.366,0.61,0.488,611.446
120768,141684,9298,-0.096,1.025,0.049,-0.366,0.61,0.488,611.449
120768,141730,11517,-0.095,1.025,0.049,-0.793,0.671,0.549,611.456
120780,141684,9298,-0.095,1.025,0.049,-0.793,0.671,0.549,611.459
120780,141725,11514,-0.093,1.028,0.05,-0.854,0.305,0.488,611.466
120754,141684,9298,-0.093,1.028,0.05,-0.854,0.305,0.488,611.469
120754,141734,11511,-0.093,1.027,0.05,-0.549,0.061,0.366,611.475
120767,141684,9298,-0.093,1.027,0.05,-0.549,0.061,0.366,611.479
120767,141740,11523,-0.089,1.027,0.053,-0.061,-0.122,0.305,611.485
120756,141684,9298,-0.089,1.027,0.053,-0.061,-0.122,0.305,611.489
120756,141742,11512,-0.094,1.026,0.054,-0.061,0.122,0.305,611.495
120752,141684,9298,-0.094,1.026,0.054,-0.061,0.122,0.305,611.499
120752,141718,11488,-0.095,1.024,0.053,-0.244,0.488,0.305,611.505
120766,141684,9298,-0.095,1.024,0.053,-0.244,0.488,0.305,611.509
120766,141722,11505,-0.096,1.026,0.051,-0.427,0.549,0.366,611.515
120755,141684,9298,-0.096,1.026,0.051,-0.427,0.549,0.366,611.519
120755,141721,11507,-0.097,1.025,0.054,-0.427,0.488,0.366,611.525
120766,141684,9298,-0.099,1.027,0.055,-0.427,0.488,0.366,611.529
120766,141731,11511,-0.096,1.026,0.054,-0.366,0.366,0.366,611.535
120760,141684,9298,-0.094,1.023,0.055,-0.366,0.366,0.366,611.539
120760,141731,11500,-0.096,1.023,0.049,-0.366,0.305,0.305,611.545
120749,141684,9298,-0.093,1.026,0.051,-0.366,0.305,0.305,611.548
120749,141720,11513,-0.094,1.027,0.053,-0.244,0.305,0.366,611.555
120755,141684,9298,-0.094,1.029,0.052,-0.244,0.305,0.366,611.558
120755,141759,11479,-0.092,1.028,0.052,0,0.366,0.366,611.564
120767,141684,9298,-0.092,1.028,0.049,0,0.366,0.366,611.568
120767,141762,11503,-0.089,1.026,0.049,0.061,0.183,0.244,611.574
120776,141684,9298,-0.09,1.024,0.053,0.061,0.183,0.244,611.578
120776,141770,11507,-0.092,1.027,0.052,-0.183,0.244,0.366,611.584
120751,141684,9298,-0.094,1.029,0.054,-0.183,0.244,0.366,611.588
120751,141756,11499,-0.093,1.026,0.05,-0.122,0.549,0.305,611.594
120772,141684,9298,-0.097,1.023,0.051,-0.122,0.549,0.305,611.598
120772,141762,11506,-0.095,1.026,0.054,0,0.61,0.244,611.604
120749,141684,9298,-0.094,1.027,0.053,0,0.61,0.244,611.608
120749,141752,11493,-0.097,1.026,0.052,-0.366,0.61,0.305,611.614
120771,141684,9298,-0.097,1.026,0.052,-0.366,0.61,0.305,611.618
120771,141746,11502,-0.098,1.026,0.053,-0.366,0.366,0.366,611.624
120764,141684,9298,-0.097,1.028,0.049,-0.366,0.366,0.366,611.628
120764,141754,11501,-0.095,1.027,0.048,-0.427,0.061,0.244,611.634
120762,141684,9298,-0.094,1.029,0.044,-0.427,0.061,0.244,611.638
120762,141740,11511,-0.095,1.027,0.048,-0.732,0.061,0.244,611.644
120757,141684,9298,-0.092,1.025,0.05,-0.732,0.061,0.244,611.647
120757,141777,11512,-0.091,1.024,0.05,-0.61,-0.061,0.366,611.654
120775,141684,9298,-0.093,1.026,0.058,-0.61,-0.061,0.366,611.657
120775,141782,11495,-0.091,1.025,0.055,-0.305,-0.305,0.427,611.663
120766,141684,9298,-0.091,1.024,0.056,-0.305,-0.305,0.427,611.667
120766,141776,11485,-0.093,1.025,0.061,-0.366,0,0.366,611.673
120771,141684,9298,-0.094,1.027,0.058,-0.366,0,0.366,611.677
120771,141757,11498,-0.094,1.028,0.055,-0.427,0.549,0.305,611.683
120786,141684,9298,-0.095,1.026,0.053,-0.427,0.549,0.305,611.687
120786,141744,11503,-0.098,1.027,0.052,-0.549,0.732,0.366,611.693
120772,141684,9298,-0.097,1.026,0.05,-0.549,0.732,0.366,611.697
120772,141735,11500,-0.099,1.027,0.051,-0.549,0.61,0.366,611.703
120776,141684,9298,-0.1,1.026,0.051,-0.549,0.61,0.366,611.707
120776,141752,11526,-0.1,1.026,0.052,-0.305,0.488,0.366,611.713
120770,141684,9298,-0.099,1.025,0.051,-0.305,0.488,0.366,611.717
120770,141770,11512,-0.098,1.024,0.052,-0.244,0.366,0.427,611.723
120767,141684,9298,-0.095,1.025,0.052,-0.244,0.366,0.427,611.727
120767,141754,11512,-0.093,1.025,0.054,-0.183,0,0.427,611.733
120772,141684,9298,-0.09,1.029,0.053,-0.183,0,0.427,611.737
120772,141745,11504,-0.089,1.03,0.05,-0.122,-0.244,0.305,611.743
120765,141684,9298,-0.085,1.028,0.053,-0.122,-0.244,0.305,611.746
120765,141757,11507,-0.085,1.029,0.056,-0.061,0.061,0.244,611.753
120766,141684,9298,-0.09,1.028,0.051,-0.061,0.061,0.244,611.756
120766,141764,11497,-0.09,1.027,0.054,0,0.793,0.244,611.762
120768,141684,9298,-0.098,1.026,0.054,0,0.793,0.244,611.766
120768,141752,11490,-0.102,1.024,0.054,-0.061,1.28,0.244,611.772
120773,141684,9298,-0.1,1.026,0.053,-0.061,1.28,0.244,611.776
120773,141724,11495,-0.1,1.026,0.049,-0.244,1.159,0.183,611.782
120779,141684,9298,-0.102,1.026,0.055,-0.244,1.159,0.183,611.786
120779,141738,11511,-0.096,1.026,0.053,-0.244,0.488,0.244,611.792
120742,141684,9298,-0.093,1.026,0.051,-0.244,0.488,0.244,611.796
120742,141751,11503,-0.093,1.026,0.054,-0.244,0.061,0.244,611.802
120741,141684,9298,-0.091,1.026,0.056,-0.244,0.061,0.244,611.806
120741,141764,11498,-0.093,1.025,0.055,-0.305,0.427,0.305,611.812
120745,141684,9298,-0.093,1.023,0.052,-0.305,0.427,0.305,611.816
120745,141756,11505,-0.094,1.023,0.052,-0.305,0.915,0.244,611.822
120744,141684,9298,-0.093,1.023,0.05,-0.305,0.915,0.244,611.826
120744,141747,11492,-0.095,1.024,0.047,-0.122,0.854,0.366,611.832
120764,141684,9298,-0.096,1.024,0.048,-0.122,0.854,0.366,611.836
120764,141748,11497,-0.093,1.023,0.048,0.183,0.366,0.488,611.842
120750,141684,9298,-0.097,1.026,0.054,0.183,0.366,0.488,611.845
120750,141737,11507,-0.094,1.029,0.053,0.183,0.305,0.549,611.852
120775,141684,9298,-0.097,1.031,0.053,0.183,0.305,0.549,611.855
120775,141727,11499,-0.099,1.032,0.056,0.061,0.488,0.488,611.861
120742,141684,9298,-0.099,1.032,0.051,0.061,0.488,0.488,611.865
120742,141730,11507,-0.103,1.033,0.047,-0.549,0.671,0.488,611.871
120748,141684,9298,-0.105,1.033,0.044,-0.549,0.671,0.488,611.875
120748,141729,11509,-0.107,1.032,0.046,-1.22,0.549,0.488,611.881
120757,141684,9298,-0.104,1.031,0.047,-1.22,0.549,0.488,611.885
120757,141743,11508,-0.1,1.025,0.047,-1.585,0,0.488,611.891
120751,141684,9298,-0.095,1.025,0.048,-1.585,0,0.488,611.895
120751,141731,11512,-0.09,1.025,0.047,-1.402,-0.732,0.427,611.901
120744,141684,9298,-0.085,1.024,0.051,-1.402,-0.732,0.427,611.905
120744,141747,11505,-0.077,1.024,0.048,-0.732,-1.28,0.366,611.911
120754,141684,9298,-0.074,1.026,0.052,-0.732,-1.28,0.366,611.915
120754,141752,11500,-0.074,1.022,0.055,0,-0.976,0.305,611.921
120752,141684,9298,-0.077,1.025,0.055,0,-0.976,0.305,611.925
120752,141742,11495,-0.086,1.026,0.053,0.671,0.061,0.122,611.931
120749,141684,9298,-0.093,1.027,0.055,0.671,0.061,0.122,611.934
120749,141760,11513,-0.101,1.028,0.057,0.549,1.22,0.061,611.941
120762,141684,9298,-0.108,1.026,0.059,0.549,1.22,0.061,611.944
120762,141742,11507,-0.105,1.027,0.056,-0.122,1.341,0.305,611.951
120754,141684,9298,-0.104,1.028,0.057,-0.122,1.341,0.305,611.954
120754,141769,11516,-0.104,1.03,0.059,-0.854,0.549,0.549,611.96
120780,141684,9298,-0.104,1.03,0.059,-0.854,0.549,0.549,611.964
120780,141767,11500,-0.092,1.025,0.059,-1.402,-0.122,0.854,611.97
120744,141684,9298,-0.092,1.025,0.059,-1.402,-0.122,0.854,611.974
120744,141761,11502,-0.088,1.022,0.054,-1.341,0.061,0.854,611.98
120762,141684,9298,-0.088,1.022,0.054,-1.341,0.061,0.854,611.984
120762,141758,11511,-0.093,1.02,0.05,-0.915,0.61,0.793,611.99
120769,141684,9298,-0.093,1.02,0.05,-0.915,0.61,0.793,611.994
120769,141764,11494,-0.095,1.021,0.054,0.061,1.037,0.732,612
120760,141684,9298,-0.095,1.021,0.054,0.061,1.037,0.732,612.004
120760,141756,11503,-0.101,1.026,0.053,1.037,0.915,0.549,612.01
120744,141684,9298,-0.101,1.026,0.053,1.037,0.915,0.549,612.014
120744,141745,11512,-0.099,1.034,0.052,1.402,0.61,0.305,612.02
120763,141684,9298,-0.099,1.034,0.052,1.402,0.61,0.305,612.024
120763,141761,11498,-0.095,1.037,0.058,0.793,0.61,0.183,612.03
120765,141684,9298,-0.095,1.037,0.058,0.793,0.61,0.183,612.033
120765,141741,11513,-0.095,1.034,0.049,0,0.671,0.122,612.04
120782,141684,9298,-0.095,1.034,0.049,0,0.671,0.122,612.043
120782,141769,11489,-0.093,1.025,0.051,-0.671,0.671,0.061,612.049
120773,141684,9298,-0.093,1.025,0.051,-0.671,0.671,0.061,612.053
120773,141757,11501,-0.095,1.02,0.047,-0.61,0.732,0.061,612.059
120756,141684,9298,-0.095,1.02,0.047,-0.61,0.732,0.061,612.063
120756,141769,11511,-0.095,1.018,0.052,-0.122,0.61,0.183,612.069
120769,141684,9298,-0.095,1.018,0.052,-0.122,0.61,0.183,612.073
120769,141776,11508,-0.097,1.021,0.05,0.427,0.549,0.122,612.079
120751,141684,9298,-0.097,1.021,0.05,0.427,0.549,0.122,612.083
120751,141775,11506,-0.095,1.028,0.054,0.732,0.366,0.244,612.089
120767,141684,9298,-0.095,1.028,0.054,0.732,0.366,0.244,612.093
120767,141766,11504,-0.094,1.031,0.05,0.732,0.366,0.244,612.099
120779,141684,9298,-0.096,1.034,0.051,0.244,0.122,0.427,612.103
120779,141764,11509,-0.098,1.03,0.052,0.244,0.122,0.427,612.109
120786,141684,9298,-0.098,1.031,0.051,-0.549,0.244,0.427,612.113
120786,141772,11495,-0.099,1.029,0.052,-0.549,0.244,0.427,612.119
120788,141684,9298,-0.098,1.026,0.053,-1.22,0.305,0.488,612.123
120788,141751,11508,-0.096,1.024,0.051,-1.22,0.305,0.488,612.129
120764,141684,9298,-0.1,1.023,0.047,-1.402,0.305,0.549,612.132
120764,141749,11503,-0.096,1.025,0.053,-1.402,0.305,0.549,612.139
120755,141684,9298,-0.094,1.025,0.05,-0.915,0.183,0.488,612.142
120755,141776,11504,-0.093,1.023,0.052,-0.915,0.183,0.488,612.148
120762,141684,9298,-0.093,1.025,0.05,-0.244,0,0.305,612.152
120762,141746,11501,-0.093,1.026,0.056,-0.244,0,0.305,612.158
120753,141684,9298,-0.09,1.026,0.053,0.122,-0.183,0.305,612.162
120753,141745,11506,-0.092,1.029,0.051,0.122,-0.183,0.305,612.168
120763,141684,9298,-0.095,1.029,0.052,0.183,0,0.244,612.172
120763,141758,11517,-0.094,1.03,0.052,0.183,0,0.244,612.178
120791,141684,9298,-0.096,1.029,0.052,-0.122,0.305,0.183,612.182
120791,141729,11497,-0.102,1.029,0.053,-0.122,0.305,0.183,612.188
120796,141684,9298,-0.102,1.03,0.055,-0.549,0.549,0.244,612.192
120796,141799,11507,-0.102,1.026,0.052,-0.549,0.549,0.244,612.198
120789,141684,9298,-0.101,1.026,0.054,-0.915,0.244,0.366,612.202
120789,141774,11493,-0.099,1.026,0.058,-0.915,0.244,0.366,612.208
120769,141684,9298,-0.097,1.026,0.057,-1.098,0.061,0.488,612.212
120769,141756,11509,-0.093,1.026,0.056,-1.098,0.061,0.488,612.218
120755,141684,9298,-0.089,1.023,0.058,-1.098,0.061,0.488,612.222
120755,141755,11510,-0.091,1.022,0.054,-1.098,0.061,0.488,612.228
120748,141684,9298,-0.092,1.024,0.053,-0.61,0.366,0.488,612.231
120748,141744,11508,-0.09,1.023,0.051,-0.61,0.366,0.488,612.238
120750,141684,9298,-0.092,1.024,0.051,-0.061,0.671,0.427,612.241
120750,141726,11518,-0.093,1.022,0.051,-0.061,0.671,0.427,612.247
120728,141684,9298,-0.095,1.023,0.052,0.305,0.61,0.488,612.251
120728,141729,11510,-0.094,1.027,0.052,0.305,0.61,0.488,612.257
120737,141684,9298,-0.097,1.029,0.056,0.488,0.549,0.427,612.261
120737,141768,11512,-0.098,1.03,0.056,0.488,0.549,0.427,612.267
120772,141684,9298,-0.099,1.03,0.053,0.427,0.305,0.427,612.271
120772,141758,11500,-0.099,1.03,0.056,0.427,0.305,0.427,612.277
120759,141684,9298,-0.094,1.034,0.053,-0.427,0.366,0.488,612.281
120759,141720,11510,-0.096,1.031,0.051,-0.427,0.366,0.488,612.287
120727,141684,9298,-0.098,1.026,0.051,-0.915,0.427,0.488,612.291
120727,141723,11496,-0.094,1.025,0.053,-0.915,0.427,0.488,612.297
120738,141684,9298,-0.092,1.024,0.052,-1.037,0.366,0.488,612.301
120738,141697,11508,-0.094,1.018,0.05,-1.037,0.366,0.488,612.307
120719,141684,9298,-0.096,1.02,0.052,-0.61,0.488,0.488,612.311
120719,141736,11515,-0.095,1.024,0.05,-0.61,0.488,0.488,612.317
120714,141684,9298,-0.095,1.022,0.05,-0.061,0.61,0.366,612.321
120714,141740,11501,-0.096,1.025,0.051,-0.061,0.61,0.366,612.327
120734,141684,9298,-0.096,1.027,0.05,0.366,0.427,0.366,612.33
120734,141737,11520,-0.094,1.031,0.055,0.366,0.427,0.366,612.337
120747,141684,9298,-0.094,1.031,0.056,0.427,0,0.305,612.34
120747,141754,11511,-0.092,1.033,0.055,0.427,0,0.305,612.346
120777,141684,9298,-0.095,1.032,0.056,0.122,-0.183,0.305,612.35
120777,141723,11504,-0.097,1.029,0.053,0.122,-0.183,0.305,612.356
120741,141684,9298,-0.094,1.027,0.054,-0.488,0.061,0.305,612.36
120741,141756,11499,-0.096,1.029,0.054,-0.488,0.061,0.305,612.366
120753,141684,9298,-0.096,1.026,0.046,-0.976,0.305,0.366,612.37
120753,141754,11491,-0.096,1.025,0.053,-0.976,0.305,0.366,612.376
120736,141684,9298,-0.092,1.022,0.051,-1.159,0.244,0.366,612.38
120736,141743,11518,-0.09,1.021,0.052,-1.159,0.244,0.366,612.386
120734,141684,9298,-0.089,1.019,0.055,-0.732,0.122,0.427,612.39
120734,141709,11524,-0.088,1.024,0.057,-0.732,0.122,0.427,612.396
120751,141684,9298,-0.091,1.022,0.055,0.244,0.366,0.244,612.4
120751,141762,11510,-0.092,1.022,0.054,0.244,0.366,0.244,612.406
120743,141684,9298,-0.093,1.023,0.052,0.427,0.793,0.244,612.41
120743,141760,11507,-0.097,1.027,0.053,0.427,0.793,0.244,612.416
120735,141684,9298,-0.1,1.029,0.055,0.305,0.793,0.366,612.419
120735,141738,11505,-0.098,1.032,0.059,0.305,0.793,0.366,612.426
120729,141684,9298,-0.097,1.034,0.054,0.183,0.549,0.366,612.429
120729,141743,11499,-0.1,1.032,0.059,0.183,0.549,0.366,612.436
120757,141684,9298,-0.098,1.031,0.053,-0.366,0.122,0.366,612.439
120757,141727,11490,-0.096,1.028,0.054,-0.366,0.122,0.366,612.445
120729,141684,9298,-0.095,1.028,0.054,-1.098,-0.122,0.427,612.449
120729,141759,11503,-0.093,1.028,0.053,-1.098,-0.122,0.427,612.455
120715,141684,9298,-0.09,1.026,0.056,-1.28,0.061,0.549,612.459
120715,141761,11508,-0.087,1.022,0.05,-1.28,0.061,0.549,612.465
120737,141684,9298,-0.089,1.02,0.051,-0.732,0.427,0.366,612.469
120737,141758,11495,-0.088,1.024,0.049,-0.732,0.427,0.366,612.475
120742,141684,9298,-0.09,1.023,0.051,0.122,0.793,0.244,612.479
120742,141766,11504,-0.093,1.024,0.057,0.122,0.793,0.244,612.485
120735,141684,9298,-0.095,1.023,0.059,0.793,0.915,0.122,612.489
120735,141753,11512,-0.095,1.028,0.057,0.793,0.915,0.122,612.495
120742,141684,9298,-0.099,1.027,0.054,0.854,0.915,0.122,612.499
120742,141749,11501,-0.098,1.027,0.058,0.854,0.915,0.122,612.505
120733,141684,9298,-0.097,1.031,0.055,0.427,0.793,0.244,612.509
120733,141768,11495,-0.099,1.031,0.052,0.427,0.793,0.244,612.515
120738,141684,9298,-0.101,1.029,0.052,-0.366,0.671,0.366,612.518
120738,141760,11498,-0.1,1.029,0.054,-0.366,0.671,0.366,612.525
120751,141684,9298,-0.096,1.026,0.053,-0.915,0.549,0.366,612.528
120751,141761,11497,-0.097,1.027,0.047,-0.915,0.549,0.366,612.535
120746,141684,9298,-0.097,1.027,0.047,-0.915,0.549,0.366,612.538
120746,141767,11495,-0.098,1.024,0.052,-1.037,0.427,0.488,612.544
120732,141684,9298,-0.098,1.024,0.052,-1.037,0.427,0.488,612.548
120732,141761,11511,-0.096,1.024,0.053,-0.793,0.427,0.488,612.554
120750,141684,9298,-0.096,1.024,0.053,-0.793,0.427,0.488,612.558
120750,141757,11502,-0.092,1.026,0.048,-0.305,0.427,0.488,612.564
120743,141684,9298,-0.092,1.026,0.048,-0.305,0.427,0.488,612.568
120743,141763,11504,-0.088,1.029,0.051,0.183,0.183,0.305,612.574
120744,141684,9298,-0.088,1.029,0.051,0.183,0.183,0.305,612.578
120744,141765,11494,-0.087,1.031,0.052,0.305,0.122,0.305,612.584
120735,141684,9298,-0.087,1.031,0.052,0.305,0.122,0.305,612.588
120735,141766,11505,-0.092,1.029,0.057,0.183,0.244,0.183,612.594
120743,141684,9298,-0.092,1.029,0.057,0.183,0.244,0.183,612.598
120743,141755,11495,-0.103,1.026,0.051,-0.244,0.61,0.122,612.604
120742,141684,9298,-0.103,1.026,0.051,-0.244,0.61,0.122,612.608
120742,141753,11498,-0.103,1.023,0.051,-0.61,0.671,0.244,612.614
120737,141684,9298,-0.103,1.023,0.051,-0.61,0.671,0.244,612.617
120737,141759,11493,-0.101,1.025,0.053,-0.549,0.549,0.366,612.624
120749,141684,9298,-0.101,1.025,0.053,-0.549,0.549,0.366,612.627
120749,141766,11495,-0.096,1.024,0.055,-0.671,0.061,0.549,612.634
120749,141684,9298,-0.096,1.024,0.055,-0.671,0.061,0.549,612.637
120749,141737,11496,-0.09,1.025,0.061,-0.61,-0.305,0.61,612.643
120758,141684,9298,-0.09,1.025,0.061,-0.61,-0.305,0.61,612.647
120758,141778,11507,-0.089,1.026,0.054,-0.488,0,0.549,612.653
120758,141684,9298,-0.089,1.026,0.054,-0.488,0,0.549,612.657
120758,141751,11501,-0.09,1.027,0.051,-0.366,0.488,0.427,612.663
120756,141684,9298,-0.09,1.027,0.051,-0.366,0.488,0.427,612.667
120756,141760,11521,-0.095,1.029,0.051,0,0.732,0.366,612.673
120743,141684,9298,-0.095,1.029,0.051,0,0.732,0.366,612.677
120743,141746,11511,-0.096,1.028,0.053,0.305,0.732,0.366,612.683
120740,141684,9298,-0.097,1.028,0.056,0.305,0.732,0.366,612.687
120740,141767,11499,-0.098,1.027,0.053,0.183,0.549,0.305,612.693
120735,141684,9298,-0.101,1.03,0.053,0.183,0.549,0.305,612.697
120735,141764,11488,-0.102,1.028,0.055,-0.183,0.488,0.305,612.703
120728,141684,9298,-0.102,1.028,0.053,-0.183,0.488,0.305,612.707
120728,141737,11503,-0.099,1.029,0.049,-0.305,0.305,0.305,612.713
120745,141684,9298,-0.094,1.027,0.051,-0.305,0.305,0.305,612.716
120745,141746,11504,-0.094,1.027,0.053,-0.671,0,0.427,612.723
120734,141684,9298,-0.091,1.022,0.051,-0.671,0,0.427,612.726
120734,141748,11489,-0.091,1.023,0.049,-0.732,0.122,0.488,612.733
120746,141684,9298,-0.09,1.025,0.051,-0.732,0.122,0.488,612.736
120746,141745,11509,-0.09,1.023,0.048,-0.61,0.244,0.427,612.742
120754,141684,9298,-0.091,1.024,0.05,-0.61,0.244,0.427,612.746
120754,141782,11501,-0.091,1.023,0.053,-0.183,0.244,0.488,612.752
120757,141684,9298,-0.089,1.024,0.052,-0.183,0.244,0.488,612.756
120757,141791,11501,-0.089,1.029,0.052,0.183,0.305,0.488,612.762
120749,141684,9298,-0.09,1.03,0.053,0.183,0.305,0.488,612.766
120749,141764,11495,-0.093,1.031,0.053,0.122,0.305,0.549,612.772
120739,141684,9298,-0.094,1.03,0.056,0.122,0.305,0.549,612.776
120739,141762,11512,-0.094,1.029,0.056,-0.244,0.427,0.549,612.782
120746,141684,9298,-0.097,1.027,0.057,-0.244,0.427,0.549,612.786
120746,141758,11504,-0.097,1.027,0.054,-0.976,0.427,0.61,612.792
120729,141684,9298,-0.097,1.027,0.054,-0.976,0.427,0.61,612.796
120729,141768,11509,-0.097,1.026,0.056,-1.28,0.366,0.671,612.802
120733,141684,9298,-0.097,1.024,0.053,-1.28,0.366,0.671,612.806
120733,141766,11499,-0.098,1.022,0.056,-1.098,0.488,0.61,612.812
120730,141684,9298,-0.096,1.023,0.055,-1.098,0.488,0.61,612.815
120730,141757,11519,-0.096,1.025,0.054,-0.671,0.305,0.488,612.822
120753,141684,9298,-0.096,1.024,0.053,-0.671,0.305,0.488,612.825
120753,141761,11528,-0.094,1.023,0.053,-0.122,0.244,0.427,612.832
120739,141684,9298,-0.092,1.022,0.048,-0.122,0.244,0.427,612.835
120739,141766,11506,-0.094,1.024,0.052,0.427,0.244,0.427,612.841
120733,141684,9298,-0.093,1.029,0.053,0.427,0.244,0.427,612.845
120733,141761,11521,-0.096,1.03,0.051,0.671,0.305,0.366,612.851
120732,141684,9298,-0.097,1.032,0.055,0.671,0.305,0.366,612.855
120732,141747,11500,-0.097,1.031,0.055,0.488,0.427,0.244,612.861
120740,141684,9298,-0.097,1.034,0.056,0.488,0.427,0.244,612.865
120740,141790,11499,-0.096,1.032,0.052,-0.061,0.488,0.305,612.871
120748,141684,9298,-0.095,1.031,0.054,-0.061,0.488,0.305,612.875
120748,141786,11499,-0.095,1.032,0.055,-0.671,0.427,0.366,612.881
120752,141684,9298,-0.093,1.027,0.056,-0.671,0.427,0.366,612.885
120752,141779,11494,-0.093,1.025,0.053,-0.976,0.244,0.244,612.891
120747,141684,9298,-0.091,1.025,0.054,-0.976,0.244,0.244,612.895
120747,141755,11510,-0.092,1.021,0.049,-0.915,0.244,0.244,612.901
120753,141684,9298,-0.089,1.02,0.049,-0.915,0.244,0.244,612.905
120753,141762,11515,-0.089,1.018,0.052,-0.366,0.366,0.305,612.911
120729,141684,9298,-0.089,1.017,0.053,-0.366,0.366,0.305,612.914
120729,141762,11525,-0.093,1.02,0.053,0.244,0.366,0.366,612.921
120762,141684,9298,-0.093,1.023,0.052,0.244,0.366,0.366,612.924
120762,141770,11512,-0.092,1.023,0.055,0.488,0.366,0.305,612.931
120752,141684,9298,-0.096,1.029,0.054,0.488,0.366,0.305,612.934
120752,141765,11496,-0.099,1.031,0.056,0.183,0.488,0.366,612.94
120745,141684,9298,-0.103,1.031,0.052,0.183,0.488,0.366,612.944
120745,141761,11504,-0.101,1.031,0.054,-0.366,0.549,0.427,612.95
120745,141684,9298,-0.101,1.032,0.048,-0.366,0.549,0.427,612.954
120745,141765,11516,-0.1,1.031,0.05,-1.037,0.427,0.488,612.96
120733,141684,9298,-0.1,1.031,0.053,-1.037,0.427,0.488,612.964
120733,141774,11510,-0.099,1.032,0.053,-1.463,-0.122,0.61,612.97
120731,141684,9298,-0.092,1.029,0.057,-1.463,-0.122,0.61,612.974
120731,141768,11502,-0.089,1.028,0.06,-1.037,-0.366,0.488,612.98
120743,141684,9298,-0.089,1.027,0.057,-1.037,-0.366,0.488,612.984
120743,141776,11515,-0.086,1.028,0.058,-0.366,-0.061,0.183,612.99
120744,141684,9298,-0.087,1.025,0.057,-0.366,-0.061,0.183,612.994
120744,141756,11506,-0.091,1.021,0.055,0.122,0.549,0.122,613
120742,141684,9298,-0.094,1.023,0.056,0.122,0.549,0.122,613.004
120742,141767,11511,-0.099,1.025,0.056,0.366,1.098,0.183,613.01
120733,141684,9298,-0.098,1.025,0.056,0.366,1.098,0.183,613.013
120733,141765,11495,-0.099,1.025,0.053,0.549,0.976,0.122,613.02
120744,141684,9298,-0.1,1.025,0.055,0.549,0.976,0.122,613.023
120744,141751,11530,-0.099,1.026,0.058,0.366,0.427,0.244,613.03
120738,141684,9298,-0.099,1.026,0.059,0.366,0.427,0.244,613.033
120738,141743,11513,-0.093,1.025,0.054,-0.122,0.244,0.488,613.039
120750,141684,9298,-0.092,1.027,0.052,-0.122,0.244,0.488,613.043
120750,141765,11512,-0.089,1.026,0.052,-0.793,0.305,0.671,613.049
120732,141684,9298,-0.089,1.026,0.053,-0.793,0.305,0.671,613.053
120732,141736,11521,-0.088,1.024,0.052,-0.915,0.427,0.732,613.059
120750,141684,9298,-0.089,1.025,0.05,-0.915,0.427,0.732,613.063
120750,141747,11515,-0.091,1.022,0.053,-0.793,0.732,0.671,613.069
120725,141684,9298,-0.093,1.024,0.052,-0.793,0.732,0.671,613.073
120725,141759,11522,-0.096,1.026,0.049,-0.366,0.976,0.549,613.079
120745,141684,9298,-0.097,1.027,0.053,-0.366,0.976,0.549,613.083
120745,141746,11518,-0.098,1.028,0.054,0.183,0.854,0.488,613.089
120744,141684,9298,-0.098,1.03,0.05,0.183,0.854,0.488,613.093
120744,141746,11510,-0.098,1.032,0.052,0.488,0.366,0.427,613.099
120741,141684,9298,-0.099,1.033,0.05,0.488,0.366,0.427,613.103
120741,141745,11511,-0.095,1.033,0.049,0.244,0.122,0.366,613.109
120740,141684,9298,-0.095,1.031,0.051,0.244,0.122,0.366,613.112
120740,141760,11513,-0.096,1.031,0.054,-0.305,0,0.305,613.119
120727,141684,9298,-0.096,1.031,0.054,-0.305,0,0.305,613.122
120727,141734,11525,-0.093,1.027,0.052,-0.671,0.061,0.244,613.129
120711,141684,9298,-0.093,1.027,0.052,-0.671,0.061,0.244,613.132
120711,141734,11523,-0.093,1.022,0.048,-0.793,0,0.244,613.138
120730,141684,9298,-0.093,1.022,0.048,-0.793,0,0.244,613.142
120730,141743,11524,-0.092,1.018,0.048,-0.549,-0.061,0.244,613.148
120715,141684,9298,-0.092,1.018,0.048,-0.549,-0.061,0.244,613.152
120715,141740,11524,-0.092,1.021,0.051,-0.244,0,0.305,613.158
120715,141684,9298,-0.092,1.021,0.051,-0.244,0,0.305,613.162
120715,141762,11513,-0.093,1.022,0.056,0.183,0.183,0.305,613.168
120725,141684,9298,-0.093,1.022,0.056,0.183,0.183,0.305,613.172
120725,141762,11511,-0.097,1.027,0.056,0.122,0.244,0.427,613.178
120725,141684,9298,-0.097,1.027,0.056,0.122,0.244,0.427,613.182
120725,141765,11506,-0.095,1.031,0.06,-0.549,0,0.61,613.188
120729,141684,9298,-0.095,1.031,0.06,-0.549,0,0.61,613.192
120729,141773,11513,-0.089,1.029,0.056,-1.22,-0.305,0.61,613.198
120722,141684,9298,-0.089,1.029,0.056,-1.22,-0.305,0.61,613.202
120722,141778,11508,-0.087,1.027,0.056,-1.22,-0.061,0.488,613.208
120712,141684,9298,-0.087,1.027,0.056,-1.22,-0.061,0.488,613.211
120712,141735,11504,-0.093,1.024,0.056,-0.732,0.793,0.427,613.218
120714,141684,9298,-0.093,1.024,0.056,-0.732,0.793,0.427,613.221
120714,141744,11513,-0.1,1.023,0.057,0,1.28,0.305,613.228
120723,141684,9298,-0.1,1.023,0.057,0,1.28,0.305,613.231
120723,141744,11522,-0.099,1.029,0.053,0.488,1.037,0.305,613.237
120711,141684,9298,-0.099,1.029,0.053,0.488,1.037,0.305,613.241
120711,141780,11514,-0.094,1.026,0.056,0.854,0.366,0.244,613.247
120721,141684,9298,-0.094,1.026,0.056,0.854,0.366,0.244,613.251
120721,141770,11500,-0.092,1.029,0.058,0.671,0.244,0.183,613.257
120731,141684,9298,-0.092,1.029,0.058,0.671,0.244,0.183,613.261
