150995,156551,9125,-0.216,0.995,0.1,-0.549,0.183,0.488,293.961
150995,156528,12938,-0.215,0.996,0.099,-0.549,0.183,0.488,293.967
150993,156551,9125,-0.216,0.998,0.1,-0.244,0.122,0.549,293.971
150993,156527,12922,-0.217,1,0.1,-0.244,0.122,0.549,293.977
150980,156551,9125,-0.219,1.005,0.105,-0.244,0.244,0.671,293.981
150980,156553,12914,-0.22,1.005,0.104,-0.244,0.244,0.671,293.987
150970,156551,9125,-0.219,1.004,0.106,-0.305,0.366,0.671,293.991
150970,156515,12912,-0.217,1.003,0.104,-0.305,0.366,0.671,293.997
150996,156551,9125,-0.218,1.003,0.105,-0.61,0.183,0.61,294.001
150996,156533,12910,-0.216,1.001,0.104,-0.61,0.183,0.61,294.007
150997,156551,9125,-0.218,1.003,0.104,-0.854,0.305,0.61,294.01
150997,156494,12906,-0.212,1,0.104,-0.854,0.305,0.61,294.017
150975,156551,9125,-0.211,1.001,0.101,-0.549,0.366,0.427,294.02
150975,156528,12897,-0.213,1,0.103,-0.549,0.366,0.427,294.027
150978,156551,9125,-0.21,1.004,0.097,-0.183,0.61,0.305,294.03
150978,156505,12907,-0.211,1.003,0.095,-0.183,0.61,0.305,294.036
150968,156551,9125,-0.212,1.001,0.096,-0.122,0.549,0.305,294.04
150968,156521,12905,-0.213,0.998,0.096,-0.122,0.549,0.305,294.046
150986,156551,9125,-0.214,0.999,0.098,-0.244,0.305,0.488,294.05
150986,156517,12910,-0.211,1.004,0.105,-0.244,0.305,0.488,294.056
150971,156551,9125,-0.214,1.004,0.101,-0.732,0.244,0.549,294.06
150971,156537,12912,-0.214,1.001,0.101,-0.732,0.244,0.549,294.066
150991,156551,9125,-0.21,1.001,0.098,-0.732,0.183,0.488,294.07
150991,156526,12904,-0.212,1.001,0.099,-0.732,0.183,0.488,294.076
150970,156551,9125,-0.213,1.003,0.102,-0.549,0.122,0.61,294.08
150970,156527,12928,-0.216,1.003,0.101,-0.549,0.122,0.61,294.086
150984,156551,9125,-0.214,1,0.103,-0.305,0.366,0.61,294.09
150984,156534,12921,-0.217,1,0.101,-0.305,0.366,0.61,294.096
151025,156551,9125,-0.216,1.002,0.099,-0.366,0.488,0.488,294.1
151025,156545,12901,-0.216,1.001,0.102,-0.366,0.488,0.488,294.106
150990,156551,9125,-0.217,1.004,0.1,-0.366,0.183,0.488,294.109
150990,156525,12901,-0.217,1.004,0.101,-0.366,0.183,0.488,294.116
150995,156551,9125,-0.216,1.003,0.102,-0.244,0.244,0.549,294.119
150995,156552,12893,-0.216,1.006,0.098,-0.244,0.244,0.549,294.126
151014,156551,9125,-0.217,1.005,0.098,-0.122,0.427,0.488,294.129
151014,156531,12902,-0.215,1.006,0.1,-0.122,0.427,0.488,294.135
151016,156551,9125,-0.216,1.005,0.105,-0.244,0.305,0.427,294.139
151016,156559,12898,-0.216,1.006,0.099,-0.244,0.305,0.427,294.145
151022,156551,9125,-0.214,1.005,0.101,-0.488,0.122,0.366,294.149
151022,156559,12908,-0.214,1.005,0.099,-0.488,0.122,0.366,294.155
151044,156551,9125,-0.215,1,0.099,-0.671,0.183,0.305,294.159
151044,156559,12917,-0.215,1,0.097,-0.671,0.183,0.305,294.165
151022,156551,9125,-0.216,1.001,0.099,-0.549,0.305,0.244,294.169
151022,156550,12913,-0.215,1,0.098,-0.549,0.305,0.244,294.175
151005,156551,9125,-0.214,1,0.097,-0.488,0.305,0.366,294.179
151005,156540,12916,-0.218,0.999,0.101,-0.488,0.305,0.366,294.185
151010,156551,9125,-0.216,1.001,0.1,-0.427,0.244,0.488,294.189
151010,156551,12911,-0.212,1.003,0.103,-0.427,0.244,0.488,294.195
151028,156551,9125,-0.212,1.002,0.102,-0.488,0.183,0.549,294.199
151028,156543,12914,-0.213,1.004,0.103,-0.488,0.183,0.549,294.205
151013,156551,9125,-0.213,1.004,0.103,-0.488,0.183,0.549,294.208
151013,156539,12905,-0.217,1.002,0.101,-0.61,0.305,0.61,294.215
151009,156551,9125,-0.217,1.002,0.101,-0.61,0.305,0.61,294.218
151009,156546,12934,-0.214,1.002,0.101,-0.732,0.366,0.549,294.225
151020,156551,9125,-0.214,1.002,0.101,-0.732,0.366,0.549,294.228
151020,156567,12908,-0.212,1.002,0.103,-0.671,0.305,0.427,294.234
151009,156551,9125,-0.212,1.002,0.103,-0.671,0.305,0.427,294.238
151009,156561,12920,-0.215,1,0.1,-0.366,0.244,0.488,294.244
151024,156551,9125,-0.215,1,0.1,-0.366,0.244,0.488,294.248
151024,156556,12912,-0.215,1.001,0.104,-0.244,0.366,0.427,294.254
151008,156551,9125,-0.215,1.001,0.104,-0.244,0.366,0.427,294.258
151008,156561,12922,-0.212,1.003,0.107,0.061,0.488,0.366,294.264
151005,156551,9125,-0.212,1.003,0.107,0.061,0.488,0.366,294.268
151005,156572,12908,-0.214,1.003,0.099,0.061,0.671,0.305,294.274
151006,156551,9125,-0.214,1.003,0.099,0.061,0.671,0.305,294.278
151006,156560,12918,-0.214,1.001,0.101,-0.244,0.732,0.305,294.284
151001,156551,9125,-0.214,1.001,0.101,-0.244,0.732,0.305,294.288
151001,156564,12909,-0.21,1.002,0.097,-0.244,0.549,0.305,294.294
151005,156551,9125,-0.21,1.002,0.097,-0.244,0.549,0.305,294.298
151005,156545,12920,-0.217,1.004,0.101,-0.183,0.488,0.366,294.304
151003,156551,9125,-0.217,1.004,0.101,-0.183,0.488,0.366,294.307
151003,156562,12918,-0.217,1.002,0.101,0,0.61,0.305,294.314
150989,156551,9125,-0.217,1.002,0.101,0,0.61,0.305,294.317
150989,156574,12899,-0.213,1.001,0.101,-0.122,0.427,0.305,294.324
151017,156551,9125,-0.213,1.001,0.101,-0.122,0.427,0.305,294.327
151017,156576,12896,-0.215,1.005,0.1,-0.488,0.244,0.488,294.333
151023,156551,9125,-0.215,1.005,0.1,-0.488,0.244,0.488,294.337
151023,156564,12909,-0.212,1.005,0.103,-0.671,0.122,0.549,294.343
151007,156551,9125,-0.212,1.005,0.103,-0.671,0.122,0.549,294.347
151007,156578,12916,-0.217,1.002,0.104,-0.732,0.183,0.427,294.353
151016,156551,9125,-0.215,1.002,0.103,-0.732,0.183,0.427,294.357
151016,156546,12935,-0.216,1.002,0.103,-0.732,0.183,0.305,294.363
151022,156551,9125,-0.214,0.997,0.103,-0.732,0.183,0.305,294.367
151022,156575,12917,-0.217,0.999,0.099,-0.549,0.061,0.305,294.373
151031,156551,9125,-0.213,0.997,0.104,-0.549,0.061,0.305,294.377
151031,156557,12916,-0.211,0.998,0.107,-0.244,0,0.366,294.383
151024,156551,9125,-0.212,1.001,0.102,-0.244,0,0.366,294.387
151024,156553,12920,-0.215,1.002,0.102,-0.244,0.305,0.488,294.393
151009,156551,9125,-0.215,1.003,0.102,-0.244,0.305,0.488,294.397
151009,156584,12917,-0.213,1.002,0.105,-0.366,0.366,0.488,294.403
151032,156551,9125,-0.214,1,0.107,-0.366,0.366,0.488,294.406
151032,156585,12919,-0.214,1.001,0.106,-0.488,0.244,0.366,294.413
151032,156551,9125,-0.216,1.001,0.104,-0.488,0.244,0.366,294.416
151032,156595,12921,-0.215,1.002,0.102,-0.549,0.366,0.427,294.422
151038,156551,9125,-0.214,1.001,0.1,-0.549,0.366,0.427,294.426
151038,156568,12926,-0.215,1.002,0.104,-0.61,0.244,0.488,294.432
151014,156551,9125,-0.214,1.003,0.104,-0.61,0.244,0.488,294.436
151014,156596,12923,-0.216,1.002,0.103,-0.305,0.244,0.427,294.442
151042,156551,9125,-0.219,1.004,0.105,-0.305,0.244,0.427,294.446
151042,156576,12923,-0.216,1.005,0.105,-0.122,0.366,0.427,294.452
151023,156551,9125,-0.215,1.002,0.104,-0.122,0.366,0.427,294.456
151023,156591,12936,-0.216,1.003,0.102,-0.427,0.244,0.305,294.462
151044,156551,9125,-0.218,1.002,0.1,-0.427,0.244,0.305,294.466
151044,156599,12910,-0.214,1.002,0.099,-0.549,0.122,0.305,294.472
151037,156551,9125,-0.214,0.998,0.098,-0.549,0.122,0.305,294.476
151037,156592,12928,-0.214,1,0.099,-0.427,0.183,0.427,294.482
151026,156551,9125,-0.215,1.004,0.103,-0.427,0.183,0.427,294.486
151026,156600,12932,-0.214,1.008,0.102,-0.183,0.122,0.427,294.492
151035,156551,9125,-0.213,1.005,0.101,-0.183,0.122,0.427,294.496
151035,156588,12929,-0.21,1.009,0.105,-0.061,0.122,0.488,294.502
151037,156551,9125,-0.21,1.012,0.105,-0.061,0.122,0.488,294.505
151037,156587,12932,-0.213,1.007,0.101,-0.427,0.427,0.305,294.512
151026,156551,9125,-0.21,0.999,0.1,-0.427,0.427,0.305,294.515
151026,156604,12928,-0.211,0.999,0.099,-0.671,0.366,0.183,294.521
150999,156551,9125,-0.216,0.997,0.101,-0.671,0.366,0.183,294.525
150999,156611,12933,-0.212,0.996,0.105,-0.61,0.366,0.244,294.531
151029,156551,9125,-0.217,0.993,0.102,-0.61,0.366,0.244,294.535
151029,156616,12915,-0.22,0.994,0.105,0,0.366,0.183,294.541
151018,156551,9125,-0.219,0.998,0.107,0,0.366,0.183,294.545
151018,156602,12915,-0.22,1.001,0.105,0.122,0.427,0.244,294.551
151012,156551,9125,-0.217,1.001,0.105,0.122,0.427,0.244,294.555
151012,156591,12942,-0.216,0.999,0.115,-0.366,0.122,0.549,294.561
151014,156551,9125,-0.215,1.003,0.107,-0.366,0.122,0.549,294.565
151014,156604,12932,-0.216,1.002,0.107,-0.793,0.061,0.732,294.571
151043,156551,9125,-0.214,0.999,0.108,-0.793,0.061,0.732,294.575
151043,156596,12924,-0.215,1.004,0.106,-0.915,0.366,0.61,294.581
151021,156551,9125,-0.215,1,0.101,-0.915,0.366,0.61,294.585
151021,156640,12935,-0.215,1.002,0.1,-0.244,0.61,0.488,294.591
151019,156551,9125,-0.214,1.003,0.102,-0.244,0.61,0.488,294.594
151019,156609,12946,-0.214,1.008,0.102,0.244,0.61,0.427,294.601
151023,156551,9125,-0.214,1.01,0.102,0.244,0.61,0.427,294.604
151023,156611,12922,-0.212,1.009,0.103,0.244,0.671,0.366,294.611
151031,156551,9125,-0.215,1.008,0.1,0.244,0.671,0.366,294.614
151031,156612,12936,-0.213,1.009,0.102,-0.122,0.61,0.122,294.62
151027,156551,9125,-0.209,1.008,0.098,-0.122,0.61,0.122,294.624
151027,156609,12936,-0.211,1.005,0.101,-0.549,0.488,0,294.63
151020,156551,9125,-0.209,0.999,0.096,-0.549,0.488,0,294.634
151020,156589,12928,-0.212,0.999,0.095,-0.305,0.488,0.061,294.64
151031,156551,9125,-0.212,1,0.098,-0.305,0.488,0.061,294.644
151031,156611,12943,-0.212,1.001,0.1,-0.061,0.488,0,294.65
151040,156551,9125,-0.211,1.001,0.098,-0.061,0.488,0,294.654
151040,156633,12940,-0.214,1,0.102,0.244,0.244,0.122,294.66
151042,156551,9125,-0.215,1,0.101,0.244,0.244,0.122,294.664
151042,156601,12926,-0.214,1,0.1,-0.061,0.122,0.244,294.67
151037,156551,9125,-0.217,1.001,0.103,-0.061,0.122,0.244,294.674
151037,156592,12933,-0.215,0.999,0.106,-0.61,0,0.366,294.68
151044,156551,9125,-0.218,0.997,0.106,-0.61,0,0.366,294.684
151044,156633,12932,-0.218,0.997,0.108,-0.976,-0.122,0.549,294.69
151034,156551,9125,-0.215,0.998,0.11,-0.976,-0.122,0.549,294.693
151034,156605,12938,-0.218,0.997,0.109,-0.915,0,0.61,294.7
151010,156551,9125,-0.217,0.996,0.111,-0.915,0,0.61,294.703
151010,156619,12933,-0.215,0.997,0.112,-0.732,0.244,0.671,294.71
151018,156551,9125,-0.214,1,0.112,-0.732,0.244,0.671,294.713
151018,156617,12942,-0.214,1.005,0.111,-0.671,0.366,0.671,294.719
151021,156551,9125,-0.212,1.011,0.107,-0.671,0.366,0.671,294.723
151021,156599,12938,-0.213,1.007,0.108,-0.427,0.61,0.488,294.729
151042,156551,9125,-0.213,1.004,0.107,-0.427,0.61,0.488,294.733
151042,156640,12945,-0.215,1.004,0.102,0.122,0.915,0.366,294.739
151034,156551,9125,-0.213,1.004,0.1,0.122,0.915,0.366,294.743
151034,156615,12932,-0.213,1.002,0.099,0.183,0.793,0.183,294.749
151037,156551,9125,-0.211,1.002,0.105,0.183,0.793,0.183,294.753
151037,156633,12951,-0.212,1.001,0.1,0,0.488,0.183,294.759
151035,156551,9125,-0.212,1.001,0.099,0,0.488,0.183,294.763
151035,156641,12946,-0.213,1.004,0.102,-0.122,0.61,0.244,294.769
151053,156551,9125,-0.214,0.999,0.099,-0.122,0.61,0.244,294.773
151053,156626,12941,-0.214,1.002,0.096,0.061,0.671,0.305,294.779
151035,156551,9125,-0.214,1.002,0.096,0.061,0.671,0.305,294.783
151035,156656,12920,-0.212,1.003,0.104,0.183,0.671,0.427,294.789
151048,156551,9125,-0.212,1.003,0.104,0.183,0.671,0.427,294.792
151048,156634,12947,-0.214,1.001,0.103,0,0.488,0.366,294.799
151045,156551,9125,-0.214,1.001,0.103,0,0.488,0.366,294.802
151045,156652,12938,-0.214,1.005,0.104,-0.305,0.549,0.366,294.809
151050,156551,9125,-0.214,1.005,0.104,-0.305,0.549,0.366,294.812
151050,156647,12945,-0.215,1,0.098,-0.122,0.61,0.427,294.818
151032,156551,9125,-0.215,1,0.098,-0.122,0.61,0.427,294.822
151032,156638,12948,-0.219,1.004,0.1,-0.122,0.61,0.244,294.828
151035,156551,9125,-0.219,1.004,0.1,-0.122,0.61,0.244,294.832
151035,156670,12948,-0.215,1.003,0.102,-0.122,0.488,0.183,294.838
151043,156551,9125,-0.215,1.003,0.102,-0.122,0.488,0.183,294.842
151043,156638,12937,-0.216,1.001,0.102,-0.183,0.427,0.305,294.848
151045,156551,9125,-0.216,1.001,0.102,-0.183,0.427,0.305,294.852
151045,156649,12950,-0.215,1.001,0.106,-0.061,0.427,0.305,294.858
151035,156551,9125,-0.215,1.001,0.106,-0.061,0.427,0.305,294.862
151035,156665,12952,-0.217,1.002,0.103,0.122,0.488,0.122,294.868
151048,156551,9125,-0.217,1.002,0.103,0.122,0.488,0.122,294.872
151048,156662,12953,-0.22,1.002,0.104,-0.061,0.305,0.122,294.878
151053,156551,9125,-0.22,1.002,0.104,-0.061,0.305,0.122,294.882
151053,156651,12953,-0.216,1,0.108,-0.427,0.183,0.244,294.888
151030,156551,9125,-0.216,1,0.108,-0.427,0.183,0.244,294.891
151030,156643,12958,-0.213,1.002,0.104,-0.488,0.183,0.183,294.898
151029,156551,9125,-0.213,1.002,0.104,-0.488,0.183,0.183,294.901
151029,156621,12959,-0.212,1,0.103,-0.366,0.244,0.244,294.908
151021,156551,9125,-0.212,1,0.103,-0.366,0.244,0.244,294.911
151021,156596,12942,-0.214,1.002,0.101,-0.244,0.61,0.305,294.917
151002,156551,9125,-0.214,1.002,0.101,-0.244,0.61,0.305,294.921
151002,156606,12950,-0.211,1.005,0.099,-0.244,0.61,0.305,294.927
151005,156551,9125,-0.214,1.004,0.102,-0.061,0.732,0.305,294.931
151005,156583,12948,-0.209,1.001,0.097,-0.061,0.732,0.305,294.937
151026,156551,9125,-0.209,1.002,0.094,0.183,0.671,0.427,294.941
151026,156580,12924,-0.211,1.003,0.099,0.183,0.671,0.427,294.947
151021,156551,9125,-0.212,1.002,0.1,0.183,0.549,0.427,294.951
151021,156587,12936,-0.214,1.002,0.097,0.183,0.549,0.427,294.957
151015,156551,9125,-0.213,1.002,0.1,0.183,0.427,0.366,294.961
151015,156553,12927,-0.215,0.998,0.101,0.183,0.427,0.366,294.967
150998,156551,9125,-0.212,1.001,0.101,-0.122,0.305,0.305,294.971
150998,156537,12920,-0.214,1.003,0.1,-0.122,0.305,0.305,294.977
150997,156551,9125,-0.214,1.001,0.104,-0.183,0.244,0.427,294.98
150997,156565,12913,-0.218,1.001,0.102,-0.183,0.244,0.427,294.987
151015,156551,9125,-0.216,1.002,0.101,-0.305,0.183,0.488,294.99
151015,156573,12916,-0.22,1.001,0.105,-0.305,0.183,0.488,294.997
151017,156551,9125,-0.219,1.003,0.11,-0.427,0.183,0.427,295
151017,156550,12916,-0.217,1.004,0.106,-0.427,0.183,0.427,295.006
150998,156551,9125,-0.217,1.002,0.106,-0.488,0.122,0.366,295.01
150998,156521,12899,-0.217,1.003,0.107,-0.488,0.122,0.366,295.016
151003,156551,9125,-0.219,1.002,0.109,-0.488,0.183,0.427,295.02
151003,156522,12898,-0.215,1.003,0.105,-0.488,0.183,0.427,295.026
151001,156551,9125,-0.212,1.001,0.102,-0.61,0.244,0.305,295.03
151001,156538,12899,-0.213,0.999,0.107,-0.61,0.244,0.305,295.036
151018,156551,9125,-0.212,0.997,0.107,-0.244,0.305,0.305,295.04
151018,156529,12900,-0.212,1,0.103,-0.244,0.305,0.305,295.046
151005,156551,9125,-0.212,1,0.104,0,0.427,0.305,295.05
151005,156526,12906,-0.211,1.002,0.104,0,0.427,0.305,295.056
151000,156551,9125,-0.214,1,0.1,0.061,0.488,0.183,295.06
151000,156531,12908,-0.21,1.003,0.101,0.061,0.488,0.183,295.066
151016,156551,9125,-0.211,1.006,0.103,-0.061,0.427,0.244,295.07
151016,156542,12905,-0.214,1.004,0.107,-0.061,0.427,0.244,295.076
150992,156551,9125,-0.21,1.004,0.102,-0.183,0.549,0.366,295.079
150992,156560,12893,-0.212,1.003,0.104,-0.183,0.549,0.366,295.086
151005,156551,9125,-0.214,1.002,0.103,-0.305,0.61,0.427,295.089
151005,156546,12885,-0.213,1.002,0.103,-0.305,0.61,0.427,295.096
150992,156551,9125,-0.212,1.002,0.1,-0.366,0.549,0.366,295.099
150992,156537,12893,-0.212,0.999,0.103,-0.366,0.549,0.366,295.105
151004,156551,9125,-0.211,1.002,0.099,-0.183,0.549,0.366,295.109
151004,156555,12906,-0.211,1.002,0.101,-0.183,0.549,0.366,295.115
151025,156551,9125,-0.211,1.003,0.101,0.183,0.549,0.549,295.119
151025,156565,12893,-0.216,1.005,0.103,0.183,0.549,0.549,295.125
150996,156551,9125,-0.218,1.004,0.102,0.244,0.61,0.427,295.129
150996,156561,12898,-0.215,1.004,0.101,0.244,0.61,0.427,295.135
151018,156551,9125,-0.213,1.005,0.102,-0.061,0.305,0.427,295.139
151018,156561,12879,-0.213,1.005,0.106,-0.061,0.305,0.427,295.145
150998,156551,9125,-0.215,1,0.1,-0.427,0.305,0.488,295.149
150998,156555,12907,-0.217,1,0.101,-0.427,0.305,0.488,295.155
151017,156551,9125,-0.216,1,0.103,-0.61,0.366,0.366,295.159
151017,156540,12889,-0.216,1,0.103,-0.61,0.366,0.366,295.165
150991,156551,9125,-0.217,1.003,0.104,-0.427,0.366,0.244,295.169
150991,156544,12892,-0.219,1.005,0.103,-0.427,0.366,0.244,295.175
151003,156551,9125,-0.216,1.005,0.103,-0.122,0.427,0.366,295.178
151003,156557,12891,-0.215,1,0.101,-0.122,0.427,0.366,295.185
150990,156551,9125,-0.217,1.002,0.099,0.122,0.427,0.427,295.188
150990,156546,12889,-0.217,1.001,0.103,0.122,0.427,0.427,295.195
150977,156551,9125,-0.213,1.002,0.102,-0.183,0.244,0.366,295.198
150977,156566,12892,-0.214,1.001,0.103,-0.183,0.244,0.366,295.204
151024,156551,9125,-0.216,0.999,0.102,-0.61,0.122,0.427,295.208
151024,156545,12882,-0.214,0.999,0.1,-0.61,0.122,0.427,295.214
150996,156551,9125,-0.212,1.002,0.101,-0.61,-0.061,0.488,295.218
150996,156563,12901,-0.212,1.004,0.104,-0.61,-0.061,0.488,295.224
151025,156551,9125,-0.213,1.002,0.104,-0.549,0,0.549,295.228
151025,156568,12895,-0.213,0.999,0.104,-0.549,0,0.549,295.234
150983,156551,9125,-0.215,1.001,0.105,-0.671,0.122,0.549,295.238
150983,156536,12894,-0.214,1.001,0.101,-0.671,0.122,0.549,295.244
150984,156551,9125,-0.212,1.002,0.101,-0.854,0.122,0.549,295.248
150984,156557,12907,-0.21,1.002,0.099,-0.854,0.122,0.549,295.254
151006,156551,9125,-0.212,1.004,0.099,-0.793,0,0.671,295.258
151006,156535,12887,-0.214,0.997,0.099,-0.793,0,0.671,295.264
151023,156551,9125,-0.215,1,0.107,-0.549,0.061,0.549,295.268
151023,156550,12905,-0.214,1.003,0.103,-0.549,0.061,0.549,295.274
150994,156551,9125,-0.214,1.003,0.107,-0.549,0.122,0.488,295.277
150994,156553,12881,-0.215,1.002,0.105,-0.549,0.122,0.488,295.284
151017,156551,9125,-0.216,1.001,0.105,-0.549,0.061,0.427,295.287
151017,156551,12886,-0.215,1.001,0.109,-0.549,0.061,0.427,295.294
151024,156551,9125,-0.214,1,0.112,-0.427,0.061,0.488,295.297
151024,156537,12883,-0.216,1,0.108,-0.427,0.061,0.488,295.303
151027,156551,9125,-0.217,1.001,0.102,-0.244,0.244,0.488,295.307
151027,156567,12913,-0.215,1.001,0.103,-0.244,0.244,0.488,295.313
151039,156551,9125,-0.213,1,0.103,-0.061,0.488,0.427,295.317
151039,156561,12887,-0.213,1,0.103,-0.061,0.488,0.427,295.323
151025,156551,9125,-0.216,1.002,0.103,-0.061,0.488,0.366,295.327
151025,156560,12890,-0.215,1.003,0.107,-0.061,0.488,0.366,295.333
151012,156551,9125,-0.215,1.005,0.109,-0.061,0.549,0.427,295.337
151012,156567,12899,-0.213,1.001,0.106,-0.061,0.549,0.427,295.343
151027,156551,9125,-0.212,1,0.112,-0.061,0.732,0.305,295.347
151027,156559,12902,-0.213,1,0.108,-0.061,0.732,0.305,295.353
151036,156551,9125,-0.213,1,0.108,-0.061,0.732,0.305,295.357
151036,156568,12895,-0.218,1.002,0.104,0.183,0.793,0.366,295.363
150997,156551,9125,-0.218,1.002,0.104,0.183,0.793,0.366,295.367
150997,156546,12896,-0.213,1,0.104,0.183,0.915,0.305,295.373
151006,156551,9125,-0.213,1,0.104,0.183,0.915,0.305,295.376
151006,156565,12890,-0.214,0.999,0.101,0.549,0.915,0.183,295.383
151007,156551,9125,-0.214,0.999,0.101,0.549,0.915,0.183,295.386
151007,156547,12905,-0.212,1.007,0.101,0.671,1.098,0.305,295.393
150997,156551,9125,-0.212,1.007,0.101,0.671,1.098,0.305,295.396
150997,156572,12902,-0.215,1.005,0.104,0.61,1.28,0.366,295.402
151018,156551,9125,-0.215,1.005,0.104,0.61,1.28,0.366,295.406
151018,156551,12901,-0.214,1.002,0.101,0.427,1.159,0.244,295.412
151011,156551,9125,-0.214,1.002,0.101,0.427,1.159,0.244,295.416
151011,156568,12893,-0.212,1.004,0.101,0.488,0.976,0.183,295.422
151020,156551,9125,-0.212,1.004,0.101,0.488,0.976,0.183,295.426
151020,156571,12893,-0.211,1.002,0.1,0.427,0.915,0.244,295.432
151023,156551,9125,-0.211,1.002,0.1,0.427,0.915,0.244,295.436
151023,156584,12880,-0.217,1,0.098,0.488,0.854,0.183,295.442
151024,156551,9125,-0.217,1,0.098,0.488,0.854,0.183,295.446
151024,156558,12893,-0.213,1.001,0.101,0.366,0.671,0.305,295.452
151021,156551,9125,-0.213,1.001,0.101,0.366,0.671,0.305,295.456
151021,156545,12893,-0.213,1,0.103,0.122,0.61,0.427,295.462
151033,156551,9125,-0.213,1,0.103,0.122,0.61,0.427,295.466
151033,156590,12900,-0.213,0.999,0.101,0.061,0.671,0.488,295.472
151040,156551,9125,-0.213,0.999,0.101,0.061,0.671,0.488,295.475
151040,156571,12910,-0.213,1.005,0.102,0.061,0.549,0.427,295.482
151031,156551,9125,-0.213,1.005,0.102,0.061,0.549,0.427,295.485
151031,156597,12902,-0.214,1.005,0.102,0,0.305,0.305,295.491
151074,156551,9125,-0.214,1.005,0.102,0,0.305,0.305,295.495
151074,156606,12904,-0.216,1.001,0.099,-0.122,0.366,0.427,295.501
151035,156551,9125,-0.214,1.001,0.099,-0.122,0.366,0.427,295.505
151035,156608,12904,-0.214,1.001,0.101,-0.488,0.244,0.305,295.511
151044,156551,9125,-0.214,1.002,0.103,-0.488,0.244,0.305,295.515
151044,156637,12896,-0.212,1.002,0.108,-0.488,0.244,0.305,295.521
151068,156551,9125,-0.216,1.002,0.103,-0.488,0.244,0.305,295.525
151068,156609,12910,-0.216,1.001,0.104,-0.183,0.427,0.366,295.531
151057,156551,9125,-0.212,1,0.104,-0.183,0.427,0.366,295.535
151057,156606,12881,-0.216,1.002,0.102,0.122,0.549,0.366,295.541
151048,156551,9125,-0.216,1.002,0.101,0.122,0.549,0.366,295.545
151048,156631,12905,-0.216,1.006,0.101,0.305,0.61,0.305,295.551
151040,156551,9125,-0.215,1.006,0.107,0.305,0.61,0.305,295.555
151040,156621,12913,-0.213,1.004,0.111,0.183,0.61,0.305,295.561
151057,156551,9125,-0.214,1.001,0.104,0.183,0.61,0.305,295.564
151057,156622,12919,-0.216,1.004,0.101,0.122,0.61,0.305,295.571
151065,156551,9125,-0.214,1.002,0.098,0.122,0.61,0.305,295.574
151065,156619,12908,-0.214,1,0.101,0.244,0.732,0.183,295.581
151049,156551,9125,-0.215,1,0.101,0.244,0.732,0.183,295.584
151049,156624,12904,-0.216,1.001,0.097,0.366,0.793,0,295.59
151049,156551,9125,-0.215,1.004,0.101,0.366,0.793,0,295.594
151049,156638,12913,-0.216,1.003,0.098,0.61,0.915,0.183,295.6
151071,156551,9125,-0.216,1.001,0.096,0.61,0.915,0.183,295.604
151071,156614,12899,-0.214,1.003,0.096,0.61,0.854,0.244,295.61
151070,156551,9125,-0.214,1.002,0.096,0.61,0.854,0.244,295.614
151070,156651,12935,-0.214,1.002,0.097,0.488,0.61,0.183,295.62
151093,156551,9125,-0.215,1.001,0.097,0.488,0.61,0.183,295.624
151093,156628,12921,-0.215,1.002,0.101,0.244,0.549,0.305,295.63
151079,156551,9125,-0.213,1.009,0.099,0.244,0.549,0.305,295.634
151079,156614,12909,-0.213,1.008,0.099,-0.122,0.366,0.244,295.64
151072,156551,9125,-0.211,1.007,0.1,-0.122,0.366,0.244,295.644
151072,156644,12916,-0.207,1.001,0.1,-0.305,0.305,0.122,295.65
151072,156551,9125,-0.211,0.999,0.1,-0.305,0.305,0.122,295.654
151072,156606,12907,-0.213,0.998,0.103,-0.366,0.488,0.244,295.66
151050,156551,9125,-0.215,1,0.103,-0.366,0.488,0.244,295.663
151050,156635,12910,-0.218,0.997,0.104,-0.244,0.732,0.122,295.67
151051,156551,9125,-0.217,0.998,0.104,-0.244,0.732,0.122,295.673
151051,156601,12919,-0.216,0.996,0.101,0.427,0.732,0.122,295.68
151035,156551,9125,-0.219,0.996,0.102,0.427,0.732,0.122,295.683
151035,156626,12923,-0.218,0.999,0.104,0.549,0.488,0.366,295.689
151058,156551,9125,-0.217,1,0.106,0.549,0.488,0.366,295.693
151058,156619,12915,-0.218,1.001,0.105,0.122,0.305,0.549,295.699
151060,156551,9125,-0.215,1.001,0.099,0.122,0.305,0.549,295.703
151060,156622,12906,-0.213,1,0.101,-0.122,0.488,0.427,295.709
151036,156551,9125,-0.213,0.997,0.103,-0.122,0.488,0.427,295.713
151036,156618,12909,-0.216,1.001,0.103,0.061,0.61,0.305,295.719
151045,156551,9125,-0.214,1.003,0.105,0.061,0.61,0.305,295.723
151045,156606,12913,-0.215,1.004,0.104,0.244,0.793,0.366,295.729
151073,156551,9125,-0.213,1.003,0.106,0.244,0.793,0.366,295.733
151073,156632,12915,-0.213,1.005,0.1,0.671,0.976,0.305,295.739
151054,156551,9125,-0.212,1.007,0.096,0.671,0.976,0.305,295.743
151054,156623,12915,-0.21,1.007,0.093,0.549,0.976,0.183,295.749
151046,156551,9125,-0.21,1.006,0.092,0.549,0.976,0.183,295.753
151046,156633,12923,-0.212,1,0.097,0.549,1.037,0.061,295.759
151041,156551,9125,-0.211,1.005,0.095,0.549,1.037,0.061,295.762
151041,156626,12916,-0.209,1.004,0.092,0.488,1.037,0.183,295.769
151058,156551,9125,-0.214,1.003,0.093,0.488,1.037,0.183,295.772
151058,156642,12924,-0.215,1.006,0.092,0.366,0.854,0.122,295.779
151054,156551,9125,-0.217,1.002,0.092,0.366,0.854,0.122,295.782
151054,156653,12928,-0.219,1.006,0.097,0.122,0.488,0.122,295.788
151049,156551,9125,-0.216,1.003,0.099,0.122,0.488,0.122,295.792
151049,156659,12916,-0.216,1.001,0.099,-0.061,0.183,0.244,295.798
151031,156551,9125,-0.217,1.003,0.101,-0.061,0.183,0.244,295.802
151031,156658,12917,-0.217,1.002,0.103,-0.244,-0.061,0.244,295.808
151058,156551,9125,-0.221,1,0.105,-0.244,-0.061,0.244,295.812
151058,156650,12925,-0.218,1,0.101,-0.366,-0.183,0.244,295.818
151052,156551,9125,-0.219,1,0.103,-0.366,-0.183,0.244,295.822
151052,156615,12919,-0.22,1.003,0.102,-0.305,-0.061,0.244,295.828
151059,156551,9125,-0.215,1.002,0.101,-0.305,-0.061,0.244,295.832
151059,156662,12913,-0.213,1.002,0.107,-0.305,0.244,0.305,295.838
151053,156551,9125,-0.214,1.003,0.105,-0.305,0.244,0.305,295.842
151053,156661,12910,-0.217,1.004,0.108,-0.183,0.366,0.427,295.848
151060,156551,9125,-0.214,1.003,0.106,-0.183,0.366,0.427,295.852
151060,156646,12923,-0.214,1.005,0.103,-0.122,0.366,0.366,295.858
151065,156551,9125,-0.214,1.006,0.102,-0.122,0.366,0.366,295.861
151065,156653,12915,-0.21,1.005,0.1,0.061,0.488,0.061,295.868
151034,156551,9125,-0.21,1.005,0.099,0.061,0.488,0.061,295.871
151034,156659,12930,-0.21,1.004,0.094,0.244,0.732,-0.061,295.878
151044,156551,9125,-0.21,1.002,0.094,0.244,0.732,-0.061,295.881
151044,156670,12920,-0.209,1.002,0.093,0.183,0.854,-0.061,295.887
151059,156551,9125,-0.211,1.003,0.093,0.183,0.854,-0.061,295.891
151059,156653,12923,-0.21,1,0.098,0.244,0.61,0,295.897
151046,156551,9125,-0.21,1,0.095,0.244,0.61,0,295.901
151046,156641,12924,-0.213,1,0.095,0.244,0.671,0.061,295.907
151046,156551,9125,-0.215,1.001,0.096,0.244,0.671,0.061,295.911
151046,156637,12913,-0.214,1.001,0.101,0.244,0.671,0.244,295.917
151052,156551,9125,-0.215,1.003,0.096,0.244,0.671,0.244,295.921
151052,156652,12926,-0.216,1.005,0.097,0.122,0.61,0.305,295.927
151063,156551,9125,-0.218,1.006,0.098,0.122,0.61,0.305,295.931
151063,156646,12932,-0.215,1.001,0.096,-0.122,0.61,0.244,295.937
151055,156551,9125,-0.215,1.001,0.096,-0.122,0.61,0.244,295.941
151055,156654,12923,-0.217,1.004,0.097,-0.305,0.61,0.305,295.947
151056,156551,9125,-0.217,1.004,0.097,-0.305,0.61,0.305,295.951
151056,156660,12941,-0.218,1.003,0.096,-0.305,0.671,0.244,295.957
151065,156551,9125,-0.218,1.003,0.096,-0.305,0.671,0.244,295.96
151065,156649,12920,-0.217,1.001,0.099,-0.061,0.488,0.244,295.967
151041,156551,9125,-0.217,1.001,0.099,-0.061,0.488,0.244,295.97
151041,156643,12916,-0.218,1.004,0.1,-0.122,0.427,0.244,295.977
151049,156551,9125,-0.218,1.004,0.1,-0.122,0.427,0.244,295.98
151049,156651,12928,-0.222,1,0.097,0.122,0.427,0.244,295.986
151054,156551,9125,-0.222,1,0.097,0.122,0.427,0.244,295.99
151054,156634,12925,-0.218,1.001,0.099,0.061,0.183,0.183,295.996
151023,156551,9125,-0.218,1.001,0.099,0.061,0.183,0.183,296
151023,156631,12921,-0.221,1,0.102,-0.366,0,0.244,296.006
151023,156551,9125,-0.221,1,0.102,-0.366,0,0.244,296.01
151023,156640,12941,-0.217,1,0.103,-0.915,0.061,0.427,296.016
151030,156551,9125,-0.217,1,0.103,-0.915,0.061,0.427,296.02
151030,156643,12932,-0.216,0.998,0.1,-1.037,-0.061,0.488,296.026
151003,156551,9125,-0.216,0.998,0.1,-1.037,-0.061,0.488,296.03
151003,156620,12927,-0.213,0.999,0.102,-0.732,0.183,0.61,296.036
151010,156551,9125,-0.213,0.999,0.102,-0.732,0.183,0.61,296.04
151010,156615,12931,-0.213,1.002,0.1,-0.122,0.427,0.549,296.046
151006,156551,9125,-0.213,1.002,0.1,-0.122,0.427,0.549,296.05
151006,156586,12903,-0.211,1.004,0.097,0.183,0.671,0.549,296.056
151002,156551,9125,-0.211,1.004,0.097,0.183,0.671,0.549,296.059
151002,156594,12925,-0.212,1.009,0.098,0.061,0.793,0.549,296.066
150988,156551,9125,-0.212,1.009,0.098,0.061,0.793,0.549,296.069
150988,156553,12908,-0.212,1.003,0.097,0.244,0.732,0.427,296.076
150985,156551,9125,-0.212,1.003,0.097,0.244,0.732,0.427,296.079
150985,156542,12917,-0.208,1.003,0.095,0.244,0.732,0.427,296.085
150976,156551,9125,-0.21,1.003,0.096,0.366,0.549,0.244,296.089
150976,156568,12913,-0.213,1,0.1,0.366,0.549,0.244,296.095
150980,156551,9125,-0.217,0.998,0.097,0.488,0.61,0.183,296.099
150980,156519,12901,-0.219,0.995,0.101,0.488,0.61,0.183,296.105
150973,156551,9125,-0.222,0.998,0.098,0.549,0.549,0.183,296.109
150973,156568,12888,-0.219,1.002,0.093,0.549,0.549,0.183,296.115
150995,156551,9125,-0.218,0.999,0.099,0.305,0.427,0.183,296.119
150995,156538,12881,-0.217,0.998,0.104,0.305,0.427,0.183,296.125
150994,156551,9125,-0.218,1.001,0.104,-0.061,0.305,0.549,296.129
150994,156548,12900,-0.217,0.998,0.101,-0.061,0.305,0.549,296.135
150999,156551,9125,-0.214,0.999,0.104,-0.549,0.366,0.671,296.139
150999,156550,12889,-0.216,1.003,0.104,-0.549,0.366,0.671,296.145
150989,156551,9125,-0.216,1.003,0.103,-0.549,0.549,0.61,296.149
150989,156555,12898,-0.214,1.005,0.107,-0.549,0.549,0.61,296.155
151013,156551,9125,-0.213,1.003,0.1,-0.122,0.732,0.427,296.158
151013,156558,12888,-0.213,1.006,0.099,-0.122,0.732,0.427,296.165
150990,156551,9125,-0.214,1.005,0.099,0.061,0.854,0.305,296.168
150990,156549,12887,-0.212,1.005,0.101,0.061,0.854,0.305,296.174
151007,156551,9125,-0.211,1.002,0.094,0.305,0.976,0.244,296.178
151007,156583,12895,-0.211,1.001,0.092,0.305,0.976,0.244,296.184
150998,156551,9125,-0.211,1.006,0.097,0.427,0.976,0.061,296.188
150998,156548,12877,-0.208,1.006,0.101,0.427,0.976,0.061,296.194
151019,156551,9125,-0.214,1.001,0.096,0.427,0.976,0.061,296.198
151019,156560,12890,-0.214,0.998,0.095,0.427,0.976,0.061,296.204
150998,156551,9125,-0.213,1,0.094,0.549,0.976,0.122,296.208
150998,156552,12888,-0.217,1.002,0.093,0.549,0.976,0.122,296.214
151003,156551,9125,-0.215,1.002,0.099,0.427,0.793,0.122,296.218
151003,156565,12874,-0.218,1,0.099,0.427,0.793,0.122,296.224
150997,156551,9125,-0.219,1.004,0.098,0.366,0.915,0.366,296.228
150997,156546,12899,-0.215,0.999,0.098,0.366,0.915,0.366,296.234
150998,156551,9125,-0.214,0.999,0.097,0.427,0.915,0.366,296.238
150998,156553,12888,-0.215,1.004,0.096,0.427,0.915,0.366,296.244
151013,156551,9125,-0.216,1.005,0.098,0.122,0.976,0.427,296.248
151013,156554,12875,-0.218,1.004,0.1,0.122,0.976,0.427,296.254
150997,156551,9125,-0.216,1.001,0.094,-0.061,0.793,0.366,296.257
150997,156542,12896,-0.214,1.005,0.097,-0.061,0.793,0.366,296.264
151014,156551,9125,-0.216,1.003,0.092,-0.244,0.732,0.244,296.267
151014,156562,12881,-0.217,1.004,0.094,-0.244,0.732,0.244,296.273
151013,156551,9125,-0.218,1.002,0.094,0.122,0.793,0.366,296.277
151013,156541,12881,-0.218,1.003,0.096,0.122,0.793,0.366,296.283
151023,156551,9125,-0.22,1.005,0.093,0.305,0.793,0.244,296.287
151023,156552,12875,-0.22,1.005,0.094,0.305,0.793,0.244,296.293
151014,156551,9125,-0.219,1.009,0.092,0.122,0.488,0.183,296.297
151014,156531,12898,-0.221,1.005,0.097,0.122,0.488,0.183,296.303
151020,156551,9125,-0.217,1.005,0.098,-0.183,0.305,0.183,296.307
151020,156563,12886,-0.217,1.003,0.097,-0.183,0.305,0.183,296.313
151025,156551,9125,-0.219,0.999,0.101,-0.305,0.366,0.183,296.317
151025,156570,12881,-0.218,0.996,0.1,-0.305,0.366,0.183,296.323
151019,156551,9125,-0.218,1.001,0.099,-0.488,0.305,0.183,296.327
151019,156559,12888,-0.219,1.004,0.097,-0.488,0.305,0.183,296.333
151014,156551,9125,-0.221,0.999,0.098,-0.366,0.427,0.183,296.337
151014,156557,12872,-0.218,0.999,0.097,-0.366,0.427,0.183,296.343
151033,156551,9125,-0.215,1.003,0.09,-0.244,0.427,0.183,296.347
151033,156544,12874,-0.214,1.003,0.095,-0.244,0.427,0.183,296.353
151008,156551,9125,-0.216,1.007,0.099,-0.244,0.427,0.366,296.356
151008,156567,12894,-0.215,1.005,0.094,-0.244,0.427,0.366,296.363
151006,156551,9125,-0.216,1.001,0.093,-0.305,0.427,0.305,296.366
151006,156545,12889,-0.213,1.003,0.094,-0.305,0.427,0.305,296.372
151013,156551,9125,-0.212,1,0.097,-0.549,0.244,0.244,296.376
151013,156587,12893,-0.209,1,0.096,-0.549,0.244,0.244,296.382
151037,156551,9125,-0.211,1.002,0.096,-0.61,0.122,0.488,296.386
151037,156584,12888,-0.212,1.001,0.096,-0.61,0.122,0.488,296.392
151026,156551,9125,-0.211,0.997,0.095,-0.549,0.244,0.488,296.396
151026,156579,12886,-0.215,1.002,0.097,-0.549,0.244,0.488,296.402
151022,156551,9125,-0.211,1.001,0.096,-0.366,0.244,0.427,296.406
151022,156581,12883,-0.216,1.001,0.096,-0.366,0.244,0.427,296.412
151029,156551,9125,-0.216,1.003,0.094,-0.366,0.244,0.549,296.416
151029,156571,12883,-0.215,1.002,0.095,-0.366,0.244,0.549,296.422
151003,156551,9125,-0.216,1.002,0.101,-0.671,0.061,0.549,296.426
151003,156580,12895,-0.218,1.002,0.1,-0.671,0.061,0.549,296.432
151022,156551,9125,-0.217,1.005,0.101,-0.854,-0.122,0.671,296.436
151022,156574,12873,-0.216,1.004,0.109,-0.854,-0.122,0.671,296.442
151015,156551,9125,-0.216,1.006,0.101,-0.793,-0.122,0.671,296.445
151015,156555,12890,-0.216,1.01,0.09,-0.793,-0.122,0.671,296.452
151001,156551,9125,-0.214,1.005,0.098,-0.732,-0.122,0.305,296.455
151001,156558,12892,-0.213,1.002,0.101,-0.732,-0.122,0.305,296.462
151019,156551,9125,-0.217,1.005,0.102,-0.488,0,0.305,296.465
151019,156583,12879,-0.22,1.007,0.093,-0.488,0,0.305,296.471
151013,156551,9125,-0.219,1.003,0.095,-0.854,0.183,0.183,296.475
151013,156558,12887,-0.217,1.004,0.099,-0.854,0.183,0.183,296.481
151022,156551,9125,-0.212,1.004,0.099,-0.61,0,0.061,296.485
151022,156564,12906,-0.213,1,0.102,-0.61,0,0.061,296.491
151000,156551,9125,-0.215,1.003,0.102,-0.244,0.183,0.305,296.495
151000,156569,12899,-0.217,1.005,0.1,-0.244,0.183,0.305,296.501
151025,156551,9125,-0.214,1.004,0.098,0,0.427,0.244,296.505
151025,156573,12895,-0.216,1.005,0.096,0,0.427,0.244,296.511
151010,156551,9125,-0.215,1.004,0.095,-0.122,0.427,0.061,296.515
151010,156560,12892,-0.216,1.002,0.102,-0.122,0.427,0.061,296.521
151003,156551,9125,-0.216,1.002,0.102,-0.122,0.427,0.061,296.525
151003,156578,12876,-0.217,0.999,0.098,-0.305,0.366,0.122,296.531
151001,156551,9125,-0.217,0.999,0.098,-0.305,0.366,0.122,296.535
151001,156541,12897,-0.216,1.001,0.095,-0.549,0.244,0.183,296.541
150992,156551,9125,-0.216,1.001,0.095,-0.549,0.244,0.183,296.544
150992,156547,12887,-0.214,1,0.1,-0.427,0.244,0.183,296.551
150988,156551,9125,-0.214,1,0.1,-0.427,0.244,0.183,296.554
150988,156569,12905,-0.218,1.001,0.103,-0.305,0.366,0.244,296.561
150985,156551,9125,-0.218,1.001,0.103,-0.305,0.366,0.244,296.564
150985,156522,12881,-0.214,1.002,0.099,-0.427,0.488,0.366,296.57
150982,156551,9125,-0.214,1.002,0.099,-0.427,0.488,0.366,296.574
150982,156540,12895,-0.212,1.002,0.1,-0.549,0.244,0.427,296.58
150987,156551,9125,-0.212,1.002,0.1,-0.549,0.244,0.427,296.584
150987,156550,12903,-0.214,1.001,0.095,-0.427,0.305,0.549,296.59
151001,156551,9125,-0.214,1.001,0.095,-0.427,0.305,0.549,296.594
151001,156527,12881,-0.216,1.004,0.094,-0.366,0.427,0.488,296.6
150979,156551,9125,-0.216,1.004,0.094,-0.366,0.427,0.488,296.604
150979,156550,12891,-0.216,1.002,0.096,-0.427,0.366,0.366,296.61
150977,156551,9125,-0.216,1.002,0.096,-0.427,0.366,0.366,296.614
150977,156537,12894,-0.216,0.999,0.098,-0.549,0.244,0.488,296.62
151004,156551,9125,-0.216,0.999,0.098,-0.549,0.244,0.488,296.624
151004,156564,12886,-0.219,1,0.095,-0.671,0.183,0.549,296.63
151001,156551,9125,-0.219,1,0.095,-0.671,0.183,0.549,296.634
151001,156563,12901,-0.219,1.001,0.1,-0.732,0.061,0.488,296.64
150995,156551,9125,-0.219,1.001,0.1,-0.732,0.061,0.488,296.643
150995,156570,12897,-0.22,1.003,0.094,-0.732,0.061,0.488,296.65
150989,156551,9125,-0.22,1.003,0.094,-0.732,0.061,0.488,296.653
150989,156580,12903,-0.215,1.004,0.095,-0.976,-0.061,0.61,296.66
151000,156551,9125,-0.215,1.004,0.095,-0.976,-0.061,0.61,296.663
151000,156581,12890,-0.214,1.005,0.096,-1.037,-0.427,0.549,296.669
150984,156551,9125,-0.215,1.004,0.099,-1.037,-0.427,0.549,296.673
150984,156570,12909,-0.217,1.002,0.1,-1.22,-0.549,0.732,296.679
150981,156551,9125,-0.214,1.005,0.102,-1.22,-0.549,0.732,296.683
150981,156553,12895,-0.214,1.006,0.102,-1.524,-0.549,0.671,296.689
150995,156551,9125,-0.211,1.007,0.1,-1.524,-0.549,0.671,296.693
150995,156568,12891,-0.209,1.007,0.098,-1.646,-0.488,0.549,296.699
150992,156551,9125,-0.204,1.005,0.103,-1.646,-0.488,0.549,296.703
150992,156571,12913,-0.203,1.003,0.103,-1.402,-0.122,0.488,296.709
151009,156551,9125,-0.209,0.998,0.106,-1.402,-0.122,0.488,296.713
151009,156569,12916,-0.215,0.996,0.103,-1.037,0.244,0.427,296.719
150988,156551,9125,-0.217,0.995,0.101,-1.037,0.244,0.427,296.723
150988,156584,12898,-0.217,0.996,0.099,-0.549,0.244,0.305,296.729
151011,156551,9125,-0.219,0.999,0.103,-0.549,0.244,0.305,296.733
151011,156594,12899,-0.221,0.998,0.106,-0.122,0.061,0.366,296.739
151002,156551,9125,-0.223,1.002,0.105,-0.122,0.061,0.366,296.742
151002,156591,12909,-0.219,1.007,0.11,-0.244,-0.061,0.61,296.749
151007,156551,9125,-0.218,1.007,0.113,-0.244,-0.061,0.61,296.752
151007,156614,12906,-0.217,1.003,0.112,-0.793,0.061,0.61,296.759
151004,156551,9125,-0.214,1.002,0.105,-0.793,0.061,0.61,296.762
151004,156599,12898,-0.215,0.998,0.101,-1.159,0.244,0.427,296.768
150984,156551,9125,-0.213,0.999,0.104,-1.159,0.244,0.427,296.772
150984,156592,12925,-0.216,1.001,0.104,-0.976,0.427,0.488,296.778
151003,156551,9125,-0.215,1.002,0.1,-0.976,0.427,0.488,296.782
151003,156607,12909,-0.212,1.001,0.103,-0.244,0.671,0.488,296.788
151004,156551,9125,-0.212,1.002,0.098,-0.244,0.671,0.488,296.792
151004,156619,12893,-0.211,1.007,0.095,0.427,0.793,0.488,296.798
151010,156551,9125,-0.211,1.007,0.098,0.427,0.793,0.488,296.802
151010,156608,12915,-0.213,1.009,0.093,0.427,0.915,0.366,296.808
151020,156551,9125,-0.212,1.009,0.093,0.427,0.915,0.366,296.812
151020,156583,12919,-0.21,1.006,0.094,-0.122,0.793,0.366,296.818
151004,156551,9125,-0.212,1.003,0.093,-0.122,0.793,0.366,296.822
151004,156629,12923,-0.206,1.002,0.09,-0.305,0.549,0.61,296.828
151004,156551,9125,-0.208,1.002,0.089,-0.305,0.549,0.61,296.832
151004,156592,12931,-0.21,0.996,0.095,-0.061,0.488,0.61,296.838
151009,156551,9125,-0.213,1.001,0.093,-0.061,0.488,0.61,296.841
151009,156607,12910,-0.213,1.006,0.098,0.244,0.427,0.366,296.848
151007,156551,9125,-0.215,1.007,0.098,0.244,0.427,0.366,296.851
151007,156595,12911,-0.217,1.002,0.099,0.183,0.244,0.488,296.858
151017,156551,9125,-0.216,1.002,0.106,0.183,0.244,0.488,296.861
151017,156616,12931,-0.219,1.003,0.104,-0.366,0,0.488,296.867
151011,156551,9125,-0.221,1.007,0.108,-0.366,0,0.488,296.871
151011,156591,12919,-0.219,1.003,0.108,-1.037,-0.183,0.427,296.877
151008,156551,9125,-0.218,0.997,0.106,-1.037,-0.183,0.427,296.881
151008,156592,12933,-0.22,0.999,0.111,-1.159,-0.244,0.366,296.887
151008,156551,9125,-0.22,0.998,0.107,-1.159,-0.244,0.366,296.891
151008,156622,12919,-0.216,1.001,0.108,-1.159,0.122,0.366,296.897
151019,156551,9125,-0.215,1.001,0.11,-1.159,0.122,0.366,296.901
151019,156625,12925,-0.22,1.001,0.11,-0.61,0.427,0.427,296.907
151024,156551,9125,-0.216,1.002,0.109,-0.61,0.427,0.427,296.911
151024,156628,12929,-0.214,1.006,0.107,-0.122,0.671,0.427,296.917
151049,156551,9125,-0.214,1.01,0.104,-0.122,0.671,0.427,296.921
151049,156636,12925,-0.213,1.009,0.099,0.244,0.854,0.244,296.927
151022,156551,9125,-0.216,1.003,0.097,0.244,0.854,0.244,296.931
151022,156618,12927,-0.211,1.004,0.099,0.122,0.854,0.122,296.937
151060,156551,9125,-0.21,1.006,0.095,0.122,0.854,0.122,296.94
151060,156642,12926,-0.21,1.003,0.096,-0.061,0.793,0.122,296.947
151030,156551,9125,-0.21,1,0.094,-0.061,0.793,0.122,296.95
151030,156663,12924,-0.214,1,0.09,0.122,0.793,0.122,296.957
151039,156551,9125,-0.214,0.999,0.095,0.122,0.793,0.122,296.96
151039,156658,12930,-0.212,1,0.098,0.366,0.61,0.183,296.966
151029,156551,9125,-0.214,1.003,0.103,0.366,0.61,0.183,296.97
151029,156636,12924,-0.214,1.003,0.103,0.366,0.549,0.366,296.976
151039,156551,9125,-0.214,1.003,0.097,0.366,0.549,0.366,296.98
151039,156645,12927,-0.218,1.001,0.097,-0.061,0.244,0.366,296.986
151044,156551,9125,-0.216,1,0.102,-0.061,0.244,0.366,296.99
151044,156647,12932,-0.22,1,0.103,-0.732,0,0.305,296.996
151030,156551,9125,-0.222,0.998,0.098,-0.732,0,0.305,297
151030,156622,12939,-0.222,0.994,0.1,-0.793,-0.061,0.366,297.006
151054,156551,9125,-0.223,0.997,0.099,-0.793,-0.061,0.366,297.01
151054,156658,12943,-0.224,1.003,0.1,-0.671,-0.183,0.671,297.016
151038,156551,9125,-0.224,1.002,0.101,-0.671,-0.183,0.671,297.02
151038,156643,12940,-0.22,1.004,0.101,-0.549,-0.305,1.037,297.026
151055,156551,9125,-0.219,1.005,0.1,-0.549,-0.305,1.037,297.03
151055,156655,12938,-0.216,1.007,0.099,-0.671,-0.183,0.976,297.036
151039,156551,9125,-0.214,1.007,0.102,-0.671,-0.183,0.976,297.039
151039,156645,12945,-0.217,1.009,0.102,-0.976,-0.244,0.793,297.046
151045,156551,9125,-0.214,1.014,0.101,-0.976,-0.244,0.793,297.049
151045,156671,12947,-0.215,1.013,0.105,-1.159,-0.244,0.671,297.056
151043,156551,9125,-0.212,1.007,0.104,-1.159,-0.244,0.671,297.059
151043,156647,12935,-0.208,1.008,0.102,-1.098,-0.427,0.427,297.065
151029,156551,9125,-0.207,1.01,0.105,-1.098,-0.427,0.427,297.069
151029,156655,12947,-0.207,1.01,0.105,-0.671,-0.183,0.122,297.075
151042,156551,9125,-0.207,1.005,0.104,-0.671,-0.183,0.122,297.079
151042,156639,12942,-0.209,1.002,0.105,-0.244,0.183,-0.183,297.085
151010,156551,9125,-0.21,1.001,0.103,-0.244,0.183,-0.183,297.089
151010,156642,12946,-0.209,0.999,0.102,-0.061,0.183,-0.366,297.095
151030,156551,9125,-0.209,0.999,0.102,-0.061,0.183,-0.366,297.099
151030,156619,12932,-0.211,0.995,0.1,0.305,0.305,-0.183,297.105
150996,156551,9125,-0.211,0.995,0.1,0.305,0.305,-0.183,297.109
150996,156596,12933,-0.212,0.997,0.103,0.427,0.305,-0.061,297.115
151012,156551,9125,-0.212,0.997,0.103,0.427,0.305,-0.061,297.119
151012,156597,12921,-0.219,0.994,0.097,0.183,0.183,0.061,297.125
151008,156551,9125,-0.219,0.994,0.097,0.183,0.183,0.061,297.129
151008,156587,12926,-0.224,0.998,0.1,-0.183,-0.122,0.183,297.135
151001,156551,9125,-0.224,0.998,0.1,-0.183,-0.122,0.183,297.138
151001,156576,12912,-0.223,0.999,0.102,-0.793,-0.305,0.732,297.145
151020,156551,9125,-0.223,0.999,0.102,-0.793,-0.305,0.732,297.148
151020,156588,12899,-0.22,0.998,0.104,-1.341,-0.427,1.098,297.154
151013,156551,9125,-0.22,0.998,0.104,-1.341,-0.427,1.098,297.158
151013,156568,12907,-0.219,1.005,0.105,-1.22,-0.183,1.159,297.164
150987,156551,9125,-0.219,1.005,0.105,-1.22,-0.183,1.159,297.168
150987,156570,12887,-0.215,1.01,0.103,-0.488,0.366,1.22,297.174
150986,156551,9125,-0.215,1.01,0.103,-0.488,0.366,1.22,297.178
150986,156559,12915,-0.213,1.012,0.112,0.061,0.793,0.976,297.184
150971,156551,9125,-0.213,1.012,0.112,0.061,0.793,0.976,297.188
150971,156565,12906,-0.212,1.014,0.105,0.061,0.854,0.61,297.194
150979,156551,9125,-0.212,1.014,0.105,0.061,0.854,0.61,297.198
150979,156566,12881,-0.208,1.014,0.114,0.244,0.976,0.122,297.204
150973,156551,9125,-0.208,1.014,0.114,0.244,0.976,0.122,297.208
150973,156535,12891,-0.205,1.006,0.104,0.549,1.22,-0.305,297.214
150988,156551,9125,-0.205,1.006,0.104,0.549,1.22,-0.305,297.218
150988,156554,12889,-0.204,1.001,0.105,1.22,1.524,-0.671,297.224
150944,156551,9125,-0.204,1.001,0.105,1.22,1.524,-0.671,297.227
150944,156553,12888,-0.211,0.998,0.107,1.768,1.768,-0.854,297.234
150976,156551,9125,-0.211,0.998,0.107,1.768,1.768,-0.854,297.237
150976,156544,12871,-0.212,0.998,0.099,1.768,1.768,-0.854,297.244
150967,156551,9125,-0.213,0.999,0.099,1.768,1.829,-0.854,297.247
150967,156542,12898,-0.213,1.001,0.095,1.768,1.829,-0.854,297.253
150986,156551,9125,-0.217,0.998,0.092,1.22,1.585,-0.732,297.257
150986,156532,12881,-0.218,0.994,0.09,1.22,1.585,-0.732,297.263
150976,156551,9125,-0.214,0.993,0.094,0.671,1.28,-0.366,297.267
150976,156550,12904,-0.215,0.992,0.096,0.671,1.28,-0.366,297.273
150982,156551,9125,-0.216,0.995,0.095,0.122,0.915,0.183,297.277
150982,156526,12892,-0.215,0.996,0.094,0.122,0.915,0.183,297.283
150987,156551,9125,-0.218,0.997,0.092,-0.061,0.549,0.549,297.287
150987,156558,12885,-0.221,1.003,0.098,-0.061,0.549,0.549,297.293
150999,156551,9125,-0.218,1.001,0.098,-0.305,0.549,0.671,297.297
150999,156550,12909,-0.217,1.003,0.1,-0.305,0.549,0.671,297.303
151007,156551,9125,-0.22,1.004,0.101,-0.61,0.549,0.732,297.307
151007,156556,12881,-0.219,1.007,0.103,-0.61,0.549,0.732,297.313
150997,156551,9125,-0.221,1.005,0.107,-0.732,0.366,0.732,297.317
150997,156569,12894,-0.224,1.007,0.104,-0.732,0.366,0.732,297.323
151012,156551,9125,-0.222,1.003,0.1,-0.488,0.244,0.488,297.326
151012,156587,12877,-0.218,1.006,0.103,-0.488,0.244,0.488,297.333
151018,156551,9125,-0.214,1.009,0.103,-0.061,0.244,0.122,297.336
151018,156570,12888,-0.215,1.01,0.103,-0.061,0.244,0.122,297.343
151015,156551,9125,-0.216,1.003,0.105,0.183,0.549,0.061,297.346
151015,156567,12892,-0.217,0.998,0.102,0.183,0.549,0.061,297.352
150998,156551,9125,-0.218,1,0.102,-0.061,0.549,0,297.356
150998,156558,12885,-0.218,0.997,0.099,-0.061,0.549,0,297.362
150998,156551,9125,-0.214,0.998,0.102,-0.122,0.427,-0.183,297.366
150998,156549,12895,-0.216,1.004,0.097,-0.122,0.427,-0.183,297.372
151016,156551,9125,-0.214,0.998,0.098,-0.183,0.427,0.061,297.376
151016,156595,12898,-0.216,0.997,0.098,-0.183,0.427,0.061,297.382
151013,156551,9125,-0.215,0.995,0.099,-0.122,0.427,0.183,297.386
151013,156571,12887,-0.214,0.999,0.1,-0.122,0.427,0.183,297.392
151009,156551,9125,-0.214,1.003,0.103,-0.366,0.183,0.244,297.396
151009,156571,12896,-0.213,1.004,0.103,-0.366,0.183,0.244,297.402
151012,156551,9125,-0.216,1.006,0.1,-0.427,0.183,0.366,297.406
151012,156573,12883,-0.216,1.004,0.099,-0.427,0.183,0.366,297.412
151037,156551,9125,-0.215,1.001,0.101,-0.549,0.366,0.427,297.416
151037,156567,12882,-0.215,1.004,0.104,-0.549,0.366,0.427,297.422
151026,156551,9125,-0.219,1.005,0.102,-0.488,0.305,0.427,297.426
151026,156564,12885,-0.218,1.004,0.106,-0.488,0.305,0.427,297.432
151032,156551,9125,-0.219,1.002,0.103,-0.366,0.488,0.244,297.435
151032,156584,12882,-0.217,1,0.097,-0.366,0.488,0.244,297.442
151039,156551,9125,-0.216,0.998,0.098,-0.244,0.427,0.305,297.445
151039,156575,12888,-0.215,0.999,0.096,-0.244,0.427,0.305,297.451
151019,156551,9125,-0.217,1.002,0.099,-0.122,0.366,0.488,297.455
151019,156576,12909,-0.219,1.003,0.099,-0.122,0.366,0.488,297.461
151046,156551,9125,-0.221,0.999,0.089,-0.122,0.427,0.488,297.465
151046,156573,12884,-0.222,0.997,0.076,-0.122,0.427,0.488,297.471
151043,156551,9125,-0.217,0.994,0.081,0.244,0.122,0.549,297.475
151043,156562,12885,-0.212,0.995,0.094,0.244,0.122,0.549,297.481
151000,156551,9125,-0.214,1.004,0.102,-0.366,-0.305,1.22,297.485
151000,156562,12892,-0.214,1.009,0.107,-0.366,-0.305,1.22,297.491
151029,156551,9125,-0.213,1.005,0.107,-1.037,-0.366,1.707,297.495
151029,156565,12886,-0.215,1.006,0.101,-1.037,-0.366,1.707,297.501
151019,156551,9125,-0.215,1.008,0.105,-1.159,-0.488,0.915,297.505
151019,156575,12895,-0.214,1.006,0.101,-1.159,-0.488,0.915,297.511
150993,156551,9125,-0.214,1.005,0.101,-1.463,-0.244,0.732,297.515
150993,156559,12881,-0.214,1.002,0.106,-1.463,-0.244,0.732,297.521
150990,156551,9125,-0.219,1.003,0.106,-1.159,-0.122,1.037,297.524
150990,156564,12881,-0.216,1.003,0.105,-1.159,-0.122,1.037,297.531
150992,156551,9125,-0.212,1.004,0.1,-0.854,0.061,0.732,297.534
150992,156546,12875,-0.211,1.005,0.099,-0.854,0.061,0.732,297.541
150986,156551,9125,-0.211,1.008,0.1,-0.183,0.244,0.549,297.544
150986,156568,12886,-0.213,1.006,0.101,-0.183,0.244,0.549,297.55
150981,156551,9125,-0.214,1.003,0.102,0.061,0.488,0.61,297.554
150981,156539,12883,-0.215,1.005,0.1,0.061,0.488,0.61,297.56
150980,156551,9125,-0.213,1.005,0.102,0.183,0.549,0.427,297.564
150980,156562,12897,-0.214,1.006,0.105,0.183,0.549,0.427,297.57
150982,156551,9125,-0.21,1.008,0.104,-0.122,0.488,0.305,297.574
150982,156575,12880,-0.212,1.005,0.104,-0.122,0.488,0.305,297.58
150978,156551,9125,-0.209,1.007,0.105,-0.122,0.488,0.305,297.584
150978,156583,12905,-0.211,1.007,0.105,-0.122,0.488,0.305,297.59
150981,156551,9125,-0.208,1.005,0.104,-0.122,0.549,0.122,297.594
150981,156554,12874,-0.212,1.002,0.104,-0.122,0.549,0.122,297.6
150963,156551,9125,-0.211,1.001,0.103,0,0.671,-0.122,297.604
150963,156548,12896,-0.21,0.998,0.098,0,0.671,-0.122,297.61
150982,156551,9125,-0.21,0.999,0.097,0.122,0.549,-0.244,297.614
150982,156561,12883,-0.208,1.001,0.097,0.122,0.549,-0.244,297.62
150957,156551,9125,-0.21,1.003,0.099,0.244,0.305,-0.061,297.623
150957,156555,12883,-0.21,1.005,0.1,0.244,0.305,-0.061,297.63
150966,156551,9125,-0.211,1.003,0.101,0.183,0.366,0.122,297.633
150966,156567,12885,-0.212,1.003,0.103,0.183,0.366,0.122,297.64
150956,156551,9125,-0.214,1.003,0.101,0.061,0.366,0,297.643
150956,156546,12894,-0.213,1.003,0.104,0.061,0.366,0,297.649
150963,156551,9125,-0.212,1.005,0.103,-0.183,0.366,-0.061,297.653
150963,156563,12892,-0.214,1.003,0.101,-0.183,0.366,-0.061,297.659
150966,156551,9125,-0.214,1.001,0.105,-0.305,0.366,-0.061,297.663
150966,156579,12893,-0.214,0.999,0.098,-0.305,0.366,-0.061,297.669
150967,156551,9125,-0.216,0.998,0.101,-0.061,0.427,-0.183,297.673
150967,156542,12885,-0.215,1.001,0.101,-0.061,0.427,-0.183,297.679
150944,156551,9125,-0.215,1.001,0.101,-0.061,0.427,-0.183,297.683
150944,156568,12892,-0.219,1.003,0.101,0.122,0.61,-0.183,297.689
150963,156551,9125,-0.219,1.003,0.101,0.122,0.61,-0.183,297.693
150963,156564,12885,-0.22,1,0.1,0.366,0.671,-0.366,297.699
150945,156551,9125,-0.22,1,0.1,0.366,0.671,-0.366,297.703
150945,156546,12876,-0.225,1,0.104,0.366,0.61,-0.183,297.709
150971,156551,9125,-0.225,1,0.104,0.366,0.61,-0.183,297.713
150971,156553,12889,-0.225,1.001,0.098,0.305,0.549,-0.183,297.719
150980,156551,9125,-0.225,1.001,0.098,0.305,0.549,-0.183,297.722
150980,156569,12886,-0.224,1.002,0.102,0.183,0.427,-0.366,297.729
150960,156551,9125,-0.224,1.002,0.102,0.183,0.427,-0.366,297.732
150960,156559,12891,-0.218,1.001,0.098,-0.183,0.244,-0.183,297.739
150941,156551,9125,-0.218,1.001,0.098,-0.183,0.244,-0.183,297.742
150941,156568,12892,-0.217,1.004,0.095,-0.61,0.061,0.061,297.748
151016,156551,9125,-0.217,1.004,0.095,-0.61,0.061,0.061,297.752
151016,156574,12890,-0.213,1.001,0.095,-0.793,0,-0.061,297.758
151011,156551,9125,-0.213,1.001,0.095,-0.793,0,-0.061,297.762
151011,156593,12905,-0.216,1,0.099,-0.61,0.061,0,297.768
151002,156551,9125,-0.216,1,0.099,-0.61,0.061,0,297.772
151002,156588,12901,-0.215,1.001,0.103,-0.488,0.061,0,297.778
151011,156551,9125,-0.215,1.001,0.103,-0.488,0.061,0,297.782
151011,156610,12903,-0.219,0.997,0.105,-0.061,-0.122,-0.122,297.788
151015,156551,9125,-0.219,0.997,0.105,-0.061,-0.122,-0.122,297.792
151015,156583,12886,-0.218,1.001,0.102,0.183,0.061,-0.061,297.798
151000,156551,9125,-0.218,1.001,0.102,0.183,0.061,-0.061,297.802
151000,156590,12904,-0.219,0.998,0.103,-0.183,0,0.061,297.808
151012,156551,9125,-0.219,0.998,0.103,-0.183,0,0.061,297.812
151012,156615,12892,-0.217,1,0.109,-0.427,-0.305,0.244,297.818
151022,156551,9125,-0.217,1,0.109,-0.427,-0.305,0.244,297.821
151022,156590,12900,-0.219,1.002,0.109,-0.61,-0.122,0.366,297.828
151015,156551,9125,-0.221,0.998,0.107,-0.61,-0.122,0.366,297.831
151015,156596,12881,-0.222,0.998,0.105,-0.244,0.244,0.366,297.838
151032,156551,9125,-0.219,1,0.105,-0.244,0.244,0.366,297.841
151032,156576,12892,-0.218,1.005,0.106,0,0.244,0.244,297.847
151008,156551,9125,-0.214,1.006,0.103,0,0.244,0.244,297.851
151008,156570,12904,-0.215,1.007,0.104,0,0.244,0.183,297.857
151030,156551,9125,-0.213,1,0.101,0,0.244,0.183,297.861
151030,156591,12889,-0.213,1.001,0.101,0.061,0.61,0.244,297.867
151009,156551,9125,-0.21,1.001,0.095,0.061,0.61,0.244,297.871
151009,156576,12913,-0.211,0.999,0.1,0.244,0.732,0.061,297.877
151004,156551,9125,-0.21,0.997,0.095,0.244,0.732,0.061,297.881
151004,156588,12901,-0.212,0.999,0.093,0.488,0.671,0.061,297.887
151007,156551,9125,-0.215,0.999,0.089,0.488,0.671,0.061,297.891
151007,156590,12890,-0.214,1.001,0.092,0.549,0.671,0.305,297.897
151013,156551,9125,-0.215,1.003,0.099,0.549,0.671,0.305,297.901
151013,156605,12918,-0.216,0.999,0.1,0.122,0.366,0.427,297.907
151010,156551,9125,-0.217,1,0.101,0.122,0.366,0.427,297.911
151010,156589,12909,-0.216,0.996,0.104,-0.244,0.122,0.671,297.917
151027,156551,9125,-0.214,1,0.103,-0.244,0.122,0.671,297.92
151027,156619,12901,-0.217,1.001,0.102,-0.244,0,0.549,297.927
151010,156551,9125,-0.217,1,0.105,-0.244,0,0.549,297.93
151010,156589,12921,-0.219,1.003,0.106,-0.244,0.061,0.549,297.937
150994,156551,9125,-0.216,1.002,0.109,-0.244,0.061,0.549,297.94
150994,156594,12916,-0.216,1,0.108,-0.244,0.305,0.732,297.946
150999,156551,9125,-0.218,1.003,0.105,-0.244,0.305,0.732,297.95
150999,156583,12900,-0.218,1.004,0.102,-0.366,0.732,0.61,297.956
151006,156551,9125,-0.214,1.004,0.099,-0.366,0.732,0.61,297.96
151006,156589,12912,-0.215,1.003,0.098,-0.305,0.732,0.549,297.966
150999,156551,9125,-0.211,1.006,0.101,-0.305,0.732,0.549,297.97
150999,156583,12899,-0.212,1.002,0.096,-0.061,0.671,0.61,297.976
150981,156551,9125,-0.21,1.002,0.102,-0.061,0.671,0.61,297.98
150981,156579,12909,-0.216,1.001,0.1,0.061,0.854,0.61,297.986
150978,156551,9125,-0.217,1.005,0.101,0.061,0.854,0.61,297.99
150978,156617,12891,-0.215,1.004,0.102,0.305,0.915,0.427,297.996
151005,156551,9125,-0.215,1.004,0.101,0.305,0.915,0.427,298
151005,156562,12899,-0.216,1.005,0.098,0.61,0.793,0.366,298.006
151018,156551,9125,-0.215,1.001,0.095,0.61,0.793,0.366,298.01
151018,156623,12903,-0.217,1.002,0.098,0.122,0.671,0.366,298.016
150987,156551,9125,-0.214,1.003,0.097,0.122,0.671,0.366,298.019
150987,156587,12929,-0.217,1.001,0.096,-0.305,0.366,0.427,298.026
150998,156551,9125,-0.216,0.998,0.098,-0.305,0.366,0.427,298.029
150998,156618,12898,-0.215,1.003,0.098,-0.427,0.488,0.61,298.036
151016,156551,9125,-0.22,1.003,0.095,-0.427,0.488,0.61,298.039
151016,156616,12918,-0.214,1.002,0.099,-0.305,0.488,0.61,298.045
151005,156551,9125,-0.214,1.004,0.101,-0.305,0.488,0.61,298.049
151005,156625,12912,-0.215,1.005,0.104,-0.061,0.549,0.61,298.055
151018,156551,9125,-0.219,1.005,0.099,-0.061,0.549,0.61,298.059
151018,156626,12919,-0.219,1.006,0.102,-0.122,0.61,0.61,298.065
151015,156551,9125,-0.221,1.004,0.101,-0.122,0.61,0.61,298.069
151015,156589,12938,-0.222,1.005,0.1,-0.122,0.61,0.366,298.075
151019,156551,9125,-0.22,1.004,0.101,-0.122,0.61,0.366,298.079
151019,156618,12929,-0.218,1.002,0.102,0.122,0.732,0.244,298.085
151039,156551,9125,-0.22,1,0.102,0.122,0.732,0.244,298.089
151039,156605,12913,-0.219,1.003,0.103,0.305,0.854,0.305,298.095
151014,156551,9125,-0.218,1.003,0.1,0.305,0.854,0.305,298.099
151014,156615,12928,-0.219,1.003,0.102,0.366,0.854,0.244,298.105
151030,156551,9125,-0.221,1,0.104,0.366,0.854,0.244,298.109
151030,156629,12915,-0.221,0.998,0.103,0.793,0.915,0.183,298.115
151045,156551,9125,-0.22,1,0.11,0.793,0.915,0.183,298.118
151045,156607,12937,-0.222,1.001,0.108,0.549,0.915,0.122,298.125
151013,156551,9125,-0.221,1,0.105,0.549,0.915,0.122,298.128
151013,156614,12929,-0.22,0.997,0.106,0.366,0.976,0.122,298.135
151018,156551,9125,-0.218,0.996,0.101,0.366,0.976,0.122,298.138
151018,156621,12922,-0.215,0.998,0.097,0.244,1.037,0.122,298.144
151021,156551,9125,-0.215,0.996,0.098,0.244,1.037,0.122,298.148
151021,156595,12914,-0.214,0.992,0.096,0.366,1.037,0.305,298.154
151007,156551,9125,-0.216,0.995,0.094,0.366,1.037,0.305,298.158
151007,156565,12905,-0.215,1,0.097,0.671,1.037,0.671,298.164
150975,156551,9125,-0.216,1.005,0.104,0.671,1.037,0.671,298.168
150975,156565,12904,-0.214,1.006,0.1,0.793,1.159,0.61,298.174
150983,156551,9125,-0.213,1.005,0.096,0.793,1.159,0.61,298.178
150983,156552,12911,-0.214,1.005,0.096,0.854,1.098,0.61,298.184
150975,156551,9125,-0.214,1.005,0.095,0.854,1.098,0.61,298.188
150975,156541,12882,-0.211,1.007,0.098,0.671,0.915,0.61,298.194
150976,156551,9125,-0.209,1.002,0.098,0.671,0.915,0.61,298.198
150976,156530,12890,-0.213,1,0.096,0.488,0.793,0.488,298.204
150971,156551,9125,-0.214,1.001,0.096,0.488,0.793,0.488,298.208
150971,156541,12891,-0.216,1.003,0.098,0.61,0.854,0.488,298.214
150964,156551,9125,-0.214,1.003,0.095,0.61,0.854,0.488,298.217
150964,156524,12898,-0.215,1,0.093,0.793,0.732,0.488,298.224
150953,156551,9125,-0.215,1,0.095,0.793,0.732,0.488,298.227
150953,156499,12885,-0.216,1.002,0.098,0.61,0.427,0.61,298.234
150960,156551,9125,-0.221,1,0.098,0.61,0.427,0.61,298.237
150960,156516,12864,-0.219,0.999,0.101,0.122,0.244,0.854,298.243
150954,156551,9125,-0.218,1.002,0.099,0.122,0.244,0.854,298.247
150954,156513,12878,-0.218,1.002,0.107,-0.305,0.183,0.793,298.253
150954,156551,9125,-0.219,1.001,0.109,-0.305,0.183,0.793,298.257
150954,156497,12877,-0.216,1.002,0.107,-0.488,0.244,0.793,298.263
150940,156551,9125,-0.216,1.002,0.107,-0.488,0.244,0.793,298.267
150940,156482,12880,-0.216,1.005,0.102,-0.244,0.488,0.732,298.273
150953,156551,9125,-0.216,1.005,0.102,-0.244,0.488,0.732,298.277
150953,156495,12875,-0.215,1.005,0.095,0.061,0.671,0.61,298.283
150940,156551,9125,-0.215,1.005,0.095,0.061,0.671,0.61,298.287
150940,156480,12870,-0.214,1.002,0.096,0.427,0.854,0.549,298.293
150962,156551,9125,-0.214,1.002,0.096,0.427,0.854,0.549,298.297
150962,156476,12858,-0.211,1.01,0.094,0.305,0.976,0.366,298.303
150950,156551,9125,-0.211,1.01,0.094,0.305,0.976,0.366,298.307
150950,156483,12859,-0.208,1.006,0.095,0.366,0.854,0.488,298.313
150964,156551,9125,-0.208,1.006,0.095,0.366,0.854,0.488,298.316
150964,156501,12876,-0.208,1.005,0.095,0.183,0.854,0.427,298.323
150967,156551,9125,-0.208,1.005,0.095,0.183,0.854,0.427,298.326
150967,156501,12872,-0.213,1.002,0.1,0.488,0.976,0.366,298.333
150956,156551,9125,-0.213,1.002,0.1,0.488,0.976,0.366,298.336
150956,156484,12851,-0.212,1.001,0.099,0.732,1.098,0.366,298.342
150956,156551,9125,-0.212,1.001,0.099,0.732,1.098,0.366,298.346
150956,156497,12864,-0.214,1.006,0.099,1.037,1.159,0.122,298.352
150967,156551,9125,-0.214,1.006,0.099,1.037,1.159,0.122,298.356
150967,156499,12866,-0.212,1.004,0.097,1.037,1.28,0.122,298.362
150947,156551,9125,-0.212,1.004,0.097,1.037,1.28,0.122,298.366
150947,156484,12866,-0.22,1.001,0.095,1.098,1.402,0.061,298.372
150969,156551,9125,-0.22,1.001,0.095,1.098,1.402,0.061,298.376
150969,156502,12851,-0.217,1.003,0.092,1.098,1.524,0,298.382
150971,156551,9125,-0.217,1.003,0.092,1.098,1.524,0,298.386
150971,156506,12878,-0.219,1.001,0.094,1.341,1.524,0,298.392
150959,156551,9125,-0.219,1.001,0.094,1.341,1.524,0,298.396
150959,156485,12870,-0.22,1.004,0.096,1.585,1.402,0.122,298.402
150942,156551,9125,-0.22,1.004,0.096,1.585,1.402,0.122,298.406
150942,156490,12856,-0.221,1.006,0.095,1.585,1.402,0.122,298.412
150963,156551,9125,-0.221,1.005,0.097,1.28,1.402,-0.061,298.415
150963,156504,12867,-0.223,1.001,0.096,1.28,1.402,-0.061,298.422
150937,156551,9125,-0.223,1.001,0.095,0.793,1.402,0,298.425
150937,156500,12862,-0.218,1.001,0.092,0.793,1.402,0,298.432
150946,156551,9125,-0.219,1.004,0.093,0.366,1.098,0.061,298.435
150946,156524,12841,-0.219,1.004,0.093,0.366,1.098,0.061,298.441
150940,156551,9125,-0.219,1.001,0.092,0.427,0.854,0.122,298.445
150940,156509,12845,-0.218,1.002,0.093,0.427,0.854,0.122,298.451
150946,156551,9125,-0.219,1.007,0.093,0.427,0.976,0.122,298.455
150946,156497,12850,-0.218,1.006,0.092,0.427,0.976,0.122,298.461
150948,156551,9125,-0.217,1.005,0.09,0.366,0.854,0,298.465
150948,156514,12866,-0.218,1.007,0.088,0.366,0.854,0,298.471
150955,156551,9125,-0.216,1.005,0.093,0.244,0.427,0,298.475
150955,156514,12863,-0.217,1.003,0.089,0.244,0.427,0,298.481
150935,156551,9125,-0.214,1.004,0.089,-0.305,0.183,0.061,298.485
150935,156483,12868,-0.214,0.999,0.089,-0.305,0.183,0.061,298.491
150937,156551,9125,-0.216,0.995,0.087,-0.549,0.061,0.061,298.495
150937,156499,12853,-0.216,0.999,0.094,-0.549,0.061,0.061,298.501
150961,156551,9125,-0.219,0.996,0.091,-0.793,-0.244,0.305,298.505
150961,156482,12858,-0.217,0.996,0.089,-0.793,-0.244,0.305,298.511
150948,156551,9125,-0.215,1,0.092,-0.793,-0.366,0.549,298.514
150948,156457,12861,-0.218,1.002,0.094,-0.793,-0.366,0.549,298.521
150951,156551,9125,-0.219,1.002,0.095,-0.915,-0.366,0.732,298.524
150951,156487,12854,-0.218,1,0.098,-0.915,-0.366,0.732,298.531
150943,156551,9125,-0.217,1.002,0.093,-1.28,-0.61,0.732,298.534
150943,156489,12853,-0.215,1.004,0.093,-1.28,-0.61,0.732,298.54
150939,156551,9125,-0.216,1.001,0.095,-1.463,-0.549,0.732,298.544
150939,156468,12861,-0.218,1.002,0.095,-1.463,-0.549,0.732,298.55
150936,156551,9125,-0.218,1.003,0.096,-1.463,-0.488,0.671,298.554
150936,156499,12861,-0.217,1.004,0.097,-1.463,-0.488,0.671,298.56
150967,156551,9125,-0.22,1.004,0.099,-1.22,-0.488,0.61,298.564
150967,156481,12838,-0.22,1.006,0.1,-1.22,-0.488,0.61,298.57
150949,156551,9125,-0.217,1.004,0.094,-0.976,-0.488,0.671,298.574
150949,156486,12859,-0.217,1.005,0.1,-0.976,-0.488,0.671,298.58
150948,156551,9125,-0.218,1.004,0.1,-0.61,-0.427,0.427,298.584
150948,156485,12847,-0.216,1.002,0.103,-0.61,-0.427,0.427,298.59
150946,156551,9125,-0.22,1.002,0.102,-0.549,-0.122,0.305,298.594
150946,156493,12862,-0.217,1.004,0.1,-0.549,-0.122,0.305,298.6
150937,156551,9125,-0.215,1.004,0.099,-0.488,0.122,0.305,298.604
150937,156476,12852,-0.216,1.005,0.1,-0.488,0.122,0.305,298.61
150942,156551,9125,-0.214,0.998,0.099,-0.244,0.305,0.244,298.613
150942,156477,12857,-0.216,1,0.1,-0.244,0.305,0.244,298.62
150960,156551,9125,-0.213,0.998,0.095,0.061,0.427,0.305,298.623
150960,156487,12849,-0.214,0.997,0.1,0.061,0.427,0.305,298.63
150937,156551,9125,-0.214,1,0.099,0.366,0.671,0.305,298.633
150937,156473,12854,-0.214,1.004,0.095,0.366,0.671,0.305,298.639
150954,156551,9125,-0.217,1.002,0.097,0.549,0.732,0.244,298.643
150954,156479,12869,-0.216,1.003,0.095,0.549,0.732,0.244,298.649
150919,156551,9125,-0.215,1.004,0.096,0.488,0.793,0.305,298.653
150919,156494,12871,-0.216,1.004,0.098,0.488,0.793,0.305,298.659
150933,156551,9125,-0.217,1.001,0.101,0.183,0.854,0.488,298.663
150933,156478,12863,-0.214,1.004,0.098,0.183,0.854,0.488,298.669
150923,156551,9125,-0.216,1.005,0.098,0.061,0.915,0.366,298.673
150923,156484,12857,-0.217,1.003,0.097,0.061,0.915,0.366,298.679
150905,156551,9125,-0.213,1.003,0.094,0.549,1.159,0.305,298.683
150905,156471,12868,-0.215,1.002,0.096,0.549,1.159,0.305,298.689
150926,156551,9125,-0.218,1.003,0.099,0.915,1.463,0.183,298.693
150926,156498,12873,-0.218,1.003,0.096,0.915,1.463,0.183,298.699
150905,156551,9125,-0.218,1.003,0.095,0.854,1.524,0.061,298.703
150905,156485,12864,-0.217,1.002,0.097,0.854,1.524,0.061,298.709
150900,156551,9125,-0.218,1.001,0.095,0.793,1.341,0.061,298.712
150900,156488,12866,-0.219,1,0.09,0.793,1.341,0.061,298.719
150900,156551,9125,-0.217,0.998,0.095,0.854,1.463,0.122,298.722
150900,156483,12865,-0.217,0.998,0.095,0.854,1.463,0.122,298.729
150896,156551,9125,-0.22,1.003,0.091,0.976,1.402,0.305,298.732
150896,156492,12867,-0.218,1.003,0.096,0.976,1.402,0.305,298.738
150916,156551,9125,-0.215,1.004,0.093,0.976,1.22,0.366,298.742
150916,156492,12870,-0.215,1.004,0.094,0.976,1.22,0.366,298.748
150897,156551,9125,-0.215,1.004,0.097,0.488,1.159,0.427,298.752
150897,156478,12872,-0.217,1.003,0.092,0.488,1.159,0.427,298.758
150922,156551,9125,-0.221,1,0.091,0.366,1.098,0.305,298.762
150922,156525,12854,-0.221,1.004,0.089,0.366,1.098,0.305,298.768
150934,156551,9125,-0.217,1.006,0.092,0.305,0.854,0.183,298.772
150934,156482,12875,-0.219,1.005,0.089,0.305,0.854,0.183,298.778
150937,156551,9125,-0.221,1.002,0.09,0.488,0.854,0.305,298.782
150937,156510,12867,-0.219,1.006,0.086,0.488,0.854,0.305,298.788
150923,156551,9125,-0.221,1.004,0.085,0.488,1.037,0.183,298.792
150923,156495,12882,-0.221,1.003,0.085,0.488,1.037,0.183,298.798
150943,156551,9125,-0.219,1.004,0.086,0.244,0.671,0.183,298.802
150943,156513,12881,-0.22,0.999,0.085,0.244,0.671,0.183,298.808
150929,156551,9125,-0.218,1.004,0.09,-0.061,0,0.488,298.811
150929,156510,12867,-0.216,1.009,0.094,-0.061,0,0.488,298.818
150950,156551,9125,-0.219,1.01,0.094,-0.61,-0.122,0.427,298.821
150950,156501,12874,-0.214,1.008,0.095,-0.61,-0.122,0.427,298.828
150938,156551,9125,-0.215,1.002,0.095,-1.341,0,0.183,298.831
150938,156508,12881,-0.215,1.001,0.092,-1.341,0,0.183,298.837
150953,156551,9125,-0.214,0.997,0.096,-1.89,0,0.122,298.841
150953,156496,12862,-0.216,0.993,0.094,-1.89,0,0.122,298.847
150963,156551,9125,-0.214,0.991,0.097,-1.463,0.061,0.183,298.851
150963,156515,12878,-0.217,0.994,0.099,-1.463,0.061,0.183,298.857
150965,156551,9125,-0.217,0.994,0.099,-1.463,0.061,0.183,298.861
150965,156544,12889,-0.22,0.998,0.096,-0.671,0.183,0.244,298.867
150970,156551,9125,-0.22,0.998,0.096,-0.671,0.183,0.244,298.871
150970,156524,12877,-0.219,1.002,0.095,-0.244,0.366,0.305,298.877
150977,156551,9125,-0.219,1.002,0.095,-0.244,0.366,0.305,298.881
150977,156531,12888,-0.22,1.004,0.098,-0.366,0.366,0.488,298.887
150998,156551,9125,-0.22,1.004,0.098,-0.366,0.366,0.488,298.891
150998,156547,12887,-0.215,1.001,0.098,-0.854,0.244,0.549,298.897
150990,156551,9125,-0.215,1.001,0.098,-0.854,0.244,0.549,298.901
150990,156563,12894,-0.213,1,0.094,-0.732,0.305,0.671,298.907
