150328,155642,12828,-0.193,0.959,0.315,0,0.61,0.488,440.37
150343,155527,9125,-0.193,0.959,0.315,0,0.61,0.488,440.374
150343,155647,12801,-0.191,0.966,0.318,0.061,0.671,0.488,440.38
150320,155527,9125,-0.191,0.966,0.318,0.061,0.671,0.488,440.384
150320,155640,12798,-0.192,0.962,0.317,0.488,0.793,0.366,440.39
150304,155527,9125,-0.192,0.962,0.317,0.488,0.793,0.366,440.394
150304,155632,12799,-0.191,0.958,0.322,0.854,0.854,0.366,440.4
150317,155527,9125,-0.191,0.958,0.322,0.854,0.854,0.366,440.404
150317,155605,12804,-0.193,0.96,0.327,0.793,0.854,0.366,440.41
150310,155527,9125,-0.193,0.96,0.327,0.793,0.854,0.366,440.414
150310,155596,12787,-0.195,0.96,0.326,0.427,0.915,0.366,440.42
150306,155527,9125,-0.195,0.96,0.326,0.427,0.915,0.366,440.424
150306,155601,12780,-0.2,0.956,0.325,0.244,0.854,0.244,440.43
150304,155527,9125,-0.2,0.956,0.325,0.244,0.854,0.244,440.434
150304,155592,12797,-0.192,0.959,0.326,0,0.732,0.305,440.44
150315,155527,9125,-0.192,0.959,0.326,0,0.732,0.305,440.443
150315,155589,12777,-0.191,0.953,0.326,-0.183,0.732,0.427,440.45
150321,155527,9125,-0.191,0.953,0.326,-0.183,0.732,0.427,440.453
150321,155601,12766,-0.191,0.961,0.325,0.183,0.854,0.488,440.46
150310,155527,9125,-0.191,0.961,0.325,0.183,0.854,0.488,440.463
150310,155596,12781,-0.191,0.959,0.318,0.549,0.976,0.427,440.469
150302,155527,9125,-0.191,0.959,0.318,0.549,0.976,0.427,440.473
150302,155604,12790,-0.188,0.963,0.318,0.61,0.854,0.427,440.479
150326,155527,9125,-0.188,0.963,0.318,0.61,0.854,0.427,440.483
150326,155596,12776,-0.188,0.961,0.314,0.061,0.854,0.549,440.489
150294,155527,9125,-0.188,0.961,0.314,0.061,0.854,0.549,440.493
150294,155596,12771,-0.19,0.957,0.321,-0.122,0.549,0.488,440.499
150336,155527,9125,-0.19,0.957,0.321,-0.122,0.549,0.488,440.503
150336,155631,12788,-0.191,0.958,0.314,-0.183,0.549,0.488,440.509
150326,155527,9125,-0.191,0.958,0.314,-0.183,0.549,0.488,440.513
150326,155599,12783,-0.193,0.955,0.311,0.183,0.732,0.671,440.519
150329,155527,9125,-0.194,0.963,0.312,0.183,0.732,0.671,440.523
150329,155596,12757,-0.192,0.967,0.312,0.488,0.61,0.732,440.529
150297,155527,9125,-0.191,0.965,0.318,0.488,0.61,0.732,440.533
150297,155594,12782,-0.192,0.963,0.321,0.488,0.61,0.61,440.539
150320,155527,9125,-0.196,0.968,0.321,0.488,0.61,0.61,440.542
150320,155582,12768,-0.196,0.969,0.322,0.305,0.61,0.488,440.549
150301,155527,9125,-0.193,0.966,0.32,0.305,0.61,0.488,440.552
150301,155600,12766,-0.19,0.961,0.322,-0.061,0.366,0.366,440.559
150324,155527,9125,-0.191,0.962,0.319,-0.061,0.366,0.366,440.562
150324,155598,12764,-0.192,0.961,0.32,-0.366,0.366,0.305,440.568
150324,155527,9125,-0.195,0.961,0.319,-0.366,0.366,0.305,440.572
150324,155601,12770,-0.193,0.958,0.318,-0.366,0.488,0.305,440.578
150320,155527,9125,-0.19,0.955,0.321,-0.366,0.488,0.305,440.582
150320,155614,12779,-0.19,0.958,0.323,-0.122,0.427,0.244,440.588
150323,155527,9125,-0.192,0.96,0.324,-0.122,0.427,0.244,440.592
150323,155613,12789,-0.19,0.963,0.325,0.061,0.549,0.488,440.598
150337,155527,9125,-0.191,0.961,0.324,0.061,0.549,0.488,440.602
150337,155591,12752,-0.191,0.961,0.32,0.305,0.732,0.427,440.608
150321,155527,9125,-0.192,0.963,0.319,0.305,0.732,0.427,440.612
150321,155613,12787,-0.19,0.961,0.321,0,0.793,0.305,440.618
150338,155527,9125,-0.192,0.961,0.322,0,0.793,0.305,440.622
150338,155608,12774,-0.192,0.96,0.319,-0.061,0.671,0.366,440.628
150323,155527,9125,-0.193,0.96,0.323,-0.061,0.671,0.366,440.632
150323,155624,12775,-0.194,0.961,0.322,-0.183,0.671,0.366,440.638
150323,155527,9125,-0.195,0.963,0.323,-0.183,0.671,0.366,440.641
150323,155632,12786,-0.193,0.96,0.319,-0.061,0.732,0.244,440.648
150348,155527,9125,-0.195,0.962,0.316,-0.061,0.732,0.244,440.651
150348,155638,12781,-0.194,0.961,0.321,-0.244,0.732,0.305,440.658
150360,155527,9125,-0.194,0.962,0.32,-0.244,0.732,0.305,440.661
150360,155613,12788,-0.193,0.961,0.318,-0.366,0.732,0.366,440.667
150345,155527,9125,-0.19,0.957,0.321,-0.366,0.732,0.366,440.671
150345,155644,12774,-0.191,0.96,0.32,-0.061,0.793,0.427,440.677
150330,155527,9125,-0.193,0.961,0.316,-0.061,0.793,0.427,440.681
150330,155623,12767,-0.193,0.959,0.314,0.305,0.976,0.427,440.687
150350,155527,9125,-0.191,0.961,0.319,0.305,0.976,0.427,440.691
150350,155637,12771,-0.193,0.963,0.319,0.183,0.793,0.305,440.697
150331,155527,9125,-0.192,0.963,0.32,0.183,0.793,0.305,440.701
150331,155626,12790,-0.193,0.961,0.317,-0.183,0.671,0.427,440.707
150318,155527,9125,-0.194,0.958,0.314,-0.183,0.671,0.427,440.711
150318,155630,12781,-0.191,0.96,0.317,0.061,0.61,0.427,440.717
150351,155527,9125,-0.189,0.962,0.319,0.061,0.61,0.427,440.721
150351,155631,12778,-0.191,0.965,0.322,0.427,0.732,0.427,440.727
150333,155527,9125,-0.191,0.962,0.318,0.427,0.732,0.427,440.731
150333,155623,12778,-0.194,0.959,0.317,0.915,1.037,0.305,440.737
150332,155527,9125,-0.194,0.962,0.322,0.915,1.037,0.305,440.74
150332,155634,12776,-0.196,0.959,0.316,0.61,0.915,0.305,440.747
150339,155527,9125,-0.194,0.961,0.315,0.61,0.915,0.305,440.75
150339,155634,12788,-0.192,0.956,0.317,0.122,0.671,0.366,440.757
150354,155527,9125,-0.193,0.956,0.319,0.122,0.671,0.366,440.76
150354,155641,12767,-0.194,0.959,0.319,-0.183,0.61,0.61,440.766
150334,155527,9125,-0.194,0.96,0.319,-0.183,0.61,0.61,440.77
150334,155622,12781,-0.196,0.958,0.314,-0.122,0.61,0.549,440.776
150343,155527,9125,-0.195,0.957,0.319,-0.122,0.61,0.549,440.78
150343,155631,12771,-0.193,0.963,0.32,0.183,0.671,0.366,440.786
150340,155783,9125,-0.196,0.968,0.321,0.183,0.671,0.366,440.79
150340,155649,12780,-0.195,0.967,0.322,0.122,0.854,0.488,440.796
150348,155527,9125,-0.192,0.961,0.319,0.122,0.854,0.488,440.8
150348,155623,12788,-0.192,0.962,0.313,0.366,0.671,0.305,440.806
150353,155783,9125,-0.191,0.965,0.313,0.366,0.671,0.305,440.81
150353,155649,12779,-0.191,0.967,0.319,0.305,0.61,0.183,440.816
150365,155527,9125,-0.192,0.964,0.318,0.305,0.61,0.183,440.82
150365,155637,12784,-0.19,0.957,0.317,0.488,0.671,0.122,440.826
150366,155527,9125,-0.19,0.955,0.316,0.488,0.671,0.122,440.83
150366,155624,12783,-0.191,0.961,0.318,0.366,0.671,0.183,440.836
150361,155783,9125,-0.19,0.966,0.32,0.366,0.671,0.183,440.839
150361,155652,12790,-0.189,0.963,0.312,0.366,0.61,0.183,440.846
150381,155527,9125,-0.189,0.96,0.313,0.366,0.61,0.183,440.849
150381,155639,12780,-0.189,0.958,0.319,0.183,0.549,0.305,440.856
150349,155527,9125,-0.19,0.962,0.317,0.183,0.549,0.305,440.859
150349,155646,12780,-0.191,0.964,0.321,0.122,0.549,0.488,440.865
150347,155527,9125,-0.193,0.959,0.321,0.122,0.549,0.488,440.869
150347,155633,12774,-0.195,0.96,0.318,0.244,0.61,0.366,440.875
150371,155783,9125,-0.195,0.963,0.317,0.244,0.61,0.366,440.879
150371,155657,12779,-0.196,0.968,0.318,-0.061,0.549,0.305,440.885
150368,155527,9125,-0.195,0.963,0.321,-0.061,0.549,0.305,440.889
150368,155636,12769,-0.197,0.958,0.322,-0.427,0.488,0.305,440.895
150361,155527,9125,-0.195,0.959,0.317,-0.427,0.488,0.305,440.899
150361,155643,12783,-0.193,0.959,0.322,-0.854,0.488,0.305,440.905
150362,155527,9125,-0.194,0.958,0.319,-0.854,0.488,0.305,440.909
150362,155645,12779,-0.191,0.962,0.312,-0.366,0.427,0.305,440.915
150367,155783,9125,-0.194,0.962,0.316,-0.366,0.427,0.305,440.919
150367,155671,12794,-0.192,0.962,0.321,0.061,0.793,0.061,440.925
150350,155783,9125,-0.193,0.963,0.321,0.061,0.793,0.061,440.929
150350,155667,12790,-0.197,0.961,0.317,0.305,0.793,-0.061,440.935
150366,155783,9125,-0.195,0.96,0.319,0.305,0.793,-0.061,440.938
150366,155659,12795,-0.193,0.963,0.313,0.244,0.366,0,440.945
150370,155783,9125,-0.192,0.96,0.317,0.244,0.366,0,440.948
150370,155655,12782,-0.193,0.957,0.32,0.305,0.549,0.183,440.954
150346,155783,9125,-0.193,0.957,0.32,0.305,0.549,0.183,440.958
150346,155674,12790,-0.196,0.959,0.318,0.183,0.732,0.366,440.964
150359,155783,9125,-0.196,0.959,0.318,0.183,0.732,0.366,440.968
150359,155683,12783,-0.195,0.961,0.316,-0.061,0.61,0.244,440.974
150388,155783,9125,-0.195,0.961,0.316,-0.061,0.61,0.244,440.978
150388,155661,12779,-0.196,0.964,0.313,-0.305,0.427,0.305,440.984
150367,155783,9125,-0.196,0.964,0.313,-0.305,0.427,0.305,440.988
150367,155663,12784,-0.195,0.961,0.313,-0.244,0.244,0.305,440.994
150362,155783,9125,-0.195,0.961,0.313,-0.244,0.244,0.305,440.998
150362,155677,12798,-0.193,0.969,0.312,0,0.366,0.244,441.004
150387,155783,9125,-0.193,0.969,0.312,0,0.366,0.244,441.008
150387,155684,12794,-0.194,0.959,0.311,0.488,0.366,0.183,441.014
150365,155783,9125,-0.194,0.959,0.311,0.488,0.366,0.183,441.018
150365,155694,12793,-0.196,0.963,0.317,0.427,0.183,0,441.024
150356,155783,9125,-0.196,0.963,0.317,0.427,0.183,0,441.028
150356,155684,12794,-0.189,0.966,0.317,0.183,0.244,0.061,441.034
150397,155783,9125,-0.189,0.966,0.317,0.183,0.244,0.061,441.037
150397,155696,12787,-0.186,0.964,0.32,-0.122,0.244,0.183,441.044
150363,155783,9125,-0.186,0.964,0.32,-0.122,0.244,0.183,441.047
150363,155663,12805,-0.188,0.958,0.32,-0.244,0.366,0.366,441.054
150384,155783,9125,-0.188,0.958,0.32,-0.244,0.366,0.366,441.057
150384,155688,12792,-0.191,0.954,0.318,-0.061,0.488,0.183,441.063
150360,155783,9125,-0.191,0.954,0.318,-0.061,0.488,0.183,441.067
150360,155664,12801,-0.2,0.96,0.313,0.061,0.671,0.305,441.073
150382,155783,9125,-0.2,0.96,0.313,0.061,0.671,0.305,441.077
150382,155668,12802,-0.197,0.958,0.319,0.427,0.427,0.244,441.083
150400,155783,9125,-0.197,0.958,0.319,0.427,0.427,0.244,441.087
150400,155683,12804,-0.196,0.966,0.32,0.061,0.427,0.305,441.093
150384,155783,9125,-0.196,0.966,0.32,0.061,0.427,0.305,441.097
150384,155689,12798,-0.197,0.963,0.317,0.061,0.427,0.305,441.103
150396,155783,9125,-0.196,0.958,0.32,-0.122,0.366,0.366,441.107
150396,155702,12795,-0.194,0.957,0.319,-0.122,0.366,0.366,441.113
150411,155783,9125,-0.196,0.961,0.325,0.244,0.366,0.488,441.117
150411,155671,12782,-0.196,0.962,0.324,0.244,0.366,0.488,441.123
150403,155783,9125,-0.198,0.964,0.315,0.549,0.671,0.549,441.127
150403,155697,12803,-0.192,0.964,0.314,0.549,0.671,0.549,441.133
150405,155783,9125,-0.191,0.963,0.315,0.244,0.732,0.488,441.136
150405,155697,12803,-0.191,0.961,0.309,0.244,0.732,0.488,441.143
150392,155783,9125,-0.192,0.957,0.31,-0.427,0.549,0.671,441.146
150392,155697,12811,-0.192,0.96,0.309,-0.427,0.549,0.671,441.152
150393,155783,9125,-0.187,0.964,0.306,-0.549,0.305,0.793,441.156
150393,155697,12800,-0.186,0.964,0.308,-0.549,0.305,0.793,441.162
150391,155783,9125,-0.187,0.965,0.307,-0.244,0.305,0.61,441.166
150391,155710,12809,-0.19,0.966,0.309,-0.244,0.305,0.61,441.172
150396,155783,9125,-0.191,0.966,0.311,0.366,0.366,0.366,441.176
150396,155694,12805,-0.191,0.971,0.312,0.366,0.366,0.366,441.182
150402,155783,9125,-0.192,0.969,0.313,0.122,0.305,0.244,441.186
150402,155712,12810,-0.196,0.966,0.318,0.122,0.305,0.244,441.192
150414,155783,9125,-0.197,0.958,0.316,-0.244,0.122,0,441.196
150414,155713,12834,-0.202,0.959,0.319,-0.244,0.122,0,441.202
150396,155783,9125,-0.2,0.961,0.319,-0.488,0,0.183,441.206
150396,155740,12789,-0.196,0.958,0.322,-0.488,0,0.183,441.212
150399,155783,9125,-0.195,0.955,0.328,-0.549,0,0.366,441.216
150399,155729,12805,-0.195,0.956,0.328,-0.549,0,0.366,441.222
150424,155783,9125,-0.196,0.955,0.33,0,0.488,0.549,441.226
150424,155730,12807,-0.196,0.961,0.325,0,0.488,0.549,441.232
150411,155783,9125,-0.195,0.964,0.327,0.122,0.915,0.549,441.235
150411,155724,12804,-0.196,0.964,0.326,0.122,0.915,0.549,441.242
150400,155783,9125,-0.192,0.963,0.317,0.183,0.732,0.305,441.245
150400,155723,12811,-0.192,0.964,0.317,0.183,0.732,0.305,441.251
150397,155783,9125,-0.19,0.966,0.318,-0.366,0.671,0.305,441.255
150397,155732,12811,-0.19,0.969,0.316,-0.366,0.671,0.305,441.261
150408,155783,9125,-0.189,0.964,0.315,-0.854,0.61,0.305,441.265
150408,155724,12820,-0.188,0.958,0.315,-0.854,0.61,0.305,441.271
150394,155783,9125,-0.19,0.963,0.311,-0.549,0.61,0.122,441.275
150394,155735,12806,-0.188,0.963,0.309,-0.549,0.61,0.122,441.281
150408,155783,9125,-0.188,0.958,0.307,-0.244,0.488,0.183,441.285
150408,155719,12806,-0.187,0.96,0.31,-0.244,0.488,0.183,441.291
150430,155783,9125,-0.19,0.964,0.31,0.061,0.549,0.244,441.295
150430,155744,12811,-0.193,0.962,0.312,0.061,0.549,0.244,441.301
150410,155783,9125,-0.193,0.963,0.315,0.061,0.61,0.427,441.305
150410,155696,12816,-0.196,0.959,0.313,0.061,0.61,0.427,441.311
150429,155783,9125,-0.193,0.963,0.314,-0.183,0.366,0.366,441.315
150429,155718,12826,-0.197,0.964,0.319,-0.183,0.366,0.366,441.321
150421,155783,9125,-0.198,0.965,0.318,-0.305,0.305,0.488,441.325
150421,155703,12810,-0.202,0.961,0.317,-0.305,0.305,0.488,441.331
150417,155783,9125,-0.203,0.959,0.315,0.122,0.488,0.488,441.334
150417,155729,12819,-0.201,0.964,0.315,0.122,0.488,0.488,441.341
150420,155783,9125,-0.195,0.966,0.319,0,0.549,0.366,441.344
150420,155730,12817,-0.196,0.961,0.319,0,0.549,0.366,441.35
150416,155783,9125,-0.195,0.961,0.315,-0.244,0.366,0.427,441.354
150416,155729,12806,-0.195,0.964,0.311,-0.244,0.366,0.427,441.36
150402,155783,9125,-0.193,0.964,0.315,-0.915,-0.061,0.427,441.364
150402,155722,12823,-0.189,0.957,0.313,-0.915,-0.061,0.427,441.37
150399,155783,9125,-0.189,0.95,0.316,-0.915,-0.061,0.244,441.374
150399,155729,12827,-0.194,0.957,0.321,-0.915,-0.061,0.244,441.38
150409,155783,9125,-0.195,0.96,0.317,-0.732,0.122,0.305,441.384
150409,155730,12824,-0.193,0.954,0.319,-0.732,0.122,0.305,441.39
150387,155783,9125,-0.193,0.959,0.32,0,0.061,0.305,441.394
150387,155732,12839,-0.195,0.964,0.325,0,0.061,0.305,441.4
150435,155783,9125,-0.198,0.962,0.321,-0.061,0.183,0.427,441.404
150435,155741,12821,-0.197,0.961,0.321,-0.061,0.183,0.427,441.41
150422,155783,9125,-0.195,0.965,0.32,-0.305,0,0.305,441.414
150422,155728,12823,-0.193,0.969,0.321,-0.305,0,0.305,441.42
150431,155783,9125,-0.193,0.964,0.317,-0.61,0,0.305,441.424
150431,155756,12830,-0.19,0.961,0.315,-0.61,0,0.305,441.43
150409,155783,9125,-0.194,0.963,0.316,-0.732,0.122,0.427,441.433
150409,155726,12829,-0.193,0.96,0.316,-0.732,0.122,0.427,441.44
150404,155783,9125,-0.19,0.963,0.323,-0.854,0,0.244,441.443
150404,155729,12819,-0.19,0.964,0.325,-0.854,0,0.244,441.449
150398,155783,9125,-0.19,0.961,0.322,-0.61,0.122,0.305,441.453
150398,155693,12818,-0.191,0.964,0.32,-0.61,0.122,0.305,441.459
150395,155783,9125,-0.19,0.966,0.32,-0.488,0.427,0.488,441.463
150395,155691,12813,-0.188,0.963,0.319,-0.488,0.427,0.488,441.469
150365,155783,9125,-0.19,0.964,0.315,-0.061,0.549,0.488,441.473
150365,155677,12818,-0.19,0.961,0.313,-0.061,0.549,0.488,441.479
150363,155783,9125,-0.192,0.962,0.31,0.183,0.61,0.366,441.483
150363,155660,12806,-0.191,0.958,0.311,0.183,0.61,0.366,441.489
150365,155783,9125,-0.194,0.958,0.311,0.183,0.671,0.366,441.493
150365,155661,12810,-0.197,0.959,0.309,0.183,0.671,0.366,441.499
150336,155527,9125,-0.195,0.961,0.316,0.061,0.61,0.427,441.503
150336,155645,12798,-0.196,0.962,0.321,0.061,0.61,0.427,441.509
150375,155527,9125,-0.2,0.961,0.326,-0.183,0.427,0.61,441.513
150375,155645,12773,-0.198,0.961,0.319,-0.183,0.427,0.61,441.519
150367,155527,9125,-0.198,0.96,0.318,0.061,0.427,0.671,441.523
150367,155630,12788,-0.198,0.962,0.32,0.061,0.427,0.671,441.529
150363,155783,9125,-0.195,0.963,0.319,-0.183,0.549,0.427,441.532
150363,155657,12798,-0.193,0.958,0.322,-0.183,0.549,0.427,441.539
150374,155527,9125,-0.193,0.958,0.322,-0.183,0.549,0.427,441.542
150374,155645,12793,-0.197,0.962,0.323,-0.244,0.488,0.366,441.549
150368,155783,9125,-0.197,0.962,0.323,-0.244,0.488,0.366,441.552
150368,155665,12792,-0.189,0.955,0.315,-0.305,0.427,0.488,441.558
150382,155783,9125,-0.189,0.955,0.315,-0.305,0.427,0.488,441.562
150382,155651,12789,-0.192,0.959,0.313,-0.244,0.366,0.427,441.568
150373,155783,9125,-0.192,0.959,0.313,-0.244,0.366,0.427,441.572
150373,155662,12776,-0.188,0.964,0.312,-0.427,0.488,0.488,441.578
150386,155527,9125,-0.188,0.964,0.312,-0.427,0.488,0.488,441.582
150386,155640,12798,-0.188,0.959,0.31,-0.427,0.427,0.61,441.588
150368,155783,9125,-0.188,0.959,0.31,-0.427,0.427,0.61,441.592
150368,155654,12777,-0.189,0.966,0.317,-0.366,0.183,0.61,441.598
150355,155783,9125,-0.189,0.966,0.317,-0.366,0.183,0.61,441.602
150355,155654,12784,-0.194,0.963,0.311,-0.549,0.244,0.671,441.608
150390,155783,9125,-0.194,0.963,0.311,-0.549,0.244,0.671,441.612
150390,155648,12782,-0.191,0.961,0.316,-0.61,0.122,0.61,441.618
150374,155783,9125,-0.191,0.961,0.316,-0.61,0.122,0.61,441.622
150374,155653,12778,-0.195,0.968,0.327,-0.427,0,0.488,441.628
150373,155783,9125,-0.195,0.968,0.327,-0.427,0,0.488,441.631
150373,155663,12782,-0.197,0.961,0.316,-0.305,0.366,0.305,441.638
150390,155783,9125,-0.197,0.961,0.316,-0.305,0.366,0.305,441.641
150390,155667,12776,-0.193,0.961,0.321,-0.244,0.244,0.122,441.647
150376,155783,9125,-0.193,0.961,0.321,-0.244,0.244,0.122,441.651
150376,155655,12777,-0.195,0.953,0.321,-0.488,0.183,0.305,441.657
150358,155527,9125,-0.195,0.953,0.321,-0.488,0.183,0.305,441.661
150358,155639,12786,-0.19,0.963,0.318,-0.793,0.305,0.549,441.667
150359,155783,9125,-0.19,0.963,0.318,-0.793,0.305,0.549,441.671
150359,155675,12780,-0.191,0.961,0.319,-0.793,0.366,0.671,441.677
150372,155783,9125,-0.191,0.961,0.319,-0.793,0.366,0.671,441.681
150372,155650,12773,-0.191,0.964,0.318,-0.549,0.366,0.732,441.687
150375,155527,9125,-0.191,0.964,0.319,-0.549,0.366,0.732,441.691
150375,155640,12777,-0.193,0.969,0.318,-0.427,0.61,0.61,441.697
150396,155783,9125,-0.193,0.964,0.315,-0.427,0.61,0.61,441.701
150396,155657,12793,-0.193,0.965,0.318,-0.183,0.549,0.305,441.707
150416,155783,9125,-0.192,0.966,0.318,-0.183,0.549,0.305,441.711
150416,155652,12772,-0.195,0.962,0.313,-0.244,0.366,0.305,441.717
150383,155783,9125,-0.195,0.961,0.314,-0.244,0.366,0.305,441.721
150383,155666,12767,-0.194,0.957,0.314,-0.244,0.305,0.305,441.727
150392,155527,9125,-0.196,0.954,0.316,-0.244,0.305,0.305,441.73
150392,155642,12796,-0.198,0.958,0.311,-0.122,0.366,0.244,441.737
150377,155783,9125,-0.196,0.964,0.316,-0.122,0.366,0.244,441.74
150377,155650,12768,-0.194,0.966,0.318,-0.366,0.366,0.305,441.747
150372,155783,9125,-0.192,0.963,0.318,-0.366,0.366,0.305,441.75
150372,155656,12784,-0.19,0.96,0.318,-0.366,0.244,0.488,441.756
150388,155783,9125,-0.193,0.963,0.319,-0.366,0.244,0.488,441.76
150388,155675,12770,-0.19,0.964,0.321,-0.427,0.244,0.488,441.766
150372,155527,9125,-0.189,0.96,0.319,-0.427,0.244,0.488,441.77
150372,155635,12788,-0.19,0.96,0.316,-0.427,0.305,0.366,441.776
150389,155783,9125,-0.191,0.961,0.318,-0.427,0.305,0.366,441.78
150389,155674,12777,-0.19,0.962,0.318,-0.366,0.305,0.427,441.786
150382,155783,9125,-0.193,0.962,0.322,-0.366,0.305,0.427,441.79
150382,155655,12786,-0.191,0.961,0.319,-0.488,0.366,0.488,441.796
150394,155783,9125,-0.192,0.962,0.321,-0.488,0.366,0.488,441.8
150394,155661,12779,-0.191,0.963,0.319,-0.61,0.305,0.61,441.806
150376,155527,9125,-0.192,0.963,0.316,-0.61,0.305,0.61,441.81
150376,155633,12800,-0.19,0.961,0.314,-0.732,0.061,0.427,441.816
150403,155783,9125,-0.193,0.961,0.319,-0.732,0.061,0.427,441.82
150403,155649,12769,-0.194,0.963,0.322,-0.549,0.122,0.305,441.826
150378,155527,9125,-0.194,0.963,0.319,-0.549,0.122,0.305,441.829
150378,155641,12791,-0.194,0.958,0.321,-0.122,0.244,0.366,441.836
150385,155783,9125,-0.195,0.956,0.316,-0.122,0.244,0.366,441.839
150385,155659,12777,-0.197,0.96,0.318,-0.122,0.305,0.244,441.845
150378,155783,9125,-0.194,0.964,0.317,-0.122,0.305,0.244,441.849
150378,155651,12790,-0.193,0.96,0.317,-0.671,0.183,0.305,441.855
150386,155527,9125,-0.194,0.958,0.319,-0.671,0.183,0.305,441.859
150386,155647,12770,-0.193,0.957,0.32,-0.61,0.122,0.488,441.865
150396,155783,9125,-0.194,0.956,0.318,-0.61,0.122,0.488,441.869
150396,155653,12786,-0.195,0.958,0.314,-0.488,0.183,0.549,441.875
150379,155783,9125,-0.194,0.959,0.314,-0.488,0.183,0.549,441.879
150379,155666,12791,-0.195,0.962,0.317,-0.244,0.305,0.488,441.885
150398,155783,9125,-0.191,0.967,0.324,-0.244,0.305,0.488,441.889
150398,155660,12768,-0.19,0.964,0.323,-0.244,0.244,0.549,441.895
150358,155783,9125,-0.189,0.964,0.32,-0.244,0.244,0.549,441.899
150358,155665,12782,-0.19,0.966,0.327,-0.61,0.183,0.488,441.905
150352,155783,9125,-0.189,0.965,0.324,-0.61,0.183,0.488,441.909
150352,155651,12781,-0.189,0.966,0.321,-0.671,0.244,0.366,441.915
150350,155783,9125,-0.19,0.959,0.319,-0.671,0.244,0.366,441.919
150350,155664,12786,-0.189,0.955,0.319,-0.366,0.183,0.244,441.925
150350,155527,9125,-0.19,0.958,0.323,-0.366,0.183,0.244,441.928
150350,155640,12794,-0.192,0.96,0.323,-0.366,0.427,0.244,441.935
150360,155783,9125,-0.194,0.96,0.32,-0.366,0.427,0.244,441.938
150360,155676,12774,-0.194,0.954,0.314,-0.061,0.549,0.122,441.945
150368,155783,9125,-0.191,0.953,0.316,-0.061,0.549,0.122,441.948
150368,155666,12779,-0.194,0.961,0.317,0.183,0.427,0.244,441.954
150360,155783,9125,-0.193,0.966,0.321,0.183,0.427,0.244,441.958
150360,155671,12776,-0.191,0.965,0.319,0.061,0.488,0.488,441.964
150376,155527,9125,-0.193,0.965,0.32,0.061,0.488,0.488,441.968
150376,155647,12784,-0.192,0.967,0.316,-0.122,0.61,0.488,441.974
150365,155783,9125,-0.192,0.964,0.316,-0.122,0.61,0.488,441.978
150365,155688,12793,-0.196,0.963,0.318,-0.549,0.244,0.427,441.984
150376,155783,9125,-0.196,0.957,0.314,-0.549,0.244,0.427,441.988
150376,155680,12793,-0.196,0.959,0.317,-0.732,0.061,0.427,441.994
150377,155783,9125,-0.195,0.961,0.318,-0.732,0.061,0.427,441.998
150377,155693,12782,-0.193,0.959,0.317,-0.732,0,0.366,442.004
150376,155783,9125,-0.192,0.956,0.321,-0.732,0,0.366,442.008
150376,155664,12791,-0.194,0.959,0.321,-0.427,0.183,0.305,442.014
150383,155783,9125,-0.193,0.965,0.324,-0.427,0.183,0.305,442.018
150383,155689,12791,-0.195,0.962,0.32,-0.488,0.366,0.366,442.024
150372,155783,9125,-0.193,0.961,0.317,-0.488,0.366,0.366,442.027
150372,155676,12796,-0.193,0.959,0.318,-0.366,0.183,0.305,442.034
150370,155783,9125,-0.194,0.963,0.323,-0.366,0.183,0.305,442.037
150370,155673,12788,-0.192,0.963,0.323,-0.549,0.366,0.427,442.043
150381,155783,9125,-0.195,0.96,0.323,-0.549,0.366,0.427,442.047
150381,155690,12807,-0.192,0.96,0.322,-0.488,0.549,0.366,442.053
150387,155783,9125,-0.194,0.957,0.323,-0.488,0.549,0.366,442.057
150387,155678,12790,-0.194,0.956,0.318,-0.366,0.488,0.305,442.063
150369,155783,9125,-0.195,0.959,0.318,-0.366,0.488,0.305,442.067
150369,155677,12805,-0.195,0.958,0.317,-0.366,0.427,0.488,442.073
150380,155783,9125,-0.194,0.96,0.317,-0.366,0.427,0.488,442.077
150380,155652,12789,-0.195,0.961,0.316,-0.122,0.488,0.427,442.083
150373,155783,9125,-0.195,0.965,0.321,-0.122,0.488,0.427,442.087
150373,155666,12797,-0.192,0.962,0.319,-0.183,0.427,0.366,442.093
150375,155783,9125,-0.192,0.961,0.316,-0.183,0.427,0.366,442.097
150375,155665,12807,-0.195,0.967,0.316,0.061,0.305,0.366,442.103
150379,155783,9125,-0.193,0.965,0.317,0.061,0.305,0.366,442.107
150379,155668,12792,-0.195,0.962,0.318,-0.061,0.244,0.183,442.113
150377,155783,9125,-0.195,0.955,0.318,-0.061,0.244,0.183,442.117
150377,155702,12805,-0.195,0.957,0.314,-0.366,0.061,0.183,442.123
150388,155783,9125,-0.192,0.959,0.312,-0.366,0.061,0.183,442.126
150388,155690,12803,-0.191,0.961,0.32,-0.305,-0.061,0.366,442.133
150365,155783,9125,-0.191,0.961,0.32,-0.305,-0.061,0.366,442.136
150365,155686,12799,-0.185,0.968,0.321,-0.427,0.244,0.305,442.143
150378,155783,9125,-0.185,0.968,0.321,-0.427,0.244,0.305,442.146
150378,155694,12793,-0.189,0.962,0.32,-0.427,0.549,0.427,442.152
150370,155783,9125,-0.189,0.962,0.32,-0.427,0.549,0.427,442.156
150370,155688,12806,-0.192,0.959,0.323,-0.671,0.366,0.366,442.162
150388,155783,9125,-0.192,0.959,0.323,-0.671,0.366,0.366,442.166
150388,155705,12808,-0.196,0.957,0.319,-0.61,0.366,0.244,442.172
150362,155783,9125,-0.196,0.957,0.319,-0.61,0.366,0.244,442.176
150362,155689,12797,-0.194,0.954,0.32,-0.305,0.305,0.244,442.182
150342,155783,9125,-0.194,0.954,0.32,-0.305,0.305,0.244,442.186
150342,155685,12800,-0.196,0.957,0.322,-0.488,0.183,0.427,442.192
150372,155783,9125,-0.196,0.957,0.322,-0.488,0.183,0.427,442.196
150372,155699,12795,-0.188,0.958,0.317,-0.244,0.244,0.488,442.202
150374,155783,9125,-0.188,0.958,0.317,-0.244,0.244,0.488,442.206
150374,155672,12810,-0.189,0.961,0.324,0.183,0.366,0.305,442.212
150364,155783,9125,-0.189,0.961,0.324,0.183,0.366,0.305,442.216
150364,155704,12804,-0.199,0.96,0.322,0.61,0.671,0.305,442.222
150387,155783,9125,-0.199,0.96,0.322,0.61,0.671,0.305,442.225
150387,155690,12800,-0.197,0.963,0.319,0.915,0.488,0.244,442.232
150377,155783,9125,-0.197,0.963,0.319,0.915,0.488,0.244,442.235
150377,155714,12804,-0.195,0.967,0.315,0.488,0.488,0.061,442.242
150386,155783,9125,-0.195,0.967,0.315,0.488,0.488,0.061,442.245
150386,155716,12805,-0.193,0.96,0.312,-0.427,0.366,0,442.251
150381,155783,9125,-0.193,0.96,0.312,-0.427,0.366,0,442.255
150381,155698,12805,-0.187,0.96,0.312,-0.915,-0.183,0.244,442.261
150400,155783,9125,-0.187,0.96,0.312,-0.915,-0.183,0.244,442.265
150400,155706,12797,-0.185,0.962,0.316,-0.244,0.122,0.549,442.271
150371,155783,9125,-0.185,0.962,0.316,-0.244,0.122,0.549,442.275
150371,155699,12810,-0.189,0.959,0.312,-0.244,0.122,0.549,442.281
150372,155783,9125,-0.193,0.959,0.313,0.854,0.854,0.183,442.285
150372,155690,12814,-0.193,0.961,0.313,0.854,0.854,0.183,442.291
150375,155783,9125,-0.198,0.961,0.314,0.427,0.488,0.061,442.295
150375,155682,12807,-0.198,0.959,0.32,0.427,0.488,0.061,442.301
150375,155783,9125,-0.198,0.956,0.323,-0.549,-0.122,0.305,442.305
150375,155704,12794,-0.195,0.958,0.321,-0.549,-0.122,0.305,442.311
150372,155783,9125,-0.195,0.958,0.325,-0.854,-0.183,0.549,442.315
150372,155690,12828,-0.192,0.957,0.325,-0.854,-0.183,0.549,442.321
150375,155783,9125,-0.193,0.958,0.329,-0.854,-0.061,0.488,442.324
150375,155707,12796,-0.194,0.963,0.33,-0.854,-0.061,0.488,442.331
150366,155783,9125,-0.193,0.958,0.329,-0.671,0.122,0.427,442.334
150366,155696,12801,-0.191,0.957,0.329,-0.671,0.122,0.427,442.341
150367,155783,9125,-0.192,0.961,0.328,-0.549,0.183,0.488,442.344
150367,155679,12801,-0.192,0.964,0.326,-0.549,0.183,0.488,442.35
150360,155783,9125,-0.189,0.965,0.324,-0.305,0.427,0.549,442.354
150360,155693,12823,-0.19,0.962,0.321,-0.305,0.427,0.549,442.36
150375,155783,9125,-0.19,0.961,0.32,0.122,0.61,0.305,442.364
150375,155711,12808,-0.193,0.961,0.321,0.122,0.61,0.305,442.37
150375,155783,9125,-0.192,0.959,0.316,-0.366,0.488,0.305,442.374
150375,155703,12827,-0.189,0.963,0.312,-0.366,0.488,0.305,442.38
150368,155783,9125,-0.19,0.961,0.318,-0.427,0.366,0.366,442.384
150368,155720,12826,-0.189,0.96,0.317,-0.427,0.366,0.366,442.39
150389,155783,9125,-0.191,0.964,0.317,-0.122,0.488,0.488,442.394
150389,155723,12820,-0.192,0.965,0.314,-0.122,0.488,0.488,442.4
150385,155783,9125,-0.189,0.964,0.319,-0.061,0.366,0.427,442.404
150385,155743,12800,-0.19,0.958,0.316,-0.061,0.366,0.427,442.41
150394,155783,9125,-0.192,0.963,0.317,-0.183,0.305,0.305,442.414
150394,155732,12816,-0.196,0.964,0.313,-0.183,0.305,0.305,442.42
150393,155783,9125,-0.196,0.962,0.316,-0.366,0.366,0.183,442.423
150393,155724,12807,-0.193,0.961,0.318,-0.366,0.366,0.183,442.43
150376,155783,9125,-0.194,0.963,0.319,-0.427,0.183,0.305,442.433
150376,155712,12815,-0.194,0.964,0.321,-0.427,0.183,0.305,442.44
150388,155783,9125,-0.194,0.964,0.325,-0.549,0.305,0.488,442.443
150388,155703,12823,-0.198,0.965,0.319,-0.549,0.305,0.488,442.449
150345,155783,9125,-0.196,0.958,0.317,-0.183,0.366,0.366,442.453
150345,155704,12815,-0.193,0.964,0.319,-0.183,0.366,0.366,442.459
150372,155783,9125,-0.197,0.966,0.322,-0.183,0.305,0.183,442.463
150372,155703,12822,-0.194,0.967,0.32,-0.183,0.305,0.183,442.469
150359,155783,9125,-0.195,0.964,0.321,-0.488,0.488,0.244,442.473
150359,155688,12824,-0.194,0.959,0.32,-0.488,0.488,0.244,442.479
150366,155783,9125,-0.193,0.962,0.317,-0.549,0.244,0.244,442.483
150366,155708,12824,-0.191,0.96,0.318,-0.549,0.244,0.244,442.489
150362,155783,9125,-0.189,0.961,0.32,-0.427,0.061,0.244,442.493
150362,155686,12823,-0.191,0.96,0.318,-0.427,0.061,0.244,442.499
150351,155783,9125,-0.193,0.954,0.318,-0.122,0.305,0.122,442.503
150351,155699,12807,-0.193,0.957,0.32,-0.122,0.305,0.122,442.509
150367,155783,9125,-0.195,0.962,0.324,-0.061,0.427,0.244,442.513
150367,155685,12815,-0.198,0.962,0.325,-0.061,0.427,0.244,442.519
150386,155783,9125,-0.193,0.956,0.323,-0.244,0.305,0.366,442.522
150386,155689,12835,-0.192,0.958,0.325,-0.244,0.305,0.366,442.529
150369,155783,9125,-0.191,0.963,0.326,-0.183,0.061,0.244,442.532
150369,155694,12830,-0.193,0.966,0.328,-0.183,0.061,0.244,442.539
150371,155783,9125,-0.195,0.963,0.323,-0.427,0.366,0.305,442.542
150371,155696,12815,-0.192,0.956,0.321,-0.427,0.366,0.305,442.548
150351,155783,9125,-0.193,0.956,0.322,-0.366,0.183,0.305,442.552
150351,155705,12824,-0.19,0.958,0.323,-0.366,0.183,0.305,442.558
150373,155783,9125,-0.191,0.963,0.325,-0.549,0.305,0.366,442.562
150373,155674,12802,-0.192,0.967,0.32,-0.549,0.305,0.366,442.568
150330,155783,9125,-0.191,0.961,0.321,-0.305,0.488,0.305,442.572
150330,155674,12826,-0.19,0.96,0.317,-0.305,0.488,0.305,442.578
150333,155783,9125,-0.19,0.961,0.318,-0.122,0.427,0.305,442.582
150333,155667,12809,-0.192,0.959,0.314,-0.122,0.427,0.305,442.588
150308,155527,9125,-0.193,0.963,0.314,-0.061,0.488,0.488,442.592
150308,155620,12798,-0.191,0.961,0.313,-0.061,0.488,0.488,442.598
150311,155527,9125,-0.193,0.959,0.315,0.183,0.732,0.305,442.602
150311,155636,12808,-0.196,0.963,0.319,0.183,0.732,0.305,442.608
150316,155527,9125,-0.194,0.963,0.317,0,0.671,0.305,442.612
150316,155628,12788,-0.194,0.96,0.32,0,0.671,0.305,442.618
150293,155527,9125,-0.195,0.962,0.32,0.183,0.366,0.427,442.621
150293,155630,12790,-0.193,0.963,0.324,0.183,0.366,0.427,442.628
150328,155527,9125,-0.195,0.963,0.322,0.061,0.427,0.244,442.631
150328,155610,12777,-0.197,0.96,0.324,0.061,0.427,0.244,442.638
150321,155527,9125,-0.194,0.956,0.323,-0.122,0.488,0.244,442.641
150321,155598,12772,-0.193,0.953,0.322,-0.122,0.488,0.244,442.647
150329,155527,9125,-0.194,0.956,0.32,-0.183,0.244,0.366,442.651
150329,155600,12788,-0.194,0.956,0.322,-0.183,0.244,0.366,442.657
150327,155527,9125,-0.192,0.956,0.32,-0.183,0.366,0.366,442.661
150327,155594,12781,-0.189,0.961,0.321,-0.183,0.366,0.366,442.667
150320,155527,9125,-0.19,0.964,0.323,-0.244,0.427,0.305,442.671
150320,155631,12776,-0.187,0.96,0.32,-0.244,0.427,0.305,442.677
150327,155527,9125,-0.19,0.958,0.326,-0.183,0.549,0.366,442.681
150327,155608,12774,-0.193,0.964,0.325,-0.183,0.549,0.366,442.687
150352,155527,9125,-0.194,0.966,0.321,-0.427,0.549,0.366,442.691
150352,155616,12761,-0.193,0.961,0.316,-0.427,0.549,0.366,442.697
150328,155527,9125,-0.192,0.959,0.32,-0.549,0.305,0.305,442.701
150328,155603,12785,-0.189,0.959,0.318,-0.549,0.305,0.305,442.707
150338,155527,9125,-0.192,0.96,0.315,-0.366,0.305,0.488,442.711
150338,155595,12768,-0.191,0.961,0.316,-0.366,0.305,0.488,442.717
150328,155527,9125,-0.193,0.962,0.316,-0.183,0.549,0.427,442.72
150328,155611,12764,-0.191,0.96,0.316,-0.183,0.549,0.427,442.727
150333,155527,9125,-0.191,0.96,0.316,-0.183,0.549,0.427,442.73
150333,155614,12766,-0.192,0.968,0.321,0.061,0.366,0.244,442.737
150338,155527,9125,-0.192,0.968,0.321,0.061,0.366,0.244,442.74
150338,155606,12758,-0.192,0.965,0.316,0.122,0.427,0.366,442.746
150312,155527,9125,-0.192,0.965,0.316,0.122,0.427,0.366,442.75
150312,155603,12767,-0.194,0.96,0.319,-0.244,0.488,0.305,442.756
150339,155527,9125,-0.194,0.96,0.319,-0.244,0.488,0.305,442.76
150339,155608,12770,-0.194,0.962,0.321,-0.671,0.427,0.244,442.766
150349,155527,9125,-0.194,0.962,0.321,-0.671,0.427,0.244,442.77
150349,155632,12780,-0.194,0.957,0.319,-0.244,0.366,0.305,442.776
150359,155527,9125,-0.194,0.957,0.319,-0.244,0.366,0.305,442.78
150359,155627,12776,-0.193,0.962,0.321,0.122,0.61,0.366,442.786
150343,155527,9125,-0.193,0.962,0.321,0.122,0.61,0.366,442.79
150343,155604,12754,-0.193,0.962,0.316,0.244,0.61,0.305,442.796
150345,155527,9125,-0.193,0.962,0.316,0.244,0.61,0.305,442.8
150345,155612,12769,-0.196,0.962,0.318,-0.366,0.671,0.244,442.806
150348,155527,9125,-0.196,0.962,0.318,-0.366,0.671,0.244,442.81
150348,155624,12775,-0.192,0.963,0.321,-0.732,0.427,0.305,442.816
150353,155527,9125,-0.192,0.963,0.321,-0.732,0.427,0.305,442.82
150353,155644,12760,-0.192,0.961,0.319,-0.671,0.427,0.488,442.826
150355,155527,9125,-0.192,0.961,0.319,-0.671,0.427,0.488,442.829
150355,155623,12753,-0.192,0.964,0.322,-0.061,0.61,0.305,442.836
150324,155527,9125,-0.192,0.964,0.322,-0.061,0.61,0.305,442.839
150324,155639,12771,-0.196,0.963,0.324,0,0.732,0.183,442.845
150336,155527,9125,-0.196,0.963,0.324,0,0.732,0.183,442.849
150336,155618,12751,-0.197,0.958,0.32,0.183,0.61,0.244,442.855
150351,155527,9125,-0.197,0.958,0.32,0.183,0.61,0.244,442.859
150351,155643,12775,-0.193,0.957,0.316,-0.061,0.488,0.366,442.865
150359,155527,9125,-0.193,0.957,0.316,-0.061,0.488,0.366,442.869
150359,155627,12755,-0.191,0.954,0.315,-0.061,0.549,0.366,442.875
150359,155527,9125,-0.194,0.958,0.316,-0.061,0.549,0.366,442.879
150359,155609,12770,-0.191,0.962,0.313,-0.183,0.549,0.427,442.885
150346,155527,9125,-0.19,0.963,0.313,-0.183,0.549,0.427,442.889
150346,155645,12762,-0.19,0.965,0.316,-0.427,0.427,0.427,442.895
150353,155527,9125,-0.193,0.968,0.317,-0.427,0.427,0.427,442.899
150353,155636,12774,-0.192,0.967,0.318,-0.305,0.427,0.366,442.905
150340,155527,9125,-0.191,0.965,0.319,-0.305,0.427,0.366,442.909
150340,155625,12778,-0.191,0.963,0.316,-0.244,0.244,0.244,442.915
150367,155527,9125,-0.192,0.961,0.316,-0.244,0.244,0.244,442.918
150367,155633,12754,-0.192,0.959,0.317,-0.488,0.122,0.183,442.925
150342,155527,9125,-0.193,0.954,0.317,-0.488,0.122,0.183,442.928
150342,155614,12772,-0.193,0.953,0.319,-0.549,0.183,0.183,442.935
150360,155783,9125,-0.196,0.958,0.319,-0.549,0.183,0.183,442.938
150360,155650,12776,-0.198,0.961,0.321,-0.549,0.183,0.427,442.944
150349,155527,9125,-0.195,0.96,0.323,-0.549,0.183,0.427,442.948
150349,155639,12763,-0.197,0.962,0.323,-0.488,0.122,0.366,442.954
150336,155527,9125,-0.195,0.964,0.322,-0.488,0.122,0.366,442.958
150336,155629,12773,-0.189,0.96,0.32,-0.427,0,0.549,442.964
150327,155783,9125,-0.192,0.961,0.324,-0.427,0,0.549,442.968
150327,155649,12755,-0.194,0.96,0.325,-0.305,0.061,0.549,442.974
150338,155527,9125,-0.192,0.963,0.322,-0.305,0.061,0.549,442.978
150338,155632,12754,-0.193,0.961,0.319,-0.183,0.427,0.366,442.984
150343,155527,9125,-0.193,0.963,0.316,-0.183,0.427,0.366,442.988
150343,155635,12766,-0.192,0.965,0.321,-0.061,0.366,0.305,442.994
150343,155527,9125,-0.193,0.964,0.327,-0.061,0.366,0.305,442.998
150343,155629,12776,-0.191,0.959,0.326,-0.183,0.305,0.366,443.004
150346,155527,9125,-0.193,0.961,0.322,-0.183,0.305,0.366,443.008
150346,155619,12781,-0.194,0.961,0.323,-0.549,0.305,0.305,443.014
150344,155527,9125,-0.193,0.959,0.325,-0.549,0.305,0.305,443.018
150344,155621,12769,-0.191,0.954,0.323,-0.549,0.183,0.366,443.024
150368,155527,9125,-0.192,0.953,0.324,-0.549,0.183,0.366,443.027
150368,155620,12761,-0.192,0.959,0.322,-0.061,0.549,0.549,443.034
150338,155527,9125,-0.19,0.963,0.321,-0.061,0.549,0.549,443.037
150338,155629,12771,-0.191,0.964,0.321,0.427,0.915,0.488,443.043
150347,155527,9125,-0.191,0.964,0.318,0.427,0.915,0.488,443.047
150347,155626,12763,-0.194,0.966,0.317,0.61,0.915,0.427,443.053
150352,155527,9125,-0.194,0.964,0.317,0.61,0.915,0.427,443.057
150352,155617,12775,-0.191,0.968,0.317,0.122,0.793,0.366,443.063
150346,155783,9125,-0.193,0.967,0.316,0.122,0.793,0.366,443.067
150346,155660,12771,-0.19,0.961,0.319,-0.427,0.549,0.244,443.073
150353,155527,9125,-0.19,0.96,0.316,-0.427,0.549,0.244,443.077
150353,155627,12755,-0.195,0.961,0.314,-0.244,0.427,0.305,443.083
150335,155527,9125,-0.194,0.963,0.317,-0.244,0.427,0.305,443.087
150335,155628,12792,-0.196,0.961,0.318,-0.122,0.671,0.305,443.093
150357,155527,9125,-0.194,0.963,0.317,-0.122,0.671,0.305,443.097
150357,155647,12773,-0.194,0.963,0.32,0,0.671,0.183,443.103
150356,155783,9125,-0.194,0.961,0.32,0,0.671,0.183,443.107
150356,155655,12780,-0.195,0.956,0.322,0.427,0.61,0.305,443.113
150353,155783,9125,-0.195,0.96,0.32,0.427,0.61,0.305,443.117
150353,155656,12770,-0.192,0.966,0.321,0.366,0.671,0.305,443.123
150343,155527,9125,-0.19,0.964,0.325,0.366,0.671,0.305,443.126
150343,155642,12764,-0.192,0.959,0.32,0.488,0.732,0.305,443.133
150335,155527,9125,-0.194,0.957,0.319,0.488,0.732,0.305,443.136
150335,155637,12789,-0.192,0.961,0.317,0.671,0.915,0.488,443.143
150357,155527,9125,-0.191,0.963,0.32,0.671,0.915,0.488,443.146
150357,155647,12775,-0.192,0.962,0.323,0.305,0.976,0.427,443.152
150355,155783,9125,-0.194,0.957,0.319,0.305,0.976,0.427,443.156
150355,155658,12775,-0.194,0.958,0.32,-0.122,0.793,0.427,443.162
150370,155783,9125,-0.193,0.957,0.321,-0.122,0.793,0.427,443.166
150370,155670,12781,-0.191,0.959,0.322,-0.061,0.549,0.549,443.172
150351,155783,9125,-0.192,0.958,0.323,-0.061,0.549,0.549,443.176
150351,155654,12775,-0.193,0.956,0.318,0.061,0.793,0.549,443.182
150353,155783,9125,-0.193,0.96,0.321,0.061,0.793,0.549,443.186
150353,155652,12763,-0.192,0.958,0.319,0.183,0.915,0.427,443.192
150335,155783,9125,-0.195,0.959,0.325,0.183,0.915,0.427,443.196
150335,155656,12786,-0.196,0.962,0.321,0.305,0.732,0.427,443.202
150342,155783,9125,-0.193,0.961,0.318,0.305,0.732,0.427,443.206
150342,155664,12770,-0.192,0.958,0.316,0.244,0.732,0.549,443.212
150355,155527,9125,-0.191,0.964,0.313,0.244,0.732,0.549,443.216
150355,155643,12779,-0.19,0.967,0.316,-0.183,0.854,0.427,443.222
150353,155527,9125,-0.192,0.963,0.318,-0.183,0.854,0.427,443.225
150353,155638,12774,-0.193,0.963,0.319,-0.183,0.671,0.488,443.232
150337,155783,9125,-0.195,0.966,0.316,-0.183,0.671,0.488,443.235
150337,155660,12777,-0.196,0.964,0.319,0.183,0.671,0.427,443.241
150361,155783,9125,-0.199,0.961,0.321,0.183,0.671,0.427,443.245
150361,155652,12792,-0.2,0.961,0.319,0.549,0.732,0.244,443.251
150354,155527,9125,-0.199,0.96,0.319,0.549,0.732,0.244,443.255
150354,155646,12788,-0.199,0.964,0.316,0.305,0.61,0.366,443.261
150368,155527,9125,-0.196,0.961,0.316,0.305,0.61,0.366,443.265
150368,155637,12774,-0.195,0.958,0.319,0.122,0.427,0.427,443.271
150374,155783,9125,-0.195,0.96,0.32,0.122,0.427,0.427,443.275
150374,155662,12779,-0.195,0.956,0.317,0,0.549,0.366,443.281
150369,155783,9125,-0.193,0.96,0.316,0,0.549,0.366,443.285
150369,155694,12766,-0.189,0.97,0.322,-0.122,0.427,0.305,443.291
150354,155783,9125,-0.186,0.962,0.323,-0.122,0.427,0.305,443.295
150354,155649,12777,-0.186,0.964,0.322,0.061,0.549,0.549,443.301
150373,155527,9125,-0.19,0.965,0.323,0.061,0.549,0.549,443.305
150373,155645,12784,-0.189,0.967,0.318,0,0.915,0.488,443.311
150342,155527,9125,-0.193,0.966,0.32,0,0.915,0.488,443.315
150342,155636,12782,-0.194,0.956,0.319,-0.183,0.549,0.183,443.321
150354,155783,9125,-0.194,0.956,0.319,-0.183,0.549,0.183,443.324
150354,155649,12794,-0.195,0.958,0.314,-0.122,0.427,0.366,443.331
150364,155527,9125,-0.195,0.958,0.314,-0.122,0.427,0.366,443.334
150364,155629,12777,-0.193,0.958,0.316,0,0.732,0.366,443.341
150353,155783,9125,-0.193,0.958,0.316,0,0.732,0.366,443.344
150353,155658,12784,-0.196,0.962,0.317,0.183,0.732,0.183,443.35
150361,155783,9125,-0.196,0.962,0.317,0.183,0.732,0.183,443.354
150361,155664,12792,-0.193,0.963,0.318,0.061,0.549,0.427,443.36
150359,155783,9125,-0.193,0.963,0.318,0.061,0.549,0.427,443.364
150359,155660,12785,-0.194,0.958,0.321,0.244,0.366,0.549,443.37
150356,155783,9125,-0.194,0.958,0.321,0.244,0.366,0.549,443.374
150356,155658,12786,-0.195,0.964,0.312,0.244,0.427,0.366,443.38
150350,155783,9125,-0.195,0.964,0.312,0.244,0.427,0.366,443.384
150350,155658,12795,-0.196,0.962,0.311,0.305,0.488,0.305,443.39
150363,155783,9125,-0.196,0.962,0.311,0.305,0.488,0.305,443.394
150363,155675,12794,-0.194,0.964,0.318,0.122,0.244,0.366,443.4
150364,155783,9125,-0.194,0.964,0.318,0.122,0.244,0.366,443.404
150364,155668,12795,-0.19,0.963,0.318,0,0.183,0.427,443.41
150357,155783,9125,-0.19,0.963,0.318,0,0.183,0.427,443.414
150357,155696,12794,-0.189,0.963,0.319,-0.122,0.305,0.366,443.42
150387,155783,9125,-0.189,0.963,0.319,-0.122,0.305,0.366,443.423
150387,155672,12788,-0.191,0.963,0.317,0.122,0.427,0.305,443.43
150333,155783,9125,-0.191,0.963,0.317,0.122,0.427,0.305,443.433
150333,155668,12809,-0.191,0.963,0.315,0.122,0.488,0.244,443.44
150391,155783,9125,-0.191,0.963,0.315,0.122,0.488,0.244,443.443
150391,155676,12789,-0.196,0.96,0.317,0.061,0.305,0.366,443.449
150379,155783,9125,-0.196,0.96,0.317,0.061,0.305,0.366,443.453
150379,155674,12794,-0.195,0.959,0.319,-0.061,0.366,0.427,443.459
150357,155783,9125,-0.195,0.959,0.319,-0.061,0.366,0.427,443.463
150357,155682,12788,-0.197,0.96,0.32,-0.061,0.366,0.427,443.469
150366,155783,9125,-0.197,0.96,0.324,-0.183,0.183,0.366,443.473
150366,155660,12789,-0.196,0.96,0.328,-0.183,0.183,0.366,443.479
150393,155783,9125,-0.198,0.959,0.325,-0.061,0.305,0.549,443.483
150393,155683,12777,-0.197,0.963,0.324,-0.061,0.305,0.549,443.489
150399,155783,9125,-0.194,0.964,0.326,0,0.488,0.549,443.493
150399,155683,12802,-0.19,0.964,0.325,0,0.488,0.549,443.499
150395,155783,9125,-0.192,0.961,0.322,-0.122,0.427,0.366,443.503
150395,155696,12799,-0.193,0.959,0.321,-0.122,0.427,0.366,443.509
150369,155783,9125,-0.19,0.96,0.319,-0.122,0.549,0.488,443.513
150369,155672,12807,-0.19,0.961,0.314,-0.122,0.549,0.488,443.519
150384,155783,9125,-0.19,0.964,0.316,-0.122,0.488,0.366,443.522
150384,155683,12797,-0.189,0.964,0.315,-0.122,0.488,0.366,443.529
150358,155783,9125,-0.189,0.966,0.312,0.061,0.488,0.244,443.532
150358,155697,12812,-0.19,0.966,0.315,0.061,0.488,0.244,443.539
150390,155783,9125,-0.191,0.964,0.317,0.122,0.732,0.366,443.542
150390,155709,12798,-0.188,0.966,0.317,0.122,0.732,0.366,443.548
150371,155783,9125,-0.195,0.967,0.316,0.244,0.732,0.183,443.552
150371,155728,12796,-0.196,0.963,0.316,0.244,0.732,0.183,443.558
150378,155783,9125,-0.194,0.958,0.312,0.305,0.488,0,443.562
150378,155716,12819,-0.193,0.962,0.315,0.305,0.488,0,443.568
150389,155783,9125,-0.193,0.963,0.315,0.061,0.427,0.244,443.572
150389,155722,12798,-0.192,0.964,0.314,0.061,0.427,0.244,443.578
150372,155783,9125,-0.19,0.959,0.307,0.183,0.427,0.305,443.582
150372,155717,12800,-0.193,0.957,0.311,0.183,0.427,0.305,443.588
150383,155783,9125,-0.192,0.961,0.315,0.366,0.488,0.183,443.592
150383,155695,12812,-0.194,0.968,0.323,0.366,0.488,0.183,443.598
150362,155783,9125,-0.2,0.966,0.319,0.122,0.61,0.305,443.602
150362,155702,12813,-0.198,0.959,0.314,0.122,0.61,0.305,443.608
150380,155783,9125,-0.19,0.956,0.313,0.122,0.427,0.366,443.612
150380,155726,12811,-0.193,0.961,0.311,0.122,0.427,0.366,443.618
150381,155783,9125,-0.195,0.965,0.315,-0.122,0.427,0.427,443.621
150381,155695,12806,-0.192,0.963,0.313,-0.122,0.427,0.427,443.628
150361,155783,9125,-0.193,0.957,0.31,-0.183,0.549,0.244,443.631
150361,155720,12818,-0.198,0.957,0.315,-0.183,0.549,0.244,443.638
150357,155783,9125,-0.196,0.959,0.317,0.061,0.305,0.183,443.641
150357,155698,12814,-0.196,0.961,0.317,0.061,0.305,0.183,443.647
150388,155783,9125,-0.196,0.96,0.318,0.305,0.244,0.305,443.651
150388,155706,12812,-0.195,0.959,0.318,0.305,0.244,0.305,443.657
150374,155783,9125,-0.193,0.958,0.312,0.183,0.305,0.305,443.661
150374,155723,12810,-0.195,0.963,0.315,0.183,0.305,0.305,443.667
150396,155783,9125,-0.194,0.965,0.324,-0.122,0.244,0.427,443.671
150396,155731,12810,-0.193,0.964,0.321,-0.122,0.244,0.427,443.677
150382,155783,9125,-0.197,0.961,0.32,-0.366,0.122,0.427,443.681
150382,155716,12812,-0.195,0.961,0.32,-0.366,0.122,0.427,443.687
150371,155783,9125,-0.195,0.963,0.321,-0.488,0,0.244,443.691
150371,155725,12805,-0.193,0.967,0.319,-0.488,0,0.244,443.697
150383,155783,9125,-0.196,0.964,0.317,-0.671,-0.061,0.244,443.701
150383,155713,12803,-0.195,0.961,0.317,-0.671,-0.061,0.244,443.707
150374,155783,9125,-0.194,0.959,0.316,-0.366,0.061,0.366,443.711
150374,155690,12800,-0.193,0.962,0.313,-0.366,0.061,0.366,443.717
150369,155783,9125,-0.193,0.964,0.314,-0.305,0.183,0.366,443.72
150369,155691,12795,-0.188,0.961,0.315,-0.305,0.183,0.366,443.727
150336,155783,9125,-0.189,0.958,0.313,-0.122,0.244,0.305,443.73
150336,155649,12814,-0.19,0.961,0.315,-0.122,0.244,0.305,443.737
150334,155527,9125,-0.19,0.965,0.316,0.122,0.427,0.61,443.74
150334,155643,12793,-0.19,0.966,0.317,0.122,0.427,0.61,443.746
150344,155527,9125,-0.191,0.963,0.319,0.183,0.366,0.366,443.75
150344,155638,12777,-0.192,0.959,0.318,0.183,0.366,0.366,443.756
150331,155527,9125,-0.196,0.962,0.32,0.244,0.305,0.244,443.76
150331,155623,12781,-0.202,0.962,0.32,0.244,0.305,0.244,443.766
150316,155527,9125,-0.198,0.96,0.32,0.061,0.366,0.366,443.77
150316,155618,12788,-0.194,0.955,0.319,0.061,0.366,0.366,443.776
150348,155527,9125,-0.196,0.958,0.324,-0.061,0.305,0.244,443.78
150348,155600,12789,-0.199,0.958,0.323,-0.061,0.305,0.244,443.786
150334,155527,9125,-0.2,0.957,0.322,-0.061,0.366,0.61,443.79
150334,155626,12766,-0.197,0.961,0.322,-0.061,0.366,0.61,443.796
150333,155527,9125,-0.192,0.962,0.321,0.244,0.366,0.549,443.8
150333,155597,12780,-0.196,0.962,0.323,0.244,0.366,0.549,443.806
150352,155527,9125,-0.195,0.962,0.32,0.305,0.549,0.366,443.81
150352,155609,12773,-0.195,0.96,0.319,0.305,0.549,0.366,443.816
150347,155527,9125,-0.197,0.96,0.319,0.061,0.488,0.366,443.819
150347,155604,12761,-0.194,0.962,0.32,0.061,0.488,0.366,443.826
150369,155527,9125,-0.192,0.962,0.315,0.061,0.427,0.305,443.829
150369,155620,12767,-0.189,0.961,0.313,0.061,0.427,0.305,443.836
150363,155527,9125,-0.189,0.958,0.313,0.061,0.549,0.366,443.839
150363,155611,12784,-0.188,0.961,0.316,0.061,0.549,0.366,443.845
150381,155527,9125,-0.188,0.962,0.319,0.427,0.549,0.427,443.849
150381,155632,12765,-0.19,0.963,0.317,0.427,0.549,0.427,443.855
150378,155527,9125,-0.19,0.962,0.31,0.488,0.61,0.305,443.859
150378,155642,12777,-0.193,0.963,0.312,0.488,0.61,0.305,443.865
150368,155527,9125,-0.193,0.965,0.315,0.183,0.427,0.183,443.869
150368,155637,12767,-0.194,0.961,0.316,0.183,0.427,0.183,443.875
150365,155527,9125,-0.195,0.959,0.314,-0.183,0.305,0.366,443.879
150365,155629,12776,-0.192,0.963,0.318,-0.183,0.305,0.366,443.885
150383,155527,9125,-0.189,0.962,0.319,-0.366,0.244,0.549,443.889
150383,155642,12763,-0.191,0.963,0.317,-0.366,0.244,0.549,443.895
150380,155527,9125,-0.193,0.958,0.316,-0.183,0.366,0.427,443.899
150380,155616,12757,-0.195,0.959,0.313,-0.183,0.366,0.427,443.905
150375,155527,9125,-0.195,0.959,0.313,-0.183,0.366,0.427,443.909
150375,155644,12767,-0.193,0.962,0.318,0.122,0.549,0.427,443.915
150376,155527,9125,-0.193,0.962,0.318,0.122,0.549,0.427,443.918
150376,155613,12771,-0.191,0.96,0.321,0.183,0.427,0.61,443.925
150377,155527,9125,-0.191,0.96,0.321,0.183,0.427,0.61,443.928
150377,155634,12754,-0.192,0.967,0.32,0.183,0.549,0.61,443.935
150404,155527,9125,-0.192,0.967,0.32,0.183,0.549,0.61,443.938
150404,155643,12773,-0.194,0.968,0.315,0.183,0.732,0.488,443.944
150382,155527,9125,-0.194,0.968,0.315,0.183,0.732,0.488,443.948
150382,155633,12776,-0.194,0.964,0.318,-0.244,0.671,0.366,443.954
150404,155527,9125,-0.194,0.964,0.318,-0.244,0.671,0.366,443.958
150404,155637,12757,-0.195,0.957,0.319,-0.549,0.549,0.366,443.964
150400,155527,9125,-0.195,0.957,0.319,-0.549,0.549,0.366,443.968
150400,155641,12778,-0.192,0.961,0.313,-0.183,0.732,0.366,443.974
150398,155783,9125,-0.192,0.961,0.313,-0.183,0.732,0.366,443.978
150398,155649,12760,-0.193,0.957,0.314,0.244,0.732,0.244,443.984
150392,155783,9125,-0.193,0.957,0.314,0.244,0.732,0.244,443.988
150392,155661,12778,-0.191,0.961,0.314,0.183,0.61,0.244,443.994
150403,155527,9125,-0.191,0.961,0.314,0.183,0.61,0.244,443.998
150403,155644,12772,-0.192,0.961,0.314,0,0.488,0.427,444.004
150420,155527,9125,-0.192,0.961,0.314,0,0.488,0.427,444.008
150420,155637,12779,-0.191,0.967,0.318,0,0.488,0.488,444.014
150406,155783,9125,-0.191,0.967,0.318,0,0.488,0.488,444.017
150406,155660,12763,-0.192,0.962,0.314,0.122,0.61,0.427,444.024
150389,155527,9125,-0.192,0.962,0.314,0.122,0.61,0.427,444.027
150389,155622,12777,-0.194,0.965,0.314,0.244,0.671,0.305,444.034
150389,155527,9125,-0.194,0.965,0.314,0.244,0.671,0.305,444.037
150389,155644,12762,-0.195,0.964,0.316,-0.183,0.671,0.244,444.043
150402,155783,9125,-0.195,0.964,0.316,-0.183,0.671,0.244,444.047
150402,155664,12773,-0.194,0.962,0.318,-0.427,0.549,0.244,444.053
150391,155783,9125,-0.196,0.964,0.314,-0.427,0.549,0.244,444.057
150391,155661,12782,-0.195,0.964,0.313,-0.671,0.488,0.366,444.063
150379,155527,9125,-0.195,0.959,0.316,-0.671,0.488,0.366,444.067
150379,155638,12776,-0.195,0.953,0.314,-0.549,0.427,0.366,444.073
150384,155527,9125,-0.193,0.959,0.32,-0.549,0.427,0.366,444.077
150384,155640,12751,-0.192,0.959,0.319,-0.183,0.427,0.427,444.083
150367,155783,9125,-0.193,0.963,0.316,-0.183,0.427,0.427,444.087
150367,155665,12761,-0.193,0.965,0.311,0,0.549,0.427,444.093
150387,155527,9125,-0.193,0.963,0.313,0,0.549,0.427,444.097
150387,155640,12763,-0.19,0.961,0.314,0,0.427,0.366,444.103
150383,155783,9125,-0.193,0.962,0.314,0,0.427,0.366,444.107
150383,155659,12763,-0.194,0.964,0.316,-0.488,0.305,0.488,444.113
150382,155527,9125,-0.195,0.964,0.317,-0.488,0.305,0.488,444.116
150382,155646,12768,-0.194,0.959,0.315,-0.549,0.183,0.427,444.123
150379,155783,9125,-0.191,0.961,0.31,-0.549,0.183,0.427,444.126
150379,155649,12777,-0.193,0.964,0.313,-0.366,0,0.427,444.133
150411,155783,9125,-0.191,0.965,0.32,-0.366,0,0.427,444.136
150411,155664,12757,-0.193,0.96,0.321,-0.366,0.305,0.427,444.142
150377,155783,9125,-0.194,0.959,0.312,-0.366,0.305,0.427,444.146
150377,155655,12772,-0.197,0.962,0.312,-0.549,0.244,0.427,444.152
150410,155783,9125,-0.193,0.96,0.311,-0.549,0.244,0.427,444.156
150410,155671,12762,-0.191,0.959,0.314,-0.549,0,0.488,444.162
150386,155783,9125,-0.193,0.962,0.313,-0.549,0,0.488,444.166
150386,155655,12777,-0.194,0.966,0.313,-0.549,0.244,0.549,444.172
150391,155783,9125,-0.193,0.964,0.314,-0.549,0.244,0.549,444.176
150391,155681,12776,-0.192,0.964,0.314,-0.671,0.366,0.305,444.182
150412,155527,9125,-0.188,0.968,0.312,-0.671,0.366,0.305,444.186
150412,155633,12767,-0.191,0.965,0.311,-0.915,-0.122,0.244,444.192
150401,155783,9125,-0.193,0.962,0.317,-0.915,-0.122,0.244,444.196
150401,155664,12779,-0.192,0.962,0.317,-0.976,-0.183,0.183,444.202
150387,155783,9125,-0.192,0.959,0.315,-0.976,-0.183,0.183,444.206
150387,155664,12780,-0.194,0.96,0.316,-1.098,-0.122,0,444.212
150395,155783,9125,-0.192,0.959,0.318,-1.098,-0.122,0,444.215
150395,155649,12780,-0.191,0.961,0.319,-0.854,-0.183,0.122,444.222
150387,155783,9125,-0.194,0.96,0.319,-0.854,-0.183,0.122,444.225
150387,155663,12776,-0.19,0.963,0.318,-0.488,-0.122,0.244,444.232
150392,155783,9125,-0.19,0.964,0.32,-0.488,-0.122,0.244,444.235
150392,155648,12769,-0.193,0.961,0.318,-0.183,-0.061,0.244,444.241
150392,155783,9125,-0.195,0.962,0.322,-0.183,-0.061,0.244,444.245
150392,155681,12777,-0.197,0.961,0.322,-0.244,0,0.244,444.251
150403,155783,9125,-0.2,0.96,0.319,-0.244,0,0.244,444.255
150403,155670,12773,-0.196,0.958,0.32,-0.732,0.183,0.488,444.261
150420,155783,9125,-0.197,0.958,0.321,-0.732,0.183,0.488,444.265
150420,155684,12764,-0.192,0.961,0.321,-0.976,0.366,0.61,444.271
150404,155783,9125,-0.191,0.964,0.324,-0.976,0.366,0.61,444.275
150404,155675,12792,-0.189,0.962,0.322,-0.671,0.488,0.549,444.281
150407,155783,9125,-0.189,0.96,0.326,-0.671,0.488,0.549,444.285
150407,155704,12780,-0.19,0.964,0.323,-0.183,0.671,0.488,444.291
150411,155783,9125,-0.192,0.964,0.32,-0.183,0.671,0.488,444.295
150411,155697,12777,-0.193,0.959,0.312,0.061,0.854,0.244,444.301
150416,155783,9125,-0.193,0.957,0.311,0.061,0.854,0.244,444.305
150416,155707,12793,-0.191,0.957,0.309,0.122,0.732,0.122,444.311
150421,155783,9125,-0.193,0.953,0.31,0.122,0.732,0.122,444.314
150421,155700,12779,-0.19,0.959,0.31,0.061,0.366,0.305,444.321
150409,155783,9125,-0.188,0.965,0.313,0.061,0.366,0.305,444.324
150409,155691,12793,-0.19,0.968,0.319,-0.427,0.305,0.366,444.331
150420,155783,9125,-0.19,0.966,0.32,-0.427,0.305,0.366,444.334
150420,155686,12792,-0.189,0.968,0.315,-0.854,0.427,0.427,444.34
150398,155783,9125,-0.189,0.966,0.316,-0.854,0.427,0.427,444.344
150398,155685,12788,-0.19,0.96,0.318,-1.28,0.366,0.427,444.35
150407,155783,9125,-0.192,0.961,0.312,-1.28,0.366,0.427,444.354
150407,155676,12770,-0.193,0.955,0.317,-1.098,0.183,0.366,444.36
150397,155783,9125,-0.195,0.955,0.314,-1.098,0.183,0.366,444.364
150397,155700,12802,-0.2,0.963,0.311,-0.244,0.427,0.244,444.37
150418,155783,9125,-0.198,0.962,0.319,-0.244,0.427,0.244,444.374
150418,155689,12785,-0.198,0.963,0.322,0.244,0.488,0.061,444.38
150395,155783,9125,-0.199,0.963,0.319,0.244,0.488,0.061,444.384
150395,155689,12801,-0.195,0.963,0.313,0,0.183,0.122,444.39
150401,155783,9125,-0.192,0.966,0.319,0,0.183,0.122,444.394
150401,155697,12790,-0.195,0.961,0.319,-0.549,0.122,0.366,444.4
150421,155783,9125,-0.194,0.958,0.314,-0.549,0.122,0.366,444.404
150421,155704,12791,-0.193,0.957,0.312,-0.976,0.122,0.549,444.41
150392,155783,9125,-0.196,0.956,0.312,-0.976,0.122,0.549,444.413
150392,155708,12790,-0.196,0.96,0.318,-0.793,0.061,0.549,444.42
150415,155783,9125,-0.196,0.963,0.319,-0.793,0.061,0.549,444.423
150415,155716,12807,-0.192,0.967,0.318,-0.122,0.122,0.427,444.43
150434,155783,9125,-0.192,0.968,0.319,-0.122,0.122,0.427,444.433
150434,155711,12792,-0.188,0.967,0.32,0,0.305,0.427,444.439
150416,155783,9125,-0.187,0.967,0.314,0,0.305,0.427,444.443
150416,155717,12808,-0.189,0.964,0.313,-0.793,0.183,0.488,444.449
150423,155783,9125,-0.188,0.964,0.316,-0.793,0.183,0.488,444.453
150423,155737,12799,-0.184,0.967,0.316,-1.22,0,0.305,444.459
150414,155783,9125,-0.187,0.964,0.313,-1.22,0,0.305,444.463
150414,155703,12798,-0.189,0.96,0.314,-0.793,0.061,0.305,444.469
150435,155783,9125,-0.192,0.958,0.316,-0.793,0.061,0.305,444.473
150435,155728,12794,-0.192,0.957,0.314,-0.305,0.183,0.244,444.479
150430,155783,9125,-0.196,0.957,0.311,-0.305,0.183,0.244,444.483
150430,155698,12812,-0.195,0.959,0.318,-0.122,0.122,0.183,444.489
150420,155783,9125,-0.195,0.961,0.32,-0.122,0.122,0.183,444.493
150420,155715,12803,-0.196,0.959,0.315,-0.366,-0.122,0.366,444.499
150400,155783,9125,-0.196,0.959,0.315,-0.366,-0.122,0.366,444.503
150400,155725,12802,-0.201,0.959,0.323,-0.61,0.061,0.61,444.509
150434,155783,9125,-0.201,0.959,0.323,-0.61,0.061,0.61,444.512
150434,155702,12813,-0.198,0.962,0.323,-0.854,0.122,0.366,444.519
150406,155783,9125,-0.198,0.962,0.323,-0.854,0.122,0.366,444.522
150406,155702,12804,-0.194,0.965,0.327,-0.549,0.122,0.427,444.529
150425,155783,9125,-0.194,0.965,0.327,-0.549,0.122,0.427,444.532
150425,155715,12808,-0.193,0.954,0.323,-0.244,0.488,0.488,444.538
150405,155783,9125,-0.193,0.954,0.323,-0.244,0.488,0.488,444.542
150405,155711,12811,-0.192,0.961,0.325,-0.061,0.549,0.305,444.548
150402,155783,9125,-0.192,0.961,0.325,-0.061,0.549,0.305,444.552
150402,155702,12798,-0.188,0.962,0.316,0.183,0.488,0.305,444.558
150406,155783,9125,-0.188,0.962,0.316,0.183,0.488,0.305,444.562
150406,155704,12797,-0.189,0.964,0.315,-0.122,0.61,0.305,444.568
150388,155783,9125,-0.189,0.964,0.315,-0.122,0.61,0.305,444.572
150388,155711,12809,-0.188,0.958,0.314,-0.854,0.305,0.244,444.578
150417,155783,9125,-0.188,0.958,0.314,-0.854,0.305,0.244,444.582
150417,155698,12808,-0.19,0.962,0.314,-1.098,-0.061,0.305,444.588
150409,155783,9125,-0.19,0.962,0.314,-1.098,-0.061,0.305,444.592
150409,155714,12826,-0.192,0.959,0.317,-0.732,0.061,0.427,444.598
150385,155783,9125,-0.192,0.959,0.317,-0.732,0.061,0.427,444.602
150385,155698,12796,-0.195,0.964,0.322,-0.366,0.122,0.366,444.608
150365,155783,9125,-0.195,0.964,0.322,-0.366,0.122,0.366,444.611
150365,155700,12814,-0.192,0.967,0.318,-0.122,0.183,0.427,444.618
150377,155783,9125,-0.192,0.967,0.318,-0.122,0.183,0.427,444.621
150377,155713,12811,-0.196,0.964,0.317,-0.305,0.305,0.366,444.628
150355,155783,9125,-0.196,0.964,0.317,-0.305,0.305,0.366,444.631
150355,155705,12815,-0.198,0.959,0.317,-0.671,0.183,0.366,444.637
150351,155783,9125,-0.198,0.959,0.317,-0.671,0.183,0.366,444.641
150351,155702,12815,-0.196,0.963,0.315,-0.671,0.183,0.366,444.647
150343,155783,9125,-0.193,0.96,0.319,-0.427,0.183,0.305,444.651
150343,155683,12800,-0.193,0.957,0.315,-0.427,0.183,0.305,444.657
150335,155783,9125,-0.196,0.961,0.317,0.305,0.366,0.305,444.661
150335,155700,12796,-0.193,0.961,0.322,0.305,0.366,0.305,444.667
150342,155783,9125,-0.197,0.959,0.319,-0.122,0.427,0.488,444.671
150342,155715,12809,-0.193,0.955,0.314,-0.122,0.427,0.488,444.677
150344,155783,9125,-0.197,0.959,0.315,-0.488,0.305,0.427,444.681
150344,155700,12801,-0.195,0.962,0.316,-0.488,0.305,0.427,444.687
150337,155783,9125,-0.193,0.956,0.321,-0.427,0.305,0.549,444.691
150337,155693,12820,-0.193,0.957,0.32,-0.427,0.305,0.549,444.697
150355,155783,9125,-0.193,0.961,0.321,-0.122,0.427,0.488,444.701
150355,155700,12813,-0.192,0.962,0.323,-0.122,0.427,0.488,444.707
150343,155783,9125,-0.189,0.961,0.318,-0.244,0.305,0.244,444.71
150343,155700,12805,-0.191,0.962,0.319,-0.244,0.305,0.244,444.717
150353,155783,9125,-0.19,0.959,0.321,-0.427,0,0.183,444.72
150353,155721,12814,-0.192,0.961,0.324,-0.427,0,0.183,444.727
150359,155783,9125,-0.191,0.964,0.325,-0.549,-0.122,0.244,444.73
150359,155689,12813,-0.19,0.959,0.326,-0.549,-0.122,0.244,444.736
150353,155783,9125,-0.192,0.963,0.324,-0.549,0.061,0.244,444.74
150353,155699,12815,-0.191,0.965,0.321,-0.549,0.061,0.244,444.746
150328,155783,9125,-0.193,0.96,0.32,-0.854,0.244,0.244,444.75
150328,155671,12816,-0.19,0.96,0.318,-0.854,0.244,0.244,444.756
150351,155783,9125,-0.188,0.963,0.324,-0.671,0.183,0.244,444.76
150351,155684,12809,-0.19,0.959,0.322,-0.671,0.183,0.244,444.766
150320,155783,9125,-0.194,0.958,0.317,-0.183,0.488,0.427,444.77
150320,155662,12811,-0.197,0.958,0.317,-0.183,0.488,0.427,444.776
150328,155783,9125,-0.194,0.963,0.316,0.122,0.732,0.488,444.78
150328,155654,12809,-0.192,0.964,0.319,0.122,0.732,0.488,444.786
150334,155527,9125,-0.193,0.963,0.32,0.122,0.915,0.427,444.79
150334,155646,12795,-0.196,0.964,0.316,0.122,0.915,0.427,444.796
150340,155527,9125,-0.196,0.959,0.311,0.061,0.732,0.427,444.8
150340,155615,12805,-0.195,0.963,0.315,0.061,0.732,0.427,444.806
150295,155527,9125,-0.194,0.965,0.314,-0.305,0.488,0.427,444.809
150295,155589,12789,-0.194,0.962,0.321,-0.305,0.488,0.427,444.816
150301,155527,9125,-0.196,0.962,0.319,-0.305,0.427,0.427,444.819
150301,155603,12783,-0.197,0.96,0.32,-0.305,0.427,0.427,444.826
150298,155527,9125,-0.192,0.961,0.32,-0.183,0.366,0.305,444.829
150298,155619,12791,-0.193,0.962,0.32,-0.183,0.366,0.305,444.835
150311,155527,9125,-0.194,0.963,0.321,-0.488,0.244,0.244,444.839
150311,155626,12786,-0.192,0.962,0.32,-0.488,0.244,0.244,444.845
150297,155527,9125,-0.191,0.96,0.325,-0.671,0.122,0.305,444.849
150297,155609,12769,-0.191,0.958,0.322,-0.671,0.122,0.305,444.855
150318,155527,9125,-0.189,0.961,0.317,-0.549,0.244,0.305,444.859
150318,155632,12783,-0.191,0.961,0.319,-0.549,0.244,0.305,444.865
150292,155527,9125,-0.19,0.956,0.322,-0.427,0.488,0.244,444.869
150292,155617,12786,-0.189,0.954,0.317,-0.427,0.488,0.244,444.875
150323,155527,9125,-0.19,0.957,0.317,-0.244,0.366,0.305,444.879
150323,155609,12772,-0.191,0.962,0.321,-0.244,0.366,0.305,444.885
150303,155527,9125,-0.192,0.966,0.317,-0.427,0.305,0.488,444.889
150303,155606,12775,-0.189,0.963,0.313,-0.427,0.305,0.488,444.895
150314,155527,9125,-0.191,0.962,0.318,-0.366,0.122,0.244,444.899
150314,155629,12786,-0.193,0.959,0.316,-0.366,0.122,0.244,444.905
150315,155527,9125,-0.193,0.965,0.314,-0.732,-0.183,0.305,444.908
150315,155623,12787,-0.191,0.965,0.316,-0.732,-0.183,0.305,444.915
150308,155527,9125,-0.192,0.959,0.316,-0.976,-0.122,0.366,444.918
150308,155614,12784,-0.191,0.961,0.315,-0.976,-0.122,0.366,444.925
150319,155527,9125,-0.188,0.964,0.32,-0.488,0.061,0.244,444.928
150319,155620,12792,-0.191,0.966,0.325,-0.488,0.061,0.244,444.934
150352,155527,9125,-0.19,0.963,0.325,-0.305,0.305,0.305,444.938
150352,155622,12781,-0.192,0.961,0.322,-0.305,0.305,0.305,444.944
150340,155527,9125,-0.193,0.958,0.325,-0.061,0.366,0.366,444.948
150340,155627,12779,-0.196,0.96,0.322,-0.061,0.366,0.366,444.954
150343,155527,9125,-0.194,0.96,0.325,-0.122,0.488,0.305,444.958
150343,155619,12768,-0.192,0.962,0.326,-0.122,0.488,0.305,444.964
150320,155527,9125,-0.193,0.958,0.327,-0.122,0.671,0.305,444.968
150320,155628,12781,-0.193,0.957,0.321,-0.122,0.671,0.305,444.974
150322,155527,9125,-0.19,0.956,0.319,-0.061,0.732,0.427,444.978
150322,155594,12776,-0.191,0.96,0.318,-0.061,0.732,0.427,444.984
150361,155783,9125,-0.194,0.962,0.318,-0.061,0.671,0.366,444.988
150361,155651,12792,-0.195,0.962,0.323,-0.061,0.671,0.366,444.994
150343,155527,9125,-0.195,0.957,0.318,0,0.671,0.366,444.998
150343,155620,12768,-0.192,0.962,0.316,0,0.671,0.366,445.004
150351,155527,9125,-0.192,0.963,0.318,-0.122,0.488,0.305,445.007
150351,155635,12783,-0.193,0.967,0.323,-0.122,0.488,0.305,445.014
150339,155783,9125,-0.193,0.971,0.319,-0.427,0.488,0.366,445.017
150339,155648,12802,-0.193,0.964,0.318,-0.427,0.488,0.366,445.024
150348,155783,9125,-0.194,0.961,0.315,-0.793,0.366,0.183,445.027
150348,155662,12789,-0.191,0.959,0.321,-0.793,0.366,0.183,445.033
150349,155527,9125,-0.191,0.958,0.32,-0.732,0.061,0.244,445.037
150349,155615,12788,-0.194,0.956,0.318,-0.732,0.061,0.244,445.043
150325,155527,9125,-0.196,0.957,0.316,-0.244,0.183,0.366,445.047
150325,155641,12788,-0.194,0.96,0.322,-0.244,0.183,0.366,445.053
150344,155783,9125,-0.191,0.96,0.325,0.183,0.61,0.366,445.057
150344,155652,12785,-0.19,0.964,0.322,0.183,0.61,0.366,445.063
150335,155783,9125,-0.191,0.964,0.318,0.305,0.671,0.305,445.067
150335,155648,12803,-0.192,0.962,0.318,0.305,0.671,0.305,445.073
150363,155783,9125,-0.191,0.966,0.32,-0.183,0.366,0.366,445.077
150363,155662,12779,-0.19,0.964,0.318,-0.183,0.366,0.366,445.083
150348,155783,9125,-0.19,0.964,0.318,-0.183,0.366,0.366,445.087
150348,155655,12786,-0.193,0.957,0.316,-0.61,0.183,0.305,445.093
150332,155783,9125,-0.193,0.957,0.316,-0.61,0.183,0.305,445.097
150332,155654,12792,-0.194,0.96,0.32,-0.549,0.183,0.244,445.103
150329,155783,9125,-0.194,0.96,0.32,-0.549,0.183,0.244,445.106
150329,155654,12786,-0.192,0.961,0.318,-0.305,0.305,0.305,445.113
150310,155527,9125,-0.192,0.961,0.318,-0.305,0.305,0.305,445.116
150310,155627,12782,-0.191,0.962,0.32,0.305,0.488,0.305,445.123
150317,155783,9125,-0.191,0.962,0.32,0.305,0.488,0.305,445.126
150317,155650,12789,-0.196,0.958,0.329,0.183,0.549,0.244,445.132
150308,155783,9125,-0.196,0.958,0.329,0.183,0.549,0.244,445.136
150308,155650,12783,-0.193,0.957,0.321,-0.244,0.549,0.305,445.142
150318,155527,9125,-0.193,0.957,0.321,-0.244,0.549,0.305,445.146
150318,155633,12768,-0.19,0.957,0.321,-0.671,0.305,0.366,445.152
150317,155527,9125,-0.19,0.957,0.321,-0.671,0.305,0.366,445.156
150317,155608,12788,-0.191,0.959,0.321,-0.305,0.244,0.427,445.162
150339,155527,9125,-0.191,0.959,0.321,-0.305,0.244,0.427,445.166
150339,155619,12779,-0.195,0.964,0.32,-0.244,0.549,0.549,445.172
150327,155527,9125,-0.195,0.964,0.32,-0.244,0.549,0.549,445.176
150327,155638,12786,-0.193,0.959,0.319,-0.427,0.488,0.427,445.182
150338,155527,9125,-0.193,0.959,0.319,-0.427,0.488,0.427,445.186
150338,155642,12771,-0.194,0.961,0.319,-0.366,0.122,0.305,445.192
150318,155783,9125,-0.194,0.961,0.319,-0.366,0.122,0.305,445.196
150318,155656,12777,-0.19,0.961,0.325,-0.244,0.305,0.549,445.202
150316,155527,9125,-0.19,0.961,0.325,-0.244,0.305,0.549,445.206
150316,155644,12786,-0.194,0.963,0.321,-0.122,0.427,0.244,445.212
150316,155527,9125,-0.194,0.963,0.321,-0.122,0.427,0.244,445.215
150316,155642,12795,-0.193,0.96,0.323,-0.305,0.366,0.183,445.222
150325,155527,9125,-0.193,0.96,0.323,-0.305,0.366,0.183,445.225
150325,155630,12783,-0.191,0.959,0.321,-0.61,0.183,0.366,445.231
150328,155527,9125,-0.191,0.959,0.321,-0.61,0.183,0.366,445.235
150328,155637,12770,-0.188,0.955,0.316,-0.549,0.183,0.305,445.241
150328,155527,9125,-0.193,0.959,0.316,-0.549,0.183,0.305,445.245
150328,155619,12800,-0.195,0.96,0.322,-0.122,0.305,0.305,445.251
150336,155527,9125,-0.193,0.959,0.32,-0.122,0.305,0.305,445.255
150336,155637,12775,-0.196,0.96,0.318,-0.061,0.427,0.366,445.261
150307,155783,9125,-0.195,0.962,0.318,-0.061,0.427,0.366,445.265
150307,155652,12799,-0.191,0.96,0.323,-0.122,0.427,0.366,445.271
150342,155527,9125,-0.191,0.959,0.323,-0.122,0.427,0.366,445.275
150342,155640,12787,-0.192,0.963,0.316,-0.305,0.366,0.366,445.281
150318,155783,9125,-0.192,0.965,0.32,-0.305,0.366,0.366,445.285
150318,155656,12800,-0.191,0.963,0.324,-0.488,0.244,0.305,445.291
150307,155527,9125,-0.191,0.958,0.318,-0.488,0.244,0.305,445.295
150307,155647,12796,-0.192,0.958,0.314,-0.305,0.244,0.305,445.301
150328,155783,9125,-0.194,0.964,0.318,-0.305,0.244,0.305,445.304
150328,155655,12794,-0.193,0.962,0.32,-0.183,0.549,0.305,445.311
150315,155527,9125,-0.192,0.958,0.318,-0.183,0.549,0.305,445.314
