150791,155783,9125,-0.23,1.001,-0.016,-0.244,0.366,0.366,146.58
150791,155700,13164,-0.229,0.998,-0.012,-0.366,0.244,0.488,146.587
150786,155783,9125,-0.229,1,-0.016,-0.366,0.244,0.488,146.59
150786,155717,13164,-0.231,1.003,-0.016,-0.488,0.183,0.305,146.596
150762,155783,9125,-0.229,1,-0.021,-0.488,0.183,0.305,146.6
150762,155710,13175,-0.231,1.004,-0.019,-0.427,0.427,0.366,146.606
150774,155783,9125,-0.231,1.002,-0.018,-0.427,0.427,0.366,146.61
150774,155703,13169,-0.226,0.999,-0.029,-0.366,0.488,0.488,146.616
150756,155783,9125,-0.226,0.999,-0.029,-0.366,0.488,0.488,146.62
150756,155706,13189,-0.224,1.008,-0.022,-0.122,0.671,0.61,146.626
150780,155783,9125,-0.224,1.008,-0.022,-0.122,0.671,0.61,146.63
150780,155699,13167,-0.229,1.008,-0.023,0.488,0.793,0.427,146.636
150756,155783,9125,-0.229,1.008,-0.023,0.488,0.793,0.427,146.64
150756,155687,13168,-0.227,1.01,-0.02,0.793,0.854,-0.061,146.646
150766,155783,9125,-0.227,1.01,-0.02,0.793,0.854,-0.061,146.65
150766,155679,13176,-0.227,1.001,-0.028,0.976,0.671,-0.183,146.656
150763,155783,9125,-0.227,1.001,-0.028,0.976,0.671,-0.183,146.66
150763,155707,13162,-0.227,0.995,-0.027,0.671,0.671,-0.122,146.666
150777,155783,9125,-0.227,0.995,-0.027,0.671,0.671,-0.122,146.669
150777,155667,13170,-0.23,0.994,-0.026,0.549,0.549,0.183,146.676
150782,155783,9125,-0.23,0.994,-0.026,0.549,0.549,0.183,146.679
150782,155653,13149,-0.226,0.997,-0.018,0.488,0.244,0.427,146.686
150756,155527,9125,-0.226,0.997,-0.018,0.488,0.244,0.427,146.689
150756,155620,13145,-0.229,1.001,-0.023,-0.061,0.366,0.61,146.695
150749,155783,9125,-0.229,1.001,-0.023,-0.061,0.366,0.61,146.699
150749,155653,13146,-0.231,1.005,-0.024,-0.488,0.366,0.671,146.705
150775,155783,9125,-0.231,1.005,-0.024,-0.488,0.366,0.671,146.709
150775,155651,13148,-0.227,1.005,-0.02,-0.61,0.183,0.488,146.715
150754,155527,9125,-0.227,1.005,-0.02,-0.61,0.183,0.488,146.719
150754,155642,13139,-0.231,1.001,-0.029,-0.488,0.122,0.305,146.725
150765,155783,9125,-0.231,1.001,-0.029,-0.488,0.122,0.305,146.729
150765,155648,13139,-0.23,1.005,-0.018,-0.244,0.183,0.244,146.735
150782,155527,9125,-0.23,1.005,-0.018,-0.244,0.183,0.244,146.739
150782,155642,13148,-0.229,1.008,-0.022,0.244,0.305,0.427,146.745
150773,155783,9125,-0.229,1.008,-0.022,0.244,0.305,0.427,146.749
150773,155660,13142,-0.224,0.999,-0.019,0.427,0.305,0.183,146.755
150748,155527,9125,-0.224,0.999,-0.019,0.427,0.305,0.183,146.759
150748,155642,13155,-0.226,1.004,-0.028,0.427,0.305,0.183,146.765
150763,155783,9125,-0.224,1.007,-0.031,0.122,0.305,0.183,146.768
150763,155663,13141,-0.223,1.005,-0.022,0.122,0.305,0.183,146.775
150791,155527,9125,-0.224,1.002,-0.013,-0.244,0.183,0.427,146.778
150791,155633,13151,-0.221,1.003,-0.02,-0.244,0.183,0.427,146.785
150763,155527,9125,-0.219,1.003,-0.028,-0.305,0.183,0.244,146.788
150763,155647,13142,-0.224,1.002,-0.025,-0.305,0.183,0.244,146.794
150779,155527,9125,-0.228,1,-0.024,-0.488,0.366,0.183,146.798
150779,155647,13139,-0.228,0.999,-0.021,-0.488,0.366,0.183,146.804
150740,155527,9125,-0.227,1.001,-0.027,-0.427,0.366,0.488,146.808
150740,155640,13122,-0.224,1.001,-0.028,-0.427,0.366,0.488,146.814
150772,155783,9125,-0.222,1.004,-0.026,0.061,0.183,0.549,146.818
150772,155654,13140,-0.225,1.005,-0.019,0.061,0.183,0.549,146.824
150752,155783,9125,-0.224,1.01,-0.018,-0.061,0.244,0.488,146.828
150752,155655,13135,-0.225,1.01,-0.017,-0.061,0.244,0.488,146.834
150775,155783,9125,-0.223,1.008,-0.018,-0.244,0.244,0.305,146.838
150775,155662,13141,-0.225,1,-0.022,-0.244,0.244,0.305,146.844
150761,155527,9125,-0.224,0.999,-0.025,-0.305,0.305,0,146.848
150761,155633,13138,-0.223,1.001,-0.024,-0.305,0.305,0,146.854
150775,155783,9125,-0.225,0.996,-0.019,-0.549,0.488,0.122,146.858
150775,155661,13130,-0.227,0.998,-0.021,-0.549,0.488,0.122,146.864
150761,155783,9125,-0.227,1.002,-0.024,-0.061,0.671,0.366,146.867
150761,155652,13119,-0.226,1.005,-0.026,-0.061,0.671,0.366,146.874
150760,155527,9125,-0.225,1.004,-0.023,0.244,0.61,0.366,146.877
150760,155642,13138,-0.226,1.006,-0.022,0.244,0.61,0.366,146.884
150785,155783,9125,-0.23,1.008,-0.02,-0.061,0.732,0.427,146.887
150785,155652,13132,-0.229,1.001,-0.019,-0.061,0.732,0.427,146.893
150759,155527,9125,-0.228,1.001,-0.022,-0.732,0.427,0.305,146.897
150759,155647,13126,-0.224,0.999,-0.025,-0.732,0.427,0.305,146.903
150747,155783,9125,-0.227,1,-0.025,-0.671,0.488,0.244,146.907
150747,155658,13131,-0.227,1,-0.017,-0.671,0.488,0.244,146.913
150789,155783,9125,-0.227,1.002,-0.021,-0.061,0.854,0.488,146.917
150789,155675,13129,-0.227,1.003,-0.027,-0.061,0.854,0.488,146.923
150769,155783,9125,-0.229,1.002,-0.031,-0.061,0.793,0.427,146.927
150769,155648,13134,-0.228,1.004,-0.03,-0.061,0.793,0.427,146.933
150791,155783,9125,-0.223,1.003,-0.024,-0.488,0.366,0.366,146.937
150791,155657,13139,-0.229,0.998,-0.023,-0.488,0.366,0.366,146.943
150805,155783,9125,-0.231,1,-0.022,-0.671,0.244,0.549,146.947
150805,155662,13134,-0.227,1.003,-0.021,-0.671,0.244,0.549,146.953
150792,155783,9125,-0.229,1.001,-0.026,-0.305,0.183,0.366,146.957
150792,155659,13137,-0.226,1.004,-0.031,-0.305,0.183,0.366,146.963
150778,155783,9125,-0.227,1.003,-0.028,-0.244,0.305,0.244,146.966
150778,155661,13132,-0.232,0.997,-0.022,-0.244,0.305,0.244,146.973
150777,155783,9125,-0.231,0.998,-0.02,-0.61,0.366,0.488,146.976
150777,155668,13131,-0.229,1.001,-0.027,-0.61,0.366,0.488,146.983
150795,155783,9125,-0.228,1.002,-0.025,-0.549,0.122,0.488,146.986
150795,155665,13133,-0.227,1.003,-0.023,-0.549,0.122,0.488,146.992
150783,155783,9125,-0.229,1.001,-0.019,-0.244,0.183,0.488,146.996
150783,155662,13144,-0.229,0.997,-0.022,-0.244,0.183,0.488,147.002
150780,155527,9125,-0.23,1,-0.025,-0.061,0.305,0.549,147.006
150780,155645,13133,-0.228,1.002,-0.024,-0.061,0.305,0.549,147.012
150786,155783,9125,-0.228,0.998,-0.021,0.183,0.244,0.488,147.016
150786,155658,13136,-0.227,1.003,-0.018,0.183,0.244,0.488,147.022
150788,155783,9125,-0.229,1.007,-0.017,0.732,0.488,0.427,147.026
150788,155665,13142,-0.229,1.009,-0.024,0.732,0.488,0.427,147.032
150776,155783,9125,-0.231,1.002,-0.023,0.244,0.549,0.183,147.036
150776,155675,13122,-0.228,0.996,-0.022,0.244,0.549,0.183,147.042
150789,155783,9125,-0.228,1,-0.021,0.183,0.305,0.122,147.046
150789,155681,13141,-0.231,1,-0.019,0.183,0.305,0.122,147.052
150793,155783,9125,-0.23,0.999,-0.022,-0.061,0.427,0.244,147.056
150793,155685,13127,-0.228,0.996,-0.028,-0.061,0.427,0.244,147.062
150793,155783,9125,-0.23,1.003,-0.022,0.244,0.549,0.488,147.065
150793,155691,13129,-0.227,1.005,-0.024,0.244,0.549,0.488,147.072
150812,155783,9125,-0.224,1.005,-0.026,0.366,0.732,0.549,147.075
150812,155659,13130,-0.225,1.005,-0.02,0.366,0.732,0.549,147.082
150795,155783,9125,-0.225,1.005,-0.018,0.366,0.671,0.427,147.085
150795,155680,13137,-0.225,1.005,-0.028,0.366,0.671,0.427,147.091
150799,155783,9125,-0.223,1,-0.029,0.244,0.61,0.366,147.095
150799,155687,13130,-0.225,1.004,-0.028,0.244,0.61,0.366,147.101
150825,155783,9125,-0.227,1.003,-0.023,-0.122,0.488,0.183,147.105
150825,155703,13133,-0.228,1.002,-0.021,-0.122,0.488,0.183,147.111
150795,155783,9125,-0.227,1,-0.024,-0.244,0.427,0.305,147.115
150795,155680,13139,-0.225,0.997,-0.026,-0.244,0.427,0.305,147.121
150822,155783,9125,-0.224,1,-0.025,-0.061,0.366,0.488,147.125
150822,155693,13161,-0.225,1.003,-0.024,-0.061,0.366,0.488,147.131
150828,155783,9125,-0.228,0.999,-0.023,0,0.61,0.61,147.135
150828,155716,13140,-0.225,1,-0.019,0,0.61,0.61,147.141
150840,155783,9125,-0.227,1.004,-0.019,0.244,0.61,0.732,147.145
150840,155703,13132,-0.229,1.006,-0.021,0.244,0.61,0.732,147.151
150843,155783,9125,-0.228,1.01,-0.025,-0.122,0.732,0.671,147.155
150843,155720,13132,-0.229,1.007,-0.026,-0.122,0.732,0.671,147.161
150833,155783,9125,-0.222,1.002,-0.022,-0.305,0.61,0.366,147.164
150833,155728,13137,-0.224,1.001,-0.023,-0.305,0.61,0.366,147.171
150827,155783,9125,-0.227,1.004,-0.018,-0.305,0.488,0.366,147.174
150827,155716,13142,-0.228,1.004,-0.022,-0.305,0.488,0.366,147.181
150823,155783,9125,-0.23,0.999,-0.024,-0.305,0.671,0.183,147.184
150823,155736,13151,-0.228,0.996,-0.028,-0.305,0.671,0.183,147.19
150865,155783,9125,-0.226,1.003,-0.028,0.427,0.732,0.122,147.194
150865,155733,13143,-0.227,1.006,-0.021,0.427,0.732,0.122,147.2
150864,155783,9125,-0.227,1.002,-0.019,0.488,0.671,0.305,147.204
150864,155719,13155,-0.228,1.002,-0.024,0.488,0.671,0.305,147.21
150867,155783,9125,-0.228,1.002,-0.024,0.488,0.671,0.305,147.214
150867,155721,13141,-0.228,1.004,-0.026,0.305,0.671,0.244,147.22
150855,155783,9125,-0.228,1.004,-0.026,0.305,0.671,0.244,147.224
150855,155741,13168,-0.223,1.005,-0.026,0,0.61,0.305,147.23
150859,155783,9125,-0.223,1.005,-0.026,0,0.61,0.305,147.234
150859,155743,13163,-0.224,1.001,-0.024,0.061,0.61,0.549,147.24
150858,155783,9125,-0.224,1.001,-0.024,0.061,0.61,0.549,147.244
150858,155744,13161,-0.224,1.005,-0.026,0.183,0.793,0.488,147.25
150863,155783,9125,-0.224,1.005,-0.026,0.183,0.793,0.488,147.254
150863,155738,13144,-0.228,1.002,-0.021,-0.061,0.915,0.427,147.26
150863,155783,9125,-0.228,1.002,-0.021,-0.061,0.915,0.427,147.263
150863,155734,13138,-0.225,1.002,-0.027,0.122,0.854,0.244,147.27
150859,155783,9125,-0.225,1.002,-0.027,0.122,0.854,0.244,147.273
150859,155753,13154,-0.229,0.998,-0.023,-0.122,0.61,0.061,147.28
150874,155783,9125,-0.229,0.998,-0.023,-0.122,0.61,0.061,147.283
150874,155741,13142,-0.231,0.997,-0.027,-0.183,0.427,0.122,147.289
150856,155783,9125,-0.231,0.997,-0.027,-0.183,0.427,0.122,147.293
150856,155753,13155,-0.225,1.001,-0.029,-0.244,0.366,0.366,147.299
150875,155783,9125,-0.225,1.001,-0.029,-0.244,0.366,0.366,147.303
150875,155748,13153,-0.229,1.005,-0.025,0.061,0.366,0.488,147.309
150864,155783,9125,-0.229,1.005,-0.025,0.061,0.366,0.488,147.313
150864,155761,13160,-0.232,1.003,-0.025,0.061,0.427,0.488,147.319
150856,155783,9125,-0.232,1.003,-0.025,0.061,0.427,0.488,147.323
150856,155756,13162,-0.227,1.005,-0.029,0.244,0.488,0.244,147.329
150860,155783,9125,-0.227,1.005,-0.029,0.244,0.488,0.244,147.333
150860,155762,13149,-0.225,1,-0.028,0.122,0.427,0.183,147.339
150881,155783,9125,-0.225,1,-0.028,0.122,0.427,0.183,147.343
150881,155783,13155,-0.223,1.002,-0.03,-0.122,0.305,0.122,147.349
150877,155783,9125,-0.223,1.002,-0.03,-0.122,0.305,0.122,147.353
150877,155754,13170,-0.225,1.003,-0.026,-0.244,0.427,0.183,147.359
150867,155783,9125,-0.225,1.004,-0.03,-0.244,0.427,0.183,147.362
150867,155778,13158,-0.225,1.002,-0.031,-0.061,0.488,0.244,147.369
150892,155783,9125,-0.221,1.001,-0.028,-0.061,0.488,0.244,147.372
150892,155767,13162,-0.228,1.003,-0.026,0.183,0.488,0.183,147.379
150893,155783,9125,-0.23,1,-0.026,0.183,0.488,0.183,147.382
150893,155767,13168,-0.233,0.999,-0.03,0.061,0.366,0.244,147.388
150879,155783,9125,-0.231,1.002,-0.028,0.061,0.366,0.244,147.392
150879,155795,13159,-0.227,1.001,-0.027,0.488,-0.061,0.183,147.398
150892,155783,9125,-0.227,1.005,-0.022,0.488,-0.061,0.183,147.402
150892,155763,13161,-0.231,1.002,-0.017,0.427,-0.061,0.183,147.408
150892,155783,9125,-0.233,0.999,-0.021,0.427,-0.061,0.183,147.412
150892,155777,13149,-0.232,0.998,-0.021,0,0,0.305,147.418
150859,155783,9125,-0.229,0.997,-0.016,0,0,0.305,147.422
150859,155765,13163,-0.228,1.001,-0.016,-0.366,0.061,0.427,147.428
150879,155783,9125,-0.23,1,-0.014,-0.366,0.061,0.427,147.432
150879,155757,13167,-0.232,1.001,-0.019,-0.427,0.549,0.671,147.438
150888,155783,9125,-0.226,1.008,-0.023,-0.427,0.549,0.671,147.442
150888,155798,13172,-0.226,1.008,-0.025,-0.488,0.793,0.671,147.448
150876,155783,9125,-0.223,1.01,-0.024,-0.488,0.793,0.671,147.452
150876,155768,13172,-0.224,1.006,-0.029,-0.366,0.488,0.427,147.458
150879,155783,9125,-0.224,1.006,-0.031,-0.366,0.488,0.427,147.461
150879,155767,13172,-0.223,1.002,-0.025,-0.427,0.488,0.244,147.468
150875,155783,9125,-0.223,0.999,-0.028,-0.427,0.488,0.244,147.471
150875,155753,13172,-0.222,1.001,-0.028,-0.305,0.366,0.366,147.478
150883,155783,9125,-0.225,1.004,-0.023,-0.305,0.366,0.366,147.481
150883,155773,13180,-0.224,1.005,-0.019,0,0.427,0.427,147.487
150885,155783,9125,-0.223,1.005,-0.024,0,0.427,0.427,147.491
150885,155762,13179,-0.222,1.002,-0.027,-0.366,0.488,0.427,147.497
150907,155783,9125,-0.222,0.997,-0.031,-0.366,0.488,0.427,147.501
150907,155802,13164,-0.221,1.001,-0.035,-0.427,0.183,0.366,147.507
150893,155783,9125,-0.221,1.002,-0.031,-0.427,0.183,0.366,147.511
150893,155796,13180,-0.224,0.998,-0.025,-0.549,0.061,0.366,147.517
150888,155783,9125,-0.226,0.996,-0.026,-0.549,0.061,0.366,147.521
150888,155796,13178,-0.227,1.002,-0.026,0.061,0.061,0.427,147.527
150889,155783,9125,-0.228,1.009,-0.03,0.061,0.061,0.427,147.531
150889,155791,13168,-0.228,1.008,-0.03,0.366,0.244,0.366,147.537
150886,155783,9125,-0.231,1.005,-0.027,0.366,0.244,0.366,147.541
150886,155795,13164,-0.232,1.002,-0.03,0,0.366,0.366,147.547
150888,155783,9125,-0.231,1.007,-0.028,0,0.366,0.366,147.551
150888,155796,13171,-0.227,1.004,-0.026,-0.671,0.061,0.305,147.557
150882,155783,9125,-0.228,0.999,-0.021,-0.671,0.061,0.305,147.56
150882,155809,13155,-0.23,0.998,-0.02,-0.427,-0.061,0.183,147.567
150897,155783,9125,-0.231,0.998,-0.021,-0.427,-0.061,0.183,147.57
150897,155819,13190,-0.23,1.004,-0.02,0.183,0.183,0.183,147.577
150897,155783,9125,-0.229,1.007,-0.017,0.183,0.183,0.183,147.58
150897,155804,13180,-0.226,1.005,-0.011,0.732,0.488,0.244,147.586
150900,155783,9125,-0.23,1.001,-0.011,0.732,0.488,0.244,147.59
150900,155817,13174,-0.232,1,-0.015,0.549,0.854,0.122,147.596
150906,155783,9125,-0.234,1,-0.023,0.549,0.854,0.122,147.6
150906,155802,13173,-0.232,1,-0.028,0.305,0.793,0,147.606
150909,155783,9125,-0.228,1.002,-0.023,0.305,0.793,0,147.61
150909,155797,13179,-0.228,1.004,-0.025,-0.061,0.61,0,147.616
150924,155783,9125,-0.23,1.001,-0.025,-0.061,0.61,0,147.62
150924,155814,13181,-0.231,0.996,-0.029,-0.244,0.61,0.305,147.626
150906,155783,9125,-0.225,0.998,-0.034,-0.244,0.61,0.305,147.63
150906,155809,13179,-0.228,1.005,-0.029,-0.183,0.61,0.366,147.636
150902,155783,9125,-0.224,1.006,-0.028,-0.183,0.61,0.366,147.64
150902,155794,13165,-0.223,1.002,-0.026,-0.061,0.854,0.427,147.646
150907,155783,9125,-0.226,1.002,-0.03,-0.061,0.854,0.427,147.65
150907,155777,13194,-0.226,1.004,-0.032,0.122,0.854,0.427,147.656
150885,155783,9125,-0.222,1.007,-0.033,0.122,0.854,0.427,147.66
150885,155754,13153,-0.223,1.005,-0.034,0.244,0.61,0.305,147.666
150879,155783,9125,-0.228,1.004,-0.026,0.244,0.61,0.305,147.669
150879,155759,13174,-0.229,1.004,-0.024,0.305,0.427,0.305,147.676
150886,155783,9125,-0.23,0.999,-0.029,0.305,0.427,0.305,147.679
150886,155720,13162,-0.229,0.995,-0.032,0,0.244,0.122,147.685
150861,155783,9125,-0.226,1.001,-0.027,0,0.244,0.122,147.689
150861,155730,13164,-0.228,1.003,-0.018,0.122,0,0.305,147.695
150862,155783,9125,-0.231,1.002,-0.017,0.122,0,0.305,147.699
150862,155700,13153,-0.231,1.002,-0.021,0.305,0.305,0.366,147.705
150867,155783,9125,-0.232,1,-0.022,0.305,0.305,0.366,147.709
150867,155711,13152,-0.235,0.998,-0.022,0.183,0.427,0.244,147.715
150847,155783,9125,-0.233,1,-0.021,0.183,0.427,0.244,147.719
150847,155695,13153,-0.231,1,-0.022,0,0.244,0.366,147.725
150880,155783,9125,-0.231,1,-0.018,0,0.244,0.366,147.729
150880,155706,13141,-0.23,1,-0.014,-0.183,0.427,0.427,147.735
150878,155783,9125,-0.233,0.997,-0.02,-0.183,0.427,0.427,147.739
150878,155689,13153,-0.234,1,-0.027,0.061,0.61,0.549,147.745
150871,155783,9125,-0.228,1.004,-0.029,0.061,0.61,0.549,147.749
150871,155709,13154,-0.229,1.007,-0.024,0.244,0.61,0.427,147.755
150848,155783,9125,-0.231,1.002,-0.029,0.244,0.61,0.427,147.759
150848,155690,13162,-0.229,1.001,-0.028,0.183,0.61,0.427,147.765
150867,155783,9125,-0.226,1.002,-0.026,0.183,0.61,0.427,147.768
150867,155712,13144,-0.227,1.005,-0.025,-0.305,0.488,0.549,147.775
150873,155783,9125,-0.227,1.006,-0.029,-0.305,0.488,0.549,147.778
150873,155722,13138,-0.226,1.004,-0.029,-0.244,0.488,0.305,147.784
150857,155783,9125,-0.223,1.003,-0.034,-0.244,0.488,0.305,147.788
150857,155735,13127,-0.222,1.006,-0.034,-0.061,0.549,0.305,147.794
150874,155783,9125,-0.222,1.006,-0.034,-0.061,0.549,0.305,147.798
150874,155729,13142,-0.223,1,-0.028,-0.244,0.427,0.183,147.804
150870,155783,9125,-0.223,1,-0.028,-0.244,0.427,0.183,147.808
150870,155740,13139,-0.225,1.001,-0.033,-0.061,0.122,0.061,147.814
150875,155783,9125,-0.225,1.001,-0.033,-0.061,0.122,0.061,147.818
150875,155714,13140,-0.226,0.998,-0.022,-0.183,0.122,0.305,147.824
150856,155783,9125,-0.226,0.998,-0.022,-0.183,0.122,0.305,147.828
150856,155730,13148,-0.226,1.005,-0.026,0,0.183,0.427,147.834
150875,155783,9125,-0.226,1.005,-0.026,0,0.183,0.427,147.838
150875,155738,13143,-0.228,1.002,-0.022,-0.244,0.183,0.305,147.844
150884,155783,9125,-0.228,1.002,-0.022,-0.244,0.183,0.305,147.848
150884,155709,13132,-0.229,1.001,-0.029,0,0.305,0.427,147.854
150860,155783,9125,-0.229,1.001,-0.029,0,0.305,0.427,147.857
150860,155749,13140,-0.229,1.006,-0.026,0.244,0.488,0.366,147.864
150875,155783,9125,-0.229,1.006,-0.026,0.244,0.488,0.366,147.867
150875,155726,13124,-0.23,1,-0.024,0.122,0.366,0.366,147.874
150872,155783,9125,-0.23,1,-0.024,0.122,0.366,0.366,147.877
150872,155741,13130,-0.23,1.005,-0.028,-0.183,0.366,0.244,147.883
150879,155783,9125,-0.23,1.005,-0.028,-0.183,0.366,0.244,147.887
150879,155730,13158,-0.226,1.002,-0.02,-0.183,0.61,0.183,147.893
150900,155783,9125,-0.226,1.002,-0.02,-0.183,0.61,0.183,147.897
150900,155741,13145,-0.227,1.003,-0.022,0.183,0.732,0.122,147.903
150893,155783,9125,-0.227,1.003,-0.022,0.183,0.732,0.122,147.907
150893,155759,13155,-0.226,1.004,-0.026,0,0.793,0,147.913
150882,155783,9125,-0.226,1.004,-0.026,0,0.793,0,147.917
150882,155737,13142,-0.23,1.001,-0.025,-0.366,0.732,0.122,147.923
150878,155783,9125,-0.23,1.001,-0.025,-0.366,0.732,0.122,147.927
150878,155767,13141,-0.229,1,-0.032,-0.793,0.61,0.366,147.933
150891,155783,9125,-0.229,1,-0.032,-0.793,0.61,0.366,147.937
150891,155745,13145,-0.222,1,-0.028,-0.793,0.61,0.366,147.943
150893,155783,9125,-0.223,1.002,-0.025,-0.61,0.854,0.305,147.947
150893,155752,13136,-0.226,1,-0.023,-0.61,0.854,0.305,147.953
150894,155783,9125,-0.228,1,-0.024,-0.244,1.159,0.183,147.957
150894,155720,13149,-0.234,1.002,-0.028,-0.244,1.159,0.183,147.963
150900,155783,9125,-0.231,1.006,-0.028,0,0.976,0.305,147.966
150900,155751,13146,-0.226,1.005,-0.034,0,0.976,0.305,147.973
150890,155783,9125,-0.224,1.003,-0.03,-0.122,0.671,0.244,147.976
150890,155737,13149,-0.225,1.004,-0.024,-0.122,0.671,0.244,147.982
150924,155783,9125,-0.228,1.005,-0.024,0.183,0.793,0.244,147.986
150924,155743,13153,-0.227,1.003,-0.029,0.183,0.793,0.244,147.992
150920,155783,9125,-0.224,1,-0.029,0,0.976,0.061,147.996
150920,155762,13147,-0.224,0.997,-0.024,0,0.976,0.061,148.002
150910,155783,9125,-0.229,1.002,-0.02,-0.122,0.854,0.183,148.006
150910,155739,13155,-0.233,1.004,-0.028,-0.122,0.854,0.183,148.012
150899,155783,9125,-0.23,1,-0.031,-0.61,0.793,0.488,148.016
150899,155771,13154,-0.226,0.997,-0.027,-0.61,0.793,0.488,148.022
150912,155783,9125,-0.225,1,-0.03,-0.61,0.427,0.549,148.026
150912,155772,13138,-0.229,1.002,-0.026,-0.61,0.427,0.549,148.032
150917,155783,9125,-0.228,1,-0.026,-0.732,0.671,0.61,148.036
150917,155739,13154,-0.231,0.999,-0.028,-0.732,0.671,0.61,148.042
150912,155783,9125,-0.229,1.003,-0.029,-0.366,0.671,0.549,148.046
150912,155777,13152,-0.226,1.008,-0.03,-0.366,0.671,0.549,148.052
150917,155783,9125,-0.229,1.006,-0.024,-0.488,0.488,0.488,148.055
150917,155761,13156,-0.23,1.002,-0.02,-0.488,0.488,0.488,148.062
150923,155783,9125,-0.23,1,-0.028,-0.671,0.366,0.488,148.065
150923,155770,13152,-0.229,1,-0.032,-0.671,0.366,0.488,148.072
150936,155783,9125,-0.228,1.001,-0.033,-0.549,0.183,0.183,148.075
150936,155767,13142,-0.226,1,-0.032,-0.549,0.183,0.183,148.081
150926,155783,9125,-0.228,1.002,-0.021,-0.244,0.183,0.305,148.085
150926,155778,13163,-0.229,1.004,-0.024,-0.244,0.183,0.305,148.091
150941,155783,9125,-0.227,1.003,-0.031,-0.305,0.305,0.488,148.095
150941,155780,13149,-0.225,0.995,-0.027,-0.305,0.305,0.488,148.101
150918,155783,9125,-0.23,1.001,-0.026,-0.305,0.305,0.427,148.105
150918,155769,13163,-0.23,1.006,-0.025,-0.305,0.305,0.427,148.111
150927,155783,9125,-0.228,1.008,-0.025,-0.488,0.366,0.488,148.115
150927,155776,13158,-0.227,1.007,-0.027,-0.488,0.366,0.488,148.121
150916,155783,9125,-0.229,1.005,-0.027,-0.488,0.183,0.305,148.125
150916,155789,13159,-0.225,1.004,-0.027,-0.488,0.183,0.305,148.131
150923,155783,9125,-0.226,1.002,-0.029,-0.366,0.061,0.305,148.135
150923,155785,13167,-0.228,1.006,-0.029,-0.366,0.061,0.305,148.141
150926,155783,9125,-0.228,1.004,-0.024,-0.305,0.183,0.183,148.145
150926,155764,13157,-0.228,1.004,-0.026,-0.305,0.183,0.183,148.151
150924,155783,9125,-0.227,1.002,-0.031,-0.122,0.305,0.183,148.155
150924,155807,13158,-0.228,1,-0.034,-0.122,0.305,0.183,148.161
150926,155783,9125,-0.229,1.003,-0.028,0.061,0.366,0.244,148.164
150926,155818,13164,-0.231,1.002,-0.021,0.061,0.366,0.244,148.171
150922,155783,9125,-0.231,1,-0.019,-0.305,0.305,0.244,148.174
150922,155775,13162,-0.227,1,-0.025,-0.305,0.305,0.244,148.18
150938,155783,9125,-0.226,0.999,-0.029,-0.061,-0.061,0.305,148.184
150938,155791,13163,-0.222,1.005,-0.034,-0.061,-0.061,0.305,148.19
150931,155783,9125,-0.225,1.01,-0.024,0.305,0,0.366,148.194
150931,155785,13160,-0.226,1.011,-0.02,0.305,0,0.366,148.2
150943,155783,9125,-0.225,1.007,-0.023,-0.183,0.305,0.427,148.204
150943,155787,13173,-0.226,1.001,-0.022,-0.183,0.305,0.427,148.21
150948,155783,9125,-0.225,1,-0.024,-0.976,0,0.122,148.214
150948,155787,13169,-0.223,1.003,-0.025,-0.976,0,0.122,148.22
150949,155783,9125,-0.227,0.998,-0.02,-1.037,0.122,0.183,148.224
150949,155799,13166,-0.227,0.998,-0.019,-1.037,0.122,0.183,148.23
150933,155783,9125,-0.23,1,-0.024,-0.061,0.549,0.366,148.234
150933,155794,13163,-0.231,1.005,-0.024,-0.061,0.549,0.366,148.24
150930,155783,9125,-0.232,1.004,-0.023,0.366,0.671,0.183,148.244
150930,155801,13174,-0.23,1.006,-0.024,0.366,0.671,0.183,148.25
150927,155783,9125,-0.231,1.006,-0.021,0,0.549,0.244,148.254
150927,155774,13174,-0.231,1.004,-0.025,0,0.549,0.244,148.26
150919,155783,9125,-0.228,1.004,-0.03,-0.61,0.183,0.488,148.263
150919,155774,13179,-0.225,1.001,-0.029,-0.61,0.183,0.488,148.27
150931,155783,9125,-0.226,1.001,-0.025,-0.732,0,0.427,148.273
150931,155783,13175,-0.229,1.001,-0.021,-0.732,0,0.427,148.279
150916,155783,9125,-0.231,1,-0.021,-0.305,0.366,0.549,148.283
150916,155779,13176,-0.233,1,-0.025,-0.305,0.366,0.549,148.289
150919,155783,9125,-0.231,1.003,-0.028,-0.122,0.488,0.61,148.293
150919,155784,13181,-0.232,1.007,-0.028,-0.122,0.488,0.61,148.299
150911,155783,9125,-0.229,1.009,-0.022,-0.366,0.427,0.488,148.303
150911,155801,13156,-0.226,1.007,-0.024,-0.366,0.427,0.488,148.309
150936,155783,9125,-0.225,1.003,-0.029,-0.671,0.244,0.488,148.313
150936,155809,13157,-0.228,1.006,-0.034,-0.671,0.244,0.488,148.319
150919,155783,9125,-0.224,1.005,-0.036,-0.793,0.183,0.244,148.323
150919,155797,13169,-0.221,1,-0.033,-0.793,0.183,0.244,148.329
150900,155783,9125,-0.224,0.998,-0.035,-0.671,0.183,0.183,148.333
150900,155792,13158,-0.226,0.998,-0.029,-0.671,0.183,0.183,148.339
150914,155783,9125,-0.225,1.004,-0.03,-0.244,0.061,0.488,148.343
150914,155787,13163,-0.224,1.003,-0.027,-0.244,0.061,0.488,148.349
150904,155783,9125,-0.224,1,-0.029,0,0.183,0.305,148.353
150904,155805,13180,-0.224,0.997,-0.028,0,0.183,0.305,148.359
150895,155783,9125,-0.229,0.999,-0.02,-0.244,0.061,0.244,148.362
150895,155778,13161,-0.232,1.004,-0.015,-0.244,0.061,0.244,148.369
150916,155783,9125,-0.232,0.999,-0.017,-0.732,-0.122,0.366,148.372
150916,155788,13169,-0.229,0.999,-0.021,-0.732,-0.122,0.366,148.378
150898,155783,9125,-0.229,0.998,-0.019,-0.854,-0.183,0.488,148.382
150898,155786,13175,-0.227,0.999,-0.021,-0.854,-0.183,0.488,148.388
150926,155783,9125,-0.227,0.999,-0.021,-0.854,-0.183,0.488,148.392
150926,155780,13178,-0.232,1.011,-0.019,-0.244,0.122,0.549,148.398
150929,155783,9125,-0.232,1.011,-0.019,-0.244,0.122,0.549,148.402
150929,155769,13181,-0.231,1.003,-0.012,-0.488,0.427,0.427,148.408
150936,155783,9125,-0.231,1.003,-0.012,-0.488,0.427,0.427,148.412
150936,155803,13161,-0.23,1.005,-0.023,-0.61,0.305,0.427,148.418
150900,155783,9125,-0.23,1.005,-0.023,-0.61,0.305,0.427,148.422
150900,155791,13175,-0.226,1.003,-0.02,-0.732,0.427,0.183,148.428
150927,155783,9125,-0.226,1.003,-0.02,-0.732,0.427,0.183,148.432
150927,155806,13176,-0.226,1.001,-0.016,-0.244,0.61,0.244,148.438
150942,155783,9125,-0.226,1.001,-0.016,-0.244,0.61,0.244,148.442
150942,155807,13175,-0.223,1.001,-0.027,0,0.732,0.305,148.448
150906,155783,9125,-0.223,1.001,-0.027,0,0.732,0.305,148.452
150906,155807,13170,-0.223,1.004,-0.03,-0.061,0.732,0.305,148.458
150930,155783,9125,-0.223,1.004,-0.03,-0.061,0.732,0.305,148.461
150930,155830,13161,-0.226,0.999,-0.031,-0.366,0.549,0.366,148.468
150929,155783,9125,-0.226,0.999,-0.031,-0.366,0.549,0.366,148.471
150929,155823,13190,-0.227,1,-0.033,-0.793,0.244,0.488,148.477
150908,155783,9125,-0.227,1,-0.033,-0.793,0.244,0.488,148.481
150908,155815,13167,-0.228,1.003,-0.029,-0.61,0.061,0.488,148.487
150915,155783,9125,-0.228,1.003,-0.029,-0.61,0.061,0.488,148.491
150915,155814,13172,-0.228,1.008,-0.028,-0.183,0.244,0.549,148.497
150926,155783,9125,-0.228,1.008,-0.028,-0.183,0.244,0.549,148.501
150926,155825,13185,-0.232,1.003,-0.026,-0.122,0.244,0.427,148.507
150904,155783,9125,-0.232,1.003,-0.026,-0.122,0.244,0.427,148.511
150904,155802,13180,-0.228,1.001,-0.029,-0.427,0.183,0.244,148.517
150908,155783,9125,-0.228,1.001,-0.029,-0.427,0.183,0.244,148.521
150908,155815,13165,-0.232,1.004,-0.023,-0.366,0.183,0.122,148.527
150905,155783,9125,-0.232,1.004,-0.023,-0.366,0.183,0.122,148.531
150905,155808,13181,-0.228,1.001,-0.024,-0.366,-0.061,0.122,148.537
150907,155783,9125,-0.227,0.996,-0.025,-0.366,-0.061,0.122,148.541
150907,155795,13180,-0.227,0.998,-0.027,-0.061,0,0.183,148.547
150917,155783,9125,-0.228,0.997,-0.021,-0.061,0,0.183,148.55
150917,155820,13182,-0.231,1.001,-0.018,0.244,0.305,0.427,148.557
150900,155783,9125,-0.232,1.004,-0.021,0.244,0.305,0.427,148.56
150900,155814,13193,-0.232,1.001,-0.024,-0.061,0.366,0.427,148.567
150916,155783,9125,-0.23,0.999,-0.027,-0.061,0.366,0.427,148.57
150916,155814,13170,-0.229,1.002,-0.022,-0.549,0.061,0.244,148.576
150919,155783,9125,-0.231,1.002,-0.02,-0.549,0.061,0.244,148.58
150919,155796,13190,-0.229,0.999,-0.026,-1.098,0,0.427,148.586
150914,155783,9125,-0.228,1.004,-0.03,-1.098,0,0.427,148.59
150914,155834,13176,-0.226,1.004,-0.026,-0.671,0.122,0.366,148.596
150935,155783,9125,-0.226,1.001,-0.023,-0.671,0.122,0.366,148.6
150935,155819,13179,-0.228,1.002,-0.02,-0.305,0.366,0.305,148.606
150903,155783,9125,-0.233,1.006,-0.021,-0.305,0.366,0.305,148.61
150903,155821,13191,-0.227,1.009,-0.021,0,0.488,0.427,148.616
150906,155783,9125,-0.225,1.006,-0.019,0,0.488,0.427,148.62
150906,155777,13173,-0.226,1.004,-0.022,0.061,0.549,0.305,148.626
150917,155783,9125,-0.228,1.004,-0.023,0.061,0.549,0.305,148.63
150917,155783,13175,-0.229,1.004,-0.027,0,0.61,0.427,148.636
150916,155783,9125,-0.228,1,-0.025,0,0.61,0.427,148.64
150916,155759,13184,-0.229,0.999,-0.024,0,0.61,0.305,148.646
150890,155783,9125,-0.227,1.002,-0.028,0,0.61,0.305,148.65
150890,155749,13179,-0.226,1.001,-0.03,-0.305,0.549,0.305,148.656
150889,155783,9125,-0.228,0.996,-0.027,-0.305,0.549,0.305,148.659
150889,155744,13160,-0.228,0.998,-0.027,-0.122,0.427,0.488,148.666
150874,155783,9125,-0.229,1.004,-0.023,-0.122,0.427,0.488,148.669
150874,155730,13181,-0.232,1.005,-0.022,-0.305,0.366,0.549,148.675
150875,155783,9125,-0.231,1.001,-0.027,-0.305,0.366,0.549,148.679
150875,155730,13162,-0.231,1.002,-0.023,-0.183,0.183,0.488,148.685
150880,155783,9125,-0.23,1.003,-0.024,-0.183,0.183,0.488,148.689
150880,155733,13155,-0.23,1.005,-0.024,0.183,0.305,0.488,148.695
150871,155783,9125,-0.231,1.004,-0.026,0.183,0.305,0.488,148.699
150871,155720,13150,-0.23,1.006,-0.024,0,0.427,0.427,148.705
150869,155783,9125,-0.228,1.003,-0.025,0,0.427,0.427,148.709
150869,155725,13151,-0.228,0.999,-0.026,-0.427,0.305,0.305,148.715
150870,155783,9125,-0.231,0.998,-0.025,-0.427,0.305,0.305,148.719
150870,155732,13144,-0.23,0.999,-0.025,-0.549,0.244,0.366,148.725
150881,155783,9125,-0.227,1,-0.027,-0.549,0.244,0.366,148.729
150881,155729,13145,-0.227,0.999,-0.027,-0.488,0.183,0.427,148.735
150878,155783,9125,-0.222,1.004,-0.021,-0.488,0.183,0.427,148.739
150878,155752,13154,-0.226,1.003,-0.018,-0.244,0.244,0.61,148.745
150867,155783,9125,-0.226,1.002,-0.018,-0.244,0.244,0.61,148.749
150867,155727,13156,-0.225,1.003,-0.021,-0.122,0.183,0.61,148.755
150889,155783,9125,-0.226,1.005,-0.031,-0.122,0.183,0.61,148.758
150889,155732,13150,-0.226,1.004,-0.027,-0.305,0.244,0.305,148.765
150865,155783,9125,-0.226,1.001,-0.026,-0.305,0.244,0.305,148.768
150865,155720,13158,-0.225,1,-0.024,-0.61,0.244,0.427,148.774
150877,155783,9125,-0.227,1,-0.025,-0.61,0.244,0.427,148.778
150877,155741,13139,-0.229,1,-0.028,-0.671,0.183,0.488,148.784
150856,155783,9125,-0.228,1,-0.022,-0.671,0.183,0.488,148.788
150856,155754,13156,-0.229,1.003,-0.019,-0.488,0,0.366,148.794
150875,155783,9125,-0.224,1.005,-0.027,-0.488,0,0.366,148.798
150875,155727,13154,-0.224,1.002,-0.026,-0.244,0.061,0.427,148.804
150872,155783,9125,-0.225,1.002,-0.018,-0.244,0.061,0.427,148.808
150872,155747,13154,-0.229,1.002,-0.015,-0.061,0.488,0.305,148.814
150864,155783,9125,-0.229,1.003,-0.018,-0.061,0.488,0.305,148.818
150864,155742,13147,-0.229,1.003,-0.028,0,0.549,0.549,148.824
150872,155783,9125,-0.225,1.005,-0.027,0,0.549,0.549,148.828
150872,155739,13159,-0.225,1.005,-0.021,0.122,0.305,0.366,148.834
150860,155783,9125,-0.226,1.004,-0.018,0.122,0.305,0.366,148.838
150860,155722,13158,-0.229,1.001,-0.022,-0.122,0.61,0.244,148.844
150889,155783,9125,-0.23,1.004,-0.025,-0.122,0.61,0.244,148.848
150889,155737,13162,-0.228,1,-0.024,-0.183,0.488,0.183,148.854
150870,155783,9125,-0.226,1.001,-0.026,-0.183,0.488,0.183,148.857
150870,155732,13154,-0.228,0.999,-0.026,-0.061,0.366,0.183,148.864
150885,155783,9125,-0.229,0.998,-0.019,-0.061,0.366,0.183,148.867
150885,155741,13163,-0.229,0.998,-0.025,-0.244,0.61,0.427,148.873
150888,155783,9125,-0.229,1.002,-0.029,-0.244,0.61,0.427,148.877
150888,155739,13156,-0.232,1.002,-0.028,-0.671,0.549,0.488,148.883
150861,155783,9125,-0.227,1.004,-0.026,-0.671,0.549,0.488,148.887
150861,155717,13143,-0.225,1.003,-0.025,-0.244,0.244,0.61,148.893
150881,155783,9125,-0.223,1.003,-0.023,-0.244,0.244,0.61,148.897
150881,155741,13145,-0.227,1.005,-0.018,0.061,0.427,0.427,148.903
150861,155783,9125,-0.228,1.008,-0.025,0.061,0.427,0.427,148.907
150861,155754,13157,-0.231,1.005,-0.031,-0.183,0.427,0.183,148.913
150875,155783,9125,-0.226,1.005,-0.03,-0.183,0.427,0.183,148.917
150875,155736,13149,-0.224,1.003,-0.024,-0.488,0.183,0.244,148.923
150869,155783,9125,-0.221,0.999,-0.02,-0.488,0.183,0.244,148.927
150869,155738,13160,-0.227,0.998,-0.024,-0.793,0.366,0.427,148.933
150896,155783,9125,-0.227,1.002,-0.027,-0.793,0.366,0.427,148.937
150896,155736,13161,-0.228,1.004,-0.028,-0.244,0.549,0.366,148.943
150910,155783,9125,-0.225,1.005,-0.026,-0.244,0.549,0.366,148.946
150910,155732,13162,-0.23,1.002,-0.023,-0.122,0.427,0.366,148.953
150865,155783,9125,-0.23,1.001,-0.022,-0.122,0.427,0.366,148.956
150865,155741,13168,-0.228,0.999,-0.025,-0.366,0.244,0.366,148.963
150906,155783,9125,-0.228,1.001,-0.022,-0.366,0.244,0.366,148.966
150906,155735,13151,-0.228,1,-0.025,-0.305,0.366,0.244,148.972
150878,155783,9125,-0.228,1,-0.025,-0.305,0.366,0.244,148.976
150878,155730,13165,-0.231,1.003,-0.028,-0.244,0.366,0.366,148.982
150881,155783,9125,-0.231,1.003,-0.028,-0.244,0.366,0.366,148.986
150881,155736,13153,-0.227,1,-0.024,-0.61,0,0.366,148.992
150879,155783,9125,-0.227,1,-0.024,-0.61,0,0.366,148.996
150879,155745,13162,-0.226,1.002,-0.02,-0.488,0.122,0.427,149.002
150883,155783,9125,-0.226,1.002,-0.02,-0.488,0.122,0.427,149.006
150883,155752,13162,-0.232,1.005,-0.021,0,0.61,0.366,149.012
150866,155783,9125,-0.232,1.005,-0.021,0,0.61,0.366,149.016
150866,155741,13153,-0.227,1.003,-0.023,0.183,0.549,0.366,149.022
150847,155783,9125,-0.227,1.003,-0.023,0.183,0.549,0.366,149.026
150847,155742,13148,-0.23,1.007,-0.02,0.061,0.488,0.305,149.032
150867,155783,9125,-0.23,1.007,-0.02,0.061,0.488,0.305,149.036
150867,155751,13150,-0.228,0.997,-0.022,-0.366,0.366,0.183,149.042
150861,155783,9125,-0.228,0.997,-0.022,-0.366,0.366,0.183,149.046
150861,155733,13150,-0.227,1.006,-0.028,0,0.366,0.122,149.052
150853,155783,9125,-0.227,1.006,-0.028,0,0.366,0.122,149.055
150853,155759,13163,-0.225,0.997,-0.024,0.122,0.549,0.122,149.062
150898,155783,9125,-0.225,0.997,-0.024,0.122,0.549,0.122,149.065
150898,155743,13149,-0.227,1.004,-0.021,0.061,0.427,0.366,149.071
150878,155783,9125,-0.227,1.004,-0.021,0.061,0.427,0.366,149.075
150878,155740,13163,-0.227,1.002,-0.026,0,0.366,0.488,149.081
150888,155783,9125,-0.227,1.002,-0.026,0,0.366,0.488,149.085
150888,155744,13157,-0.229,1.005,-0.027,0.122,0.305,0.427,149.091
150863,155783,9125,-0.229,1.005,-0.027,0.122,0.305,0.427,149.095
150863,155763,13163,-0.229,1.002,-0.022,-0.244,0.305,0.366,149.101
150887,155783,9125,-0.229,1.002,-0.022,-0.244,0.305,0.366,149.105
150887,155744,13152,-0.226,0.998,-0.029,-0.427,0.183,0.183,149.111
150877,155783,9125,-0.226,0.998,-0.029,-0.427,0.183,0.183,149.115
150877,155774,13164,-0.225,1,-0.025,-0.427,0.183,0.183,149.121
150883,155783,9125,-0.227,1.006,-0.02,-0.183,0.366,0.305,149.125
150883,155754,13164,-0.228,1.007,-0.026,-0.183,0.366,0.305,149.131
150880,155783,9125,-0.228,1.005,-0.025,-0.427,0.427,0.427,149.135
150880,155759,13162,-0.226,1.001,-0.021,-0.427,0.427,0.427,149.141
150899,155783,9125,-0.229,1.005,-0.017,-0.549,0.183,0.427,149.145
150899,155732,13158,-0.23,1.005,-0.021,-0.549,0.183,0.427,149.151
150881,155783,9125,-0.226,1.002,-0.022,-0.244,0.244,0.549,149.154
150881,155747,13173,-0.224,1.001,-0.027,-0.244,0.244,0.549,149.161
150899,155783,9125,-0.225,1.006,-0.026,0.183,0.366,0.305,149.164
150899,155758,13150,-0.23,1.01,-0.022,0.183,0.366,0.305,149.17
150875,155783,9125,-0.229,1.005,-0.023,-0.061,0.427,0.183,149.174
150875,155752,13184,-0.227,1,-0.025,-0.061,0.427,0.183,149.18
150883,155783,9125,-0.231,0.998,-0.027,0.061,0.366,0.122,149.184
150883,155755,13145,-0.229,1,-0.021,0.061,0.366,0.122,149.19
150873,155783,9125,-0.228,1.003,-0.016,0,0.305,0.183,149.194
150873,155771,13166,-0.226,0.999,-0.023,0,0.305,0.183,149.2
150880,155783,9125,-0.228,1.004,-0.019,0.122,0.61,0.427,149.204
150880,155753,13168,-0.225,1.005,-0.017,0.122,0.61,0.427,149.21
150889,155783,9125,-0.224,1.005,-0.017,-0.061,0.671,0.305,149.214
150889,155768,13156,-0.226,1.004,-0.024,-0.061,0.671,0.305,149.22
150894,155783,9125,-0.226,1.001,-0.031,-0.305,0.488,0.183,149.224
150894,155771,13165,-0.228,1.002,-0.028,-0.305,0.488,0.183,149.23
150880,155783,9125,-0.227,1.001,-0.028,-0.61,0.488,0.244,149.234
150880,155760,13162,-0.227,1,-0.03,-0.61,0.488,0.244,149.24
150893,155783,9125,-0.227,1.001,-0.026,-0.61,0.366,0.366,149.243
150893,155760,13144,-0.227,1.004,-0.023,-0.61,0.366,0.366,149.25
150888,155783,9125,-0.227,1.004,-0.02,-0.366,0.366,0.488,149.253
150888,155783,13173,-0.228,1.004,-0.019,-0.366,0.366,0.488,149.26
150888,155783,9125,-0.227,1.006,-0.021,0,0.549,0.488,149.263
150888,155788,13171,-0.229,1.005,-0.023,0,0.549,0.488,149.269
150881,155783,9125,-0.232,1.004,-0.023,0.122,0.671,0.122,149.273
150881,155767,13164,-0.232,1.004,-0.022,0.122,0.671,0.122,149.279
150888,155783,9125,-0.23,1,-0.028,0.061,0.549,0,149.283
150888,155781,13167,-0.231,0.998,-0.027,0.061,0.549,0,149.289
150889,155783,9125,-0.233,0.999,-0.025,-0.061,0.366,0,149.293
150889,155777,13155,-0.232,0.997,-0.021,-0.061,0.366,0,149.299
150880,155783,9125,-0.231,1,-0.026,-0.183,0.427,0.244,149.303
150880,155785,13174,-0.229,1.001,-0.028,-0.183,0.427,0.244,149.309
150884,155783,9125,-0.229,1.002,-0.026,-0.183,0.549,0.427,149.313
150884,155761,13180,-0.227,1.004,-0.025,-0.183,0.549,0.427,149.319
150893,155783,9125,-0.231,1.002,-0.025,-0.061,0.61,0.427,149.323
150893,155789,13163,-0.232,1.002,-0.027,-0.061,0.61,0.427,149.329
150891,155783,9125,-0.232,1.003,-0.026,-0.183,0.305,0.305,149.333
150891,155772,13171,-0.227,1.008,-0.027,-0.183,0.305,0.305,149.339
150928,155783,9125,-0.227,1.008,-0.026,-0.488,0.061,0.183,149.342
150928,155813,13161,-0.225,1.006,-0.023,-0.488,0.061,0.183,149.349
150892,155783,9125,-0.222,1.007,-0.025,-0.122,0.244,0.427,149.352
150892,155796,13184,-0.225,1.004,-0.026,-0.122,0.244,0.427,149.359
150914,155783,9125,-0.225,1.003,-0.026,-0.183,0.427,0.244,149.362
150914,155814,13165,-0.224,1,-0.02,-0.183,0.427,0.244,149.368
150911,155783,9125,-0.227,0.999,-0.022,-0.427,0.61,-0.061,149.372
150911,155790,13161,-0.229,1,-0.026,-0.427,0.61,-0.061,149.378
150925,155783,9125,-0.226,0.998,-0.027,-0.305,0.427,0.183,149.382
150925,155788,13183,-0.227,0.998,-0.022,-0.305,0.427,0.183,149.388
150905,155783,9125,-0.227,1,-0.022,-0.183,0.427,0.244,149.392
150905,155801,13185,-0.23,1.001,-0.021,-0.183,0.427,0.244,149.398
150924,155783,9125,-0.23,0.996,-0.023,-0.183,0.305,0.244,149.402
150924,155801,13194,-0.231,0.999,-0.027,-0.183,0.305,0.244,149.408
150918,155783,9125,-0.231,1.002,-0.027,-0.305,0.061,0.488,149.412
150918,155804,13172,-0.227,1.002,-0.017,-0.305,0.061,0.488,149.418
150916,155783,9125,-0.229,1,-0.017,-0.122,0.122,0.793,149.422
150916,155801,13217,-0.23,1.005,-0.023,-0.122,0.122,0.793,149.428
150893,155783,9125,-0.231,1.008,-0.021,0.244,0.305,0.671,149.432
150893,155806,13181,-0.232,1.014,-0.022,0.244,0.305,0.671,149.438
150907,155783,9125,-0.232,1.01,-0.02,-0.061,0.305,0.305,149.441
150907,155808,13174,-0.228,1.004,-0.024,-0.061,0.305,0.305,149.448
150911,155783,9125,-0.229,1.003,-0.025,-0.366,0.122,0.305,149.451
150911,155815,13196,-0.222,1.007,-0.024,-0.366,0.122,0.305,149.458
150923,155783,9125,-0.222,1.004,-0.024,-0.976,0.183,0.244,149.461
150923,155806,13187,-0.223,0.996,-0.025,-0.976,0.183,0.244,149.467
150900,155783,9125,-0.226,0.997,-0.03,-0.488,0.427,0.183,149.471
150900,155816,13190,-0.227,1.001,-0.032,-0.488,0.427,0.183,149.477
150900,155783,9125,-0.225,1.004,-0.028,0.244,0.732,0.183,149.481
150900,155812,13174,-0.226,1.006,-0.023,0.244,0.732,0.183,149.487
150898,155783,9125,-0.229,1.003,-0.025,0.488,0.793,0.244,149.491
150898,155807,13185,-0.229,1.003,-0.029,0.488,0.793,0.244,149.497
150920,155783,9125,-0.227,1.008,-0.028,-0.061,0.366,0.244,149.501
150920,155822,13175,-0.23,1.004,-0.024,-0.061,0.366,0.244,149.507
150910,155783,9125,-0.227,1.001,-0.023,-0.244,0.061,0.061,149.511
150910,155824,13202,-0.23,1.001,-0.021,-0.244,0.061,0.061,149.517
150934,155783,9125,-0.225,0.998,-0.009,0,0.305,0.183,149.521
150934,155828,13197,-0.232,1.003,-0.018,0,0.305,0.183,149.527
150927,155783,9125,-0.229,0.996,-0.029,-0.122,0.671,0.366,149.531
150927,155825,13178,-0.227,0.992,-0.021,-0.122,0.671,0.366,149.537
150918,155783,9125,-0.228,1.003,-0.009,0.183,0.549,0.488,149.54
150918,155802,13185,-0.229,1.013,-0.013,0.183,0.549,0.488,149.547
150937,155783,9125,-0.232,1.004,-0.018,-0.244,0.793,0.549,149.55
150937,155825,13172,-0.228,0.997,-0.02,-0.244,0.793,0.549,149.557
150918,155783,9125,-0.228,0.997,-0.02,-0.244,0.793,0.549,149.56
150918,155813,13194,-0.225,1.004,-0.022,-0.122,0.671,0.305,149.566
150914,155783,9125,-0.225,1.004,-0.022,-0.122,0.671,0.305,149.57
150914,155807,13185,-0.225,1.004,-0.027,-0.366,0.61,0.305,149.576
150924,155783,9125,-0.225,1.004,-0.027,-0.366,0.61,0.305,149.58
150924,155805,13187,-0.225,1.002,-0.031,0.305,0.915,0.366,149.586
150929,155783,9125,-0.225,1.002,-0.031,0.305,0.915,0.366,149.59
150929,155818,13187,-0.226,1.005,-0.023,0.427,1.037,0.244,149.596
150924,155783,9125,-0.226,1.005,-0.023,0.427,1.037,0.244,149.6
150924,155807,13205,-0.227,1.004,-0.027,0.488,0.915,0.427,149.606
150920,155783,9125,-0.227,1.004,-0.027,0.488,0.915,0.427,149.61
150920,155825,13209,-0.227,1.003,-0.023,0.061,0.976,0.305,149.616
150921,155783,9125,-0.227,1.003,-0.023,0.061,0.976,0.305,149.62
150921,155823,13189,-0.228,1.006,-0.032,0,0.732,0.305,149.626
150893,155783,9125,-0.228,1.006,-0.032,0,0.732,0.305,149.63
150893,155830,13202,-0.231,1.001,-0.03,-0.122,0.61,0.183,149.636
150925,155783,9125,-0.231,1.001,-0.03,-0.122,0.61,0.183,149.639
150925,155831,13196,-0.231,0.998,-0.026,-0.122,0.549,0.122,149.646
150914,155783,9125,-0.231,0.998,-0.026,-0.122,0.549,0.122,149.649
150914,155838,13187,-0.232,0.998,-0.018,0.183,0.549,0.122,149.656
150918,155783,9125,-0.232,0.998,-0.018,0.183,0.549,0.122,149.659
150918,155832,13189,-0.232,1.01,-0.019,0.976,0.793,0.183,149.665
150922,155783,9125,-0.232,1.01,-0.019,0.976,0.793,0.183,149.669
150922,155814,13199,-0.231,1.003,-0.016,1.28,1.098,0,149.675
150917,155783,9125,-0.231,1.003,-0.016,1.28,1.098,0,149.679
150917,155838,13199,-0.232,1.002,-0.024,0.854,1.037,-0.061,149.685
150918,155783,9125,-0.232,1.002,-0.024,0.854,1.037,-0.061,149.689
150918,155831,13208,-0.227,0.993,-0.03,0.244,0.854,-0.183,149.695
150954,155783,9125,-0.227,0.993,-0.03,0.244,0.854,-0.183,149.699
150954,155860,13203,-0.225,0.993,-0.027,0.549,0.915,-0.061,149.705
150932,155783,9125,-0.23,0.999,-0.03,0.549,0.915,-0.061,149.709
150932,155866,13209,-0.232,0.998,-0.028,0.366,1.098,0.183,149.715
150941,155783,9125,-0.232,0.996,-0.027,0.366,1.098,0.183,149.719
150941,155826,13197,-0.233,0.999,-0.026,0.061,0.854,0.366,149.725
150951,155783,9125,-0.233,0.999,-0.023,0.061,0.854,0.366,149.729
150951,155858,13215,-0.23,1.002,-0.024,-0.244,0.488,0.549,149.735
150934,155783,9125,-0.23,1.008,-0.025,-0.244,0.488,0.549,149.738
150934,155843,13198,-0.229,1.007,-0.029,-0.061,0.427,0.61,149.745
150926,155783,9125,-0.229,1.006,-0.029,-0.061,0.427,0.61,149.748
150926,155827,13209,-0.231,1.002,-0.024,-0.183,0.549,0.549,149.755
150953,155783,9125,-0.23,1.001,-0.023,-0.183,0.549,0.549,149.758
150953,155846,13210,-0.231,1.006,-0.03,-0.305,0.427,0.549,149.764
150962,155783,9125,-0.227,1.003,-0.035,-0.305,0.427,0.549,149.768
150962,155813,13194,-0.226,1.001,-0.038,0,0.366,0.427,149.774
150923,155783,9125,-0.224,1.004,-0.028,0,0.366,0.427,149.778
150923,155793,13188,-0.225,1.007,-0.026,0.366,0.61,0.366,149.784
150930,155783,9125,-0.227,1.003,-0.028,0.366,0.61,0.366,149.788
150930,155813,13183,-0.225,0.998,-0.027,0.305,0.488,0.488,149.794
150929,155783,9125,-0.229,1.001,-0.024,0.305,0.488,0.488,149.798
150929,155770,13195,-0.229,1.003,-0.024,0.122,0.244,0.427,149.804
150913,155783,9125,-0.231,1,-0.028,0.122,0.244,0.427,149.808
150913,155771,13184,-0.227,0.999,-0.026,-0.183,0.244,0.305,149.814
150915,155783,9125,-0.225,0.997,-0.021,-0.183,0.244,0.305,149.818
150915,155766,13183,-0.228,0.999,-0.015,-0.305,0.305,0.366,149.824
150910,155783,9125,-0.232,1,-0.021,-0.305,0.305,0.366,149.828
150910,155771,13166,-0.233,1.001,-0.024,-0.122,0.549,0.488,149.834
150917,155783,9125,-0.231,0.999,-0.023,-0.122,0.549,0.488,149.837
150917,155775,13168,-0.232,1,-0.02,0.366,0.488,0.488,149.844
150920,155783,9125,-0.235,1.004,-0.019,0.366,0.488,0.488,149.847
150920,155777,13167,-0.233,1.002,-0.019,0.488,0.549,0.488,149.854
150919,155783,9125,-0.234,1.001,-0.023,0.488,0.549,0.488,149.857
150919,155776,13169,-0.231,1.002,-0.022,0.427,0.61,0.305,149.863
150915,155783,9125,-0.231,1.002,-0.022,0.427,0.61,0.305,149.867
150915,155787,13181,-0.231,1.003,-0.023,0.305,0.671,0.244,149.873
150917,155783,9125,-0.231,0.999,-0.028,0.305,0.671,0.244,149.877
150917,155767,13152,-0.228,1.001,-0.028,0.244,0.732,0.366,149.883
150920,155783,9125,-0.226,1.002,-0.028,0.244,0.732,0.366,149.887
150920,155795,13179,-0.226,1.005,-0.025,0.244,0.854,0.244,149.893
150928,155783,9125,-0.228,1.008,-0.024,0.244,0.854,0.244,149.897
150928,155752,13153,-0.224,1.006,-0.028,0.549,0.854,0.244,149.903
150911,155783,9125,-0.226,1,-0.03,0.549,0.854,0.244,149.907
150911,155782,13168,-0.225,1.004,-0.031,0.793,0.793,0,149.913
150929,155783,9125,-0.225,1.003,-0.029,0.793,0.793,0,149.917
150929,155767,13157,-0.228,1.001,-0.033,0.549,0.732,-0.061,149.923
150894,155783,9125,-0.226,1.001,-0.034,0.549,0.732,-0.061,149.927
150894,155741,13162,-0.228,1.003,-0.027,0.305,0.732,0.061,149.933
150909,155783,9125,-0.227,1.002,-0.025,0.305,0.732,0.061,149.936
150909,155766,13164,-0.228,0.998,-0.025,0.305,0.549,0.122,149.943
150901,155783,9125,-0.227,1.002,-0.032,0.305,0.549,0.122,149.946
150901,155738,13169,-0.224,1.001,-0.034,0.183,0.366,0.122,149.953
150905,155783,9125,-0.227,1.003,-0.029,0.183,0.366,0.122,149.956
150905,155761,13151,-0.224,1.001,-0.031,0.061,0.305,0.305,149.962
150915,155783,9125,-0.226,0.999,-0.023,0.061,0.305,0.305,149.966
150915,155735,13144,-0.229,1.005,-0.024,0,0.427,0.244,149.972
150920,155783,9125,-0.229,1.002,-0.025,0,0.427,0.244,149.976
150920,155754,13175,-0.229,0.998,-0.025,-0.122,0.488,0.305,149.982
150919,155783,9125,-0.229,0.997,-0.025,-0.122,0.488,0.305,149.986
150919,155744,13155,-0.228,1.002,-0.024,-0.427,0.549,0.183,149.992
150906,155783,9125,-0.232,1.005,-0.024,-0.427,0.549,0.183,149.996
150906,155737,13155,-0.232,0.999,-0.024,-0.671,0.549,0.427,150.002
150906,155783,9125,-0.231,0.996,-0.026,-0.671,0.549,0.427,150.006
150906,155743,13151,-0.229,1.001,-0.026,-0.244,0.671,0.366,150.012
150910,155783,9125,-0.228,1.003,-0.025,-0.244,0.671,0.366,150.016
150910,155758,13165,-0.23,1.005,-0.024,-0.122,0.854,0.427,150.022
150926,155783,9125,-0.232,1.004,-0.025,-0.122,0.854,0.427,150.026
150926,155773,13173,-0.231,1.005,-0.024,0.061,0.854,0.366,150.032
150923,155783,9125,-0.231,1.007,-0.027,0.061,0.854,0.366,150.035
150923,155753,13156,-0.23,1.003,-0.029,0.061,0.915,0.305,150.042
150923,155783,9125,-0.228,1.002,-0.025,0.061,0.915,0.305,150.045
150923,155774,13171,-0.229,1.001,-0.021,0.305,0.976,0.366,150.052
150920,155783,9125,-0.229,0.999,-0.026,0.305,0.976,0.366,150.055
150920,155775,13161,-0.231,0.998,-0.029,0.061,0.915,0.244,150.061
150923,155783,9125,-0.229,1.002,-0.032,0.061,0.915,0.244,150.065
150923,155766,13175,-0.229,1,-0.03,-0.122,0.732,0.427,150.071
150926,155783,9125,-0.227,1.004,-0.031,-0.122,0.732,0.427,150.075
150926,155772,13156,-0.226,1.003,-0.027,-0.183,0.732,0.549,150.081
150929,155783,9125,-0.225,1.004,-0.026,-0.183,0.732,0.549,150.085
150929,155776,13173,-0.228,1.007,-0.028,0,0.915,0.427,150.091
150942,155783,9125,-0.23,1.005,-0.033,0,0.915,0.427,150.095
150942,155797,13165,-0.23,1,-0.029,-0.305,0.854,0.122,150.101
150933,155783,9125,-0.23,1,-0.031,-0.305,0.854,0.122,150.105
150933,155801,13167,-0.226,1.002,-0.025,-0.488,0.61,0.244,150.111
150970,155783,9125,-0.231,1.002,-0.024,-0.488,0.61,0.244,150.115
150970,155811,13161,-0.229,1.001,-0.024,-0.793,0.61,0.427,150.121
150940,155783,9125,-0.23,0.997,-0.028,-0.793,0.61,0.427,150.125
150940,155779,13158,-0.226,0.999,-0.03,-0.488,0.549,0.488,150.131
150944,155783,9125,-0.228,1.003,-0.031,-0.488,0.549,0.488,150.134
150944,155804,13170,-0.229,1.002,-0.028,0,0.671,0.488,150.141
150967,155783,9125,-0.229,1.002,-0.028,0,0.671,0.488,150.144
150967,155799,13163,-0.225,1.005,-0.034,0.244,0.671,0.549,150.15
150967,155783,9125,-0.225,1.005,-0.034,0.244,0.671,0.549,150.154
150967,155796,13162,-0.228,1.004,-0.03,0.183,0.366,0.305,150.16
150965,155783,9125,-0.228,1.004,-0.03,0.183,0.366,0.305,150.164
150965,155793,13166,-0.229,0.997,-0.024,0.183,0.366,0.244,150.17
150971,155783,9125,-0.229,0.997,-0.024,0.183,0.366,0.244,150.174
150971,155797,13158,-0.233,1.004,-0.025,0.061,0.549,0.244,150.18
150982,155783,9125,-0.233,1.004,-0.025,0.061,0.549,0.244,150.184
150982,155799,13174,-0.228,0.999,-0.028,0.122,0.305,0.366,150.19
150974,155783,9125,-0.228,0.999,-0.028,0.122,0.305,0.366,150.194
150974,155808,13170,-0.229,1.004,-0.021,0.183,0.488,0.366,150.2
150983,155783,9125,-0.229,1.004,-0.021,0.183,0.488,0.366,150.204
150983,155802,13186,-0.229,1,-0.027,0.366,0.549,0.366,150.21
150982,155783,9125,-0.229,1,-0.027,0.366,0.549,0.366,150.214
150982,155821,13179,-0.229,1.004,-0.029,0.183,0.427,0.366,150.22
150988,155783,9125,-0.229,1.004,-0.029,0.183,0.427,0.366,150.224
150988,155817,13156,-0.23,1.003,-0.026,0,0.549,0.427,150.23
150999,155783,9125,-0.23,1.003,-0.026,0,0.549,0.427,150.233
150999,155812,13178,-0.229,1.003,-0.033,-0.183,0.61,0.366,150.24
150995,155783,9125,-0.229,1.003,-0.033,-0.183,0.61,0.366,150.243
150995,155828,13175,-0.227,1.003,-0.026,-0.244,0.427,0.305,150.25
150994,155783,9125,-0.227,1.003,-0.026,-0.244,0.427,0.305,150.253
150994,155835,13175,-0.229,0.998,-0.022,0,0.549,0.488,150.259
150982,155783,9125,-0.229,0.998,-0.022,0,0.549,0.488,150.263
150982,155839,13184,-0.228,1.004,-0.033,0.366,0.732,0.427,150.269
150967,155783,9125,-0.228,1.004,-0.033,0.366,0.732,0.427,150.273
150967,155824,13175,-0.224,1.002,-0.028,0.549,0.61,0.366,150.279
150978,155783,9125,-0.224,1.002,-0.028,0.549,0.61,0.366,150.283
150978,155834,13175,-0.227,1.003,-0.031,0.549,0.61,0.366,150.289
150983,155783,9125,-0.228,1.005,-0.032,0.183,0.488,0.244,150.293
150983,155831,13177,-0.227,0.999,-0.029,0.183,0.488,0.244,150.299
150978,155783,9125,-0.228,1,-0.027,-0.122,0.427,0.061,150.303
150978,155840,13169,-0.229,1.006,-0.021,-0.122,0.427,0.061,150.309
150980,155783,9125,-0.229,1.003,-0.022,-0.305,0.671,0.366,150.313
150980,155829,13184,-0.229,1,-0.027,-0.305,0.671,0.366,150.319
150981,155783,9125,-0.226,1.001,-0.03,0.122,0.854,0.427,150.323
150981,155842,13191,-0.227,1.006,-0.031,0.122,0.854,0.427,150.329
150975,155783,9125,-0.225,1.003,-0.029,0.061,0.732,0.244,150.332
150975,155826,13183,-0.229,1,-0.024,0.061,0.732,0.244,150.339
150986,155783,9125,-0.231,1.006,-0.031,-0.061,0.671,0.244,150.342
150986,155819,13181,-0.231,1.004,-0.039,-0.061,0.671,0.244,150.349
150996,155783,9125,-0.234,0.998,-0.034,0,0.732,0.122,150.352
150996,155855,13179,-0.228,0.999,-0.018,0,0.732,0.122,150.358
151004,155783,9125,-0.227,1.006,-0.003,-0.061,0.854,0.061,150.362
151004,155822,13166,-0.232,1.002,-0.024,-0.061,0.854,0.061,150.368
150974,155783,9125,-0.233,0.993,-0.037,-0.305,1.037,0.427,150.372
150974,155836,13175,-0.229,0.998,-0.027,-0.305,1.037,0.427,150.378
150984,155783,9125,-0.229,1.001,-0.026,-0.183,0.793,0.183,150.382
150984,155827,13198,-0.228,1.002,-0.025,-0.183,0.793,0.183,150.388
150981,155783,9125,-0.229,1,-0.026,0.183,0.915,0.488,150.392
150981,155821,13165,-0.228,1.001,-0.029,0.183,0.915,0.488,150.398
150980,155783,9125,-0.227,1,-0.038,-0.122,1.098,0.549,150.402
150980,155820,13169,-0.227,0.999,-0.038,-0.122,1.098,0.549,150.408
150996,155783,9125,-0.226,1.004,-0.026,-0.061,0.793,0.244,150.412
150996,155872,13192,-0.232,1.007,-0.022,-0.061,0.793,0.244,150.418
151009,155783,9125,-0.233,1.004,-0.025,-0.061,0.854,0.366,150.422
151009,155852,13186,-0.229,1,-0.029,-0.061,0.854,0.366,150.428
150989,155783,9125,-0.23,0.999,-0.035,0.244,0.732,0.061,150.431
150989,155847,13187,-0.229,1.004,-0.036,0.244,0.732,0.061,150.438
151001,155783,9125,-0.229,1.001,-0.036,0.122,0.793,0.061,150.441
151001,155863,13173,-0.23,1,-0.032,0.122,0.793,0.061,150.447
150980,155783,9125,-0.231,1,-0.032,-0.122,0.61,0.122,150.451
150980,155839,13197,-0.231,0.998,-0.027,-0.122,0.61,0.122,150.457
151009,155783,9125,-0.231,1,-0.025,-0.549,0.366,0.305,150.461
151009,155861,13181,-0.232,0.998,-0.029,-0.549,0.366,0.305,150.467
150988,155783,9125,-0.231,1,-0.03,-0.305,0.488,0.488,150.471
150988,155852,13197,-0.232,1.004,-0.027,-0.305,0.488,0.488,150.477
151021,155783,9125,-0.231,1.007,-0.028,-0.061,0.671,0.61,150.481
151021,155841,13177,-0.231,1.005,-0.022,-0.061,0.671,0.61,150.487
150994,155783,9125,-0.232,1.003,-0.026,-0.183,0.427,0.427,150.491
150994,155845,13202,-0.231,1.003,-0.026,-0.183,0.427,0.427,150.497
150996,155783,9125,-0.232,1.005,-0.03,-0.732,0.366,0.183,150.501
150996,155858,13191,-0.234,1.002,-0.032,-0.732,0.366,0.183,150.507
151006,155783,9125,-0.23,0.998,-0.035,-0.732,0.244,0.183,150.511
151006,155845,13177,-0.226,0.995,-0.031,-0.732,0.244,0.183,150.517
151020,155783,9125,-0.229,0.998,-0.03,-0.244,0.183,0.305,150.521
151020,155845,13188,-0.227,1.004,-0.03,-0.244,0.183,0.305,150.527
150991,155783,9125,-0.227,1.004,-0.026,0.305,0.366,0.427,150.53
150991,155863,13191,-0.229,1.011,-0.029,0.305,0.366,0.427,150.537
150994,155783,9125,-0.229,1.009,-0.028,0.244,0.549,0.305,150.54
150994,155848,13189,-0.224,1.005,-0.024,0.244,0.549,0.305,150.547
151015,155783,9125,-0.224,0.998,-0.026,-0.305,0.488,0.244,150.55
151015,155860,13202,-0.225,0.999,-0.032,-0.305,0.488,0.244,150.556
151012,155783,9125,-0.226,1.002,-0.029,-0.854,0.488,0.183,150.56
151012,155878,13208,-0.227,0.995,-0.029,-0.854,0.488,0.183,150.566
151028,155783,9125,-0.229,0.995,-0.025,-0.427,0.488,0.122,150.57
151028,155875,13196,-0.232,1.002,-0.027,-0.427,0.488,0.122,150.576
150997,155783,9125,-0.23,1.001,-0.032,0.122,0.488,0.183,150.58
150997,155881,13199,-0.23,1.001,-0.026,0.122,0.488,0.183,150.586
151022,155783,9125,-0.232,1.004,-0.021,0,0.305,0.244,150.59
151022,155853,13194,-0.232,1.006,-0.024,0,0.305,0.244,150.596
150997,155783,9125,-0.232,1.004,-0.029,-0.183,0.183,0.427,150.6
150997,155859,13197,-0.232,1,-0.03,-0.183,0.183,0.427,150.606
151035,155783,9125,-0.23,1.002,-0.029,-0.427,0.061,0.427,150.61
151035,155867,13194,-0.231,1.001,-0.035,-0.427,0.061,0.427,150.616
151019,155783,9125,-0.232,1,-0.035,-0.488,0.061,0.427,150.62
151019,155873,13203,-0.227,0.997,-0.028,-0.488,0.061,0.427,150.626
151048,155783,9125,-0.227,1.008,-0.02,-0.244,0.183,0.427,150.629
151048,155894,13202,-0.226,1.014,-0.023,-0.244,0.183,0.427,150.636
150992,155783,9125,-0.225,1.005,-0.037,0.122,0.366,0.427,150.639
150992,155851,13206,-0.219,1.003,-0.038,0.122,0.366,0.427,150.645
150996,155783,9125,-0.22,1.007,-0.033,0.244,0.305,-0.061,150.649
150996,155889,13214,-0.227,1.006,-0.031,0.244,0.305,-0.061,150.655
150999,155783,9125,-0.227,1.002,-0.032,-0.854,0.183,0.061,150.659
150999,155888,13206,-0.222,0.995,-0.03,-0.854,0.183,0.061,150.665
151011,155783,9125,-0.223,0.994,-0.026,-1.159,-0.305,0.183,150.669
151011,155897,13209,-0.223,0.997,-0.023,-1.159,-0.305,0.183,150.675
151026,155783,9125,-0.225,1.002,-0.022,-0.793,-0.244,0.549,150.679
151026,155898,13204,-0.227,1.004,-0.025,-0.793,-0.244,0.549,150.685
151014,155783,9125,-0.227,1,-0.025,-0.305,0.183,0.427,150.689
151014,155888,13204,-0.231,1.003,-0.026,-0.305,0.183,0.427,150.695
150999,155783,9125,-0.236,1.007,-0.026,-0.183,0.244,0.122,150.699
150999,155891,13209,-0.236,1.004,-0.025,-0.183,0.244,0.122,150.705
151017,156039,9125,-0.232,1.001,-0.024,-0.732,-0.183,0.244,150.709
151017,155915,13211,-0.231,1.004,-0.023,-0.732,-0.183,0.244,150.715
151037,155783,9125,-0.231,1.002,-0.02,-0.976,-0.305,0.366,150.718
151037,155897,13203,-0.232,0.999,-0.019,-0.976,-0.305,0.366,150.725
151020,156039,9125,-0.232,0.999,-0.019,-0.976,-0.305,0.366,150.728
151020,155906,13205,-0.23,1,-0.024,-0.671,0.122,0.427,150.735
151008,155783,9125,-0.23,1,-0.024,-0.671,0.122,0.427,150.738
151008,155889,13207,-0.23,1.005,-0.026,-0.244,0.549,0.366,150.745
151001,155783,9125,-0.23,1.005,-0.026,-0.244,0.549,0.366,150.748
151001,155902,13217,-0.231,1,-0.023,-0.183,0.793,0.366,150.754
151022,155783,9125,-0.231,1,-0.023,-0.183,0.793,0.366,150.758
151022,155855,13210,-0.224,1.003,-0.042,-0.061,0.732,0.427,150.764
150987,155783,9125,-0.224,1.003,-0.042,-0.061,0.732,0.427,150.768
150987,155881,13213,-0.223,1.001,-0.031,-0.366,0.549,0.366,150.774
150995,155783,9125,-0.223,1.001,-0.031,-0.366,0.549,0.366,150.778
150995,155892,13194,-0.223,1.004,-0.028,-0.671,0.488,0.305,150.784
150990,155783,9125,-0.223,1.004,-0.028,-0.671,0.488,0.305,150.788
150990,155891,13217,-0.225,1.001,-0.03,-0.732,0.305,0.366,150.794
151010,155783,9125,-0.225,1.001,-0.03,-0.732,0.305,0.366,150.798
151010,155884,13214,-0.227,1.001,-0.035,-0.488,0.061,0.305,150.804
150995,155783,9125,-0.227,1.001,-0.035,-0.488,0.061,0.305,150.808
150995,155874,13217,-0.23,0.999,-0.029,-0.488,-0.061,0.366,150.814
151020,155783,9125,-0.23,0.999,-0.029,-0.488,-0.061,0.366,150.818
151020,155879,13220,-0.228,0.997,-0.034,-0.793,-0.061,0.366,150.824
150998,155783,9125,-0.228,0.997,-0.034,-0.793,-0.061,0.366,150.827
150998,155901,13211,-0.231,1.002,-0.028,-0.488,0.061,0.305,150.834
150990,155783,9125,-0.231,1.002,-0.028,-0.488,0.061,0.305,150.837
150990,155890,13227,-0.236,1.009,-0.023,-0.549,0.183,0.549,150.843
150984,155783,9125,-0.236,1.009,-0.023,-0.549,0.183,0.549,150.847
150984,155886,13231,-0.232,0.999,-0.038,-0.549,0.122,0.488,150.853
150994,155783,9125,-0.232,0.999,-0.038,-0.549,0.122,0.488,150.857
150994,155886,13226,-0.234,1,-0.018,-0.427,-0.061,0.122,150.863
151011,155783,9125,-0.234,1,-0.018,-0.427,-0.061,0.122,150.867
151011,155885,13210,-0.238,1.007,-0.02,-0.671,0.122,0.488,150.873
150997,155783,9125,-0.236,1.006,-0.029,-0.671,0.122,0.488,150.877
150997,155869,13227,-0.229,0.998,-0.032,-0.244,0.061,0.427,150.883
151014,155783,9125,-0.229,0.999,-0.021,-0.244,0.061,0.427,150.887
151014,155885,13219,-0.234,1.002,-0.022,-0.183,0.305,0.305,150.893
151023,155783,9125,-0.237,1.001,-0.026,-0.183,0.305,0.305,150.897
151023,155887,13224,-0.235,0.998,-0.021,-0.671,0.244,0.488,150.903
150983,155783,9125,-0.23,0.998,-0.019,-0.671,0.244,0.488,150.907
150983,155876,13243,-0.229,1.002,-0.022,-0.488,0.244,0.244,150.913
151010,156039,9125,-0.231,1.002,-0.026,-0.488,0.244,0.244,150.917
151010,155910,13225,-0.229,1.002,-0.024,-0.427,0.427,0.488,150.923
151002,156039,9125,-0.228,1.005,-0.023,-0.427,0.427,0.488,150.926
151002,155916,13237,-0.228,1.003,-0.024,-0.61,0.244,0.427,150.933
151004,155783,9125,-0.227,0.999,-0.028,-0.61,0.244,0.427,150.936
151004,155892,13239,-0.223,1.005,-0.029,-1.037,0.183,0.427,150.942
150996,156039,9125,-0.222,1.002,-0.029,-1.037,0.183,0.427,150.946
150996,155905,13231,-0.22,1.001,-0.035,-0.671,0.366,0.671,150.952
151003,155783,9125,-0.223,1.007,-0.032,-0.671,0.366,0.671,150.956
151003,155875,13225,-0.224,1.009,-0.031,-0.061,0.549,0.549,150.962
150983,155783,9125,-0.225,1.009,-0.028,-0.061,0.549,0.549,150.966
150983,155857,13229,-0.23,1.006,-0.025,-0.305,0.549,0.427,150.972
150987,155783,9125,-0.227,0.998,-0.028,-0.305,0.549,0.427,150.976
150987,155844,13212,-0.228,0.996,-0.03,-0.488,0.305,0.244,150.982
150968,155783,9125,-0.227,1,-0.035,-0.488,0.305,0.244,150.986
150968,155842,13213,-0.231,1.001,-0.024,-0.427,0.244,0.366,150.992
150970,155783,9125,-0.229,0.999,-0.024,-0.427,0.244,0.366,150.996
150970,155825,13202,-0.229,0.998,-0.026,-0.061,0.244,0.549,151.002
150946,155783,9125,-0.233,1.002,-0.028,-0.061,0.244,0.549,151.006
150946,155812,13202,-0.234,1.005,-0.023,0.122,0.305,0.488,151.012
150956,155783,9125,-0.235,1.005,-0.015,0.122,0.305,0.488,151.016
150956,155811,13197,-0.234,1.002,-0.018,-0.122,0.305,0.488,151.022
150942,155783,9125,-0.235,1,-0.02,-0.122,0.305,0.488,151.025
150942,155787,13183,-0.234,1.001,-0.025,-0.244,0.244,0.549,151.032
150937,155783,9125,-0.233,1.002,-0.025,-0.244,0.244,0.549,151.035
150937,155818,13184,-0.232,1.003,-0.023,-0.488,0.488,0.488,151.041
150955,155783,9125,-0.233,0.998,-0.024,-0.488,0.488,0.488,151.045
150955,155815,13208,-0.231,0.999,-0.026,-0.244,0.549,0.488,151.051
150948,155783,9125,-0.225,1.002,-0.028,-0.244,0.549,0.488,151.055
150948,155797,13183,-0.227,1.007,-0.026,-0.305,0.61,0.427,151.061
150944,155783,9125,-0.226,1.007,-0.026,-0.305,0.61,0.427,151.065
150944,155776,13189,-0.225,1.004,-0.025,0.122,0.549,0.427,151.071
150965,155783,9125,-0.226,1.004,-0.031,0.122,0.549,0.427,151.075
150965,155809,13184,-0.227,1.005,-0.032,-0.183,0.549,0.305,151.081
150942,155783,9125,-0.228,0.999,-0.03,-0.183,0.549,0.305,151.085
150942,155786,13185,-0.227,0.996,-0.031,-0.61,0.305,0.244,151.091
150962,155783,9125,-0.226,0.997,-0.034,-0.61,0.305,0.244,151.095
150962,155801,13173,-0.224,1.001,-0.03,-0.549,0.183,0.488,151.101
150952,155783,9125,-0.224,0.999,-0.023,-0.549,0.183,0.488,151.105
150952,155794,13196,-0.226,1.001,-0.023,-0.122,0.244,0.61,151.111
150957,155783,9125,-0.226,1,-0.029,-0.122,0.244,0.61,151.115
150957,155782,13193,-0.227,1.002,-0.032,0.244,0.427,0.61,151.121
150933,155783,9125,-0.232,1.01,-0.026,0.244,0.427,0.61,151.124
150933,155794,13183,-0.23,1.01,-0.025,-0.549,0.244,0.427,151.131
150953,155783,9125,-0.231,1.004,-0.028,-0.549,0.244,0.427,151.134
150953,155782,13181,-0.23,0.997,-0.029,-0.854,-0.061,0.427,151.14
150916,155783,9125,-0.227,0.997,-0.028,-0.854,-0.061,0.427,151.144
150916,155749,13172,-0.228,1.003,-0.029,-0.732,0,0.427,151.15
150934,155783,9125,-0.228,0.999,-0.028,-0.732,0,0.427,151.154
150934,155788,13179,-0.231,0.999,-0.027,-0.061,0.183,0.671,151.16
150920,155783,9125,-0.23,1.004,-0.031,-0.061,0.183,0.671,151.164
150920,155746,13188,-0.226,1.009,-0.031,0.122,0.183,0.488,151.17
150916,155783,9125,-0.227,1.006,-0.024,0.122,0.183,0.488,151.174
150916,155789,13184,-0.229,1.006,-0.019,0,0.305,0.427,151.18
150929,155783,9125,-0.23,1.007,-0.016,0,0.305,0.427,151.184
150929,155790,13191,-0.229,1.004,-0.023,-0.183,0.305,0.305,151.19
150952,155783,9125,-0.23,0.999,-0.024,-0.183,0.305,0.305,151.194
150952,155786,13190,-0.23,1.001,-0.022,-0.488,0.305,0,151.2
150939,155783,9125,-0.228,1,-0.022,-0.488,0.305,0,151.204
150939,155793,13187,-0.228,0.996,-0.027,-0.427,0.244,0.366,151.21
150916,155783,9125,-0.229,0.998,-0.024,-0.427,0.244,0.366,151.214
150916,155819,13187,-0.229,1,-0.024,-0.061,0.427,0.488,151.22
150941,155783,9125,-0.23,1.002,-0.027,-0.061,0.427,0.488,151.223
150941,155803,13184,-0.232,1.006,-0.03,0.061,0.793,0.366,151.23
150935,155783,9125,-0.23,1.005,-0.032,0.061,0.793,0.366,151.233
150935,155783,13180,-0.227,1.004,-0.031,-0.183,0.549,0.366,151.24
150929,155783,9125,-0.227,1.005,-0.022,-0.183,0.549,0.366,151.243
150929,155801,13180,-0.228,1.006,-0.026,-0.915,0.244,0.305,151.249
150928,155783,9125,-0.227,0.998,-0.027,-0.915,0.244,0.305,151.253
150928,155794,13189,-0.228,0.996,-0.029,-0.671,0.122,0.244,151.259
150939,155783,9125,-0.227,0.997,-0.028,-0.671,0.122,0.244,151.263
150939,155792,13190,-0.228,1.001,-0.028,-0.183,0.305,0.244,151.269
150904,155783,9125,-0.227,1.001,-0.026,-0.183,0.305,0.244,151.273
150904,155792,13187,-0.231,1,-0.03,0.183,0.549,0.549,151.279
150952,155783,9125,-0.231,1.002,-0.029,0.183,0.549,0.549,151.283
150952,155772,13190,-0.23,1.009,-0.028,-0.122,0.488,0.549,151.289
150919,155783,9125,-0.228,1.005,-0.022,-0.122,0.488,0.549,151.293
150919,155748,13193,-0.227,1.002,-0.025,-0.366,0,0.366,151.299
150916,155783,9125,-0.229,1,-0.031,-0.366,0,0.366,151.303
150916,155793,13185,-0.231,1,-0.026,-0.427,0,0.366,151.309
150906,155783,9125,-0.231,0.998,-0.026,-0.427,0,0.366,151.312
150906,155796,13183,-0.231,1.002,-0.032,-0.305,0.305,0.305,151.319
150919,155783,9125,-0.231,1.002,-0.032,-0.305,0.305,0.305,151.322
150919,155772,13180,-0.229,1.005,-0.023,-0.061,0.427,0.366,151.329
150920,155783,9125,-0.229,1.005,-0.023,-0.061,0.427,0.366,151.332
150920,155798,13190,-0.231,1,-0.017,0,0.366,0.427,151.338
150904,155783,9125,-0.231,1,-0.017,0,0.366,0.427,151.342
150904,155773,13174,-0.231,1,-0.024,-0.183,0.427,0.183,151.348
150919,155783,9125,-0.231,1,-0.024,-0.183,0.427,0.183,151.352
150919,155795,13184,-0.234,1.003,-0.028,-0.305,0.244,0.244,151.358
150914,155783,9125,-0.234,1.003,-0.028,-0.305,0.244,0.244,151.362
150914,155756,13182,-0.224,1,-0.026,-0.183,0.061,0.488,151.368
150915,155783,9125,-0.224,1,-0.026,-0.183,0.061,0.488,151.372
150915,155785,13191,-0.225,1,-0.025,0.061,0.244,0.305,151.378
150926,155783,9125,-0.225,1,-0.025,0.061,0.244,0.305,151.382
150926,155787,13182,-0.231,1.005,-0.023,0.061,0.488,0.305,151.388
150928,155783,9125,-0.231,1.005,-0.023,0.061,0.488,0.305,151.392
150928,155805,13183,-0.228,1,-0.029,-0.305,0.305,0.305,151.398
150907,155783,9125,-0.228,1,-0.029,-0.305,0.305,0.305,151.402
150907,155780,13183,-0.225,0.999,-0.025,-0.427,0.122,0.488,151.408
150909,155783,9125,-0.225,0.999,-0.025,-0.427,0.122,0.488,151.412
150909,155794,13185,-0.23,0.999,-0.025,0,0.305,0.549,151.418
150914,155783,9125,-0.23,0.999,-0.025,0,0.305,0.549,151.421
150914,155809,13165,-0.224,1.003,-0.03,0.366,0.366,0.549,151.428
150913,155783,9125,-0.224,1.003,-0.03,0.366,0.366,0.549,151.431
150913,155804,13193,-0.227,1.008,-0.029,0.305,0.305,0.549,151.438
150918,155783,9125,-0.227,1.008,-0.029,0.305,0.305,0.549,151.441
150918,155810,13187,-0.229,1.005,-0.035,-0.122,0.305,0.305,151.447
150896,155783,9125,-0.229,1.005,-0.035,-0.122,0.305,0.305,151.451
150896,155821,13174,-0.228,1,-0.025,-0.671,0.183,0.122,151.457
150917,155783,9125,-0.228,1,-0.025,-0.671,0.183,0.122,151.461
150917,155801,13196,-0.227,1.001,-0.023,-0.671,0.183,0.122,151.467
150928,155783,9125,-0.229,0.999,-0.028,-0.671,0.061,0.305,151.471
150928,155818,13194,-0.227,1.001,-0.03,-0.671,0.061,0.305,151.477
150904,155783,9125,-0.227,1.005,-0.025,0.061,0.183,0.427,151.481
150904,155785,13193,-0.226,1.006,-0.022,0.061,0.183,0.427,151.487
150913,155783,9125,-0.227,1.003,-0.024,0.244,0.366,0.305,151.491
150913,155819,13196,-0.23,0.999,-0.024,0.244,0.366,0.305,151.497
150908,155783,9125,-0.229,1,-0.024,-0.183,0.183,0.305,151.501
150908,155778,13191,-0.232,1,-0.024,-0.183,0.183,0.305,151.507
150911,155783,9125,-0.231,0.997,-0.033,-0.366,0.244,0.244,151.511
150911,155797,13180,-0.227,1.002,-0.024,-0.366,0.244,0.244,151.517
150905,155783,9125,-0.231,1.005,-0.023,-0.244,0.366,0.488,151.52
150905,155790,13170,-0.228,1.003,-0.026,-0.244,0.366,0.488,151.527
