151096,155015,9125,-0.223,0.998,0.11,-0.793,-0.122,0.244,6.261
151096,155120,13297,-0.221,0.995,0.115,-0.793,-0.122,0.244,6.267
151082,155015,9125,-0.221,1.001,0.116,-0.976,-0.305,0.305,6.271
151082,155103,13310,-0.218,0.999,0.123,-0.976,-0.305,0.305,6.277
151091,155271,9125,-0.218,0.996,0.12,-0.061,0.061,0.366,6.281
151091,155137,13313,-0.22,1.001,0.119,-0.061,0.061,0.366,6.287
151100,155015,9125,-0.223,1.003,0.12,0.732,0.366,0.305,6.291
151100,155114,13296,-0.224,1.007,0.12,0.732,0.366,0.305,6.297
151085,155015,9125,-0.221,1.004,0.121,0.122,0.305,0.305,6.3
151085,155125,13311,-0.216,1.002,0.12,0.122,0.305,0.305,6.307
151097,155015,9125,-0.216,0.999,0.12,-0.61,0.061,0.061,6.31
151097,155105,13311,-0.211,0.996,0.12,-0.61,0.061,0.061,6.316
151085,155015,9125,-0.21,0.995,0.117,-0.61,0.305,-0.061,6.32
151085,155123,13307,-0.213,0.995,0.114,-0.61,0.305,-0.061,6.326
151108,155015,9125,-0.216,0.998,0.115,-0.183,0.549,0.244,6.33
151108,155102,13307,-0.22,0.998,0.115,-0.183,0.549,0.244,6.336
151082,155015,9125,-0.219,1.002,0.113,-0.305,0.427,0.549,6.34
151082,155132,13299,-0.216,1.001,0.113,-0.305,0.427,0.549,6.346
151077,155015,9125,-0.215,1,0.114,-0.488,0.366,0.366,6.35
151077,155123,13288,-0.218,0.994,0.117,-0.488,0.366,0.366,6.356
151088,155015,9125,-0.22,1.001,0.111,-0.122,0.427,0.244,6.36
151088,155119,13309,-0.222,1.004,0.115,-0.122,0.427,0.244,6.366
151087,155015,9125,-0.222,1.004,0.115,-0.122,0.427,0.244,6.37
151087,155088,13311,-0.22,1,0.123,-0.183,0.183,0.183,6.376
151080,155015,9125,-0.22,1,0.123,-0.183,0.183,0.183,6.38
151080,155109,13304,-0.224,0.997,0.124,-0.305,0,0.061,6.386
151093,155015,9125,-0.224,0.997,0.124,-0.305,0,0.061,6.39
151093,155078,13301,-0.222,0.994,0.119,-0.305,0.183,-0.183,6.396
151091,155015,9125,-0.222,0.994,0.119,-0.305,0.183,-0.183,6.399
151091,155101,13307,-0.221,1.001,0.122,-0.061,0.305,0,6.406
151091,155015,9125,-0.221,1.001,0.122,-0.061,0.305,0,6.409
151091,155089,13312,-0.222,0.998,0.121,-0.366,0.366,0.305,6.415
151077,155015,9125,-0.222,0.998,0.121,-0.366,0.366,0.305,6.419
151077,155078,13309,-0.22,0.996,0.124,-0.61,0.366,0.305,6.425
151083,155015,9125,-0.22,0.996,0.124,-0.61,0.366,0.305,6.429
151083,155099,13305,-0.22,1,0.115,-0.61,0.488,0.427,6.435
151081,155015,9125,-0.22,1,0.115,-0.61,0.488,0.427,6.439
151081,155116,13307,-0.222,1,0.122,-0.427,0.549,0.549,6.445
151105,155015,9125,-0.222,1,0.122,-0.427,0.549,0.549,6.449
151105,155119,13321,-0.22,1,0.114,-0.183,0.488,0.488,6.455
151126,155015,9125,-0.22,1,0.114,-0.183,0.488,0.488,6.459
151126,155125,13321,-0.215,1.001,0.121,0,0.732,0.488,6.465
151113,155271,9125,-0.215,1.001,0.121,0,0.732,0.488,6.469
151113,155167,13321,-0.219,0.998,0.117,0.061,0.793,0.305,6.475
151094,155015,9125,-0.219,0.998,0.117,0.061,0.793,0.305,6.479
151094,155122,13308,-0.219,1.001,0.115,0.061,0.488,0,6.485
151107,155015,9125,-0.219,1.001,0.115,0.061,0.488,0,6.489
151107,155126,13314,-0.222,0.998,0.112,0.122,0.305,0.244,6.495
151102,155271,9125,-0.222,0.998,0.112,0.122,0.305,0.244,6.498
151102,155138,13332,-0.222,0.998,0.12,0.122,0.427,0.427,6.505
151088,155015,9125,-0.222,0.998,0.12,0.122,0.427,0.427,6.508
151088,155119,13307,-0.223,0.997,0.119,-0.305,0.488,0.366,6.514
151103,155271,9125,-0.221,0.998,0.115,-0.305,0.488,0.366,6.518
151103,155153,13307,-0.222,1.001,0.11,-0.305,0.488,0.183,6.524
151096,155015,9125,-0.223,1,0.109,-0.305,0.488,0.183,6.528
151096,155123,13322,-0.224,0.997,0.114,-0.061,0.427,0.244,6.534
151104,155015,9125,-0.222,1.007,0.115,-0.061,0.427,0.244,6.538
151104,155133,13301,-0.22,1.005,0.115,-0.305,0.366,0.366,6.544
151103,155271,9125,-0.219,0.999,0.118,-0.305,0.366,0.366,6.548
151103,155146,13307,-0.217,0.996,0.116,0.061,0.366,0.061,6.554
151122,155015,9125,-0.22,0.996,0.115,0.061,0.366,0.061,6.558
151122,155129,13307,-0.223,0.999,0.119,0.488,0.61,0,6.564
151115,155271,9125,-0.223,1,0.122,0.488,0.61,0,6.568
151115,155136,13319,-0.225,0.997,0.121,0.488,0.61,0.061,6.574
151104,155271,9125,-0.224,0.993,0.119,0.488,0.61,0.061,6.578
151104,155147,13327,-0.219,0.998,0.122,-0.061,0.488,0,6.584
151107,155015,9125,-0.22,0.997,0.122,-0.061,0.488,0,6.588
151107,155132,13318,-0.221,0.996,0.116,-0.488,0.244,0.122,6.594
151094,155015,9125,-0.219,0.996,0.12,-0.488,0.244,0.122,6.597
151094,155120,13324,-0.219,0.998,0.119,-0.732,0,0.366,6.604
151105,155015,9125,-0.218,0.998,0.116,-0.732,0,0.366,6.607
151105,155110,13306,-0.218,0.998,0.114,-0.427,0.305,0.488,6.614
151105,155015,9125,-0.219,1.004,0.116,-0.427,0.305,0.488,6.617
151105,155104,13304,-0.222,1.007,0.124,-0.244,0.61,0.488,6.623
151098,155015,9125,-0.225,1.004,0.124,-0.244,0.61,0.488,6.627
151098,155065,13292,-0.223,0.998,0.116,-0.122,0.671,0.427,6.633
151096,155015,9125,-0.22,0.994,0.117,-0.122,0.671,0.427,6.637
151096,155076,13295,-0.218,1,0.118,0.183,0.488,0.122,6.643
151095,155015,9125,-0.218,1.001,0.117,0.183,0.488,0.122,6.647
151095,155063,13296,-0.218,1,0.115,0.122,0.671,0.305,6.653
151064,155015,9125,-0.219,0.999,0.115,0.122,0.671,0.305,6.657
151064,155056,13301,-0.219,0.992,0.116,-0.061,0.793,0.305,6.663
151078,155015,9125,-0.222,0.992,0.116,-0.061,0.793,0.305,6.667
151078,155044,13290,-0.221,0.997,0.115,-0.305,0.549,0.305,6.673
151067,155015,9125,-0.218,0.998,0.119,-0.305,0.549,0.305,6.677
151067,155049,13272,-0.221,0.998,0.12,-0.305,0.61,0.549,6.683
151068,155015,9125,-0.222,0.996,0.117,-0.305,0.61,0.549,6.687
151068,155058,13271,-0.224,0.997,0.12,-0.366,0.61,0.549,6.693
151071,155015,9125,-0.224,1,0.117,-0.366,0.61,0.549,6.696
151071,155047,13279,-0.224,1,0.117,-0.61,0.427,0.488,6.703
151092,155015,9125,-0.225,0.998,0.113,-0.61,0.427,0.488,6.706
151092,155054,13260,-0.225,0.997,0.114,-0.671,0.305,0.549,6.713
151063,155015,9125,-0.222,1.001,0.119,-0.671,0.305,0.549,6.716
151063,155056,13278,-0.217,0.999,0.118,-0.488,0.244,0.427,6.722
151086,155015,9125,-0.22,0.999,0.117,-0.488,0.244,0.427,6.726
151086,155048,13265,-0.22,1.001,0.118,-0.122,-0.061,0.427,6.732
151079,155015,9125,-0.219,1,0.121,-0.122,-0.061,0.427,6.736
151079,155058,13273,-0.215,1.001,0.121,0.244,0.122,0.366,6.742
151105,155015,9125,-0.217,0.999,0.116,0.244,0.122,0.366,6.746
151105,155054,13281,-0.216,0.995,0.114,0.061,0.305,0.183,6.752
151093,155015,9125,-0.216,0.998,0.108,0.061,0.305,0.183,6.756
151093,155057,13275,-0.216,1.003,0.112,-0.183,0.183,0.366,6.762
151111,155015,9125,-0.216,1.003,0.111,-0.183,0.183,0.366,6.766
151111,155054,13260,-0.217,0.999,0.112,-0.061,0.061,0.366,6.772
151102,155015,9125,-0.217,0.998,0.111,-0.061,0.061,0.366,6.776
151102,155063,13281,-0.22,1,0.116,0.061,0.122,0.244,6.782
151132,155015,9125,-0.223,1,0.12,0.061,0.122,0.244,6.786
151132,155051,13258,-0.22,0.999,0.12,0,0.122,0.305,6.792
151121,155015,9125,-0.221,0.999,0.116,0,0.122,0.305,6.795
151121,155061,13260,-0.225,0.998,0.117,0.305,0.122,0.244,6.802
151112,155015,9125,-0.221,1.001,0.114,0.305,0.122,0.244,6.805
151112,155059,13267,-0.224,1.004,0.114,0.427,0.244,0.366,6.812
151111,155015,9125,-0.225,1.002,0.113,0.427,0.244,0.366,6.815
151111,155048,13258,-0.223,0.996,0.118,0.061,0.122,0.305,6.821
151098,155015,9125,-0.221,0.996,0.114,0.061,0.122,0.305,6.825
151098,155041,13265,-0.22,0.996,0.115,-0.305,0.122,0.183,6.831
151107,155015,9125,-0.222,0.996,0.118,-0.305,0.122,0.183,6.835
151107,155074,13275,-0.222,0.998,0.118,-0.244,0.427,0.305,6.841
151101,155015,9125,-0.219,0.995,0.119,-0.244,0.427,0.305,6.845
151101,155042,13270,-0.217,0.998,0.121,0.122,0.488,0.366,6.851
151111,155015,9125,-0.22,1,0.124,0.122,0.488,0.366,6.855
151111,155068,13265,-0.22,1.001,0.122,0.244,0.671,0.366,6.861
151108,155015,9125,-0.222,0.999,0.12,0.244,0.671,0.366,6.865
151108,155059,13268,-0.221,0.999,0.121,0.061,0.793,0.488,6.871
151113,155015,9125,-0.22,0.999,0.116,0.061,0.793,0.488,6.875
151113,155059,13269,-0.22,0.999,0.116,-0.366,0.61,0.366,6.881
151129,155015,9125,-0.219,1,0.118,-0.366,0.61,0.366,6.885
151129,155071,13266,-0.218,0.995,0.118,-0.488,0.61,0.244,6.891
151120,155015,9125,-0.218,0.995,0.111,-0.488,0.61,0.244,6.894
151120,155052,13273,-0.221,0.999,0.114,-0.549,0.732,0.549,6.901
151129,155015,9125,-0.223,0.999,0.115,-0.549,0.732,0.549,6.904
151129,155074,13265,-0.221,0.999,0.114,-0.122,0.732,0.549,6.911
151129,155015,9125,-0.221,1.003,0.113,-0.122,0.732,0.549,6.914
151129,155089,13273,-0.222,1.004,0.121,0.122,0.854,0.366,6.92
151143,155015,9125,-0.223,1.001,0.119,0.122,0.854,0.366,6.924
151143,155081,13261,-0.221,1,0.115,0.427,1.037,0.366,6.93
151121,155015,9125,-0.223,1.003,0.117,0.427,1.037,0.366,6.934
151121,155073,13267,-0.224,1.003,0.113,0.122,0.854,0.244,6.94
151107,155015,9125,-0.221,1,0.107,0.122,0.854,0.244,6.944
151107,155088,13275,-0.217,0.995,0.11,-0.305,0.366,0,6.95
151104,155015,9125,-0.217,0.996,0.116,-0.305,0.366,0,6.954
151104,155108,13267,-0.219,0.998,0.116,-0.122,0.366,0.122,6.96
151103,155015,9125,-0.219,0.998,0.116,-0.122,0.366,0.122,6.964
151103,155075,13260,-0.22,0.999,0.114,0.183,0.671,0.244,6.97
151121,155015,9125,-0.22,0.999,0.114,0.183,0.671,0.244,6.974
151121,155069,13251,-0.222,0.998,0.118,0.305,0.488,0.244,6.98
151112,155015,9125,-0.222,0.998,0.118,0.305,0.488,0.244,6.984
151112,155074,13285,-0.222,1,0.117,0.061,0.427,0.366,6.99
151119,155015,9125,-0.222,1,0.117,0.061,0.427,0.366,6.993
151119,155047,13256,-0.221,0.999,0.112,-0.061,0.488,0.244,7
151087,155015,9125,-0.221,0.999,0.112,-0.061,0.488,0.244,7.003
151087,155059,13253,-0.22,0.995,0.114,0.061,0.305,0.366,7.01
151092,155015,9125,-0.22,0.995,0.114,0.061,0.305,0.366,7.013
151092,155065,13258,-0.224,1.001,0.115,0,0.183,0.488,7.019
151098,155015,9125,-0.224,1.001,0.115,0,0.183,0.488,7.023
151098,155044,13242,-0.223,0.998,0.119,-0.122,0.305,0.488,7.029
151118,155015,9125,-0.223,0.998,0.119,-0.122,0.305,0.488,7.033
151118,155075,13257,-0.223,0.999,0.118,-0.183,0.366,0.549,7.039
151137,155015,9125,-0.223,0.999,0.118,-0.183,0.366,0.549,7.043
151137,155056,13277,-0.222,0.998,0.12,0.122,0.244,0.671,7.049
151144,155015,9125,-0.222,0.998,0.12,0.122,0.244,0.671,7.053
151144,155078,13260,-0.221,0.998,0.12,-0.183,0.427,0.671,7.059
151158,155015,9125,-0.221,0.998,0.12,-0.183,0.427,0.671,7.063
151158,155085,13254,-0.22,0.994,0.114,-0.488,0.244,0.61,7.069
151150,155015,9125,-0.22,0.994,0.114,-0.488,0.244,0.61,7.073
151150,155089,13258,-0.221,0.997,0.111,-0.549,0.305,0.671,7.079
151164,155015,9125,-0.221,0.997,0.111,-0.549,0.305,0.671,7.083
151164,155089,13245,-0.219,1.001,0.115,-0.244,0.549,0.854,7.089
151144,155015,9125,-0.219,1.001,0.115,-0.244,0.549,0.854,7.092
151144,155101,13260,-0.219,1,0.114,-0.244,0.549,0.671,7.099
151168,155015,9125,-0.219,1,0.114,-0.244,0.549,0.671,7.102
151168,155079,13263,-0.224,1.003,0.117,-0.244,0.549,0.671,7.109
151160,155015,9125,-0.22,1.003,0.116,-0.305,0.366,0.549,7.112
151160,155090,13268,-0.219,1,0.118,-0.305,0.366,0.549,7.118
151149,155015,9125,-0.219,0.998,0.12,-0.061,0.122,0.366,7.122
151149,155105,13268,-0.22,0.997,0.116,-0.061,0.122,0.366,7.128
151168,155015,9125,-0.22,0.998,0.116,0.122,0.244,0.305,7.132
151168,155111,13269,-0.216,1.002,0.115,0.122,0.244,0.305,7.138
151162,155015,9125,-0.22,0.999,0.119,0.061,0.427,0.488,7.142
151162,155087,13258,-0.216,0.997,0.118,0.061,0.427,0.488,7.148
151146,155015,9125,-0.217,0.994,0.118,0,0.488,0.427,7.152
151146,155115,13260,-0.218,0.996,0.121,0,0.488,0.427,7.158
151131,155015,9125,-0.22,1.001,0.118,0,0.549,0.427,7.162
151131,155101,13280,-0.217,1.002,0.122,0,0.549,0.427,7.168
151168,155015,9125,-0.219,0.999,0.123,0,0.732,0.549,7.172
151168,155108,13259,-0.219,0.996,0.119,0,0.732,0.549,7.178
151137,155015,9125,-0.218,0.995,0.12,0.122,0.793,0.427,7.182
151137,155106,13260,-0.219,0.998,0.116,0.122,0.793,0.427,7.188
151128,155015,9125,-0.22,0.999,0.115,-0.061,0.61,0.366,7.191
151128,155120,13260,-0.217,1.001,0.116,-0.061,0.61,0.366,7.198
151119,155015,9125,-0.218,0.997,0.118,0.061,0.793,0.427,7.201
151119,155096,13270,-0.221,0.997,0.117,0.061,0.793,0.427,7.208
151141,155015,9125,-0.223,0.993,0.121,0.305,1.098,0.488,7.211
151141,155097,13251,-0.222,0.996,0.114,0.305,1.098,0.488,7.217
151122,155015,9125,-0.22,1,0.112,0.061,0.854,0.549,7.221
151122,155102,13266,-0.22,1.003,0.117,0.061,0.854,0.549,7.227
151122,155015,9125,-0.219,1,0.118,-0.061,0.671,0.61,7.231
151122,155089,13265,-0.219,0.999,0.119,-0.061,0.671,0.61,7.237
151142,155015,9125,-0.219,1.001,0.122,-0.183,0.793,0.427,7.241
151142,155080,13269,-0.221,0.999,0.119,-0.183,0.793,0.427,7.247
151123,155015,9125,-0.222,0.997,0.118,0,0.915,0.366,7.251
151123,155086,13278,-0.221,0.998,0.117,0,0.915,0.366,7.257
151131,155015,9125,-0.22,0.998,0.116,0.061,0.793,0.488,7.261
151131,155093,13272,-0.221,0.999,0.115,0.061,0.793,0.488,7.267
151120,155015,9125,-0.219,0.997,0.114,0.183,0.732,0.549,7.271
151120,155103,13256,-0.216,0.997,0.117,0.183,0.732,0.549,7.277
151147,155015,9125,-0.217,1,0.117,-0.061,0.671,0.549,7.281
151147,155078,13250,-0.222,0.998,0.118,-0.061,0.671,0.549,7.287
151122,155015,9125,-0.219,0.995,0.118,-0.183,0.915,0.61,7.29
151122,155098,13269,-0.227,0.998,0.115,-0.183,0.915,0.61,7.297
151153,155015,9125,-0.223,1.001,0.113,-0.061,0.793,0.671,7.3
151153,155094,13267,-0.221,0.999,0.114,-0.061,0.793,0.671,7.307
151125,155015,9125,-0.221,0.997,0.11,-0.244,0.549,0.671,7.31
151125,155081,13266,-0.221,1,0.105,-0.244,0.549,0.671,7.316
151139,155015,9125,-0.219,0.995,0.106,-0.061,0.488,0.549,7.32
151139,155081,13268,-0.223,1.001,0.111,-0.061,0.488,0.549,7.326
151134,155015,9125,-0.222,1.008,0.113,0,0.549,0.488,7.33
151134,155088,13269,-0.22,1.002,0.115,0,0.549,0.488,7.336
151134,155015,9125,-0.221,0.997,0.111,0.122,0.427,0.549,7.34
151134,155070,13257,-0.22,0.998,0.114,0.122,0.427,0.549,7.346
151142,155015,9125,-0.217,1.002,0.114,-0.244,0.244,0.427,7.35
151142,155097,13272,-0.217,1.005,0.114,-0.244,0.244,0.427,7.356
151152,155015,9125,-0.216,1,0.113,-0.427,0.305,0.427,7.36
151152,155082,13250,-0.216,0.995,0.112,-0.427,0.305,0.427,7.366
151151,155015,9125,-0.213,0.992,0.113,-0.183,0.427,0.244,7.37
151151,155117,13261,-0.215,0.997,0.115,-0.183,0.427,0.244,7.376
151149,155015,9125,-0.22,0.998,0.115,0,0.427,0.366,7.38
151149,155088,13274,-0.22,0.998,0.116,0,0.427,0.366,7.386
151124,155015,9125,-0.221,0.993,0.118,-0.122,0.427,0.488,7.389
151124,155097,13286,-0.222,0.994,0.121,-0.122,0.427,0.488,7.396
151130,155015,9125,-0.222,0.998,0.114,-0.061,0.488,0.366,7.399
151130,155087,13256,-0.224,1.001,0.115,-0.061,0.488,0.366,7.406
151119,155015,9125,-0.222,1.003,0.115,0,0.305,0.427,7.409
151119,155097,13279,-0.223,0.998,0.115,0,0.305,0.427,7.415
151129,155015,9125,-0.223,1,0.113,-0.244,0.122,0.549,7.419
151129,155105,13250,-0.222,1.002,0.116,-0.244,0.122,0.549,7.425
151107,155015,9125,-0.222,1.001,0.118,-0.488,0,0.61,7.429
151107,155105,13271,-0.224,1,0.118,-0.488,0,0.61,7.435
151123,155015,9125,-0.221,0.997,0.115,0,0.183,0.549,7.439
151123,155086,13268,-0.223,0.998,0.114,0,0.183,0.549,7.445
151116,155015,9125,-0.219,1.003,0.114,0.427,0.366,0.488,7.449
151116,155111,13286,-0.221,1.001,0.109,0.427,0.366,0.488,7.455
151095,155015,9125,-0.219,0.997,0.109,0.244,0.366,0.305,7.459
151095,155100,13282,-0.217,1,0.116,0.244,0.366,0.305,7.465
151132,155015,9125,-0.215,0.999,0.112,-0.244,0.244,0.305,7.469
151132,155117,13257,-0.213,0.999,0.114,-0.244,0.244,0.305,7.475
151098,155015,9125,-0.214,0.996,0.11,-0.427,0.183,0.366,7.479
151098,155090,13271,-0.213,1.001,0.111,-0.427,0.183,0.366,7.485
151103,155015,9125,-0.216,1.002,0.117,-0.427,0.244,0.61,7.488
151103,155083,13268,-0.215,1.001,0.124,-0.427,0.244,0.61,7.495
151080,155015,9125,-0.216,0.997,0.12,0,0.488,0.488,7.498
151080,155105,13287,-0.222,0.993,0.123,0,0.488,0.488,7.505
151087,155015,9125,-0.218,0.996,0.12,0.366,0.488,0.305,7.508
151087,155084,13287,-0.221,0.999,0.117,0.366,0.488,0.305,7.514
151072,155015,9125,-0.222,1,0.118,0.122,0.183,0.427,7.518
151072,155081,13271,-0.22,1,0.12,0.122,0.183,0.427,7.524
151077,155015,9125,-0.22,0.994,0.12,-0.305,0.244,0.488,7.528
151077,155071,13275,-0.222,0.996,0.118,-0.305,0.244,0.488,7.534
151067,155015,9125,-0.222,0.997,0.12,-0.488,0.305,0.244,7.538
151067,155063,13259,-0.221,0.997,0.121,-0.488,0.305,0.244,7.544
151068,155015,9125,-0.221,0.997,0.121,-0.488,0.305,0.244,7.548
151068,155080,13295,-0.222,0.997,0.116,-0.549,0.427,0.61,7.554
151047,155015,9125,-0.222,0.997,0.116,-0.549,0.427,0.61,7.558
151047,155068,13273,-0.219,1.001,0.114,-0.488,0.549,0.671,7.564
151074,155015,9125,-0.219,1.001,0.114,-0.488,0.549,0.671,7.568
151074,155070,13265,-0.217,1.001,0.12,-0.305,0.549,0.671,7.574
151035,155015,9125,-0.217,1.001,0.12,-0.305,0.549,0.671,7.578
151035,155067,13274,-0.22,1.001,0.115,0.183,0.854,0.793,7.584
151066,155015,9125,-0.22,1.001,0.115,0.183,0.854,0.793,7.587
151066,155052,13276,-0.223,1.003,0.117,-0.183,0.854,0.61,7.594
151070,155015,9125,-0.223,1.003,0.117,-0.183,0.854,0.61,7.597
151070,155067,13291,-0.217,0.998,0.11,-0.305,0.61,0.488,7.604
151072,155015,9125,-0.217,0.998,0.11,-0.305,0.61,0.488,7.607
151072,155061,13289,-0.218,0.999,0.104,-0.122,0.671,0.366,7.613
151065,155015,9125,-0.218,0.999,0.104,-0.122,0.671,0.366,7.617
151065,155050,13285,-0.218,1.002,0.109,-0.122,0.732,0.549,7.623
151071,155015,9125,-0.218,1.002,0.109,-0.122,0.732,0.549,7.627
151071,155068,13278,-0.217,1,0.108,0.122,0.732,0.671,7.633
151044,155015,9125,-0.217,1,0.108,0.122,0.732,0.671,7.637
151044,155069,13278,-0.219,1.001,0.107,-0.061,0.732,0.488,7.643
151049,155015,9125,-0.219,1.001,0.107,-0.061,0.732,0.488,7.647
151049,155062,13284,-0.217,1.002,0.114,-0.366,0.427,0.244,7.653
151051,155015,9125,-0.217,1.002,0.114,-0.366,0.427,0.244,7.657
151051,155069,13288,-0.221,1,0.113,-0.122,0.366,0.305,7.663
151062,155015,9125,-0.221,1,0.113,-0.122,0.366,0.305,7.667
151062,155090,13292,-0.222,1,0.116,0.122,0.488,0.183,7.673
151062,155015,9125,-0.222,1,0.116,0.122,0.488,0.183,7.677
151062,155071,13270,-0.219,0.996,0.118,0.244,0.549,0,7.683
151051,155015,9125,-0.219,0.996,0.118,0.244,0.549,0,7.687
151051,155086,13280,-0.226,0.994,0.118,0.244,0.366,0.061,7.693
151057,155015,9125,-0.226,0.994,0.118,0.244,0.366,0.061,7.696
151057,155082,13283,-0.221,0.996,0.122,-0.366,0.183,0.366,7.703
151061,155015,9125,-0.222,0.995,0.119,-0.366,0.183,0.366,7.706
151061,155090,13285,-0.225,0.998,0.113,-0.122,0.244,0.488,7.712
151073,155015,9125,-0.222,1.001,0.119,-0.122,0.244,0.488,7.716
151073,155090,13289,-0.221,0.998,0.122,-0.061,0.244,0.549,7.722
151059,155015,9125,-0.225,0.994,0.121,-0.061,0.244,0.549,7.726
151059,155101,13288,-0.226,0.997,0.118,-0.122,0.427,0.427,7.732
151078,155015,9125,-0.225,0.999,0.117,-0.122,0.427,0.427,7.736
151078,155095,13287,-0.22,1,0.118,-0.183,0.427,0.183,7.742
151035,155015,9125,-0.219,0.999,0.118,-0.183,0.427,0.183,7.746
151035,155093,13302,-0.22,0.999,0.12,-0.244,0.366,0.366,7.752
151039,155015,9125,-0.216,0.998,0.122,-0.244,0.366,0.366,7.756
151039,155083,13286,-0.214,0.995,0.118,-0.366,0.366,0.427,7.762
151046,155015,9125,-0.212,0.995,0.114,-0.366,0.366,0.427,7.766
151046,155042,13274,-0.216,0.997,0.113,-0.305,0.305,0.427,7.772
151037,155015,9125,-0.215,1.001,0.11,-0.305,0.305,0.427,7.776
151037,155019,13286,-0.212,1.003,0.107,-0.305,0.366,0.793,7.782
151033,155015,9125,-0.214,0.998,0.111,-0.305,0.366,0.793,7.785
151033,155004,13269,-0.221,1.001,0.11,-0.488,0.366,0.61,7.792
151037,155015,9125,-0.213,1.004,0.111,-0.488,0.366,0.61,7.795
151037,154990,13264,-0.217,1.004,0.109,-0.488,0.427,0.488,7.802
151032,155015,9125,-0.219,1.003,0.111,-0.488,0.427,0.488,7.805
151032,154988,13269,-0.218,1,0.114,-0.122,0.549,0.366,7.811
151030,155015,9125,-0.221,0.999,0.114,-0.122,0.549,0.366,7.815
151030,154972,13267,-0.224,1,0.115,-0.122,0.61,0.366,7.821
151039,155015,9125,-0.221,0.998,0.113,-0.122,0.61,0.366,7.825
151039,154982,13272,-0.219,1,0.117,-0.122,0.427,0.366,7.831
151026,155015,9125,-0.217,0.998,0.118,-0.122,0.427,0.366,7.835
151026,154989,13256,-0.219,0.995,0.116,0.244,0.61,0.244,7.841
151048,155015,9125,-0.219,0.994,0.117,0.244,0.61,0.244,7.845
151048,154983,13239,-0.222,0.995,0.12,0.305,0.793,0.305,7.851
151042,155015,9125,-0.222,0.995,0.121,0.305,0.793,0.305,7.855
151042,154985,13249,-0.223,0.998,0.123,-0.244,0.488,0.305,7.861
151026,155015,9125,-0.221,0.998,0.118,-0.244,0.488,0.305,7.865
151026,154984,13250,-0.223,0.997,0.115,-0.488,0.427,0.427,7.871
151043,155015,9125,-0.221,0.996,0.117,-0.488,0.427,0.427,7.875
151043,154991,13246,-0.215,0.997,0.116,-0.61,0.305,0.61,7.881
151052,155015,9125,-0.218,1.003,0.115,-0.61,0.305,0.61,7.884
151052,154995,13235,-0.218,0.999,0.114,-0.732,0.366,0.671,7.891
151040,155015,9125,-0.213,0.998,0.116,-0.732,0.366,0.671,7.894
151040,155014,13249,-0.214,0.999,0.111,-0.732,0.488,0.61,7.901
151054,155015,9125,-0.215,1.002,0.113,-0.732,0.488,0.61,7.904
151054,154995,13255,-0.211,1.001,0.116,-0.793,0.427,0.427,7.91
151047,155015,9125,-0.213,1,0.115,-0.793,0.427,0.427,7.914
151047,154998,13244,-0.214,1.002,0.117,-0.61,0.671,0.366,7.92
151046,155015,9125,-0.213,1.001,0.116,-0.61,0.671,0.366,7.924
151046,155006,13232,-0.21,0.998,0.118,-0.61,0.61,0.244,7.93
151065,155015,9125,-0.214,1,0.115,-0.61,0.61,0.244,7.934
151065,155008,13245,-0.217,1.002,0.116,-0.793,0.671,0.366,7.94
151060,155015,9125,-0.214,0.997,0.118,-0.793,0.671,0.366,7.944
151060,155005,13235,-0.214,0.996,0.122,-0.915,0.793,0.366,7.95
151049,155015,9125,-0.217,0.993,0.123,-0.915,0.793,0.366,7.954
151049,155000,13246,-0.217,0.995,0.122,-0.793,0.915,0.488,7.96
151043,155015,9125,-0.218,0.994,0.121,-0.793,0.915,0.488,7.964
151043,154999,13246,-0.221,0.998,0.118,-0.549,0.976,0.671,7.97
151058,155015,9125,-0.221,1.005,0.117,-0.549,0.976,0.671,7.974
151058,154991,13228,-0.218,1.004,0.115,-0.549,0.854,0.671,7.98
151038,155015,9125,-0.222,0.999,0.118,-0.549,0.854,0.671,7.983
151038,154991,13254,-0.219,1.001,0.116,-0.915,0.793,0.549,7.99
151057,155015,9125,-0.222,0.999,0.115,-0.915,0.793,0.549,7.993
151057,154975,13238,-0.223,0.993,0.107,-0.671,0.915,0.488,8
151065,155015,9125,-0.222,1.001,0.111,-0.671,0.915,0.488,8.003
151065,155009,13250,-0.222,1.004,0.109,-0.366,1.098,0.366,8.009
151060,155015,9125,-0.22,1.004,0.113,-0.366,1.098,0.366,8.013
151060,155018,13262,-0.221,0.998,0.112,0.305,1.341,0.183,8.019
151068,155015,9125,-0.223,0.997,0.115,0.305,1.341,0.183,8.023
151068,154999,13243,-0.221,0.996,0.113,0.732,1.402,0.061,8.029
151056,155015,9125,-0.22,1.002,0.11,0.732,1.402,0.061,8.033
151056,155000,13252,-0.226,1,0.111,0.366,1.159,0.122,8.039
151064,155015,9125,-0.226,0.999,0.115,0.366,1.159,0.122,8.043
151064,155003,13228,-0.224,0.995,0.116,-0.122,0.976,0.122,8.049
151058,155015,9125,-0.22,0.995,0.118,-0.122,0.976,0.122,8.053
151058,155010,13253,-0.22,0.993,0.116,-0.244,0.976,0.427,8.059
151074,155015,9125,-0.221,0.996,0.117,-0.244,0.976,0.427,8.063
151074,155018,13241,-0.223,1.001,0.115,-0.061,1.037,0.732,8.069
151067,155015,9125,-0.219,0.999,0.115,-0.061,1.037,0.732,8.073
151067,155020,13252,-0.222,1.003,0.109,0.122,1.037,0.671,8.079
151076,155015,9125,-0.219,1,0.105,0.122,1.037,0.671,8.083
151076,155036,13240,-0.22,0.997,0.105,0.183,0.915,0.366,8.089
151051,155015,9125,-0.221,0.997,0.105,0.183,0.915,0.366,8.092
151051,155029,13233,-0.219,1.003,0.112,-0.183,0.671,0.427,8.099
151091,155015,9125,-0.219,1.005,0.113,-0.183,0.671,0.427,8.102
151091,155010,13235,-0.217,1,0.112,-0.061,0.549,0.366,8.108
151064,155015,9125,-0.218,0.996,0.112,-0.061,0.549,0.366,8.112
151064,155026,13235,-0.218,0.999,0.11,0.061,0.488,0.061,8.118
151066,155015,9125,-0.221,1.003,0.108,0.061,0.488,0.061,8.122
151066,154999,13245,-0.222,1,0.113,-0.244,0.305,0.061,8.128
151065,155015,9125,-0.221,0.996,0.118,-0.244,0.305,0.061,8.132
151065,155006,13241,-0.221,0.995,0.119,-0.183,0.122,0.061,8.138
151068,155015,9125,-0.221,0.995,0.119,-0.183,0.122,0.061,8.142
151068,155023,13234,-0.219,0.993,0.117,-0.549,0.122,0.366,8.148
151067,155015,9125,-0.219,0.993,0.117,-0.549,0.122,0.366,8.152
151067,155031,13238,-0.221,1.001,0.115,-0.671,0.061,0.61,8.158
151059,155015,9125,-0.221,1.001,0.115,-0.671,0.061,0.61,8.162
151059,155036,13239,-0.217,1.001,0.113,-0.854,0.183,0.549,8.168
151050,155015,9125,-0.217,1.001,0.113,-0.854,0.183,0.549,8.172
151050,155014,13244,-0.219,1,0.122,-1.037,0.122,0.549,8.178
151070,155015,9125,-0.219,1,0.122,-1.037,0.122,0.549,8.181
151070,155034,13230,-0.221,1.003,0.118,-1.098,0.244,0.488,8.188
151060,155015,9125,-0.221,1.003,0.118,-1.098,0.244,0.488,8.191
151060,155016,13232,-0.219,1,0.115,-0.793,0.305,0.488,8.198
151068,155015,9125,-0.219,1,0.115,-0.793,0.305,0.488,8.201
151068,155027,13233,-0.215,0.998,0.119,-0.488,0.366,0.305,8.207
151087,155015,9125,-0.215,0.998,0.119,-0.488,0.366,0.305,8.211
151087,155029,13243,-0.216,0.995,0.116,-0.122,0.549,0.305,8.217
151066,155015,9125,-0.216,0.995,0.116,-0.122,0.549,0.305,8.221
151066,155034,13252,-0.213,0.997,0.115,0.305,0.488,0.488,8.227
151051,155015,9125,-0.213,0.997,0.115,0.305,0.488,0.488,8.231
151051,155001,13237,-0.215,1.001,0.115,-0.122,0.427,0.427,8.237
151057,155015,9125,-0.215,1.001,0.115,-0.122,0.427,0.427,8.241
151057,155019,13239,-0.213,1,0.118,-0.366,0.366,0.244,8.247
151036,155015,9125,-0.213,1,0.118,-0.366,0.366,0.244,8.251
151036,155034,13246,-0.219,0.998,0.117,-0.488,0.244,0.183,8.257
151043,155015,9125,-0.219,0.998,0.117,-0.488,0.244,0.183,8.261
151043,155002,13244,-0.218,0.999,0.114,-0.305,0.366,0.366,8.267
151048,155015,9125,-0.218,0.999,0.114,-0.305,0.366,0.366,8.271
151048,155000,13232,-0.223,1,0.116,-0.305,0.244,0.305,8.277
151039,155015,9125,-0.223,1,0.116,-0.305,0.244,0.305,8.281
151039,155020,13248,-0.22,1,0.118,-0.305,0.244,0.305,8.287
151055,155015,9125,-0.222,0.998,0.116,-0.549,0.244,0.305,8.29
151055,155011,13239,-0.221,1,0.114,-0.549,0.244,0.305,8.297
151053,155015,9125,-0.219,0.997,0.115,-0.427,0.244,0.244,8.3
151053,155006,13256,-0.223,0.993,0.113,-0.427,0.244,0.244,8.306
151048,155015,9125,-0.223,0.997,0.109,0.183,0.427,0.366,8.31
151048,155035,13247,-0.223,1,0.11,0.183,0.427,0.366,8.316
151060,155015,9125,-0.222,0.996,0.112,0.244,0.488,0.61,8.32
151060,155020,13253,-0.219,0.997,0.114,0.244,0.488,0.61,8.326
151049,155015,9125,-0.218,1.001,0.117,0,0.305,0.549,8.33
151049,155024,13234,-0.218,1.006,0.117,0,0.305,0.549,8.336
151028,155015,9125,-0.219,1.008,0.118,-0.305,0.366,0.488,8.34
151028,155016,13248,-0.218,1.006,0.12,-0.305,0.366,0.488,8.346
151047,155015,9125,-0.219,1.003,0.115,-0.488,0.244,0.244,8.35
151047,155015,13242,-0.216,0.997,0.113,-0.488,0.244,0.244,8.356
151021,155015,9125,-0.214,0.995,0.109,-0.671,0.183,0.244,8.36
151021,155017,13255,-0.215,0.995,0.114,-0.671,0.183,0.244,8.366
151044,155015,9125,-0.217,0.994,0.117,-0.549,0.366,0.366,8.37
151044,155029,13262,-0.216,0.993,0.12,-0.549,0.366,0.366,8.376
151057,155015,9125,-0.22,0.992,0.119,0.244,0.61,0.305,8.38
151057,155048,13248,-0.218,0.997,0.12,0.244,0.61,0.305,8.386
151042,155015,9125,-0.224,1,0.116,0.488,0.427,0.305,8.389
151042,155052,13258,-0.225,1.001,0.119,0.488,0.427,0.305,8.396
151054,155015,9125,-0.224,1.002,0.114,-0.122,0.061,0.244,8.399
151054,155063,13259,-0.222,0.999,0.117,-0.122,0.061,0.244,8.406
151034,155015,9125,-0.22,0.997,0.116,-0.793,-0.366,0.122,8.409
151034,155033,13254,-0.219,0.998,0.115,-0.793,-0.366,0.122,8.415
151039,155015,9125,-0.221,0.999,0.113,-0.732,-0.305,0.244,8.419
151039,155041,13248,-0.223,0.998,0.115,-0.732,-0.305,0.244,8.425
151041,155015,9125,-0.224,1.001,0.118,-0.183,0,0.427,8.429
151041,155049,13264,-0.223,1.003,0.116,-0.183,0,0.427,8.435
151016,155015,9125,-0.225,1.003,0.114,-0.244,0.183,0.549,8.439
151016,155053,13264,-0.218,1,0.11,-0.244,0.183,0.549,8.445
151044,155015,9125,-0.216,1.001,0.113,-0.183,0.061,0.244,8.449
151044,155042,13272,-0.218,1.002,0.114,-0.183,0.061,0.244,8.455
151039,155015,9125,-0.215,1.002,0.11,-0.305,0.061,0.244,8.459
151039,155024,13246,-0.213,1.002,0.112,-0.305,0.061,0.244,8.465
151039,155015,9125,-0.213,1,0.109,-0.366,0.061,0.244,8.469
151039,155057,13255,-0.211,1.004,0.111,-0.366,0.061,0.244,8.475
151053,155015,9125,-0.211,0.999,0.114,-0.488,0.122,0.122,8.479
151053,155046,13251,-0.214,0.995,0.115,-0.488,0.122,0.122,8.485
151028,155015,9125,-0.216,0.995,0.121,-0.061,0.305,-0.122,8.488
151028,155038,13254,-0.215,0.995,0.12,-0.061,0.305,-0.122,8.495
151046,155015,9125,-0.214,0.996,0.121,0.244,0.244,-0.061,8.498
151046,155053,13249,-0.22,0.997,0.119,0.244,0.244,-0.061,8.504
151035,155015,9125,-0.22,0.995,0.113,0.183,0.061,0.122,8.508
151035,155042,13251,-0.219,1,0.118,0.183,0.061,0.122,8.514
151045,155015,9125,-0.22,0.995,0.12,-0.244,0,0.122,8.518
151045,155043,13236,-0.222,0.996,0.118,-0.244,0,0.122,8.524
151039,155015,9125,-0.223,0.998,0.116,-0.61,-0.122,0.122,8.528
151039,155029,13248,-0.224,0.998,0.117,-0.61,-0.122,0.122,8.534
151036,155015,9125,-0.224,0.999,0.118,-0.793,-0.183,0.366,8.538
151036,155062,13257,-0.22,1.002,0.118,-0.793,-0.183,0.366,8.544
151045,155015,9125,-0.222,0.997,0.122,-0.732,0,0.427,8.548
151045,155044,13269,-0.221,0.996,0.122,-0.732,0,0.427,8.554
151044,155015,9125,-0.224,0.997,0.117,-0.61,0.366,0.488,8.558
151044,155055,13258,-0.221,1.003,0.118,-0.61,0.366,0.488,8.564
151035,155015,9125,-0.215,1.005,0.125,-0.305,0.488,0.366,8.568
151035,155033,13266,-0.218,1.002,0.124,-0.305,0.488,0.366,8.574
151040,155015,9125,-0.217,1.001,0.119,0.061,0.732,0.122,8.578
151040,155052,13270,-0.215,1,0.117,0.061,0.732,0.122,8.584
151048,155015,9125,-0.216,0.996,0.119,0.244,0.732,0.183,8.587
151048,155031,13260,-0.215,0.998,0.117,0.244,0.732,0.183,8.594
151067,155015,9125,-0.215,0.998,0.117,-0.061,0.427,0.427,8.597
151067,155050,13261,-0.215,0.998,0.114,-0.061,0.427,0.427,8.604
151038,155015,9125,-0.213,0.996,0.118,-0.244,0.366,0.366,8.607
151038,155051,13262,-0.213,0.997,0.119,-0.244,0.366,0.366,8.613
151056,155015,9125,-0.218,0.998,0.117,-0.183,0.549,0.427,8.617
151056,155034,13262,-0.217,0.999,0.115,-0.183,0.549,0.427,8.623
151026,155015,9125,-0.217,1,0.111,-0.549,0.366,0.671,8.627
151026,155062,13263,-0.218,1.005,0.113,-0.549,0.366,0.671,8.633
151042,155015,9125,-0.217,1.004,0.111,-0.976,0.183,0.61,8.637
151042,155047,13248,-0.217,1.001,0.111,-0.976,0.183,0.61,8.643
151015,155015,9125,-0.219,0.998,0.113,-0.976,0.122,0.305,8.647
151015,155054,13265,-0.223,0.997,0.112,-0.976,0.122,0.305,8.653
151036,155015,9125,-0.224,1,0.115,-0.854,0.183,0.122,8.657
151036,155055,13258,-0.221,1.001,0.117,-0.854,0.183,0.122,8.663
151012,155015,9125,-0.221,1.003,0.116,-0.671,0.183,0.061,8.667
151012,155057,13273,-0.224,1,0.111,-0.671,0.183,0.061,8.673
151039,155015,9125,-0.221,0.999,0.113,-0.305,0.244,0.061,8.677
151039,155078,13261,-0.221,0.997,0.115,-0.305,0.244,0.061,8.683
151030,155015,9125,-0.222,0.997,0.117,-0.488,0.427,0.061,8.686
151030,155071,13281,-0.222,0.996,0.122,-0.488,0.427,0.061,8.693
151044,155015,9125,-0.225,0.996,0.115,-0.854,0.488,0.061,8.696
151044,155080,13264,-0.224,0.993,0.122,-0.854,0.488,0.061,8.703
151037,155015,9125,-0.224,0.994,0.124,-1.341,0.183,-0.183,8.706
151037,155076,13265,-0.227,0.993,0.124,-1.341,0.183,-0.183,8.712
151043,155015,9125,-0.225,0.998,0.121,-2.378,0.061,0,8.716
151043,155075,13267,-0.224,0.999,0.12,-2.378,0.061,0,8.722
151028,155015,9125,-0.219,0.997,0.121,-2.988,-0.305,0.061,8.726
151028,155063,13289,-0.214,0.993,0.123,-2.988,-0.305,0.061,8.732
151052,155015,9125,-0.214,0.993,0.123,-2.988,-0.305,0.061,8.736
151052,155068,13260,-0.221,0.999,0.125,-2.439,-0.427,0.122,8.742
151021,155015,9125,-0.221,0.999,0.125,-2.439,-0.427,0.122,8.746
151021,155033,13278,-0.219,1,0.121,-1.829,0.244,0.183,8.752
151033,155015,9125,-0.219,1,0.121,-1.829,0.244,0.183,8.756
151033,155041,13268,-0.217,0.998,0.119,-1.037,0.61,0.366,8.762
151007,155015,9125,-0.217,0.998,0.119,-1.037,0.61,0.366,8.766
151007,155023,13256,-0.218,1.005,0.12,-0.549,0.61,0.427,8.772
151002,155015,9125,-0.218,1.005,0.12,-0.549,0.61,0.427,8.776
151002,154997,13249,-0.22,0.997,0.115,-0.244,0.854,0.427,8.782
150989,155015,9125,-0.22,0.997,0.115,-0.244,0.854,0.427,8.785
150989,155013,13265,-0.219,0.995,0.114,0.061,0.854,0.427,8.792
151010,155015,9125,-0.219,0.995,0.114,0.061,0.854,0.427,8.795
151010,154968,13252,-0.219,0.998,0.119,0.061,0.61,0.549,8.802
151003,155015,9125,-0.219,0.998,0.119,0.061,0.61,0.549,8.805
151003,154999,13237,-0.221,0.997,0.12,-0.122,0.671,0.793,8.811
150987,155015,9125,-0.221,0.997,0.12,-0.122,0.671,0.793,8.815
150987,154951,13238,-0.223,0.998,0.114,-0.061,0.854,0.671,8.821
150991,155015,9125,-0.223,0.998,0.114,-0.061,0.854,0.671,8.825
150991,154953,13240,-0.223,1.003,0.117,-0.427,0.61,0.488,8.831
150986,155015,9125,-0.223,1.003,0.117,-0.427,0.61,0.488,8.835
150986,154973,13239,-0.221,0.995,0.112,-0.854,0.427,0.549,8.841
150986,155015,9125,-0.221,0.995,0.112,-0.854,0.427,0.549,8.845
150986,154979,13236,-0.221,0.996,0.117,-0.549,0.305,0.488,8.851
150989,155015,9125,-0.221,0.996,0.117,-0.549,0.305,0.488,8.855
150989,154969,13218,-0.221,1.003,0.117,0.122,0.427,0.549,8.861
150974,155015,9125,-0.221,1.003,0.117,0.122,0.427,0.549,8.865
150974,154960,13232,-0.218,1.004,0.124,0.671,0.671,0.671,8.871
150974,155015,9125,-0.218,1.004,0.124,0.671,0.671,0.671,8.875
150974,154980,13220,-0.217,1,0.12,0.366,0.488,0.488,8.881
150990,155015,9125,-0.219,0.999,0.119,0.366,0.488,0.488,8.884
150990,154949,13225,-0.22,0.995,0.114,-0.122,0.305,0.244,8.891
150969,155015,9125,-0.213,0.996,0.113,-0.122,0.305,0.244,8.894
150969,154944,13235,-0.214,1,0.117,-0.427,0.183,0.305,8.901
150992,155015,9125,-0.215,0.997,0.127,-0.427,0.183,0.305,8.904
150992,154938,13223,-0.219,0.989,0.125,0.061,0.244,0.427,8.91
150982,155015,9125,-0.22,0.994,0.103,0.061,0.244,0.427,8.914
150982,154941,13210,-0.216,1.006,0.104,0.366,0,0.549,8.92
150972,155015,9125,-0.215,1.013,0.116,0.366,0,0.549,8.924
150972,154940,13214,-0.216,1.013,0.121,-0.427,-0.122,0.488,8.93
150967,155015,9125,-0.218,0.993,0.12,-0.427,-0.122,0.488,8.934
150967,154948,13224,-0.222,0.983,0.114,-0.549,0.427,0,8.94
150956,155015,9125,-0.22,0.989,0.112,-0.549,0.427,0,8.944
150956,154946,13221,-0.221,1.001,0.117,-0.366,-0.183,0,8.95
150964,155015,9125,-0.222,1.011,0.119,-0.366,-0.183,0,8.954
150964,154934,13216,-0.219,1.005,0.12,-0.122,-0.061,0.793,8.96
150953,155015,9125,-0.218,0.995,0.115,-0.122,-0.061,0.793,8.964
150953,154930,13203,-0.217,0.988,0.116,0.244,0.305,0.061,8.97
150942,155015,9125,-0.218,0.994,0.118,0.244,0.305,0.061,8.974
150942,154933,13210,-0.218,1.002,0.121,0.427,0.244,0.122,8.98
150940,155015,9125,-0.221,1.002,0.118,0.427,0.244,0.122,8.983
150940,154898,13199,-0.223,0.997,0.122,0.488,0.366,0.549,8.99
150902,155015,9125,-0.22,0.997,0.124,0.488,0.366,0.549,8.993
150902,154889,13216,-0.22,0.995,0.126,-0.122,0.366,0.305,9
150880,154759,9125,-0.217,0.996,0.12,-0.122,0.366,0.305,9.003
150880,154875,13205,-0.219,1,0.117,-0.427,0.305,0.366,9.009
150864,154759,9125,-0.221,1.001,0.116,-0.427,0.305,0.366,9.013
150864,154855,13195,-0.218,1.002,0.116,-0.183,0.488,0.427,9.019
150839,154759,9125,-0.221,0.998,0.119,-0.183,0.488,0.427,9.023
150839,154855,13210,-0.221,0.997,0.117,-0.183,0.366,0.305,9.029
150849,154759,9125,-0.223,0.998,0.112,-0.183,0.366,0.305,9.033
150849,154849,13192,-0.221,0.996,0.116,-0.488,0.244,0.366,9.039
150839,154759,9125,-0.218,0.995,0.118,-0.488,0.244,0.366,9.043
150839,154854,13202,-0.22,0.996,0.121,-0.305,0.244,0.427,9.049
150835,154759,9125,-0.22,0.998,0.12,-0.305,0.244,0.427,9.053
150835,154838,13199,-0.222,1,0.12,0.061,0.549,0.549,9.059
150847,154759,9125,-0.22,1.002,0.122,0.061,0.549,0.549,9.063
150847,154840,13197,-0.221,1.002,0.123,0.061,0.61,0.549,9.069
150826,154759,9125,-0.22,1,0.122,0.061,0.61,0.549,9.073
150826,154840,13193,-0.221,0.994,0.116,-0.244,0.305,0.488,9.079
150814,154759,9125,-0.222,1,0.111,-0.244,0.305,0.488,9.082
150814,154827,13192,-0.222,1.002,0.113,-0.305,0.122,0.366,9.089
150795,154759,9125,-0.216,1.002,0.115,-0.305,0.122,0.366,9.092
150795,154868,13199,-0.217,0.995,0.121,0.244,0.488,0.305,9.099
150815,154759,9125,-0.223,0.994,0.12,0.244,0.488,0.305,9.102
150815,154849,13182,-0.225,0.997,0.119,0.61,0.854,0.305,9.108
150814,154759,9125,-0.225,1.001,0.119,0.61,0.854,0.305,9.112
150814,154822,13195,-0.222,1.002,0.12,0.549,0.671,0.61,9.118
150803,154759,9125,-0.216,0.997,0.121,0.549,0.671,0.61,9.122
150803,154822,13195,-0.214,0.999,0.119,0.427,0.671,0.488,9.128
150815,154759,9125,-0.219,0.998,0.118,0.427,0.671,0.488,9.132
150815,154812,13198,-0.22,0.998,0.116,-0.061,0.549,0.366,9.138
150802,154759,9125,-0.218,0.999,0.112,-0.061,0.549,0.366,9.142
150802,154827,13195,-0.219,1.003,0.112,-0.366,0.305,0.366,9.148
150802,154759,9125,-0.219,1.004,0.114,-0.366,0.305,0.366,9.152
150802,154825,13198,-0.219,0.997,0.119,-0.244,0.366,0.366,9.158
150780,154759,9125,-0.218,0.995,0.121,-0.244,0.366,0.366,9.162
150780,154829,13181,-0.22,0.996,0.124,0.183,0.61,0.366,9.168
150817,154759,9125,-0.224,0.996,0.119,0.183,0.61,0.366,9.172
150817,154849,13179,-0.222,0.999,0.119,0.305,0.488,0.427,9.178
150797,154759,9125,-0.22,1.001,0.122,0.305,0.488,0.427,9.181
150797,154800,13177,-0.219,1.003,0.116,0.244,0.427,0.305,9.188
150821,154759,9125,-0.219,1.003,0.113,0.244,0.427,0.305,9.191
150821,154843,13201,-0.218,1,0.112,-0.122,0.305,0.122,9.198
150818,154759,9125,-0.216,0.997,0.114,-0.122,0.305,0.122,9.201
150818,154818,13198,-0.215,0.999,0.12,-0.061,0.061,0.061,9.207
150811,154759,9125,-0.216,1,0.123,-0.061,0.061,0.061,9.211
150811,154836,13190,-0.219,0.998,0.126,-0.061,0.366,0.122,9.217
150822,154759,9125,-0.215,0.995,0.122,-0.061,0.366,0.122,9.221
150822,154842,13191,-0.217,0.995,0.121,0.183,0.244,0.061,9.227
150835,154759,9125,-0.217,0.995,0.117,0.183,0.244,0.061,9.231
150835,154851,13212,-0.218,1,0.116,0.122,-0.061,0.183,9.237
150819,154759,9125,-0.221,0.999,0.118,0.122,-0.061,0.183,9.241
150819,154848,13188,-0.219,0.999,0.118,-0.122,0.244,0.244,9.247
150842,154759,9125,-0.221,1,0.119,-0.122,0.244,0.244,9.251
150842,154859,13201,-0.222,1,0.117,-0.488,0.488,0.244,9.257
150831,154759,9125,-0.221,0.998,0.118,-0.488,0.488,0.244,9.261
150831,154843,13221,-0.219,0.999,0.116,-0.305,0.244,0.427,9.267
150847,154759,9125,-0.221,0.998,0.12,-0.305,0.244,0.427,9.271
150847,154850,13200,-0.22,1.003,0.119,-0.122,0.427,0.366,9.277
150848,154759,9125,-0.217,0.999,0.117,-0.122,0.427,0.366,9.28
150848,154868,13211,-0.218,0.998,0.116,0,0.427,0.244,9.287
150835,154759,9125,-0.219,0.999,0.117,0,0.427,0.244,9.29
150835,154868,13205,-0.217,1,0.121,0.061,0.366,0.183,9.297
150857,155015,9125,-0.219,0.999,0.119,0.061,0.366,0.183,9.3
150857,154881,13210,-0.22,1,0.116,-0.183,0.61,0.244,9.306
150850,155015,9125,-0.222,0.995,0.115,-0.183,0.61,0.244,9.31
150850,154885,13214,-0.216,0.998,0.117,-0.244,0.549,0.183,9.316
150861,154759,9125,-0.22,0.998,0.12,-0.244,0.549,0.183,9.32
150861,154877,13204,-0.22,0.997,0.118,0,0.427,0.305,9.326
150859,155015,9125,-0.22,0.997,0.118,0,0.427,0.305,9.33
150859,154915,13201,-0.224,0.999,0.114,0.061,0.61,0.366,9.336
150876,155015,9125,-0.224,0.999,0.114,0.061,0.61,0.366,9.34
150876,154902,13212,-0.221,0.996,0.118,0.244,0.427,0.305,9.346
150854,155015,9125,-0.221,0.996,0.118,0.244,0.427,0.305,9.35
150854,154900,13217,-0.22,1.003,0.12,0.183,0.366,0.244,9.356
150869,155015,9125,-0.22,1.003,0.12,0.183,0.366,0.244,9.36
150869,154920,13216,-0.224,0.997,0.119,-0.061,0.549,0.183,9.366
150911,155015,9125,-0.224,0.997,0.119,-0.061,0.549,0.183,9.37
150911,154891,13209,-0.221,0.996,0.117,-0.244,0.244,0.122,9.376
150901,155015,9125,-0.221,0.996,0.117,-0.244,0.244,0.122,9.379
150901,154908,13215,-0.221,0.999,0.127,-0.122,0.427,0.488,9.386
150879,155015,9125,-0.221,0.999,0.127,-0.122,0.427,0.488,9.389
150879,154917,13212,-0.222,1.003,0.12,0.305,0.671,0.427,9.396
150908,155015,9125,-0.222,1.003,0.12,0.305,0.671,0.427,9.399
150908,154911,13222,-0.219,0.999,0.116,0.061,0.488,0.183,9.405
150924,155015,9125,-0.219,0.999,0.116,0.061,0.488,0.183,9.409
150924,154930,13218,-0.22,0.998,0.115,-0.305,0.305,0.244,9.415
150931,155015,9125,-0.22,0.998,0.115,-0.305,0.305,0.244,9.419
150931,154945,13223,-0.222,0.994,0.111,-0.366,0.366,0.183,9.425
150913,155015,9125,-0.222,0.994,0.111,-0.366,0.366,0.183,9.429
150913,154945,13228,-0.221,0.995,0.111,0,0.305,0.366,9.435
150930,155015,9125,-0.221,0.995,0.111,0,0.305,0.366,9.439
150930,154962,13227,-0.217,1.001,0.116,0.244,0.244,0.549,9.445
150929,155015,9125,-0.217,1.001,0.116,0.244,0.244,0.549,9.449
150929,154964,13216,-0.217,1.008,0.117,0.305,0.366,0.366,9.455
150927,155015,9125,-0.217,1.008,0.117,0.305,0.366,0.366,9.459
150927,154960,13238,-0.215,1.004,0.116,-0.244,0.244,0.061,9.465
150940,155015,9125,-0.215,1.004,0.116,-0.244,0.244,0.061,9.469
150940,154958,13226,-0.216,0.999,0.115,-0.244,0.244,0.061,9.475
150935,155015,9125,-0.213,0.995,0.118,-0.793,0,0.183,9.478
150935,154948,13228,-0.214,0.997,0.12,-0.793,0,0.183,9.485
150945,155015,9125,-0.218,0.996,0.12,-0.427,0.305,0.244,9.488
150945,154962,13234,-0.219,0.993,0.119,-0.427,0.305,0.244,9.495
150944,155015,9125,-0.222,0.992,0.118,0.549,0.854,0.305,9.498
150944,155002,13227,-0.22,0.996,0.119,0.549,0.854,0.305,9.504
150953,155015,9125,-0.223,1.003,0.121,0.549,0.793,0.488,9.508
150953,154967,13227,-0.222,1.004,0.119,0.549,0.793,0.488,9.514
150944,155015,9125,-0.218,1.001,0.114,-0.122,0.366,0.427,9.518
150944,155005,13251,-0.219,0.996,0.114,-0.122,0.366,0.427,9.524
150951,155015,9125,-0.216,0.994,0.114,-0.427,0.122,0.244,9.528
150951,155006,13225,-0.217,0.998,0.118,-0.427,0.122,0.244,9.534
150965,155015,9125,-0.219,0.998,0.12,-0.244,0.244,0.488,9.538
150965,154989,13249,-0.222,0.999,0.121,-0.244,0.244,0.488,9.544
150966,155015,9125,-0.225,1.001,0.123,0.122,0.488,0.366,9.548
150966,154974,13244,-0.221,1.002,0.122,0.122,0.488,0.366,9.554
150953,155015,9125,-0.22,1.001,0.12,-0.061,0.427,0.122,9.558
150953,154971,13230,-0.219,0.999,0.12,-0.061,0.427,0.122,9.564
150957,155015,9125,-0.217,1,0.121,-0.122,0.366,0.244,9.568
150957,154987,13243,-0.22,1.002,0.12,-0.122,0.366,0.244,9.574
150968,155015,9125,-0.219,0.999,0.112,-0.427,0.488,0.488,9.578
150968,155008,13228,-0.217,1,0.112,-0.427,0.488,0.488,9.584
150962,155015,9125,-0.214,1.003,0.115,-0.183,0.488,0.305,9.587
150962,154990,13247,-0.213,1.002,0.116,-0.183,0.488,0.305,9.594
150988,155015,9125,-0.216,1,0.119,0.061,0.854,0.305,9.597
150988,155010,13237,-0.222,0.997,0.12,0.061,0.854,0.305,9.603
150978,155015,9125,-0.22,0.995,0.114,0.183,0.793,0.366,9.607
150978,155010,13232,-0.22,0.999,0.114,0.183,0.793,0.366,9.613
150985,155015,9125,-0.22,1.001,0.111,0.244,0.488,0.366,9.617
150985,155034,13241,-0.221,0.999,0.113,0.244,0.488,0.366,9.623
150974,155015,9125,-0.222,0.995,0.118,0.122,0.549,0.366,9.627
150974,155031,13254,-0.22,0.994,0.121,0.122,0.549,0.366,9.633
151004,155015,9125,-0.221,0.995,0.117,-0.183,0.366,0.122,9.637
151004,155036,13255,-0.223,0.996,0.12,-0.183,0.366,0.122,9.643
150992,155015,9125,-0.224,0.994,0.121,-0.244,0.366,0.244,9.647
150992,155017,13241,-0.226,0.998,0.122,-0.244,0.366,0.244,9.653
150988,155015,9125,-0.225,0.995,0.119,-0.122,0.61,0.427,9.657
150988,155047,13254,-0.224,0.996,0.121,-0.122,0.61,0.427,9.663
150976,155015,9125,-0.224,0.999,0.117,-0.122,0.549,0.488,9.667
150976,155019,13251,-0.224,0.996,0.114,-0.122,0.549,0.488,9.673
151007,155015,9125,-0.224,0.997,0.115,-0.122,0.549,0.488,9.676
151007,155026,13241,-0.22,0.999,0.112,-0.122,0.549,0.488,9.683
151002,155015,9125,-0.222,1,0.119,0.122,0.732,0.488,9.686
151002,155017,13257,-0.219,0.998,0.117,0.122,0.732,0.488,9.693
151001,155015,9125,-0.219,0.998,0.119,0.488,0.854,0.366,9.696
151001,155054,13256,-0.221,0.998,0.115,0.488,0.854,0.366,9.702
150997,155015,9125,-0.22,0.998,0.115,0.305,0.793,0.366,9.706
150997,155013,13265,-0.219,0.998,0.114,0.305,0.793,0.366,9.712
151002,155015,9125,-0.219,0.997,0.113,0.244,0.671,0.366,9.716
151002,155028,13243,-0.219,0.997,0.113,0.244,0.671,0.366,9.722
150985,155015,9125,-0.217,0.996,0.108,0.305,0.549,0.305,9.726
150985,155041,13256,-0.217,0.997,0.112,0.305,0.549,0.305,9.732
150997,155015,9125,-0.22,1.001,0.113,0,0.488,0.183,9.736
150997,155016,13253,-0.219,1.001,0.11,0,0.488,0.183,9.742
150999,155015,9125,-0.218,0.999,0.109,-0.427,0.122,0.244,9.746
150999,155027,13265,-0.219,1.002,0.111,-0.427,0.122,0.244,9.752
151013,155015,9125,-0.219,0.998,0.11,-0.488,-0.122,0.305,9.756
151013,155043,13255,-0.223,0.997,0.112,-0.488,-0.122,0.305,9.762
150989,155015,9125,-0.218,0.998,0.117,-0.061,0.122,0.244,9.766
150989,155012,13279,-0.22,1.001,0.115,-0.061,0.122,0.244,9.772
151005,155015,9125,-0.223,1.001,0.12,0.122,0.305,0.305,9.776
151005,155036,13254,-0.223,0.999,0.122,0.122,0.305,0.305,9.782
151007,155015,9125,-0.222,1,0.12,0.305,0.427,0.183,9.785
151007,155039,13256,-0.22,0.999,0.116,0.305,0.427,0.183,9.792
151000,155015,9125,-0.219,0.997,0.117,0.061,0.427,0.061,9.795
151000,155078,13267,-0.221,0.998,0.119,0.061,0.427,0.061,9.801
151017,155015,9125,-0.221,0.998,0.119,-0.061,0.366,0.183,9.805
151017,155028,13276,-0.218,0.995,0.117,-0.061,0.366,0.183,9.811
151006,155015,9125,-0.218,0.995,0.121,0.244,0.427,0.183,9.815
151006,155062,13273,-0.222,0.994,0.122,0.244,0.427,0.183,9.821
151019,155015,9125,-0.224,0.997,0.122,0.366,0.61,0.183,9.825
151019,155048,13258,-0.223,0.997,0.123,0.366,0.61,0.183,9.831
151030,155015,9125,-0.222,1,0.124,0.244,0.61,0.305,9.835
151030,155085,13258,-0.221,0.997,0.122,0.244,0.61,0.305,9.841
151032,155015,9125,-0.222,1,0.117,0,0.61,0.305,9.845
151032,155052,13266,-0.221,1.002,0.118,0,0.61,0.305,9.851
151023,155015,9125,-0.218,1.001,0.116,-0.366,0.549,0.427,9.855
151023,155071,13271,-0.216,0.999,0.112,-0.366,0.549,0.427,9.861
151029,155015,9125,-0.217,0.999,0.11,-0.549,0.488,0.488,9.865
151029,155063,13265,-0.218,0.997,0.11,-0.549,0.488,0.488,9.871
151021,155015,9125,-0.221,0.999,0.117,-0.671,0.671,0.488,9.874
151021,155042,13273,-0.218,0.999,0.118,-0.671,0.671,0.488,9.881
151018,155015,9125,-0.216,1.003,0.117,-0.061,0.732,0.793,9.884
151018,155038,13250,-0.218,1.002,0.119,-0.061,0.732,0.793,9.891
150997,155015,9125,-0.218,1.004,0.117,0.427,0.854,0.793,9.894
150997,155007,13254,-0.218,1.005,0.116,0.427,0.854,0.793,9.9
150991,155015,9125,-0.215,1.002,0.115,0.305,0.915,0.488,9.904
150991,154999,13244,-0.215,0.998,0.115,0.305,0.915,0.488,9.91
150983,155015,9125,-0.218,0.994,0.113,-0.183,0.732,0.244,9.914
150983,154974,13242,-0.219,0.99,0.111,-0.183,0.732,0.244,9.92
150989,155015,9125,-0.219,0.99,0.111,-0.183,0.732,0.244,9.924
150989,154977,13247,-0.219,0.996,0.106,-0.122,0.671,0.305,9.93
150996,155015,9125,-0.219,0.996,0.106,-0.122,0.671,0.305,9.934
150996,154973,13235,-0.219,0.998,0.113,0.061,0.732,0.488,9.94
150975,155015,9125,-0.219,0.998,0.113,0.061,0.732,0.488,9.944
150975,154966,13226,-0.225,0.999,0.114,0.061,0.61,0.488,9.95
151001,155015,9125,-0.225,0.999,0.114,0.061,0.61,0.488,9.954
151001,154970,13216,-0.226,1.002,0.117,-0.061,0.366,0.427,9.96
150977,155015,9125,-0.226,1.002,0.117,-0.061,0.366,0.427,9.964
150977,154958,13229,-0.224,0.999,0.117,-0.244,0.244,0.366,9.97
151002,155015,9125,-0.224,0.999,0.117,-0.244,0.244,0.366,9.974
151002,154953,13239,-0.222,0.997,0.115,-0.305,0.183,0.305,9.98
151013,155015,9125,-0.222,0.997,0.115,-0.305,0.183,0.305,9.983
151013,154952,13215,-0.219,1.002,0.118,-0.183,0.183,0.305,9.99
150999,155015,9125,-0.219,1.002,0.118,-0.183,0.183,0.305,9.993
150999,154962,13238,-0.221,0.999,0.115,0.061,0.488,0.427,9.999
151011,155015,9125,-0.221,0.999,0.115,0.061,0.488,0.427,10.003
151011,154982,13228,-0.214,0.993,0.114,0.305,0.671,0.366,10.009
151007,155015,9125,-0.214,0.993,0.114,0.305,0.671,0.366,10.013
151007,154988,13233,-0.218,1.002,0.114,0.183,0.488,0.488,10.019
151010,155015,9125,-0.218,1.002,0.114,0.183,0.488,0.488,10.023
151010,154961,13232,-0.217,0.995,0.114,0,0.488,0.61,10.029
151022,155015,9125,-0.217,0.995,0.114,0,0.488,0.61,10.033
151022,154984,13232,-0.216,1.002,0.115,-0.061,0.488,0.488,10.039
151013,155015,9125,-0.216,1.002,0.115,-0.061,0.488,0.488,10.043
151013,154964,13234,-0.215,1.001,0.117,-0.244,0.366,0.488,10.049
151028,155015,9125,-0.215,1.001,0.117,-0.244,0.366,0.488,10.053
151028,155000,13216,-0.22,1.003,0.109,0,0.61,0.427,10.059
151038,155015,9125,-0.22,1.003,0.109,0,0.61,0.427,10.063
151038,155003,13226,-0.219,1.001,0.111,0.183,0.488,0.183,10.069
151025,155015,9125,-0.219,1.001,0.11,0.183,0.488,0.183,10.073
151025,154988,13229,-0.218,1,0.113,0.183,0.244,0.305,10.079
151044,155015,9125,-0.216,0.996,0.116,0.183,0.244,0.305,10.082
151044,154994,13215,-0.217,0.996,0.117,0.366,0.61,0.427,10.089
151036,155015,9125,-0.219,0.998,0.112,0.366,0.61,0.427,10.092
151036,155010,13225,-0.223,0.999,0.111,0.305,0.671,0.427,10.099
151023,155015,9125,-0.221,0.999,0.116,0.305,0.671,0.427,10.102
151023,155004,13241,-0.22,1,0.114,0.122,0.366,0.549,10.108
151009,155015,9125,-0.219,1,0.114,0.122,0.366,0.549,10.112
151009,155004,13247,-0.219,1.001,0.116,-0.122,0.549,0.488,10.118
151052,155015,9125,-0.222,1.002,0.119,-0.122,0.549,0.488,10.122
151052,155012,13228,-0.222,0.998,0.118,-0.366,0.549,0.244,10.128
151049,155015,9125,-0.218,0.995,0.117,-0.366,0.549,0.244,10.132
151049,155005,13236,-0.221,0.999,0.117,-0.061,0.488,0.244,10.138
151049,155015,9125,-0.22,1.002,0.114,-0.061,0.488,0.244,10.142
151049,155011,13240,-0.22,0.999,0.111,0.122,0.488,0.427,10.148
151029,155015,9125,-0.22,0.997,0.112,0.122,0.488,0.427,10.152
151029,154987,13237,-0.218,0.994,0.11,0.122,0.549,0.305,10.158
151027,155015,9125,-0.222,0.997,0.111,0.122,0.549,0.305,10.162
151027,155007,13239,-0.222,1,0.115,-0.122,0.671,0.366,10.168
151065,155015,9125,-0.22,0.999,0.115,-0.122,0.671,0.366,10.172
151065,154987,13229,-0.216,0.995,0.118,-0.061,0.549,0.488,10.178
151034,155015,9125,-0.216,1.001,0.115,-0.061,0.549,0.488,10.181
151034,154999,13235,-0.22,1.004,0.112,0.183,0.61,0.488,10.188
151052,155015,9125,-0.219,1.002,0.113,0.183,0.61,0.488,10.191
151052,154983,13238,-0.219,1.001,0.113,0.183,0.61,0.366,10.198
151030,155015,9125,-0.218,0.999,0.114,0.183,0.61,0.366,10.201
151030,154974,13238,-0.219,0.996,0.115,-0.122,0.488,0.244,10.207
151039,155015,9125,-0.219,0.999,0.114,-0.122,0.488,0.244,10.211
151039,154987,13221,-0.218,0.997,0.112,-0.183,0.488,0.305,10.217
151050,155015,9125,-0.221,0.994,0.116,-0.183,0.488,0.305,10.221
151050,155002,13232,-0.219,0.996,0.115,0,0.61,0.427,10.227
151075,155015,9125,-0.22,1,0.112,0,0.61,0.427,10.231
151075,155000,13233,-0.222,1.002,0.113,-0.244,0.549,0.488,10.237
151058,155015,9125,-0.222,1.002,0.117,-0.244,0.549,0.488,10.241
151058,155013,13238,-0.222,1,0.109,-0.427,0.488,0.366,10.247
151045,155015,9125,-0.219,1,0.113,-0.427,0.488,0.366,10.251
151045,154984,13220,-0.218,1,0.114,-0.244,0.366,0.305,10.257
151060,155015,9125,-0.219,1.003,0.113,-0.244,0.366,0.305,10.261
151060,155007,13229,-0.219,1,0.112,-0.122,0.366,0.366,10.267
151053,155015,9125,-0.219,0.997,0.116,-0.122,0.366,0.366,10.271
151053,154992,13231,-0.221,0.994,0.117,0.366,0.427,0.183,10.277
151048,155015,9125,-0.221,0.998,0.116,0.366,0.427,0.183,10.28
151048,154998,13249,-0.221,1.002,0.119,0.305,0.488,0.122,10.287
151063,155015,9125,-0.221,1,0.116,0.305,0.488,0.122,10.29
151063,155012,13231,-0.221,0.997,0.115,0.122,0.488,0.305,10.297
151032,155015,9125,-0.222,0.995,0.12,0.122,0.488,0.305,10.3
151032,155001,13235,-0.222,0.996,0.117,0,0.366,0.427,10.306
151060,155015,9125,-0.224,0.998,0.112,0,0.366,0.427,10.31
151060,155030,13234,-0.221,1.003,0.115,-0.122,0.488,0.671,10.316
151060,155015,9125,-0.218,1.001,0.118,-0.122,0.488,0.671,10.32
151060,155027,13231,-0.221,0.998,0.114,-0.122,0.488,0.61,10.326
151052,155015,9125,-0.221,0.996,0.114,-0.122,0.488,0.61,10.33
151052,155037,13239,-0.22,1,0.115,-0.061,0.549,0.366,10.336
151074,155015,9125,-0.22,1,0.115,-0.061,0.549,0.366,10.34
151074,155056,13224,-0.221,0.999,0.116,-0.061,0.549,0.427,10.346
151076,155015,9125,-0.223,1,0.113,-0.061,0.549,0.427,10.35
151076,155053,13249,-0.22,1,0.11,0,0.366,0.366,10.356
151075,155015,9125,-0.222,1,0.113,0,0.366,0.366,10.36
151075,155040,13250,-0.22,1,0.117,-0.366,0.488,0.305,10.366
151090,155015,9125,-0.221,1,0.115,-0.366,0.488,0.305,10.37
151090,155037,13227,-0.222,0.996,0.116,-0.427,0.549,0.305,10.376
151087,155015,9125,-0.219,1.001,0.113,-0.427,0.549,0.305,10.379
151087,155039,13240,-0.22,1.001,0.112,-0.488,0.427,0.244,10.386
151087,155015,9125,-0.223,0.998,0.111,-0.488,0.427,0.244,10.389
151087,155046,13226,-0.222,0.999,0.113,-0.244,0.183,0.366,10.396
151068,155015,9125,-0.221,1,0.113,-0.244,0.183,0.366,10.399
151068,155039,13234,-0.22,1,0.113,-0.183,0.244,0.366,10.405
151096,155015,9125,-0.219,0.999,0.112,-0.183,0.244,0.366,10.409
151096,155037,13236,-0.222,1.001,0.112,0.061,0.244,0.305,10.415
151065,155015,9125,-0.22,1.003,0.113,0.061,0.244,0.305,10.419
151065,155042,13251,-0.219,1.005,0.118,-0.061,0.183,0.305,10.425
151090,155015,9125,-0.216,1.002,0.116,-0.061,0.183,0.305,10.429
151090,155050,13242,-0.22,0.999,0.113,-0.305,0.183,0.183,10.435
151078,155015,9125,-0.221,1,0.114,-0.305,0.183,0.183,10.439
151078,155038,13254,-0.221,0.996,0.117,-0.488,0.183,0,10.445
151086,155015,9125,-0.222,0.995,0.117,-0.488,0.183,0,10.449
151086,155053,13241,-0.223,0.995,0.115,0.122,0.244,0.061,10.455
151081,155015,9125,-0.222,1.001,0.114,0.122,0.244,0.061,10.459
151081,155035,13236,-0.22,1.005,0.112,0.366,0.427,0.122,10.465
151102,155015,9125,-0.221,0.999,0.112,0.366,0.427,0.122,10.469
151102,155045,13248,-0.22,0.994,0.113,0.061,0.305,0.305,10.475
151093,155015,9125,-0.217,0.996,0.113,0.061,0.305,0.305,10.478
151093,155041,13250,-0.22,0.995,0.115,-0.183,0.183,0.427,10.485
151108,155015,9125,-0.221,1.001,0.113,-0.183,0.183,0.427,10.488
151108,155050,13248,-0.223,1.003,0.111,-0.366,0.244,0.427,10.495
151089,155015,9125,-0.222,1,0.117,-0.366,0.244,0.427,10.498
151089,155032,13243,-0.221,1.002,0.112,-0.366,0.183,0.366,10.504
151097,155015,9125,-0.219,0.999,0.105,-0.366,0.183,0.366,10.508
151097,155043,13243,-0.22,0.996,0.107,-0.244,0.244,0.244,10.514
151084,155015,9125,-0.22,0.996,0.107,-0.244,0.244,0.244,10.518
151084,155042,13264,-0.218,0.996,0.117,0.244,0.244,0.183,10.524
151081,155015,9125,-0.218,0.996,0.117,0.244,0.244,0.183,10.528
151081,155058,13246,-0.22,1.003,0.117,0.427,0.305,0.366,10.534
151114,155015,9125,-0.22,1.003,0.117,0.427,0.305,0.366,10.538
151114,155052,13260,-0.214,1.002,0.118,0.122,0.305,0.244,10.544
151072,155015,9125,-0.214,1.002,0.118,0.122,0.305,0.244,10.548
151072,155045,13251,-0.214,0.999,0.11,-0.488,0.244,0.122,10.554
151064,155015,9125,-0.214,0.999,0.11,-0.488,0.244,0.122,10.558
151064,155064,13256,-0.215,0.995,0.115,-0.915,0.122,0.183,10.564
151080,155015,9125,-0.215,0.995,0.115,-0.915,0.122,0.183,10.568
151080,155068,13257,-0.22,0.993,0.118,-0.488,0.427,0.305,10.574
151087,155015,9125,-0.22,0.993,0.118,-0.488,0.427,0.305,10.578
151087,155062,13259,-0.224,0.996,0.115,-0.122,0.488,0.488,10.584
151074,155015,9125,-0.224,0.996,0.115,-0.122,0.488,0.488,10.587
151074,155070,13274,-0.222,1.002,0.114,-0.244,0.183,0.61,10.594
151076,155015,9125,-0.222,1.002,0.114,-0.244,0.183,0.61,10.597
151076,155048,13251,-0.221,1.002,0.111,-0.915,0.122,0.488,10.603
151065,155015,9125,-0.221,1.002,0.111,-0.915,0.122,0.488,10.607
151065,155079,13266,-0.223,0.998,0.115,-0.671,0.061,0.305,10.613
151078,155015,9125,-0.223,0.998,0.115,-0.671,0.061,0.305,10.617
151078,155072,13254,-0.222,1.001,0.115,-0.488,0.183,0.427,10.623
151074,155015,9125,-0.222,1.001,0.115,-0.488,0.183,0.427,10.627
151074,155064,13272,-0.218,1.002,0.114,-0.183,0.427,0.549,10.633
151072,155015,9125,-0.218,1.002,0.114,-0.183,0.427,0.549,10.637
151072,155076,13247,-0.214,1.002,0.113,-0.061,0.549,0.305,10.643
151076,155015,9125,-0.214,1.002,0.113,-0.061,0.549,0.305,10.647
151076,155038,13266,-0.213,1,0.111,-0.244,0.549,0.305,10.653
151075,155015,9125,-0.213,1,0.111,-0.244,0.549,0.305,10.657
151075,155076,13259,-0.213,1.002,0.114,-0.244,0.549,0.305,10.663
151095,155015,9125,-0.212,1.001,0.115,-0.427,0.488,0.427,10.667
151095,155086,13263,-0.215,0.998,0.117,-0.427,0.488,0.427,10.673
151093,155015,9125,-0.216,0.998,0.115,-0.183,0.671,0.244,10.676
151093,155076,13266,-0.216,1,0.116,-0.183,0.671,0.244,10.683
151076,155015,9125,-0.22,0.999,0.115,0.183,0.793,0.183,10.686
151076,155094,13252,-0.219,0.997,0.109,0.183,0.793,0.183,10.693
151092,155015,9125,-0.223,0.995,0.11,0.366,0.488,0.183,10.696
151092,155062,13260,-0.222,0.995,0.115,0.366,0.488,0.183,10.702
151091,155015,9125,-0.225,0.999,0.119,0.061,0.305,0.244,10.706
151091,155083,13258,-0.227,0.998,0.118,0.061,0.305,0.244,10.712
151103,155015,9125,-0.227,0.997,0.116,-0.122,0.305,0.244,10.716
151103,155061,13263,-0.227,0.996,0.112,-0.122,0.305,0.244,10.722
151083,155015,9125,-0.227,0.999,0.117,-0.549,0.122,0.183,10.726
151083,155066,13278,-0.226,0.999,0.115,-0.549,0.122,0.183,10.732
151110,155015,9125,-0.225,0.996,0.115,-0.732,0.122,0.244,10.736
151110,155073,13260,-0.226,0.998,0.118,-0.732,0.122,0.244,10.742
151087,155015,9125,-0.227,1.002,0.119,-0.732,0.305,0.427,10.746
151087,155081,13276,-0.224,1.001,0.119,-0.732,0.305,0.427,10.752
151101,155015,9125,-0.22,0.999,0.117,-0.366,0.305,0.549,10.756
151101,155087,13270,-0.22,0.998,0.115,-0.366,0.305,0.549,10.762
151098,155015,9125,-0.221,1,0.11,0.244,0.549,0.427,10.766
151098,155084,13263,-0.219,1.003,0.112,0.244,0.549,0.427,10.772
151097,155015,9125,-0.218,1.001,0.115,0.244,0.549,0.244,10.776
151097,155111,13276,-0.218,1,0.113,0.244,0.549,0.244,10.782
151100,155015,9125,-0.217,0.996,0.113,-0.061,0.488,0.244,10.785
151100,155093,13275,-0.217,0.997,0.112,-0.061,0.488,0.244,10.792
151121,155015,9125,-0.215,1.001,0.111,-0.244,0.244,0.427,10.795
151121,155125,13282,-0.213,1.001,0.109,-0.244,0.244,0.427,10.801
151109,155015,9125,-0.215,1,0.112,-0.549,0,0.61,10.805
151109,155094,13279,-0.216,0.999,0.111,-0.549,0,0.61,10.811
151104,155015,9125,-0.213,1.001,0.106,-0.793,0,0.366,10.815
151104,155129,13289,-0.215,1.001,0.108,-0.793,0,0.366,10.821
151109,155015,9125,-0.218,1,0.106,-0.671,-0.061,0.366,10.825
151109,155116,13282,-0.215,1.002,0.113,-0.671,-0.061,0.366,10.831
151140,155015,9125,-0.219,1.004,0.11,-0.305,0.061,0.427,10.835
151140,155110,13273,-0.223,1.005,0.114,-0.305,0.061,0.427,10.841
151104,155015,9125,-0.221,1.001,0.115,-0.366,0.122,0.244,10.845
151104,155119,13286,-0.222,1,0.116,-0.366,0.122,0.244,10.851
151120,155015,9125,-0.222,0.995,0.121,-0.61,-0.061,-0.122,10.855
151120,155109,13272,-0.221,0.994,0.114,-0.61,-0.061,-0.122,10.861
151096,155015,9125,-0.224,0.995,0.113,-0.183,0.122,-0.122,10.865
151096,155129,13284,-0.222,0.998,0.114,-0.183,0.122,-0.122,10.871
151120,155015,9125,-0.221,0.999,0.117,0.061,0.305,0.244,10.875
151120,155105,13297,-0.221,0.999,0.117,0.061,0.305,0.244,10.881
151121,155015,9125,-0.221,0.998,0.117,-0.183,0.305,0.488,10.884
151121,155117,13291,-0.223,0.996,0.119,-0.183,0.305,0.488,10.891
151134,155015,9125,-0.222,0.995,0.119,-0.244,0.366,0.244,10.894
151134,155110,13272,-0.22,0.999,0.116,-0.244,0.366,0.244,10.9
151104,155015,9125,-0.222,0.998,0.118,0.122,0.366,0.122,10.904
151104,155119,13285,-0.222,1,0.117,0.122,0.366,0.122,10.91
151127,155015,9125,-0.221,0.994,0.118,0.305,0.488,0.305,10.914
151127,155109,13279,-0.219,0.992,0.12,0.305,0.488,0.305,10.92
151106,155015,9125,-0.219,0.997,0.117,-0.366,0.366,0.366,10.924
151106,155115,13296,-0.221,0.999,0.118,-0.366,0.366,0.366,10.93
151118,155015,9125,-0.216,0.997,0.116,-0.854,0.183,0.488,10.934
151118,155107,13289,-0.22,1,0.116,-0.854,0.183,0.488,10.94
151092,155015,9125,-0.219,1.002,0.115,-0.793,0.427,0.488,10.944
151092,155088,13303,-0.218,1,0.115,-0.793,0.427,0.488,10.95
151085,155015,9125,-0.217,1,0.117,-0.671,0.427,0.427,10.954
151085,155060,13285,-0.216,0.998,0.115,-0.671,0.427,0.427,10.96
151079,155015,9125,-0.22,1,0.114,-0.61,0.549,0.427,10.964
151079,155073,13282,-0.221,1,0.11,-0.61,0.549,0.427,10.97
151075,155015,9125,-0.223,1.003,0.113,-0.305,0.732,0.549,10.974
151075,155064,13284,-0.22,1.004,0.115,-0.305,0.732,0.549,10.98
151073,155015,9125,-0.222,1.001,0.112,0.122,0.793,0.366,10.983
151073,155060,13275,-0.222,0.998,0.109,0.122,0.793,0.366,10.99
151066,155015,9125,-0.22,0.997,0.112,0.122,0.61,0.244,10.993
151066,155028,13257,-0.221,0.996,0.116,0.122,0.61,0.244,11
151045,155015,9125,-0.223,0.995,0.113,-0.244,0.427,0.305,11.003
151045,155025,13255,-0.224,0.993,0.118,-0.244,0.427,0.305,11.009
151043,155015,9125,-0.221,0.992,0.114,-0.305,0.366,0.366,11.013
151043,155023,13267,-0.222,0.995,0.113,-0.305,0.366,0.366,11.019
151045,155015,9125,-0.221,0.999,0.115,-0.488,0.244,0.549,11.023
151045,155004,13257,-0.222,0.998,0.113,-0.488,0.244,0.549,11.029
151044,155015,9125,-0.22,0.999,0.114,-0.61,0.183,0.61,11.033
151044,155021,13255,-0.221,0.997,0.116,-0.61,0.183,0.61,11.039
151044,155015,9125,-0.223,0.998,0.115,-0.488,0.244,0.549,11.043
151044,154992,13255,-0.224,0.999,0.113,-0.488,0.244,0.549,11.049
151050,155015,9125,-0.223,1,0.109,-0.061,0.183,0.549,11.053
151050,155020,13248,-0.222,1.003,0.111,-0.061,0.183,0.549,11.059
151062,155015,9125,-0.221,1.002,0.117,0.122,0.366,0.427,11.063
151062,155007,13237,-0.219,0.998,0.115,0.122,0.366,0.427,11.069
151053,155015,9125,-0.22,0.998,0.113,0,0.427,0.244,11.073
151053,155031,13247,-0.219,1,0.113,0,0.427,0.244,11.079
151070,155015,9125,-0.217,1,0.116,-0.061,0.183,0.244,11.082
151070,155021,13247,-0.222,1.001,0.114,-0.061,0.183,0.244,11.089
151048,155015,9125,-0.218,0.999,0.117,-0.366,0.183,0.366,11.092
151048,155006,13250,-0.216,0.999,0.112,-0.366,0.183,0.366,11.099
151060,155015,9125,-0.217,1,0.113,-0.488,0.122,0.366,11.102
151060,155021,13248,-0.215,0.999,0.117,-0.488,0.122,0.366,11.108
151052,155015,9125,-0.215,0.999,0.117,-0.488,0.122,0.366,11.112
151052,155030,13253,-0.216,0.999,0.116,-0.305,0.061,0.427,11.118
151062,155015,9125,-0.216,0.999,0.116,-0.305,0.061,0.427,11.122
151062,155038,13256,-0.217,1.004,0.116,-0.183,0.244,0.366,11.128
151049,155015,9125,-0.217,1.004,0.116,-0.183,0.244,0.366,11.132
151049,155021,13246,-0.219,0.997,0.112,-0.305,0.305,0.366,11.138
151052,155015,9125,-0.219,0.997,0.112,-0.305,0.305,0.366,11.142
151052,155026,13248,-0.218,1.002,0.113,-0.305,0.122,0.427,11.148
151043,155015,9125,-0.218,1.002,0.113,-0.305,0.122,0.427,11.152
151043,155014,13249,-0.218,1.003,0.122,-0.183,0.244,0.61,11.158
151068,155015,9125,-0.218,1.003,0.122,-0.183,0.244,0.61,11.162
151068,155020,13248,-0.219,1.002,0.117,0.122,0.549,0.488,11.168
151058,155015,9125,-0.219,1.002,0.117,0.122,0.549,0.488,11.172
151058,155007,13247,-0.221,1.002,0.115,0.122,0.671,0.244,11.178
151049,155015,9125,-0.221,1.002,0.115,0.122,0.671,0.244,11.181
151049,155020,13249,-0.219,0.996,0.119,-0.244,0.488,0.183,11.188
151074,155015,9125,-0.219,0.996,0.119,-0.244,0.488,0.183,11.191
151074,155008,13245,-0.219,0.997,0.114,-0.366,0.305,0.244,11.198
151066,155015,9125,-0.219,0.997,0.114,-0.366,0.305,0.244,11.201
151066,155012,13259,-0.217,1,0.106,-0.183,0.427,0.427,11.207
