155360,158901,14582,-0.187,1.015,-0.024,-0.488,0.488,0.549,37.47
155361,158855,9125,-0.186,1.013,-0.025,-0.122,0.366,0.549,37.473
155361,158877,14582,-0.186,1.011,-0.025,-0.122,0.366,0.549,37.479
155373,158855,9125,-0.189,1.013,-0.026,0.366,0.549,0.427,37.483
155373,158902,14587,-0.19,1.014,-0.019,0.366,0.549,0.427,37.489
155353,158855,9125,-0.19,1.013,-0.022,0.366,0.488,0.244,37.493
155353,158868,14585,-0.191,1.003,-0.032,0.366,0.488,0.244,37.499
155348,158855,9125,-0.189,0.989,-0.025,1.524,0,0.305,37.503
155348,158894,14572,-0.184,1.005,-0.017,1.524,0,0.305,37.509
155330,158855,9125,-0.184,1.035,-0.01,2.073,-0.061,0.793,37.513
155330,158877,14578,-0.188,1.041,-0.016,2.073,-0.061,0.793,37.519
155310,158855,9125,-0.192,1.018,-0.017,2.012,1.341,-0.061,37.523
155310,158874,14574,-0.195,0.998,-0.021,2.012,1.341,-0.061,37.529
155288,158855,9125,-0.2,1.004,-0.027,0.366,1.037,-0.549,37.533
155288,158833,14571,-0.198,1.014,-0.025,0.366,1.037,-0.549,37.539
155285,158855,9125,-0.191,1.007,-0.009,-1.89,-0.549,0.427,37.543
155285,158829,14566,-0.186,0.992,-0.015,-1.89,-0.549,0.427,37.549
155286,158855,9125,-0.182,0.996,-0.023,-0.244,-0.366,0.61,37.552
155286,158812,14570,-0.185,1.005,-0.024,-0.244,-0.366,0.61,37.559
155239,158855,9125,-0.19,1.008,-0.018,1.159,1.22,0.305,37.562
155239,158789,14561,-0.192,1.007,-0.022,1.159,1.22,0.305,37.569
155237,158855,9125,-0.193,1.014,-0.025,2.012,1.22,0.244,37.572
155237,158780,14566,-0.196,1.019,-0.026,2.012,1.22,0.244,37.578
155218,158855,9125,-0.191,1.017,-0.016,0.915,0.549,0.427,37.582
155218,158774,14575,-0.191,1.006,-0.017,0.915,0.549,0.427,37.588
155204,158855,9125,-0.191,1.002,-0.024,-0.183,0.244,0.671,37.592
155204,158773,14561,-0.188,1.007,-0.027,-0.183,0.244,0.671,37.598
155192,158855,9125,-0.186,1.007,-0.025,-0.061,0.305,0.671,37.602
155192,158754,14557,-0.184,1.006,-0.025,-0.061,0.305,0.671,37.608
155155,158855,9125,-0.188,1.007,-0.026,1.22,0.732,0.366,37.612
155155,158731,14558,-0.192,1.014,-0.025,1.22,0.732,0.366,37.618
155142,158855,9125,-0.194,1.019,-0.021,1.159,1.037,0.366,37.622
155142,158740,14551,-0.192,1.016,-0.021,1.159,1.037,0.366,37.628
155161,158855,9125,-0.189,1.011,-0.022,0.427,0.488,0.305,37.632
155161,158747,14551,-0.189,1.016,-0.024,0.427,0.488,0.305,37.638
155181,158855,9125,-0.188,1.012,-0.026,-0.427,-0.244,0.427,37.642
155181,158766,14560,-0.186,1.009,-0.025,-0.427,-0.244,0.427,37.648
155191,158855,9125,-0.186,1.008,-0.022,-0.793,-0.244,0.366,37.651
155191,158746,14549,-0.19,1.006,-0.027,-0.793,-0.244,0.366,37.658
155174,158855,9125,-0.187,1.006,-0.026,-0.366,0.061,0.427,37.661
155174,158768,14565,-0.189,1.01,-0.025,-0.366,0.061,0.427,37.668
155178,158855,9125,-0.186,1.014,-0.026,0.061,0.183,0.183,37.671
155178,158743,14556,-0.187,1.012,-0.024,0.061,0.183,0.183,37.677
155174,158855,9125,-0.189,1.011,-0.019,0.305,0.366,0.305,37.681
155174,158788,14554,-0.189,1.011,-0.016,0.305,0.366,0.305,37.687
155180,158855,9125,-0.19,1.012,-0.021,0,0.427,0.183,37.691
155180,158749,14559,-0.192,1.009,-0.026,0,0.427,0.183,37.697
155171,158855,9125,-0.191,1.01,-0.019,-0.366,0.305,0.061,37.701
155171,158751,14565,-0.192,1.013,-0.015,-0.366,0.305,0.061,37.707
155166,158855,9125,-0.192,1.011,-0.019,-0.244,0.427,0.244,37.711
155166,158766,14562,-0.192,1.01,-0.026,-0.244,0.427,0.244,37.717
155200,158855,9125,-0.189,1.014,-0.032,-0.366,0.61,0.183,37.721
155200,158774,14566,-0.19,1.013,-0.028,-0.366,0.61,0.183,37.727
155193,158855,9125,-0.188,1.006,-0.022,-0.366,0.549,0,37.731
155193,158767,14569,-0.19,1.004,-0.023,-0.366,0.549,0,37.737
155204,158855,9125,-0.193,1.008,-0.027,-0.061,0.732,0.122,37.741
155204,158780,14560,-0.191,1.008,-0.021,-0.061,0.732,0.122,37.747
155209,158855,9125,-0.193,1.006,-0.027,-0.244,0.61,-0.061,37.75
155209,158782,14577,-0.19,1.008,-0.03,-0.244,0.61,-0.061,37.757
155208,158855,9125,-0.186,1.014,-0.016,-0.427,0.305,0,37.76
155208,158772,14563,-0.188,1,-0.008,-0.427,0.305,0,37.767
155197,158855,9125,-0.192,0.993,-0.022,-0.061,0.549,0.488,37.77
155197,158783,14576,-0.191,1.011,-0.029,-0.061,0.549,0.488,37.776
155213,158855,9125,-0.189,1.015,-0.026,-0.427,0.793,0.366,37.78
155213,158762,14578,-0.187,1.008,-0.024,-0.427,0.793,0.366,37.786
155207,158855,9125,-0.185,1.009,-0.027,0,0.488,0.244,37.79
155207,158808,14584,-0.19,1.009,-0.026,0,0.488,0.244,37.796
155226,158855,9125,-0.193,1.005,-0.021,-0.61,0.549,0.427,37.8
155226,158795,14585,-0.193,1.008,-0.016,-0.61,0.549,0.427,37.806
155221,158855,9125,-0.194,1.013,-0.02,-1.037,0.549,0.366,37.81
155221,158804,14569,-0.19,1.01,-0.029,-1.037,0.549,0.366,37.816
155214,158855,9125,-0.186,1.008,-0.029,-0.915,0.244,0.366,37.82
155214,158795,14571,-0.187,1.012,-0.024,-0.915,0.244,0.366,37.826
155228,158855,9125,-0.19,1.017,-0.023,-0.549,0.366,0.549,37.83
155228,158818,14579,-0.188,1.01,-0.02,-0.549,0.366,0.549,37.836
155227,158855,9125,-0.187,1.011,-0.022,-0.549,0.854,0.488,37.84
155227,158812,14564,-0.19,1.016,-0.028,-0.549,0.854,0.488,37.846
155242,158855,9125,-0.187,1.018,-0.03,-0.793,0.915,0.305,37.849
155242,158823,14587,-0.188,1.015,-0.023,-0.793,0.915,0.305,37.856
155226,158855,9125,-0.186,1.013,-0.023,-1.037,0.549,0.305,37.859
155226,158811,14565,-0.192,1.013,-0.028,-1.037,0.549,0.305,37.866
155204,158855,9125,-0.192,1.013,-0.028,-1.037,0.549,0.305,37.869
155204,158835,14577,-0.195,1.012,-0.02,-0.793,0.549,0.183,37.875
155197,158855,9125,-0.195,1.012,-0.02,-0.793,0.549,0.183,37.879
155197,158825,14576,-0.193,1.003,-0.021,-0.427,0.244,0,37.885
155207,158855,9125,-0.193,1.003,-0.021,-0.427,0.244,0,37.889
155207,158809,14579,-0.195,1.004,-0.024,-0.061,0.488,0.061,37.895
155227,158855,9125,-0.195,1.004,-0.024,-0.061,0.488,0.061,37.899
155227,158813,14581,-0.19,1.003,-0.029,-0.183,0.671,0.244,37.905
155190,158855,9125,-0.19,1.003,-0.029,-0.183,0.671,0.244,37.909
155190,158823,14573,-0.184,1.006,-0.022,-0.61,0.244,0.549,37.915
155225,158855,9125,-0.184,1.006,-0.022,-0.61,0.244,0.549,37.919
155225,158826,14578,-0.188,1.012,-0.017,-0.793,0.061,0.732,37.925
155216,158855,9125,-0.188,1.012,-0.017,-0.793,0.061,0.732,37.929
155216,158827,14576,-0.19,1.014,-0.028,-0.427,0.183,0.793,37.935
155218,158855,9125,-0.19,1.014,-0.028,-0.427,0.183,0.793,37.939
155218,158821,14578,-0.189,1.019,-0.026,-0.244,0.183,0.549,37.945
155221,158855,9125,-0.189,1.019,-0.026,-0.244,0.183,0.549,37.948
155221,158814,14569,-0.192,1.012,-0.021,-0.549,0.061,0.61,37.955
155213,158855,9125,-0.192,1.012,-0.021,-0.549,0.061,0.61,37.958
155213,158802,14572,-0.19,1.014,-0.019,-0.427,0.122,0.549,37.965
155218,158855,9125,-0.19,1.014,-0.019,-0.427,0.122,0.549,37.968
155218,158806,14570,-0.186,1.011,-0.027,-0.427,0.488,0.244,37.974
155223,158855,9125,-0.186,1.011,-0.027,-0.427,0.488,0.244,37.978
155223,158799,14582,-0.188,1.014,-0.026,-0.183,0.61,0.122,37.984
155205,158855,9125,-0.188,1.014,-0.026,-0.183,0.61,0.122,37.988
155205,158798,14593,-0.191,1.003,-0.02,-0.244,0.488,0.183,37.994
155247,158855,9125,-0.191,1.003,-0.02,-0.244,0.488,0.183,37.998
155247,158813,14568,-0.19,1.002,-0.021,-0.305,0.366,0.122,38.004
155231,158855,9125,-0.19,1.002,-0.021,-0.305,0.366,0.122,38.008
155231,158813,14592,-0.19,1,-0.025,-0.488,0.244,0.305,38.014
155239,158855,9125,-0.188,1.001,-0.021,-0.488,0.244,0.305,38.018
155239,158831,14580,-0.19,1.003,-0.017,-0.366,0.061,0.732,38.024
155228,158855,9125,-0.19,1.005,-0.016,-0.366,0.061,0.732,38.028
155228,158816,14587,-0.189,1.01,-0.018,-0.183,0.183,0.854,38.034
155247,158855,9125,-0.191,1.014,-0.019,-0.183,0.183,0.854,38.038
155247,158823,14578,-0.193,1.011,-0.013,-0.427,0.305,0.793,38.044
155225,158855,9125,-0.191,1.012,-0.012,-0.427,0.305,0.793,38.047
155225,158817,14589,-0.191,1.015,-0.017,-0.732,0.061,0.915,38.054
155231,158855,9125,-0.189,1.014,-0.021,-0.732,0.061,0.915,38.057
155231,158837,14577,-0.19,1.012,-0.02,-0.854,0.061,0.854,38.064
155239,158855,9125,-0.191,1.013,-0.019,-0.854,0.061,0.854,38.067
155239,158819,14588,-0.191,1.013,-0.022,-0.488,0.366,0.854,38.073
155220,158855,9125,-0.192,1.014,-0.029,-0.488,0.366,0.854,38.077
155220,158821,14583,-0.188,1.017,-0.035,-0.366,0.488,0.488,38.083
155223,158855,9125,-0.188,1.014,-0.028,-0.366,0.488,0.488,38.087
155223,158822,14584,-0.185,1.009,-0.023,-0.122,0.305,0.427,38.093
155219,158855,9125,-0.188,1.013,-0.022,-0.122,0.305,0.427,38.097
155219,158810,14582,-0.19,1.008,-0.028,-0.122,0.244,0.61,38.103
155215,158855,9125,-0.189,1.008,-0.031,-0.122,0.244,0.61,38.107
155215,158840,14584,-0.187,1.011,-0.027,0.183,0.305,0.305,38.113
155228,158855,9125,-0.187,1.01,-0.023,0.183,0.305,0.305,38.117
155228,158804,14568,-0.186,1.007,-0.027,0.549,0.244,0.183,38.123
155203,158855,9125,-0.188,1.012,-0.031,0.549,0.244,0.183,38.127
155203,158783,14576,-0.191,1.015,-0.026,0.183,0.122,0.366,38.133
155184,158855,9125,-0.19,1.01,-0.016,0.183,0.122,0.366,38.137
155184,158791,14571,-0.191,1.008,-0.013,0,-0.061,0.488,38.143
155164,158855,9125,-0.191,1.008,-0.023,0,-0.061,0.488,38.146
155164,158780,14583,-0.192,1.011,-0.027,-0.244,0.122,0.488,38.153
155168,158855,9125,-0.189,1.012,-0.028,-0.244,0.122,0.488,38.156
155168,158791,14576,-0.191,1.009,-0.024,-0.305,0.122,0.366,38.163
155178,158855,9125,-0.193,1.008,-0.019,-0.305,0.122,0.366,38.166
155178,158768,14577,-0.195,1.002,-0.016,-0.61,0.061,0.549,38.172
155153,158855,9125,-0.196,1.003,-0.022,-0.61,0.061,0.549,38.176
155153,158765,14579,-0.19,1.007,-0.023,-0.427,0.183,0.671,38.182
155153,158855,9125,-0.189,1.01,-0.02,-0.427,0.183,0.671,38.186
155153,158766,14580,-0.187,1.016,-0.022,0.244,0.427,0.671,38.192
155133,158855,9125,-0.187,1.016,-0.016,0.244,0.427,0.671,38.196
155133,158762,14587,-0.196,1.013,-0.015,0.305,0.793,0.671,38.202
155140,158855,9125,-0.197,1.013,-0.019,0.305,0.793,0.671,38.206
155140,158768,14580,-0.194,1.014,-0.021,-0.244,0.427,0.366,38.212
155152,158855,9125,-0.193,1.013,-0.024,-0.244,0.427,0.366,38.216
155152,158804,14592,-0.19,1.007,-0.017,-0.61,0,0.244,38.222
155173,158855,9125,-0.192,1.007,-0.018,-0.61,0,0.244,38.226
155173,158804,14572,-0.194,1.011,-0.02,-0.549,0.183,0.488,38.232
155155,158855,9125,-0.192,1.013,-0.025,-0.549,0.183,0.488,38.236
155155,158760,14570,-0.191,1.013,-0.03,-0.183,0.366,0.305,38.242
155152,158855,9125,-0.189,1.013,-0.028,-0.183,0.366,0.305,38.245
155152,158795,14589,-0.188,1.019,-0.025,0.122,0.305,0.122,38.252
155183,158855,9125,-0.186,1.018,-0.023,0.122,0.305,0.122,38.255
155183,158766,14577,-0.189,1.011,-0.019,-0.671,0.244,0.244,38.262
155163,158855,9125,-0.189,1.007,-0.021,-0.671,0.244,0.244,38.265
155163,158780,14578,-0.189,1.006,-0.027,-0.793,0.183,0.244,38.271
155141,158855,9125,-0.186,1.006,-0.031,-0.793,0.183,0.244,38.275
155141,158753,14571,-0.185,1.004,-0.025,-0.305,0.244,-0.061,38.281
155138,158855,9125,-0.186,1.001,-0.023,-0.305,0.244,-0.061,38.285
155138,158756,14580,-0.189,1.006,-0.026,-0.244,0.427,0.183,38.291
155143,158855,9125,-0.188,1.005,-0.023,-0.244,0.427,0.183,38.295
155143,158741,14576,-0.186,1.007,-0.02,-0.366,0.427,0.549,38.301
155123,158855,9125,-0.186,1.009,-0.02,-0.366,0.427,0.549,38.305
155123,158748,14563,-0.186,1.006,-0.021,0.183,0.549,0.671,38.311
155147,158855,9125,-0.187,1.011,-0.025,0.183,0.549,0.671,38.315
155147,158728,14585,-0.189,1.012,-0.02,-0.061,0.61,0.549,38.321
155140,158855,9125,-0.192,1.007,-0.017,-0.061,0.61,0.549,38.325
155140,158722,14572,-0.196,1.007,-0.02,-0.366,0.366,0.732,38.331
155126,158599,9125,-0.194,1.015,-0.02,-0.366,0.366,0.732,38.335
155126,158710,14576,-0.193,1.017,-0.016,-0.427,0.427,0.793,38.341
155103,158599,9125,-0.193,1.014,-0.011,-0.427,0.427,0.793,38.344
155103,158716,14547,-0.191,1.014,-0.018,0,0.671,0.549,38.351
155081,158599,9125,-0.191,1.013,-0.02,0,0.671,0.549,38.354
155081,158701,14569,-0.19,1.014,-0.019,-0.183,0.671,0.488,38.361
155091,158599,9125,-0.189,1.015,-0.02,-0.183,0.671,0.488,38.364
155091,158695,14548,-0.185,1.011,-0.029,-0.488,0.671,0.305,38.37
155067,158599,9125,-0.186,1.009,-0.032,-0.488,0.671,0.305,38.374
155067,158674,14563,-0.184,1.011,-0.034,0,0.793,0.183,38.38
155077,158599,9125,-0.181,1.01,-0.025,0,0.793,0.183,38.384
155077,158673,14547,-0.185,1.008,-0.018,0.488,0.915,0.183,38.39
155070,158599,9125,-0.189,1.01,-0.021,0.488,0.915,0.183,38.394
155070,158657,14556,-0.193,1.012,-0.025,0.427,0.793,0,38.4
155074,158855,9125,-0.19,1.011,-0.022,0.427,0.793,0,38.404
155074,158726,14539,-0.186,1.005,-0.028,0.122,0.366,-0.122,38.41
155085,158599,9125,-0.185,1.007,-0.025,0.122,0.366,-0.122,38.414
155085,158697,14529,-0.186,1.01,-0.016,-0.671,0.122,0.305,38.42
155072,158599,9125,-0.188,1.008,-0.014,-0.671,0.122,0.305,38.424
155072,158706,14558,-0.188,1.003,-0.019,-0.671,0.366,0.488,38.43
155088,158599,9125,-0.187,1.006,-0.023,-0.671,0.366,0.488,38.434
155088,158707,14549,-0.186,1.011,-0.023,0,0.488,0.244,38.44
155062,158599,9125,-0.184,1.014,-0.027,0,0.488,0.244,38.443
155062,158677,14541,-0.188,1.012,-0.025,0.183,0.671,0.244,38.45
155076,158599,9125,-0.188,1.012,-0.025,0.183,0.671,0.244,38.453
155076,158701,14555,-0.186,1.013,-0.019,-0.427,0.305,0.366,38.46
155093,158599,9125,-0.186,1.013,-0.019,-0.427,0.305,0.366,38.463
155093,158700,14530,-0.188,1.009,-0.02,-0.976,-0.122,0.366,38.469
155065,158599,9125,-0.188,1.009,-0.02,-0.976,-0.122,0.366,38.473
155065,158694,14555,-0.188,1.007,-0.016,-0.366,0.305,0.305,38.479
155086,158599,9125,-0.188,1.007,-0.016,-0.366,0.305,0.305,38.483
155086,158699,14543,-0.189,1.005,-0.023,-0.122,0.549,0.366,38.489
155084,158599,9125,-0.189,1.005,-0.023,-0.122,0.549,0.366,38.493
155084,158719,14540,-0.186,1.013,-0.023,-0.183,0.488,0.427,38.499
155092,158599,9125,-0.186,1.013,-0.023,-0.183,0.488,0.427,38.503
155092,158688,14535,-0.188,1.009,-0.022,0.122,0.671,0.549,38.509
155072,158599,9125,-0.188,1.009,-0.022,0.122,0.671,0.549,38.513
155072,158699,14533,-0.195,1.006,-0.022,0.183,1.159,0.427,38.519
155114,158599,9125,-0.195,1.006,-0.022,0.183,1.159,0.427,38.523
155114,158698,14533,-0.192,1.015,-0.021,0.305,0.854,0.305,38.529
155067,158599,9125,-0.192,1.015,-0.021,0.305,0.854,0.305,38.533
155067,158688,14528,-0.192,1.02,-0.026,0.244,0.488,0.305,38.539
155067,158599,9125,-0.192,1.02,-0.026,0.244,0.488,0.305,38.542
155067,158685,14552,-0.189,1.013,-0.027,-0.305,0.183,0.183,38.549
155113,158599,9125,-0.189,1.013,-0.027,-0.305,0.183,0.183,38.552
155113,158703,14536,-0.191,1.008,-0.025,-0.61,0.244,0.061,38.559
155080,158599,9125,-0.191,1.008,-0.025,-0.61,0.244,0.061,38.562
155080,158657,14540,-0.19,1.006,-0.018,-0.305,0.305,0.061,38.568
155087,158599,9125,-0.19,1.006,-0.018,-0.305,0.305,0.061,38.572
155087,158681,14533,-0.19,1.007,-0.026,0.549,0.61,0.122,38.578
155067,158599,9125,-0.19,1.007,-0.026,0.549,0.61,0.122,38.582
155067,158670,14539,-0.188,1.015,-0.021,0.549,0.854,0.061,38.588
155068,158599,9125,-0.188,1.015,-0.021,0.549,0.854,0.061,38.592
155068,158664,14545,-0.191,1.009,-0.02,0.549,0.854,0.061,38.598
155047,158599,9125,-0.188,1.002,-0.022,0,0.671,0.061,38.602
155047,158668,14533,-0.19,1.008,-0.025,0,0.671,0.061,38.608
155049,158599,9125,-0.189,1.013,-0.026,-0.549,0.366,0.244,38.612
155049,158675,14538,-0.187,1.01,-0.018,-0.549,0.366,0.244,38.618
155036,158599,9125,-0.189,1.007,-0.02,-0.183,0.122,0.244,38.622
155036,158655,14540,-0.187,1.012,-0.025,-0.183,0.122,0.244,38.628
155056,158599,9125,-0.19,1.015,-0.027,0.061,0.122,0.183,38.632
155056,158684,14512,-0.19,1.014,-0.026,0.061,0.122,0.183,38.638
155007,158599,9125,-0.193,1.009,-0.021,0.061,0.183,0.183,38.641
155007,158662,14525,-0.192,1.007,-0.017,0.061,0.183,0.183,38.648
155024,158599,9125,-0.193,1.009,-0.021,0.061,0.366,0.183,38.651
155024,158674,14527,-0.194,1.011,-0.021,0.061,0.366,0.183,38.658
155027,158599,9125,-0.19,1.014,-0.023,-0.061,0.183,0.183,38.661
155027,158670,14524,-0.187,1.018,-0.021,-0.061,0.183,0.183,38.667
155021,158599,9125,-0.186,1.016,-0.022,0,0.061,0.122,38.671
155021,158659,14524,-0.189,1.014,-0.03,0,0.061,0.122,38.677
155033,158599,9125,-0.192,1.012,-0.029,-0.732,0.183,0.122,38.681
155033,158675,14515,-0.194,1.008,-0.02,-0.732,0.183,0.122,38.687
155038,158599,9125,-0.192,1.01,-0.019,-1.098,-0.122,-0.061,38.691
155038,158678,14529,-0.19,1.013,-0.019,-1.098,-0.122,-0.061,38.697
155028,158599,9125,-0.192,1.007,-0.019,-0.854,-0.122,-0.122,38.701
155028,158685,14531,-0.193,1.005,-0.026,-0.854,-0.122,-0.122,38.707
155049,158599,9125,-0.191,1.006,-0.032,-0.427,0.183,-0.061,38.711
155049,158666,14525,-0.188,1.008,-0.018,-0.427,0.183,-0.061,38.717
155049,158599,9125,-0.186,1.01,-0.005,-0.305,0.488,0,38.721
155049,158697,14538,-0.19,1.006,-0.012,-0.305,0.488,0,38.727
155072,158599,9125,-0.192,1.006,-0.028,0.061,0.549,0.183,38.731
155072,158678,14515,-0.189,1.011,-0.029,0.061,0.549,0.183,38.737
155059,158599,9125,-0.184,1.009,-0.026,-0.122,0.366,-0.061,38.74
155059,158682,14542,-0.181,1.006,-0.018,-0.122,0.366,-0.061,38.747
155057,158599,9125,-0.189,1.013,-0.01,-0.122,0.488,0.183,38.75
155057,158685,14537,-0.196,1.009,-0.018,-0.122,0.488,0.183,38.757
155059,158599,9125,-0.192,1.013,-0.032,0.122,1.098,0.244,38.76
155059,158674,14529,-0.186,1.02,-0.02,0.122,1.098,0.244,38.766
155073,158599,9125,-0.186,1.014,-0.012,0.244,0.854,-0.305,38.77
155073,158672,14525,-0.191,1.01,-0.021,0.244,0.854,-0.305,38.776
155052,158599,9125,-0.194,1.013,-0.029,-0.183,0.915,0.061,38.78
155052,158692,14537,-0.193,1.008,-0.024,-0.183,0.915,0.061,38.786
155072,158599,9125,-0.187,1.005,-0.021,-0.732,0.488,0,38.79
155072,158694,14532,-0.189,1.013,-0.015,-0.732,0.488,0,38.796
155066,158599,9125,-0.19,1.012,-0.011,-0.671,0.366,0,38.8
155066,158715,14550,-0.191,1.007,-0.017,-0.671,0.366,0,38.806
155107,158599,9125,-0.193,1.005,-0.027,-0.549,0.915,0.061,38.81
155107,158713,14542,-0.191,1.011,-0.028,-0.549,0.915,0.061,38.816
155120,158855,9125,-0.188,1.007,-0.024,-0.61,0.732,-0.183,38.82
155120,158737,14540,-0.191,1.004,-0.021,-0.61,0.732,-0.183,38.826
155094,158855,9125,-0.191,1.007,-0.022,-0.549,0.549,0.061,38.83
155094,158746,14540,-0.189,1.006,-0.019,-0.549,0.549,0.061,38.836
155078,158855,9125,-0.185,1.003,-0.015,-0.061,0.915,0.061,38.839
155078,158729,14543,-0.188,1.005,-0.022,-0.061,0.915,0.061,38.846
155074,158855,9125,-0.188,1.005,-0.023,0.427,1.28,0.305,38.849
155074,158725,14544,-0.192,1.006,-0.024,0.427,1.28,0.305,38.856
155084,158855,9125,-0.193,1.009,-0.028,0.366,1.28,0.427,38.859
155084,158732,14539,-0.191,1.012,-0.032,0.366,1.28,0.427,38.865
155105,158855,9125,-0.188,1.014,-0.03,0.366,0.976,0.427,38.869
155105,158724,14539,-0.19,1.012,-0.026,0.366,0.976,0.427,38.875
155090,158855,9125,-0.188,1.013,-0.023,0.366,0.671,0.488,38.879
155090,158722,14538,-0.191,1.014,-0.024,0.366,0.671,0.488,38.885
155097,158855,9125,-0.194,1.011,-0.022,-0.122,0.61,0.427,38.889
155097,158726,14543,-0.195,1.008,-0.019,-0.122,0.61,0.427,38.895
155068,158855,9125,-0.194,1.008,-0.025,-0.61,0.183,0.488,38.899
155068,158734,14560,-0.191,1.011,-0.03,-0.61,0.183,0.488,38.905
155119,158855,9125,-0.188,1.009,-0.029,-0.915,0.061,0.549,38.909
155119,158746,14540,-0.189,1.002,-0.023,-0.915,0.061,0.549,38.915
155102,158599,9125,-0.19,1.006,-0.018,-0.671,0.305,0.732,38.919
155102,158717,14552,-0.191,1.01,-0.027,-0.671,0.305,0.732,38.925
155113,158855,9125,-0.191,1.011,-0.038,-0.061,0.427,0.793,38.929
155113,158722,14540,-0.192,1.011,-0.031,-0.061,0.427,0.793,38.935
155103,158855,9125,-0.19,1.014,-0.021,0.488,0.244,0.366,38.938
155103,158731,14544,-0.196,1.013,-0.022,0.488,0.244,0.366,38.945
155133,158855,9125,-0.198,1.012,-0.034,0.122,0.366,0.671,38.948
155133,158743,14540,-0.198,1.005,-0.03,0.122,0.366,0.671,38.954
155124,158855,9125,-0.195,1.002,-0.022,-0.854,0,0.488,38.958
155124,158732,14537,-0.191,1.004,-0.019,-0.854,0,0.488,38.964
155145,158855,9125,-0.187,1.005,-0.02,-0.732,-0.61,0.854,38.968
155145,158752,14544,-0.184,1.003,-0.024,-0.732,-0.61,0.854,38.974
155138,158855,9125,-0.185,1.002,-0.021,-0.183,-0.061,0.854,38.978
155138,158740,14544,-0.187,1.003,-0.019,-0.183,-0.061,0.854,38.984
155160,158855,9125,-0.19,1.003,-0.025,0.183,0.427,0.732,38.988
155160,158768,14540,-0.19,1.005,-0.021,0.183,0.427,0.732,38.994
155134,158855,9125,-0.187,1.01,-0.02,0.122,-0.061,0.915,38.998
155134,158750,14550,-0.183,1.013,-0.02,0.122,-0.061,0.915,39.004
155160,158855,9125,-0.179,1.011,-0.021,0.061,-0.244,1.037,39.008
155160,158773,14556,-0.182,1.01,-0.027,0.061,-0.244,1.037,39.014
155193,158855,9125,-0.184,1.011,-0.027,-0.427,0.061,1.098,39.018
155193,158771,14545,-0.182,1.01,-0.025,-0.427,0.061,1.098,39.024
155149,158855,9125,-0.184,1.009,-0.02,0.183,0.183,0.854,39.028
155149,158772,14542,-0.19,1.014,-0.019,0.183,0.183,0.854,39.034
155164,158855,9125,-0.19,1.014,-0.019,0.183,0.183,0.854,39.037
155164,158787,14558,-0.193,1.016,-0.016,0.915,0.488,0.732,39.044
155165,158855,9125,-0.193,1.016,-0.016,0.915,0.488,0.732,39.047
155165,158796,14546,-0.196,1.019,-0.026,1.402,0.793,0.671,39.054
155180,158855,9125,-0.196,1.019,-0.026,1.402,0.793,0.671,39.057
155180,158801,14560,-0.194,1.016,-0.022,0.305,0.305,0.427,39.063
155174,158855,9125,-0.194,1.016,-0.022,0.305,0.305,0.427,39.067
155174,158808,14533,-0.191,1.003,-0.025,-0.793,-0.793,0.549,39.073
155188,158855,9125,-0.191,1.003,-0.025,-0.793,-0.793,0.549,39.077
155188,158803,14562,-0.188,1.006,-0.019,-1.402,-1.22,0.793,39.083
155212,158855,9125,-0.188,1.006,-0.019,-1.402,-1.22,0.793,39.087
155212,158820,14556,-0.19,0.999,-0.019,-1.098,-0.793,0.671,39.093
155235,158855,9125,-0.19,0.999,-0.019,-1.098,-0.793,0.671,39.097
155235,158860,14568,-0.192,1.01,-0.025,0.244,-0.061,0.671,39.103
155241,158855,9125,-0.192,1.01,-0.025,0.244,-0.061,0.671,39.107
155241,158851,14566,-0.186,1.011,-0.014,0.366,0.122,0.549,39.113
155261,158855,9125,-0.186,1.011,-0.014,0.366,0.122,0.549,39.117
155261,158867,14564,-0.187,1.015,-0.018,-0.061,0.061,0.854,39.123
155265,158855,9125,-0.187,1.015,-0.018,-0.061,0.061,0.854,39.127
155265,158823,14565,-0.186,1.009,-0.023,-0.183,0.244,0.915,39.133
155263,158855,9125,-0.186,1.009,-0.023,-0.183,0.244,0.915,39.136
155263,158885,14585,-0.187,1.013,-0.021,-0.183,0.671,0.488,39.143
155298,158855,9125,-0.187,1.013,-0.021,-0.183,0.671,0.488,39.146
155298,158888,14566,-0.188,1.006,-0.033,0.183,0.793,0.61,39.152
155314,158855,9125,-0.188,1.006,-0.033,0.183,0.793,0.61,39.156
155314,158903,14581,-0.186,1.009,-0.026,0.732,0.427,0.366,39.162
155326,158855,9125,-0.186,1.009,-0.026,0.732,0.427,0.366,39.166
155326,158876,14603,-0.194,1.007,-0.032,0.122,0.427,0.244,39.172
155316,158855,9125,-0.194,1.007,-0.032,0.122,0.427,0.244,39.176
155316,158879,14577,-0.193,1.006,-0.032,-0.183,0.244,0.366,39.182
155314,158855,9125,-0.189,1.009,-0.02,-0.183,0.244,0.366,39.186
155314,158890,14591,-0.189,1.009,-0.019,0.122,-0.183,0.366,39.192
155283,158855,9125,-0.189,1.01,-0.015,0.122,-0.183,0.366,39.196
155283,158867,14577,-0.193,1.011,-0.013,0,0.305,0.549,39.202
155308,158855,9125,-0.195,1.01,-0.019,0,0.305,0.549,39.206
155308,158891,14571,-0.194,1.01,-0.019,0,0.61,0.732,39.212
155290,158855,9125,-0.193,1.018,-0.021,0,0.61,0.732,39.216
155290,158842,14595,-0.19,1.025,-0.024,0.183,0.305,0.61,39.222
155290,158855,9125,-0.191,1.023,-0.022,0.183,0.305,0.61,39.225
155290,158886,14567,-0.192,1.015,-0.021,-0.366,0.305,0.549,39.232
155268,158855,9125,-0.189,1.012,-0.024,-0.366,0.305,0.549,39.235
155268,158871,14576,-0.189,1.009,-0.025,-1.037,0.488,0.366,39.242
155266,158855,9125,-0.189,1.009,-0.025,-1.037,0.488,0.366,39.245
155266,158847,14570,-0.186,1.004,-0.025,-0.671,0.488,0.244,39.251
155254,158855,9125,-0.185,1.005,-0.024,-0.671,0.488,0.244,39.255
155254,158860,14575,-0.186,1.007,-0.032,0,0.61,0.305,39.261
155250,158855,9125,-0.186,1.005,-0.035,0,0.61,0.305,39.265
155250,158812,14574,-0.183,1.009,-0.033,0,0.427,0.305,39.271
155253,158855,9125,-0.183,1.009,-0.024,0,0.427,0.305,39.275
155253,158847,14575,-0.186,1.005,-0.019,-0.366,0.061,0.427,39.281
155213,158855,9125,-0.188,1.006,-0.016,-0.366,0.061,0.427,39.285
155213,158837,14584,-0.188,1.006,-0.018,-0.854,0.061,0.732,39.291
155227,158855,9125,-0.184,1.007,-0.021,-0.854,0.061,0.732,39.295
155227,158856,14582,-0.186,1.014,-0.022,-0.305,0.244,0.793,39.301
155218,158855,9125,-0.188,1.01,-0.018,-0.305,0.244,0.793,39.305
155218,158834,14575,-0.189,1.01,-0.021,0.549,0.488,0.61,39.311
155218,158855,9125,-0.188,1.01,-0.024,0.549,0.488,0.61,39.315
155218,158825,14583,-0.191,1.013,-0.022,0.732,0.427,0.488,39.321
155229,158855,9125,-0.19,1.017,-0.017,0.732,0.427,0.488,39.325
155229,158845,14572,-0.192,1.016,-0.019,0.427,0.305,0.488,39.331
155199,158855,9125,-0.194,1.01,-0.024,0.427,0.305,0.488,39.334
155199,158846,14568,-0.193,1.01,-0.031,0.183,0.549,0.305,39.341
155193,158855,9125,-0.191,1.014,-0.025,0.183,0.549,0.305,39.344
155193,158803,14550,-0.192,1.011,-0.024,-0.244,0.61,0.244,39.35
155157,158855,9125,-0.195,1.008,-0.025,-0.244,0.61,0.244,39.354
155157,158797,14564,-0.194,1.003,-0.024,-0.488,0.366,0.549,39.36
155163,158855,9125,-0.192,1.005,-0.025,-0.488,0.366,0.549,39.364
155163,158787,14564,-0.188,1.005,-0.019,-0.793,0.061,0.671,39.37
155142,158855,9125,-0.191,1.003,-0.014,-0.793,0.061,0.671,39.374
155142,158789,14572,-0.19,1.01,-0.02,-0.244,0.244,0.793,39.38
155162,158855,9125,-0.191,1.013,-0.022,-0.244,0.244,0.793,39.384
155162,158775,14562,-0.188,1.016,-0.027,0.427,0.488,0.732,39.39
155142,158855,9125,-0.187,1.019,-0.03,0.427,0.488,0.732,39.394
155142,158785,14567,-0.188,1.017,-0.024,0.305,0.549,0.366,39.4
155137,158855,9125,-0.188,1.016,-0.017,0.305,0.549,0.366,39.404
155137,158760,14560,-0.189,1.022,-0.018,-0.366,0.305,0.366,39.41
155142,158855,9125,-0.19,1.016,-0.018,-0.366,0.305,0.366,39.414
155142,158773,14545,-0.189,1.012,-0.023,-0.549,0.183,0.183,39.42
155119,158855,9125,-0.188,1.009,-0.026,-0.549,0.183,0.183,39.424
155119,158759,14559,-0.184,1.014,-0.026,-0.244,0.427,-0.122,39.43
155144,158855,9125,-0.186,1.014,-0.023,-0.244,0.427,-0.122,39.433
155144,158743,14534,-0.187,1.007,-0.018,0.122,0.61,0,39.44
155121,158599,9125,-0.186,1.005,-0.017,0.122,0.61,0,39.443
155121,158719,14556,-0.187,1.004,-0.022,0.244,0.732,0,39.449
155106,158855,9125,-0.187,0.999,-0.029,0.244,0.732,0,39.453
155106,158747,14543,-0.184,0.998,-0.026,0,0.427,0.061,39.459
155126,158855,9125,-0.187,1.002,-0.028,0,0.427,0.061,39.463
155126,158720,14558,-0.187,1.008,-0.03,-0.061,0.244,0.671,39.469
155145,158855,9125,-0.183,1.007,-0.028,-0.061,0.244,0.671,39.473
155145,158749,14545,-0.186,1.01,-0.028,0.122,0.122,0.61,39.479
155118,158855,9125,-0.188,1.007,-0.024,0.122,0.122,0.61,39.483
155118,158750,14554,-0.192,1.007,-0.02,0,0.244,0.366,39.489
155138,158855,9125,-0.195,1.012,-0.021,0,0.244,0.366,39.493
155138,158753,14542,-0.196,1.014,-0.024,-0.61,0.305,0.488,39.499
155131,158855,9125,-0.195,1.008,-0.021,-0.61,0.305,0.488,39.503
155131,158753,14542,-0.195,1.013,-0.016,-0.305,0.061,0.549,39.509
155094,158599,9125,-0.193,1.015,-0.02,-0.305,0.061,0.549,39.513
155094,158713,14548,-0.192,1.018,-0.023,0.488,0.244,0.61,39.519
155107,158599,9125,-0.195,1.02,-0.02,0.488,0.244,0.61,39.523
155107,158701,14523,-0.195,1.018,-0.019,1.159,0.976,0,39.529
155103,158855,9125,-0.195,1.02,-0.022,1.159,0.976,0,39.532
155103,158736,14523,-0.195,1.015,-0.024,0.793,0.854,-0.305,39.539
155111,158855,9125,-0.192,1.016,-0.025,0.793,0.854,-0.305,39.542
155111,158726,14544,-0.187,1.016,-0.024,-0.305,0.488,-0.244,39.548
155101,158599,9125,-0.185,1.01,-0.021,-0.305,0.488,-0.244,39.552
155101,158716,14545,-0.183,1.005,-0.024,-0.244,0.549,-0.122,39.558
155105,158599,9125,-0.184,1.007,-0.03,-0.244,0.549,-0.122,39.562
155105,158696,14531,-0.183,1.006,-0.028,0.427,0.915,-0.061,39.568
155129,158599,9125,-0.183,1.002,-0.024,0.427,0.915,-0.061,39.572
155129,158712,14527,-0.185,1.005,-0.024,0.854,1.037,-0.061,39.578
155104,158599,9125,-0.184,1.006,-0.02,0.854,1.037,-0.061,39.582
155104,158718,14538,-0.183,1.006,-0.02,0.427,0.976,0.183,39.588
155127,158599,9125,-0.186,1.004,-0.024,0.427,0.976,0.183,39.592
155127,158707,14522,-0.186,1.009,-0.025,-0.305,0.549,0.366,39.598
155098,158599,9125,-0.186,1.008,-0.017,-0.305,0.549,0.366,39.602
155098,158696,14532,-0.188,1.004,-0.017,-0.671,0.061,0.488,39.608
155117,158599,9125,-0.187,1.006,-0.026,-0.671,0.061,0.488,39.612
155117,158710,14523,-0.184,1.01,-0.032,0.305,0.305,0.671,39.618
155090,158599,9125,-0.183,1.012,-0.031,0.305,0.305,0.671,39.622
155090,158706,14533,-0.188,1.009,-0.024,0.488,0.61,0.427,39.628
155081,158855,9125,-0.188,1.009,-0.024,0.488,0.61,0.427,39.631
155081,158720,14531,-0.192,1.012,-0.023,-0.183,0.488,0.61,39.638
155066,158599,9125,-0.192,1.012,-0.023,-0.183,0.488,0.61,39.641
155066,158680,14537,-0.191,1.009,-0.03,-0.61,0.366,0.671,39.647
155062,158599,9125,-0.191,1.009,-0.03,-0.61,0.366,0.671,39.651
155062,158705,14528,-0.186,1.015,-0.029,-0.366,0.305,0.427,39.657
155071,158599,9125,-0.186,1.015,-0.029,-0.366,0.305,0.427,39.661
155071,158698,14528,-0.19,1.014,-0.026,-0.122,0.488,0.549,39.667
155067,158855,9125,-0.19,1.014,-0.026,-0.122,0.488,0.549,39.671
155067,158722,14539,-0.193,1.016,-0.021,-0.427,0.488,0.427,39.677
155077,158599,9125,-0.193,1.016,-0.021,-0.427,0.488,0.427,39.681
155077,158703,14537,-0.19,1.013,-0.031,-0.427,0.183,0.305,39.687
155063,158599,9125,-0.19,1.013,-0.031,-0.427,0.183,0.305,39.691
155063,158704,14520,-0.185,1.01,-0.033,-0.61,0.183,0.366,39.697
155071,158599,9125,-0.185,1.01,-0.033,-0.61,0.183,0.366,39.701
155071,158718,14525,-0.19,1.011,-0.024,-0.671,0.183,0.244,39.707
155098,158599,9125,-0.19,1.011,-0.024,-0.671,0.183,0.244,39.711
155098,158707,14539,-0.19,1.011,-0.029,-0.793,0.122,0.183,39.717
155068,158599,9125,-0.19,1.011,-0.029,-0.793,0.122,0.183,39.72
155068,158719,14523,-0.189,1.005,-0.025,-0.854,-0.061,0.183,39.727
155079,158599,9125,-0.189,1.005,-0.025,-0.854,-0.061,0.183,39.73
155079,158697,14538,-0.187,1.014,-0.023,-0.61,-0.061,0.427,39.737
155059,158599,9125,-0.187,1.014,-0.023,-0.61,-0.061,0.427,39.74
155059,158687,14533,-0.185,1.007,-0.02,0.183,0.122,0.305,39.746
155069,158599,9125,-0.185,1.007,-0.02,0.183,0.122,0.305,39.75
155069,158697,14511,-0.189,1.013,-0.023,0.061,0.366,0.183,39.756
155071,158599,9125,-0.189,1.013,-0.023,0.061,0.366,0.183,39.76
155071,158709,14518,-0.189,1.011,-0.021,-0.488,0.122,0.366,39.766
155074,158599,9125,-0.189,1.011,-0.021,-0.488,0.122,0.366,39.77
155074,158670,14534,-0.19,1.004,-0.021,-0.488,0.122,0.366,39.776
155082,158599,9125,-0.188,1.007,-0.023,-0.244,0,0.366,39.78
155082,158697,14538,-0.187,1.014,-0.024,-0.244,0,0.366,39.786
155097,158855,9125,-0.192,1.015,-0.024,0.183,0.671,0.183,39.79
155097,158721,14532,-0.192,1.012,-0.021,0.183,0.671,0.183,39.796
155121,158855,9125,-0.189,1.012,-0.021,0.305,0.61,0.122,39.8
155121,158737,14528,-0.191,1.016,-0.022,0.305,0.61,0.122,39.806
155136,158855,9125,-0.193,1.015,-0.023,-0.061,0.122,0.305,39.81
155136,158740,14535,-0.189,1.011,-0.022,-0.061,0.122,0.305,39.816
155158,158855,9125,-0.186,1.013,-0.02,-0.061,0.366,-0.061,39.82
155158,158775,14538,-0.191,1.01,-0.02,-0.061,0.366,-0.061,39.826
155140,158855,9125,-0.192,1.007,-0.023,0.244,0.732,-0.122,39.829
155140,158752,14538,-0.191,1.009,-0.027,0.244,0.732,-0.122,39.836
155142,158855,9125,-0.19,1.01,-0.022,0.122,0.488,0,39.839
155142,158773,14523,-0.191,1.007,-0.015,0.122,0.488,0,39.845
155112,158855,9125,-0.192,1.003,-0.014,-0.183,0.427,0.061,39.849
155112,158775,14544,-0.19,1.001,-0.024,-0.183,0.427,0.061,39.855
155126,158855,9125,-0.188,1.005,-0.032,-0.427,0.488,0.183,39.859
155126,158747,14523,-0.189,1.008,-0.031,-0.427,0.488,0.183,39.865
155121,158855,9125,-0.184,1.004,-0.024,-0.305,0.305,0.305,39.869
155121,158761,14535,-0.185,1.006,-0.022,-0.305,0.305,0.305,39.875
155127,158855,9125,-0.186,1.012,-0.022,0,0.183,0.366,39.879
155127,158750,14543,-0.188,1.01,-0.025,0,0.183,0.366,39.885
155142,158855,9125,-0.188,1.011,-0.026,-0.305,0.305,0.427,39.889
155142,158760,14531,-0.188,1.007,-0.022,-0.305,0.305,0.427,39.895
155127,158855,9125,-0.188,1.008,-0.023,-0.488,0.549,0.488,39.899
155127,158750,14542,-0.186,1.011,-0.026,-0.488,0.549,0.488,39.905
155136,158855,9125,-0.186,1.008,-0.023,-0.305,0.488,0.61,39.909
155136,158790,14524,-0.188,1.008,-0.023,-0.305,0.488,0.61,39.915
155123,158855,9125,-0.188,1.011,-0.024,-0.305,0.427,0.61,39.918
155123,158762,14535,-0.187,1.009,-0.026,-0.305,0.427,0.61,39.925
155136,158855,9125,-0.188,1.01,-0.024,-0.854,0.427,0.488,39.928
155136,158764,14534,-0.188,1.012,-0.018,-0.854,0.427,0.488,39.935
155125,158855,9125,-0.188,1.013,-0.02,-0.854,0.244,0.488,39.938
155125,158752,14531,-0.189,1.012,-0.021,-0.854,0.244,0.488,39.944
155107,158855,9125,-0.193,1.01,-0.026,-0.732,0.183,0.488,39.948
155107,158744,14535,-0.189,1.01,-0.035,-0.732,0.183,0.488,39.954
155141,158855,9125,-0.187,1.012,-0.03,-0.732,0.305,0.305,39.958
155141,158751,14536,-0.185,1.011,-0.027,-0.732,0.305,0.305,39.964
155130,158855,9125,-0.185,1.009,-0.031,-0.183,0.305,0.366,39.968
155130,158789,14544,-0.19,1.01,-0.023,-0.183,0.305,0.366,39.974
155161,158855,9125,-0.189,1.012,-0.019,0.244,0.244,0.427,39.978
155161,158772,14531,-0.19,1.009,-0.022,0.244,0.244,0.427,39.984
155145,158855,9125,-0.192,1.011,-0.025,0.427,0.366,0.305,39.988
155145,158758,14539,-0.19,1.011,-0.027,0.427,0.366,0.305,39.994
155132,158855,9125,-0.195,1.008,-0.023,-0.183,0.366,0.061,39.998
155132,158770,14544,-0.194,1.008,-0.017,-0.183,0.366,0.061,40.004
155128,158855,9125,-0.19,1.009,-0.02,-0.793,-0.183,0.366,40.008
155128,158751,14531,-0.191,1.012,-0.025,-0.793,-0.183,0.366,40.014
155121,158855,9125,-0.191,1.007,-0.023,-0.793,-0.244,0.488,40.018
155121,158730,14536,-0.189,1.01,-0.021,-0.793,-0.244,0.488,40.024
155127,158855,9125,-0.192,1.01,-0.026,0.244,-0.061,0.305,40.027
155127,158771,14528,-0.194,1.014,-0.028,0.244,-0.061,0.305,40.034
155133,158855,9125,-0.193,1.018,-0.026,0.183,0,0.366,40.037
155133,158767,14536,-0.192,1.015,-0.021,0.183,0,0.366,40.043
155122,158855,9125,-0.195,1.013,-0.021,-0.305,0,0.366,40.047
155122,158789,14531,-0.192,1.012,-0.025,-0.305,0,0.366,40.053
155149,158855,9125,-0.19,1.014,-0.027,-0.549,-0.061,0.183,40.057
155149,158790,14547,-0.192,1.009,-0.022,-0.549,-0.061,0.183,40.063
155143,158855,9125,-0.19,1.007,-0.02,-0.732,-0.305,0.366,40.067
155143,158778,14556,-0.188,1.007,-0.023,-0.732,-0.305,0.366,40.073
155136,158855,9125,-0.188,1.011,-0.019,-0.732,-0.122,0.366,40.077
155136,158804,14535,-0.189,1.011,-0.018,-0.732,-0.122,0.366,40.083
155156,158855,9125,-0.189,1.01,-0.025,-0.671,0.122,0.244,40.087
155156,158788,14540,-0.184,1.011,-0.024,-0.671,0.122,0.244,40.093
155158,158855,9125,-0.181,1.011,-0.024,-0.427,0.183,0.366,40.097
155158,158798,14531,-0.184,1.01,-0.024,-0.427,0.183,0.366,40.103
155170,158855,9125,-0.185,1.008,-0.022,-0.488,0.549,0.305,40.107
155170,158796,14542,-0.189,1.007,-0.028,-0.488,0.549,0.305,40.113
155174,158855,9125,-0.192,1.004,-0.028,-0.244,0.671,0.122,40.117
155174,158808,14547,-0.191,1.006,-0.027,-0.244,0.671,0.122,40.123
155170,158855,9125,-0.189,1.011,-0.025,0.183,0.427,0.061,40.126
155170,158805,14546,-0.189,1.012,-0.025,0.183,0.427,0.061,40.133
155181,158855,9125,-0.19,1.008,-0.023,0.244,0.366,0.183,40.136
155181,158821,14547,-0.19,1.013,-0.018,0.244,0.366,0.183,40.143
155166,158855,9125,-0.194,1.013,-0.01,-0.183,0.305,0.366,40.146
155166,158809,14547,-0.191,1.011,-0.008,-0.183,0.305,0.366,40.152
155189,158855,9125,-0.192,1.007,-0.018,-0.549,0,0.549,40.156
155189,158804,14541,-0.19,1.01,-0.024,-0.549,0,0.549,40.162
155165,158855,9125,-0.186,1.01,-0.022,-0.854,-0.061,0.549,40.166
155165,158797,14542,-0.188,1.008,-0.022,-0.854,-0.061,0.549,40.172
155170,158855,9125,-0.188,1.009,-0.023,-0.732,0.122,0.61,40.176
155170,158783,14552,-0.188,1.01,-0.025,-0.732,0.122,0.61,40.182
155169,158855,9125,-0.192,1.009,-0.023,-0.549,0.305,0.366,40.186
155169,158798,14537,-0.192,1.007,-0.02,-0.549,0.305,0.366,40.192
155179,158855,9125,-0.191,1.012,-0.026,-0.183,0.427,0.305,40.196
155179,158802,14552,-0.191,1.014,-0.026,-0.183,0.427,0.305,40.202
155195,158855,9125,-0.188,1.017,-0.026,0.244,0.366,0.305,40.206
155195,158811,14535,-0.184,1.02,-0.031,0.244,0.366,0.305,40.212
155194,158855,9125,-0.184,1.02,-0.031,0.244,0.366,0.305,40.216
155194,158814,14556,-0.186,1.015,-0.028,-0.061,0.488,0.183,40.222
155175,158855,9125,-0.186,1.015,-0.028,-0.061,0.488,0.183,40.225
155175,158809,14551,-0.19,1.007,-0.025,-0.488,0.305,0.061,40.232
155191,158855,9125,-0.19,1.007,-0.025,-0.488,0.305,0.061,40.235
155191,158818,14561,-0.188,1.006,-0.03,-0.732,0.122,-0.244,40.241
155198,158855,9125,-0.188,1.006,-0.03,-0.732,0.122,-0.244,40.245
155198,158816,14560,-0.191,1.001,-0.022,-0.183,0.061,-0.305,40.251
155193,158855,9125,-0.191,1.001,-0.022,-0.183,0.061,-0.305,40.255
155193,158831,14564,-0.19,1.004,-0.016,0.244,0.061,-0.061,40.261
155207,158855,9125,-0.19,1.004,-0.016,0.244,0.061,-0.061,40.265
155207,158811,14547,-0.19,1.002,-0.012,-0.244,0.061,0.183,40.271
155195,158855,9125,-0.19,1.002,-0.012,-0.244,0.061,0.183,40.275
155195,158828,14548,-0.188,1.005,-0.022,-0.549,0.183,0.366,40.281
155213,158855,9125,-0.188,1.005,-0.022,-0.549,0.183,0.366,40.285
155213,158840,14538,-0.189,1.008,-0.019,-0.549,0.488,0.488,40.291
155227,158855,9125,-0.189,1.008,-0.019,-0.549,0.488,0.488,40.295
155227,158840,14563,-0.188,1.008,-0.018,-0.305,0.61,0.549,40.301
155235,158855,9125,-0.188,1.008,-0.018,-0.305,0.61,0.549,40.305
155235,158878,14562,-0.193,1.016,-0.017,-0.488,0.488,0.549,40.311
155223,158855,9125,-0.193,1.016,-0.017,-0.488,0.488,0.549,40.315
155223,158873,14563,-0.193,1.02,-0.021,-0.549,0.427,0.549,40.321
155210,158855,9125,-0.193,1.02,-0.021,-0.549,0.427,0.549,40.324
155210,158844,14562,-0.187,1.017,-0.025,-0.61,0.549,0.427,40.331
155224,158855,9125,-0.187,1.017,-0.025,-0.61,0.549,0.427,40.334
155224,158854,14540,-0.188,1.013,-0.02,-1.037,0.427,0.366,40.341
155189,158855,9125,-0.188,1.013,-0.02,-1.037,0.427,0.366,40.344
155189,158819,14560,-0.187,1.007,-0.027,-1.341,0.244,0.305,40.35
155166,158855,9125,-0.187,1.007,-0.027,-1.341,0.244,0.305,40.354
155166,158820,14558,-0.185,1.007,-0.036,-0.61,0.366,0.061,40.36
155200,158855,9125,-0.185,1.007,-0.036,-0.61,0.366,0.061,40.364
155200,158821,14551,-0.187,1.005,-0.033,-0.061,0.549,-0.122,40.37
155187,158855,9125,-0.191,1.012,-0.027,-0.061,0.549,-0.122,40.374
155187,158842,14561,-0.192,1.01,-0.021,0,0.671,0.061,40.38
155198,158855,9125,-0.192,1.006,-0.018,0,0.671,0.061,40.384
155198,158838,14551,-0.191,1.006,-0.019,0.244,0.549,0.244,40.39
155203,158855,9125,-0.19,1.013,-0.024,0.244,0.549,0.244,40.394
155203,158820,14557,-0.188,1.01,-0.025,-0.366,0.366,0.305,40.4
155207,158855,9125,-0.189,1.006,-0.018,-0.366,0.366,0.305,40.404
155207,158876,14554,-0.191,1.006,-0.021,-0.732,0.305,0.427,40.41
155197,158855,9125,-0.189,1.009,-0.028,-0.732,0.305,0.427,40.414
155197,158838,14552,-0.19,1.007,-0.027,-0.427,0.549,0.427,40.42
155191,158855,9125,-0.19,1.003,-0.021,-0.427,0.549,0.427,40.423
155191,158831,14554,-0.191,1.006,-0.021,0.488,0.671,0.305,40.43
155209,158855,9125,-0.191,1.013,-0.026,0.488,0.671,0.305,40.433
155209,158831,14554,-0.191,1.018,-0.025,0.671,0.549,0.427,40.439
155196,158855,9125,-0.194,1.017,-0.019,0.671,0.549,0.427,40.443
155196,158858,14558,-0.195,1.01,-0.021,0.244,0.366,0.488,40.449
155223,158855,9125,-0.195,1.01,-0.024,0.244,0.366,0.488,40.453
155223,158848,14557,-0.196,1.015,-0.028,-0.732,0.061,0.427,40.459
155207,158855,9125,-0.193,1.013,-0.021,-0.732,0.061,0.427,40.463
155207,158855,14552,-0.188,1.011,-0.018,-1.098,-0.305,0.305,40.469
155231,158855,9125,-0.189,1.013,-0.018,-1.098,-0.305,0.305,40.473
155231,158845,14551,-0.191,1.018,-0.014,-0.793,-0.122,0.305,40.479
155239,158855,9125,-0.191,1.015,-0.009,-0.793,-0.122,0.305,40.483
155239,158874,14572,-0.193,1.01,-0.014,-0.427,0.366,0.061,40.489
155252,158855,9125,-0.194,1.008,-0.022,-0.427,0.366,0.061,40.493
155252,158847,14559,-0.192,1.007,-0.021,-0.366,0.488,0,40.499
155243,158855,9125,-0.189,1.013,-0.019,-0.366,0.488,0,40.503
155243,158860,14561,-0.187,1.01,-0.02,-0.305,0.244,0.183,40.509
155233,158855,9125,-0.184,1.004,-0.025,-0.305,0.244,0.183,40.513
155233,158833,14566,-0.187,1.003,-0.031,-0.183,0.549,0.366,40.519
155223,158855,9125,-0.187,1.008,-0.033,-0.183,0.549,0.366,40.522
155223,158819,14558,-0.187,1.006,-0.027,-0.122,0.549,0.305,40.529
155202,158855,9125,-0.185,1.01,-0.026,-0.122,0.549,0.305,40.532
155202,158833,14558,-0.185,1.016,-0.022,0.488,0.549,0.305,40.539
155205,158855,9125,-0.19,1.013,-0.016,0.488,0.549,0.305,40.542
155205,158798,14545,-0.191,1.009,-0.02,0.427,0.488,0.183,40.548
155203,158855,9125,-0.189,1.015,-0.026,0.427,0.488,0.183,40.552
155203,158835,14552,-0.191,1.012,-0.025,-0.427,0.061,0.122,40.558
155213,158855,9125,-0.19,1.005,-0.017,-0.427,0.061,0.122,40.562
155213,158805,14552,-0.189,1.004,-0.021,-0.793,-0.122,0.244,40.568
155220,158855,9125,-0.192,1.005,-0.025,-0.793,-0.122,0.244,40.572
155220,158837,14553,-0.188,1.004,-0.024,-0.976,0.122,0.488,40.578
155224,158855,9125,-0.193,1.003,-0.019,-0.976,0.122,0.488,40.582
155224,158821,14543,-0.193,1.005,-0.017,-0.244,0.305,0.488,40.588
155199,158855,9125,-0.193,1.01,-0.022,-0.244,0.305,0.488,40.592
155199,158824,14543,-0.194,1.016,-0.026,-0.122,0.671,0.61,40.598
155207,158855,9125,-0.191,1.017,-0.023,-0.122,0.671,0.61,40.602
155207,158813,14542,-0.192,1.013,-0.016,0.244,0.793,0.549,40.608
155223,158855,9125,-0.191,1.013,-0.02,0.244,0.793,0.549,40.612
155223,158829,14533,-0.191,1.021,-0.025,0,0.549,0.305,40.618
155197,158855,9125,-0.191,1.02,-0.02,0,0.549,0.305,40.621
155197,158802,14533,-0.188,1.014,-0.016,-0.122,0.427,0.183,40.628
155202,158855,9125,-0.188,1.015,-0.022,-0.122,0.427,0.183,40.631
155202,158825,14543,-0.186,1.015,-0.021,-0.366,0.305,0.122,40.638
155219,158855,9125,-0.184,1.005,-0.024,-0.366,0.305,0.122,40.641
155219,158826,14530,-0.186,1.002,-0.02,-0.915,0.122,-0.061,40.647
155214,158855,9125,-0.186,1.007,-0.02,-0.915,0.122,-0.061,40.651
155214,158843,14524,-0.186,1.01,-0.019,-0.793,0.183,0.183,40.657
155185,158855,9125,-0.185,1.009,-0.019,-0.793,0.183,0.183,40.661
155185,158816,14526,-0.185,1.005,-0.02,-0.061,0.427,0.244,40.667
155211,158855,9125,-0.185,1.003,-0.028,-0.061,0.427,0.244,40.671
155211,158834,14538,-0.187,1.006,-0.03,0.061,0.793,0.122,40.677
155210,158855,9125,-0.187,1.003,-0.024,0.061,0.793,0.122,40.681
155210,158795,14533,-0.189,1.006,-0.02,-0.61,0.61,0.366,40.687
155194,158855,9125,-0.189,1.008,-0.023,-0.61,0.61,0.366,40.691
155194,158846,14527,-0.186,1.006,-0.023,-0.732,0.244,0.793,40.697
155204,158855,9125,-0.185,1.012,-0.023,-0.732,0.244,0.793,40.701
155204,158823,14547,-0.187,1.014,-0.023,-0.061,0.122,0.61,40.707
155231,158855,9125,-0.189,1.014,-0.021,-0.061,0.122,0.61,40.711
155231,158846,14533,-0.195,1.015,-0.017,0,0.183,0.549,40.717
155239,158855,9125,-0.198,1.018,-0.023,0,0.183,0.549,40.72
155239,158846,14524,-0.194,1.017,-0.022,-0.427,0.122,0.366,40.727
155249,158855,9125,-0.193,1.013,-0.021,-0.427,0.122,0.366,40.73
155249,158846,14523,-0.192,1.008,-0.024,-0.671,0.305,0.183,40.737
155243,158855,9125,-0.192,1.008,-0.023,-0.671,0.305,0.183,40.74
155243,158850,14520,-0.19,1.005,-0.016,-0.671,0.427,0.427,40.746
155233,158855,9125,-0.189,1.01,-0.015,-0.671,0.427,0.427,40.75
155233,158827,14528,-0.188,1.011,-0.022,-0.122,0.732,0.427,40.756
155220,158855,9125,-0.192,1.008,-0.028,-0.122,0.732,0.427,40.76
155220,158839,14527,-0.19,1.008,-0.027,0.61,1.037,0.122,40.766
155246,158855,9125,-0.194,1.012,-0.021,0.61,1.037,0.122,40.77
155246,158841,14530,-0.195,1.005,-0.018,-0.122,0.915,0.061,40.776
155256,158855,9125,-0.19,1.006,-0.021,-0.122,0.915,0.061,40.78
155256,158822,14531,-0.19,1.015,-0.029,-1.159,0,0.366,40.786
155239,158855,9125,-0.186,1.013,-0.026,-1.159,0,0.366,40.79
155239,158826,14541,-0.181,1.01,-0.02,-1.159,-0.244,0.366,40.796
155251,158855,9125,-0.187,1.01,-0.02,-1.159,-0.244,0.366,40.8
155251,158852,14529,-0.192,1.012,-0.026,-0.427,0.427,0.183,40.806
155251,158855,9125,-0.192,1.012,-0.026,-0.427,0.427,0.183,40.81
155251,158842,14538,-0.192,1.011,-0.02,-0.061,0.549,0.122,40.816
155239,158855,9125,-0.192,1.011,-0.02,-0.061,0.549,0.122,40.819
155239,158853,14527,-0.191,1.012,-0.021,-0.061,0.427,0.244,40.826
155258,158855,9125,-0.191,1.012,-0.021,-0.061,0.427,0.244,40.829
155258,158845,14540,-0.189,1.01,-0.021,-0.488,0.427,0.244,40.836
155260,158855,9125,-0.189,1.01,-0.021,-0.488,0.427,0.244,40.839
155260,158849,14537,-0.19,1.006,-0.021,-0.732,0.366,0.427,40.845
155241,158855,9125,-0.19,1.006,-0.021,-0.732,0.366,0.427,40.849
155241,158835,14535,-0.187,1.005,-0.025,-0.061,0.488,0.305,40.855
155231,158855,9125,-0.187,1.005,-0.025,-0.061,0.488,0.305,40.859
155231,158835,14517,-0.19,1.016,-0.02,0.244,0.61,0.366,40.865
155259,158855,9125,-0.19,1.016,-0.02,0.244,0.61,0.366,40.869
155259,158834,14523,-0.193,1.008,-0.021,-0.122,0.427,0.305,40.875
155239,158855,9125,-0.193,1.008,-0.021,-0.122,0.427,0.305,40.879
155239,158841,14542,-0.193,1.012,-0.021,-0.671,0.305,0.305,40.885
155244,158855,9125,-0.193,1.012,-0.021,-0.671,0.305,0.305,40.889
155244,158858,14512,-0.189,1.008,-0.023,-0.732,0.305,0.305,40.895
155225,158855,9125,-0.189,1.008,-0.023,-0.732,0.305,0.305,40.899
155225,158853,14532,-0.188,1.01,-0.022,-0.061,0.488,0.427,40.905
155261,158855,9125,-0.188,1.01,-0.022,-0.061,0.488,0.427,40.909
155261,158852,14516,-0.193,1.005,-0.018,0.305,0.793,0.366,40.915
155238,158855,9125,-0.193,1.005,-0.018,0.305,0.793,0.366,40.918
155238,158872,14537,-0.194,1.016,-0.02,0.244,0.793,0.305,40.925
155223,158855,9125,-0.194,1.016,-0.02,0.244,0.793,0.305,40.928
155223,158848,14531,-0.187,1.009,-0.015,0.183,0.427,0.427,40.935
155192,158855,9125,-0.187,1.009,-0.015,0.183,0.427,0.427,40.938
155192,158831,14534,-0.193,1.011,-0.018,-0.305,0.366,0.366,40.944
155209,158855,9125,-0.193,1.011,-0.018,-0.305,0.366,0.366,40.948
155209,158862,14509,-0.189,1.01,-0.016,-0.305,0.366,0.366,40.954
155220,158855,9125,-0.19,1.011,-0.019,-1.037,0.061,0.244,40.958
155220,158838,14520,-0.188,1.009,-0.018,-1.037,0.061,0.244,40.964
155235,158855,9125,-0.191,1.002,-0.018,-1.037,-0.122,0.488,40.968
155235,158835,14518,-0.187,1.004,-0.021,-1.037,-0.122,0.488,40.974
155267,158855,9125,-0.185,1.007,-0.023,-0.244,0.122,0.427,40.978
155267,158857,14525,-0.187,1.009,-0.022,-0.244,0.122,0.427,40.984
155228,158855,9125,-0.186,1.013,-0.021,0.305,0.549,0.305,40.988
155228,158854,14525,-0.189,1.013,-0.021,0.305,0.549,0.305,40.994
155270,158855,9125,-0.191,1.014,-0.021,0.305,0.671,0.427,40.998
155270,158850,14518,-0.188,1.013,-0.022,0.305,0.671,0.427,41.004
155253,158855,9125,-0.189,1.014,-0.022,-0.671,0.427,0.488,41.008
155253,158839,14521,-0.189,1.012,-0.023,-0.671,0.427,0.488,41.014
155244,158855,9125,-0.187,1.008,-0.028,-1.159,0.122,0.488,41.017
155244,158870,14531,-0.187,1.006,-0.027,-1.159,0.122,0.488,41.024
155244,158855,9125,-0.188,1.007,-0.024,-0.793,0.061,0.427,41.027
155244,158860,14525,-0.187,1.007,-0.02,-0.793,0.061,0.427,41.034
155258,158855,9125,-0.191,1.009,-0.021,-0.305,0.366,0.427,41.037
155258,158863,14523,-0.194,1.008,-0.021,-0.305,0.366,0.427,41.043
155270,158855,9125,-0.188,1.009,-0.015,-0.183,0.549,0.488,41.047
155270,158851,14532,-0.191,1.011,-0.012,-0.183,0.549,0.488,41.053
155242,158855,9125,-0.191,1.01,-0.017,-0.244,0.549,0.549,41.057
155242,158867,14518,-0.188,1.011,-0.02,-0.244,0.549,0.549,41.063
155262,158855,9125,-0.191,1.016,-0.019,0.061,0.61,0.427,41.067
155262,158869,14530,-0.192,1.016,-0.017,0.061,0.61,0.427,41.073
155257,158855,9125,-0.194,1.012,-0.015,-0.061,0.976,0.366,41.077
155257,158872,14514,-0.191,1.011,-0.021,-0.061,0.976,0.366,41.083
155235,158855,9125,-0.193,1.013,-0.027,0.305,0.915,0.244,41.087
155235,158872,14527,-0.193,1.018,-0.022,0.305,0.915,0.244,41.093
155241,158855,9125,-0.191,1.016,-0.014,-0.061,0.366,0.122,41.097
155241,158850,14541,-0.19,1.01,-0.016,-0.061,0.366,0.122,41.103
155256,158855,9125,-0.194,1.007,-0.024,-0.488,0.183,0.366,41.107
155256,158866,14517,-0.189,1.007,-0.021,-0.488,0.183,0.366,41.113
155240,158855,9125,-0.187,1.009,-0.026,-0.61,0.305,0.244,41.116
155240,158865,14529,-0.188,1.007,-0.023,-0.61,0.305,0.244,41.123
155244,158855,9125,-0.19,1.003,-0.019,-0.427,0.305,0.122,41.126
155244,158862,14526,-0.192,1.003,-0.02,-0.427,0.305,0.122,41.133
155246,158855,9125,-0.191,1.007,-0.02,-0.366,0.427,0.427,41.136
155246,158841,14533,-0.187,1.008,-0.02,-0.366,0.427,0.427,41.142
155259,158855,9125,-0.187,1.003,-0.021,0,0.549,0.366,41.146
155259,158876,14516,-0.189,1.006,-0.023,0,0.549,0.366,41.152
155248,158855,9125,-0.19,1.01,-0.029,0.305,0.61,0.366,41.156
155248,158891,14543,-0.19,1.009,-0.02,0.305,0.61,0.366,41.162
155272,158855,9125,-0.192,1.01,-0.022,0.183,0.671,0.549,41.166
155272,158864,14530,-0.191,1.013,-0.02,0.183,0.671,0.549,41.172
155243,158855,9125,-0.191,1.008,-0.019,0,0.488,0.61,41.176
155243,158875,14543,-0.192,1.012,-0.019,0,0.488,0.61,41.182
155263,158855,9125,-0.192,1.013,-0.018,0,0.427,0.61,41.186
155263,158858,14528,-0.195,1.015,-0.025,0,0.427,0.61,41.192
155248,158855,9125,-0.193,1.016,-0.029,-0.427,0.305,0.366,41.196
155248,158893,14535,-0.192,1.013,-0.021,-0.427,0.305,0.366,41.202
155279,158855,9125,-0.19,1.015,-0.017,-0.549,0.183,0.427,41.206
155279,158916,14532,-0.194,1.01,-0.026,-0.549,0.183,0.427,41.212
155282,158855,9125,-0.191,1.009,-0.033,-0.305,0.122,0.366,41.215
155282,158927,14554,-0.191,1.007,-0.03,-0.305,0.122,0.366,41.222
155282,158855,9125,-0.193,1.01,-0.023,-0.183,0.183,-0.061,41.225
155282,158926,14530,-0.192,1.009,-0.022,-0.183,0.183,-0.061,41.232
155292,158855,9125,-0.189,1.01,-0.021,-0.122,-0.061,0.244,41.235
155292,158897,14541,-0.185,1.011,-0.021,-0.122,-0.061,0.244,41.241
155248,158855,9125,-0.184,1.011,-0.013,-0.305,-0.061,0.366,41.245
155248,158893,14538,-0.184,1.01,-0.017,-0.305,-0.061,0.366,41.251
155260,158855,9125,-0.184,1.008,-0.022,-0.305,0.488,0.366,41.255
155260,158914,14542,-0.187,1.009,-0.022,-0.305,0.488,0.366,41.261
155280,158855,9125,-0.188,1.014,-0.02,0.488,0.793,0.305,41.265
155280,158913,14520,-0.191,1.011,-0.02,0.488,0.793,0.305,41.271
155253,158855,9125,-0.197,1.013,-0.015,0.854,1.037,0,41.275
155253,158920,14547,-0.197,1.011,-0.014,0.854,1.037,0,41.281
155249,158855,9125,-0.198,1.013,-0.019,0.793,0.915,0.183,41.285
155249,158916,14539,-0.197,1.014,-0.022,0.793,0.915,0.183,41.291
155258,158855,9125,-0.195,1.012,-0.025,0.122,0.488,0.122,41.295
155258,158892,14533,-0.192,1.004,-0.018,0.122,0.488,0.122,41.301
155238,158855,9125,-0.19,1.004,-0.017,0.183,0.183,0.366,41.305
155238,158888,14537,-0.191,1.009,-0.019,0.183,0.183,0.366,41.311
155238,158855,9125,-0.19,1.009,-0.022,-0.122,0.427,0.61,41.314
155238,158866,14532,-0.186,1.002,-0.02,-0.122,0.427,0.61,41.321
155233,158855,9125,-0.187,1.004,-0.015,0.183,0.427,0.427,41.324
155233,158884,14524,-0.187,1.017,-0.026,0.183,0.427,0.427,41.331
155235,158855,9125,-0.184,1.017,-0.029,-0.061,0.549,0.366,41.334
155235,158871,14526,-0.183,1.01,-0.022,-0.061,0.549,0.366,41.34
155248,158855,9125,-0.188,1.01,-0.024,0,0.549,0.244,41.344
155248,158886,14531,-0.189,1.014,-0.025,0,0.549,0.244,41.35
155236,158855,9125,-0.189,1.013,-0.02,-0.793,0.488,0.183,41.354
155236,158871,14534,-0.188,1.009,-0.024,-0.793,0.488,0.183,41.36
155243,158855,9125,-0.189,1.006,-0.02,-0.427,0.366,0.183,41.364
155243,158867,14531,-0.191,1.007,-0.023,-0.427,0.366,0.183,41.37
155226,158855,9125,-0.193,1.005,-0.027,0.183,0.549,0.244,41.374
155226,158874,14541,-0.191,1.01,-0.029,0.183,0.549,0.244,41.38
155213,158855,9125,-0.19,1.005,-0.03,0.244,0.61,0.183,41.384
155213,158888,14539,-0.19,1.003,-0.025,0.244,0.61,0.183,41.39
155209,158855,9125,-0.19,1.006,-0.023,0.061,0.305,0.427,41.394
155209,158864,14535,-0.188,1.005,-0.023,0.061,0.305,0.427,41.4
155198,158855,9125,-0.188,1.005,-0.023,0.061,0.305,0.427,41.404
155198,158861,14543,-0.189,1.005,-0.016,-0.427,0.183,0.671,41.41
155182,158855,9125,-0.189,1.005,-0.016,-0.427,0.183,0.671,41.413
155182,158868,14546,-0.193,1.002,-0.018,-0.305,0.122,0.61,41.42
155192,158855,9125,-0.193,1.002,-0.018,-0.305,0.122,0.61,41.423
155192,158870,14532,-0.191,1.014,-0.022,-0.061,0.305,0.854,41.43
155198,158855,9125,-0.191,1.014,-0.022,-0.061,0.305,0.854,41.433
155198,158879,14534,-0.191,1.014,-0.013,-0.061,0.427,0.854,41.439
155207,158855,9125,-0.191,1.014,-0.013,-0.061,0.427,0.854,41.443
155207,158879,14551,-0.192,1.016,-0.017,-0.183,0.427,0.793,41.449
155214,158855,9125,-0.192,1.016,-0.017,-0.183,0.427,0.793,41.453
155214,158871,14520,-0.194,1.017,-0.018,-0.122,0.488,0.61,41.459
155217,158855,9125,-0.194,1.017,-0.018,-0.122,0.488,0.61,41.463
155217,158872,14554,-0.19,1.017,-0.029,0.366,0.549,0.305,41.469
155238,158855,9125,-0.19,1.017,-0.029,0.366,0.549,0.305,41.473
155238,158881,14534,-0.187,1.014,-0.025,0.427,0.61,0.183,41.479
155233,158855,9125,-0.187,1.014,-0.025,0.427,0.61,0.183,41.483
155233,158881,14549,-0.19,1.007,-0.021,-0.244,0.488,0.122,41.489
155222,158855,9125,-0.19,1.007,-0.021,-0.244,0.488,0.122,41.493
155222,158909,14544,-0.19,1.009,-0.025,-0.671,0.183,0.122,41.499
155255,158855,9125,-0.19,1.009,-0.025,-0.671,0.183,0.122,41.503
155255,158913,14549,-0.181,1.003,-0.026,-0.305,0,0,41.509
155231,158855,9125,-0.181,1.003,-0.026,-0.305,0,0,41.512
155231,158918,14551,-0.189,1.013,-0.025,0.732,0.122,0.183,41.519
155249,158855,9125,-0.189,1.013,-0.025,0.732,0.122,0.183,41.522
155249,158904,14548,-0.192,1.012,-0.022,0.427,0.61,0.183,41.529
155241,158855,9125,-0.192,1.012,-0.022,0.427,0.61,0.183,41.532
155241,158919,14539,-0.186,1.015,-0.019,0.183,0.427,0.061,41.538
155254,158855,9125,-0.186,1.015,-0.019,0.183,0.427,0.061,41.542
155254,158917,14524,-0.188,1.012,-0.021,0.061,0.366,0.366,41.548
155226,158855,9125,-0.192,1.011,-0.027,0.061,0.366,0.366,41.552
155226,158901,14541,-0.19,1.008,-0.021,-0.061,0.549,0.244,41.558
155240,158855,9125,-0.189,1.007,-0.018,-0.061,0.549,0.244,41.562
155240,158898,14547,-0.192,1.004,-0.018,0.122,0.732,0.244,41.568
155251,158855,9125,-0.196,1.006,-0.016,0.122,0.732,0.244,41.572
155251,158900,14544,-0.194,1.009,-0.021,0.366,0.976,0.305,41.578
155241,158855,9125,-0.194,1.008,-0.025,0.366,0.976,0.305,41.582
155241,158892,14545,-0.192,1.007,-0.021,0.488,0.915,0.122,41.588
155225,158855,9125,-0.189,1.005,-0.02,0.488,0.915,0.122,41.592
155225,158896,14530,-0.193,1.007,-0.026,0.854,0.793,0.366,41.598
155240,158855,9125,-0.193,1.01,-0.029,0.854,0.793,0.366,41.602
155240,158890,14561,-0.191,1.004,-0.026,0.671,0.976,0.244,41.608
155247,158855,9125,-0.19,1.002,-0.021,0.671,0.976,0.244,41.611
155247,158915,14546,-0.193,1.007,-0.018,0.244,0.854,0.305,41.618
155238,158855,9125,-0.196,1.009,-0.022,0.244,0.854,0.305,41.621
155238,158920,14540,-0.194,1.011,-0.023,0,0.671,0.61,41.628
155261,158855,9125,-0.191,1.009,-0.025,0,0.671,0.61,41.631
155261,158924,14540,-0.189,1.007,-0.02,-0.183,0.427,0.366,41.637
155251,158855,9125,-0.189,1.012,-0.023,-0.183,0.427,0.366,41.641
155251,158904,14547,-0.191,1.011,-0.022,-0.61,0.488,0.671,41.647
155245,158855,9125,-0.191,1.005,-0.022,-0.61,0.488,0.671,41.651
155245,158933,14562,-0.187,1.006,-0.024,-0.366,0.427,0.793,41.657
155273,158855,9125,-0.186,1.011,-0.021,-0.366,0.427,0.793,41.661
155273,158893,14533,-0.185,1.012,-0.021,-0.305,0.488,0.549,41.667
155252,158855,9125,-0.189,1.01,-0.027,-0.305,0.488,0.549,41.671
155252,158900,14545,-0.188,1.008,-0.025,0.549,0.61,0.61,41.677
155257,158855,9125,-0.185,1.011,-0.028,0.549,0.61,0.61,41.681
155257,158885,14534,-0.187,1.013,-0.03,0.854,0.732,0.427,41.687
155209,158855,9125,-0.192,1.012,-0.027,0.854,0.732,0.427,41.691
155209,158891,14533,-0.192,1.002,-0.022,0.061,0.488,0.366,41.697
155255,158855,9125,-0.189,1.003,-0.021,0.061,0.488,0.366,41.701
155255,158880,14540,-0.192,1.008,-0.025,-0.732,-0.183,0.61,41.707
155233,158855,9125,-0.191,1.007,-0.023,-0.732,-0.183,0.61,41.71
155233,158874,14538,-0.189,1.006,-0.022,-0.61,-0.488,0.732,41.717
155248,158855,9125,-0.191,1.008,-0.019,-0.61,-0.488,0.732,41.72
155248,158877,14531,-0.194,1.007,-0.021,-0.061,-0.061,0.793,41.727
155249,158855,9125,-0.197,1.01,-0.018,-0.061,-0.061,0.793,41.73
155249,158865,14545,-0.195,1.015,-0.015,0.183,0.244,0.671,41.736
155250,158855,9125,-0.193,1.017,-0.017,0.183,0.244,0.671,41.74
155250,158863,14529,-0.191,1.015,-0.019,0.61,0.488,0.671,41.746
155265,158855,9125,-0.194,1.02,-0.021,0.61,0.488,0.671,41.75
155265,158869,14538,-0.194,1.021,-0.021,1.037,0.854,0.61,41.756
155232,158855,9125,-0.192,1.021,-0.022,1.037,0.854,0.61,41.76
155232,158865,14527,-0.191,1.016,-0.019,0.488,0.915,0.244,41.766
155242,158855,9125,-0.195,1.013,-0.02,0.488,0.915,0.244,41.77
155242,158847,14526,-0.193,1.013,-0.024,-0.427,0.61,0.122,41.776
155225,158855,9125,-0.19,1.012,-0.027,-0.427,0.61,0.122,41.78
155225,158873,14523,-0.193,1.005,-0.027,-0.915,0.122,0.122,41.786
155207,158855,9125,-0.187,1.004,-0.025,-0.915,0.122,0.122,41.79
155207,158866,14525,-0.185,1.007,-0.028,-0.305,0,0.244,41.796
155224,158855,9125,-0.183,1.005,-0.025,-0.305,0,0.244,41.8
155224,158890,14526,-0.187,0.999,-0.022,0.244,0.244,0.244,41.806
155245,158855,9125,-0.187,1.002,-0.019,0.244,0.244,0.244,41.809
155245,158885,14531,-0.187,1.012,-0.025,0.671,0.427,0.366,41.816
155268,158855,9125,-0.183,1.011,-0.029,0.671,0.427,0.366,41.819
155268,158890,14524,-0.182,1.011,-0.025,0.732,0.488,0.305,41.826
155254,158855,9125,-0.185,1.015,-0.019,0.732,0.488,0.305,41.829
155254,158920,14530,-0.187,1.017,-0.019,0.671,0.549,0.244,41.835
155289,158855,9125,-0.19,1.012,-0.025,0.671,0.549,0.244,41.839
155289,158910,14527,-0.191,1.011,-0.024,-0.122,0.244,0.305,41.845
155227,158855,9125,-0.189,1.013,-0.019,-0.122,0.244,0.305,41.849
155227,158885,14536,-0.188,1.01,-0.019,-0.549,-0.061,0.305,41.855
155251,158855,9125,-0.188,1.007,-0.023,-0.549,-0.061,0.305,41.859
155251,158901,14516,-0.187,1.005,-0.023,-0.122,0.366,0.549,41.865
155255,158855,9125,-0.188,1.008,-0.025,-0.122,0.366,0.549,41.869
155255,158883,14532,-0.191,1.011,-0.017,0.183,0.549,0.427,41.875
155259,158855,9125,-0.192,1.015,-0.013,0.183,0.549,0.427,41.879
155259,158894,14512,-0.195,1.013,-0.021,-0.183,0.549,0.305,41.885
155249,158855,9125,-0.189,1.012,-0.026,-0.183,0.549,0.305,41.889
155249,158895,14522,-0.189,1.011,-0.026,-0.61,0.366,0.366,41.895
155275,158855,9125,-0.19,1.011,-0.026,-0.61,0.366,0.366,41.899
155275,158890,14525,-0.19,1.013,-0.024,-0.854,0.427,0.244,41.905
155257,158855,9125,-0.19,1.006,-0.028,-0.854,0.427,0.244,41.909
155257,158888,14537,-0.191,1.005,-0.031,-0.366,0.366,0.183,41.915
155254,158855,9125,-0.191,1.012,-0.03,-0.366,0.366,0.183,41.918
155254,158867,14528,-0.191,1.013,-0.026,-0.122,0.488,0.305,41.925
155270,158855,9125,-0.191,1.006,-0.021,-0.122,0.488,0.305,41.928
155270,158875,14533,-0.192,1.005,-0.022,0.305,0.793,0.427,41.934
155255,158855,9125,-0.192,1.013,-0.023,0.305,0.793,0.427,41.938
155255,158850,14527,-0.196,1.015,-0.032,0.305,0.976,0.427,41.944
155266,158855,9125,-0.193,1.012,-0.026,0.305,0.976,0.427,41.948
155266,158898,14521,-0.191,1.013,-0.027,0.061,0.61,0.427,41.954
155254,158855,9125,-0.191,1.011,-0.023,0.061,0.61,0.427,41.958
155254,158865,14534,-0.19,1.011,-0.027,-0.61,0.244,0.305,41.964
155247,158855,9125,-0.193,1.014,-0.027,-0.61,0.244,0.305,41.968
155247,158915,14518,-0.188,1.009,-0.023,-0.976,-0.122,0.244,41.974
155243,158855,9125,-0.187,1.006,-0.021,-0.976,-0.122,0.244,41.978
155243,158877,14525,-0.186,1.007,-0.022,-0.671,0,0.244,41.984
155239,158855,9125,-0.188,1.006,-0.027,-0.671,0,0.244,41.988
155239,158870,14529,-0.187,1.001,-0.027,-0.183,0.427,0.061,41.994
155240,158855,9125,-0.187,1.001,-0.027,-0.183,0.427,0.061,41.998
155240,158878,14524,-0.189,1.008,-0.029,0.549,0.488,0.244,42.004
155230,158855,9125,-0.189,1.008,-0.029,0.549,0.488,0.244,42.007
155230,158848,14540,-0.186,1.012,-0.029,0.61,0.366,0.427,42.014
155225,158855,9125,-0.186,1.012,-0.029,0.61,0.366,0.427,42.017
155225,158877,14508,-0.19,1.008,-0.016,0.061,0.122,0.305,42.024
155232,158855,9125,-0.19,1.008,-0.016,0.061,0.122,0.305,42.027
155232,158873,14513,-0.194,1.006,-0.018,-0.488,0.061,0.488,42.033
155245,158855,9125,-0.194,1.006,-0.018,-0.488,0.061,0.488,42.037
155245,158896,14516,-0.187,1.011,-0.025,-0.549,0,0.427,42.043
155220,158855,9125,-0.187,1.011,-0.025,-0.549,0,0.427,42.047
155220,158873,14523,-0.193,1.013,-0.02,0.183,0.244,0.488,42.053
155230,158855,9125,-0.193,1.013,-0.02,0.183,0.244,0.488,42.057
155230,158867,14516,-0.193,1.013,-0.022,0.305,0.488,0.488,42.063
155223,158855,9125,-0.193,1.013,-0.022,0.305,0.488,0.488,42.067
155223,158878,14512,-0.192,1.019,-0.021,0,0.366,0.244,42.073
155247,158855,9125,-0.192,1.019,-0.021,0,0.366,0.244,42.077
155247,158872,14508,-0.194,1.007,-0.016,-0.244,0.488,0.305,42.083
155232,158855,9125,-0.194,1.007,-0.016,-0.244,0.488,0.305,42.087
155232,158896,14527,-0.193,1.012,-0.027,-0.427,0.61,0,42.093
155262,158855,9125,-0.193,1.012,-0.027,-0.427,0.61,0,42.097
155262,158890,14528,-0.189,1.007,-0.02,0.122,0.488,-0.122,42.103
155280,158855,9125,-0.189,1.007,-0.02,0.122,0.488,-0.122,42.107
155280,158904,14541,-0.188,1.011,-0.025,0.305,0.61,-0.061,42.113
155295,158855,9125,-0.188,1.011,-0.025,0.305,0.61,-0.061,42.116
155295,158914,14532,-0.188,1.002,-0.027,0,0.61,0,42.123
155277,158855,9125,-0.188,1.002,-0.027,0,0.61,0,42.126
155277,158901,14512,-0.19,1.002,-0.027,-0.122,0.427,0,42.132
155281,158855,9125,-0.19,1.002,-0.027,-0.122,0.427,0,42.136
155281,158908,14524,-0.187,1.005,-0.022,-0.122,0.427,0,42.142
155275,158855,9125,-0.184,1.006,-0.023,-0.122,0.61,0.305,42.146
155275,158882,14527,-0.186,1.009,-0.018,-0.122,0.61,0.305,42.152
155257,158855,9125,-0.191,1.009,-0.017,0.488,0.976,0.61,42.156
155257,158907,14516,-0.189,1.013,-0.019,0.488,0.976,0.61,42.162
155254,158855,9125,-0.193,1.015,-0.024,0.549,1.037,0.366,42.166
155254,158886,14527,-0.192,1.014,-0.028,0.549,1.037,0.366,42.172
155274,158855,9125,-0.189,1.014,-0.031,-0.244,0.61,0.244,42.176
155274,158898,14502,-0.19,1.009,-0.029,-0.244,0.61,0.244,42.182
155265,158855,9125,-0.19,1.006,-0.022,-0.61,0.183,0.549,42.186
155265,158906,14524,-0.189,1.012,-0.024,-0.61,0.183,0.549,42.192
155245,158855,9125,-0.191,1.009,-0.022,-0.366,0.305,0.427,42.196
155245,158892,14539,-0.193,1.008,-0.028,-0.366,0.305,0.427,42.202
155282,158855,9125,-0.191,1.01,-0.031,0.061,0.671,-0.061,42.206
155282,158912,14508,-0.19,1.013,-0.026,0.061,0.671,-0.061,42.212
155271,158855,9125,-0.191,1.011,-0.024,-0.122,0.549,0.122,42.215
155271,158905,14521,-0.19,1.01,-0.027,-0.122,0.549,0.122,42.222
155263,158855,9125,-0.188,1.01,-0.031,-0.427,0.244,0.305,42.225
155263,158919,14520,-0.187,1.01,-0.026,-0.427,0.244,0.305,42.231
155267,158855,9125,-0.19,1.009,-0.019,-0.793,0.244,0.244,42.235
155267,158894,14531,-0.192,1.007,-0.023,-0.793,0.244,0.244,42.241
155277,158855,9125,-0.191,1.007,-0.025,-0.732,0.427,0.488,42.245
155277,158909,14524,-0.192,1.008,-0.028,-0.732,0.427,0.488,42.251
155262,158855,9125,-0.19,1.004,-0.028,-0.366,0.488,0.488,42.255
155262,158904,14517,-0.189,1.006,-0.027,-0.366,0.488,0.488,42.261
155244,158855,9125,-0.189,1.017,-0.031,0,0.366,0.427,42.265
155244,158915,14519,-0.189,1.017,-0.03,0,0.366,0.427,42.271
155282,158855,9125,-0.191,1.012,-0.025,0.122,0.244,0.305,42.275
155282,158897,14520,-0.194,1.016,-0.025,0.122,0.244,0.305,42.281
155274,158855,9125,-0.194,1.016,-0.028,-0.244,0.305,0.122,42.285
155274,158912,14530,-0.195,1.013,-0.026,-0.244,0.305,0.122,42.291
155297,158855,9125,-0.191,1.007,-0.022,-0.793,0.122,0.122,42.295
155297,158931,14533,-0.192,1.004,-0.025,-0.793,0.122,0.122,42.301
155294,158855,9125,-0.192,1.005,-0.024,-0.793,-0.061,0.183,42.305
155294,158930,14526,-0.19,1.003,-0.024,-0.793,-0.061,0.183,42.311
155285,158855,9125,-0.19,1,-0.02,-0.244,0.122,0.122,42.314
155285,158907,14525,-0.194,1.006,-0.021,-0.244,0.122,0.122,42.321
155283,158855,9125,-0.192,1.009,-0.021,0.488,0.488,0.183,42.324
155283,158932,14535,-0.19,1.012,-0.023,0.488,0.488,0.183,42.33
155300,158855,9125,-0.189,1.016,-0.022,0.915,0.732,0.305,42.334
155300,158921,14531,-0.188,1.02,-0.021,0.915,0.732,0.305,42.34
155297,158855,9125,-0.186,1.021,-0.02,0.061,0.671,0.244,42.344
155297,158925,14530,-0.189,1.017,-0.024,0.061,0.671,0.244,42.35
155307,158855,9125,-0.188,1.013,-0.023,-1.098,0.427,0.305,42.354
155307,158923,14530,-0.189,1.009,-0.021,-1.098,0.427,0.305,42.36
155307,158855,9125,-0.19,1.002,-0.03,-1.402,0.244,0.061,42.364
155307,158921,14526,-0.193,1.004,-0.028,-1.402,0.244,0.061,42.37
155297,158855,9125,-0.193,1.011,-0.026,-0.732,0.366,-0.183,42.374
155297,158927,14539,-0.193,1.004,-0.021,-0.732,0.366,-0.183,42.38
155293,158855,9125,-0.195,1.006,-0.018,0.549,0.671,0.061,42.384
155293,158923,14533,-0.196,1.017,-0.024,0.549,0.671,0.061,42.39
155280,158855,9125,-0.196,1.019,-0.023,0.366,0.671,0.061,42.394
155280,158941,14535,-0.196,1.012,-0.016,0.366,0.671,0.061,42.4
155294,158855,9125,-0.194,1.01,-0.016,-0.488,0.183,0.244,42.404
155294,158935,14535,-0.191,1.008,-0.023,-0.488,0.183,0.244,42.41
155283,158855,9125,-0.189,1.004,-0.031,-1.402,-0.244,0.366,42.413
