151259,156322,13511,-0.229,1.002,0.074,0.732,1.037,0.122,451.798
151285,156295,9125,-0.229,1.001,0.078,0.732,1.037,0.122,451.801
151285,156338,13487,-0.227,0.996,0.075,0.61,1.037,0.183,451.807
151284,156295,9125,-0.223,1.001,0.073,0.61,1.037,0.183,451.811
151284,156334,13494,-0.229,1.006,0.076,0.488,0.976,0.183,451.817
151292,156295,9125,-0.228,1.004,0.079,0.488,0.976,0.183,451.821
151292,156366,13510,-0.23,0.998,0.081,0.549,0.854,0.122,451.827
151306,156295,9125,-0.228,0.997,0.077,0.549,0.854,0.122,451.831
151306,156338,13501,-0.228,0.996,0.079,0.732,1.159,0.061,451.837
151275,156295,9125,-0.228,0.998,0.076,0.732,1.159,0.061,451.841
151275,156326,13503,-0.23,1.001,0.079,1.22,1.28,0.122,451.847
151304,156295,9125,-0.23,1.001,0.079,1.22,1.28,0.122,451.851
151304,156329,13488,-0.232,1.008,0.082,1.463,1.098,0.244,451.857
151307,156295,9125,-0.232,1.008,0.082,1.463,1.098,0.244,451.861
151307,156311,13497,-0.233,1.003,0.078,0.671,1.28,0.183,451.867
151292,156295,9125,-0.233,1.003,0.078,0.671,1.28,0.183,451.871
151292,156335,13481,-0.233,0.996,0.071,0.427,1.402,-0.183,451.877
151313,156295,9125,-0.233,0.996,0.071,0.427,1.402,-0.183,451.881
151313,156339,13508,-0.235,0.999,0.072,0.915,1.463,-0.244,451.887
151313,156295,9125,-0.235,0.999,0.072,0.915,1.463,-0.244,451.89
151313,156323,13471,-0.232,1.003,0.07,1.037,1.402,-0.061,451.897
151290,156295,9125,-0.232,1.003,0.07,1.037,1.402,-0.061,451.9
151290,156322,13499,-0.235,0.999,0.071,1.037,1.341,0.061,451.907
151324,156295,9125,-0.235,0.999,0.071,1.037,1.341,0.061,451.91
151324,156341,13481,-0.235,1.002,0.075,0.732,1.22,0,451.916
151302,156295,9125,-0.235,1.002,0.075,0.732,1.22,0,451.92
151302,156334,13487,-0.236,0.996,0.071,0.61,0.915,0.061,451.926
151289,156295,9125,-0.236,0.996,0.071,0.61,0.915,0.061,451.93
151289,156352,13502,-0.234,0.998,0.069,-0.061,0.549,0.305,451.936
151299,156295,9125,-0.234,0.998,0.069,-0.061,0.549,0.305,451.94
151299,156340,13491,-0.236,1.002,0.077,-0.427,0.122,0.549,451.946
151298,156295,9125,-0.236,1.002,0.077,-0.427,0.122,0.549,451.95
151298,156320,13497,-0.234,1,0.073,-0.549,0.549,0.427,451.956
151296,156295,9125,-0.234,1,0.073,-0.549,0.549,0.427,451.96
151296,156357,13501,-0.233,0.996,0.073,-0.244,0.549,0.183,451.966
151312,156295,9125,-0.233,0.996,0.073,-0.244,0.549,0.183,451.97
151312,156329,13486,-0.231,1.001,0.073,0,0.305,0.244,451.976
151290,156295,9125,-0.231,1.001,0.073,0,0.305,0.244,451.98
151290,156327,13483,-0.234,0.999,0.078,-0.427,-0.122,0.488,451.986
151279,156295,9125,-0.234,0.999,0.078,-0.427,-0.122,0.488,451.989
151279,156336,13498,-0.236,0.999,0.077,-0.854,0,0.61,451.996
151284,156295,9125,-0.236,0.999,0.077,-0.854,0,0.61,451.999
151284,156361,13474,-0.235,0.996,0.077,-0.854,0,0.61,452.006
151269,156295,9125,-0.235,0.997,0.076,-0.793,0.122,0.305,452.009
151269,156331,13500,-0.23,0.997,0.08,-0.793,0.122,0.305,452.015
151277,156295,9125,-0.231,0.996,0.077,-0.488,0.366,0.305,452.019
151277,156340,13485,-0.235,0.995,0.075,-0.488,0.366,0.305,452.025
151289,156295,9125,-0.231,0.993,0.073,-0.122,0.366,0.488,452.029
151289,156327,13490,-0.233,0.994,0.073,-0.122,0.366,0.488,452.035
151259,156295,9125,-0.235,1.003,0.074,0.305,0.305,0.549,452.039
151259,156328,13485,-0.234,1.007,0.075,0.305,0.305,0.549,452.045
151275,156295,9125,-0.236,1.002,0.073,0.244,0.305,0.61,452.049
151275,156321,13492,-0.233,1.001,0.071,0.244,0.305,0.61,452.055
151280,156295,9125,-0.234,1.003,0.074,-0.183,0.305,0.61,452.059
151280,156335,13489,-0.235,0.999,0.073,-0.183,0.305,0.61,452.065
151269,156295,9125,-0.234,0.995,0.073,-0.549,0.305,0.549,452.069
151269,156328,13481,-0.234,0.995,0.078,-0.549,0.305,0.549,452.075
151260,156295,9125,-0.233,0.995,0.078,-0.671,0.122,0.488,452.079
151260,156323,13484,-0.232,0.999,0.075,-0.671,0.122,0.488,452.085
151277,156295,9125,-0.232,1,0.078,-0.549,0,0.488,452.088
151277,156306,13481,-0.231,0.998,0.079,-0.549,0,0.488,452.095
151259,156295,9125,-0.23,1.004,0.077,-0.366,0.061,0.671,452.098
151259,156335,13467,-0.234,1.001,0.077,-0.366,0.061,0.671,452.105
151264,156295,9125,-0.236,0.998,0.079,-0.244,0.244,0.549,452.108
151264,156317,13476,-0.234,0.998,0.077,-0.244,0.244,0.549,452.114
151255,156295,9125,-0.233,0.999,0.071,0.244,0.488,0.366,452.118
151255,156304,13468,-0.233,0.994,0.074,0.244,0.488,0.366,452.124
151242,156295,9125,-0.234,1.001,0.074,0.671,0.488,0.366,452.128
151242,156334,13472,-0.235,1.002,0.075,0.671,0.488,0.366,452.134
151239,156295,9125,-0.234,1,0.07,0.671,0.366,0.549,452.138
151239,156327,13477,-0.233,1.002,0.075,0.671,0.366,0.549,452.144
151252,156295,9125,-0.233,1.002,0.077,0.061,0.183,0.61,452.148
151252,156331,13495,-0.234,1.002,0.079,0.061,0.183,0.61,452.154
151226,156295,9125,-0.233,0.998,0.081,-0.732,0.122,0.488,452.158
151226,156309,13485,-0.233,0.994,0.081,-0.732,0.122,0.488,452.164
151232,156295,9125,-0.234,0.996,0.078,-0.549,0.305,0.366,452.168
151232,156320,13477,-0.233,0.998,0.074,-0.549,0.305,0.366,452.174
151232,156295,9125,-0.23,0.997,0.073,-0.366,0.305,0.366,452.178
151232,156313,13486,-0.228,0.995,0.074,-0.366,0.305,0.366,452.184
151214,156295,9125,-0.231,1,0.073,-0.183,0.305,0.549,452.187
151214,156305,13485,-0.234,1,0.074,-0.183,0.305,0.549,452.194
151232,156295,9125,-0.236,1.002,0.073,-0.244,0.305,0.671,452.197
151232,156316,13476,-0.236,1.001,0.074,-0.244,0.305,0.671,452.204
151220,156295,9125,-0.235,1.006,0.074,-0.244,0.244,0.61,452.207
151220,156301,13488,-0.234,1.002,0.071,-0.244,0.244,0.61,452.213
151203,156295,9125,-0.232,1,0.074,-0.183,0.183,0.366,452.217
151203,156298,13472,-0.233,1,0.076,-0.183,0.183,0.366,452.223
151189,156295,9125,-0.234,0.999,0.075,-0.366,0.244,0.366,452.227
151189,156312,13488,-0.235,0.999,0.076,-0.366,0.244,0.366,452.233
151193,156295,9125,-0.235,1,0.08,-0.732,0.183,0.366,452.237
151193,156314,13479,-0.232,1,0.083,-0.732,0.183,0.366,452.243
151184,156295,9125,-0.234,0.995,0.081,-0.427,0.305,0.244,452.247
151184,156305,13485,-0.233,0.994,0.078,-0.427,0.305,0.244,452.253
151205,156295,9125,-0.233,1,0.077,0.305,0.488,0.183,452.257
151205,156309,13467,-0.233,1.004,0.077,0.305,0.488,0.183,452.263
151184,156295,9125,-0.232,1.002,0.074,0.427,0.671,0.305,452.267
151184,156325,13481,-0.231,1.002,0.076,0.427,0.671,0.305,452.273
151159,156295,9125,-0.234,1.001,0.073,0.305,0.732,0.183,452.277
151159,156291,13466,-0.235,0.995,0.073,0.305,0.732,0.183,452.283
151157,156295,9125,-0.233,0.995,0.073,-0.061,0.671,0,452.286
151157,156295,13474,-0.235,0.994,0.077,-0.061,0.671,0,452.293
151155,156295,9125,-0.237,0.995,0.078,-0.061,0.61,0.061,452.296
151155,156307,13483,-0.238,0.997,0.075,-0.061,0.61,0.061,452.303
151171,156295,9125,-0.234,0.998,0.073,0.183,0.366,0.366,452.306
151171,156299,13475,-0.233,1.003,0.077,0.183,0.366,0.366,452.312
151183,156295,9125,-0.234,1.004,0.076,0.061,0.244,0.427,452.316
151183,156308,13484,-0.237,1.003,0.073,0.061,0.244,0.427,452.322
151175,156295,9125,-0.236,1.005,0.074,0.061,0.305,0.305,452.326
151175,156308,13473,-0.236,0.999,0.072,0.061,0.305,0.305,452.332
151174,156295,9125,-0.234,1,0.071,-0.427,0.122,0.305,452.336
151174,156276,13488,-0.231,1.001,0.072,-0.427,0.122,0.305,452.342
151177,156295,9125,-0.229,1.007,0.077,-0.671,0.122,0.488,452.346
151177,156322,13494,-0.229,1.003,0.077,-0.671,0.122,0.488,452.352
151171,156295,9125,-0.229,0.999,0.077,-0.427,0.305,0.305,452.356
151171,156298,13490,-0.227,0.995,0.076,-0.427,0.305,0.305,452.362
151173,156295,9125,-0.227,0.994,0.078,0.183,0.61,0,452.366
151173,156315,13482,-0.23,0.998,0.078,0.183,0.61,0,452.372
151214,156295,9125,-0.231,0.998,0.074,0.305,0.61,0.183,452.376
151214,156330,13473,-0.234,0.999,0.074,0.305,0.61,0.183,452.382
151205,156295,9125,-0.234,0.997,0.078,-0.122,0.366,0.305,452.385
151205,156330,13481,-0.237,0.995,0.079,-0.122,0.366,0.305,452.392
151211,156295,9125,-0.236,0.994,0.076,-0.549,0.122,0.183,452.395
151211,156348,13499,-0.238,0.998,0.072,-0.549,0.122,0.183,452.402
151243,156295,9125,-0.239,0.996,0.074,-0.366,0,0.549,452.405
151243,156349,13492,-0.232,0.999,0.073,-0.366,0,0.549,452.411
151255,156295,9125,-0.232,1.001,0.072,-0.183,0,0.793,452.415
151255,156364,13501,-0.232,1.002,0.072,-0.183,0,0.793,452.421
151266,156295,9125,-0.232,1,0.074,-0.61,0,0.854,452.425
151266,156360,13501,-0.235,1,0.079,-0.61,0,0.854,452.431
151245,156295,9125,-0.235,1.001,0.076,-0.915,-0.061,0.915,452.435
151245,156336,13490,-0.232,0.998,0.075,-0.915,-0.061,0.915,452.441
151257,156295,9125,-0.232,0.998,0.075,-0.915,-0.061,0.915,452.445
151257,156349,13508,-0.231,1.001,0.078,-0.549,0.183,0.732,452.451
151242,156295,9125,-0.231,1.001,0.078,-0.549,0.183,0.732,452.455
151242,156358,13501,-0.228,1.007,0.071,0,0.488,0.549,452.461
151280,156295,9125,-0.228,1.007,0.071,0,0.488,0.549,452.465
151280,156350,13492,-0.228,0.996,0.078,0.183,0.61,0.427,452.471
151272,156295,9125,-0.228,0.996,0.078,0.183,0.61,0.427,452.475
151272,156393,13501,-0.235,1.007,0.075,0.122,0.61,0.244,452.481
151254,156295,9125,-0.235,1.007,0.075,0.122,0.61,0.244,452.484
151254,156385,13514,-0.231,1.001,0.074,-0.122,0.488,0.183,452.491
151294,156295,9125,-0.231,1.001,0.074,-0.122,0.488,0.183,452.494
151294,156389,13495,-0.233,0.999,0.075,-0.061,0.244,0.122,452.501
151268,156295,9125,-0.233,0.999,0.075,-0.061,0.244,0.122,452.504
151268,156403,13515,-0.232,0.995,0.078,-0.183,0,0.122,452.51
151269,156295,9125,-0.232,0.995,0.078,-0.183,0,0.122,452.514
151269,156390,13518,-0.236,0.995,0.08,-0.366,-0.183,0.244,452.52
151265,156295,9125,-0.236,0.995,0.08,-0.366,-0.183,0.244,452.524
151265,156391,13506,-0.238,0.99,0.08,-0.427,0.183,0.305,452.53
151254,156295,9125,-0.238,0.99,0.08,-0.427,0.183,0.305,452.534
151254,156373,13509,-0.234,0.995,0.078,-0.122,0.427,0.183,452.54
151252,156295,9125,-0.234,0.995,0.078,-0.122,0.427,0.183,452.544
151252,156396,13511,-0.233,1.003,0.079,0.244,0.793,0.427,452.55
151254,156295,9125,-0.233,1.003,0.079,0.244,0.793,0.427,452.554
151254,156392,13501,-0.233,1.001,0.074,0.305,1.098,0.427,452.56
151248,156295,9125,-0.233,1.001,0.074,0.305,1.098,0.427,452.564
151248,156383,13510,-0.237,0.999,0.075,0.244,1.28,0.183,452.57
151255,156295,9125,-0.237,0.999,0.075,0.244,1.28,0.183,452.574
151255,156358,13511,-0.231,1.001,0.07,0.915,1.463,0.122,452.58
151254,156295,9125,-0.231,1.001,0.07,0.915,1.463,0.122,452.583
151254,156395,13505,-0.231,1.005,0.072,1.463,1.524,0.061,452.59
151260,156295,9125,-0.229,1.007,0.071,1.463,1.524,0.061,452.593
151260,156384,13515,-0.228,1.007,0.071,1.585,1.463,0.122,452.6
151248,156295,9125,-0.231,1.005,0.068,1.585,1.463,0.122,452.603
151248,156388,13493,-0.228,1.002,0.069,1.098,1.098,-0.122,452.609
151251,156295,9125,-0.231,1.001,0.071,1.098,1.098,-0.122,452.613
151251,156377,13510,-0.234,0.998,0.071,0.244,0.61,-0.061,452.619
151273,156295,9125,-0.234,0.997,0.073,0.244,0.61,-0.061,452.623
151273,156381,13500,-0.231,0.993,0.075,-0.244,0.427,0.183,452.629
151258,156295,9125,-0.234,0.993,0.072,-0.244,0.427,0.183,452.633
151258,156401,13520,-0.234,1.003,0.071,-0.122,0.244,0.244,452.639
151282,156295,9125,-0.233,1.003,0.068,-0.122,0.244,0.244,452.643
151282,156407,13515,-0.234,0.997,0.069,-0.549,-0.061,0.488,452.649
151264,156295,9125,-0.232,1.002,0.074,-0.549,-0.061,0.488,452.653
151264,156393,13513,-0.236,1.002,0.072,-1.402,-0.305,0.732,452.659
151253,156295,9125,-0.238,1.002,0.069,-1.402,-0.305,0.732,452.663
151253,156387,13518,-0.236,0.996,0.073,-1.951,-0.488,0.671,452.669
151257,156295,9125,-0.237,0.996,0.075,-1.951,-0.488,0.671,452.673
151257,156382,13523,-0.237,0.999,0.079,-1.707,-0.488,0.549,452.679
151248,156295,9125,-0.238,1.003,0.078,-1.707,-0.488,0.549,452.682
151248,156379,13527,-0.237,1,0.074,-1.28,-0.183,0.61,452.689
151267,156295,9125,-0.237,1.001,0.074,-1.28,-0.183,0.61,452.692
151267,156391,13509,-0.235,1,0.077,-1.098,-0.488,0.366,452.699
151263,156295,9125,-0.234,0.998,0.073,-1.098,-0.488,0.366,452.702
151263,156402,13520,-0.237,0.994,0.077,-1.341,-0.427,0.366,452.708
151280,156295,9125,-0.235,0.998,0.076,-1.341,-0.427,0.366,452.712
151280,156400,13516,-0.237,0.999,0.08,-1.28,-0.305,0.488,452.718
151293,156551,9125,-0.235,0.998,0.08,-1.28,-0.305,0.488,452.722
151293,156420,13531,-0.236,0.998,0.077,-1.037,-0.305,0.366,452.728
151279,156551,9125,-0.231,0.996,0.077,-1.037,-0.305,0.366,452.732
151279,156433,13510,-0.231,0.996,0.079,-0.793,0,0.305,452.738
151279,156551,9125,-0.229,0.995,0.081,-0.793,0,0.305,452.742
151279,156423,13537,-0.229,0.996,0.08,-0.244,0.488,0.305,452.748
151275,156295,9125,-0.23,0.998,0.081,-0.244,0.488,0.305,452.752
151275,156407,13517,-0.229,0.996,0.08,0.122,0.976,0.244,452.758
151232,156295,9125,-0.23,0.995,0.076,0.122,0.976,0.244,452.762
151232,156374,13542,-0.228,1.001,0.076,0.732,1.341,0.122,452.768
151261,156295,9125,-0.226,1,0.075,0.732,1.341,0.122,452.772
151261,156350,13513,-0.231,1.002,0.072,1.098,1.341,0.183,452.778
151246,156295,9125,-0.231,1.005,0.072,1.098,1.341,0.183,452.781
151246,156358,13510,-0.231,1.001,0.074,0.671,1.22,0.305,452.788
151257,156295,9125,-0.234,0.995,0.076,0.671,1.22,0.305,452.791
151257,156350,13516,-0.233,0.994,0.073,0.366,1.098,0.061,452.798
151233,156295,9125,-0.235,0.996,0.071,0.366,1.098,0.061,452.801
151233,156340,13520,-0.237,0.995,0.071,0.61,1.037,0.122,452.807
151220,156295,9125,-0.236,1.003,0.073,0.61,1.037,0.122,452.811
151220,156346,13513,-0.237,1.004,0.075,0.732,0.793,0.305,452.817
151243,156295,9125,-0.238,1.002,0.075,0.732,0.793,0.305,452.821
151243,156320,13504,-0.239,0.998,0.077,0,0.427,0.427,452.827
151229,156295,9125,-0.239,0.996,0.076,0,0.427,0.427,452.831
151229,156322,13492,-0.235,0.993,0.076,-0.488,0.366,0.366,452.837
151218,156295,9125,-0.237,0.995,0.079,-0.488,0.366,0.366,452.841
151218,156328,13485,-0.236,0.997,0.074,0,0.305,0.488,452.847
151218,156295,9125,-0.235,0.997,0.073,0,0.305,0.488,452.851
151218,156314,13499,-0.237,1.004,0.075,0.427,0.366,0.671,452.857
151217,156295,9125,-0.237,1.007,0.077,0.427,0.366,0.671,452.861
151217,156314,13492,-0.236,1.003,0.075,-0.244,0.427,0.732,452.867
151217,156295,9125,-0.233,0.997,0.074,-0.244,0.427,0.732,452.871
151217,156307,13493,-0.234,0.996,0.077,-0.671,0.122,0.488,452.877
151190,156295,9125,-0.232,0.997,0.075,-0.671,0.122,0.488,452.88
151190,156289,13500,-0.23,0.999,0.075,-0.61,0.244,0.427,452.887
151206,156295,9125,-0.229,1.001,0.075,-0.61,0.244,0.427,452.89
151206,156320,13501,-0.228,0.999,0.071,-0.366,0.305,0.61,452.897
151197,156295,9125,-0.231,1.002,0.071,-0.366,0.305,0.61,452.9
151197,156281,13490,-0.228,1.003,0.073,-0.61,0,0.61,452.906
151194,156295,9125,-0.23,1.002,0.072,-0.61,0,0.61,452.91
151194,156304,13486,-0.229,0.998,0.077,-0.915,-0.305,0.549,452.916
151212,156295,9125,-0.229,0.998,0.075,-0.915,-0.305,0.549,452.92
151212,156294,13494,-0.231,0.997,0.077,-1.098,-0.305,0.61,452.926
151218,156295,9125,-0.232,0.996,0.078,-1.098,-0.305,0.61,452.93
151218,156322,13476,-0.233,0.997,0.078,-0.854,-0.244,0.61,452.936
151236,156295,9125,-0.232,0.999,0.077,-0.854,-0.244,0.61,452.94
151236,156307,13472,-0.235,1.002,0.076,-0.671,-0.061,0.671,452.946
151218,156295,9125,-0.235,0.998,0.078,-0.671,-0.061,0.671,452.95
151218,156288,13487,-0.23,1.002,0.082,-0.732,0.122,0.488,452.956
151236,156295,9125,-0.233,1,0.079,-0.732,0.122,0.488,452.96
151236,156313,13480,-0.234,0.998,0.079,-0.732,0.366,0.427,452.966
151218,156295,9125,-0.234,1,0.081,-0.732,0.366,0.427,452.97
151218,156325,13490,-0.234,1,0.081,-0.427,0.61,0.488,452.976
151243,156295,9125,-0.235,0.998,0.077,-0.427,0.61,0.488,452.98
151243,156324,13478,-0.233,0.998,0.075,0.183,0.976,0.244,452.986
151236,156295,9125,-0.234,0.997,0.075,0.183,0.976,0.244,452.989
151236,156319,13501,-0.233,1.002,0.073,0.671,0.976,0.122,452.996
151254,156295,9125,-0.233,1.004,0.076,0.671,0.976,0.122,452.999
151254,156304,13486,-0.234,1.003,0.077,0.366,0.915,0.305,453.005
151232,156295,9125,-0.238,1.002,0.072,0.366,0.915,0.305,453.009
151232,156297,13483,-0.237,0.999,0.071,-0.244,0.793,0.183,453.015
151229,156295,9125,-0.235,0.998,0.078,-0.244,0.793,0.183,453.019
151229,156329,13499,-0.236,0.998,0.071,-0.305,0.61,0.183,453.025
151226,156295,9125,-0.238,0.999,0.07,-0.305,0.61,0.183,453.029
151226,156322,13481,-0.232,1,0.074,-0.183,0.488,0.305,453.035
151216,156295,9125,-0.232,1,0.074,-0.183,0.488,0.305,453.039
151216,156329,13471,-0.235,1,0.076,-0.366,0.366,0.488,453.045
151187,156295,9125,-0.235,1,0.076,-0.366,0.366,0.488,453.049
151187,156321,13487,-0.234,0.999,0.075,-0.793,0.244,0.488,453.055
151193,156295,9125,-0.234,0.999,0.075,-0.793,0.244,0.488,453.059
151193,156286,13469,-0.233,1,0.075,-1.098,0.122,0.427,453.065
151172,156295,9125,-0.233,1,0.075,-1.098,0.122,0.427,453.069
151172,156295,13474,-0.233,1.003,0.073,-0.915,0.244,0.549,453.075
151165,156295,9125,-0.233,1.003,0.073,-0.915,0.244,0.549,453.078
151165,156267,13470,-0.23,1.004,0.075,-0.61,0.305,0.366,453.085
151173,156295,9125,-0.23,1.004,0.075,-0.61,0.305,0.366,453.088
151173,156279,13478,-0.233,0.999,0.073,-0.427,0.122,0.305,453.095
151162,156295,9125,-0.233,0.999,0.073,-0.427,0.122,0.305,453.098
151162,156260,13470,-0.232,1,0.075,-0.854,-0.183,0.427,453.104
151166,156295,9125,-0.232,1,0.075,-0.854,-0.183,0.427,453.108
151166,156261,13475,-0.234,0.997,0.077,-1.098,-0.244,0.549,453.114
151170,156295,9125,-0.234,0.997,0.077,-1.098,-0.244,0.549,453.118
151170,156254,13487,-0.232,0.995,0.078,-0.671,0.183,0.366,453.124
151194,156295,9125,-0.232,0.995,0.078,-0.671,0.183,0.366,453.128
151194,156285,13477,-0.236,1.001,0.08,-0.244,0.549,0.305,453.134
151181,156295,9125,-0.236,1.001,0.08,-0.244,0.549,0.305,453.138
151181,156293,13475,-0.233,0.995,0.074,-0.366,0.488,0.244,453.144
151184,156295,9125,-0.233,0.995,0.074,-0.366,0.488,0.244,453.148
151184,156274,13464,-0.234,0.994,0.078,-0.488,0.244,0.366,453.154
151172,156295,9125,-0.234,0.994,0.078,-0.488,0.244,0.366,453.158
151172,156271,13485,-0.236,1.004,0.076,-0.671,0.122,0.61,453.164
151177,156295,9125,-0.236,1.004,0.076,-0.671,0.122,0.61,453.168
151177,156282,13473,-0.232,1.001,0.083,-0.854,0,0.671,453.174
151183,156295,9125,-0.232,1.001,0.083,-0.854,0,0.671,453.178
151183,156297,13476,-0.233,0.997,0.081,-0.854,0,0.671,453.184
151180,156295,9125,-0.236,0.996,0.08,-0.671,0.061,0.549,453.187
151180,156281,13480,-0.235,0.997,0.077,-0.671,0.061,0.549,453.194
151167,156295,9125,-0.23,0.997,0.077,-0.183,0.488,0.366,453.197
151167,156290,13469,-0.23,0.996,0.075,-0.183,0.488,0.366,453.203
151194,156295,9125,-0.232,1.001,0.073,0.061,0.549,0.305,453.207
151194,156274,13473,-0.231,1.003,0.078,0.061,0.549,0.305,453.213
151202,156295,9125,-0.234,1.003,0.077,-0.305,0.305,0.427,453.217
151202,156314,13479,-0.234,0.999,0.074,-0.305,0.305,0.427,453.223
151188,156295,9125,-0.232,0.998,0.071,-0.732,0.183,0.305,453.227
151188,156282,13468,-0.234,1.001,0.076,-0.732,0.183,0.305,453.233
151185,156295,9125,-0.232,0.999,0.079,-0.671,0.061,0.305,453.237
151185,156287,13473,-0.232,0.997,0.077,-0.671,0.061,0.305,453.243
151194,156295,9125,-0.232,0.997,0.077,-0.549,-0.183,0.549,453.247
151194,156274,13472,-0.231,1,0.082,-0.549,-0.183,0.549,453.253
151161,156295,9125,-0.232,0.997,0.081,-0.854,-0.244,0.732,453.257
151161,156284,13489,-0.233,0.998,0.081,-0.854,-0.244,0.732,453.263
151161,156295,9125,-0.23,0.999,0.08,-1.159,-0.122,0.732,453.267
151161,156242,13465,-0.229,0.999,0.08,-1.159,-0.122,0.732,453.273
151151,156295,9125,-0.232,0.998,0.078,-1.159,-0.122,0.671,453.277
151151,156266,13478,-0.231,0.995,0.08,-1.159,-0.122,0.671,453.283
151140,156295,9125,-0.23,0.997,0.08,-0.732,0.183,0.549,453.286
151140,156287,13457,-0.234,1.001,0.077,-0.732,0.183,0.549,453.293
151136,156295,9125,-0.235,1.002,0.077,-0.122,0.305,0.488,453.296
151136,156246,13450,-0.231,1.003,0.077,-0.122,0.305,0.488,453.302
151123,156295,9125,-0.233,1.006,0.074,0.122,0.244,0.427,453.306
151123,156281,13483,-0.235,1.002,0.074,0.122,0.244,0.427,453.312
151134,156295,9125,-0.235,1,0.078,-0.122,0.244,0.488,453.316
151134,156272,13457,-0.235,0.997,0.081,-0.122,0.244,0.488,453.322
151150,156295,9125,-0.233,0.996,0.077,-0.488,0.183,0.305,453.326
151150,156316,13465,-0.233,0.996,0.077,-0.488,0.183,0.305,453.332
151145,156295,9125,-0.234,0.996,0.08,-0.427,0,0.366,453.336
151145,156265,13456,-0.235,0.995,0.078,-0.427,0,0.366,453.342
151141,156295,9125,-0.234,0.998,0.077,-0.793,-0.183,0.671,453.346
151141,156258,13474,-0.235,1,0.08,-0.793,-0.183,0.671,453.352
151147,156295,9125,-0.234,0.999,0.079,-0.976,-0.122,0.732,453.356
151147,156269,13478,-0.235,0.999,0.077,-0.976,-0.122,0.732,453.362
151127,156295,9125,-0.233,0.996,0.077,-0.549,0,0.549,453.366
151127,156291,13477,-0.234,0.991,0.075,-0.549,0,0.549,453.372
151138,156295,9125,-0.232,0.997,0.075,-0.061,-0.061,0.61,453.376
151138,156255,13462,-0.23,1.003,0.076,-0.061,-0.061,0.61,453.382
151129,156295,9125,-0.231,1.005,0.076,-0.061,0,0.671,453.385
151129,156289,13477,-0.228,1.006,0.073,-0.061,0,0.671,453.392
151143,156295,9125,-0.227,1.01,0.077,-0.488,-0.061,0.854,453.395
151143,156266,13488,-0.224,1.008,0.083,-0.488,-0.061,0.854,453.401
151156,156295,9125,-0.225,1.002,0.079,-1.159,-0.061,0.61,453.405
151156,156290,13484,-0.227,0.997,0.079,-1.159,-0.061,0.61,453.411
151151,156295,9125,-0.231,0.994,0.085,-1.159,0.122,0.122,453.415
151151,156288,13466,-0.233,0.992,0.078,-1.159,0.122,0.122,453.421
151136,156295,9125,-0.233,0.991,0.079,-0.549,0,0.061,453.425
151136,156281,13482,-0.234,0.995,0.08,-0.549,0,0.061,453.431
151157,156295,9125,-0.234,0.996,0.076,-0.183,-0.244,0.305,453.435
151157,156259,13464,-0.235,1.001,0.077,-0.183,-0.244,0.305,453.441
151159,156295,9125,-0.236,0.999,0.078,-0.488,-0.305,0.61,453.445
151159,156282,13480,-0.234,0.997,0.077,-0.488,-0.305,0.61,453.451
151150,156295,9125,-0.235,0.996,0.077,-0.793,-0.061,0.61,453.455
151150,156302,13476,-0.238,0.996,0.082,-0.793,-0.061,0.61,453.461
151159,156295,9125,-0.238,0.999,0.078,-0.915,0.061,0.61,453.465
151159,156266,13474,-0.234,1,0.08,-0.915,0.061,0.61,453.471
151139,156295,9125,-0.234,1.003,0.081,-0.793,-0.122,0.732,453.475
151139,156269,13487,-0.233,1.004,0.082,-0.793,-0.122,0.732,453.481
151166,156295,9125,-0.23,1.005,0.081,-0.793,0,0.61,453.484
151166,156292,13481,-0.231,1.007,0.081,-0.793,0,0.61,453.491
151160,156295,9125,-0.228,1.005,0.08,-0.854,0.427,0.366,453.494
151160,156285,13473,-0.226,1,0.078,-0.854,0.427,0.366,453.5
151136,156295,9125,-0.229,0.996,0.076,-0.061,0.793,0,453.504
151136,156300,13479,-0.23,0.998,0.078,-0.061,0.793,0,453.51
151153,156295,9125,-0.229,1.001,0.073,0.61,0.793,-0.061,453.514
151153,156293,13497,-0.228,1.001,0.077,0.61,0.793,-0.061,453.52
151154,156295,9125,-0.231,1.003,0.078,0.61,0.305,0.305,453.524
151154,156306,13466,-0.23,1.004,0.08,0.61,0.305,0.305,453.53
151169,156295,9125,-0.232,0.998,0.079,-0.366,0.183,0.427,453.534
151169,156324,13480,-0.238,0.992,0.082,-0.366,0.183,0.427,453.54
151156,156295,9125,-0.234,0.988,0.082,-0.976,0,0.122,453.544
151156,156324,13470,-0.232,0.991,0.083,-0.976,0,0.122,453.55
151138,156295,9125,-0.23,0.994,0.078,-0.915,-0.183,0.366,453.554
151138,156327,13480,-0.232,0.999,0.079,-0.915,-0.183,0.366,453.56
151157,156295,9125,-0.231,1.001,0.082,-0.732,-0.122,0.671,453.564
151157,156304,13485,-0.229,1,0.082,-0.732,-0.122,0.671,453.57
151148,156295,9125,-0.231,1.001,0.083,-0.915,-0.061,0.732,453.574
151148,156315,13484,-0.234,1.002,0.081,-0.915,-0.061,0.732,453.58
151163,156295,9125,-0.234,1.001,0.079,-0.976,0.122,0.61,453.583
151163,156311,13511,-0.233,1.002,0.085,-0.976,0.122,0.61,453.59
151171,156295,9125,-0.235,1.003,0.083,-0.671,0.488,0.488,453.593
151171,156321,13496,-0.234,1,0.082,-0.671,0.488,0.488,453.6
151172,156295,9125,-0.233,1.001,0.082,-0.061,0.854,0.244,453.603
151172,156309,13497,-0.234,1.001,0.079,-0.061,0.854,0.244,453.609
151177,156295,9125,-0.233,1.002,0.077,0.305,1.098,0.122,453.613
151177,156316,13489,-0.229,1.001,0.078,0.305,1.098,0.122,453.619
151173,156295,9125,-0.23,1,0.079,0.488,0.915,0.183,453.623
151173,156298,13488,-0.229,1,0.078,0.488,0.915,0.183,453.629
151171,156295,9125,-0.229,1,0.078,0.488,0.915,0.183,453.633
151171,156291,13503,-0.225,1.004,0.077,0.244,0.671,0.122,453.639
151154,156295,9125,-0.225,1.004,0.077,0.244,0.671,0.122,453.643
151154,156283,13493,-0.232,0.997,0.077,0.122,0.732,0.122,453.649
151129,156295,9125,-0.232,0.997,0.077,0.122,0.732,0.122,453.653
151129,156280,13480,-0.23,1.003,0.075,0.366,0.854,0,453.659
151111,156295,9125,-0.23,1.003,0.075,0.366,0.854,0,453.663
151111,156269,13474,-0.232,1.002,0.078,0.366,0.549,0.061,453.669
151088,156295,9125,-0.232,1.002,0.078,0.366,0.549,0.061,453.673
151088,156262,13476,-0.232,0.998,0.083,-0.305,0.366,0.305,453.679
151079,156295,9125,-0.232,0.998,0.083,-0.305,0.366,0.305,453.682
151079,156233,13473,-0.232,0.996,0.081,-0.793,0.549,0.305,453.689
151031,156295,9125,-0.232,0.996,0.081,-0.793,0.549,0.305,453.692
151031,156221,13473,-0.233,0.994,0.085,-0.549,0.671,0.244,453.699
151015,156295,9125,-0.233,0.994,0.085,-0.549,0.671,0.244,453.702
151015,156206,13461,-0.236,1.005,0.075,-0.183,0.732,0.305,453.708
151024,156295,9125,-0.236,1.005,0.075,-0.183,0.732,0.305,453.712
151024,156198,13457,-0.233,0.998,0.079,0.183,0.793,0.305,453.718
151004,156295,9125,-0.233,0.998,0.079,0.183,0.793,0.305,453.722
151004,156197,13460,-0.234,1.002,0.075,0.122,0.793,0.183,453.728
151005,156295,9125,-0.234,1.002,0.075,0.122,0.793,0.183,453.732
151005,156202,13467,-0.232,0.995,0.074,-0.244,0.61,0.366,453.738
150982,156295,9125,-0.232,0.995,0.074,-0.244,0.61,0.366,453.742
150982,156173,13451,-0.235,0.999,0.071,-0.244,0.427,0.427,453.748
150986,156295,9125,-0.235,0.999,0.071,-0.244,0.427,0.427,453.752
150986,156176,13450,-0.239,1.004,0.08,-0.61,0.061,0.488,453.758
150960,156295,9125,-0.239,1.004,0.08,-0.61,0.061,0.488,453.762
150960,156188,13461,-0.234,0.998,0.082,-1.22,-0.61,0.732,453.768
150959,156295,9125,-0.234,0.998,0.082,-1.22,-0.61,0.732,453.772
150959,156177,13468,-0.234,0.995,0.085,-1.585,-0.793,0.488,453.778
150960,156295,9125,-0.234,0.997,0.088,-1.585,-0.793,0.488,453.781
150960,156177,13440,-0.232,0.996,0.086,-1.28,-0.427,0.427,453.788
150934,156039,9125,-0.232,0.995,0.086,-1.28,-0.427,0.427,453.791
150934,156155,13468,-0.234,1.001,0.081,-0.671,0.122,0.366,453.798
150956,156039,9125,-0.23,0.999,0.082,-0.671,0.122,0.366,453.801
150956,156136,13449,-0.227,0.995,0.081,0.183,0.366,0.244,453.807
150923,156039,9125,-0.229,1.001,0.078,0.183,0.366,0.244,453.811
150923,156102,13473,-0.23,1.004,0.081,0.122,0.366,0.427,453.817
150947,156039,9125,-0.232,1.004,0.082,0.122,0.366,0.427,453.821
150947,156106,13460,-0.233,1,0.078,-0.305,0.427,0.366,453.827
150928,156039,9125,-0.233,0.997,0.08,-0.305,0.427,0.366,453.831
150928,156094,13455,-0.235,0.994,0.083,-0.305,0.427,0.183,453.837
150925,156039,9125,-0.234,1,0.082,-0.305,0.427,0.183,453.841
150925,156128,13445,-0.234,1.001,0.08,-0.183,0.427,0.366,453.847
150937,156039,9125,-0.231,0.997,0.078,-0.183,0.427,0.366,453.851
150937,156096,13437,-0.231,0.995,0.081,0,0.244,0.427,453.857
150965,156039,9125,-0.233,0.999,0.082,0,0.244,0.427,453.861
150965,156121,13434,-0.233,1,0.081,0,0.183,0.488,453.867
150938,156039,9125,-0.235,1,0.081,0,0.183,0.488,453.871
150938,156106,13438,-0.237,1,0.081,-0.366,0.061,0.61,453.877
150930,156039,9125,-0.236,1.003,0.083,-0.366,0.061,0.61,453.88
150930,156115,13427,-0.237,1.001,0.084,-0.671,0.183,0.366,453.887
150943,156039,9125,-0.234,0.996,0.085,-0.671,0.183,0.366,453.89
150943,156112,13432,-0.232,0.993,0.08,-0.488,0.305,0.366,453.897
150946,156039,9125,-0.234,0.996,0.079,-0.488,0.305,0.366,453.9
150946,156105,13442,-0.233,1,0.081,-0.183,0.366,0.549,453.906
150969,156039,9125,-0.229,0.999,0.083,-0.183,0.366,0.549,453.91
150969,156111,13421,-0.23,0.999,0.08,-0.122,0.427,0.427,453.916
150970,156039,9125,-0.23,0.999,0.078,-0.122,0.427,0.427,453.92
150970,156097,13429,-0.23,1.002,0.077,0.122,0.305,0.488,453.926
150966,156039,9125,-0.23,1.004,0.08,0.122,0.305,0.488,453.93
150966,156117,13417,-0.231,1.004,0.083,-0.061,0.305,0.488,453.936
150989,156039,9125,-0.229,0.997,0.08,-0.061,0.305,0.488,453.94
150989,156106,13433,-0.226,0.997,0.08,-0.366,0.427,0.427,453.946
150965,156039,9125,-0.229,0.997,0.085,-0.366,0.427,0.427,453.95
150965,156113,13434,-0.23,1.004,0.082,-0.61,0.366,0.366,453.956
150984,156039,9125,-0.231,0.998,0.081,-0.61,0.366,0.366,453.96
150984,156104,13428,-0.228,0.997,0.079,-0.183,0.427,0.427,453.966
150954,156039,9125,-0.228,1,0.08,-0.183,0.427,0.427,453.97
150954,156085,13435,-0.231,1,0.082,0.061,0.549,0.366,453.976
150977,156039,9125,-0.233,0.999,0.081,0.061,0.549,0.366,453.979
150977,156089,13421,-0.231,0.997,0.082,0.183,0.671,0.183,453.986
150965,156039,9125,-0.233,0.995,0.081,0.183,0.671,0.183,453.989
150965,156070,13432,-0.235,0.997,0.08,0.488,0.976,0.122,453.996
150939,156039,9125,-0.234,0.997,0.076,0.488,0.976,0.122,453.999
150939,156076,13415,-0.234,0.998,0.082,0.488,0.915,0.305,454.005
150942,156039,9125,-0.23,0.998,0.081,0.488,0.915,0.305,454.009
150942,156075,13416,-0.23,1.001,0.087,0.366,0.793,0.549,454.015
150928,156039,9125,-0.234,1.001,0.082,0.366,0.793,0.549,454.019
150928,156091,13414,-0.233,1,0.077,0.366,0.976,0.427,454.025
150939,156039,9125,-0.23,0.999,0.08,0.366,0.976,0.427,454.029
150939,156042,13411,-0.232,1,0.077,0.61,1.098,0.122,454.035
150931,156039,9125,-0.231,1.002,0.079,0.61,1.098,0.122,454.039
150931,156064,13420,-0.231,1.005,0.08,0.549,1.037,0.122,454.045
150921,156039,9125,-0.231,1.003,0.079,0.549,1.037,0.122,454.049
150921,156060,13422,-0.232,0.997,0.077,0.488,0.976,0.183,454.055
150946,156039,9125,-0.231,0.996,0.075,0.488,0.976,0.183,454.059
150946,156070,13405,-0.231,0.998,0.073,0.732,0.854,0.061,454.065
150928,156039,9125,-0.234,1.002,0.075,0.732,0.854,0.061,454.069
150928,156049,13406,-0.235,1.005,0.077,0.366,0.61,0.305,454.075
150956,156039,9125,-0.234,1,0.074,0.366,0.61,0.305,454.078
150956,156051,13434,-0.233,0.993,0.076,-0.122,0.488,0.305,454.085
150963,156039,9125,-0.232,1,0.078,-0.122,0.488,0.305,454.088
150963,156083,13419,-0.233,1.001,0.082,-0.488,0.366,0.122,454.095
150942,156039,9125,-0.236,1.001,0.077,-0.488,0.366,0.122,454.098
150942,156069,13425,-0.232,1.003,0.077,-0.366,0.427,0.366,454.104
150949,156039,9125,-0.23,0.998,0.083,-0.366,0.427,0.366,454.108
150949,156095,13425,-0.233,1,0.075,-0.122,0.549,0.366,454.114
150948,156039,9125,-0.235,0.997,0.077,-0.122,0.549,0.366,454.118
150948,156075,13414,-0.234,1,0.079,0.061,0.549,0.183,454.124
150940,156039,9125,-0.233,1.002,0.074,0.061,0.549,0.183,454.128
150940,156086,13423,-0.231,0.999,0.075,-0.244,0.244,0.366,454.134
150955,156039,9125,-0.231,1.001,0.079,-0.244,0.244,0.366,454.138
150955,156073,13421,-0.235,1,0.078,-0.793,0.061,0.488,454.144
150923,156039,9125,-0.234,0.999,0.078,-0.793,0.061,0.488,454.148
150923,156094,13407,-0.234,0.998,0.079,-0.854,0.244,0.366,454.154
150938,156039,9125,-0.231,0.997,0.077,-0.854,0.244,0.366,454.158
150938,156057,13408,-0.232,0.996,0.077,-0.549,0.366,0.305,454.164
150903,156039,9125,-0.233,0.997,0.078,-0.549,0.366,0.305,454.168
150903,156070,13417,-0.233,0.996,0.081,-0.305,0.122,0.488,454.174
150952,156039,9125,-0.231,0.999,0.084,-0.305,0.122,0.488,454.177
150952,156069,13404,-0.234,1,0.08,-0.61,0.122,0.488,454.184
150930,156039,9125,-0.232,0.998,0.076,-0.61,0.122,0.488,454.187
150930,156059,13439,-0.23,0.997,0.078,-0.366,0.305,0.305,454.194
150949,156039,9125,-0.233,0.999,0.083,-0.366,0.305,0.305,454.197
150949,156081,13417,-0.236,0.999,0.087,-0.122,0.488,0.427,454.203
150952,156039,9125,-0.236,0.998,0.081,-0.122,0.488,0.427,454.207
150952,156078,13421,-0.234,0.997,0.08,0,0.793,0.244,454.213
150937,156039,9125,-0.233,0.995,0.079,0,0.793,0.244,454.217
150937,156089,13421,-0.231,0.996,0.077,0.244,0.732,-0.061,454.223
150953,156039,9125,-0.231,0.996,0.077,0.244,0.732,-0.061,454.227
150953,156078,13408,-0.233,1,0.08,0.122,0.61,0.549,454.233
150960,156039,9125,-0.233,1,0.08,0.122,0.61,0.549,454.237
150960,156056,13425,-0.23,0.998,0.08,-0.061,0.61,0.549,454.243
150955,156039,9125,-0.23,0.998,0.08,-0.061,0.61,0.549,454.247
150955,156088,13408,-0.233,0.998,0.081,-0.122,0.793,0.244,454.253
150941,156039,9125,-0.233,0.998,0.081,-0.122,0.793,0.244,454.257
150941,156079,13418,-0.23,1,0.082,0.305,1.098,0.366,454.263
150939,156039,9125,-0.23,1,0.082,0.305,1.098,0.366,454.267
150939,156099,13412,-0.232,0.999,0.078,0.732,1.22,0.061,454.273
150966,156039,9125,-0.232,0.999,0.078,0.732,1.22,0.061,454.277
150966,156085,13427,-0.231,1,0.078,1.159,1.22,0.183,454.283
150958,156039,9125,-0.231,1,0.078,1.159,1.22,0.183,454.286
150958,156081,13416,-0.231,1,0.079,0.732,1.28,0.183,454.293
150948,156039,9125,-0.231,1,0.079,0.732,1.28,0.183,454.296
150948,156096,13424,-0.232,1,0.075,0.488,1.159,0,454.302
150974,156039,9125,-0.232,1,0.075,0.488,1.159,0,454.306
150974,156085,13407,-0.234,0.997,0.078,0.549,1.037,0.122,454.312
150939,156039,9125,-0.234,0.997,0.078,0.549,1.037,0.122,454.316
150939,156084,13420,-0.234,0.996,0.077,0.671,0.915,0.122,454.322
150952,156039,9125,-0.234,0.996,0.077,0.671,0.915,0.122,454.326
150952,156083,13407,-0.233,0.996,0.079,0.854,0.915,0.305,454.332
150956,156039,9125,-0.233,0.996,0.079,0.854,0.915,0.305,454.336
150956,156105,13425,-0.233,1.004,0.078,0.732,0.915,0.366,454.342
150949,156039,9125,-0.233,1.004,0.078,0.732,0.915,0.366,454.346
150949,156069,13427,-0.234,1.002,0.075,0.305,0.61,0.305,454.352
150973,156039,9125,-0.234,1.002,0.075,0.305,0.61,0.305,454.356
150973,156105,13419,-0.236,0.996,0.079,-0.305,0.549,0.427,454.362
150968,156039,9125,-0.236,0.996,0.079,-0.305,0.549,0.427,454.366
150968,156143,13423,-0.236,0.997,0.079,-0.305,0.549,0.427,454.372
150941,156039,9125,-0.234,0.996,0.08,-0.244,0.671,0.427,454.376
150941,156123,13420,-0.235,0.996,0.08,-0.244,0.671,0.427,454.382
150945,156039,9125,-0.235,0.998,0.077,0.122,0.732,0.305,454.385
150945,156139,13421,-0.238,0.999,0.08,0.122,0.732,0.305,454.392
150938,156039,9125,-0.233,0.996,0.076,0.366,0.793,0.427,454.395
150938,156111,13416,-0.231,0.998,0.076,0.366,0.793,0.427,454.401
150938,156039,9125,-0.233,1.001,0.08,0.488,0.671,0.427,454.405
150938,156112,13427,-0.231,1.003,0.081,0.488,0.671,0.427,454.411
150936,156039,9125,-0.236,0.999,0.081,0.427,0.976,0.366,454.415
150936,156107,13433,-0.236,0.996,0.082,0.427,0.976,0.366,454.421
150948,156039,9125,-0.233,0.998,0.075,0.549,1.22,0,454.425
150948,156132,13432,-0.233,0.999,0.076,0.549,1.22,0,454.431
150943,156039,9125,-0.233,0.997,0.073,0.854,1.098,0,454.435
150943,156099,13425,-0.231,0.998,0.07,0.854,1.098,0,454.441
150947,156039,9125,-0.232,1,0.072,0.61,0.854,0.427,454.445
150947,156144,13428,-0.234,1,0.073,0.61,0.854,0.427,454.451
150960,156039,9125,-0.235,0.998,0.077,-0.061,0.427,0.488,454.455
150960,156131,13437,-0.234,1,0.077,-0.061,0.427,0.488,454.461
150980,156039,9125,-0.235,0.997,0.078,-0.366,0.244,0.427,454.465
150980,156137,13421,-0.236,1,0.08,-0.366,0.244,0.427,454.471
150982,156039,9125,-0.236,1,0.078,-0.183,0.488,0.366,454.475
150982,156136,13435,-0.235,0.998,0.077,-0.183,0.488,0.366,454.481
150961,156039,9125,-0.233,1.002,0.075,0.366,0.671,0.366,454.484
150961,156148,13435,-0.235,1.004,0.075,0.366,0.671,0.366,454.491
150977,156039,9125,-0.234,0.999,0.073,0.61,0.427,0.488,454.494
150977,156138,13433,-0.232,1.001,0.073,0.61,0.427,0.488,454.5
150989,156039,9125,-0.23,0.998,0.08,0.183,0.122,0.61,454.504
150989,156151,13413,-0.231,1.004,0.078,0.183,0.122,0.61,454.51
150993,156039,9125,-0.231,1.003,0.078,-0.61,0.122,0.671,454.514
150993,156154,13438,-0.233,0.997,0.078,-0.61,0.122,0.671,454.52
150999,156039,9125,-0.229,0.997,0.073,-0.671,0.305,0.366,454.524
150999,156124,13431,-0.224,0.999,0.075,-0.671,0.305,0.366,454.53
150967,156039,9125,-0.23,1,0.08,-0.122,0.549,0.305,454.534
150967,156140,13434,-0.231,1.003,0.078,-0.122,0.549,0.305,454.54
150976,156039,9125,-0.229,1.004,0.077,-0.183,0.488,0.488,454.544
150976,156141,13412,-0.232,1,0.08,-0.183,0.488,0.488,454.55
150969,156039,9125,-0.233,0.995,0.083,-0.183,0.366,0.305,454.554
150969,156129,13435,-0.237,0.992,0.081,-0.183,0.366,0.305,454.56
150963,156039,9125,-0.239,0.993,0.075,0.183,0.549,0.244,454.564
150963,156125,13432,-0.237,0.997,0.074,0.183,0.549,0.244,454.57
150946,156039,9125,-0.232,1.001,0.073,0.793,0.61,0.305,454.574
150946,156116,13436,-0.234,1,0.073,0.793,0.61,0.305,454.58
150935,156039,9125,-0.234,0.999,0.077,0.549,0.549,0.488,454.583
150935,156097,13439,-0.236,1,0.078,0.549,0.549,0.488,454.59
150944,156039,9125,-0.238,0.999,0.079,-0.122,0.671,0.488,454.593
150944,156096,13430,-0.24,0.996,0.079,-0.122,0.671,0.488,454.6
150927,156039,9125,-0.237,0.991,0.082,-0.183,0.671,0.366,454.603
150927,156122,13419,-0.235,0.994,0.076,-0.183,0.671,0.366,454.609
150929,156039,9125,-0.232,1,0.073,0.61,0.732,0.488,454.613
150929,156086,13431,-0.229,1.006,0.073,0.61,0.732,0.488,454.619
150951,156039,9125,-0.229,1.009,0.072,0.976,0.732,0.488,454.623
150951,156142,13427,-0.223,1.006,0.073,0.976,0.732,0.488,454.629
150930,156039,9125,-0.224,1.003,0.073,0.671,0.61,0.427,454.633
150930,156108,13437,-0.23,1.002,0.073,0.671,0.61,0.427,454.639
150918,156039,9125,-0.233,0.998,0.075,-0.183,0.671,0.183,454.643
150918,156147,13428,-0.234,0.995,0.077,-0.183,0.671,0.183,454.649
150928,156039,9125,-0.234,0.998,0.075,0,0.732,0,454.653
150928,156109,13418,-0.233,0.994,0.075,0,0.732,0,454.659
150915,156039,9125,-0.235,0.997,0.075,0.366,0.61,0.122,454.663
150915,156131,13424,-0.234,1.001,0.074,0.366,0.61,0.122,454.669
150922,156039,9125,-0.234,1.005,0.077,0.061,0.183,0.427,454.673
150922,156142,13424,-0.232,1,0.08,0.061,0.183,0.427,454.679
150932,156039,9125,-0.234,0.999,0.076,-0.732,-0.061,0.427,454.682
150932,156146,13434,-0.235,0.994,0.074,-0.732,-0.061,0.427,454.689
150942,156039,9125,-0.235,0.989,0.078,-0.793,-0.061,0.305,454.692
150942,156152,13425,-0.234,0.992,0.075,-0.793,-0.061,0.305,454.699
150927,156039,9125,-0.236,0.995,0.077,-0.305,0.183,0.366,454.702
150927,156143,13435,-0.233,0.997,0.082,-0.305,0.183,0.366,454.708
150928,156295,9125,-0.234,1.001,0.078,0.122,0.549,0.488,454.712
150928,156160,13437,-0.235,1,0.077,0.122,0.549,0.488,454.718
150943,156039,9125,-0.234,1.002,0.076,0.122,0.732,0.427,454.722
150943,156155,13456,-0.235,1.002,0.076,0.122,0.732,0.427,454.728
150929,156295,9125,-0.232,1.004,0.075,0.305,0.915,0.305,454.732
150929,156171,13442,-0.231,0.998,0.082,0.305,0.915,0.305,454.738
150940,156039,9125,-0.23,1,0.076,0.732,0.976,0.244,454.742
150940,156142,13448,-0.228,1.002,0.072,0.732,0.976,0.244,454.748
150941,156295,9125,-0.229,0.999,0.076,0.732,0.976,0.244,454.752
150941,156160,13447,-0.229,1.001,0.073,0.732,0.976,0.244,454.758
150929,156295,9125,-0.23,1,0.073,0.793,0.915,0.122,454.762
150929,156161,13432,-0.231,0.997,0.074,0.793,0.915,0.122,454.768
150936,156039,9125,-0.23,0.994,0.072,0.61,0.854,0.061,454.772
150936,156157,13437,-0.229,1.001,0.074,0.61,0.854,0.061,454.778
150931,156039,9125,-0.231,0.999,0.072,0.366,0.61,0.122,454.781
150931,156146,13451,-0.23,1.001,0.075,0.366,0.61,0.122,454.788
150960,156039,9125,-0.231,1,0.073,0.366,0.427,0.366,454.791
150960,156133,13437,-0.229,1.003,0.072,0.366,0.427,0.366,454.798
150927,156039,9125,-0.232,1.002,0.068,0,0.183,0.244,454.801
150927,156115,13451,-0.231,1.001,0.07,0,0.183,0.244,454.807
150934,156039,9125,-0.232,0.998,0.075,-0.488,0.061,0.244,454.811
150934,156133,13439,-0.231,0.996,0.077,-0.488,0.061,0.244,454.817
150921,156039,9125,-0.231,0.996,0.077,-0.488,0.061,0.244,454.821
150921,156135,13439,-0.233,0.996,0.078,-0.549,0.183,0.488,454.827
150926,156039,9125,-0.233,0.996,0.078,-0.549,0.183,0.488,454.831
150926,156141,13456,-0.232,1,0.072,-0.366,0.305,0.488,454.837
150934,156039,9125,-0.232,1,0.072,-0.366,0.305,0.488,454.841
150934,156141,13441,-0.236,1,0.075,-0.122,0.427,0.427,454.847
150948,156295,9125,-0.236,1,0.075,-0.122,0.427,0.427,454.851
150948,156165,13453,-0.238,1,0.074,-0.061,0.366,0.488,454.857
150949,156295,9125,-0.238,1,0.074,-0.061,0.366,0.488,454.861
150949,156171,13451,-0.229,0.994,0.074,-0.305,0.427,0.427,454.867
150922,156039,9125,-0.229,0.994,0.074,-0.305,0.427,0.427,454.871
150922,156155,13457,-0.234,0.999,0.073,0.122,0.366,0.183,454.877
150946,156039,9125,-0.234,0.999,0.073,0.122,0.366,0.183,454.88
150946,156149,13453,-0.234,1.002,0.078,0.122,0.366,0.366,454.887
150964,156295,9125,-0.234,1.002,0.078,0.122,0.366,0.366,454.89
150964,156179,13454,-0.235,0.995,0.076,-0.305,0.427,0.366,454.897
150944,156295,9125,-0.235,0.995,0.076,-0.305,0.427,0.366,454.9
150944,156193,13451,-0.233,0.995,0.075,-0.488,0.427,0.061,454.906
150954,156295,9125,-0.233,0.995,0.075,-0.488,0.427,0.061,454.91
150954,156191,13462,-0.229,0.998,0.073,0,0.732,0.183,454.916
150957,156295,9125,-0.229,0.998,0.073,0,0.732,0.183,454.92
150957,156178,13456,-0.23,1,0.077,0.488,0.915,0.244,454.926
150961,156295,9125,-0.23,1,0.077,0.488,0.915,0.244,454.93
150961,156175,13457,-0.228,0.999,0.076,0.366,0.915,0.305,454.936
150948,156039,9125,-0.228,0.999,0.076,0.366,0.915,0.305,454.94
150948,156137,13462,-0.232,0.998,0.077,0.122,1.037,0.122,454.946
150947,156039,9125,-0.232,0.998,0.077,0.122,1.037,0.122,454.95
150947,156115,13455,-0.234,0.996,0.072,0.183,1.22,0,454.956
150930,156039,9125,-0.234,0.996,0.072,0.183,1.22,0,454.96
150930,156111,13445,-0.234,0.999,0.075,0.61,1.22,0.122,454.966
150912,156039,9125,-0.234,1.002,0.074,0.61,1.22,0.122,454.97
150912,156119,13429,-0.234,1.003,0.072,0.915,1.159,0.244,454.976
150914,156039,9125,-0.233,1.003,0.071,0.915,1.159,0.244,454.979
150914,156077,13436,-0.234,1.001,0.073,1.159,1.098,0.122,454.986
150915,156039,9125,-0.237,1.001,0.072,1.159,1.098,0.122,454.989
150915,156078,13429,-0.237,1.002,0.073,1.037,0.976,0.061,454.996
150909,156039,9125,-0.239,0.998,0.078,1.037,0.976,0.061,454.999
150909,156068,13434,-0.239,0.992,0.081,0.793,1.159,0.061,455.005
150932,156039,9125,-0.239,0.991,0.075,0.793,1.159,0.061,455.009
150932,156065,13431,-0.238,0.998,0.074,0.732,1.037,0.061,455.015
150927,156039,9125,-0.236,0.998,0.071,0.732,1.037,0.061,455.019
150927,156069,13434,-0.235,0.996,0.07,0.732,0.671,0.366,455.025
150904,156039,9125,-0.231,1.002,0.071,0.732,0.671,0.366,455.029
150904,156084,13429,-0.234,0.999,0.068,0.305,0.671,0.244,455.035
150923,156039,9125,-0.234,0.997,0.07,0.305,0.671,0.244,455.039
150923,156079,13419,-0.233,0.996,0.072,-0.122,0.488,0.244,455.045
150909,156039,9125,-0.235,0.997,0.073,-0.122,0.488,0.244,455.049
150909,156056,13431,-0.234,0.999,0.07,-0.061,0.366,0.61,455.055
150925,156039,9125,-0.235,1.004,0.072,-0.061,0.366,0.61,455.059
150925,156064,13413,-0.232,1.004,0.076,-0.122,0.366,0.61,455.065
150902,156039,9125,-0.23,1.006,0.072,-0.122,0.366,0.61,455.069
150902,156078,13426,-0.228,1.002,0.077,-0.366,0.366,0.488,455.075
150949,156039,9125,-0.226,1.003,0.093,-0.366,0.366,0.488,455.078
150949,156060,13410,-0.227,1.008,0.084,-0.61,0.976,0.122,455.085
150912,156039,9125,-0.223,0.995,0.071,-0.61,0.976,0.122,455.088
150912,156075,13412,-0.225,0.984,0.067,0.671,1.22,-0.549,455.095
150919,156039,9125,-0.233,0.994,0.069,0.671,1.22,-0.549,455.098
150919,156097,13413,-0.236,0.993,0.074,0.976,1.28,-0.061,455.104
150919,156039,9125,-0.237,0.994,0.07,0.976,1.28,-0.061,455.108
150919,156071,13410,-0.236,1.006,0.066,1.463,1.402,0.488,455.114
150916,156039,9125,-0.231,1.007,0.068,1.463,1.402,0.488,455.118
150916,156064,13403,-0.233,1.002,0.074,1.463,1.707,0.122,455.124
150918,156039,9125,-0.235,1,0.071,1.463,1.707,0.122,455.128
150918,156069,13433,-0.235,1.001,0.065,0.915,1.585,0.122,455.134
150910,156039,9125,-0.232,1,0.068,0.915,1.585,0.122,455.138
150910,156065,13422,-0.232,0.997,0.066,0.061,1.037,0.122,455.144
150927,156039,9125,-0.237,0.994,0.066,0.061,1.037,0.122,455.148
150927,156059,13407,-0.234,0.996,0.067,-0.183,0.671,0.427,455.154
150917,156039,9125,-0.232,0.998,0.071,-0.183,0.671,0.427,455.158
150917,156072,13415,-0.229,1.004,0.071,-0.244,0.549,0.732,455.164
150926,156039,9125,-0.235,1.007,0.068,-0.244,0.549,0.732,455.168
150926,156060,13409,-0.233,1.009,0.066,-0.488,0.244,0.61,455.174
150911,156039,9125,-0.233,1.003,0.062,-0.488,0.244,0.61,455.177
150911,156061,13421,-0.236,0.999,0.063,-0.976,-0.122,0.671,455.184
150921,156039,9125,-0.235,0.999,0.073,-0.976,-0.122,0.671,455.187
150921,156063,13417,-0.233,0.999,0.071,-1.28,0.061,0.427,455.194
150920,156039,9125,-0.233,0.995,0.071,-1.28,0.061,0.427,455.197
150920,156062,13410,-0.232,0.997,0.074,-1.22,0.183,0.366,455.203
150912,156039,9125,-0.23,0.996,0.073,-1.22,0.183,0.366,455.207
150912,156053,13417,-0.231,0.995,0.073,-0.549,0.183,0.427,455.213
150902,156039,9125,-0.235,0.995,0.072,-0.549,0.183,0.427,455.217
150902,156063,13416,-0.235,1.003,0.068,-0.061,0.244,0.488,455.223
150868,156039,9125,-0.233,1.002,0.071,-0.061,0.244,0.488,455.227
150868,156050,13406,-0.233,1.002,0.073,-0.244,0.122,0.366,455.233
150882,156039,9125,-0.232,0.998,0.071,-0.244,0.122,0.366,455.237
150882,156049,13401,-0.234,0.996,0.075,-0.793,0.122,0.366,455.243
150846,156039,9125,-0.234,1,0.077,-0.793,0.122,0.366,455.247
150846,156042,13407,-0.234,0.996,0.078,-0.854,0.244,0.427,455.253
150872,156039,9125,-0.233,0.995,0.073,-0.854,0.244,0.427,455.257
150872,156040,13404,-0.233,0.995,0.071,0.122,0.488,0.427,455.263
150843,156039,9125,-0.234,1.001,0.068,0.122,0.488,0.427,455.267
150843,156044,13424,-0.236,1.006,0.069,0.671,0.671,0.549,455.273
150858,156039,9125,-0.237,1.007,0.072,0.671,0.671,0.549,455.276
150858,156033,13396,-0.237,1.002,0.071,0.183,0.61,0.61,455.283
150844,156039,9125,-0.236,1,0.072,0.183,0.61,0.61,455.286
150844,156016,13411,-0.236,0.996,0.07,-0.305,0.488,0.427,455.293
150857,156039,9125,-0.234,0.998,0.074,-0.305,0.488,0.427,455.296
150857,156027,13426,-0.234,0.999,0.071,-0.488,0.366,0.61,455.302
150874,156039,9125,-0.233,1,0.073,-0.488,0.366,0.61,455.306
150874,156065,13417,-0.234,1.001,0.072,-0.366,0.305,0.549,455.312
150882,156039,9125,-0.231,1.003,0.072,-0.366,0.305,0.549,455.316
150882,156035,13433,-0.233,1,0.072,-0.305,0.122,0.366,455.322
150880,156039,9125,-0.231,0.998,0.072,-0.305,0.122,0.366,455.326
150880,156084,13416,-0.232,0.999,0.075,-0.671,0,0.305,455.332
150885,156039,9125,-0.234,0.999,0.076,-0.671,0,0.305,455.336
150885,156051,13412,-0.235,0.999,0.078,-0.915,0.122,0.305,455.342
150905,156039,9125,-0.234,0.998,0.079,-0.915,0.122,0.305,455.346
150905,156053,13396,-0.232,0.996,0.077,-0.488,0.61,0.183,455.352
150887,156039,9125,-0.23,0.996,0.073,-0.488,0.61,0.183,455.356
150887,156055,13392,-0.233,0.998,0.072,0.366,0.854,0,455.362
150864,156039,9125,-0.232,0.998,0.07,0.366,0.854,0,455.366
150864,156048,13418,-0.232,1,0.07,0.732,0.976,0.183,455.372
150884,156039,9125,-0.233,1,0.07,0.732,0.976,0.183,455.375
150884,156053,13404,-0.232,1,0.071,0.305,0.793,0.183,455.382
150887,156039,9125,-0.233,0.999,0.072,0.305,0.793,0.183,455.385
150887,156060,13402,-0.234,1,0.07,-0.366,0.366,0.244,455.392
150893,156039,9125,-0.232,1,0.069,-0.366,0.366,0.244,455.395
150893,156035,13421,-0.233,0.999,0.072,-0.671,0.122,0.427,455.401
150901,156039,9125,-0.234,1.002,0.073,-0.671,0.122,0.427,455.405
150901,156045,13406,-0.233,1,0.075,-0.732,0.122,0.427,455.411
150877,156039,9125,-0.233,1,0.075,-0.732,0.122,0.427,455.415
150877,156039,13414,-0.231,0.997,0.076,-0.427,0.244,0.305,455.421
150871,156039,9125,-0.231,0.997,0.076,-0.427,0.244,0.305,455.425
150871,156045,13405,-0.232,0.998,0.074,-0.305,0.427,0.244,455.431
150877,156039,9125,-0.232,0.998,0.074,-0.305,0.427,0.244,455.435
150877,156055,13396,-0.234,0.995,0.074,-0.061,0.549,0.183,455.441
150847,156039,9125,-0.234,0.995,0.074,-0.061,0.549,0.183,455.445
150847,156046,13404,-0.232,1.003,0.067,0.366,0.671,0.305,455.451
150872,156039,9125,-0.232,1.003,0.067,0.366,0.671,0.305,455.455
150872,156073,13421,-0.234,1.002,0.073,0.305,0.793,0.183,455.461
150888,156039,9125,-0.234,1.002,0.073,0.305,0.793,0.183,455.465
150888,156076,13413,-0.233,0.997,0.069,0.122,0.793,0.061,455.471
150897,156039,9125,-0.233,0.997,0.069,0.122,0.793,0.061,455.474
150897,156081,13402,-0.235,0.997,0.071,0.366,0.732,0.122,455.481
150872,156039,9125,-0.235,0.997,0.071,0.366,0.732,0.122,455.484
150872,156066,13411,-0.237,1.001,0.068,0.183,0.61,0.122,455.491
150892,156039,9125,-0.237,1.001,0.068,0.183,0.61,0.122,455.494
150892,156072,13405,-0.239,1.002,0.068,-0.244,0.61,0.122,455.5
150879,156039,9125,-0.239,1.002,0.068,-0.244,0.61,0.122,455.504
150879,156070,13426,-0.234,0.994,0.066,-0.427,0.427,0.122,455.51
150866,156039,9125,-0.234,0.994,0.066,-0.427,0.427,0.122,455.514
150866,156083,13420,-0.236,0.998,0.068,-0.671,0.122,0.427,455.52
150879,156039,9125,-0.236,0.998,0.068,-0.671,0.122,0.427,455.524
150879,156062,13411,-0.236,0.999,0.073,-1.037,-0.488,0.671,455.53
150863,156039,9125,-0.236,0.999,0.073,-1.037,-0.488,0.671,455.534
150863,156068,13414,-0.233,1.002,0.073,-1.585,-0.732,0.732,455.54
150903,156039,9125,-0.233,1.002,0.073,-1.585,-0.732,0.732,455.544
150903,156081,13427,-0.228,1.001,0.07,-1.829,-0.427,0.61,455.55
150899,156039,9125,-0.228,1.001,0.07,-1.829,-0.427,0.61,455.554
150899,156081,13418,-0.227,0.995,0.075,-1.829,-0.427,0.61,455.56
150909,156039,9125,-0.228,0.995,0.079,-1.463,0,0.366,455.564
150909,156080,13429,-0.232,0.996,0.079,-1.463,0,0.366,455.57
150916,156039,9125,-0.232,0.997,0.077,-1.098,0.305,0.305,455.573
150916,156125,13430,-0.234,0.997,0.073,-1.098,0.305,0.305,455.58
150920,156039,9125,-0.235,0.996,0.075,-0.488,0.122,0.305,455.583
150920,156106,13441,-0.237,0.998,0.077,-0.488,0.122,0.305,455.59
150947,156039,9125,-0.24,1.003,0.073,-0.488,-0.061,0.549,455.593
150947,156101,13426,-0.237,1.002,0.072,-0.488,-0.061,0.549,455.599
150921,156039,9125,-0.236,1,0.079,-0.732,-0.122,0.488,455.603
150921,156099,13433,-0.236,0.999,0.077,-0.732,-0.122,0.488,455.609
150906,156039,9125,-0.239,0.997,0.078,-0.732,0.122,0.366,455.613
150906,156088,13438,-0.235,0.995,0.074,-0.732,0.122,0.366,455.619
150909,156039,9125,-0.237,0.992,0.074,-0.305,0.488,0.305,455.623
150909,156093,13430,-0.234,0.993,0.073,-0.305,0.488,0.305,455.629
150933,156039,9125,-0.233,1,0.073,0,0.549,0.427,455.633
150933,156077,13433,-0.234,1.006,0.076,0,0.549,0.427,455.639
150925,156039,9125,-0.231,1.008,0.072,0.122,0.549,0.61,455.643
150925,156095,13438,-0.232,1.008,0.074,0.122,0.549,0.61,455.649
150942,156039,9125,-0.231,1.008,0.071,-0.183,0.549,0.427,455.653
150942,156124,13423,-0.229,1.003,0.07,-0.183,0.549,0.427,455.659
150922,156039,9125,-0.229,1.002,0.068,-0.244,0.61,0,455.663
150922,156123,13453,-0.23,1.001,0.068,-0.244,0.61,0,455.669
150936,156039,9125,-0.234,1.001,0.072,0.122,0.671,-0.122,455.672
150936,156106,13441,-0.234,1,0.073,0.122,0.671,-0.122,455.679
150936,156039,9125,-0.235,0.998,0.074,0.183,0.671,0.122,455.682
150936,156117,13447,-0.237,0.998,0.07,0.183,0.671,0.122,455.689
150950,156039,9125,-0.233,1,0.073,-0.244,0.244,0.244,455.692
150950,156101,13430,-0.23,0.996,0.073,-0.244,0.244,0.244,455.698
150906,156039,9125,-0.232,0.995,0.078,-0.854,0.061,0.427,455.702
150906,156138,13439,-0.231,0.996,0.078,-0.854,0.061,0.427,455.708
150928,156039,9125,-0.235,0.993,0.073,-0.915,-0.122,0.366,455.712
150928,156108,13419,-0.233,0.996,0.074,-0.915,-0.122,0.366,455.718
150924,156039,9125,-0.233,0.994,0.074,-0.793,-0.122,0.366,455.722
150924,156114,13447,-0.234,0.997,0.077,-0.793,-0.122,0.366,455.728
150943,156039,9125,-0.231,0.998,0.076,-0.793,-0.061,0.427,455.732
150943,156118,13431,-0.236,0.999,0.083,-0.793,-0.061,0.427,455.738
150932,156039,9125,-0.24,0.995,0.08,-0.793,0.244,0.488,455.742
150932,156115,13443,-0.235,0.995,0.077,-0.793,0.244,0.488,455.748
150931,156039,9125,-0.235,0.996,0.075,-0.488,0.671,0.366,455.752
150931,156116,13453,-0.235,0.999,0.075,-0.488,0.671,0.366,455.758
150916,156039,9125,-0.234,1.004,0.076,0.183,0.854,0.366,455.762
150916,156109,13455,-0.232,1.006,0.074,0.183,0.854,0.366,455.768
150900,156039,9125,-0.236,1.003,0.075,0.366,1.159,0.305,455.771
150900,156131,13439,-0.232,0.997,0.072,0.366,1.159,0.305,455.778
150915,156039,9125,-0.231,0.999,0.07,0.427,1.28,0.061,455.781
150915,156121,13434,-0.234,1,0.07,0.427,1.28,0.061,455.788
150896,156039,9125,-0.23,0.999,0.069,0.366,1.159,0,455.791
150896,156117,13445,-0.23,0.999,0.07,0.366,1.159,0,455.797
150924,156039,9125,-0.23,1.001,0.074,0.244,0.976,0.122,455.801
150924,156130,13444,-0.232,1.002,0.07,0.244,0.976,0.122,455.807
150903,156039,9125,-0.232,1.001,0.071,0.122,0.854,0.122,455.811
150903,156128,13455,-0.233,0.999,0.074,0.122,0.854,0.122,455.817
150915,156039,9125,-0.234,1,0.072,-0.122,0.61,0.183,455.821
150915,156135,13441,-0.234,0.999,0.071,-0.122,0.61,0.183,455.827
150916,156039,9125,-0.235,0.999,0.069,-0.366,0.427,0.183,455.831
150916,156125,13464,-0.234,1,0.073,-0.366,0.427,0.183,455.837
150920,156039,9125,-0.235,1.001,0.071,-0.854,0.244,0.427,455.841
150920,156129,13459,-0.235,1.003,0.073,-0.854,0.244,0.427,455.847
150911,156039,9125,-0.237,1,0.07,-1.098,0.061,0.61,455.851
150911,156132,13430,-0.236,0.999,0.07,-1.098,0.061,0.61,455.857
150906,156039,9125,-0.239,1,0.075,-0.854,0,0.366,455.861
150906,156137,13450,-0.238,0.999,0.073,-0.854,0,0.366,455.867
150914,156039,9125,-0.237,0.997,0.074,-0.305,0.122,0.427,455.87
150914,156116,13445,-0.236,0.999,0.071,-0.305,0.122,0.427,455.877
150925,156039,9125,-0.237,1.002,0.069,-0.122,0.366,0.427,455.88
150925,156131,13462,-0.237,1.002,0.069,-0.122,0.366,0.427,455.887
150932,156039,9125,-0.238,0.996,0.071,-0.366,0.244,0.366,455.89
150932,156131,13468,-0.238,0.997,0.074,-0.366,0.244,0.366,455.896
150907,156039,9125,-0.238,0.999,0.075,-0.793,-0.061,0.549,455.9
150907,156110,13460,-0.242,1,0.074,-0.793,-0.061,0.549,455.906
150941,156039,9125,-0.238,0.994,0.073,-1.037,-0.244,0.671,455.91
150941,156117,13460,-0.237,0.996,0.076,-1.037,-0.244,0.671,455.916
150916,156039,9125,-0.236,0.999,0.074,-0.488,-0.366,0.488,455.92
150916,156139,13452,-0.229,1.002,0.073,-0.488,-0.366,0.488,455.926
150928,156039,9125,-0.23,1,0.076,-0.549,-0.244,0.427,455.93
150928,156134,13444,-0.229,1.002,0.071,-0.549,-0.244,0.427,455.936
150901,156039,9125,-0.229,1.001,0.071,-0.793,-0.122,0.366,455.94
150901,156127,13446,-0.232,0.999,0.073,-0.793,-0.122,0.366,455.946
150891,156039,9125,-0.234,0.999,0.072,-1.098,0.061,0.244,455.95
150891,156105,13458,-0.23,0.995,0.073,-1.098,0.061,0.244,455.956
150891,156039,9125,-0.233,0.993,0.076,-0.976,0,0.366,455.96
150891,156116,13448,-0.233,0.995,0.079,-0.976,0,0.366,455.966
150893,156039,9125,-0.233,0.999,0.079,-0.854,-0.183,0.61,455.969
150893,156076,13450,-0.234,0.997,0.07,-0.854,-0.183,0.61,455.976
150877,156039,9125,-0.234,0.999,0.071,-0.488,0,0.61,455.979
150877,156077,13441,-0.234,0.999,0.072,-0.488,0,0.61,455.986
150894,156039,9125,-0.231,0.998,0.075,-0.488,-0.244,0.61,455.989
150894,156066,13457,-0.233,1,0.078,-0.488,-0.244,0.61,455.995
150862,156039,9125,-0.233,1,0.078,-0.488,-0.244,0.61,455.999
150862,156062,13441,-0.235,0.999,0.075,-1.037,-0.366,0.61,456.005
150895,156039,9125,-0.235,0.999,0.075,-1.037,-0.366,0.61,456.009
150895,156045,13445,-0.236,0.996,0.077,-1.159,-0.244,0.366,456.015
150876,156039,9125,-0.236,0.996,0.077,-1.159,-0.244,0.366,456.019
150876,156032,13440,-0.235,1.002,0.077,-0.915,-0.061,0.488,456.025
150891,156039,9125,-0.235,1.002,0.077,-0.915,-0.061,0.488,456.029
150891,156021,13457,-0.235,0.998,0.074,-0.793,0.061,0.732,456.035
150873,156039,9125,-0.235,0.998,0.074,-0.793,0.061,0.732,456.039
150873,156049,13443,-0.238,0.999,0.082,-0.61,0.061,0.488,456.045
150870,156039,9125,-0.238,0.999,0.082,-0.61,0.061,0.488,456.049
150870,156028,13426,-0.234,0.999,0.074,-0.671,0.244,0.427,456.055
150844,156039,9125,-0.234,0.999,0.074,-0.671,0.244,0.427,456.059
150844,156028,13430,-0.232,0.999,0.08,-0.732,0.122,0.61,456.065
150871,156039,9125,-0.232,0.999,0.08,-0.732,0.122,0.61,456.068
150871,156032,13431,-0.23,0.997,0.078,-0.61,0.183,0.549,456.075
150854,156039,9125,-0.23,0.997,0.078,-0.61,0.183,0.549,456.078
150854,156043,13414,-0.229,1.001,0.073,0.244,0.671,0.366,456.085
150848,156039,9125,-0.229,1.001,0.073,0.244,0.671,0.366,456.088
150848,156023,13418,-0.228,1.004,0.071,0.732,0.793,0.183,456.094
150836,156039,9125,-0.228,1.004,0.071,0.732,0.793,0.183,456.098
150836,156024,13419,-0.231,0.998,0.073,0.366,0.61,0.061,456.104
150850,156039,9125,-0.231,0.998,0.073,0.366,0.61,0.061,456.108
150850,156020,13426,-0.233,0.993,0.073,-0.793,0.305,0.366,456.114
150827,156039,9125,-0.233,0.993,0.073,-0.793,0.305,0.366,456.118
150827,156037,13423,-0.233,0.999,0.079,-1.037,0.061,0.427,456.124
150867,156039,9125,-0.233,0.999,0.079,-1.037,0.061,0.427,456.128
150867,156023,13423,-0.234,1.003,0.079,-0.854,0.061,0.61,456.134
150837,156039,9125,-0.234,1.003,0.079,-0.854,0.061,0.61,456.138
150837,156018,13425,-0.235,1.004,0.079,-0.793,0.244,0.671,456.144
150842,156039,9125,-0.237,1.002,0.076,-0.793,0.244,0.671,456.148
150842,156041,13418,-0.233,0.999,0.077,-0.671,0.488,0.366,456.154
150869,156039,9125,-0.234,0.996,0.077,-0.671,0.488,0.366,456.158
150869,156020,13421,-0.237,1,0.074,-0.61,0.549,0.183,456.164
150865,156039,9125,-0.238,1,0.077,-0.61,0.549,0.183,456.168
150865,156022,13412,-0.239,0.998,0.078,-0.366,0.488,0.366,456.174
150869,156039,9125,-0.236,1,0.08,-0.366,0.488,0.366,456.177
150869,156028,13399,-0.238,0.999,0.077,0.061,0.549,0.488,456.184
150858,156039,9125,-0.235,0.997,0.078,0.061,0.549,0.488,456.187
150858,156021,13433,-0.235,1.006,0.076,0.488,0.732,0.549,456.193
150891,156039,9125,-0.235,1.008,0.073,0.488,0.732,0.549,456.197
150891,156034,13409,-0.23,1.004,0.075,0.671,0.915,0.305,456.203
150857,156039,9125,-0.23,1,0.072,0.671,0.915,0.305,456.207
150857,156034,13441,-0.234,0.997,0.076,0.244,0.854,-0.122,456.213
150911,156039,9125,-0.233,0.996,0.074,0.244,0.854,-0.122,456.217
150911,156056,13416,-0.235,0.995,0.072,-0.305,0.671,0,456.223
150884,156039,9125,-0.233,0.995,0.075,-0.305,0.671,0,456.227
150884,156045,13435,-0.233,0.993,0.077,-0.244,0.305,0.122,456.233
150889,156039,9125,-0.235,0.995,0.074,-0.244,0.305,0.122,456.237
150889,156056,13428,-0.236,0.999,0.071,-0.366,0.305,0.366,456.243
150881,156039,9125,-0.237,1,0.077,-0.366,0.305,0.366,456.247
150881,156043,13427,-0.235,1.002,0.08,-0.61,0.244,0.488,456.253
150885,156039,9125,-0.233,1.003,0.073,-0.61,0.244,0.488,456.257
150885,156060,13422,-0.233,1.003,0.074,-0.732,0.305,0.427,456.263
150887,156039,9125,-0.234,1.002,0.075,-0.732,0.305,0.427,456.266
150887,156046,13413,-0.233,1,0.075,-0.793,0.366,0.366,456.273
150886,156039,9125,-0.233,0.998,0.075,-0.793,0.366,0.366,456.276
150886,156046,13417,-0.234,0.999,0.08,-0.732,0.366,0.427,456.283
150891,156039,9125,-0.235,0.998,0.072,-0.732,0.366,0.427,456.286
150891,156045,13411,-0.232,0.998,0.075,-1.037,0.305,0.366,456.292
150884,156039,9125,-0.233,1,0.076,-1.037,0.305,0.366,456.296
150884,156045,13424,-0.234,1.002,0.075,-0.976,0.244,0.427,456.302
150906,156039,9125,-0.234,1.001,0.077,-0.976,0.244,0.427,456.306
150906,156061,13419,-0.236,0.999,0.075,-0.915,0.061,0.488,456.312
150895,156039,9125,-0.233,0.997,0.078,-0.915,0.061,0.488,456.316
150895,156038,13427,-0.234,0.999,0.077,-0.671,0.244,0.305,456.322
150920,156039,9125,-0.236,1.003,0.077,-0.671,0.244,0.305,456.326
150920,156040,13407,-0.236,0.995,0.079,-0.244,0.732,0.122,456.332
150887,156039,9125,-0.232,0.993,0.083,-0.244,0.732,0.122,456.336
150887,156019,13424,-0.231,0.997,0.077,0.305,0.732,0.244,456.342
150895,156039,9125,-0.235,0.999,0.079,0.305,0.732,0.244,456.346
150895,156032,13421,-0.232,0.999,0.079,0.122,0.305,0.488,456.352
150900,156039,9125,-0.234,1,0.075,0.122,0.305,0.488,456.356
150900,156031,13424,-0.231,1.003,0.078,-0.244,0.183,0.488,456.362
150890,156039,9125,-0.236,0.999,0.08,-0.244,0.183,0.488,456.366
150890,156042,13419,-0.233,1,0.076,-0.244,0.488,0.427,456.372
150896,156039,9125,-0.233,1,0.075,-0.244,0.488,0.427,456.375
150896,156022,13432,-0.235,0.999,0.074,0,0.61,0.244,456.382
150900,156039,9125,-0.234,1,0.076,0,0.61,0.244,456.385
150900,156049,13415,-0.23,0.998,0.076,0.061,0.488,0.183,456.391
150905,156039,9125,-0.236,1,0.077,0.061,0.488,0.183,456.395
150905,156050,13427,-0.233,1.002,0.077,-0.122,0.427,0.244,456.401
150885,156039,9125,-0.232,0.996,0.074,-0.122,0.427,0.244,456.405
150885,156027,13417,-0.232,0.998,0.076,0.183,0.305,0.183,456.411
150902,156039,9125,-0.235,1,0.075,0.183,0.305,0.183,456.415
150902,156058,13417,-0.235,1.004,0.076,0.305,0.183,0.305,456.421
150864,156039,9125,-0.234,1.002,0.081,0.305,0.183,0.305,456.425
150864,156026,13410,-0.233,1,0.077,0,0.183,0.305,456.431
150881,156039,9125,-0.233,0.995,0.076,0,0.183,0.305,456.435
150881,156033,13407,-0.232,0.992,0.077,-0.366,0.122,0.244,456.441
150857,156039,9125,-0.233,0.993,0.075,-0.366,0.122,0.244,456.445
150857,156022,13420,-0.235,0.993,0.074,-0.427,0.183,0.305,456.451
150863,156039,9125,-0.235,0.998,0.077,-0.427,0.183,0.305,456.455
150863,156054,13416,-0.235,1,0.077,-0.549,0.183,0.549,456.461
150891,156039,9125,-0.237,1,0.079,-0.549,0.183,0.549,456.464
150891,156047,13429,-0.234,0.999,0.077,-0.61,0.244,0.549,456.471
150913,156039,9125,-0.234,0.999,0.08,-0.61,0.244,0.549,456.474
150913,156073,13423,-0.235,0.999,0.078,-0.366,0.488,0.427,456.481
150888,156039,9125,-0.234,1,0.073,-0.366,0.488,0.427,456.484
150888,156067,13429,-0.233,0.999,0.075,-0.122,0.427,0.366,456.491
150893,156039,9125,-0.231,1.002,0.078,-0.122,0.427,0.366,456.494
150893,156064,13421,-0.23,1.001,0.077,0,0.366,0.427,456.5
150875,156039,9125,-0.232,0.998,0.076,0,0.366,0.427,456.504
150875,156066,13428,-0.234,0.994,0.078,0.122,0.488,0.305,456.51
150887,156039,9125,-0.236,0.997,0.079,0.122,0.488,0.305,456.514
150887,156059,13423,-0.236,1,0.077,0.366,0.61,0.183,456.52
150872,156039,9125,-0.235,1,0.076,0.366,0.61,0.183,456.524
150872,156059,13417,-0.233,1,0.078,0.488,0.671,0.305,456.53
150875,156039,9125,-0.235,1.001,0.075,0.488,0.671,0.305,456.534
150875,156063,13415,-0.234,0.998,0.072,0.122,0.549,0.305,456.54
150872,156039,9125,-0.234,1,0.074,0.122,0.549,0.305,456.544
150872,156053,13426,-0.233,0.998,0.072,0,0.305,0.183,456.55
150874,156039,9125,-0.233,1.001,0.076,0,0.305,0.183,456.554
150874,156060,13435,-0.235,1,0.076,-0.244,0.183,0.305,456.56
150863,156039,9125,-0.235,0.999,0.073,-0.244,0.183,0.305,456.564
150863,156045,13432,-0.234,0.996,0.073,-0.061,0.366,0.305,456.57
150890,156039,9125,-0.233,0.995,0.075,-0.061,0.366,0.305,456.573
150890,156062,13432,-0.233,0.999,0.074,0.305,0.122,0.305,456.58
150864,156039,9125,-0.234,1.004,0.071,0.305,0.122,0.305,456.583
150864,156046,13431,-0.231,1.007,0.074,-0.183,-0.122,0.549,456.589
150860,156039,9125,-0.231,1.007,0.074,-0.183,-0.122,0.549,456.593
150860,156056,13423,-0.229,1.003,0.075,-0.915,-0.122,0.488,456.599
150851,156039,9125,-0.229,1.003,0.075,-0.915,-0.122,0.488,456.603
150851,156033,13428,-0.228,0.998,0.073,-0.915,0.366,0.183,456.609
150846,156039,9125,-0.228,0.998,0.073,-0.915,0.366,0.183,456.613
150846,156027,13418,-0.231,0.999,0.077,-0.488,0.488,0.183,456.619
150846,156039,9125,-0.231,0.999,0.077,-0.488,0.488,0.183,456.623
150846,156036,13423,-0.239,1,0.078,-0.366,0.183,0.427,456.629
150852,156039,9125,-0.239,1,0.078,-0.366,0.183,0.427,456.633
150852,156010,13433,-0.238,0.997,0.076,-0.793,-0.061,0.427,456.639
150846,156039,9125,-0.238,0.997,0.076,-0.793,-0.061,0.427,456.643
150846,156034,13427,-0.239,0.996,0.076,-0.976,-0.183,0.427,456.649
150839,156039,9125,-0.239,0.996,0.076,-0.976,-0.183,0.427,456.653
150839,156027,13424,-0.236,0.996,0.073,-0.732,-0.366,0.549,456.659
150841,156039,9125,-0.236,0.996,0.073,-0.732,-0.366,0.549,456.663
150841,156022,13435,-0.234,0.996,0.081,-0.61,-0.305,0.671,456.669
150833,156039,9125,-0.234,0.996,0.081,-0.61,-0.305,0.671,456.672
150833,156020,13431,-0.235,1.002,0.076,-0.183,0,0.549,456.679
150854,156039,9125,-0.235,1.002,0.076,-0.183,0,0.549,456.682
150854,156034,13436,-0.231,1.006,0.076,0.183,-0.183,0.549,456.689
150853,156039,9125,-0.231,1.006,0.076,0.183,-0.183,0.549,456.692
150853,156044,13444,-0.234,1.009,0.078,-0.183,0,0.427,456.698
150865,156039,9125,-0.234,1.009,0.078,-0.183,0,0.427,456.702
150865,156049,13435,-0.232,0.995,0.069,0.122,0.305,0.061,456.708
150858,156039,9125,-0.232,0.995,0.069,0.122,0.305,0.061,456.712
150858,156024,13433,-0.226,0.955,0.073,3.232,-0.366,0.366,456.718
150844,156039,9125,-0.226,0.955,0.073,3.232,-0.366,0.366,456.722
150844,156024,13439,-0.224,0.99,0.089,6.768,-0.061,2.012,456.728
150852,156039,9125,-0.224,0.99,0.089,6.768,-0.061,2.012,456.732
150852,156021,13433,-0.227,1.031,0.088,6.768,-0.061,2.012,456.738
150823,156039,9125,-0.234,1.056,0.069,7.134,1.707,1.707,456.742
