155248,158889,14532,-0.193,1.005,-0.034,-0.976,0.122,0.488,53.616
155203,158855,9125,-0.192,1.008,-0.027,-0.976,0.122,0.488,53.62
155203,158914,14546,-0.189,1.008,-0.028,-0.793,0,0.366,53.626
155210,158855,9125,-0.187,1.007,-0.024,-0.793,0,0.366,53.63
155210,158895,14552,-0.189,1.009,-0.025,0.122,0.183,0.488,53.636
155225,158855,9125,-0.19,1.013,-0.021,0.122,0.183,0.488,53.64
155225,158886,14544,-0.19,1.01,-0.022,0.366,0.61,0.427,53.646
155218,158855,9125,-0.19,1.009,-0.027,0.366,0.61,0.427,53.65
155218,158887,14564,-0.19,1.01,-0.028,0.183,0.427,0.427,53.656
155232,158855,9125,-0.192,1.013,-0.024,0.183,0.427,0.427,53.66
155232,158905,14539,-0.192,1.012,-0.025,-0.061,-0.061,0.488,53.666
155227,158855,9125,-0.191,1.013,-0.025,-0.061,-0.061,0.488,53.67
155227,158891,14547,-0.193,1.013,-0.026,-0.366,-0.061,0.366,53.676
155222,158855,9125,-0.192,1.01,-0.029,-0.366,-0.061,0.366,53.68
155222,158921,14548,-0.193,1.009,-0.024,-0.244,-0.122,0.244,53.686
155228,158855,9125,-0.192,1.007,-0.023,-0.244,-0.122,0.244,53.689
155228,158917,14544,-0.193,1.008,-0.022,-0.061,-0.061,0.305,53.696
155232,158855,9125,-0.197,1.014,-0.02,-0.061,-0.061,0.305,53.699
155232,158896,14535,-0.197,1.013,-0.024,0.549,0.366,0.366,53.706
155206,158855,9125,-0.197,1.016,-0.023,0.549,0.366,0.366,53.709
155206,158882,14540,-0.197,1.015,-0.021,0.61,0.427,0.183,53.715
155215,158855,9125,-0.198,1.01,-0.027,0.61,0.427,0.183,53.719
155215,158887,14547,-0.198,1.012,-0.032,0.488,0.488,0.122,53.725
155228,158855,9125,-0.2,1.01,-0.027,0.488,0.488,0.122,53.729
155228,158891,14535,-0.195,1.006,-0.022,0,0.732,0,53.735
155210,158855,9125,-0.199,1.003,-0.022,0,0.732,0,53.739
155210,158888,14543,-0.199,1.005,-0.028,0.061,0.793,0.183,53.745
155217,158855,9125,-0.195,1.01,-0.027,0.061,0.793,0.183,53.749
155217,158885,14560,-0.194,1.008,-0.023,0.305,0.976,0.244,53.755
155221,158855,9125,-0.194,1.008,-0.023,0.305,0.976,0.244,53.759
155221,158886,14561,-0.197,1.008,-0.027,0.549,1.098,0.183,53.765
155229,158855,9125,-0.197,1.008,-0.027,0.549,1.098,0.183,53.769
155229,158907,14547,-0.196,1.011,-0.027,0.122,0.854,0.244,53.775
155217,158855,9125,-0.196,1.011,-0.027,0.122,0.854,0.244,53.779
155217,158873,14559,-0.191,1.01,-0.023,0.122,0.549,0.305,53.785
155205,158855,9125,-0.191,1.01,-0.023,0.122,0.549,0.305,53.788
155205,158904,14550,-0.193,1.007,-0.028,0.244,0.671,0.122,53.795
155210,158855,9125,-0.193,1.007,-0.028,0.244,0.671,0.122,53.798
155210,158870,14547,-0.195,1.005,-0.026,0.061,0.793,0,53.805
155193,158855,9125,-0.195,1.005,-0.026,0.061,0.793,0,53.808
155193,158915,14535,-0.195,1.008,-0.032,-0.061,0.305,0.122,53.814
155202,158855,9125,-0.195,1.008,-0.032,-0.061,0.305,0.122,53.818
155202,158877,14539,-0.193,1.008,-0.031,0.244,0,0.366,53.824
155169,158855,9125,-0.193,1.008,-0.031,0.244,0,0.366,53.828
155169,158895,14543,-0.195,1.01,-0.023,0.183,0.427,0.366,53.834
155193,158855,9125,-0.195,1.01,-0.023,0.183,0.427,0.366,53.838
155193,158889,14551,-0.202,1.007,-0.029,0.793,0.854,0.366,53.844
155196,158855,9125,-0.202,1.007,-0.029,0.793,0.854,0.366,53.848
155196,158883,14542,-0.196,1.014,-0.031,0.305,0.732,0.183,53.854
155180,158855,9125,-0.196,1.014,-0.031,0.305,0.732,0.183,53.858
155180,158891,14536,-0.197,1.01,-0.029,-0.122,0.427,0.244,53.864
155205,158855,9125,-0.197,1.01,-0.029,-0.122,0.427,0.244,53.868
155205,158868,14545,-0.198,1.009,-0.029,-0.976,0,0.366,53.874
155204,158855,9125,-0.198,1.009,-0.029,-0.976,0,0.366,53.878
155204,158888,14532,-0.194,0.999,-0.028,-1.28,-0.427,0.244,53.884
155167,158855,9125,-0.194,0.999,-0.028,-1.28,-0.427,0.244,53.887
155167,158881,14541,-0.195,1.006,-0.028,-1.037,-0.305,0.671,53.894
155184,158855,9125,-0.195,1.006,-0.028,-1.037,-0.305,0.671,53.897
155184,158886,14534,-0.195,1.004,-0.031,-1.037,-0.305,0.671,53.904
155163,158855,9125,-0.195,1.002,-0.032,-0.671,-0.183,0.915,53.907
155163,158850,14516,-0.195,1.002,-0.023,-0.671,-0.183,0.915,53.913
155177,158855,9125,-0.191,1.006,-0.021,-0.366,-0.427,0.793,53.917
155177,158855,14544,-0.193,1.013,-0.022,-0.366,-0.427,0.793,53.923
155172,158855,9125,-0.197,1.02,-0.023,-0.122,-0.183,0.915,53.927
155172,158897,14537,-0.197,1.016,-0.032,-0.122,-0.183,0.915,53.933
155168,158855,9125,-0.195,1.014,-0.031,0.305,0.122,0.549,53.937
155168,158848,14534,-0.198,1.016,-0.019,0.305,0.122,0.549,53.943
155176,158855,9125,-0.2,1.014,-0.019,-0.366,0.061,0.366,53.947
155176,158877,14547,-0.197,1.014,-0.025,-0.366,0.061,0.366,53.953
155188,158855,9125,-0.194,1.015,-0.025,-1.037,-0.122,0.427,53.957
155188,158866,14529,-0.191,1.012,-0.026,-1.037,-0.122,0.427,53.963
155179,158855,9125,-0.19,1.009,-0.022,-0.732,-0.122,0.305,53.967
155179,158876,14534,-0.187,1.009,-0.023,-0.732,-0.122,0.305,53.973
155198,158855,9125,-0.191,1.009,-0.013,-0.122,0.244,0.305,53.977
155198,158867,14544,-0.191,1.01,-0.016,-0.122,0.244,0.305,53.983
155167,158855,9125,-0.19,1.011,-0.028,0.366,0.488,0.122,53.986
155167,158863,14535,-0.192,1.012,-0.034,0.366,0.488,0.122,53.993
155165,158855,9125,-0.193,1.015,-0.027,0.488,0.366,0.122,53.996
155165,158867,14529,-0.191,1.014,-0.02,0.488,0.366,0.122,54.003
155183,158855,9125,-0.188,1.009,-0.021,0.305,0.427,0.244,54.006
155183,158870,14535,-0.194,1.005,-0.023,0.305,0.427,0.244,54.012
155171,158855,9125,-0.196,1.007,-0.02,0.061,0.61,0.183,54.016
155171,158867,14520,-0.196,1.009,-0.02,0.061,0.61,0.183,54.022
155178,158855,9125,-0.196,1.009,-0.026,-0.061,0.793,0.122,54.026
155178,158857,14533,-0.192,1.01,-0.029,-0.061,0.793,0.122,54.032
155193,158855,9125,-0.192,1.008,-0.03,0.427,0.793,0.305,54.036
155193,158883,14521,-0.193,1.008,-0.022,0.427,0.793,0.305,54.042
155165,158855,9125,-0.192,1.009,-0.015,0.183,0.854,0.244,54.046
155165,158886,14539,-0.197,1.007,-0.023,0.183,0.854,0.244,54.052
155180,158855,9125,-0.196,1.007,-0.033,0.061,0.915,0.122,54.056
155180,158867,14530,-0.193,1.01,-0.03,0.061,0.915,0.122,54.062
155170,158855,9125,-0.194,1.014,-0.023,0.488,0.732,0.183,54.066
155170,158895,14550,-0.194,1.015,-0.022,0.488,0.732,0.183,54.072
155201,158855,9125,-0.193,1.015,-0.027,1.159,0.915,0.183,54.076
155201,158900,14531,-0.197,1.02,-0.027,1.159,0.915,0.183,54.082
155170,158855,9125,-0.199,1.015,-0.029,0.671,1.28,-0.122,54.085
155170,158879,14531,-0.201,1.007,-0.029,0.671,1.28,-0.122,54.092
155188,158855,9125,-0.198,1.004,-0.03,-0.366,0.671,0,54.095
155188,158883,14538,-0.196,1.006,-0.026,-0.366,0.671,0,54.102
155176,158855,9125,-0.193,1.004,-0.024,-0.915,0.122,0.183,54.105
155176,158883,14531,-0.195,1.001,-0.027,-0.915,0.122,0.183,54.111
155190,158855,9125,-0.197,1.003,-0.029,-0.122,0.61,0.305,54.115
155190,158881,14535,-0.197,1.006,-0.03,-0.122,0.61,0.305,54.121
155196,158855,9125,-0.196,1.007,-0.031,0.793,1.098,0.061,54.125
155196,158898,14542,-0.199,1.009,-0.031,0.793,1.098,0.061,54.131
155193,158855,9125,-0.198,1.01,-0.03,0.61,0.915,0.305,54.135
155193,158912,14553,-0.198,1.009,-0.025,0.61,0.915,0.305,54.141
155187,158855,9125,-0.194,1.005,-0.023,-0.061,0.549,0.488,54.145
155187,158902,14531,-0.192,1.005,-0.028,-0.061,0.549,0.488,54.151
155175,158855,9125,-0.196,1.008,-0.029,-0.671,0.305,0.488,54.155
155175,158899,14536,-0.195,1.009,-0.031,-0.671,0.305,0.488,54.161
155180,158855,9125,-0.192,1.007,-0.031,-0.366,0.183,0.488,54.165
155180,158896,14522,-0.193,1.006,-0.029,-0.366,0.183,0.488,54.171
155187,158855,9125,-0.197,1.013,-0.034,0.183,0.427,0.488,54.175
155187,158910,14546,-0.198,1.01,-0.033,0.183,0.427,0.488,54.181
155177,158855,9125,-0.198,1.011,-0.029,0,0.305,0.305,54.184
155177,158906,14543,-0.198,1.011,-0.023,0,0.305,0.305,54.191
155197,158855,9125,-0.195,1.011,-0.025,-0.854,-0.122,0.671,54.194
155197,158912,14530,-0.193,1.007,-0.034,-0.854,-0.122,0.671,54.201
155211,158855,9125,-0.186,1.008,-0.042,-0.915,-0.427,0.671,54.204
155211,158906,14539,-0.186,1.012,-0.038,-0.915,-0.427,0.671,54.21
155191,158855,9125,-0.189,1.007,-0.029,-0.61,-0.122,0.427,54.214
155191,158902,14550,-0.194,1.006,-0.025,-0.61,-0.122,0.427,54.22
155211,158855,9125,-0.203,1.006,-0.023,-0.244,0.122,0.488,54.224
155211,158917,14545,-0.202,1.01,-0.027,-0.244,0.122,0.488,54.23
155219,158855,9125,-0.203,1.011,-0.026,-0.061,0.244,0.244,54.234
155219,158910,14557,-0.201,1.009,-0.031,-0.061,0.244,0.244,54.24
155218,158855,9125,-0.198,1.011,-0.027,0.305,0.305,0.427,54.244
155218,158914,14554,-0.194,1.013,-0.025,0.305,0.305,0.427,54.25
155195,158855,9125,-0.194,1.012,-0.021,0,0.122,0.549,54.254
155195,158921,14544,-0.195,1.013,-0.025,0,0.122,0.549,54.26
155208,158855,9125,-0.194,1.009,-0.024,-0.854,-0.122,0.549,54.264
155208,158905,14540,-0.192,1.004,-0.028,-0.854,-0.122,0.549,54.27
155219,158855,9125,-0.193,1.006,-0.029,-1.22,-0.549,0.549,54.274
155219,158924,14535,-0.191,1.002,-0.029,-1.22,-0.549,0.549,54.28
155205,158855,9125,-0.19,0.998,-0.033,-1.098,-0.732,0.488,54.283
155205,158912,14545,-0.19,1.003,-0.028,-1.098,-0.732,0.488,54.29
155198,158855,9125,-0.19,1.011,-0.024,-1.037,-0.549,0.549,54.293
155198,158924,14552,-0.19,1.008,-0.023,-1.037,-0.549,0.549,54.3
155225,158855,9125,-0.187,1.008,-0.027,-0.305,-0.427,0.549,54.303
155225,158923,14548,-0.187,1.011,-0.026,-0.305,-0.427,0.549,54.309
155217,158855,9125,-0.187,1.013,-0.024,0.305,-0.183,0.61,54.313
155217,158932,14539,-0.19,1.011,-0.024,0.305,-0.183,0.61,54.319
155184,158855,9125,-0.193,1.011,-0.021,0.061,0.427,0.427,54.323
155184,158900,14554,-0.197,1.015,-0.025,0.061,0.427,0.427,54.329
155210,158855,9125,-0.197,1.012,-0.024,-0.671,0.244,0.549,54.333
155210,158941,14548,-0.193,1.005,-0.023,-0.671,0.244,0.549,54.339
155222,158855,9125,-0.193,1.005,-0.023,-0.671,0.244,0.549,54.343
155222,158925,14563,-0.197,1.012,-0.021,-0.305,-0.366,0.488,54.349
155242,158855,9125,-0.197,1.012,-0.021,-0.305,-0.366,0.488,54.353
155242,158950,14557,-0.196,1.006,-0.032,-0.305,-0.061,0.305,54.359
155242,158855,9125,-0.196,1.006,-0.032,-0.305,-0.061,0.305,54.363
155242,158928,14556,-0.198,1.01,-0.019,-0.122,0,0.305,54.369
155243,158855,9125,-0.198,1.01,-0.019,-0.122,0,0.305,54.373
155243,158934,14557,-0.196,1.009,-0.02,0,0,0.427,54.379
155241,158855,9125,-0.196,1.009,-0.02,0,0,0.427,54.382
155241,158915,14557,-0.196,1.01,-0.023,-0.305,0.061,0.488,54.389
155227,158855,9125,-0.196,1.01,-0.023,-0.305,0.061,0.488,54.392
155227,158921,14567,-0.197,1.008,-0.02,-0.854,0.061,0.488,54.398
155243,158855,9125,-0.197,1.008,-0.02,-0.854,0.061,0.488,54.402
155243,158922,14559,-0.192,1.01,-0.027,-0.427,0.122,0.488,54.408
155212,158855,9125,-0.192,1.01,-0.027,-0.427,0.122,0.488,54.412
155212,158941,14550,-0.196,1.012,-0.022,0.061,0.61,0.549,54.418
155204,158855,9125,-0.196,1.012,-0.022,0.061,0.61,0.549,54.422
155204,158941,14542,-0.194,1.017,-0.027,0.366,0.854,0.366,54.428
155174,158855,9125,-0.194,1.017,-0.027,0.366,0.854,0.366,54.432
155174,158939,14549,-0.196,1.01,-0.03,-0.122,0.793,0.366,54.438
155182,158855,9125,-0.196,1.01,-0.03,-0.122,0.793,0.366,54.442
155182,158938,14560,-0.192,1.008,-0.038,-0.305,0.488,0.305,54.448
155202,158855,9125,-0.192,1.008,-0.038,-0.305,0.488,0.305,54.452
155202,158908,14565,-0.19,1,-0.027,-0.549,0.305,0.183,54.458
155211,158855,9125,-0.19,1,-0.027,-0.549,0.305,0.183,54.462
155211,158931,14557,-0.188,1.013,-0.032,-0.183,0.122,0.305,54.468
155195,158855,9125,-0.188,1.013,-0.032,-0.183,0.122,0.305,54.472
155195,158931,14564,-0.188,1.011,-0.029,0.061,0.122,0.183,54.478
155234,158855,9125,-0.188,1.011,-0.029,0.061,0.122,0.183,54.481
155234,158959,14553,-0.193,1.014,-0.029,0.488,0.244,0.122,54.488
155222,158855,9125,-0.195,1.01,-0.025,0.488,0.244,0.122,54.491
155222,158932,14564,-0.195,1.007,-0.02,0.427,0.366,0.244,54.498
155218,158855,9125,-0.191,1.008,-0.022,0.427,0.366,0.244,54.501
155218,158935,14559,-0.194,1.009,-0.023,0.122,0.488,0.183,54.507
155213,158855,9125,-0.196,1.006,-0.02,0.122,0.488,0.183,54.511
155213,158932,14558,-0.198,1.003,-0.016,-0.122,0.61,0.366,54.517
155223,158855,9125,-0.199,1.007,-0.025,-0.122,0.61,0.366,54.521
155223,158958,14570,-0.196,1.01,-0.025,0,0.61,0.305,54.527
155224,158855,9125,-0.196,1.007,-0.026,0,0.61,0.305,54.531
155224,158913,14551,-0.195,1.007,-0.024,0.488,0.793,0.305,54.537
155214,158855,9125,-0.193,1.015,-0.021,0.488,0.793,0.305,54.541
155214,158955,14572,-0.197,1.015,-0.025,0.549,0.915,0.366,54.547
155243,158855,9125,-0.199,1.009,-0.028,0.549,0.915,0.366,54.551
155243,158938,14566,-0.198,1.004,-0.027,0.183,0.61,0.305,54.557
155244,158855,9125,-0.198,1.006,-0.024,0.183,0.61,0.305,54.561
155244,158971,14577,-0.2,1.011,-0.025,-0.61,0.366,0.427,54.567
155235,158855,9125,-0.196,1.009,-0.027,-0.61,0.366,0.427,54.571
155235,158960,14572,-0.193,1.005,-0.028,-0.671,0.061,0.488,54.577
155233,158855,9125,-0.194,1.009,-0.028,-0.671,0.061,0.488,54.58
155233,158969,14570,-0.194,1.012,-0.031,-0.122,0.183,0.366,54.587
155259,159111,9125,-0.193,1.014,-0.035,-0.122,0.183,0.366,54.59
155259,158987,14572,-0.189,1.014,-0.026,-0.122,0.366,0.244,54.596
155243,158855,9125,-0.192,1.011,-0.016,-0.122,0.366,0.244,54.6
155243,158961,14565,-0.192,1.01,-0.021,-0.183,0.244,0.427,54.606
155241,158855,9125,-0.198,1.013,-0.03,-0.183,0.244,0.427,54.61
155241,158945,14565,-0.195,1.012,-0.029,-0.366,0.305,0.366,54.616
155246,158855,9125,-0.191,1.007,-0.025,-0.366,0.305,0.366,54.62
155246,158949,14588,-0.189,1.006,-0.027,0,0.366,0.244,54.626
155265,158855,9125,-0.189,1.011,-0.029,0,0.366,0.244,54.63
155265,158968,14568,-0.195,1.011,-0.028,0.061,0.61,0.427,54.636
155249,158855,9125,-0.194,1.007,-0.024,0.061,0.61,0.427,54.64
155249,158950,14585,-0.194,1.006,-0.024,0.305,0.671,0.244,54.646
155248,158855,9125,-0.196,1.004,-0.031,0.305,0.671,0.244,54.65
155248,158958,14559,-0.199,1.009,-0.029,0.366,0.488,0.427,54.656
155230,158855,9125,-0.198,1.006,-0.027,0.366,0.488,0.427,54.66
155230,158927,14580,-0.194,1.006,-0.021,0.183,0.305,0.549,54.666
155249,158855,9125,-0.198,1.01,-0.024,0.183,0.305,0.549,54.669
155249,158948,14557,-0.199,1.009,-0.027,-0.305,0.244,0.549,54.676
155247,158855,9125,-0.196,1.007,-0.021,-0.305,0.244,0.549,54.679
155247,158934,14563,-0.2,1.006,-0.019,-0.427,0.244,0.549,54.686
155264,158855,9125,-0.2,1.004,-0.02,-0.427,0.244,0.549,54.689
155264,158959,14563,-0.199,1.007,-0.029,0,0.427,0.488,54.695
155252,158855,9125,-0.195,1.015,-0.03,0,0.427,0.488,54.699
155252,158946,14574,-0.195,1.013,-0.025,0.061,0.671,0.427,54.705
155275,158855,9125,-0.195,1.011,-0.024,0.061,0.671,0.427,54.709
155275,158945,14571,-0.197,1.017,-0.034,-0.244,0.671,0.427,54.715
155264,158855,9125,-0.191,1.018,-0.035,-0.244,0.671,0.427,54.719
155264,158930,14573,-0.191,1.013,-0.028,-0.183,0.427,0.122,54.725
155236,158855,9125,-0.192,1.007,-0.027,-0.183,0.427,0.122,54.729
155236,158949,14552,-0.189,1.009,-0.031,0,0.427,-0.061,54.735
155259,158855,9125,-0.19,1.012,-0.032,0,0.427,-0.061,54.739
155259,158915,14564,-0.192,1.01,-0.03,-0.122,0.366,0,54.745
155243,158855,9125,-0.19,1.007,-0.025,-0.122,0.366,0,54.749
155243,158913,14561,-0.19,1.008,-0.025,0,0,0.061,54.755
155269,158855,9125,-0.193,1.013,-0.026,0,0,0.061,54.759
155269,158928,14560,-0.193,1.01,-0.029,-0.366,0.122,0.183,54.765
155242,158855,9125,-0.196,1.004,-0.03,-0.366,0.122,0.183,54.768
155242,158933,14554,-0.193,1.005,-0.032,-0.854,0.061,0.244,54.775
155258,158855,9125,-0.193,1.005,-0.032,-0.854,0.061,0.244,54.778
155258,158949,14560,-0.192,1.002,-0.034,-1.28,-0.244,0.366,54.785
155218,158855,9125,-0.191,1.002,-0.026,-1.28,-0.244,0.366,54.788
155218,158913,14556,-0.189,1.006,-0.027,-1.341,-0.305,0.671,54.794
155240,158855,9125,-0.195,1.009,-0.023,-1.341,-0.305,0.671,54.798
155240,158930,14548,-0.194,1.009,-0.025,-0.671,0,0.61,54.804
155236,158855,9125,-0.197,1.005,-0.026,-0.671,0,0.61,54.808
155236,158914,14555,-0.201,1.01,-0.024,-0.244,0.122,0.549,54.814
155234,158855,9125,-0.199,1.019,-0.023,-0.244,0.122,0.549,54.818
155234,158926,14536,-0.196,1.013,-0.021,-0.671,0,0.61,54.824
155250,158855,9125,-0.196,1.01,-0.016,-0.671,0,0.61,54.828
155250,158917,14553,-0.198,1.011,-0.021,-0.976,0.122,0.61,54.834
155221,158855,9125,-0.198,1.011,-0.024,-0.976,0.122,0.61,54.838
155221,158897,14546,-0.198,1.013,-0.026,-0.976,0.427,0.549,54.844
155221,158855,9125,-0.196,1.016,-0.026,-0.976,0.427,0.549,54.848
155221,158907,14555,-0.198,1.016,-0.023,-0.305,0.488,0.244,54.854
155232,158855,9125,-0.198,1.014,-0.025,-0.305,0.488,0.244,54.858
155232,158904,14544,-0.196,1.017,-0.03,-0.122,0.549,0.122,54.864
155238,158855,9125,-0.198,1.02,-0.035,-0.122,0.549,0.122,54.867
155238,158914,14548,-0.194,1.015,-0.029,-0.671,0.427,-0.183,54.874
155214,158855,9125,-0.195,1.01,-0.023,-0.671,0.427,-0.183,54.877
155214,158891,14540,-0.193,1.007,-0.025,-0.244,0.244,-0.061,54.884
155239,158855,9125,-0.194,1.009,-0.029,-0.244,0.244,-0.061,54.887
155239,158911,14572,-0.192,1.01,-0.024,0.122,0.488,-0.122,54.893
155251,158855,9125,-0.193,1.009,-0.027,0.122,0.488,-0.122,54.897
155251,158912,14554,-0.196,1.005,-0.03,0.183,0.793,-0.305,54.903
155221,158855,9125,-0.193,1.01,-0.03,0.183,0.793,-0.305,54.907
155221,158916,14549,-0.192,1.001,-0.027,-0.244,0.61,-0.122,54.913
155228,158855,9125,-0.192,1.001,-0.027,-0.244,0.61,-0.122,54.917
155228,158907,14541,-0.192,1.005,-0.029,-0.61,0.427,0.183,54.923
155233,158855,9125,-0.192,1.005,-0.029,-0.61,0.427,0.183,54.927
155233,158900,14543,-0.192,1.005,-0.02,-0.732,0.61,0.305,54.933
155226,158855,9125,-0.192,1.005,-0.02,-0.732,0.61,0.305,54.937
155226,158896,14555,-0.193,1.017,-0.024,-0.427,0.549,0.305,54.943
155226,158855,9125,-0.193,1.017,-0.024,-0.427,0.549,0.305,54.947
155226,158902,14546,-0.192,1.01,-0.025,-0.366,0.732,0.244,54.953
155200,158855,9125,-0.192,1.01,-0.025,-0.366,0.732,0.244,54.957
155200,158906,14548,-0.196,1.012,-0.022,-0.732,0.793,0.122,54.963
155222,158855,9125,-0.196,1.012,-0.022,-0.732,0.793,0.122,54.966
155222,158905,14543,-0.196,1.006,-0.024,-0.793,0.427,0,54.973
155219,158855,9125,-0.196,1.006,-0.024,-0.793,0.427,0,54.976
155219,158909,14552,-0.193,1.005,-0.019,-0.488,0.305,0.061,54.983
155243,158855,9125,-0.193,1.005,-0.019,-0.488,0.305,0.061,54.986
155243,158899,14544,-0.195,1.005,-0.029,-0.244,0.61,0.366,54.992
155224,158855,9125,-0.195,1.005,-0.029,-0.244,0.61,0.366,54.996
155224,158942,14560,-0.194,1.004,-0.024,-0.122,0.671,0.366,55.002
155229,158855,9125,-0.194,1.004,-0.024,-0.122,0.671,0.366,55.006
155229,158925,14553,-0.194,1.009,-0.023,-0.183,0.488,0.61,55.012
155256,158855,9125,-0.194,1.009,-0.023,-0.183,0.488,0.61,55.016
155256,158930,14544,-0.194,1.008,-0.021,-0.183,0.671,0.671,55.022
155254,158855,9125,-0.194,1.008,-0.021,-0.183,0.671,0.671,55.026
155254,158931,14548,-0.199,1.018,-0.026,-0.671,0.854,0.427,55.032
155236,158855,9125,-0.199,1.018,-0.026,-0.671,0.854,0.427,55.036
155236,158932,14549,-0.193,1.012,-0.034,-0.488,0.366,0.244,55.042
155271,158855,9125,-0.193,1.012,-0.034,-0.488,0.366,0.244,55.046
155271,158935,14551,-0.193,1.015,-0.024,0.183,0.305,0.183,55.052
155256,158855,9125,-0.193,1.015,-0.024,0.183,0.305,0.183,55.056
155256,158929,14563,-0.196,1.011,-0.024,0.183,0.305,0.183,55.062
155265,158855,9125,-0.194,1.007,-0.028,0.732,0.671,0.061,55.065
155265,158929,14541,-0.198,1.011,-0.028,0.732,0.671,0.061,55.072
155242,158855,9125,-0.197,1.01,-0.033,0.793,0.793,0.061,55.075
155242,158927,14547,-0.195,1.008,-0.03,0.793,0.793,0.061,55.082
155262,158855,9125,-0.195,1.012,-0.026,0.915,0.427,0.122,55.085
155262,158925,14557,-0.194,1.004,-0.032,0.915,0.427,0.122,55.091
155250,158855,9125,-0.193,1.002,-0.031,0.061,0.305,0.305,55.095
155250,158912,14554,-0.197,1.002,-0.032,0.061,0.305,0.305,55.101
155247,158855,9125,-0.196,1.001,-0.035,-0.793,0.183,0.366,55.105
155247,158929,14547,-0.195,1.004,-0.031,-0.793,0.183,0.366,55.111
155269,158855,9125,-0.193,1.003,-0.03,-0.61,-0.183,0.366,55.115
155269,158942,14555,-0.195,1.006,-0.03,-0.61,-0.183,0.366,55.121
155273,158855,9125,-0.193,1.011,-0.029,0.305,-0.061,0.549,55.125
155273,158945,14548,-0.194,1.016,-0.026,0.305,-0.061,0.549,55.131
155260,158855,9125,-0.195,1.017,-0.017,0.488,0.366,0.305,55.135
155260,158919,14565,-0.199,1.013,-0.017,0.488,0.366,0.305,55.141
155285,158855,9125,-0.199,1.01,-0.026,0.061,0.427,0.183,55.145
155285,158945,14558,-0.199,1.009,-0.022,0.061,0.427,0.183,55.151
155246,158855,9125,-0.196,1.007,-0.019,-0.793,-0.183,0.244,55.155
155246,158927,14546,-0.196,1.011,-0.017,-0.793,-0.183,0.244,55.161
155241,158855,9125,-0.192,1.011,-0.017,-0.671,-0.488,0.488,55.164
155241,158910,14550,-0.194,1.005,-0.021,-0.671,-0.488,0.488,55.171
155252,158855,9125,-0.195,1.011,-0.023,0.122,0.244,0.366,55.174
155252,158925,14557,-0.193,1.015,-0.027,0.122,0.244,0.366,55.181
155273,158855,9125,-0.197,1.011,-0.024,-0.183,0.732,-0.122,55.184
155273,158939,14543,-0.197,1.008,-0.024,-0.183,0.732,-0.122,55.19
155261,158855,9125,-0.196,1.006,-0.031,-0.915,0.244,0.244,55.194
155261,158947,14554,-0.194,1.005,-0.031,-0.915,0.244,0.244,55.2
155282,158855,9125,-0.194,1.003,-0.027,-0.854,-0.122,0.366,55.204
155282,158953,14542,-0.191,1.003,-0.028,-0.854,-0.122,0.366,55.21
155247,158855,9125,-0.193,1.003,-0.029,-0.061,0.305,0.244,55.214
155247,158942,14568,-0.199,1.006,-0.021,-0.061,0.305,0.244,55.22
155244,158855,9125,-0.198,1.011,-0.019,0.427,0.549,0.61,55.224
155244,158959,14557,-0.196,1.016,-0.017,0.427,0.549,0.61,55.23
155256,158855,9125,-0.191,1.017,-0.019,0.183,0.427,0.549,55.234
155256,158931,14557,-0.192,1.016,-0.026,0.183,0.427,0.549,55.24
155236,158855,9125,-0.188,1.016,-0.032,-0.549,0.427,0.488,55.244
155236,158945,14550,-0.189,1.015,-0.034,-0.549,0.427,0.488,55.25
155241,158855,9125,-0.189,1.013,-0.032,-1.098,0.305,0.671,55.254
155241,158932,14547,-0.192,1.013,-0.028,-1.098,0.305,0.671,55.26
155215,158855,9125,-0.198,1.013,-0.024,-0.793,0.427,0.183,55.263
155215,158920,14566,-0.2,1.008,-0.023,-0.793,0.427,0.183,55.27
155244,158855,9125,-0.206,1.007,-0.029,0.366,0.854,-0.244,55.273
155244,158908,14551,-0.205,1.01,-0.036,0.366,0.854,-0.244,55.28
155206,158855,9125,-0.201,1.011,-0.03,0.305,0.61,-0.244,55.283
155206,158894,14552,-0.197,1.007,-0.028,0.305,0.61,-0.244,55.289
155212,158855,9125,-0.196,1,-0.028,-0.244,0.061,0.122,55.293
155212,158880,14549,-0.195,0.998,-0.019,-0.244,0.061,0.122,55.299
155201,158855,9125,-0.194,1,-0.022,-0.427,0.183,0.549,55.303
155201,158903,14566,-0.196,1.004,-0.025,-0.427,0.183,0.549,55.309
155200,158855,9125,-0.191,1.004,-0.029,0.183,0.793,0.488,55.313
155200,158899,14546,-0.191,1.008,-0.032,0.183,0.793,0.488,55.319
155209,158855,9125,-0.193,1.014,-0.027,0.671,0.915,0.244,55.323
155209,158918,14560,-0.198,1.012,-0.024,0.671,0.915,0.244,55.329
155223,158855,9125,-0.202,1.009,-0.026,0.122,0.732,0.305,55.333
155223,158907,14544,-0.196,1.012,-0.031,0.122,0.732,0.305,55.339
155219,158855,9125,-0.19,1.015,-0.034,-0.793,0.244,0.366,55.343
155219,158894,14571,-0.188,1.008,-0.035,-0.793,0.244,0.366,55.349
155229,158855,9125,-0.193,1.008,-0.024,-0.732,0.061,0.305,55.353
155229,158934,14559,-0.191,1.011,-0.023,-0.732,0.061,0.305,55.359
155210,158855,9125,-0.194,1.007,-0.024,-0.61,0.366,0.183,55.362
155210,158908,14567,-0.197,1.007,-0.031,-0.61,0.366,0.183,55.369
155204,158855,9125,-0.194,1.009,-0.032,-0.61,0.244,0.061,55.372
155204,158920,14565,-0.192,1.008,-0.029,-0.61,0.244,0.061,55.379
155221,158855,9125,-0.192,1.01,-0.027,-0.183,0.183,0.305,55.382
155221,158904,14568,-0.194,1.005,-0.022,-0.183,0.183,0.305,55.388
155212,158855,9125,-0.196,1.005,-0.02,0.122,0.488,0.427,55.392
155212,158897,14560,-0.201,1.007,-0.023,0.122,0.488,0.427,55.398
155239,158855,9125,-0.201,1.009,-0.023,-0.183,0.488,0.305,55.402
155239,158953,14558,-0.198,1.005,-0.024,-0.183,0.488,0.305,55.408
155234,158855,9125,-0.198,1.006,-0.03,-0.427,0,0.427,55.412
155234,158935,14564,-0.199,1.006,-0.029,-0.427,0,0.427,55.418
155225,158855,9125,-0.197,1.007,-0.03,-0.915,-0.122,0.549,55.422
155225,158955,14557,-0.198,1.005,-0.024,-0.915,-0.122,0.549,55.428
155247,158855,9125,-0.195,1.004,-0.021,-0.854,0,0.61,55.432
155247,158951,14551,-0.193,1.004,-0.02,-0.854,0,0.61,55.438
155233,158855,9125,-0.193,1.01,-0.019,-0.671,0.061,0.671,55.442
155233,158957,14558,-0.194,1.006,-0.023,-0.671,0.061,0.671,55.448
155224,158855,9125,-0.196,1.007,-0.024,-0.061,0.366,0.732,55.452
155224,158935,14554,-0.193,1.018,-0.022,-0.061,0.366,0.732,55.458
155229,158855,9125,-0.191,1.022,-0.027,0.122,0.854,0.732,55.461
155229,158925,14562,-0.193,1.016,-0.027,0.122,0.854,0.732,55.468
155206,158855,9125,-0.195,1.012,-0.027,0.061,0.793,0.61,55.471
155206,158924,14556,-0.195,1.01,-0.026,0.061,0.793,0.61,55.477
155212,158855,9125,-0.192,1.011,-0.026,-0.366,0.61,0.427,55.481
155212,158944,14573,-0.195,1.012,-0.028,-0.366,0.61,0.427,55.487
155212,158855,9125,-0.195,1.014,-0.029,-0.549,0.244,0.488,55.491
155212,158924,14562,-0.19,1.01,-0.032,-0.549,0.244,0.488,55.497
155200,158855,9125,-0.19,1.01,-0.032,-0.549,0.244,0.488,55.501
155200,158950,14568,-0.191,1.01,-0.029,-0.366,-0.122,0.305,55.507
155225,158855,9125,-0.191,1.01,-0.029,-0.366,-0.122,0.305,55.511
155225,158909,14558,-0.192,1.008,-0.027,-0.305,0.122,0.244,55.517
155205,158855,9125,-0.192,1.008,-0.027,-0.305,0.122,0.244,55.521
155205,158915,14563,-0.196,1.008,-0.011,-0.061,0.305,0.305,55.527
155214,158855,9125,-0.196,1.008,-0.011,-0.061,0.305,0.305,55.531
155214,158925,14555,-0.198,1.005,-0.024,0.366,0.427,0.427,55.537
155183,158855,9125,-0.198,1.005,-0.024,0.366,0.427,0.427,55.541
155183,158898,14569,-0.195,1.013,-0.035,0.183,0.549,0.244,55.547
155191,158855,9125,-0.195,1.013,-0.035,0.183,0.549,0.244,55.551
155191,158906,14570,-0.195,1.007,-0.025,-0.244,0.244,0.244,55.557
155187,158855,9125,-0.195,1.007,-0.025,-0.244,0.244,0.244,55.56
155187,158879,14559,-0.201,1.013,-0.021,-0.793,0.183,0.366,55.567
155168,158855,9125,-0.201,1.013,-0.021,-0.793,0.183,0.366,55.57
155168,158907,14551,-0.197,1.009,-0.017,-0.488,0.427,0.183,55.577
155170,158855,9125,-0.197,1.009,-0.017,-0.488,0.427,0.183,55.58
155170,158890,14563,-0.197,1.019,-0.029,0.671,0.61,0,55.586
155196,158855,9125,-0.197,1.019,-0.029,0.671,0.61,0,55.59
155196,158896,14563,-0.196,1.01,-0.02,0.732,0.915,-0.122,55.596
155180,158855,9125,-0.196,1.01,-0.02,0.732,0.915,-0.122,55.6
155180,158923,14558,-0.2,1.006,-0.021,-0.183,0.549,-0.122,55.606
155192,158855,9125,-0.2,1.006,-0.021,-0.183,0.549,-0.122,55.61
155192,158899,14542,-0.197,1.002,-0.025,-0.732,0.244,-0.183,55.616
155184,158855,9125,-0.197,1.002,-0.025,-0.732,0.244,-0.183,55.62
155184,158911,14570,-0.19,1.007,-0.03,-0.366,0.366,0,55.626
155183,158855,9125,-0.19,1.007,-0.03,-0.366,0.366,0,55.63
155183,158917,14550,-0.196,1.006,-0.022,-0.122,0.549,0.061,55.636
155176,158855,9125,-0.196,1.006,-0.022,-0.122,0.549,0.061,55.64
155176,158908,14556,-0.195,1.001,-0.024,-0.427,0.671,0.305,55.646
155178,158855,9125,-0.193,0.998,-0.028,-0.427,0.671,0.305,55.65
155178,158910,14558,-0.192,1.004,-0.028,-0.732,0.549,0.549,55.656
155175,158855,9125,-0.191,1.005,-0.028,-0.732,0.549,0.549,55.659
155175,158909,14559,-0.19,1.004,-0.03,-0.549,0.488,0.671,55.666
155153,158855,9125,-0.191,1.007,-0.031,-0.549,0.488,0.671,55.669
155153,158915,14553,-0.191,1.012,-0.027,-0.244,0.61,0.793,55.676
155192,158855,9125,-0.192,1.013,-0.024,-0.244,0.61,0.793,55.679
155192,158912,14557,-0.193,1.009,-0.019,0,0.549,0.549,55.685
155178,158855,9125,-0.196,1.01,-0.021,0,0.549,0.549,55.689
155178,158879,14556,-0.198,1.013,-0.026,-0.061,0.671,0.549,55.695
155160,158855,9125,-0.2,1.015,-0.023,-0.061,0.671,0.549,55.699
155160,158909,14563,-0.198,1.014,-0.023,0.183,0.793,0.488,55.705
155187,158855,9125,-0.197,1.017,-0.028,0.183,0.793,0.488,55.709
155187,158883,14554,-0.196,1.018,-0.027,0,0.732,0.427,55.715
155189,158855,9125,-0.2,1.014,-0.026,0,0.732,0.427,55.719
155189,158859,14535,-0.201,1.011,-0.019,-0.244,0.671,0.549,55.725
155178,158855,9125,-0.203,1.009,-0.025,-0.244,0.671,0.549,55.729
155178,158868,14558,-0.205,1.008,-0.028,-0.427,0.61,0.305,55.735
155192,158855,9125,-0.203,1.004,-0.031,-0.427,0.61,0.305,55.739
155192,158871,14550,-0.198,1.002,-0.032,-0.244,0.427,0.061,55.745
155194,158855,9125,-0.195,1.007,-0.032,-0.244,0.427,0.061,55.749
155194,158877,14549,-0.193,1.013,-0.027,-0.122,0.427,0.183,55.755
155184,158855,9125,-0.196,1.007,-0.021,-0.122,0.427,0.183,55.758
155184,158866,14546,-0.196,1.005,-0.019,-0.122,0.732,0.244,55.765
155215,158855,9125,-0.198,1.005,-0.021,-0.122,0.732,0.244,55.768
155215,158876,14551,-0.198,1.008,-0.03,-0.061,0.854,0.183,55.774
155199,158855,9125,-0.194,1.008,-0.035,-0.061,0.854,0.183,55.778
155199,158868,14519,-0.19,1.01,-0.031,-0.061,0.61,-0.061,55.784
155205,158855,9125,-0.189,1.008,-0.022,-0.061,0.61,-0.061,55.788
155205,158881,14545,-0.192,1.006,-0.022,-0.061,0.366,0.366,55.794
155215,158855,9125,-0.189,1.004,-0.024,-0.061,0.366,0.366,55.798
155215,158897,14544,-0.192,1.005,-0.027,-0.183,0.488,0.366,55.804
155213,158855,9125,-0.191,0.998,-0.029,-0.183,0.488,0.366,55.808
155213,158880,14556,-0.194,1,-0.027,0.305,0.671,0.305,55.814
155217,158855,9125,-0.194,1.008,-0.03,0.305,0.671,0.305,55.818
155217,158907,14552,-0.19,1.005,-0.03,0.549,0.732,0.427,55.824
155218,158855,9125,-0.189,1.007,-0.022,0.549,0.732,0.427,55.828
155218,158913,14546,-0.194,1.013,-0.022,0.549,0.671,0.549,55.834
155216,158855,9125,-0.195,1.013,-0.025,0.549,0.671,0.549,55.838
155216,158875,14543,-0.195,1.008,-0.026,-0.122,0.427,0.488,55.844
155216,158855,9125,-0.197,1.006,-0.023,-0.122,0.427,0.488,55.848
155216,158893,14543,-0.193,1.01,-0.029,-0.61,0.122,0.488,55.854
155228,158855,9125,-0.194,1.01,-0.026,-0.61,0.122,0.488,55.857
155228,158903,14546,-0.194,1.006,-0.023,-0.732,0.061,0.549,55.864
155258,158855,9125,-0.196,1.011,-0.022,-0.732,0.061,0.549,55.867
155258,158909,14548,-0.195,1.014,-0.027,-0.366,0.183,0.549,55.874
155220,158855,9125,-0.199,1.01,-0.028,-0.366,0.183,0.549,55.877
155220,158919,14533,-0.201,1.012,-0.028,0.122,0.488,0.427,55.883
155226,158855,9125,-0.203,1.015,-0.03,0.122,0.488,0.427,55.887
155226,158906,14543,-0.201,1.014,-0.028,0.183,0.549,0.427,55.893
155214,158855,9125,-0.201,1.012,-0.024,0.183,0.549,0.427,55.897
155214,158926,14538,-0.198,1.011,-0.025,-0.183,0.366,0.366,55.903
155225,158855,9125,-0.197,1.011,-0.024,-0.183,0.366,0.366,55.907
155225,158910,14530,-0.199,1.01,-0.026,-0.915,0.244,0.183,55.913
155192,158855,9125,-0.197,1.009,-0.03,-0.915,0.244,0.183,55.917
155192,158888,14546,-0.194,1.006,-0.031,-0.793,0.061,0.183,55.923
155214,158855,9125,-0.197,1.007,-0.031,-0.793,0.061,0.183,55.927
155214,158878,14521,-0.195,1.007,-0.028,-0.366,0.244,0.244,55.933
155195,158855,9125,-0.197,1.008,-0.024,-0.366,0.244,0.244,55.937
155195,158906,14534,-0.197,1.009,-0.026,0,0.427,0.244,55.943
155221,158855,9125,-0.197,1.004,-0.027,0,0.427,0.244,55.947
155221,158887,14533,-0.197,1.005,-0.024,-0.122,0.427,0.244,55.953
155218,158855,9125,-0.196,1.008,-0.028,-0.122,0.427,0.244,55.956
155218,158876,14538,-0.192,1.006,-0.03,-0.305,0.366,0.488,55.963
155219,158855,9125,-0.193,1.005,-0.028,-0.305,0.366,0.488,55.966
155219,158926,14529,-0.193,1.006,-0.031,-0.244,0.305,0.549,55.972
155208,158855,9125,-0.192,1.009,-0.028,-0.244,0.305,0.549,55.976
155208,158897,14533,-0.195,1.01,-0.024,-0.183,0.366,0.488,55.982
155207,158855,9125,-0.196,1.011,-0.026,-0.183,0.366,0.488,55.986
155207,158876,14555,-0.196,1.01,-0.025,0,0.305,0.488,55.992
155216,158855,9125,-0.196,1.012,-0.025,0,0.305,0.488,55.996
155216,158899,14541,-0.195,1.013,-0.02,-0.122,0.244,0.427,56.002
155198,158855,9125,-0.194,1.008,-0.016,-0.122,0.244,0.427,56.006
155198,158869,14528,-0.196,1.012,-0.025,-0.122,0.305,0.488,56.012
155199,158855,9125,-0.198,1.011,-0.032,-0.122,0.305,0.488,56.016
155199,158875,14530,-0.195,1.012,-0.03,-0.244,0.366,0.366,56.022
155206,158855,9125,-0.193,1.013,-0.02,-0.244,0.366,0.366,56.026
155206,158899,14541,-0.195,1.011,-0.023,-0.305,0.305,0.427,56.032
155208,158855,9125,-0.197,1.007,-0.026,-0.305,0.305,0.427,56.036
155208,158880,14537,-0.198,1.008,-0.024,-0.61,0.305,0.244,56.042
155202,158855,9125,-0.198,1.005,-0.03,-0.61,0.305,0.244,56.046
155202,158904,14528,-0.197,1.004,-0.034,-0.671,0.244,0.183,56.052
155223,158855,9125,-0.194,1.007,-0.031,-0.671,0.244,0.183,56.055
155223,158888,14529,-0.19,1.012,-0.03,-0.244,0.305,0.427,56.062
155184,158855,9125,-0.194,1.012,-0.022,-0.244,0.305,0.427,56.065
155184,158902,14547,-0.198,1.003,-0.02,0.183,0.671,0.488,56.072
155198,158855,9125,-0.199,1.006,-0.024,0.183,0.671,0.488,56.075
155198,158863,14534,-0.201,1.01,-0.027,-0.061,0.671,0.366,56.081
155183,158855,9125,-0.197,1.008,-0.025,-0.061,0.671,0.366,56.085
155183,158898,14535,-0.192,1.008,-0.029,-0.305,0.183,0.61,56.091
155221,158855,9125,-0.192,1.008,-0.029,-0.305,0.183,0.61,56.095
155221,158913,14522,-0.193,1.009,-0.026,-0.122,0.244,0.732,56.101
155215,158855,9125,-0.193,1.009,-0.026,-0.122,0.244,0.732,56.105
155215,158927,14556,-0.198,1.007,-0.02,-0.549,0.61,0.61,56.111
155221,158855,9125,-0.198,1.007,-0.02,-0.549,0.61,0.61,56.115
155221,158932,14528,-0.196,1.01,-0.031,-0.976,0.427,0.549,56.121
155221,158855,9125,-0.196,1.01,-0.031,-0.976,0.427,0.549,56.125
155221,158938,14544,-0.193,1.009,-0.021,-0.732,0.305,0.732,56.131
155245,158855,9125,-0.193,1.009,-0.021,-0.732,0.305,0.732,56.135
155245,158940,14542,-0.195,1.008,-0.023,0.061,0.793,0.549,56.141
155214,158855,9125,-0.195,1.008,-0.023,0.061,0.793,0.549,56.145
155214,158950,14551,-0.196,1.011,-0.018,0.244,0.854,0.183,56.151
155241,158855,9125,-0.196,1.011,-0.018,0.244,0.854,0.183,56.154
155241,158919,14534,-0.191,1.014,-0.033,-0.061,0.61,0.244,56.161
155224,158855,9125,-0.191,1.014,-0.033,-0.061,0.61,0.244,56.164
155224,158922,14547,-0.192,1.007,-0.023,0.061,0.488,0.244,56.17
155247,158855,9125,-0.192,1.007,-0.023,0.061,0.488,0.244,56.174
155247,158915,14534,-0.194,1.007,-0.027,-0.244,0.427,0.183,56.18
155234,158855,9125,-0.194,1.007,-0.027,-0.244,0.427,0.183,56.184
155234,158900,14538,-0.192,1.005,-0.03,-0.183,0.366,0.183,56.19
155223,158855,9125,-0.192,1.005,-0.03,-0.183,0.366,0.183,56.194
155223,158906,14548,-0.194,1.01,-0.026,-0.122,0.366,0.305,56.2
155209,158855,9125,-0.194,1.01,-0.026,-0.122,0.366,0.305,56.204
155209,158944,14541,-0.195,1.007,-0.027,0,0.488,0.366,56.21
155215,158855,9125,-0.195,1.007,-0.027,0,0.488,0.366,56.214
155215,158909,14519,-0.196,1.008,-0.025,-0.122,0.427,0.244,56.22
155252,158855,9125,-0.196,1.008,-0.025,-0.122,0.427,0.244,56.224
155252,158914,14529,-0.199,1.011,-0.022,0.122,0.488,0.366,56.23
155247,158855,9125,-0.199,1.011,-0.022,0.122,0.488,0.366,56.234
155247,158926,14547,-0.197,1.011,-0.025,0.122,0.488,0.366,56.24
155229,158855,9125,-0.198,1.01,-0.029,0.305,0.671,0.305,56.243
155229,158921,14541,-0.199,1.012,-0.032,0.305,0.671,0.305,56.25
155236,158855,9125,-0.2,1.014,-0.028,-0.061,0.61,0.122,56.253
155236,158945,14554,-0.197,1.014,-0.028,-0.061,0.61,0.122,56.26
155240,158855,9125,-0.2,1.01,-0.025,-0.305,0.122,0.366,56.263
155240,158927,14542,-0.198,1.013,-0.022,-0.305,0.122,0.366,56.269
155247,158855,9125,-0.196,1.011,-0.019,0,0.122,0.244,56.273
155247,158926,14547,-0.199,1.007,-0.024,0,0.122,0.244,56.279
155251,158855,9125,-0.199,1.003,-0.027,0.061,0.671,0,56.283
155251,158949,14548,-0.202,1.009,-0.03,0.061,0.671,0,56.289
155247,158855,9125,-0.198,1.012,-0.03,-0.183,0.488,0.061,56.293
155247,158941,14552,-0.195,1.005,-0.031,-0.183,0.488,0.061,56.299
155247,158855,9125,-0.195,1.007,-0.028,-0.183,-0.061,0.183,56.303
155247,158916,14549,-0.191,1.011,-0.027,-0.183,-0.061,0.183,56.309
155228,158855,9125,-0.19,1.006,-0.029,-0.366,0.183,0.244,56.313
155228,158936,14554,-0.189,1.007,-0.028,-0.366,0.183,0.244,56.319
155240,158855,9125,-0.191,1.009,-0.029,-0.366,0.549,0.305,56.323
155240,158916,14551,-0.191,1.006,-0.028,-0.366,0.549,0.305,56.329
155223,158855,9125,-0.192,1.004,-0.032,-0.183,0.488,0.427,56.333
155223,158955,14556,-0.192,1.007,-0.032,-0.183,0.488,0.427,56.339
155227,158855,9125,-0.189,1.011,-0.031,0.061,0.61,0.244,56.343
155227,158913,14534,-0.195,1.008,-0.023,0.061,0.61,0.244,56.349
155228,158855,9125,-0.196,1.001,-0.024,0.793,0.732,0.305,56.352
155228,158933,14550,-0.195,1.007,-0.03,0.793,0.732,0.305,56.359
155225,158855,9125,-0.198,1.01,-0.028,0.305,0.305,0.244,56.362
155225,158936,14543,-0.195,1.009,-0.025,0.305,0.305,0.244,56.368
155208,158855,9125,-0.194,1.008,-0.025,-0.061,-0.122,0.305,56.372
155208,158943,14531,-0.198,1.01,-0.028,-0.061,-0.122,0.305,56.378
155212,158855,9125,-0.198,1.009,-0.024,-0.366,-0.122,0.488,56.382
155212,158940,14550,-0.193,1.005,-0.019,-0.366,-0.122,0.488,56.388
155238,158855,9125,-0.193,1.006,-0.021,-0.671,0,0.488,56.392
155238,158932,14539,-0.197,1.007,-0.028,-0.671,0,0.488,56.398
155216,158855,9125,-0.194,1.011,-0.034,-0.793,0.183,0.671,56.402
155216,158913,14543,-0.19,1.015,-0.029,-0.793,0.183,0.671,56.408
155213,158855,9125,-0.19,1.014,-0.021,-0.427,0.061,0.366,56.412
155213,158906,14537,-0.193,1.008,-0.021,-0.427,0.061,0.366,56.418
155202,158855,9125,-0.198,1.011,-0.02,-0.183,0.366,0.305,56.422
155202,158913,14539,-0.197,1.014,-0.024,-0.183,0.366,0.305,56.428
155179,158855,9125,-0.192,1.011,-0.029,-0.305,0.61,0.122,56.432
155179,158917,14548,-0.194,1.008,-0.027,-0.305,0.61,0.122,56.438
155184,158855,9125,-0.195,1.01,-0.033,-0.061,0.244,0.183,56.442
155184,158917,14554,-0.195,1.014,-0.038,-0.061,0.244,0.183,56.448
155170,158855,9125,-0.188,1.011,-0.03,-0.061,0.244,0.183,56.451
155170,158914,14561,-0.191,1.007,-0.026,-0.061,0.244,0.183,56.458
155181,158855,9125,-0.195,1.006,-0.022,0.366,0.549,0.061,56.461
155181,158914,14527,-0.199,1.009,-0.024,0.366,0.549,0.061,56.467
155179,158855,9125,-0.199,1.012,-0.03,0.793,0.671,-0.061,56.471
155179,158917,14561,-0.199,1.009,-0.024,0.793,0.671,-0.061,56.477
155189,158855,9125,-0.196,1.009,-0.023,1.28,0.549,0,56.481
155189,158898,14550,-0.197,1.01,-0.025,1.28,0.549,0,56.487
155187,158855,9125,-0.198,1.009,-0.018,0.488,0.427,0.061,56.491
155187,158914,14551,-0.198,1.003,-0.018,0.488,0.427,0.061,56.497
155209,158855,9125,-0.196,1.003,-0.02,-0.366,0.183,0.061,56.501
155209,158895,14546,-0.198,1.001,-0.018,-0.366,0.183,0.061,56.507
155226,158855,9125,-0.192,1.007,-0.019,-0.366,0.244,0.183,56.511
155226,158939,14544,-0.19,1.008,-0.017,-0.366,0.244,0.183,56.517
155217,158855,9125,-0.195,1.007,-0.019,0.793,0.976,0.183,56.521
155217,158924,14556,-0.196,1.008,-0.022,0.793,0.976,0.183,56.527
155236,158855,9125,-0.198,1.012,-0.027,1.402,1.646,0.122,56.531
155236,158949,14556,-0.196,1.012,-0.027,1.402,1.646,0.122,56.537
155241,158855,9125,-0.195,1.012,-0.028,0.976,1.707,0.061,56.54
155241,158938,14563,-0.194,1.011,-0.026,0.976,1.707,0.061,56.547
155224,158855,9125,-0.194,1.011,-0.03,0.488,1.159,0.305,56.55
155224,158928,14554,-0.191,1.011,-0.03,0.488,1.159,0.305,56.557
155228,158855,9125,-0.19,1.011,-0.027,0.122,0.549,0.366,56.56
155228,158964,14563,-0.191,1.006,-0.029,0.122,0.549,0.366,56.566
155224,158855,9125,-0.193,1.005,-0.034,0.061,0.488,0.244,56.57
155224,158970,14557,-0.193,1.004,-0.038,0.061,0.488,0.244,56.576
155239,158855,9125,-0.191,1.004,-0.038,0.244,0.244,0.061,56.58
155239,158947,14546,-0.193,1.003,-0.033,0.244,0.244,0.061,56.586
155241,158855,9125,-0.194,1.004,-0.026,0.183,0.183,0.183,56.59
155241,158932,14555,-0.201,1.008,-0.025,0.183,0.183,0.183,56.596
155231,158855,9125,-0.203,1.007,-0.031,0,0.366,0.549,56.6
155231,158939,14562,-0.198,1.011,-0.033,0,0.366,0.549,56.606
155254,158855,9125,-0.193,1.013,-0.031,0.366,0.366,0.305,56.61
155254,158975,14558,-0.195,1.01,-0.03,0.366,0.366,0.305,56.616
155232,158855,9125,-0.199,1.01,-0.032,0.366,0.488,0.244,56.62
155232,158940,14548,-0.201,1.011,-0.03,0.366,0.488,0.244,56.626
155236,158855,9125,-0.203,1.012,-0.028,-0.366,0.488,0.244,56.63
155236,158952,14567,-0.2,1.004,-0.033,-0.366,0.488,0.244,56.636
155261,158855,9125,-0.195,1.007,-0.031,-0.244,0.061,0.061,56.639
155261,158968,14556,-0.195,1.011,-0.03,-0.244,0.061,0.061,56.646
155257,158855,9125,-0.198,1.01,-0.031,0.061,0.305,0.122,56.649
155257,158951,14566,-0.2,1.009,-0.028,0.061,0.305,0.122,56.656
155273,159111,9125,-0.202,1.008,-0.025,0.244,0.549,0.122,56.659
155273,158988,14555,-0.204,1.006,-0.025,0.244,0.549,0.122,56.665
155248,158855,9125,-0.199,1.004,-0.021,0.244,0.488,0.183,56.669
155248,158947,14559,-0.198,1,-0.022,0.244,0.488,0.183,56.675
155264,158855,9125,-0.198,1,-0.022,0.244,0.488,0.183,56.679
155264,158973,14554,-0.198,1.008,-0.029,0.244,0.427,0.305,56.685
155235,158855,9125,-0.198,1.008,-0.029,0.244,0.427,0.305,56.689
155235,158957,14567,-0.194,1.006,-0.028,-0.061,0.488,0.366,56.695
155231,158855,9125,-0.194,1.006,-0.028,-0.061,0.488,0.366,56.699
155231,158941,14555,-0.196,1.01,-0.025,0.061,0.427,0.427,56.705
155213,158855,9125,-0.196,1.01,-0.025,0.061,0.427,0.427,56.709
155213,158932,14560,-0.195,1.01,-0.027,-0.061,0.427,0.488,56.715
155216,158855,9125,-0.195,1.01,-0.027,-0.061,0.427,0.488,56.719
155216,158956,14551,-0.193,1.014,-0.031,-0.244,0.366,0.488,56.725
155243,158855,9125,-0.193,1.014,-0.031,-0.244,0.366,0.488,56.729
155243,158919,14543,-0.193,1.01,-0.025,-0.244,0.305,0.427,56.735
155226,158855,9125,-0.193,1.01,-0.025,-0.244,0.305,0.427,56.738
155226,158919,14551,-0.196,1.013,-0.034,0.244,0.427,0.427,56.745
155214,158855,9125,-0.196,1.013,-0.034,0.244,0.427,0.427,56.748
155214,158922,14550,-0.195,1.008,-0.036,0.183,0.671,0.061,56.755
155244,158855,9125,-0.195,1.008,-0.036,0.183,0.671,0.061,56.758
155244,158934,14545,-0.197,1.011,-0.03,0.427,0.244,-0.061,56.764
155238,158855,9125,-0.197,1.011,-0.03,0.427,0.244,-0.061,56.768
155238,158924,14552,-0.197,1,-0.023,0.427,0.122,0.122,56.774
155235,158855,9125,-0.197,1,-0.023,0.427,0.122,0.122,56.778
155235,158912,14553,-0.197,1.004,-0.022,0.183,0.244,0.183,56.784
155226,158855,9125,-0.197,1.004,-0.022,0.183,0.244,0.183,56.788
155226,158915,14550,-0.197,1,-0.026,0.183,0.122,0.305,56.794
155218,158855,9125,-0.197,1,-0.026,0.183,0.122,0.305,56.798
155218,158898,14546,-0.197,1.009,-0.02,0.61,0.305,0.61,56.804
155235,158855,9125,-0.197,1.009,-0.02,0.61,0.305,0.61,56.808
155235,158941,14544,-0.197,1.012,-0.019,0.854,0.61,0.61,56.814
155256,158855,9125,-0.197,1.012,-0.019,0.854,0.61,0.61,56.818
155256,158944,14551,-0.201,1.009,-0.018,0.976,0.854,0.61,56.824
155230,158855,9125,-0.201,1.016,-0.025,0.976,0.854,0.61,56.828
155230,158922,14546,-0.197,1.025,-0.031,0.366,0.854,0.488,56.834
155235,158855,9125,-0.196,1.023,-0.028,0.366,0.854,0.488,56.837
155235,158916,14539,-0.197,1.016,-0.025,0.122,0.549,0.366,56.844
155261,158855,9125,-0.198,1.005,-0.027,0.122,0.549,0.366,56.847
155261,158927,14543,-0.196,1.003,-0.029,0.244,0.305,0.549,56.854
155233,158855,9125,-0.192,1.013,-0.026,0.244,0.305,0.549,56.857
155233,158945,14538,-0.191,1.021,-0.027,0.061,0.244,0.366,56.863
155255,158855,9125,-0.192,1.016,-0.03,0.061,0.244,0.366,56.867
155255,158935,14536,-0.195,1.006,-0.036,0.488,0.793,-0.305,56.873
155250,158855,9125,-0.196,0.998,-0.035,0.488,0.793,-0.305,56.877
155250,158946,14541,-0.198,1,-0.029,-0.061,0.671,0.061,56.883
155266,158855,9125,-0.195,1.01,-0.031,-0.061,0.671,0.061,56.887
155266,158930,14537,-0.193,1.005,-0.03,-0.854,0.061,0.427,56.893
155252,158855,9125,-0.188,0.999,-0.026,-0.854,0.061,0.427,56.897
155252,158921,14552,-0.19,1.003,-0.031,0.122,0.305,0.427,56.903
155250,158855,9125,-0.195,1.004,-0.035,0.122,0.305,0.427,56.907
155250,158896,14540,-0.198,1.003,-0.029,0.244,0.976,0.549,56.913
155222,158855,9125,-0.199,1.007,-0.03,0.244,0.976,0.549,56.917
155222,158886,14534,-0.199,1.012,-0.032,0.305,0.793,0.671,56.923
155237,158855,9125,-0.194,1.012,-0.036,0.305,0.793,0.671,56.927
155237,158910,14518,-0.192,1.01,-0.038,0.305,0.244,0.854,56.933
155236,158855,9125,-0.194,1.013,-0.032,0.305,0.244,0.854,56.936
155236,158921,14531,-0.195,1.012,-0.028,0.366,0.549,0.732,56.943
155236,158855,9125,-0.198,1.003,-0.029,0.366,0.549,0.732,56.946
155236,158955,14531,-0.2,1.002,-0.036,0.305,0.732,0.549,56.953
155241,158855,9125,-0.196,1.011,-0.038,0.305,0.732,0.549,56.956
155241,158917,14537,-0.193,1.018,-0.029,0,0.244,0.427,56.962
155261,158855,9125,-0.195,1.011,-0.024,0,0.244,0.427,56.966
155261,158912,14535,-0.195,1.008,-0.027,0.61,0.183,0.488,56.972
155243,158855,9125,-0.198,1.012,-0.035,0.61,0.183,0.488,56.976
155243,158922,14544,-0.204,1.013,-0.032,0.183,0.305,0.305,56.982
155243,158855,9125,-0.199,1.008,-0.03,0.183,0.305,0.305,56.986
155243,158926,14526,-0.195,1.009,-0.031,0.061,0,0.061,56.992
155240,158855,9125,-0.198,1.011,-0.029,0.061,0,0.061,56.996
155240,158901,14550,-0.197,1.01,-0.032,0.061,0.122,0.305,57.002
155249,158855,9125,-0.197,1.011,-0.031,0.061,0.122,0.305,57.006
155249,158884,14546,-0.196,1.006,-0.027,0,0.488,0.305,57.012
155247,158855,9125,-0.198,1.01,-0.031,0,0.488,0.305,57.016
155247,158930,14535,-0.2,1.008,-0.032,-0.244,0.427,0.305,57.022
155264,158855,9125,-0.199,1.006,-0.033,-0.244,0.427,0.305,57.026
155264,158915,14532,-0.197,1.006,-0.029,-0.488,0.244,0.427,57.032
155261,158855,9125,-0.195,1.008,-0.035,-0.488,0.244,0.427,57.035
155261,158946,14536,-0.194,1.008,-0.035,-0.244,0.244,0.427,57.042
155263,158855,9125,-0.194,1.011,-0.032,-0.244,0.244,0.427,57.045
155263,158937,14527,-0.196,1.012,-0.03,-0.061,0.427,0.427,57.052
155239,158855,9125,-0.197,1.009,-0.026,-0.061,0.427,0.427,57.055
155239,158932,14537,-0.197,1.003,-0.029,-0.244,0.488,0.366,57.061
155243,158855,9125,-0.196,1.004,-0.036,-0.244,0.488,0.366,57.065
155243,158913,14538,-0.195,1.008,-0.035,-0.61,0.244,0.549,57.071
155251,158855,9125,-0.193,1.012,-0.029,-0.61,0.244,0.549,57.075
155251,158916,14530,-0.192,1.008,-0.022,-0.427,0.061,0.61,57.081
155234,158855,9125,-0.193,1.003,-0.02,-0.427,0.061,0.61,57.085
155234,158914,14533,-0.197,1.009,-0.03,0.244,0.427,0.366,57.091
155239,158855,9125,-0.199,1.016,-0.028,0.244,0.427,0.366,57.095
155239,158926,14522,-0.196,1.015,-0.028,0.305,0.61,0.305,57.101
155233,158855,9125,-0.197,1.009,-0.024,0.305,0.61,0.305,57.105
155233,158954,14534,-0.199,1.014,-0.031,0.183,0.488,0.305,57.111
155258,158855,9125,-0.197,1.013,-0.033,0.183,0.488,0.305,57.115
155258,158939,14533,-0.198,1.003,-0.028,-0.122,0.488,0.244,57.121
155234,158855,9125,-0.197,1.004,-0.031,-0.122,0.488,0.244,57.125
155234,158937,14534,-0.198,1.008,-0.03,0.061,0.488,0.122,57.131
155218,158855,9125,-0.197,1.009,-0.031,0.061,0.488,0.122,57.134
155218,158898,14507,-0.194,1.006,-0.03,0.244,0.549,0.366,57.141
155218,158855,9125,-0.195,1.005,-0.034,0.244,0.549,0.366,57.144
155218,158910,14531,-0.197,1.006,-0.032,0.183,0.671,0.488,57.151
155198,158855,9125,-0.197,1.01,-0.032,0.183,0.671,0.488,57.154
155198,158889,14540,-0.196,1.009,-0.031,-0.183,0.671,0.366,57.16
155224,158855,9125,-0.198,1.011,-0.028,-0.183,0.671,0.366,57.164
155224,158886,14526,-0.195,1.012,-0.034,-0.488,0.427,0.427,57.17
155203,158855,9125,-0.193,1.011,-0.034,-0.488,0.427,0.427,57.174
155203,158905,14524,-0.194,1.006,-0.028,-0.305,0.305,0.427,57.18
155209,158855,9125,-0.196,1.009,-0.031,-0.305,0.305,0.427,57.184
155209,158904,14537,-0.201,1.007,-0.035,-0.244,0.549,0.244,57.19
155202,158855,9125,-0.197,1.005,-0.034,-0.244,0.549,0.244,57.194
155202,158903,14515,-0.194,1.009,-0.033,-0.061,0.366,0.122,57.2
155192,158855,9125,-0.193,1.009,-0.027,-0.061,0.366,0.122,57.204
155192,158870,14523,-0.194,1.006,-0.029,0.122,0.244,0.305,57.21
155189,158855,9125,-0.194,1.008,-0.032,0.122,0.244,0.305,57.214
155189,158881,14527,-0.196,1.012,-0.028,0.305,0.549,0.488,57.22
155152,158855,9125,-0.198,1.009,-0.03,0.305,0.549,0.488,57.224
155152,158885,14519,-0.199,1.004,-0.025,-0.183,0.61,0.366,57.23
155158,158855,9125,-0.202,1.009,-0.032,-0.183,0.61,0.366,57.233
155158,158888,14515,-0.193,1.012,-0.041,-0.366,0.244,0.488,57.24
155144,158855,9125,-0.193,1.01,-0.042,-0.366,0.244,0.488,57.243
155144,158884,14519,-0.192,1.012,-0.036,-0.61,0.061,0.488,57.25
155155,158855,9125,-0.192,1.012,-0.036,-0.61,0.061,0.488,57.253
155155,158869,14526,-0.198,1.008,-0.031,-0.793,0.061,0.488,57.259
155177,158855,9125,-0.198,1.008,-0.031,-0.793,0.061,0.488,57.263
155177,158895,14521,-0.196,1.01,-0.029,-0.61,-0.183,0.305,57.269
155171,158855,9125,-0.196,1.01,-0.029,-0.61,-0.183,0.305,57.273
155171,158917,14517,-0.195,1.007,-0.033,-0.488,-0.244,0.366,57.279
155173,158855,9125,-0.195,1.007,-0.033,-0.488,-0.244,0.366,57.283
155173,158904,14526,-0.194,1.01,-0.031,-0.61,0.061,0.549,57.289
155173,158855,9125,-0.194,1.01,-0.031,-0.61,0.061,0.549,57.293
155173,158885,14518,-0.194,1.005,-0.023,-0.427,0.122,0.61,57.299
155179,158855,9125,-0.194,1.005,-0.023,-0.427,0.122,0.61,57.303
155179,158900,14527,-0.197,1.004,-0.029,-0.366,0.366,0.671,57.309
155203,158855,9125,-0.197,1.004,-0.029,-0.366,0.366,0.671,57.313
155203,158903,14518,-0.197,1.011,-0.037,-0.122,0.549,0.61,57.319
155194,158855,9125,-0.197,1.011,-0.037,-0.122,0.549,0.61,57.323
155194,158917,14537,-0.2,1.01,-0.044,0.122,0.488,0.61,57.329
155210,158855,9125,-0.2,1.01,-0.044,0.122,0.488,0.61,57.332
155210,158910,14520,-0.194,1.012,-0.032,0.122,0.122,0.488,57.339
155194,158855,9125,-0.194,1.012,-0.032,0.122,0.122,0.488,57.342
155194,158902,14534,-0.2,1.008,-0.027,0.366,0.061,0.427,57.348
155207,158855,9125,-0.2,1.008,-0.027,0.366,0.061,0.427,57.352
155207,158904,14531,-0.192,1.015,-0.03,-0.244,0,0.366,57.358
155180,158855,9125,-0.192,1.015,-0.03,-0.244,0,0.366,57.362
155180,158899,14534,-0.19,1.013,-0.029,-0.427,-0.183,0.427,57.368
155222,158855,9125,-0.19,1.013,-0.029,-0.427,-0.183,0.427,57.372
155222,158911,14530,-0.194,1.004,-0.026,-0.549,0.244,0.366,57.378
155213,158855,9125,-0.194,1.004,-0.026,-0.549,0.244,0.366,57.382
155213,158921,14536,-0.199,1.003,-0.029,-0.366,0.305,0,57.388
155231,158855,9125,-0.199,1.003,-0.029,-0.366,0.305,0,57.392
155231,158927,14549,-0.2,1.007,-0.029,-0.366,0.305,0,57.398
155224,158855,9125,-0.2,1.006,-0.031,0.183,0.183,0.183,57.402
155224,158939,14542,-0.202,1.005,-0.027,0.183,0.183,0.183,57.408
155238,158855,9125,-0.201,1.012,-0.032,0.549,0.366,0.488,57.412
155238,158926,14537,-0.198,1.011,-0.026,0.549,0.366,0.488,57.418
155232,158855,9125,-0.199,1.009,-0.02,0.122,0.549,0.427,57.422
155232,158932,14525,-0.197,1.011,-0.023,0.122,0.549,0.427,57.428
155212,158855,9125,-0.195,1.01,-0.028,-0.366,0.427,0.488,57.431
155212,158946,14530,-0.195,1.006,-0.031,-0.366,0.427,0.488,57.438
155234,158855,9125,-0.195,1.012,-0.029,-0.61,0.183,0.549,57.441
155234,158948,14528,-0.192,1.008,-0.028,-0.61,0.183,0.549,57.447
155232,158855,9125,-0.191,1.004,-0.033,-0.427,0.183,0.366,57.451
155232,158961,14534,-0.193,1.006,-0.026,-0.427,0.183,0.366,57.457
155236,158855,9125,-0.193,1.011,-0.027,-0.305,0.305,0.305,57.461
155236,158941,14526,-0.194,1.011,-0.027,-0.305,0.305,0.305,57.467
155214,158855,9125,-0.196,1.007,-0.033,-0.122,0.732,0.488,57.471
155214,158954,14546,-0.193,1.01,-0.037,-0.122,0.732,0.488,57.477
155224,158855,9125,-0.188,1.01,-0.036,-0.061,0.732,0.427,57.481
155224,158967,14540,-0.188,1.012,-0.03,-0.061,0.732,0.427,57.487
155219,158855,9125,-0.188,1.011,-0.031,-0.244,0.427,0.488,57.491
155219,158935,14534,-0.19,1.008,-0.031,-0.244,0.427,0.488,57.497
155213,158855,9125,-0.19,1.009,-0.031,-0.427,0.427,0.427,57.501
155213,158948,14542,-0.189,1.006,-0.028,-0.427,0.427,0.427,57.507
155211,158855,9125,-0.194,1.005,-0.028,-0.183,0.427,0.244,57.511
155211,158948,14551,-0.195,1.01,-0.03,-0.183,0.427,0.244,57.517
155217,158855,9125,-0.194,1.008,-0.034,-0.122,0.305,0.183,57.521
155217,158961,14545,-0.197,1.007,-0.034,-0.122,0.305,0.183,57.527
155242,158855,9125,-0.197,1.002,-0.027,-0.671,0.122,0.366,57.53
155242,158954,14527,-0.195,1.005,-0.023,-0.671,0.122,0.366,57.537
155232,158855,9125,-0.197,1.007,-0.02,-1.463,-0.061,0.671,57.54
155232,158957,14533,-0.198,1.008,-0.019,-1.463,-0.061,0.671,57.546
155234,158855,9125,-0.196,1.007,-0.026,-1.22,-0.061,0.915,57.55
155234,158949,14543,-0.197,1.01,-0.032,-1.22,-0.061,0.915,57.556
155235,158855,9125,-0.197,1.013,-0.029,-0.61,0.427,0.732,57.56
155235,158917,14535,-0.198,1.008,-0.026,-0.61,0.427,0.732,57.566
155214,158855,9125,-0.2,1.01,-0.032,-0.427,0.61,0.549,57.57
155214,158947,14543,-0.201,1.011,-0.034,-0.427,0.61,0.549,57.576
155226,158855,9125,-0.198,1.016,-0.032,-0.549,0.427,0.671,57.58
155226,158911,14550,-0.196,1.015,-0.032,-0.549,0.427,0.671,57.586
155208,158855,9125,-0.194,1.012,-0.031,-0.488,0.427,0.366,57.59
155208,158931,14550,-0.193,1.01,-0.032,-0.488,0.427,0.366,57.596
155198,158855,9125,-0.196,1.013,-0.028,-0.366,0.488,0.305,57.6
155198,158921,14542,-0.2,1.01,-0.03,-0.366,0.488,0.305,57.606
155229,158855,9125,-0.195,1,-0.04,-0.854,0.488,0.244,57.61
155229,158930,14547,-0.195,0.998,-0.043,-0.854,0.488,0.244,57.616
155210,158855,9125,-0.192,1.007,-0.04,-1.037,0.122,0.122,57.619
155210,158936,14576,-0.188,1.007,-0.035,-1.037,0.122,0.122,57.626
155227,158855,9125,-0.187,1.009,-0.035,-0.427,-0.061,0.366,57.629
155227,158922,14556,-0.188,1.011,-0.035,-0.427,-0.061,0.366,57.636
155213,158855,9125,-0.194,1.012,-0.036,0.183,0.244,0.366,57.639
155213,158957,14550,-0.196,1.016,-0.038,0.183,0.244,0.366,57.645
155216,158855,9125,-0.195,1.011,-0.035,0.305,0.305,0.122,57.649
155216,158953,14554,-0.195,1.008,-0.027,0.305,0.305,0.122,57.655
155190,158855,9125,-0.198,1.008,-0.029,-0.427,-0.061,0.305,57.659
155190,158954,14558,-0.198,1.007,-0.028,-0.427,-0.061,0.305,57.665
155214,158855,9125,-0.197,1.005,-0.025,-0.793,-0.305,0.427,57.669
155214,158939,14551,-0.197,1.005,-0.026,-0.793,-0.305,0.427,57.675
155235,158855,9125,-0.2,1.009,-0.028,-0.427,-0.122,0.183,57.679
155235,158934,14557,-0.202,1.006,-0.03,-0.427,-0.122,0.183,57.685
155213,158855,9125,-0.203,1.003,-0.026,0,0.244,0.305,57.689
155213,158961,14551,-0.197,1.004,-0.021,0,0.244,0.305,57.695
155215,159111,9125,-0.198,1.008,-0.024,0.061,0.183,0.61,57.699
155215,158982,14547,-0.198,1.01,-0.031,0.061,0.183,0.61,57.705
155236,158855,9125,-0.197,1.01,-0.031,-0.183,0.427,0.732,57.709
155236,158939,14562,-0.197,1.008,-0.028,-0.183,0.427,0.732,57.715
155215,158855,9125,-0.198,1.014,-0.026,-0.122,0.549,0.549,57.718
155215,158963,14557,-0.2,1.009,-0.026,-0.122,0.549,0.549,57.725
155220,158855,9125,-0.198,1.011,-0.029,-0.183,0.427,0.427,57.728
155220,158970,14565,-0.199,1.01,-0.03,-0.183,0.427,0.427,57.735
155199,159111,9125,-0.2,1.01,-0.026,-0.671,0.183,0.183,57.738
155199,158988,14547,-0.196,1.015,-0.024,-0.671,0.183,0.183,57.744
155217,158855,9125,-0.193,1.014,-0.029,-1.28,-0.122,0.183,57.748
155217,158958,14547,-0.191,1.012,-0.029,-1.28,-0.122,0.183,57.754
155213,158855,9125,-0.191,1.008,-0.024,-0.793,0,0.305,57.758
155213,158954,14562,-0.193,1.009,-0.023,-0.793,0,0.305,57.764
155197,158855,9125,-0.196,1.011,-0.023,-0.183,0.488,0.061,57.768
155197,158966,14555,-0.195,1.009,-0.028,-0.183,0.488,0.061,57.774
155199,158855,9125,-0.193,1.006,-0.03,-0.122,0.793,0.183,57.778
155199,158931,14561,-0.189,1.005,-0.028,-0.122,0.793,0.183,57.784
155208,158855,9125,-0.188,1.007,-0.028,0.061,0.732,0.305,57.788
155208,158943,14553,-0.189,1.007,-0.028,0.061,0.732,0.305,57.794
155201,158855,9125,-0.191,1.005,-0.03,0.061,0.732,0.427,57.798
155201,158925,14566,-0.196,1.003,-0.038,0.061,0.732,0.427,57.804
155197,158855,9125,-0.196,1.002,-0.037,-0.122,0.671,0.488,57.808
155197,158896,14553,-0.195,1.003,-0.031,-0.122,0.671,0.488,57.814
155205,158855,9125,-0.197,1.01,-0.024,-0.427,0.366,0.61,57.817
155205,158911,14550,-0.194,1.008,-0.027,-0.427,0.366,0.61,57.824
155207,158855,9125,-0.197,1.005,-0.029,-0.366,0.244,0.732,57.827
155207,158875,14548,-0.194,1.007,-0.029,-0.366,0.244,0.732,57.834
155204,158855,9125,-0.194,1.007,-0.029,-0.366,0.244,0.732,57.837
155204,158905,14560,-0.195,1.012,-0.02,0.061,0.366,0.61,57.843
155207,158855,9125,-0.195,1.012,-0.02,0.061,0.366,0.61,57.847
155207,158896,14567,-0.201,1.018,-0.018,0.183,0.671,0.61,57.853
155198,158855,9125,-0.201,1.018,-0.018,0.183,0.671,0.61,57.857
155198,158908,14538,-0.199,1.015,-0.027,0.122,0.854,0.427,57.863
155200,158855,9125,-0.199,1.015,-0.027,0.122,0.854,0.427,57.867
155200,158908,14539,-0.197,1.018,-0.036,0.61,0.976,0.305,57.873
155196,158855,9125,-0.197,1.018,-0.036,0.61,0.976,0.305,57.877
155196,158901,14559,-0.199,1.007,-0.027,0.244,1.037,0.061,57.883
155181,158855,9125,-0.199,1.007,-0.027,0.244,1.037,0.061,57.887
155181,158912,14542,-0.196,1.008,-0.031,-0.244,0.793,0.122,57.893
155202,158855,9125,-0.196,1.008,-0.031,-0.244,0.793,0.122,57.897
155202,158905,14557,-0.191,1.003,-0.042,-0.61,0.366,0.122,57.903
155215,158855,9125,-0.191,1.003,-0.042,-0.61,0.366,0.122,57.907
155215,158896,14528,-0.189,1.006,-0.03,-0.671,0.122,0.122,57.913
155203,158855,9125,-0.189,1.006,-0.03,-0.671,0.122,0.122,57.916
155203,158889,14547,-0.193,1.002,-0.03,-0.488,0.244,0.244,57.923
155202,158855,9125,-0.193,1.002,-0.03,-0.488,0.244,0.244,57.926
155202,158872,14544,-0.189,1.007,-0.025,-0.427,0.305,0.183,57.933
155177,158855,9125,-0.189,1.007,-0.025,-0.427,0.305,0.183,57.936
155177,158911,14548,-0.196,1.009,-0.023,-0.122,0.183,0.305,57.942
155200,158855,9125,-0.196,1.009,-0.023,-0.122,0.183,0.305,57.946
155200,158897,14530,-0.197,1.008,-0.029,-0.061,0.61,0.671,57.952
155177,158855,9125,-0.197,1.008,-0.029,-0.061,0.61,0.671,57.956
155177,158888,14533,-0.19,1.005,-0.027,-0.305,0.671,0.671,57.962
155187,158855,9125,-0.19,1.005,-0.027,-0.305,0.671,0.671,57.966
155187,158904,14534,-0.198,1.012,-0.029,-0.793,0.122,0.488,57.972
155170,158855,9125,-0.198,1.012,-0.029,-0.793,0.122,0.488,57.976
155170,158892,14522,-0.194,1.01,-0.029,-1.098,-0.061,0.671,57.982
155157,158855,9125,-0.198,1.008,-0.026,-1.098,-0.061,0.671,57.986
155157,158899,14535,-0.198,1.009,-0.03,-0.61,0.122,0.671,57.992
155181,158855,9125,-0.193,1.011,-0.036,-0.61,0.122,0.671,57.996
155181,158903,14532,-0.194,1.009,-0.037,-0.305,0.366,0.488,58.002
155166,158855,9125,-0.193,1.011,-0.028,-0.305,0.366,0.488,58.006
155166,158873,14533,-0.194,1.014,-0.022,0.061,0.427,0.366,58.012
155172,158855,9125,-0.199,1.014,-0.027,0.061,0.427,0.366,58.015
155172,158879,14542,-0.196,1.012,-0.028,0.061,0.671,0.427,58.022
155178,158855,9125,-0.196,1.012,-0.026,0.061,0.671,0.427,58.025
155178,158895,14528,-0.197,1.01,-0.027,-0.061,0.549,0.305,58.032
155163,158855,9125,-0.197,1.01,-0.028,-0.061,0.549,0.305,58.035
155163,158876,14520,-0.198,1.011,-0.033,0.183,0.549,0.305,58.041
155179,158855,9125,-0.195,1.011,-0.032,0.183,0.549,0.305,58.045
155179,158886,14540,-0.196,1.01,-0.031,0,0.732,0.061,58.051
155157,158855,9125,-0.197,1.004,-0.029,0,0.732,0.061,58.055
155157,158883,14539,-0.196,1.003,-0.029,-0.61,0.427,0.061,58.061
155206,158855,9125,-0.194,1.008,-0.033,-0.61,0.427,0.061,58.065
155206,158898,14526,-0.193,1.012,-0.036,-0.793,-0.061,0.305,58.071
155166,158855,9125,-0.188,1.008,-0.031,-0.793,-0.061,0.305,58.075
155166,158879,14528,-0.187,1.008,-0.028,-0.061,0.061,0.244,58.081
155157,158855,9125,-0.196,1.01,-0.024,-0.061,0.061,0.244,58.085
155157,158875,14533,-0.2,1.008,-0.025,-0.122,0.488,0.122,58.091
155178,158855,9125,-0.198,1.008,-0.025,-0.122,0.488,0.122,58.095
155178,158882,14520,-0.196,1.008,-0.019,-0.488,0.488,0.244,58.101
155170,158855,9125,-0.196,1.005,-0.027,-0.488,0.488,0.244,58.105
155170,158861,14550,-0.192,1.004,-0.029,-0.366,0.427,0.427,58.111
155176,158855,9125,-0.196,1.008,-0.019,-0.366,0.427,0.427,58.114
155176,158882,14531,-0.198,1.006,-0.021,-0.366,0.732,0.366,58.121
155175,158855,9125,-0.196,1.009,-0.035,-0.366,0.732,0.366,58.124
155175,158878,14522,-0.194,1.009,-0.034,-0.61,0.793,0.244,58.131
155172,158855,9125,-0.195,1.008,-0.031,-0.61,0.793,0.244,58.134
155172,158869,14530,-0.196,1.005,-0.028,-0.915,0.61,0.305,58.14
155181,158855,9125,-0.197,1.008,-0.027,-0.915,0.61,0.305,58.144
155181,158903,14543,-0.195,1.005,-0.033,-0.61,0.732,0.488,58.15
155188,158855,9125,-0.195,1.006,-0.031,-0.61,0.732,0.488,58.154
155188,158926,14543,-0.194,1.01,-0.03,-0.061,0.915,0.305,58.16
155211,158855,9125,-0.193,1.014,-0.031,-0.061,0.915,0.305,58.164
155211,158923,14546,-0.196,1.012,-0.032,0.183,0.854,0.427,58.17
155188,158855,9125,-0.196,1.01,-0.028,0.183,0.854,0.427,58.174
155188,158917,14536,-0.196,1.009,-0.023,0.061,0.671,0.366,58.18
155208,158855,9125,-0.195,1.008,-0.029,0.061,0.671,0.366,58.184
155208,158907,14538,-0.198,1.008,-0.033,-0.305,0.427,0.061,58.19
155191,158855,9125,-0.199,1.01,-0.032,-0.305,0.427,0.061,58.194
155191,158926,14524,-0.196,1.013,-0.03,-0.976,0.183,0.183,58.2
155181,158855,9125,-0.194,1.007,-0.026,-0.976,0.183,0.183,58.204
155181,158890,14530,-0.193,1.004,-0.029,-1.341,-0.061,0.244,58.21
155200,158855,9125,-0.196,1.004,-0.027,-1.341,-0.061,0.244,58.213
155200,158928,14553,-0.197,1.002,-0.032,-0.854,0.244,0.305,58.22
155196,158855,9125,-0.196,1.005,-0.028,-0.854,0.244,0.305,58.223
155196,158918,14541,-0.195,1.004,-0.027,-0.244,0.549,0.366,58.229
155210,158855,9125,-0.194,1.005,-0.027,-0.244,0.549,0.366,58.233
155210,158945,14551,-0.196,1.003,-0.031,-0.244,0.488,0.488,58.239
155197,158855,9125,-0.197,1.005,-0.039,-0.244,0.488,0.488,58.243
155197,158923,14540,-0.195,1.009,-0.035,-0.732,0.244,0.671,58.249
155178,158855,9125,-0.192,1.007,-0.025,-0.732,0.244,0.671,58.253
155178,158937,14544,-0.191,1.007,-0.024,-0.793,0.061,0.671,58.259
155173,158855,9125,-0.196,1.015,-0.03,-0.793,0.061,0.671,58.263
155173,158891,14534,-0.196,1.016,-0.028,-0.488,0.305,0.61,58.269
155212,158855,9125,-0.195,1.01,-0.026,-0.488,0.305,0.61,58.273
155212,158923,14537,-0.196,1.013,-0.027,-0.244,0.183,0.427,58.279
155214,158855,9125,-0.197,1.018,-0.027,-0.244,0.183,0.427,58.283
155214,158912,14540,-0.196,1.014,-0.027,-0.671,-0.061,0.366,58.289
155178,158855,9125,-0.194,1.01,-0.025,-0.671,-0.061,0.366,58.293
155178,158919,14547,-0.197,1.008,-0.023,-0.854,0,0.305,58.299
155219,158855,9125,-0.201,1.008,-0.022,-0.854,0,0.305,58.303
155219,158926,14526,-0.198,1.007,-0.024,-0.854,0.122,0.244,58.309
155204,158855,9125,-0.198,1.004,-0.026,-0.854,0.122,0.244,58.312
155204,158927,14539,-0.197,1.002,-0.028,-0.244,0.305,0.122,58.319
155207,158855,9125,-0.194,1,-0.031,-0.244,0.305,0.122,58.322
155207,158938,14533,-0.195,1.004,-0.03,0,0.305,0.305,58.329
155208,158855,9125,-0.194,1.005,-0.028,0,0.305,0.305,58.332
155208,158922,14534,-0.195,0.996,-0.026,0.305,0.305,0.549,58.338
155203,158855,9125,-0.193,1.005,-0.032,0.305,0.305,0.549,58.342
155203,158895,14541,-0.193,1.017,-0.033,-0.122,0.488,0.366,58.348
155205,158855,9125,-0.191,1.015,-0.03,-0.122,0.488,0.366,58.352
155205,158911,14536,-0.187,1.011,-0.027,-0.305,0.183,0.488,58.358
155201,158855,9125,-0.186,1.014,-0.029,-0.305,0.183,0.488,58.362
155201,158923,14540,-0.191,1.017,-0.035,-0.915,-0.122,0.671,58.368
155193,158855,9125,-0.191,1.011,-0.031,-0.915,-0.122,0.671,58.372
155193,158920,14532,-0.19,1.005,-0.019,-1.28,-0.061,0.366,58.378
155187,158855,9125,-0.196,1.004,-0.022,-1.28,-0.061,0.366,58.382
155187,158924,14541,-0.199,1.005,-0.032,-0.915,0.183,0.244,58.388
155207,158855,9125,-0.198,1.005,-0.028,-0.915,0.183,0.244,58.392
155207,158939,14530,-0.197,1.007,-0.023,0.061,0.305,0.122,58.398
155182,158855,9125,-0.198,1.007,-0.021,0.061,0.305,0.122,58.402
155182,158909,14528,-0.202,1.009,-0.026,0.183,0.305,0.305,58.408
155177,158855,9125,-0.2,1.01,-0.028,0.183,0.305,0.305,58.411
155177,158906,14547,-0.196,1.008,-0.029,-0.366,0.305,0.427,58.418
155166,158855,9125,-0.196,1.008,-0.029,-0.366,0.305,0.427,58.421
155166,158906,14541,-0.193,1.005,-0.021,-1.037,-0.061,0.549,58.427
155153,158855,9125,-0.193,1.005,-0.021,-1.037,-0.061,0.549,58.431
155153,158899,14535,-0.191,1.007,-0.025,-0.915,0.061,1.037,58.437
155174,158855,9125,-0.191,1.007,-0.025,-0.915,0.061,1.037,58.441
155174,158921,14540,-0.193,1.006,-0.019,-0.061,0.61,0.732,58.447
155179,158855,9125,-0.193,1.006,-0.019,-0.061,0.61,0.732,58.451
155179,158905,14537,-0.193,1.013,-0.022,0.488,0.915,0.488,58.457
155183,158855,9125,-0.193,1.013,-0.022,0.488,0.915,0.488,58.461
155183,158938,14527,-0.193,1.013,-0.032,-0.244,0.61,0.549,58.467
155199,158855,9125,-0.193,1.013,-0.032,-0.244,0.61,0.549,58.471
155199,158917,14547,-0.192,1.015,-0.024,-0.854,0.244,0.549,58.477
155193,158855,9125,-0.192,1.015,-0.024,-0.854,0.244,0.549,58.481
155193,158913,14547,-0.193,1.001,-0.033,-0.61,0.427,0.366,58.487
155165,158855,9125,-0.193,1.001,-0.033,-0.61,0.427,0.366,58.491
155165,158925,14535,-0.188,1.011,-0.029,0.244,0.61,0.183,58.497
155165,158855,9125,-0.188,1.011,-0.029,0.244,0.61,0.183,58.501
155165,158934,14540,-0.193,1.012,-0.027,0.732,0.915,0.305,58.507
155160,158855,9125,-0.193,1.012,-0.027,0.732,0.915,0.305,58.51
155160,158905,14544,-0.193,1.011,-0.027,0.793,0.854,0.183,58.517
155186,158855,9125,-0.193,1.011,-0.027,0.793,0.854,0.183,58.52
155186,158919,14532,-0.195,1.009,-0.025,0,0.488,0.183,58.526
155188,158855,9125,-0.195,1.009,-0.025,0,0.488,0.183,58.53
155188,158904,14536,-0.198,1.005,-0.031,-0.915,0.244,0.427,58.536
155173,158855,9125,-0.198,1.005,-0.031,-0.915,0.244,0.427,58.54
155173,158914,14525,-0.196,1.008,-0.028,-1.159,0.061,0.488,58.546
155166,158855,9125,-0.196,1.008,-0.028,-1.159,0.061,0.488,58.55
155166,158919,14543,-0.195,1.001,-0.027,-0.488,0.122,0.671,58.556
155154,158855,9125,-0.195,1.001,-0.027,-0.488,0.122,0.671,58.56
