153465,158097,13977,-0.21,1.007,0.043,0.183,0.427,0.305,570.39
153459,158087,9125,-0.21,1.007,0.041,0.183,0.427,0.305,570.393
153459,158102,13964,-0.211,1.005,0.048,-0.549,0.061,0.488,570.399
153463,158087,9125,-0.212,1.001,0.049,-0.549,0.061,0.488,570.403
153463,158100,13961,-0.21,1.002,0.047,-0.732,0.061,0.488,570.409
153454,158087,9125,-0.209,1.003,0.046,-0.732,0.061,0.488,570.413
153454,158130,13949,-0.21,1.001,0.052,-0.305,0.183,0.366,570.419
153470,158087,9125,-0.208,1.001,0.049,-0.305,0.183,0.366,570.423
153470,158099,13949,-0.21,1.005,0.043,0.244,0.488,0.366,570.429
153446,158087,9125,-0.21,1.008,0.047,0.244,0.488,0.366,570.433
153446,158121,13954,-0.212,1.007,0.049,0.732,0.854,0.366,570.439
153426,158087,9125,-0.214,1.007,0.05,0.732,0.854,0.366,570.443
153426,158106,13951,-0.213,1.005,0.05,0.793,0.793,0.305,570.449
153430,158087,9125,-0.215,1.009,0.047,0.793,0.793,0.305,570.453
153430,158096,13953,-0.215,1.01,0.045,0.366,0.61,0.366,570.459
153446,158087,9125,-0.215,1.007,0.044,0.366,0.61,0.366,570.463
153446,158091,13938,-0.21,1.007,0.047,0.122,0.488,0.427,570.469
153425,158087,9125,-0.212,1.006,0.047,0.122,0.488,0.427,570.472
153425,158080,13949,-0.213,1.006,0.048,-0.122,0.671,0.488,570.479
153421,158087,9125,-0.215,1.003,0.046,-0.122,0.671,0.488,570.482
153421,158115,13950,-0.212,1.003,0.047,-0.244,0.793,0.427,570.489
153452,158087,9125,-0.213,1.005,0.048,-0.244,0.793,0.427,570.492
153452,158069,13955,-0.211,1.005,0.048,0.122,0.976,0.305,570.498
153438,158087,9125,-0.207,1.004,0.044,0.122,0.976,0.305,570.502
153438,158109,13936,-0.208,1.006,0.047,0.732,1.22,0.244,570.508
153439,158087,9125,-0.209,1.003,0.048,0.732,1.22,0.244,570.512
153439,158078,13956,-0.211,1.009,0.051,0.915,1.524,0.244,570.518
153411,158087,9125,-0.211,1.012,0.048,0.915,1.524,0.244,570.522
153411,158086,13966,-0.213,1.01,0.047,0.793,1.768,0.061,570.528
153428,158087,9125,-0.211,1.01,0.047,0.793,1.768,0.061,570.532
153428,158058,13947,-0.213,1.008,0.045,0.671,1.585,0.122,570.538
153429,158087,9125,-0.214,1.007,0.042,0.671,1.585,0.122,570.542
153429,158071,13947,-0.214,1.008,0.04,0.122,1.463,0.183,570.548
153438,158087,9125,-0.212,1.005,0.043,0.122,1.463,0.183,570.552
153438,158060,13950,-0.212,0.998,0.042,-0.061,1.28,0.183,570.558
153444,158087,9125,-0.211,0.997,0.037,-0.061,1.28,0.183,570.562
153444,158075,13937,-0.212,1.001,0.033,0.549,1.341,0.244,570.568
153420,158087,9125,-0.21,1.005,0.031,0.549,1.341,0.244,570.571
153420,158057,13948,-0.21,1.006,0.038,1.28,1.646,0.183,570.578
153411,158087,9125,-0.209,1.008,0.041,1.28,1.646,0.183,570.581
153411,158072,13949,-0.217,1.013,0.043,1.402,1.768,0.122,570.588
153381,158087,9125,-0.216,1.013,0.039,1.402,1.768,0.122,570.591
153381,158038,13942,-0.212,1.01,0.037,0.671,1.402,0.122,570.597
153405,158087,9125,-0.209,1.009,0.037,0.671,1.402,0.122,570.601
153405,158020,13937,-0.211,1.006,0.04,-0.183,0.854,0.122,570.607
153404,158087,9125,-0.214,1.002,0.044,-0.183,0.854,0.122,570.611
153404,158045,13954,-0.214,1,0.04,-0.671,0.61,0.366,570.617
153377,158087,9125,-0.215,1.001,0.04,-0.671,0.61,0.366,570.621
153377,158058,13948,-0.215,0.999,0.033,-0.305,0.732,0.244,570.627
153402,158087,9125,-0.22,0.999,0.039,-0.305,0.732,0.244,570.631
153402,158058,13946,-0.216,1.004,0.036,0.549,0.854,0.122,570.637
153419,158087,9125,-0.22,1.005,0.039,0.549,0.854,0.122,570.641
153419,158063,13959,-0.221,1.003,0.04,0.427,0.732,0.305,570.647
153408,158087,9125,-0.219,1.002,0.04,0.427,0.732,0.305,570.651
153408,158061,13945,-0.216,1.007,0.037,-0.305,0.305,0.61,570.657
153394,158087,9125,-0.214,1.008,0.039,-0.305,0.305,0.61,570.661
153394,158091,13945,-0.216,1.005,0.044,-0.793,-0.122,0.671,570.667
153409,158087,9125,-0.215,1.003,0.038,-0.793,-0.122,0.671,570.67
153409,158091,13940,-0.215,1.005,0.04,-0.671,-0.061,0.671,570.677
153402,158087,9125,-0.215,1.005,0.04,-0.671,-0.061,0.671,570.68
153402,158054,13937,-0.21,1.006,0.041,-0.366,0,0.671,570.687
153414,158087,9125,-0.21,1.006,0.041,-0.366,0,0.671,570.69
153414,158067,13953,-0.211,1.011,0.04,0,0,0.732,570.696
153392,158087,9125,-0.211,1.011,0.04,0,0,0.732,570.7
153392,158087,13957,-0.21,1.009,0.035,0,0.305,0.61,570.706
153420,158087,9125,-0.21,1.009,0.035,0,0.305,0.61,570.71
153420,158064,13970,-0.211,1.006,0.034,-0.305,0.122,0.488,570.716
153418,158087,9125,-0.211,1.006,0.034,-0.305,0.122,0.488,570.72
153418,158100,13960,-0.21,1.007,0.037,-0.366,-0.183,0.549,570.726
153403,158087,9125,-0.21,1.007,0.037,-0.366,-0.183,0.549,570.73
153403,158078,13960,-0.211,0.998,0.034,0,-0.183,0.61,570.736
153420,158087,9125,-0.211,0.998,0.034,0,-0.183,0.61,570.74
153420,158111,13961,-0.211,1.003,0.042,0.549,-0.244,0.427,570.746
153424,158087,9125,-0.211,1.003,0.042,0.549,-0.244,0.427,570.75
153424,158067,13958,-0.214,1.002,0.045,0.61,-0.183,0.366,570.756
153416,158087,9125,-0.214,1.002,0.045,0.61,-0.183,0.366,570.76
153416,158097,13970,-0.213,1.012,0.047,0.427,0,0.488,570.766
153450,158087,9125,-0.213,1.012,0.047,0.427,0,0.488,570.77
153450,158095,13945,-0.217,1.004,0.056,0.061,-0.122,0.549,570.776
153420,158087,9125,-0.217,1.004,0.056,0.061,-0.122,0.549,570.779
153420,158114,13959,-0.21,1.004,0.056,-0.122,-0.244,0.549,570.786
153443,158087,9125,-0.21,1.004,0.056,-0.122,-0.244,0.549,570.789
153443,158130,13959,-0.213,1.008,0.054,0,0.061,0.549,570.795
153447,158087,9125,-0.213,1.008,0.054,0,0.061,0.549,570.799
153447,158081,13974,-0.21,1.009,0.05,0.244,0.549,0.488,570.805
153439,158087,9125,-0.21,1.009,0.05,0.244,0.549,0.488,570.809
153439,158100,13973,-0.212,1.011,0.044,0.305,0.854,0.244,570.815
153426,158087,9125,-0.212,1.011,0.044,0.305,0.854,0.244,570.819
153426,158108,13956,-0.215,1.008,0.046,0.305,0.854,0.244,570.825
153446,158087,9125,-0.213,1.007,0.042,0,0.793,0.122,570.829
153446,158111,13973,-0.21,1.006,0.037,0,0.793,0.122,570.835
153417,158087,9125,-0.209,1.006,0.04,-0.427,0.549,0.061,570.839
153417,158110,13972,-0.212,1.004,0.035,-0.427,0.549,0.061,570.845
153453,158087,9125,-0.211,1.003,0.031,-0.244,0.427,0.122,570.849
153453,158140,13960,-0.209,1.006,0.034,-0.244,0.427,0.122,570.855
153437,158087,9125,-0.212,1.004,0.037,0.183,0.366,0.183,570.859
153437,158140,13982,-0.207,1.004,0.041,0.183,0.366,0.183,570.865
153451,158087,9125,-0.208,1.008,0.043,0.244,0.793,0.183,570.868
153451,158132,13968,-0.211,1.005,0.039,0.244,0.793,0.183,570.875
153420,158087,9125,-0.21,1.007,0.037,0.183,0.671,0.244,570.878
153420,158134,13976,-0.212,1.005,0.041,0.183,0.671,0.244,570.885
153455,158087,9125,-0.214,1.004,0.039,0.244,0.488,0.244,570.888
153455,158116,13962,-0.211,1.003,0.042,0.244,0.488,0.244,570.894
153425,158087,9125,-0.211,1.005,0.039,0.244,0.61,0.244,570.898
153425,158133,13976,-0.215,1.006,0.037,0.244,0.61,0.244,570.904
153408,158087,9125,-0.216,1.008,0.036,0.061,0.549,0.183,570.908
153408,158129,13984,-0.214,1.008,0.037,0.061,0.549,0.183,570.914
153426,158087,9125,-0.214,1.004,0.036,0.122,0.488,0.183,570.918
153426,158121,13971,-0.214,1.002,0.038,0.122,0.488,0.183,570.924
153422,158087,9125,-0.217,1.001,0.042,-0.122,0.61,0.366,570.928
153422,158106,13976,-0.217,1.004,0.047,-0.122,0.61,0.366,570.934
153423,158087,9125,-0.218,1.002,0.046,-0.183,0.366,0.366,570.938
153423,158116,13973,-0.215,1.004,0.043,-0.183,0.366,0.366,570.944
153410,158087,9125,-0.215,1.006,0.043,0.061,0.305,0.244,570.948
153410,158122,13972,-0.219,1.007,0.052,0.061,0.305,0.244,570.954
153427,158087,9125,-0.217,1.008,0.055,0.122,0.549,0.305,570.958
153427,158108,13983,-0.219,1.01,0.052,0.122,0.549,0.305,570.964
153419,158087,9125,-0.215,1.005,0.045,-0.305,0.671,0.427,570.968
153419,158103,13970,-0.216,1.004,0.04,-0.305,0.671,0.427,570.974
153426,158087,9125,-0.215,1.004,0.038,-0.732,0.366,0.305,570.977
153426,158109,13971,-0.209,1.003,0.038,-0.732,0.366,0.305,570.984
153451,158087,9125,-0.209,1.004,0.036,-0.854,0.183,0.488,570.987
153451,158129,13974,-0.213,1.005,0.038,-0.854,0.183,0.488,570.993
153439,158087,9125,-0.209,1.011,0.034,-0.549,0.427,0.671,570.997
153439,158120,13970,-0.211,1.008,0.038,-0.549,0.427,0.671,571.003
153440,158087,9125,-0.21,1.003,0.035,0,0.61,0.366,571.007
153440,158112,13972,-0.211,1.007,0.032,0,0.61,0.366,571.013
153451,158087,9125,-0.212,1.009,0.034,0.305,0.61,0.122,571.017
153451,158120,13976,-0.212,1.006,0.036,0.305,0.61,0.122,571.023
153456,158087,9125,-0.21,1.005,0.036,0.061,0.427,0.305,571.027
153456,158118,13980,-0.208,1.004,0.04,0.061,0.427,0.305,571.033
153443,158087,9125,-0.211,1.001,0.039,-0.183,0.183,0.427,571.037
153443,158103,13977,-0.21,0.998,0.037,-0.183,0.183,0.427,571.043
153450,158087,9125,-0.21,1.001,0.038,0.244,0.183,0.427,571.047
153450,158101,13971,-0.213,1.002,0.039,0.244,0.183,0.427,571.053
153442,158087,9125,-0.21,1.001,0.046,0.488,0.305,0.488,571.057
153442,158089,13964,-0.211,1.001,0.048,0.488,0.305,0.488,571.063
153430,158087,9125,-0.217,1.002,0.043,0.671,0.305,0.549,571.066
153430,158096,13968,-0.217,1.007,0.04,0.671,0.305,0.549,571.073
153429,158087,9125,-0.214,1.01,0.042,0.549,0.244,0.732,571.076
153429,158071,13978,-0.215,1.009,0.045,0.549,0.244,0.732,571.083
153453,158087,9125,-0.217,1.007,0.045,0.366,0.122,0.671,571.086
153453,158085,13962,-0.219,1.01,0.042,0.366,0.122,0.671,571.092
153448,158087,9125,-0.213,1.01,0.044,-0.122,-0.183,0.549,571.096
153448,158099,13961,-0.212,1.005,0.041,-0.122,-0.183,0.549,571.102
153440,158087,9125,-0.213,1.006,0.041,-0.061,-0.305,0.671,571.106
153440,158085,13956,-0.214,1.009,0.04,-0.061,-0.305,0.671,571.112
153461,158087,9125,-0.209,1.007,0.042,0.488,0.183,0.549,571.116
153461,158098,13957,-0.211,1.005,0.043,0.488,0.183,0.549,571.122
153446,158087,9125,-0.211,1.007,0.04,1.098,0.549,0.366,571.126
153446,158125,13954,-0.214,1.008,0.037,1.098,0.549,0.366,571.132
153443,158087,9125,-0.215,0.996,0.036,1.341,0.427,0.488,571.136
153443,158076,13957,-0.216,0.981,0.027,1.341,0.427,0.488,571.142
153441,158087,9125,-0.213,0.961,0.019,3.354,-0.488,0.915,571.146
153441,158093,13955,-0.198,0.947,0.038,3.354,-0.488,0.915,571.152
153460,158087,9125,-0.188,0.978,0.049,8.049,-1.159,2.134,571.156
153460,158108,13975,-0.189,1.032,0.042,8.049,-1.159,2.134,571.162
153449,158087,9125,-0.199,1.061,0.043,10.915,2.012,2.073,571.166
153449,158106,13955,-0.21,1.057,0.053,10.915,2.012,2.073,571.172
153447,158087,9125,-0.224,1.044,0.062,9.939,4.878,-0.549,571.175
153447,158093,13933,-0.237,1.04,0.057,9.939,4.878,-0.549,571.182
153472,158087,9125,-0.241,1.031,0.033,1.646,2.317,-0.488,571.185
153472,158099,13939,-0.229,1.013,0.022,1.646,2.317,-0.488,571.191
153455,158087,9125,-0.208,0.993,0.026,-5.671,-2.561,0.732,571.195
153455,158085,13954,-0.19,0.989,0.033,-5.671,-2.561,0.732,571.201
153449,158087,9125,-0.189,0.991,0.029,-5.488,-2.866,1.22,571.205
153449,158104,13958,-0.193,0.998,0.03,-5.488,-2.866,1.22,571.211
153428,158087,9125,-0.203,1,0.031,-0.244,1.037,0.488,571.215
153428,158071,13940,-0.21,1.004,0.032,-0.244,1.037,0.488,571.221
153433,158087,9125,-0.219,1.015,0.03,3.963,2.927,-0.671,571.225
153433,158080,13952,-0.224,1.019,0.029,3.963,2.927,-0.671,571.231
153433,158087,9125,-0.226,1.019,0.028,2.866,1.829,-0.671,571.235
153433,158060,13931,-0.22,1.013,0.031,2.866,1.829,-0.671,571.241
153425,158087,9125,-0.215,1.007,0.033,-0.793,-0.427,0.366,571.245
153425,158079,13950,-0.207,1.005,0.035,-0.793,-0.427,0.366,571.251
153450,158087,9125,-0.206,1.003,0.038,-2.744,-1.341,0.854,571.255
153450,158076,13941,-0.205,1.002,0.035,-2.744,-1.341,0.854,571.261
153433,158087,9125,-0.209,0.997,0.034,-1.89,-0.244,0.427,571.264
153433,158070,13945,-0.21,0.993,0.03,-1.89,-0.244,0.427,571.271
153453,158087,9125,-0.21,0.993,0.03,-1.89,-0.244,0.427,571.274
153453,158071,13956,-0.215,1,0.031,-0.305,0.854,0.122,571.281
153438,158087,9125,-0.215,1,0.031,-0.305,0.854,0.122,571.284
153438,158066,13959,-0.211,1.005,0.04,0.305,0.671,0.305,571.291
153464,158087,9125,-0.211,1.005,0.04,0.305,0.671,0.305,571.294
153464,158084,13928,-0.213,1.008,0.036,0.061,0.488,0.671,571.3
153442,158087,9125,-0.213,1.008,0.036,0.061,0.488,0.671,571.304
153442,158078,13939,-0.211,1.004,0.037,-0.671,0.366,0.61,571.31
153436,158087,9125,-0.211,1.004,0.037,-0.671,0.366,0.61,571.314
153436,158072,13964,-0.211,1.009,0.039,-1.159,0.061,0.549,571.32
153468,158087,9125,-0.211,1.009,0.039,-1.159,0.061,0.549,571.324
153468,158115,13948,-0.209,1.003,0.036,-1.463,0.122,0.732,571.33
153451,158087,9125,-0.209,1.003,0.036,-1.463,0.122,0.732,571.334
153451,158106,13962,-0.212,1.006,0.034,-0.793,0.366,0.671,571.34
153477,158087,9125,-0.212,1.006,0.034,-0.793,0.366,0.671,571.344
153477,158113,13948,-0.211,1.015,0.035,-0.305,0.488,0.549,571.35
153481,158087,9125,-0.211,1.015,0.035,-0.305,0.488,0.549,571.354
153481,158135,13950,-0.214,1.01,0.034,-0.366,0.488,0.549,571.36
153494,158087,9125,-0.214,1.01,0.034,-0.366,0.488,0.549,571.364
153494,158113,13964,-0.213,1.007,0.03,-0.427,0.488,0.549,571.37
153492,158087,9125,-0.213,1.007,0.03,-0.427,0.488,0.549,571.373
153492,158121,13956,-0.207,1.006,0.031,-0.732,0.183,0.427,571.38
153480,158087,9125,-0.207,1.006,0.031,-0.732,0.183,0.427,571.383
153480,158093,13949,-0.21,1.008,0.032,-0.732,-0.183,0.488,571.389
153486,158087,9125,-0.21,1.008,0.032,-0.732,-0.183,0.488,571.393
153486,158104,13950,-0.211,1.007,0.032,-0.244,-0.061,0.549,571.399
153475,158087,9125,-0.211,1.007,0.032,-0.244,-0.061,0.549,571.403
153475,158112,13956,-0.214,1.009,0.036,0.122,0.244,0.305,571.409
153464,158087,9125,-0.214,1.009,0.036,0.122,0.244,0.305,571.413
153464,158115,13959,-0.216,1.007,0.039,0.061,0.366,0.183,571.419
153464,158087,9125,-0.213,1.007,0.036,0.061,0.366,0.183,571.423
153464,158068,13940,-0.214,1.008,0.035,-0.305,0.061,0.366,571.429
153440,158087,9125,-0.211,1.006,0.036,-0.305,0.061,0.366,571.433
153440,158093,13959,-0.212,1,0.042,-0.61,0,0.366,571.439
153485,158087,9125,-0.214,1.002,0.042,-0.61,0,0.366,571.443
153485,158098,13960,-0.214,1.005,0.042,-0.854,-0.061,0.427,571.449
153484,158087,9125,-0.213,1.004,0.043,-0.854,-0.061,0.427,571.453
153484,158157,13947,-0.211,1.002,0.041,-0.488,-0.122,0.61,571.459
153460,158087,9125,-0.211,1.004,0.04,-0.488,-0.122,0.61,571.463
153460,158130,13960,-0.212,1.01,0.041,0,0.122,0.671,571.469
153485,158087,9125,-0.213,1.015,0.039,0,0.122,0.671,571.472
153485,158132,13957,-0.215,1.009,0.038,-0.366,0.183,0.427,571.479
153461,158087,9125,-0.216,1.003,0.04,-0.366,0.183,0.427,571.482
153461,158102,13947,-0.215,1.004,0.04,-1.037,0.122,0.366,571.489
153452,158087,9125,-0.215,1.007,0.036,-1.037,0.122,0.366,571.492
153452,158121,13963,-0.212,1.004,0.038,-1.402,-0.122,0.427,571.498
153501,158087,9125,-0.214,0.999,0.039,-1.402,-0.122,0.427,571.502
153501,158136,13947,-0.212,1.003,0.036,-0.793,-0.061,0.305,571.508
153498,158087,9125,-0.21,1.006,0.032,-0.793,-0.061,0.305,571.512
153498,158156,13960,-0.212,1.006,0.031,-0.244,0.122,0.366,571.518
153502,158087,9125,-0.211,1.003,0.032,-0.244,0.122,0.366,571.522
153502,158144,13967,-0.208,1.005,0.034,0.244,0.122,0.366,571.528
153487,158087,9125,-0.212,1.011,0.035,0.244,0.122,0.366,571.532
153487,158131,13959,-0.212,1.012,0.039,0.183,0.305,0.427,571.538
153479,158087,9125,-0.208,1.012,0.041,0.183,0.305,0.427,571.542
153479,158105,13964,-0.206,1.01,0.044,-0.305,0.061,0.427,571.548
153477,158087,9125,-0.209,1.014,0.042,-0.305,0.061,0.427,571.552
153477,158117,13961,-0.208,1.01,0.037,-1.159,-0.061,0.427,571.558
153499,158087,9125,-0.208,1.004,0.031,-1.159,-0.061,0.427,571.562
153499,158126,13955,-0.205,1.003,0.031,-1.341,-0.122,0.366,571.568
153478,158087,9125,-0.205,1.005,0.031,-1.341,-0.122,0.366,571.571
153478,158130,13964,-0.206,1.003,0.035,-1.098,-0.122,0.305,571.578
153482,158087,9125,-0.209,1,0.044,-1.098,-0.122,0.305,571.581
153482,158097,13951,-0.214,0.999,0.041,-0.183,0.244,0.305,571.588
153469,158087,9125,-0.217,1.003,0.04,-0.183,0.244,0.305,571.591
153469,158134,13964,-0.217,1.006,0.043,0.732,0.671,0.122,571.597
153453,158087,9125,-0.214,1.012,0.042,0.732,0.671,0.122,571.601
153453,158113,13966,-0.215,1.009,0.044,0.183,0.488,0.122,571.607
153481,158087,9125,-0.214,1.006,0.042,0.183,0.488,0.122,571.611
153481,158127,13966,-0.213,1.006,0.047,-1.037,0,0.305,571.617
153482,158087,9125,-0.212,1.001,0.042,-1.037,0,0.305,571.621
153482,158136,13977,-0.211,0.999,0.043,-1.341,-0.183,0.671,571.627
153499,158087,9125,-0.209,0.998,0.039,-1.341,-0.183,0.671,571.631
153499,158129,13964,-0.208,1.003,0.035,-0.427,0.122,0.671,571.637
153494,158087,9125,-0.21,1.006,0.036,-0.427,0.122,0.671,571.641
153494,158143,13963,-0.211,1.009,0.041,0.244,0.732,0.488,571.647
153482,158087,9125,-0.211,1.012,0.035,0.244,0.732,0.488,571.651
153482,158136,13956,-0.211,1.013,0.037,0.244,1.037,0.427,571.657
153464,158087,9125,-0.212,1.015,0.038,0.244,1.037,0.427,571.661
153464,158137,13974,-0.208,1.021,0.034,-0.244,0.671,0.305,571.667
153483,158087,9125,-0.208,1.016,0.032,-0.244,0.671,0.305,571.67
153483,158156,13966,-0.208,1.014,0.033,-0.549,0.305,0.061,571.677
153472,158087,9125,-0.208,1.009,0.032,-0.549,0.305,0.061,571.68
153472,158154,13974,-0.207,1.006,0.031,-1.037,0.244,-0.061,571.687
153497,158087,9125,-0.208,1,0.03,-1.037,0.244,-0.061,571.69
153497,158143,13960,-0.207,0.997,0.035,-1.159,-0.061,-0.122,571.696
153485,158087,9125,-0.207,0.993,0.035,-1.159,-0.061,-0.122,571.7
153485,158153,13971,-0.203,0.998,0.036,-0.427,0,-0.061,571.706
153516,158087,9125,-0.207,1.001,0.038,-0.427,0,-0.061,571.71
153516,158166,13977,-0.214,1,0.043,0.183,0.61,0.122,571.716
153486,158087,9125,-0.213,1,0.041,0.183,0.61,0.122,571.72
153486,158172,13985,-0.21,1.002,0.043,0.671,0.671,0.061,571.726
153486,158087,9125,-0.215,1.004,0.045,0.671,0.671,0.061,571.73
153486,158168,13976,-0.215,1.007,0.047,0.122,0.427,0.305,571.736
153509,158087,9125,-0.218,1.006,0.045,0.122,0.427,0.305,571.74
153509,158170,13965,-0.215,1.005,0.042,-0.549,0.244,0.549,571.746
153498,158087,9125,-0.214,1.003,0.044,-0.549,0.244,0.549,571.75
153498,158163,13978,-0.212,1.005,0.044,-0.793,0.061,0.671,571.756
153501,158087,9125,-0.211,1.01,0.04,-0.793,0.061,0.671,571.76
153501,158153,13956,-0.212,1.012,0.04,-0.671,0.549,0.549,571.766
153483,158087,9125,-0.214,1.008,0.04,-0.671,0.549,0.549,571.769
153483,158151,13982,-0.214,1.007,0.037,0,0.976,0.183,571.776
153502,158087,9125,-0.216,1.014,0.037,0,0.976,0.183,571.779
153502,158140,13978,-0.219,1.015,0.039,0.366,1.037,0,571.786
153489,158087,9125,-0.218,1.013,0.036,0.366,1.037,0,571.789
153489,158147,13972,-0.218,1.01,0.039,0.061,0.915,-0.122,571.795
153486,158087,9125,-0.217,1.008,0.034,0.061,0.915,-0.122,571.799
153486,158155,13991,-0.214,1.007,0.029,-0.671,0.61,-0.122,571.805
153502,158087,9125,-0.212,1.001,0.027,-0.671,0.61,-0.122,571.809
153502,158163,13979,-0.209,0.998,0.029,-0.61,0.122,-0.183,571.815
153496,158087,9125,-0.213,0.999,0.022,-0.61,0.122,-0.183,571.819
153496,158147,13977,-0.215,0.998,0.024,-0.183,0,0,571.825
153494,158087,9125,-0.2,1.002,0.048,-0.183,0,0,571.829
153494,158190,13972,-0.199,1.014,0.04,0.549,0.183,0.244,571.835
153498,158087,9125,-0.208,1.003,0.016,0.549,0.183,0.244,571.839
153498,158161,13979,-0.21,1.004,0.018,0.549,0.427,0.183,571.845
153510,158087,9125,-0.209,1.006,0.052,0.549,0.427,0.183,571.849
153510,158176,13986,-0.22,1.004,0.062,-0.427,0.183,0.183,571.855
153504,158087,9125,-0.223,1,0.033,-0.427,0.183,0.183,571.859
153504,158146,13994,-0.214,1.004,0.024,-1.098,0.183,0.305,571.865
153517,158087,9125,-0.214,1.004,0.024,-1.098,0.183,0.305,571.868
153517,158182,13982,-0.208,1.006,0.045,-0.671,-0.183,0.183,571.875
153521,158087,9125,-0.208,1.006,0.045,-0.671,-0.183,0.183,571.878
153521,158163,13980,-0.214,1.007,0.032,0.183,0.305,0.366,571.885
153507,158087,9125,-0.214,1.007,0.032,0.183,0.305,0.366,571.888
153507,158162,13970,-0.217,1.005,0.036,0.366,0.671,0,571.894
153496,158087,9125,-0.217,1.005,0.036,0.366,0.671,0,571.898
153496,158191,13980,-0.218,1.004,0.039,0.061,0.183,0.061,571.904
153489,158087,9125,-0.218,1.004,0.039,0.061,0.183,0.061,571.908
153489,158187,13979,-0.211,1.009,0.038,-0.183,-0.122,0.305,571.914
153500,158087,9125,-0.211,1.009,0.038,-0.183,-0.122,0.305,571.918
153500,158186,13974,-0.216,0.999,0.041,-0.732,0.061,0.183,571.924
153516,158087,9125,-0.216,0.999,0.041,-0.732,0.061,0.183,571.928
153516,158193,14006,-0.217,1.002,0.039,-1.22,-0.061,0.122,571.934
153516,158087,9125,-0.217,1.002,0.039,-1.22,-0.061,0.122,571.938
153516,158177,13976,-0.213,1.005,0.038,-1.037,-0.122,0.366,571.944
153533,158087,9125,-0.213,1.005,0.038,-1.037,-0.122,0.366,571.948
153533,158190,13980,-0.209,1.005,0.037,-0.793,0.122,0.305,571.954
153515,158087,9125,-0.209,1.005,0.037,-0.793,0.122,0.305,571.958
153515,158173,13990,-0.211,1.006,0.037,-0.488,0.244,0.305,571.964
153494,158087,9125,-0.211,1.006,0.037,-0.488,0.244,0.305,571.967
153494,158142,13979,-0.209,1.007,0.036,-0.305,0.305,0.366,571.974
153512,158087,9125,-0.209,1.007,0.036,-0.305,0.305,0.366,571.977
153512,158134,13974,-0.209,1.008,0.034,0.122,0.549,0.427,571.984
153489,158087,9125,-0.209,1.008,0.034,0.122,0.549,0.427,571.987
153489,158123,13978,-0.212,1.006,0.037,0.061,0.671,0.244,571.993
153489,158087,9125,-0.212,1.006,0.037,0.061,0.671,0.244,571.997
153489,158142,13975,-0.21,1.004,0.033,-0.305,0.488,0.122,572.003
153495,158087,9125,-0.21,1.004,0.033,-0.305,0.488,0.122,572.007
153495,158113,13964,-0.21,1,0.038,-0.305,0.488,0.122,572.013
153481,158087,9125,-0.21,1,0.04,-0.488,0.183,0.244,572.017
153481,158142,13973,-0.211,1,0.042,-0.488,0.183,0.244,572.023
153474,158087,9125,-0.213,1.002,0.041,-0.183,0.488,0.366,572.027
153474,158122,13976,-0.214,1.003,0.039,-0.183,0.488,0.366,572.033
153512,158087,9125,-0.215,1.003,0.04,0.366,0.671,0.488,572.037
153512,158133,13961,-0.216,1.005,0.041,0.366,0.671,0.488,572.043
153507,158087,9125,-0.216,1.005,0.038,0.366,0.671,0.366,572.047
153507,158095,13962,-0.214,1.007,0.038,0.366,0.671,0.366,572.053
153511,158087,9125,-0.218,1.008,0.037,0,0.732,0.549,572.057
153511,158129,13968,-0.218,1.007,0.036,0,0.732,0.549,572.063
153514,158087,9125,-0.217,1.013,0.039,-0.305,0.549,0.427,572.066
153514,158149,13971,-0.215,1.01,0.042,-0.305,0.549,0.427,572.073
153527,158087,9125,-0.215,1.01,0.037,-0.305,0.671,0.305,572.076
153527,158138,13967,-0.211,1.007,0.034,-0.305,0.671,0.305,572.083
153517,158087,9125,-0.214,1.004,0.032,-0.061,0.732,0.244,572.086
153517,158150,13955,-0.212,1.007,0.034,-0.061,0.732,0.244,572.092
153531,158087,9125,-0.209,1.006,0.04,0,0.488,0.183,572.096
153531,158145,13959,-0.212,1.006,0.035,0,0.488,0.183,572.102
153495,158087,9125,-0.213,1.009,0.035,0,0.732,0.244,572.106
153495,158127,13960,-0.212,1.003,0.03,0,0.732,0.244,572.112
153506,158087,9125,-0.213,1,0.033,-0.122,0.61,0.122,572.116
153506,158138,13957,-0.209,1.005,0.036,-0.122,0.61,0.122,572.122
153490,158087,9125,-0.21,1.003,0.036,-0.427,0.183,0.183,572.126
153490,158113,13953,-0.21,1.001,0.038,-0.427,0.183,0.183,572.132
153462,158087,9125,-0.21,1.003,0.036,-0.671,0.244,0.488,572.136
153462,158093,13959,-0.208,0.999,0.035,-0.671,0.244,0.488,572.142
153492,158087,9125,-0.209,0.997,0.037,-0.549,0.366,0.366,572.146
153492,158114,13956,-0.212,1.003,0.034,-0.549,0.366,0.366,572.152
153464,158087,9125,-0.213,1.005,0.032,-0.122,0.427,0.549,572.156
153464,158109,13974,-0.21,1.009,0.034,-0.122,0.427,0.549,572.162
153513,158087,9125,-0.211,1.008,0.038,0.183,0.61,0.671,572.165
153513,158104,13943,-0.215,1.01,0.042,0.183,0.61,0.671,572.172
153506,158087,9125,-0.214,1.012,0.04,-0.305,0.61,0.549,572.175
153506,158112,13955,-0.215,1.009,0.035,-0.305,0.61,0.549,572.182
153481,158087,9125,-0.212,1.006,0.031,-0.366,0.366,0.488,572.185
153481,158109,13942,-0.214,1.007,0.036,-0.366,0.366,0.488,572.191
153487,158087,9125,-0.216,1.008,0.039,-0.427,0.183,0.366,572.195
153487,158101,13950,-0.212,1.006,0.04,-0.427,0.183,0.366,572.201
153500,158087,9125,-0.212,1.003,0.04,-0.61,0.244,0.366,572.205
153500,158140,13941,-0.212,1.005,0.039,-0.61,0.244,0.366,572.211
153490,158087,9125,-0.212,1.004,0.037,-0.549,0.305,0.305,572.215
153490,158105,13935,-0.211,1.004,0.036,-0.549,0.305,0.305,572.221
153498,158087,9125,-0.214,1.007,0.037,-0.427,0.305,0.305,572.225
153498,158132,13942,-0.21,1.005,0.038,-0.427,0.305,0.305,572.231
153495,158087,9125,-0.214,1.007,0.039,-0.488,0.549,0.366,572.235
153495,158108,13939,-0.216,1.006,0.041,-0.488,0.549,0.366,572.241
153479,158087,9125,-0.215,1.003,0.038,-0.427,0.61,0.427,572.245
153479,158115,13942,-0.213,1.007,0.036,-0.427,0.61,0.427,572.251
153489,158087,9125,-0.211,1.004,0.037,0,0.549,0.244,572.255
153489,158120,13939,-0.208,1.008,0.034,0,0.549,0.244,572.261
153487,158087,9125,-0.21,1.007,0.039,0.244,0.61,0.244,572.264
153487,158101,13957,-0.214,1.007,0.041,0.244,0.61,0.244,572.271
153500,158087,9125,-0.213,1.007,0.034,0,0.671,0.244,572.274
153500,158130,13949,-0.213,1.005,0.032,0,0.671,0.244,572.281
153474,158087,9125,-0.213,1.007,0.035,-0.183,0.427,0.183,572.284
153474,158120,13943,-0.21,1.005,0.033,-0.183,0.427,0.183,572.29
153463,158087,9125,-0.211,1.004,0.037,-0.671,0.366,0.305,572.294
153463,158113,13944,-0.212,1.004,0.038,-0.671,0.366,0.305,572.3
153472,158087,9125,-0.211,1.002,0.039,-1.037,0.244,0.488,572.304
153472,158119,13939,-0.21,1.003,0.038,-1.037,0.244,0.488,572.31
153487,158087,9125,-0.208,1.006,0.038,-0.488,0.122,0.488,572.314
153487,158114,13943,-0.209,1.009,0.039,-0.488,0.122,0.488,572.32
153472,158087,9125,-0.21,1.004,0.04,0.183,0.488,0.244,572.324
153472,158113,13947,-0.213,1.003,0.036,0.183,0.488,0.244,572.33
153475,158087,9125,-0.212,1.004,0.039,0.305,0.732,0.183,572.334
153475,158134,13938,-0.215,1.005,0.042,0.305,0.732,0.183,572.34
153483,158087,9125,-0.217,1.007,0.039,0.305,0.61,0.427,572.344
153483,158098,13951,-0.216,1.008,0.036,0.305,0.61,0.427,572.35
153474,158087,9125,-0.214,1.008,0.038,0.244,0.488,0.366,572.354
153474,158107,13958,-0.214,1.007,0.04,0.244,0.488,0.366,572.36
153491,158087,9125,-0.218,1.005,0.039,-0.061,0.488,0.305,572.364
153491,158099,13957,-0.22,1.007,0.035,-0.061,0.488,0.305,572.37
153489,158087,9125,-0.212,1.004,0.033,-0.427,0.183,0.366,572.373
153489,158102,13948,-0.213,1.003,0.036,-0.427,0.183,0.366,572.38
153493,158087,9125,-0.214,1.007,0.033,-0.427,-0.122,0.305,572.383
153493,158102,13939,-0.213,1.007,0.036,-0.427,-0.122,0.305,572.389
153498,158087,9125,-0.216,1.009,0.04,-0.305,0.122,0.305,572.393
153498,158155,13943,-0.214,1.006,0.042,-0.305,0.122,0.305,572.399
153492,158087,9125,-0.213,1.005,0.037,0,0.488,0.305,572.403
153492,158115,13951,-0.215,1.005,0.039,0,0.488,0.305,572.409
153505,158087,9125,-0.214,1.005,0.045,-0.122,0.549,0.122,572.413
153505,158135,13943,-0.214,1.004,0.042,-0.122,0.549,0.122,572.419
153491,158087,9125,-0.213,1.005,0.039,-0.488,0.427,0.244,572.423
153491,158142,13952,-0.211,1.005,0.037,-0.488,0.427,0.244,572.429
153508,158087,9125,-0.209,1.002,0.035,-0.427,0.244,0.366,572.433
153508,158127,13945,-0.21,1.001,0.04,-0.427,0.244,0.366,572.439
153484,158087,9125,-0.211,1.004,0.043,-0.244,0.305,0.488,572.443
153484,158148,13947,-0.212,1.002,0.037,-0.244,0.305,0.488,572.449
153497,158087,9125,-0.213,1.005,0.037,-0.122,0.549,0.549,572.453
153497,158117,13952,-0.208,1.005,0.034,-0.122,0.549,0.549,572.459
153507,158087,9125,-0.208,1.005,0.034,-0.122,0.549,0.549,572.463
153507,158113,13956,-0.211,1.007,0.042,0.244,0.366,0.488,572.469
153493,158087,9125,-0.211,1.007,0.042,0.244,0.366,0.488,572.472
153493,158135,13960,-0.212,1.009,0.047,0.122,0.61,0.427,572.479
153496,158087,9125,-0.212,1.009,0.047,0.122,0.61,0.427,572.482
153496,158130,13951,-0.212,1.005,0.036,-0.122,0.549,0.244,572.488
153493,158087,9125,-0.212,1.005,0.036,-0.122,0.549,0.244,572.492
153493,158138,13953,-0.212,1.005,0.036,0,0.488,0.244,572.498
153498,158087,9125,-0.212,1.005,0.036,0,0.488,0.244,572.502
153498,158122,13954,-0.212,1.003,0.036,0.183,0.549,0.305,572.508
153468,158087,9125,-0.212,1.003,0.036,0.183,0.549,0.305,572.512
153468,158127,13961,-0.217,1.008,0.039,0.122,0.732,0.244,572.518
153504,158087,9125,-0.217,1.008,0.039,0.122,0.732,0.244,572.522
153504,158107,13960,-0.213,1.006,0.032,0.427,0.732,0.183,572.528
153504,158087,9125,-0.213,1.006,0.032,0.427,0.732,0.183,572.532
153504,158128,13955,-0.217,1.009,0.038,0.61,0.61,0.244,572.538
153496,158087,9125,-0.217,1.009,0.038,0.61,0.61,0.244,572.542
153496,158115,13956,-0.216,1.008,0.035,0.488,0.732,0.305,572.548
153506,158087,9125,-0.216,1.008,0.035,0.488,0.732,0.305,572.552
153506,158123,13967,-0.216,1.004,0.035,0.122,0.549,0.061,572.558
153487,158087,9125,-0.216,1.004,0.035,0.122,0.549,0.061,572.561
153487,158134,13955,-0.213,0.999,0.034,0.183,0.366,-0.061,572.568
153478,158087,9125,-0.213,0.999,0.034,0.183,0.366,-0.061,572.571
153478,158109,13955,-0.214,1.002,0.036,0.305,0.488,0.122,572.578
153507,158087,9125,-0.214,1.002,0.036,0.305,0.488,0.122,572.581
153507,158144,13956,-0.208,1.003,0.042,0.61,0.488,0.366,572.587
153475,158087,9125,-0.208,1.003,0.042,0.61,0.488,0.366,572.591
153475,158129,13959,-0.211,1.01,0.04,0.671,0.732,0.366,572.597
153484,158087,9125,-0.211,1.01,0.04,0.671,0.732,0.366,572.601
153484,158147,13933,-0.209,1.011,0.029,0.305,0.915,0.305,572.607
153481,158087,9125,-0.204,1.007,0.031,0.305,0.915,0.305,572.611
153481,158132,13955,-0.207,1.005,0.038,-0.183,0.549,0.366,572.617
153492,158087,9125,-0.209,1.006,0.037,-0.183,0.549,0.366,572.621
153492,158144,13950,-0.212,1.004,0.035,-0.427,0.549,0.488,572.627
153479,158087,9125,-0.217,1.003,0.036,-0.427,0.549,0.488,572.631
153479,158135,13972,-0.217,1.003,0.037,0.122,0.854,0.122,572.637
153490,158087,9125,-0.217,1.003,0.035,0.122,0.854,0.122,572.641
153490,158151,13966,-0.218,1.004,0.038,0.671,0.61,0,572.647
153483,158087,9125,-0.219,1.003,0.044,0.671,0.61,0,572.651
153483,158150,13964,-0.219,1.003,0.041,0.366,0.366,0.366,572.657
153501,158087,9125,-0.218,1.003,0.037,0.366,0.366,0.366,572.661
153501,158147,13970,-0.219,1.001,0.034,-0.122,0.183,0.488,572.667
153483,158087,9125,-0.21,1.006,0.036,-0.122,0.183,0.488,572.67
153483,158130,13947,-0.207,1.006,0.039,-0.427,0.061,0.549,572.677
153482,158087,9125,-0.215,1.001,0.039,-0.427,0.061,0.549,572.68
153482,158128,13972,-0.214,1,0.037,-0.305,0.061,0.732,572.686
153478,158087,9125,-0.214,1.005,0.034,-0.305,0.061,0.732,572.69
153478,158140,13962,-0.214,1.008,0.036,-0.366,0.488,0.61,572.696
153487,158087,9125,-0.211,1.004,0.034,-0.366,0.488,0.61,572.7
153487,158138,13958,-0.211,1.009,0.035,0.244,0.488,0.427,572.706
153468,158087,9125,-0.212,1.011,0.035,0.244,0.488,0.427,572.71
153468,158164,13958,-0.21,1.013,0.029,0.488,0.549,0.488,572.716
153488,158087,9125,-0.207,1.015,0.032,0.488,0.549,0.488,572.72
153488,158138,13952,-0.211,1.014,0.032,0.122,0.549,0.427,572.726
153492,158087,9125,-0.211,1.008,0.032,0.122,0.549,0.427,572.73
153492,158159,13977,-0.211,1.007,0.033,-0.122,0.122,0.244,572.736
153489,158087,9125,-0.209,1.008,0.03,-0.122,0.122,0.244,572.74
153489,158158,13957,-0.209,1.006,0.031,-0.122,0.122,0,572.746
153492,158087,9125,-0.207,1.003,0.034,-0.122,0.122,0,572.75
153492,158134,13973,-0.21,1.001,0.036,0.061,0.122,-0.061,572.756
153509,158087,9125,-0.212,1.001,0.039,0.061,0.122,-0.061,572.759
153509,158149,13971,-0.215,1.002,0.045,0.061,0.183,0.183,572.766
153503,158087,9125,-0.213,1.002,0.044,0.061,0.183,0.183,572.769
153503,158158,13979,-0.216,1.003,0.047,0.366,0.244,0.366,572.776
153510,158087,9125,-0.213,1.002,0.044,0.366,0.244,0.366,572.779
153510,158149,13975,-0.21,1.003,0.044,0.305,0.427,0.305,572.785
153532,158087,9125,-0.211,1.002,0.045,0.305,0.427,0.305,572.789
153532,158152,13968,-0.214,0.999,0.044,0,0.549,0.488,572.795
153514,158087,9125,-0.215,1.007,0.045,0,0.549,0.488,572.799
153514,158170,13982,-0.214,1.007,0.044,-0.366,0.549,0.671,572.805
153525,158087,9125,-0.212,1.005,0.04,-0.366,0.549,0.671,572.809
153525,158172,13975,-0.209,1.005,0.037,0.061,0.671,0.549,572.815
153529,158087,9125,-0.211,1.009,0.034,0.061,0.671,0.549,572.819
153529,158163,13957,-0.215,1.012,0.034,0.366,0.915,0.305,572.825
153505,158087,9125,-0.215,1.01,0.033,0.366,0.915,0.305,572.829
153505,158163,13971,-0.217,1.008,0.031,0.305,0.915,0.183,572.835
153539,158087,9125,-0.215,1.006,0.029,0.305,0.915,0.183,572.839
153539,158174,13982,-0.212,1.007,0.031,0.061,0.549,0.244,572.845
153522,158087,9125,-0.209,1.008,0.028,0.061,0.549,0.244,572.849
153522,158188,13973,-0.21,1.006,0.032,0.183,0.183,0.305,572.855
153521,158087,9125,-0.208,1.004,0.038,0.183,0.183,0.305,572.858
153521,158194,13982,-0.211,1.006,0.037,0.366,0.366,0.305,572.865
153499,158087,9125,-0.212,1.007,0.033,0.366,0.366,0.305,572.868
153499,158205,13970,-0.212,1.007,0.035,0.366,0.488,0.183,572.875
153518,158087,9125,-0.21,1.008,0.038,0.366,0.488,0.183,572.878
153518,158185,13972,-0.212,1.013,0.035,0.244,0.549,0.183,572.884
153522,158087,9125,-0.211,1.009,0.033,0.244,0.549,0.183,572.888
153522,158179,13975,-0.208,1.006,0.034,0.122,0.671,0.244,572.894
153512,158087,9125,-0.211,1.003,0.037,0.122,0.671,0.244,572.898
153512,158191,13979,-0.211,1.004,0.036,-0.061,0.488,0.244,572.904
153496,158087,9125,-0.211,1.008,0.034,-0.061,0.488,0.244,572.908
153496,158192,13981,-0.213,1.007,0.032,0.122,0.488,0.305,572.914
153510,158087,9125,-0.213,1.005,0.033,0.122,0.488,0.305,572.918
153510,158185,13985,-0.215,1.002,0.035,0.427,0.549,0.183,572.924
153514,158087,9125,-0.219,1.003,0.034,0.427,0.549,0.183,572.928
153514,158193,13974,-0.216,1.002,0.036,0.427,0.671,0.183,572.934
153519,158087,9125,-0.214,1.004,0.036,0.427,0.671,0.183,572.938
153519,158182,13982,-0.217,1.005,0.039,0.244,0.549,0.305,572.944
153545,158087,9125,-0.216,1.008,0.04,0.244,0.549,0.305,572.948
153545,158199,13980,-0.213,1.006,0.038,0.488,0.671,0.305,572.954
153523,158087,9125,-0.216,1.003,0.035,0.488,0.671,0.305,572.957
153523,158187,13989,-0.216,1.005,0.039,0.61,0.854,0.305,572.964
153529,158343,9125,-0.214,1.003,0.043,0.61,0.854,0.305,572.967
153529,158208,13977,-0.217,1.004,0.042,0.061,0.671,0.244,572.974
153525,158087,9125,-0.219,1.004,0.039,0.061,0.671,0.244,572.977
153525,158194,13991,-0.218,1.004,0.036,-0.427,0.61,0.244,572.983
153527,158087,9125,-0.216,1.003,0.034,-0.427,0.61,0.244,572.987
153527,158196,13981,-0.213,1.004,0.032,-0.366,0.61,0.305,572.993
153545,158087,9125,-0.211,1.004,0.035,-0.366,0.61,0.305,572.997
153545,158180,13983,-0.212,1.01,0.037,-0.366,0.793,0.427,573.003
153525,158087,9125,-0.21,1.009,0.031,-0.366,0.793,0.427,573.007
153525,158188,14010,-0.213,1.006,0.028,0.061,1.037,0.244,573.013
153538,158087,9125,-0.209,1.008,0.029,0.061,1.037,0.244,573.017
153538,158155,13989,-0.211,1.006,0.027,0.305,0.915,0.183,573.023
153513,158087,9125,-0.209,1.008,0.029,0.305,0.915,0.183,573.027
153513,158190,13973,-0.21,1.007,0.035,0.427,0.793,0.305,573.033
153536,158087,9125,-0.211,1.006,0.038,0.427,0.793,0.305,573.037
153536,158167,13971,-0.21,1.005,0.031,0.488,0.976,0.366,573.043
153520,158087,9125,-0.21,1.005,0.031,0.488,0.976,0.366,573.047
153520,158159,13975,-0.209,1.003,0.031,0.366,0.793,0.183,573.053
153526,158087,9125,-0.209,1.003,0.031,0.366,0.793,0.183,573.056
153526,158164,13970,-0.214,1.007,0.041,0.122,0.549,0.244,573.063
153505,158087,9125,-0.214,1.007,0.041,0.122,0.549,0.244,573.066
153505,158165,13968,-0.214,1.002,0.038,0,0.732,0.305,573.073
153496,158087,9125,-0.214,1.002,0.038,0,0.732,0.305,573.076
153496,158143,13986,-0.217,1.006,0.036,0.061,1.037,0.183,573.082
153494,158087,9125,-0.217,1.006,0.036,0.061,1.037,0.183,573.086
153494,158149,13984,-0.22,1.002,0.034,-0.122,0.915,0.244,573.092
153529,158087,9125,-0.22,1.002,0.034,-0.122,0.915,0.244,573.096
153529,158170,13969,-0.218,1.006,0.035,-0.427,0.854,0.488,573.102
153525,158087,9125,-0.218,1.006,0.035,-0.427,0.854,0.488,573.106
153525,158146,13976,-0.216,1.005,0.035,-0.244,1.098,0.488,573.112
153538,158087,9125,-0.216,1.005,0.035,-0.244,1.098,0.488,573.116
153538,158148,13963,-0.213,1.013,0.031,0.122,1.159,0.183,573.122
153518,158087,9125,-0.213,1.013,0.031,0.122,1.159,0.183,573.126
153518,158146,13972,-0.216,1.013,0.034,-0.183,1.098,0.244,573.132
153520,158087,9125,-0.216,1.013,0.034,-0.183,1.098,0.244,573.136
153520,158144,13959,-0.214,1.013,0.032,-0.915,0.976,0.183,573.142
153524,158087,9125,-0.214,1.013,0.032,-0.915,0.976,0.183,573.146
153524,158140,13962,-0.21,1.01,0.031,-1.524,0.671,0,573.152
153512,158087,9125,-0.21,1.01,0.031,-1.524,0.671,0,573.155
153512,158120,13963,-0.21,1.003,0.026,-1.89,0.488,-0.061,573.162
153517,158087,9125,-0.21,1.003,0.026,-1.89,0.488,-0.061,573.165
153517,158135,13957,-0.208,0.997,0.031,-1.585,0.427,-0.061,573.172
153527,158087,9125,-0.208,0.997,0.031,-1.585,0.427,-0.061,573.175
153527,158122,13967,-0.208,1,0.03,-0.976,0.488,0,573.181
153531,158087,9125,-0.208,1,0.03,-0.976,0.488,0,573.185
153531,158133,13949,-0.213,0.996,0.031,-0.976,0.488,0,573.191
153515,158087,9125,-0.212,0.995,0.026,-0.061,0.488,0,573.195
153515,158140,13958,-0.208,0.995,0.03,-0.061,0.488,0,573.201
153549,158087,9125,-0.21,0.999,0.036,0.61,0.305,0.305,573.205
153549,158131,13958,-0.21,1.003,0.034,0.61,0.305,0.305,573.211
153503,158087,9125,-0.211,1.009,0.035,1.463,0.488,0.61,573.215
153503,158136,13967,-0.212,1.01,0.039,1.463,0.488,0.61,573.221
153537,158087,9125,-0.216,1.009,0.035,1.707,0.854,0.305,573.225
153537,158145,13946,-0.216,1.009,0.033,1.707,0.854,0.305,573.231
153519,158087,9125,-0.215,1.009,0.034,0.854,0.488,0.305,573.235
153519,158155,13969,-0.212,1.007,0.041,0.854,0.488,0.305,573.241
153542,158087,9125,-0.213,1.007,0.039,-0.244,-0.122,0.549,573.245
153542,158150,13952,-0.214,1.006,0.032,-0.244,-0.122,0.549,573.251
153509,158087,9125,-0.213,1.004,0.029,-0.427,0.061,0.61,573.255
153509,158142,13962,-0.213,1.007,0.036,-0.427,0.061,0.61,573.261
153507,158087,9125,-0.216,1.007,0.042,0,0.549,0.244,573.264
153507,158162,13951,-0.219,1.007,0.036,0,0.549,0.244,573.271
153521,158087,9125,-0.215,1.009,0.03,0.244,0.61,0.183,573.274
153521,158164,13954,-0.213,1.01,0.033,0.244,0.61,0.183,573.28
153504,158087,9125,-0.215,1.009,0.036,0,0.61,0.244,573.284
153504,158151,13960,-0.213,1.01,0.043,0,0.61,0.244,573.29
153531,158087,9125,-0.213,1.007,0.039,-0.305,0.854,0.305,573.294
153531,158164,13961,-0.215,1.005,0.031,-0.305,0.854,0.305,573.3
153542,158087,9125,-0.21,1.005,0.03,-0.366,0.732,0.122,573.304
153542,158148,13944,-0.211,1.004,0.033,-0.366,0.732,0.122,573.31
153524,158087,9125,-0.21,1.006,0.033,0.061,0.671,0.061,573.314
153524,158144,13948,-0.214,1.01,0.031,0.061,0.671,0.061,573.32
153520,158087,9125,-0.213,1.003,0.036,0.061,0.793,0.244,573.324
153520,158142,13958,-0.211,1.001,0.033,0.061,0.793,0.244,573.33
153525,158087,9125,-0.211,1.004,0.034,0.244,0.793,0.305,573.334
153525,158146,13958,-0.212,1.007,0.03,0.244,0.793,0.305,573.34
153533,158087,9125,-0.212,1.006,0.029,0.183,0.793,0.183,573.344
153533,158139,13960,-0.211,1.003,0.032,0.183,0.793,0.183,573.35
153516,158087,9125,-0.214,1.002,0.031,-0.061,0.793,0.244,573.354
153516,158147,13956,-0.214,1.002,0.033,-0.061,0.793,0.244,573.36
153529,158087,9125,-0.214,1.005,0.034,-0.549,0.549,0.366,573.363
153529,158144,13965,-0.212,1.004,0.035,-0.549,0.549,0.366,573.37
153522,158087,9125,-0.212,1.003,0.03,-0.427,0.488,0.427,573.373
153522,158138,13964,-0.213,1.002,0.033,-0.427,0.488,0.427,573.379
153510,158087,9125,-0.216,1.003,0.033,-0.122,0.61,0.488,573.383
153510,158143,13961,-0.216,1.006,0.028,-0.122,0.61,0.488,573.389
153512,158087,9125,-0.216,1.006,0.03,-0.183,0.549,0.427,573.393
153512,158134,13967,-0.219,1.006,0.035,-0.183,0.549,0.427,573.399
153524,158087,9125,-0.219,1.003,0.036,-0.488,0.305,0.549,573.403
153524,158133,13956,-0.219,1.004,0.039,-0.488,0.305,0.549,573.409
153508,158087,9125,-0.218,1.006,0.038,-0.671,0.244,0.793,573.413
153508,158145,13967,-0.214,1.003,0.036,-0.671,0.244,0.793,573.419
153520,158087,9125,-0.215,1.005,0.033,-0.671,0.122,0.549,573.423
153520,158123,13947,-0.212,1.005,0.029,-0.671,0.122,0.549,573.429
153505,158087,9125,-0.212,1.005,0.032,-0.793,0.305,0.427,573.433
153505,158151,13958,-0.211,1.007,0.035,-0.793,0.305,0.427,573.439
153516,158087,9125,-0.213,1.007,0.036,-0.732,0.488,0.549,573.443
153516,158155,13969,-0.214,1.007,0.037,-0.732,0.488,0.549,573.449
153492,158087,9125,-0.214,1.002,0.032,-0.61,0.488,0.488,573.453
153492,158154,13965,-0.213,1.005,0.03,-0.61,0.488,0.488,573.459
153503,158087,9125,-0.212,1.008,0.032,-0.305,0.427,0.305,573.462
153503,158144,13960,-0.213,1.007,0.033,-0.305,0.427,0.305,573.469
153489,158087,9125,-0.211,1.008,0.034,-0.61,0.183,0.488,573.472
153489,158167,13948,-0.209,1.004,0.033,-0.61,0.183,0.488,573.478
153517,158087,9125,-0.211,1,0.033,-0.915,0,0.671,573.482
153517,158154,13967,-0.212,1.001,0.032,-0.915,0,0.671,573.488
153510,158087,9125,-0.209,1.002,0.034,-0.854,0.061,0.793,573.492
153510,158164,13956,-0.209,1.003,0.031,-0.854,0.061,0.793,573.498
153524,158087,9125,-0.204,1.008,0.032,-0.061,0.061,0.61,573.502
153524,158147,13968,-0.21,1.01,0.04,-0.061,0.061,0.61,573.508
153515,158087,9125,-0.212,1.011,0.038,0.427,0.427,0.549,573.512
153515,158150,13970,-0.214,1.011,0.039,0.427,0.427,0.549,573.518
153494,158087,9125,-0.215,1.012,0.041,0,0.488,0.427,573.522
153494,158146,13962,-0.215,1.013,0.035,0,0.488,0.427,573.528
153525,158087,9125,-0.213,1.007,0.031,-0.549,0.061,0.305,573.532
153525,158145,13967,-0.214,1.002,0.034,-0.549,0.061,0.305,573.538
153529,158087,9125,-0.211,1.005,0.037,-0.61,-0.122,0.366,573.542
153529,158149,13961,-0.211,1.005,0.033,-0.61,-0.122,0.366,573.548
153509,158087,9125,-0.211,1.004,0.029,-0.488,0.183,0.305,573.552
153509,158158,13960,-0.213,1.002,0.032,-0.488,0.183,0.305,573.558
153533,158087,9125,-0.213,0.999,0.034,0.183,0.488,0.244,573.561
153533,158148,13955,-0.213,1.004,0.028,0.183,0.488,0.244,573.568
153528,158087,9125,-0.214,1.006,0.029,0.549,0.488,0.305,573.571
153528,158163,13953,-0.209,1.005,0.032,0.549,0.488,0.305,573.577
153505,158087,9125,-0.211,1.008,0.036,0.488,0.488,0.244,573.581
153505,158162,13975,-0.213,1.01,0.039,0.488,0.488,0.244,573.587
153513,158087,9125,-0.214,1.01,0.041,-0.183,0.366,0.488,573.591
153513,158182,13963,-0.209,1.013,0.035,-0.183,0.366,0.488,573.597
153528,158087,9125,-0.204,1.012,0.034,-0.915,0.183,0.427,573.601
153528,158189,13976,-0.206,1.01,0.031,-0.915,0.183,0.427,573.607
153523,158087,9125,-0.213,1.002,0.027,-1.524,0.061,0.366,573.611
153523,158205,13967,-0.209,0.999,0.029,-1.524,0.061,0.366,573.617
153539,158087,9125,-0.21,0.998,0.028,-1.463,0,0.488,573.621
153539,158186,13962,-0.21,1,0.033,-1.463,0,0.488,573.627
153526,158343,9125,-0.21,1,0.033,-1.463,0,0.488,573.631
153526,158214,13968,-0.215,1.004,0.034,-0.488,0.366,0.427,573.637
153523,158087,9125,-0.215,1.004,0.034,-0.488,0.366,0.427,573.641
153523,158156,13977,-0.223,1.011,0.035,0.854,0.793,0.305,573.647
153551,158087,9125,-0.223,1.011,0.035,0.854,0.793,0.305,573.65
153551,158189,13974,-0.216,1.007,0.034,0.427,0.671,0.183,573.657
153517,158087,9125,-0.216,1.007,0.034,0.427,0.671,0.183,573.66
153517,158189,13984,-0.213,1.006,0.043,-0.976,-0.122,0.61,573.667
153532,158087,9125,-0.213,1.006,0.043,-0.976,-0.122,0.61,573.67
153532,158182,13977,-0.211,0.999,0.029,-1.585,-0.427,0.915,573.676
153509,158087,9125,-0.211,0.999,0.029,-1.585,-0.427,0.915,573.68
153509,158163,13978,-0.209,1.001,0.03,-1.037,-0.183,0.854,573.686
153513,158087,9125,-0.209,1.001,0.03,-1.037,-0.183,0.854,573.69
153513,158155,13969,-0.213,1.008,0.034,-0.122,0.305,0.732,573.696
153495,158087,9125,-0.213,1.008,0.034,-0.122,0.305,0.732,573.7
153495,158155,13978,-0.21,1.015,0.034,-0.244,0.488,0.793,573.706
153518,158087,9125,-0.21,1.015,0.034,-0.244,0.488,0.793,573.71
153518,158165,13977,-0.208,1.015,0.027,-0.488,0.305,0.732,573.716
153502,158087,9125,-0.208,1.015,0.027,-0.488,0.305,0.732,573.72
153502,158150,13995,-0.21,1.011,0.025,-0.549,0,0.366,573.726
153513,158087,9125,-0.21,1.011,0.025,-0.549,0,0.366,573.73
153513,158169,13977,-0.212,1.006,0.027,-1.037,-0.244,0.244,573.736
153522,158087,9125,-0.212,1.006,0.027,-1.037,-0.244,0.244,573.74
153522,158177,13981,-0.21,0.997,0.029,-1.159,-0.549,0.183,573.746
153531,158087,9125,-0.21,0.997,0.029,-1.159,-0.549,0.183,573.75
153531,158167,13982,-0.212,0.999,0.038,-0.854,-0.732,0.122,573.756
153517,158087,9125,-0.212,0.999,0.038,-0.854,-0.732,0.122,573.759
153517,158189,13983,-0.216,0.997,0.041,-0.549,-0.549,0.244,573.766
153520,158087,9125,-0.216,0.997,0.041,-0.549,-0.549,0.244,573.769
153520,158172,13980,-0.217,1.002,0.046,-0.061,-0.122,0.305,573.775
153532,158087,9125,-0.217,1.002,0.046,-0.061,-0.122,0.305,573.779
153532,158191,13989,-0.215,1.004,0.042,0,0,0.488,573.785
153512,158087,9125,-0.213,1.003,0.041,0,0,0.488,573.789
153512,158160,13981,-0.216,1.007,0.045,-0.549,-0.122,0.793,573.795
153513,158087,9125,-0.216,1.008,0.045,-0.549,-0.122,0.793,573.799
153513,158165,13970,-0.216,1.005,0.042,-1.037,0,0.854,573.805
153514,158087,9125,-0.215,1.008,0.043,-1.037,0,0.854,573.809
153514,158184,13981,-0.214,1.008,0.042,-0.732,0.183,0.61,573.815
153524,158087,9125,-0.214,1.01,0.037,-0.732,0.183,0.61,573.819
153524,158178,13977,-0.215,1.011,0.036,-0.244,0.61,0.427,573.825
153505,158087,9125,-0.213,1.012,0.034,-0.244,0.61,0.427,573.829
153505,158177,13985,-0.214,1.01,0.031,-0.061,0.427,0.244,573.835
153524,158087,9125,-0.214,1.008,0.03,-0.061,0.427,0.244,573.839
153524,158191,13978,-0.213,1.008,0.031,-0.244,0.183,0.244,573.845
153519,158087,9125,-0.211,1.005,0.033,-0.244,0.183,0.244,573.848
153519,158189,13993,-0.209,1.001,0.037,-0.732,0.122,0.244,573.855
153534,158087,9125,-0.214,1.003,0.035,-0.732,0.122,0.244,573.858
153534,158190,13990,-0.208,1.001,0.029,-0.488,0.183,0.183,573.865
153505,158087,9125,-0.208,1.002,0.033,-0.488,0.183,0.183,573.868
153505,158184,13993,-0.211,1.007,0.036,-0.061,0.183,0.305,573.874
153497,158087,9125,-0.211,1.004,0.032,-0.061,0.183,0.305,573.878
153497,158180,13986,-0.208,1.005,0.03,-0.244,0.244,0.488,573.884
153504,158087,9125,-0.208,1.005,0.035,-0.244,0.244,0.488,573.888
153504,158165,14006,-0.209,1.007,0.041,-0.427,0.122,0.549,573.894
153500,158087,9125,-0.207,1.004,0.037,-0.427,0.122,0.549,573.898
153500,158188,13986,-0.21,1.003,0.034,-0.61,0.122,0.549,573.904
153515,158087,9125,-0.213,1.007,0.035,-0.61,0.122,0.549,573.908
153515,158170,13978,-0.215,1.009,0.035,-0.244,0.488,0.488,573.914
153496,158087,9125,-0.214,1.007,0.036,-0.244,0.488,0.488,573.918
153496,158174,13976,-0.213,1.006,0.036,-0.183,0.488,0.366,573.924
153521,158087,9125,-0.215,1.004,0.035,-0.183,0.488,0.366,573.928
153521,158180,13967,-0.215,1.009,0.04,-0.305,0.366,0.305,573.934
153509,158087,9125,-0.216,1.006,0.04,-0.305,0.366,0.305,573.938
153509,158195,13983,-0.217,1.003,0.041,-0.366,0.305,0.366,573.944
153506,158087,9125,-0.212,1.002,0.039,-0.366,0.305,0.366,573.948
153506,158193,13986,-0.212,1.002,0.038,-0.366,0.305,0.366,573.954
153512,158087,9125,-0.216,1.005,0.039,-0.366,0.305,0.366,573.957
153512,158168,14001,-0.215,1.004,0.038,-0.488,0.305,0.488,573.964
153499,158087,9125,-0.216,1.004,0.039,-0.488,0.305,0.488,573.967
153499,158188,13995,-0.212,1.004,0.041,-0.671,0.183,0.61,573.973
153510,158087,9125,-0.215,1.005,0.041,-0.671,0.183,0.61,573.977
153510,158198,14001,-0.214,1.006,0.039,-0.61,0.183,0.61,573.983
153516,158087,9125,-0.213,1.005,0.041,-0.61,0.183,0.61,573.987
153516,158184,13987,-0.213,1.004,0.038,-0.488,0.366,0.61,573.993
153532,158087,9125,-0.211,1.01,0.035,-0.488,0.366,0.61,573.997
153532,158190,13987,-0.211,1.013,0.033,-0.305,0.61,0.488,574.003
153526,158087,9125,-0.213,1.011,0.039,-0.305,0.61,0.488,574.007
153526,158185,13997,-0.213,1.008,0.038,-0.427,0.61,0.305,574.013
153519,158087,9125,-0.209,1.007,0.033,-0.427,0.61,0.305,574.017
153519,158186,14012,-0.21,1.007,0.037,-0.488,0.549,0.244,574.023
153529,158087,9125,-0.21,1.004,0.037,-0.488,0.549,0.244,574.027
153529,158183,13989,-0.208,1.004,0.035,0.061,0.305,0.366,574.033
153480,158087,9125,-0.209,1.006,0.03,0.061,0.305,0.366,574.037
153480,158162,13994,-0.212,1.009,0.037,0.488,0.488,0.244,574.043
153499,158087,9125,-0.212,1.006,0.039,0.488,0.488,0.244,574.047
153499,158170,13997,-0.214,1.005,0.036,0.61,0.915,0.244,574.053
153493,158087,9125,-0.215,1.006,0.041,0.61,0.915,0.244,574.056
153493,158171,13988,-0.214,1.008,0.04,0.244,0.793,0.183,574.063
153512,158087,9125,-0.213,1.009,0.032,0.244,0.793,0.183,574.066
153512,158151,13984,-0.213,1.01,0.04,-0.061,0.427,0.244,574.073
153507,158087,9125,-0.214,1.004,0.041,-0.061,0.427,0.244,574.076
153507,158168,13995,-0.215,1.003,0.038,-0.427,0.427,0.366,574.082
153511,158087,9125,-0.217,1.002,0.034,-0.427,0.427,0.366,574.086
153511,158147,13971,-0.215,1.004,0.038,-0.549,0.488,0.305,574.092
153500,158087,9125,-0.212,1.004,0.036,-0.549,0.488,0.305,574.096
153500,158147,13984,-0.213,1.007,0.035,0.061,0.61,0.305,574.102
153485,158087,9125,-0.214,1.006,0.035,0.061,0.61,0.305,574.106
153485,158184,13977,-0.213,1.01,0.037,0.549,0.854,0.244,574.112
153521,158087,9125,-0.215,1.012,0.037,0.549,0.854,0.244,574.116
153521,158154,13961,-0.213,1.007,0.037,0.305,0.793,0.244,574.122
153516,158087,9125,-0.215,1.006,0.037,0.305,0.793,0.244,574.126
153516,158143,13982,-0.212,1.009,0.037,-0.305,0.549,0.305,574.132
153525,158087,9125,-0.212,1.008,0.033,-0.305,0.549,0.305,574.136
153525,158150,13968,-0.21,1.005,0.034,-0.549,0.183,0.305,574.142
153530,158087,9125,-0.208,1.005,0.033,-0.549,0.183,0.305,574.146
153530,158162,13989,-0.211,1.003,0.036,-0.793,0.122,0.305,574.152
153535,158087,9125,-0.208,1.005,0.035,-0.793,0.122,0.305,574.155
153535,158165,13973,-0.208,1.004,0.033,-0.793,0.244,0.366,574.162
153531,158087,9125,-0.21,1.002,0.035,-0.793,0.244,0.366,574.165
153531,158146,13992,-0.208,0.999,0.032,-0.793,0.244,0.244,574.171
153532,158087,9125,-0.211,0.999,0.037,-0.793,0.244,0.244,574.175
153532,158158,13979,-0.211,1.003,0.035,-0.671,0.244,0.427,574.181
153524,158087,9125,-0.212,1.006,0.038,-0.671,0.244,0.427,574.185
153524,158126,13980,-0.214,1.003,0.034,-0.366,0.427,0.488,574.191
153505,158087,9125,-0.209,1.001,0.034,-0.366,0.427,0.488,574.195
153505,158135,13992,-0.209,1.006,0.036,-0.122,0.366,0.549,574.201
153515,158087,9125,-0.216,1.008,0.034,-0.122,0.366,0.549,574.205
153515,158159,13968,-0.216,1.009,0.036,-0.244,0.427,0.61,574.211
153523,158087,9125,-0.21,1.009,0.034,-0.244,0.427,0.61,574.215
153523,158182,13966,-0.21,1.006,0.037,-0.122,0.183,0.61,574.221
153514,158087,9125,-0.21,1.006,0.037,-0.122,0.183,0.61,574.225
153514,158173,13976,-0.215,1.014,0.039,0.244,0.305,0.488,574.231
153498,158087,9125,-0.215,1.014,0.039,0.244,0.305,0.488,574.235
153498,158139,13977,-0.215,1.008,0.037,0.305,0.61,0.183,574.241
153500,158087,9125,-0.215,1.008,0.037,0.305,0.61,0.183,574.245
153500,158154,13965,-0.217,1.012,0.034,0.183,0.488,0,574.251
153497,158087,9125,-0.217,1.012,0.034,0.183,0.488,0,574.254
153497,158136,13969,-0.214,1.005,0.038,-0.061,0.305,0.061,574.261
153494,158087,9125,-0.214,1.005,0.038,-0.061,0.305,0.061,574.264
153494,158116,13972,-0.212,1.003,0.035,-0.305,0.122,0.061,574.271
153498,158087,9125,-0.212,1.003,0.035,-0.305,0.122,0.061,574.274
153498,158133,13972,-0.213,0.998,0.04,-0.122,0.061,0.122,574.28
153498,158087,9125,-0.213,0.998,0.04,-0.122,0.061,0.122,574.284
153498,158149,13980,-0.209,1.005,0.037,0.305,0.488,0.183,574.29
153496,158087,9125,-0.209,1.005,0.037,0.305,0.488,0.183,574.294
153496,158153,13975,-0.211,1.005,0.038,0.488,1.037,0.305,574.3
153479,158087,9125,-0.211,1.005,0.038,0.488,1.037,0.305,574.304
153479,158128,13969,-0.211,1.008,0.035,0.061,0.915,0.305,574.31
153500,158087,9125,-0.211,1.008,0.035,0.061,0.915,0.305,574.314
153500,158130,13969,-0.21,1.006,0.039,-0.61,0.427,0.305,574.32
153479,158087,9125,-0.21,1.006,0.039,-0.61,0.427,0.305,574.324
153479,158144,13980,-0.21,1.005,0.034,-0.488,0.366,0.305,574.33
153503,158087,9125,-0.21,1.005,0.034,-0.488,0.366,0.305,574.334
153503,158131,13965,-0.212,1.01,0.036,0.366,0.61,0.061,574.34
153502,158087,9125,-0.212,1.01,0.036,0.366,0.61,0.061,574.344
153502,158130,13958,-0.214,1.006,0.032,0.183,0.793,0,574.35
153509,158087,9125,-0.214,1.006,0.032,0.183,0.793,0,574.353
153509,158153,13977,-0.216,1.001,0.036,-0.427,0.427,0.061,574.36
153472,158087,9125,-0.216,1.001,0.036,-0.427,0.427,0.061,574.363
153472,158107,13981,-0.215,1.002,0.032,-0.427,0.427,0.061,574.37
153486,158087,9125,-0.212,1.001,0.034,-0.854,0.122,0.244,574.373
153486,158136,13968,-0.208,1.003,0.035,-0.854,0.122,0.244,574.379
153482,158087,9125,-0.21,1.006,0.04,-0.549,0.305,0.427,574.383
153482,158094,13959,-0.213,1.005,0.042,-0.549,0.305,0.427,574.389
153498,158087,9125,-0.215,1.003,0.039,-0.305,0.793,0.366,574.393
153498,158157,13967,-0.216,1.003,0.039,-0.305,0.793,0.366,574.399
153499,158087,9125,-0.215,1.007,0.033,-0.061,0.732,0.366,574.403
153499,158143,13983,-0.214,1.005,0.036,-0.061,0.732,0.366,574.409
153488,158087,9125,-0.213,1.004,0.034,-0.122,0.366,0.366,574.413
153488,158162,13976,-0.21,1.003,0.037,-0.122,0.366,0.366,574.419
153498,158087,9125,-0.214,1.003,0.036,-0.549,0.122,0.366,574.423
153498,158166,13966,-0.215,1.001,0.034,-0.549,0.122,0.366,574.429
153492,158087,9125,-0.214,1.003,0.033,-0.732,0.122,0.488,574.433
153492,158157,13970,-0.213,1.003,0.041,-0.732,0.122,0.488,574.439
153493,158087,9125,-0.212,1.004,0.042,-0.732,0.183,0.488,574.443
153493,158154,13967,-0.21,1.004,0.038,-0.732,0.183,0.488,574.449
153502,158087,9125,-0.215,1.006,0.041,-0.366,0.305,0.549,574.452
153502,158170,13974,-0.212,1.01,0.037,-0.366,0.305,0.549,574.459
153511,158087,9125,-0.215,1.012,0.034,0,0.671,0.366,574.462
153511,158155,13962,-0.215,1.01,0.033,0,0.671,0.366,574.469
153513,158087,9125,-0.215,1.009,0.033,0.183,0.549,0.122,574.472
153513,158154,13974,-0.215,1.011,0.033,0.183,0.549,0.122,574.478
153493,158087,9125,-0.214,1.006,0.033,-0.305,0.244,0.061,574.482
153493,158152,13970,-0.212,1.005,0.032,-0.305,0.244,0.061,574.488
153512,158087,9125,-0.213,1.003,0.037,-0.732,0.061,0.061,574.492
153512,158144,13981,-0.213,1.002,0.04,-0.732,0.061,0.061,574.498
153488,158087,9125,-0.212,1.004,0.037,-0.671,0.122,0.244,574.502
153488,158146,13975,-0.215,1.001,0.04,-0.671,0.122,0.244,574.508
153498,158087,9125,-0.214,1.004,0.039,-0.244,0.183,0.305,574.512
153498,158149,13981,-0.21,1.006,0.04,-0.244,0.183,0.305,574.518
153507,158087,9125,-0.212,1.005,0.036,-0.061,0.488,0.244,574.522
153507,158158,13975,-0.216,1.006,0.032,-0.061,0.488,0.244,574.528
153490,158087,9125,-0.213,1.003,0.034,-0.122,0.488,0.183,574.532
153490,158141,13979,-0.209,1.002,0.036,-0.122,0.488,0.183,574.538
153500,158087,9125,-0.209,1.003,0.038,-0.488,0.122,0.366,574.542
153500,158170,13987,-0.211,1.004,0.041,-0.488,0.122,0.366,574.548
153531,158087,9125,-0.213,1.004,0.045,-0.488,0.244,0.427,574.551
153531,158165,13971,-0.21,1.002,0.043,-0.488,0.244,0.427,574.558
153518,158087,9125,-0.212,1.003,0.04,-0.305,0.549,0.366,574.561
153518,158174,13969,-0.211,1.004,0.038,-0.305,0.549,0.366,574.568
153495,158087,9125,-0.212,1.006,0.04,-0.244,0.488,0.366,574.571
153495,158160,13994,-0.214,1.008,0.041,-0.244,0.488,0.366,574.577
153530,158087,9125,-0.213,1.006,0.04,-0.366,0.549,0.488,574.581
153530,158175,13963,-0.213,1.004,0.039,-0.366,0.549,0.488,574.587
153521,158087,9125,-0.213,1.004,0.041,-0.61,0.488,0.488,574.591
153521,158203,13996,-0.21,1.005,0.036,-0.61,0.488,0.488,574.597
153533,158087,9125,-0.208,1.005,0.031,-0.488,0.488,0.366,574.601
153533,158179,13990,-0.208,1.005,0.037,-0.488,0.488,0.366,574.607
153527,158087,9125,-0.211,1.006,0.033,0.061,0.61,0.366,574.611
153527,158182,13982,-0.212,1.007,0.036,0.061,0.61,0.366,574.617
153554,158343,9125,-0.213,1.008,0.035,0.244,0.671,0.427,574.621
153554,158209,13983,-0.217,1.005,0.033,0.244,0.671,0.427,574.627
153581,158087,9125,-0.217,1.005,0.033,0.122,0.427,0.366,574.631
153581,158201,13966,-0.216,1.005,0.036,0.122,0.427,0.366,574.637
153548,158087,9125,-0.212,1.005,0.036,-0.183,0.122,0.366,574.641
153548,158202,13982,-0.213,1.004,0.037,-0.183,0.122,0.366,574.647
153540,158087,9125,-0.218,1.006,0.03,-0.366,0.244,0.549,574.65
153540,158198,13985,-0.216,1.003,0.025,-0.366,0.244,0.549,574.657
153535,158087,9125,-0.215,0.999,0.03,0.061,0.366,0.61,574.66
153535,158198,13987,-0.216,1.005,0.033,0.061,0.366,0.61,574.666
153565,158087,9125,-0.216,1.012,0.036,0.061,0.183,0.671,574.67
153565,158176,13985,-0.215,1.014,0.037,0.061,0.183,0.671,574.676
153567,158343,9125,-0.21,1.012,0.033,-0.427,-0.061,0.61,574.68
153567,158214,13994,-0.208,1.006,0.033,-0.427,-0.061,0.61,574.686
153577,158343,9125,-0.208,1.011,0.034,-0.793,-0.427,0.427,574.69
153577,158209,13972,-0.208,1.012,0.037,-0.793,-0.427,0.427,574.696
153571,158343,9125,-0.209,1.008,0.038,-0.854,-0.122,0.366,574.7
153571,158219,14001,-0.212,1.003,0.036,-0.854,-0.122,0.366,574.706
153566,158087,9125,-0.212,1.005,0.033,-0.549,0.183,0.244,574.71
153566,158186,13990,-0.21,1.011,0.033,-0.549,0.183,0.244,574.716
153558,158087,9125,-0.21,1.006,0.036,-0.732,-0.122,0.305,574.72
153558,158197,14009,-0.215,1.003,0.035,-0.732,-0.122,0.305,574.726
153546,158087,9125,-0.215,1.003,0.042,-0.549,0,0.305,574.73
153546,158178,13993,-0.218,1.008,0.043,-0.549,0,0.305,574.736
153563,158087,9125,-0.218,1.004,0.037,-0.61,0,0.305,574.74
153563,158203,14006,-0.215,1,0.037,-0.61,0,0.305,574.746
153586,158087,9125,-0.215,0.998,0.038,-0.305,-0.366,0.305,574.749
153586,158189,14000,-0.211,1.001,0.041,-0.305,-0.366,0.305,574.756
153565,158087,9125,-0.212,1,0.045,-0.244,-0.244,0.488,574.759
153565,158190,13989,-0.213,1.001,0.045,-0.244,-0.244,0.488,574.766
153541,158087,9125,-0.214,1.005,0.043,0.122,0.244,0.549,574.769
153541,158196,13985,-0.214,1.007,0.035,0.122,0.244,0.549,574.775
153534,158087,9125,-0.214,1.006,0.044,0.122,0.305,0.427,574.779
153534,158192,13989,-0.215,1.006,0.041,0.122,0.305,0.427,574.785
153548,158343,9125,-0.21,1.007,0.04,-0.427,0.122,0.549,574.789
153548,158210,13979,-0.211,1.011,0.034,-0.427,0.122,0.549,574.795
153562,158087,9125,-0.209,1.009,0.039,-0.671,0,0.61,574.799
153562,158189,13994,-0.208,1.011,0.039,-0.671,0,0.61,574.805
153566,158087,9125,-0.206,1.013,0.031,-0.061,0.183,0.488,574.809
153566,158203,13982,-0.209,1.011,0.027,-0.061,0.183,0.488,574.815
153534,158087,9125,-0.209,1.011,0.027,-0.061,0.183,0.488,574.819
153534,158195,13993,-0.21,1.008,0.031,0.305,0.61,0.183,574.825
153543,158087,9125,-0.21,1.008,0.031,0.305,0.61,0.183,574.829
153543,158189,13986,-0.21,1.005,0.037,0.305,0.305,0.061,574.835
153527,158343,9125,-0.21,1.005,0.037,0.305,0.305,0.061,574.839
153527,158229,13990,-0.209,0.999,0.04,0,0.244,0.122,574.845
153541,158343,9125,-0.209,0.999,0.04,0,0.244,0.122,574.848
153541,158231,13990,-0.21,0.999,0.042,-0.061,0.183,0.061,574.855
153557,158343,9125,-0.21,0.999,0.042,-0.061,0.183,0.061,574.858
153557,158213,13989,-0.214,0.998,0.04,-0.427,0.061,0.183,574.864
153520,158343,9125,-0.214,0.998,0.04,-0.427,0.061,0.183,574.868
153520,158228,13983,-0.214,1.003,0.045,-0.305,0.244,0.488,574.874
153568,158087,9125,-0.214,1.003,0.045,-0.305,0.244,0.488,574.878
153568,158201,13984,-0.212,1.009,0.046,-0.122,0.305,0.671,574.884
153529,158087,9125,-0.212,1.009,0.046,-0.122,0.305,0.671,574.888
153529,158204,13998,-0.216,1.005,0.041,-0.305,0.305,0.732,574.894
153537,158087,9125,-0.216,1.005,0.041,-0.305,0.305,0.732,574.898
153537,158202,13976,-0.214,1.008,0.041,-0.671,0.305,0.732,574.904
153534,158087,9125,-0.214,1.008,0.041,-0.671,0.305,0.732,574.908
153534,158192,14009,-0.209,1.009,0.04,-0.854,0.366,0.793,574.914
153544,158087,9125,-0.209,1.009,0.04,-0.854,0.366,0.793,574.918
153544,158179,14008,-0.21,1.004,0.039,-0.366,0.488,0.61,574.924
153528,158087,9125,-0.21,1.004,0.039,-0.366,0.488,0.61,574.928
153528,158193,13995,-0.212,1.008,0.037,0.183,0.854,0.427,574.934
153526,158087,9125,-0.212,1.008,0.037,0.183,0.854,0.427,574.938
153526,158201,13999,-0.213,1.009,0.034,0.671,0.915,0.244,574.944
153530,158087,9125,-0.213,1.009,0.034,0.671,0.915,0.244,574.947
153530,158188,13983,-0.211,1.013,0.033,0.488,0.61,0.305,574.954
153513,158087,9125,-0.211,1.013,0.033,0.488,0.61,0.305,574.957
153513,158190,13986,-0.214,1.008,0.032,0.061,0.305,0.366,574.964
153503,158343,9125,-0.213,1.006,0.033,0.061,0.305,0.366,574.967
153503,158227,13976,-0.21,1.005,0.031,-0.183,0.244,0.305,574.973
153483,158087,9125,-0.209,1.006,0.027,-0.183,0.244,0.305,574.977
153483,158204,13997,-0.214,1.007,0.035,0.183,0.244,0.244,574.983
153499,158087,9125,-0.212,1.01,0.036,0.183,0.244,0.244,574.987
153499,158199,13993,-0.212,1.007,0.033,0.427,0.549,0.183,574.993
153506,158087,9125,-0.214,1.008,0.036,0.427,0.549,0.183,574.997
153506,158200,13994,-0.215,1.011,0.038,0.549,0.488,0.183,575.003
153493,158087,9125,-0.217,1.005,0.039,0.549,0.488,0.183,575.007
153493,158192,14003,-0.219,1.006,0.039,0.61,0.366,0.122,575.013
153518,158087,9125,-0.217,1.009,0.04,0.61,0.366,0.122,575.017
153518,158206,13988,-0.216,1.01,0.037,0.732,0.488,0.244,575.023
153478,158087,9125,-0.215,1.008,0.037,0.732,0.488,0.244,575.027
153478,158180,13998,-0.214,1.007,0.032,0.61,0.549,0,575.033
153506,158087,9125,-0.212,1.003,0.037,0.61,0.549,0,575.036
153506,158181,13990,-0.213,1.004,0.042,0.366,0.366,0,575.043
153475,158087,9125,-0.215,1.004,0.04,0.366,0.366,0,575.046
153475,158175,13993,-0.212,1.002,0.038,0.244,0.61,0.183,575.053
153501,158087,9125,-0.218,0.999,0.034,0.244,0.61,0.183,575.056
153501,158196,13999,-0.216,1.003,0.036,0.366,0.61,0,575.062
153514,158087,9125,-0.214,1.005,0.041,0.366,0.61,0,575.066
153514,158179,13985,-0.216,1.001,0.039,0.549,0.488,0.183,575.072
153488,158087,9125,-0.215,1.005,0.041,0.549,0.488,0.183,575.076
153488,158207,13996,-0.216,1.001,0.041,0.244,0.427,0.244,575.082
153494,158087,9125,-0.216,1.005,0.039,0.244,0.427,0.244,575.086
153494,158164,13996,-0.213,1.004,0.036,-0.366,0.366,0.366,575.092
153506,158087,9125,-0.21,1.004,0.035,-0.366,0.366,0.366,575.096
153506,158194,14012,-0.21,1.007,0.035,-0.61,0.244,0.549,575.102
153504,158087,9125,-0.208,1.008,0.035,-0.61,0.244,0.549,575.106
153504,158164,14007,-0.209,1.005,0.032,-0.366,0.488,0.61,575.112
153496,158087,9125,-0.21,1.006,0.032,-0.366,0.488,0.61,575.116
153496,158161,13985,-0.209,1.006,0.032,-0.122,0.854,0.61,575.122
153471,158087,9125,-0.209,1.005,0.031,-0.122,0.854,0.61,575.126
153471,158135,13984,-0.208,1.008,0.033,0.305,0.976,0.671,575.132
153482,158087,9125,-0.21,1.005,0.036,0.305,0.976,0.671,575.135
153482,158147,13998,-0.211,1.007,0.033,0.793,0.976,0.549,575.142
153466,158087,9125,-0.21,1.009,0.033,0.793,0.976,0.549,575.145
153466,158153,14007,-0.214,1.009,0.036,0.671,0.854,0.549,575.152
153487,158087,9125,-0.212,1.007,0.033,0.671,0.854,0.549,575.155
153487,158157,14002,-0.213,1.004,0.033,0.061,0.488,0.61,575.161
153463,158087,9125,-0.214,1.001,0.041,0.061,0.488,0.61,575.165
153463,158131,13987,-0.212,1.003,0.043,0,0.305,0.488,575.171
153487,158087,9125,-0.214,1.005,0.042,0,0.305,0.488,575.175
153487,158142,13979,-0.214,1.005,0.041,0.305,0.671,0.366,575.181
153486,158087,9125,-0.217,1.008,0.037,0.305,0.671,0.366,575.185
153486,158152,13995,-0.216,1.005,0.039,0.671,0.915,0.366,575.191
153500,158087,9125,-0.214,1.008,0.04,0.671,0.915,0.366,575.195
153500,158119,13978,-0.215,1.01,0.039,0.732,0.915,0.427,575.201
153493,158087,9125,-0.217,1.01,0.043,0.732,0.915,0.427,575.205
153493,158139,13988,-0.217,1.011,0.045,0.427,0.854,0.427,575.211
153514,158087,9125,-0.216,1.009,0.037,0.427,0.854,0.427,575.215
153514,158136,13977,-0.214,1.007,0.032,-0.061,0.915,0.366,575.221
153474,158087,9125,-0.212,1.005,0.033,-0.061,0.915,0.366,575.225
153474,158133,13981,-0.213,1.006,0.034,-0.183,0.732,0.244,575.231
153490,158087,9125,-0.21,1.008,0.032,-0.183,0.732,0.244,575.234
153490,158129,13972,-0.211,1.006,0.034,0,0.854,0.122,575.241
153490,158087,9125,-0.209,1,0.028,0,0.854,0.122,575.244
153490,158129,13972,-0.207,1.003,0.027,0.366,0.793,0,575.251
153496,158087,9125,-0.209,1.007,0.028,0.366,0.793,0,575.254
153496,158126,13961,-0.208,1.006,0.034,0.61,0.732,0.122,575.26
153481,158087,9125,-0.209,1.006,0.031,0.61,0.732,0.122,575.264
153481,158120,13960,-0.208,1.008,0.028,0.366,0.671,0.061,575.27
153472,158087,9125,-0.209,1.005,0.032,0.366,0.671,0.061,575.274
153472,158105,13979,-0.21,1.006,0.033,-0.183,0.549,0.244,575.28
153479,158087,9125,-0.21,1.001,0.034,-0.183,0.549,0.244,575.284
153479,158116,13964,-0.209,1.001,0.029,-0.183,0.427,0.427,575.29
153479,158087,9125,-0.209,1.002,0.031,-0.183,0.427,0.427,575.294
153479,158131,13974,-0.21,1.004,0.035,0.366,0.549,0.427,575.3
153494,158087,9125,-0.21,1.008,0.033,0.366,0.549,0.427,575.304
153494,158122,13971,-0.214,1.008,0.032,0.793,0.915,0.366,575.31
153490,158087,9125,-0.212,1.01,0.034,0.793,0.915,0.366,575.314
153490,158145,13971,-0.212,1.011,0.031,0.671,0.732,0.305,575.32
153473,158087,9125,-0.215,1.009,0.034,0.671,0.732,0.305,575.324
153473,158124,13977,-0.213,1.008,0.034,0.305,0.61,0.366,575.33
153499,158087,9125,-0.214,1.005,0.038,0.305,0.61,0.366,575.333
