155380,158252,14480,-0.173,1.007,0.035,0,1.159,0.061,652.557
155376,158343,9125,-0.171,1.008,0.03,0,1.159,0.061,652.561
155376,158217,14483,-0.171,1.014,0.031,0.122,1.037,0,652.567
155368,158343,9125,-0.171,1.016,0.033,0.122,1.037,0,652.571
155368,158214,14485,-0.169,1.014,0.035,0,0.549,0.183,652.577
155339,158343,9125,-0.17,1.015,0.035,0,0.549,0.183,652.581
155339,158210,14486,-0.172,1.014,0.038,-0.061,0.549,0.305,652.587
155336,158343,9125,-0.172,1.013,0.043,-0.061,0.549,0.305,652.591
155336,158210,14488,-0.172,1.009,0.043,-0.183,0.671,0.488,652.597
155365,158343,9125,-0.173,1.005,0.038,-0.183,0.671,0.488,652.601
155365,158230,14479,-0.175,1.013,0.034,-0.305,0.61,0.366,652.607
155342,158343,9125,-0.175,1.016,0.036,-0.305,0.61,0.366,652.61
155342,158212,14480,-0.172,1.011,0.041,-0.122,0.488,0.427,652.617
155339,158343,9125,-0.175,1.01,0.043,-0.122,0.488,0.427,652.62
155339,158219,14478,-0.173,1.016,0.035,0.183,0.549,0.305,652.626
155328,158343,9125,-0.17,1.013,0.031,0.183,0.549,0.305,652.63
155328,158218,14491,-0.17,1.012,0.032,-0.61,0.732,0.183,652.636
155359,158343,9125,-0.171,1.015,0.034,-0.61,0.732,0.183,652.64
155359,158231,14475,-0.171,1.015,0.028,-0.976,0.61,0.427,652.646
155330,158087,9125,-0.167,1.011,0.023,-0.976,0.61,0.427,652.65
155330,158206,14481,-0.164,1.01,0.024,-0.244,0.305,0.488,652.656
155324,158343,9125,-0.164,1.006,0.033,-0.244,0.305,0.488,652.66
155324,158238,14490,-0.168,1.01,0.032,0.488,0.915,0.122,652.666
155316,158343,9125,-0.172,1.008,0.031,0.488,0.915,0.122,652.67
155316,158208,14478,-0.171,1.009,0.034,0.854,1.037,0.061,652.676
155321,158343,9125,-0.172,1.011,0.04,0.854,1.037,0.061,652.68
155321,158209,14485,-0.171,1.016,0.039,1.037,0.427,0.305,652.686
155321,158343,9125,-0.17,1.012,0.034,1.037,0.427,0.305,652.69
155321,158232,14482,-0.17,1.007,0.035,0.366,0.305,0.427,652.696
155333,158343,9125,-0.169,1.011,0.033,0.366,0.305,0.427,652.699
155333,158223,14480,-0.173,1.01,0.034,-0.427,0.305,0.427,652.706
155333,158343,9125,-0.172,1.011,0.036,-0.427,0.305,0.427,652.709
155333,158209,14485,-0.174,1.012,0.043,-0.366,0.244,0.732,652.716
155326,158343,9125,-0.173,1.014,0.044,-0.366,0.244,0.732,652.719
155326,158224,14470,-0.174,1.022,0.039,-0.061,0.244,0.61,652.725
155336,158343,9125,-0.176,1.024,0.035,-0.061,0.244,0.61,652.729
155336,158226,14500,-0.175,1.026,0.041,-0.061,0.427,0.366,652.735
155321,158343,9125,-0.177,1.024,0.044,-0.061,0.427,0.366,652.739
155321,158211,14493,-0.175,1.022,0.033,-0.366,0.671,0.427,652.745
155332,158343,9125,-0.173,1.015,0.024,-0.366,0.671,0.427,652.749
155332,158208,14474,-0.17,1.004,0.026,-0.61,0.549,0.122,652.755
155297,158343,9125,-0.168,1.003,0.024,-0.61,0.549,0.122,652.759
155297,158213,14487,-0.167,1.012,0.028,-0.732,0.488,0.061,652.765
155351,158343,9125,-0.167,1.012,0.028,-0.732,0.488,0.061,652.769
155351,158227,14492,-0.168,1.008,0.035,0.305,0.732,0.183,652.775
155345,158087,9125,-0.168,1.008,0.035,0.305,0.732,0.183,652.779
155345,158201,14503,-0.167,1.017,0.031,1.28,0.854,0.061,652.785
155316,158343,9125,-0.167,1.017,0.031,1.28,0.854,0.061,652.789
155316,158213,14495,-0.169,1.012,0.037,0.915,0.854,0.061,652.795
155341,158343,9125,-0.169,1.012,0.037,0.915,0.854,0.061,652.799
155341,158231,14511,-0.176,1.015,0.031,-0.122,0.671,0.366,652.805
155339,158343,9125,-0.176,1.015,0.031,-0.122,0.671,0.366,652.808
155339,158237,14486,-0.169,1.012,0.031,-0.854,0.183,0.488,652.815
155327,158343,9125,-0.169,1.012,0.031,-0.854,0.183,0.488,652.818
155327,158232,14505,-0.169,1.014,0.038,-1.037,0.061,0.427,652.824
155336,158343,9125,-0.169,1.014,0.038,-1.037,0.061,0.427,652.828
155336,158222,14500,-0.171,1.017,0.037,-0.244,0.488,0.427,652.834
155298,158343,9125,-0.171,1.017,0.037,-0.244,0.488,0.427,652.838
155298,158220,14492,-0.172,1.013,0.036,0.732,0.976,0.061,652.844
155324,158343,9125,-0.172,1.013,0.036,0.732,0.976,0.061,652.848
155324,158236,14489,-0.177,1.015,0.034,-0.061,1.037,-0.122,652.854
155332,158343,9125,-0.177,1.015,0.034,-0.061,1.037,-0.122,652.858
155332,158234,14498,-0.173,1.014,0.027,-1.28,0.488,0.183,652.864
155339,158343,9125,-0.173,1.014,0.027,-1.28,0.488,0.183,652.868
155339,158238,14487,-0.167,1.008,0.033,-1.098,0.183,0.427,652.874
155334,158343,9125,-0.167,1.008,0.033,-1.098,0.183,0.427,652.878
155334,158250,14507,-0.169,1.008,0.041,0,0.732,0.244,652.884
155317,158343,9125,-0.169,1.008,0.041,0,0.732,0.244,652.888
155317,158248,14509,-0.175,1.005,0.031,0.854,1.341,0.305,652.894
155328,158343,9125,-0.175,1.005,0.031,0.854,1.341,0.305,652.898
155328,158228,14503,-0.177,1.023,0.034,1.28,1.341,0.427,652.904
155336,158343,9125,-0.177,1.023,0.034,1.28,1.341,0.427,652.907
155336,158228,14509,-0.172,1.021,0.033,1.28,1.341,0.427,652.914
155331,158343,9125,-0.168,1.014,0.042,0.976,0.793,0.122,652.917
155331,158239,14488,-0.171,1.02,0.034,0.976,0.793,0.122,652.923
155311,158343,9125,-0.173,1.022,0.025,0.122,0.61,0.244,652.927
155311,158222,14499,-0.172,1.014,0.029,0.122,0.61,0.244,652.933
155315,158343,9125,-0.169,1.007,0.032,-0.488,0.671,0.244,652.937
155315,158216,14511,-0.17,1.006,0.03,-0.488,0.671,0.244,652.943
155299,158087,9125,-0.171,1.007,0.027,-0.183,0.671,0.366,652.947
155299,158201,14491,-0.168,1.007,0.025,-0.183,0.671,0.366,652.953
155317,158087,9125,-0.165,1.01,0.029,0.61,0.915,0.305,652.957
155317,158173,14490,-0.167,1.011,0.033,0.61,0.915,0.305,652.963
155316,158087,9125,-0.17,1.012,0.035,0.976,1.037,0.305,652.967
155316,158200,14484,-0.171,1.008,0.035,0.976,1.037,0.305,652.973
155306,158087,9125,-0.174,1.008,0.037,0.427,0.854,0.549,652.977
155306,158171,14493,-0.176,1.016,0.034,0.427,0.854,0.549,652.983
155341,158343,9125,-0.176,1.018,0.029,-0.854,0.427,0.549,652.987
155341,158211,14482,-0.172,1.01,0.027,-0.854,0.427,0.549,652.993
155306,158087,9125,-0.169,1.007,0.029,-1.402,0,0.549,652.997
155306,158185,14482,-0.171,1.012,0.038,-1.402,0,0.549,653.003
155309,158087,9125,-0.172,1.017,0.045,-0.976,0.061,0.854,653.006
155309,158186,14484,-0.172,1.012,0.042,-0.976,0.061,0.854,653.013
155330,158087,9125,-0.176,1.012,0.037,0.549,0.793,0.61,653.016
155330,158196,14494,-0.18,1.017,0.029,0.549,0.793,0.61,653.022
155304,158087,9125,-0.178,1.019,0.026,1.159,1.159,0.122,653.026
155304,158191,14488,-0.174,1.022,0.031,1.159,1.159,0.122,653.032
155335,158087,9125,-0.175,1.023,0.033,0.549,0.732,0.366,653.036
155335,158177,14486,-0.172,1.019,0.034,0.549,0.732,0.366,653.042
155339,158087,9125,-0.17,1.014,0.035,0.244,0.366,0.549,653.046
155339,158188,14481,-0.17,1.011,0.031,0.244,0.366,0.549,653.052
155333,158087,9125,-0.17,1.011,0.027,0,0.549,0.183,653.056
155333,158188,14479,-0.17,1.009,0.032,0,0.549,0.183,653.062
155346,158087,9125,-0.173,1.008,0.033,0.183,0.671,0.244,653.066
155346,158189,14482,-0.172,1.008,0.034,0.183,0.671,0.244,653.072
155318,158087,9125,-0.173,1.003,0.033,0.427,0.671,0.427,653.076
155318,158168,14491,-0.169,1.006,0.028,0.427,0.671,0.427,653.082
155311,158087,9125,-0.167,1.015,0.021,-0.122,0.732,0.427,653.086
155311,158180,14485,-0.163,1.016,0.025,-0.122,0.732,0.427,653.092
155321,158087,9125,-0.166,1.008,0.035,-0.244,0.427,0.671,653.096
155321,158173,14498,-0.165,1.013,0.033,-0.244,0.427,0.671,653.102
155323,158343,9125,-0.165,1.02,0.026,0,0.244,0.976,653.105
155323,158216,14482,-0.167,1.015,0.027,0,0.244,0.976,653.112
155316,158087,9125,-0.171,1.013,0.031,0,0.549,0.427,653.115
155316,158195,14484,-0.17,1.017,0.035,0,0.549,0.427,653.121
155302,158087,9125,-0.17,1.022,0.037,-0.183,0.427,0.427,653.125
155302,158181,14468,-0.171,1.017,0.033,-0.183,0.427,0.427,653.131
155302,158087,9125,-0.172,1.013,0.039,-0.549,0,0.488,653.135
155302,158180,14481,-0.172,1.012,0.04,-0.549,0,0.488,653.141
155309,158087,9125,-0.171,1.011,0.031,-1.22,0.061,0.244,653.145
155309,158171,14466,-0.169,1.011,0.032,-1.22,0.061,0.244,653.151
155285,158087,9125,-0.169,1.016,0.034,-1.341,0.183,0.366,653.155
155285,158159,14473,-0.168,1.017,0.029,-1.341,0.183,0.366,653.161
155284,158087,9125,-0.167,1.011,0.027,-0.488,0.305,0.427,653.165
155284,158166,14458,-0.166,1.009,0.028,-0.488,0.305,0.427,653.171
155297,158087,9125,-0.171,1.008,0.033,0,0.366,0.061,653.175
155297,158163,14465,-0.173,1.009,0.036,0,0.366,0.061,653.181
155299,158087,9125,-0.173,1.014,0.032,-0.305,0.366,0.122,653.185
155299,158184,14465,-0.174,1.011,0.035,-0.305,0.366,0.122,653.191
155297,158087,9125,-0.171,1.011,0.034,-0.549,0.122,0.488,653.194
155297,158187,14484,-0.17,1.017,0.034,-0.549,0.122,0.488,653.201
155304,158087,9125,-0.168,1.013,0.04,-0.122,0.244,0.366,653.204
155304,158192,14479,-0.172,1.016,0.034,-0.122,0.244,0.366,653.211
155341,158087,9125,-0.172,1.011,0.032,-0.061,0.671,0.244,653.214
155341,158203,14495,-0.172,1.015,0.032,-0.061,0.671,0.244,653.22
155324,158087,9125,-0.172,1.019,0.035,-0.549,0.671,0.366,653.224
155324,158191,14483,-0.175,1.018,0.031,-0.549,0.671,0.366,653.23
155327,158087,9125,-0.171,1.014,0.033,-0.976,0.305,0.427,653.234
155327,158204,14495,-0.169,1.014,0.029,-0.976,0.305,0.427,653.24
155330,158343,9125,-0.171,1.018,0.026,-0.793,0.305,0.488,653.244
155330,158214,14479,-0.17,1.016,0.026,-0.793,0.305,0.488,653.25
155315,158087,9125,-0.171,1.017,0.028,-0.061,0.61,0.122,653.254
155315,158190,14473,-0.173,1.014,0.028,-0.061,0.61,0.122,653.26
155329,158087,9125,-0.171,1.012,0.028,0.427,0.549,-0.122,653.264
155329,158191,14479,-0.172,1.011,0.029,0.427,0.549,-0.122,653.27
155308,158343,9125,-0.174,1.007,0.033,-0.061,0.305,0.122,653.274
155308,158212,14488,-0.172,1.007,0.036,-0.061,0.305,0.122,653.28
155317,158087,9125,-0.172,1.011,0.034,-0.488,0.183,0.244,653.284
155317,158194,14466,-0.17,1.017,0.033,-0.488,0.183,0.244,653.29
155311,158087,9125,-0.168,1.015,0.037,-0.61,0.244,0.305,653.294
155311,158203,14476,-0.167,1.016,0.04,-0.61,0.244,0.305,653.3
155304,158087,9125,-0.172,1.016,0.035,-0.549,0.305,0.244,653.303
155304,158185,14475,-0.173,1.012,0.032,-0.549,0.305,0.244,653.31
155284,158087,9125,-0.172,1.01,0.035,-0.488,0.366,0.183,653.313
155284,158197,14478,-0.17,1.011,0.041,-0.488,0.366,0.183,653.319
155321,158087,9125,-0.173,1.015,0.039,-0.122,0.549,0.366,653.323
155321,158189,14491,-0.171,1.01,0.032,-0.122,0.549,0.366,653.329
155308,158087,9125,-0.169,1.011,0.033,0.427,0.61,0.122,653.333
155308,158180,14468,-0.168,1.017,0.036,0.427,0.61,0.122,653.339
155334,158343,9125,-0.173,1.019,0.036,0.305,0.732,0,653.343
155334,158213,14488,-0.173,1.016,0.035,0.305,0.732,0,653.349
155318,158343,9125,-0.173,1.016,0.035,0.305,0.732,0,653.353
155318,158228,14474,-0.172,1.018,0.036,0.122,0.671,0.122,653.359
155312,158087,9125,-0.172,1.018,0.036,0.122,0.671,0.122,653.363
155312,158194,14480,-0.171,1.007,0.034,-0.061,0.427,0,653.369
155303,158087,9125,-0.171,1.007,0.034,-0.061,0.427,0,653.373
155303,158202,14483,-0.172,1.006,0.037,-0.122,0.61,0.244,653.379
155316,158087,9125,-0.172,1.006,0.037,-0.122,0.61,0.244,653.383
155316,158207,14484,-0.171,1.013,0.024,-0.122,0.793,0.488,653.389
155309,158343,9125,-0.171,1.013,0.024,-0.122,0.793,0.488,653.392
155309,158214,14499,-0.172,1.014,0.032,-0.061,0.732,0.305,653.399
155323,158343,9125,-0.172,1.014,0.032,-0.061,0.732,0.305,653.402
155323,158238,14481,-0.17,1.019,0.033,0.183,0.732,0.427,653.409
155312,158343,9125,-0.17,1.019,0.033,0.183,0.732,0.427,653.412
155312,158211,14481,-0.171,1.011,0.036,0.183,0.854,0.305,653.418
155323,158343,9125,-0.171,1.011,0.036,0.183,0.854,0.305,653.422
155323,158255,14487,-0.168,1.015,0.033,0.549,0.793,0.122,653.428
155326,158343,9125,-0.168,1.015,0.033,0.549,0.793,0.122,653.432
155326,158213,14469,-0.168,1.015,0.027,0.244,0.671,0.244,653.438
155318,158343,9125,-0.168,1.015,0.027,0.244,0.671,0.244,653.442
155318,158220,14481,-0.169,1.016,0.028,0.183,0.488,0.305,653.448
155304,158343,9125,-0.169,1.016,0.028,0.183,0.488,0.305,653.452
155304,158239,14492,-0.173,1.01,0.037,-0.061,0.549,0.244,653.458
155333,158343,9125,-0.173,1.01,0.037,-0.061,0.549,0.244,653.462
155333,158233,14493,-0.174,1.018,0.029,-0.671,0.549,0.183,653.468
155309,158343,9125,-0.174,1.018,0.029,-0.671,0.549,0.183,653.472
155309,158238,14495,-0.17,1.011,0.027,-0.915,0.183,0.244,653.478
155309,158343,9125,-0.17,1.011,0.027,-0.915,0.183,0.244,653.482
155309,158218,14498,-0.172,1.008,0.027,-0.488,-0.244,0.366,653.488
155327,158343,9125,-0.172,1.008,0.027,-0.488,-0.244,0.366,653.492
155327,158243,14496,-0.17,1.005,0.027,-0.488,-0.061,0.366,653.498
155308,158343,9125,-0.173,1.01,0.029,-0.488,-0.061,0.366,653.501
155308,158211,14479,-0.175,1.014,0.034,-0.244,0,0.366,653.508
155313,158343,9125,-0.173,1.019,0.032,-0.244,0,0.366,653.511
155313,158211,14504,-0.171,1.018,0.035,0,0.061,0.549,653.517
155336,158343,9125,-0.168,1.019,0.035,0,0.061,0.549,653.521
155336,158222,14485,-0.166,1.019,0.031,-0.366,0.305,0.427,653.527
155316,158087,9125,-0.168,1.017,0.033,-0.366,0.305,0.427,653.531
155316,158204,14487,-0.166,1.015,0.031,-0.915,0.366,0.244,653.537
155318,158343,9125,-0.169,1.014,0.029,-0.915,0.366,0.244,653.541
155318,158243,14489,-0.172,1.011,0.028,-0.793,0.183,0.061,653.547
155324,158343,9125,-0.173,1.007,0.026,-0.793,0.183,0.061,653.551
155324,158256,14488,-0.173,1.006,0.029,-0.122,0.305,0,653.557
155297,158343,9125,-0.174,1.013,0.029,-0.122,0.305,0,653.561
155297,158245,14487,-0.174,1.015,0.029,0.366,0.366,0.061,653.567
155305,158343,9125,-0.172,1.012,0.036,0.366,0.366,0.061,653.571
155305,158216,14483,-0.172,1.013,0.033,0.61,0.061,0.305,653.577
155275,158343,9125,-0.172,1.015,0.033,0.61,0.061,0.305,653.581
155275,158210,14482,-0.173,1.017,0.039,-0.061,0.061,0.488,653.587
155297,158087,9125,-0.172,1.012,0.039,-0.061,0.061,0.488,653.591
155297,158201,14500,-0.173,1.007,0.037,-0.366,0,0.61,653.597
155299,158343,9125,-0.172,1.01,0.034,-0.366,0,0.61,653.6
155299,158215,14492,-0.171,1.013,0.038,-0.793,-0.061,0.549,653.607
155299,158343,9125,-0.171,1.012,0.039,-0.793,-0.061,0.549,653.61
155299,158213,14494,-0.172,1.009,0.037,-0.671,-0.183,0.671,653.616
155292,158343,9125,-0.172,1.008,0.034,-0.671,-0.183,0.671,653.62
155292,158249,14490,-0.173,1.016,0.031,-0.305,-0.061,0.671,653.626
155303,158343,9125,-0.17,1.026,0.032,-0.305,-0.061,0.671,653.63
155303,158222,14495,-0.166,1.018,0.034,-0.244,0.305,0.488,653.636
155299,158343,9125,-0.166,1.008,0.031,-0.244,0.305,0.488,653.64
155299,158252,14499,-0.167,1.016,0.026,-0.427,0.305,0.244,653.646
155303,158343,9125,-0.17,1.024,0.025,-0.427,0.305,0.244,653.65
155303,158220,14490,-0.17,1.02,0.027,-0.915,0.244,0.183,653.656
155296,158343,9125,-0.168,1.013,0.035,-0.915,0.244,0.183,653.66
155296,158241,14496,-0.17,1.013,0.03,-0.183,0.183,0.061,653.666
155287,158343,9125,-0.173,1.012,0.021,-0.183,0.183,0.061,653.67
155287,158234,14493,-0.174,1.009,0.02,-0.061,0.488,-0.122,653.676
155298,158343,9125,-0.171,1.004,0.033,-0.061,0.488,-0.122,653.68
155298,158220,14490,-0.173,1.002,0.037,-0.183,0.244,-0.183,653.686
155295,158343,9125,-0.174,1.006,0.029,-0.183,0.244,-0.183,653.689
155295,158233,14499,-0.172,1.009,0.033,-0.366,-0.305,0.427,653.696
155306,158343,9125,-0.175,1.01,0.037,-0.366,-0.305,0.427,653.699
155306,158230,14495,-0.171,1.013,0.038,-0.305,-0.244,0.549,653.706
155306,158343,9125,-0.174,1.015,0.042,-0.305,-0.244,0.549,653.709
155306,158227,14486,-0.174,1.018,0.044,-0.244,0.183,0.671,653.715
155307,158343,9125,-0.173,1.016,0.042,-0.244,0.183,0.671,653.719
155307,158244,14508,-0.176,1.015,0.04,-0.427,0.305,0.671,653.725
155307,158343,9125,-0.174,1.017,0.038,-0.427,0.305,0.671,653.729
155307,158211,14485,-0.173,1.012,0.033,-0.61,0.305,0.549,653.735
155305,158343,9125,-0.173,1.013,0.033,-0.61,0.305,0.549,653.739
155305,158234,14493,-0.174,1.017,0.031,-0.427,0.549,0.366,653.745
155305,158343,9125,-0.175,1.014,0.031,-0.427,0.549,0.366,653.749
155305,158213,14481,-0.173,1.016,0.028,0.061,0.488,0.366,653.755
155285,158343,9125,-0.169,1.016,0.024,0.061,0.488,0.366,653.759
155285,158222,14504,-0.169,1.015,0.029,0.183,0.305,0.122,653.765
155317,158343,9125,-0.17,1.015,0.025,0.183,0.305,0.122,653.769
155317,158238,14483,-0.172,1.01,0.029,-0.122,0.183,0.122,653.775
155304,158343,9125,-0.175,1.006,0.033,-0.122,0.183,0.122,653.779
155304,158233,14495,-0.173,1.016,0.031,-1.098,0.061,0.427,653.785
155291,158343,9125,-0.172,1.012,0.034,-1.098,0.061,0.427,653.788
155291,158257,14496,-0.169,1.009,0.032,-0.854,-0.183,0.549,653.795
155296,158343,9125,-0.167,1.008,0.025,-0.854,-0.183,0.549,653.798
155296,158259,14502,-0.168,1.01,0.032,-0.488,-0.061,0.488,653.805
155298,158343,9125,-0.171,1.012,0.034,-0.488,-0.061,0.488,653.808
155298,158227,14495,-0.173,1.015,0.036,-0.671,0.305,0.488,653.814
155275,158343,9125,-0.174,1.016,0.037,-0.671,0.305,0.488,653.818
155275,158251,14517,-0.175,1.017,0.035,-0.427,0.366,0.427,653.824
155301,158343,9125,-0.173,1.018,0.03,-0.427,0.366,0.427,653.828
155301,158259,14500,-0.172,1.017,0.033,-0.122,0.183,0.305,653.834
155318,158343,9125,-0.173,1.014,0.038,-0.122,0.183,0.305,653.838
155318,158266,14511,-0.177,1.013,0.033,-0.305,0.305,0.122,653.844
155301,158343,9125,-0.172,1.015,0.028,-0.305,0.305,0.122,653.848
155301,158283,14500,-0.172,1.012,0.029,-0.366,0.244,0.305,653.854
155310,158343,9125,-0.169,1.016,0.034,-0.366,0.244,0.305,653.858
155310,158249,14498,-0.169,1.014,0.042,-0.061,0.244,0.549,653.864
155311,158343,9125,-0.171,1.01,0.042,-0.061,0.244,0.549,653.868
155311,158274,14492,-0.173,1.01,0.031,0.305,0.61,0.183,653.874
155301,158343,9125,-0.174,1.013,0.025,0.305,0.61,0.183,653.878
155301,158240,14502,-0.173,1.011,0.032,0.427,0.549,0.061,653.884
155288,158343,9125,-0.171,1.007,0.033,0.427,0.549,0.061,653.887
155288,158259,14511,-0.171,1.008,0.036,0.305,0.305,0.244,653.894
155288,158343,9125,-0.173,1.009,0.03,0.305,0.305,0.244,653.897
155288,158247,14506,-0.172,1.01,0.029,-0.61,0.061,0.244,653.904
155291,158343,9125,-0.167,1.013,0.035,-0.61,0.061,0.244,653.907
155291,158255,14501,-0.171,1.016,0.037,-1.159,0,0.305,653.913
155290,158343,9125,-0.171,1.012,0.041,-1.159,0,0.305,653.917
155290,158251,14488,-0.17,1.008,0.035,-0.854,0.183,0.671,653.923
155293,158343,9125,-0.168,1.02,0.026,-0.854,0.183,0.671,653.927
155293,158229,14503,-0.168,1.024,0.034,-0.915,0.305,0.488,653.933
155293,158343,9125,-0.168,1.024,0.034,-0.915,0.305,0.488,653.937
155293,158221,14514,-0.172,1.006,0.035,-0.061,0.427,0.366,653.943
155280,158343,9125,-0.172,1.006,0.035,-0.061,0.427,0.366,653.947
155280,158214,14504,-0.173,1.014,0.03,0.061,0.671,0.305,653.953
155293,158087,9125,-0.173,1.014,0.03,0.061,0.671,0.305,653.957
155293,158198,14502,-0.17,1.011,0.03,0.122,0.305,0.183,653.963
155289,158087,9125,-0.17,1.011,0.03,0.122,0.305,0.183,653.967
155289,158194,14505,-0.171,1.013,0.042,-0.488,0.305,0.366,653.973
155296,158343,9125,-0.171,1.013,0.042,-0.488,0.305,0.366,653.977
155296,158224,14504,-0.174,1.012,0.032,-0.732,0.488,0.427,653.983
155266,158087,9125,-0.174,1.012,0.032,-0.732,0.488,0.427,653.986
155266,158195,14508,-0.17,1.012,0.037,-0.427,0.366,0.488,653.993
155300,158343,9125,-0.17,1.012,0.037,-0.427,0.366,0.488,653.996
155300,158210,14494,-0.176,1.015,0.035,-0.732,0.427,0.488,654.003
155292,158343,9125,-0.176,1.015,0.035,-0.732,0.427,0.488,654.006
155292,158226,14505,-0.177,1.013,0.028,-1.037,0.366,0.305,654.012
155314,158343,9125,-0.177,1.013,0.028,-1.037,0.366,0.305,654.016
155314,158228,14495,-0.172,1.014,0.035,-0.549,-0.061,0.305,654.022
155306,158343,9125,-0.172,1.014,0.035,-0.549,-0.061,0.305,654.026
155306,158223,14509,-0.17,1.011,0.034,0.427,0.305,0.366,654.032
155318,158343,9125,-0.17,1.011,0.034,0.427,0.305,0.366,654.036
155318,158237,14486,-0.171,1.02,0.038,0.915,0.732,0.244,654.042
155316,158343,9125,-0.171,1.02,0.038,0.915,0.732,0.244,654.046
155316,158226,14488,-0.17,1.009,0.036,0.488,0.671,0,654.052
155323,158343,9125,-0.17,1.009,0.036,0.488,0.671,0,654.056
155323,158229,14476,-0.169,1.015,0.035,0,0.61,0.183,654.062
155302,158343,9125,-0.169,1.015,0.035,0,0.61,0.183,654.066
155302,158228,14484,-0.168,1.008,0.033,-0.305,0.488,0.366,654.072
155310,158343,9125,-0.168,1.008,0.033,-0.305,0.488,0.366,654.076
155310,158244,14496,-0.168,1.01,0.034,-0.305,0.488,0.366,654.082
155299,158343,9125,-0.165,1.01,0.032,-0.244,0.122,0.244,654.085
155299,158238,14499,-0.168,1.009,0.031,-0.244,0.122,0.244,654.092
155293,158343,9125,-0.168,1.012,0.026,-0.061,0.366,0.305,654.095
155293,158243,14486,-0.17,1.011,0.028,-0.061,0.366,0.305,654.102
155306,158343,9125,-0.171,1.009,0.031,0.183,0.549,0.305,654.105
155306,158237,14479,-0.169,1.008,0.034,0.183,0.549,0.305,654.111
155302,158343,9125,-0.17,1.017,0.035,-0.183,0.244,0.427,654.115
155302,158220,14481,-0.173,1.014,0.036,-0.183,0.244,0.427,654.121
155319,158343,9125,-0.171,1.012,0.034,-0.488,0.061,0.488,654.125
155319,158228,14483,-0.166,1.014,0.036,-0.488,0.061,0.488,654.131
155317,158343,9125,-0.167,1.016,0.033,-0.061,0.061,0.61,654.135
155317,158239,14475,-0.17,1.016,0.034,-0.061,0.061,0.61,654.141
155309,158343,9125,-0.174,1.014,0.039,-0.122,0.427,0.366,654.145
155309,158225,14468,-0.173,1.015,0.041,-0.122,0.427,0.366,654.151
155308,158343,9125,-0.177,1.016,0.035,-0.488,0.61,0.366,654.155
155308,158227,14497,-0.175,1.012,0.033,-0.488,0.61,0.366,654.161
155317,158343,9125,-0.173,1.014,0.033,-0.549,0.183,0.61,654.165
155317,158232,14481,-0.174,1.015,0.035,-0.549,0.183,0.61,654.171
155318,158343,9125,-0.175,1.013,0.036,-0.427,0.305,0.366,654.175
155318,158231,14503,-0.176,1.012,0.031,-0.427,0.305,0.366,654.181
155326,158343,9125,-0.176,1.011,0.032,-0.183,0.549,0.244,654.184
155326,158237,14474,-0.178,1.01,0.042,-0.183,0.549,0.244,654.191
155294,158343,9125,-0.177,1.014,0.039,-0.183,0.549,0.366,654.194
155294,158236,14480,-0.172,1.015,0.033,-0.183,0.549,0.366,654.201
155312,158343,9125,-0.167,1.014,0.026,0.305,0.488,0.305,654.204
155312,158225,14478,-0.168,1.014,0.029,0.305,0.488,0.305,654.21
155284,158087,9125,-0.172,1.015,0.037,0.488,0.671,0.244,654.214
155284,158205,14472,-0.172,1.014,0.036,0.488,0.671,0.244,654.22
155319,158343,9125,-0.174,1.014,0.031,0.305,0.61,0.244,654.224
155319,158252,14482,-0.176,1.016,0.028,0.305,0.61,0.244,654.23
155291,158343,9125,-0.17,1.013,0.028,-0.183,0.305,0.183,654.234
155291,158242,14497,-0.168,1.012,0.03,-0.183,0.305,0.183,654.24
155322,158343,9125,-0.171,1.014,0.03,-0.305,0.244,0.366,654.244
155322,158210,14469,-0.169,1.008,0.032,-0.305,0.244,0.366,654.25
155283,158343,9125,-0.171,1.012,0.034,-0.061,0.305,0.366,654.254
155283,158225,14471,-0.172,1.017,0.032,-0.061,0.305,0.366,654.26
155283,158087,9125,-0.169,1.016,0.034,-0.061,0.488,0.244,654.264
155283,158200,14476,-0.169,1.013,0.034,-0.061,0.488,0.244,654.27
155273,158343,9125,-0.17,1.013,0.032,-0.122,0.427,0.183,654.274
155273,158211,14476,-0.175,1.015,0.031,-0.122,0.427,0.183,654.28
155294,158343,9125,-0.174,1.013,0.035,-0.61,0.427,0.305,654.283
155294,158229,14480,-0.172,1.008,0.037,-0.61,0.427,0.305,654.29
155261,158343,9125,-0.172,1.007,0.035,-0.549,0.183,0.366,654.293
155261,158223,14478,-0.172,1.016,0.032,-0.549,0.183,0.366,654.3
155270,158087,9125,-0.176,1.015,0.034,-0.244,0.183,0.244,654.303
155270,158198,14449,-0.172,1.012,0.038,-0.244,0.183,0.244,654.309
155261,158343,9125,-0.172,1.015,0.035,0.366,0.305,0.244,0.002
155261,158210,14491,-0.172,1.017,0.039,0.366,0.305,0.244,0.008
155280,158343,9125,-0.172,1.013,0.038,0.61,0.427,0.305,0.012
155280,158218,14479,-0.172,1.015,0.036,0.61,0.427,0.305,0.018
155256,158087,9125,-0.171,1.017,0.037,0.305,0.488,0.305,0.022
155256,158203,14496,-0.172,1.014,0.037,0.305,0.488,0.305,0.028
155272,158343,9125,-0.176,1.012,0.038,-0.183,0.549,0.244,0.031
155272,158215,14464,-0.175,1.007,0.034,-0.183,0.549,0.244,0.038
155235,158343,9125,-0.175,1.008,0.03,-0.427,0.427,0.488,0.041
155235,158212,14480,-0.17,1.018,0.027,-0.427,0.427,0.488,0.048
155266,158343,9125,-0.169,1.013,0.032,-0.61,0.366,0.427,0.051
155266,158224,14482,-0.17,1.006,0.032,-0.61,0.366,0.427,0.057
155280,158087,9125,-0.169,1.011,0.03,-0.244,0.488,0.488,0.061
155280,158204,14469,-0.174,1.019,0.028,-0.244,0.488,0.488,0.067
155282,158343,9125,-0.171,1.015,0.032,-0.244,0.427,0.427,0.071
155282,158212,14483,-0.17,1.011,0.036,-0.244,0.427,0.427,0.077
155287,158087,9125,-0.172,1.017,0.036,-0.244,0.122,0.488,0.081
155287,158193,14475,-0.174,1.016,0.035,-0.244,0.122,0.488,0.087
155249,158343,9125,-0.171,1.013,0.027,-0.488,0.244,0.366,0.091
155249,158214,14477,-0.17,1.012,0.026,-0.488,0.244,0.366,0.097
155284,158087,9125,-0.17,1.012,0.033,-0.549,0.244,0.244,0.101
155284,158207,14471,-0.168,1.011,0.033,-0.549,0.244,0.244,0.107
155280,158087,9125,-0.171,1.014,0.038,-0.366,0.244,0.549,0.111
155280,158203,14492,-0.172,1.017,0.04,-0.366,0.244,0.549,0.117
155258,158087,9125,-0.172,1.019,0.037,0.061,0.61,0.427,0.121
155258,158196,14477,-0.169,1.015,0.03,0.061,0.61,0.427,0.127
155258,158343,9125,-0.17,1.013,0.028,0.427,0.671,0.061,0.13
155258,158242,14481,-0.172,1.013,0.03,0.427,0.671,0.061,0.137
155272,158343,9125,-0.172,1.014,0.031,0.183,0.549,0.305,0.14
155272,158245,14469,-0.17,1.011,0.035,0.183,0.549,0.305,0.147
155272,158087,9125,-0.171,1.007,0.029,0,0.305,0.427,0.15
155272,158205,14479,-0.172,1.008,0.029,0,0.305,0.427,0.156
155279,158343,9125,-0.171,1.013,0.033,-0.305,0.305,0.244,0.16
155279,158213,14490,-0.171,1.016,0.039,-0.305,0.305,0.244,0.166
155290,158343,9125,-0.175,1.018,0.035,-0.122,0.427,0.305,0.17
155290,158226,14472,-0.172,1.016,0.024,-0.122,0.427,0.305,0.176
155274,158343,9125,-0.171,1.016,0.032,0.183,0.427,0.366,0.18
155274,158215,14489,-0.171,1.017,0.042,0.183,0.427,0.366,0.186
155301,158343,9125,-0.173,1.012,0.041,0,0.427,0.427,0.19
155301,158213,14479,-0.172,1.007,0.037,0,0.427,0.427,0.196
155300,158343,9125,-0.175,1.01,0.038,0,0.488,0.488,0.2
155300,158237,14475,-0.174,1.013,0.032,0,0.488,0.488,0.206
155292,158343,9125,-0.173,1.011,0.032,0.183,0.427,0.305,0.21
155292,158244,14484,-0.173,1.008,0.03,0.183,0.427,0.305,0.216
155276,158343,9125,-0.173,1.008,0.03,0.183,0.427,0.305,0.22
155276,158264,14479,-0.172,1.018,0.029,0.244,0.488,0.244,0.226
155278,158343,9125,-0.172,1.018,0.029,0.244,0.488,0.244,0.229
155278,158231,14479,-0.17,1.019,0.037,-0.305,0.305,0.61,0.236
155277,158343,9125,-0.17,1.019,0.037,-0.305,0.305,0.61,0.239
155277,158227,14499,-0.165,1.017,0.031,-0.549,0.061,0.488,0.246
155262,158343,9125,-0.165,1.017,0.031,-0.549,0.061,0.488,0.249
155262,158232,14471,-0.169,1.013,0.029,-0.732,0.183,0.366,0.255
155277,158343,9125,-0.169,1.013,0.029,-0.732,0.183,0.366,0.259
155277,158256,14487,-0.171,1.01,0.034,-0.793,0.488,0.305,0.265
155260,158343,9125,-0.171,1.01,0.034,-0.793,0.488,0.305,0.269
155260,158252,14489,-0.172,1.013,0.03,0.061,0.671,0.122,0.275
155270,158343,9125,-0.172,1.013,0.03,0.061,0.671,0.122,0.279
155270,158230,14483,-0.179,1.012,0.039,0.854,0.854,0.183,0.285
155256,158343,9125,-0.179,1.012,0.039,0.854,0.854,0.183,0.289
155256,158229,14491,-0.177,1.015,0.027,0.915,0.793,0.244,0.295
155285,158343,9125,-0.177,1.015,0.027,0.915,0.793,0.244,0.299
155285,158260,14472,-0.171,1.011,0.038,0.122,0.366,0.244,0.305
155282,158343,9125,-0.171,1.011,0.038,0.122,0.366,0.244,0.309
155282,158272,14474,-0.173,1.008,0.035,-0.366,0,0.427,0.315
155285,158343,9125,-0.173,1.008,0.035,-0.366,0,0.427,0.319
155285,158226,14500,-0.174,1.013,0.035,-0.366,0,0.549,0.325
155269,158343,9125,-0.174,1.013,0.035,-0.366,0,0.549,0.328
155269,158254,14491,-0.175,1.01,0.033,-0.122,0.183,0.366,0.335
155288,158343,9125,-0.175,1.01,0.033,-0.122,0.183,0.366,0.338
155288,158232,14489,-0.171,1.017,0.026,-0.061,0.244,0.549,0.345
155301,158343,9125,-0.171,1.017,0.026,-0.061,0.244,0.549,0.348
155301,158241,14468,-0.168,1.013,0.034,-0.549,0.122,0.671,0.354
155290,158343,9125,-0.168,1.013,0.034,-0.549,0.122,0.671,0.358
155290,158246,14490,-0.169,1.016,0.032,-0.793,0,0.61,0.364
155278,158343,9125,-0.168,1.019,0.029,-0.793,0,0.61,0.368
155278,158251,14498,-0.169,1.016,0.028,-0.61,0.122,0.488,0.374
155288,158343,9125,-0.168,1.012,0.026,-0.61,0.122,0.488,0.378
155288,158244,14474,-0.17,1.012,0.033,0.305,0.305,0.427,0.384
155285,158343,9125,-0.174,1.019,0.037,0.305,0.305,0.427,0.388
155285,158255,14481,-0.172,1.017,0.032,0.488,0.244,0.305,0.394
155290,158343,9125,-0.173,1.013,0.029,0.488,0.244,0.305,0.398
155290,158235,14488,-0.172,1.011,0.031,0.305,0.061,0.244,0.404
155290,158343,9125,-0.173,1.008,0.031,0.305,0.061,0.244,0.408
155290,158259,14488,-0.173,1.007,0.036,0,0.122,0.366,0.414
155299,158343,9125,-0.174,1.004,0.036,0,0.122,0.366,0.418
155299,158250,14498,-0.172,1.009,0.034,-0.061,0.061,0.732,0.424
155298,158343,9125,-0.169,1.019,0.034,-0.061,0.061,0.732,0.427
155298,158265,14483,-0.171,1.012,0.04,0,-0.183,0.671,0.434
155280,158343,9125,-0.172,1.006,0.04,0,-0.183,0.671,0.437
155280,158242,14490,-0.174,1.015,0.032,0,0.183,0.488,0.444
155290,158343,9125,-0.173,1.019,0.033,0,0.183,0.488,0.447
155290,158243,14497,-0.174,1.016,0.037,-0.732,0.427,0.488,0.453
155265,158343,9125,-0.174,1.014,0.04,-0.732,0.427,0.488,0.457
155265,158276,14491,-0.172,1.015,0.031,-0.549,0.244,0.61,0.463
155279,158343,9125,-0.167,1.016,0.025,-0.549,0.244,0.61,0.467
155279,158260,14487,-0.166,1.016,0.027,-0.244,0.427,0.366,0.473
155266,158343,9125,-0.171,1.015,0.039,-0.244,0.427,0.366,0.477
155266,158281,14497,-0.173,1.013,0.041,0,0.732,0.244,0.483
155292,158343,9125,-0.174,1.013,0.035,0,0.732,0.244,0.487
155292,158257,14496,-0.173,1.015,0.027,0.671,0.732,0.244,0.493
155280,158343,9125,-0.169,1.014,0.03,0.671,0.732,0.244,0.497
155280,158265,14493,-0.17,1.014,0.03,0.793,0.671,-0.122,0.503
155267,158343,9125,-0.167,1.012,0.032,0.793,0.671,-0.122,0.507
155267,158263,14490,-0.17,1.011,0.036,0.183,0.488,0.122,0.513
155281,158343,9125,-0.171,1.013,0.028,0.183,0.488,0.122,0.517
155281,158266,14477,-0.167,1.012,0.032,-0.305,0.305,0.427,0.523
155283,158343,9125,-0.167,1.008,0.036,-0.305,0.305,0.427,0.526
155283,158275,14502,-0.17,1.007,0.038,-0.244,0.305,0.305,0.533
155273,158343,9125,-0.171,1.01,0.033,-0.244,0.305,0.305,0.536
155273,158288,14492,-0.174,1.009,0.027,-0.244,0.61,0.549,0.543
155280,158343,9125,-0.171,1.012,0.029,-0.244,0.61,0.549,0.546
155280,158277,14510,-0.175,1.014,0.035,-0.122,0.488,0.427,0.552
155297,158343,9125,-0.175,1.016,0.041,-0.122,0.488,0.427,0.556
155297,158280,14501,-0.172,1.017,0.029,-0.244,0.427,0.366,0.562
155269,158343,9125,-0.173,1.012,0.023,-0.244,0.427,0.366,0.566
155269,158275,14490,-0.17,1.013,0.025,0.122,0.488,0.366,0.572
155298,158343,9125,-0.17,1.013,0.032,0.122,0.488,0.366,0.576
155298,158274,14494,-0.172,1.016,0.039,0.244,0.488,0.183,0.582
155253,158343,9125,-0.171,1.014,0.039,0.244,0.488,0.183,0.586
155253,158267,14503,-0.173,1.014,0.039,0.427,0.793,0.305,0.592
155281,158343,9125,-0.175,1.013,0.037,0.427,0.793,0.305,0.596
155281,158289,14487,-0.175,1.016,0.038,0.488,0.915,0.366,0.602
155281,158343,9125,-0.174,1.016,0.032,0.488,0.915,0.366,0.606
155281,158267,14485,-0.175,1.012,0.031,0.305,0.854,0.122,0.612
155295,158343,9125,-0.174,1.01,0.033,0.305,0.854,0.122,0.616
155295,158264,14493,-0.175,1.013,0.034,-0.427,0.732,0.366,0.622
155268,158343,9125,-0.175,1.01,0.034,-0.427,0.732,0.366,0.625
155268,158275,14508,-0.171,1.009,0.034,-0.854,0.305,0.488,0.632
155280,158343,9125,-0.168,1.012,0.034,-0.854,0.305,0.488,0.635
155280,158255,14499,-0.17,1.01,0.026,-0.427,0.427,0.366,0.642
155245,158343,9125,-0.169,1.011,0.025,-0.427,0.427,0.366,0.645
155245,158230,14504,-0.173,1.017,0.027,0,0.671,0.488,0.651
155280,158343,9125,-0.17,1.018,0.029,0,0.671,0.488,0.655
155280,158255,14485,-0.168,1.016,0.036,0.122,0.549,0.549,0.661
155260,158343,9125,-0.171,1.017,0.035,0.122,0.549,0.549,0.665
155260,158239,14472,-0.17,1.02,0.028,0.122,0.549,0.488,0.671
155271,158343,9125,-0.171,1.014,0.03,0.122,0.549,0.488,0.675
155271,158244,14503,-0.169,1.008,0.03,0.366,0.732,0.488,0.681
155266,158343,9125,-0.171,1.013,0.025,0.366,0.732,0.488,0.685
155266,158229,14487,-0.173,1.019,0.026,-0.122,0.732,0.366,0.691
155256,158087,9125,-0.17,1.009,0.033,-0.122,0.732,0.366,0.695
155256,158206,14487,-0.17,1.004,0.038,0.366,0.427,0.305,0.701
155251,158343,9125,-0.17,1.01,0.036,0.366,0.427,0.305,0.705
155251,158237,14500,-0.175,1.016,0.03,0.305,0.427,0.488,0.711
155269,158343,9125,-0.174,1.013,0.034,0.305,0.427,0.488,0.715
155269,158219,14479,-0.173,1.012,0.039,0.488,0.61,0.305,0.721
155258,158087,9125,-0.174,1.017,0.038,0.488,0.61,0.305,0.725
155258,158204,14485,-0.177,1.013,0.036,0.305,0.61,0.305,0.731
155278,158343,9125,-0.177,1.009,0.029,0.305,0.61,0.305,0.734
155278,158230,14479,-0.178,1.013,0.029,0.122,0.488,0.427,0.741
155258,158087,9125,-0.175,1.016,0.036,0.122,0.488,0.427,0.744
155258,158204,14489,-0.174,1.017,0.037,0,0.61,0.488,0.75
155258,158343,9125,-0.173,1.015,0.031,0,0.61,0.488,0.754
155258,158227,14479,-0.172,1.014,0.028,0.366,0.793,0.366,0.76
155259,158343,9125,-0.17,1.015,0.031,0.366,0.793,0.366,0.764
155259,158221,14490,-0.17,1.018,0.032,0.427,0.854,0.305,0.77
155273,158343,9125,-0.171,1.015,0.031,0.427,0.854,0.305,0.774
155273,158242,14471,-0.169,1.012,0.027,0.732,0.976,0.244,0.78
155256,158343,9125,-0.17,1.015,0.029,0.732,0.976,0.244,0.784
155256,158236,14470,-0.17,1.016,0.031,0.488,0.976,0.183,0.79
155252,158087,9125,-0.171,1.01,0.032,0.488,0.976,0.183,0.794
155252,158200,14483,-0.167,1.011,0.033,0.305,0.61,0.122,0.8
155261,158343,9125,-0.167,1.011,0.033,0.305,0.61,0.122,0.804
155261,158221,14466,-0.168,1.014,0.025,0.061,0.488,0.244,0.81
155243,158343,9125,-0.168,1.014,0.025,0.061,0.488,0.244,0.814
155243,158215,14466,-0.166,1.012,0.025,0.305,0.61,0.366,0.82
155272,158087,9125,-0.166,1.012,0.025,0.305,0.61,0.366,0.823
155272,158197,14463,-0.17,1.016,0.029,0.244,0.732,0.183,0.83
155256,158343,9125,-0.17,1.016,0.029,0.244,0.732,0.183,0.833
155256,158218,14464,-0.17,1.007,0.026,0.122,0.61,0.183,0.84
155277,158343,9125,-0.17,1.007,0.026,0.122,0.61,0.183,0.843
155277,158208,14467,-0.17,1.014,0.025,-0.122,0.366,0.305,0.849
155298,158343,9125,-0.17,1.014,0.025,-0.122,0.366,0.305,0.853
155298,158219,14464,-0.172,1.008,0.033,-0.244,0.366,0.488,0.859
155293,158343,9125,-0.172,1.008,0.033,-0.244,0.366,0.488,0.863
155293,158225,14468,-0.172,1.021,0.029,0.122,0.549,0.549,0.869
155265,158087,9125,-0.172,1.021,0.029,0.122,0.549,0.549,0.873
155265,158197,14469,-0.171,1.015,0.034,0.61,0.61,0.305,0.879
155278,158343,9125,-0.171,1.015,0.034,0.61,0.61,0.305,0.883
155278,158231,14464,-0.175,1.016,0.026,0.427,0.793,0,0.889
155275,158343,9125,-0.175,1.016,0.026,0.427,0.793,0,0.893
155275,158220,14463,-0.178,1.011,0.032,-0.427,0.549,0.305,0.899
155281,158343,9125,-0.178,1.011,0.032,-0.427,0.549,0.305,0.903
155281,158219,14477,-0.174,1.001,0.03,-0.488,0.244,0.427,0.909
155283,158343,9125,-0.174,1.001,0.03,-0.488,0.244,0.427,0.913
155283,158211,14468,-0.173,1.016,0.027,-0.244,0.61,0.366,0.919
155280,158343,9125,-0.173,1.016,0.027,-0.244,0.61,0.366,0.923
155280,158234,14467,-0.171,1.016,0.034,0.366,0.793,0.366,0.929
155270,158343,9125,-0.171,1.016,0.034,0.366,0.793,0.366,0.932
155270,158228,14472,-0.173,1.018,0.034,0.244,0.915,0.427,0.939
155276,158343,9125,-0.173,1.018,0.034,0.244,0.915,0.427,0.942
155276,158231,14448,-0.173,1.013,0.026,-0.183,0.854,0.305,0.948
155260,158343,9125,-0.173,1.013,0.026,-0.183,0.854,0.305,0.952
155260,158216,14476,-0.171,1.014,0.026,-0.183,0.854,0.305,0.958
155300,158343,9125,-0.169,1.012,0.029,-0.488,0.61,0.244,0.962
155300,158253,14470,-0.169,1.009,0.027,-0.488,0.61,0.244,0.968
155276,158343,9125,-0.168,1.014,0.026,-0.122,0.671,0.366,0.972
155276,158244,14479,-0.169,1.016,0.028,-0.122,0.671,0.366,0.978
155298,158343,9125,-0.17,1.008,0.031,0.183,0.854,0.061,0.982
155298,158244,14466,-0.172,1.008,0.034,0.183,0.854,0.061,0.988
155286,158343,9125,-0.171,1.013,0.03,0.366,0.793,0,0.992
155286,158248,14495,-0.169,1.015,0.026,0.366,0.793,0,0.998
155288,158343,9125,-0.168,1.015,0.032,0.305,0.61,0.244,1.002
155288,158276,14465,-0.17,1.015,0.028,0.305,0.61,0.244,1.008
155302,158343,9125,-0.17,1.012,0.028,0.305,0.61,0.366,1.012
155302,158263,14477,-0.176,1.009,0.034,0.305,0.61,0.366,1.018
155283,158343,9125,-0.177,1.013,0.031,0.061,0.793,0.366,1.021
155283,158250,14482,-0.176,1.011,0.034,0.061,0.793,0.366,1.028
155281,158343,9125,-0.178,1.006,0.031,0.183,0.793,0.366,1.031
155281,158257,14471,-0.177,1.012,0.027,0.183,0.793,0.366,1.038
155300,158343,9125,-0.171,1.021,0.027,0.183,0.61,0.427,1.041
155300,158251,14456,-0.171,1.018,0.032,0.183,0.61,0.427,1.047
155284,158343,9125,-0.171,1.013,0.036,0.427,0.61,0.305,1.051
155284,158244,14479,-0.174,1.016,0.031,0.427,0.61,0.305,1.057
155327,158343,9125,-0.176,1.019,0.023,0.549,0.854,0.488,1.061
155327,158285,14471,-0.173,1.016,0.024,0.549,0.854,0.488,1.067
155290,158343,9125,-0.175,1.01,0.033,0.427,1.159,0.183,1.071
155290,158266,14473,-0.176,1.012,0.035,0.427,1.159,0.183,1.077
155323,158343,9125,-0.176,1.014,0.029,0.183,1.098,0.366,1.081
155323,158244,14451,-0.173,1.014,0.026,0.183,1.098,0.366,1.087
155312,158343,9125,-0.17,1.011,0.03,-0.305,0.671,0.427,1.091
155312,158252,14471,-0.169,1.012,0.031,-0.305,0.671,0.427,1.097
155305,158343,9125,-0.167,1.013,0.031,-0.366,0.488,0.244,1.101
155305,158256,14484,-0.167,1.008,0.023,-0.366,0.488,0.244,1.107
155301,158343,9125,-0.174,1.008,0.022,-0.61,0.427,0.244,1.111
155301,158244,14480,-0.171,1.007,0.022,-0.61,0.427,0.244,1.117
155320,158343,9125,-0.169,1.003,0.03,-0.854,0.305,0.183,1.121
155320,158251,14462,-0.172,1.008,0.033,-0.854,0.305,0.183,1.127
155288,158343,9125,-0.172,1.015,0.029,0.305,0.244,0.732,1.13
155288,158276,14481,-0.171,1.024,0.024,0.305,0.244,0.732,1.137
155310,158343,9125,-0.172,1.02,0.034,0.915,0.671,0.488,1.14
155310,158289,14473,-0.172,1.018,0.038,0.915,0.671,0.488,1.146
155323,158343,9125,-0.178,1.018,0.037,0.854,0.976,0.244,1.15
155323,158271,14481,-0.179,1.017,0.027,0.854,0.976,0.244,1.156
155320,158343,9125,-0.173,1.016,0.025,-0.061,0.671,0.305,1.16
155320,158283,14463,-0.171,1.009,0.026,-0.061,0.671,0.305,1.166
155315,158343,9125,-0.171,1.008,0.028,-0.671,0.122,0.244,1.17
155315,158273,14491,-0.173,1.01,0.031,-0.671,0.122,0.244,1.176
155314,158343,9125,-0.172,1.013,0.027,-0.915,0.122,0.366,1.18
155314,158287,14479,-0.17,1.014,0.021,-0.915,0.122,0.366,1.186
155306,158343,9125,-0.17,1.018,0.024,-0.122,0.366,0.183,1.19
155306,158291,14469,-0.17,1.017,0.03,-0.122,0.366,0.183,1.196
155302,158343,9125,-0.172,1.016,0.031,0.854,0.671,0.122,1.2
155302,158281,14490,-0.175,1.012,0.027,0.854,0.671,0.122,1.206
155302,158343,9125,-0.175,1.013,0.019,0.671,0.793,0.122,1.21
155302,158289,14485,-0.171,1.016,0.014,0.671,0.793,0.122,1.216
155315,158343,9125,-0.17,1.013,0.024,-0.183,0.183,0.122,1.219
155315,158287,14478,-0.168,1.01,0.035,-0.183,0.183,0.122,1.226
155328,158343,9125,-0.168,1.012,0.032,-0.366,-0.183,0.427,1.229
155328,158303,14485,-0.167,1.015,0.02,-0.366,-0.183,0.427,1.236
155331,158343,9125,-0.166,1.016,0.02,-0.61,0.122,0.305,1.239
155331,158299,14483,-0.167,1.01,0.026,-0.61,0.122,0.305,1.245
155312,158343,9125,-0.169,1.007,0.035,-0.793,0.305,0.122,1.249
155312,158313,14481,-0.173,1.006,0.031,-0.793,0.305,0.122,1.255
155346,158343,9125,-0.174,1.01,0.026,-0.793,0.366,0.549,1.259
155346,158291,14461,-0.173,1.014,0.021,-0.793,0.366,0.549,1.265
155325,158343,9125,-0.174,1.015,0.021,-0.488,0.427,0.427,1.269
155325,158307,14479,-0.172,1.015,0.028,-0.488,0.427,0.427,1.275
155323,158343,9125,-0.175,1.013,0.03,-0.549,0.122,0.549,1.279
155323,158271,14494,-0.176,1.015,0.033,-0.549,0.122,0.549,1.285
155305,158343,9125,-0.175,1.016,0.028,-0.671,-0.305,0.732,1.289
155305,158295,14496,-0.169,1.013,0.031,-0.671,-0.305,0.732,1.295
155324,158343,9125,-0.168,1.009,0.032,-0.122,-0.488,0.488,1.299
155324,158295,14474,-0.171,1.009,0.035,-0.122,-0.488,0.488,1.305
155296,158343,9125,-0.174,1.013,0.03,-0.305,-0.244,0.549,1.309
155296,158282,14489,-0.174,1.014,0.029,-0.305,-0.244,0.549,1.315
155310,158343,9125,-0.172,1.013,0.034,-0.976,-0.244,0.61,1.319
155310,158303,14484,-0.17,1.012,0.031,-0.976,-0.244,0.61,1.325
155321,158343,9125,-0.167,1.011,0.03,-1.341,-0.671,0.732,1.328
155321,158300,14477,-0.166,1.019,0.024,-1.341,-0.671,0.732,1.335
155306,158343,9125,-0.166,1.02,0.026,-1.524,-0.488,0.915,1.338
155306,158291,14493,-0.165,1.014,0.033,-1.524,-0.488,0.915,1.344
155319,158343,9125,-0.167,1.006,0.033,-1.22,-0.183,0.61,1.348
155319,158279,14479,-0.174,1.008,0.027,-1.22,-0.183,0.61,1.354
155314,158343,9125,-0.174,1.016,0.023,-1.159,-0.061,0.427,1.358
155314,158276,14488,-0.17,1.02,0.028,-1.159,-0.061,0.427,1.364
155337,158343,9125,-0.168,1.012,0.04,-0.793,-0.061,0.366,1.368
155337,158316,14473,-0.168,1.014,0.042,-0.793,-0.061,0.366,1.374
155336,158343,9125,-0.174,1.012,0.032,0.061,0.305,0.427,1.378
155336,158290,14494,-0.175,1.013,0.028,0.061,0.305,0.427,1.384
155359,158343,9125,-0.175,1.021,0.026,-0.061,0.366,0.183,1.388
155359,158324,14487,-0.17,1.022,0.031,-0.061,0.366,0.183,1.394
155316,158343,9125,-0.17,1.022,0.031,-0.061,0.366,0.183,1.398
155316,158316,14497,-0.173,1.01,0.035,-0.671,0.061,0.183,1.404
155343,158343,9125,-0.173,1.01,0.035,-0.671,0.061,0.183,1.408
155343,158326,14489,-0.174,1.006,0.031,-0.732,-0.122,0.61,1.414
155315,158343,9125,-0.174,1.006,0.031,-0.732,-0.122,0.61,1.417
155315,158289,14478,-0.172,1.008,0.045,-0.915,-0.122,0.305,1.424
155335,158343,9125,-0.172,1.008,0.045,-0.915,-0.122,0.305,1.427
155335,158316,14495,-0.173,1.018,0.042,-0.488,0.183,0.427,1.434
155330,158343,9125,-0.173,1.018,0.042,-0.488,0.183,0.427,1.437
155330,158323,14478,-0.17,1.011,0.039,0.122,0.427,0.61,1.444
155321,158343,9125,-0.17,1.011,0.039,0.122,0.427,0.61,1.447
155321,158314,14493,-0.17,1.016,0.035,0.366,0.793,0.305,1.453
155329,158343,9125,-0.17,1.016,0.035,0.366,0.793,0.305,1.457
155329,158347,14497,-0.168,1.012,0.029,-0.183,0.915,0.366,1.463
155338,158343,9125,-0.168,1.012,0.029,-0.183,0.915,0.366,1.467
155338,158341,14495,-0.17,1.014,0.028,-0.122,0.793,0.305,1.473
155342,158343,9125,-0.17,1.014,0.028,-0.122,0.793,0.305,1.477
155342,158334,14487,-0.169,1.014,0.024,-0.305,0.732,0,1.483
155339,158343,9125,-0.169,1.014,0.024,-0.305,0.732,0,1.487
155339,158330,14498,-0.171,1.013,0.029,-0.244,0.671,0.183,1.493
155338,158343,9125,-0.171,1.013,0.029,-0.244,0.671,0.183,1.497
155338,158319,14491,-0.171,1.017,0.026,0.061,0.427,0.244,1.503
155326,158343,9125,-0.171,1.017,0.026,0.061,0.427,0.244,1.507
155326,158325,14482,-0.171,1.009,0.02,0,0.549,0.122,1.513
155340,158343,9125,-0.171,1.009,0.02,0,0.549,0.122,1.517
155340,158319,14501,-0.169,1.011,0.024,-0.732,0.366,0.122,1.523
155332,158343,9125,-0.169,1.011,0.024,-0.732,0.366,0.122,1.526
155332,158318,14501,-0.171,1.012,0.03,-0.854,0.061,0.366,1.533
155322,158343,9125,-0.171,1.012,0.03,-0.854,0.061,0.366,1.536
155322,158342,14500,-0.173,1.016,0.036,-0.854,0.122,0.366,1.542
155339,158343,9125,-0.174,1.006,0.033,-0.854,0.122,0.366,1.546
155339,158329,14480,-0.175,1.005,0.035,-0.549,0.366,0.305,1.552
155319,158343,9125,-0.174,1.014,0.033,-0.549,0.366,0.305,1.556
155319,158345,14496,-0.175,1.016,0.029,-0.732,0.183,0.427,1.562
155295,158343,9125,-0.177,1.017,0.028,-0.732,0.183,0.427,1.566
155295,158289,14496,-0.176,1.012,0.032,-0.549,0.305,0.549,1.572
155308,158343,9125,-0.177,1.012,0.038,-0.549,0.305,0.549,1.576
155308,158322,14489,-0.179,1.016,0.038,-0.671,0.488,0.61,1.582
155303,158343,9125,-0.175,1.012,0.03,-0.671,0.488,0.61,1.586
155303,158310,14493,-0.173,1.012,0.027,-0.366,0.366,0.305,1.592
155295,158343,9125,-0.172,1.017,0.033,-0.366,0.366,0.305,1.596
155295,158289,14504,-0.17,1.017,0.034,0.061,0.122,0.122,1.602
155293,158343,9125,-0.174,1.017,0.035,0.061,0.122,0.122,1.606
155293,158300,14489,-0.175,1.016,0.034,-0.183,0.305,0.244,1.612
155294,158343,9125,-0.173,1.013,0.032,-0.183,0.305,0.244,1.616
155294,158309,14500,-0.172,1.013,0.034,-0.671,0.244,0.183,1.622
155283,158343,9125,-0.169,1.014,0.034,-0.671,0.244,0.183,1.625
155283,158280,14493,-0.172,1.009,0.032,-0.732,0.122,0.366,1.632
155266,158343,9125,-0.172,1.007,0.034,-0.732,0.122,0.366,1.635
155266,158283,14500,-0.169,1.01,0.033,-0.305,0.427,0.427,1.642
155275,158343,9125,-0.171,1.012,0.031,-0.305,0.427,0.427,1.645
155275,158280,14503,-0.167,1.014,0.027,0.122,0.61,0.427,1.651
155261,158343,9125,-0.168,1.017,0.022,0.122,0.61,0.427,1.655
155261,158275,14504,-0.168,1.017,0.022,0.671,0.671,0.305,1.661
155261,158343,9125,-0.172,1.013,0.024,0.671,0.671,0.305,1.665
155261,158285,14494,-0.174,1.014,0.037,0.244,0.732,0.183,1.671
155253,158343,9125,-0.177,1.013,0.039,0.244,0.732,0.183,1.675
155253,158274,14509,-0.177,1.012,0.033,-0.305,0.427,0.183,1.681
155246,158343,9125,-0.173,1.012,0.03,-0.305,0.427,0.183,1.685
155246,158297,14494,-0.173,1.011,0.03,-0.366,0.061,0.244,1.691
155261,158343,9125,-0.172,1.01,0.03,-0.366,0.061,0.244,1.695
155261,158260,14495,-0.169,1.013,0.029,0,0.183,0.366,1.701
155254,158343,9125,-0.169,1.013,0.032,0,0.183,0.366,1.705
155254,158264,14485,-0.175,1.013,0.034,0.305,0.488,0.244,1.711
155229,158343,9125,-0.175,1.015,0.032,0.305,0.488,0.244,1.715
155229,158266,14489,-0.176,1.015,0.029,0.305,0.549,0.061,1.721
155241,158343,9125,-0.174,1.009,0.034,0.305,0.549,0.061,1.724
155241,158252,14484,-0.176,1.015,0.037,0.122,0.427,0.061,1.731
155241,158343,9125,-0.176,1.018,0.038,0.122,0.427,0.061,1.734
155241,158249,14501,-0.173,1.01,0.035,-0.366,0.427,0.244,1.741
155225,158343,9125,-0.175,1.01,0.029,-0.366,0.427,0.244,1.744
155225,158243,14473,-0.173,1.014,0.03,-0.427,0.366,-0.061,1.75
155252,158343,9125,-0.17,1.012,0.029,-0.427,0.366,-0.061,1.754
155252,158236,14479,-0.171,1.013,0.033,-0.122,0.549,0.122,1.76
155240,158343,9125,-0.17,1.015,0.03,-0.122,0.549,0.122,1.764
155240,158241,14478,-0.168,1.02,0.03,0.366,0.549,0.244,1.77
155239,158343,9125,-0.172,1.015,0.034,0.366,0.549,0.244,1.774
155239,158256,14481,-0.172,1.01,0.035,0.305,0.61,0.183,1.78
155228,158343,9125,-0.17,1.009,0.028,0.305,0.61,0.183,1.784
155228,158238,14477,-0.169,1.018,0.024,0.061,0.427,0.183,1.79
155259,158343,9125,-0.166,1.017,0.032,0.061,0.427,0.183,1.794
155259,158239,14486,-0.166,1.009,0.033,-0.488,0.183,0.305,1.8
155233,158343,9125,-0.169,1.002,0.034,-0.488,0.183,0.305,1.804
155233,158233,14486,-0.169,1.009,0.034,-0.244,0.366,0.549,1.81
155264,158343,9125,-0.17,1.01,0.03,-0.244,0.366,0.549,1.814
155264,158227,14451,-0.169,1.013,0.03,0,0.549,0.366,1.82
155239,158343,9125,-0.167,1.014,0.03,0,0.549,0.366,1.823
155239,158248,14481,-0.17,1.017,0.032,0.549,0.427,0.366,1.83
155222,158343,9125,-0.172,1.02,0.032,0.549,0.427,0.366,1.833
155222,158245,14483,-0.174,1.018,0.036,0.305,0.61,0.366,1.84
155253,158343,9125,-0.173,1.015,0.032,0.305,0.61,0.366,1.843
155253,158238,14476,-0.171,1.012,0.031,-0.244,0.61,0.183,1.849
155234,158343,9125,-0.175,1.006,0.026,-0.244,0.61,0.183,1.853
155234,158260,14487,-0.178,1.01,0.021,-0.793,0.427,0.244,1.859
155247,158343,9125,-0.171,1.014,0.022,-0.793,0.427,0.244,1.863
155247,158257,14466,-0.172,1.012,0.032,-0.732,0.244,0.366,1.869
155229,158343,9125,-0.175,1.011,0.037,-0.732,0.244,0.366,1.873
155229,158273,14467,-0.175,1.013,0.036,0.305,0.549,0.305,1.879
155228,158343,9125,-0.177,1.019,0.031,0.305,0.549,0.305,1.883
155228,158241,14470,-0.176,1.021,0.027,0.305,0.915,-0.122,1.889
155240,158343,9125,-0.172,1.018,0.028,0.305,0.915,-0.122,1.893
155240,158254,14466,-0.172,1.013,0.024,0,0.61,-0.244,1.899
155213,158343,9125,-0.172,1.011,0.026,0,0.61,-0.244,1.903
155213,158225,14471,-0.173,1.012,0.022,-0.427,0.366,0.183,1.909
155218,158343,9125,-0.173,1.012,0.03,-0.427,0.366,0.183,1.913
155218,158246,14466,-0.171,1.01,0.032,0,0.366,-0.061,1.919
155217,158343,9125,-0.175,1.011,0.031,0,0.366,-0.061,1.922
155217,158242,14459,-0.178,1.018,0.034,0.61,0.671,-0.122,1.929
155231,158343,9125,-0.174,1.016,0.036,0.61,0.671,-0.122,1.932
155231,158268,14473,-0.178,1.014,0.029,0.305,0.793,0,1.939
155223,158343,9125,-0.179,1.015,0.022,0.305,0.793,0,1.942
155223,158255,14466,-0.174,1.011,0.024,-0.244,0.61,-0.061,1.948
155227,158343,9125,-0.17,1.01,0.039,-0.244,0.61,-0.061,1.952
155227,158240,14475,-0.168,1.009,0.035,-0.732,0.183,0.305,1.958
155215,158343,9125,-0.169,1.009,0.023,-0.732,0.183,0.305,1.962
155215,158251,14475,-0.168,1.008,0.021,-0.488,0.427,0.366,1.968
155219,158343,9125,-0.173,1.007,0.031,-0.488,0.427,0.366,1.972
155219,158234,14469,-0.173,1.01,0.033,0.366,0.61,0,1.978
155237,158343,9125,-0.173,1.014,0.031,0.366,0.61,0,1.982
155237,158246,14473,-0.174,1.013,0.031,0.671,0.671,0.305,1.988
155220,158343,9125,-0.174,1.013,0.031,0.671,0.671,0.305,1.992
155220,158246,14475,-0.173,1.015,0.029,0.305,0.732,0.366,1.998
155245,158343,9125,-0.173,1.015,0.029,0.305,0.732,0.366,2.002
155245,158256,14469,-0.173,1.016,0.029,-0.488,0.305,0.244,2.008
155253,158343,9125,-0.173,1.016,0.029,-0.488,0.305,0.244,2.012
155253,158232,14470,-0.172,1.014,0.031,-0.854,-0.061,0.305,2.018
155255,158343,9125,-0.172,1.014,0.031,-0.854,-0.061,0.305,2.021
155255,158256,14479,-0.173,1.011,0.034,-0.61,0,0.366,2.028
155234,158343,9125,-0.173,1.011,0.034,-0.61,0,0.366,2.031
155234,158263,14468,-0.172,1.012,0.03,0.061,0.183,0.244,2.038
155244,158343,9125,-0.172,1.012,0.03,0.061,0.183,0.244,2.041
155244,158251,14489,-0.174,1.015,0.032,0.366,0.488,0.183,2.047
155243,158343,9125,-0.174,1.015,0.032,0.366,0.488,0.183,2.051
155243,158243,14473,-0.177,1.013,0.034,-0.183,0.488,0.244,2.057
155233,158343,9125,-0.177,1.013,0.034,-0.183,0.488,0.244,2.061
155233,158265,14476,-0.175,1.019,0.031,-0.488,0.244,0.366,2.067
155264,158343,9125,-0.175,1.019,0.031,-0.488,0.244,0.366,2.071
155264,158280,14474,-0.175,1.008,0.033,-0.366,0.305,0.366,2.077
155268,158343,9125,-0.175,1.008,0.033,-0.366,0.305,0.366,2.081
155268,158270,14483,-0.172,1.013,0.029,-0.366,0.549,0.244,2.087
155267,158343,9125,-0.172,1.013,0.029,-0.366,0.549,0.244,2.091
155267,158303,14481,-0.169,1.008,0.033,0.061,0.488,0.366,2.097
155240,158343,9125,-0.169,1.008,0.033,0.061,0.488,0.366,2.101
155240,158292,14492,-0.174,1.016,0.025,0.427,0.488,0.427,2.107
155284,158343,9125,-0.174,1.016,0.025,0.427,0.488,0.427,2.111
155284,158290,14489,-0.173,1.012,0.033,0.305,0.61,0.366,2.117
155273,158343,9125,-0.173,1.012,0.033,0.305,0.61,0.366,2.12
155273,158303,14486,-0.172,1.015,0.032,-0.122,0.61,0.549,2.127
155276,158343,9125,-0.172,1.015,0.032,-0.122,0.61,0.549,2.13
155276,158312,14489,-0.172,1.014,0.028,-0.122,0.61,0.549,2.137
155304,158343,9125,-0.172,1.012,0.027,-0.488,0.366,0.427,2.14
155304,158317,14474,-0.172,1.013,0.026,-0.488,0.366,0.427,2.146
155278,158343,9125,-0.175,1.009,0.027,-0.732,0.244,0.366,2.15
155278,158296,14495,-0.175,1.011,0.025,-0.732,0.244,0.366,2.156
155323,158343,9125,-0.175,1.012,0.024,-0.549,0.244,0.488,2.16
155323,158338,14495,-0.174,1.016,0.033,-0.549,0.244,0.488,2.166
155363,158343,9125,-0.174,1.015,0.038,-0.122,0.244,0.366,2.17
155363,158355,14513,-0.174,1.012,0.031,-0.122,0.244,0.366,2.176
155405,158343,9125,-0.176,1.014,0.028,-0.122,0.427,0.366,2.18
155405,158387,14508,-0.177,1.016,0.026,-0.122,0.427,0.366,2.186
155408,158343,9125,-0.172,1.013,0.027,-0.366,0.183,0.488,2.19
155408,158379,14493,-0.17,1.012,0.031,-0.366,0.183,0.488,2.196
155421,158343,9125,-0.169,1.011,0.03,-0.122,-0.244,0.427,2.2
155421,158403,14497,-0.172,1.01,0.029,-0.122,-0.244,0.427,2.206
155402,158343,9125,-0.173,1.016,0.031,-0.061,0.061,0.427,2.21
155402,158415,14510,-0.171,1.02,0.027,-0.061,0.061,0.427,2.216
155405,158343,9125,-0.17,1.016,0.029,-0.122,0.244,0.183,2.219
155405,158387,14508,-0.168,1.013,0.03,-0.122,0.244,0.183,2.226
155401,158343,9125,-0.167,1.017,0.03,-0.122,0.122,0.305,2.229
155401,158409,14502,-0.168,1.016,0.027,-0.122,0.122,0.305,2.236
155391,158343,9125,-0.171,1.007,0.033,-0.122,0.427,0.244,2.239
155391,158404,14514,-0.172,1.007,0.031,-0.122,0.427,0.244,2.245
155392,158343,9125,-0.175,1.014,0.029,0.183,0.671,0.061,2.249
155392,158401,14519,-0.177,1.016,0.026,0.183,0.671,0.061,2.255
155385,158343,9125,-0.174,1.013,0.028,0.427,0.549,0.244,2.259
155385,158380,14509,-0.173,1.013,0.035,0.427,0.549,0.244,2.265
155395,158343,9125,-0.176,1.012,0.034,0.244,0.488,0.305,2.269
155395,158390,14509,-0.177,1.011,0.034,0.244,0.488,0.305,2.275
155369,158343,9125,-0.176,1.013,0.036,0,0.366,0.305,2.279
155369,158402,14507,-0.174,1.011,0.036,0,0.366,0.305,2.285
155376,158343,9125,-0.171,1.01,0.028,0.061,0.122,0.366,2.289
155376,158390,14485,-0.173,1.012,0.029,0.061,0.122,0.366,2.295
155361,158343,9125,-0.175,1.013,0.034,0.244,0.366,0.427,2.299
155361,158377,14518,-0.176,1.011,0.03,0.244,0.366,0.427,2.305
155360,158343,9125,-0.176,1.009,0.029,0.122,0.549,0.549,2.309
155360,158366,14509,-0.176,1.013,0.031,0.122,0.549,0.549,2.315
155350,158343,9125,-0.173,1.012,0.036,-0.366,0.427,0.549,2.318
155350,158378,14502,-0.173,1.015,0.032,-0.366,0.427,0.549,2.325
155364,158343,9125,-0.171,1.016,0.029,-0.488,0.305,0.549,2.328
155364,158378,14503,-0.167,1.019,0.026,-0.488,0.305,0.549,2.335
155380,158343,9125,-0.169,1.015,0.021,-0.549,0.183,0.488,2.338
155380,158372,14516,-0.168,1.015,0.027,-0.549,0.183,0.488,2.344
155369,158343,9125,-0.168,1.012,0.027,-0.366,0.366,0.305,2.348
155369,158390,14505,-0.17,1.012,0.026,-0.366,0.366,0.305,2.354
155342,158343,9125,-0.169,1.011,0.029,0.122,0.488,0.183,2.358
155342,158353,14506,-0.172,1.012,0.025,0.122,0.488,0.183,2.364
155361,158343,9125,-0.172,1.01,0.027,0.244,0.488,0.122,2.368
155361,158360,14499,-0.173,1.01,0.03,0.244,0.488,0.122,2.374
155340,158343,9125,-0.174,1.009,0.031,0.061,0.305,0.244,2.378
155340,158374,14502,-0.174,1.009,0.031,0.061,0.305,0.244,2.384
155348,158343,9125,-0.174,1.01,0.027,-0.305,0.061,0.366,2.388
155348,158353,14515,-0.173,1.014,0.034,-0.305,0.061,0.366,2.394
155346,158343,9125,-0.174,1.015,0.037,-0.549,0.122,0.488,2.398
155346,158345,14496,-0.172,1.016,0.036,-0.549,0.122,0.488,2.404
155352,158343,9125,-0.174,1.016,0.036,-0.488,0.122,0.549,2.408
155352,158341,14495,-0.173,1.013,0.031,-0.488,0.122,0.549,2.414
155354,158343,9125,-0.175,1.018,0.03,-0.244,0.366,0.488,2.417
155354,158389,14502,-0.175,1.016,0.04,-0.244,0.366,0.488,2.424
155339,158343,9125,-0.175,1.011,0.04,-0.061,0.549,0.488,2.427
155339,158352,14507,-0.176,1.013,0.031,-0.061,0.549,0.488,2.434
155348,158343,9125,-0.173,1.016,0.031,0.122,0.671,0.305,2.437
155348,158393,14514,-0.172,1.014,0.038,0.122,0.671,0.305,2.443
155347,158343,9125,-0.171,1.012,0.036,0.244,0.976,0.244,2.447
155347,158380,14512,-0.172,1.014,0.033,0.244,0.976,0.244,2.453
155356,158343,9125,-0.174,1.016,0.026,0.244,0.976,0.244,2.457
155356,158351,14507,-0.172,1.016,0.029,0.244,0.976,0.244,2.463
155346,158343,9125,-0.172,1.011,0.035,0.305,0.915,0.183,2.467
155346,158388,14501,-0.169,1.012,0.03,0.305,0.915,0.183,2.473
155335,158343,9125,-0.172,1.014,0.024,0.122,0.915,0.244,2.477
155335,158399,14514,-0.171,1.015,0.023,0.122,0.915,0.244,2.483
155349,158343,9125,-0.171,1.012,0.026,-0.061,0.854,0.122,2.487
155349,158366,14508,-0.168,1.011,0.026,-0.061,0.854,0.122,2.493
155352,158343,9125,-0.165,1.015,0.024,-0.061,0.671,0.183,2.497
155352,158381,14526,-0.169,1.014,0.028,-0.061,0.671,0.183,2.503
155365,158343,9125,-0.17,1.011,0.031,-0.061,0.488,0.305,2.507
155365,158410,14514,-0.173,1.009,0.029,-0.061,0.488,0.305,2.513
155373,158343,9125,-0.171,1.012,0.029,0.122,0.427,0.244,2.516
155373,158380,14513,-0.175,1.013,0.033,0.122,0.427,0.244,2.523
155368,158343,9125,-0.176,1.013,0.035,0.305,0.549,0.305,2.526
155368,158402,14504,-0.176,1.011,0.026,0.305,0.549,0.305,2.533
155379,158343,9125,-0.175,1.013,0.024,0.061,0.488,0.183,2.536
155379,158414,14521,-0.174,1.011,0.03,0.061,0.488,0.183,2.542
155361,158343,9125,-0.175,1.005,0.029,-0.305,0.488,0.122,2.546
155361,158404,14511,-0.176,1.011,0.029,-0.305,0.488,0.122,2.552
155355,158343,9125,-0.174,1.014,0.029,-0.61,0.488,0.488,2.556
155355,158392,14521,-0.172,1.01,0.03,-0.61,0.488,0.488,2.562
155373,158343,9125,-0.173,1.008,0.033,-0.061,0.427,0.61,2.566
155373,158387,14515,-0.175,1.009,0.03,-0.061,0.427,0.61,2.572
155356,158343,9125,-0.176,1.014,0.033,0.061,0.793,0.61,2.576
155356,158427,14518,-0.182,1.018,0.033,0.061,0.793,0.61,2.582
155357,158343,9125,-0.182,1.018,0.033,0.061,0.793,0.61,2.586
155357,158401,14523,-0.174,1.01,0.028,0.183,0.854,0.427,2.592
155343,158343,9125,-0.174,1.01,0.028,0.183,0.854,0.427,2.596
155343,158403,14535,-0.175,1.023,0.036,0.305,0.549,0.427,2.602
155359,158343,9125,-0.175,1.023,0.036,0.305,0.549,0.427,2.606
155359,158410,14523,-0.175,1.014,0.026,0,0.488,0.427,2.612
155353,158343,9125,-0.175,1.014,0.026,0,0.488,0.427,2.615
155353,158415,14524,-0.175,1.019,0.028,0,0.61,0.183,2.622
155336,158343,9125,-0.175,1.019,0.028,0,0.61,0.183,2.625
155336,158398,14523,-0.175,1.006,0.027,-0.122,0.549,0.244,2.632
155352,158343,9125,-0.175,1.006,0.027,-0.122,0.549,0.244,2.635
155352,158380,14511,-0.171,1.015,0.017,-0.427,0.488,0.366,2.641
155328,158343,9125,-0.171,1.015,0.017,-0.427,0.488,0.366,2.645
155328,158369,14512,-0.169,1.009,0.029,-0.244,0.488,0.61,2.651
155338,158343,9125,-0.169,1.009,0.029,-0.244,0.488,0.61,2.655
155338,158342,14533,-0.173,1.012,0.028,0.366,0.61,0.61,2.661
155335,158343,9125,-0.173,1.012,0.028,0.366,0.61,0.61,2.665
155335,158357,14514,-0.176,1.013,0.032,0.244,0.61,0.305,2.671
155329,158343,9125,-0.176,1.013,0.032,0.244,0.61,0.305,2.675
155329,158317,14518,-0.172,1.007,0.031,-0.427,0.305,0.427,2.681
155330,158343,9125,-0.172,1.007,0.031,-0.427,0.305,0.427,2.685
155330,158343,14498,-0.175,1.01,0.03,-0.671,0.061,0.732,2.691
155324,158343,9125,-0.175,1.01,0.03,-0.671,0.061,0.732,2.695
155324,158358,14502,-0.172,1.013,0.028,-0.244,0.305,0.915,2.701
155334,158343,9125,-0.172,1.013,0.028,-0.244,0.305,0.915,2.705
155334,158332,14498,-0.178,1.018,0.028,0.549,0.732,0.671,2.711
155334,158343,9125,-0.178,1.018,0.028,0.549,0.732,0.671,2.714
155334,158342,14520,-0.179,1.011,0.028,0.183,0.427,0.366,2.721
155316,158343,9125,-0.179,1.011,0.028,0.183,0.427,0.366,2.724
155316,158342,14505,-0.177,1.013,0.026,-0.549,0,0.488,2.731
155344,158343,9125,-0.178,1.013,0.027,-0.549,0,0.488,2.734
155344,158329,14507,-0.174,1.008,0.027,-0.732,-0.183,0.488,2.74
155335,158343,9125,-0.172,1.01,0.029,-0.732,-0.183,0.488,2.744
155335,158343,14515,-0.17,1.012,0.032,-0.244,0,0.427,2.75
155345,158343,9125,-0.171,1.011,0.033,-0.244,0,0.427,2.754
155345,158358,14499,-0.175,1.013,0.029,0.366,0.305,0.488,2.76
155314,158343,9125,-0.173,1.013,0.022,0.366,0.305,0.488,2.764
155314,158329,14507,-0.169,1.017,0.022,0.671,0.366,0.183,2.77
155337,158343,9125,-0.169,1.018,0.028,0.671,0.366,0.183,2.774
155337,158371,14499,-0.169,1.016,0.032,0.488,0.366,0.183,2.78
155328,158343,9125,-0.171,1.017,0.033,0.488,0.366,0.183,2.784
155328,158374,14493,-0.173,1.016,0.036,0.122,0.305,0.427,2.79
155314,158343,9125,-0.171,1.013,0.034,0.122,0.305,0.427,2.794
155314,158342,14514,-0.17,1.008,0.035,-0.061,0.427,0.122,2.8
155313,158343,9125,-0.176,1.008,0.035,-0.061,0.427,0.122,2.804
155313,158349,14498,-0.17,1.011,0.027,-0.366,0.488,0.122,2.81
155321,158343,9125,-0.169,1.009,0.017,-0.366,0.488,0.122,2.813
155321,158338,14487,-0.167,1.008,0.019,-0.183,0.366,0.427,2.82
155316,158343,9125,-0.165,1.013,0.027,-0.183,0.366,0.427,2.823
155316,158341,14497,-0.168,1.014,0.031,0.305,0.305,0.366,2.83
155301,158343,9125,-0.17,1.012,0.035,0.305,0.305,0.366,2.833
155301,158325,14493,-0.172,1.008,0.032,0.488,0.549,0.366,2.839
155292,158343,9125,-0.178,1.015,0.031,0.488,0.549,0.366,2.843
155292,158331,14490,-0.176,1.017,0.03,0.305,0.61,0.366,2.849
155295,158343,9125,-0.175,1.016,0.03,0.305,0.61,0.366,2.853
155295,158332,14495,-0.174,1.012,0.026,-0.061,0.488,0.366,2.859
155270,158343,9125,-0.176,1.01,0.027,-0.061,0.488,0.366,2.863
155270,158316,14481,-0.175,1.009,0.029,-0.732,0.549,0.488,2.869
155301,158343,9125,-0.173,1.007,0.029,-0.732,0.549,0.488,2.873
155301,158314,14490,-0.173,1.012,0.032,-0.244,0.549,0.427,2.879
155256,158343,9125,-0.177,1.015,0.033,-0.244,0.549,0.427,2.883
155256,158330,14496,-0.176,1.012,0.029,0.732,0.915,0.366,2.889
155279,158343,9125,-0.175,1.015,0.026,0.732,0.915,0.366,2.893
155279,158317,14483,-0.178,1.018,0.034,0.793,1.037,0.366,2.899
155269,158343,9125,-0.176,1.019,0.029,0.793,1.037,0.366,2.903
155269,158314,14485,-0.174,1.018,0.021,-0.061,0.854,0.366,2.909
155297,158343,9125,-0.175,1.017,0.027,-0.061,0.854,0.366,2.912
155297,158310,14478,-0.173,1.01,0.029,-0.61,0.61,0.488,2.919
155275,158343,9125,-0.172,1.009,0.024,-0.61,0.61,0.488,2.922
155275,158338,14486,-0.173,1.014,0.023,-0.427,0.549,0.549,2.929
155289,158343,9125,-0.171,1.015,0.024,-0.427,0.549,0.549,2.932
155289,158308,14486,-0.17,1.01,0.026,0.244,0.793,0.427,2.938
155282,158343,9125,-0.17,1.01,0.03,0.244,0.793,0.427,2.942
155282,158317,14490,-0.174,1.014,0.032,0.732,0.915,0.305,2.948
155281,158343,9125,-0.175,1.014,0.027,0.732,0.915,0.305,2.952
155281,158308,14462,-0.176,1.014,0.03,0.305,0.793,0.366,2.958
155251,158343,9125,-0.174,1.013,0.033,0.305,0.793,0.366,2.962
155251,158307,14489,-0.171,1.012,0.023,-0.244,0.732,0.366,2.968
155272,158343,9125,-0.174,1.013,0.019,-0.244,0.732,0.366,2.972
155272,158311,14481,-0.17,1.013,0.023,-0.244,0.671,0.427,2.978
155278,158343,9125,-0.169,1.007,0.027,-0.244,0.671,0.427,2.982
155278,158306,14477,-0.17,1.009,0.023,0.183,0.61,0.305,2.988
155226,158343,9125,-0.173,1.015,0.024,0.183,0.61,0.305,2.992
155226,158298,14480,-0.175,1.015,0.027,0.366,0.61,0.244,2.998
155239,158343,9125,-0.171,1.014,0.03,0.366,0.61,0.244,3.002
155239,158300,14476,-0.174,1.013,0.027,0.488,0.61,0.366,3.008
155232,158343,9125,-0.173,1.015,0.027,0.488,0.61,0.366,3.012
155232,158293,14478,-0.172,1.014,0.028,0.122,0.549,0.305,3.018
155241,158343,9125,-0.173,1.011,0.028,0.122,0.549,0.305,3.021
155241,158310,14483,-0.168,1.012,0.027,0.183,0.305,0.366,3.028
155252,158343,9125,-0.17,1.008,0.027,0.183,0.305,0.366,3.031
155252,158301,14483,-0.171,1.01,0.032,0.305,0.488,0.305,3.037
155248,158343,9125,-0.172,1.013,0.031,0.305,0.488,0.305,3.041
155248,158328,14493,-0.176,1.014,0.034,0.732,0.793,0.366,3.047
155247,158343,9125,-0.177,1.013,0.033,0.732,0.793,0.366,3.051
155247,158329,14468,-0.177,1.014,0.029,1.098,1.037,0.305,3.057
155247,158343,9125,-0.174,1.016,0.025,1.098,1.037,0.305,3.061
155247,158309,14475,-0.173,1.013,0.026,0.549,0.854,0.183,3.067
155255,158343,9125,-0.172,1.01,0.029,0.549,0.854,0.183,3.071
155255,158321,14467,-0.172,1.008,0.023,-0.122,0.793,0.305,3.077
155259,158343,9125,-0.172,1.007,0.024,-0.122,0.793,0.305,3.081
155259,158310,14484,-0.171,1.013,0.028,-0.061,0.671,0.305,3.087
155234,158343,9125,-0.17,1.01,0.031,-0.061,0.671,0.305,3.091
155234,158331,14481,-0.173,1.01,0.024,0.61,0.732,0.244,3.097
155260,158343,9125,-0.173,1.012,0.022,0.61,0.732,0.244,3.101
155260,158348,14478,-0.169,1.012,0.025,0.732,0.915,0.366,3.107
155254,158343,9125,-0.172,1.012,0.025,0.732,0.915,0.366,3.11
155254,158334,14477,-0.17,1.016,0.026,0.732,0.915,0.305,3.117
155276,158343,9125,-0.171,1.014,0.026,0.732,0.915,0.305,3.12
155276,158360,14466,-0.176,1.01,0.022,0.671,0.793,0.244,3.127
155273,158343,9125,-0.173,1.015,0.018,0.671,0.793,0.244,3.13
155273,158351,14484,-0.173,1.014,0.02,0.366,0.793,0.122,3.136
155290,158343,9125,-0.172,1.009,0.029,0.366,0.793,0.122,3.14
155290,158353,14492,-0.17,1.008,0.028,0.061,0.61,0.305,3.146
155290,158343,9125,-0.176,1.016,0.021,0.061,0.61,0.305,3.15
155290,158356,14483,-0.174,1.017,0.022,-0.122,0.488,0.366,3.156
155306,158343,9125,-0.171,1.015,0.027,-0.122,0.488,0.366,3.16
155306,158360,14485,-0.174,1.012,0.033,0.122,0.488,0.305,3.166
155312,158343,9125,-0.174,1.012,0.033,0.122,0.488,0.305,3.17
155312,158355,14492,-0.176,1.012,0.024,-0.122,0.61,0.427,3.176
155325,158343,9125,-0.176,1.012,0.024,-0.122,0.61,0.427,3.18
155325,158375,14488,-0.173,1.011,0.026,-0.183,0.61,0.488,3.186
155297,158343,9125,-0.173,1.011,0.026,-0.183,0.61,0.488,3.19
