121016,143926,11079,0.007,1.022,0.133,-0.976,0.366,0.732,440.25
121037,143988,9298,0.007,1.022,0.133,-0.976,0.366,0.732,440.253
121037,143938,11091,0.02,1.021,0.14,0.183,-0.061,0.793,440.259
121032,143988,9298,0.02,1.021,0.14,0.183,-0.061,0.793,440.263
121032,143949,11101,0.021,1.019,0.14,1.341,-0.061,0.671,440.269
121016,143988,9298,0.02,1.018,0.136,1.341,-0.061,0.671,440.273
121016,143938,11079,0.018,1.019,0.131,0.793,0.549,0.61,440.279
121039,143988,9298,0.016,1.024,0.128,0.793,0.549,0.61,440.283
121039,143960,11085,0.016,1.032,0.122,0.427,1.646,0.366,440.289
121066,143988,9298,0.015,1.037,0.115,0.427,1.646,0.366,440.293
121066,143982,11088,0.013,1.028,0.121,-0.122,2.073,-0.183,440.299
121035,143988,9298,0.009,1.021,0.128,-0.122,2.073,-0.183,440.303
121035,143953,11087,0.007,1.018,0.132,0.671,1.707,-0.122,440.309
121048,143988,9298,0.008,1.012,0.136,0.671,1.707,-0.122,440.313
121048,143945,11099,0.012,1.012,0.124,-0.793,0.427,0.244,440.319
121049,143988,9298,0.015,1.017,0.113,-0.793,0.427,0.244,440.323
121049,143969,11097,0.018,1.017,0.117,-2.439,-0.61,0.671,440.329
121028,143988,9298,0.014,1.016,0.129,-2.439,-0.61,0.671,440.332
121028,143950,11089,0.016,1.011,0.14,0.549,-0.488,0.671,440.339
121017,143988,9298,0.02,1.011,0.144,0.549,-0.488,0.671,440.342
121017,143923,11092,0.022,1.019,0.136,1.951,-0.183,0,440.349
121031,143988,9298,0.021,1.025,0.126,1.951,-0.183,0,440.352
121031,143963,11095,0.018,1.026,0.122,0.61,0.549,-0.061,440.358
121041,143988,9298,0.014,1.026,0.126,0.61,0.549,-0.061,440.362
121041,143937,11098,0.012,1.03,0.129,0.976,1.28,0.122,440.368
121014,143988,9298,0.006,1.03,0.127,0.976,1.28,0.122,440.372
121014,143934,11074,0.006,1.027,0.129,-0.183,1.28,-0.244,440.378
121035,143988,9298,0.003,1.023,0.132,-0.183,1.28,-0.244,440.382
121035,143959,11095,0.002,1.016,0.135,-0.915,0.732,0.061,440.388
121042,143988,9298,0.002,1.012,0.131,-0.915,0.732,0.061,440.392
121042,143962,11083,0.002,1.011,0.122,-1.829,-0.183,0.488,440.398
121042,143988,9298,0.003,1.015,0.123,-1.829,-0.183,0.488,440.402
121042,143948,11090,0.007,1.016,0.125,-1.524,-0.427,0.61,440.408
121026,143988,9298,0.008,1.018,0.137,-1.524,-0.427,0.61,440.412
121026,143946,11077,0.011,1.018,0.141,0.244,-0.488,0.305,440.418
121043,143988,9298,0.012,1.021,0.138,0.244,-0.488,0.305,440.422
121043,143979,11089,0.011,1.023,0.133,0.549,-0.366,0.427,440.428
121040,143988,9298,0.013,1.028,0.126,0.549,-0.366,0.427,440.431
121040,143957,11093,0.013,1.031,0.128,-0.244,-0.183,0.488,440.438
121027,143988,9298,0.013,1.026,0.135,-0.244,-0.183,0.488,440.441
121027,143941,11076,0.014,1.02,0.142,0.427,0.244,0.305,440.448
121030,143988,9298,0.011,1.019,0.146,0.427,0.244,0.305,440.451
121030,143977,11075,0.012,1.019,0.143,0.183,0.488,0.183,440.457
121030,143988,9298,0.015,1.017,0.136,0.183,0.488,0.183,440.461
121030,143973,11098,0.013,1.01,0.13,-0.732,0.244,0.549,440.467
121030,143988,9298,0.015,1.009,0.132,-0.732,0.244,0.549,440.471
121030,143947,11088,0.019,1.009,0.127,0.549,0.732,0.61,440.477
121013,143988,9298,0.017,1.016,0.128,0.549,0.732,0.61,440.481
121013,143955,11102,0.013,1.02,0.129,0.244,0.976,0.549,440.487
121056,143988,9298,0.011,1.025,0.131,0.244,0.976,0.549,440.491
121056,143993,11087,0.011,1.027,0.131,0.122,0.732,0.549,440.497
121034,143988,9298,0.015,1.029,0.125,0.122,0.732,0.549,440.501
121034,143964,11097,0.015,1.032,0.129,0.305,0.366,0.488,440.507
120998,143988,9298,0.015,1.033,0.133,0.305,0.366,0.488,440.511
120998,143960,11098,0.013,1.026,0.134,-0.244,0.427,0.305,440.517
121016,143988,9298,0.015,1.021,0.13,-0.244,0.427,0.305,440.521
121016,143943,11077,0.012,1.02,0.123,-0.793,0.366,0.305,440.527
120993,143988,9298,0.009,1.017,0.125,-0.793,0.366,0.305,440.53
120993,143939,11080,0.009,1.014,0.131,-0.793,0.549,0.305,440.537
120996,143988,9298,0.008,1.012,0.13,-0.793,0.549,0.305,440.54
120996,143911,11075,0.011,1.012,0.129,0.488,0.549,0.183,440.547
120990,143988,9298,0.015,1.016,0.13,0.488,0.549,0.183,440.55
120990,143942,11079,0.017,1.021,0.133,0.305,0.305,0.305,440.556
120993,143988,9298,0.016,1.021,0.133,0.305,0.305,0.305,440.56
120993,143902,11094,0.019,1.019,0.135,0.549,0.305,0.61,440.566
121001,143988,9298,0.019,1.02,0.128,0.549,0.305,0.61,440.57
121001,143926,11075,0.02,1.027,0.127,-0.061,0.671,0.549,440.576
120987,143988,9298,0.017,1.029,0.125,-0.061,0.671,0.549,440.58
120987,143913,11082,0.015,1.029,0.128,-1.037,1.28,0.122,440.586
120998,143988,9298,0.011,1.028,0.131,-1.037,1.28,0.122,440.59
120998,143917,11071,0.007,1.022,0.13,-0.427,1.524,0.061,440.596
121005,143988,9298,0.004,1.014,0.124,-0.427,1.524,0.061,440.6
121005,143949,11090,0.004,1.015,0.121,-0.671,1.037,0.244,440.606
121000,143988,9298,0.003,1.019,0.127,-0.671,1.037,0.244,440.61
121000,143921,11074,0.002,1.019,0.134,-1.159,0.244,0.305,440.616
120997,143988,9298,0.004,1.012,0.14,-1.159,0.244,0.305,440.62
120997,143920,11082,0.007,1.012,0.139,0,-0.488,0.244,440.626
120996,143988,9298,0.013,1.012,0.133,0,-0.488,0.244,440.629
120996,143933,11069,0.015,1.021,0.127,-0.305,-0.427,0.549,440.636
121015,143988,9298,0.014,1.026,0.129,-0.305,-0.427,0.549,440.639
121015,143933,11074,0.015,1.026,0.135,-0.671,0.061,0.732,440.646
121021,143988,9298,0.015,1.021,0.143,-0.671,0.061,0.732,440.649
121021,143936,11064,0.017,1.012,0.14,0.854,0.549,0.549,440.655
121004,143988,9298,0.017,1.017,0.131,0.854,0.549,0.549,440.659
121004,143927,11084,0.018,1.024,0.125,-0.183,0.732,0.427,440.665
121008,143988,9298,0.014,1.025,0.124,-0.183,0.732,0.427,440.669
121008,143905,11084,0.01,1.024,0.126,-0.854,1.037,0.61,440.675
121025,143988,9298,0.008,1.023,0.132,-0.854,1.037,0.61,440.679
121025,143946,11078,0.008,1.019,0.138,0.488,0.732,0.305,440.685
121022,143988,9298,0.011,1.019,0.138,0.488,0.732,0.305,440.689
121022,143910,11064,0.01,1.02,0.13,0.427,0.244,-0.061,440.695
121003,143988,9298,0.018,1.024,0.121,0.427,0.244,-0.061,440.699
121003,143935,11085,0.021,1.028,0.122,-0.366,0.244,0.061,440.705
121018,143988,9298,0.021,1.028,0.122,-0.366,0.244,0.061,440.709
121018,143940,11085,0.012,1.021,0.125,-0.061,0.488,0.366,440.715
121017,143988,9298,0.012,1.021,0.125,-0.061,0.488,0.366,440.719
121017,143929,11079,0.007,1.013,0.134,0.488,1.037,0.244,440.725
120994,143988,9298,0.007,1.013,0.134,0.488,1.037,0.244,440.728
120994,143911,11078,0.008,1.015,0.125,-1.037,0.671,0.244,440.735
121010,143988,9298,0.008,1.015,0.125,-1.037,0.671,0.244,440.738
121010,143932,11081,0.007,1.022,0.119,-1.707,0.183,0.61,440.745
121010,143988,9298,0.007,1.022,0.119,-1.707,0.183,0.61,440.748
121010,143931,11098,0.008,1.019,0.131,-0.427,-0.061,0.732,440.754
121028,143988,9298,0.008,1.019,0.131,-0.427,-0.061,0.732,440.758
121028,143949,11070,0.014,1.024,0.132,-0.671,-0.427,0.61,440.764
121000,143988,9298,0.014,1.024,0.132,-0.671,-0.427,0.61,440.768
121000,143931,11074,0.013,1.026,0.129,-0.549,-0.61,0.427,440.774
121004,143988,9298,0.013,1.026,0.129,-0.549,-0.61,0.427,440.778
121004,143927,11069,0.014,1.024,0.134,-0.122,-0.122,0.244,440.784
121020,143988,9298,0.014,1.024,0.134,-0.122,-0.122,0.244,440.788
121020,143920,11069,0.011,1.022,0.141,-0.183,0.183,0,440.794
121000,143988,9298,0.011,1.022,0.141,-0.183,0.183,0,440.798
121000,143928,11071,0.008,1.015,0.141,-0.671,0.183,0.122,440.804
121027,143988,9298,0.008,1.015,0.141,-0.671,0.183,0.122,440.808
121027,143902,11072,0.01,1.013,0.13,-0.915,0.427,0.488,440.814
121020,143988,9298,0.01,1.013,0.13,-0.915,0.427,0.488,440.818
121020,143951,11073,0.01,1.017,0.127,-0.976,0.671,0.671,440.824
121020,143988,9298,0.01,1.017,0.127,-0.976,0.671,0.671,440.827
121020,143951,11078,0.013,1.019,0.143,0.366,0.488,0.61,440.834
121008,143988,9298,0.013,1.019,0.143,0.366,0.488,0.61,440.837
121008,143932,11070,0.018,1.021,0.128,1.037,0.183,0.61,440.844
121011,143988,9298,0.018,1.021,0.128,1.037,0.183,0.61,440.847
121011,143956,11075,0.018,1.027,0.121,1.037,0.183,0.61,440.853
121014,143988,9298,0.017,1.035,0.12,-0.61,0.61,0.427,440.857
121014,143920,11083,0.014,1.034,0.131,-0.61,0.61,0.427,440.863
121015,143988,9298,0.013,1.022,0.147,-0.427,0.976,0.244,440.867
121015,143916,11063,0.015,1.012,0.15,-0.427,0.976,0.244,440.873
121032,143988,9298,0.016,1.01,0.137,0.061,0.183,0.366,440.877
121032,143929,11092,0.019,1.012,0.123,0.061,0.183,0.366,440.883
121036,143988,9298,0.016,1.014,0.118,-1.402,-0.061,0.671,440.887
121036,143943,11074,0.013,1.014,0.128,-1.402,-0.061,0.671,440.893
121016,143988,9298,0.01,1.018,0.139,-0.061,0.549,0.61,440.897
121016,143925,11081,0.013,1.022,0.14,-0.061,0.549,0.61,440.903
121026,143988,9298,0.01,1.028,0.14,0.793,0.915,0.183,440.907
121026,143937,11080,0.011,1.03,0.138,0.793,0.915,0.183,440.913
121019,143988,9298,0.012,1.032,0.136,1.037,0.793,0.122,440.917
121019,143933,11075,0.013,1.029,0.131,1.037,0.793,0.122,440.923
120998,143988,9298,0.013,1.029,0.13,0.549,0.915,0.183,440.926
120998,143935,11074,0.013,1.026,0.127,0.549,0.915,0.183,440.933
120994,143988,9298,0.012,1.02,0.124,-0.915,1.037,0.183,440.936
120994,143917,11082,0.01,1.016,0.12,-0.915,1.037,0.183,440.943
121031,143988,9298,0.003,1.01,0.127,-0.915,1.098,0.427,440.946
121031,143952,11075,0.002,1.007,0.132,-0.915,1.098,0.427,440.952
121024,143988,9298,0.003,1.008,0.127,-0.244,0.915,0.183,440.956
121024,143950,11091,0.006,1.009,0.128,-0.244,0.915,0.183,440.962
120998,143988,9298,0.007,1.019,0.121,-0.488,0.427,0.244,440.966
120998,143939,11075,0.006,1.024,0.125,-0.488,0.427,0.244,440.972
121019,143988,9298,0.01,1.019,0.13,-0.183,-0.122,0.488,440.976
121019,143941,11078,0.013,1.02,0.133,-0.183,-0.122,0.488,440.982
121023,143988,9298,0.015,1.021,0.133,0.976,-0.244,0.488,440.986
121023,143943,11071,0.017,1.022,0.131,0.976,-0.244,0.488,440.992
121014,143988,9298,0.016,1.027,0.136,-0.122,0.061,0.61,440.996
121014,143920,11078,0.018,1.03,0.143,-0.122,0.061,0.61,441.002
121039,143988,9298,0.017,1.029,0.141,-0.671,0.122,0.366,441.006
121039,143956,11079,0.015,1.029,0.14,-0.671,0.122,0.366,441.012
121031,143988,9298,0.016,1.019,0.132,-0.488,0.549,0.244,441.016
121031,143958,11085,0.016,1.012,0.126,-0.488,0.549,0.244,441.022
121030,143988,9298,0.014,1.013,0.124,0.366,1.037,0.305,441.025
121030,143910,11089,0.011,1.013,0.13,0.366,1.037,0.305,441.032
121049,143988,9298,0.007,1.021,0.132,-0.122,1.22,0.183,441.035
121049,143950,11050,0.008,1.025,0.133,-0.122,1.22,0.183,441.042
121026,143988,9298,0.005,1.023,0.139,-0.366,0.671,0.061,441.045
121026,143946,11074,0.011,1.02,0.135,-0.366,0.671,0.061,441.051
121026,143988,9298,0.014,1.021,0.124,0.488,0.061,0.061,441.055
121026,143943,11078,0.019,1.024,0.119,0.488,0.061,0.061,441.061
121011,143988,9298,0.019,1.025,0.119,-1.22,0,0.305,441.065
121011,143943,11086,0.013,1.022,0.128,-1.22,0,0.305,441.071
121016,143988,9298,0.012,1.019,0.136,-1.098,0.427,0.305,441.075
121016,143939,11091,0.015,1.013,0.141,-1.098,0.427,0.305,441.081
121011,143988,9298,0.011,1.012,0.135,0.061,0.366,0,441.085
121011,143938,11094,0.01,1.018,0.124,0.061,0.366,0,441.091
121046,143988,9298,0.009,1.021,0.125,-0.549,0.183,-0.061,441.095
121046,143953,11082,0.006,1.018,0.133,-0.549,0.183,-0.061,441.101
121032,143988,9298,0.006,1.018,0.137,1.037,0.427,-0.061,441.105
121032,143929,11068,0.008,1.022,0.138,1.037,0.427,-0.061,441.111
121027,143988,9298,0.007,1.025,0.134,0.976,0.305,-0.183,441.115
121027,143957,11087,0.01,1.027,0.128,0.976,0.305,-0.183,441.121
121039,143988,9298,0.009,1.026,0.125,-1.159,-0.183,0.061,441.124
121039,143947,11087,0.009,1.024,0.135,-1.159,-0.183,0.061,441.131
121044,143988,9298,0.013,1.018,0.137,-0.549,0.061,0.427,441.134
121044,143938,11086,0.011,1.014,0.139,-0.549,0.061,0.427,441.141
121006,143988,9298,0.014,1.012,0.133,-0.732,0,0.427,441.144
121006,143911,11086,0.01,1.012,0.127,-0.732,0,0.427,441.15
121028,143988,9298,0.009,1.014,0.128,-1.28,0.366,0.488,441.154
121028,143918,11086,0.008,1.012,0.132,-1.28,0.366,0.488,441.16
121008,143988,9298,0.009,1.013,0.14,0.366,0.488,0.549,441.164
121008,143936,11088,0.007,1.015,0.14,0.366,0.488,0.549,441.17
120985,143988,9298,0.009,1.021,0.13,0.549,0.305,0.549,441.174
120985,143898,11077,0.01,1.027,0.134,0.549,0.305,0.549,441.18
120973,143988,9298,0.01,1.023,0.134,-0.549,-0.122,0.793,441.184
120973,143903,11074,0.012,1.023,0.137,-0.549,-0.122,0.793,441.19
120973,143988,9298,0.013,1.028,0.132,-0.366,-0.244,0.854,441.194
120973,143880,11077,0.014,1.024,0.125,-0.366,-0.244,0.854,441.2
120992,143988,9298,0.016,1.024,0.121,-1.22,-0.122,0.671,441.204
120992,143900,11084,0.012,1.024,0.127,-1.22,-0.122,0.671,441.21
121010,143988,9298,0.012,1.016,0.135,-0.793,0.549,0.549,441.214
121010,143931,11096,0.013,1.016,0.135,-0.793,0.549,0.549,441.22
121013,143988,9298,0.011,1.016,0.13,-0.427,0.488,0.366,441.223
121013,143937,11083,0.011,1.02,0.122,-0.427,0.488,0.366,441.23
121005,143988,9298,0.012,1.021,0.124,-0.183,0.427,0.122,441.233
121005,143910,11088,0.011,1.021,0.128,-0.183,0.427,0.122,441.24
121015,143988,9298,0.01,1.022,0.139,0.366,0.305,0.122,441.243
121015,143938,11087,0.012,1.02,0.146,0.366,0.305,0.122,441.249
120997,143988,9298,0.018,1.015,0.141,1.463,-0.122,0.122,441.253
120997,143937,11083,0.023,1.014,0.134,1.463,-0.122,0.122,441.259
121002,143988,9298,0.021,1.018,0.127,-0.122,-0.366,0.427,441.263
121002,143908,11071,0.016,1.021,0.134,-0.122,-0.366,0.427,441.269
121003,143988,9298,0.014,1.017,0.141,-0.549,0.549,0.915,441.273
121003,143908,11062,0.016,1.012,0.145,-0.549,0.549,0.915,441.279
120957,143988,9298,0.015,1.012,0.137,0.549,1.098,0.549,441.283
120957,143889,11075,0.014,1.019,0.124,0.549,1.098,0.549,441.289
120990,143988,9298,0.014,1.019,0.124,0.549,1.098,0.549,441.293
120990,143888,11079,0.008,1.029,0.122,-1.402,1.22,0.488,441.299
121017,143988,9298,0.008,1.029,0.122,-1.402,1.22,0.488,441.303
121017,143899,11086,0.003,1.027,0.139,-0.305,1.159,0.671,441.309
120987,143988,9298,0.003,1.027,0.139,-0.305,1.159,0.671,441.313
120987,143922,11068,0.008,1.028,0.132,0.976,0.549,0.244,441.319
120987,143988,9298,0.008,1.028,0.132,0.976,0.549,0.244,441.322
120987,143904,11084,0.011,1.017,0.124,-0.366,0.061,-0.061,441.329
121015,143988,9298,0.011,1.017,0.124,-0.366,0.061,-0.061,441.332
121015,143931,11067,0.009,1.016,0.133,-0.244,0.366,0.366,441.339
121004,143988,9298,0.009,1.016,0.133,-0.244,0.366,0.366,441.342
121004,143926,11069,0.006,1.013,0.145,-0.427,0.549,0.366,441.348
120994,143988,9298,0.006,1.013,0.145,-0.427,0.549,0.366,441.352
120994,143922,11081,0.017,1.014,0.123,0.305,0.244,0.244,441.358
120987,143988,9298,0.017,1.014,0.123,0.305,0.244,0.244,441.362
120987,143937,11073,0.012,1.025,0.129,0.61,0.183,0.549,441.368
120997,143988,9298,0.012,1.025,0.129,0.61,0.183,0.549,441.372
120997,143943,11079,0.012,1.024,0.144,-0.183,0.854,0.488,441.378
121000,143988,9298,0.012,1.024,0.144,-0.183,0.854,0.488,441.382
121000,143900,11089,0.017,1.021,0.125,0.305,0.793,0.366,441.388
121027,143988,9298,0.017,1.021,0.125,0.305,0.793,0.366,441.392
121027,143950,11083,0.012,1.021,0.118,-0.305,0.61,0.488,441.398
121008,143988,9298,0.012,1.021,0.118,-0.305,0.61,0.488,441.402
121008,143944,11075,0.006,1.018,0.135,-0.488,1.037,0.488,441.408
120998,143988,9298,0.006,1.018,0.135,-0.488,1.037,0.488,441.412
120998,143942,11083,0.012,1.02,0.132,0.305,0.854,-0.061,441.418
121022,143988,9298,0.012,1.02,0.132,0.305,0.854,-0.061,441.421
121022,143931,11070,0.008,1.022,0.132,-0.061,0.305,-0.122,441.428
121034,143988,9298,0.008,1.022,0.132,-0.061,0.305,-0.122,441.431
121034,143927,11070,0.01,1.023,0.128,0.122,0.305,0.244,441.438
121027,143988,9298,0.012,1.023,0.126,0.122,0.305,0.244,441.441
121027,143922,11081,0.009,1.022,0.129,0.183,0.366,0.183,441.447
121023,143988,9298,0.01,1.015,0.136,0.183,0.366,0.183,441.451
121023,143920,11060,0.011,1.015,0.14,0.183,0.366,0.366,441.457
121003,143988,9298,0.009,1.016,0.137,0.183,0.366,0.366,441.461
121003,143929,11075,0.01,1.02,0.137,-1.22,0.244,0.61,441.467
121003,143988,9298,0.01,1.021,0.137,-1.22,0.244,0.61,441.471
121003,143931,11077,0.01,1.018,0.141,-1.22,0.061,0.671,441.477
121001,143988,9298,0.016,1.021,0.136,-1.22,0.061,0.671,441.481
121001,143915,11078,0.018,1.021,0.125,0.305,0.488,0.488,441.487
121023,143988,9298,0.016,1.026,0.122,0.305,0.488,0.488,441.491
121023,143926,11075,0.016,1.027,0.121,-0.305,1.098,0.244,441.497
121016,143988,9298,0.012,1.023,0.122,-0.305,1.098,0.244,441.501
121016,143894,11085,0.009,1.02,0.122,0.305,1.402,0.305,441.507
121054,143988,9298,0.004,1.019,0.128,0.305,1.402,0.305,441.511
121054,143921,11073,0.002,1.021,0.13,-0.122,1.159,0.305,441.517
121005,143988,9298,0.004,1.023,0.137,-0.122,1.159,0.305,441.52
121005,143909,11087,0.004,1.025,0.141,-1.341,0.305,0.183,441.527
120993,143988,9298,0.006,1.02,0.139,-1.341,0.305,0.183,441.53
120993,143938,11071,0.016,1.017,0.132,-0.061,-0.793,0.305,441.536
121010,143988,9298,0.022,1.018,0.121,-0.061,-0.793,0.305,441.54
121010,143939,11084,0.02,1.019,0.112,0.244,-0.488,0.488,441.546
121011,143988,9298,0.017,1.019,0.117,0.244,-0.488,0.488,441.55
121011,143904,11076,0.011,1.019,0.13,0.122,0.732,0.366,441.556
121002,143988,9298,0.008,1.018,0.146,0.122,0.732,0.366,441.56
121002,143921,11088,0.004,1.017,0.151,0.793,1.098,0.183,441.566
121026,143988,9298,0.007,1.021,0.139,0.793,1.098,0.183,441.57
121026,143933,11068,0.009,1.022,0.123,-0.427,0.244,0.366,441.576
121010,143988,9298,0.013,1.023,0.118,-0.427,0.244,0.366,441.58
121010,143926,11073,0.013,1.02,0.126,-1.037,-0.427,0.732,441.586
121011,143988,9298,0.017,1.018,0.136,-1.037,-0.427,0.732,441.59
121011,143920,11089,0.019,1.019,0.143,-0.061,-0.549,0.732,441.596
121029,143988,9298,0.021,1.021,0.143,-0.061,-0.549,0.732,441.6
121029,143939,11083,0.023,1.022,0.134,-0.183,-0.366,0.549,441.606
121015,143988,9298,0.018,1.02,0.13,-0.183,-0.366,0.549,441.61
121015,143958,11090,0.015,1.019,0.134,0.061,0.732,0.366,441.616
121006,143988,9298,0.007,1.02,0.138,0.061,0.732,0.366,441.619
121006,143918,11071,0.005,1.02,0.141,0.366,1.768,0.122,441.626
120974,143988,9298,0.006,1.021,0.126,0.366,1.768,0.122,441.629
120974,143927,11066,0.006,1.023,0.12,-0.549,1.463,0.122,441.636
120996,143988,9298,0.005,1.026,0.119,-0.549,1.463,0.122,441.639
120996,143938,11077,0.004,1.028,0.122,0,0.732,0.366,441.645
121010,143988,9298,0.004,1.028,0.131,0,0.732,0.366,441.649
121010,143902,11064,0.008,1.025,0.143,0.61,-0.366,-0.183,441.655
121010,143988,9298,0.015,1.02,0.145,0.61,-0.366,-0.183,441.659
121010,143918,11068,0.013,1.016,0.139,0.366,-0.793,-0.427,441.665
121005,143988,9298,0.015,1.015,0.136,0.366,-0.793,-0.427,441.669
121005,143932,11087,0.013,1.02,0.138,-0.305,-0.061,0.183,441.675
121040,143988,9298,0.015,1.018,0.142,-0.305,-0.061,0.183,441.679
121040,143932,11081,0.018,1.014,0.138,0.305,0.732,0.183,441.685
120989,143988,9298,0.019,1.011,0.125,0.305,0.732,0.183,441.689
120989,143920,11080,0.018,1.008,0.116,0.854,1.463,0.305,441.695
120995,143988,9298,0.01,1.015,0.118,0.854,1.463,0.305,441.699
120995,143942,11094,0.009,1.018,0.123,0.305,1.646,0.732,441.705
120994,143988,9298,0.01,1.02,0.124,0.305,1.646,0.732,441.709
120994,143944,11073,0.011,1.024,0.122,0,1.28,0.61,441.715
121007,143988,9298,0.016,1.028,0.115,0,1.28,0.61,441.718
121007,143919,11063,0.013,1.031,0.117,-0.61,0.488,0.61,441.725
121012,143988,9298,0.01,1.034,0.128,-0.61,0.488,0.61,441.728
121012,143936,11077,0.011,1.031,0.143,-0.671,-0.366,0.732,441.734
120999,143988,9298,0.016,1.027,0.147,-0.671,-0.366,0.732,441.738
120999,143905,11085,0.019,1.019,0.143,-0.244,-1.037,0.061,441.744
120991,143988,9298,0.021,1.022,0.128,-0.244,-1.037,0.061,441.748
120991,143921,11064,0.021,1.021,0.116,-0.671,-0.488,-0.366,441.754
121019,143988,9298,0.018,1.019,0.116,-0.671,-0.488,-0.366,441.758
121019,143924,11059,0.015,1.017,0.122,-0.122,1.098,-0.366,441.764
121009,143988,9298,0.008,1.015,0.135,-0.122,1.098,-0.366,441.768
121009,143921,11075,0.003,1.012,0.138,0.61,1.707,-0.305,441.774
121005,143988,9298,0.002,1.011,0.137,0.61,1.707,-0.305,441.778
121005,143906,11073,0.003,1.01,0.136,0.061,0.854,0.122,441.784
121020,143988,9298,0.002,1.016,0.129,0.061,0.854,0.122,441.788
121020,143951,11082,0.007,1.023,0.126,-0.244,0.122,0.366,441.794
120988,143988,9298,0.009,1.025,0.124,-0.244,0.122,0.366,441.798
120988,143939,11089,0.006,1.027,0.129,-1.159,-0.244,0.427,441.804
121013,143988,9298,0.006,1.021,0.136,-1.159,-0.244,0.427,441.808
121013,143912,11071,0.007,1.018,0.145,0.366,-0.061,0.793,441.814
121030,143988,9298,0.007,1.018,0.145,0.366,-0.061,0.793,441.817
121030,143972,11079,0.013,1.022,0.135,-0.488,-0.061,0.671,441.824
121049,143988,9298,0.012,1.026,0.12,-0.488,-0.061,0.671,441.827
121049,143944,11077,0.012,1.025,0.126,-2.012,0.183,0.854,441.834
121013,143988,9298,0.011,1.02,0.134,-2.012,0.183,0.854,441.837
121013,143907,11072,0.012,1.016,0.139,0.061,0.244,0.793,441.843
120993,143988,9298,0.013,1.016,0.138,0.061,0.244,0.793,441.847
120993,143940,11081,0.011,1.02,0.128,0.183,0.305,0.488,441.853
121020,143988,9298,0.012,1.02,0.127,0.183,0.305,0.488,441.857
121020,143949,11095,0.01,1.021,0.122,-0.488,0.488,0.366,441.863
121012,143988,9298,0.01,1.02,0.124,-0.488,0.488,0.366,441.867
121012,143963,11079,0.009,1.024,0.134,0.549,0.549,0.488,441.873
121001,143988,9298,0.009,1.024,0.134,0.549,0.549,0.488,441.877
121001,143946,11086,0.011,1.027,0.129,0.122,0,0.122,441.883
121011,143988,9298,0.011,1.027,0.129,0.122,0,0.122,441.887
121011,143955,11092,0.01,1.023,0.136,-0.427,-0.183,0.244,441.893
121010,143988,9298,0.01,1.023,0.136,-0.427,-0.183,0.244,441.897
121010,143938,11075,0.016,1.014,0.137,0.183,-0.183,0.366,441.903
120997,143988,9298,0.016,1.014,0.137,0.183,-0.183,0.366,441.907
120997,143968,11082,0.016,1.015,0.114,-1.037,0.549,0.427,441.913
121022,143988,9298,0.016,1.015,0.114,-1.037,0.549,0.427,441.916
121022,143981,11094,0.009,1.017,0.13,-0.183,0.976,0.854,441.923
121014,143988,9298,0.009,1.017,0.13,-0.183,0.976,0.854,441.926
121014,143929,11075,0.01,1.012,0.149,1.707,0.488,0.671,441.932
121003,143988,9298,0.01,1.012,0.149,1.707,0.488,0.671,441.936
121003,143930,11080,0.014,1.031,0.124,0.427,-0.305,0.488,441.942
121006,143988,9298,0.014,1.031,0.124,0.427,-0.305,0.488,441.946
121006,143946,11078,0.019,1.037,0.131,-0.61,-0.305,0.488,441.952
120987,143988,9298,0.019,1.037,0.131,-0.61,-0.305,0.488,441.956
120987,143945,11081,0.016,1.024,0.144,0.488,0.183,0.549,441.962
121017,143988,9298,0.016,1.024,0.144,0.488,0.183,0.549,441.966
121017,143951,11076,0.019,1.02,0.124,-1.098,0.305,0.427,441.972
121021,143988,9298,0.019,1.02,0.124,-1.098,0.305,0.427,441.976
121021,143946,11086,0.012,1.014,0.122,-1.341,1.037,0.366,441.982
121019,143988,9298,0.012,1.014,0.122,-1.341,1.037,0.366,441.986
121019,143955,11082,0.008,1.011,0.126,0.061,1.524,0.305,441.992
121042,143988,9298,0.008,1.011,0.126,0.061,1.524,0.305,441.996
121042,143939,11093,0.004,1.02,0.122,-0.976,1.037,0.427,442.002
121043,143988,9298,0.004,1.02,0.122,-0.976,1.037,0.427,442.006
121043,143954,11082,0.006,1.024,0.131,-0.427,-0.122,0.488,442.012
120969,143988,9298,0.006,1.024,0.131,-0.427,-0.122,0.488,442.015
120969,143901,11088,0.012,1.028,0.131,-0.427,-0.122,0.488,442.022
121006,143988,9298,0.015,1.027,0.133,-0.183,-1.159,0.305,442.025
121006,143950,11088,0.016,1.029,0.139,-0.183,-1.159,0.305,442.031
121042,143988,9298,0.018,1.025,0.142,0.061,-1.159,0.183,442.035
121042,143955,11095,0.02,1.021,0.136,0.061,-1.159,0.183,442.041
121031,143988,9298,0.022,1.019,0.129,0.122,-0.427,0.061,442.045
121031,143959,11082,0.021,1.022,0.129,0.122,-0.427,0.061,442.051
121016,143988,9298,0.014,1.022,0.134,-0.976,0.732,0.122,442.055
121016,143961,11072,0.008,1.018,0.14,-0.976,0.732,0.122,442.061
121025,143988,9298,0.008,1.018,0.141,0.366,1.341,0.122,442.065
121025,143926,11079,0.012,1.017,0.126,0.366,1.341,0.122,442.071
121028,143988,9298,0.011,1.02,0.112,-0.305,1.098,-0.061,442.075
121028,143971,11075,0.005,1.02,0.114,-0.305,1.098,-0.061,442.081
121005,143988,9298,0.005,1.021,0.126,-0.549,0.854,0.366,442.085
121005,143970,11075,0.007,1.016,0.135,-0.549,0.854,0.366,442.091
121007,143988,9298,0.008,1.016,0.14,0.366,0.366,0.61,442.095
121007,143953,11084,0.01,1.015,0.132,0.366,0.366,0.61,442.101
121036,143988,9298,0.009,1.018,0.119,-1.098,-0.061,0.671,442.105
121036,143992,11079,0.01,1.021,0.125,-1.098,-0.061,0.671,442.111
121050,143988,9298,0.006,1.024,0.14,-1.22,-0.244,0.793,442.114
121050,143980,11097,0.006,1.026,0.155,-1.22,-0.244,0.793,442.121
121036,143988,9298,0.011,1.021,0.158,0.732,-0.305,0.427,442.124
121036,144001,11083,0.019,1.02,0.139,0.732,-0.305,0.427,442.13
121062,143988,9298,0.022,1.025,0.115,0.61,-0.183,0,442.134
121062,144009,11090,0.02,1.031,0.103,0.61,-0.183,0,442.14
121056,143988,9298,0.012,1.029,0.118,-0.061,0.915,0.488,442.144
121056,144013,11093,0.006,1.02,0.145,-0.061,0.915,0.488,442.15
121048,143988,9298,0.005,1.013,0.151,1.89,1.402,0.183,442.154
121048,143989,11091,0.011,1.011,0.139,1.89,1.402,0.183,442.16
121046,143988,9298,0.013,1.018,0.116,-0.183,0.854,0,442.164
121046,143973,11090,0.011,1.025,0.104,-0.183,0.854,0,442.17
121036,143988,9298,0.011,1.026,0.113,-2.866,0.244,0.671,442.174
121036,143985,11090,0.01,1.021,0.132,-2.866,0.244,0.671,442.18
121071,143988,9298,0.008,1.015,0.149,0.183,-0.061,0.671,442.184
121071,143995,11085,0.012,1.012,0.152,0.183,-0.061,0.671,442.19
121096,143988,9298,0.016,1.014,0.141,0.915,-0.732,0.183,442.194
121096,144011,11091,0.017,1.025,0.124,0.915,-0.732,0.183,442.2
121046,143988,9298,0.015,1.032,0.117,-1.098,-0.427,0.488,442.204
121046,143995,11090,0.014,1.03,0.132,-1.098,-0.427,0.488,442.21
121032,143988,9298,0.009,1.026,0.152,-0.305,0.61,0.61,442.213
121032,143990,11108,0.011,1.018,0.158,-0.305,0.61,0.61,442.22
121044,143988,9298,0.015,1.011,0.147,1.22,0.549,0.305,442.223
121044,143999,11083,0.016,1.012,0.121,1.22,0.549,0.305,442.229
121048,143988,9298,0.017,1.016,0.107,-1.402,0.488,0.671,442.233
121048,144002,11087,0.016,1.021,0.115,-1.402,0.488,0.671,442.239
121033,143988,9298,0.009,1.018,0.126,-0.732,1.159,0.915,442.243
121033,143981,11090,0.009,1.019,0.141,-0.732,1.159,0.915,442.249
121055,143988,9298,0.013,1.02,0.141,1.402,1.159,0.305,442.253
121055,144028,11084,0.017,1.024,0.13,1.402,1.159,0.305,442.259
121065,143988,9298,0.012,1.031,0.12,-0.305,0.366,0.305,442.263
121065,144011,11093,0.014,1.036,0.117,-0.305,0.366,0.305,442.269
121091,143988,9298,0.014,1.036,0.136,-0.915,-0.122,0.549,442.273
121091,144007,11082,0.009,1.025,0.151,-0.915,-0.122,0.549,442.279
121072,143988,9298,0.013,1.016,0.157,0.244,-0.366,0.183,442.283
121072,144019,11100,0.017,1.015,0.147,0.244,-0.366,0.183,442.289
121088,143988,9298,0.016,1.015,0.134,-0.732,-0.305,0.061,442.293
121088,144012,11085,0.014,1.014,0.13,-0.732,-0.305,0.061,442.299
121052,143988,9298,0.013,1.013,0.13,-1.22,0.549,0.305,442.303
121052,144003,11078,0.008,1.01,0.134,-1.22,0.549,0.305,442.309
121055,143988,9298,0.007,1.009,0.13,0.976,1.768,0.305,442.312
121055,143990,11107,0.009,1.015,0.13,0.976,1.768,0.305,442.319
121078,143988,9298,0.007,1.024,0.124,0.671,1.768,0.305,442.322
121078,144017,11088,0.006,1.021,0.119,0.671,1.768,0.305,442.329
121053,143988,9298,0.006,1.023,0.113,0.061,1.28,0.549,442.332
121053,144014,11085,0.006,1.03,0.113,0.061,1.28,0.549,442.338
121078,143988,9298,0.01,1.032,0.121,-0.488,0.671,0.305,442.342
121078,144002,11096,0.011,1.031,0.119,-0.488,0.671,0.305,442.348
121065,143988,9298,0.01,1.026,0.126,-0.671,-0.122,0.305,442.352
121065,144037,11098,0.012,1.021,0.127,-0.671,-0.122,0.305,442.358
121091,143988,9298,0.011,1.018,0.129,-0.488,-0.366,0.427,442.362
121091,144016,11096,0.01,1.017,0.128,-0.488,-0.366,0.427,442.368
121091,143988,9298,0.009,1.016,0.133,-0.793,-0.305,0.183,442.372
121091,144018,11093,0.013,1.016,0.129,-0.793,-0.305,0.183,442.378
121089,143988,9298,0.013,1.013,0.134,-0.244,-0.122,0.122,442.382
121089,144048,11110,0.012,1.013,0.139,-0.244,-0.122,0.122,442.388
121070,143988,9298,0.011,1.017,0.151,0.488,-0.122,0.183,442.392
121070,144004,11094,0.012,1.017,0.161,0.488,-0.122,0.183,442.398
121036,143988,9298,0.017,1.015,0.153,0.854,-0.244,0.183,442.402
121036,143978,11086,0.024,1.019,0.134,0.854,-0.244,0.183,442.408
121098,143988,9298,0.024,1.023,0.111,-0.488,0.305,0.427,442.411
121098,144013,11099,0.02,1.028,0.111,-0.488,0.305,0.427,442.418
121087,143988,9298,0.014,1.026,0.131,-1.402,1.463,0.732,442.421
121087,144024,11092,0.008,1.019,0.15,-1.402,1.463,0.732,442.427
121076,143988,9298,0.01,1.014,0.157,1.159,1.524,0.244,442.431
121076,144005,11096,0.014,1.016,0.143,1.159,1.524,0.244,442.437
121118,143988,9298,0.016,1.019,0.117,0.427,0.549,-0.061,442.441
121118,144029,11103,0.015,1.022,0.103,0.427,0.549,-0.061,442.447
121119,143988,9298,0.013,1.024,0.106,-0.488,0.549,0.427,442.451
121119,144033,11109,0.012,1.024,0.119,-0.488,0.549,0.427,442.457
121058,143988,9298,0.009,1.02,0.132,0.488,1.037,0.244,442.461
121058,144008,11100,0.008,1.019,0.138,0.488,1.037,0.244,442.467
121067,143988,9298,0.008,1.019,0.138,0.488,1.037,0.244,442.471
121067,144030,11091,0.007,1.02,0.126,-0.427,0.427,0,442.477
121076,143988,9298,0.007,1.02,0.126,-0.427,0.427,0,442.481
121076,144010,11114,0.009,1.019,0.118,-1.22,-0.549,0.488,442.487
121053,143988,9298,0.009,1.019,0.118,-1.22,-0.549,0.488,442.491
121053,143979,11103,0.008,1.021,0.131,-0.427,-0.427,0.305,442.497
121075,143988,9298,0.008,1.021,0.131,-0.427,-0.427,0.305,442.501
121075,144016,11087,0.003,1.022,0.136,0.244,0.183,0.122,442.507
121112,143988,9298,0.003,1.022,0.136,0.244,0.183,0.122,442.51
121112,144030,11099,0.008,1.031,0.118,-0.549,0.183,0.427,442.517
121075,143988,9298,0.008,1.031,0.118,-0.549,0.183,0.427,442.52
121075,143989,11093,0.006,1.024,0.123,-1.707,-0.183,0.61,442.527
121063,143988,9298,0.006,1.024,0.123,-1.707,-0.183,0.61,442.53
121063,143996,11098,0.01,1.019,0.143,-1.098,-0.183,0.61,442.536
121066,143988,9298,0.01,1.019,0.143,-1.098,-0.183,0.61,442.54
121066,144005,11094,0.012,1.017,0.132,-0.976,-0.61,0.427,442.546
121077,143988,9298,0.012,1.017,0.132,-0.976,-0.61,0.427,442.55
121077,144006,11094,0.017,1.017,0.135,-1.159,-0.915,0.244,442.556
121019,143988,9298,0.017,1.017,0.135,-1.159,-0.915,0.244,442.56
121019,143986,11080,0.013,1.016,0.151,0.427,-0.122,0.305,442.566
121038,143988,9298,0.013,1.016,0.151,0.427,-0.122,0.305,442.57
121038,144018,11109,0.012,1.016,0.133,1.22,0.671,0.427,442.576
121054,143988,9298,0.012,1.016,0.133,1.22,0.671,0.427,442.58
121054,143985,11109,0.01,1.024,0.119,-0.366,0.976,0.305,442.586
121056,143988,9298,0.01,1.024,0.119,-0.366,0.976,0.305,442.59
121056,143996,11094,0.009,1.021,0.138,-0.427,0.976,0.732,442.596
121052,143988,9298,0.009,1.021,0.138,-0.427,0.976,0.732,442.6
121052,143999,11097,0.01,1.018,0.128,0.244,0.549,0.915,442.606
121068,143988,9298,0.01,1.018,0.128,0.244,0.549,0.915,442.609
121068,144000,11099,0.011,1.022,0.119,-0.915,0.122,0.854,442.616
121066,143988,9298,0.015,1.026,0.119,-0.915,0.122,0.854,442.619
121066,143990,11108,0.016,1.027,0.123,-1.098,-0.122,0.549,442.625
121047,143988,9298,0.011,1.03,0.131,-1.098,-0.122,0.549,442.629
121047,144001,11084,0.01,1.031,0.136,0.427,-0.366,0.122,442.635
121065,143988,9298,0.017,1.029,0.14,0.427,-0.366,0.122,442.639
121065,143999,11097,0.016,1.023,0.139,1.098,-0.488,-0.305,442.645
121052,143988,9298,0.019,1.018,0.14,1.098,-0.488,-0.305,442.649
121052,143960,11085,0.016,1.018,0.141,0.488,0.061,-0.244,442.655
121069,143988,9298,0.015,1.017,0.142,0.488,0.061,-0.244,442.659
121069,144001,11088,0.013,1.015,0.147,-0.854,0.732,0.183,442.665
121026,143988,9298,0.009,1.01,0.144,-0.854,0.732,0.183,442.669
121026,143984,11093,0.013,1.004,0.136,0,1.037,0.61,442.675
121004,143988,9298,0.014,1.008,0.129,0,1.037,0.61,442.679
121004,143944,11082,0.014,1.015,0.12,-0.366,1.159,0.61,442.685
121058,143988,9298,0.014,1.022,0.12,-0.366,1.159,0.61,442.689
121058,144000,11099,0.012,1.027,0.119,-1.098,1.341,0.61,442.695
121043,143988,9298,0.007,1.033,0.124,-1.098,1.341,0.61,442.699
121043,143987,11094,0.005,1.031,0.13,0.061,1.098,0.366,442.705
121027,143988,9298,0.008,1.031,0.135,0.061,1.098,0.366,442.708
121027,143944,11090,0.005,1.03,0.135,0.366,0.427,-0.061,442.715
121045,143988,9298,0.007,1.025,0.131,0.366,0.427,-0.061,442.718
121045,143972,11101,0.008,1.023,0.127,0.122,0,-0.122,442.725
121095,143988,9298,0.007,1.019,0.132,0.122,0,-0.122,442.728
121095,143998,11120,0.006,1.016,0.136,-0.122,0.122,0.061,442.734
121056,143988,9298,0.008,1.01,0.147,-0.122,0.122,0.061,442.738
121056,144019,11079,0.007,1.009,0.143,0.244,0.183,0.122,442.744
121055,143988,9298,0.011,1.007,0.136,0.244,0.183,0.122,442.748
121055,143979,11086,0.015,1.01,0.128,-0.244,0.122,0.488,442.754
121061,143988,9298,0.016,1.018,0.126,-0.244,0.122,0.488,442.758
121061,144031,11099,0.016,1.019,0.129,-0.61,0.305,0.915,442.764
121086,143988,9298,0.015,1.018,0.124,-0.61,0.305,0.915,442.768
121086,144025,11093,0.015,1.024,0.128,0.183,0.671,0.793,442.774
121052,143988,9298,0.017,1.031,0.128,0.183,0.671,0.793,442.778
121052,143985,11091,0.016,1.031,0.126,0.061,0.854,0.244,442.784
121065,143988,9298,0.012,1.028,0.13,0.061,0.854,0.244,442.788
121065,143984,11111,0.011,1.025,0.129,-0.061,0.793,0.244,442.794
121094,143988,9298,0.009,1.019,0.126,-0.061,0.793,0.244,442.798
121094,144042,11092,0.008,1.02,0.125,-0.61,0.549,0.244,442.804
121068,143988,9298,0.006,1.019,0.127,-0.61,0.549,0.244,442.807
121068,144017,11099,0.007,1.016,0.137,-1.28,0.183,0.122,442.814
121051,143988,9298,0.007,1.01,0.142,-1.28,0.183,0.122,442.817
121051,144018,11084,0.012,1.009,0.137,-0.244,-0.305,0.244,442.824
121060,143988,9298,0.009,1.011,0.129,-0.244,-0.305,0.244,442.827
121060,144027,11097,0.01,1.019,0.13,0.488,-0.183,0.366,442.833
121067,143988,9298,0.012,1.026,0.133,0.488,-0.183,0.366,442.837
121067,144018,11077,0.009,1.031,0.136,0.305,0.305,0.183,442.843
121042,143988,9298,0.011,1.031,0.145,0.305,0.305,0.183,442.847
121042,144015,11100,0.014,1.029,0.142,1.098,0.732,0.061,442.853
121064,143988,9298,0.013,1.025,0.13,1.098,0.732,0.061,442.857
121064,144022,11086,0.015,1.02,0.13,0.488,0.732,0.366,442.863
121092,143988,9298,0.012,1.018,0.125,0.488,0.732,0.366,442.867
121092,144015,11105,0.013,1.018,0.135,-0.671,0.793,0.671,442.873
121060,143988,9298,0.009,1.018,0.138,-0.671,0.793,0.671,442.877
121060,144007,11095,0.01,1.017,0.139,-1.037,0.976,0.305,442.883
121065,143988,9298,0.009,1.016,0.136,-1.037,0.976,0.305,442.887
121065,144017,11109,0.012,1.014,0.124,-0.366,0.488,0.122,442.893
121095,143988,9298,0.017,1.019,0.113,-0.366,0.488,0.122,442.897
121095,144027,11086,0.015,1.021,0.11,0,0.183,0.427,442.903
121068,143988,9298,0.013,1.025,0.119,0,0.183,0.427,442.906
121068,144011,11101,0.011,1.023,0.136,0.061,0.427,0.366,442.913
121050,143988,9298,0.013,1.016,0.14,0.061,0.427,0.366,442.916
121050,143997,11102,0.012,1.016,0.133,0.732,0,0.366,442.923
121055,143988,9298,0.012,1.015,0.12,0.732,0,0.366,442.926
121055,144019,11085,0.012,1.021,0.119,-0.976,-0.061,0.793,442.932
121068,143988,9298,0.007,1.026,0.125,-0.976,-0.061,0.793,442.936
121068,143998,11099,0.006,1.024,0.138,-1.159,0.366,0.854,442.942
121044,143988,9298,0.006,1.019,0.147,-1.159,0.366,0.854,442.946
121044,144011,11104,0.008,1.017,0.142,-0.305,0.122,0.671,442.952
121081,143988,9298,0.012,1.02,0.129,-0.305,0.122,0.671,442.956
121081,144021,11109,0.013,1.028,0.122,-0.976,-0.305,0.793,442.962
121095,143988,9298,0.014,1.032,0.131,-0.976,-0.305,0.793,442.966
121095,144022,11116,0.014,1.033,0.144,-1.28,-0.427,0.671,442.972
121087,143988,9298,0.019,1.026,0.149,-1.28,-0.427,0.671,442.976
121087,144024,11089,0.02,1.016,0.141,0.366,-0.305,0.122,442.982
121069,143988,9298,0.023,1.015,0.128,0.366,-0.305,0.122,442.986
121069,144005,11103,0.022,1.018,0.124,0.122,0.305,-0.061,442.992
121077,143988,9298,0.018,1.014,0.133,0.122,0.305,-0.061,442.996
121077,144033,11108,0.015,1.013,0.138,-0.488,1.524,0.122,443.002
121082,143988,9298,0.006,1.012,0.14,-0.488,1.524,0.122,443.005
121082,144030,11101,0.006,1.007,0.136,0,1.951,0.305,443.012
121050,143988,9298,0.005,1.009,0.125,0,1.951,0.305,443.015
121050,144004,11104,0.002,1.015,0.12,-0.61,1.159,0.427,443.022
121070,143988,9298,0.005,1.019,0.12,-0.61,1.159,0.427,443.025
121070,144019,11095,0.005,1.024,0.128,-0.671,0.366,0.549,443.031
121072,143988,9298,0.007,1.027,0.138,-0.671,0.366,0.549,443.035
121072,144034,11104,0.007,1.032,0.146,0.488,-0.122,0.427,443.041
121086,143988,9298,0.011,1.032,0.139,0.488,-0.122,0.427,443.045
121086,144012,11097,0.015,1.028,0.127,0.854,-0.122,0.305,443.051
121081,143988,9298,0.012,1.026,0.121,0.854,-0.122,0.305,443.055
121081,144052,11099,0.014,1.031,0.125,0.183,0.549,0.061,443.061
121071,143988,9298,0.014,1.031,0.125,0.183,0.549,0.061,443.065
121071,144034,11093,0.012,1.022,0.135,-0.122,0.915,0,443.071
121086,143988,9298,0.012,1.022,0.135,-0.122,0.915,0,443.075
121086,144044,11103,0.013,1.009,0.125,0.366,0.549,0.061,443.081
121089,143988,9298,0.013,1.009,0.125,0.366,0.549,0.061,443.085
121089,144050,11106,0.015,1.012,0.128,-0.549,0.305,0.305,443.091
121082,143988,9298,0.015,1.012,0.128,-0.549,0.305,0.305,443.095
121082,144018,11084,0.013,1.013,0.133,-0.793,0.305,0.549,443.101
121079,143988,9298,0.013,1.013,0.133,-0.793,0.305,0.549,443.104
121079,144016,11103,0.015,1.015,0.133,-0.183,0.244,0.793,443.111
121104,143988,9298,0.015,1.015,0.133,-0.183,0.244,0.793,443.114
121104,143992,11104,0.016,1.025,0.136,-0.732,0.427,0.732,443.121
121044,143988,9298,0.016,1.025,0.136,-0.732,0.427,0.732,443.124
121044,144005,11088,0.015,1.026,0.138,-0.244,0.61,0.366,443.13
121072,143988,9298,0.015,1.026,0.138,-0.244,0.61,0.366,443.134
121072,144014,11101,0.013,1.029,0.128,-0.61,0.671,0.183,443.14
121051,143988,9298,0.013,1.029,0.128,-0.61,0.671,0.183,443.144
121051,144030,11105,0.009,1.021,0.145,-0.122,0.732,0.244,443.15
121051,143988,9298,0.009,1.021,0.145,-0.122,0.732,0.244,443.154
121051,143992,11100,0.017,1.012,0.13,0.793,0.488,-0.122,443.16
121063,143988,9298,0.017,1.012,0.13,0.793,0.488,-0.122,443.164
121063,144010,11106,0.014,1.012,0.126,-0.366,0.732,0.183,443.17
121083,143988,9298,0.014,1.012,0.126,-0.366,0.732,0.183,443.174
121083,144053,11107,0.007,1.009,0.136,0.671,0.793,0.427,443.18
121090,143988,9298,0.007,1.009,0.136,0.671,0.793,0.427,443.184
121090,144027,11109,0.009,1.024,0.118,0,0.976,0.244,443.19
121075,143988,9298,0.009,1.024,0.118,0,0.976,0.244,443.194
121075,144035,11102,0.003,1.03,0.112,-0.854,0.854,0.549,443.2
121104,143988,9298,0.003,1.03,0.112,-0.854,0.854,0.549,443.203
121104,144035,11114,0.003,1.029,0.118,-0.854,0.854,0.549,443.21
121106,143988,9298,0.003,1.029,0.124,-0.549,0.122,0.549,443.213
121106,144030,11103,0.009,1.029,0.126,-0.549,0.122,0.549,443.22
121054,143988,9298,0.008,1.025,0.129,-0.793,-0.671,0.244,443.223
121054,144028,11105,0.007,1.023,0.134,-0.793,-0.671,0.244,443.229
121083,143988,9298,0.006,1.021,0.139,-0.854,-0.976,0.427,443.233
121083,144020,11103,0.011,1.016,0.141,-0.854,-0.976,0.427,443.239
121061,143988,9298,0.011,1.016,0.138,-0.305,-0.915,0.305,443.243
121061,144014,11099,0.013,1.013,0.133,-0.305,-0.915,0.305,443.249
121029,143988,9298,0.017,1.009,0.129,-0.061,-0.183,0.183,443.253
121029,144008,11103,0.014,1.01,0.137,-0.061,-0.183,0.183,443.259
121070,143988,9298,0.011,1.011,0.146,0.793,0.427,0.549,443.263
121070,144013,11097,0.015,1.012,0.149,0.793,0.427,0.549,443.269
121072,143988,9298,0.014,1.014,0.144,1.098,0.427,0.671,443.273
121072,144002,11104,0.014,1.022,0.134,1.098,0.427,0.671,443.279
121078,143988,9298,0.016,1.027,0.127,0.732,0.549,0.671,443.283
121078,144008,11104,0.014,1.03,0.132,0.732,0.549,0.671,443.289
121054,143988,9298,0.015,1.032,0.142,0.488,0.915,0.488,443.293
121054,143992,11102,0.013,1.027,0.145,0.488,0.915,0.488,443.299
121090,143988,9298,0.013,1.026,0.129,0.549,1.037,0.305,443.302
121090,144024,11106,0.015,1.022,0.109,0.549,1.037,0.305,443.309
121065,143988,9298,0.016,1.024,0.104,-0.976,0.976,0.366,443.312
121065,144017,11096,0.011,1.023,0.112,-0.976,0.976,0.366,443.319
121037,143988,9298,0.006,1.015,0.125,-0.854,0.915,0.427,443.322
121037,143996,11108,0.007,1.011,0.133,-0.854,0.915,0.427,443.328
121070,143988,9298,0.006,1.011,0.138,0.549,0.183,0.305,443.332
121070,144020,11100,0.008,1.011,0.142,0.549,0.183,0.305,443.338
121053,143988,9298,0.015,1.015,0.143,-0.488,-0.854,0.366,443.342
121053,143983,11085,0.016,1.017,0.138,-0.488,-0.854,0.366,443.348
121039,143988,9298,0.022,1.015,0.132,-0.122,-1.037,0.732,443.352
121039,144004,11089,0.025,1.021,0.126,-0.122,-1.037,0.732,443.358
121055,143988,9298,0.023,1.026,0.13,0.244,-0.061,0.549,443.362
121055,143978,11105,0.019,1.029,0.137,0.244,-0.061,0.549,443.368
121050,143988,9298,0.014,1.028,0.141,0.366,1.098,0.122,443.372
121050,144004,11104,0.01,1.029,0.146,0.366,1.098,0.122,443.378
121039,143988,9298,0.009,1.029,0.139,0.976,1.341,-0.122,443.382
121039,144005,11069,0.011,1.03,0.125,0.976,1.341,-0.122,443.388
121055,143988,9298,0.013,1.03,0.114,-0.671,1.037,-0.183,443.392
121055,143992,11101,0.01,1.026,0.112,-0.671,1.037,-0.183,443.398
121051,143988,9298,0.005,1.016,0.118,-0.793,0.793,0,443.401
121051,143976,11104,0.006,1.009,0.128,-0.793,0.793,0,443.408
121060,143988,9298,0.008,1.008,0.128,-0.671,0.732,0.244,443.411
121060,143987,11098,0.005,1.011,0.124,-0.671,0.732,0.244,443.418
121042,143988,9298,0.005,1.014,0.124,-1.768,0.305,0.61,443.421
121042,143987,11091,0.006,1.015,0.125,-1.768,0.305,0.61,443.427
121027,143988,9298,0.007,1.018,0.138,-1.28,-0.244,0.854,443.431
121027,143974,11088,0.011,1.017,0.146,-1.28,-0.244,0.854,443.437
121055,143988,9298,0.014,1.016,0.146,0.488,-0.854,0.671,443.441
121055,143991,11103,0.017,1.018,0.132,0.488,-0.854,0.671,443.447
121068,143988,9298,0.02,1.023,0.116,0.549,-0.366,0.366,443.451
121068,143991,11095,0.02,1.032,0.113,0.549,-0.366,0.366,443.457
121051,143988,9298,0.015,1.036,0.128,-0.122,0.915,0.488,443.461
121051,143990,11094,0.006,1.032,0.143,-0.122,0.915,0.488,443.467
121064,143988,9298,0.005,1.027,0.151,1.037,1.463,0.305,443.471
121064,144015,11091,0.006,1.018,0.15,1.037,1.463,0.305,443.477
121077,143988,9298,0.009,1.015,0.137,0.305,0.793,-0.061,443.481
121077,144000,11099,0.014,1.019,0.122,0.305,0.793,-0.061,443.487
121044,143988,9298,0.013,1.023,0.117,-1.646,0.427,0.305,443.491
121044,144012,11097,0.009,1.023,0.128,-1.646,0.427,0.305,443.497
121058,143988,9298,0.013,1.017,0.139,-0.61,0.366,0.427,443.5
121058,143982,11101,0.013,1.012,0.141,-0.61,0.366,0.427,443.507
121050,143988,9298,0.016,1.011,0.127,1.22,0.427,-0.061,443.51
121050,143991,11098,0.018,1.016,0.115,1.22,0.427,-0.061,443.517
121063,143988,9298,0.012,1.026,0.118,-0.244,0.549,0.122,443.52
121063,144017,11099,0.007,1.027,0.129,-0.244,0.549,0.122,443.526
121073,143988,9298,0.008,1.025,0.148,0.183,0.732,0.122,443.53
121073,143997,11098,0.008,1.021,0.15,0.183,0.732,0.122,443.536
121040,143988,9298,0.008,1.021,0.131,0.488,0.366,-0.122,443.54
121040,144011,11105,0.014,1.021,0.12,0.488,0.366,-0.122,443.546
121036,143988,9298,0.014,1.018,0.12,-1.159,0.244,0.488,443.55
121036,143979,11094,0.011,1.013,0.126,-1.159,0.244,0.488,443.556
121072,143988,9298,0.007,1.016,0.132,-0.488,0.671,0.854,443.56
121072,144010,11104,0.006,1.018,0.141,-0.488,0.671,0.854,443.566
121016,143988,9298,0.007,1.02,0.143,-0.183,0.549,0.549,443.57
121016,143944,11097,0.01,1.02,0.132,-0.183,0.549,0.549,443.576
121044,143988,9298,0.012,1.021,0.12,-0.366,0.061,0.671,443.58
121044,144026,11101,0.012,1.025,0.117,-0.366,0.061,0.671,443.586
121074,143988,9298,0.012,1.029,0.125,-0.915,0.122,0.793,443.59
121074,144006,11104,0.007,1.028,0.14,-0.915,0.122,0.793,443.596
121049,143988,9298,0.007,1.027,0.148,-0.427,0.183,0.549,443.599
121049,144004,11103,0.012,1.024,0.137,-0.427,0.183,0.549,443.606
121040,143988,9298,0.011,1.02,0.126,-0.244,-0.183,0.244,443.609
121040,143982,11092,0.013,1.022,0.116,-0.244,-0.183,0.244,443.616
121021,143988,9298,0.012,1.016,0.121,-1.098,0.183,0.366,443.619
121021,143955,11093,0.014,1.011,0.128,-1.098,0.183,0.366,443.625
121045,143988,9298,0.01,1.012,0.139,-0.244,0.427,0.732,443.629
121045,143996,11078,0.009,1.014,0.142,-0.244,0.427,0.732,443.635
121056,143988,9298,0.01,1.018,0.138,-0.549,-0.183,0.915,443.639
121056,143966,11097,0.015,1.018,0.128,-0.549,-0.183,0.915,443.645
121019,143988,9298,0.015,1.018,0.128,-0.549,-0.183,0.915,443.649
121019,143968,11083,0.021,1.023,0.115,-0.488,-0.732,0.793,443.655
121002,143988,9298,0.021,1.023,0.115,-0.488,-0.732,0.793,443.659
121002,143959,11092,0.013,1.029,0.134,-0.305,0,0.488,443.665
121054,143988,9298,0.013,1.029,0.134,-0.305,0,0.488,443.669
121054,143964,11104,0.012,1.023,0.134,0.122,0.671,0.488,443.675
121044,143988,9298,0.012,1.023,0.134,0.122,0.671,0.488,443.679
121044,144022,11086,0.01,1.029,0.131,-0.671,0.244,0.732,443.685
121053,143988,9298,0.01,1.029,0.131,-0.671,0.244,0.732,443.689
121053,143991,11097,0.012,1.018,0.151,-1.159,-0.183,0.488,443.695
121055,143988,9298,0.012,1.018,0.151,-1.159,-0.183,0.488,443.698
121055,143969,11099,0.016,1.012,0.146,0.244,-0.366,0.427,443.705
121034,143988,9298,0.016,1.012,0.146,0.244,-0.366,0.427,443.708
121034,143977,11094,0.019,1.016,0.112,0.061,-0.122,0.366,443.715
121020,143988,9298,0.019,1.016,0.112,0.061,-0.122,0.366,443.718
121020,143968,11113,0.009,1.018,0.135,-0.61,1.037,0.427,443.724
121054,143988,9298,0.009,1.018,0.135,-0.61,1.037,0.427,443.728
121054,143973,11084,0.007,1.015,0.141,0.793,1.829,0.366,443.734
121051,143988,9298,0.007,1.015,0.141,0.793,1.829,0.366,443.738
121051,143999,11092,0.007,1.025,0.115,0.671,1.159,0.366,443.744
121021,143988,9298,0.007,1.025,0.115,0.671,1.159,0.366,443.748
121021,143952,11084,0.006,1.032,0.124,-1.646,0.244,0.366,443.754
121041,143988,9298,0.006,1.032,0.124,-1.646,0.244,0.366,443.758
121041,143973,11099,0.011,1.021,0.144,-0.427,0.061,0.488,443.764
121053,143988,9298,0.011,1.021,0.144,-0.427,0.061,0.488,443.768
121053,144013,11099,0.015,1.021,0.126,0.671,-0.244,0.061,443.774
121030,143988,9298,0.015,1.021,0.126,0.671,-0.244,0.061,443.778
121030,143987,11097,0.014,1.024,0.123,-1.037,-0.183,0.122,443.784
121048,143988,9298,0.014,1.024,0.123,-1.037,-0.183,0.122,443.788
121048,144002,11109,0.013,1.022,0.132,-0.61,0.549,0.488,443.794
121064,143988,9298,0.008,1.015,0.145,-0.61,0.549,0.488,443.797
121064,143998,11101,0.011,1.01,0.146,1.037,0.61,0.244,443.804
121035,143988,9298,0.014,1.015,0.137,1.037,0.61,0.244,443.807
121035,143964,11096,0.02,1.018,0.128,0.122,0.183,0.122,443.814
121035,143988,9298,0.02,1.022,0.121,0.122,0.183,0.122,443.817
121035,143981,11109,0.018,1.027,0.121,-0.488,0.488,0.366,443.823
121043,143988,9298,0.015,1.026,0.132,-0.488,0.488,0.366,443.827
121043,143970,11088,0.013,1.023,0.146,0.488,0.976,0.244,443.833
121058,143988,9298,0.014,1.016,0.15,0.488,0.976,0.244,443.837
121058,143991,11104,0.01,1.014,0.144,0.732,0.854,0,443.843
121030,143988,9298,0.011,1.015,0.129,0.732,0.854,0,443.847
121030,143969,11098,0.013,1.019,0.122,-0.61,0.854,0.122,443.853
121064,143988,9298,0.011,1.018,0.121,-0.61,0.854,0.122,443.857
121064,144014,11093,0.007,1.016,0.123,-0.366,1.159,0.305,443.863
121063,143988,9298,0.009,1.02,0.132,-0.366,1.159,0.305,443.867
121063,143986,11098,0.01,1.023,0.132,0.549,0.976,0.122,443.873
121028,143988,9298,0.01,1.028,0.134,0.549,0.976,0.122,443.877
121028,143966,11097,0.008,1.028,0.138,0.244,0.061,-0.183,443.883
121029,143988,9298,0.008,1.029,0.145,0.244,0.061,-0.183,443.887
121029,143998,11090,0.013,1.021,0.156,1.768,0.061,-0.122,443.893
121064,143988,9298,0.011,1.017,0.144,1.768,0.061,-0.122,443.896
121064,144012,11080,0.013,1.022,0.13,0.488,0.671,-0.183,443.903
121079,143988,9298,0.011,1.023,0.119,0.488,0.671,-0.183,443.906
121079,143991,11105,0.008,1.022,0.125,-1.89,1.28,0.305,443.913
121039,143988,9298,0.005,1.015,0.136,-1.89,1.28,0.305,443.916
121039,143990,11092,0.009,1.012,0.133,0,1.159,0.488,443.922
121091,143988,9298,0.014,1.013,0.118,0,1.159,0.488,443.926
121091,144031,11110,0.014,1.019,0.112,-0.488,0.61,0.183,443.932
121074,143988,9298,0.014,1.019,0.107,-0.488,0.61,0.183,443.936
121074,144008,11099,0.008,1.018,0.112,-1.098,0.427,0.488,443.942
121052,143988,9298,0.01,1.019,0.123,-1.098,0.427,0.488,443.946
121052,143991,11099,0.008,1.02,0.127,-0.244,0.183,0.671,443.952
121057,143988,9298,0.007,1.021,0.132,-0.244,0.183,0.671,443.956
121057,143998,11105,0.012,1.026,0.13,-0.793,-0.122,0.549,443.962
121029,143988,9298,0.011,1.03,0.132,-0.793,-0.122,0.549,443.966
121029,143988,11097,0.009,1.03,0.136,-0.305,-0.366,0.549,443.972
121031,143988,9298,0.011,1.028,0.142,-0.305,-0.366,0.549,443.976
121031,143949,11084,0.013,1.027,0.141,0.305,-0.488,0.305,443.982
121032,143988,9298,0.014,1.018,0.143,0.305,-0.488,0.305,443.986
121032,143961,11100,0.013,1.016,0.139,0.671,-0.061,0.122,443.992
121075,143988,9298,0.014,1.018,0.138,0.671,-0.061,0.122,443.995
121075,144003,11125,0.01,1.018,0.139,-0.061,0.854,0.427,444.002
121034,143988,9298,0.007,1.017,0.141,-0.061,0.854,0.427,444.005
121034,143968,11104,0.006,1.015,0.145,0.61,1.402,0.427,444.012
121043,143988,9298,0.012,1.011,0.138,0.61,1.402,0.427,444.015
121043,143949,11109,0.009,1.016,0.136,1.341,1.402,0.427,444.021
121064,143988,9298,0.009,1.022,0.129,1.341,1.402,0.427,444.025
121064,143990,11101,0.012,1.025,0.122,0.549,1.22,0.61,444.031
121018,143988,9298,0.011,1.023,0.123,0.549,1.22,0.61,444.035
121018,143976,11090,0.01,1.026,0.126,0.305,1.159,0.793,444.041
121035,143988,9298,0.011,1.027,0.132,0.305,1.159,0.793,444.045
121035,143967,11096,0.01,1.019,0.133,0.244,0.671,0.549,444.051
121048,143988,9298,0.011,1.021,0.123,0.244,0.671,0.549,444.055
121048,143985,11103,0.013,1.02,0.121,-0.061,0.122,0.488,444.061
121040,143988,9298,0.01,1.017,0.121,-0.061,0.122,0.488,444.065
121040,143999,11117,0.009,1.016,0.125,-0.305,0.122,0.488,444.071
121026,143988,9298,0.008,1.018,0.125,-0.305,0.122,0.488,444.075
121026,143948,11095,0.007,1.017,0.13,-0.122,0.366,0.61,444.081
121028,143988,9298,0.008,1.022,0.13,-0.122,0.366,0.61,444.085
121028,143969,11106,0.011,1.024,0.13,-0.244,0.122,0.549,444.091
121039,143988,9298,0.013,1.022,0.129,-0.244,0.122,0.549,444.094
121039,143996,11090,0.015,1.019,0.123,0.183,-0.061,0.549,444.101
121032,143988,9298,0.016,1.019,0.122,0.183,-0.061,0.549,444.104
121032,143956,11095,0.015,1.023,0.129,0.122,0.244,0.671,444.111
121015,143988,9298,0.016,1.026,0.13,0.122,0.244,0.671,444.114
121015,143970,11095,0.011,1.026,0.129,-0.854,0.305,0.61,444.12
121044,143988,9298,0.012,1.022,0.126,-0.854,0.305,0.61,444.124
121044,143977,11097,0.016,1.021,0.124,-0.366,0.183,0.61,444.13
121054,143988,9298,0.016,1.017,0.125,-0.366,0.183,0.61,444.134
121054,143999,11086,0.013,1.017,0.128,-0.244,0,0.427,444.14
121049,143988,9298,0.011,1.022,0.132,-0.244,0,0.427,444.144
121049,144004,11112,0.009,1.022,0.134,-0.549,0.122,0.366,444.15
121050,143988,9298,0.011,1.024,0.142,-0.549,0.122,0.366,444.154
121050,143987,11085,0.013,1.024,0.14,-0.183,-0.122,0.183,444.16
121012,143988,9298,0.016,1.022,0.132,-0.183,-0.122,0.183,444.164
121012,143983,11109,0.017,1.021,0.127,-0.122,-0.183,0.183,444.17
121041,143988,9298,0.017,1.02,0.131,-0.122,-0.183,0.183,444.174
121041,144008,11087,0.016,1.019,0.14,-0.427,0.244,0.61,444.18
121072,143988,9298,0.017,1.018,0.142,-0.427,0.244,0.61,444.184
121072,144003,11109,0.017,1.012,0.138,0,0.427,0.488,444.19
121057,143988,9298,0.018,1.017,0.135,0,0.427,0.488,444.193
121057,143990,11104,0.014,1.02,0.13,-0.549,0.427,0.244,444.2
121082,143988,9298,0.016,1.023,0.127,-0.549,0.427,0.244,444.203
121082,144012,11105,0.019,1.025,0.128,0.183,0.671,0.244,444.21
121103,143988,9298,0.017,1.023,0.129,0.183,0.671,0.244,444.213
121103,143998,11102,0.014,1.02,0.13,0.976,0.976,0.183,444.219
121079,143988,9298,0.013,1.018,0.129,0.976,0.976,0.183,444.223
121079,144016,11101,0.008,1.021,0.13,0.183,1.037,0.244,444.229
121056,143988,9298,0.006,1.021,0.13,0.183,1.037,0.244,444.233
121056,143995,11095,0.005,1.022,0.133,-0.671,0.671,0.305,444.239
121057,143988,9298,0.005,1.022,0.133,-0.671,0.671,0.305,444.243
121057,143985,11100,0.011,1.017,0.123,-0.793,0.244,0.244,444.249
121024,143988,9298,0.011,1.017,0.123,-0.793,0.244,0.244,444.253
121024,143966,11099,0.013,1.024,0.123,-0.793,0.183,0.122,444.259
121041,143988,9298,0.013,1.024,0.123,-0.793,0.183,0.122,444.263
121041,143987,11091,0.01,1.023,0.136,-0.061,0.305,-0.061,444.269
121012,143988,9298,0.01,1.023,0.136,-0.061,0.305,-0.061,444.273
121012,144008,11110,0.011,1.021,0.133,0.427,0.61,-0.183,444.279
121040,143988,9298,0.011,1.021,0.133,0.427,0.61,-0.183,444.283
121040,143964,11086,0.01,1.019,0.119,-0.366,0.915,0.122,444.289
121025,143988,9298,0.01,1.019,0.119,-0.366,0.915,0.122,444.292
121025,143970,11093,0.004,1.018,0.127,-0.488,1.098,0.427,444.299
121057,143988,9298,0.004,1.018,0.127,-0.488,1.098,0.427,444.302
121057,143984,11098,0.003,1.018,0.145,-0.061,0.488,0.427,444.309
121041,143988,9298,0.003,1.018,0.145,-0.061,0.488,0.427,444.312
121041,143984,11089,0.009,1.018,0.136,0.183,-0.183,0.244,444.318
121043,143988,9298,0.009,1.018,0.136,0.183,-0.183,0.244,444.322
121043,143973,11100,0.011,1.023,0.124,-0.854,-0.061,0.366,444.328
121050,143988,9298,0.011,1.023,0.124,-0.854,-0.061,0.366,444.332
121050,143970,11100,0.011,1.014,0.128,-0.305,0.732,0.671,444.338
121033,143988,9298,0.011,1.014,0.128,-0.305,0.732,0.671,444.342
121033,143993,11100,0.011,1.019,0.119,-0.122,1.037,0.671,444.348
121036,143988,9298,0.011,1.019,0.119,-0.122,1.037,0.671,444.352
121036,143972,11112,0.006,1.024,0.128,-0.61,0.61,0.427,444.358
121024,143988,9298,0.006,1.024,0.128,-0.61,0.61,0.427,444.362
121024,143961,11092,0.01,1.023,0.139,0.854,-0.061,0.366,444.368
121018,143988,9298,0.01,1.023,0.139,0.854,-0.061,0.366,444.372
121018,143970,11099,0.013,1.022,0.129,0.61,-0.549,0.305,444.378
121030,143988,9298,0.013,1.022,0.129,0.61,-0.549,0.305,444.382
121030,143983,11080,0.016,1.025,0.122,0.61,-0.549,0.305,444.388
121010,143988,9298,0.014,1.021,0.127,-0.549,0,0.488,444.391
121010,143957,11103,0.013,1.018,0.134,-0.549,0,0.488,444.398
121046,143988,9298,0.011,1.014,0.14,-0.122,0.427,0.671,444.401
121046,143942,11078,0.01,1.013,0.142,-0.122,0.427,0.671,444.408
121062,143988,9298,0.012,1.015,0.139,-0.488,0.122,0.549,444.411
121062,143966,11080,0.015,1.015,0.13,-0.488,0.122,0.549,444.417
121022,143988,9298,0.015,1.021,0.125,-1.402,-0.305,0.732,444.421
121022,143963,11099,0.016,1.027,0.128,-1.402,-0.305,0.732,444.427
121013,143988,9298,0.016,1.025,0.13,-0.915,-0.305,0.732,444.431
121013,143940,11095,0.015,1.026,0.133,-0.915,-0.305,0.732,444.437
121023,143988,9298,0.015,1.027,0.136,0.488,0.427,0.366,444.441
121023,143937,11088,0.014,1.024,0.139,0.488,0.427,0.366,444.447
121040,143988,9298,0.013,1.022,0.138,0.305,0.732,0.061,444.451
121040,143966,11084,0.01,1.021,0.126,0.305,0.732,0.061,444.457
121009,143988,9298,0.009,1.021,0.12,-0.305,0.793,-0.061,444.461
121009,143956,11103,0.007,1.016,0.118,-0.305,0.793,-0.061,444.467
121029,143988,9298,0.003,1.015,0.129,-0.671,1.037,0.244,444.471
121029,143948,11080,-0.001,1.01,0.134,-0.671,1.037,0.244,444.477
121027,143988,9298,0,1.013,0.133,-0.549,0.61,0.549,444.481
121027,143982,11104,0.004,1.015,0.132,-0.549,0.61,0.549,444.487
121023,143988,9298,0.008,1.018,0.13,-0.915,-0.61,0.671,444.491
121023,143967,11098,0.015,1.023,0.129,-0.915,-0.61,0.671,444.497
121050,143988,9298,0.018,1.027,0.129,-0.305,-0.915,0.61,444.5
121050,143984,11098,0.019,1.028,0.13,-0.305,-0.915,0.61,444.507
121018,143988,9298,0.018,1.03,0.129,0.488,-0.244,0.366,444.51
121018,143965,11097,0.018,1.03,0.13,0.488,-0.244,0.366,444.516
121037,143988,9298,0.014,1.026,0.134,0.366,0.366,0.244,444.52
121037,143983,11098,0.011,1.025,0.137,0.366,0.366,0.244,444.526
121045,143988,9298,0.013,1.02,0.138,-0.305,0.732,0.183,444.53
121045,143986,11087,0.009,1.012,0.129,-0.305,0.732,0.183,444.536
121027,143988,9298,0.012,1.011,0.122,-1.037,0.793,0.244,444.54
121027,143975,11099,0.011,1.015,0.124,-1.037,0.793,0.244,444.546
121031,143988,9298,0.012,1.016,0.131,-1.037,0.427,0.366,444.55
121031,143990,11094,0.012,1.01,0.138,-1.037,0.427,0.366,444.556
121020,143988,9298,0.014,1.011,0.142,0,-0.061,0.671,444.56
121020,144006,11107,0.017,1.018,0.138,0,-0.061,0.671,444.566
121047,143988,9298,0.022,1.026,0.131,0.366,-0.427,0.61,444.57
121047,144014,11098,0.022,1.027,0.126,0.366,-0.427,0.61,444.576
121033,143988,9298,0.022,1.03,0.122,0.122,-0.061,0.366,444.58
121033,143998,11098,0.02,1.027,0.127,0.122,-0.061,0.366,444.586
121026,143988,9298,0.016,1.025,0.139,1.098,1.22,0.122,444.59
121026,143967,11099,0.008,1.02,0.135,1.098,1.22,0.122,444.596
121042,143988,9298,0.006,1.018,0.13,-0.244,1.646,0,444.599
121042,143974,11092,0.001,1.017,0.127,-0.244,1.646,0,444.606
121042,143988,9298,-0.002,1.017,0.131,-1.646,1.28,0.488,444.609
121042,143964,11104,0.001,1.017,0.135,-1.646,1.28,0.488,444.615
121056,143988,9298,0.006,1.016,0.133,-0.122,0.427,0.305,444.619
121056,144009,11089,0.012,1.019,0.122,-0.122,0.427,0.305,444.625
121042,143988,9298,0.014,1.026,0.119,-0.061,0.061,0.122,444.629
121042,143986,11110,0.011,1.029,0.127,-0.061,0.061,0.122,444.635
121031,143988,9298,0.01,1.025,0.138,0.366,0.244,0.366,444.639
121031,143972,11087,0.011,1.02,0.142,0.366,0.244,0.366,444.645
121020,143988,9298,0.014,1.017,0.141,1.037,0.427,0.183,444.649
121020,143978,11100,0.015,1.016,0.128,1.037,0.427,0.183,444.655
121047,143988,9298,0.014,1.022,0.111,-1.463,0.549,0.305,444.659
121047,143967,11110,0.008,1.02,0.111,-1.463,0.549,0.305,444.665
121080,143988,9298,0.005,1.022,0.126,-2.073,0.732,0.854,444.669
121080,144007,11100,0.007,1.021,0.142,-2.073,0.732,0.854,444.675
121029,143988,9298,0.013,1.02,0.145,0.061,0.061,0.427,444.679
121029,143969,11102,0.014,1.017,0.134,0.061,0.061,0.427,444.685
121020,143988,9298,0.016,1.021,0.122,-0.549,-0.549,0.244,444.689
121020,143975,11096,0.016,1.024,0.119,-0.549,-0.549,0.244,444.695
121023,143988,9298,0.016,1.025,0.119,-0.305,0.183,0.427,444.698
121023,143986,11110,0.011,1.021,0.129,-0.305,0.183,0.427,444.705
121036,143988,9298,0.009,1.018,0.137,0.366,0.976,0.122,444.708
121036,143969,11094,0.007,1.017,0.137,0.366,0.976,0.122,444.714
121017,143988,9298,0.005,1.019,0.137,0.122,1.098,0.061,444.718
121017,143977,11086,0.005,1.023,0.134,0.122,1.098,0.061,444.724
121019,143988,9298,0.008,1.024,0.126,-0.488,0.061,0.305,444.728
121019,143965,11099,0.015,1.018,0.129,-0.488,0.061,0.305,444.734
121048,143988,9298,0.017,1.017,0.131,-0.122,-0.305,0.305,444.738
121048,143978,11095,0.019,1.017,0.131,-0.122,-0.305,0.305,444.744
121027,143988,9298,0.016,1.014,0.131,0.427,0,0.549,444.748
121027,143968,11102,0.015,1.017,0.134,0.427,0,0.549,444.754
121036,143988,9298,0.013,1.02,0.137,-0.183,0.427,0.61,444.758
121036,143968,11100,0.012,1.023,0.136,-0.183,0.427,0.61,444.764
121026,143988,9298,0.011,1.025,0.133,0.061,0.427,0.244,444.768
121026,143978,11082,0.012,1.031,0.129,0.061,0.427,0.244,444.774
121019,143988,9298,0.014,1.031,0.125,-0.366,0.366,0.122,444.778
121019,143963,11105,0.013,1.029,0.13,-0.366,0.366,0.122,444.784
121010,143988,9298,0.011,1.029,0.131,-0.61,0.183,0.244,444.788
121010,143977,11107,0.014,1.02,0.134,-0.61,0.183,0.244,444.794
121017,143988,9298,0.015,1.015,0.132,-0.427,-0.061,0.061,444.797
121017,143954,11081,0.017,1.012,0.133,-0.427,-0.061,0.061,444.804
121001,143988,9298,0.015,1.011,0.125,-0.793,0.122,0,444.807
121001,143963,11111,0.012,1.012,0.118,-0.793,0.122,0,444.814
121028,143988,9298,0.013,1.016,0.116,-0.793,0.793,0.061,444.817
121028,143965,11096,0.012,1.017,0.123,-0.793,0.793,0.061,444.823
121018,143988,9298,0.008,1.017,0.138,0.427,0.854,0.183,444.827
121018,143977,11100,0.01,1.02,0.139,0.427,0.854,0.183,444.833
121002,143988,9298,0.01,1.02,0.139,0.427,0.854,0.183,444.837
121002,143964,11105,0.009,1.027,0.138,0.549,0.183,0.244,444.843
121016,143988,9298,0.009,1.027,0.138,0.549,0.183,0.244,444.847
121016,143969,11075,0.013,1.025,0.145,-0.671,-0.366,0.183,444.853
121023,143988,9298,0.013,1.025,0.145,-0.671,-0.366,0.183,444.857
121023,143966,11108,0.019,1.021,0.135,-0.244,-0.488,0.183,444.863
121017,143988,9298,0.019,1.021,0.135,-0.244,-0.488,0.183,444.867
121017,143946,11080,0.014,1.018,0.134,-0.183,0.061,0.183,444.873
121033,143988,9298,0.014,1.018,0.134,-0.183,0.061,0.183,444.877
121033,144001,11091,0.008,1.015,0.141,-0.122,0.854,0.061,444.883
121032,143988,9298,0.008,1.015,0.141,-0.122,0.854,0.061,444.887
121032,143980,11098,0.011,1.019,0.136,0.671,1.341,-0.122,444.893
121046,143988,9298,0.011,1.019,0.136,0.671,1.341,-0.122,444.896
121046,143980,11099,0.006,1.024,0.127,-0.305,1.28,0.061,444.903
121035,143988,9298,0.006,1.024,0.127,-0.305,1.28,0.061,444.906
121035,144000,11096,0.011,1.019,0.133,-0.427,0.976,0.488,444.913
121026,143988,9298,0.011,1.019,0.133,-0.427,0.976,0.488,444.916
121026,143976,11086,0.012,1.017,0.122,0.061,0.61,0.549,444.922
121032,143988,9298,0.012,1.017,0.122,0.061,0.61,0.549,444.926
121032,144001,11089,0.012,1.028,0.119,-0.671,0.671,0.366,444.932
121052,143988,9298,0.012,1.028,0.119,-0.671,0.671,0.366,444.936
121052,143996,11097,0.011,1.025,0.128,-1.159,0.732,0.305,444.942
121062,143988,9298,0.011,1.025,0.128,-1.159,0.732,0.305,444.946
121062,143982,11096,0.011,1.022,0.126,0.183,0.488,0,444.952
121034,143988,9298,0.011,1.022,0.126,0.183,0.488,0,444.956
121034,143970,11091,0.013,1.019,0.129,-0.061,-0.122,-0.122,444.962
121041,143988,9298,0.013,1.019,0.129,-0.061,-0.122,-0.122,444.966
121041,143978,11088,0.014,1.016,0.144,-0.305,-0.244,-0.061,444.972
121047,143988,9298,0.014,1.016,0.144,-0.305,-0.244,-0.061,444.976
121047,144000,11090,0.015,1.013,0.144,-0.061,-0.244,0.061,444.982
121040,143988,9298,0.012,1.014,0.141,-0.061,-0.244,0.061,444.986
121040,143984,11100,0.013,1.016,0.134,-0.732,0.061,0.183,444.992
121012,143988,9298,0.014,1.016,0.131,-0.732,0.061,0.183,444.995
121012,143962,11106,0.012,1.017,0.13,-0.305,0.549,0.488,445.002
121033,143988,9298,0.009,1.021,0.126,-0.305,0.549,0.488,445.005
121033,143978,11084,0.01,1.027,0.131,0.183,1.098,0.427,445.012
121042,143988,9298,0.011,1.025,0.133,0.183,1.098,0.427,445.015
121042,143968,11107,0.007,1.025,0.137,-0.061,0.915,0.305,445.021
121035,143988,9298,0.007,1.024,0.137,-0.061,0.915,0.305,445.025
121035,143986,11093,0.011,1.023,0.133,-0.244,0.183,0.183,445.031
121013,143988,9298,0.012,1.024,0.13,-0.244,0.183,0.183,445.035
121013,143968,11101,0.013,1.021,0.128,-0.793,-0.122,0.061,445.041
121034,143988,9298,0.012,1.017,0.129,-0.793,-0.122,0.061,445.045
121034,143951,11086,0.01,1.018,0.131,0.122,0.305,-0.183,445.051
121028,143988,9298,0.009,1.015,0.136,0.122,0.305,-0.183,445.055
121028,143978,11097,0.008,1.016,0.136,0.305,0.366,-0.061,445.061
121038,143988,9298,0.006,1.018,0.135,0.305,0.366,-0.061,445.065
121038,143964,11088,0.005,1.018,0.136,-0.061,0.305,0.122,445.071
121036,143988,9298,0.011,1.017,0.124,-0.061,0.305,0.122,445.075
121036,143975,11087,0.012,1.017,0.122,-0.366,0.244,0.366,445.081
121048,143988,9298,0.011,1.019,0.13,-0.366,0.244,0.366,445.085
121048,143984,11094,0.01,1.016,0.132,-0.061,0.366,0.488,445.091
121062,143988,9298,0.011,1.016,0.136,-0.061,0.366,0.488,445.094
121062,143978,11101,0.016,1.018,0.13,0.488,0.305,0.488,445.101
121049,143988,9298,0.016,1.019,0.121,0.488,0.305,0.488,445.104
121049,143998,11098,0.01,1.029,0.126,-0.732,0.366,0.427,445.111
121018,143988,9298,0.007,1.029,0.128,-0.732,0.366,0.427,445.114
121018,143989,11098,0.009,1.027,0.132,-0.793,0.305,0.305,445.12
121032,143988,9298,0.016,1.025,0.128,-0.793,0.305,0.305,445.124
121032,143960,11090,0.016,1.021,0.126,-0.671,-0.061,0.488,445.13
121009,143988,9298,0.014,1.018,0.134,-0.671,-0.061,0.488,445.134
121009,143997,11092,0.011,1.015,0.139,-0.427,-0.244,0.671,445.14
121041,143988,9298,0.013,1.016,0.139,-0.427,-0.244,0.671,445.144
121041,144013,11106,0.014,1.017,0.131,-0.427,-0.061,0.427,445.15
121027,143988,9298,0.014,1.018,0.123,-0.427,-0.061,0.427,445.154
121027,143947,11085,0.015,1.021,0.129,-0.793,0.366,0.244,445.16
121022,143988,9298,0.01,1.019,0.141,-0.793,0.366,0.244,445.164
121022,143953,11101,0.006,1.02,0.151,0.183,0.671,0.366,445.17
121022,143988,9298,0.01,1.026,0.148,0.183,0.671,0.366,445.174
121022,143954,11096,0.01,1.028,0.142,0.244,0.427,0.183,445.18
121040,143988,9298,0.01,1.028,0.136,0.244,0.427,0.183,445.184
121040,143969,11097,0.011,1.021,0.127,-0.793,0.122,0.122,445.19
121015,143988,9298,0.015,1.02,0.124,-0.793,0.122,0.122,445.193
