119960,143732,9298,-0.056,1.017,0.084,0.244,1.098,0.061,599.182
119960,143741,11019,-0.057,1.02,0.083,0.244,1.098,0.061,599.189
119976,143732,9298,-0.06,1.022,0.083,0.671,1.037,-0.183,599.192
119976,143733,11031,-0.061,1.027,0.083,0.671,1.037,-0.183,599.199
119961,143732,9298,-0.062,1.03,0.082,0.732,0.854,-0.244,599.202
119961,143738,11003,-0.065,1.031,0.089,0.732,0.854,-0.244,599.208
119985,143732,9298,-0.064,1.032,0.089,0.183,0.671,0,599.212
119985,143741,11020,-0.062,1.03,0.087,0.183,0.671,0,599.218
119969,143732,9298,-0.061,1.027,0.087,-0.854,0.366,0.427,599.222
119969,143722,11037,-0.059,1.022,0.089,-0.854,0.366,0.427,599.228
119956,143732,9298,-0.057,1.019,0.089,-0.854,0.122,0.732,599.232
119956,143743,11028,-0.057,1.019,0.093,-0.854,0.122,0.732,599.238
119968,143732,9298,-0.057,1.019,0.097,0.061,0.122,0.854,599.242
119968,143718,11028,-0.054,1.02,0.096,0.061,0.122,0.854,599.248
119969,143732,9298,-0.054,1.026,0.091,0.61,0.183,0.61,599.252
119969,143721,11032,-0.051,1.025,0.097,0.61,0.183,0.61,599.258
119971,143732,9298,-0.051,1.023,0.094,1.098,0.305,0.305,599.262
119971,143728,11025,-0.05,1.022,0.093,1.098,0.305,0.305,599.268
119962,143732,9298,-0.051,1.018,0.097,1.463,0.976,0.244,599.272
119962,143750,11032,-0.052,1.021,0.094,1.463,0.976,0.244,599.278
119990,143732,9298,-0.055,1.021,0.089,1.28,1.463,0.183,599.281
119990,143744,11031,-0.056,1.02,0.085,1.28,1.463,0.183,599.288
119986,143732,9298,-0.057,1.022,0.082,1.22,1.585,-0.183,599.291
119986,143750,11028,-0.061,1.023,0.08,1.22,1.585,-0.183,599.298
119985,143732,9298,-0.063,1.024,0.08,1.829,1.524,-0.183,599.301
119985,143746,11042,-0.064,1.027,0.079,1.829,1.524,-0.183,599.307
119985,143732,9298,-0.063,1.031,0.081,1.28,1.402,0.305,599.311
119985,143769,11029,-0.058,1.033,0.083,1.28,1.402,0.305,599.317
120001,143732,9298,-0.063,1.031,0.083,0.061,0.732,0.366,599.321
120001,143762,11027,-0.062,1.03,0.088,0.061,0.732,0.366,599.327
119989,143732,9298,-0.056,1.026,0.089,-0.915,0.183,0.305,599.331
119989,143755,11041,-0.058,1.024,0.087,-0.915,0.183,0.305,599.337
120017,143732,9298,-0.057,1.019,0.086,-1.037,-0.061,0.305,599.341
120017,143767,11025,-0.056,1.016,0.085,-1.037,-0.061,0.305,599.347
120023,143732,9298,-0.054,1.016,0.083,-0.427,0.061,0.305,599.351
120023,143759,11057,-0.056,1.019,0.082,-0.427,0.061,0.305,599.357
120017,143732,9298,-0.056,1.025,0.088,-0.183,0.366,0.366,599.361
120017,143766,11040,-0.059,1.026,0.09,-0.183,0.366,0.366,599.367
120010,143732,9298,-0.055,1.029,0.087,-0.061,0.488,0.244,599.371
120010,143761,11032,-0.058,1.03,0.09,-0.061,0.488,0.244,599.377
120000,143732,9298,-0.061,1.027,0.089,-0.305,0.549,0.244,599.381
120000,143788,11036,-0.06,1.026,0.091,-0.305,0.549,0.244,599.387
120010,143732,9298,-0.06,1.024,0.089,-0.976,0.671,0.488,599.39
120010,143751,11035,-0.06,1.024,0.085,-0.976,0.671,0.488,599.397
120019,143732,9298,-0.06,1.021,0.088,-1.28,0.488,0.61,599.4
120019,143750,11018,-0.059,1.018,0.086,-1.28,0.488,0.61,599.406
120017,143732,9298,-0.061,1.018,0.089,-0.427,0.244,0.61,599.41
120017,143773,11031,-0.059,1.017,0.087,-0.427,0.244,0.61,599.416
120026,143732,9298,-0.055,1.023,0.084,0.061,0,0.671,599.42
120026,143754,11020,-0.056,1.027,0.089,0.061,0,0.671,599.426
119992,143732,9298,-0.056,1.029,0.089,-0.671,-0.183,0.488,599.43
119992,143766,11026,-0.054,1.03,0.087,-0.671,-0.183,0.488,599.436
119990,143732,9298,-0.054,1.029,0.083,-0.732,-0.061,0.61,599.44
119990,143748,11032,-0.05,1.025,0.085,-0.732,-0.061,0.61,599.446
119988,143732,9298,-0.051,1.024,0.082,-1.22,0.183,0.732,599.45
119988,143746,11027,-0.055,1.025,0.091,-1.22,0.183,0.732,599.456
119985,143732,9298,-0.056,1.024,0.092,-2.378,0.305,0.793,599.46
119985,143760,11019,-0.058,1.021,0.095,-2.378,0.305,0.793,599.466
119969,143732,9298,-0.057,1.017,0.093,-2.317,0.366,0.61,599.47
119969,143740,11037,-0.057,1.014,0.09,-2.317,0.366,0.61,599.476
119998,143732,9298,-0.058,1.018,0.088,-1.707,0.366,0.366,599.479
119998,143723,11033,-0.063,1.021,0.088,-1.707,0.366,0.366,599.486
119961,143732,9298,-0.061,1.025,0.088,-1.159,0.549,0.366,599.489
119961,143759,11030,-0.058,1.029,0.087,-1.159,0.549,0.366,599.496
119976,143732,9298,-0.06,1.033,0.09,-0.244,0.488,0.61,599.499
119976,143735,11026,-0.057,1.032,0.092,-0.244,0.488,0.61,599.505
119969,143732,9298,-0.059,1.028,0.092,0.122,0.122,0.732,599.509
119969,143749,11013,-0.057,1.032,0.09,0.122,0.122,0.732,599.515
119965,143732,9298,-0.057,1.032,0.09,0.122,0.122,0.732,599.519
119965,143739,11017,-0.054,1.019,0.09,-0.122,-0.488,0.61,599.525
119978,143732,9298,-0.054,1.019,0.09,-0.122,-0.488,0.61,599.529
119978,143707,11020,-0.049,1.017,0.086,-0.244,-0.366,0.488,599.535
119971,143732,9298,-0.049,1.017,0.086,-0.244,-0.366,0.488,599.539
119971,143721,11025,-0.057,1.018,0.087,-0.488,0.122,0.366,599.545
119949,143732,9298,-0.057,1.018,0.087,-0.488,0.122,0.366,599.549
119949,143734,11023,-0.06,1.024,0.091,-0.854,0.427,0.183,599.555
119953,143732,9298,-0.06,1.024,0.091,-0.854,0.427,0.183,599.559
119953,143716,11013,-0.061,1.025,0.09,-0.976,0.183,0.305,599.565
119956,143732,9298,-0.061,1.025,0.09,-0.976,0.183,0.305,599.569
119956,143712,11024,-0.055,1.025,0.091,-0.915,-0.122,0.549,599.575
119952,143732,9298,-0.055,1.025,0.091,-0.915,-0.122,0.549,599.579
119952,143707,11012,-0.052,1.027,0.096,-1.159,-0.122,0.854,599.585
119936,143732,9298,-0.052,1.027,0.096,-1.159,-0.122,0.854,599.588
119936,143694,11027,-0.053,1.027,0.09,-1.22,0.122,0.488,599.595
119949,143732,9298,-0.053,1.027,0.09,-1.22,0.122,0.488,599.598
119949,143686,11012,-0.055,1.023,0.095,-0.61,0.488,0.183,599.604
119943,143732,9298,-0.055,1.023,0.095,-0.61,0.488,0.183,599.608
119943,143705,11025,-0.056,1.021,0.092,0.183,0.671,-0.061,599.614
119930,143732,9298,-0.056,1.021,0.092,0.183,0.671,-0.061,599.618
119930,143673,11028,-0.059,1.022,0.088,0.732,0.854,-0.122,599.624
119932,143732,9298,-0.059,1.022,0.088,0.732,0.854,-0.122,599.628
119932,143697,11017,-0.058,1.023,0.091,0.61,0.793,-0.061,599.634
119939,143732,9298,-0.058,1.023,0.091,0.61,0.793,-0.061,599.638
119939,143681,11024,-0.056,1.022,0.088,0.183,0.488,0.122,599.644
119944,143732,9298,-0.056,1.022,0.088,0.183,0.488,0.122,599.648
119944,143685,11036,-0.059,1.027,0.09,-0.244,0.427,0.244,599.654
119926,143732,9298,-0.059,1.027,0.09,-0.244,0.427,0.244,599.658
119926,143708,11029,-0.057,1.028,0.089,-0.854,0.366,0.305,599.664
119944,143732,9298,-0.055,1.027,0.088,-0.854,0.366,0.305,599.668
119944,143713,11015,-0.055,1.025,0.088,-0.793,0.366,0.122,599.674
119905,143732,9298,-0.054,1.029,0.089,-0.793,0.366,0.122,599.677
119905,143716,11024,-0.056,1.029,0.093,-0.793,0.488,0,599.684
119956,143732,9298,-0.06,1.025,0.091,-0.793,0.488,0,599.687
119956,143707,11005,-0.058,1.02,0.087,-0.671,0.549,0.122,599.694
119949,143732,9298,-0.058,1.018,0.087,-0.671,0.549,0.122,599.697
119949,143718,11025,-0.06,1.021,0.085,-0.244,0.488,0.061,599.703
119935,143732,9298,-0.059,1.023,0.084,-0.244,0.488,0.061,599.707
119935,143708,11012,-0.059,1.027,0.089,-0.732,0.244,0.183,599.713
119957,143732,9298,-0.06,1.029,0.093,-0.732,0.244,0.183,599.717
119957,143712,11011,-0.058,1.025,0.093,-1.098,-0.122,0.366,599.723
119930,143732,9298,-0.057,1.021,0.092,-1.098,-0.122,0.366,599.727
119930,143716,11029,-0.057,1.018,0.094,-0.915,-0.244,0.488,599.733
119934,143732,9298,-0.059,1.016,0.092,-0.915,-0.244,0.488,599.737
119934,143700,11027,-0.057,1.02,0.09,-1.037,0.122,0.732,599.743
119936,143732,9298,-0.056,1.024,0.086,-1.037,0.122,0.732,599.747
119936,143693,11028,-0.056,1.025,0.087,-1.402,0.122,0.671,599.753
119941,143732,9298,-0.057,1.021,0.088,-1.402,0.122,0.671,599.757
119941,143696,11011,-0.057,1.025,0.091,-0.793,0.122,0.549,599.763
119938,143732,9298,-0.06,1.025,0.092,-0.793,0.122,0.549,599.767
119938,143689,11029,-0.058,1.026,0.09,-0.183,0.122,0.793,599.773
119943,143732,9298,-0.058,1.026,0.091,-0.183,0.122,0.793,599.777
119943,143689,11023,-0.057,1.029,0.096,-0.793,-0.183,0.793,599.783
119942,143732,9298,-0.055,1.03,0.095,-0.793,-0.183,0.793,599.786
119942,143704,11018,-0.053,1.023,0.092,-0.732,-0.427,0.793,599.793
119925,143732,9298,-0.051,1.016,0.093,-0.732,-0.427,0.793,599.796
119925,143731,11004,-0.054,1.015,0.093,-0.061,-0.122,0.915,599.802
119950,143732,9298,-0.054,1.018,0.087,-0.061,-0.122,0.915,599.806
119950,143708,11010,-0.055,1.023,0.085,-0.732,0.183,0.854,599.812
119962,143732,9298,-0.057,1.03,0.085,-0.732,0.183,0.854,599.816
119962,143710,11023,-0.054,1.032,0.087,-1.585,0.183,0.366,599.822
119937,143732,9298,-0.055,1.031,0.09,-1.585,0.183,0.366,599.826
119937,143696,11015,-0.055,1.029,0.091,-0.976,0,0.183,599.832
119950,143732,9298,-0.057,1.026,0.09,-0.976,0,0.183,599.836
119950,143702,11016,-0.056,1.026,0.092,-1.037,-0.061,0.488,599.842
119953,143732,9298,-0.057,1.025,0.092,-1.037,-0.061,0.488,599.846
119953,143692,11003,-0.056,1.025,0.094,-2.134,-0.061,0.488,599.852
119954,143732,9298,-0.054,1.022,0.091,-2.134,-0.061,0.488,599.856
119954,143693,11021,-0.055,1.022,0.092,-1.585,0.183,0.305,599.862
119955,143732,9298,-0.056,1.021,0.096,-1.585,0.183,0.305,599.866
119955,143689,11008,-0.057,1.017,0.099,-0.793,0.366,0.183,599.872
119937,143732,9298,-0.054,1.017,0.098,-0.793,0.366,0.183,599.876
119937,143708,11015,-0.053,1.019,0.093,-0.427,0.244,0,599.882
119940,143732,9298,-0.055,1.02,0.091,-0.427,0.244,0,599.885
119940,143702,11014,-0.055,1.024,0.09,0.061,0.305,-0.122,599.892
119924,143732,9298,-0.055,1.025,0.089,0.061,0.305,-0.122,599.895
119924,143717,11001,-0.057,1.027,0.093,-0.122,0.427,-0.305,599.901
119937,143732,9298,-0.056,1.03,0.094,-0.122,0.427,-0.305,599.905
119937,143712,11009,-0.057,1.032,0.094,-0.732,0.488,0,599.911
119954,143732,9298,-0.059,1.025,0.095,-0.732,0.488,0,599.915
119954,143721,11011,-0.061,1.021,0.095,-0.976,0.305,0.366,599.921
119949,143732,9298,-0.063,1.017,0.091,-0.976,0.305,0.366,599.925
119949,143719,11011,-0.062,1.016,0.092,-1.402,0.122,0.549,599.931
119941,143732,9298,-0.057,1.021,0.092,-1.402,0.122,0.549,599.935
119941,143709,11016,-0.057,1.02,0.092,-1.585,-0.183,0.488,599.941
119939,143732,9298,-0.058,1.021,0.096,-1.585,-0.183,0.488,599.945
119939,143698,11010,-0.056,1.02,0.101,-0.61,-0.122,0.427,599.951
119945,143732,9298,-0.051,1.022,0.101,-0.61,-0.122,0.427,599.955
119945,143702,11022,-0.052,1.024,0.1,0.732,0.244,0.488,599.961
119943,143732,9298,-0.05,1.023,0.098,0.732,0.244,0.488,599.965
119943,143698,11014,-0.051,1.024,0.093,1.037,0.549,0.427,599.971
119948,143732,9298,-0.052,1.022,0.089,1.037,0.549,0.427,599.975
119948,143700,10993,-0.052,1.023,0.087,0.854,1.22,0.305,599.981
119942,143732,9298,-0.057,1.021,0.089,0.854,1.22,0.305,599.984
119942,143719,11015,-0.062,1.02,0.092,0.244,1.159,0.183,599.991
119962,143732,9298,-0.063,1.028,0.089,0.244,1.159,0.183,599.994
119962,143714,11012,-0.061,1.029,0.087,-0.793,0.732,0.244,600
119954,143732,9298,-0.059,1.03,0.089,-0.793,0.732,0.244,600.004
119954,143717,11005,-0.062,1.03,0.09,-1.341,0.244,0.488,600.01
119942,143732,9298,-0.058,1.03,0.086,-1.341,0.244,0.488,600.014
119942,143723,10997,-0.057,1.029,0.09,-1.463,-0.244,0.732,600.02
119953,143732,9298,-0.056,1.031,0.097,-1.463,-0.244,0.732,600.024
119953,143710,11006,-0.055,1.027,0.099,-1.463,-0.427,0.732,600.03
119942,143732,9298,-0.055,1.019,0.097,-1.463,-0.427,0.732,600.034
119942,143719,10996,-0.054,1.017,0.095,-0.732,-0.061,0.427,600.04
119957,143732,9298,-0.053,1.018,0.098,-0.732,-0.061,0.427,600.044
119957,143715,11001,-0.056,1.021,0.093,-0.183,0.61,0.366,600.05
119961,143732,9298,-0.057,1.022,0.093,-0.183,0.61,0.366,600.054
119961,143692,11011,-0.055,1.022,0.095,0.122,0.732,0.122,600.06
119960,143732,9298,-0.057,1.019,0.097,0.122,0.732,0.122,600.064
119960,143696,11009,-0.057,1.022,0.097,0.915,0.549,0,600.07
119960,143732,9298,-0.054,1.018,0.093,0.915,0.549,0,600.074
119960,143700,11026,-0.054,1.019,0.092,0.915,0.305,0.244,600.08
119993,143732,9298,-0.054,1.021,0.094,0.915,0.305,0.244,600.083
119993,143729,11012,-0.056,1.021,0.094,0.244,0.366,0.366,600.09
119981,143732,9298,-0.056,1.024,0.093,0.244,0.366,0.366,600.093
119981,143751,11033,-0.056,1.025,0.09,-0.122,0.488,0.183,600.099
120001,143732,9298,-0.056,1.025,0.09,-0.122,0.488,0.183,600.103
120001,143732,11014,-0.056,1.03,0.087,-0.305,0.488,0.183,600.109
119993,143732,9298,-0.056,1.03,0.087,-0.305,0.488,0.183,600.113
119993,143727,11016,-0.055,1.035,0.094,-1.098,0.244,0.122,600.119
119999,143732,9298,-0.055,1.035,0.094,-1.098,0.244,0.122,600.123
119999,143736,11020,-0.052,1.024,0.097,-0.732,0,0.061,600.129
120001,143732,9298,-0.052,1.024,0.097,-0.732,0,0.061,600.133
120001,143758,10999,-0.051,1.021,0.096,-0.061,0.366,0.061,600.139
120004,143732,9298,-0.051,1.021,0.096,-0.061,0.366,0.061,600.143
120004,143752,11011,-0.053,1.016,0.099,0.061,0.854,-0.244,600.149
119994,143732,9298,-0.053,1.016,0.099,0.061,0.854,-0.244,600.153
119994,143751,11013,-0.054,1.017,0.099,0.61,1.22,-0.366,600.159
120018,143732,9298,-0.054,1.017,0.099,0.61,1.22,-0.366,600.163
120018,143769,11016,-0.058,1.018,0.095,1.646,1.402,-0.244,600.169
120016,143732,9298,-0.058,1.018,0.095,1.646,1.402,-0.244,600.173
120016,143740,11019,-0.061,1.025,0.095,1.28,1.037,-0.305,600.179
120022,143732,9298,-0.061,1.025,0.095,1.28,1.037,-0.305,600.182
120022,143776,11017,-0.059,1.03,0.095,0.61,0.854,-0.122,600.189
120024,143732,9298,-0.059,1.03,0.095,0.61,0.854,-0.122,600.192
120024,143752,11016,-0.059,1.03,0.094,0.793,0.549,0.061,600.198
120039,143732,9298,-0.059,1.03,0.094,0.793,0.549,0.061,600.202
120039,143758,11023,-0.059,1.023,0.091,0.61,0.732,0.122,600.208
120020,143732,9298,-0.059,1.023,0.091,0.61,0.732,0.122,600.212
120020,143747,10999,-0.061,1.024,0.088,0.183,1.159,0.305,600.218
120004,143732,9298,-0.061,1.024,0.088,0.183,1.159,0.305,600.222
120004,143766,11011,-0.062,1.026,0.086,0.061,1.037,0.183,600.228
120031,143732,9298,-0.062,1.026,0.086,0.061,1.037,0.183,600.232
120031,143742,11010,-0.065,1.023,0.093,0.488,0.488,0.305,600.238
120015,143732,9298,-0.065,1.023,0.093,0.488,0.488,0.305,600.242
120015,143761,11011,-0.059,1.023,0.096,0.488,0.488,0.305,600.248
120020,143732,9298,-0.054,1.02,0.093,1.098,-0.122,0.366,600.252
120020,143764,11006,-0.049,1.019,0.094,1.098,-0.122,0.366,600.258
120016,143732,9298,-0.052,1.021,0.092,1.28,-0.122,0.305,600.262
120016,143768,11003,-0.055,1.022,0.092,1.28,-0.122,0.305,600.268
120027,143732,9298,-0.052,1.024,0.094,0.915,0.549,0,600.272
120027,143763,11015,-0.056,1.026,0.093,0.915,0.549,0,600.278
120014,143732,9298,-0.059,1.02,0.091,0.61,1.098,-0.122,600.281
120014,143773,11030,-0.064,1.019,0.091,0.61,1.098,-0.122,600.288
120013,143732,9298,-0.063,1.022,0.089,0.366,1.037,0.061,600.291
120013,143741,11002,-0.06,1.022,0.087,0.366,1.037,0.061,600.297
120039,143732,9298,-0.061,1.021,0.086,-0.244,0.732,0.183,600.301
120039,143764,11016,-0.059,1.027,0.088,-0.244,0.732,0.183,600.307
120012,143732,9298,-0.059,1.029,0.087,-1.037,0.305,0.305,600.311
120012,143751,11028,-0.059,1.029,0.083,-1.037,0.305,0.305,600.317
120031,143732,9298,-0.058,1.027,0.088,-0.732,0.122,0.244,600.321
120031,143753,11017,-0.059,1.026,0.087,-0.732,0.122,0.244,600.327
120034,143732,9298,-0.061,1.027,0.084,-0.915,0.244,0.244,600.331
120034,143773,11011,-0.061,1.03,0.084,-0.915,0.244,0.244,600.337
120048,143732,9298,-0.062,1.032,0.087,-1.89,0,0.427,600.341
120048,143779,11020,-0.061,1.03,0.088,-1.89,0,0.427,600.347
120037,143732,9298,-0.058,1.031,0.09,-2.012,-0.488,0.366,600.351
120037,143758,11024,-0.059,1.03,0.096,-2.012,-0.488,0.366,600.357
120042,143732,9298,-0.058,1.027,0.103,-1.951,-0.793,0.305,600.361
120042,143760,11018,-0.059,1.02,0.099,-1.951,-0.793,0.305,600.367
120031,143732,9298,-0.058,1.015,0.096,-2.317,-0.671,0.488,600.371
120031,143756,11036,-0.056,1.015,0.095,-2.317,-0.671,0.488,600.377
120044,143732,9298,-0.062,1.011,0.097,-2.195,-0.244,0.793,600.38
120044,143770,11016,-0.059,1.014,0.094,-2.195,-0.244,0.793,600.387
120017,143732,9298,-0.06,1.019,0.092,-1.28,0,0.854,600.39
120017,143788,11036,-0.06,1.018,0.093,-1.28,0,0.854,600.397
120040,143732,9298,-0.056,1.023,0.095,-0.793,-0.427,0.61,600.4
120040,143753,11019,-0.056,1.025,0.096,-0.793,-0.427,0.61,600.406
120031,143732,9298,-0.053,1.029,0.096,-0.549,-0.671,0.671,600.41
120031,143782,11022,-0.051,1.03,0.097,-0.549,-0.671,0.671,600.416
120046,143732,9298,-0.052,1.029,0.097,-1.098,-0.305,0.793,600.42
120046,143774,11017,-0.054,1.024,0.095,-1.098,-0.305,0.793,600.426
120037,143732,9298,-0.058,1.021,0.096,-1.28,0.305,0.854,600.43
120037,143793,11007,-0.059,1.02,0.099,-1.28,0.305,0.854,600.436
120035,143732,9298,-0.057,1.021,0.099,-1.159,0.427,0.854,600.44
120035,143770,11027,-0.056,1.019,0.1,-1.159,0.427,0.854,600.446
120045,143732,9298,-0.057,1.019,0.097,-0.549,0.122,0.671,600.45
120045,143787,11006,-0.056,1.025,0.092,-0.549,0.122,0.671,600.456
120033,143732,9298,-0.056,1.025,0.094,0.183,0.122,0.61,600.46
120033,143778,11020,-0.054,1.026,0.094,0.183,0.122,0.61,600.466
120009,143732,9298,-0.056,1.026,0.1,0.061,0.183,0.61,600.47
120009,143749,11020,-0.055,1.024,0.1,0.061,0.183,0.61,600.476
120035,143732,9298,-0.055,1.021,0.094,-0.061,0.305,0.549,600.479
120035,143750,11007,-0.056,1.022,0.098,-0.061,0.305,0.549,600.486
120025,143732,9298,-0.058,1.02,0.099,-0.305,0.549,0.366,600.489
120025,143760,11024,-0.055,1.017,0.099,-0.305,0.549,0.366,600.495
120020,143732,9298,-0.056,1.021,0.097,0.305,0.549,0.427,600.499
120020,143746,11018,-0.054,1.024,0.096,0.305,0.549,0.427,600.505
120014,143732,9298,-0.052,1.025,0.093,1.098,0.427,0.305,600.509
120014,143756,11011,-0.053,1.025,0.093,1.098,0.427,0.305,600.515
120005,143732,9298,-0.055,1.025,0.087,1.098,0.732,0.122,600.519
120005,143759,11004,-0.056,1.023,0.085,1.098,0.732,0.122,600.525
119977,143732,9298,-0.059,1.028,0.086,0.427,0.976,0.061,600.529
119977,143738,11004,-0.061,1.028,0.087,0.427,0.976,0.061,600.535
120006,143732,9298,-0.064,1.03,0.089,-0.488,0.793,0.061,600.539
120006,143725,11001,-0.063,1.029,0.092,-0.488,0.793,0.061,600.545
120003,143732,9298,-0.061,1.027,0.094,-0.976,0.244,0.305,600.549
120003,143754,11007,-0.058,1.024,0.095,-0.976,0.244,0.305,600.555
119984,143732,9298,-0.059,1.023,0.094,-1.22,-0.183,0.61,600.559
119984,143740,11007,-0.057,1.022,0.097,-1.22,-0.183,0.61,600.565
120002,143732,9298,-0.055,1.02,0.099,-1.037,-0.183,0.61,600.569
120002,143744,11011,-0.054,1.021,0.097,-1.037,-0.183,0.61,600.575
119992,143732,9298,-0.053,1.02,0.1,-0.61,-0.061,0.366,600.578
119992,143732,11008,-0.053,1.019,0.101,-0.61,-0.061,0.366,600.585
119995,143732,9298,-0.048,1.013,0.101,0.793,0.305,0.244,600.588
119995,143756,11007,-0.051,1.01,0.095,0.793,0.305,0.244,600.595
119976,143732,9298,-0.057,1.016,0.092,1.585,0.976,0.305,600.598
119976,143723,11004,-0.056,1.025,0.095,1.585,0.976,0.305,600.604
119997,143732,9298,-0.057,1.031,0.096,1.037,1.341,0.244,600.608
119997,143748,10999,-0.057,1.032,0.091,1.037,1.341,0.244,600.614
119995,143732,9298,-0.059,1.029,0.091,1.037,1.098,0.122,600.618
119995,143783,10993,-0.061,1.026,0.09,1.037,1.098,0.122,600.624
120008,143732,9298,-0.061,1.027,0.088,0.793,0.854,0.122,600.628
120008,143766,11008,-0.061,1.03,0.087,0.793,0.854,0.122,600.634
120009,143732,9298,-0.061,1.028,0.088,-0.549,0.732,0.366,600.638
120009,143787,10996,-0.063,1.024,0.088,-0.549,0.732,0.366,600.644
120014,143732,9298,-0.059,1.021,0.09,-0.366,0.366,0.305,600.648
120014,143757,11005,-0.059,1.023,0.09,-0.366,0.366,0.305,600.654
120018,143732,9298,-0.057,1.024,0.091,0.366,0.061,0.366,600.658
120018,143765,11012,-0.059,1.026,0.09,0.366,0.061,0.366,600.664
120041,143732,9298,-0.057,1.026,0.093,-0.488,0.061,0.427,600.668
120041,143779,10995,-0.057,1.026,0.093,-0.488,0.061,0.427,600.674
120019,143732,9298,-0.057,1.023,0.094,-0.732,-0.061,0.305,600.677
120019,143795,11002,-0.053,1.018,0.097,-0.732,-0.061,0.305,600.684
120036,143732,9298,-0.055,1.017,0.094,0.305,0.183,0.244,600.687
120036,143791,11007,-0.054,1.017,0.09,0.305,0.183,0.244,600.693
120040,143732,9298,-0.054,1.017,0.09,0.305,0.183,0.244,600.697
120040,143758,10998,-0.058,1.023,0.094,0.366,0.61,0.122,600.703
120017,143732,9298,-0.058,1.023,0.094,0.366,0.61,0.122,600.707
120017,143786,11001,-0.06,1.029,0.092,-0.305,0.854,0.183,600.713
120018,143732,9298,-0.06,1.029,0.092,-0.305,0.854,0.183,600.717
120018,143772,11009,-0.057,1.023,0.091,-0.244,0.732,0.244,600.723
120038,143732,9298,-0.057,1.023,0.091,-0.244,0.732,0.244,600.727
120038,143766,11008,-0.061,1.025,0.095,-0.061,0.549,0.305,600.733
120032,143732,9298,-0.061,1.025,0.095,-0.061,0.549,0.305,600.737
120032,143794,10995,-0.059,1.026,0.096,-0.488,0.488,0.549,600.743
120031,143732,9298,-0.059,1.026,0.096,-0.488,0.488,0.549,600.747
120031,143772,10996,-0.058,1.021,0.093,-0.732,0.305,0.488,600.753
120038,143732,9298,-0.058,1.021,0.093,-0.732,0.305,0.488,600.757
120038,143762,11000,-0.058,1.024,0.092,0.427,0.305,0.366,600.763
120027,143732,9298,-0.058,1.024,0.092,0.427,0.305,0.366,600.767
120027,143764,10998,-0.056,1.026,0.086,0.671,0.305,0.366,600.773
120016,143732,9298,-0.056,1.026,0.086,0.671,0.305,0.366,600.776
120016,143763,10994,-0.058,1.03,0.089,-0.305,0.244,0.366,600.783
120014,143732,9298,-0.058,1.03,0.089,-0.305,0.244,0.366,600.786
120014,143770,11004,-0.056,1.027,0.094,-0.61,-0.061,0.366,600.792
120028,143732,9298,-0.056,1.027,0.094,-0.61,-0.061,0.366,600.796
120028,143770,10985,-0.056,1.025,0.095,-0.915,-0.366,0.244,600.802
120006,143732,9298,-0.056,1.025,0.095,-0.915,-0.366,0.244,600.806
120006,143765,11019,-0.053,1.019,0.09,-1.646,-0.427,0.183,600.812
120019,143732,9298,-0.053,1.019,0.09,-1.646,-0.427,0.183,600.816
120019,143763,11004,-0.053,1.019,0.092,-1.585,-0.122,0.366,600.822
120012,143732,9298,-0.053,1.019,0.092,-1.585,-0.122,0.366,600.826
120012,143764,10998,-0.054,1.021,0.094,-1.22,0.122,0.244,600.832
120017,143732,9298,-0.054,1.021,0.094,-1.22,0.122,0.244,600.836
120017,143735,10996,-0.052,1.021,0.094,-0.976,0.305,-0.183,600.842
120014,143732,9298,-0.056,1.023,0.095,-0.976,0.305,-0.183,600.846
120014,143789,10995,-0.059,1.023,0.099,-1.159,0.427,-0.122,600.852
119999,143732,9298,-0.06,1.026,0.1,-1.159,0.427,-0.122,600.856
119999,143740,11005,-0.061,1.026,0.095,-1.22,0.61,0,600.862
120003,143732,9298,-0.061,1.022,0.099,-1.22,0.61,0,600.866
120003,143772,10996,-0.063,1.026,0.098,-0.915,0.549,0.061,600.872
119996,143732,9298,-0.059,1.026,0.1,-0.915,0.549,0.061,600.875
119996,143762,10992,-0.058,1.023,0.1,-0.61,0.549,0.488,600.882
120001,143732,9298,-0.06,1.023,0.098,-0.61,0.549,0.488,600.885
120001,143756,11012,-0.057,1.022,0.098,0.061,0.366,0.61,600.891
120010,143732,9298,-0.055,1.02,0.098,0.061,0.366,0.61,600.895
120010,143727,10988,-0.054,1.018,0.097,0.854,0.366,0.671,600.901
119987,143732,9298,-0.056,1.019,0.093,0.854,0.366,0.671,600.905
119987,143749,10988,-0.056,1.021,0.094,1.098,0.732,0.488,600.911
119986,143732,9298,-0.057,1.027,0.096,1.098,0.732,0.488,600.915
119986,143725,11003,-0.056,1.025,0.094,0.732,0.732,0.061,600.921
119979,143732,9298,-0.056,1.021,0.094,0.732,0.732,0.061,600.925
119979,143739,10996,-0.058,1.023,0.092,1.037,0.915,0.122,600.931
119999,143732,9298,-0.059,1.022,0.091,1.037,0.915,0.122,600.935
119999,143738,10995,-0.057,1.022,0.093,0.732,0.671,0.244,600.941
119996,143732,9298,-0.059,1.023,0.094,0.732,0.671,0.244,600.945
119996,143723,11012,-0.058,1.025,0.095,0.549,0.427,0.122,600.951
120012,143732,9298,-0.055,1.028,0.093,0.549,0.427,0.122,600.955
120012,143750,10993,-0.055,1.026,0.092,0.61,0.244,0,600.961
119991,143732,9298,-0.053,1.023,0.094,0.61,0.244,0,600.965
119991,143743,11001,-0.056,1.023,0.092,0.793,0.427,0,600.971
120009,143732,9298,-0.054,1.027,0.095,0.793,0.427,0,600.974
120009,143744,11001,-0.056,1.03,0.093,0.183,0.793,0,600.981
119990,143732,9298,-0.057,1.024,0.096,0.183,0.793,0,600.984
119990,143763,10998,-0.058,1.022,0.093,-0.183,0.854,-0.244,600.99
120002,143732,9298,-0.056,1.025,0.089,-0.183,0.854,-0.244,600.994
120002,143743,10986,-0.053,1.019,0.092,0.244,0.915,-0.427,601
120000,143732,9298,-0.059,1.02,0.092,0.244,0.915,-0.427,601.004
120000,143754,10990,-0.061,1.023,0.088,0.305,0.915,-0.427,601.01
119982,143732,9298,-0.059,1.024,0.094,0.305,0.915,-0.427,601.014
119982,143772,11008,-0.058,1.028,0.099,0.061,0.915,-0.488,601.02
120001,143732,9298,-0.057,1.028,0.094,0.061,0.915,-0.488,601.024
120001,143743,10990,-0.057,1.027,0.101,0,0.488,-0.854,601.03
120003,143732,9298,-0.057,1.025,0.1,0,0.488,-0.854,601.034
120003,143759,11001,-0.056,1.026,0.097,0.549,0.488,-1.098,601.04
120016,143732,9298,-0.058,1.026,0.092,0.549,0.488,-1.098,601.044
120016,143769,10996,-0.061,1.026,0.086,1.037,0.915,-1.037,601.05
120017,143732,9298,-0.061,1.027,0.086,1.037,0.915,-1.037,601.054
120017,143761,11003,-0.064,1.026,0.084,0.793,1.463,-0.854,601.06
120030,143732,9298,-0.068,1.027,0.082,0.793,1.463,-0.854,601.064
120030,143809,11003,-0.072,1.026,0.087,-0.122,1.159,-0.427,601.07
120038,143732,9298,-0.067,1.025,0.087,-0.122,1.159,-0.427,601.073
120038,143777,11007,-0.062,1.022,0.088,-0.976,0.366,-0.122,601.08
120026,143732,9298,-0.063,1.016,0.089,-0.976,0.366,-0.122,601.083
120026,143787,10996,-0.063,1.015,0.088,-1.463,-0.183,0.244,601.089
120027,143732,9298,-0.061,1.014,0.09,-1.463,-0.183,0.244,601.093
120027,143797,10989,-0.062,1.014,0.084,-1.951,-0.183,0.549,601.099
120036,143732,9298,-0.061,1.019,0.09,-1.951,-0.183,0.549,601.103
120036,143792,10998,-0.062,1.025,0.096,-2.012,-0.061,0.854,601.109
120055,143732,9298,-0.063,1.028,0.093,-2.012,-0.061,0.854,601.113
120055,143803,10988,-0.062,1.028,0.095,-1.768,-0.244,0.793,601.119
120027,143732,9298,-0.06,1.028,0.094,-1.768,-0.244,0.793,601.123
120027,143781,10998,-0.059,1.029,0.098,-1.524,-0.488,0.671,601.129
120053,143732,9298,-0.057,1.03,0.096,-1.524,-0.488,0.671,601.133
120053,143782,10990,-0.057,1.029,0.099,-0.854,-0.183,0.732,601.139
120036,143732,9298,-0.059,1.029,0.1,-0.854,-0.183,0.732,601.143
120036,143808,11002,-0.058,1.024,0.1,-0.122,0.244,0.854,601.149
120048,143732,9298,-0.059,1.015,0.099,-0.122,0.244,0.854,601.153
120048,143803,10997,-0.059,1.015,0.099,0.671,0.305,0.854,601.159
120060,143732,9298,-0.06,1.013,0.097,0.671,0.305,0.854,601.163
120060,143784,11003,-0.058,1.017,0.091,0.732,0.183,0.732,601.169
120062,143732,9298,-0.059,1.018,0.089,0.732,0.183,0.732,601.172
120062,143805,11006,-0.056,1.023,0.089,0.366,0.061,0.488,601.179
120038,143732,9298,-0.055,1.021,0.095,0.366,0.061,0.488,601.182
120038,143796,10993,-0.057,1.023,0.097,0.61,-0.122,0.366,601.188
120062,143732,9298,-0.054,1.023,0.094,0.61,-0.122,0.366,601.192
120062,143784,11011,-0.057,1.022,0.091,0.366,0.122,0.549,601.198
120043,143732,9298,-0.056,1.025,0.091,0.366,0.122,0.549,601.202
120043,143780,10991,-0.058,1.024,0.092,-0.427,0.488,0.671,601.208
120034,143732,9298,-0.061,1.024,0.092,-0.427,0.488,0.671,601.212
120034,143792,10994,-0.061,1.023,0.09,-0.488,0.61,0.61,601.218
120045,143732,9298,-0.061,1.023,0.091,-0.488,0.61,0.61,601.222
120045,143769,10999,-0.06,1.028,0.093,-0.366,0.488,0.732,601.228
120022,143732,9298,-0.059,1.029,0.092,-0.366,0.488,0.732,601.232
120022,143780,10991,-0.059,1.025,0.097,-0.671,0.061,0.61,601.238
120015,143732,9298,-0.057,1.024,0.099,-0.671,0.061,0.61,601.242
120015,143779,11001,-0.057,1.024,0.088,0.061,0,0.488,601.248
120015,143732,9298,-0.058,1.024,0.091,0.061,0,0.488,601.252
120015,143788,10987,-0.061,1.027,0.091,0.366,0.122,0.427,601.258
120028,143732,9298,-0.062,1.033,0.096,0.366,0.122,0.427,601.262
120028,143778,10993,-0.057,1.031,0.098,-0.366,0.183,0.305,601.268
120012,143732,9298,-0.056,1.025,0.099,-0.366,0.183,0.305,601.271
120012,143768,11008,-0.058,1.022,0.095,-0.305,0.122,0.244,601.278
120053,143732,9298,-0.058,1.022,0.095,-0.305,0.122,0.244,601.281
120053,143795,10986,-0.057,1.017,0.094,-0.244,0.366,0.366,601.288
120027,143732,9298,-0.057,1.017,0.094,-0.244,0.366,0.366,601.291
120027,143820,10994,-0.057,1.02,0.091,-0.488,0.61,0.427,601.297
119997,143732,9298,-0.057,1.02,0.091,-0.488,0.61,0.427,601.301
119997,143780,10992,-0.058,1.024,0.094,-0.427,0.61,0.305,601.307
120034,143732,9298,-0.058,1.024,0.094,-0.427,0.61,0.305,601.311
120034,143786,10971,-0.06,1.025,0.099,-0.122,0.366,0.183,601.317
120026,143732,9298,-0.06,1.025,0.099,-0.122,0.366,0.183,601.321
120026,143785,10991,-0.056,1.027,0.099,0.061,0.183,0.183,601.327
120050,143732,9298,-0.056,1.027,0.099,0.061,0.183,0.183,601.331
120050,143799,10987,-0.056,1.026,0.093,0.244,0.488,0.061,601.337
120066,143732,9298,-0.056,1.026,0.093,0.244,0.488,0.061,601.341
120066,143818,10981,-0.056,1.028,0.093,0.854,0.854,-0.183,601.347
120070,143732,9298,-0.056,1.028,0.093,0.854,0.854,-0.183,601.351
120070,143831,10994,-0.06,1.026,0.093,1.402,1.037,-0.427,601.357
120084,143732,9298,-0.06,1.026,0.093,1.402,1.037,-0.427,601.361
120084,143805,10985,-0.057,1.022,0.091,1.463,1.098,-0.366,601.367
120072,143732,9298,-0.057,1.022,0.091,1.463,1.098,-0.366,601.37
120072,143838,10996,-0.065,1.02,0.088,0.915,1.098,-0.305,601.377
120085,143732,9298,-0.065,1.02,0.088,0.915,1.098,-0.305,601.38
120085,143845,10995,-0.064,1.021,0.09,0.488,1.098,-0.305,601.386
120094,143732,9298,-0.064,1.021,0.09,0.488,1.098,-0.305,601.39
120094,143828,10996,-0.065,1.022,0.088,0.305,0.793,0,601.396
120095,143732,9298,-0.065,1.022,0.088,0.305,0.793,0,601.4
120095,143841,11003,-0.065,1.023,0.089,0,0.244,0.366,601.406
120095,143732,9298,-0.065,1.023,0.089,0,0.244,0.366,601.41
120095,143854,10993,-0.061,1.021,0.094,-0.061,-0.061,0.732,601.416
120085,143732,9298,-0.061,1.021,0.094,-0.061,-0.061,0.732,601.42
120085,143851,10994,-0.058,1.025,0.093,-0.061,-0.061,0.732,601.426
120075,143732,9298,-0.054,1.023,0.095,0,0,0.732,601.43
120075,143863,11015,-0.054,1.021,0.092,0,0,0.732,601.436
120098,143732,9298,-0.054,1.021,0.096,0.366,0.366,0.671,601.44
120098,143848,10989,-0.059,1.021,0.092,0.366,0.366,0.671,601.446
120105,143732,9298,-0.059,1.021,0.092,0.671,0.793,0.366,601.45
120105,143847,10993,-0.062,1.022,0.09,0.671,0.793,0.366,601.456
120087,143732,9298,-0.064,1.029,0.086,0.244,0.915,-0.122,601.459
120087,143839,10977,-0.064,1.031,0.088,0.244,0.915,-0.122,601.466
120094,143732,9298,-0.063,1.031,0.089,-0.366,0.671,-0.122,601.469
120094,143854,10980,-0.062,1.026,0.092,-0.366,0.671,-0.122,601.476
120079,143732,9298,-0.062,1.019,0.089,-0.122,0.244,0.366,601.479
120079,143815,10992,-0.061,1.018,0.09,-0.122,0.244,0.366,601.485
120072,143732,9298,-0.063,1.022,0.089,-0.549,0,0.549,601.489
120072,143838,10992,-0.059,1.026,0.086,-0.549,0,0.549,601.495
120081,143732,9298,-0.057,1.025,0.095,-1.768,-0.366,0.366,601.499
120081,143843,10983,-0.06,1.023,0.098,-1.768,-0.366,0.366,601.505
120067,143732,9298,-0.056,1.018,0.092,-1.585,-0.427,0.305,601.509
120067,143841,10989,-0.056,1.016,0.096,-1.585,-0.427,0.305,601.515
120067,143732,9298,-0.059,1.018,0.095,-1.098,-0.122,0.549,601.519
120067,143813,10979,-0.06,1.023,0.093,-1.098,-0.122,0.549,601.525
120074,143732,9298,-0.059,1.025,0.093,-1.098,0.122,0.549,601.529
120074,143828,10996,-0.06,1.029,0.095,-1.098,0.122,0.549,601.535
120058,143732,9298,-0.058,1.028,0.098,-0.854,0,0.366,601.539
120058,143811,10993,-0.059,1.027,0.096,-0.854,0,0.366,601.545
120081,143732,9298,-0.058,1.025,0.095,-0.61,0,0.244,601.549
120081,143822,10998,-0.056,1.022,0.095,-0.61,0,0.244,601.555
120072,143732,9298,-0.059,1.02,0.097,-0.549,0.549,0.488,601.559
120072,143817,10982,-0.067,1.016,0.095,-0.549,0.549,0.488,601.565
120066,143732,9298,-0.067,1.019,0.093,-0.427,0.854,0.671,601.568
120066,143803,10999,-0.063,1.024,0.091,-0.427,0.854,0.671,601.575
120065,143732,9298,-0.064,1.026,0.09,-0.244,0.488,0.366,601.578
120065,143849,11003,-0.063,1.028,0.087,-0.244,0.488,0.366,601.584
120059,143732,9298,-0.064,1.031,0.084,-0.122,0.061,0.427,601.588
120059,143812,10991,-0.06,1.026,0.088,-0.122,0.061,0.427,601.594
120074,143732,9298,-0.062,1.025,0.093,-0.549,0,0.793,601.598
120074,143819,10977,-0.059,1.023,0.093,-0.549,0,0.793,601.604
120052,143732,9298,-0.055,1.02,0.095,-1.159,-0.244,0.793,601.608
120052,143820,11002,-0.056,1.019,0.089,-1.159,-0.244,0.793,601.614
120061,143732,9298,-0.055,1.017,0.09,-1.037,-0.183,0.61,601.618
120061,143844,10986,-0.054,1.02,0.095,-1.037,-0.183,0.61,601.624
120056,143732,9298,-0.055,1.024,0.097,-0.61,-0.061,0.305,601.628
120056,143823,11000,-0.054,1.026,0.097,-0.61,-0.061,0.305,601.634
120054,143732,9298,-0.056,1.024,0.092,-0.732,0,-0.061,601.638
120054,143850,11001,-0.054,1.027,0.093,-0.732,0,-0.061,601.644
120063,143732,9298,-0.056,1.026,0.097,-0.61,0.671,-0.122,601.648
120063,143824,10980,-0.058,1.023,0.098,-0.61,0.671,-0.122,601.654
120062,143732,9298,-0.056,1.021,0.102,-0.488,0.732,-0.183,601.658
120062,143840,10998,-0.055,1.019,0.099,-0.488,0.732,-0.183,601.664
120062,143732,9298,-0.053,1.016,0.098,0,0.793,-0.366,601.667
120062,143840,10983,-0.061,1.018,0.097,0,0.793,-0.366,601.674
120088,143732,9298,-0.064,1.021,0.094,0.549,1.159,-0.244,601.677
120088,143846,10988,-0.062,1.024,0.095,0.549,1.159,-0.244,601.683
120071,143732,9298,-0.064,1.026,0.091,0.427,1.22,-0.183,601.687
120071,143853,10997,-0.062,1.026,0.088,0.427,1.22,-0.183,601.693
120075,143732,9298,-0.063,1.028,0.089,0.244,0.793,-0.061,601.697
120075,143847,10979,-0.057,1.025,0.089,0.244,0.793,-0.061,601.703
120071,143732,9298,-0.059,1.025,0.091,0,0.427,-0.061,601.707
120071,143835,10984,-0.055,1.024,0.094,0,0.427,-0.061,601.713
120056,143732,9298,-0.057,1.023,0.092,-0.549,0.366,-0.183,601.717
120056,143840,10981,-0.06,1.021,0.095,-0.549,0.366,-0.183,601.723
120069,143732,9298,-0.063,1.023,0.094,-0.305,0.61,-0.305,601.727
120069,143846,10994,-0.063,1.025,0.091,-0.305,0.61,-0.305,601.733
120064,143732,9298,-0.068,1.03,0.092,-0.122,0.793,-0.427,601.737
120064,143839,10993,-0.063,1.031,0.093,-0.122,0.793,-0.427,601.743
120066,143732,9298,-0.066,1.031,0.093,-0.122,0.976,-0.122,601.747
120066,143855,10997,-0.068,1.025,0.092,-0.122,0.976,-0.122,601.753
120090,143988,9298,-0.066,1.02,0.091,-0.305,0.427,0.61,601.757
120090,143873,11001,-0.064,1.02,0.094,-0.305,0.427,0.61,601.763
120090,143732,9298,-0.061,1.017,0.097,-0.549,-0.244,0.61,601.766
120090,143868,10994,-0.054,1.015,0.096,-0.549,-0.244,0.61,601.773
120076,143732,9298,-0.054,1.018,0.093,-0.244,-0.244,0.671,601.776
120076,143842,10992,-0.058,1.021,0.1,-0.244,-0.244,0.671,601.782
120097,143732,9298,-0.056,1.022,0.096,0.244,0.488,0.854,601.786
120097,143843,10985,-0.056,1.024,0.089,0.244,0.488,0.854,601.792
120094,143732,9298,-0.059,1.024,0.092,0.305,0.732,0.61,601.796
120094,143854,11002,-0.059,1.023,0.093,0.305,0.732,0.61,601.802
120104,143732,9298,-0.057,1.023,0.095,0.305,0.488,0.366,601.806
120104,143857,10995,-0.059,1.025,0.095,0.305,0.488,0.366,601.812
120091,143732,9298,-0.061,1.027,0.09,0.183,0.427,0.122,601.816
120091,143845,10991,-0.061,1.028,0.091,0.183,0.427,0.122,601.822
120111,143732,9298,-0.061,1.03,0.09,-0.183,0.488,0,601.826
120111,143861,10997,-0.064,1.029,0.091,-0.183,0.488,0,601.832
120087,143988,9298,-0.063,1.029,0.093,-0.732,0.305,0.183,601.836
120087,143894,10992,-0.061,1.028,0.096,-0.732,0.305,0.183,601.842
120122,143988,9298,-0.061,1.026,0.094,-0.488,0.061,0.427,601.846
120122,143887,10980,-0.062,1.022,0.098,-0.488,0.061,0.427,601.852
120088,143732,9298,-0.061,1.018,0.093,-0.183,0.122,0.732,601.856
120088,143848,10998,-0.06,1.019,0.092,-0.183,0.122,0.732,601.862
120117,143732,9298,-0.06,1.019,0.092,-0.183,0.122,0.732,601.865
120117,143869,10993,-0.061,1.02,0.099,-0.366,0.122,0.732,601.872
120100,143732,9298,-0.061,1.02,0.099,-0.366,0.122,0.732,601.875
120100,143853,10999,-0.058,1.013,0.095,-0.244,0,0.793,601.881
120079,143732,9298,-0.058,1.013,0.095,-0.244,0,0.793,601.885
120079,143845,10990,-0.056,1.026,0.092,-0.122,-0.061,0.732,601.891
120094,143732,9298,-0.056,1.026,0.092,-0.122,-0.061,0.732,601.895
120094,143866,10983,-0.059,1.024,0.098,-0.549,0.122,0.732,601.901
120087,143732,9298,-0.059,1.024,0.098,-0.549,0.122,0.732,601.905
120087,143867,10989,-0.058,1.025,0.095,-0.061,0.183,0.488,601.911
120097,143732,9298,-0.058,1.025,0.095,-0.061,0.183,0.488,601.915
120097,143865,10995,-0.058,1.029,0.098,-0.305,0.305,0.427,601.921
120104,143732,9298,-0.058,1.029,0.098,-0.305,0.305,0.427,601.925
120104,143849,10986,-0.058,1.022,0.093,0.183,0.549,0.488,601.931
120097,143732,9298,-0.058,1.022,0.093,0.183,0.549,0.488,601.935
120097,143866,10983,-0.061,1.023,0.093,1.098,0.854,0.427,601.941
120086,143988,9298,-0.061,1.023,0.093,1.098,0.854,0.427,601.945
120086,143882,10998,-0.062,1.021,0.089,1.037,1.037,0.244,601.951
120105,143988,9298,-0.062,1.021,0.089,1.037,1.037,0.244,601.954
120105,143877,10973,-0.06,1.025,0.089,0.915,0.915,0.061,601.961
120092,143988,9298,-0.06,1.025,0.089,0.915,0.915,0.061,601.964
120092,143885,10987,-0.059,1.021,0.091,0.854,0.671,0.061,601.971
120110,143988,9298,-0.059,1.021,0.091,0.854,0.671,0.061,601.974
120110,143878,10999,-0.058,1.023,0.09,0.366,0.61,0.305,601.98
120096,143988,9298,-0.058,1.023,0.09,0.366,0.61,0.305,601.984
120096,143902,10987,-0.057,1.023,0.099,-0.061,0.488,0.244,601.99
120090,143988,9298,-0.057,1.023,0.099,-0.061,0.488,0.244,601.994
120090,143887,10988,-0.056,1.02,0.096,-0.183,0.366,-0.122,602
120105,143988,9298,-0.056,1.02,0.096,-0.183,0.366,-0.122,602.004
120105,143879,10980,-0.058,1.019,0.098,0.61,0.915,0,602.01
120096,143988,9298,-0.06,1.021,0.095,0.61,0.915,0,602.014
120096,143877,10987,-0.061,1.024,0.094,0.915,1.463,0.305,602.02
120107,143732,9298,-0.063,1.027,0.093,0.915,1.463,0.305,602.024
120107,143865,10983,-0.061,1.026,0.091,0.854,1.22,0.122,602.03
120107,143988,9298,-0.063,1.026,0.086,0.854,1.22,0.122,602.034
120107,143891,10989,-0.059,1.026,0.087,0.854,0.854,0.183,602.04
120092,143988,9298,-0.061,1.023,0.087,0.854,0.854,0.183,602.044
120092,143879,10978,-0.064,1.022,0.092,0.488,0.732,0.61,602.05
120132,143988,9298,-0.06,1.024,0.09,0.488,0.732,0.61,602.054
120132,143877,10991,-0.059,1.023,0.089,-0.061,0.488,0.671,602.06
120099,143988,9298,-0.056,1.021,0.091,-0.061,0.488,0.671,602.063
120099,143888,10985,-0.057,1.017,0.085,0.427,0.305,0.305,602.07
120105,143988,9298,-0.056,1.021,0.086,0.427,0.305,0.305,602.073
120105,143886,10995,-0.058,1.023,0.09,0.549,0.549,0,602.079
120102,143988,9298,-0.062,1.027,0.092,0.549,0.549,0,602.083
120102,143909,10987,-0.061,1.028,0.089,-0.061,0.915,-0.244,602.089
120103,143988,9298,-0.065,1.029,0.085,-0.061,0.915,-0.244,602.093
120103,143896,10994,-0.064,1.028,0.084,-0.366,0.732,-0.122,602.099
120107,143988,9298,-0.066,1.028,0.087,-0.366,0.732,-0.122,602.103
120107,143888,10985,-0.065,1.024,0.089,-0.732,0.244,0.122,602.109
120093,143732,9298,-0.06,1.025,0.092,-0.732,0.244,0.122,602.113
120093,143854,10983,-0.061,1.022,0.09,-1.402,-0.122,0.183,602.119
120118,143988,9298,-0.062,1.023,0.093,-1.402,-0.122,0.183,602.123
120118,143906,10995,-0.063,1.022,0.096,-1.585,-0.183,0.305,602.129
120129,143988,9298,-0.064,1.014,0.094,-1.585,-0.183,0.305,602.133
120129,143877,10987,-0.064,1.014,0.095,-0.915,0.061,0.61,602.139
120116,143988,9298,-0.065,1.019,0.093,-0.915,0.061,0.61,602.143
120116,143914,10989,-0.065,1.023,0.095,-0.427,0.122,0.915,602.149
120126,143988,9298,-0.062,1.03,0.089,-0.427,0.122,0.915,602.152
120126,143884,10995,-0.059,1.026,0.086,-0.854,-0.305,1.037,602.159
120122,143988,9298,-0.057,1.022,0.089,-0.854,-0.305,1.037,602.162
120122,143895,10990,-0.056,1.022,0.094,-0.732,-0.427,1.037,602.169
120105,143988,9298,-0.057,1.018,0.093,-0.732,-0.427,1.037,602.172
120105,143905,10995,-0.058,1.019,0.092,-1.037,-0.244,1.037,602.178
120103,143988,9298,-0.059,1.024,0.094,-1.037,-0.244,1.037,602.182
120103,143885,10991,-0.06,1.028,0.096,-1.89,-0.061,0.793,602.188
120109,143988,9298,-0.06,1.029,0.092,-1.89,-0.061,0.793,602.192
120109,143872,10977,-0.056,1.024,0.091,-1.159,0.061,0.549,602.198
120072,143988,9298,-0.059,1.03,0.092,-1.159,0.061,0.549,602.202
120072,143872,10982,-0.058,1.031,0.094,-0.61,0.122,0.549,602.208
120112,143732,9298,-0.058,1.026,0.096,-0.61,0.122,0.549,602.212
120112,143863,10983,-0.059,1.027,0.097,-1.159,0.061,0.366,602.218
120075,143988,9298,-0.058,1.022,0.094,-1.159,0.061,0.366,602.222
120075,143882,10995,-0.058,1.015,0.095,-1.28,0.366,0.244,602.228
120094,143732,9298,-0.062,1.016,0.096,-1.28,0.366,0.244,602.232
120094,143869,10978,-0.061,1.024,0.099,-1.585,0.671,0.183,602.238
120066,143988,9298,-0.064,1.025,0.095,-1.585,0.671,0.183,602.242
120066,143877,10991,-0.061,1.021,0.096,-1.341,0.488,0.244,602.248
120093,143988,9298,-0.062,1.022,0.093,-1.341,0.488,0.244,602.251
120093,143874,10980,-0.061,1.02,0.091,-0.305,0.183,0.488,602.258
120071,143988,9298,-0.061,1.023,0.091,-0.305,0.183,0.488,602.261
120071,143896,10981,-0.06,1.023,0.093,-0.671,0.122,0.671,602.268
120064,143988,9298,-0.06,1.026,0.097,-0.671,0.122,0.671,602.271
120064,143876,10976,-0.06,1.023,0.098,-1.098,0.183,0.854,602.277
120076,143988,9298,-0.058,1.021,0.097,-1.098,0.183,0.854,602.281
120076,143872,10984,-0.052,1.019,0.095,-0.244,0.122,0.732,602.287
120061,143732,9298,-0.053,1.015,0.098,-0.244,0.122,0.732,602.291
120061,143857,10969,-0.056,1.021,0.094,0.305,0.61,0.671,602.297
120039,143732,9298,-0.058,1.026,0.089,0.305,0.61,0.671,602.301
120039,143867,10983,-0.061,1.034,0.091,-0.061,1.037,0.366,602.307
120041,143732,9298,-0.063,1.03,0.097,-0.061,1.037,0.366,602.311
120041,143857,10971,-0.062,1.027,0.096,0.305,1.037,0.183,602.317
120050,143732,9298,-0.062,1.024,0.093,0.305,1.037,0.183,602.321
120050,143842,10971,-0.061,1.018,0.097,0.793,0.732,0.305,602.327
120048,143732,9298,-0.061,1.02,0.093,0.793,0.732,0.305,602.331
120048,143859,10978,-0.06,1.021,0.093,0.244,0.427,0.305,602.337
120030,143732,9298,-0.058,1.024,0.095,0.244,0.427,0.305,602.341
120030,143835,10972,-0.056,1.023,0.093,0.122,0.61,0.305,602.347
120041,143732,9298,-0.057,1.019,0.092,0.122,0.61,0.305,602.35
120041,143851,10971,-0.057,1.019,0.098,0.793,0.793,0.122,602.357
120022,143732,9298,-0.056,1.021,0.098,0.793,0.793,0.122,602.36
120022,143847,10974,-0.057,1.024,0.094,0.061,0.976,-0.122,602.367
120054,143732,9298,-0.059,1.023,0.096,0.061,0.976,-0.122,602.37
120054,143850,10977,-0.059,1.014,0.094,0.183,1.037,-0.305,602.376
120070,143732,9298,-0.06,1.019,0.096,0.183,1.037,-0.305,602.38
120070,143862,10965,-0.063,1.024,0.093,0.793,1.037,-0.244,602.386
120053,143732,9298,-0.064,1.028,0.09,0.793,1.037,-0.244,602.39
120053,143855,10993,-0.062,1.032,0.086,0.366,0.976,-0.183,602.396
120041,143988,9298,-0.063,1.032,0.088,0.366,0.976,-0.183,602.4
120041,143875,10982,-0.063,1.027,0.092,0.915,0.671,-0.061,602.406
120062,143732,9298,-0.062,1.024,0.094,0.915,0.671,-0.061,602.41
120062,143855,10981,-0.059,1.025,0.093,0.915,0.427,0.183,602.416
120061,143732,9298,-0.062,1.026,0.09,0.915,0.427,0.183,602.42
120061,143860,10977,-0.063,1.026,0.095,-0.305,0.488,0.305,602.426
120072,143732,9298,-0.061,1.021,0.093,-0.305,0.488,0.305,602.43
120072,143863,10976,-0.061,1.018,0.092,-0.488,0.549,0.427,602.436
120056,143988,9298,-0.065,1.018,0.087,-0.488,0.549,0.427,602.44
120056,143872,10974,-0.062,1.018,0.088,-0.244,0.244,0.549,602.446
120079,143732,9298,-0.062,1.018,0.088,-0.244,0.244,0.549,602.449
120079,143868,10988,-0.063,1.027,0.09,-1.28,-0.183,0.793,602.456
120063,143988,9298,-0.063,1.027,0.09,-1.28,-0.183,0.793,602.459
120063,143874,10978,-0.059,1.027,0.09,-1.829,-0.61,0.854,602.466
120065,143732,9298,-0.059,1.027,0.09,-1.829,-0.61,0.854,602.469
120065,143870,10985,-0.055,1.026,0.092,-1.89,-0.671,0.793,602.475
120064,143988,9298,-0.055,1.026,0.092,-1.89,-0.671,0.793,602.479
120064,143894,10988,-0.058,1.026,0.098,-2.195,-0.244,0.732,602.485
120067,143988,9298,-0.058,1.026,0.098,-2.195,-0.244,0.732,602.489
120067,143895,10995,-0.061,1.026,0.097,-2.073,0,0.488,602.495
120071,143988,9298,-0.061,1.026,0.097,-2.073,0,0.488,602.499
120071,143878,10990,-0.058,1.018,0.099,-1.159,0.122,0.549,602.505
120076,143988,9298,-0.058,1.018,0.099,-1.159,0.122,0.549,602.509
120076,143882,10981,-0.061,1.018,0.095,-0.305,0,0.732,602.515
120080,143732,9298,-0.061,1.018,0.095,-0.305,0,0.732,602.519
120080,143858,10975,-0.057,1.02,0.097,-0.183,-0.122,0.793,602.525
120089,143988,9298,-0.057,1.02,0.097,-0.183,-0.122,0.793,602.529
120089,143875,10986,-0.062,1.023,0.094,-0.671,-0.122,0.793,602.535
120088,143988,9298,-0.062,1.023,0.094,-0.671,-0.122,0.793,602.539
120088,143895,10974,-0.056,1.025,0.094,-0.732,-0.183,0.915,602.545
120079,143988,9298,-0.056,1.025,0.094,-0.732,-0.183,0.915,602.548
120079,143879,10995,-0.058,1.024,0.092,-0.976,-0.366,0.915,602.555
120078,143988,9298,-0.058,1.024,0.092,-0.976,-0.366,0.915,602.558
120078,143878,10988,-0.054,1.024,0.099,-1.463,-0.305,0.732,602.565
120064,143732,9298,-0.054,1.024,0.099,-1.463,-0.305,0.732,602.568
120064,143853,10983,-0.055,1.021,0.093,-1.098,0.122,0.427,602.574
120067,143732,9298,-0.055,1.021,0.093,-1.098,0.122,0.427,602.578
120067,143861,10980,-0.06,1.024,0.097,-0.854,0.61,0.183,602.584
120052,143732,9298,-0.06,1.024,0.097,-0.854,0.61,0.183,602.588
120052,143847,10988,-0.061,1.024,0.099,-0.854,0.61,0.183,602.594
120050,143732,9298,-0.062,1.026,0.092,-0.671,0.793,0.122,602.598
120050,143849,10980,-0.063,1.025,0.092,-0.671,0.793,0.122,602.604
120042,143732,9298,-0.061,1.024,0.093,-0.549,0.427,0.061,602.608
120042,143860,10984,-0.061,1.023,0.095,-0.549,0.427,0.061,602.614
120056,143732,9298,-0.061,1.02,0.099,-0.549,0.183,0.061,602.618
120056,143854,10973,-0.061,1.022,0.096,-0.549,0.183,0.061,602.624
120031,143732,9298,-0.061,1.02,0.099,-0.61,0.244,0.366,602.628
120031,143844,10989,-0.062,1.016,0.098,-0.61,0.244,0.366,602.634
120047,143732,9298,-0.059,1.017,0.095,-0.732,0.244,0.549,602.638
120047,143827,10974,-0.062,1.018,0.097,-0.732,0.244,0.549,602.644
119997,143732,9298,-0.06,1.018,0.098,-0.549,0.244,0.549,602.647
119997,143826,10964,-0.057,1.021,0.097,-0.549,0.244,0.549,602.654
120020,143732,9298,-0.057,1.023,0.096,-0.305,0.183,0.61,602.657
120020,143818,10985,-0.057,1.021,0.099,-0.305,0.183,0.61,602.664
120006,143732,9298,-0.054,1.023,0.102,0.244,0.366,0.61,602.667
120006,143816,10980,-0.055,1.029,0.103,0.244,0.366,0.61,602.673
120027,143732,9298,-0.055,1.025,0.1,0.915,0.732,0.366,602.677
120027,143800,10972,-0.058,1.023,0.099,0.915,0.732,0.366,602.683
120008,143732,9298,-0.062,1.021,0.097,1.524,1.28,0.427,602.687
120008,143852,10960,-0.061,1.021,0.093,1.524,1.28,0.427,602.693
120013,143732,9298,-0.06,1.021,0.096,1.524,1.463,0.366,602.697
120013,143830,10990,-0.059,1.025,0.099,1.524,1.463,0.366,602.703
120006,143732,9298,-0.059,1.023,0.096,1.159,1.22,0.183,602.707
120006,143847,10969,-0.06,1.022,0.098,1.159,1.22,0.183,602.713
119999,143732,9298,-0.06,1.02,0.1,1.585,0.793,0.244,602.717
119999,143850,10979,-0.06,1.019,0.097,1.585,0.793,0.244,602.723
120031,143732,9298,-0.059,1.02,0.091,2.012,0.61,0.366,602.727
120031,143852,10978,-0.055,1.024,0.09,2.012,0.61,0.366,602.733
120021,143732,9298,-0.057,1.023,0.09,1.524,0.854,0.366,602.737
120021,143863,10979,-0.06,1.025,0.085,1.524,0.854,0.366,602.743
120046,143732,9298,-0.061,1.027,0.086,0.732,1.037,0.305,602.746
120046,143871,10966,-0.062,1.033,0.088,0.732,1.037,0.305,602.753
120037,143732,9298,-0.065,1.03,0.091,0.061,0.854,0.366,602.756
120037,143835,10977,-0.063,1.028,0.093,0.061,0.854,0.366,602.763
120037,143732,9298,-0.058,1.027,0.091,-0.183,0.366,0.488,602.766
120037,143861,10967,-0.061,1.022,0.089,-0.183,0.366,0.488,602.772
120052,143732,9298,-0.062,1.026,0.093,-0.793,0,0.671,602.776
120052,143856,10985,-0.058,1.023,0.095,-0.793,0,0.671,602.782
120046,143732,9298,-0.06,1.021,0.094,-0.854,-0.183,0.488,602.786
120046,143849,10964,-0.055,1.024,0.094,-0.854,-0.183,0.488,602.792
120042,143988,9298,-0.057,1.02,0.096,0,-0.183,0.305,602.796
120042,143876,10973,-0.058,1.023,0.1,0,-0.183,0.305,602.802
120062,143732,9298,-0.053,1.027,0.098,0.061,-0.061,0,602.806
120062,143870,10984,-0.052,1.025,0.096,0.061,-0.061,0,602.812
120050,143732,9298,-0.051,1.019,0.099,0.183,0.244,-0.244,602.816
120050,143863,10984,-0.056,1.012,0.098,0.183,0.244,-0.244,602.822
120077,143988,9298,-0.062,1.012,0.095,0.732,0.976,-0.305,602.826
120077,143876,10981,-0.067,1.02,0.094,0.732,0.976,-0.305,602.832
120051,143988,9298,-0.063,1.025,0.091,0.061,1.22,-0.122,602.836
120051,143878,10981,-0.064,1.028,0.09,0.061,1.22,-0.122,602.842
120067,143732,9298,-0.067,1.032,0.087,-0.244,0.671,0.122,602.845
120067,143867,10970,-0.063,1.033,0.089,-0.244,0.671,0.122,602.852
120033,143988,9298,-0.063,1.03,0.092,-0.305,0.183,0.488,602.855
120033,143876,10998,-0.061,1.025,0.094,-0.305,0.183,0.488,602.862
120047,143732,9298,-0.063,1.019,0.093,-0.732,0,0.793,602.865
120047,143866,10978,-0.061,1.017,0.092,-0.732,0,0.793,602.871
120059,143732,9298,-0.062,1.018,0.091,-1.159,0.244,0.915,602.875
120059,143862,10984,-0.062,1.018,0.088,-1.159,0.244,0.915,602.881
120066,143732,9298,-0.063,1.025,0.092,-1.89,0.122,0.793,602.885
120066,143862,10988,-0.061,1.025,0.089,-1.89,0.122,0.793,602.891
120074,143988,9298,-0.061,1.024,0.092,-1.28,-0.488,0.671,602.895
120074,143877,10982,-0.056,1.027,0.097,-1.28,-0.488,0.671,602.901
120042,143732,9298,-0.052,1.027,0.097,-1.22,-0.915,0.854,602.905
120042,143863,10977,-0.052,1.027,0.095,-1.22,-0.915,0.854,602.911
120082,143988,9298,-0.048,1.023,0.099,-1.707,-0.793,0.671,602.915
120082,143881,10971,-0.05,1.025,0.103,-1.707,-0.793,0.671,602.921
120048,143732,9298,-0.052,1.024,0.105,-1.098,0.061,0.305,602.925
120048,143856,10988,-0.055,1.021,0.102,-1.098,0.061,0.305,602.931
120048,143732,9298,-0.059,1.02,0.101,-0.793,0.976,0.061,602.935
120048,143865,10976,-0.061,1.02,0.1,-0.793,0.976,0.061,602.941
120024,143732,9298,-0.06,1.02,0.099,-0.122,1.402,0.122,602.944
120024,143842,10983,-0.065,1.02,0.096,-0.122,1.402,0.122,602.951
120057,143732,9298,-0.062,1.016,0.101,0.671,1.159,0.366,602.954
120057,143860,10969,-0.063,1.019,0.1,0.671,1.159,0.366,602.961
120036,143732,9298,-0.061,1.019,0.097,1.341,0.732,0.549,602.964
120036,143867,10983,-0.062,1.022,0.09,1.341,0.732,0.549,602.97
120047,143732,9298,-0.059,1.022,0.094,1.28,0.549,0.732,602.974
120047,143865,10985,-0.056,1.025,0.09,1.28,0.549,0.732,602.98
120021,143732,9298,-0.058,1.024,0.091,0.671,0.549,0.854,602.984
120021,143843,10985,-0.058,1.023,0.091,0.671,0.549,0.854,602.99
120000,143732,9298,-0.057,1.023,0.086,0.061,0.305,0.549,602.994
120000,143837,10989,-0.058,1.023,0.088,0.061,0.305,0.549,603
120006,143732,9298,-0.059,1.026,0.089,-0.854,0.305,0.366,603.004
120006,143824,10971,-0.057,1.03,0.088,-0.854,0.305,0.366,603.01
120013,143732,9298,-0.062,1.033,0.088,-2.073,0.305,0.183,603.014
120013,143853,10960,-0.059,1.034,0.09,-2.073,0.305,0.183,603.02
120006,143732,9298,-0.058,1.033,0.094,-2.256,-0.244,-0.122,603.024
120006,143856,10975,-0.058,1.034,0.096,-2.256,-0.244,-0.122,603.03
120015,143732,9298,-0.058,1.034,0.096,-2.256,-0.244,-0.122,603.034
120015,143836,10964,-0.057,1.022,0.099,-1.951,-0.305,-0.183,603.04
120011,143732,9298,-0.057,1.022,0.099,-1.951,-0.305,-0.183,603.043
120011,143841,10951,-0.059,1.015,0.1,-1.524,0,0,603.05
119999,143732,9298,-0.059,1.015,0.1,-1.524,0,0,603.053
119999,143830,10966,-0.062,1.015,0.1,-1.28,0.488,0,603.06
119996,143732,9298,-0.062,1.015,0.1,-1.28,0.488,0,603.063
119996,143836,10992,-0.064,1.012,0.101,-1.463,0.488,-0.061,603.069
119996,143732,9298,-0.064,1.012,0.101,-1.463,0.488,-0.061,603.073
119996,143833,10972,-0.06,1.014,0.102,-0.854,0.244,0,603.079
119992,143732,9298,-0.06,1.014,0.102,-0.854,0.244,0,603.083
119992,143797,10979,-0.056,1.023,0.102,-0.61,0.122,0.183,603.089
120009,143732,9298,-0.056,1.023,0.102,-0.61,0.122,0.183,603.093
120009,143821,10985,-0.053,1.026,0.104,-0.366,0.061,0.183,603.099
119998,143732,9298,-0.053,1.026,0.104,-0.366,0.061,0.183,603.103
119998,143829,10983,-0.055,1.027,0.096,1.159,0.61,-0.061,603.109
120040,143732,9298,-0.055,1.027,0.096,1.159,0.61,-0.061,603.113
120040,143832,10976,-0.061,1.032,0.092,1.22,1.22,-0.244,603.119
119999,143732,9298,-0.061,1.032,0.092,1.22,1.22,-0.244,603.123
119999,143843,10979,-0.064,1.025,0.096,0.549,1.524,-0.305,603.129
120028,143732,9298,-0.064,1.025,0.096,0.549,1.524,-0.305,603.133
120028,143837,10983,-0.07,1.012,0.087,0.549,1.28,0,603.139
120018,143732,9298,-0.07,1.012,0.087,0.549,1.28,0,603.142
120018,143832,10978,-0.069,1.014,0.092,0.122,0.854,0.488,603.149
120039,143732,9298,-0.069,1.014,0.092,0.122,0.854,0.488,603.152
120039,143825,10980,-0.063,1.027,0.092,-0.732,0.183,0.793,603.159
120009,143732,9298,-0.063,1.027,0.092,-0.732,0.183,0.793,603.162
120009,143827,10984,-0.054,1.028,0.092,-1.159,-0.854,0.915,603.168
120018,143988,9298,-0.054,1.028,0.092,-1.159,-0.854,0.915,603.172
120018,143872,10984,-0.051,1.025,0.099,-0.305,-1.037,0.854,603.178
120038,143732,9298,-0.053,1.025,0.096,-0.305,-1.037,0.854,603.182
120038,143860,10979,-0.053,1.023,0.096,-0.244,-0.366,0.671,603.188
120035,143732,9298,-0.057,1.021,0.096,-0.244,-0.366,0.671,603.192
120035,143866,10985,-0.059,1.024,0.092,-0.793,0.61,0.488,603.198
120035,143732,9298,-0.062,1.029,0.092,-0.793,0.61,0.488,603.202
120035,143853,10989,-0.065,1.028,0.093,-1.28,0.854,0.244,603.208
120044,143732,9298,-0.065,1.024,0.094,-1.28,0.854,0.244,603.212
120044,143859,10976,-0.063,1.026,0.1,-1.341,0.183,0.305,603.218
120023,143732,9298,-0.062,1.024,0.097,-1.341,0.183,0.305,603.222
120023,143851,10982,-0.062,1.023,0.098,-1.463,-0.244,0.671,603.228
120024,143732,9298,-0.059,1.023,0.099,-1.463,-0.244,0.671,603.232
120024,143868,10965,-0.056,1.02,0.097,-1.341,-0.488,0.732,603.238
120029,143732,9298,-0.055,1.018,0.098,-1.341,-0.488,0.732,603.241
120029,143851,10971,-0.055,1.018,0.101,-0.793,-0.183,0.61,603.248
120023,143732,9298,-0.057,1.02,0.099,-0.793,-0.183,0.61,603.251
120023,143838,10982,-0.057,1.018,0.098,-0.732,0.122,0.305,603.258
120006,143732,9298,-0.058,1.019,0.1,-0.732,0.122,0.305,603.261
120006,143834,10965,-0.059,1.019,0.098,-0.305,0.366,0.366,603.267
119999,143732,9298,-0.064,1.023,0.096,-0.305,0.366,0.366,603.271
119999,143822,10973,-0.061,1.025,0.094,-0.061,0.244,0.366,603.277
120021,143732,9298,-0.057,1.03,0.097,-0.061,0.244,0.366,603.281
120021,143834,10975,-0.057,1.028,0.096,-0.305,0,0.305,603.287
120000,143732,9298,-0.057,1.021,0.102,-0.305,0,0.305,603.291
120000,143869,10980,-0.059,1.02,0.102,0.183,0,0.488,603.297
120015,143732,9298,-0.057,1.018,0.097,0.183,0,0.488,603.301
120015,143862,10988,-0.057,1.021,0.095,0,0.488,0.244,603.307
120028,143732,9298,-0.06,1.024,0.093,0,0.488,0.244,603.311
120028,143851,10995,-0.064,1.027,0.093,-0.061,1.037,0.244,603.317
120039,143988,9298,-0.065,1.025,0.094,-0.061,1.037,0.244,603.321
120039,143875,10970,-0.066,1.024,0.093,0.183,0.915,0.427,603.327
120050,143988,9298,-0.064,1.026,0.095,0.183,0.915,0.427,603.331
120050,143883,10989,-0.064,1.027,0.096,-0.366,0.244,0.61,603.337
120031,143988,9298,-0.062,1.027,0.099,-0.366,0.244,0.61,603.34
120031,143887,10975,-0.059,1.025,0.098,-0.305,-0.122,0.732,603.347
120052,143988,9298,-0.057,1.025,0.1,-0.305,-0.122,0.732,603.35
120052,143884,10958,-0.053,1.026,0.098,0,-0.122,0.671,603.357
120053,143988,9298,-0.055,1.021,0.095,0,-0.122,0.671,603.36
120053,143883,10974,-0.056,1.02,0.096,-0.244,0.122,0.61,603.366
120053,143732,9298,-0.057,1.021,0.099,-0.244,0.122,0.61,603.37
120053,143867,10976,-0.057,1.02,0.099,-0.488,0.305,0.305,603.376
120045,143988,9298,-0.058,1.022,0.098,-0.488,0.305,0.305,603.38
120045,143899,10978,-0.058,1.021,0.102,-0.488,0.366,-0.061,603.386
120041,143988,9298,-0.057,1.019,0.106,-0.488,0.366,-0.061,603.39
120041,143900,10978,-0.058,1.022,0.1,0.122,0.549,-0.183,603.396
120044,143988,9298,-0.058,1.022,0.099,0.122,0.549,-0.183,603.4
120044,143892,10971,-0.059,1.022,0.096,0.488,0.976,0.061,603.406
120032,143988,9298,-0.062,1.026,0.094,0.488,0.976,0.061,603.41
120032,143891,10975,-0.064,1.026,0.097,0.427,1.098,0.305,603.416
120022,143988,9298,-0.062,1.026,0.099,0.427,1.098,0.305,603.42
120022,143873,10976,-0.064,1.024,0.094,0.183,0.793,0.549,603.426
120044,143732,9298,-0.063,1.019,0.095,0.183,0.793,0.549,603.43
120044,143857,10959,-0.061,1.021,0.095,-0.244,0.183,0.732,603.436
120027,143988,9298,-0.059,1.02,0.092,-0.244,0.183,0.732,603.439
120027,143887,10982,-0.06,1.022,0.092,-0.305,0.122,0.732,603.446
120031,143988,9298,-0.059,1.027,0.094,-0.305,0.122,0.732,603.449
120031,143875,10982,-0.061,1.026,0.096,-0.305,-0.061,0.671,603.456
120028,143988,9298,-0.055,1.029,0.097,-0.305,-0.061,0.671,603.459
120028,143876,10969,-0.052,1.026,0.099,-0.061,-0.122,0.427,603.465
120037,143988,9298,-0.052,1.025,0.098,-0.061,-0.122,0.427,603.469
120037,143894,10981,-0.052,1.027,0.102,0.122,0.061,0.061,603.475
120056,143988,9298,-0.053,1.026,0.101,0.122,0.061,0.061,603.479
120056,143882,10987,-0.055,1.021,0.099,0.305,0.549,-0.244,603.485
120071,143988,9298,-0.058,1.022,0.095,0.305,0.549,-0.244,603.489
120071,143893,10974,-0.063,1.019,0.099,0.61,1.341,-0.244,603.495
120057,143988,9298,-0.064,1.021,0.096,0.61,1.341,-0.244,603.499
120057,143884,10987,-0.065,1.021,0.098,0.427,1.585,-0.122,603.505
120068,143988,9298,-0.068,1.022,0.096,0.427,1.585,-0.122,603.509
120068,143882,10975,-0.065,1.027,0.095,0.061,0.915,0.122,603.515
120063,143988,9298,-0.062,1.023,0.098,0.061,0.915,0.122,603.519
120063,143897,10978,-0.059,1.019,0.1,0.305,0.244,0.488,603.525
120075,143988,9298,-0.059,1.016,0.099,0.305,0.244,0.488,603.529
120075,143874,10985,-0.059,1.021,0.097,0.427,0.122,0.671,603.535
120058,143988,9298,-0.058,1.025,0.097,0.427,0.122,0.671,603.538
120058,143908,10971,-0.059,1.026,0.095,0.244,0.305,0.549,603.545
120057,143988,9298,-0.061,1.023,0.092,0.244,0.305,0.549,603.548
120057,143878,10975,-0.063,1.022,0.093,0.061,0.488,0.549,603.555
120052,143988,9298,-0.065,1.024,0.095,0.061,0.488,0.549,603.558
120052,143886,10977,-0.064,1.026,0.091,-0.366,0.183,0.61,603.564
120056,143988,9298,-0.063,1.029,0.092,-0.366,0.183,0.61,603.568
120056,143893,10977,-0.06,1.025,0.091,-0.976,-0.366,0.793,603.574
120049,143988,9298,-0.06,1.026,0.093,-0.976,-0.366,0.793,603.578
120049,143872,10975,-0.057,1.028,0.088,-1.28,-0.671,0.793,603.584
120058,143988,9298,-0.059,1.027,0.09,-1.28,-0.671,0.793,603.588
120058,143903,10985,-0.058,1.025,0.096,-1.585,-0.488,0.549,603.594
120062,143732,9298,-0.056,1.024,0.094,-1.585,-0.488,0.549,603.598
120062,143860,10973,-0.056,1.026,0.092,-1.646,0.061,0.549,603.604
120048,143988,9298,-0.06,1.024,0.097,-1.646,0.061,0.549,603.608
120048,143872,10966,-0.059,1.023,0.098,-2.012,-0.061,0.488,603.614
120056,143988,9298,-0.057,1.017,0.099,-2.012,-0.061,0.488,603.618
120056,143901,10984,-0.055,1.014,0.101,-2.195,-0.366,0.305,603.624
120069,143988,9298,-0.055,1.014,0.101,-2.195,-0.366,0.305,603.628
120069,143901,10982,-0.058,1.017,0.102,-1.89,-0.244,0.061,603.634
120043,143988,9298,-0.058,1.017,0.102,-1.89,-0.244,0.061,603.637
120043,143903,10981,-0.058,1.024,0.106,-1.341,0,-0.122,603.644
120066,143988,9298,-0.058,1.024,0.106,-1.341,0,-0.122,603.647
120066,143882,10963,-0.059,1.024,0.104,-0.366,0.427,-0.183,603.654
120057,143988,9298,-0.059,1.024,0.104,-0.366,0.427,-0.183,603.657
120057,143893,10980,-0.06,1.027,0.102,0,0.854,0,603.663
120039,143988,9298,-0.06,1.027,0.102,0,0.854,0,603.667
120039,143890,10959,-0.063,1.022,0.096,-0.488,0.854,0.061,603.673
120037,143988,9298,-0.063,1.022,0.096,-0.488,0.854,0.061,603.677
120037,143892,10962,-0.063,1.016,0.098,-0.427,0.61,0.305,603.683
120036,143988,9298,-0.063,1.016,0.098,-0.427,0.61,0.305,603.687
120036,143886,10988,-0.063,1.012,0.1,0.244,0.366,0.671,603.693
120059,143988,9298,-0.063,1.012,0.1,0.244,0.366,0.671,603.697
120059,143884,10977,-0.062,1.026,0.093,-0.427,0.122,0.793,603.703
120037,143988,9298,-0.062,1.026,0.093,-0.427,0.122,0.793,603.707
120037,143897,10970,-0.06,1.027,0.097,-0.427,-0.122,0.915,603.713
120039,143732,9298,-0.06,1.027,0.097,-0.427,-0.122,0.915,603.717
120039,143860,10962,-0.053,1.025,0.101,0.183,-0.244,0.976,603.723
120039,143732,9298,-0.053,1.025,0.101,0.183,-0.244,0.976,603.727
120039,143847,10964,-0.053,1.022,0.101,0,-0.183,0.61,603.733
120022,143988,9298,-0.053,1.022,0.101,0,-0.183,0.61,603.736
120022,143873,10970,-0.056,1.02,0.1,-0.061,0.305,0.366,603.743
120023,143732,9298,-0.056,1.02,0.1,-0.061,0.305,0.366,603.746
120023,143851,10980,-0.06,1.024,0.099,0.183,0.732,0.122,603.753
120034,143988,9298,-0.06,1.024,0.099,0.183,0.732,0.122,603.756
120034,143881,10968,-0.057,1.027,0.094,-0.305,0.671,-0.122,603.762
120025,143988,9298,-0.057,1.027,0.094,-0.305,0.671,-0.122,603.766
120025,143888,10969,-0.059,1.024,0.096,-0.305,0.671,-0.122,603.772
120027,143988,9298,-0.061,1.023,0.097,-0.488,0.427,-0.122,603.776
120027,143878,10976,-0.057,1.024,0.103,-0.488,0.427,-0.122,603.782
120036,143988,9298,-0.06,1.021,0.099,-0.549,0.488,-0.061,603.786
120036,143896,10977,-0.061,1.02,0.101,-0.549,0.488,-0.061,603.792
120034,143732,9298,-0.061,1.018,0.101,-0.427,0.61,0.061,603.796
120034,143863,10977,-0.06,1.02,0.103,-0.427,0.61,0.061,603.802
120027,143732,9298,-0.059,1.02,0.105,0.244,0.793,-0.061,603.806
120027,143846,10984,-0.061,1.023,0.1,0.244,0.793,-0.061,603.812
120002,143732,9298,-0.062,1.023,0.099,0.671,0.793,-0.183,603.816
120002,143871,10969,-0.058,1.022,0.098,0.671,0.793,-0.183,603.822
120045,143732,9298,-0.06,1.022,0.096,1.098,0.732,-0.183,603.826
120045,143856,10969,-0.061,1.024,0.097,1.098,0.732,-0.183,603.832
120038,143988,9298,-0.063,1.024,0.101,0.671,0.793,0.061,603.835
120038,143874,10982,-0.062,1.026,0.099,0.671,0.793,0.061,603.842
120037,143732,9298,-0.061,1.025,0.096,0.244,0.671,0.244,603.845
120037,143869,10968,-0.063,1.022,0.092,0.244,0.671,0.244,603.852
120042,143732,9298,-0.065,1.021,0.094,0.061,0.427,0.366,603.855
120042,143866,10976,-0.06,1.024,0.091,0.061,0.427,0.366,603.861
120045,143988,9298,-0.063,1.021,0.091,-0.671,0.305,0.427,603.865
120045,143886,10990,-0.063,1.025,0.092,-0.671,0.305,0.427,603.871
120072,143988,9298,-0.063,1.033,0.09,-2.012,0,0.488,603.875
120072,143889,10975,-0.062,1.034,0.089,-2.012,0,0.488,603.881
120062,143732,9298,-0.062,1.029,0.093,-2.805,-0.549,0.793,603.885
120062,143867,10983,-0.063,1.024,0.096,-2.805,-0.549,0.793,603.891
120077,143988,9298,-0.061,1.024,0.097,-2.866,-1.037,0.915,603.895
120077,143884,10971,-0.06,1.026,0.098,-2.866,-1.037,0.915,603.901
120055,143988,9298,-0.057,1.026,0.097,-3.171,-1.098,0.915,603.905
120055,143894,10981,-0.058,1.022,0.103,-3.171,-1.098,0.915,603.911
120072,143988,9298,-0.054,1.019,0.108,-2.439,-1.037,0.732,603.915
120072,143915,10966,-0.059,1.017,0.107,-2.439,-1.037,0.732,603.921
120061,143988,9298,-0.058,1.014,0.105,-1.341,-0.732,0.671,603.925
120061,143934,10977,-0.058,1.02,0.111,-1.341,-0.732,0.671,603.931
120077,143988,9298,-0.054,1.021,0.105,-0.854,-0.122,0.671,603.934
120077,143927,10987,-0.054,1.018,0.108,-0.854,-0.122,0.671,603.941
120090,143988,9298,-0.054,1.015,0.119,0.61,0.244,0.732,603.944
120090,143925,10983,-0.055,1.018,0.114,0.61,0.244,0.732,603.951
120079,143988,9298,-0.056,1.022,0.105,0.915,0.671,0.366,603.954
120079,143910,10980,-0.057,1.021,0.109,0.915,0.671,0.366,603.96
120068,143988,9298,-0.054,1.015,0.108,1.341,0.854,0.366,603.964
120068,143917,10971,-0.061,1.018,0.104,1.341,0.854,0.366,603.97
120089,143988,9298,-0.062,1.019,0.101,2.927,1.646,0.671,603.974
120089,143916,10978,-0.059,1.026,0.095,2.927,1.646,0.671,603.98
120079,143988,9298,-0.061,1.028,0.094,1.89,1.341,0.671,603.984
120079,143896,10987,-0.062,1.028,0.095,1.89,1.341,0.671,603.99
120086,143988,9298,-0.063,1.025,0.097,2.073,0.732,0.671,603.994
120086,143889,10972,-0.059,1.022,0.097,2.073,0.732,0.671,604
120060,143988,9298,-0.057,1.023,0.094,1.768,0.244,0.549,604.004
120060,143894,10976,-0.052,1.025,0.087,1.768,0.244,0.549,604.01
120041,143988,9298,-0.057,1.029,0.091,0.244,0.305,0.305,604.014
120041,143883,10986,-0.059,1.031,0.091,0.244,0.305,0.305,604.02
120049,143988,9298,-0.058,1.035,0.09,-0.305,0.549,0.061,604.023
120049,143881,10965,-0.058,1.032,0.094,-0.305,0.549,0.061,604.03
120070,143988,9298,-0.059,1.027,0.098,-0.793,0.61,-0.183,604.033
120070,143898,10979,-0.063,1.024,0.102,-0.793,0.61,-0.183,604.04
120080,143988,9298,-0.064,1.022,0.098,-1.037,0.671,-0.061,604.043
120080,143923,10977,-0.062,1.022,0.097,-1.037,0.671,-0.061,604.049
120061,143988,9298,-0.062,1.019,0.101,-1.22,0.61,0.244,604.053
120061,143918,10974,-0.062,1.017,0.101,-1.22,0.61,0.244,604.059
120088,143988,9298,-0.061,1.017,0.097,-0.793,0.305,0.366,604.063
120088,143899,10970,-0.056,1.014,0.099,-0.793,0.305,0.366,604.069
120071,143988,9298,-0.053,1.018,0.102,-0.305,0.122,0.305,604.073
120071,143906,10973,-0.054,1.021,0.104,-0.305,0.122,0.305,604.079
120083,143988,9298,-0.053,1.024,0.104,-0.122,0.366,0.122,604.083
120083,143922,10961,-0.055,1.024,0.104,-0.122,0.366,0.122,604.089
120061,143988,9298,-0.054,1.02,0.107,0.793,0.793,-0.122,604.093
120061,143910,10971,-0.055,1.02,0.105,0.793,0.793,-0.122,604.099
120087,143988,9298,-0.058,1.02,0.104,1.585,1.341,-0.122,604.103
120087,143914,10984,-0.059,1.018,0.098,1.585,1.341,-0.122,604.109
120070,143988,9298,-0.062,1.023,0.093,1.341,1.524,-0.122,604.113
120070,143929,10979,-0.062,1.023,0.094,1.341,1.524,-0.122,604.119
120068,143988,9298,-0.064,1.024,0.095,1.098,1.28,-0.061,604.123
120068,143920,10972,-0.065,1.027,0.096,1.098,1.28,-0.061,604.129
