121367,141684,9298,-0.125,0.996,0.202,0.366,0.488,0.183,302.316
121367,141743,11359,-0.13,0.996,0.197,0.366,0.488,0.183,302.322
121365,141684,9298,-0.133,1.002,0.194,0.366,0.793,-0.061,302.326
121365,141712,11357,-0.134,1.006,0.192,0.366,0.793,-0.061,302.332
121381,141684,9298,-0.134,1.009,0.192,-0.366,0.61,-0.122,302.336
121381,141702,11345,-0.135,1.005,0.198,-0.366,0.61,-0.122,302.342
121353,141684,9298,-0.135,1.005,0.198,-0.366,0.61,-0.122,302.345
121353,141706,11343,-0.136,1.003,0.2,0.488,0.244,0.122,302.352
121319,141684,9298,-0.136,1.003,0.2,0.488,0.244,0.122,302.355
121319,141690,11344,-0.134,1.003,0.199,-0.061,0.122,0.427,302.361
121328,141684,9298,-0.134,1.003,0.199,-0.061,0.122,0.427,302.365
121328,141673,11361,-0.129,1,0.202,-0.671,0.122,0.854,302.371
121334,141684,9298,-0.129,1,0.202,-0.671,0.122,0.854,302.375
121334,141686,11348,-0.124,1.004,0.199,0,-0.061,0.793,302.381
121309,141684,9298,-0.124,1.004,0.199,0,-0.061,0.793,302.385
121309,141655,11334,-0.123,1.006,0.19,0.122,0.183,0.61,302.391
121293,141684,9298,-0.123,1.006,0.19,0.122,0.183,0.61,302.395
121293,141697,11354,-0.127,1.009,0.192,0.366,0.671,0.488,302.401
121340,141684,9298,-0.127,1.009,0.192,0.366,0.671,0.488,302.405
121340,141679,11345,-0.136,1.014,0.194,0.488,0.915,0.183,302.411
121318,141684,9298,-0.136,1.014,0.194,0.488,0.915,0.183,302.415
121318,141676,11346,-0.138,1.011,0.194,0.549,1.037,-0.122,302.421
121332,141684,9298,-0.138,1.011,0.194,0.549,1.037,-0.122,302.425
121332,141683,11341,-0.135,1.009,0.188,-0.122,0.732,0.244,302.431
121328,141684,9298,-0.135,1.009,0.188,-0.122,0.732,0.244,302.435
121328,141670,11345,-0.13,1.002,0.196,-0.915,0.183,0.549,302.441
121318,141684,9298,-0.13,1.002,0.196,-0.915,0.183,0.549,302.444
121318,141649,11343,-0.126,0.999,0.201,-0.915,-0.183,0.61,302.451
121313,141684,9298,-0.126,0.999,0.201,-0.915,-0.183,0.61,302.454
121313,141692,11340,-0.126,1.001,0.203,-0.793,0.122,0.488,302.46
121308,141684,9298,-0.126,1.001,0.203,-0.793,0.122,0.488,302.464
121308,141663,11333,-0.125,1.008,0.2,-0.549,0.549,0.61,302.47
121312,141684,9298,-0.125,1.008,0.2,-0.549,0.549,0.61,302.474
121312,141646,11359,-0.126,1.004,0.198,0.061,0.549,0.61,302.48
121329,141684,9298,-0.126,1.004,0.198,0.061,0.549,0.61,302.484
121329,141700,11333,-0.127,1.009,0.2,0.366,0.549,0.549,302.49
121340,141684,9298,-0.127,1.011,0.193,0.366,0.549,0.549,302.494
121340,141679,11350,-0.126,1.012,0.191,-1.22,0.183,0.427,302.5
121324,141684,9298,-0.128,1.008,0.192,-1.22,0.183,0.427,302.504
121324,141663,11332,-0.132,0.999,0.192,-1.341,0.305,0.183,302.51
121300,141684,9298,-0.136,0.996,0.19,-1.341,0.305,0.183,302.514
121300,141649,11331,-0.136,0.998,0.188,-0.854,0.61,0.122,302.52
121294,141684,9298,-0.135,0.999,0.187,-0.854,0.61,0.122,302.524
121294,141641,11331,-0.135,1.002,0.187,-0.915,0.549,0.244,302.53
121288,141684,9298,-0.133,1.006,0.192,-0.915,0.549,0.244,302.533
121288,141649,11329,-0.134,1.01,0.194,-0.854,0.122,0.732,302.54
121290,141684,9298,-0.13,1.015,0.204,-0.854,0.122,0.732,302.543
121290,141672,11352,-0.13,1.011,0.205,-1.22,-0.488,0.915,302.55
121327,141684,9298,-0.129,1.004,0.203,-1.22,-0.488,0.915,302.553
121327,141663,11350,-0.125,1.005,0.201,-1.22,-0.671,0.915,302.559
121307,141684,9298,-0.126,1.005,0.204,-1.22,-0.671,0.915,302.563
121307,141710,11345,-0.123,1.008,0.2,-1.341,-0.244,0.671,302.569
121322,141684,9298,-0.12,1.008,0.198,-1.341,-0.244,0.671,302.573
121322,141675,11349,-0.125,1.007,0.197,-1.098,0.488,0.122,302.579
121341,141684,9298,-0.13,1.004,0.198,-1.098,0.488,0.122,302.583
121341,141691,11338,-0.131,1.001,0.205,0.671,0.793,0.061,302.589
121349,141684,9298,-0.132,0.999,0.203,0.671,0.793,0.061,302.593
121349,141698,11336,-0.134,1.002,0.198,0.732,0.671,0.122,302.599
121345,141684,9298,-0.132,1.005,0.194,0.732,0.671,0.122,302.603
121345,141713,11323,-0.129,1.001,0.198,-0.183,0.549,0.061,302.609
121343,141684,9298,-0.128,0.998,0.199,-0.183,0.549,0.061,302.613
121343,141710,11356,-0.127,1.002,0.195,0.427,0.549,0.122,302.619
121333,141684,9298,-0.128,1,0.2,0.427,0.549,0.122,302.623
121333,141711,11331,-0.129,1.002,0.199,0.061,0.61,0.183,302.629
121326,141684,9298,-0.13,1.006,0.195,0.061,0.61,0.183,302.633
121326,141702,11357,-0.131,1.009,0.199,0.244,0.61,0.549,302.639
121350,141684,9298,-0.128,1.009,0.207,0.244,0.61,0.549,302.642
121350,141708,11346,-0.127,1.012,0.203,0.549,0.549,0.488,302.649
121349,141684,9298,-0.129,1.016,0.201,0.549,0.549,0.488,302.652
121349,141673,11341,-0.129,1.011,0.192,-0.122,0.427,0.427,302.658
121336,141684,9298,-0.126,1.004,0.187,-0.122,0.427,0.427,302.662
121336,141689,11345,-0.128,1.004,0.19,-0.488,0.793,0.427,302.668
121359,141684,9298,-0.128,1.001,0.189,-0.488,0.793,0.427,302.672
121359,141721,11357,-0.13,0.997,0.191,-0.122,1.037,0.305,302.678
121333,141684,9298,-0.131,0.998,0.194,-0.122,1.037,0.305,302.682
121333,141698,11353,-0.131,1.001,0.195,0.122,0.61,0.366,302.688
121341,141684,9298,-0.132,1.006,0.195,0.122,0.61,0.366,302.692
121341,141685,11328,-0.134,1.008,0.196,0.976,0.366,0.244,302.698
121319,141684,9298,-0.132,1.01,0.198,0.976,0.366,0.244,302.702
121319,141696,11339,-0.134,1.011,0.19,0.793,0.549,0.244,302.708
121335,141684,9298,-0.134,1.011,0.183,0.793,0.549,0.244,302.712
121335,141707,11353,-0.132,1.009,0.187,0.122,0.427,0.305,302.718
121317,141684,9298,-0.133,1.007,0.197,0.122,0.427,0.305,302.722
121317,141671,11338,-0.138,1.006,0.204,-0.122,0,0.244,302.728
121325,141684,9298,-0.13,1.006,0.203,-0.122,0,0.244,302.731
121325,141682,11341,-0.123,0.997,0.201,-0.061,-0.671,-0.061,302.738
121324,141684,9298,-0.123,0.998,0.2,-0.061,-0.671,-0.061,302.741
121324,141648,11333,-0.123,1.006,0.203,-0.183,-0.488,0.061,302.748
121318,141684,9298,-0.123,1.009,0.203,-0.183,-0.488,0.061,302.751
121318,141665,11327,-0.12,1.007,0.202,-0.671,0.244,0.122,302.757
121316,141684,9298,-0.124,1,0.198,-0.671,0.244,0.122,302.761
121316,141654,11354,-0.125,0.995,0.199,0.549,0.671,0,302.767
121335,141684,9298,-0.126,0.999,0.195,0.549,0.671,0,302.771
121335,141651,11341,-0.128,1.004,0.199,0.183,0.671,0.061,302.777
121318,141684,9298,-0.13,1.004,0.195,0.183,0.671,0.061,302.781
121318,141707,11350,-0.129,0.997,0.19,-0.366,0.732,0.183,302.787
121332,141684,9298,-0.131,0.999,0.193,-0.366,0.732,0.183,302.791
121332,141673,11353,-0.131,1.004,0.199,0.244,0.671,0.305,302.797
121338,141684,9298,-0.133,1.008,0.193,0.244,0.671,0.305,302.801
121338,141690,11341,-0.137,1.009,0.193,-0.488,0.671,0.366,302.807
121354,141684,9298,-0.136,1.009,0.192,-0.488,0.671,0.366,302.811
121354,141698,11344,-0.133,1.006,0.198,-0.244,0.244,0.549,302.817
121325,141684,9298,-0.134,1.005,0.198,-0.244,0.244,0.549,302.821
121325,141687,11348,-0.133,1.002,0.195,-0.183,-0.122,0.732,302.827
121330,141684,9298,-0.13,1.001,0.191,-0.183,-0.122,0.732,302.83
121330,141668,11338,-0.129,1.003,0.194,-1.28,-0.305,0.671,302.837
121313,141684,9298,-0.129,1.007,0.197,-1.28,-0.305,0.671,302.84
121313,141703,11340,-0.126,1.006,0.204,-0.915,-0.122,0.427,302.847
121326,141684,9298,-0.125,1.004,0.205,-0.915,-0.122,0.427,302.85
121326,141680,11340,-0.124,1.006,0.201,0.488,0.061,0.244,302.856
121299,141684,9298,-0.126,1.007,0.197,0.488,0.061,0.244,302.86
121299,141709,11342,-0.126,1.009,0.198,0.549,0.427,0.366,302.866
121313,141684,9298,-0.126,1.006,0.198,0.549,0.427,0.366,302.87
121313,141693,11348,-0.129,1.006,0.198,0.244,0.549,0.183,302.876
121310,141684,9298,-0.131,1.006,0.195,0.244,0.549,0.183,302.88
121310,141680,11351,-0.132,1.005,0.197,-0.061,0.793,-0.122,302.886
121317,141684,9298,-0.137,1.003,0.2,-0.061,0.793,-0.122,302.89
121317,141664,11349,-0.137,1.001,0.2,-0.061,0.732,-0.305,302.896
121319,141684,9298,-0.135,1.003,0.199,-0.061,0.732,-0.305,302.9
121319,141698,11337,-0.133,1.003,0.201,0.122,0.427,0.183,302.906
121319,141684,9298,-0.129,1.005,0.203,0.122,0.427,0.183,302.91
121319,141682,11342,-0.127,1.008,0.196,-0.061,-0.061,0.61,302.916
121314,141684,9298,-0.123,1.005,0.194,-0.061,-0.061,0.61,302.92
121314,141661,11343,-0.124,0.997,0.199,0.122,-0.122,0.427,302.926
121318,141684,9298,-0.124,0.997,0.199,0.122,-0.122,0.427,302.929
121318,141681,11344,-0.124,0.994,0.197,0.366,0.305,0.427,302.936
121314,141684,9298,-0.124,0.994,0.197,0.366,0.305,0.427,302.939
121314,141692,11343,-0.13,1.002,0.191,-0.183,0.732,0.549,302.946
121323,141684,9298,-0.13,1.002,0.191,-0.183,0.732,0.549,302.949
121323,141664,11360,-0.135,1.004,0.194,0.305,0.915,0.366,302.955
121342,141684,9298,-0.135,1.004,0.194,0.305,0.915,0.366,302.959
121342,141681,11351,-0.135,1.016,0.195,1.341,0.854,0.427,302.965
121338,141684,9298,-0.135,1.016,0.195,1.341,0.854,0.427,302.969
121338,141672,11334,-0.135,1.019,0.196,1.402,0.793,0.305,302.975
121321,141684,9298,-0.135,1.019,0.196,1.402,0.793,0.305,302.979
121321,141670,11344,-0.131,1.009,0.191,0,0.488,0.183,302.985
121338,141684,9298,-0.131,1.009,0.191,0,0.488,0.183,302.989
121338,141661,11337,-0.133,0.998,0.189,-1.28,0.244,0.488,302.995
121307,141684,9298,-0.133,0.998,0.189,-1.28,0.244,0.488,302.999
121307,141655,11349,-0.129,0.989,0.19,-1.585,0.183,0.488,303.005
121281,141684,9298,-0.129,0.989,0.19,-1.585,0.183,0.488,303.009
121281,141635,11332,-0.129,0.995,0.204,-0.244,0,0.488,303.015
121313,141684,9298,-0.129,0.995,0.204,-0.244,0,0.488,303.019
121313,141637,11335,-0.121,1.011,0.197,0.732,-0.183,0.305,303.025
121297,141684,9298,-0.121,1.011,0.197,0.732,-0.183,0.305,303.028
121297,141667,11344,-0.118,1.013,0.202,1.098,-0.061,0.122,303.035
121301,141684,9298,-0.118,1.013,0.202,1.098,-0.061,0.122,303.038
121301,141681,11340,-0.128,1.01,0.198,0.793,0.793,0.305,303.045
121336,141684,9298,-0.128,1.01,0.198,0.793,0.793,0.305,303.048
121336,141685,11353,-0.131,1,0.19,-0.793,1.037,0,303.054
121326,141684,9298,-0.131,1,0.19,-0.793,1.037,0,303.058
121326,141687,11354,-0.133,0.996,0.192,-1.098,0.61,0.122,303.064
121346,141684,9298,-0.133,0.996,0.192,-1.098,0.61,0.122,303.068
121346,141703,11342,-0.135,0.997,0.199,-1.098,0.61,0.122,303.074
121346,141684,9298,-0.135,0.999,0.197,-0.427,0.305,0.671,303.078
121346,141715,11337,-0.129,1.002,0.192,-0.427,0.305,0.671,303.084
121348,141684,9298,-0.129,1.005,0.197,-0.244,0.244,0.549,303.088
121348,141691,11336,-0.132,1.01,0.197,-0.244,0.244,0.549,303.094
121336,141684,9298,-0.127,1.012,0.199,-0.061,0.244,0.366,303.098
121336,141721,11333,-0.127,1.011,0.196,-0.061,0.244,0.366,303.104
121340,141684,9298,-0.13,1.007,0.193,0.122,0.488,0.427,303.108
121340,141731,11349,-0.13,1.007,0.195,0.122,0.488,0.427,303.114
121349,141684,9298,-0.132,1.008,0.195,0.122,0.549,0.244,303.118
121349,141706,11338,-0.127,1.007,0.191,0.122,0.549,0.244,303.124
121334,141684,9298,-0.13,1.008,0.19,-0.305,0.305,0.244,303.127
121334,141708,11337,-0.125,1.007,0.191,-0.305,0.305,0.244,303.134
121347,141684,9298,-0.125,1.002,0.193,-0.854,0.122,0.244,303.137
121347,141718,11334,-0.129,0.999,0.192,-0.854,0.122,0.244,303.144
121364,141684,9298,-0.13,0.999,0.193,-0.915,0.183,0.305,303.147
121364,141700,11345,-0.129,0.995,0.192,-0.915,0.183,0.305,303.153
121375,141684,9298,-0.132,0.996,0.194,-0.244,0.305,0.427,303.157
121375,141714,11348,-0.133,1,0.199,-0.244,0.305,0.427,303.163
121376,141684,9298,-0.131,1.011,0.199,-0.427,0.366,0.488,303.167
121376,141748,11338,-0.132,1.011,0.2,-0.427,0.366,0.488,303.173
121379,141684,9298,-0.131,1.008,0.203,-0.61,0.061,0.549,303.177
121379,141730,11343,-0.129,1.008,0.202,-0.61,0.061,0.549,303.183
121392,141684,9298,-0.129,1.005,0.199,-0.122,0,0.488,303.187
121392,141744,11345,-0.128,1.003,0.194,-0.122,0,0.488,303.193
121376,141684,9298,-0.13,1.005,0.19,-0.854,0.244,0.488,303.197
121376,141739,11355,-0.131,1.005,0.184,-0.854,0.244,0.488,303.203
121383,141684,9298,-0.131,1.005,0.191,-1.159,0.305,0.244,303.207
121383,141723,11338,-0.129,0.997,0.198,-1.159,0.305,0.244,303.213
121377,141684,9298,-0.131,0.997,0.196,0.122,0.061,0.366,303.217
121377,141749,11345,-0.131,1.004,0.197,0.122,0.061,0.366,303.223
121355,141684,9298,-0.129,1.008,0.194,-0.122,-0.183,0.549,303.226
121355,141690,11329,-0.13,1.008,0.195,-0.122,-0.183,0.549,303.233
121361,141684,9298,-0.13,1.008,0.196,-0.488,0.183,0.488,303.236
121361,141730,11337,-0.13,1.011,0.2,-0.488,0.183,0.488,303.243
121361,141684,9298,-0.129,1.01,0.202,0,0.305,0.488,303.246
121361,141701,11341,-0.128,1.006,0.201,0,0.305,0.488,303.252
121373,141684,9298,-0.128,1.003,0.205,-0.122,0,0.427,303.256
121373,141697,11348,-0.128,1.005,0.207,-0.122,0,0.427,303.262
121369,141684,9298,-0.126,0.999,0.203,-0.244,0.122,0.305,303.266
121369,141748,11345,-0.123,0.997,0.198,-0.244,0.122,0.305,303.272
121390,141684,9298,-0.124,1,0.196,0.061,0.427,0.183,303.276
121390,141723,11356,-0.128,1.005,0.194,0.061,0.427,0.183,303.282
121376,141684,9298,-0.129,1.005,0.196,0.427,0.732,0.061,303.286
121376,141745,11338,-0.131,1.005,0.194,0.427,0.732,0.061,303.292
121366,141684,9298,-0.135,1.009,0.2,1.524,0.915,0.061,303.296
121366,141730,11350,-0.131,1.007,0.205,1.524,0.915,0.061,303.302
121361,141684,9298,-0.129,1.003,0.202,1.402,0.61,0.061,303.306
121361,141740,11328,-0.13,1.005,0.191,1.402,0.61,0.061,303.312
121365,141684,9298,-0.13,1.006,0.182,-0.488,0.488,0.305,303.316
121365,141736,11354,-0.131,1.007,0.185,-0.488,0.488,0.305,303.322
121363,141684,9298,-0.13,1.004,0.194,-0.61,0.366,0.549,303.325
121363,141722,11344,-0.134,0.999,0.193,-0.61,0.366,0.549,303.332
121405,141684,9298,-0.131,1,0.192,0.061,0.305,0.488,303.335
121405,141741,11320,-0.126,1.005,0.194,0.061,0.305,0.488,303.342
121382,141684,9298,-0.128,1.007,0.192,-0.183,0.244,0.427,303.345
121382,141740,11361,-0.13,1.014,0.191,-0.183,0.244,0.427,303.351
121409,141684,9298,-0.13,1.012,0.192,-0.488,0.305,0.305,303.355
121409,141732,11355,-0.131,1.01,0.191,-0.488,0.305,0.305,303.361
121384,141684,9298,-0.13,1.009,0.199,-0.915,0.122,0.305,303.365
121384,141743,11328,-0.13,1.002,0.2,-0.915,0.122,0.305,303.371
121383,141684,9298,-0.13,1,0.197,-0.732,0,0.549,303.375
121383,141740,11347,-0.13,1,0.196,-0.732,0,0.549,303.381
121402,141684,9298,-0.128,1.001,0.196,-0.122,0,0.488,303.385
121402,141731,11333,-0.128,1.007,0.191,-0.122,0,0.488,303.391
121402,141684,9298,-0.13,1.008,0.191,0.244,0.366,0.122,303.395
121402,141735,11353,-0.13,1.007,0.198,0.244,0.366,0.122,303.401
121419,141684,9298,-0.13,1.007,0.198,0.976,0.305,-0.061,303.405
121419,141750,11350,-0.131,1.007,0.2,0.976,0.305,-0.061,303.411
121401,141684,9298,-0.13,1.012,0.201,0.976,0.366,0.183,303.415
121401,141779,11345,-0.132,1.011,0.2,0.976,0.366,0.183,303.421
121415,141684,9298,-0.13,1.005,0.197,-0.244,0.427,0.183,303.424
121415,141774,11353,-0.131,1.005,0.195,-0.244,0.427,0.183,303.431
121423,141684,9298,-0.13,1,0.193,-1.646,0.122,0.244,303.434
121423,141767,11339,-0.129,0.996,0.197,-1.646,0.122,0.244,303.44
121423,141684,9298,-0.132,0.993,0.198,-0.915,0,0.183,303.444
121423,141749,11341,-0.135,0.995,0.195,-0.915,0,0.183,303.45
121389,141684,9298,-0.132,1,0.196,-0.488,0.183,0.183,303.454
121389,141755,11341,-0.13,1.005,0.196,-0.488,0.183,0.183,303.46
121421,141684,9298,-0.128,1.007,0.198,-0.732,0.061,0.488,303.464
121421,141733,11347,-0.129,1.01,0.195,-0.732,0.061,0.488,303.47
121426,141684,9298,-0.126,1.007,0.191,0.793,-0.122,0.549,303.474
121426,141765,11337,-0.124,1.005,0.199,0.793,-0.122,0.549,303.48
121429,141684,9298,-0.122,1.005,0.201,0.305,-0.061,0.366,303.484
121429,141790,11336,-0.126,1.005,0.199,0.305,-0.061,0.366,303.49
121410,141684,9298,-0.127,1.001,0.197,-0.549,0.488,0.488,303.494
121410,141774,11334,-0.127,1.001,0.194,-0.549,0.488,0.488,303.5
121408,141684,9298,-0.131,1.001,0.197,-0.427,0.793,0.427,303.504
121408,141797,11339,-0.132,1.003,0.197,-0.427,0.793,0.427,303.51
121395,141684,9298,-0.132,1.003,0.197,-0.427,0.793,0.427,303.514
121395,141754,11336,-0.134,1.004,0.203,-0.488,0.732,0.427,303.52
121419,141684,9298,-0.134,1.004,0.203,-0.488,0.732,0.427,303.523
121419,141758,11331,-0.133,1.009,0.198,-0.122,0.549,0.488,303.53
121408,141684,9298,-0.133,1.009,0.198,-0.122,0.549,0.488,303.533
121408,141740,11359,-0.13,1.013,0.203,0.183,0.305,0.427,303.54
121396,141684,9298,-0.13,1.013,0.203,0.183,0.305,0.427,303.543
121396,141770,11367,-0.127,1.006,0.198,0.549,0.305,0.366,303.549
121420,141684,9298,-0.127,1.006,0.198,0.549,0.305,0.366,303.553
121420,141787,11348,-0.129,1.004,0.194,0.122,0.427,0.244,303.559
121423,141684,9298,-0.129,1.004,0.194,0.122,0.427,0.244,303.563
121423,141771,11343,-0.132,0.999,0.196,-0.488,0.671,0.366,303.569
121423,141684,9298,-0.132,0.999,0.196,-0.488,0.671,0.366,303.573
121423,141740,11341,-0.128,0.994,0.195,0,0.671,0.305,303.579
121415,141684,9298,-0.128,0.994,0.195,0,0.671,0.305,303.583
121415,141756,11333,-0.128,1.004,0.193,0.793,0.366,0.366,303.589
121418,141684,9298,-0.128,1.004,0.193,0.793,0.366,0.366,303.593
121418,141754,11342,-0.128,1.012,0.195,0.366,0.427,0.305,303.599
121412,141684,9298,-0.128,1.012,0.195,0.366,0.427,0.305,303.603
121412,141776,11330,-0.134,1.01,0.197,-0.061,0.671,0.305,303.609
121410,141684,9298,-0.134,1.01,0.197,-0.061,0.671,0.305,303.613
121410,141762,11342,-0.132,1.01,0.197,0,0.549,0.122,303.619
121445,141684,9298,-0.132,1.01,0.197,0,0.549,0.122,303.622
121445,141770,11342,-0.128,1.006,0.199,-0.488,0.244,0.183,303.629
121409,141684,9298,-0.128,1.006,0.199,-0.488,0.244,0.183,303.632
121409,141755,11349,-0.127,0.998,0.193,-0.915,0,0.549,303.639
121393,141684,9298,-0.127,0.998,0.193,-0.915,0,0.549,303.642
121393,141738,11340,-0.126,0.999,0.199,-0.549,0.061,0.427,303.648
121406,141684,9298,-0.126,0.999,0.199,-0.549,0.061,0.427,303.652
121406,141767,11341,-0.129,0.999,0.2,0.244,0.305,0.305,303.658
121412,141684,9298,-0.13,1.002,0.199,0.244,0.305,0.305,303.662
121412,141758,11341,-0.128,1.004,0.195,0.122,0.488,0.122,303.668
121412,141684,9298,-0.13,1.005,0.193,0.122,0.488,0.122,303.672
121412,141779,11343,-0.132,1.003,0.189,-0.122,0.61,-0.122,303.678
121393,141684,9298,-0.131,0.999,0.186,-0.122,0.61,-0.122,303.682
121393,141765,11341,-0.133,1.001,0.191,0.061,0.549,0.183,303.688
121403,141684,9298,-0.134,1.006,0.194,0.061,0.549,0.183,303.692
121403,141740,11327,-0.136,1.01,0.195,-0.61,0.244,0.488,303.698
121406,141684,9298,-0.137,1.01,0.198,-0.61,0.244,0.488,303.702
121406,141754,11347,-0.131,1.006,0.201,-1.037,-0.122,0.61,303.708
121443,141684,9298,-0.129,1,0.201,-1.037,-0.122,0.61,303.712
121443,141752,11339,-0.126,1.005,0.197,-0.549,-0.366,0.732,303.718
121414,141684,9298,-0.129,1.007,0.197,-0.549,-0.366,0.732,303.721
121414,141765,11344,-0.131,1.011,0.197,-0.427,0.061,0.671,303.728
121417,141684,9298,-0.127,1.01,0.199,-0.427,0.061,0.671,303.731
121417,141763,11345,-0.126,1.007,0.195,0.244,0.366,0.244,303.737
121421,141684,9298,-0.128,1.008,0.195,0.244,0.366,0.244,303.741
121421,141756,11339,-0.129,1.011,0.195,0.122,0.366,0.061,303.747
121428,141684,9298,-0.125,1.009,0.197,0.122,0.366,0.061,303.751
121428,141765,11341,-0.132,1.008,0.196,-0.671,0.122,0.183,303.757
121437,141684,9298,-0.128,1.007,0.194,-0.671,0.122,0.183,303.761
121437,141758,11346,-0.129,1.003,0.197,-0.671,0.183,0,303.767
121422,141684,9298,-0.132,1.003,0.2,-0.671,0.183,0,303.771
121422,141769,11348,-0.131,0.999,0.2,-1.159,0.061,0.122,303.777
121408,141684,9298,-0.13,0.996,0.198,-1.159,0.061,0.122,303.781
121408,141753,11351,-0.13,0.994,0.198,-0.915,0.305,0.244,303.787
121425,141684,9298,-0.129,0.994,0.201,-0.915,0.305,0.244,303.791
121425,141770,11332,-0.131,0.993,0.204,-0.366,0.244,0.305,303.797
121423,141684,9298,-0.128,0.996,0.197,-0.366,0.244,0.305,303.801
121423,141755,11341,-0.126,1.002,0.196,-0.244,0.122,0.61,303.807
121401,141684,9298,-0.122,1.003,0.199,-0.244,0.122,0.61,303.811
121401,141755,11350,-0.122,1.006,0.206,0.305,0.244,0.671,303.817
121413,141684,9298,-0.125,1.008,0.204,0.305,0.244,0.671,303.82
121413,141747,11351,-0.128,1.009,0.203,0.122,0.61,0.549,303.827
121404,141684,9298,-0.128,1.008,0.201,0.122,0.61,0.549,303.83
121404,141747,11348,-0.129,1.009,0.202,0,0.671,0.427,303.836
121407,141684,9298,-0.128,1.006,0.198,0,0.671,0.427,303.84
121407,141760,11342,-0.13,1.006,0.198,-0.122,0.976,0.366,303.846
121429,141684,9298,-0.131,1.002,0.195,-0.122,0.976,0.366,303.85
121429,141721,11333,-0.133,1.003,0.189,-0.427,1.037,0.366,303.856
121417,141684,9298,-0.136,1,0.193,-0.427,1.037,0.366,303.86
121417,141773,11342,-0.134,1,0.195,0.122,0.793,0.366,303.866
121409,141684,9298,-0.133,1.002,0.195,0.122,0.793,0.366,303.87
121409,141781,11343,-0.132,1.007,0.197,1.341,0.427,0.122,303.876
121415,141684,9298,-0.131,1.008,0.201,1.341,0.427,0.122,303.88
121415,141738,11340,-0.131,1.01,0.196,1.037,0.427,0.061,303.886
121392,141684,9298,-0.126,1.006,0.192,1.037,0.427,0.061,303.89
121392,141763,11343,-0.128,1.005,0.191,0.183,0.549,0.366,303.896
121395,141684,9298,-0.131,1.003,0.193,0.183,0.549,0.366,303.9
121395,141750,11326,-0.133,1.005,0.192,-0.366,0.732,0.61,303.906
121413,141684,9298,-0.13,1.003,0.197,-0.366,0.732,0.61,303.91
121413,141748,11337,-0.13,1.001,0.201,-0.61,0.488,0.427,303.916
121407,141684,9298,-0.13,1.002,0.199,-0.61,0.488,0.427,303.919
121407,141754,11338,-0.127,1.002,0.194,-0.427,0.244,0.183,303.926
121422,141684,9298,-0.128,1.002,0.191,-0.427,0.244,0.183,303.929
121422,141772,11319,-0.126,1.001,0.193,-0.427,0.244,0.183,303.935
121414,141684,9298,-0.129,1.003,0.201,-0.427,0.244,0.183,303.939
121414,141743,11329,-0.129,1.002,0.198,0.305,0.671,0.549,303.945
121404,141684,9298,-0.129,1.004,0.196,0.305,0.671,0.549,303.949
121404,141761,11339,-0.131,1.01,0.193,-0.305,0.793,0.427,303.955
121443,141684,9298,-0.134,1.007,0.19,-0.305,0.793,0.427,303.959
121443,141788,11332,-0.133,1.002,0.195,-0.305,0.549,0.488,303.965
121443,141684,9298,-0.132,1.003,0.198,-0.305,0.549,0.488,303.969
121443,141773,11315,-0.131,1.008,0.193,0.122,0.244,0.61,303.975
121430,141684,9298,-0.127,1.009,0.19,0.122,0.244,0.61,303.979
121430,141766,11337,-0.126,1.007,0.188,-0.976,0.244,0.61,303.985
121433,141684,9298,-0.127,1.006,0.189,-0.976,0.244,0.61,303.989
121433,141767,11337,-0.125,1.003,0.196,-1.22,0.305,0.854,303.995
121428,141684,9298,-0.126,0.996,0.198,-1.22,0.305,0.854,303.999
121428,141793,11334,-0.128,0.998,0.198,-1.28,0.244,0.793,304.005
121431,141684,9298,-0.128,1.001,0.196,-1.28,0.244,0.793,304.009
121431,141794,11332,-0.128,1.004,0.192,-1.463,0.488,0.305,304.015
121437,141684,9298,-0.132,1.003,0.193,-1.463,0.488,0.305,304.018
121437,141795,11348,-0.135,1.005,0.198,-0.488,0.671,0.061,304.025
121447,141684,9298,-0.137,1.012,0.198,-0.488,0.671,0.061,304.028
121447,141782,11346,-0.133,1.013,0.204,0.366,0.488,-0.122,304.034
121457,141684,9298,-0.129,1.01,0.204,0.366,0.488,-0.122,304.038
121457,141820,11336,-0.13,1.008,0.2,1.037,0.122,0.061,304.044
121464,141684,9298,-0.13,1.004,0.195,1.037,0.122,0.061,304.048
121464,141779,11323,-0.128,1.008,0.195,0.366,0.244,0.244,304.054
121485,141684,9298,-0.128,1.009,0.197,0.366,0.244,0.244,304.058
121485,141788,11329,-0.129,0.997,0.195,-0.732,0.305,0.183,304.064
121434,141684,9298,-0.126,0.994,0.195,-0.732,0.305,0.183,304.068
121434,141792,11336,-0.127,0.994,0.196,-0.427,0.183,0.244,304.074
121446,141684,9298,-0.128,0.995,0.194,-0.427,0.183,0.244,304.078
121446,141785,11336,-0.128,0.999,0.194,-0.305,0.122,0.427,304.084
121444,141684,9298,-0.128,1.002,0.2,-0.305,0.122,0.427,304.088
121444,141810,11335,-0.127,1.008,0.197,0.122,0.305,0.427,304.094
121440,141684,9298,-0.127,1.008,0.197,0.122,0.305,0.427,304.098
121440,141807,11339,-0.128,1.01,0.203,0.427,0.549,0.427,304.104
121450,141684,9298,-0.128,1.01,0.203,0.427,0.549,0.427,304.107
121450,141799,11339,-0.128,1.007,0.194,-0.488,0.549,0.488,304.114
121449,141684,9298,-0.128,1.007,0.194,-0.488,0.549,0.488,304.117
121449,141800,11341,-0.13,1.005,0.195,-0.305,0.488,0.427,304.124
121459,141684,9298,-0.13,1.005,0.195,-0.305,0.488,0.427,304.127
121459,141810,11327,-0.13,1.008,0.2,0,0.61,0.305,304.133
121472,141940,9298,-0.13,1.008,0.2,0,0.61,0.305,304.137
121472,141836,11345,-0.132,1.005,0.199,-0.183,0.488,0.366,304.143
121485,141684,9298,-0.132,1.005,0.199,-0.183,0.488,0.366,304.147
121485,141803,11338,-0.127,0.999,0.198,-0.183,0.427,0.305,304.153
121469,141684,9298,-0.127,0.999,0.198,-0.183,0.427,0.305,304.157
121469,141817,11340,-0.131,1.001,0.189,-0.793,0.549,0.366,304.163
121486,141684,9298,-0.131,1.001,0.189,-0.793,0.549,0.366,304.167
121486,141814,11335,-0.131,1,0.185,-0.488,0.427,0.122,304.173
121486,141684,9298,-0.131,1,0.185,-0.488,0.427,0.122,304.177
121486,141807,11320,-0.131,1.009,0.203,0.061,0.244,0.183,304.183
121478,141684,9298,-0.131,1.009,0.203,0.061,0.244,0.183,304.187
121478,141822,11325,-0.132,1.01,0.204,0.427,0.183,0.427,304.193
121487,141684,9298,-0.132,1.01,0.204,0.427,0.183,0.427,304.197
121487,141814,11329,-0.129,1.01,0.2,0,-0.061,0.427,304.203
121460,141684,9298,-0.129,1.01,0.2,0,-0.061,0.427,304.206
121460,141791,11327,-0.125,1.011,0.193,-0.854,0.122,0.244,304.213
121491,141684,9298,-0.125,1.011,0.193,-0.854,0.122,0.244,304.216
121491,141806,11322,-0.13,1.001,0.198,-0.366,0.549,0.061,304.223
121464,141684,9298,-0.13,1.001,0.198,-0.366,0.549,0.061,304.226
121464,141774,11348,-0.132,0.995,0.2,0,0.793,-0.061,304.232
121482,141684,9298,-0.132,0.995,0.2,0,0.793,-0.061,304.236
121482,141784,11309,-0.132,0.991,0.196,0,0.793,-0.061,304.242
121470,141684,9298,-0.132,0.993,0.191,-0.244,0.732,0.122,304.246
121470,141796,11319,-0.13,0.995,0.193,-0.244,0.732,0.122,304.252
121473,141684,9298,-0.13,1,0.19,0.122,0.671,0.488,304.256
121473,141819,11348,-0.132,1.001,0.185,0.122,0.671,0.488,304.262
121484,141684,9298,-0.132,1.008,0.191,0.61,0.427,0.366,304.266
121484,141814,11328,-0.13,1.012,0.195,0.61,0.427,0.366,304.272
121486,141684,9298,-0.128,1.015,0.199,0.854,0.244,0.366,304.276
121486,141821,11338,-0.127,1.013,0.2,0.854,0.244,0.366,304.282
121473,141940,9298,-0.124,1.011,0.194,0.671,0.122,0.366,304.286
121473,141834,11328,-0.124,1.013,0.195,0.671,0.122,0.366,304.292
121484,141940,9298,-0.129,1.011,0.191,-0.854,0.305,0.549,304.296
121484,141846,11339,-0.127,1.009,0.192,-0.854,0.305,0.549,304.302
121497,141940,9298,-0.13,1.002,0.193,-1.28,0.549,0.122,304.305
121497,141832,11338,-0.13,0.993,0.193,-1.28,0.549,0.122,304.312
121492,141684,9298,-0.13,0.997,0.193,-0.61,0.61,0.061,304.315
121492,141816,11337,-0.135,1.003,0.195,-0.61,0.61,0.061,304.322
121503,141684,9298,-0.136,1.007,0.198,-0.305,0.305,0.305,304.325
121503,141818,11348,-0.132,1.009,0.202,-0.305,0.305,0.305,304.331
121494,141940,9298,-0.131,1.008,0.204,0.488,0.122,0.366,304.335
121494,141835,11330,-0.126,1.005,0.205,0.488,0.122,0.366,304.341
121483,141940,9298,-0.128,1.006,0.198,0.427,-0.061,0.366,304.345
121483,141830,11328,-0.128,1.007,0.195,0.427,-0.061,0.366,304.351
121523,141940,9298,-0.131,1.003,0.192,-0.305,0.122,0.366,304.355
121523,141839,11340,-0.129,1,0.195,-0.305,0.122,0.366,304.361
121515,141940,9298,-0.128,0.995,0.194,-0.183,0.488,0.305,304.365
121515,141847,11327,-0.129,0.999,0.193,-0.183,0.488,0.305,304.371
121500,141940,9298,-0.13,0.999,0.194,-0.244,0.305,0.305,304.375
121500,141839,11351,-0.13,0.999,0.194,-0.244,0.305,0.305,304.381
121499,141940,9298,-0.127,1.004,0.194,-0.061,-0.061,0.488,304.385
121499,141827,11356,-0.129,1.006,0.201,-0.061,-0.061,0.488,304.391
121505,141940,9298,-0.127,1.007,0.201,-0.488,-0.122,0.488,304.395
121505,141847,11327,-0.123,1.01,0.2,-0.488,-0.122,0.488,304.401
121509,141940,9298,-0.125,1.007,0.197,-0.732,0.122,0.366,304.404
121509,141836,11333,-0.127,1.003,0.203,-0.732,0.122,0.366,304.411
121515,141940,9298,-0.128,1.002,0.198,-0.61,0.671,0.549,304.414
121515,141826,11331,-0.13,1.004,0.199,-0.61,0.671,0.549,304.421
121506,141940,9298,-0.132,1.004,0.204,-0.244,0.854,0.488,304.424
121506,141856,11324,-0.129,1.002,0.201,-0.244,0.854,0.488,304.43
121485,141940,9298,-0.129,1.008,0.198,-0.061,0.793,0.549,304.434
121485,141836,11334,-0.13,1.007,0.194,-0.061,0.793,0.549,304.44
121527,141940,9298,-0.132,1.004,0.195,-0.122,0.61,0.427,304.444
121527,141864,11325,-0.135,1.003,0.2,-0.122,0.61,0.427,304.45
121501,141940,9298,-0.139,1.003,0.196,0.488,0.732,0.427,304.454
121501,141854,11346,-0.136,1.006,0.19,0.488,0.732,0.427,304.46
121494,141684,9298,-0.133,1.006,0.191,0.732,0.793,0.183,304.464
121494,141808,11348,-0.135,1.006,0.194,0.732,0.793,0.183,304.47
121494,141940,9298,-0.134,1.011,0.193,0.305,0.549,0.366,304.474
121494,141840,11335,-0.134,1.01,0.195,0.305,0.549,0.366,304.48
121499,141940,9298,-0.127,1.008,0.193,-0.549,0,0.732,304.484
121499,141855,11335,-0.125,1.011,0.192,-0.549,0,0.732,304.49
121493,141940,9298,-0.124,1.012,0.193,-1.341,-0.488,0.366,304.494
121493,141845,11331,-0.121,1.006,0.199,-1.341,-0.488,0.366,304.5
121476,141940,9298,-0.12,1,0.196,-0.61,-0.427,0.122,304.503
121476,141839,11343,-0.12,1.003,0.196,-0.61,-0.427,0.122,304.51
121491,141940,9298,-0.124,1,0.193,-0.427,0.061,0.244,304.513
121491,141826,11335,-0.127,0.997,0.193,-0.427,0.061,0.244,304.52
121508,141940,9298,-0.131,0.994,0.197,-0.061,0.732,0.061,304.523
121508,141846,11337,-0.133,0.994,0.197,-0.061,0.732,0.061,304.529
121510,141940,9298,-0.132,0.998,0.201,-0.122,0.793,0.061,304.533
121510,141862,11338,-0.137,1,0.196,-0.122,0.793,0.061,304.539
121505,141684,9298,-0.137,1.005,0.198,-0.488,0.488,0.366,304.543
121505,141820,11334,-0.137,1.01,0.202,-0.488,0.488,0.366,304.549
121509,141684,9298,-0.134,1.01,0.204,-0.122,0.183,0.549,304.553
121509,141818,11332,-0.133,1.011,0.204,-0.122,0.183,0.549,304.559
121477,141940,9298,-0.129,1.012,0.198,-0.366,0.122,0.61,304.563
121477,141833,11332,-0.127,1.009,0.197,-0.366,0.122,0.61,304.569
121472,141684,9298,-0.126,1.005,0.194,-0.732,0.244,0.671,304.573
121472,141808,11313,-0.128,1.005,0.195,-0.732,0.244,0.671,304.579
121487,141940,9298,-0.129,1.007,0.195,-0.793,0.183,0.305,304.583
121487,141839,11328,-0.126,1.001,0.193,-0.793,0.183,0.305,304.589
121513,141940,9298,-0.128,1,0.193,-0.732,0.305,0.122,304.593
121513,141856,11333,-0.128,1.001,0.193,-0.732,0.305,0.122,304.599
121506,141940,9298,-0.128,1.002,0.198,0.244,0.366,-0.061,304.602
121506,141824,11343,-0.133,1.005,0.199,0.244,0.366,-0.061,304.609
121487,141940,9298,-0.131,1.005,0.197,0.854,0.488,-0.061,304.612
121487,141860,11337,-0.13,1.005,0.195,0.854,0.488,-0.061,304.618
121491,141940,9298,-0.134,1.005,0.196,0.061,0.488,0.183,304.622
121491,141836,11340,-0.131,1.005,0.193,0.061,0.488,0.183,304.628
121511,141940,9298,-0.129,1.003,0.191,-0.915,0.183,0.305,304.632
121511,141838,11335,-0.131,1.003,0.198,-0.915,0.183,0.305,304.638
121515,141940,9298,-0.133,1.006,0.203,-1.22,0.061,0.183,304.642
121515,141830,11345,-0.131,1.011,0.203,-1.22,0.061,0.183,304.648
121496,141940,9298,-0.127,1.008,0.202,-1.159,-0.183,0,304.652
121496,141845,11355,-0.129,1.005,0.202,-1.159,-0.183,0,304.658
121489,141684,9298,-0.128,1.007,0.201,0.427,0.183,0.061,304.662
121489,141811,11331,-0.129,1.008,0.203,0.427,0.183,0.061,304.668
121504,141684,9298,-0.128,1.008,0.201,0.244,0.488,0.183,304.672
121504,141805,11330,-0.127,1.006,0.199,0.244,0.488,0.183,304.678
121482,141684,9298,-0.127,1.006,0.199,0.244,0.488,0.183,304.682
121482,141823,11349,-0.127,0.992,0.192,-0.366,0.488,0.305,304.688
121492,141940,9298,-0.127,0.992,0.192,-0.366,0.488,0.305,304.691
121492,141827,11346,-0.127,0.996,0.193,-0.061,0.488,0.305,304.698
121485,141940,9298,-0.127,0.996,0.193,-0.061,0.488,0.305,304.701
121485,141834,11336,-0.134,0.999,0.197,-0.549,0.427,0.244,304.708
121501,141940,9298,-0.134,0.999,0.197,-0.549,0.427,0.244,304.711
121501,141835,11329,-0.134,1.004,0.2,0.244,0.732,0.366,304.717
121511,141684,9298,-0.134,1.004,0.2,0.244,0.732,0.366,304.721
121511,141817,11340,-0.135,1.011,0.202,0.61,0.976,0.732,304.727
121529,141684,9298,-0.135,1.011,0.202,0.61,0.976,0.732,304.731
121529,141819,11335,-0.134,1.008,0.195,-0.061,0.854,0.793,304.737
121488,141684,9298,-0.134,1.008,0.195,-0.061,0.854,0.793,304.741
121488,141808,11322,-0.129,1.016,0.189,-0.061,0.366,0.488,304.747
121510,141940,9298,-0.129,1.016,0.189,-0.061,0.366,0.488,304.751
121510,141835,11335,-0.129,1.012,0.201,0.061,0.122,0.061,304.757
121502,141940,9298,-0.129,1.012,0.201,0.061,0.122,0.061,304.761
121502,141836,11341,-0.129,1.003,0.198,0.427,0.061,0.183,304.767
121497,141940,9298,-0.129,1.003,0.198,0.427,0.061,0.183,304.771
121497,141848,11328,-0.127,1.002,0.191,-0.183,0.427,0.183,304.777
121517,141940,9298,-0.127,1.002,0.191,-0.183,0.427,0.183,304.781
121517,141845,11357,-0.132,0.995,0.199,-0.976,0.366,0.061,304.787
121528,141940,9298,-0.132,0.995,0.199,-0.976,0.366,0.061,304.791
121528,141846,11338,-0.133,1.006,0.2,-0.183,0.549,-0.061,304.797
121516,141940,9298,-0.133,1.006,0.2,-0.183,0.549,-0.061,304.8
121516,141848,11323,-0.131,1.007,0.2,0.671,0.549,-0.061,304.807
121526,141940,9298,-0.131,1.007,0.2,0.671,0.549,-0.061,304.81
121526,141838,11319,-0.132,1.009,0.196,0.793,0.549,0.244,304.816
121509,141684,9298,-0.131,1.011,0.199,0.793,0.549,0.244,304.82
121509,141818,11334,-0.136,1.008,0.202,-0.305,0.488,0.549,304.826
121505,141940,9298,-0.133,1.005,0.198,-0.305,0.488,0.549,304.83
121505,141841,11329,-0.13,0.995,0.196,-1.402,0.488,0.671,304.836
121512,141940,9298,-0.131,0.991,0.196,-1.402,0.488,0.671,304.84
121512,141874,11325,-0.132,0.994,0.192,-1.037,0.305,0.732,304.846
121531,141940,9298,-0.131,1.002,0.193,-1.037,0.305,0.732,304.85
121531,141873,11344,-0.13,1.008,0.191,-0.793,0.183,0.61,304.856
121548,141940,9298,-0.131,1.013,0.189,-0.793,0.183,0.61,304.86
121548,141874,11344,-0.131,1.017,0.198,0.366,0.183,0.488,304.866
121554,141940,9298,-0.129,1.02,0.207,0.366,0.183,0.488,304.87
121554,141895,11338,-0.127,1.019,0.204,0.61,0.183,0.366,304.876
121567,141940,9298,-0.128,1.015,0.197,0.61,0.183,0.366,304.88
121567,141888,11320,-0.126,1.01,0.196,-0.488,0.366,0.122,304.886
121550,141940,9298,-0.128,1.003,0.193,-0.488,0.366,0.122,304.889
121550,141899,11329,-0.131,1.004,0.196,-1.28,0.366,-0.122,304.896
121572,141940,9298,-0.134,1,0.199,-1.28,0.366,-0.122,304.899
121572,141879,11319,-0.134,0.991,0.194,-1.463,0.366,-0.122,304.906
121541,141940,9298,-0.132,0.99,0.193,-1.463,0.366,-0.122,304.909
121541,141899,11349,-0.133,0.992,0.193,-0.305,0.305,0.244,304.915
121559,141940,9298,-0.133,0.995,0.199,-0.305,0.305,0.244,304.919
121559,141892,11341,-0.133,1.006,0.202,0.122,0.244,0.488,304.925
121549,141940,9298,-0.132,1.01,0.201,0.122,0.244,0.488,304.929
121549,141895,11333,-0.128,1.009,0.203,0.122,0.244,0.427,304.935
121563,141940,9298,-0.126,1.006,0.202,0.122,0.244,0.427,304.939
121563,141881,11322,-0.126,1.008,0.198,0.122,0.244,0.366,304.945
121570,141940,9298,-0.127,1.009,0.2,0.122,0.244,0.366,304.949
121570,141892,11326,-0.126,1.005,0.2,-0.427,0.427,0.427,304.955
121556,141940,9298,-0.129,1.007,0.199,-0.427,0.427,0.427,304.959
121556,141903,11331,-0.132,1.005,0.198,-0.244,0.671,0.366,304.965
121591,141940,9298,-0.129,1.004,0.2,-0.244,0.671,0.366,304.969
121591,141921,11333,-0.131,1.002,0.202,0.488,0.671,-0.061,304.975
121562,141940,9298,-0.132,1.005,0.199,0.488,0.671,-0.061,304.979
121562,141904,11324,-0.135,1.006,0.192,0,0.671,0.122,304.985
121583,141940,9298,-0.135,1.005,0.192,0,0.671,0.122,304.988
121583,141895,11326,-0.135,1.001,0.19,-0.244,0.61,0.061,304.995
121564,141940,9298,-0.133,1.001,0.188,-0.244,0.61,0.061,304.998
121564,141925,11320,-0.133,1.001,0.195,0.061,0.366,0.061,305.005
121563,141940,9298,-0.135,1,0.197,0.061,0.366,0.061,305.008
121563,141873,11332,-0.13,0.996,0.194,-0.061,-0.061,0.244,305.014
121579,141940,9298,-0.129,0.998,0.195,-0.061,-0.061,0.244,305.018
121579,141909,11322,-0.128,1.003,0.196,-0.366,-0.061,0.61,305.024
121560,141940,9298,-0.129,1.006,0.195,-0.366,-0.061,0.61,305.028
121560,141908,11336,-0.131,1.006,0.195,-0.488,0.244,0.488,305.034
121580,141940,9298,-0.128,1.007,0.197,-0.488,0.244,0.488,305.038
121580,141871,11335,-0.129,1.008,0.198,-0.183,0.244,0.427,305.044
121533,141940,9298,-0.126,1.005,0.198,-0.183,0.244,0.427,305.048
121533,141919,11337,-0.131,1.005,0.205,-0.183,0.366,0.488,305.054
121566,141940,9298,-0.13,1.007,0.2,-0.183,0.366,0.488,305.058
121566,141901,11332,-0.129,1.009,0.199,-0.854,0.305,0.305,305.064
121575,141940,9298,-0.133,1.007,0.192,-0.854,0.305,0.305,305.068
121575,141899,11328,-0.133,1.005,0.195,-0.549,0.305,0,305.074
121536,141940,9298,-0.133,1.004,0.201,-0.549,0.305,0,305.078
121536,141905,11331,-0.13,1.005,0.202,0.183,0.244,0.061,305.084
121571,141940,9298,-0.132,1.005,0.204,0.183,0.244,0.061,305.087
121571,141888,11324,-0.133,1.009,0.203,0,0.183,0.427,305.094
121573,141940,9298,-0.131,1.014,0.201,0,0.183,0.427,305.097
121573,141905,11337,-0.128,1.009,0.201,-0.793,0,0.305,305.104
121595,141940,9298,-0.128,1.004,0.198,-0.793,0,0.305,305.107
121595,141905,11329,-0.126,0.996,0.198,0.061,0.061,0,305.113
121579,141940,9298,-0.124,0.997,0.196,0.061,0.061,0,305.117
121579,141928,11330,-0.126,1.004,0.191,0.122,0.427,0.122,305.123
121579,141940,9298,-0.128,1.011,0.192,0.122,0.427,0.122,305.127
121579,141911,11317,-0.13,1.012,0.19,-1.159,1.037,0.122,305.133
121595,141940,9298,-0.129,1.011,0.188,-1.159,1.037,0.122,305.137
121595,141912,11324,-0.131,1.005,0.191,0,1.22,-0.061,305.143
121576,141940,9298,-0.133,1,0.19,0,1.22,-0.061,305.147
121576,141897,11326,-0.135,0.997,0.193,0,0.915,0,305.153
121591,141940,9298,-0.134,0.995,0.191,0,0.915,0,305.157
121591,141903,11339,-0.134,0.996,0.194,-1.22,0.61,0.427,305.163
121597,141940,9298,-0.135,1,0.197,-1.22,0.61,0.427,305.167
121597,141923,11346,-0.132,1,0.204,-1.524,0.183,0.488,305.173
121621,141940,9298,-0.134,0.996,0.203,-1.524,0.183,0.488,305.177
121621,141927,11337,-0.133,0.993,0.203,-0.122,0.061,0.427,305.183
121617,141940,9298,-0.132,1,0.209,-0.122,0.061,0.427,305.186
121617,141919,11344,-0.129,1.008,0.21,0.671,0.122,0.793,305.193
121618,141940,9298,-0.129,1.012,0.203,0.671,0.122,0.793,305.196
121618,141923,11335,-0.132,1.014,0.2,0.122,0.427,0.671,305.203
121592,141940,9298,-0.129,1.013,0.196,0.122,0.427,0.671,305.206
121592,141924,11336,-0.128,1.008,0.197,0.122,0.549,0.244,305.212
121592,141940,9298,-0.129,1.008,0.199,0.122,0.549,0.244,305.216
121592,141919,11336,-0.127,1.005,0.2,0.244,0.61,0.244,305.222
121608,141940,9298,-0.131,1.005,0.188,0.244,0.61,0.244,305.226
121608,141936,11330,-0.134,1.005,0.185,0.061,0.671,0.244,305.232
121601,141940,9298,-0.131,1.002,0.184,0.061,0.671,0.244,305.236
121601,141934,11332,-0.134,1.003,0.186,-0.122,0.732,0.244,305.242
121605,141940,9298,-0.13,1.003,0.19,-0.122,0.732,0.244,305.246
121605,141951,11328,-0.132,1.006,0.199,0.122,0.732,0.427,305.252
121648,141940,9298,-0.132,1.006,0.199,0.122,0.732,0.427,305.256
121648,141960,11329,-0.131,1.004,0.203,0.061,0.305,0.366,305.262
121634,141940,9298,-0.131,1.004,0.203,0.061,0.305,0.366,305.266
121634,141943,11332,-0.129,1.004,0.205,-0.305,0.305,0.366,305.272
121614,141940,9298,-0.129,1.004,0.205,-0.305,0.305,0.366,305.276
121614,141977,11335,-0.127,1.003,0.205,-0.549,0.488,0.488,305.282
121605,141940,9298,-0.127,1.003,0.205,-0.549,0.488,0.488,305.285
121605,141963,11340,-0.133,0.997,0.203,-0.061,0.671,0.671,305.292
121623,141940,9298,-0.133,0.997,0.203,-0.061,0.671,0.671,305.295
121623,141947,11345,-0.131,0.998,0.198,0.61,0.732,0.61,305.302
121626,141940,9298,-0.131,0.998,0.198,0.61,0.732,0.61,305.305
121626,141958,11340,-0.135,1.014,0.195,0.671,0.854,0.671,305.311
121632,141940,9298,-0.135,1.014,0.195,0.671,0.854,0.671,305.315
121632,141955,11331,-0.135,1.013,0.194,0.305,0.793,0.549,305.321
121629,141940,9298,-0.135,1.013,0.194,0.305,0.793,0.549,305.325
121629,141948,11339,-0.135,1.001,0.192,0.427,0.61,0.61,305.331
121625,141940,9298,-0.135,1.001,0.192,0.427,0.61,0.61,305.335
121625,141933,11341,-0.136,1.005,0.19,-0.793,0.488,0.732,305.341
121640,141940,9298,-0.136,1.005,0.19,-0.793,0.488,0.732,305.345
121640,141962,11329,-0.131,1.013,0.188,-1.585,0.183,0.488,305.351
121621,141940,9298,-0.131,1.013,0.188,-1.585,0.183,0.488,305.355
121621,141945,11345,-0.129,1.013,0.201,-0.122,-0.122,0.427,305.361
121622,141940,9298,-0.129,1.013,0.201,-0.122,-0.122,0.427,305.365
121622,141918,11340,-0.123,1.013,0.209,0.244,-0.122,0.183,305.371
121641,141940,9298,-0.123,1.013,0.209,0.244,-0.122,0.183,305.375
121641,141922,11329,-0.124,1.005,0.206,-0.427,0.366,-0.122,305.381
121625,141940,9298,-0.124,1.005,0.206,-0.427,0.366,-0.122,305.384
121625,141946,11352,-0.127,0.996,0.198,-0.854,0.549,-0.305,305.391
121646,141940,9298,-0.127,0.996,0.198,-0.854,0.549,-0.305,305.394
121646,141972,11345,-0.127,0.99,0.197,-0.854,0.549,-0.305,305.401
121663,141940,9298,-0.13,0.99,0.197,-0.305,0.366,-0.427,305.404
121663,141984,11332,-0.133,0.986,0.197,-0.305,0.366,-0.427,305.41
121651,141940,9298,-0.135,0.987,0.198,0.671,0.61,-0.305,305.414
121651,141974,11322,-0.136,0.993,0.193,0.671,0.61,-0.305,305.42
121666,141940,9298,-0.132,1.002,0.192,0.488,0.915,-0.061,305.424
121666,141983,11342,-0.133,1.007,0.192,0.488,0.915,-0.061,305.43
121687,141940,9298,-0.135,1.01,0.189,0.061,0.915,0.366,305.434
121687,141961,11343,-0.139,1.014,0.189,0.061,0.915,0.366,305.44
121664,141940,9298,-0.134,1.014,0.194,-0.122,0.671,0.976,305.444
121664,141954,11343,-0.132,1.018,0.198,-0.122,0.671,0.976,305.45
121620,141940,9298,-0.133,1.018,0.2,-1.159,0,1.098,305.454
121620,141948,11337,-0.127,1.011,0.198,-1.159,0,1.098,305.46
121615,141940,9298,-0.125,1.005,0.202,-1.463,-0.305,0.671,305.464
121615,141917,11344,-0.128,1.003,0.204,-1.463,-0.305,0.671,305.47
121595,141940,9298,-0.13,1.002,0.197,-1.22,-0.061,0.366,305.474
121595,141907,11335,-0.131,1.002,0.191,-1.22,-0.061,0.366,305.48
121595,141940,9298,-0.136,0.999,0.193,-0.61,0.61,0.305,305.483
121595,141894,11333,-0.136,1.001,0.193,-0.61,0.61,0.305,305.49
121591,141940,9298,-0.139,1.003,0.197,0.732,0.793,0.122,305.493
121591,141892,11314,-0.138,0.996,0.2,0.732,0.793,0.122,305.5
121582,141940,9298,-0.134,1,0.198,1.463,0.305,0.061,305.503
121582,141917,11324,-0.135,1.005,0.199,1.463,0.305,0.061,305.509
121595,141940,9298,-0.135,1.007,0.198,0.61,-0.244,0.244,305.513
121595,141902,11336,-0.131,1.002,0.197,0.61,-0.244,0.244,305.519
121587,141940,9298,-0.128,1,0.192,-0.488,-0.244,0.244,305.523
121587,141891,11327,-0.128,0.998,0.193,-0.488,-0.244,0.244,305.529
121594,141940,9298,-0.13,0.997,0.204,-0.671,-0.183,0.305,305.533
121594,141904,11330,-0.127,1.002,0.206,-0.671,-0.183,0.305,305.539
121578,141940,9298,-0.128,1.005,0.195,-1.524,-0.122,0.671,305.543
121578,141894,11346,-0.128,1.006,0.19,-1.524,-0.122,0.671,305.549
121585,141940,9298,-0.128,1.005,0.196,-0.488,0.183,0.671,305.553
121585,141904,11321,-0.13,1.01,0.204,-0.488,0.183,0.671,305.559
121567,141940,9298,-0.132,1.011,0.211,0.366,0.366,0.61,305.563
121567,141892,11343,-0.134,1.016,0.208,0.366,0.366,0.61,305.569
121576,141940,9298,-0.129,1.017,0.207,-0.61,0.061,0.488,305.573
121576,141886,11329,-0.127,1.012,0.202,-0.61,0.061,0.488,305.579
121592,141940,9298,-0.126,1.004,0.201,0.061,0,0.183,305.582
121592,141905,11325,-0.129,0.998,0.2,0.061,0,0.183,305.589
121585,141940,9298,-0.13,0.995,0.201,0.366,0.549,0.244,305.592
121585,141884,11313,-0.132,0.994,0.198,0.366,0.549,0.244,305.598
121575,141940,9298,-0.134,0.992,0.189,-0.488,0.915,0.366,305.602
121575,141898,11328,-0.134,0.994,0.189,-0.488,0.915,0.366,305.608
121581,141940,9298,-0.135,0.996,0.19,0.061,0.793,0.488,305.612
121581,141893,11347,-0.132,0.999,0.195,0.061,0.793,0.488,305.618
121607,141940,9298,-0.13,1.006,0.205,0.915,0.305,0.671,305.622
121607,141893,11329,-0.13,1.01,0.207,0.915,0.305,0.671,305.628
121583,141940,9298,-0.131,1.011,0.206,0.244,0.122,0.732,305.632
121583,141874,11333,-0.125,1.012,0.201,0.244,0.122,0.732,305.638
121596,141940,9298,-0.123,1.01,0.198,0,0.305,0.488,305.642
121596,141901,11333,-0.125,1.005,0.199,0,0.305,0.488,305.648
121578,141940,9298,-0.129,1.005,0.2,-0.244,0.854,0.244,305.652
121578,141895,11328,-0.131,1.006,0.2,-0.244,0.854,0.244,305.658
121621,141940,9298,-0.136,1.005,0.2,0.244,1.098,0.061,305.662
121621,141902,11331,-0.132,1.007,0.194,0.244,1.098,0.061,305.668
121598,141940,9298,-0.128,1.005,0.197,0.976,0.854,0,305.672
121598,141915,11335,-0.132,1.008,0.196,0.976,0.854,0,305.678
121623,141940,9298,-0.132,1.012,0.193,1.585,0.732,0.122,305.681
121623,141904,11318,-0.13,1.011,0.195,1.585,0.732,0.122,305.688
121611,141940,9298,-0.13,1.01,0.198,0.793,0.793,0,305.691
121611,141915,11315,-0.129,1.005,0.199,0.793,0.793,0,305.697
121598,141940,9298,-0.128,0.996,0.199,0,0.793,0.122,305.701
121598,141907,11320,-0.128,0.994,0.193,0,0.793,0.122,305.707
121609,141940,9298,-0.13,0.994,0.189,-0.915,0.61,0.488,305.711
121609,141918,11334,-0.13,0.993,0.186,-0.915,0.61,0.488,305.717
121627,141940,9298,-0.131,0.995,0.19,-0.732,0.549,0.488,305.721
121627,141883,11329,-0.132,0.999,0.193,-0.732,0.549,0.488,305.727
121604,141940,9298,-0.134,1.002,0.193,-0.122,0.488,0.488,305.731
121604,141931,11321,-0.135,1.007,0.191,-0.122,0.488,0.488,305.737
121609,141940,9298,-0.133,1.01,0.19,-0.366,0.427,0.549,305.741
121609,141921,11330,-0.137,1.011,0.194,-0.366,0.427,0.549,305.747
121638,141940,9298,-0.138,1.013,0.203,0.061,0.122,0.61,305.751
121638,141939,11320,-0.134,1.013,0.204,0.061,0.122,0.61,305.757
121638,141940,9298,-0.13,1.014,0.197,0.366,-0.122,0.488,305.761
121638,141941,11308,-0.132,1.015,0.2,0.366,-0.122,0.488,305.767
121632,141940,9298,-0.129,1.017,0.204,-0.549,0,0.427,305.77
121632,141973,11333,-0.129,1.006,0.202,-0.549,0,0.427,305.777
121637,141940,9298,-0.127,0.998,0.202,-0.427,0.366,0.183,305.78
121637,141951,11323,-0.126,0.994,0.197,-0.427,0.366,0.183,305.787
121619,141940,9298,-0.128,0.995,0.192,-0.366,0.61,0.122,305.79
121619,141941,11317,-0.132,1.001,0.196,-0.366,0.61,0.122,305.796
121624,141940,9298,-0.131,1.004,0.196,-0.183,0.671,0.244,305.8
121624,141951,11308,-0.131,1.004,0.201,-0.183,0.671,0.244,305.806
121611,141940,9298,-0.129,1.005,0.202,1.463,0.305,0.122,305.81
121611,141929,11324,-0.13,1.004,0.197,1.463,0.305,0.122,305.816
121624,141940,9298,-0.127,1,0.196,1.159,0.183,0.244,305.82
121624,141901,11314,-0.13,0.998,0.19,1.159,0.183,0.244,305.826
121582,141940,9298,-0.134,0.997,0.188,-0.061,0.61,0.793,305.83
121582,141896,11315,-0.137,0.997,0.189,-0.061,0.61,0.793,305.836
121582,141940,9298,-0.137,0.997,0.189,-0.061,0.61,0.793,305.84
121582,141865,11302,-0.138,1.01,0.198,-0.671,0.732,1.037,305.846
121560,141940,9298,-0.138,1.01,0.198,-0.671,0.732,1.037,305.85
121560,141901,11313,-0.131,1.011,0.205,-1.098,-0.122,0.61,305.856
121570,141940,9298,-0.131,1.011,0.205,-1.098,-0.122,0.61,305.86
121570,141895,11315,-0.126,1.013,0.208,0,-0.427,0.671,305.866
121585,141940,9298,-0.126,1.013,0.208,0,-0.427,0.671,305.869
121585,141875,11317,-0.123,1.015,0.195,0.122,-0.061,0.854,305.876
121580,141940,9298,-0.123,1.015,0.195,0.122,-0.061,0.854,305.879
121580,141874,11312,-0.128,1.007,0.193,-0.488,0.732,0.427,305.886
121590,141940,9298,-0.128,1.007,0.193,-0.488,0.732,0.427,305.889
121590,141874,11312,-0.131,0.995,0.197,0.244,1.098,-0.244,305.895
121559,141940,9298,-0.131,0.995,0.197,0.244,1.098,-0.244,305.899
121559,141877,11304,-0.135,0.995,0.196,0.305,0.732,-0.183,305.905
121523,141940,9298,-0.135,0.995,0.196,0.305,0.732,-0.183,305.909
121523,141847,11310,-0.13,0.995,0.194,-0.183,0.183,0.244,305.915
121546,141940,9298,-0.13,0.995,0.194,-0.183,0.183,0.244,305.919
121546,141856,11305,-0.13,1.004,0.194,0.488,0,0.244,305.925
121530,141940,9298,-0.13,1.004,0.194,0.488,0,0.244,305.929
121530,141846,11297,-0.132,1.013,0.198,0.366,0.366,0.244,305.935
121541,141940,9298,-0.132,1.013,0.198,0.366,0.366,0.244,305.939
121541,141885,11321,-0.132,1.003,0.202,0.366,0.793,0.366,305.945
121559,141940,9298,-0.132,1.003,0.202,0.366,0.793,0.366,305.949
121559,141874,11308,-0.134,1.005,0.194,0.61,0.732,0.366,305.955
121570,141940,9298,-0.134,1.005,0.194,0.61,0.732,0.366,305.959
121570,141883,11307,-0.126,1.006,0.194,-0.549,0.549,0.61,305.965
121571,141940,9298,-0.126,1.006,0.194,-0.549,0.549,0.61,305.968
121571,141875,11328,-0.124,1.002,0.188,-0.244,0.366,0.549,305.975
121586,141940,9298,-0.124,1.002,0.188,-0.244,0.366,0.549,305.978
121586,141883,11317,-0.126,0.998,0.191,1.22,0.915,0.366,305.985
121571,141940,9298,-0.127,1.003,0.192,1.22,0.915,0.366,305.988
121571,141910,11331,-0.135,1.005,0.189,1.341,1.28,0.244,305.994
121603,141940,9298,-0.137,1.01,0.187,1.341,1.28,0.244,305.998
121603,141901,11331,-0.137,1.013,0.191,0.671,1.22,0,306.004
121593,141940,9298,-0.14,1.016,0.201,0.671,1.22,0,306.008
121593,141880,11315,-0.137,1.013,0.199,-0.183,0.488,0.244,306.014
121601,141940,9298,-0.139,1.008,0.198,-0.183,0.488,0.244,306.018
121601,141892,11312,-0.133,1,0.193,-0.793,-0.305,0.732,306.024
121602,141940,9298,-0.128,0.995,0.191,-0.793,-0.305,0.732,306.028
121602,141874,11321,-0.125,0.995,0.191,-1.463,-0.488,0.854,306.034
121603,141940,9298,-0.126,0.996,0.187,-1.463,-0.488,0.854,306.038
121603,141889,11304,-0.132,1.001,0.189,-0.976,0.061,0.671,306.044
121586,141940,9298,-0.132,1.005,0.189,-0.976,0.061,0.671,306.048
121586,141877,11323,-0.128,1.005,0.192,0.549,0.366,0.61,306.054
121597,141940,9298,-0.13,1.001,0.192,0.549,0.366,0.61,306.058
121597,141915,11315,-0.127,1.006,0.193,1.159,0.183,0.671,306.064
121601,141940,9298,-0.127,1.014,0.201,1.159,0.183,0.671,306.067
121601,141905,11326,-0.127,1.014,0.202,-0.244,-0.183,0.671,306.074
121618,141940,9298,-0.124,1.01,0.204,-0.244,-0.183,0.671,306.077
121618,141906,11314,-0.124,1.006,0.202,-0.549,-0.061,0.549,306.084
121606,141940,9298,-0.127,1.008,0.209,-0.549,-0.061,0.549,306.087
121606,141906,11303,-0.129,1.005,0.206,-0.244,0.366,0.244,306.093
121611,141940,9298,-0.132,1.001,0.201,-0.244,0.366,0.244,306.097
121611,141906,11310,-0.133,1.003,0.192,-0.244,0.793,0.305,306.103
121617,141940,9298,-0.134,1.003,0.188,-0.244,0.793,0.305,306.107
121617,141899,11316,-0.133,1.002,0.194,-0.061,0.793,0.732,306.113
121629,141940,9298,-0.135,1.001,0.192,-0.061,0.793,0.732,306.117
121629,141902,11307,-0.135,0.999,0.192,0.366,0.488,0.671,306.123
121588,141940,9298,-0.131,1,0.194,0.366,0.488,0.671,306.127
121588,141894,11312,-0.131,1.005,0.196,-0.305,0.061,0.732,306.133
121595,141940,9298,-0.132,1.006,0.194,-0.305,0.061,0.732,306.137
121595,141919,11317,-0.132,1.008,0.191,-1.098,-0.061,0.732,306.143
121594,141940,9298,-0.131,1.008,0.188,-1.098,-0.061,0.732,306.147
121594,141904,11314,-0.128,1.013,0.196,0.061,0.244,0.793,306.153
121631,141940,9298,-0.129,1.016,0.204,0.061,0.244,0.793,306.157
121631,141907,11303,-0.13,1.014,0.195,0.61,0.305,0.61,306.163
121633,141940,9298,-0.131,1.014,0.194,0.61,0.305,0.61,306.166
121633,141937,11317,-0.13,1.013,0.192,-0.488,0.488,0.427,306.173
121647,141940,9298,-0.13,1.015,0.196,-0.488,0.488,0.427,306.176
121647,141920,11321,-0.133,1.014,0.197,-1.829,0.427,0.366,306.183
121644,141940,9298,-0.134,1.008,0.196,-1.829,0.427,0.366,306.186
121644,141923,11312,-0.135,1.001,0.197,-2.134,0.244,0.61,306.192
121644,141940,9298,-0.133,0.996,0.198,-2.134,0.244,0.61,306.196
121644,141924,11311,-0.132,0.99,0.195,-1.22,0.061,0.305,306.202
121646,141940,9298,-0.131,0.987,0.194,-1.22,0.061,0.305,306.206
121646,141912,11320,-0.134,0.989,0.189,-1.402,-0.061,0.183,306.212
121622,141940,9298,-0.131,0.993,0.188,-1.402,-0.061,0.183,306.216
121622,141909,11320,-0.131,0.993,0.192,-1.159,-0.061,0.427,306.222
121629,141940,9298,-0.129,0.996,0.197,-1.159,-0.061,0.427,306.226
121629,141891,11327,-0.123,1,0.203,0.305,-0.244,0.366,306.232
121636,141940,9298,-0.122,1.009,0.202,0.305,-0.244,0.366,306.236
121636,141908,11302,-0.123,1.017,0.206,0.854,-0.366,0.427,306.242
121638,141940,9298,-0.127,1.021,0.21,0.854,-0.366,0.427,306.246
121638,141932,11303,-0.125,1.021,0.212,0.671,0.183,0.122,306.252
121647,141940,9298,-0.122,1.018,0.208,0.671,0.183,0.122,306.256
121647,141933,11312,-0.126,1.013,0.205,0.61,0.976,-0.061,306.262
121645,141940,9298,-0.131,1.006,0.203,0.61,0.976,-0.061,306.265
121645,141894,11320,-0.132,0.999,0.198,-0.549,1.463,0.122,306.272
121603,141940,9298,-0.133,0.992,0.189,-0.549,1.463,0.122,306.275
121603,141908,11316,-0.135,0.992,0.183,-1.037,1.341,0.305,306.281
121623,141940,9298,-0.135,0.993,0.187,-1.037,1.341,0.305,306.285
121623,141892,11318,-0.138,0.996,0.19,-0.244,0.915,0.305,306.291
121617,141940,9298,-0.138,0.996,0.198,-0.244,0.915,0.305,306.295
121617,141909,11310,-0.138,1.002,0.198,0.183,0.488,0.366,306.301
121644,141940,9298,-0.137,1.008,0.198,0.183,0.488,0.366,306.305
121644,141905,11327,-0.134,1.007,0.198,0.61,0.183,0.671,306.311
121656,141940,9298,-0.134,1.007,0.194,0.61,0.183,0.671,306.315
121656,141913,11327,-0.132,1.014,0.191,0.61,0.244,0.671,306.321
121635,141940,9298,-0.129,1.021,0.195,0.61,0.244,0.671,306.325
121635,141922,11323,-0.127,1.018,0.197,0.183,0.061,0.488,306.331
121647,141940,9298,-0.125,1.013,0.197,0.183,0.061,0.488,306.335
121647,141891,11319,-0.123,1.009,0.2,0.427,-0.122,0.244,306.341
121632,141940,9298,-0.124,1.005,0.198,0.427,-0.122,0.244,306.345
121632,141878,11323,-0.126,0.997,0.194,-0.793,0.366,0.244,306.351
121637,141940,9298,-0.126,0.995,0.193,-0.793,0.366,0.244,306.354
121637,141874,11312,-0.128,0.995,0.191,-1.463,0.671,0.305,306.361
121632,141940,9298,-0.131,0.997,0.194,-1.463,0.671,0.305,306.364
121632,141897,11319,-0.132,1,0.199,-0.427,0.305,0.122,306.371
121621,141940,9298,-0.128,0.999,0.19,-0.427,0.305,0.122,306.374
121621,141876,11327,-0.127,1.002,0.187,0.793,0.122,-0.183,306.38
121646,141940,9298,-0.129,1.01,0.193,0.793,0.122,-0.183,306.384
121646,141890,11318,-0.133,1.014,0.201,0.793,0.122,0.061,306.39
121616,141940,9298,-0.134,1.015,0.207,0.793,0.122,0.061,306.394
121616,141897,11319,-0.136,1.012,0.208,-0.122,0.244,0.366,306.4
121612,141940,9298,-0.133,1.002,0.202,-0.122,0.244,0.366,306.404
121612,141856,11302,-0.126,0.999,0.197,-0.732,0.122,0.671,306.41
121594,141940,9298,-0.126,0.999,0.197,-0.732,0.122,0.671,306.414
121594,141870,11301,-0.129,0.999,0.195,-1.402,0.183,0.732,306.42
121571,141940,9298,-0.129,0.999,0.195,-1.402,0.183,0.732,306.424
121571,141875,11310,-0.126,1.001,0.193,-0.854,0.488,0.427,306.43
121553,141684,9298,-0.126,1.001,0.193,-0.854,0.488,0.427,306.434
121553,141823,11299,-0.13,1.003,0.198,1.159,0.732,0.244,306.44
121539,141940,9298,-0.13,1.003,0.198,1.159,0.732,0.244,306.444
121539,141833,11320,-0.133,1.018,0.202,1.402,0.854,0.427,306.45
121527,141684,9298,-0.133,1.018,0.202,1.402,0.854,0.427,306.454
121527,141780,11308,-0.129,1.02,0.202,0.244,0.61,0.305,306.46
121525,141684,9298,-0.129,1.02,0.202,0.244,0.61,0.305,306.463
121525,141792,11315,-0.13,1.005,0.2,0.122,0.366,0,306.47
121516,141684,9298,-0.13,1.005,0.2,0.122,0.366,0,306.473
121516,141803,11310,-0.13,0.996,0.2,-0.427,0.305,0,306.479
121522,141684,9298,-0.13,0.996,0.2,-0.427,0.305,0,306.483
121522,141777,11310,-0.133,0.997,0.2,-1.037,0.549,0,306.489
121502,141684,9298,-0.133,0.997,0.2,-1.037,0.549,0,306.493
121502,141775,11283,-0.13,0.994,0.192,0.488,0.793,0.122,306.499
121490,141684,9298,-0.13,0.994,0.192,0.488,0.793,0.122,306.503
121490,141773,11289,-0.132,1.004,0.188,1.341,0.854,0.183,306.509
121469,141684,9298,-0.132,1.004,0.188,1.341,0.854,0.183,306.513
121469,141742,11290,-0.126,1.013,0.195,0.976,0.427,0.366,306.519
121451,141684,9298,-0.126,1.013,0.195,0.976,0.427,0.366,306.523
121451,141727,11284,-0.124,1.007,0.19,0.427,0.305,0.366,306.529
121443,141684,9298,-0.124,1.007,0.19,0.427,0.305,0.366,306.533
121443,141730,11278,-0.127,1.001,0.194,-0.549,0.305,0.366,306.539
121430,141684,9298,-0.127,1.001,0.194,-0.549,0.305,0.366,306.543
121430,141713,11285,-0.132,1.01,0.193,-0.732,0.732,0.488,306.549
121440,141684,9298,-0.132,1.01,0.193,-0.732,0.732,0.488,306.553
121440,141734,11296,-0.137,1.009,0.199,-0.732,0.732,0.488,306.559
121466,141684,9298,-0.134,1.013,0.201,-0.183,0.793,0.183,306.562
121466,141757,11283,-0.133,1.008,0.197,-0.183,0.793,0.183,306.569
121476,141684,9298,-0.135,1.005,0.191,-0.244,0.366,0.061,306.572
121476,141737,11285,-0.135,1.004,0.191,-0.244,0.366,0.061,306.578
121443,141684,9298,-0.134,1.003,0.194,-0.244,0.366,0.305,306.582
121443,141705,11280,-0.132,1.007,0.193,-0.244,0.366,0.305,306.588
121457,141684,9298,-0.133,1.006,0.193,-0.244,0.366,0.305,306.592
121457,141720,11288,-0.131,1.003,0.196,-0.244,0.366,0.305,306.598
121437,141684,9298,-0.129,1.001,0.193,-0.122,0.122,0.122,306.602
121437,141720,11272,-0.131,1.001,0.19,-0.122,0.122,0.122,306.608
121434,141684,9298,-0.131,1.002,0.195,0.366,0.061,0.549,306.612
121434,141702,11298,-0.125,1.003,0.2,0.366,0.061,0.549,306.618
121456,141684,9298,-0.131,0.998,0.197,0.061,0,0.854,306.622
121456,141737,11277,-0.13,0.999,0.195,0.061,0,0.854,306.628
121457,141684,9298,-0.127,1,0.194,-0.976,0.366,0.732,306.632
121457,141732,11289,-0.13,1.001,0.192,-0.976,0.366,0.732,306.638
121467,141684,9298,-0.133,1.006,0.195,-1.463,0.183,0.427,306.642
121467,141751,11257,-0.131,1.006,0.2,-1.463,0.183,0.427,306.648
121463,141684,9298,-0.132,1.008,0.202,-0.122,-0.061,0.366,306.651
121463,141764,11279,-0.13,1.01,0.201,-0.122,-0.061,0.366,306.658
121482,141684,9298,-0.128,1.014,0.199,0.976,0.122,0.427,306.661
121482,141756,11281,-0.129,1.014,0.195,0.976,0.122,0.427,306.668
121438,141684,9298,-0.129,1.018,0.195,0.305,0.366,0.305,306.671
121438,141737,11279,-0.13,1.016,0.194,0.305,0.366,0.305,306.677
121444,141684,9298,-0.131,1.01,0.194,-1.098,0.549,0,306.681
121444,141722,11278,-0.13,1.003,0.198,-1.098,0.549,0,306.687
121490,141684,9298,-0.13,0.996,0.198,-0.793,0.488,0,306.691
121490,141756,11273,-0.132,0.997,0.199,-0.793,0.488,0,306.697
121475,141684,9298,-0.129,0.996,0.193,-0.427,0.305,0.427,306.701
121475,141744,11289,-0.127,0.998,0.192,-0.427,0.305,0.427,306.707
121518,141684,9298,-0.126,1.005,0.192,-0.61,0.061,0.427,306.711
121518,141777,11279,-0.124,1.004,0.195,-0.61,0.061,0.427,306.717
121495,141684,9298,-0.126,1.002,0.194,0.488,0.183,0.305,306.721
121495,141783,11285,-0.128,1.002,0.197,0.488,0.183,0.305,306.727
121496,141684,9298,-0.13,1.005,0.192,-0.061,0.549,0.244,306.731
121496,141777,11279,-0.131,1.004,0.193,-0.061,0.549,0.244,306.737
121484,141684,9298,-0.133,1.003,0.201,-1.22,0.549,0.427,306.741
121484,141773,11275,-0.135,1.001,0.201,-1.22,0.549,0.427,306.747
121502,141684,9298,-0.135,1.004,0.203,-0.305,0.305,0.732,306.75
121502,141789,11282,-0.131,1.005,0.201,-0.305,0.305,0.732,306.757
121522,141684,9298,-0.128,1.007,0.199,-0.061,0.122,0.671,306.76
121522,141775,11292,-0.131,1.01,0.195,-0.061,0.122,0.671,306.767
121491,141684,9298,-0.132,1.008,0.196,0.061,0.427,0.549,306.77
121491,141771,11268,-0.128,1.004,0.197,0.061,0.427,0.549,306.776
121498,141684,9298,-0.129,1.006,0.194,0.488,0.488,0.244,306.78
121498,141745,11279,-0.125,1,0.193,0.488,0.488,0.244,306.786
121497,141684,9298,-0.131,1.002,0.191,0.366,0.427,0.122,306.79
121497,141772,11273,-0.136,1.005,0.19,0.366,0.427,0.122,306.796
121503,141684,9298,-0.134,1.001,0.193,0.183,0.305,0.305,306.8
121503,141745,11289,-0.129,1.002,0.19,0.183,0.305,0.305,306.806
121483,141684,9298,-0.131,1.002,0.193,0.305,0.244,0.366,306.81
121483,141755,11282,-0.131,1.007,0.198,0.305,0.244,0.366,306.816
121526,141684,9298,-0.13,1.011,0.2,-0.366,0.183,0.305,306.82
121526,141763,11267,-0.131,1.01,0.198,-0.366,0.183,0.305,306.826
121515,141684,9298,-0.132,1.006,0.194,-0.61,0.305,0.183,306.83
121515,141767,11290,-0.134,1.005,0.195,-0.61,0.305,0.183,306.836
121524,141684,9298,-0.135,1.001,0.199,0.244,0.427,0.427,306.84
121524,141756,11268,-0.132,1.002,0.199,0.244,0.427,0.427,306.846
121517,141684,9298,-0.131,1.007,0.195,0.061,0.122,0.427,306.849
121517,141783,11288,-0.128,1.009,0.19,0.061,0.122,0.427,306.856
121532,141684,9298,-0.128,1.006,0.193,-0.366,0.061,0.305,306.859
121532,141781,11269,-0.125,1.002,0.191,-0.366,0.061,0.305,306.866
121521,141684,9298,-0.128,1.003,0.188,-0.122,0,0.366,306.869
121521,141773,11274,-0.128,1.008,0.191,-0.122,0,0.366,306.875
121518,141684,9298,-0.126,1.009,0.2,-0.976,0,0.61,306.879
121518,141814,11280,-0.123,1.004,0.202,-0.976,0,0.61,306.885
121544,141684,9298,-0.123,1.001,0.2,-0.61,0.061,0.366,306.889
121544,141777,11299,-0.127,0.999,0.199,-0.61,0.061,0.366,306.895
121540,141684,9298,-0.129,1.004,0.196,-0.305,0.488,0.366,306.899
121540,141769,11277,-0.129,1.008,0.194,-0.305,0.488,0.366,306.905
121516,141684,9298,-0.129,1.007,0.203,-1.159,0.793,0.122,306.909
121516,141802,11297,-0.133,1.004,0.201,-1.159,0.793,0.122,306.915
121536,141684,9298,-0.137,0.998,0.197,0.244,0.976,0.366,306.919
121536,141790,11281,-0.137,0.999,0.196,0.244,0.976,0.366,306.925
121542,141684,9298,-0.137,1.005,0.201,0.732,0.732,0.427,306.929
121542,141783,11282,-0.134,1.01,0.201,0.732,0.732,0.427,306.935
121543,141684,9298,-0.133,1.011,0.203,0,0.244,0.427,306.939
121543,141787,11272,-0.13,1.005,0.199,0,0.244,0.427,306.945
121534,141684,9298,-0.129,1.001,0.2,0.488,0.183,0.488,306.948
121534,141782,11273,-0.126,1.002,0.197,0.488,0.183,0.488,306.955
121558,141684,9298,-0.127,1.002,0.198,0.244,0.305,0.549,306.958
121558,141770,11276,-0.129,1.003,0.195,0.244,0.305,0.549,306.965
121532,141684,9298,-0.133,1.006,0.186,-0.305,0.854,0.305,306.968
121532,141782,11285,-0.132,1.005,0.18,-0.305,0.854,0.305,306.974
121543,141684,9298,-0.131,1.001,0.183,-0.061,1.159,0.061,306.978
121543,141795,11266,-0.134,1.006,0.188,-0.061,1.159,0.061,306.984
121532,141684,9298,-0.135,1.008,0.195,0.549,0.549,0.305,306.988
121532,141792,11266,-0.13,1.01,0.195,0.549,0.549,0.305,306.994
121510,141684,9298,-0.13,1.01,0.195,0.549,0.549,0.305,306.998
121510,141754,11280,-0.125,1.01,0.193,-0.427,-0.305,0.427,307.004
121528,141684,9298,-0.125,1.01,0.193,-0.427,-0.305,0.427,307.008
121528,141750,11273,-0.127,1.01,0.199,-0.976,-0.427,0.305,307.014
121515,141684,9298,-0.127,1.01,0.199,-0.976,-0.427,0.305,307.018
121515,141757,11274,-0.129,1.004,0.201,-1.22,-0.122,0.183,307.024
121510,141684,9298,-0.129,1.004,0.201,-1.22,-0.122,0.183,307.028
121510,141734,11269,-0.128,0.994,0.196,-1.159,0.427,0.183,307.034
121498,141684,9298,-0.128,0.994,0.196,-1.159,0.427,0.183,307.038
121498,141762,11281,-0.131,1.001,0.197,-0.793,0.305,0.183,307.044
121508,141684,9298,-0.131,1.001,0.197,-0.793,0.305,0.183,307.047
121508,141749,11276,-0.132,1.003,0.199,-0.732,0.305,0.366,307.054
121484,141684,9298,-0.132,1.003,0.199,-0.732,0.305,0.366,307.057
121484,141747,11271,-0.129,1.003,0.197,0.122,0.244,0.366,307.064
121480,141684,9298,-0.129,1.003,0.197,0.122,0.244,0.366,307.067
121480,141749,11273,-0.128,1.008,0.196,0.061,0.305,0.427,307.073
121472,141684,9298,-0.128,1.008,0.196,0.061,0.305,0.427,307.077
121472,141727,11269,-0.134,1.003,0.194,-0.488,0.61,0.366,307.083
121467,141684,9298,-0.134,1.003,0.194,-0.488,0.61,0.366,307.087
121467,141737,11254,-0.133,1.002,0.191,-0.61,0.793,0.427,307.093
121463,141684,9298,-0.133,1.002,0.191,-0.61,0.793,0.427,307.097
121463,141707,11262,-0.137,1.003,0.199,-1.037,0.488,0.671,307.103
121444,141684,9298,-0.137,1.003,0.199,-1.037,0.488,0.671,307.107
121444,141722,11272,-0.133,1.008,0.201,-0.976,0,0.854,307.113
121475,141684,9298,-0.133,1.008,0.201,-0.976,0,0.854,307.117
121475,141722,11263,-0.13,1.015,0.201,-0.366,0,0.671,307.123
121465,141684,9298,-0.13,1.015,0.201,-0.366,0,0.671,307.127
121465,141733,11271,-0.124,1.01,0.2,0.549,0,0.244,307.133
121465,141684,9298,-0.124,1.01,0.2,0.549,0,0.244,307.137
121465,141688,11267,-0.128,1.006,0.197,0.549,0.366,0,307.143
121498,141684,9298,-0.128,1.004,0.193,0.549,0.366,0,307.146
121498,141706,11281,-0.129,0.999,0.187,-0.305,0.366,0.183,307.153
121501,141684,9298,-0.128,0.995,0.183,-0.305,0.366,0.183,307.156
121501,141723,11263,-0.132,0.997,0.187,-0.915,0.366,0.244,307.163
121492,141684,9298,-0.132,1,0.192,-0.915,0.366,0.244,307.166
121492,141721,11265,-0.131,1.001,0.202,-0.732,0,0.122,307.172
121494,141684,9298,-0.13,1.004,0.204,-0.732,0,0.122,307.176
121494,141728,11275,-0.126,1.001,0.201,0.183,-0.244,0.183,307.182
121505,141684,9298,-0.126,0.998,0.204,0.183,-0.244,0.183,307.186
121505,141715,11263,-0.129,1.002,0.202,0.366,0.183,0.488,307.192
121488,141684,9298,-0.132,1.003,0.199,0.366,0.183,0.488,307.196
121488,141730,11269,-0.132,1.006,0.195,-0.854,0.732,0.732,307.202
121491,141684,9298,-0.133,1.006,0.2,-0.854,0.732,0.732,307.206
121491,141762,11258,-0.134,1.007,0.198,-1.098,0.61,0.549,307.212
121477,141684,9298,-0.133,1.004,0.202,-1.098,0.61,0.549,307.216
121477,141718,11259,-0.132,1.004,0.2,0.244,0.183,0.427,307.222
121473,141684,9298,-0.132,1.01,0.199,0.244,0.183,0.427,307.226
121473,141721,11259,-0.128,1.011,0.202,0.488,0.061,0.61,307.232
121481,141684,9298,-0.128,1.013,0.194,0.488,0.061,0.61,307.236
121481,141692,11255,-0.124,1.013,0.195,0.122,0.366,0.427,307.242
121489,141684,9298,-0.128,1.007,0.194,0.122,0.366,0.427,307.245
121489,141700,11254,-0.13,1.003,0.199,0.488,0.915,0,307.252
121468,141684,9298,-0.134,1.002,0.202,0.488,0.915,0,307.255
121468,141718,11268,-0.134,1.001,0.198,-0.244,0.793,0.122,307.262
