121687,142381,11427,-0.122,1.01,0.12,0.427,0.732,0.183,339.641
121710,142452,9298,-0.122,1.01,0.12,0.427,0.732,0.183,339.645
121710,142371,11416,-0.124,1.014,0.115,0.854,0.732,0.61,339.651
121687,142452,9298,-0.124,1.014,0.115,0.854,0.732,0.61,339.655
121687,142386,11429,-0.129,1.016,0.115,-0.366,1.098,0.793,339.661
121718,142452,9298,-0.129,1.016,0.115,-0.366,1.098,0.793,339.665
121718,142412,11422,-0.133,1.017,0.12,-0.549,1.159,0.488,339.671
121716,142452,9298,-0.133,1.017,0.12,-0.549,1.159,0.488,339.675
121716,142430,11429,-0.131,1.019,0.125,-0.183,0.732,0.244,339.681
121726,142452,9298,-0.131,1.019,0.125,-0.183,0.732,0.244,339.685
121726,142435,11418,-0.132,1.022,0.126,0.366,0.305,0.244,339.691
121732,142452,9298,-0.132,1.022,0.126,0.366,0.305,0.244,339.694
121732,142401,11423,-0.129,1.015,0.12,0.061,0.244,0.305,339.701
121710,142452,9298,-0.129,1.015,0.12,0.061,0.244,0.305,339.704
121710,142397,11418,-0.127,1.011,0.114,-0.427,0.183,0.244,339.711
121691,142452,9298,-0.124,1.017,0.116,-0.427,0.183,0.244,339.714
121691,142402,11430,-0.125,1.016,0.117,-1.098,0.244,0.244,339.72
121717,142452,9298,-0.126,1.016,0.12,-1.098,0.244,0.244,339.724
121717,142379,11420,-0.125,1.015,0.127,-0.732,0.122,0.305,339.73
121701,142452,9298,-0.125,1.009,0.124,-0.732,0.122,0.305,339.734
121701,142375,11431,-0.126,1.009,0.119,0.183,0.122,0.366,339.74
121721,142452,9298,-0.129,1.012,0.122,0.183,0.122,0.366,339.744
121721,142380,11419,-0.128,1.016,0.126,-0.366,0.488,0.549,339.75
121719,142452,9298,-0.127,1.02,0.125,-0.366,0.488,0.549,339.754
121719,142399,11436,-0.129,1.015,0.123,-0.61,0.61,0.366,339.76
121727,142452,9298,-0.127,1.011,0.116,-0.61,0.61,0.366,339.764
121727,142403,11418,-0.131,1.007,0.112,-0.732,0.549,0.549,339.77
121708,142452,9298,-0.13,1.008,0.109,-0.732,0.549,0.549,339.774
121708,142403,11428,-0.132,1.01,0.11,-0.61,0.366,1.098,339.78
121722,142452,9298,-0.129,1.018,0.113,-0.61,0.366,1.098,339.784
121722,142445,11421,-0.129,1.019,0.119,-0.183,0.244,1.037,339.79
121715,142452,9298,-0.127,1.023,0.123,-0.183,0.244,1.037,339.793
121715,142423,11425,-0.124,1.027,0.13,0.366,-0.305,0.915,339.8
121751,142452,9298,-0.122,1.028,0.129,0.366,-0.305,0.915,339.803
121751,142416,11432,-0.121,1.025,0.128,-0.366,-0.732,0.671,339.81
121756,142452,9298,-0.121,1.015,0.128,-0.366,-0.732,0.671,339.813
121756,142418,11426,-0.122,1.014,0.128,-0.671,-0.122,0.732,339.819
121740,142452,9298,-0.122,1.01,0.121,-0.671,-0.122,0.732,339.823
121740,142413,11431,-0.126,1.01,0.115,-0.732,0.671,0.366,339.829
121772,142452,9298,-0.128,1.014,0.116,-0.732,0.671,0.366,339.833
121772,142419,11423,-0.132,1.015,0.12,-0.366,0.854,0.061,339.839
121764,142452,9298,-0.133,1.015,0.117,-0.366,0.854,0.061,339.843
121764,142410,11433,-0.132,1.011,0.118,1.22,0.549,0.244,339.849
121748,142452,9298,-0.131,1.015,0.121,1.22,0.549,0.244,339.853
121748,142427,11431,-0.127,1.017,0.12,0.549,-0.061,0.366,339.859
121761,142452,9298,-0.123,1.017,0.125,0.549,-0.061,0.366,339.863
121761,142435,11434,-0.124,1.013,0.121,-1.037,-0.183,0.61,339.869
121756,142452,9298,-0.121,1.016,0.123,-1.037,-0.183,0.61,339.873
121756,142429,11436,-0.121,1.013,0.124,-1.098,0.061,0.61,339.879
121730,142452,9298,-0.122,1.013,0.126,-1.098,0.061,0.61,339.883
121730,142420,11415,-0.125,1.01,0.123,-0.976,0.366,0.61,339.889
121739,142452,9298,-0.127,1.017,0.126,-0.976,0.366,0.61,339.892
121739,142445,11422,-0.124,1.021,0.127,-0.244,0.549,0.61,339.899
121745,142452,9298,-0.125,1.024,0.128,-0.244,0.549,0.61,339.902
121745,142443,11424,-0.127,1.024,0.125,0.305,0.366,0.305,339.909
121765,142452,9298,-0.127,1.024,0.125,0.305,0.366,0.305,339.912
121765,142458,11423,-0.13,1.025,0.121,-0.061,0.488,0.061,339.918
121779,142452,9298,-0.13,1.021,0.12,-0.061,0.488,0.061,339.922
121779,142473,11442,-0.128,1.016,0.12,-0.671,0.549,0,339.928
121788,142452,9298,-0.13,1.012,0.122,-0.671,0.549,0,339.932
121788,142478,11435,-0.128,1.01,0.12,-0.976,0.366,0.061,339.938
121809,142452,9298,-0.127,1.007,0.118,-0.976,0.366,0.061,339.942
121809,142490,11431,-0.128,1.008,0.119,-0.915,0.305,0.183,339.948
121795,142452,9298,-0.125,1.005,0.124,-0.915,0.305,0.183,339.952
121795,142486,11435,-0.126,1.004,0.125,0.366,0.488,0.488,339.958
121798,142452,9298,-0.125,1.011,0.124,0.366,0.488,0.488,339.962
121798,142477,11419,-0.123,1.012,0.121,0.305,0.427,0.488,339.968
121789,142452,9298,-0.125,1.015,0.121,0.305,0.427,0.488,339.972
121789,142485,11427,-0.127,1.018,0.126,0.183,0.671,0.427,339.978
121808,142452,9298,-0.127,1.023,0.134,0.183,0.671,0.427,339.982
121808,142496,11438,-0.127,1.023,0.131,0.61,0.61,0.427,339.988
121817,142452,9298,-0.128,1.026,0.13,0.61,0.61,0.427,339.991
121817,142525,11432,-0.126,1.026,0.126,-0.183,0.244,0.366,339.998
121813,142452,9298,-0.126,1.022,0.122,-0.183,0.244,0.366,340.001
121813,142495,11429,-0.126,1.02,0.119,-0.427,0.122,0.427,340.007
121809,142452,9298,-0.128,1.018,0.118,-0.427,0.122,0.427,340.011
121809,142517,11429,-0.13,1.015,0.119,-0.488,0.366,0.427,340.017
121823,142452,9298,-0.125,1.009,0.114,-0.488,0.366,0.427,340.021
121823,142487,11452,-0.129,0.999,0.109,-0.488,0.305,0.366,340.027
121832,142452,9298,-0.132,1.001,0.106,-0.488,0.305,0.366,340.031
121832,142508,11434,-0.132,1.008,0.108,-0.183,0.427,0.366,340.037
121826,142452,9298,-0.131,1.014,0.115,-0.183,0.427,0.366,340.041
121826,142548,11441,-0.129,1.016,0.125,0.183,0.366,0.061,340.047
121837,142452,9298,-0.128,1.016,0.127,0.183,0.366,0.061,340.051
121837,142524,11441,-0.124,1.018,0.129,1.159,-0.183,0.183,340.057
121837,142452,9298,-0.12,1.018,0.13,1.159,-0.183,0.183,340.061
121837,142507,11433,-0.119,1.019,0.129,0.732,-0.366,0.427,340.067
121827,142452,9298,-0.119,1.02,0.126,0.732,-0.366,0.427,340.071
121827,142501,11420,-0.123,1.022,0.125,0.061,0.305,0.244,340.077
121810,142452,9298,-0.126,1.021,0.12,0.061,0.305,0.244,340.081
121810,142530,11438,-0.125,1.021,0.12,-0.183,0.854,0.061,340.087
121834,142452,9298,-0.132,1.022,0.122,-0.183,0.854,0.061,340.09
121834,142503,11417,-0.132,1.019,0.125,-0.244,0.854,0.122,340.097
121828,142452,9298,-0.133,1.017,0.124,-0.244,0.854,0.122,340.1
121828,142510,11452,-0.133,1.013,0.128,-0.366,0.488,0.366,340.106
121887,142452,9298,-0.136,1.008,0.128,-0.366,0.488,0.366,340.11
121887,142518,11425,-0.136,1.006,0.124,-0.793,0.061,0.427,340.116
121848,142452,9298,-0.132,1.003,0.119,-0.793,0.061,0.427,340.12
121848,142517,11447,-0.128,1,0.117,-0.732,0,0.427,340.126
121872,142452,9298,-0.128,1.004,0.115,-0.732,0,0.427,340.13
121872,142526,11427,-0.131,1.01,0.112,0.061,0.366,0.427,340.136
121859,142452,9298,-0.128,1.018,0.109,0.061,0.366,0.427,340.14
121859,142529,11433,-0.127,1.021,0.105,-0.244,0.305,0.305,340.146
121857,142452,9298,-0.127,1.021,0.105,-0.244,0.305,0.305,340.15
121857,142526,11441,-0.132,1.022,0.119,0.976,-0.061,0.488,340.156
121867,142452,9298,-0.132,1.022,0.119,0.976,-0.061,0.488,340.16
121867,142541,11440,-0.125,1.027,0.13,0.488,-0.488,0.671,340.166
121877,142452,9298,-0.125,1.027,0.13,0.488,-0.488,0.671,340.17
121877,142523,11427,-0.121,1.018,0.122,-1.341,-0.61,0.793,340.176
121874,142452,9298,-0.121,1.018,0.122,-1.341,-0.61,0.793,340.179
121874,142544,11446,-0.118,1.011,0.126,-1.22,-0.305,0.549,340.186
121877,142452,9298,-0.118,1.011,0.126,-1.22,-0.305,0.549,340.189
121877,142552,11438,-0.121,1.008,0.128,-0.122,0.122,0.183,340.196
121888,142452,9298,-0.121,1.008,0.128,-0.122,0.122,0.183,340.199
121888,142564,11448,-0.128,1.012,0.123,0.305,0.549,0.183,340.205
121876,142452,9298,-0.128,1.012,0.123,0.305,0.549,0.183,340.209
121876,142550,11434,-0.129,1.017,0.123,0.183,0.732,0.122,340.215
121887,142452,9298,-0.129,1.017,0.123,0.183,0.732,0.122,340.219
121887,142556,11442,-0.134,1.012,0.128,-0.305,0.549,0.244,340.225
121876,142452,9298,-0.134,1.012,0.128,-0.305,0.549,0.244,340.229
121876,142541,11449,-0.13,1.012,0.125,0.183,0.549,0.549,340.235
121892,142452,9298,-0.13,1.012,0.125,0.183,0.549,0.549,340.239
121892,142539,11431,-0.127,1.019,0.124,0,0.61,0.366,340.245
121859,142452,9298,-0.127,1.019,0.124,0,0.61,0.366,340.249
121859,142525,11442,-0.129,1.026,0.121,-0.671,0.671,0.305,340.255
121868,142452,9298,-0.129,1.026,0.121,-0.671,0.671,0.305,340.259
121868,142516,11457,-0.125,1.016,0.128,0.549,0.854,0.305,340.265
121865,142452,9298,-0.125,1.016,0.128,0.549,0.854,0.305,340.269
121865,142526,11433,-0.127,1.013,0.127,0.244,0.793,0.305,340.275
121841,142452,9298,-0.127,1.013,0.127,0.244,0.793,0.305,340.279
121841,142533,11426,-0.124,1.015,0.11,-0.61,0.793,0.305,340.285
121847,142452,9298,-0.124,1.015,0.11,-0.61,0.793,0.305,340.288
121847,142500,11450,-0.123,1.01,0.111,-0.61,0.793,0.305,340.295
121862,142452,9298,-0.127,1.013,0.118,0.793,1.037,0.122,340.298
121862,142525,11456,-0.129,1.014,0.122,0.793,1.037,0.122,340.304
121861,142452,9298,-0.131,1.02,0.125,0.732,0.854,0.061,340.308
121861,142521,11425,-0.131,1.016,0.124,0.732,0.854,0.061,340.314
121877,142452,9298,-0.134,1.019,0.124,-0.671,0.549,0.366,340.318
121877,142507,11431,-0.13,1.018,0.129,-0.671,0.549,0.366,340.324
121859,142452,9298,-0.128,1.012,0.12,-1.098,0.183,0.427,340.328
121859,142500,11420,-0.129,1.008,0.115,-1.098,0.183,0.427,340.334
121823,142452,9298,-0.128,1.009,0.118,-1.159,0.122,0.671,340.338
121823,142500,11436,-0.127,1.011,0.12,-1.159,0.122,0.671,340.344
121859,142452,9298,-0.124,1.011,0.118,-1.22,0.122,0.793,340.348
121859,142485,11437,-0.124,1.012,0.118,-1.22,0.122,0.793,340.354
121840,142452,9298,-0.123,1.011,0.12,-0.183,0.305,0.793,340.358
121840,142489,11434,-0.129,1.01,0.123,-0.183,0.305,0.793,340.364
121831,142452,9298,-0.123,1.019,0.124,0.305,0.671,0.732,340.368
121831,142512,11436,-0.126,1.032,0.127,0.305,0.671,0.732,340.374
121833,142452,9298,-0.125,1.03,0.129,-0.549,0.671,0.427,340.377
121833,142491,11445,-0.124,1.029,0.129,-0.549,0.671,0.427,340.384
121814,142452,9298,-0.123,1.026,0.127,0.366,0.671,0.244,340.387
121814,142486,11435,-0.121,1.019,0.127,0.366,0.671,0.244,340.394
121817,142452,9298,-0.125,1.02,0.127,0.183,0.854,0.061,340.397
121817,142482,11432,-0.125,1.025,0.123,0.183,0.854,0.061,340.403
121807,142452,9298,-0.126,1.022,0.121,-1.159,1.159,-0.183,340.407
121807,142480,11435,-0.127,1.019,0.124,-1.159,1.159,-0.183,340.413
121835,142452,9298,-0.129,1.013,0.125,-0.427,1.28,-0.366,340.417
121835,142485,11436,-0.129,1.006,0.125,-0.427,1.28,-0.366,340.423
121837,142452,9298,-0.128,1.006,0.119,0.366,1.159,-0.305,340.427
121837,142489,11442,-0.129,1.009,0.112,0.366,1.159,-0.305,340.433
121826,142452,9298,-0.126,1.006,0.114,-0.427,0.793,-0.122,340.437
121826,142475,11437,-0.131,1.004,0.12,-0.427,0.793,-0.122,340.443
121835,142452,9298,-0.129,1.005,0.121,-0.183,0.366,0.305,340.447
121835,142483,11428,-0.128,1.001,0.122,-0.183,0.366,0.305,340.453
121827,142452,9298,-0.126,1.005,0.119,0.122,0.122,0.793,340.457
121827,142474,11440,-0.126,1.009,0.117,0.122,0.122,0.793,340.463
121823,142452,9298,-0.127,1.014,0.121,-0.427,0.305,0.671,340.467
121823,142484,11450,-0.127,1.02,0.12,-0.427,0.305,0.671,340.473
121820,142452,9298,-0.126,1.024,0.123,-0.244,0.488,0.488,340.476
121820,142488,11439,-0.126,1.029,0.126,-0.244,0.488,0.488,340.483
121820,142452,9298,-0.128,1.029,0.125,0.305,0.488,0.366,340.486
121820,142462,11432,-0.126,1.023,0.123,0.305,0.488,0.366,340.493
121800,142452,9298,-0.127,1.022,0.123,0.366,0.854,0.488,340.496
121800,142449,11444,-0.129,1.02,0.12,0.366,0.854,0.488,340.502
121810,142452,9298,-0.131,1.018,0.117,-0.488,0.854,0.488,340.506
121810,142475,11420,-0.13,1.016,0.117,-0.488,0.854,0.488,340.512
121799,142452,9298,-0.131,1.014,0.119,-0.976,0.427,0.427,340.516
121799,142500,11436,-0.132,1.01,0.121,-0.976,0.427,0.427,340.522
121823,142452,9298,-0.13,1.009,0.119,-0.671,0,0.183,340.526
121823,142473,11445,-0.13,1.007,0.115,-0.671,0,0.183,340.532
121837,142452,9298,-0.128,1.008,0.114,0.183,-0.061,0.061,340.536
121837,142481,11451,-0.13,1.011,0.115,0.183,-0.061,0.061,340.542
121828,142452,9298,-0.129,1.011,0.117,-0.488,-0.244,0.305,340.546
121828,142478,11418,-0.126,1.014,0.117,-0.488,-0.244,0.305,340.552
121826,142452,9298,-0.126,1.016,0.119,-0.915,-0.366,0.427,340.556
121826,142482,11435,-0.126,1.007,0.113,-0.915,-0.366,0.427,340.562
121851,142452,9298,-0.128,1.005,0.116,-0.549,-0.305,0.549,340.566
121851,142476,11433,-0.128,1.019,0.116,-0.549,-0.305,0.549,340.572
121833,142452,9298,-0.129,1.029,0.119,-0.732,-0.305,0.366,340.575
121833,142471,11428,-0.128,1.037,0.131,-0.732,-0.305,0.366,340.582
121812,142452,9298,-0.127,1.032,0.133,-0.122,-0.305,0.061,340.585
121812,142481,11439,-0.124,1.028,0.132,-0.122,-0.305,0.061,340.592
121815,142452,9298,-0.124,1.025,0.132,0.671,-0.305,-0.061,340.595
121815,142457,11422,-0.124,1.026,0.13,0.671,-0.305,-0.061,340.601
121839,142452,9298,-0.126,1.023,0.129,-1.22,-0.244,0.061,340.605
121839,142470,11427,-0.126,1.018,0.131,-1.22,-0.244,0.061,340.611
121846,142452,9298,-0.126,1.014,0.135,-1.159,0.061,0,340.615
121846,142467,11430,-0.129,1.008,0.137,-1.159,0.061,0,340.621
121824,142452,9298,-0.128,1.002,0.136,-0.244,0,-0.061,340.625
121824,142478,11429,-0.124,0.999,0.134,-0.244,0,-0.061,340.631
121859,142452,9298,-0.125,1.001,0.13,0,0.122,-0.122,340.635
121859,142472,11420,-0.125,1.009,0.129,0,0.122,-0.122,340.641
121825,142452,9298,-0.126,1.01,0.127,0.305,0.427,0.183,340.645
121825,142481,11422,-0.125,1.002,0.125,0.305,0.427,0.183,340.651
121815,142452,9298,-0.126,1.001,0.116,0.61,0.915,0.488,340.655
121815,142480,11418,-0.127,1,0.112,0.61,0.915,0.488,340.661
121842,142452,9298,-0.127,1.008,0.111,-0.549,0.671,0.976,340.665
121842,142478,11438,-0.128,1.017,0.115,-0.549,0.671,0.976,340.671
121842,142452,9298,-0.126,1.019,0.117,-0.488,0.305,1.037,340.674
121842,142474,11437,-0.123,1.018,0.123,-0.488,0.305,1.037,340.681
121841,142452,9298,-0.126,1.02,0.119,1.22,0.427,0.549,340.684
121841,142512,11427,-0.126,1.024,0.115,1.22,0.427,0.549,340.691
121853,142452,9298,-0.126,1.033,0.115,0.854,0.732,0.488,340.694
121853,142493,11438,-0.13,1.035,0.124,0.854,0.732,0.488,340.7
121853,142452,9298,-0.132,1.033,0.126,0.549,0.671,0.366,340.704
121853,142484,11425,-0.13,1.03,0.12,0.549,0.671,0.366,340.71
121853,142452,9298,-0.13,1.026,0.119,-0.244,0.183,0.061,340.714
121853,142505,11428,-0.128,1.022,0.109,-0.244,0.183,0.061,340.72
121848,142452,9298,-0.13,1.014,0.105,-1.707,-0.061,-0.061,340.724
121848,142494,11420,-0.129,1.008,0.116,-1.707,-0.061,-0.061,340.73
121834,142452,9298,-0.129,1.008,0.116,-1.707,-0.061,-0.061,340.734
121834,142497,11423,-0.134,1.005,0.137,-0.976,-0.061,0.183,340.74
121845,142452,9298,-0.134,1.005,0.137,-0.976,-0.061,0.183,340.744
121845,142491,11425,-0.125,1.003,0.126,-0.366,-0.305,0.305,340.75
121841,142452,9298,-0.125,1.003,0.126,-0.366,-0.305,0.305,340.754
121841,142490,11424,-0.126,1.016,0.127,-0.366,-0.305,0.366,340.76
121840,142452,9298,-0.126,1.016,0.127,-0.366,-0.305,0.366,340.764
121840,142512,11436,-0.123,1.021,0.132,0,-0.183,0.427,340.77
121854,142452,9298,-0.123,1.021,0.132,0,-0.183,0.427,340.773
121854,142523,11427,-0.122,1.018,0.124,0.366,0,0.427,340.78
121886,142452,9298,-0.122,1.018,0.124,0.366,0,0.427,340.783
121886,142517,11426,-0.125,1.023,0.12,-0.427,0.183,0.366,340.79
121869,142452,9298,-0.125,1.023,0.12,-0.427,0.183,0.366,340.793
121869,142534,11439,-0.127,1.012,0.129,-1.707,0.61,0.427,340.799
121870,142452,9298,-0.127,1.012,0.129,-1.707,0.61,0.427,340.803
121870,142511,11424,-0.128,1.005,0.118,-1.22,0.732,0.427,340.809
121881,142452,9298,-0.128,1.005,0.118,-1.22,0.732,0.427,340.813
121881,142521,11427,-0.13,1.018,0.114,-0.305,0.732,0.366,340.819
121871,142452,9298,-0.13,1.018,0.114,-0.305,0.732,0.366,340.823
121871,142524,11425,-0.13,1.018,0.119,0.366,0.732,0.122,340.829
121891,142452,9298,-0.13,1.018,0.119,0.366,0.732,0.122,340.833
121891,142513,11424,-0.129,1.024,0.124,1.402,0.549,0.061,340.839
121889,142452,9298,-0.129,1.024,0.124,1.402,0.549,0.061,340.843
121889,142557,11439,-0.128,1.025,0.129,0.427,-0.061,0,340.849
121898,142452,9298,-0.128,1.025,0.129,0.427,-0.061,0,340.853
121898,142533,11425,-0.127,1.016,0.13,-0.854,-0.244,0.061,340.859
121901,142452,9298,-0.127,1.016,0.13,-0.854,-0.244,0.061,340.863
121901,142552,11427,-0.128,1.01,0.122,-1.159,0.183,0.305,340.869
121899,142452,9298,-0.128,1.01,0.122,-1.159,0.183,0.305,340.872
121899,142551,11437,-0.128,1.01,0.121,-1.22,0.488,0.305,340.879
121920,142452,9298,-0.129,1.008,0.126,-1.22,0.488,0.305,340.882
121920,142546,11431,-0.13,1.009,0.122,-0.488,0.488,0.061,340.888
121940,142452,9298,-0.128,1.009,0.12,-0.488,0.488,0.061,340.892
121940,142574,11419,-0.127,1.014,0.118,0,0.122,0.122,340.898
121920,142452,9298,-0.129,1.013,0.117,0,0.122,0.122,340.902
121920,142575,11445,-0.124,1.01,0.119,0.244,-0.061,0.427,340.908
121927,142452,9298,-0.124,1.009,0.124,0.244,-0.061,0.427,340.912
121927,142543,11454,-0.123,1.009,0.122,0.488,0.061,0.549,340.918
121923,142452,9298,-0.123,1.014,0.12,0.488,0.061,0.549,340.922
121923,142534,11438,-0.124,1.019,0.119,-0.915,0.244,0.549,340.928
121909,142452,9298,-0.124,1.018,0.125,-0.915,0.244,0.549,340.932
121909,142536,11425,-0.127,1.014,0.123,-0.854,0.061,0.488,340.938
121939,142452,9298,-0.13,1.015,0.118,-0.854,0.061,0.488,340.942
121939,142527,11423,-0.13,1.019,0.122,-0.488,0.305,0.549,340.948
121908,142452,9298,-0.133,1.025,0.126,-0.488,0.305,0.549,340.952
121908,142511,11417,-0.133,1.028,0.132,-0.854,0.244,0.671,340.958
121901,142452,9298,-0.134,1.024,0.135,-0.854,0.244,0.671,340.962
121901,142563,11430,-0.13,1.019,0.135,0.427,0.061,0.366,340.968
121900,142452,9298,-0.125,1.013,0.131,0.427,0.061,0.366,340.971
121900,142537,11427,-0.125,1.015,0.124,-0.183,-0.122,0.305,340.978
121896,142452,9298,-0.125,1.019,0.123,-0.183,-0.122,0.305,340.981
121896,142548,11424,-0.124,1.019,0.122,-1.341,0.183,0.488,340.988
121912,142452,9298,-0.128,1.009,0.126,-1.341,0.183,0.488,340.991
121912,142553,11434,-0.128,1.002,0.128,0.183,0.366,0.305,340.997
121945,142452,9298,-0.126,1.003,0.13,0.183,0.366,0.305,341.001
121945,142563,11437,-0.126,1.005,0.128,1.159,0.549,0.61,341.007
121930,142452,9298,-0.126,1.009,0.126,1.159,0.549,0.61,341.011
121930,142567,11426,-0.131,1.014,0.122,0.732,0.793,0.671,341.017
121913,142452,9298,-0.131,1.017,0.116,0.732,0.793,0.671,341.021
121913,142556,11434,-0.128,1.016,0.109,0.427,1.098,0.427,341.027
121916,142452,9298,-0.127,1.015,0.109,0.427,1.098,0.427,341.031
121916,142561,11452,-0.132,1.019,0.118,0.366,0.976,0.305,341.037
121954,142452,9298,-0.127,1.022,0.123,0.366,0.976,0.305,341.041
121954,142560,11427,-0.128,1.021,0.125,-0.305,0.183,0.488,341.047
121940,142452,9298,-0.128,1.018,0.122,-0.305,0.183,0.488,341.051
121940,142572,11439,-0.125,1.016,0.12,-0.488,-0.305,0.549,341.057
121980,142452,9298,-0.122,1.018,0.122,-0.488,-0.305,0.549,341.061
121980,142563,11430,-0.121,1.021,0.124,-0.183,-0.183,0.549,341.067
121967,142452,9298,-0.123,1.023,0.128,-0.183,-0.183,0.549,341.07
121967,142571,11436,-0.125,1.024,0.129,-0.122,0,0.305,341.077
121956,142452,9298,-0.125,1.022,0.127,-0.122,0,0.305,341.08
121956,142583,11439,-0.126,1.017,0.13,-0.122,0.244,-0.244,341.086
121986,142452,9298,-0.125,1.014,0.13,-0.122,0.244,-0.244,341.09
121986,142569,11435,-0.124,1.011,0.125,0,0.549,0.122,341.096
121962,142708,9298,-0.127,1.006,0.128,0,0.549,0.122,341.1
121962,142592,11432,-0.128,1.001,0.126,0.061,0.61,0.61,341.106
121955,142452,9298,-0.127,1.004,0.12,0.061,0.61,0.61,341.11
121955,142588,11441,-0.127,1.006,0.116,-0.61,0.549,0.549,341.116
121944,142452,9298,-0.131,1.009,0.119,-0.61,0.549,0.549,341.12
121944,142582,11437,-0.128,1.013,0.12,-0.427,0.427,0.366,341.126
121946,142452,9298,-0.126,1.01,0.125,-0.427,0.427,0.366,341.13
121946,142576,11435,-0.124,1.012,0.124,0.671,0.122,0.427,341.136
121962,142452,9298,-0.126,1.017,0.12,0.671,0.122,0.427,341.14
121962,142568,11431,-0.126,1.018,0.119,0.488,0.305,0.915,341.146
121972,142452,9298,-0.122,1.026,0.124,0.488,0.305,0.915,341.15
121972,142585,11443,-0.126,1.028,0.129,0.305,0.732,0.61,341.156
121977,142452,9298,-0.13,1.029,0.129,0.305,0.732,0.61,341.16
121977,142583,11442,-0.13,1.026,0.129,0.305,0.915,0.061,341.166
122007,142452,9298,-0.128,1.026,0.127,0.305,0.915,0.061,341.169
122007,142578,11436,-0.13,1.024,0.123,-0.305,0.732,-0.183,341.176
121967,142452,9298,-0.13,1.019,0.12,-0.305,0.732,-0.183,341.179
121967,142570,11440,-0.131,1.017,0.115,-0.305,0.488,-0.305,341.185
121967,142708,9298,-0.129,1.013,0.118,-0.305,0.488,-0.305,341.189
121967,142596,11445,-0.131,1.014,0.117,0,0.427,-0.122,341.195
121981,142708,9298,-0.131,1.013,0.119,0,0.427,-0.122,341.199
121981,142603,11434,-0.13,1.01,0.119,-0.305,0.366,-0.305,341.205
121972,142708,9298,-0.13,1.007,0.118,-0.305,0.366,-0.305,341.209
121972,142594,11438,-0.127,1.005,0.121,-0.305,-0.061,0.061,341.215
121998,142708,9298,-0.128,1.006,0.124,-0.305,-0.061,0.061,341.219
121998,142613,11433,-0.126,1.008,0.123,-0.305,-0.244,0.488,341.225
121969,142708,9298,-0.125,1.007,0.115,-0.305,-0.244,0.488,341.229
121969,142602,11437,-0.122,1.007,0.119,-0.61,-0.122,0.732,341.235
121962,142452,9298,-0.125,1.016,0.13,-0.61,-0.122,0.732,341.239
121962,142566,11421,-0.125,1.018,0.131,-0.976,0.122,0.854,341.245
121959,142708,9298,-0.123,1.015,0.13,-0.976,0.122,0.854,341.249
121959,142609,11443,-0.126,1.014,0.129,-0.122,0.244,0.793,341.255
121972,142452,9298,-0.126,1.014,0.123,-0.122,0.244,0.793,341.258
121972,142586,11425,-0.124,1.018,0.126,-0.061,0.427,0.671,341.265
121960,142708,9298,-0.127,1.025,0.127,-0.061,0.427,0.671,341.268
121960,142610,11448,-0.129,1.023,0.127,-0.488,0.549,0.61,341.275
121983,142452,9298,-0.129,1.02,0.123,-0.488,0.549,0.61,341.278
121983,142574,11441,-0.129,1.014,0.119,0.427,0.793,0.305,341.284
121975,142708,9298,-0.127,1.014,0.12,0.427,0.793,0.305,341.288
121975,142594,11429,-0.127,1.013,0.12,0.854,0.854,0,341.294
121994,142452,9298,-0.132,1.021,0.123,0.854,0.854,0,341.298
121994,142590,11419,-0.132,1.022,0.12,0.427,0.366,0.183,341.304
121988,142708,9298,-0.132,1.022,0.12,0.427,0.366,0.183,341.308
121988,142596,11439,-0.125,1.008,0.113,0.366,0.061,0.183,341.314
121977,142452,9298,-0.125,1.008,0.113,0.366,0.061,0.183,341.318
121977,142563,11433,-0.124,1.012,0.12,-0.732,0.122,0.366,341.324
121974,142452,9298,-0.124,1.012,0.12,-0.732,0.122,0.366,341.328
121974,142585,11446,-0.125,1.012,0.127,-0.854,0.122,0.488,341.334
121973,142708,9298,-0.125,1.012,0.127,-0.854,0.122,0.488,341.338
121973,142614,11439,-0.126,1.012,0.13,0,0,0.61,341.344
121967,142452,9298,-0.126,1.012,0.13,0,0,0.61,341.348
121967,142572,11425,-0.125,1.019,0.13,0.61,0.122,0.488,341.354
121947,142452,9298,-0.125,1.019,0.13,0.61,0.122,0.488,341.358
121947,142583,11420,-0.124,1.033,0.13,0.366,0.305,0.305,341.364
121952,142452,9298,-0.124,1.033,0.13,0.366,0.305,0.305,341.367
121952,142588,11427,-0.128,1.022,0.128,0.183,0.549,0.366,341.374
121958,142452,9298,-0.128,1.022,0.128,0.183,0.549,0.366,341.377
121958,142575,11420,-0.126,1.008,0.117,0.244,0.793,0.305,341.383
121972,142452,9298,-0.126,1.008,0.117,0.244,0.793,0.305,341.387
121972,142583,11420,-0.131,1.006,0.117,-0.061,0.915,0.427,341.393
121992,142452,9298,-0.131,1.006,0.117,-0.061,0.915,0.427,341.397
121992,142575,11418,-0.128,1.018,0.128,0.183,0.793,0.366,341.403
121960,142452,9298,-0.128,1.018,0.128,0.183,0.793,0.366,341.407
121960,142571,11418,-0.127,1.016,0.125,1.463,0.366,0.122,341.413
121981,142452,9298,-0.127,1.016,0.125,1.463,0.366,0.122,341.417
121981,142579,11413,-0.121,1.02,0.124,1.098,0.427,0.122,341.423
121965,142452,9298,-0.121,1.02,0.124,1.098,0.427,0.122,341.427
121965,142569,11440,-0.126,1.022,0.122,-0.488,0.793,0.183,341.433
121954,142452,9298,-0.126,1.022,0.122,-0.488,0.793,0.183,341.437
121954,142571,11428,-0.126,1.009,0.118,-0.366,0.915,0.061,341.443
121983,142452,9298,-0.126,1.009,0.118,-0.366,0.915,0.061,341.447
121983,142581,11421,-0.127,1.004,0.114,-0.366,0.915,0.061,341.453
121965,142452,9298,-0.126,1.004,0.108,-0.061,0.671,0.122,341.456
121965,142574,11436,-0.13,1.009,0.114,-0.061,0.671,0.122,341.463
121996,142708,9298,-0.131,1.013,0.12,-0.305,0.61,0.427,341.466
121996,142602,11426,-0.132,1.016,0.123,-0.305,0.61,0.427,341.473
121985,142452,9298,-0.13,1.014,0.124,0.488,0.427,0.427,341.476
121985,142589,11429,-0.128,1.012,0.124,0.488,0.427,0.427,341.482
122009,142452,9298,-0.125,1.012,0.122,1.28,0.488,0.549,341.486
122009,142588,11424,-0.127,1.019,0.123,1.28,0.488,0.549,341.492
121997,142708,9298,-0.127,1.02,0.129,0,0.549,0.671,341.496
121997,142605,11428,-0.132,1.023,0.127,0,0.549,0.671,341.502
122002,142708,9298,-0.128,1.018,0.125,-0.976,0.366,0.488,341.506
122002,142603,11429,-0.125,1.013,0.118,-0.976,0.366,0.488,341.512
122003,142708,9298,-0.126,1.011,0.119,-0.244,0.305,0.244,341.516
122003,142608,11417,-0.128,1.016,0.117,-0.244,0.305,0.244,341.522
121989,142452,9298,-0.128,1.02,0.12,-0.305,0.427,0.366,341.526
121989,142573,11438,-0.127,1.019,0.123,-0.305,0.427,0.366,341.532
122009,142452,9298,-0.125,1.019,0.119,0.183,0.305,0.366,341.536
122009,142575,11424,-0.125,1.018,0.113,0.183,0.305,0.366,341.542
121995,142708,9298,-0.125,1.019,0.115,0.427,0.244,0.122,341.546
121995,142609,11423,-0.131,1.02,0.115,0.427,0.244,0.122,341.552
121997,142452,9298,-0.13,1.021,0.118,-0.854,0.244,0.122,341.555
121997,142583,11436,-0.129,1.021,0.124,-0.854,0.244,0.122,341.562
121984,142708,9298,-0.129,1.013,0.123,-0.854,-0.061,0.244,341.565
121984,142601,11416,-0.128,1.007,0.118,-0.854,-0.061,0.244,341.572
121983,142452,9298,-0.13,1.006,0.121,-0.366,0.183,0.366,341.575
121983,142579,11437,-0.128,1.006,0.122,-0.366,0.183,0.366,341.581
121985,142452,9298,-0.131,1.012,0.126,-0.732,0.305,0.488,341.585
121985,142586,11415,-0.131,1.016,0.123,-0.732,0.305,0.488,341.591
121987,142452,9298,-0.13,1.016,0.13,-0.488,-0.061,0.549,341.595
121987,142589,11420,-0.127,1.017,0.129,-0.488,-0.061,0.549,341.601
122004,142708,9298,-0.124,1.014,0.125,0.183,-0.183,0.122,341.605
122004,142597,11426,-0.124,1.017,0.123,0.183,-0.183,0.122,341.611
121984,142452,9298,-0.124,1.017,0.116,0.061,-0.061,0.183,341.615
121984,142577,11430,-0.124,1.019,0.121,0.061,-0.061,0.183,341.621
121987,142452,9298,-0.128,1.021,0.131,0.061,0.183,0.61,341.625
121987,142567,11395,-0.126,1.019,0.132,0.061,0.183,0.61,341.631
121983,142452,9298,-0.125,1.016,0.133,0.122,0.183,0.244,341.635
121983,142565,11412,-0.123,1.013,0.127,0.122,0.183,0.244,341.641
121955,142452,9298,-0.127,1.008,0.122,0.305,0.488,0,341.645
121955,142547,11426,-0.129,1.01,0.116,0.305,0.488,0,341.651
121957,142452,9298,-0.132,1.016,0.116,-0.061,0.732,0.427,341.654
121957,142591,11426,-0.13,1.019,0.118,-0.061,0.732,0.427,341.661
121958,142452,9298,-0.128,1.02,0.119,-0.427,0.488,0.427,341.664
121958,142567,11422,-0.126,1.016,0.116,-0.427,0.488,0.427,341.671
121976,142708,9298,-0.128,1.014,0.118,0.427,0.122,0.366,341.674
121976,142593,11425,-0.126,1.015,0.118,0.427,0.122,0.366,341.68
121944,142452,9298,-0.124,1.02,0.122,-0.671,-0.244,0.61,341.684
121944,142520,11414,-0.128,1.023,0.121,-0.671,-0.244,0.61,341.69
121943,142452,9298,-0.128,1.018,0.123,-1.829,0,0.854,341.694
121943,142553,11426,-0.128,1.009,0.126,-1.829,0,0.854,341.7
121965,142452,9298,-0.129,1.007,0.125,-0.488,0.366,0.732,341.704
121965,142561,11424,-0.125,1.007,0.121,-0.488,0.366,0.732,341.71
121976,142708,9298,-0.126,1.015,0.121,-0.671,0.549,0.671,341.714
121976,142599,11420,-0.131,1.02,0.128,-0.671,0.549,0.671,341.72
121984,142452,9298,-0.127,1.016,0.125,-0.854,0.305,0.488,341.724
121984,142561,11446,-0.126,1.013,0.124,-0.854,0.305,0.488,341.73
121996,142708,9298,-0.122,1.012,0.127,1.098,0.183,0.305,341.734
121996,142610,11428,-0.126,1.014,0.124,1.098,0.183,0.305,341.74
121989,142452,9298,-0.125,1.021,0.128,1.28,0.549,0.366,341.744
121989,142564,11429,-0.125,1.019,0.13,1.28,0.549,0.366,341.75
121982,142452,9298,-0.129,1.013,0.13,0.976,0.976,0.244,341.753
121982,142589,11432,-0.127,1.013,0.124,0.976,0.976,0.244,341.76
121991,142452,9298,-0.13,1.012,0.114,0.183,1.22,0.122,341.763
121991,142574,11433,-0.135,1.012,0.113,0.183,1.22,0.122,341.77
121989,142452,9298,-0.132,1.015,0.109,-1.098,1.098,0.305,341.773
121989,142561,11413,-0.134,1.02,0.112,-1.098,1.098,0.305,341.779
121985,142452,9298,-0.134,1.019,0.121,-0.976,0.427,0.122,341.783
121985,142578,11432,-0.129,1.014,0.128,-0.976,0.427,0.122,341.789
122009,142452,9298,-0.128,1.012,0.124,0.183,-0.061,0.305,341.793
122009,142574,11425,-0.126,1.012,0.119,0.183,-0.061,0.305,341.799
122003,142452,9298,-0.124,1.015,0.116,-0.915,-0.244,0.854,341.803
122003,142590,11421,-0.124,1.013,0.116,-0.915,-0.244,0.854,341.809
122013,142452,9298,-0.121,1.015,0.124,-0.976,0,0.732,341.813
122013,142569,11441,-0.123,1.018,0.129,-0.976,0,0.732,341.819
122029,142452,9298,-0.121,1.017,0.133,0.305,0.305,0.366,341.823
122029,142582,11428,-0.124,1.016,0.13,0.305,0.305,0.366,341.829
122021,142708,9298,-0.126,1.019,0.13,-0.061,0.488,0.244,341.833
122021,142611,11426,-0.125,1.015,0.13,-0.061,0.488,0.244,341.839
122028,142708,9298,-0.13,1.011,0.126,0.183,0.671,0.305,341.843
122028,142603,11437,-0.13,1.012,0.119,0.183,0.671,0.305,341.849
122037,142452,9298,-0.13,1.021,0.118,0.427,0.915,0.183,341.852
122037,142591,11429,-0.125,1.024,0.118,0.427,0.915,0.183,341.859
122030,142452,9298,-0.128,1.026,0.125,0,0.61,0.061,341.862
122030,142586,11427,-0.129,1.016,0.123,0,0.61,0.061,341.869
122004,142708,9298,-0.125,1.011,0.119,0.549,0.549,0.061,341.872
122004,142593,11419,-0.124,1.008,0.12,0.549,0.549,0.061,341.878
122024,142708,9298,-0.129,1.011,0.119,-0.122,0.854,0.305,341.882
122024,142621,11416,-0.13,1.015,0.12,-0.122,0.854,0.305,341.888
122044,142708,9298,-0.13,1.015,0.12,-0.122,0.854,0.305,341.892
122044,142603,11426,-0.134,1.015,0.111,-0.305,1.098,0.366,341.898
121995,142708,9298,-0.134,1.015,0.111,-0.305,1.098,0.366,341.902
121995,142599,11428,-0.13,1.015,0.114,0.183,0.915,0.305,341.908
122013,142452,9298,-0.13,1.015,0.114,0.183,0.915,0.305,341.912
122013,142581,11432,-0.132,1.012,0.125,0.122,0.366,0.549,341.918
122024,142452,9298,-0.132,1.012,0.125,0.122,0.366,0.549,341.922
122024,142589,11430,-0.124,1.012,0.124,-0.488,0.061,0.854,341.928
122008,142452,9298,-0.124,1.012,0.124,-0.488,0.061,0.854,341.932
122008,142581,11436,-0.126,1.019,0.124,-1.159,-0.183,0.915,341.938
122023,142452,9298,-0.126,1.019,0.124,-1.159,-0.183,0.915,341.942
122023,142588,11430,-0.125,1.023,0.131,-0.61,-0.122,0.732,341.948
122037,142708,9298,-0.125,1.023,0.131,-0.61,-0.122,0.732,341.951
122037,142610,11445,-0.125,1.016,0.122,0.915,0,0.244,341.958
122028,142708,9298,-0.125,1.016,0.122,0.915,0,0.244,341.961
122028,142598,11437,-0.133,1.022,0.118,0.488,0.183,0.427,341.967
122027,142708,9298,-0.133,1.022,0.118,0.488,0.183,0.427,341.971
122027,142611,11435,-0.13,1.021,0.125,0,0.244,0.549,341.977
122042,142452,9298,-0.13,1.021,0.125,0,0.244,0.549,341.981
122042,142586,11430,-0.125,1.012,0.124,0.244,0.122,0.244,341.987
122063,142708,9298,-0.125,1.012,0.124,0.244,0.122,0.244,341.991
122063,142597,11430,-0.127,1.008,0.121,0.183,0.122,0.122,341.997
122031,142452,9298,-0.127,1.008,0.121,0.183,0.122,0.122,342.001
122031,142588,11432,-0.127,1.011,0.119,-0.793,0.366,0.366,342.007
122016,142708,9298,-0.127,1.011,0.119,-0.793,0.366,0.366,342.011
122016,142592,11431,-0.125,1.013,0.112,-0.671,0.488,0.244,342.017
122020,142452,9298,-0.125,1.013,0.112,-0.671,0.488,0.244,342.021
122020,142584,11430,-0.128,1.02,0.118,0.427,0.427,0.061,342.027
122015,142452,9298,-0.128,1.02,0.118,0.427,0.427,0.061,342.031
122015,142570,11427,-0.129,1.025,0.127,0.488,0.366,0.305,342.037
122024,142452,9298,-0.131,1.031,0.131,0.488,0.366,0.305,342.041
122024,142579,11432,-0.129,1.028,0.137,-0.183,-0.061,0.244,342.047
122058,142708,9298,-0.125,1.02,0.137,-0.183,-0.061,0.244,342.05
122058,142605,11422,-0.123,1.009,0.135,-0.488,-0.549,0,342.057
122054,142708,9298,-0.12,1.002,0.128,-0.488,-0.549,0,342.06
122054,142610,11429,-0.124,1.003,0.122,-0.976,0.244,0.366,342.066
122065,142708,9298,-0.126,1.009,0.116,-0.976,0.244,0.366,342.07
122065,142611,11418,-0.129,1.009,0.115,-1.463,0.915,0.488,342.076
122050,142708,9298,-0.133,1.004,0.113,-1.463,0.915,0.488,342.08
122050,142617,11430,-0.132,1.003,0.114,0.671,1.098,0.305,342.086
122053,142708,9298,-0.134,1.01,0.118,0.671,1.098,0.305,342.09
122053,142605,11433,-0.133,1.022,0.127,1.402,0.549,0.305,342.096
122046,142708,9298,-0.13,1.029,0.13,1.402,0.549,0.305,342.1
122046,142607,11412,-0.127,1.028,0.13,0.732,0,0.244,342.106
122039,142708,9298,-0.121,1.029,0.129,0.732,0,0.244,342.11
122039,142602,11423,-0.12,1.025,0.126,0.61,0.061,0.366,342.116
122059,142452,9298,-0.12,1.023,0.128,0.61,0.061,0.366,342.12
122059,142588,11430,-0.121,1.022,0.124,-0.976,0.61,0.427,342.126
122039,142708,9298,-0.123,1.018,0.121,-0.976,0.61,0.427,342.13
122039,142599,11426,-0.124,1.011,0.119,-1.22,0.976,0.244,342.136
122048,142708,9298,-0.127,1.007,0.12,-1.22,0.976,0.244,342.14
122048,142598,11424,-0.128,1.009,0.122,-0.061,0.854,-0.244,342.146
122067,142708,9298,-0.13,1.008,0.127,-0.061,0.854,-0.244,342.149
122067,142603,11415,-0.13,1.009,0.129,0.732,0.61,-0.244,342.156
122102,142708,9298,-0.129,1.014,0.128,0.732,0.61,-0.244,342.159
122102,142649,11420,-0.132,1.016,0.126,1.159,0.427,0.061,342.166
122115,142708,9298,-0.131,1.019,0.121,1.159,0.427,0.061,342.169
122115,142667,11432,-0.13,1.016,0.121,0.732,0.61,0.122,342.175
122144,142708,9298,-0.134,1.016,0.13,0.732,0.61,0.122,342.179
122144,142682,11433,-0.129,1.012,0.129,0.061,0.854,0.122,342.185
122147,142708,9298,-0.125,1.011,0.125,0.061,0.854,0.122,342.189
122147,142691,11452,-0.124,1.007,0.119,-0.244,0.793,0.244,342.195
122155,142708,9298,-0.122,1.006,0.114,-0.244,0.793,0.244,342.199
122155,142686,11436,-0.124,1.01,0.113,-0.305,0.854,0.549,342.205
122183,142708,9298,-0.125,1.019,0.121,-0.305,0.854,0.549,342.209
122183,142698,11425,-0.128,1.025,0.125,-0.305,0.732,0.427,342.215
122162,142708,9298,-0.127,1.022,0.123,-0.305,0.732,0.427,342.219
122162,142675,11436,-0.123,1.017,0.123,0.793,0.61,0.244,342.225
122136,142708,9298,-0.127,1.015,0.126,0.793,0.61,0.244,342.229
122136,142695,11424,-0.128,1.016,0.124,0.915,0.732,0.549,342.235
122143,142708,9298,-0.13,1.021,0.12,0.915,0.732,0.549,342.239
122143,142681,11434,-0.132,1.022,0.111,0.244,1.037,0.427,342.245
122151,142708,9298,-0.129,1.019,0.109,0.244,1.037,0.427,342.248
122151,142667,11420,-0.131,1.02,0.104,0.122,0.915,-0.122,342.255
122109,142708,9298,-0.132,1.017,0.106,0.122,0.915,-0.122,342.258
122109,142664,11420,-0.132,1.015,0.116,0.671,0.61,0,342.264
122139,142708,9298,-0.131,1.01,0.12,0.671,0.61,0,342.268
122139,142667,11424,-0.127,1.013,0.118,0.183,0.122,0.549,342.274
122105,142708,9298,-0.128,1.009,0.116,0.183,0.122,0.549,342.278
122105,142669,11443,-0.125,1.01,0.114,-0.732,-0.122,0.549,342.284
122106,142708,9298,-0.125,1.013,0.118,-0.732,-0.122,0.549,342.288
122106,142672,11430,-0.128,1.015,0.124,-0.366,0.244,0.671,342.294
122118,142708,9298,-0.127,1.016,0.129,-0.366,0.244,0.671,342.298
122118,142669,11416,-0.129,1.016,0.132,0.244,0.488,0.61,342.304
122130,142708,9298,-0.127,1.015,0.122,0.244,0.488,0.61,342.308
122130,142659,11407,-0.125,1.015,0.114,-0.488,0.549,0.427,342.314
122089,142708,9298,-0.134,1.019,0.115,-0.488,0.549,0.427,342.318
122089,142630,11425,-0.135,1.021,0.117,-0.732,0.671,0.305,342.324
122089,142708,9298,-0.134,1.019,0.121,-0.732,0.671,0.305,342.328
122089,142647,11430,-0.132,1.015,0.125,-0.244,0.305,0.061,342.334
122094,142708,9298,-0.132,1.012,0.125,-0.244,0.305,0.061,342.337
122094,142658,11413,-0.129,1.013,0.124,0.061,-0.183,0.061,342.344
122115,142708,9298,-0.125,1.015,0.113,0.061,-0.183,0.061,342.347
122115,142664,11431,-0.125,1.02,0.115,0.305,-0.305,0.366,342.354
122110,142708,9298,-0.124,1.022,0.12,0.305,-0.305,0.366,342.357
122110,142644,11429,-0.123,1.022,0.123,0.549,0.122,0.122,342.363
122106,142708,9298,-0.121,1.019,0.121,0.549,0.122,0.122,342.367
122106,142630,11413,-0.122,1.013,0.118,0.183,0.183,-0.061,342.373
122072,142708,9298,-0.124,1.012,0.117,0.183,0.183,-0.061,342.377
122072,142624,11427,-0.126,1.011,0.122,-0.793,0.061,0.427,342.383
122071,142708,9298,-0.124,1.012,0.125,-0.793,0.061,0.427,342.387
122071,142632,11428,-0.127,1.008,0.126,-0.793,0.183,0.671,342.393
122078,142708,9298,-0.129,1.011,0.125,-0.793,0.183,0.671,342.397
122078,142615,11416,-0.127,1.01,0.131,-0.488,0.061,0.488,342.403
122103,142708,9298,-0.128,1.01,0.123,-0.488,0.061,0.488,342.407
122103,142636,11415,-0.13,1.012,0.12,-0.244,0.427,0.61,342.413
122097,142708,9298,-0.129,1.016,0.117,-0.244,0.427,0.61,342.417
122097,142628,11427,-0.131,1.026,0.122,-0.549,0.793,0.671,342.423
122105,142708,9298,-0.132,1.03,0.125,-0.549,0.793,0.671,342.427
122105,142601,11434,-0.132,1.024,0.121,-1.22,0.488,0.427,342.433
122115,142708,9298,-0.133,1.019,0.119,-1.22,0.488,0.427,342.437
122115,142634,11417,-0.128,1.016,0.121,0.061,0.305,0.305,342.443
122088,142708,9298,-0.126,1.014,0.123,0.061,0.305,0.305,342.446
122088,142624,11418,-0.126,1.011,0.125,0.183,0.244,-0.061,342.453
122068,142708,9298,-0.127,1.013,0.124,0.183,0.244,-0.061,342.456
122068,142617,11426,-0.129,1.012,0.127,-0.244,0.549,0.061,342.462
122102,142708,9298,-0.126,1.012,0.127,-0.244,0.549,0.061,342.466
122102,142634,11438,-0.129,1.018,0.125,0.61,0.61,0.061,342.472
122096,142708,9298,-0.129,1.018,0.125,0.61,0.61,0.061,342.476
122096,142640,11437,-0.131,1.025,0.121,0.671,0.976,-0.183,342.482
122096,142708,9298,-0.131,1.025,0.121,0.671,0.976,-0.183,342.486
122096,142618,11420,-0.131,1.019,0.123,0.488,0.854,-0.061,342.492
122100,142708,9298,-0.131,1.019,0.123,0.488,0.854,-0.061,342.496
122100,142613,11421,-0.129,1.011,0.117,-0.366,0.366,0.427,342.502
122105,142708,9298,-0.129,1.011,0.117,-0.366,0.366,0.427,342.506
122105,142640,11428,-0.12,1.002,0.114,-1.037,-0.061,0.732,342.512
122124,142708,9298,-0.12,1.002,0.114,-1.037,-0.061,0.732,342.516
122124,142657,11427,-0.124,1.006,0.121,-1.098,0.122,0.793,342.522
122156,142708,9298,-0.124,1.006,0.121,-1.098,0.122,0.793,342.526
122156,142683,11427,-0.125,1.005,0.12,0.122,0.427,0.671,342.532
122141,142708,9298,-0.125,1.005,0.12,0.122,0.427,0.671,342.535
122141,142694,11437,-0.126,1.021,0.125,1.159,0.549,0.732,342.542
122149,142708,9298,-0.126,1.021,0.125,1.159,0.549,0.732,342.545
122149,142680,11423,-0.125,1.036,0.128,0.549,0.427,0.427,342.552
122166,142708,9298,-0.125,1.036,0.128,0.549,0.427,0.427,342.555
122166,142672,11447,-0.128,1.031,0.122,0.793,0.488,0.183,342.561
122158,142708,9298,-0.128,1.031,0.122,0.793,0.488,0.183,342.565
122158,142694,11442,-0.127,1.023,0.12,-0.549,0.549,0.183,342.571
122168,142708,9298,-0.127,1.023,0.12,-0.549,0.549,0.183,342.575
122168,142713,11442,-0.132,1.015,0.115,-1.707,0.671,0.122,342.581
122176,142708,9298,-0.132,1.015,0.115,-1.707,0.671,0.122,342.585
122176,142696,11428,-0.127,1.003,0.121,-0.183,0.61,-0.061,342.591
122165,142708,9298,-0.127,1.003,0.121,-0.183,0.61,-0.061,342.595
122165,142725,11426,-0.129,1.004,0.112,0.61,0.305,0.183,342.601
122184,142708,9298,-0.129,1.004,0.112,0.61,0.305,0.183,342.605
122184,142699,11421,-0.129,1.011,0.118,0.183,0.122,0.244,342.611
122159,142708,9298,-0.129,1.011,0.118,0.183,0.122,0.244,342.615
122159,142683,11445,-0.132,1.009,0.116,0.183,0.122,0.244,342.621
122159,142708,9298,-0.13,1.014,0.114,0.732,0.305,0.305,342.625
122159,142687,11434,-0.131,1.018,0.115,0.732,0.305,0.305,342.631
122149,142708,9298,-0.133,1.023,0.12,0.244,0.183,0.366,342.634
122149,142680,11446,-0.131,1.02,0.12,0.244,0.183,0.366,342.641
122141,142708,9298,-0.13,1.021,0.12,-0.122,-0.183,0.61,342.644
122141,142671,11426,-0.128,1.021,0.122,-0.122,-0.183,0.61,342.651
122142,142708,9298,-0.126,1.021,0.124,-0.427,-0.366,0.671,342.654
122142,142671,11432,-0.123,1.022,0.125,-0.427,-0.366,0.671,342.66
122159,142708,9298,-0.128,1.022,0.121,-1.28,-0.427,0.427,342.664
122159,142649,11424,-0.126,1.018,0.127,-1.28,-0.427,0.427,342.67
122119,142708,9298,-0.122,1.011,0.129,-0.976,-0.061,0.427,342.674
122119,142647,11431,-0.121,1.006,0.122,-0.976,-0.061,0.427,342.68
122142,142708,9298,-0.124,1.005,0.12,-0.671,0.183,0.427,342.684
122142,142642,11424,-0.128,1.004,0.119,-0.671,0.183,0.427,342.69
122134,142708,9298,-0.13,1.01,0.118,-1.28,0.427,0.549,342.694
122134,142682,11422,-0.134,1.013,0.126,-1.28,0.427,0.549,342.7
122116,142708,9298,-0.133,1.013,0.124,-0.305,0.366,0.549,342.704
122116,142656,11433,-0.129,1.012,0.121,-0.305,0.366,0.549,342.71
122141,142708,9298,-0.13,1.016,0.119,0.671,0,0.549,342.714
122141,142663,11420,-0.13,1.024,0.116,0.671,0,0.549,342.72
122121,142708,9298,-0.128,1.029,0.116,-0.244,-0.122,0.488,342.724
122121,142673,11437,-0.127,1.027,0.119,-0.244,-0.122,0.488,342.73
122114,142708,9298,-0.129,1.025,0.122,-0.305,0.122,0.305,342.734
122114,142655,11426,-0.127,1.022,0.12,-0.305,0.122,0.305,342.74
122121,142708,9298,-0.126,1.021,0.122,-0.305,0.183,0.305,342.743
122121,142642,11419,-0.125,1.017,0.127,-0.305,0.183,0.305,342.75
122115,142708,9298,-0.125,1.012,0.126,-0.61,0.122,0.366,342.753
122115,142637,11431,-0.124,1.01,0.129,-0.61,0.122,0.366,342.759
122107,142708,9298,-0.124,1.01,0.13,-0.061,0,0.427,342.763
122107,142633,11417,-0.126,1.009,0.122,-0.061,0,0.427,342.769
122119,142708,9298,-0.123,1.007,0.119,0.305,0.061,0.061,342.773
122119,142642,11418,-0.124,1.007,0.118,0.305,0.061,0.061,342.779
122134,142708,9298,-0.127,1.009,0.12,0.366,0.244,0,342.783
122134,142618,11415,-0.129,1.012,0.122,0.366,0.244,0,342.789
122130,142708,9298,-0.131,1.016,0.124,0.549,0.488,0.244,342.793
122130,142629,11423,-0.128,1.014,0.122,0.549,0.488,0.244,342.799
122115,142708,9298,-0.129,1.016,0.115,0.061,0.366,0.549,342.803
122115,142641,11410,-0.127,1.021,0.122,0.061,0.366,0.549,342.809
122117,142708,9298,-0.126,1.022,0.13,-0.61,0.122,0.671,342.813
122117,142607,11432,-0.124,1.021,0.128,-0.61,0.122,0.671,342.819
122108,142708,9298,-0.123,1.015,0.124,-0.427,0.122,0.732,342.823
122108,142616,11393,-0.123,1.013,0.119,-0.427,0.122,0.732,342.829
122092,142708,9298,-0.124,1.014,0.12,-0.549,0.61,0.488,342.832
122092,142622,11412,-0.125,1.02,0.12,-0.549,0.61,0.488,342.839
122108,142708,9298,-0.129,1.02,0.119,-0.427,1.037,0.183,342.842
122108,142621,11417,-0.13,1.019,0.119,-0.427,1.037,0.183,342.849
122117,142708,9298,-0.131,1.016,0.127,0.793,0.976,0.061,342.852
122117,142661,11419,-0.13,1.015,0.133,0.793,0.976,0.061,342.858
122120,142708,9298,-0.126,1.02,0.123,0.732,0.427,0.061,342.862
122120,142636,11418,-0.127,1.02,0.119,0.732,0.427,0.061,342.868
122129,142708,9298,-0.123,1.017,0.113,0,0.427,0,342.872
122129,142650,11409,-0.123,1.014,0.112,0,0.427,0,342.878
122119,142708,9298,-0.126,1.016,0.119,-0.122,0.671,0.122,342.882
122119,142628,11426,-0.132,1.017,0.12,-0.122,0.671,0.122,342.888
122154,142708,9298,-0.129,1.014,0.124,-0.244,0.549,0.183,342.892
122154,142647,11415,-0.129,1.008,0.128,-0.244,0.549,0.183,342.898
122135,142708,9298,-0.132,1.006,0.129,0.793,0.427,0.244,342.902
122135,142657,11430,-0.13,1.007,0.124,0.793,0.427,0.244,342.908
122137,142708,9298,-0.127,1.012,0.119,0.488,0.488,0.366,342.912
122137,142644,11431,-0.126,1.019,0.118,0.488,0.488,0.366,342.918
122144,142708,9298,-0.127,1.023,0.113,-0.61,0.549,0.305,342.922
122144,142661,11429,-0.123,1.017,0.111,-0.61,0.549,0.305,342.928
122129,142708,9298,-0.126,1.015,0.116,0.183,0.61,0.183,342.932
122129,142653,11422,-0.126,1.015,0.121,0.183,0.61,0.183,342.938
122146,142708,9298,-0.129,1.02,0.124,0.244,0.732,0.366,342.941
122146,142651,11419,-0.13,1.019,0.126,0.244,0.732,0.366,342.948
122145,142708,9298,-0.128,1.017,0.124,-0.305,0.732,0.61,342.951
122145,142663,11419,-0.128,1.019,0.121,-0.305,0.732,0.61,342.957
122140,142708,9298,-0.128,1.016,0.126,-0.427,0.549,0.549,342.961
122140,142670,11423,-0.13,1.011,0.12,-0.427,0.549,0.549,342.967
122136,142708,9298,-0.128,1.012,0.118,-0.61,0.732,0.183,342.971
122136,142641,11427,-0.131,1.01,0.121,-0.61,0.732,0.183,342.977
122138,142708,9298,-0.13,1.009,0.117,0.488,0.732,0,342.981
122138,142640,11431,-0.131,1.015,0.112,0.488,0.732,0,342.987
122168,142708,9298,-0.132,1.019,0.114,0.61,0.549,0.122,342.991
122168,142647,11419,-0.132,1.02,0.117,0.61,0.549,0.122,342.997
122193,142708,9298,-0.133,1.021,0.121,0.793,0.244,0.183,343.001
122193,142672,11430,-0.129,1.017,0.122,0.793,0.244,0.183,343.007
122182,142708,9298,-0.129,1.016,0.119,0.732,0,0.183,343.011
122182,142684,11425,-0.125,1.016,0.117,0.732,0,0.183,343.017
122159,142708,9298,-0.124,1.015,0.117,-0.305,-0.122,0.305,343.021
122159,142665,11441,-0.125,1.013,0.118,-0.305,-0.122,0.305,343.027
122169,142708,9298,-0.127,1.015,0.12,-0.305,0.244,0.549,343.03
122169,142657,11417,-0.129,1.015,0.126,-0.305,0.244,0.549,343.037
122156,142708,9298,-0.129,1.02,0.126,-0.366,0.183,0.366,343.04
122156,142661,11431,-0.125,1.018,0.123,-0.366,0.183,0.366,343.047
122167,142708,9298,-0.127,1.012,0.125,-0.183,0,0.488,343.05
122167,142665,11417,-0.128,1.011,0.127,-0.183,0,0.488,343.056
122173,142708,9298,-0.128,1.011,0.127,-0.183,0,0.488,343.06
122173,142659,11414,-0.126,1.017,0.119,0.122,0.183,0.793,343.066
122170,142708,9298,-0.126,1.017,0.119,0.122,0.183,0.793,343.07
122170,142686,11438,-0.127,1.016,0.114,-0.427,0.488,0.366,343.076
122162,142708,9298,-0.127,1.016,0.114,-0.427,0.488,0.366,343.08
122162,142659,11420,-0.133,1.015,0.121,0.427,0.61,0,343.086
122180,142708,9298,-0.133,1.015,0.121,0.427,0.61,0,343.09
122180,142669,11429,-0.132,1.012,0.118,1.159,0.488,0.061,343.096
122152,142708,9298,-0.132,1.012,0.118,1.159,0.488,0.061,343.1
122152,142682,11425,-0.125,1.015,0.109,0.061,0.122,0.427,343.106
122183,142708,9298,-0.125,1.015,0.109,0.061,0.122,0.427,343.11
122183,142675,11408,-0.128,1.017,0.112,-1.098,0,0.61,343.116
122177,142708,9298,-0.128,1.017,0.112,-1.098,0,0.61,343.12
122177,142690,11424,-0.126,1.019,0.124,-0.854,-0.061,0.427,343.126
122152,142708,9298,-0.126,1.019,0.124,-0.854,-0.061,0.427,343.129
122152,142655,11425,-0.127,1.021,0.129,-0.183,-0.366,0.488,343.136
122164,142708,9298,-0.127,1.021,0.129,-0.183,-0.366,0.488,343.139
122164,142667,11422,-0.124,1.018,0.122,-0.488,-0.366,0.671,343.146
122159,142708,9298,-0.124,1.018,0.122,-0.488,-0.366,0.671,343.149
122159,142676,11416,-0.128,1.022,0.125,-0.854,0.122,0.488,343.155
122167,142708,9298,-0.128,1.022,0.125,-0.854,0.122,0.488,343.159
122167,142651,11420,-0.126,1.014,0.126,-1.22,0.549,0.366,343.165
122152,142708,9298,-0.126,1.014,0.126,-1.22,0.549,0.366,343.169
122152,142644,11416,-0.128,1.009,0.124,-1.037,0.488,0.305,343.175
122150,142708,9298,-0.128,1.009,0.124,-1.037,0.488,0.305,343.179
122150,142633,11441,-0.126,1.01,0.125,-0.549,0.427,0.427,343.185
122157,142708,9298,-0.126,1.01,0.125,-0.549,0.427,0.427,343.189
122157,142650,11434,-0.126,1.014,0.122,-0.061,0.854,0.549,343.195
122179,142708,9298,-0.126,1.014,0.122,-0.061,0.854,0.549,343.199
122179,142651,11418,-0.128,1.018,0.121,0,1.22,0.366,343.205
122176,142708,9298,-0.13,1.013,0.12,0,1.22,0.366,343.209
122176,142651,11434,-0.126,1.015,0.119,0.549,1.098,0.244,343.215
122159,142708,9298,-0.129,1.018,0.116,0.549,1.098,0.244,343.219
122159,142654,11418,-0.131,1.019,0.12,1.098,1.159,0.366,343.225
122161,142708,9298,-0.131,1.022,0.119,1.098,1.159,0.366,343.228
122161,142631,11417,-0.132,1.026,0.117,0.549,1.098,0.061,343.235
122144,142708,9298,-0.129,1.027,0.116,0.549,1.098,0.061,343.238
122144,142635,11416,-0.13,1.021,0.109,0.183,0.854,0.122,343.245
122137,142708,9298,-0.132,1.017,0.115,0.183,0.854,0.122,343.248
122137,142658,11418,-0.133,1.016,0.12,-0.366,0.671,0.366,343.254
122159,142708,9298,-0.132,1.015,0.116,-0.366,0.671,0.366,343.258
122159,142657,11421,-0.133,1.014,0.112,-1.098,0.61,0.427,343.264
122153,142708,9298,-0.131,1.014,0.111,-1.098,0.61,0.427,343.268
122153,142671,11439,-0.129,1.013,0.116,-0.427,0.366,0.122,343.274
122146,142708,9298,-0.127,1.009,0.124,-0.427,0.366,0.122,343.278
122146,142629,11422,-0.124,1.014,0.132,0.671,-0.244,0.183,343.284
122132,142708,9298,-0.124,1.017,0.127,0.671,-0.244,0.183,343.288
122132,142616,11401,-0.124,1.018,0.125,0.122,-0.244,0.305,343.294
122125,142708,9298,-0.122,1.017,0.127,0.122,-0.244,0.305,343.298
122125,142615,11423,-0.123,1.014,0.125,-0.305,0.244,0.305,343.304
122116,142708,9298,-0.122,1.013,0.122,-0.305,0.244,0.305,343.308
122116,142595,11419,-0.127,1.015,0.119,-0.427,0.854,0.366,343.314
122103,142452,9298,-0.131,1.014,0.122,-0.427,0.854,0.366,343.318
122103,142569,11400,-0.13,1.011,0.122,-0.305,0.976,0.427,343.324
122063,142452,9298,-0.132,1.012,0.126,-0.305,0.976,0.427,343.327
122063,142553,11415,-0.131,1.013,0.127,-0.061,0.915,0.427,343.334
122055,142452,9298,-0.129,1.017,0.122,-0.061,0.915,0.427,343.337
122055,142578,11417,-0.13,1.024,0.117,-0.244,0.732,0.244,343.344
122052,142452,9298,-0.131,1.021,0.115,-0.244,0.732,0.244,343.347
122052,142577,11424,-0.13,1.022,0.116,0.549,0.793,0,343.353
122041,142452,9298,-0.13,1.02,0.117,0.549,0.793,0,343.357
122041,142534,11412,-0.128,1.021,0.12,1.037,0.671,-0.122,343.363
122019,142452,9298,-0.128,1.02,0.119,1.037,0.671,-0.122,343.367
122019,142528,11403,-0.127,1.019,0.118,0.244,0.671,0.122,343.373
121998,142452,9298,-0.129,1.015,0.121,0.244,0.671,0.122,343.377
121998,142556,11398,-0.127,1.01,0.12,-0.244,0.732,0.183,343.383
122009,142452,9298,-0.127,1.01,0.118,-0.244,0.732,0.183,343.387
122009,142547,11410,-0.132,1.01,0.117,-0.122,0.549,0.183,343.393
122021,142452,9298,-0.131,1.01,0.12,-0.122,0.549,0.183,343.397
122021,142513,11416,-0.131,1.01,0.116,-0.488,0.305,0.244,343.403
122010,142452,9298,-0.133,1.014,0.114,-0.488,0.305,0.244,343.407
122010,142503,11393,-0.132,1.013,0.114,0,0.305,0.427,343.413
121994,142452,9298,-0.129,1.011,0.116,0,0.305,0.427,343.417
121994,142509,11420,-0.127,1.011,0.116,0.366,0.183,0.427,343.423
122033,142452,9298,-0.128,1.018,0.115,0.366,0.183,0.427,343.426
122033,142520,11405,-0.126,1.022,0.117,-1.037,-0.122,0.549,343.433
122022,142452,9298,-0.125,1.018,0.111,-1.037,-0.122,0.549,343.436
122022,142521,11411,-0.126,1.011,0.113,-0.976,0,0.732,343.443
122016,142452,9298,-0.127,1.01,0.118,-0.976,0,0.732,343.446
122016,142538,11414,-0.124,1.009,0.123,-0.488,0.122,0.793,343.452
122033,142452,9298,-0.128,1.014,0.123,-0.488,0.122,0.793,343.456
122033,142526,11402,-0.13,1.018,0.127,-0.366,0,0.732,343.462
122049,142452,9298,-0.127,1.022,0.124,-0.366,0,0.732,343.466
122049,142541,11398,-0.126,1.024,0.115,0.244,0.122,0.427,343.472
122056,142452,9298,-0.129,1.026,0.121,0.244,0.122,0.427,343.476
122056,142555,11414,-0.127,1.026,0.124,0.427,0.244,0,343.482
122064,142452,9298,-0.129,1.023,0.128,0.427,0.244,0,343.486
122064,142557,11403,-0.133,1.02,0.124,-0.061,0.244,0.061,343.492
122061,142452,9298,-0.133,1.015,0.119,-0.061,0.244,0.061,343.496
122061,142556,11406,-0.13,1.014,0.121,-0.732,0.183,0.061,343.502
122043,142452,9298,-0.13,1.011,0.124,-0.732,0.183,0.061,343.506
122043,142555,11419,-0.127,1.009,0.122,-0.732,0,0,343.512
122075,142452,9298,-0.125,1.007,0.12,-0.732,0,0,343.516
122075,142553,11408,-0.131,1.005,0.12,0.122,-0.305,0.244,343.522
122064,142452,9298,-0.128,1.01,0.118,0.122,-0.305,0.244,343.525
122064,142566,11415,-0.124,1.01,0.122,-0.183,0,0.549,343.532
122070,142452,9298,-0.127,1.011,0.125,-0.183,0,0.549,343.535
122070,142561,11417,-0.125,1.01,0.127,0.427,0.122,0.427,343.542
122093,142452,9298,-0.125,1.009,0.12,0.427,0.122,0.427,343.545
122093,142559,11402,-0.127,1.017,0.124,0.244,0.427,0.488,343.551
122076,142452,9298,-0.124,1.018,0.121,0.244,0.427,0.488,343.555
122076,142555,11414,-0.124,1.019,0.123,-0.61,0.427,0.488,343.561
122065,142452,9298,-0.129,1.02,0.123,-0.61,0.427,0.488,343.565
122065,142561,11414,-0.13,1.015,0.125,-0.061,0.732,0.549,343.571
122062,142452,9298,-0.128,1.02,0.122,-0.061,0.732,0.549,343.575
122062,142561,11402,-0.127,1.018,0.117,-0.061,0.549,0.427,343.581
122078,142452,9298,-0.127,1.017,0.117,-0.061,0.549,0.427,343.585
122078,142574,11412,-0.128,1.014,0.118,-0.427,0.366,0.427,343.591
122083,142452,9298,-0.129,1.009,0.119,-0.427,0.366,0.427,343.595
122083,142578,11403,-0.129,1.013,0.114,0.061,0.671,0.671,343.601
122079,142452,9298,-0.132,1.018,0.115,0.061,0.671,0.671,343.605
122079,142581,11390,-0.133,1.023,0.118,-0.244,0.793,0.488,343.611
122081,142452,9298,-0.129,1.026,0.117,-0.244,0.793,0.488,343.615
122081,142570,11416,-0.128,1.025,0.119,0,0.183,0.183,343.621
122104,142452,9298,-0.127,1.019,0.121,0,0.183,0.183,343.624
122104,142582,11422,-0.128,1.017,0.126,0.732,0,0.244,343.631
122114,142708,9298,-0.127,1.018,0.125,0.732,0,0.244,343.634
122114,142613,11407,-0.126,1.017,0.124,-0.61,0,0.549,343.641
122108,142708,9298,-0.126,1.017,0.124,-0.61,0,0.549,343.644
122108,142596,11411,-0.126,1.015,0.122,-1.585,0.366,0.366,343.65
122118,142708,9298,-0.126,1.015,0.122,-1.585,0.366,0.366,343.654
122118,142613,11411,-0.126,1.005,0.122,-0.61,0.549,0.122,343.66
122110,142708,9298,-0.126,1.005,0.122,-0.61,0.549,0.122,343.664
122110,142611,11410,-0.128,1.012,0.123,0.122,0.732,0.427,343.67
122140,142708,9298,-0.128,1.012,0.123,0.122,0.732,0.427,343.674
122140,142601,11415,-0.127,1.016,0.125,0.305,0.854,0.488,343.68
122120,142708,9298,-0.127,1.016,0.125,0.305,0.854,0.488,343.684
122120,142605,11411,-0.131,1.013,0.126,0.549,0.732,0.488,343.69
122133,142708,9298,-0.131,1.013,0.126,0.549,0.732,0.488,343.694
122133,142601,11400,-0.125,1.012,0.12,0.183,0.488,0.549,343.7
122114,142708,9298,-0.125,1.012,0.12,0.183,0.488,0.549,343.704
122114,142609,11411,-0.125,1.016,0.116,-0.61,0.427,0.793,343.71
122136,142708,9298,-0.125,1.016,0.116,-0.61,0.427,0.793,343.714
122136,142632,11419,-0.13,1.013,0.116,-0.61,0.549,0.793,343.72
122155,142708,9298,-0.13,1.013,0.116,-0.61,0.549,0.793,343.723
122155,142623,11431,-0.129,1.013,0.112,-0.244,0.671,0.793,343.73
122123,142708,9298,-0.129,1.013,0.112,-0.244,0.671,0.793,343.733
122123,142613,11404,-0.128,1.028,0.122,-0.976,0.61,0.793,343.74
122133,142708,9298,-0.128,1.028,0.122,-0.976,0.61,0.793,343.743
122133,142629,11412,-0.125,1.02,0.12,-0.915,0.427,0.61,343.749
122157,142708,9298,-0.125,1.02,0.12,-0.915,0.427,0.61,343.753
122157,142619,11416,-0.128,1.013,0.115,-0.427,0.366,0.732,343.759
122128,142708,9298,-0.128,1.013,0.115,-0.427,0.366,0.732,343.763
122128,142598,11414,-0.134,1.015,0.114,-0.854,0.61,0.61,343.769
122121,142708,9298,-0.134,1.015,0.114,-0.854,0.61,0.61,343.773
122121,142604,11417,-0.135,1.019,0.114,-1.037,0.61,0.122,343.779
122134,142708,9298,-0.135,1.019,0.114,-1.037,0.61,0.122,343.783
122134,142602,11402,-0.134,1.015,0.111,-1.037,0.61,0.122,343.789
122110,142452,9298,-0.13,1.01,0.118,-0.183,-0.305,-0.122,343.793
122110,142584,11415,-0.127,1.01,0.126,-0.183,-0.305,-0.122,343.799
122129,142452,9298,-0.126,1.014,0.128,0.61,-0.976,0.305,343.803
122129,142581,11404,-0.122,1.017,0.126,0.61,-0.976,0.305,343.809
122088,142452,9298,-0.122,1.019,0.124,0.305,-0.671,0.427,343.813
122088,142582,11434,-0.122,1.019,0.127,0.305,-0.671,0.427,343.819
122090,142452,9298,-0.12,1.02,0.127,0.183,0,-0.061,343.822
122090,142567,11408,-0.122,1.017,0.125,0.183,0,-0.061,343.829
122101,142708,9298,-0.128,1.012,0.127,0.061,0.488,0.061,343.832
122101,142596,11414,-0.13,1.012,0.125,0.061,0.488,0.061,343.839
122071,142452,9298,-0.131,1.009,0.12,-0.122,0.793,0.427,343.842
122071,142563,11405,-0.135,1.007,0.119,-0.122,0.793,0.427,343.848
122081,142452,9298,-0.135,1.008,0.121,-0.366,0.915,0.549,343.852
122081,142569,11415,-0.133,1.012,0.12,-0.366,0.915,0.549,343.858
122092,142452,9298,-0.135,1.014,0.119,-0.793,0.366,0.732,343.862
122092,142581,11405,-0.13,1.014,0.121,-0.793,0.366,0.732,343.868
122078,142452,9298,-0.128,1.012,0.113,-0.732,-0.244,1.098,343.872
122078,142574,11407,-0.126,1.013,0.11,-0.732,-0.244,1.098,343.878
122083,142452,9298,-0.125,1.017,0.118,-0.549,-0.305,0.976,343.882
122083,142577,11419,-0.125,1.021,0.119,-0.549,-0.305,0.976,343.888
122088,142452,9298,-0.124,1.02,0.117,-0.305,-0.183,0.61,343.892
122088,142565,11405,-0.128,1.022,0.116,-0.305,-0.183,0.61,343.898
122063,142452,9298,-0.126,1.024,0.115,0.427,0,0.488,343.902
122063,142589,11410,-0.128,1.026,0.121,0.427,0,0.488,343.908
122078,142452,9298,-0.13,1.024,0.125,0.61,-0.061,0.305,343.912
122078,142566,11414,-0.127,1.027,0.126,0.61,-0.061,0.305,343.918
122091,142708,9298,-0.127,1.026,0.126,-0.061,-0.183,0.244,343.921
122091,142592,11403,-0.127,1.021,0.126,-0.061,-0.183,0.244,343.928
122114,142452,9298,-0.124,1.014,0.13,-0.976,-0.366,0.305,343.931
122114,142579,11383,-0.124,1.008,0.125,-0.976,-0.366,0.305,343.938
122088,142452,9298,-0.121,1.005,0.12,-1.707,-0.061,0.366,343.941
122088,142586,11403,-0.123,1.006,0.118,-1.707,-0.061,0.366,343.947
122102,142452,9298,-0.123,1.008,0.122,-1.707,0.244,0.488,343.951
122102,142591,11409,-0.121,1.008,0.121,-1.707,0.244,0.488,343.957
122104,142452,9298,-0.125,1.005,0.119,0,0.427,0.488,343.961
122104,142575,11399,-0.128,1.009,0.119,0,0.427,0.488,343.967
122106,142452,9298,-0.126,1.014,0.121,0.793,0.61,0.549,343.971
122106,142582,11417,-0.129,1.023,0.126,0.793,0.61,0.549,343.977
122129,142708,9298,-0.128,1.024,0.128,-0.122,0.488,0.61,343.981
122129,142618,11407,-0.129,1.021,0.13,-0.122,0.488,0.61,343.987
122122,142708,9298,-0.128,1.02,0.123,-0.61,0.427,0.61,343.991
122122,142599,11413,-0.129,1.016,0.127,-0.61,0.427,0.61,343.997
122137,142708,9298,-0.128,1.014,0.128,-0.61,0.366,0.671,344.001
122137,142623,11416,-0.13,1.02,0.125,-0.61,0.366,0.671,344.007
122133,142708,9298,-0.13,1.021,0.127,-0.549,0.671,0.488,344.011
122133,142597,11423,-0.127,1.022,0.124,-0.549,0.671,0.488,344.017
122131,142708,9298,-0.125,1.022,0.123,-0.366,0.732,0.122,344.02
122131,142596,11425,-0.129,1.022,0.124,-0.366,0.732,0.122,344.027
122134,142708,9298,-0.125,1.017,0.119,0.366,0.366,0.061,344.03
122134,142613,11410,-0.126,1.012,0.115,0.366,0.366,0.061,344.036
122155,142708,9298,-0.125,1.013,0.116,0.793,0.427,0.122,344.04
122155,142613,11429,-0.124,1.013,0.113,0.793,0.427,0.122,344.046
122181,142708,9298,-0.125,1.014,0.117,-0.183,0.61,0.244,344.05
122181,142626,11414,-0.127,1.016,0.12,-0.183,0.61,0.244,344.056
122171,142708,9298,-0.127,1.01,0.125,-0.427,0.61,0.488,344.06
122171,142608,11418,-0.128,1.004,0.125,-0.427,0.61,0.488,344.066
122174,142708,9298,-0.125,1.005,0.123,0.122,0.366,0.549,344.07
122174,142608,11437,-0.124,1.011,0.119,0.122,0.366,0.549,344.076
122167,142708,9298,-0.125,1.015,0.122,-0.183,0.366,0.549,344.08
122167,142610,11423,-0.125,1.018,0.122,-0.183,0.366,0.549,344.086
122144,142708,9298,-0.125,1.019,0.125,0.061,0.549,0.671,344.09
122144,142622,11414,-0.124,1.023,0.129,0.061,0.549,0.671,344.096
122143,142708,9298,-0.125,1.02,0.13,0.244,0.671,0.671,344.1
122143,142603,11420,-0.127,1.02,0.128,0.244,0.671,0.671,344.106
122159,142708,9298,-0.129,1.022,0.122,-1.037,1.037,0.488,344.109
122159,142632,11425,-0.125,1.025,0.119,-1.037,1.037,0.488,344.116
122173,142708,9298,-0.128,1.021,0.116,-1.28,1.159,0.244,344.119
122173,142614,11418,-0.128,1.012,0.116,-1.28,1.159,0.244,344.126
122144,142708,9298,-0.129,1.01,0.111,0.122,1.098,0.122,344.129
122144,142623,11422,-0.13,1.016,0.112,0.122,1.098,0.122,344.135
122149,142708,9298,-0.132,1.019,0.112,-0.061,1.037,-0.122,344.139
122149,142617,11423,-0.135,1.019,0.115,-0.061,1.037,-0.122,344.145
122181,142708,9298,-0.136,1.016,0.115,0.183,0.549,-0.183,344.149
122181,142627,11436,-0.133,1.016,0.121,0.183,0.549,-0.183,344.155
122157,142708,9298,-0.131,1.017,0.125,0.854,0.183,0,344.159
122157,142617,11433,-0.13,1.017,0.126,0.854,0.183,0,344.165
122161,142708,9298,-0.13,1.014,0.122,0,-0.244,-0.061,344.169
122161,142616,11413,-0.127,1.01,0.118,0,-0.244,-0.061,344.175
122173,142708,9298,-0.125,1.01,0.113,-0.671,-0.183,0.183,344.179
122173,142616,11434,-0.125,1.014,0.115,-0.671,-0.183,0.183,344.185
122170,142708,9298,-0.125,1.019,0.119,-1.22,0,0.366,344.189
122170,142598,11425,-0.127,1.017,0.123,-1.22,0,0.366,344.195
122160,142708,9298,-0.127,1.01,0.125,-0.793,0.061,0.366,344.199
122160,142636,11439,-0.127,1.005,0.127,-0.793,0.061,0.366,344.205
122153,142708,9298,-0.125,1.009,0.12,-0.183,0.061,0.732,344.208
122153,142625,11428,-0.129,1.017,0.12,-0.183,0.061,0.732,344.215
122164,142708,9298,-0.13,1.024,0.123,-1.098,-0.061,1.037,344.218
122164,142632,11424,-0.125,1.026,0.122,-1.098,-0.061,1.037,344.225
122184,142708,9298,-0.125,1.026,0.122,-1.098,-0.061,1.037,344.228
122184,142626,11430,-0.127,1.019,0.13,-1.159,0.061,0.549,344.234
122167,142708,9298,-0.127,1.019,0.13,-1.159,0.061,0.549,344.238
122167,142637,11417,-0.128,1.013,0.127,0.732,0.122,0.366,344.244
122190,142708,9298,-0.128,1.013,0.127,0.732,0.122,0.366,344.248
122190,142634,11416,-0.13,1.024,0.121,0.366,0.183,0.549,344.254
122180,142708,9298,-0.13,1.024,0.121,0.366,0.183,0.549,344.258
122180,142621,11415,-0.127,1.016,0.118,-0.732,0.61,0.366,344.264
122203,142708,9298,-0.127,1.016,0.118,-0.732,0.61,0.366,344.268
122203,142627,11424,-0.128,1.007,0.125,0.183,0.671,0.183,344.274
122191,142708,9298,-0.128,1.007,0.125,0.183,0.671,0.183,344.278
122191,142634,11424,-0.128,1.011,0.115,0.122,0.183,0.305,344.284
122193,142708,9298,-0.128,1.011,0.115,0.122,0.183,0.305,344.288
122193,142655,11424,-0.129,1.017,0.115,-0.366,0,0.61,344.294
122187,142708,9298,-0.129,1.017,0.115,-0.366,0,0.61,344.298
122187,142632,11419,-0.125,1.02,0.123,0,0.122,0.549,344.304
122192,142708,9298,-0.125,1.02,0.123,0,0.122,0.549,344.307
122192,142640,11411,-0.121,1.016,0.129,0.61,-0.122,0.671,344.314
122189,142708,9298,-0.121,1.016,0.129,0.61,-0.122,0.671,344.317
122189,142656,11422,-0.127,1.012,0.124,-0.122,-0.366,0.976,344.324
122195,142708,9298,-0.127,1.012,0.124,-0.122,-0.366,0.976,344.327
122195,142657,11433,-0.121,1.013,0.122,-1.524,-0.244,1.159,344.333
122186,142708,9298,-0.121,1.013,0.122,-1.524,-0.244,1.159,344.337
122186,142649,11430,-0.128,1.012,0.134,-1.098,0.061,0.732,344.343
122190,142708,9298,-0.128,1.012,0.134,-1.098,0.061,0.732,344.347
122190,142649,11432,-0.13,1.019,0.126,0.793,0.366,0.305,344.353
122223,142708,9298,-0.13,1.019,0.126,0.793,0.366,0.305,344.357
122223,142650,11409,-0.126,1.027,0.116,0.671,0.488,0.244,344.363
122189,142708,9298,-0.126,1.027,0.116,0.671,0.488,0.244,344.367
122189,142673,11422,-0.125,1.025,0.12,0.366,0.549,0.244,344.373
122202,142708,9298,-0.124,1.022,0.125,0.366,0.549,0.244,344.377
122202,142636,11425,-0.125,1.016,0.127,0.183,0.366,0.305,344.383
122219,142708,9298,-0.125,1.011,0.116,0.183,0.366,0.305,344.387
122219,142652,11416,-0.125,1.01,0.114,-1.159,0.366,0.488,344.393
122222,142708,9298,-0.125,1.006,0.116,-1.159,0.366,0.488,344.397
122222,142665,11417,-0.126,1.004,0.12,-1.646,0.488,0.305,344.403
122233,142708,9298,-0.127,1.004,0.124,-1.646,0.488,0.305,344.406
122233,142689,11416,-0.13,1.01,0.122,0.122,0.61,0.244,344.413
122254,142708,9298,-0.127,1.018,0.123,0.122,0.61,0.244,344.416
122254,142686,11427,-0.126,1.019,0.124,1.037,0.671,0.244,344.423
122257,142708,9298,-0.127,1.021,0.124,1.037,0.671,0.244,344.426
122257,142690,11435,-0.13,1.026,0.124,1.037,0.793,0.122,344.432
122233,142708,9298,-0.13,1.028,0.127,1.037,0.793,0.122,344.436
122233,142692,11434,-0.128,1.024,0.126,-0.122,0.61,0.183,344.442
122230,142708,9298,-0.129,1.02,0.126,-0.122,0.61,0.183,344.446
122230,142660,11424,-0.125,1.013,0.124,-0.915,0.427,0.427,344.452
122255,142708,9298,-0.129,1.013,0.12,-0.915,0.427,0.427,344.456
122255,142711,11428,-0.13,1.011,0.12,-1.098,0.488,0.305,344.462
122265,142708,9298,-0.129,1.008,0.119,-1.098,0.488,0.305,344.466
122265,142713,11433,-0.127,1.007,0.115,-0.671,0.61,0.183,344.472
122262,142708,9298,-0.124,1.008,0.116,-0.671,0.61,0.183,344.476
122262,142691,11433,-0.126,1.009,0.117,0.549,0.366,0.488,344.482
122264,142708,9298,-0.126,1.011,0.12,0.549,0.366,0.488,344.486
122264,142706,11441,-0.126,1.014,0.12,0.915,0.366,0.549,344.492
122269,142708,9298,-0.124,1.018,0.128,0.915,0.366,0.549,344.496
122269,142712,11421,-0.123,1.02,0.123,-0.244,0.488,0.366,344.502
122254,142708,9298,-0.125,1.016,0.114,-0.244,0.488,0.366,344.505
122254,142728,11426,-0.125,1.015,0.117,0.183,0.61,0.305,344.512
122267,142708,9298,-0.128,1.015,0.12,0.183,0.61,0.305,344.515
122267,142705,11433,-0.129,1.019,0.127,0.793,0.976,0.488,344.522
122274,142708,9298,-0.132,1.023,0.124,0.793,0.976,0.488,344.525
122274,142723,11423,-0.132,1.026,0.12,-0.183,0.854,0.549,344.531
122288,142708,9298,-0.126,1.027,0.121,-0.183,0.854,0.549,344.535
122288,142732,11428,-0.126,1.018,0.121,-0.183,0.366,0.305,344.541
122306,142708,9298,-0.126,1.018,0.123,-0.183,0.366,0.305,344.545
122306,142735,11442,-0.125,1.014,0.125,0.122,0,0.427,344.551
122307,142708,9298,-0.125,1.01,0.124,0.122,0,0.427,344.555
122307,142723,11436,-0.123,1.009,0.122,-0.183,0.183,0.732,344.561
122300,142708,9298,-0.123,1.008,0.122,-0.183,0.183,0.732,344.565
122300,142732,11434,-0.126,1.007,0.121,-0.366,0.671,0.488,344.571
122301,142708,9298,-0.128,1.006,0.119,-0.366,0.671,0.488,344.575
122301,142741,11434,-0.128,1.004,0.115,-0.122,0.671,0.366,344.581
122263,142708,9298,-0.13,1.009,0.115,-0.122,0.671,0.366,344.585
