120488,141172,9298,-0.125,1.018,0.178,0.244,0.427,0.305,119.119
120488,141259,11178,-0.125,1.015,0.184,0.244,0.427,0.305,119.126
120487,141172,9298,-0.127,1.012,0.182,0.671,0.549,0,119.129
120487,141263,11184,-0.122,1.012,0.176,0.671,0.549,0,119.136
120512,141172,9298,-0.122,1.008,0.171,0.549,0.854,0.183,119.139
120512,141254,11166,-0.126,1.008,0.173,0.549,0.854,0.183,119.145
120500,141172,9298,-0.125,1.004,0.17,-0.61,1.037,0.244,119.149
120500,141255,11183,-0.127,1.003,0.166,-0.61,1.037,0.244,119.155
120507,141172,9298,-0.129,1.001,0.168,-0.793,1.037,0.061,119.159
120507,141269,11185,-0.129,1.006,0.174,-0.793,1.037,0.061,119.165
120495,141172,9298,-0.129,1.006,0.174,-0.793,1.037,0.061,119.169
120495,141283,11170,-0.129,1.01,0.171,0.061,0.793,0.244,119.175
120494,141172,9298,-0.129,1.01,0.171,0.061,0.793,0.244,119.179
120494,141264,11190,-0.131,1.016,0.168,1.037,0.549,0.366,119.185
120505,141172,9298,-0.131,1.016,0.168,1.037,0.549,0.366,119.189
120505,141279,11174,-0.126,1.02,0.174,0.61,0.183,0.244,119.195
120527,141172,9298,-0.126,1.02,0.174,0.61,0.183,0.244,119.199
120527,141284,11180,-0.124,1.012,0.175,-0.183,0,0.061,119.205
120512,141172,9298,-0.124,1.012,0.175,-0.183,0,0.061,119.209
120512,141262,11175,-0.123,0.999,0.177,-1.28,0.122,0.305,119.215
120524,141172,9298,-0.123,0.999,0.177,-1.28,0.122,0.305,119.218
120524,141290,11176,-0.123,0.995,0.172,-1.402,0.244,0.488,119.225
120534,141172,9298,-0.123,0.995,0.172,-1.402,0.244,0.488,119.228
120534,141297,11185,-0.125,1.004,0.178,-0.244,0.488,0.427,119.234
120517,141172,9298,-0.125,1.004,0.178,-0.244,0.488,0.427,119.238
120517,141305,11183,-0.128,1.014,0.177,0.793,0.671,0.061,119.244
120523,141172,9298,-0.128,1.014,0.177,0.793,0.671,0.061,119.248
120523,141266,11188,-0.13,1.016,0.172,1.037,0.732,-0.183,119.254
120520,141172,9298,-0.13,1.016,0.172,1.037,0.732,-0.183,119.258
120520,141254,11169,-0.134,1.011,0.173,0.061,0.671,-0.061,119.264
120525,141172,9298,-0.134,1.011,0.173,0.061,0.671,-0.061,119.268
120525,141305,11178,-0.127,1.003,0.174,-0.488,0.488,0.244,119.274
120499,141172,9298,-0.127,1.003,0.174,-0.488,0.488,0.244,119.278
120499,141298,11169,-0.125,1.003,0.171,-0.488,0.183,0.488,119.284
120526,141172,9298,-0.125,1.003,0.171,-0.488,0.183,0.488,119.288
120526,141270,11182,-0.122,1.009,0.168,-0.61,-0.122,0.427,119.294
120536,141172,9298,-0.122,1.009,0.168,-0.61,-0.122,0.427,119.298
120536,141287,11176,-0.125,1.008,0.177,0.244,0.061,0.244,119.304
120533,141172,9298,-0.125,1.008,0.177,0.244,0.061,0.244,119.308
120533,141274,11179,-0.125,1.013,0.175,0.61,0.488,0.244,119.314
120523,141172,9298,-0.125,1.011,0.173,0.61,0.488,0.244,119.317
120523,141282,11170,-0.128,1.013,0.174,-0.305,0.549,0.305,119.324
120518,141172,9298,-0.127,1.015,0.178,-0.305,0.549,0.305,119.327
120518,141264,11180,-0.125,1.01,0.177,-0.793,0.488,0.366,119.334
120549,141172,9298,-0.127,1.007,0.179,-0.793,0.488,0.366,119.337
120549,141258,11178,-0.128,1.005,0.177,-0.671,0.305,0.305,119.343
120516,141172,9298,-0.128,1.006,0.176,-0.671,0.305,0.305,119.347
120516,141288,11182,-0.125,1.006,0.174,-0.732,0.305,0.183,119.353
120531,141172,9298,-0.126,1.006,0.172,-0.732,0.305,0.183,119.357
120531,141286,11176,-0.125,1.006,0.172,0.122,0.549,0.183,119.363
120547,141172,9298,-0.126,1.01,0.174,0.122,0.549,0.183,119.367
120547,141291,11173,-0.124,1.009,0.173,0.915,0.549,0.366,119.373
120523,141172,9298,-0.123,1.008,0.176,0.915,0.549,0.366,119.377
120523,141276,11172,-0.125,1.008,0.174,0.366,0.305,0.366,119.383
120531,141172,9298,-0.124,1.009,0.17,0.366,0.305,0.366,119.387
120531,141272,11170,-0.122,1.011,0.169,-0.244,0.305,0.244,119.393
120516,141172,9298,-0.123,1.01,0.172,-0.244,0.305,0.244,119.397
120516,141271,11176,-0.125,1.01,0.174,-0.183,0.488,0.183,119.403
120517,141172,9298,-0.125,1.01,0.178,-0.183,0.488,0.183,119.407
120517,141283,11178,-0.126,1.005,0.177,-0.305,0.427,0.366,119.413
120524,141172,9298,-0.128,1.008,0.177,-0.305,0.427,0.366,119.416
120524,141291,11162,-0.128,1.007,0.177,-0.549,0.61,0.488,119.423
120546,141172,9298,-0.128,1.01,0.174,-0.549,0.61,0.488,119.426
120546,141283,11176,-0.13,1.01,0.168,-0.854,0.793,0.366,119.433
120535,141172,9298,-0.133,1.007,0.171,-0.854,0.793,0.366,119.436
120535,141291,11170,-0.133,1.006,0.172,-0.305,0.732,0.305,119.442
120533,141172,9298,-0.134,1.006,0.171,-0.305,0.732,0.305,119.446
120533,141279,11191,-0.131,1.007,0.172,0,0.427,0.549,119.452
120535,141172,9298,-0.131,1.015,0.169,0,0.427,0.549,119.456
120535,141259,11179,-0.129,1.014,0.17,-0.183,0,0.671,119.462
120531,141172,9298,-0.124,1.015,0.176,-0.183,0,0.671,119.466
120531,141265,11162,-0.123,1.015,0.181,-0.122,-0.244,0.488,119.472
120511,141172,9298,-0.121,1.015,0.183,-0.122,-0.244,0.488,119.476
120511,141256,11165,-0.119,1.015,0.182,0.122,-0.183,0.244,119.482
120535,141172,9298,-0.119,1.014,0.179,0.122,-0.183,0.244,119.486
120535,141266,11185,-0.121,1.01,0.179,-0.244,0.305,0,119.492
120528,141172,9298,-0.123,1.01,0.179,-0.244,0.305,0,119.496
120528,141246,11175,-0.125,1.011,0.176,-0.854,0.976,-0.244,119.502
120522,141172,9298,-0.127,1.003,0.173,-0.854,0.976,-0.244,119.506
120522,141280,11176,-0.128,1,0.17,-0.61,1.159,-0.244,119.512
120553,141172,9298,-0.129,1,0.168,-0.61,1.159,-0.244,119.515
120553,141259,11166,-0.129,1,0.17,-0.061,0.854,0.061,119.522
120538,141172,9298,-0.128,1.002,0.171,-0.061,0.854,0.061,119.525
120538,141251,11174,-0.127,1.009,0.174,0.244,0.366,0.122,119.531
120528,141172,9298,-0.129,1.011,0.172,0.244,0.366,0.122,119.535
120528,141286,11196,-0.125,1.011,0.176,0.549,0.183,0.122,119.541
120528,141172,9298,-0.126,1.01,0.174,0.549,0.183,0.122,119.545
120528,141263,11191,-0.127,1.013,0.177,0.122,0.488,0.305,119.551
120538,141172,9298,-0.127,1.016,0.172,0.122,0.488,0.305,119.555
120538,141300,11173,-0.126,1.013,0.172,-0.793,0.61,0.427,119.561
120546,141428,9298,-0.129,1.01,0.174,-0.793,0.61,0.427,119.565
120546,141315,11190,-0.128,1.007,0.174,-0.854,0.671,0.488,119.571
120553,141172,9298,-0.127,1.008,0.179,-0.854,0.671,0.488,119.575
120553,141274,11183,-0.127,1.01,0.18,-0.854,0.427,0.305,119.581
120567,141172,9298,-0.126,1.011,0.182,-0.854,0.427,0.305,119.585
120567,141293,11174,-0.124,1.01,0.182,-0.366,0.488,0.122,119.591
120535,141172,9298,-0.126,1.012,0.178,-0.366,0.488,0.122,119.595
120535,141282,11191,-0.127,1.012,0.173,0.183,0.854,0,119.601
120540,141172,9298,-0.127,1.011,0.172,0.183,0.854,0,119.604
120540,141285,11169,-0.127,1.01,0.172,0.244,1.098,-0.122,119.611
120562,141172,9298,-0.128,1.006,0.172,0.244,1.098,-0.122,119.614
120562,141261,11167,-0.123,1.005,0.17,0.305,0.915,-0.244,119.621
120515,141172,9298,-0.126,1.002,0.17,0.305,0.915,-0.244,119.624
120515,141276,11190,-0.132,1.008,0.173,-0.061,0.793,0,119.63
120554,141172,9298,-0.13,1.011,0.176,-0.061,0.793,0,119.634
120554,141283,11187,-0.127,1.009,0.179,0.244,0.61,-0.061,119.64
120537,141172,9298,-0.13,1.004,0.175,0.244,0.61,-0.061,119.644
120537,141263,11180,-0.126,1.008,0.171,0.305,0.488,0.061,119.65
120543,141172,9298,-0.128,1.008,0.173,0.305,0.488,0.061,119.654
120543,141262,11194,-0.127,1.01,0.174,0,0.488,0.366,119.66
120530,141172,9298,-0.125,1.009,0.174,0,0.488,0.366,119.664
120530,141292,11200,-0.128,1.008,0.175,-0.183,0.732,0.427,119.67
120545,141172,9298,-0.128,1.01,0.174,-0.183,0.732,0.427,119.674
120545,141277,11176,-0.124,1.008,0.172,-0.488,0.732,0.366,119.68
120573,141172,9298,-0.126,1.006,0.17,-0.488,0.732,0.366,119.684
120573,141285,11179,-0.127,1.007,0.169,-0.61,0.488,0.366,119.69
120547,141172,9298,-0.129,1.007,0.173,-0.61,0.488,0.366,119.694
120547,141254,11190,-0.13,1.009,0.176,-0.488,0.366,0.366,119.7
120583,141172,9298,-0.13,1.013,0.179,-0.488,0.366,0.366,119.704
120583,141278,11179,-0.126,1.013,0.179,-0.183,0.549,0.305,119.71
120537,141172,9298,-0.126,1.01,0.175,-0.183,0.549,0.305,119.713
120537,141271,11174,-0.127,1.012,0.173,0.061,0.427,0.366,119.72
120559,141172,9298,-0.126,1.016,0.172,0.061,0.427,0.366,119.723
120559,141250,11172,-0.126,1.016,0.176,-0.183,0.244,0.122,119.729
120559,141172,9298,-0.125,1.011,0.178,-0.183,0.244,0.122,119.733
120559,141265,11180,-0.126,1.009,0.178,-0.305,0.488,-0.122,119.739
120531,141172,9298,-0.127,1.004,0.182,-0.305,0.488,-0.122,119.743
120531,141257,11186,-0.127,1.005,0.181,0.122,0.732,0.122,119.749
120557,141172,9298,-0.127,1.005,0.181,0.122,0.732,0.122,119.753
120557,141265,11171,-0.13,1.005,0.176,-0.244,0.793,0.183,119.759
120524,141172,9298,-0.13,1.005,0.176,-0.244,0.793,0.183,119.763
120524,141259,11176,-0.127,1.007,0.17,0,0.671,0.061,119.769
120560,141172,9298,-0.127,1.007,0.17,0,0.671,0.061,119.773
120560,141256,11175,-0.127,1.006,0.173,1.159,0.732,0,119.779
120535,141172,9298,-0.127,1.006,0.173,1.159,0.732,0,119.783
120535,141293,11181,-0.129,1.01,0.172,0.793,0.854,0.122,119.789
120563,141172,9298,-0.129,1.01,0.172,0.793,0.854,0.122,119.793
120563,141274,11180,-0.127,1.011,0.173,-0.061,0.915,0.366,119.799
120534,141172,9298,-0.127,1.011,0.173,-0.061,0.915,0.366,119.802
120534,141264,11179,-0.129,1.006,0.168,-0.366,0.671,0.427,119.809
120556,141172,9298,-0.129,1.006,0.168,-0.366,0.671,0.427,119.812
120556,141254,11166,-0.127,1.007,0.172,-0.61,0.61,0.671,119.819
120539,141172,9298,-0.127,1.007,0.172,-0.61,0.61,0.671,119.822
120539,141273,11174,-0.127,1.008,0.174,-0.427,0.671,0.549,119.828
120537,141172,9298,-0.127,1.008,0.174,-0.427,0.671,0.549,119.832
120537,141249,11180,-0.128,1.007,0.176,0.305,0.732,0.244,119.838
120530,141172,9298,-0.128,1.007,0.176,0.305,0.732,0.244,119.842
120530,141287,11166,-0.132,1.013,0.175,0.061,0.793,0.061,119.848
120538,141172,9298,-0.132,1.013,0.175,0.061,0.793,0.061,119.852
120538,141269,11163,-0.129,1.018,0.172,0.061,0.793,-0.122,119.858
120524,141172,9298,-0.129,1.018,0.172,0.061,0.793,-0.122,119.862
120524,141259,11186,-0.125,1.011,0.173,0.427,0.61,-0.183,119.868
120526,141172,9298,-0.125,1.011,0.173,0.427,0.61,-0.183,119.872
120526,141239,11179,-0.125,1.01,0.176,-0.244,0.427,0.061,119.878
120544,141172,9298,-0.125,1.01,0.176,-0.244,0.427,0.061,119.882
120544,141263,11167,-0.129,1.001,0.174,-0.793,0.549,0.244,119.888
120533,141172,9298,-0.129,1.001,0.174,-0.793,0.549,0.244,119.892
120533,141257,11161,-0.126,1.001,0.171,-0.793,0.549,0.244,119.898
120526,141172,9298,-0.127,1,0.171,-0.183,0.915,0.122,119.901
120526,141245,11158,-0.129,0.997,0.174,-0.183,0.915,0.122,119.908
120529,141172,9298,-0.127,1.004,0.171,0.671,0.976,0,119.911
120529,141252,11169,-0.126,1.006,0.17,0.671,0.976,0,119.918
120550,141172,9298,-0.129,1.01,0.167,0.732,0.915,0.122,119.921
120550,141254,11163,-0.131,1.012,0.166,0.732,0.915,0.122,119.927
120540,141172,9298,-0.129,1.015,0.167,0.305,0.793,0.244,119.931
120540,141273,11163,-0.13,1.015,0.172,0.305,0.793,0.244,119.937
120521,141172,9298,-0.132,1.013,0.174,-0.366,0.488,0.366,119.941
120521,141278,11169,-0.131,1.012,0.174,-0.366,0.488,0.366,119.947
120548,141172,9298,-0.128,1.006,0.178,-1.22,0.183,0.488,119.951
120548,141248,11170,-0.125,1.006,0.176,-1.22,0.183,0.488,119.957
120557,141172,9298,-0.125,1.008,0.175,-1.28,0.061,0.488,119.961
120557,141239,11180,-0.126,1.006,0.171,-1.28,0.061,0.488,119.967
120554,141172,9298,-0.124,1.007,0.174,-0.549,0.244,0.305,119.971
120554,141257,11175,-0.125,1.005,0.174,-0.549,0.244,0.305,119.977
120533,141172,9298,-0.129,1.01,0.175,0.122,0.549,0.244,119.981
120533,141247,11163,-0.127,1.009,0.174,0.122,0.549,0.244,119.987
120537,141172,9298,-0.128,1.01,0.172,0.549,0.793,0.183,119.991
120537,141252,11167,-0.129,1.009,0.174,0.549,0.793,0.183,119.997
120556,141172,9298,-0.128,1.009,0.174,0.427,0.549,0.183,120
120556,141267,11168,-0.13,1.013,0.178,0.427,0.549,0.183,120.007
120553,141172,9298,-0.127,1.011,0.176,0.122,0.305,0.122,120.01
120553,141249,11156,-0.126,1.008,0.172,0.122,0.305,0.122,120.017
120543,141172,9298,-0.127,1.006,0.171,0.244,0.549,0.244,120.02
120543,141240,11170,-0.132,1.005,0.166,0.244,0.549,0.244,120.026
120559,141172,9298,-0.129,1.008,0.172,-0.305,0.793,0.366,120.03
120559,141239,11144,-0.13,1.007,0.173,-0.305,0.793,0.366,120.036
120533,141172,9298,-0.13,1.007,0.172,-0.915,0.549,0.427,120.04
120533,141266,11173,-0.131,1.005,0.176,-0.915,0.549,0.427,120.046
120550,141172,9298,-0.127,1,0.17,-0.488,0.122,0.427,120.05
120550,141270,11178,-0.124,1.007,0.172,-0.488,0.122,0.427,120.056
120551,141172,9298,-0.123,1.013,0.172,-0.305,0,0.366,120.06
120551,141241,11158,-0.127,1.014,0.173,-0.305,0,0.366,120.066
120538,141172,9298,-0.126,1.015,0.173,-0.183,0.305,0.183,120.07
120538,141249,11168,-0.129,1.014,0.176,-0.183,0.305,0.183,120.076
120550,141172,9298,-0.131,1.014,0.174,0.427,0.854,0.122,120.08
120550,141238,11182,-0.133,1.014,0.177,0.427,0.854,0.122,120.086
120560,141172,9298,-0.132,1.01,0.172,0,0.732,0.366,120.09
120560,141256,11169,-0.134,1.006,0.169,0,0.732,0.366,120.096
120552,141172,9298,-0.133,1.006,0.165,-0.732,0.488,0.549,120.099
120552,141260,11161,-0.132,1.003,0.165,-0.732,0.488,0.549,120.106
120543,141172,9298,-0.129,1.002,0.165,-1.402,0.122,0.427,120.109
120543,141258,11169,-0.129,1.009,0.169,-1.402,0.122,0.427,120.116
120545,141172,9298,-0.129,1.009,0.173,-1.402,-0.305,0.366,120.119
120545,141215,11173,-0.126,1.006,0.174,-1.402,-0.305,0.366,120.125
120560,141172,9298,-0.124,1.006,0.17,-0.183,-0.488,0.488,120.129
120560,141225,11160,-0.125,1.009,0.171,-0.183,-0.488,0.488,120.135
120540,141172,9298,-0.125,1.013,0.176,0.427,-0.305,0.732,120.139
120540,141246,11158,-0.122,1.016,0.176,0.427,-0.305,0.732,120.145
120559,141172,9298,-0.122,1.015,0.179,0.305,-0.183,0.427,120.149
120559,141244,11166,-0.122,1.016,0.178,0.305,-0.183,0.427,120.155
120576,141172,9298,-0.121,1.012,0.177,0.427,0.122,0,120.159
120576,141240,11161,-0.124,1.012,0.176,0.427,0.122,0,120.165
120549,141172,9298,-0.125,1.011,0.177,-0.122,0.366,-0.122,120.169
120549,141245,11163,-0.128,1.01,0.176,-0.122,0.366,-0.122,120.175
120545,141172,9298,-0.129,1.01,0.174,-0.793,0.671,-0.061,120.179
120545,141227,11170,-0.132,1.005,0.172,-0.793,0.671,-0.061,120.185
120547,141172,9298,-0.131,1.001,0.17,-0.671,0.732,0.122,120.189
120547,141222,11173,-0.136,1.002,0.17,-0.671,0.732,0.122,120.195
120562,141172,9298,-0.135,1.004,0.172,-0.976,0.549,0.183,120.198
120562,141253,11175,-0.137,1.004,0.175,-0.976,0.549,0.183,120.205
120541,141172,9298,-0.134,1.003,0.174,-0.915,0.122,0.427,120.208
120541,141278,11168,-0.13,1.003,0.172,-0.915,0.122,0.427,120.215
120557,141172,9298,-0.126,1.005,0.175,-0.488,-0.061,0.854,120.218
120557,141246,11169,-0.126,1.007,0.177,-0.488,-0.061,0.854,120.224
120560,141172,9298,-0.126,1.008,0.18,-0.61,0,0.854,120.228
120560,141238,11163,-0.126,1.012,0.178,-0.61,0,0.854,120.234
120552,141172,9298,-0.124,1.012,0.175,-0.427,0.061,0.732,120.238
120552,141257,11175,-0.126,1.011,0.174,-0.427,0.061,0.732,120.244
120566,141172,9298,-0.125,1.01,0.17,-0.305,0.488,0.366,120.248
120566,141258,11153,-0.131,1.017,0.174,-0.305,0.488,0.366,120.254
120560,141172,9298,-0.13,1.015,0.176,-0.61,0.793,0.122,120.258
120560,141258,11172,-0.128,1.011,0.18,-0.61,0.793,0.122,120.264
120563,141172,9298,-0.131,1.008,0.176,-0.61,0.488,0.122,120.268
120563,141245,11177,-0.131,1.005,0.171,-0.61,0.488,0.122,120.274
120561,141172,9298,-0.13,1.004,0.174,-0.061,0.244,0.366,120.278
120561,141261,11156,-0.127,1.003,0.172,-0.061,0.244,0.366,120.284
120545,141172,9298,-0.123,1.006,0.172,0.122,0,0.366,120.288
120545,141253,11171,-0.125,1.009,0.176,0.122,0,0.366,120.294
120558,141172,9298,-0.125,1.01,0.178,-0.122,0,0.061,120.297
120558,141260,11190,-0.119,1.008,0.177,-0.122,0,0.061,120.304
120563,141172,9298,-0.121,1.006,0.178,0.244,0.183,-0.061,120.307
120563,141259,11160,-0.122,1.002,0.175,0.244,0.183,-0.061,120.314
120570,141172,9298,-0.125,1.003,0.175,0.854,0.793,0.244,120.317
120570,141231,11170,-0.129,1.009,0.175,0.854,0.793,0.244,120.323
120563,141172,9298,-0.129,1.009,0.175,0.854,0.793,0.244,120.327
120563,141247,11161,-0.132,1.014,0.174,0,1.037,0.305,120.333
120568,141172,9298,-0.132,1.014,0.174,0,1.037,0.305,120.337
120568,141234,11176,-0.127,1.004,0.181,-0.366,0.793,0.061,120.343
120579,141172,9298,-0.127,1.004,0.181,-0.366,0.793,0.061,120.347
120579,141251,11167,-0.132,1.004,0.177,0.183,0.61,0.244,120.353
120563,141172,9298,-0.132,1.004,0.177,0.183,0.61,0.244,120.357
120563,141228,11177,-0.127,1.01,0.175,-0.122,0.671,0.671,120.363
120560,141172,9298,-0.127,1.01,0.175,-0.122,0.671,0.671,120.367
120560,141241,11159,-0.13,1.01,0.169,-0.427,0.793,0.61,120.373
120571,141172,9298,-0.13,1.01,0.169,-0.427,0.793,0.61,120.377
120571,141267,11170,-0.13,1.011,0.173,0.122,0.671,0.305,120.383
120576,141172,9298,-0.13,1.011,0.173,0.122,0.671,0.305,120.387
120576,141277,11177,-0.131,1.01,0.175,0.244,0.305,0.305,120.393
120567,141172,9298,-0.131,1.01,0.175,0.244,0.305,0.305,120.396
120567,141256,11176,-0.127,1.008,0.174,-0.183,0.061,0.488,120.403
120582,141172,9298,-0.127,1.008,0.174,-0.183,0.061,0.488,120.406
120582,141225,11154,-0.124,1.007,0.174,0.122,0.061,0.427,120.412
120565,141172,9298,-0.124,1.007,0.174,0.122,0.061,0.427,120.416
120565,141260,11178,-0.123,1.011,0.176,0.244,0.488,0.244,120.422
120569,141172,9298,-0.123,1.011,0.176,0.244,0.488,0.244,120.426
120569,141228,11172,-0.128,1.009,0.165,-0.183,0.488,-0.061,120.432
120588,141172,9298,-0.128,1.009,0.165,-0.183,0.488,-0.061,120.436
120588,141247,11166,-0.133,1.009,0.17,-0.427,0.732,0,120.442
120563,141172,9298,-0.133,1.009,0.17,-0.427,0.732,0,120.446
120563,141256,11190,-0.131,1.007,0.175,-0.427,0.732,0.061,120.452
120568,141172,9298,-0.131,1.007,0.175,-0.427,0.732,0.061,120.456
120568,141279,11180,-0.128,1.003,0.171,0,0.366,0.183,120.462
120592,141172,9298,-0.128,1.003,0.171,0,0.366,0.183,120.466
120592,141269,11161,-0.127,1.007,0.172,0.122,0.122,0.366,120.472
120573,141172,9298,-0.127,1.009,0.174,0.122,0.122,0.366,120.476
120573,141271,11173,-0.127,1.008,0.176,0.061,0.244,0.488,120.482
120577,141172,9298,-0.128,1.008,0.175,0.061,0.244,0.488,120.486
120577,141237,11170,-0.125,1.004,0.178,-0.061,0.488,0.427,120.492
120592,141172,9298,-0.127,1.003,0.178,-0.061,0.488,0.427,120.495
120592,141256,11172,-0.126,1.005,0.178,-0.122,0.549,0.305,120.502
120575,141172,9298,-0.129,1.006,0.179,-0.122,0.549,0.305,120.505
120575,141243,11165,-0.128,1.005,0.176,-0.122,0.732,0.488,120.512
120573,141172,9298,-0.13,1.009,0.172,-0.122,0.732,0.488,120.515
120573,141248,11165,-0.13,1.011,0.17,0.061,0.732,0.427,120.521
120567,141172,9298,-0.132,1.012,0.172,0.061,0.732,0.427,120.525
120567,141258,11179,-0.127,1.011,0.17,0.244,0.549,0.366,120.531
120596,141172,9298,-0.129,1.015,0.172,0.244,0.549,0.366,120.535
120596,141257,11158,-0.126,1.012,0.17,-0.305,0.366,0.366,120.541
120591,141172,9298,-0.127,1.009,0.171,-0.305,0.366,0.366,120.545
120591,141261,11175,-0.129,1.007,0.174,-0.732,0.366,0.549,120.551
120592,141172,9298,-0.128,1.003,0.172,-0.732,0.366,0.549,120.555
120592,141243,11163,-0.129,1.002,0.173,-0.122,0.366,0.488,120.561
120583,141172,9298,-0.125,1.003,0.171,-0.122,0.366,0.488,120.565
120583,141243,11172,-0.125,1.011,0.173,-0.122,0.244,0.366,120.571
120553,141172,9298,-0.128,1.015,0.174,-0.122,0.244,0.366,120.575
120553,141230,11173,-0.128,1.014,0.178,0.061,0.366,0.061,120.581
120562,141172,9298,-0.129,1.01,0.176,0.061,0.366,0.061,120.585
120562,141245,11174,-0.128,1.01,0.176,0.549,0.305,0.244,120.591
120565,141172,9298,-0.127,1.007,0.174,0.549,0.305,0.244,120.594
120565,141236,11155,-0.127,1.009,0.176,-0.366,0.366,0.366,120.601
120567,141172,9298,-0.129,1.009,0.174,-0.366,0.366,0.366,120.604
120567,141253,11163,-0.128,1.005,0.173,-0.915,0.305,0.305,120.61
120563,141172,9298,-0.13,1.002,0.175,-0.915,0.305,0.305,120.614
120563,141244,11172,-0.129,1.003,0.178,-0.366,0.549,0.244,120.62
120572,141172,9298,-0.133,1.003,0.174,-0.366,0.549,0.244,120.624
120572,141212,11152,-0.132,1.008,0.176,-0.305,0.732,0.549,120.63
120575,141172,9298,-0.133,1.009,0.177,-0.305,0.732,0.549,120.634
120575,141230,11151,-0.128,1.011,0.17,0.244,0.61,0.549,120.64
120579,141172,9298,-0.126,1.01,0.167,0.244,0.61,0.549,120.644
120579,141250,11165,-0.127,1.014,0.169,0.488,0.305,0.488,120.65
120554,141172,9298,-0.127,1.01,0.17,0.488,0.305,0.488,120.654
120554,141251,11165,-0.125,1.011,0.175,-0.061,0.183,0.427,120.66
120584,141172,9298,-0.125,1.012,0.173,-0.061,0.183,0.427,120.664
120584,141279,11154,-0.124,1.01,0.176,-0.488,0.366,0.305,120.67
120588,141172,9298,-0.125,1.009,0.176,-0.488,0.366,0.305,120.674
120588,141257,11154,-0.126,1.007,0.172,-0.183,0.549,0.244,120.68
120591,141172,9298,-0.129,1.006,0.17,-0.183,0.549,0.244,120.684
120591,141277,11165,-0.13,1.007,0.174,0.061,0.732,0.305,120.69
120586,141172,9298,-0.131,1.014,0.169,0.061,0.732,0.305,120.693
120586,141257,11163,-0.133,1.013,0.168,-0.305,0.793,0.183,120.7
120596,141172,9298,-0.131,1.015,0.172,-0.305,0.793,0.183,120.703
120596,141276,11165,-0.13,1.009,0.168,-0.244,0.61,0,120.709
120605,141172,9298,-0.128,1.005,0.167,-0.244,0.61,0,120.713
120605,141274,11172,-0.134,1.005,0.171,-0.122,0.305,0.305,120.719
120601,141172,9298,-0.131,1.007,0.173,-0.122,0.305,0.305,120.723
120601,141264,11153,-0.129,1.009,0.175,-0.732,0,0.61,120.729
120583,141172,9298,-0.127,1.009,0.177,-0.732,0,0.61,120.733
120583,141269,11169,-0.125,1.006,0.175,-0.732,-0.183,0.61,120.739
120588,141172,9298,-0.122,1.004,0.17,-0.732,-0.183,0.61,120.743
120588,141257,11193,-0.125,1.007,0.169,-0.549,0.061,0.549,120.749
120606,141172,9298,-0.125,1.006,0.174,-0.549,0.061,0.549,120.753
120606,141259,11154,-0.127,1.007,0.174,-0.305,0.549,0.366,120.759
120598,141172,9298,-0.131,1.006,0.169,-0.305,0.549,0.366,120.763
120598,141269,11169,-0.135,1.005,0.176,0.549,0.793,0.244,120.769
120605,141172,9298,-0.134,1.01,0.177,0.549,0.793,0.244,120.773
120605,141233,11165,-0.133,1.014,0.178,-0.183,0.488,0.427,120.779
120594,141172,9298,-0.131,1.013,0.175,-0.183,0.488,0.427,120.782
120594,141240,11151,-0.129,1.01,0.175,-0.793,0.061,0.488,120.789
120576,141172,9298,-0.126,1.007,0.171,-0.793,0.061,0.488,120.792
120576,141241,11149,-0.127,1.007,0.173,-0.61,-0.122,0.61,120.799
120589,141172,9298,-0.125,1.01,0.175,-0.61,-0.122,0.61,120.802
120589,141231,11176,-0.124,1.009,0.177,-0.732,-0.122,0.61,120.808
120586,141172,9298,-0.124,1.01,0.174,-0.732,-0.122,0.61,120.812
120586,141280,11160,-0.124,1.007,0.173,-0.061,0.305,0.488,120.818
120577,141172,9298,-0.125,1.009,0.179,-0.061,0.305,0.488,120.822
120577,141245,11148,-0.124,1.009,0.178,0.183,0.366,0.305,120.828
120606,141172,9298,-0.128,1.013,0.175,0.183,0.366,0.305,120.832
120606,141257,11164,-0.128,1.012,0.178,0,0.366,0.122,120.838
120610,141172,9298,-0.126,1.01,0.174,0,0.366,0.122,120.842
120610,141266,11160,-0.13,1.008,0.175,-0.244,0.366,0,120.848
120587,141172,9298,-0.129,1.007,0.177,-0.244,0.366,0,120.852
120587,141269,11164,-0.128,1.008,0.174,-0.549,0.427,0.061,120.858
120613,141172,9298,-0.132,1.008,0.174,-0.549,0.427,0.061,120.862
120613,141247,11167,-0.134,1.006,0.172,-0.549,0.549,0.244,120.868
120603,141172,9298,-0.131,1.007,0.174,-0.549,0.549,0.244,120.872
120603,141244,11157,-0.13,1.003,0.173,0.061,0.488,0.549,120.878
120610,141172,9298,-0.131,1.001,0.175,0.061,0.488,0.549,120.882
120610,141241,11153,-0.128,1.007,0.177,0,0.183,0.671,120.888
120592,141172,9298,-0.125,1.01,0.176,0,0.183,0.671,120.891
120592,141240,11141,-0.12,1.009,0.171,-0.488,-0.122,0.549,120.898
120596,141172,9298,-0.123,1.012,0.171,-0.488,-0.122,0.549,120.901
120596,141253,11162,-0.123,1.01,0.17,-0.183,-0.061,0.427,120.907
120583,141172,9298,-0.123,1.01,0.17,-0.183,-0.061,0.427,120.911
120583,141235,11162,-0.128,1.009,0.175,0.427,0.183,0.366,120.917
120585,141172,9298,-0.128,1.009,0.175,0.427,0.183,0.366,120.921
120585,141260,11168,-0.128,1.015,0.177,0.122,0.427,0.305,120.927
120605,141172,9298,-0.128,1.015,0.177,0.122,0.427,0.305,120.931
120605,141246,11148,-0.129,1.013,0.181,-0.366,0.488,0.244,120.937
120562,141172,9298,-0.129,1.013,0.181,-0.366,0.488,0.244,120.941
120562,141227,11157,-0.126,1.01,0.173,-0.183,0.366,0.366,120.947
120582,141172,9298,-0.126,1.01,0.173,-0.183,0.366,0.366,120.951
120582,141218,11153,-0.126,1.007,0.178,-0.549,0.488,0.549,120.957
120581,141172,9298,-0.126,1.007,0.178,-0.549,0.488,0.549,120.961
120581,141239,11153,-0.13,1.004,0.173,-0.671,0.793,0.427,120.967
120600,141172,9298,-0.13,1.004,0.173,-0.671,0.793,0.427,120.971
120600,141225,11155,-0.135,1.011,0.173,0.122,0.793,0.244,120.977
120596,141172,9298,-0.135,1.011,0.173,0.122,0.793,0.244,120.98
120596,141214,11147,-0.127,1.015,0.172,0.488,0.488,0.366,120.987
120577,141172,9298,-0.127,1.015,0.172,0.488,0.488,0.366,120.99
120577,141230,11162,-0.125,1.01,0.176,0.183,0,0.427,120.997
120581,141172,9298,-0.125,1.01,0.176,0.183,0,0.427,121
120581,141229,11154,-0.128,1.009,0.171,-0.427,0.305,0.427,121.006
120581,141172,9298,-0.128,1.009,0.171,-0.427,0.305,0.427,121.01
120581,141229,11167,-0.132,1.008,0.17,-0.793,0.549,0.305,121.016
120613,141172,9298,-0.132,1.008,0.17,-0.793,0.549,0.305,121.02
120613,141249,11159,-0.137,1.006,0.169,-0.244,0.305,0.305,121.026
120597,141172,9298,-0.137,1.006,0.169,-0.244,0.305,0.305,121.03
120597,141259,11164,-0.133,1.009,0.169,0.549,-0.122,0.427,121.036
120581,141172,9298,-0.133,1.009,0.169,0.549,-0.122,0.427,121.04
120581,141235,11177,-0.13,1.015,0.176,0.183,-0.549,0.488,121.046
120590,141172,9298,-0.13,1.015,0.176,0.183,-0.549,0.488,121.05
120590,141226,11154,-0.126,1.016,0.171,0.183,-0.549,0.488,121.056
120569,141172,9298,-0.127,1.014,0.172,-0.122,-0.793,0.488,121.06
120569,141229,11175,-0.121,1.01,0.169,-0.122,-0.793,0.488,121.066
120592,141172,9298,-0.119,1.006,0.17,-0.488,-0.549,0.549,121.07
120592,141247,11163,-0.119,1.002,0.173,-0.488,-0.549,0.549,121.076
120580,141172,9298,-0.119,1.002,0.174,-0.61,-0.427,0.427,121.079
120580,141235,11167,-0.124,1.004,0.173,-0.61,-0.427,0.427,121.086
120584,141172,9298,-0.122,1.005,0.177,-0.427,-0.305,0.244,121.089
120584,141217,11155,-0.125,1.006,0.18,-0.427,-0.305,0.244,121.096
120593,141172,9298,-0.128,1.005,0.181,0.305,0.305,-0.244,121.099
120593,141233,11161,-0.13,1.007,0.181,0.305,0.305,-0.244,121.105
120579,141172,9298,-0.131,1.01,0.18,0.671,0.793,0.122,121.109
120579,141215,11140,-0.135,1.01,0.179,0.671,0.793,0.122,121.115
120620,141172,9298,-0.131,1.012,0.174,0.061,0.793,0.549,121.119
120620,141212,11155,-0.131,1.01,0.179,0.061,0.793,0.549,121.125
120607,141172,9298,-0.134,1.011,0.18,-0.671,0.427,0.549,121.129
120607,141232,11157,-0.128,1.008,0.179,-0.671,0.427,0.549,121.135
120595,141172,9298,-0.126,1.003,0.174,-0.732,0.244,0.488,121.139
120595,141225,11159,-0.126,1.003,0.173,-0.732,0.244,0.488,121.145
120594,141172,9298,-0.127,1.003,0.169,-0.183,0.427,0.549,121.149
120594,141214,11150,-0.127,1.006,0.171,-0.183,0.427,0.549,121.155
120600,141172,9298,-0.129,1.007,0.175,0.305,0.793,0.732,121.159
120600,141230,11153,-0.129,1.008,0.173,0.305,0.793,0.732,121.165
120597,141172,9298,-0.128,1.009,0.167,0.732,0.854,0.671,121.169
120597,141217,11156,-0.128,1.013,0.164,0.732,0.854,0.671,121.175
120611,141172,9298,-0.129,1.015,0.163,0.427,0.549,0.488,121.178
120611,141241,11162,-0.129,1.014,0.172,0.427,0.549,0.488,121.185
120607,141172,9298,-0.126,1.013,0.175,0.122,0.122,0.366,121.188
120607,141227,11163,-0.127,1.011,0.169,0.122,0.122,0.366,121.195
120579,141172,9298,-0.128,1.008,0.172,-0.305,0.122,0.427,121.198
120579,141212,11164,-0.129,1.007,0.172,-0.305,0.122,0.427,121.204
120568,141172,9298,-0.129,1.007,0.169,-0.976,0.244,0.549,121.208
120568,141231,11153,-0.132,1.009,0.172,-0.976,0.244,0.549,121.214
120586,141172,9298,-0.13,1.011,0.172,-1.159,0.244,0.427,121.218
120586,141235,11168,-0.132,1.009,0.17,-1.159,0.244,0.427,121.224
120602,141172,9298,-0.133,1.011,0.174,-0.732,0.061,0.305,121.228
120602,141208,11156,-0.129,1.009,0.177,-0.732,0.061,0.305,121.234
120619,141172,9298,-0.127,1.006,0.176,-0.305,-0.183,0.244,121.238
120619,141225,11153,-0.129,1.007,0.178,-0.305,-0.183,0.244,121.244
120602,141172,9298,-0.128,1.005,0.177,-0.183,-0.183,0.671,121.248
120602,141238,11153,-0.128,1.007,0.175,-0.183,-0.183,0.671,121.254
120611,141172,9298,-0.127,1.012,0.177,-0.61,-0.122,0.61,121.258
120611,141237,11159,-0.128,1.01,0.18,-0.61,-0.122,0.61,121.264
120607,141172,9298,-0.129,1.007,0.175,-0.061,0.061,0.427,121.268
120607,141245,11166,-0.13,1.005,0.175,-0.061,0.061,0.427,121.274
120613,141172,9298,-0.127,1.006,0.173,0.244,0.061,0.366,121.277
120613,141218,11163,-0.127,1.008,0.17,0.244,0.061,0.366,121.284
120600,141172,9298,-0.131,1.011,0.17,-0.488,-0.122,0.549,121.287
120600,141239,11165,-0.132,1.012,0.172,-0.488,-0.122,0.549,121.294
120603,141172,9298,-0.129,1.011,0.174,-0.793,-0.244,0.549,121.297
120603,141223,11168,-0.128,1.01,0.175,-0.793,-0.244,0.549,121.303
120626,141172,9298,-0.127,1.011,0.18,-0.732,-0.244,0.488,121.307
120626,141237,11153,-0.127,1.011,0.178,-0.732,-0.244,0.488,121.313
120600,141172,9298,-0.126,1.009,0.179,-0.61,-0.366,0.61,121.317
120600,141245,11150,-0.125,1.011,0.177,-0.61,-0.366,0.61,121.323
120597,141172,9298,-0.123,1.011,0.174,-0.671,-0.366,0.488,121.327
120597,141212,11159,-0.123,1.012,0.18,-0.671,-0.366,0.488,121.333
120610,141172,9298,-0.122,1.01,0.182,-0.61,-0.244,0.366,121.337
120610,141244,11155,-0.122,1.006,0.182,-0.61,-0.244,0.366,121.343
120625,141172,9298,-0.121,1.007,0.18,-0.366,0,0.122,121.347
120625,141239,11167,-0.123,1.006,0.182,-0.366,0,0.122,121.353
120628,141172,9298,-0.123,1.005,0.183,-0.549,0.549,-0.122,121.357
120628,141240,11162,-0.124,1.005,0.182,-0.549,0.549,-0.122,121.363
120642,141172,9298,-0.127,1.002,0.177,-0.244,1.037,-0.122,121.367
120642,141248,11166,-0.13,1.003,0.174,-0.244,1.037,-0.122,121.373
120629,141172,9298,-0.132,1.005,0.174,0.488,1.341,0,121.376
120629,141241,11156,-0.131,1.004,0.173,0.488,1.341,0,121.383
120615,141172,9298,-0.129,1.005,0.174,0.732,1.098,0.244,121.386
120615,141229,11166,-0.126,1.006,0.175,0.732,1.098,0.244,121.393
120640,141172,9298,-0.128,1.009,0.179,0.732,0.854,0.183,121.396
120640,141259,11144,-0.125,1.009,0.175,0.732,0.854,0.183,121.402
120625,141172,9298,-0.126,1.007,0.172,0.976,1.037,0.305,121.406
120625,141257,11147,-0.126,1.008,0.172,0.976,1.037,0.305,121.412
120615,141172,9298,-0.13,1.008,0.172,0.488,1.22,0.671,121.416
120615,141256,11153,-0.129,1.007,0.171,0.488,1.22,0.671,121.422
120635,141172,9298,-0.128,1.009,0.168,0.061,1.22,0.732,121.426
120635,141260,11152,-0.13,1.008,0.173,0.061,1.22,0.732,121.432
120612,141172,9298,-0.13,1.011,0.174,0.061,1.037,0.488,121.436
120612,141247,11157,-0.131,1.01,0.18,0.061,1.037,0.488,121.442
120629,141172,9298,-0.13,1.014,0.173,0.427,0.61,0.244,121.446
120629,141230,11147,-0.131,1.014,0.169,0.427,0.61,0.244,121.452
120612,141172,9298,-0.129,1.012,0.173,0.915,0.549,0.061,121.456
120612,141235,11150,-0.131,1.015,0.174,0.915,0.549,0.061,121.462
120614,141172,9298,-0.129,1.015,0.173,0.244,0.793,0.244,121.466
120614,141208,11139,-0.13,1.012,0.175,0.244,0.793,0.244,121.472
120605,141172,9298,-0.128,1.005,0.171,0,0.915,0.366,121.475
120605,141246,11151,-0.129,1.006,0.163,0,0.915,0.366,121.482
120599,141172,9298,-0.128,1.008,0.167,0.061,0.61,0.366,121.485
120599,141218,11159,-0.128,1.007,0.171,0.061,0.61,0.366,121.492
120638,141172,9298,-0.128,1.007,0.171,0.061,0.61,0.366,121.495
120638,141234,11149,-0.124,1.002,0.176,0.244,0.305,0.366,121.501
120642,141172,9298,-0.124,1.002,0.176,0.244,0.305,0.366,121.505
120642,141255,11156,-0.126,1.007,0.172,0.366,0.244,0.488,121.511
120611,141172,9298,-0.126,1.007,0.172,0.366,0.244,0.488,121.515
120611,141256,11156,-0.131,1.011,0.168,-0.061,0.549,0.549,121.521
120651,141172,9298,-0.131,1.011,0.168,-0.061,0.549,0.549,121.525
120651,141252,11142,-0.134,1.008,0.173,-0.183,0.61,0.244,121.531
120630,141172,9298,-0.134,1.008,0.173,-0.183,0.61,0.244,121.535
120630,141260,11158,-0.133,1.014,0.175,0,0.244,0.305,121.541
120639,141172,9298,-0.133,1.014,0.175,0,0.244,0.305,121.545
120639,141260,11160,-0.13,1.015,0.175,-0.366,-0.183,0.488,121.551
120649,141172,9298,-0.13,1.015,0.175,-0.366,-0.183,0.488,121.555
120649,141259,11156,-0.126,1.011,0.173,-0.671,-0.183,0.671,121.561
120651,141172,9298,-0.126,1.011,0.173,-0.671,-0.183,0.671,121.565
120651,141264,11157,-0.124,1.01,0.168,-0.427,-0.305,0.61,121.571
120640,141172,9298,-0.124,1.01,0.168,-0.427,-0.305,0.61,121.574
120640,141266,11156,-0.127,1.007,0.173,0.122,-0.183,0.488,121.581
120646,141172,9298,-0.127,1.007,0.173,0.122,-0.183,0.488,121.584
120646,141267,11157,-0.123,1.005,0.177,0.122,0,0.427,121.591
120635,141172,9298,-0.123,1.005,0.177,0.122,0,0.427,121.594
120635,141225,11152,-0.126,1.005,0.172,-0.122,0.061,0.366,121.6
120634,141172,9298,-0.126,1.005,0.172,-0.122,0.061,0.366,121.604
120634,141261,11138,-0.129,1.01,0.175,0.244,0.305,0.244,121.61
120630,141172,9298,-0.129,1.01,0.175,0.244,0.305,0.244,121.614
120630,141258,11158,-0.133,1.022,0.177,0.183,0.488,0.061,121.62
120664,141172,9298,-0.133,1.022,0.177,0.183,0.488,0.061,121.624
120664,141263,11147,-0.13,1.013,0.181,-0.366,0.305,0.061,121.63
120639,141172,9298,-0.13,1.013,0.181,-0.366,0.305,0.061,121.634
120639,141277,11149,-0.13,1.01,0.179,-0.915,-0.122,0.305,121.64
120655,141172,9298,-0.124,1.008,0.178,-0.915,-0.122,0.305,121.644
120655,141263,11167,-0.125,1.006,0.18,-1.341,-0.244,0.366,121.65
120664,141172,9298,-0.124,1.002,0.177,-1.341,-0.244,0.366,121.654
120664,141256,11164,-0.123,0.998,0.175,-1.159,0.122,0.61,121.66
120659,141172,9298,-0.127,0.994,0.171,-1.159,0.122,0.61,121.664
120659,141259,11168,-0.127,0.998,0.172,-0.488,0.549,0.61,121.67
120657,141172,9298,-0.129,1.005,0.169,-0.488,0.549,0.61,121.673
120657,141240,11153,-0.128,1.008,0.172,0.305,0.61,0.427,121.68
120665,141172,9298,-0.13,1.012,0.179,0.305,0.61,0.427,121.683
120665,141260,11153,-0.132,1.017,0.178,1.159,0.732,0.305,121.69
120647,141172,9298,-0.132,1.02,0.179,1.159,0.732,0.305,121.693
120647,141243,11150,-0.13,1.017,0.178,0.854,0.488,0.366,121.699
120640,141172,9298,-0.126,1.015,0.172,0.854,0.488,0.366,121.703
120640,141253,11144,-0.128,1.01,0.17,-0.061,0.427,0.671,121.709
120632,141172,9298,-0.125,1.008,0.175,-0.061,0.427,0.671,121.713
120632,141242,11151,-0.126,1.005,0.174,-0.488,0.305,0.793,121.719
120643,141172,9298,-0.124,1.005,0.172,-0.488,0.305,0.793,121.723
120643,141247,11173,-0.123,1.006,0.173,-0.244,0.366,0.549,121.729
120641,141172,9298,-0.124,1.003,0.169,-0.244,0.366,0.549,121.733
120641,141227,11149,-0.124,1.005,0.169,-0.061,0.488,0.366,121.739
120646,141172,9298,-0.126,1.01,0.176,-0.061,0.488,0.366,121.743
120646,141254,11162,-0.128,1.01,0.175,0.366,0.793,0.427,121.749
120660,141172,9298,-0.131,1.01,0.176,0.366,0.793,0.427,121.753
120660,141236,11151,-0.13,1.011,0.175,0.793,1.037,0.488,121.759
120660,141172,9298,-0.131,1.012,0.172,0.793,1.037,0.488,121.763
120660,141249,11131,-0.135,1.013,0.171,0.122,1.159,0.549,121.769
120637,141172,9298,-0.13,1.012,0.176,0.122,1.159,0.549,121.772
120637,141231,11151,-0.131,1.013,0.175,-0.305,0.793,0.549,121.779
120668,141172,9298,-0.13,1.011,0.173,-0.305,0.793,0.549,121.782
120668,141265,11153,-0.129,1.007,0.175,0.061,0.244,0.61,121.788
120661,141172,9298,-0.126,1.006,0.175,0.061,0.244,0.61,121.792
120661,141292,11149,-0.127,1.007,0.172,0.244,0.305,0.671,121.798
120651,141172,9298,-0.125,1.007,0.176,0.244,0.305,0.671,121.802
120651,141275,11168,-0.125,1.007,0.173,0.305,0.61,0.671,121.808
120670,141172,9298,-0.125,1.01,0.17,0.305,0.61,0.671,121.812
120670,141281,11158,-0.127,1.008,0.174,0.915,0.793,0.488,121.818
120647,141172,9298,-0.129,1.013,0.176,0.915,0.793,0.488,121.822
120647,141260,11150,-0.125,1.014,0.174,0.793,0.671,0.244,121.828
120627,141172,9298,-0.127,1.013,0.172,0.793,0.671,0.244,121.832
120627,141246,11159,-0.129,1.011,0.17,0.061,0.61,0.061,121.838
120674,141172,9298,-0.128,1.008,0.166,0.061,0.61,0.061,121.842
120674,141266,11153,-0.127,1.007,0.164,-0.427,0.61,0,121.848
120651,141172,9298,-0.128,1.002,0.168,-0.427,0.61,0,121.852
120651,141288,11150,-0.13,1.003,0.171,-0.549,0.549,0.305,121.858
120672,141172,9298,-0.129,1.008,0.173,-0.549,0.549,0.305,121.862
120672,141259,11159,-0.128,1.009,0.173,-0.61,0.305,0.488,121.868
120687,141172,9298,-0.126,1.007,0.172,-0.61,0.305,0.488,121.871
120687,141269,11157,-0.127,1.008,0.173,0.061,0.183,0.366,121.878
120682,141172,9298,-0.123,1.007,0.173,0.061,0.183,0.366,121.881
120682,141293,11160,-0.122,1.009,0.174,0.61,0.305,0.305,121.888
120684,141172,9298,-0.129,1.013,0.183,0.61,0.305,0.305,121.891
120684,141267,11171,-0.126,1.015,0.182,0.061,0.61,0.183,121.897
120652,141172,9298,-0.127,1.011,0.172,0.061,0.61,0.183,121.901
120652,141272,11161,-0.127,1.006,0.172,-0.122,0.793,0.305,121.907
120668,141172,9298,-0.131,1.005,0.17,-0.122,0.793,0.305,121.911
120668,141272,11161,-0.133,1.008,0.172,-0.122,0.732,0.427,121.917
120664,141172,9298,-0.132,1.012,0.174,-0.122,0.732,0.427,121.921
120664,141262,11171,-0.13,1.013,0.177,-0.122,0.366,0.244,121.927
120687,141172,9298,-0.127,1.011,0.173,-0.122,0.366,0.244,121.931
120687,141251,11144,-0.13,1.009,0.17,-0.427,0.183,0.183,121.937
120681,141172,9298,-0.131,1.006,0.167,-0.427,0.183,0.183,121.941
120681,141287,11189,-0.128,1.005,0.173,-0.854,0.183,0.427,121.947
120679,141172,9298,-0.129,1.008,0.173,-0.854,0.183,0.427,121.951
120679,141262,11160,-0.129,1.005,0.174,-0.427,0.244,0.549,121.957
120665,141172,9298,-0.126,1.008,0.17,-0.427,0.244,0.549,121.961
120665,141268,11152,-0.127,1.01,0.171,-0.061,0.122,0.427,121.967
120645,141172,9298,-0.126,1.013,0.17,-0.061,0.122,0.427,121.97
120645,141224,11166,-0.123,1.012,0.172,0.183,-0.061,0.244,121.977
120654,141172,9298,-0.124,1.011,0.175,0.183,-0.061,0.244,121.98
120654,141272,11164,-0.124,1.009,0.175,0.244,-0.061,0.366,121.986
120672,141172,9298,-0.122,1.007,0.173,0.244,-0.061,0.366,121.99
120672,141259,11180,-0.124,1.007,0.174,-0.549,0.183,0.61,121.996
120693,141172,9298,-0.125,1.007,0.173,-0.549,0.183,0.61,122
120693,141251,11154,-0.127,1.004,0.168,-1.159,0.305,0.488,122.006
120677,141172,9298,-0.13,1.003,0.168,-1.159,0.305,0.488,122.01
120677,141268,11147,-0.132,1.005,0.169,-0.732,0.549,0.183,122.016
120654,141172,9298,-0.132,1.008,0.172,-0.732,0.549,0.183,122.02
120654,141248,11155,-0.131,1.01,0.174,-0.122,0.366,0.244,122.026
120658,141172,9298,-0.13,1.011,0.173,-0.122,0.366,0.244,122.03
120658,141257,11154,-0.129,1.015,0.175,0.183,0.061,0.549,122.036
120677,141172,9298,-0.129,1.016,0.178,0.183,0.061,0.549,122.04
120677,141237,11151,-0.123,1.015,0.175,-0.366,-0.244,0.732,122.046
120668,141172,9298,-0.125,1.012,0.177,-0.366,-0.244,0.732,122.05
120668,141247,11145,-0.122,1.007,0.177,-0.854,-0.366,0.671,122.056
120640,141172,9298,-0.12,1.007,0.178,-0.854,-0.366,0.671,122.06
120640,141242,11153,-0.12,1.007,0.176,-0.976,-0.244,0.549,122.066
120644,141172,9298,-0.122,1.006,0.179,-0.976,-0.244,0.549,122.069
120644,141235,11166,-0.125,1.006,0.177,-0.915,0.244,0.244,122.076
120635,141172,9298,-0.125,1.006,0.177,-0.915,0.244,0.244,122.079
120635,141210,11155,-0.128,1.002,0.175,-0.305,0.549,0.061,122.085
120637,141172,9298,-0.128,1.002,0.175,-0.305,0.549,0.061,122.089
120637,141238,11151,-0.134,1.009,0.176,-0.122,0.61,0.244,122.095
120630,141172,9298,-0.134,1.009,0.176,-0.122,0.61,0.244,122.099
120630,141232,11148,-0.133,1.01,0.179,-0.671,0.427,0.488,122.105
120658,141172,9298,-0.133,1.01,0.179,-0.671,0.427,0.488,122.109
120658,141238,11145,-0.128,1.01,0.175,-0.61,0,0.61,122.115
120650,141172,9298,-0.128,1.01,0.175,-0.61,0,0.61,122.119
120650,141229,11157,-0.122,1.006,0.174,-0.427,-0.061,0.732,122.125
120667,141172,9298,-0.122,1.006,0.174,-0.427,-0.061,0.732,122.129
120667,141239,11133,-0.121,1.01,0.179,-0.366,0.244,0.549,122.135
120644,141172,9298,-0.121,1.01,0.179,-0.366,0.244,0.549,122.139
120644,141216,11161,-0.123,1.004,0.176,-0.183,0.61,0.427,122.145
120641,141172,9298,-0.123,1.004,0.176,-0.183,0.61,0.427,122.149
120641,141254,11132,-0.126,1.003,0.181,0,0.915,0.366,122.155
120636,141172,9298,-0.126,1.003,0.181,0,0.915,0.366,122.158
120636,141252,11155,-0.13,1.006,0.178,0.122,1.098,0.305,122.165
120624,141172,9298,-0.13,1.006,0.178,0.122,1.098,0.305,122.168
120624,141227,11159,-0.131,1.014,0.172,-0.122,1.037,0.366,122.175
120617,141172,9298,-0.131,1.014,0.172,-0.122,1.037,0.366,122.178
120617,141233,11153,-0.13,1.01,0.172,0.061,0.976,0.427,122.184
120648,141172,9298,-0.13,1.01,0.172,0.061,0.976,0.427,122.188
120648,141218,11143,-0.127,1.01,0.177,0.549,0.793,0.366,122.194
120632,141172,9298,-0.127,1.01,0.177,0.549,0.793,0.366,122.198
120632,141224,11152,-0.124,1.012,0.178,0.427,0.732,0.488,122.204
120649,141172,9298,-0.124,1.012,0.178,0.427,0.732,0.488,122.208
120649,141221,11146,-0.12,1.007,0.176,0.061,0.854,0.549,122.214
120630,141172,9298,-0.12,1.007,0.176,0.061,0.854,0.549,122.218
120630,141233,11134,-0.124,1.005,0.176,0.061,0.854,0.549,122.224
120642,141172,9298,-0.125,1.004,0.174,-0.061,1.22,0.488,122.228
120642,141259,11145,-0.125,1.006,0.169,-0.061,1.22,0.488,122.234
120666,141172,9298,-0.127,1.004,0.168,0.366,1.585,0.122,122.238
120666,141248,11145,-0.131,1.005,0.169,0.366,1.585,0.122,122.244
120643,141172,9298,-0.134,1.008,0.17,0.732,1.707,0,122.248
120643,141239,11151,-0.135,1.013,0.166,0.732,1.707,0,122.254
120649,141172,9298,-0.135,1.018,0.168,0.488,1.341,0.122,122.258
120649,141237,11149,-0.134,1.02,0.167,0.488,1.341,0.122,122.264
120664,141172,9298,-0.134,1.018,0.169,0.122,0.61,0.244,122.267
120664,141233,11145,-0.13,1.012,0.169,0.122,0.61,0.244,122.274
120657,141172,9298,-0.127,1.01,0.174,-0.061,0,0.549,122.277
120657,141246,11137,-0.123,1.006,0.173,-0.061,0,0.549,122.283
120670,141172,9298,-0.121,1.003,0.173,-0.427,0,0.793,122.287
120670,141246,11146,-0.122,1,0.175,-0.427,0,0.793,122.293
120668,141172,9298,-0.122,1.002,0.168,-0.732,0.366,0.732,122.297
120668,141231,11150,-0.122,1.004,0.167,-0.732,0.366,0.732,122.303
120653,141172,9298,-0.124,1.008,0.175,-0.244,0.671,0.305,122.307
120653,141243,11143,-0.127,1.008,0.18,-0.244,0.671,0.305,122.313
120650,141172,9298,-0.13,1.011,0.177,0.854,0.671,0.061,122.317
120650,141226,11135,-0.128,1.013,0.176,0.854,0.671,0.061,122.323
120638,141172,9298,-0.126,1.012,0.176,0.671,0.793,0.061,122.327
120638,141225,11148,-0.128,1.017,0.17,0.671,0.793,0.061,122.333
120680,141172,9298,-0.131,1.013,0.17,-0.122,0.793,0.244,122.337
120680,141249,11146,-0.133,1.01,0.169,-0.122,0.793,0.244,122.343
120666,141172,9298,-0.132,1.011,0.169,-0.488,0.732,0.244,122.347
120666,141238,11152,-0.132,1.004,0.173,-0.488,0.732,0.244,122.353
120678,141172,9298,-0.134,1.004,0.176,-0.244,0.61,0.183,122.356
120678,141257,11150,-0.132,1.002,0.177,-0.244,0.61,0.183,122.363
120677,141172,9298,-0.127,1.003,0.172,0.061,0.366,0.427,122.366
120677,141245,11145,-0.127,1.007,0.175,0.061,0.366,0.427,122.373
120671,141172,9298,-0.125,1.01,0.176,0.427,0.305,0.549,122.376
120671,141280,11158,-0.124,1.013,0.174,0.427,0.305,0.549,122.382
120660,141172,9298,-0.123,1.013,0.172,0.732,0.305,0.305,122.386
120660,141257,11156,-0.122,1.014,0.173,0.732,0.305,0.305,122.392
120673,141172,9298,-0.123,1.015,0.178,0.488,0.366,0,122.396
120673,141241,11160,-0.122,1.015,0.176,0.488,0.366,0,122.402
120666,141172,9298,-0.124,1.011,0.174,-0.061,0.854,-0.061,122.406
120666,141245,11159,-0.126,1.007,0.171,-0.061,0.854,-0.061,122.412
120673,141172,9298,-0.131,1.003,0.172,-0.244,1.22,0.122,122.416
120673,141254,11152,-0.129,0.999,0.167,-0.244,1.22,0.122,122.422
120669,141172,9298,-0.13,0.999,0.171,-0.61,1.22,0.305,122.426
120669,141275,11139,-0.134,1.001,0.169,-0.61,1.22,0.305,122.432
120652,141172,9298,-0.134,1.001,0.165,-0.305,0.793,0.244,122.436
120652,141237,11164,-0.132,1.007,0.167,-0.305,0.793,0.244,122.442
120675,141172,9298,-0.132,1.012,0.17,0.244,0.366,0.244,122.446
120675,141260,11156,-0.131,1.016,0.173,0.244,0.366,0.244,122.452
120666,141172,9298,-0.131,1.014,0.174,0.732,0.244,0.366,122.455
120666,141267,11159,-0.129,1.015,0.176,0.732,0.244,0.366,122.462
120662,141172,9298,-0.129,1.011,0.173,0.732,0.366,0.549,122.465
120662,141274,11161,-0.126,1.012,0.169,0.732,0.366,0.549,122.472
120671,141172,9298,-0.123,1.011,0.171,-0.061,0.244,0.61,122.475
120671,141228,11146,-0.121,1.01,0.172,-0.061,0.244,0.61,122.481
120658,141172,9298,-0.123,1.008,0.172,-0.61,0.122,0.366,122.485
120658,141251,11146,-0.123,1.006,0.171,-0.61,0.122,0.366,122.491
120644,141172,9298,-0.124,1.005,0.172,-0.61,0.366,0.244,122.495
120644,141235,11155,-0.127,1.005,0.169,-0.61,0.366,0.244,122.501
120675,141172,9298,-0.128,1.005,0.171,-0.183,0.61,0.366,122.505
120675,141229,11147,-0.128,1.007,0.171,-0.183,0.61,0.366,122.511
120661,141172,9298,-0.133,1.013,0.174,0.122,0.793,0.488,122.515
120661,141240,11153,-0.132,1.014,0.175,0.122,0.793,0.488,122.521
120645,141172,9298,-0.129,1.015,0.177,0.183,0.671,0.244,122.525
120645,141210,11141,-0.131,1.016,0.177,0.183,0.671,0.244,122.531
120661,141172,9298,-0.129,1.01,0.179,0.061,0.61,0.183,122.535
120661,141221,11144,-0.131,1.009,0.174,0.061,0.61,0.183,122.541
120655,141172,9298,-0.131,1.007,0.174,-0.793,0.671,0.427,122.545
120655,141251,11151,-0.131,1.009,0.168,-0.793,0.671,0.427,122.551
120650,141172,9298,-0.131,1.007,0.167,-1.098,0.549,0.488,122.554
120650,141238,11160,-0.13,1.006,0.171,-1.098,0.549,0.488,122.561
120675,141172,9298,-0.129,1.004,0.169,0.488,0.61,0.305,122.564
120675,141239,11144,-0.127,1.006,0.166,0.488,0.61,0.305,122.571
120660,141172,9298,-0.127,1.013,0.168,0.732,0.244,0.061,122.574
120660,141243,11151,-0.127,1.016,0.169,0.732,0.244,0.061,122.58
120670,141172,9298,-0.125,1.015,0.171,0.427,0.305,0.061,122.584
120670,141230,11159,-0.123,1.013,0.168,0.427,0.305,0.061,122.59
120662,141172,9298,-0.125,1.012,0.174,0.244,0.366,0.061,122.594
120662,141222,11153,-0.127,1.009,0.171,0.244,0.366,0.061,122.6
120662,141172,9298,-0.124,1.008,0.17,-0.976,0.244,0.122,122.604
120662,141226,11144,-0.125,1.004,0.166,-0.976,0.244,0.122,122.61
120667,141172,9298,-0.125,1.001,0.173,-0.976,0.305,0.183,122.614
120667,141220,11168,-0.128,1,0.173,-0.976,0.305,0.183,122.62
120652,141172,9298,-0.133,1.004,0.173,-0.305,0.366,0.183,122.624
120652,141218,11154,-0.129,1.005,0.174,-0.305,0.366,0.183,122.63
120671,141172,9298,-0.129,1.009,0.171,-0.061,0.488,0.122,122.634
120671,141239,11162,-0.127,1.012,0.177,-0.061,0.488,0.122,122.64
120653,141172,9298,-0.129,1.016,0.183,0.183,0.427,0.183,122.644
120653,141235,11166,-0.128,1.011,0.181,0.183,0.427,0.183,122.65
120654,141172,9298,-0.125,1.011,0.178,0.183,0.488,0.366,122.653
120654,141217,11162,-0.124,1.008,0.178,0.183,0.488,0.366,122.66
120677,141172,9298,-0.124,1.008,0.178,0.183,0.488,0.366,122.663
120677,141197,11152,-0.125,1.009,0.177,0.061,0.61,0.488,122.67
120660,141172,9298,-0.125,1.009,0.177,0.061,0.61,0.488,122.673
120660,141214,11153,-0.129,1.009,0.171,-0.244,0.793,0.305,122.679
120645,141172,9298,-0.129,1.009,0.171,-0.244,0.793,0.305,122.683
120645,141220,11151,-0.132,1.006,0.171,-0.488,0.976,0.122,122.689
120674,141172,9298,-0.132,1.006,0.171,-0.488,0.976,0.122,122.693
120674,141232,11161,-0.131,1.008,0.17,-0.244,0.854,0.305,122.699
120672,141172,9298,-0.131,1.008,0.17,-0.244,0.854,0.305,122.703
120672,141253,11149,-0.132,1.007,0.173,0.732,0.732,0.488,122.709
120662,141172,9298,-0.132,1.007,0.173,0.732,0.732,0.488,122.713
120662,141226,11160,-0.131,1.015,0.164,0.915,0.488,0.427,122.719
120661,141172,9298,-0.131,1.015,0.164,0.915,0.488,0.427,122.723
120661,141228,11154,-0.126,1.015,0.167,-0.305,0.183,0.305,122.729
120655,141172,9298,-0.126,1.015,0.167,-0.305,0.183,0.305,122.733
120655,141223,11138,-0.128,1.005,0.172,-0.427,0.183,0.183,122.739
120668,141172,9298,-0.128,1.005,0.172,-0.427,0.183,0.183,122.743
120668,141219,11151,-0.127,1.003,0.174,0,0.244,0.305,122.749
120661,141172,9298,-0.127,1.003,0.174,0,0.244,0.305,122.752
120661,141200,11164,-0.127,1.009,0.172,-0.549,0.183,0.61,122.759
120675,141172,9298,-0.127,1.009,0.172,-0.549,0.183,0.61,122.762
120675,141223,11151,-0.125,1.006,0.174,-0.488,0.122,0.427,122.769
120681,141172,9298,-0.125,1.006,0.174,-0.488,0.122,0.427,122.772
120681,141235,11164,-0.126,1.011,0.177,0.122,0.183,0.244,122.778
120677,141172,9298,-0.126,1.011,0.177,0.122,0.183,0.244,122.782
120677,141263,11160,-0.125,1.011,0.177,-0.244,0.244,0.122,122.788
120657,141172,9298,-0.125,1.011,0.177,-0.244,0.244,0.122,122.792
120657,141230,11165,-0.129,1.008,0.18,-0.61,0.305,0.183,122.798
120657,141172,9298,-0.129,1.008,0.18,-0.61,0.305,0.183,122.802
120657,141221,11160,-0.134,1.007,0.176,-0.549,0.61,0.427,122.808
120685,141172,9298,-0.131,1.004,0.174,-0.549,0.61,0.427,122.812
120685,141230,11154,-0.131,1.004,0.175,-0.183,0.671,0.366,122.818
120682,141172,9298,-0.13,1.008,0.172,-0.183,0.671,0.366,122.822
120682,141260,11161,-0.128,1.01,0.174,0.366,0.427,0.183,122.828
120695,141172,9298,-0.126,1.013,0.173,0.366,0.427,0.183,122.832
120695,141254,11181,-0.125,1.009,0.175,0.854,0.427,0.183,122.838
120700,141172,9298,-0.125,1.01,0.173,0.854,0.427,0.183,122.842
120700,141249,11161,-0.125,1.013,0.172,0.549,0.671,0.305,122.848
120683,141172,9298,-0.126,1.011,0.172,0.549,0.671,0.305,122.851
120683,141256,11149,-0.128,1.008,0.169,0.427,0.915,0.305,122.858
120674,141172,9298,-0.127,1.005,0.17,0.427,0.915,0.305,122.861
120674,141211,11156,-0.13,1.006,0.165,0,0.976,0.122,122.868
120677,141172,9298,-0.13,1.006,0.169,0,0.976,0.122,122.871
120677,141237,11147,-0.129,1.004,0.171,-0.244,1.037,0.183,122.877
120678,141172,9298,-0.132,1.004,0.17,-0.244,1.037,0.183,122.881
120678,141234,11141,-0.132,1.006,0.169,0.671,0.915,0.244,122.887
120681,141172,9298,-0.132,1.008,0.168,0.671,0.915,0.244,122.891
120681,141254,11163,-0.13,1.011,0.167,0.427,0.793,0.244,122.897
120678,141172,9298,-0.132,1.015,0.165,0.427,0.793,0.244,122.901
120678,141245,11154,-0.13,1.013,0.171,0.122,0.549,0.244,122.907
120678,141172,9298,-0.127,1.011,0.172,0.122,0.549,0.244,122.911
120678,141213,11143,-0.126,1.013,0.17,0.244,0.305,0.427,122.917
120673,141172,9298,-0.126,1.011,0.172,0.244,0.305,0.427,122.921
120673,141255,11147,-0.125,1.012,0.173,-0.366,0.305,0.427,122.927
120651,141172,9298,-0.124,1.01,0.167,-0.366,0.305,0.427,122.931
120651,141248,11147,-0.125,1.004,0.168,-0.671,0.549,0.427,122.937
120663,141172,9298,-0.128,1.005,0.172,-0.671,0.549,0.427,122.941
120663,141242,11156,-0.128,1.005,0.17,-0.122,0.915,0.366,122.947
120688,141172,9298,-0.131,1.005,0.173,-0.122,0.915,0.366,122.95
120688,141238,11141,-0.134,1.006,0.173,0.061,0.915,0.183,122.957
120689,141172,9298,-0.13,1.007,0.171,0.061,0.915,0.183,122.96
120689,141245,11154,-0.132,1.01,0.17,0.244,0.671,0.183,122.967
120673,141172,9298,-0.135,1.011,0.168,0.244,0.671,0.183,122.97
120673,141253,11154,-0.137,1.01,0.169,0.488,0.427,0.244,122.976
120689,141172,9298,-0.13,1.013,0.167,0.488,0.427,0.244,122.98
120689,141238,11148,-0.13,1.016,0.169,-0.061,0.427,0.183,122.986
120658,141172,9298,-0.13,1.016,0.173,-0.061,0.427,0.183,122.99
120658,141265,11146,-0.128,1.014,0.174,-0.671,0.183,0.183,122.996
120687,141172,9298,-0.125,1.008,0.167,-0.671,0.183,0.183,123
120687,141251,11136,-0.127,1.006,0.165,-0.549,0,0.427,123.006
120692,141172,9298,-0.126,1.004,0.165,-0.549,0,0.427,123.01
120692,141242,11144,-0.127,1.004,0.165,-1.037,0,0.427,123.016
120689,141172,9298,-0.13,1.009,0.172,-1.037,0,0.427,123.02
120689,141247,11148,-0.129,1.01,0.168,-0.915,0.305,0.366,123.026
120679,141172,9298,-0.129,1.005,0.169,-0.915,0.305,0.366,123.03
120679,141216,11150,-0.13,1.009,0.171,0.305,0.488,0.305,123.036
120688,141172,9298,-0.129,1.011,0.166,0.305,0.488,0.305,123.04
120688,141236,11147,-0.13,1.014,0.165,0,0.305,0.244,123.046
120683,141172,9298,-0.13,1.018,0.168,0,0.305,0.244,123.049
120683,141243,11140,-0.127,1.017,0.168,-0.854,-0.244,0.122,123.056
120685,141172,9298,-0.125,1.016,0.166,-0.854,-0.244,0.122,123.059
120685,141227,11139,-0.125,1.01,0.171,-1.159,-0.549,0.122,123.066
120672,141172,9298,-0.127,1.006,0.171,-1.159,-0.549,0.122,123.069
120672,141259,11157,-0.128,1.005,0.17,-1.28,-0.427,0.122,123.075
120682,141172,9298,-0.129,1.006,0.174,-1.28,-0.427,0.122,123.079
120682,141238,11135,-0.13,1.007,0.176,-0.793,-0.183,0.183,123.085
120699,141172,9298,-0.129,1.004,0.175,-0.793,-0.183,0.183,123.089
120699,141257,11146,-0.132,1.005,0.173,-0.366,-0.061,0.305,123.095
120683,141172,9298,-0.13,1.007,0.177,-0.366,-0.061,0.305,123.099
120683,141244,11151,-0.13,1.009,0.171,-0.976,-0.061,0.366,123.105
120691,141172,9298,-0.13,1.011,0.176,-0.976,-0.061,0.366,123.109
120691,141256,11145,-0.133,1.013,0.178,-1.22,-0.183,0.366,123.115
120694,141172,9298,-0.13,1.007,0.179,-1.22,-0.183,0.366,123.119
120694,141249,11146,-0.127,1.002,0.182,-0.366,-0.244,0.427,123.125
120685,141172,9298,-0.126,1.007,0.178,-0.366,-0.244,0.427,123.129
120685,141264,11140,-0.123,1.008,0.174,-0.244,0.061,0.671,123.135
120690,141172,9298,-0.125,1.008,0.178,-0.244,0.061,0.671,123.139
120690,141250,11166,-0.126,1.013,0.18,0.244,0.366,0.427,123.145
120686,141172,9298,-0.126,1.01,0.177,0.244,0.366,0.427,123.148
120686,141253,11165,-0.127,1.007,0.174,0.61,0.549,0.122,123.155
120695,141172,9298,-0.128,1.006,0.17,0.61,0.549,0.122,123.158
120695,141260,11156,-0.127,1.009,0.173,0.305,0.793,0.061,123.165
120689,141172,9298,-0.128,1.008,0.174,0.305,0.793,0.061,123.168
120689,141237,11171,-0.13,1.01,0.175,0.61,1.037,0.122,123.174
120708,141172,9298,-0.134,1.012,0.174,0.61,1.037,0.122,123.178
120708,141225,11138,-0.132,1.013,0.172,0.854,0.854,0.061,123.184
120693,141172,9298,-0.131,1.013,0.17,0.854,0.854,0.061,123.188
120693,141250,11137,-0.131,1.013,0.163,-0.122,0.427,0,123.194
120673,141172,9298,-0.13,1.012,0.163,-0.122,0.427,0,123.198
120673,141236,11158,-0.126,1.009,0.163,-0.61,0.366,0.061,123.204
120696,141172,9298,-0.126,1.008,0.171,-0.61,0.366,0.061,123.208
120696,141240,11149,-0.126,1.006,0.172,-0.183,0.244,0.244,123.214
120671,141172,9298,-0.127,1.006,0.169,-0.183,0.244,0.244,123.218
120671,141244,11149,-0.128,1.006,0.169,-0.61,0.305,0.305,123.224
120686,141172,9298,-0.131,1.008,0.167,-0.61,0.305,0.305,123.228
120686,141218,11158,-0.132,1.007,0.166,-0.366,0.549,0.061,123.234
120662,141172,9298,-0.132,1.009,0.172,-0.366,0.549,0.061,123.238
120662,141267,11147,-0.133,1.01,0.172,0.427,0.488,0.122,123.244
120682,141172,9298,-0.133,1.01,0.172,0.427,0.488,0.122,123.247
120682,141233,11139,-0.131,1.012,0.169,0.183,0,0.305,123.254
120674,141172,9298,-0.131,1.012,0.169,0.183,0,0.305,123.257
120674,141220,11155,-0.128,1.014,0.174,-0.183,-0.061,0.366,123.264
120688,141172,9298,-0.128,1.014,0.174,-0.183,-0.061,0.366,123.267
120688,141227,11143,-0.127,1.006,0.177,-0.305,0.305,0.244,123.273
120674,141172,9298,-0.127,1.006,0.177,-0.305,0.305,0.244,123.277
120674,141235,11148,-0.128,1.005,0.178,-0.732,0.488,0.427,123.283
120700,141172,9298,-0.128,1.005,0.178,-0.732,0.488,0.427,123.287
120700,141230,11158,-0.128,1.006,0.175,-0.854,0.549,0.488,123.293
120714,141172,9298,-0.128,1.006,0.175,-0.854,0.549,0.488,123.297
120714,141237,11165,-0.128,1.006,0.175,-0.061,0.549,0.305,123.303
120699,141172,9298,-0.128,1.006,0.175,-0.061,0.549,0.305,123.307
120699,141249,11151,-0.132,1.011,0.172,0.549,0.488,0.244,123.313
120711,141172,9298,-0.132,1.011,0.172,0.549,0.488,0.244,123.317
120711,141261,11143,-0.133,1.015,0.173,0.488,0.549,0.244,123.323
120685,141172,9298,-0.133,1.015,0.173,0.488,0.549,0.244,123.327
120685,141249,11156,-0.132,1.014,0.168,0.244,0.549,0.122,123.333
120732,141172,9298,-0.132,1.014,0.168,0.244,0.549,0.122,123.337
120732,141249,11162,-0.134,1.009,0.169,0.305,0.366,0.122,123.343
120704,141172,9298,-0.134,1.009,0.169,0.305,0.366,0.122,123.346
120704,141253,11147,-0.13,1.013,0.168,-0.366,0.122,0.183,123.353
120697,141172,9298,-0.13,1.013,0.168,-0.366,0.122,0.183,123.356
120697,141233,11150,-0.13,1.005,0.166,-0.671,0,0.305,123.363
120712,141172,9298,-0.13,1.005,0.166,-0.671,0,0.305,123.366
120712,141265,11144,-0.129,1.005,0.169,-0.244,-0.122,0.427,123.372
120740,141172,9298,-0.129,1.005,0.169,-0.244,-0.122,0.427,123.376
120740,141265,11157,-0.127,1.009,0.168,-0.183,-0.061,0.366,123.382
120723,141172,9298,-0.127,1.009,0.168,-0.183,-0.061,0.366,123.386
120723,141273,11162,-0.125,1.01,0.174,-0.183,-0.061,0.366,123.392
120703,141172,9298,-0.127,1.01,0.176,-0.305,-0.122,0.122,123.396
120703,141253,11160,-0.127,1.01,0.182,-0.305,-0.122,0.122,123.402
120717,141172,9298,-0.122,1.013,0.179,-0.427,0,0.122,123.406
120717,141278,11158,-0.124,1.006,0.175,-0.427,0,0.122,123.412
120724,141172,9298,-0.125,1.004,0.178,-0.671,0.366,0.366,123.416
120724,141261,11163,-0.128,1.006,0.18,-0.671,0.366,0.366,123.422
120719,141172,9298,-0.13,1.005,0.174,-0.671,0.793,0.305,123.426
120719,141272,11157,-0.128,1.003,0.172,-0.671,0.793,0.305,123.432
120722,141172,9298,-0.129,1.004,0.174,0.122,0.976,0.061,123.436
120722,141260,11172,-0.133,1.008,0.174,0.122,0.976,0.061,123.442
120745,141172,9298,-0.137,1.011,0.18,0.244,0.915,0.183,123.445
120745,141264,11166,-0.135,1.014,0.182,0.244,0.915,0.183,123.452
120724,141172,9298,-0.132,1.01,0.177,0,0.488,0.244,123.455
120724,141269,11153,-0.13,1.009,0.173,0,0.488,0.244,123.462
120744,141172,9298,-0.129,1.009,0.172,0.305,0.427,0.305,123.465
120744,141275,11171,-0.128,1.008,0.174,0.305,0.427,0.305,123.471
120721,141172,9298,-0.128,1.01,0.174,-0.183,0.488,0.366,123.475
120721,141287,11152,-0.127,1.011,0.17,-0.183,0.488,0.366,123.481
120729,141172,9298,-0.126,1.005,0.171,-0.183,0.549,0.244,123.485
120729,141274,11164,-0.125,1.004,0.168,-0.183,0.549,0.244,123.491
120740,141172,9298,-0.125,1.004,0.168,0.366,0.671,0.244,123.495
120740,141273,11156,-0.124,1.006,0.166,0.366,0.671,0.244,123.501
120733,141172,9298,-0.128,1.009,0.161,0.671,0.793,0.183,123.505
120733,141284,11162,-0.132,1.011,0.168,0.671,0.793,0.183,123.511
120756,141172,9298,-0.129,1.01,0.166,0.915,1.098,0.061,123.515
120756,141281,11165,-0.135,1.013,0.169,0.915,1.098,0.061,123.521
120741,141172,9298,-0.138,1.013,0.169,0.305,1.098,0.122,123.525
120741,141260,11157,-0.139,1.009,0.168,0.305,1.098,0.122,123.531
120728,141172,9298,-0.133,1.01,0.167,-0.61,0.488,0.427,123.535
120728,141281,11154,-0.135,1.008,0.166,-0.61,0.488,0.427,123.541
120744,141172,9298,-0.136,1.007,0.173,-0.915,-0.183,0.61,123.544
120744,141304,11160,-0.13,1.008,0.174,-0.915,-0.183,0.61,123.551
120737,141172,9298,-0.127,1.005,0.175,-1.037,-0.549,0.732,123.554
120737,141275,11154,-0.124,1.006,0.176,-1.037,-0.549,0.732,123.561
120733,141172,9298,-0.127,1.008,0.177,-0.671,-0.366,0.671,123.564
120733,141290,11162,-0.124,1.007,0.179,-0.671,-0.366,0.671,123.57
120740,141172,9298,-0.124,1.007,0.178,-0.061,0.183,0.427,123.574
120740,141287,11172,-0.13,1.01,0.171,-0.061,0.183,0.427,123.58
120770,141172,9298,-0.131,1.01,0.174,0.122,0.732,0.244,123.584
120770,141284,11174,-0.131,1.01,0.173,0.122,0.732,0.244,123.59
120748,141172,9298,-0.132,1.013,0.171,0.61,0.976,0.366,123.594
120748,141268,11172,-0.137,1.013,0.173,0.61,0.976,0.366,123.6
120770,141172,9298,-0.136,1.012,0.175,0.671,0.793,0.366,123.604
120770,141296,11186,-0.133,1.008,0.174,0.671,0.793,0.366,123.61
120771,141172,9298,-0.134,1.01,0.172,-0.122,0.122,0.366,123.614
120771,141293,11164,-0.128,1.012,0.174,-0.122,0.122,0.366,123.62
120763,141172,9298,-0.129,1.007,0.169,-0.976,0,0.427,123.624
120763,141294,11168,-0.13,1.003,0.173,-0.976,0,0.427,123.63
120762,141172,9298,-0.127,1.002,0.173,-0.305,0.244,0.366,123.634
120762,141281,11157,-0.127,1,0.168,-0.305,0.244,0.366,123.64
120776,141172,9298,-0.123,1.003,0.166,0.366,0.366,0.549,123.643
120776,141306,11155,-0.125,1.008,0.168,0.366,0.366,0.549,123.65
120771,141172,9298,-0.128,1.009,0.167,0.244,0.488,0.427,123.653
120771,141308,11172,-0.126,1.013,0.171,0.244,0.488,0.427,123.66
120775,141172,9298,-0.128,1.013,0.174,0.671,0.61,0.183,123.663
120775,141288,11159,-0.13,1.01,0.176,0.671,0.61,0.183,123.669
120774,141172,9298,-0.13,1.01,0.172,0.305,0.549,0.366,123.673
120774,141308,11159,-0.131,1.01,0.17,0.305,0.549,0.366,123.679
120743,141172,9298,-0.132,1.01,0.169,-1.098,0.61,0.488,123.683
120743,141278,11157,-0.134,1.01,0.172,-1.098,0.61,0.488,123.689
120762,141172,9298,-0.13,1.005,0.167,-1.159,0.549,0.366,123.693
120762,141304,11164,-0.133,1.006,0.165,-1.159,0.549,0.366,123.699
120769,141172,9298,-0.129,1.005,0.165,-0.122,0.122,0.488,123.703
120769,141277,11153,-0.126,1.008,0.17,-0.122,0.122,0.488,123.709
120764,141172,9298,-0.13,1.013,0.173,0.061,0,0.549,123.713
120764,141272,11170,-0.128,1.018,0.175,0.061,0,0.549,123.719
120753,141172,9298,-0.126,1.017,0.176,-0.244,-0.183,0.305,123.723
120753,141272,11159,-0.125,1.011,0.176,-0.244,-0.183,0.305,123.729
120739,141172,9298,-0.123,1.006,0.176,-0.122,-0.061,0.183,123.733
120739,141282,11149,-0.124,1.002,0.176,-0.122,-0.061,0.183,123.739
120742,141172,9298,-0.126,1,0.175,-0.061,0.549,0.244,123.742
120742,141288,11159,-0.131,1,0.174,-0.061,0.549,0.244,123.749
120744,141172,9298,-0.135,1.003,0.171,-0.244,1.159,0.122,123.752
120744,141281,11160,-0.135,1.008,0.173,-0.244,1.159,0.122,123.758
120755,141172,9298,-0.137,1.009,0.174,0.183,1.098,0,123.762
120755,141294,11151,-0.134,1.007,0.169,0.183,1.098,0,123.768
120762,141172,9298,-0.132,1.009,0.169,0.488,0.488,0.244,123.772
120762,141308,11157,-0.13,1.012,0.168,0.488,0.488,0.244,123.778
120767,141172,9298,-0.131,1.009,0.173,0.366,0.122,0.488,123.782
120767,141293,11152,-0.125,1.009,0.172,0.366,0.122,0.488,123.788
120748,141172,9298,-0.125,1.009,0.174,-0.244,0.305,0.549,123.792
120748,141273,11149,-0.13,1.004,0.168,-0.244,0.305,0.549,123.798
120780,141172,9298,-0.131,1.004,0.166,-0.854,0.671,0.671,123.802
120780,141297,11154,-0.128,1.002,0.17,-0.854,0.671,0.671,123.808
120774,141428,9298,-0.132,1.004,0.17,-0.61,0.732,0.671,123.812
120774,141314,11167,-0.133,1.006,0.167,-0.61,0.732,0.671,123.818
120817,141428,9298,-0.131,1.006,0.17,0.061,0.549,0.61,123.822
120817,141333,11159,-0.129,1.008,0.166,0.061,0.549,0.61,123.828
120813,141428,9298,-0.129,1.008,0.166,0.061,0.549,0.61,123.832
120813,141338,11154,-0.129,1.016,0.166,0.671,0.244,0.366,123.838
120803,141428,9298,-0.129,1.016,0.166,0.671,0.244,0.366,123.841
120803,141339,11180,-0.129,1.019,0.171,0.366,0.244,0.305,123.848
120828,141428,9298,-0.129,1.019,0.171,0.366,0.244,0.305,123.851
120828,141326,11168,-0.126,1.007,0.173,-0.305,0.183,0.305,123.857
120810,141428,9298,-0.126,1.007,0.173,-0.305,0.183,0.305,123.861
120810,141363,11169,-0.13,1.002,0.172,-0.976,0.183,0.427,123.867
120818,141428,9298,-0.13,1.002,0.172,-0.976,0.183,0.427,123.871
120818,141353,11157,-0.13,1.002,0.175,-1.341,0.305,0.488,123.877
120852,141428,9298,-0.13,1.002,0.175,-1.341,0.305,0.488,123.881
120852,141345,11177,-0.131,1.007,0.173,-0.427,0.244,0.366,123.887
120805,141428,9298,-0.131,1.007,0.173,-0.427,0.244,0.366,123.891
120805,141333,11177,-0.129,1.011,0.176,0.488,0.183,0.183,123.897
120830,141428,9298,-0.129,1.011,0.176,0.488,0.183,0.183,123.901
120830,141342,11160,-0.126,1.012,0.173,0.488,0.061,0.305,123.907
120809,141428,9298,-0.126,1.012,0.173,0.488,0.061,0.305,123.911
120809,141321,11162,-0.127,1.004,0.175,0.244,0.183,0.61,123.917
120825,141428,9298,-0.127,1.004,0.175,0.244,0.183,0.61,123.921
120825,141348,11140,-0.127,1.004,0.171,-0.122,0.305,0.549,123.927
120814,141428,9298,-0.127,1.004,0.171,-0.122,0.305,0.549,123.931
120814,141334,11158,-0.133,1.006,0.172,-0.488,0.488,0.305,123.937
120814,141428,9298,-0.133,1.006,0.172,-0.488,0.488,0.305,123.94
120814,141331,11153,-0.131,1.009,0.172,0.061,0.732,0.305,123.947
120796,141428,9298,-0.131,1.009,0.172,0.061,0.732,0.305,123.95
120796,141327,11153,-0.132,1.01,0.163,0.183,0.488,0.732,123.957
120805,141172,9298,-0.132,1.01,0.163,0.183,0.488,0.732,123.96
120805,141302,11160,-0.13,1.016,0.173,-0.061,0.183,0.793,123.966
120805,141172,9298,-0.13,1.016,0.173,-0.061,0.183,0.793,123.97
120805,141296,11169,-0.127,1.014,0.178,0.122,0.061,0.549,123.976
120794,141428,9298,-0.124,1.012,0.174,0.122,0.061,0.549,123.98
120794,141339,11167,-0.122,1.012,0.17,-0.122,0.244,0.488,123.986
120806,141428,9298,-0.125,1.014,0.168,-0.122,0.244,0.488,123.99
120806,141327,11168,-0.127,1.014,0.168,-0.366,0.671,0.549,123.996
120781,141172,9298,-0.13,1.015,0.172,-0.366,0.671,0.549,124
120781,141303,11149,-0.128,1.011,0.17,-0.549,0.671,0.183,124.006
120780,141428,9298,-0.13,1.011,0.169,-0.549,0.671,0.183,124.01
120780,141316,11170,-0.132,1.006,0.165,-0.488,0.549,-0.061,124.016
120801,141428,9298,-0.135,1.005,0.172,-0.488,0.549,-0.061,124.02
120801,141322,11146,-0.131,1.008,0.177,0.061,0.427,0,124.026
120791,141428,9298,-0.129,1.011,0.174,0.061,0.427,0,124.03
120791,141323,11161,-0.13,1.009,0.172,0.061,0.122,0.061,124.036
120783,141172,9298,-0.128,1.009,0.172,0.061,0.122,0.061,124.039
120783,141290,11162,-0.128,1.01,0.171,-0.305,0,0,124.046
120773,141172,9298,-0.126,1.005,0.172,-0.305,0,0,124.049
120773,141281,11155,-0.127,1.003,0.173,-0.366,-0.122,0.244,124.055
120750,141172,9298,-0.124,1,0.17,-0.366,-0.122,0.244,124.059
120750,141285,11158,-0.128,1.001,0.176,-0.732,0.061,0.488,124.065
