120825,141402,11255,-0.129,1.016,0.138,0.671,0.732,0.183,81.933
120819,141428,9298,-0.131,1.013,0.138,0.671,0.732,0.183,81.937
120819,141397,11246,-0.13,1.008,0.135,0.061,0.915,0.366,81.943
120807,141428,9298,-0.134,1.009,0.133,0.061,0.915,0.366,81.947
120807,141406,11263,-0.136,1.007,0.134,-0.488,0.61,0.549,81.953
120811,141428,9298,-0.134,1.005,0.137,-0.488,0.61,0.549,81.956
120811,141393,11258,-0.134,1.008,0.139,0.183,0.244,0.488,81.963
120808,141428,9298,-0.133,1.012,0.135,0.183,0.244,0.488,81.966
120808,141382,11262,-0.13,1.018,0.135,1.098,0.244,0.305,81.973
120797,141428,9298,-0.129,1.023,0.138,1.098,0.244,0.305,81.976
120797,141380,11260,-0.13,1.021,0.135,0.671,0.183,0.244,81.982
120799,141428,9298,-0.128,1.021,0.132,0.671,0.183,0.244,81.986
120799,141405,11256,-0.13,1.02,0.133,-0.305,0.244,0.427,81.992
120810,141428,9298,-0.13,1.016,0.134,-0.305,0.244,0.427,81.996
120810,141403,11256,-0.131,1.011,0.136,-0.915,0.61,0.427,82.002
120812,141428,9298,-0.133,1.011,0.14,-0.915,0.61,0.427,82.006
120812,141403,11251,-0.131,1.008,0.139,-0.793,0.671,0.244,82.012
120825,141428,9298,-0.129,1.007,0.141,-0.793,0.671,0.244,82.016
120825,141411,11250,-0.131,1.007,0.139,-0.244,0.61,0.305,82.022
120800,141428,9298,-0.133,1.012,0.143,-0.244,0.61,0.305,82.026
120800,141406,11248,-0.133,1.013,0.141,0.183,0.732,0.122,82.032
120805,141428,9298,-0.129,1.017,0.135,0.183,0.732,0.122,82.036
120805,141384,11238,-0.132,1.018,0.134,0.244,0.915,0,82.042
120790,141428,9298,-0.134,1.018,0.134,0.244,0.915,0,82.046
120790,141384,11257,-0.134,1.016,0.136,0.671,0.976,0.183,82.052
120783,141428,9298,-0.133,1.013,0.14,0.671,0.976,0.183,82.055
120783,141384,11242,-0.132,1.011,0.136,0.366,0.61,0.427,82.062
120804,141428,9298,-0.133,1.013,0.136,0.366,0.61,0.427,82.065
120804,141376,11265,-0.132,1.013,0.138,-0.793,0.305,0.549,82.072
120797,141428,9298,-0.128,1.01,0.134,-0.793,0.305,0.549,82.075
120797,141370,11247,-0.128,1.009,0.133,-0.427,0.366,0.366,82.081
120792,141428,9298,-0.127,1.009,0.129,-0.427,0.366,0.366,82.085
120792,141384,11250,-0.129,1.012,0.133,0.305,0.61,0.183,82.091
120765,141428,9298,-0.128,1.015,0.133,0.305,0.61,0.183,82.095
120765,141382,11254,-0.13,1.015,0.133,0.183,0.549,0.061,82.101
120779,141428,9298,-0.129,1.016,0.136,0.183,0.549,0.061,82.105
120779,141390,11240,-0.13,1.017,0.14,0.244,0.488,0.061,82.111
120785,141428,9298,-0.133,1.016,0.14,0.244,0.488,0.061,82.115
120785,141370,11255,-0.129,1.014,0.138,-0.183,0.549,0.122,82.121
120788,141428,9298,-0.13,1.012,0.139,-0.183,0.549,0.122,82.125
120788,141400,11254,-0.135,1.01,0.134,-0.671,0.854,0.305,82.131
120778,141428,9298,-0.138,1.01,0.132,-0.671,0.854,0.305,82.135
120778,141374,11252,-0.136,1.012,0.131,-1.159,0.976,0.427,82.141
120781,141428,9298,-0.136,1.018,0.132,-1.159,0.976,0.427,82.145
120781,141377,11241,-0.137,1.013,0.139,0.061,0.793,0.427,82.151
120798,141428,9298,-0.136,1.012,0.136,0.061,0.793,0.427,82.154
120798,141394,11270,-0.13,1.015,0.136,1.22,0.427,0.244,82.161
120813,141428,9298,-0.13,1.017,0.137,1.22,0.427,0.244,82.164
120813,141368,11252,-0.129,1.019,0.137,0.244,0.244,0.244,82.171
120809,141428,9298,-0.129,1.018,0.139,0.244,0.244,0.244,82.174
120809,141393,11242,-0.131,1.013,0.131,-0.122,0.427,0.366,82.18
120793,141428,9298,-0.13,1.013,0.125,-0.122,0.427,0.366,82.184
120793,141394,11266,-0.131,1.015,0.131,-0.366,0.549,0.305,82.19
120810,141428,9298,-0.134,1.015,0.136,-0.366,0.549,0.305,82.194
120810,141383,11258,-0.133,1.015,0.137,-0.671,0.244,0.061,82.2
120796,141428,9298,-0.133,1.01,0.138,-0.671,0.244,0.061,82.204
120796,141397,11264,-0.133,1.009,0.136,0.244,0.183,0.122,82.21
120822,141428,9298,-0.131,1.01,0.14,0.244,0.183,0.122,82.214
120822,141404,11271,-0.132,1.014,0.14,0.244,0.183,0.427,82.22
120823,141428,9298,-0.131,1.018,0.136,0.244,0.183,0.427,82.224
120823,141428,11254,-0.133,1.011,0.13,-0.183,0.427,0.61,82.23
120792,141428,9298,-0.132,1.008,0.13,-0.183,0.427,0.61,82.234
120792,141390,11252,-0.132,1.009,0.136,-0.61,0.61,0.549,82.24
120794,141428,9298,-0.135,1.011,0.138,-0.61,0.61,0.549,82.244
120794,141376,11258,-0.134,1.012,0.141,-0.61,0.366,0.488,82.25
120799,141428,9298,-0.131,1.011,0.141,-0.61,0.366,0.488,82.253
120799,141376,11256,-0.131,1.015,0.137,-0.061,-0.061,0.488,82.26
120782,141428,9298,-0.129,1.016,0.141,-0.061,-0.061,0.488,82.263
120782,141370,11246,-0.128,1.018,0.141,0.244,0,0.366,82.27
120806,141428,9298,-0.128,1.017,0.134,0.244,0,0.366,82.273
120806,141380,11276,-0.13,1.017,0.131,-0.366,0.366,0.244,82.279
120807,141428,9298,-0.13,1.015,0.127,-0.366,0.366,0.244,82.283
120807,141405,11246,-0.131,1.015,0.133,-0.244,0.61,0.427,82.289
120782,141428,9298,-0.131,1.015,0.133,-0.244,0.61,0.427,82.293
120782,141399,11264,-0.136,1.011,0.135,0.305,0.366,0.427,82.299
120800,141428,9298,-0.136,1.011,0.135,0.305,0.366,0.427,82.303
120800,141404,11263,-0.133,1.012,0.137,-0.122,0.122,0.61,82.309
120822,141428,9298,-0.133,1.012,0.137,-0.122,0.122,0.61,82.313
120822,141403,11253,-0.13,1.015,0.14,-0.671,0,0.549,82.319
120799,141428,9298,-0.13,1.015,0.14,-0.671,0,0.549,82.323
120799,141403,11248,-0.127,1.014,0.137,-0.793,0.122,0.427,82.329
120799,141428,9298,-0.127,1.014,0.137,-0.793,0.122,0.427,82.333
120799,141381,11245,-0.129,1.009,0.141,-0.244,0.305,0.427,82.339
120789,141428,9298,-0.129,1.009,0.141,-0.244,0.305,0.427,82.343
120789,141385,11273,-0.132,1.012,0.136,0.122,0.671,0.427,82.349
120815,141428,9298,-0.132,1.012,0.136,0.122,0.671,0.427,82.352
120815,141391,11264,-0.132,1.012,0.136,0.61,0.732,0.427,82.359
120812,141428,9298,-0.132,1.012,0.136,0.61,0.732,0.427,82.362
120812,141387,11244,-0.131,1.012,0.132,0.427,0.671,0.549,82.369
120796,141428,9298,-0.131,1.012,0.132,0.427,0.671,0.549,82.372
120796,141382,11253,-0.13,1.016,0.132,0.183,0.366,0.671,82.378
120830,141428,9298,-0.13,1.016,0.132,0.183,0.366,0.671,82.382
120830,141374,11261,-0.134,1.014,0.137,0.61,0.305,0.488,82.388
120817,141428,9298,-0.134,1.014,0.137,0.61,0.305,0.488,82.392
120817,141377,11245,-0.133,1.017,0.138,0.732,0.61,0.305,82.398
120815,141428,9298,-0.133,1.017,0.138,0.732,0.61,0.305,82.402
120815,141397,11254,-0.131,1.018,0.132,0.305,0.61,0.305,82.408
120818,141428,9298,-0.131,1.018,0.132,0.305,0.61,0.305,82.412
120818,141399,11262,-0.129,1.014,0.133,-0.183,0.549,0.305,82.418
120827,141428,9298,-0.129,1.014,0.133,-0.183,0.549,0.305,82.422
120827,141402,11248,-0.129,1.011,0.135,-0.366,0.366,0.305,82.428
120814,141428,9298,-0.129,1.011,0.135,-0.366,0.366,0.305,82.432
120814,141361,11258,-0.129,1.012,0.142,-0.366,0.366,0.305,82.438
120816,141428,9298,-0.128,1.012,0.141,-0.427,0.427,0.305,82.442
120816,141389,11235,-0.129,1.017,0.14,-0.427,0.427,0.305,82.448
120790,141428,9298,-0.131,1.018,0.142,0.183,0.915,0.305,82.451
120790,141387,11255,-0.13,1.018,0.136,0.183,0.915,0.305,82.458
120831,141428,9298,-0.132,1.015,0.134,0.549,0.976,0.183,82.461
120831,141383,11256,-0.134,1.015,0.135,0.549,0.976,0.183,82.468
120788,141428,9298,-0.134,1.016,0.139,-0.244,0.671,0.183,82.471
120788,141387,11255,-0.131,1.016,0.138,-0.244,0.671,0.183,82.477
120787,141428,9298,-0.13,1.008,0.131,-0.427,0.427,0.183,82.481
120787,141392,11251,-0.129,1.01,0.128,-0.427,0.427,0.183,82.487
120785,141428,9298,-0.131,1.009,0.128,0.183,0.549,0.244,82.491
120785,141400,11250,-0.129,1.012,0.13,0.183,0.549,0.244,82.497
120805,141428,9298,-0.129,1.016,0.131,0.183,0.488,0.366,82.501
120805,141384,11249,-0.13,1.015,0.136,0.183,0.488,0.366,82.507
120828,141428,9298,-0.131,1.014,0.137,0.732,0.549,0.305,82.511
120828,141394,11250,-0.135,1.013,0.137,0.732,0.549,0.305,82.517
120796,141428,9298,-0.133,1.013,0.137,0.305,0.732,0.305,82.521
120796,141395,11258,-0.133,1.014,0.135,0.305,0.732,0.305,82.527
120817,141428,9298,-0.137,1.018,0.133,-0.427,0.915,0.427,82.531
120817,141392,11254,-0.135,1.017,0.129,-0.427,0.915,0.427,82.537
120836,141428,9298,-0.132,1.017,0.131,-0.549,0.793,0.305,82.541
120836,141375,11248,-0.135,1.018,0.129,-0.549,0.793,0.305,82.547
120801,141428,9298,-0.136,1.014,0.132,-0.793,0.366,0.122,82.55
120801,141377,11258,-0.13,1.01,0.139,-0.793,0.366,0.122,82.557
120825,141428,9298,-0.132,1.013,0.144,-0.244,0,0.488,82.56
120825,141384,11247,-0.131,1.011,0.144,-0.244,0,0.488,82.567
120809,141428,9298,-0.127,1.011,0.141,-0.305,0.122,0.549,82.57
120809,141392,11248,-0.125,1.016,0.135,-0.305,0.122,0.549,82.576
120814,141428,9298,-0.128,1.014,0.133,-0.488,0.366,0.244,82.58
120814,141363,11261,-0.128,1.012,0.133,-0.488,0.366,0.244,82.586
120814,141428,9298,-0.132,1.013,0.131,0,0.732,0.061,82.59
120814,141379,11249,-0.133,1.014,0.13,0,0.732,0.061,82.596
120799,141428,9298,-0.131,1.015,0.128,-0.366,0.793,0.061,82.6
120799,141385,11235,-0.137,1.016,0.133,-0.366,0.793,0.061,82.606
120799,141428,9298,-0.133,1.015,0.133,-0.976,0.366,0.244,82.61
120799,141375,11263,-0.134,1.015,0.13,-0.976,0.366,0.244,82.616
120800,141428,9298,-0.131,1.011,0.135,-0.793,-0.122,0.427,82.62
120800,141380,11259,-0.126,1.009,0.133,-0.793,-0.122,0.427,82.626
120794,141428,9298,-0.128,1.008,0.134,-0.61,-0.305,0.549,82.63
120794,141369,11241,-0.127,1.007,0.136,-0.61,-0.305,0.549,82.636
120768,141428,9298,-0.126,1.011,0.136,-0.244,0.122,0.488,82.64
120768,141373,11238,-0.129,1.017,0.139,-0.244,0.122,0.488,82.646
120775,141428,9298,-0.134,1.02,0.137,-0.244,0.854,0.488,82.649
120775,141346,11240,-0.136,1.024,0.136,-0.244,0.854,0.488,82.656
120747,141428,9298,-0.14,1.021,0.138,-0.61,0.915,0.366,82.659
120747,141316,11249,-0.137,1.015,0.144,-0.61,0.915,0.366,82.666
120756,141428,9298,-0.135,1.012,0.142,-0.366,0.488,0.061,82.669
120756,141328,11254,-0.135,1.009,0.135,-0.366,0.488,0.061,82.675
120727,141428,9298,-0.132,1.008,0.132,-0.305,0.061,-0.061,82.679
120727,141313,11259,-0.132,1.011,0.133,-0.305,0.061,-0.061,82.685
120761,141428,9298,-0.133,1.013,0.134,0.122,0,0.366,82.689
120761,141323,11248,-0.13,1.016,0.132,0.122,0,0.366,82.695
120749,141428,9298,-0.129,1.015,0.135,1.22,0.244,0.244,82.699
120749,141362,11248,-0.128,1.013,0.137,1.22,0.244,0.244,82.705
120761,141428,9298,-0.126,1.018,0.133,1.159,0.366,0.061,82.709
120761,141342,11246,-0.127,1.019,0.134,1.159,0.366,0.061,82.715
120723,141428,9298,-0.129,1.017,0.134,-0.488,0.366,0.366,82.719
120723,141321,11241,-0.13,1.012,0.131,-0.488,0.366,0.366,82.725
120720,141428,9298,-0.13,1.006,0.132,-0.976,0.061,0.61,82.729
120720,141315,11246,-0.129,1.007,0.137,-0.976,0.061,0.61,82.735
120740,141172,9298,-0.13,1.006,0.138,-1.159,0.061,0.427,82.739
120740,141310,11239,-0.13,1.009,0.138,-1.159,0.061,0.427,82.745
120726,141172,9298,-0.133,1.011,0.144,-0.671,0.366,0.427,82.748
120726,141307,11241,-0.135,1.015,0.139,-0.671,0.366,0.427,82.755
120722,141428,9298,-0.137,1.019,0.144,-0.122,0.854,0.244,82.758
120722,141317,11249,-0.138,1.021,0.14,-0.122,0.854,0.244,82.765
120713,141172,9298,-0.138,1.02,0.134,0,0.793,0.305,82.768
120713,141307,11249,-0.136,1.016,0.135,0,0.793,0.305,82.774
120726,141172,9298,-0.134,1.016,0.135,-0.183,0.61,0.488,82.778
120726,141305,11235,-0.13,1.014,0.132,-0.183,0.61,0.488,82.784
120730,141172,9298,-0.13,1.012,0.135,-0.549,0.244,0.549,82.788
120730,141295,11236,-0.131,1.012,0.138,-0.549,0.244,0.549,82.794
120725,141172,9298,-0.128,1.007,0.137,-0.061,0.061,0.305,82.798
120725,141311,11255,-0.126,1.006,0.13,-0.061,0.061,0.305,82.804
120749,141428,9298,-0.129,1.007,0.13,0.732,0.366,0.061,82.808
120749,141325,11240,-0.13,1.012,0.131,0.732,0.366,0.061,82.814
120768,141428,9298,-0.132,1.016,0.132,0.549,0.732,0,82.818
120768,141362,11233,-0.133,1.018,0.133,0.549,0.732,0,82.824
120764,141428,9298,-0.133,1.016,0.132,0.366,0.854,-0.061,82.828
120764,141337,11240,-0.135,1.013,0.131,0.366,0.854,-0.061,82.834
120788,141428,9298,-0.139,1.013,0.131,0,0.427,0.244,82.838
120788,141353,11257,-0.133,1.011,0.133,0,0.427,0.244,82.844
120773,141428,9298,-0.133,1.01,0.133,-1.098,-0.061,0.366,82.847
120773,141363,11251,-0.134,1.011,0.132,-1.098,-0.061,0.366,82.854
120808,141428,9298,-0.131,1.012,0.133,-0.915,-0.183,0.427,82.857
120808,141380,11249,-0.127,1.014,0.137,-0.915,-0.183,0.427,82.863
120814,141428,9298,-0.128,1.011,0.14,0.488,0.122,0.671,82.867
120814,141393,11272,-0.127,1.013,0.141,0.488,0.122,0.671,82.873
120820,141428,9298,-0.127,1.013,0.141,0.488,0.122,0.671,82.877
120820,141391,11275,-0.127,1.017,0.14,-0.061,0.305,0.61,82.883
120835,141428,9298,-0.127,1.017,0.14,-0.061,0.305,0.61,82.887
120835,141400,11258,-0.128,1.012,0.142,-0.976,0.305,0.305,82.893
120832,141428,9298,-0.128,1.012,0.142,-0.976,0.305,0.305,82.897
120832,141413,11254,-0.135,1.007,0.143,-0.122,0.488,0.244,82.903
120828,141428,9298,-0.135,1.007,0.143,-0.122,0.488,0.244,82.907
120828,141411,11261,-0.134,1.013,0.132,-0.122,0.793,0.305,82.913
120865,141428,9298,-0.134,1.013,0.132,-0.122,0.793,0.305,82.917
120865,141415,11260,-0.136,1.015,0.129,-0.061,0.976,0.305,82.923
120843,141428,9298,-0.136,1.015,0.129,-0.061,0.976,0.305,82.927
120843,141423,11254,-0.139,1.016,0.131,0.305,0.854,0.061,82.933
120857,141428,9298,-0.139,1.016,0.131,0.305,0.854,0.061,82.937
120857,141413,11257,-0.13,1.013,0.136,0.061,0.122,0.183,82.943
120834,141428,9298,-0.13,1.013,0.136,0.061,0.122,0.183,82.946
120834,141398,11271,-0.124,1.006,0.134,0.122,-0.183,0.488,82.953
120866,141428,9298,-0.124,1.006,0.134,0.122,-0.183,0.488,82.956
120866,141408,11256,-0.126,1.014,0.136,-0.427,0,0.671,82.963
120849,141428,9298,-0.126,1.014,0.136,-0.427,0,0.671,82.966
120849,141430,11264,-0.129,1.008,0.126,-0.427,0.366,0.61,82.972
120838,141428,9298,-0.129,1.008,0.126,-0.427,0.366,0.61,82.976
120838,141394,11254,-0.131,1.016,0.136,0,0.671,0.244,82.982
120847,141428,9298,-0.131,1.016,0.136,0,0.671,0.244,82.986
120847,141415,11270,-0.135,1.017,0.135,-0.183,0.671,0.122,82.992
120841,141428,9298,-0.135,1.017,0.135,-0.183,0.671,0.122,82.996
120841,141427,11259,-0.135,1.02,0.135,-0.427,0.488,0.305,83.002
120858,141428,9298,-0.135,1.02,0.135,-0.427,0.488,0.305,83.006
120858,141448,11263,-0.136,1.014,0.134,-0.61,0.305,0.366,83.012
120860,141428,9298,-0.136,1.014,0.134,-0.61,0.305,0.366,83.016
120860,141419,11279,-0.136,1.011,0.133,-0.732,0,0.427,83.022
120858,141428,9298,-0.131,1.009,0.134,-0.732,0,0.427,83.026
120858,141470,11260,-0.13,1.01,0.137,-0.61,-0.122,0.671,83.032
120839,141428,9298,-0.132,1.008,0.14,-0.61,-0.122,0.671,83.036
120839,141443,11262,-0.13,1.009,0.133,-0.244,-0.244,0.61,83.042
120829,141428,9298,-0.129,1.01,0.129,-0.244,-0.244,0.61,83.045
120829,141440,11249,-0.13,1.012,0.129,-0.061,-0.061,0.366,83.052
120841,141428,9298,-0.133,1.017,0.132,-0.061,-0.061,0.366,83.055
120841,141407,11271,-0.131,1.024,0.137,-0.61,0.183,0.122,83.061
120848,141428,9298,-0.131,1.023,0.132,-0.61,0.183,0.122,83.065
120848,141400,11248,-0.131,1.019,0.132,-1.037,0.061,0.122,83.071
120810,141428,9298,-0.131,1.015,0.138,-1.037,0.061,0.122,83.075
120810,141399,11248,-0.131,1.008,0.141,-0.732,0.061,0.061,83.081
120814,141428,9298,-0.133,1.007,0.138,-0.732,0.061,0.061,83.085
120814,141425,11271,-0.134,1.007,0.14,-1.159,0.305,0.305,83.091
120818,141428,9298,-0.132,1.01,0.136,-1.159,0.305,0.305,83.095
120818,141404,11255,-0.133,1.011,0.132,-0.732,0.244,0.305,83.101
120797,141428,9298,-0.131,1.014,0.132,-0.732,0.244,0.305,83.105
120797,141370,11247,-0.13,1.013,0.135,0.366,0.122,0.061,83.111
120805,141428,9298,-0.131,1.012,0.138,0.366,0.122,0.061,83.115
120805,141386,11257,-0.13,1.015,0.138,0.793,0.061,0,83.121
120828,141428,9298,-0.134,1.016,0.143,0.793,0.061,0,83.125
120828,141384,11258,-0.131,1.02,0.146,-0.305,0,0,83.131
120792,141428,9298,-0.132,1.023,0.14,-0.305,0,0,83.135
120792,141380,11258,-0.132,1.022,0.136,-1.341,-0.061,0.122,83.141
120811,141428,9298,-0.131,1.011,0.137,-1.341,-0.061,0.122,83.144
120811,141363,11261,-0.131,1.004,0.141,-0.488,0.122,0.244,83.151
120812,141428,9298,-0.129,1,0.138,-0.488,0.122,0.244,83.154
120812,141353,11245,-0.128,1.002,0.135,-0.488,0.305,0.183,83.16
120786,141428,9298,-0.13,1.004,0.132,-0.488,0.305,0.183,83.164
120786,141399,11253,-0.133,1.008,0.132,-0.427,0.305,0.244,83.17
120805,141428,9298,-0.135,1.01,0.131,-0.427,0.305,0.244,83.174
120805,141382,11260,-0.134,1.013,0.135,0.244,0.305,0.244,83.18
120798,141428,9298,-0.133,1.018,0.137,0.244,0.305,0.244,83.184
120798,141367,11227,-0.132,1.022,0.137,-0.305,-0.244,0.427,83.19
120801,141428,9298,-0.132,1.019,0.14,-0.305,-0.244,0.427,83.194
120801,141386,11242,-0.135,1.015,0.139,-0.915,-0.183,0.732,83.2
120813,141428,9298,-0.135,1.016,0.142,-0.915,-0.183,0.732,83.204
120813,141376,11249,-0.133,1.018,0.147,-1.098,0.122,0.793,83.21
120796,141428,9298,-0.133,1.017,0.148,-1.098,0.122,0.793,83.214
120796,141380,11248,-0.134,1.014,0.147,-0.61,0.488,0.549,83.22
120786,141428,9298,-0.135,1.009,0.142,-0.61,0.488,0.549,83.224
120786,141383,11251,-0.133,1.01,0.139,-0.183,0.549,0.244,83.23
120786,141428,9298,-0.132,1.015,0.138,-0.183,0.549,0.244,83.234
120786,141393,11245,-0.128,1.013,0.134,-0.61,0.366,0.061,83.24
120799,141428,9298,-0.13,1.01,0.13,-0.61,0.366,0.061,83.243
120799,141372,11255,-0.131,1.011,0.131,-0.427,0.244,0.244,83.25
120819,141428,9298,-0.134,1.015,0.133,-0.427,0.244,0.244,83.253
120819,141370,11243,-0.135,1.016,0.134,0,0.183,0.366,83.259
120799,141428,9298,-0.132,1.017,0.131,0,0.183,0.366,83.263
120799,141399,11253,-0.134,1.018,0.133,0.183,0.122,0.305,83.269
120794,141428,9298,-0.133,1.017,0.131,0.183,0.122,0.305,83.273
120794,141385,11239,-0.132,1.018,0.136,-0.183,0.122,0.305,83.279
120793,141428,9298,-0.134,1.015,0.137,-0.183,0.122,0.305,83.283
120793,141408,11244,-0.132,1.011,0.14,-1.037,0.122,0.427,83.289
120803,141428,9298,-0.135,1.008,0.141,-1.037,0.122,0.427,83.293
120803,141389,11245,-0.134,1.008,0.141,-1.159,0.122,0.732,83.299
120777,141428,9298,-0.133,1.008,0.137,-1.159,0.122,0.732,83.303
120777,141375,11252,-0.129,1.008,0.139,-0.915,0,0.671,83.309
120794,141428,9298,-0.127,1.008,0.138,-0.915,0,0.671,83.313
120794,141376,11238,-0.129,1.011,0.143,-0.61,-0.183,0.549,83.319
120810,141428,9298,-0.131,1.015,0.145,-0.61,-0.183,0.549,83.323
120810,141414,11256,-0.127,1.016,0.149,0,0,0.488,83.329
120808,141428,9298,-0.126,1.013,0.147,0,0,0.488,83.333
120808,141400,11250,-0.128,1.012,0.144,0.732,0.366,0.488,83.339
120821,141428,9298,-0.128,1.012,0.14,0.732,0.366,0.488,83.342
120821,141404,11252,-0.13,1.013,0.132,0.61,0.732,0.671,83.349
120815,141428,9298,-0.133,1.015,0.135,0.61,0.732,0.671,83.352
120815,141410,11250,-0.133,1.017,0.139,0.427,0.732,0.488,83.358
120826,141428,9298,-0.135,1.013,0.132,0.427,0.732,0.488,83.362
120826,141393,11246,-0.135,1.016,0.132,0.854,0.671,0.183,83.368
120825,141428,9298,-0.136,1.016,0.138,0.854,0.671,0.183,83.372
120825,141435,11257,-0.138,1.014,0.135,1.159,0.488,0.183,83.378
120857,141428,9298,-0.136,1.015,0.136,1.159,0.488,0.183,83.382
120857,141428,11270,-0.136,1.015,0.139,0.549,0.244,0.61,83.388
120884,141428,9298,-0.132,1.019,0.139,0.549,0.244,0.61,83.392
120884,141426,11259,-0.13,1.015,0.136,-0.61,0.427,0.61,83.398
120868,141428,9298,-0.128,1.01,0.139,-0.61,0.427,0.61,83.402
120868,141452,11256,-0.129,1.009,0.14,-0.61,0.549,0.671,83.408
120847,141428,9298,-0.129,1.008,0.143,-0.61,0.549,0.671,83.412
120847,141433,11254,-0.127,1.009,0.145,-0.183,0.427,0.671,83.418
120860,141428,9298,-0.128,1.012,0.146,-0.183,0.427,0.671,83.422
120860,141442,11255,-0.129,1.013,0.14,0.244,0.549,0.244,83.428
120852,141428,9298,-0.126,1.017,0.135,0.244,0.549,0.244,83.432
120852,141444,11257,-0.128,1.018,0.133,0.915,0.732,0.061,83.438
120870,141428,9298,-0.13,1.016,0.137,0.915,0.732,0.061,83.441
120870,141462,11237,-0.132,1.015,0.136,0.671,0.671,0.122,83.448
120852,141428,9298,-0.134,1.012,0.136,0.671,0.671,0.122,83.451
120852,141479,11259,-0.131,1.008,0.135,0.305,0.793,0.366,83.457
120871,141428,9298,-0.131,1.008,0.135,0.305,0.793,0.366,83.461
120871,141449,11261,-0.134,1.009,0.134,0.305,0.793,0.549,83.467
120875,141428,9298,-0.134,1.009,0.134,0.305,0.793,0.549,83.471
120875,141444,11260,-0.13,1.018,0.132,0.305,0.244,0.488,83.477
120892,141428,9298,-0.13,1.018,0.132,0.305,0.244,0.488,83.481
120892,141445,11252,-0.127,1.018,0.14,0.488,0,0.366,83.487
120862,141428,9298,-0.127,1.018,0.14,0.488,0,0.366,83.491
120862,141444,11251,-0.13,1.017,0.138,-0.122,0.244,0.427,83.497
120873,141428,9298,-0.13,1.017,0.138,-0.122,0.244,0.427,83.501
120873,141440,11267,-0.131,1.012,0.14,-0.793,0.976,0.671,83.507
120916,141428,9298,-0.131,1.012,0.14,-0.793,0.976,0.671,83.511
120916,141469,11259,-0.134,1.006,0.14,-0.305,1.098,0.61,83.517
120896,141428,9298,-0.134,1.006,0.14,-0.305,1.098,0.61,83.521
120896,141473,11266,-0.133,1.01,0.136,0.305,0.732,0.366,83.527
120900,141428,9298,-0.133,1.01,0.136,0.305,0.732,0.366,83.531
120900,141462,11264,-0.134,1.016,0.142,0.488,0.793,0.305,83.537
120894,141428,9298,-0.134,1.016,0.142,0.488,0.793,0.305,83.54
120894,141466,11273,-0.134,1.018,0.133,0.366,0.793,0.366,83.547
120894,141428,9298,-0.134,1.018,0.133,0.366,0.793,0.366,83.55
120894,141452,11253,-0.137,1.016,0.135,0.244,0.671,0.427,83.556
120901,141428,9298,-0.137,1.016,0.135,0.244,0.671,0.427,83.56
120901,141464,11255,-0.134,1.012,0.14,0.549,0.305,0.61,83.566
120894,141428,9298,-0.134,1.012,0.14,0.549,0.305,0.61,83.57
120894,141464,11270,-0.128,1.011,0.132,0.488,0.061,0.488,83.576
120906,141428,9298,-0.128,1.011,0.132,0.488,0.061,0.488,83.58
120906,141482,11248,-0.124,1.01,0.132,0.366,0.122,0.305,83.586
120908,141428,9298,-0.124,1.01,0.132,0.366,0.122,0.305,83.59
120908,141470,11251,-0.134,1.011,0.133,0.549,0.488,0.244,83.596
120872,141428,9298,-0.134,1.011,0.133,0.549,0.488,0.244,83.6
120872,141484,11263,-0.13,1.013,0.132,0.549,0.488,0.244,83.606
120859,141428,9298,-0.131,1.011,0.13,0.305,0.671,0.122,83.61
120859,141433,11246,-0.134,1.013,0.128,0.305,0.671,0.122,83.616
120883,141428,9298,-0.134,1.015,0.13,-0.549,0.366,0.305,83.62
120883,141446,11257,-0.13,1.016,0.134,-0.549,0.366,0.305,83.626
120851,141428,9298,-0.13,1.011,0.133,-0.732,0.061,0.488,83.629
120851,141416,11250,-0.131,1.009,0.128,-0.732,0.061,0.488,83.636
120846,141428,9298,-0.134,1.011,0.134,-0.61,0.305,0.488,83.639
120846,141438,11246,-0.133,1.013,0.14,-0.61,0.305,0.488,83.646
120850,141428,9298,-0.134,1.014,0.143,-0.183,0.549,0.488,83.649
120850,141424,11233,-0.132,1.014,0.142,-0.183,0.549,0.488,83.655
120832,141428,9298,-0.137,1.019,0.143,0.427,0.549,0.366,83.659
120832,141423,11257,-0.135,1.018,0.14,0.427,0.549,0.366,83.665
120848,141428,9298,-0.133,1.019,0.138,0.305,0.427,0.122,83.669
120848,141418,11266,-0.132,1.018,0.138,0.305,0.427,0.122,83.675
120841,141428,9298,-0.131,1.017,0.14,0.061,0.244,0.183,83.679
120841,141434,11252,-0.13,1.012,0.138,0.061,0.244,0.183,83.685
120832,141428,9298,-0.13,1.009,0.134,-0.671,0.366,0.305,83.689
120832,141423,11272,-0.131,1.003,0.137,-0.671,0.366,0.305,83.695
120829,141428,9298,-0.132,1.003,0.136,-0.793,0.488,0.427,83.699
120829,141412,11260,-0.132,1.005,0.138,-0.793,0.488,0.427,83.705
120811,141428,9298,-0.13,1.009,0.139,0.122,0.671,0.488,83.709
120811,141398,11244,-0.13,1.012,0.137,0.122,0.671,0.488,83.715
120819,141428,9298,-0.129,1.016,0.134,0.671,0.427,0.427,83.719
120819,141418,11259,-0.127,1.02,0.134,0.671,0.427,0.427,83.725
120815,141428,9298,-0.13,1.018,0.132,0.488,0.549,0.366,83.729
120815,141406,11256,-0.132,1.019,0.131,0.488,0.549,0.366,83.735
120827,141428,9298,-0.133,1.017,0.129,0.366,0.915,0.366,83.738
120827,141406,11241,-0.131,1.01,0.13,0.366,0.915,0.366,83.745
120825,141428,9298,-0.133,1.009,0.13,-0.061,0.854,0.549,83.748
120825,141387,11263,-0.136,1.008,0.13,-0.061,0.854,0.549,83.754
120803,141428,9298,-0.137,1.008,0.134,-0.244,0.488,0.61,83.758
120803,141411,11251,-0.137,1.01,0.13,-0.244,0.488,0.61,83.764
120813,141428,9298,-0.133,1.013,0.13,-0.061,0.183,0.488,83.768
120813,141388,11257,-0.132,1.016,0.132,-0.061,0.183,0.488,83.774
120819,141428,9298,-0.134,1.017,0.135,0.061,0,0.366,83.778
120819,141395,11252,-0.13,1.019,0.133,0.061,0,0.366,83.784
120799,141428,9298,-0.131,1.017,0.135,-0.305,-0.183,0.305,83.788
120799,141392,11254,-0.131,1.015,0.14,-0.305,-0.183,0.305,83.794
120809,141428,9298,-0.131,1.014,0.143,-0.549,-0.183,0.366,83.798
120809,141402,11261,-0.126,1.013,0.141,-0.549,-0.183,0.366,83.804
120803,141428,9298,-0.122,1.01,0.139,-0.244,-0.061,0.366,83.808
120803,141390,11244,-0.125,1.011,0.14,-0.244,-0.061,0.366,83.814
120810,141428,9298,-0.128,1.011,0.134,-0.183,0.061,0.427,83.818
120810,141392,11251,-0.127,1.013,0.136,-0.183,0.061,0.427,83.824
120813,141428,9298,-0.134,1.013,0.133,-0.183,0.549,0.244,83.827
120813,141402,11249,-0.134,1.01,0.134,-0.183,0.549,0.244,83.834
120806,141428,9298,-0.133,1.011,0.135,0.305,0.915,0.061,83.837
120806,141377,11247,-0.135,1.012,0.138,0.305,0.915,0.061,83.844
120814,141428,9298,-0.135,1.015,0.14,0.061,0.549,0.305,83.847
120814,141366,11259,-0.134,1.014,0.138,0.061,0.549,0.305,83.853
120813,141428,9298,-0.133,1.019,0.136,-0.549,0.061,0.61,83.857
120813,141387,11260,-0.13,1.018,0.139,-0.549,0.061,0.61,83.863
120799,141428,9298,-0.126,1.012,0.136,-0.061,-0.122,0.61,83.867
120799,141388,11270,-0.125,1.011,0.138,-0.061,-0.122,0.61,83.873
120818,141428,9298,-0.126,1.013,0.136,0.366,0.244,0.549,83.877
120818,141400,11238,-0.127,1.02,0.137,0.366,0.244,0.549,83.883
120799,141428,9298,-0.128,1.02,0.136,0.427,0.793,0.488,83.887
120799,141397,11256,-0.134,1.022,0.136,0.427,0.793,0.488,83.893
120809,141428,9298,-0.133,1.018,0.138,0.671,1.037,0.183,83.897
120809,141384,11237,-0.132,1.014,0.133,0.671,1.037,0.183,83.903
120819,141428,9298,-0.135,1.011,0.134,0.366,0.793,0,83.907
120819,141383,11255,-0.135,1.007,0.134,0.366,0.793,0,83.913
120786,141428,9298,-0.134,1.009,0.132,-0.061,0.671,0.244,83.917
120786,141379,11256,-0.134,1.008,0.127,-0.061,0.671,0.244,83.923
120804,141428,9298,-0.135,1.012,0.129,-0.305,0.61,0.366,83.926
120804,141378,11231,-0.137,1.013,0.133,-0.305,0.61,0.366,83.933
120784,141428,9298,-0.135,1.01,0.134,0.366,0.549,0.305,83.936
120784,141371,11238,-0.133,1.013,0.132,0.366,0.549,0.305,83.943
120797,141428,9298,-0.13,1.014,0.133,0.915,0.427,0.549,83.946
120797,141374,11256,-0.13,1.018,0.137,0.915,0.427,0.549,83.952
120810,141428,9298,-0.128,1.016,0.138,0.244,0.122,0.793,83.956
120810,141366,11253,-0.127,1.017,0.136,0.244,0.122,0.793,83.962
120818,141428,9298,-0.128,1.014,0.136,-0.732,0.122,0.732,83.966
120818,141383,11243,-0.124,1.011,0.135,-0.732,0.122,0.732,83.972
120794,141428,9298,-0.126,1.009,0.131,-0.793,0.488,0.366,83.976
120794,141373,11244,-0.128,1.006,0.134,-0.793,0.488,0.366,83.982
120820,141428,9298,-0.135,1.008,0.136,0.061,0.976,0.305,83.986
120820,141386,11246,-0.135,1.012,0.133,0.061,0.976,0.305,83.992
120805,141428,9298,-0.138,1.019,0.133,0.183,1.22,0.305,83.996
120805,141379,11242,-0.14,1.024,0.127,0.183,1.22,0.305,84.002
120801,141428,9298,-0.136,1.026,0.127,0.366,0.732,0.183,84.006
120801,141372,11234,-0.136,1.019,0.134,0.366,0.732,0.183,84.012
120776,141428,9298,-0.136,1.019,0.134,0.061,0.122,0.183,84.016
120776,141384,11248,-0.135,1.016,0.133,0.061,0.122,0.183,84.022
120789,141428,9298,-0.13,1.012,0.138,-1.159,-0.244,0.427,84.025
120789,141367,11234,-0.129,1.008,0.142,-1.159,-0.244,0.427,84.032
120780,141428,9298,-0.129,1.004,0.141,-1.159,-0.183,0.671,84.035
120780,141384,11252,-0.125,1.004,0.143,-1.159,-0.183,0.671,84.042
120778,141428,9298,-0.125,1.004,0.143,-1.159,-0.183,0.671,84.045
120778,141346,11250,-0.125,1.009,0.14,-0.305,0.183,0.488,84.051
120783,141428,9298,-0.125,1.009,0.14,-0.305,0.183,0.488,84.055
120783,141383,11248,-0.128,1.015,0.133,0.244,0.305,0.122,84.061
120786,141428,9298,-0.128,1.015,0.133,0.244,0.305,0.122,84.065
120786,141375,11255,-0.133,1.016,0.13,0.366,0.671,0,84.071
120763,141428,9298,-0.133,1.016,0.13,0.366,0.671,0,84.075
120763,141376,11244,-0.134,1.014,0.136,0.183,0.732,0.244,84.081
120773,141428,9298,-0.134,1.014,0.136,0.183,0.732,0.244,84.085
120773,141385,11246,-0.135,1.013,0.133,-0.61,0.366,0.488,84.091
120770,141428,9298,-0.135,1.013,0.133,-0.61,0.366,0.488,84.095
120770,141369,11229,-0.134,1.012,0.134,-0.793,0.061,0.671,84.101
120767,141428,9298,-0.134,1.012,0.134,-0.793,0.061,0.671,84.105
120767,141393,11246,-0.131,1.015,0.14,-0.793,0,0.671,84.111
120778,141428,9298,-0.131,1.015,0.14,-0.793,0,0.671,84.115
120778,141372,11241,-0.129,1.018,0.134,-0.549,0.183,0.366,84.121
120778,141428,9298,-0.129,1.018,0.134,-0.549,0.183,0.366,84.124
120778,141363,11244,-0.128,1.019,0.138,0.183,0.366,0.305,84.131
120757,141428,9298,-0.128,1.019,0.138,0.183,0.366,0.305,84.134
120757,141361,11250,-0.124,1.012,0.143,-0.366,0.183,0.488,84.141
120767,141428,9298,-0.124,1.012,0.143,-0.366,0.183,0.488,84.144
120767,141379,11259,-0.124,1.001,0.139,-1.037,0.061,0.427,84.15
120790,141428,9298,-0.124,1.001,0.139,-1.037,0.061,0.427,84.154
120790,141375,11239,-0.131,1.004,0.136,-0.549,0.61,0.305,84.16
120806,141428,9298,-0.131,1.004,0.136,-0.549,0.61,0.305,84.164
120806,141379,11261,-0.137,1.012,0.133,0.122,1.159,0.366,84.17
120781,141428,9298,-0.137,1.012,0.133,0.122,1.159,0.366,84.174
120781,141354,11256,-0.137,1.02,0.13,0.671,1.037,0.244,84.18
120779,141428,9298,-0.137,1.02,0.13,0.671,1.037,0.244,84.184
120779,141342,11249,-0.136,1.025,0.132,0.854,0.366,0.488,84.19
120783,141428,9298,-0.131,1.02,0.136,0.854,0.366,0.488,84.194
120783,141362,11247,-0.128,1.014,0.14,0.549,-0.244,0.854,84.2
120799,141428,9298,-0.125,1.015,0.133,0.549,-0.244,0.854,84.204
120799,141362,11241,-0.124,1.018,0.133,-0.61,-0.427,0.915,84.21
120788,141428,9298,-0.123,1.015,0.133,-0.61,-0.427,0.915,84.214
120788,141366,11242,-0.125,1.013,0.135,-1.585,0.183,0.549,84.22
120794,141428,9298,-0.128,1.012,0.138,-1.585,0.183,0.549,84.223
120794,141379,11249,-0.131,1.01,0.136,-0.732,0.976,0.366,84.23
120801,141428,9298,-0.132,1.006,0.133,-0.732,0.976,0.366,84.233
120801,141375,11242,-0.132,1.012,0.14,-0.122,0.976,0.244,84.24
120793,141428,9298,-0.134,1.018,0.136,-0.122,0.976,0.244,84.243
120793,141380,11246,-0.135,1.018,0.133,-0.549,0.61,0.366,84.249
120787,141428,9298,-0.135,1.019,0.137,-0.549,0.61,0.366,84.253
120787,141367,11245,-0.133,1.017,0.138,-0.366,0.366,0.366,84.259
120789,141428,9298,-0.134,1.015,0.137,-0.366,0.366,0.366,84.263
120789,141368,11233,-0.134,1.01,0.136,-0.366,0.488,0.183,84.269
120812,141428,9298,-0.136,1.005,0.138,-0.366,0.488,0.183,84.273
120812,141359,11230,-0.137,1.003,0.136,-0.793,0.671,0.366,84.279
120785,141428,9298,-0.135,1.006,0.139,-0.793,0.671,0.366,84.283
120785,141350,11246,-0.136,1.012,0.136,-0.61,0.488,0.549,84.289
120809,141428,9298,-0.133,1.015,0.135,-0.61,0.488,0.549,84.293
120809,141384,11240,-0.13,1.01,0.133,0,0,0.427,84.299
120802,141428,9298,-0.125,1.015,0.135,0,0,0.427,84.303
120802,141421,11245,-0.127,1.018,0.134,0.549,-0.061,0.366,84.309
120792,141428,9298,-0.126,1.019,0.135,0.549,-0.061,0.366,84.313
120792,141390,11255,-0.128,1.018,0.131,0,0.305,0.183,84.319
120781,141428,9298,-0.126,1.014,0.134,0,0.305,0.183,84.322
120781,141383,11256,-0.13,1.013,0.137,-0.122,0.732,0.244,84.329
120798,141428,9298,-0.131,1.017,0.138,-0.122,0.732,0.244,84.332
120798,141391,11239,-0.132,1.018,0.14,0.183,0.671,0.427,84.339
120793,141428,9298,-0.132,1.017,0.138,0.183,0.671,0.427,84.342
120793,141403,11242,-0.129,1.018,0.139,-0.305,0.427,0.183,84.348
120813,141428,9298,-0.131,1.015,0.14,-0.305,0.427,0.183,84.352
120813,141393,11242,-0.13,1.011,0.135,-0.427,0.305,0.061,84.358
120818,141428,9298,-0.13,1.01,0.133,-0.427,0.305,0.061,84.362
120818,141397,11256,-0.128,1.01,0.139,-0.61,0.366,0.183,84.368
120821,141428,9298,-0.13,1.008,0.138,-0.61,0.366,0.183,84.372
120821,141410,11267,-0.132,1.009,0.132,-0.488,0.549,0.366,84.378
120817,141428,9298,-0.134,1.01,0.137,-0.488,0.549,0.366,84.382
120817,141406,11242,-0.132,1.01,0.138,-0.122,0.732,0.305,84.388
120795,141428,9298,-0.135,1.01,0.134,-0.122,0.732,0.305,84.392
120795,141386,11253,-0.134,1.011,0.129,-0.183,0.854,0.366,84.398
120788,141428,9298,-0.134,1.011,0.129,-0.183,0.854,0.366,84.402
120788,141390,11260,-0.138,1.014,0.133,-0.061,0.732,0.488,84.408
120800,141428,9298,-0.14,1.016,0.134,-0.061,0.732,0.488,84.412
120800,141364,11225,-0.136,1.016,0.137,0.061,0.427,0.366,84.418
120805,141428,9298,-0.134,1.02,0.136,0.061,0.427,0.366,84.421
120805,141382,11234,-0.13,1.021,0.138,-0.061,0.183,0.244,84.428
120826,141428,9298,-0.129,1.018,0.142,-0.061,0.183,0.244,84.431
120826,141402,11241,-0.128,1.018,0.137,-0.366,0.183,0.488,84.437
120822,141428,9298,-0.128,1.017,0.138,-0.366,0.183,0.488,84.441
120822,141395,11246,-0.127,1.014,0.138,-0.305,0.366,0.305,84.447
120828,141428,9298,-0.126,1.012,0.135,-0.305,0.366,0.305,84.451
120828,141401,11263,-0.129,1.009,0.135,-0.305,0.549,-0.061,84.457
120835,141428,9298,-0.128,1.012,0.138,-0.305,0.549,-0.061,84.461
120835,141379,11235,-0.129,1.012,0.134,0.122,0.488,0.061,84.467
120805,141428,9298,-0.133,1.012,0.131,0.122,0.488,0.061,84.471
120805,141405,11261,-0.134,1.009,0.134,0.732,0.732,0.122,84.477
120832,141428,9298,-0.134,1.015,0.132,0.732,0.732,0.122,84.481
120832,141397,11250,-0.135,1.015,0.13,0.183,0.732,0.183,84.487
120815,141428,9298,-0.135,1.011,0.13,0.183,0.732,0.183,84.491
120815,141390,11243,-0.133,1.011,0.13,-0.061,0.244,0.549,84.497
120802,141428,9298,-0.134,1.012,0.134,-0.061,0.244,0.549,84.501
120802,141369,11268,-0.133,1.011,0.137,-0.61,0.061,0.61,84.507
120807,141428,9298,-0.131,1.012,0.135,-0.61,0.061,0.61,84.511
120807,141392,11254,-0.132,1.012,0.137,-0.427,0.122,0.61,84.517
120836,141428,9298,-0.132,1.014,0.132,-0.427,0.122,0.61,84.52
120836,141372,11251,-0.129,1.019,0.132,-0.244,0.305,0.671,84.527
120821,141428,9298,-0.128,1.022,0.139,-0.244,0.305,0.671,84.53
120821,141401,11248,-0.132,1.022,0.141,-0.732,0.061,0.488,84.537
120843,141428,9298,-0.127,1.019,0.14,-0.732,0.061,0.488,84.54
120843,141395,11256,-0.125,1.019,0.14,-0.305,0,0.183,84.546
120846,141428,9298,-0.126,1.015,0.142,-0.305,0,0.183,84.55
120846,141392,11257,-0.128,1.014,0.144,0.183,0.427,0.122,84.556
120825,141428,9298,-0.131,1.013,0.144,0.183,0.427,0.122,84.56
120825,141396,11264,-0.13,1.017,0.143,0.488,1.159,0.122,84.566
120841,141428,9298,-0.133,1.013,0.139,0.488,1.159,0.122,84.57
120841,141384,11255,-0.134,1.011,0.133,0.488,1.159,-0.183,84.576
120839,141428,9298,-0.133,1.007,0.129,0.488,1.159,-0.183,84.58
120839,141415,11252,-0.132,1.012,0.127,0.305,0.915,-0.122,84.586
120804,141428,9298,-0.134,1.01,0.133,0.305,0.915,-0.122,84.59
120804,141400,11248,-0.135,1.01,0.132,0.671,0.732,0.183,84.596
120802,141428,9298,-0.133,1.011,0.131,0.671,0.732,0.183,84.6
120802,141336,11250,-0.132,1.013,0.135,0.305,0.488,0.427,84.606
120792,141428,9298,-0.128,1.012,0.138,0.305,0.488,0.427,84.61
120792,141365,11243,-0.131,1.015,0.136,0.122,0.488,0.671,84.616
120792,141428,9298,-0.129,1.012,0.135,0.122,0.488,0.671,84.619
120792,141386,11240,-0.127,1.015,0.138,-0.244,0.671,0.793,84.626
120792,141428,9298,-0.127,1.015,0.138,-0.244,0.671,0.793,84.629
120792,141398,11254,-0.127,1.016,0.135,-1.098,0.793,0.61,84.635
120813,141428,9298,-0.127,1.016,0.135,-1.098,0.793,0.61,84.639
120813,141383,11249,-0.133,1.012,0.133,-0.732,0.732,0.61,84.645
120800,141428,9298,-0.133,1.012,0.133,-0.732,0.732,0.61,84.649
120800,141381,11257,-0.131,1.018,0.135,-0.122,0.671,0.366,84.655
120799,141428,9298,-0.131,1.018,0.135,-0.122,0.671,0.366,84.659
120799,141389,11258,-0.135,1.022,0.131,0.427,0.732,0.061,84.665
120810,141428,9298,-0.135,1.022,0.131,0.427,0.732,0.061,84.669
120810,141383,11245,-0.134,1.015,0.129,0.61,0.793,-0.122,84.675
120798,141428,9298,-0.134,1.015,0.129,0.61,0.793,-0.122,84.679
120798,141380,11247,-0.136,1.015,0.134,0.122,0.671,0,84.685
120775,141428,9298,-0.136,1.015,0.134,0.122,0.671,0,84.689
120775,141381,11251,-0.134,1.01,0.131,-0.427,0.244,0.122,84.695
120796,141428,9298,-0.134,1.01,0.131,-0.427,0.244,0.122,84.699
120796,141369,11234,-0.133,1.012,0.13,-0.61,0.061,0.061,84.705
120769,141428,9298,-0.133,1.012,0.13,-0.61,0.061,0.061,84.709
120769,141393,11241,-0.129,1.012,0.138,-0.366,0,0.122,84.715
120776,141428,9298,-0.129,1.012,0.138,-0.366,0,0.122,84.718
120776,141391,11256,-0.13,1.01,0.136,-0.671,0.122,0.488,84.725
120806,141428,9298,-0.13,1.01,0.136,-0.671,0.122,0.488,84.728
120806,141409,11250,-0.132,1.014,0.131,-0.793,0.183,0.549,84.734
120807,141428,9298,-0.132,1.014,0.131,-0.793,0.183,0.549,84.738
120807,141393,11233,-0.133,1.014,0.134,-0.488,0.427,0.488,84.744
120826,141428,9298,-0.133,1.014,0.134,-0.488,0.427,0.488,84.748
120826,141408,11256,-0.135,1.019,0.137,-0.061,0.305,0.366,84.754
120839,141428,9298,-0.135,1.019,0.137,-0.061,0.305,0.366,84.758
120839,141420,11252,-0.13,1.017,0.139,-0.061,0.305,0.244,84.764
120812,141428,9298,-0.13,1.017,0.139,-0.061,0.305,0.244,84.768
120812,141374,11248,-0.131,1.018,0.139,-0.061,0.305,0.244,84.774
120826,141428,9298,-0.129,1.014,0.136,-0.549,0.305,0.488,84.778
120826,141362,11238,-0.129,1.012,0.13,-0.549,0.305,0.488,84.784
120811,141428,9298,-0.128,1.008,0.128,-0.61,0.366,0.549,84.788
120811,141387,11241,-0.13,1.007,0.129,-0.61,0.366,0.549,84.794
120809,141428,9298,-0.133,1.012,0.13,0.061,0.488,0.244,84.798
120809,141379,11232,-0.134,1.016,0.134,0.061,0.488,0.244,84.804
120799,141428,9298,-0.135,1.019,0.131,0.671,0.427,0.061,84.808
120799,141416,11235,-0.135,1.019,0.134,0.671,0.427,0.061,84.814
120770,141428,9298,-0.135,1.016,0.131,0.732,0.122,0.061,84.817
120770,141363,11246,-0.136,1.016,0.13,0.732,0.122,0.061,84.824
120784,141428,9298,-0.135,1.018,0.133,-0.427,-0.244,0.244,84.827
120784,141372,11249,-0.132,1.016,0.132,-0.427,-0.244,0.244,84.833
120789,141428,9298,-0.128,1.009,0.133,-1.098,-0.427,0.427,84.837
120789,141365,11260,-0.131,1.006,0.138,-1.098,-0.427,0.427,84.843
120795,141428,9298,-0.128,1.007,0.141,-0.854,-0.488,0.549,84.847
120795,141367,11240,-0.129,1.007,0.142,-0.854,-0.488,0.549,84.853
120788,141428,9298,-0.127,1.009,0.141,-0.793,-0.366,0.488,84.857
120788,141372,11224,-0.129,1.015,0.143,-0.793,-0.366,0.488,84.863
120818,141428,9298,-0.128,1.012,0.14,-0.854,0.244,0.366,84.867
120818,141383,11238,-0.131,1.015,0.141,-0.854,0.244,0.366,84.873
120804,141428,9298,-0.132,1.016,0.138,-0.366,0.793,0.366,84.877
120804,141378,11242,-0.13,1.015,0.137,-0.366,0.793,0.366,84.883
120789,141428,9298,-0.13,1.016,0.135,-0.122,0.854,0.366,84.887
120789,141355,11248,-0.132,1.016,0.136,-0.122,0.854,0.366,84.893
120793,141428,9298,-0.13,1.015,0.138,-0.61,0.549,0.305,84.897
120793,141356,11239,-0.134,1.011,0.14,-0.61,0.549,0.305,84.903
120792,141428,9298,-0.134,1.01,0.138,0.061,0.427,0.305,84.907
120792,141390,11236,-0.132,1.01,0.137,0.061,0.427,0.305,84.913
120787,141428,9298,-0.131,1.01,0.136,0.122,0.427,0.305,84.916
120787,141365,11249,-0.134,1.011,0.137,0.122,0.427,0.305,84.923
120790,141428,9298,-0.132,1.013,0.135,-0.122,0.305,0.366,84.926
120790,141368,11252,-0.132,1.014,0.133,-0.122,0.305,0.366,84.932
120787,141428,9298,-0.131,1.01,0.137,0.061,0.061,0.488,84.936
120787,141366,11254,-0.132,1.014,0.135,0.061,0.061,0.488,84.942
120813,141428,9298,-0.129,1.015,0.136,0.305,0.183,0.61,84.946
120813,141348,11243,-0.13,1.02,0.137,0.305,0.183,0.61,84.952
120793,141428,9298,-0.129,1.024,0.138,-0.366,0.061,0.488,84.956
120793,141384,11243,-0.126,1.021,0.137,-0.366,0.061,0.488,84.962
120802,141428,9298,-0.128,1.018,0.134,-1.159,0.183,0.427,84.966
120802,141381,11262,-0.127,1.015,0.136,-1.159,0.183,0.427,84.972
120813,141428,9298,-0.128,1.012,0.138,-1.159,0.549,0.488,84.976
120813,141418,11240,-0.131,1.009,0.133,-1.159,0.549,0.488,84.982
120833,141428,9298,-0.138,1.007,0.133,-1.402,0.976,0.488,84.986
120833,141394,11254,-0.138,1.01,0.136,-1.402,0.976,0.488,84.992
120825,141428,9298,-0.138,1.013,0.133,-1.402,0.854,0.427,84.996
120825,141390,11244,-0.135,1.012,0.134,-1.402,0.854,0.427,85.002
120829,141428,9298,-0.136,1.009,0.135,0.061,0.488,0.549,85.006
120829,141406,11255,-0.136,1.011,0.133,0.061,0.488,0.549,85.012
120825,141428,9298,-0.135,1.016,0.141,0.732,0.183,0.61,85.015
120825,141395,11247,-0.131,1.022,0.144,0.732,0.183,0.61,85.022
120804,141428,9298,-0.127,1.022,0.143,0.671,0.122,0.549,85.025
120804,141410,11249,-0.131,1.02,0.139,0.671,0.122,0.549,85.032
120821,141428,9298,-0.128,1.017,0.143,0.793,0.366,0.183,85.035
120821,141394,11252,-0.13,1.015,0.144,0.793,0.366,0.183,85.041
120824,141428,9298,-0.133,1.015,0.141,-0.427,0.732,0,85.045
120824,141400,11255,-0.13,1.01,0.135,-0.427,0.732,0,85.051
120834,141428,9298,-0.128,1.002,0.136,-0.427,0.671,-0.122,85.055
120834,141413,11243,-0.131,1.003,0.134,-0.427,0.671,-0.122,85.061
120838,141428,9298,-0.134,1.008,0.134,0.488,0.549,0.183,85.065
120838,141412,11254,-0.134,1.01,0.136,0.488,0.549,0.183,85.071
120834,141428,9298,-0.133,1.016,0.132,0.915,0.488,-0.061,85.075
120834,141415,11239,-0.132,1.019,0.13,0.915,0.488,-0.061,85.081
120796,141428,9298,-0.132,1.019,0.131,0.854,0.549,-0.122,85.085
120796,141415,11255,-0.133,1.018,0.134,0.854,0.549,-0.122,85.091
120830,141428,9298,-0.134,1.015,0.135,0.305,0.366,0.244,85.095
120830,141418,11244,-0.133,1.011,0.135,0.305,0.366,0.244,85.101
120805,141428,9298,-0.132,1.011,0.135,-0.732,0.122,0.488,85.105
120805,141416,11245,-0.128,1.012,0.136,-0.732,0.122,0.488,85.111
120815,141428,9298,-0.13,1.011,0.136,-0.793,0.061,0.366,85.114
120815,141380,11241,-0.132,1.008,0.135,-0.793,0.061,0.366,85.121
120827,141428,9298,-0.131,1.011,0.132,0.244,0.488,0.366,85.124
120827,141405,11258,-0.132,1.018,0.136,0.244,0.488,0.366,85.13
120815,141428,9298,-0.136,1.02,0.14,0.427,0.61,0.427,85.134
120815,141412,11243,-0.134,1.019,0.138,0.427,0.61,0.427,85.14
120816,141428,9298,-0.132,1.016,0.136,-0.183,0.732,0.122,85.144
120816,141394,11254,-0.132,1.017,0.138,-0.183,0.732,0.122,85.15
120819,141428,9298,-0.131,1.015,0.135,-0.732,0.549,0.122,85.154
120819,141400,11252,-0.132,1.009,0.142,-0.732,0.549,0.122,85.16
120842,141428,9298,-0.132,1.009,0.144,-0.488,0.244,0.427,85.164
120842,141427,11244,-0.131,1.006,0.14,-0.488,0.244,0.427,85.17
120838,141428,9298,-0.131,1.005,0.135,0.366,0.427,0.305,85.174
120838,141414,11263,-0.13,1.009,0.128,0.366,0.427,0.305,85.18
120826,141428,9298,-0.132,1.013,0.131,0.976,0.671,0.183,85.184
120826,141418,11256,-0.132,1.016,0.134,0.976,0.671,0.183,85.19
120852,141428,9298,-0.134,1.018,0.135,0.732,0.488,0.122,85.194
120852,141421,11241,-0.133,1.02,0.128,0.732,0.488,0.122,85.2
120824,141428,9298,-0.13,1.016,0.129,0.122,0.305,0.061,85.203
120824,141416,11262,-0.13,1.012,0.134,0.122,0.305,0.061,85.21
120844,141428,9298,-0.13,1.012,0.134,0.122,0.305,0.061,85.213
120844,141400,11265,-0.135,1.016,0.133,0.305,0.244,0.244,85.22
120847,141428,9298,-0.135,1.016,0.133,0.305,0.244,0.244,85.223
120847,141411,11241,-0.13,1.016,0.128,-0.183,0.061,0.549,85.229
120815,141428,9298,-0.13,1.016,0.128,-0.183,0.061,0.549,85.233
120815,141403,11258,-0.131,1.009,0.127,-0.915,0,0.366,85.239
120832,141428,9298,-0.131,1.009,0.127,-0.915,0,0.366,85.243
120832,141425,11242,-0.13,1.01,0.135,-0.854,0.183,0.305,85.249
120855,141428,9298,-0.13,1.01,0.135,-0.854,0.183,0.305,85.253
120855,141438,11260,-0.132,1.012,0.137,-0.244,0.244,0.427,85.259
120859,141428,9298,-0.132,1.012,0.137,-0.244,0.244,0.427,85.263
120859,141420,11249,-0.133,1.018,0.145,0.122,0.244,0.549,85.269
120847,141428,9298,-0.133,1.018,0.145,0.122,0.244,0.549,85.273
120847,141426,11240,-0.133,1.02,0.142,0.183,0.244,0.305,85.279
120843,141428,9298,-0.133,1.02,0.142,0.183,0.244,0.305,85.283
120843,141397,11259,-0.134,1.015,0.138,-0.122,0.366,0.305,85.289
120830,141428,9298,-0.134,1.015,0.138,-0.122,0.366,0.305,85.293
120830,141400,11234,-0.137,1.014,0.136,-0.854,0.61,0.244,85.299
120813,141428,9298,-0.137,1.014,0.136,-0.854,0.61,0.244,85.303
120813,141381,11263,-0.137,1.009,0.136,-0.854,0.549,0.183,85.309
120811,141428,9298,-0.137,1.009,0.136,-0.854,0.549,0.183,85.312
120811,141382,11260,-0.131,1.012,0.135,-0.488,0.183,0.366,85.319
120789,141428,9298,-0.131,1.012,0.135,-0.488,0.183,0.366,85.322
120789,141357,11232,-0.126,1.014,0.14,0.366,-0.122,0.427,85.328
120789,141428,9298,-0.126,1.014,0.14,0.366,-0.122,0.427,85.332
120789,141375,11250,-0.124,1.019,0.14,0.915,-0.183,0.305,85.338
120788,141428,9298,-0.124,1.019,0.14,0.915,-0.183,0.305,85.342
120788,141349,11247,-0.124,1.016,0.133,0.488,0.061,0.122,85.348
120789,141428,9298,-0.124,1.016,0.133,0.488,0.061,0.122,85.352
120789,141348,11244,-0.127,1.013,0.133,-0.305,0.427,-0.183,85.358
120795,141428,9298,-0.131,1.014,0.129,-0.305,0.427,-0.183,85.362
120795,141370,11252,-0.132,1.012,0.131,-0.61,0.976,-0.305,85.368
120786,141428,9298,-0.139,1.012,0.131,-0.61,0.976,-0.305,85.372
120786,141363,11251,-0.14,1.014,0.127,-0.427,1.037,-0.122,85.378
120795,141428,9298,-0.141,1.012,0.13,-0.427,1.037,-0.122,85.382
120795,141378,11233,-0.138,1.008,0.134,-0.122,0.793,0,85.388
120775,141428,9298,-0.136,1.006,0.138,-0.122,0.793,0,85.392
120775,141359,11231,-0.135,1.006,0.139,-0.122,0.183,0.183,85.398
120788,141428,9298,-0.133,1.009,0.14,-0.122,0.183,0.183,85.401
120788,141374,11254,-0.13,1.011,0.139,-0.549,-0.061,0.488,85.408
120780,141428,9298,-0.126,1.012,0.137,-0.549,-0.061,0.488,85.411
120780,141355,11239,-0.125,1.011,0.139,0.183,0.183,0.427,85.418
120778,141428,9298,-0.127,1.015,0.14,0.183,0.183,0.427,85.421
120778,141356,11243,-0.131,1.019,0.142,0.488,0.488,0.305,85.427
120761,141428,9298,-0.132,1.017,0.142,0.488,0.488,0.305,85.431
120761,141362,11226,-0.132,1.017,0.137,-0.366,0.732,0.183,85.437
120750,141428,9298,-0.133,1.017,0.135,-0.366,0.732,0.183,85.441
120750,141356,11248,-0.132,1.012,0.136,-0.183,0.976,0,85.447
120776,141428,9298,-0.134,1.009,0.138,-0.183,0.976,0,85.451
120776,141376,11230,-0.135,1.01,0.141,0.122,0.915,0.061,85.457
120749,141428,9298,-0.134,1.008,0.135,0.122,0.915,0.061,85.461
120749,141374,11236,-0.133,1.007,0.131,0,0.793,0.122,85.467
120772,141428,9298,-0.134,1.011,0.132,0,0.793,0.122,85.471
120772,141373,11244,-0.135,1.011,0.129,0.366,0.61,0.244,85.477
120771,141428,9298,-0.136,1.015,0.131,0.366,0.61,0.244,85.481
120771,141358,11226,-0.133,1.016,0.129,0.671,0.549,0.244,85.487
120754,141428,9298,-0.131,1.017,0.131,0.671,0.549,0.244,85.491
120754,141364,11226,-0.13,1.015,0.134,0.854,0.488,0.305,85.497
120731,141428,9298,-0.13,1.017,0.136,0.854,0.488,0.305,85.5
120731,141350,11243,-0.13,1.018,0.132,0.427,0.366,0.488,85.507
120764,141428,9298,-0.133,1.017,0.129,0.427,0.366,0.488,85.51
120764,141355,11243,-0.132,1.013,0.136,-0.366,0.427,0.488,85.517
120768,141428,9298,-0.129,1.012,0.138,-0.366,0.427,0.488,85.52
120768,141350,11228,-0.131,1.01,0.136,-0.549,0.366,0.366,85.526
120794,141428,9298,-0.13,1.011,0.136,-0.549,0.366,0.366,85.53
120794,141350,11247,-0.134,1.016,0.132,-0.61,0.427,0.183,85.536
120778,141428,9298,-0.135,1.019,0.134,-0.61,0.427,0.183,85.54
120778,141358,11226,-0.134,1.016,0.135,-0.183,0.366,0.183,85.546
120758,141428,9298,-0.132,1.01,0.138,-0.183,0.366,0.183,85.55
120758,141336,11234,-0.13,1.008,0.14,0.61,0.305,0.366,85.556
120762,141428,9298,-0.133,1.009,0.131,0.61,0.305,0.366,85.56
120762,141365,11254,-0.135,1.01,0.127,0.305,0.305,0.61,85.566
120780,141428,9298,-0.132,1.017,0.131,0.305,0.305,0.61,85.57
120780,141365,11230,-0.131,1.019,0.134,-0.122,0.305,0.427,85.576
120783,141428,9298,-0.13,1.02,0.136,-0.122,0.305,0.427,85.58
120783,141408,11237,-0.133,1.015,0.135,0.305,0,0.183,85.586
120775,141428,9298,-0.133,1.01,0.132,0.305,0,0.183,85.59
120775,141378,11249,-0.132,1.008,0.134,0.427,-0.061,0.183,85.596
120793,141428,9298,-0.134,1.013,0.131,0.427,-0.061,0.183,85.599
120793,141351,11233,-0.132,1.019,0.131,-0.366,0.244,0.427,85.606
120753,141428,9298,-0.134,1.02,0.133,-0.366,0.244,0.427,85.609
120753,141363,11238,-0.135,1.019,0.131,-0.732,0.366,0.244,85.616
120758,141428,9298,-0.135,1.014,0.132,-0.732,0.366,0.244,85.619
120758,141336,11232,-0.135,1.009,0.136,-0.549,0.061,0.244,85.625
120763,141428,9298,-0.131,1.009,0.143,-0.549,0.061,0.244,85.629
120763,141354,11245,-0.132,1.01,0.144,-0.854,-0.305,0.732,85.635
120760,141428,9298,-0.132,1.01,0.143,-0.854,-0.305,0.732,85.639
120760,141364,11241,-0.132,1.014,0.141,-0.732,-0.183,0.61,85.645
120767,141428,9298,-0.131,1.016,0.132,-0.732,-0.183,0.61,85.649
120767,141365,11237,-0.133,1.018,0.136,-0.366,0.305,0.122,85.655
120773,141428,9298,-0.135,1.017,0.14,-0.366,0.305,0.122,85.659
120773,141364,11223,-0.138,1.014,0.138,0.244,0.549,-0.183,85.665
120774,141428,9298,-0.138,1.012,0.141,0.244,0.549,-0.183,85.669
120774,141360,11246,-0.133,1.007,0.135,-0.244,0.549,0.122,85.675
120778,141428,9298,-0.13,1.009,0.134,-0.244,0.549,0.122,85.679
120778,141348,11248,-0.133,1.01,0.13,-1.159,0.122,0.549,85.685
120781,141428,9298,-0.132,1.007,0.13,-1.159,0.122,0.549,85.689
120781,141380,11256,-0.131,1.01,0.135,-0.671,0.122,0.488,85.695
120791,141428,9298,-0.131,1.01,0.136,-0.671,0.122,0.488,85.698
120791,141397,11237,-0.13,1.01,0.131,0.122,0.366,0.122,85.705
120779,141428,9298,-0.13,1.015,0.127,0.122,0.366,0.122,85.708
120779,141365,11250,-0.131,1.019,0.126,-0.244,0.488,0.366,85.715
120774,141428,9298,-0.132,1.018,0.134,-0.244,0.488,0.366,85.718
120774,141364,11232,-0.131,1.016,0.14,-0.305,0.305,0.671,85.724
120775,141428,9298,-0.128,1.017,0.14,-0.305,0.305,0.671,85.728
120775,141362,11223,-0.128,1.016,0.137,0.305,0.244,0.549,85.734
120760,141428,9298,-0.13,1.015,0.137,0.305,0.244,0.549,85.738
120760,141359,11241,-0.13,1.016,0.136,-0.549,0.427,0.244,85.744
120766,141428,9298,-0.132,1.017,0.135,-0.549,0.427,0.244,85.748
120766,141360,11253,-0.131,1.012,0.138,-0.366,0.549,0.061,85.754
120764,141428,9298,-0.134,1.012,0.141,-0.366,0.549,0.061,85.758
120764,141350,11235,-0.136,1.008,0.133,0.061,0.793,0,85.764
120747,141428,9298,-0.132,1.008,0.13,0.061,0.793,0,85.768
120747,141366,11241,-0.135,1.009,0.13,-0.366,0.671,0.305,85.774
120764,141428,9298,-0.138,1.008,0.132,-0.366,0.671,0.305,85.778
120764,141346,11243,-0.138,1.01,0.134,-0.366,0.61,0.549,85.784
120764,141428,9298,-0.137,1.011,0.136,-0.366,0.61,0.549,85.788
120764,141365,11225,-0.136,1.012,0.137,0.061,0.488,0.61,85.794
120761,141428,9298,-0.132,1.013,0.14,0.061,0.488,0.61,85.798
120761,141377,11231,-0.132,1.02,0.137,0.122,0.305,0.61,85.804
120760,141428,9298,-0.132,1.02,0.137,0.122,0.305,0.61,85.807
120760,141373,11236,-0.13,1.019,0.133,0.061,0.427,0.671,85.814
120749,141428,9298,-0.13,1.019,0.133,0.061,0.427,0.671,85.817
120749,141358,11234,-0.133,1.017,0.13,-0.549,0.671,0.61,85.823
120734,141428,9298,-0.133,1.017,0.13,-0.549,0.671,0.61,85.827
120734,141340,11242,-0.13,1.015,0.135,-0.488,0.732,0.427,85.833
120709,141428,9298,-0.13,1.015,0.135,-0.488,0.732,0.427,85.837
120709,141350,11210,-0.133,1.013,0.135,0.244,0.793,0.244,85.843
120708,141428,9298,-0.133,1.013,0.135,0.244,0.793,0.244,85.847
120708,141327,11231,-0.133,1.013,0.132,0.305,0.732,0.122,85.853
120688,141172,9298,-0.133,1.013,0.132,0.305,0.732,0.122,85.857
120688,141297,11219,-0.134,1.013,0.132,0.183,0.549,0.122,85.863
120690,141172,9298,-0.134,1.013,0.132,0.183,0.549,0.122,85.867
120690,141273,11215,-0.135,1.019,0.131,-0.366,0.305,-0.061,85.873
120683,141172,9298,-0.135,1.019,0.131,-0.366,0.305,-0.061,85.877
120683,141302,11234,-0.135,1.011,0.131,-0.61,0.183,0,85.883
120698,141172,9298,-0.135,1.011,0.131,-0.61,0.183,0,85.887
120698,141255,11238,-0.132,1.012,0.132,-0.549,0.061,0.488,85.893
120681,141172,9298,-0.132,1.012,0.132,-0.549,0.061,0.488,85.896
120681,141286,11225,-0.133,1.013,0.14,-0.427,0,0.488,85.903
120672,141172,9298,-0.133,1.013,0.14,-0.427,0,0.488,85.906
120672,141280,11214,-0.127,1.011,0.142,-0.305,0.305,0.549,85.913
120680,141172,9298,-0.127,1.011,0.142,-0.305,0.305,0.549,85.916
120680,141291,11221,-0.131,1.013,0.139,-0.488,0.61,0.61,85.922
120678,141172,9298,-0.131,1.013,0.139,-0.488,0.61,0.61,85.926
120678,141301,11235,-0.132,1.014,0.135,-0.915,0.915,0.427,85.932
120703,141172,9298,-0.132,1.014,0.135,-0.915,0.915,0.427,85.936
120703,141299,11226,-0.135,1.012,0.136,-0.915,0.915,0.427,85.942
120689,141428,9298,-0.136,1.014,0.136,-0.732,0.793,0.244,85.946
120689,141316,11228,-0.139,1.013,0.134,-0.732,0.793,0.244,85.952
120720,141428,9298,-0.14,1.013,0.135,0.183,0.793,0.244,85.956
120720,141315,11241,-0.138,1.015,0.135,0.183,0.793,0.244,85.962
120725,141428,9298,-0.137,1.018,0.132,0.427,0.671,0.305,85.966
120725,141340,11226,-0.138,1.017,0.131,0.427,0.671,0.305,85.972
120710,141428,9298,-0.138,1.015,0.125,0.366,0.244,0.366,85.976
120710,141319,11241,-0.132,1.015,0.129,0.366,0.244,0.366,85.982
120730,141428,9298,-0.134,1.015,0.134,0.488,0.244,0.305,85.986
120730,141358,11242,-0.13,1.014,0.131,0.488,0.244,0.305,85.992
120753,141428,9298,-0.131,1.014,0.131,-0.183,0.061,0.244,85.995
120753,141340,11231,-0.13,1.011,0.131,-0.183,0.061,0.244,86.002
120725,141428,9298,-0.131,1.013,0.131,-0.366,0.122,0.244,86.005
120725,141341,11246,-0.13,1.01,0.133,-0.366,0.122,0.244,86.012
120752,141428,9298,-0.129,1.012,0.136,-0.122,0.305,0.183,86.015
120752,141348,11228,-0.133,1.015,0.137,-0.122,0.305,0.183,86.021
120738,141428,9298,-0.134,1.012,0.135,-0.488,0.366,0.427,86.025
120738,141334,11242,-0.134,1.008,0.139,-0.488,0.366,0.427,86.031
120746,141428,9298,-0.135,1.01,0.135,-0.366,0.305,0.61,86.035
120746,141332,11247,-0.137,1.015,0.137,-0.366,0.305,0.61,86.041
120756,141428,9298,-0.136,1.018,0.135,-1.037,0.122,0.366,86.045
120756,141339,11248,-0.131,1.015,0.132,-1.037,0.122,0.366,86.051
120735,141428,9298,-0.132,1.014,0.129,-1.402,-0.122,0.244,86.055
120735,141370,11240,-0.136,1.008,0.134,-1.402,-0.122,0.244,86.061
120757,141428,9298,-0.132,1.007,0.137,-0.427,-0.122,0.61,86.065
120757,141350,11251,-0.133,1.012,0.138,-0.427,-0.122,0.61,86.071
120737,141428,9298,-0.132,1.018,0.136,0.061,0,0.671,86.075
120737,141334,11227,-0.132,1.019,0.14,0.061,0,0.671,86.081
120737,141428,9298,-0.13,1.024,0.142,0.61,0.061,0.305,86.085
120737,141357,11232,-0.13,1.019,0.142,0.61,0.061,0.305,86.091
120737,141428,9298,-0.127,1.016,0.144,0.732,0.183,0.061,86.094
120737,141363,11234,-0.126,1.018,0.14,0.732,0.183,0.061,86.101
120749,141428,9298,-0.129,1.015,0.137,0.305,0.671,0.183,86.104
120749,141340,11246,-0.132,1.011,0.136,0.305,0.671,0.183,86.111
120733,141428,9298,-0.134,1.009,0.14,-0.366,1.22,0.305,86.114
120733,141332,11246,-0.136,1.011,0.138,-0.366,1.22,0.305,86.12
120718,141428,9298,-0.134,1.006,0.134,-0.488,1.098,0.122,86.124
120718,141343,11223,-0.137,1.006,0.134,-0.488,1.098,0.122,86.13
120709,141428,9298,-0.137,1.007,0.128,-0.244,0.732,0.122,86.134
120709,141328,11241,-0.134,1.008,0.13,-0.244,0.732,0.122,86.14
120728,141428,9298,-0.134,1.01,0.134,0.488,0.732,0.366,86.144
120728,141341,11224,-0.134,1.013,0.136,0.488,0.732,0.366,86.15
120705,141428,9298,-0.134,1.019,0.133,0.854,0.671,0.61,86.154
120705,141339,11238,-0.134,1.02,0.133,0.854,0.671,0.61,86.16
120735,141428,9298,-0.134,1.025,0.138,0.549,0.427,0.61,86.164
120735,141343,11224,-0.127,1.02,0.136,0.549,0.427,0.61,86.17
120730,141428,9298,-0.129,1.017,0.14,0.122,0.427,0.427,86.174
120730,141347,11220,-0.128,1.015,0.135,0.122,0.427,0.427,86.18
120733,141428,9298,-0.129,1.01,0.135,-0.549,0.366,0.427,86.184
120733,141325,11241,-0.129,1.008,0.135,-0.549,0.366,0.427,86.19
120725,141428,9298,-0.133,1.013,0.128,-1.037,0.61,0.488,86.193
120725,141351,11227,-0.135,1.014,0.13,-1.037,0.61,0.488,86.2
120743,141428,9298,-0.137,1.014,0.135,-0.854,0.854,0.183,86.203
120743,141330,11242,-0.136,1.018,0.134,-0.854,0.854,0.183,86.21
120752,141428,9298,-0.138,1.021,0.13,0.366,0.976,-0.061,86.213
120752,141328,11230,-0.14,1.02,0.134,0.366,0.976,-0.061,86.219
120737,141428,9298,-0.139,1.019,0.136,1.22,0.976,0,86.223
120737,141353,11238,-0.137,1.019,0.137,1.22,0.976,0,86.229
120726,141428,9298,-0.136,1.021,0.138,0.61,0.549,0.122,86.233
120726,141346,11235,-0.132,1.015,0.133,0.61,0.549,0.122,86.239
120723,141428,9298,-0.132,1.01,0.135,-0.549,0.061,0.366,86.243
120723,141355,11235,-0.131,1.002,0.132,-0.549,0.061,0.366,86.249
120726,141428,9298,-0.127,0.998,0.13,-0.793,0.061,0.427,86.253
120726,141332,11226,-0.13,0.999,0.132,-0.793,0.061,0.427,86.259
120718,141428,9298,-0.131,1.003,0.133,-0.549,0.427,0.488,86.263
120718,141347,11228,-0.132,1.012,0.135,-0.549,0.427,0.488,86.269
120729,141428,9298,-0.133,1.014,0.135,0.366,0.61,0.427,86.273
120729,141361,11236,-0.136,1.02,0.137,0.366,0.61,0.427,86.279
120732,141428,9298,-0.136,1.021,0.142,1.402,0.427,0.427,86.283
120732,141361,11220,-0.131,1.021,0.142,1.402,0.427,0.427,86.289
120735,141428,9298,-0.128,1.027,0.137,0.366,0.244,0.427,86.292
120735,141337,11240,-0.129,1.025,0.131,0.366,0.244,0.427,86.299
120727,141428,9298,-0.128,1.015,0.124,-1.037,0.122,0.427,86.302
120727,141345,11228,-0.128,1.011,0.129,-1.037,0.122,0.427,86.309
120750,141428,9298,-0.134,1.005,0.13,-0.793,0.427,0.366,86.312
120750,141340,11213,-0.136,1.005,0.131,-0.793,0.427,0.366,86.318
120746,141428,9298,-0.139,1.008,0.128,-0.488,0.488,0.366,86.322
120746,141332,11241,-0.14,1.01,0.131,-0.488,0.488,0.366,86.328
120739,141428,9298,-0.139,1.012,0.13,0.427,0.244,0.244,86.332
120739,141343,11230,-0.14,1.017,0.137,0.427,0.244,0.244,86.338
120745,141428,9298,-0.137,1.02,0.14,1.22,-0.122,0.244,86.342
120745,141330,11237,-0.132,1.022,0.137,1.22,-0.122,0.244,86.348
120716,141428,9298,-0.132,1.021,0.138,0.671,-0.305,0.488,86.352
120716,141353,11226,-0.133,1.019,0.135,0.671,-0.305,0.488,86.358
120723,141428,9298,-0.13,1.015,0.138,-0.305,-0.305,0.488,86.362
120723,141344,11231,-0.129,1.01,0.141,-0.305,-0.305,0.488,86.368
120714,141428,9298,-0.13,1.005,0.135,-1.098,-0.061,0.061,86.372
120714,141333,11233,-0.128,1.003,0.137,-1.098,-0.061,0.061,86.378
120716,141428,9298,-0.127,1.002,0.139,-0.915,0.244,0.305,86.382
120716,141345,11238,-0.129,1.01,0.134,-0.915,0.244,0.305,86.388
120732,141428,9298,-0.129,1.01,0.134,-0.915,0.244,0.305,86.391
120732,141345,11230,-0.135,1.015,0.137,0.061,0.549,0.366,86.398
120745,141428,9298,-0.135,1.015,0.137,0.061,0.549,0.366,86.401
120745,141362,11236,-0.133,1.022,0.141,0.732,0.671,0.122,86.408
120746,141428,9298,-0.133,1.022,0.141,0.732,0.671,0.122,86.411
120746,141342,11241,-0.135,1.015,0.134,0.793,0.671,0.122,86.417
120748,141428,9298,-0.135,1.015,0.134,0.793,0.671,0.122,86.421
120748,141358,11233,-0.132,1.011,0.131,-0.671,0.61,0.366,86.427
120726,141428,9298,-0.132,1.011,0.131,-0.671,0.61,0.366,86.431
120726,141344,11236,-0.135,1.008,0.135,-0.915,0.732,0.549,86.437
120715,141428,9298,-0.135,1.008,0.135,-0.915,0.732,0.549,86.441
120715,141362,11233,-0.133,1.014,0.127,-0.122,0.549,0.305,86.447
120725,141428,9298,-0.133,1.014,0.127,-0.122,0.549,0.305,86.451
120725,141360,11237,-0.13,1.017,0.13,-0.488,0.366,0.122,86.457
120733,141428,9298,-0.13,1.017,0.13,-0.488,0.366,0.122,86.461
120733,141372,11241,-0.135,1.017,0.134,0.061,0.427,0.244,86.467
120758,141428,9298,-0.135,1.017,0.134,0.061,0.427,0.244,86.471
120758,141379,11223,-0.134,1.018,0.133,0.061,0.488,0.366,86.477
120750,141428,9298,-0.134,1.018,0.133,0.061,0.488,0.366,86.481
120750,141390,11244,-0.135,1.015,0.138,-0.549,0.427,0.427,86.487
120762,141428,9298,-0.135,1.015,0.138,-0.549,0.427,0.427,86.49
120762,141360,11227,-0.133,1.008,0.135,-0.671,0.305,0.183,86.497
120763,141428,9298,-0.133,1.008,0.135,-0.671,0.305,0.183,86.5
120763,141354,11215,-0.135,1.008,0.133,-0.732,0.061,0,86.507
120738,141428,9298,-0.135,1.008,0.133,-0.732,0.061,0,86.51
120738,141369,11233,-0.134,1.008,0.137,-0.366,-0.122,0.183,86.516
120734,141428,9298,-0.134,1.008,0.137,-0.366,-0.122,0.183,86.52
120734,141367,11233,-0.132,1.012,0.133,-0.366,-0.061,0.061,86.526
120764,141428,9298,-0.134,1.017,0.135,-0.366,-0.061,0.061,86.53
120764,141364,11247,-0.131,1.016,0.134,-0.122,0.061,0.244,86.536
120754,141428,9298,-0.131,1.016,0.132,-0.122,0.061,0.244,86.54
120754,141393,11227,-0.13,1.014,0.139,0.915,0.183,0.61,86.546
120749,141428,9298,-0.128,1.016,0.139,0.915,0.183,0.61,86.55
120749,141376,11251,-0.128,1.02,0.131,0.305,0.244,0.671,86.556
120730,141428,9298,-0.129,1.021,0.13,0.305,0.244,0.671,86.56
120730,141340,11241,-0.126,1.019,0.131,-1.159,0.427,0.61,86.566
120727,141428,9298,-0.131,1.012,0.134,-1.159,0.427,0.61,86.57
120727,141347,11217,-0.131,1.009,0.137,-0.976,0.549,0.671,86.576
120722,141428,9298,-0.132,1.008,0.138,-0.976,0.549,0.671,86.58
120722,141354,11219,-0.135,1.01,0.137,-1.159,0.732,0.854,86.586
120729,141428,9298,-0.135,1.01,0.138,-1.159,0.732,0.854,86.589
120729,141344,11223,-0.136,1.012,0.138,-0.793,0.732,0.61,86.596
120717,141428,9298,-0.134,1.017,0.139,-0.793,0.732,0.61,86.599
120717,141342,11229,-0.137,1.02,0.142,0.427,0.915,0.305,86.605
120710,141428,9298,-0.136,1.021,0.139,0.427,0.915,0.305,86.609
120710,141347,11238,-0.137,1.021,0.132,0.732,1.037,0.061,86.615
120686,141428,9298,-0.14,1.018,0.127,0.732,1.037,0.061,86.619
120686,141317,11231,-0.141,1.017,0.132,0,0.915,-0.061,86.625
120705,141428,9298,-0.138,1.013,0.137,0,0.915,-0.061,86.629
120705,141322,11229,-0.137,1.009,0.136,0.061,0.427,0.122,86.635
120704,141428,9298,-0.135,1.006,0.138,0.061,0.427,0.122,86.639
120704,141351,11222,-0.134,1.007,0.132,-0.427,0.061,0.488,86.645
120691,141428,9298,-0.13,1.005,0.129,-0.427,0.061,0.488,86.649
120691,141325,11226,-0.129,1.005,0.127,0,0.122,0.305,86.655
120699,141428,9298,-0.129,1.009,0.128,0,0.122,0.305,86.659
120699,141342,11235,-0.129,1.015,0.13,1.098,0.366,0.305,86.665
120693,141428,9298,-0.131,1.018,0.135,1.098,0.366,0.305,86.669
120693,141322,11247,-0.132,1.022,0.136,0.61,0.549,0.244,86.675
120696,141428,9298,-0.132,1.021,0.132,0.61,0.549,0.244,86.679
120696,141328,11239,-0.132,1.021,0.135,-0.061,0.549,0.244,86.685
120676,141428,9298,-0.132,1.018,0.13,-0.061,0.549,0.244,86.688
120676,141329,11223,-0.132,1.015,0.133,-0.671,0.183,0.305,86.695
120688,141428,9298,-0.131,1.013,0.138,-0.671,0.183,0.305,86.698
120688,141338,11233,-0.131,1.014,0.141,-1.22,0.366,0.366,86.705
120693,141428,9298,-0.131,1.013,0.139,-1.22,0.366,0.366,86.708
120693,141339,11227,-0.133,1.013,0.136,-0.854,0.671,0.183,86.714
120718,141428,9298,-0.137,1.012,0.138,-0.854,0.671,0.183,86.718
120718,141364,11243,-0.138,1.011,0.135,-0.244,0.854,0.183,86.724
120742,141428,9298,-0.137,1.01,0.138,-0.244,0.854,0.183,86.728
120742,141349,11248,-0.135,1.009,0.14,0.488,0.915,0.305,86.734
120750,141428,9298,-0.134,1.011,0.14,0.488,0.915,0.305,86.738
120750,141374,11244,-0.138,1.017,0.135,0.183,0.793,0.366,86.744
120727,141428,9298,-0.137,1.016,0.131,0.183,0.793,0.366,86.748
120727,141362,11222,-0.134,1.016,0.135,-0.366,0.488,0.305,86.754
120745,141428,9298,-0.135,1.013,0.135,-0.366,0.488,0.305,86.758
120745,141365,11227,-0.133,1.012,0.133,0.305,0.305,0.244,86.764
120746,141428,9298,-0.129,1.012,0.135,0.305,0.305,0.244,86.768
120746,141378,11241,-0.131,1.016,0.132,0.427,0.366,0.427,86.774
120739,141428,9298,-0.132,1.018,0.129,0.427,0.366,0.427,86.778
120739,141382,11233,-0.133,1.02,0.13,-0.122,0.549,0.366,86.784
120772,141428,9298,-0.131,1.016,0.131,-0.122,0.549,0.366,86.787
120772,141400,11235,-0.133,1.014,0.13,-0.488,0.427,0.244,86.794
120762,141428,9298,-0.131,1.013,0.134,-0.488,0.427,0.244,86.797
120762,141395,11245,-0.133,1.01,0.135,-0.549,0.427,0.305,86.804
120754,141428,9298,-0.136,1.012,0.133,-0.549,0.427,0.305,86.807
120754,141378,11229,-0.137,1.011,0.135,-0.183,0.488,0.366,86.813
120750,141428,9298,-0.137,1.014,0.134,-0.183,0.488,0.366,86.817
120750,141368,11238,-0.138,1.013,0.129,-0.427,0.427,0.488,86.823
120744,141428,9298,-0.137,1.016,0.13,-0.427,0.427,0.488,86.827
120744,141372,11242,-0.137,1.016,0.131,-0.671,0.183,0.488,86.833
120796,141428,9298,-0.139,1.016,0.131,-0.671,0.183,0.488,86.837
120796,141395,11240,-0.135,1.014,0.134,-0.244,-0.122,0.366,86.843
120787,141428,9298,-0.13,1.012,0.136,-0.244,-0.122,0.366,86.847
120787,141418,11239,-0.13,1.011,0.137,-0.366,-0.427,0.61,86.853
120784,141428,9298,-0.128,1.012,0.137,-0.366,-0.427,0.61,86.857
120784,141412,11247,-0.128,1.013,0.137,-0.854,-0.488,0.732,86.863
120788,141428,9298,-0.128,1.01,0.136,-0.854,-0.488,0.732,86.867
120788,141437,11260,-0.132,1.01,0.139,-0.488,-0.122,0.488,86.873
120785,141428,9298,-0.133,1.013,0.143,-0.488,-0.122,0.488,86.877
