119807,143044,10800,-0.078,1.016,0.139,0.183,0.732,0.244,491.909
119812,142964,9298,-0.081,1.017,0.137,0,0.671,0.183,491.912
119812,143040,10805,-0.078,1.019,0.136,0,0.671,0.183,491.918
119794,142964,9298,-0.077,1.02,0.138,-0.488,0.305,0.244,491.922
119794,143052,10793,-0.075,1.019,0.14,-0.488,0.305,0.244,491.928
119836,142964,9298,-0.076,1.018,0.141,-0.488,0.183,0.488,491.932
119836,143058,10802,-0.076,1.021,0.141,-0.488,0.183,0.488,491.938
119806,142964,9298,-0.077,1.016,0.14,-0.305,0.061,0.488,491.942
119806,143077,10807,-0.073,1.013,0.14,-0.305,0.061,0.488,491.948
119795,142964,9298,-0.074,1.013,0.141,0.366,0.244,0.427,491.952
119795,143052,10800,-0.075,1.017,0.139,0.366,0.244,0.427,491.958
119814,142964,9298,-0.077,1.018,0.138,0,0.488,0.427,491.962
119814,143076,10793,-0.078,1.024,0.135,0,0.488,0.427,491.968
119810,142964,9298,-0.077,1.02,0.138,-0.427,0.427,0.488,491.972
119810,143040,10800,-0.074,1.015,0.141,-0.427,0.427,0.488,491.978
119831,142964,9298,-0.073,1.015,0.141,0.427,0.183,0.366,491.982
119831,143083,10794,-0.075,1.014,0.138,0.427,0.183,0.366,491.988
119817,142964,9298,-0.075,1.014,0.138,0.427,0.183,0.366,491.991
119817,143074,10812,-0.078,1.022,0.136,-0.122,0.427,0.427,491.998
119831,142964,9298,-0.078,1.022,0.136,-0.122,0.427,0.427,492.001
119831,143080,10823,-0.079,1.026,0.139,-1.22,0.427,0.366,492.008
119822,142964,9298,-0.079,1.026,0.139,-1.22,0.427,0.366,492.011
119822,143080,10802,-0.077,1.019,0.137,-0.61,0.122,0.244,492.017
119826,142964,9298,-0.077,1.019,0.137,-0.61,0.122,0.244,492.021
119826,143089,10807,-0.072,1.02,0.144,-0.732,0,0.122,492.027
119823,143220,9298,-0.072,1.02,0.144,-0.732,0,0.122,492.031
119823,143107,10792,-0.077,1.016,0.138,-1.463,0.061,0.244,492.037
119817,142964,9298,-0.077,1.016,0.138,-1.463,0.061,0.244,492.041
119817,143058,10817,-0.079,1.011,0.139,-0.976,0.305,0.244,492.047
119831,142964,9298,-0.079,1.011,0.139,-0.976,0.305,0.244,492.051
119831,143057,10803,-0.079,1.022,0.144,-0.976,0.427,0.244,492.057
119836,142964,9298,-0.079,1.022,0.144,-0.976,0.427,0.244,492.061
119836,143068,10800,-0.076,1.017,0.14,-1.037,0,0.305,492.067
119830,142964,9298,-0.076,1.017,0.14,-1.037,0,0.305,492.071
119830,143075,10811,-0.076,1.013,0.14,0.061,-0.061,0.427,492.077
119840,142964,9298,-0.076,1.013,0.14,0.061,-0.061,0.427,492.081
119840,143085,10801,-0.073,1.017,0.141,0.122,0.122,0.549,492.087
119829,142964,9298,-0.073,1.017,0.141,0.122,0.122,0.549,492.091
119829,143094,10826,-0.077,1.021,0.143,-0.305,0.366,0.305,492.097
119847,143220,9298,-0.077,1.021,0.143,-0.305,0.366,0.305,492.1
119847,143104,10802,-0.076,1.02,0.141,0.183,0.427,0.305,492.107
119855,142964,9298,-0.076,1.02,0.141,0.183,0.427,0.305,492.11
119855,143072,10821,-0.075,1.015,0.141,0.366,0.427,0.427,492.116
119869,142964,9298,-0.075,1.015,0.141,0.366,0.427,0.427,492.12
119869,143090,10816,-0.078,1.02,0.138,0.061,0.549,0.366,492.126
119840,143220,9298,-0.078,1.02,0.138,0.061,0.549,0.366,492.13
119840,143126,10807,-0.077,1.024,0.141,-0.122,0.549,0.244,492.136
119840,142964,9298,-0.076,1.021,0.141,-0.122,0.549,0.244,492.14
119840,143073,10824,-0.075,1.02,0.139,0.366,0.549,0.183,492.146
119840,142964,9298,-0.077,1.019,0.136,0.366,0.549,0.183,492.15
119840,143095,10825,-0.077,1.017,0.143,0.122,0.671,0.244,492.156
119844,143220,9298,-0.078,1.021,0.137,0.122,0.671,0.244,492.16
119844,143106,10821,-0.077,1.021,0.138,-0.183,0.732,0.305,492.166
119841,142964,9298,-0.077,1.019,0.14,-0.183,0.732,0.305,492.17
119841,143102,10808,-0.077,1.016,0.142,0.366,0.61,0.183,492.176
119825,142964,9298,-0.078,1.013,0.142,0.366,0.61,0.183,492.18
119825,143091,10821,-0.078,1.016,0.141,0.244,0.549,0.244,492.186
119841,142964,9298,-0.076,1.016,0.141,0.244,0.549,0.244,492.19
119841,143088,10814,-0.08,1.019,0.143,0.122,0.549,0.366,492.196
119845,142964,9298,-0.075,1.017,0.138,0.122,0.549,0.366,492.199
119845,143094,10802,-0.076,1.015,0.142,0.305,0.305,0.61,492.206
119838,142964,9298,-0.077,1.015,0.138,0.305,0.305,0.61,492.209
119838,143065,10812,-0.075,1.014,0.141,0.183,0.244,0.671,492.215
119821,142964,9298,-0.073,1.015,0.142,0.183,0.244,0.671,492.219
119821,143067,10821,-0.074,1.016,0.142,0.244,0.366,0.61,492.225
119818,142964,9298,-0.073,1.018,0.138,0.244,0.366,0.61,492.229
119818,143073,10800,-0.076,1.022,0.135,0.366,0.488,0.549,492.235
119827,142964,9298,-0.078,1.022,0.136,0.366,0.488,0.549,492.239
119827,143086,10813,-0.076,1.021,0.138,-0.061,0.549,0.427,492.245
119822,142964,9298,-0.075,1.025,0.138,-0.061,0.549,0.427,492.249
119822,143064,10811,-0.076,1.026,0.137,-0.732,0.244,0.305,492.255
119822,142964,9298,-0.076,1.025,0.14,-0.732,0.244,0.305,492.259
119822,143086,10814,-0.074,1.023,0.14,-0.976,0.183,0.183,492.265
119812,142964,9298,-0.077,1.019,0.141,-0.976,0.183,0.183,492.269
119812,143095,10818,-0.076,1.015,0.137,-1.098,0.244,0.305,492.275
119824,142964,9298,-0.076,1.013,0.139,-1.098,0.244,0.305,492.279
119824,143078,10822,-0.075,1.014,0.139,-0.732,0.366,0.244,492.285
119832,142964,9298,-0.075,1.016,0.141,-0.732,0.366,0.244,492.288
119832,143087,10801,-0.078,1.018,0.14,-0.793,0.366,0.061,492.295
119844,142964,9298,-0.08,1.023,0.142,-0.793,0.366,0.061,492.298
119844,143100,10823,-0.077,1.021,0.141,-0.976,0.427,0.244,492.305
119824,143220,9298,-0.076,1.016,0.141,-0.976,0.427,0.244,492.308
119824,143108,10816,-0.074,1.015,0.141,-0.244,0.305,0.305,492.314
119843,142964,9298,-0.072,1.013,0.139,-0.244,0.305,0.305,492.318
119843,143099,10834,-0.076,1.01,0.141,-0.122,0.305,0.366,492.324
119853,142964,9298,-0.077,1.014,0.14,-0.122,0.305,0.366,492.328
119853,143091,10809,-0.077,1.015,0.14,-0.244,0.366,0.488,492.334
119860,143220,9298,-0.076,1.016,0.14,-0.244,0.366,0.488,492.338
119860,143104,10811,-0.075,1.019,0.14,-0.061,0.488,0.549,492.344
119850,143220,9298,-0.077,1.023,0.138,-0.061,0.488,0.549,492.348
119850,143109,10831,-0.075,1.024,0.14,-0.305,0.244,0.61,492.354
119865,142964,9298,-0.079,1.024,0.139,-0.305,0.244,0.61,492.358
119865,143097,10836,-0.075,1.018,0.139,-0.305,0.122,0.61,492.364
119869,142964,9298,-0.076,1.017,0.141,-0.305,0.122,0.61,492.368
119869,143094,10827,-0.076,1.02,0.143,-0.244,0.122,0.488,492.374
119851,143220,9298,-0.075,1.02,0.141,-0.244,0.122,0.488,492.378
119851,143134,10825,-0.075,1.017,0.142,-0.366,0.244,0.366,492.384
119850,143220,9298,-0.074,1.013,0.139,-0.366,0.244,0.366,492.388
119850,143133,10819,-0.073,1.013,0.138,0.122,0.427,0.488,492.394
119852,143220,9298,-0.075,1.016,0.142,0.122,0.427,0.488,492.397
119852,143126,10824,-0.076,1.019,0.138,0.061,0.549,0.427,492.404
119849,143220,9298,-0.076,1.021,0.14,0.061,0.549,0.427,492.407
119849,143111,10834,-0.075,1.021,0.139,0,0.488,0.305,492.413
119862,142964,9298,-0.074,1.018,0.14,0,0.488,0.305,492.417
119862,143089,10811,-0.074,1.02,0.139,0.183,0.427,0.305,492.423
119846,143220,9298,-0.073,1.019,0.139,0.183,0.427,0.305,492.427
119846,143126,10808,-0.077,1.017,0.136,0.183,0.549,0.366,492.433
119845,142964,9298,-0.078,1.017,0.139,0.183,0.549,0.366,492.437
119845,143101,10828,-0.077,1.018,0.139,-0.488,0.549,0.427,492.443
119854,143220,9298,-0.075,1.021,0.14,-0.488,0.549,0.427,492.447
119854,143111,10828,-0.078,1.02,0.136,-0.61,0.183,0.366,492.453
119820,142964,9298,-0.078,1.016,0.139,-0.61,0.183,0.366,492.457
119820,143092,10824,-0.076,1.014,0.143,-0.122,0.061,0.488,492.463
119826,142964,9298,-0.075,1.015,0.142,-0.122,0.061,0.488,492.467
119826,143091,10833,-0.075,1.016,0.141,-0.488,0.061,0.549,492.473
119818,142964,9298,-0.077,1.021,0.139,-0.488,0.061,0.549,492.477
119818,143055,10809,-0.076,1.026,0.139,-0.976,0.183,0.61,492.483
119809,142964,9298,-0.077,1.021,0.138,-0.976,0.183,0.61,492.486
119809,143051,10810,-0.074,1.016,0.136,-0.366,0.183,0.488,492.493
119787,142964,9298,-0.073,1.015,0.138,-0.366,0.183,0.488,492.496
119787,143072,10803,-0.074,1.016,0.141,-0.488,0.183,0.366,492.503
119792,142964,9298,-0.077,1.016,0.141,-0.488,0.183,0.366,492.506
119792,143048,10817,-0.078,1.018,0.143,-1.037,0.183,0.488,492.512
119796,142964,9298,-0.077,1.016,0.144,-1.037,0.183,0.488,492.516
119796,143071,10824,-0.074,1.016,0.143,-0.427,0.122,0.488,492.522
119807,142964,9298,-0.074,1.015,0.144,-0.427,0.122,0.488,492.526
119807,143046,10813,-0.074,1.015,0.14,0.244,0.122,0.244,492.532
119795,142964,9298,-0.075,1.019,0.135,0.244,0.122,0.244,492.536
119795,143056,10812,-0.073,1.021,0.14,-0.183,0.488,0.305,492.542
119817,142964,9298,-0.075,1.023,0.143,-0.183,0.488,0.305,492.546
119817,143070,10825,-0.075,1.02,0.14,-0.488,0.671,0.366,492.552
119820,142964,9298,-0.079,1.012,0.141,-0.488,0.671,0.366,492.556
119820,143069,10814,-0.078,1.009,0.141,0.061,0.488,0.488,492.562
119832,142964,9298,-0.077,1.01,0.14,0.061,0.488,0.488,492.566
119832,143100,10815,-0.074,1.014,0.141,0.061,0.244,0.488,492.572
119837,142964,9298,-0.074,1.017,0.14,0.061,0.244,0.488,492.576
119837,143087,10829,-0.075,1.02,0.14,-0.122,0.183,0.427,492.582
119831,142964,9298,-0.075,1.02,0.14,-0.122,0.183,0.427,492.586
119831,143094,10827,-0.074,1.022,0.135,-0.061,0.366,0.366,492.592
119838,142964,9298,-0.074,1.022,0.135,-0.061,0.366,0.366,492.595
119838,143098,10808,-0.076,1.019,0.139,0.122,0.427,0.305,492.602
119825,142964,9298,-0.076,1.019,0.139,0.122,0.427,0.305,492.605
119825,143090,10808,-0.077,1.018,0.139,-0.183,0.366,0.244,492.611
119821,142964,9298,-0.077,1.018,0.139,-0.183,0.366,0.244,492.615
119821,143078,10829,-0.076,1.021,0.139,-0.915,0.366,0.183,492.621
119825,142964,9298,-0.076,1.021,0.139,-0.915,0.366,0.183,492.625
119825,143085,10811,-0.078,1.017,0.144,-0.671,0.305,0.244,492.631
119821,142964,9298,-0.078,1.017,0.144,-0.671,0.305,0.244,492.635
119821,143100,10827,-0.072,1.014,0.143,-0.244,0.366,0.122,492.641
119845,142964,9298,-0.072,1.014,0.143,-0.244,0.366,0.122,492.645
119845,143103,10822,-0.076,1.016,0.141,-0.732,0.366,0.122,492.651
119834,143220,9298,-0.076,1.016,0.141,-0.732,0.366,0.122,492.655
119834,143113,10839,-0.076,1.016,0.138,-0.427,0.305,0.244,492.661
119849,143220,9298,-0.076,1.016,0.138,-0.427,0.305,0.244,492.665
119849,143112,10825,-0.075,1.014,0.139,-0.122,0.244,0.244,492.671
119839,143220,9298,-0.075,1.014,0.139,-0.122,0.244,0.244,492.675
119839,143129,10839,-0.076,1.017,0.143,-0.793,0.305,0.427,492.681
119844,143220,9298,-0.076,1.017,0.143,-0.793,0.305,0.427,492.684
119844,143124,10821,-0.077,1.016,0.143,-0.732,0.183,0.549,492.691
119819,143220,9298,-0.077,1.016,0.143,-0.732,0.183,0.549,492.694
119819,143112,10829,-0.074,1.016,0.14,-0.244,0.122,0.549,492.701
119830,142964,9298,-0.074,1.016,0.14,-0.244,0.122,0.549,492.704
119830,143086,10820,-0.076,1.017,0.144,-0.244,0.183,0.427,492.71
119851,142964,9298,-0.076,1.017,0.144,-0.244,0.183,0.427,492.714
119851,143084,10822,-0.075,1.019,0.14,-0.183,0.183,0.427,492.72
119811,142964,9298,-0.075,1.019,0.14,-0.183,0.183,0.427,492.724
119811,143099,10833,-0.073,1.02,0.146,-0.183,0.183,0.427,492.73
119814,142964,9298,-0.072,1.019,0.143,0.183,0.305,0.488,492.734
119814,143099,10824,-0.074,1.019,0.14,0.183,0.305,0.488,492.74
119843,142964,9298,-0.074,1.017,0.14,0.427,0.488,0.366,492.744
119843,143096,10835,-0.076,1.018,0.137,0.427,0.488,0.366,492.75
119823,142964,9298,-0.08,1.02,0.139,-0.183,0.549,0.366,492.754
119823,143099,10828,-0.081,1.024,0.14,-0.183,0.549,0.366,492.76
119830,143220,9298,-0.077,1.019,0.139,-0.732,0.427,0.488,492.764
119830,143106,10837,-0.077,1.014,0.141,-0.732,0.427,0.488,492.77
119848,143220,9298,-0.079,1.012,0.139,-0.488,0.061,0.488,492.774
119848,143108,10825,-0.079,1.014,0.141,-0.488,0.061,0.488,492.78
119841,143220,9298,-0.081,1.016,0.144,-0.854,-0.061,0.549,492.784
119841,143124,10829,-0.075,1.021,0.142,-0.854,-0.061,0.549,492.79
119851,143220,9298,-0.074,1.021,0.14,-1.037,-0.183,0.671,492.793
119851,143139,10828,-0.074,1.018,0.141,-1.037,-0.183,0.671,492.8
119848,143220,9298,-0.074,1.013,0.141,-0.305,-0.183,0.671,492.803
119848,143117,10832,-0.075,1.015,0.14,-0.305,-0.183,0.671,492.809
119832,143220,9298,-0.074,1.019,0.141,-0.732,-0.061,0.549,492.813
119832,143130,10845,-0.077,1.021,0.144,-0.732,-0.061,0.549,492.819
119835,143220,9298,-0.073,1.019,0.138,-1.22,0.061,0.488,492.823
119835,143120,10815,-0.074,1.02,0.14,-1.22,0.061,0.488,492.829
119844,143220,9298,-0.076,1.016,0.144,-0.549,0.183,0.427,492.833
119844,143120,10832,-0.072,1.014,0.145,-0.549,0.183,0.427,492.839
119854,143220,9298,-0.072,1.019,0.147,-0.671,0.244,0.305,492.843
119854,143117,10822,-0.076,1.021,0.142,-0.671,0.244,0.305,492.849
119835,143220,9298,-0.076,1.019,0.141,-0.61,0.305,0.122,492.853
119835,143115,10825,-0.075,1.016,0.144,-0.61,0.305,0.122,492.859
119837,142964,9298,-0.075,1.017,0.141,-0.305,0.488,0.061,492.863
119837,143101,10821,-0.078,1.019,0.14,-0.305,0.488,0.061,492.869
119829,143220,9298,-0.078,1.02,0.136,-0.427,0.549,0.122,492.873
119829,143120,10832,-0.077,1.02,0.138,-0.427,0.549,0.122,492.879
119852,143220,9298,-0.078,1.018,0.135,-0.427,0.366,0.122,492.882
119852,143138,10839,-0.077,1.015,0.138,-0.427,0.366,0.122,492.889
119859,143220,9298,-0.078,1.013,0.143,-0.366,0,0.183,492.892
119859,143113,10815,-0.078,1.015,0.145,-0.366,0,0.183,492.899
119851,143220,9298,-0.074,1.013,0.14,-0.427,-0.122,0.305,492.902
119851,143125,10832,-0.075,1.012,0.143,-0.427,-0.122,0.305,492.908
119850,143220,9298,-0.075,1.017,0.143,-0.793,-0.061,0.366,492.912
119850,143140,10839,-0.074,1.019,0.143,-0.793,-0.061,0.366,492.918
119847,143220,9298,-0.077,1.019,0.145,-1.22,0.183,0.549,492.922
119847,143150,10839,-0.078,1.021,0.144,-1.22,0.183,0.549,492.928
119848,143220,9298,-0.074,1.016,0.143,-0.549,0.244,0.488,492.932
119848,143135,10834,-0.072,1.015,0.143,-0.549,0.244,0.488,492.938
119882,143220,9298,-0.075,1.016,0.142,-0.244,0.244,0.427,492.942
119882,143149,10821,-0.077,1.022,0.142,-0.244,0.244,0.427,492.948
119883,143220,9298,-0.077,1.024,0.142,-0.61,0.366,0.366,492.952
119883,143150,10835,-0.078,1.024,0.144,-0.61,0.366,0.366,492.958
119879,143220,9298,-0.077,1.021,0.145,-0.305,0.427,0.488,492.962
119879,143150,10845,-0.075,1.019,0.14,-0.305,0.427,0.488,492.968
119874,143220,9298,-0.076,1.019,0.143,0.122,0.244,0.366,492.972
119874,143133,10839,-0.077,1.019,0.147,0.122,0.244,0.366,492.978
119869,143220,9298,-0.079,1.018,0.143,-0.122,0.122,0.427,492.981
119869,143140,10846,-0.076,1.014,0.139,-0.122,0.122,0.427,492.988
119866,143220,9298,-0.076,1.017,0.138,-0.244,0.244,0.549,492.991
119866,143143,10827,-0.075,1.014,0.138,-0.244,0.244,0.549,492.998
119862,143220,9298,-0.078,1.015,0.141,-0.427,0.244,0.549,493.001
119862,143136,10855,-0.078,1.017,0.141,-0.427,0.244,0.549,493.007
119867,143220,9298,-0.078,1.014,0.143,-0.854,-0.122,0.671,493.011
119867,143152,10838,-0.075,1.014,0.142,-0.854,-0.122,0.671,493.017
119859,143220,9298,-0.075,1.012,0.141,-0.854,-0.305,0.793,493.021
119859,143139,10843,-0.071,1.015,0.14,-0.854,-0.305,0.793,493.027
119875,143220,9298,-0.073,1.018,0.141,-1.341,-0.305,0.854,493.031
119875,143153,10835,-0.073,1.018,0.145,-1.341,-0.305,0.854,493.037
119869,143220,9298,-0.073,1.02,0.146,-1.402,-0.122,0.671,493.041
119869,143139,10834,-0.073,1.02,0.149,-1.402,-0.122,0.671,493.047
119869,143220,9298,-0.073,1.02,0.147,-0.732,0,0.488,493.051
119869,143138,10846,-0.072,1.021,0.146,-0.732,0,0.488,493.057
119861,143220,9298,-0.073,1.019,0.146,-0.244,0.183,0.244,493.061
119861,143157,10846,-0.072,1.021,0.146,-0.244,0.183,0.244,493.067
119872,143220,9298,-0.073,1.021,0.148,0.305,0.366,-0.061,493.071
119872,143168,10839,-0.072,1.021,0.144,0.305,0.366,-0.061,493.077
119872,143220,9298,-0.071,1.021,0.141,0.366,0.671,-0.122,493.081
119872,143174,10839,-0.076,1.02,0.142,0.366,0.671,-0.122,493.087
119876,143220,9298,-0.077,1.02,0.137,-0.244,0.915,0,493.09
119876,143149,10850,-0.079,1.018,0.135,-0.244,0.915,0,493.097
119893,143220,9298,-0.081,1.016,0.138,-0.854,0.732,0,493.1
119893,143156,10836,-0.083,1.011,0.138,-0.854,0.732,0,493.106
119878,143220,9298,-0.079,1.012,0.142,-1.463,0.244,0.183,493.11
119878,143163,10845,-0.078,1.011,0.145,-1.463,0.244,0.183,493.116
119892,143220,9298,-0.077,1.009,0.141,-1.646,-0.305,0.488,493.12
119892,143144,10843,-0.075,1.01,0.142,-1.646,-0.305,0.488,493.126
119913,143220,9298,-0.073,1.013,0.141,-1.463,-0.61,0.549,493.13
119913,143147,10848,-0.074,1.016,0.148,-1.463,-0.61,0.549,493.136
119903,143220,9298,-0.075,1.017,0.147,-1.341,-0.427,0.61,493.14
119903,143188,10830,-0.074,1.021,0.148,-1.341,-0.427,0.61,493.146
119899,143220,9298,-0.072,1.021,0.149,-1.098,0.061,0.61,493.15
119899,143190,10843,-0.075,1.021,0.149,-1.098,0.061,0.61,493.156
119895,143220,9298,-0.073,1.02,0.145,-0.305,0.244,0.488,493.16
119895,143178,10858,-0.073,1.017,0.143,-0.305,0.244,0.488,493.166
119926,143220,9298,-0.073,1.017,0.143,-0.305,0.244,0.488,493.17
119926,143189,10841,-0.072,1.017,0.145,0.183,0.244,0.366,493.176
119922,143220,9298,-0.072,1.017,0.145,0.183,0.244,0.366,493.179
119922,143188,10848,-0.077,1.017,0.145,0,0.427,0.366,493.186
119920,143220,9298,-0.077,1.017,0.145,0,0.427,0.366,493.189
119920,143187,10845,-0.074,1.015,0.147,-0.244,0.366,0.305,493.196
119900,143220,9298,-0.074,1.015,0.147,-0.244,0.366,0.305,493.199
119900,143183,10847,-0.074,1.016,0.143,0.122,0.366,0.366,493.205
119906,143220,9298,-0.074,1.016,0.143,0.122,0.366,0.366,493.209
119906,143170,10853,-0.077,1.019,0.141,0.122,0.305,0.366,493.215
119899,143220,9298,-0.077,1.019,0.141,0.122,0.305,0.366,493.219
119899,143199,10844,-0.076,1.02,0.139,-0.61,0.244,0.427,493.225
119898,143220,9298,-0.076,1.02,0.139,-0.61,0.244,0.427,493.229
119898,143184,10832,-0.078,1.017,0.143,-1.037,0.244,0.549,493.235
119883,143220,9298,-0.078,1.017,0.143,-1.037,0.244,0.549,493.239
119883,143182,10838,-0.075,1.016,0.148,-0.732,-0.122,0.549,493.245
119897,143220,9298,-0.075,1.016,0.148,-0.732,-0.122,0.549,493.249
119897,143154,10853,-0.071,1.018,0.145,-0.732,-0.305,0.549,493.255
119900,143220,9298,-0.071,1.018,0.145,-0.732,-0.305,0.549,493.259
119900,143164,10850,-0.073,1.017,0.144,-0.488,0.061,0.549,493.265
119882,143220,9298,-0.073,1.017,0.144,-0.488,0.061,0.549,493.269
119882,143169,10842,-0.075,1.02,0.147,-0.732,0.122,0.488,493.275
119893,143220,9298,-0.075,1.02,0.147,-0.732,0.122,0.488,493.278
119893,143141,10847,-0.074,1.013,0.145,-0.488,0.244,0.305,493.285
119895,143220,9298,-0.074,1.013,0.145,-0.488,0.244,0.305,493.288
119895,143172,10832,-0.073,1.014,0.148,0.061,0.366,0.366,493.295
119879,143220,9298,-0.073,1.014,0.148,0.061,0.366,0.366,493.298
119879,143174,10847,-0.074,1.016,0.145,-0.305,0.244,0.366,493.304
119917,143220,9298,-0.074,1.016,0.145,-0.305,0.244,0.366,493.308
119917,143142,10845,-0.074,1.017,0.144,0.061,0.305,0.366,493.314
119906,143220,9298,-0.075,1.019,0.147,0.061,0.305,0.366,493.318
119906,143167,10847,-0.076,1.02,0.145,0.244,0.366,0.244,493.324
119907,143220,9298,-0.078,1.019,0.14,0.244,0.366,0.244,493.328
119907,143175,10852,-0.076,1.021,0.142,-0.244,0.244,0.183,493.334
119927,143220,9298,-0.074,1.017,0.146,-0.244,0.244,0.183,493.338
119927,143176,10855,-0.075,1.015,0.143,-0.183,0.366,0.305,493.344
119914,143220,9298,-0.076,1.016,0.142,-0.183,0.366,0.305,493.348
119914,143202,10848,-0.075,1.021,0.145,-0.61,0.305,0.366,493.354
119890,143220,9298,-0.073,1.021,0.142,-0.61,0.305,0.366,493.358
119890,143188,10846,-0.074,1.018,0.142,-0.915,0.061,0.244,493.364
119919,143220,9298,-0.073,1.019,0.145,-0.915,0.061,0.244,493.368
119919,143174,10842,-0.076,1.021,0.143,-0.427,0.122,0.305,493.374
119907,143220,9298,-0.076,1.017,0.145,-0.427,0.122,0.305,493.377
119907,143184,10851,-0.076,1.016,0.15,-0.061,0.305,0.305,493.384
119914,143220,9298,-0.074,1.011,0.149,-0.061,0.305,0.305,493.387
119914,143175,10848,-0.078,1.013,0.147,-0.122,0.488,0.244,493.394
119920,143220,9298,-0.076,1.018,0.15,-0.122,0.488,0.244,493.397
119920,143210,10847,-0.074,1.014,0.149,-0.183,0.427,0.305,493.403
119920,143220,9298,-0.075,1.016,0.144,-0.183,0.427,0.305,493.407
119920,143197,10845,-0.076,1.014,0.148,0.305,0.488,0.366,493.413
119932,143220,9298,-0.073,1.015,0.149,0.305,0.488,0.366,493.417
119932,143191,10845,-0.071,1.016,0.146,0.366,0.488,0.244,493.423
119919,143220,9298,-0.073,1.019,0.143,0.366,0.488,0.244,493.427
119919,143204,10864,-0.075,1.017,0.149,0.305,0.61,0.183,493.433
119930,143220,9298,-0.076,1.014,0.146,0.305,0.61,0.183,493.437
119930,143212,10841,-0.075,1.014,0.144,0.427,0.549,0.183,493.443
119938,143220,9298,-0.075,1.017,0.145,0.427,0.549,0.183,493.447
119938,143216,10849,-0.075,1.023,0.141,0.061,0.488,0.244,493.453
119922,143220,9298,-0.073,1.025,0.142,0.061,0.488,0.244,493.457
119922,143197,10861,-0.074,1.025,0.143,0,0.366,0.183,493.463
119926,143220,9298,-0.074,1.022,0.144,0,0.366,0.183,493.467
119926,143216,10853,-0.071,1.019,0.146,0.183,0.427,0.122,493.473
119908,143220,9298,-0.073,1.017,0.147,0.183,0.427,0.122,493.477
119908,143213,10858,-0.075,1.017,0.15,-0.183,0.488,0.183,493.483
119920,143220,9298,-0.076,1.013,0.147,-0.183,0.488,0.183,493.486
119920,143178,10837,-0.071,1.013,0.149,0.366,0.549,0.183,493.493
119919,143220,9298,-0.076,1.012,0.147,0.366,0.549,0.183,493.496
119919,143203,10863,-0.074,1.01,0.144,0.793,0.732,0.183,493.502
119939,143220,9298,-0.078,1.016,0.144,0.793,0.732,0.183,493.506
119939,143192,10860,-0.077,1.022,0.143,-0.061,0.671,0.183,493.512
119922,143220,9298,-0.076,1.022,0.143,-0.061,0.671,0.183,493.516
119922,143213,10858,-0.077,1.02,0.143,-0.122,0.427,0.305,493.522
119931,143220,9298,-0.073,1.016,0.143,-0.122,0.427,0.305,493.526
119931,143200,10852,-0.073,1.014,0.143,0.488,0.366,0.366,493.532
119952,143220,9298,-0.076,1.016,0.141,0.488,0.366,0.366,493.536
119952,143198,10851,-0.077,1.019,0.146,-0.305,0.366,0.366,493.542
119900,143220,9298,-0.075,1.022,0.141,-0.305,0.366,0.366,493.546
119900,143214,10862,-0.077,1.021,0.14,-0.427,0.305,0.305,493.552
119904,143220,9298,-0.079,1.021,0.145,-0.427,0.305,0.305,493.556
119904,143216,10874,-0.074,1.02,0.146,0,0.244,0.366,493.562
119940,143220,9298,-0.073,1.018,0.146,0,0.244,0.366,493.566
119940,143212,10852,-0.074,1.017,0.143,-0.366,0.244,0.305,493.572
119922,143220,9298,-0.077,1.016,0.142,-0.366,0.244,0.305,493.575
119922,143235,10859,-0.074,1.017,0.145,-0.305,0.488,0.366,493.582
119930,143220,9298,-0.075,1.014,0.146,-0.305,0.488,0.366,493.585
119930,143211,10864,-0.076,1.016,0.143,-0.122,0.488,0.244,493.592
119937,143220,9298,-0.076,1.016,0.141,-0.122,0.488,0.244,493.595
119937,143217,10842,-0.076,1.017,0.145,0.061,0.427,0.183,493.601
119934,143220,9298,-0.073,1.016,0.147,0.061,0.427,0.183,493.605
119934,143190,10851,-0.074,1.018,0.146,0.122,0.183,0.122,493.611
119927,143220,9298,-0.075,1.02,0.143,0.122,0.183,0.122,493.615
119927,143252,10846,-0.072,1.022,0.144,0.305,0.183,0.244,493.621
119947,143220,9298,-0.077,1.016,0.137,0.305,0.183,0.244,493.625
119947,143221,10860,-0.077,1.014,0.142,0.305,0.488,0.244,493.631
119951,143220,9298,-0.078,1.014,0.144,0.305,0.488,0.244,493.635
119951,143244,10856,-0.081,1.014,0.139,-0.366,0.61,0.244,493.641
119943,143220,9298,-0.079,1.018,0.142,-0.366,0.61,0.244,493.645
119943,143234,10853,-0.077,1.018,0.14,-1.159,0.244,0.549,493.651
119973,143220,9298,-0.078,1.018,0.144,-1.159,0.244,0.549,493.655
119973,143238,10840,-0.076,1.018,0.143,-0.671,-0.305,0.549,493.661
119946,143220,9298,-0.074,1.017,0.146,-0.671,-0.305,0.549,493.665
119946,143251,10861,-0.073,1.019,0.148,-0.488,-0.244,0.488,493.671
119929,143220,9298,-0.072,1.022,0.144,-0.488,-0.244,0.488,493.674
119929,143228,10866,-0.074,1.019,0.146,-0.854,0.061,0.488,493.681
119950,143220,9298,-0.072,1.019,0.147,-0.854,0.061,0.488,493.684
119950,143230,10855,-0.07,1.019,0.143,-0.122,0.244,0.366,493.691
119935,143220,9298,-0.073,1.019,0.146,-0.122,0.244,0.366,493.694
119935,143232,10852,-0.074,1.017,0.147,0.183,0.488,0.366,493.7
119958,143220,9298,-0.075,1.016,0.147,0.183,0.488,0.366,493.704
119958,143221,10849,-0.075,1.015,0.144,0.488,0.61,0.366,493.71
119940,143220,9298,-0.074,1.016,0.143,0.488,0.61,0.366,493.714
119940,143229,10859,-0.074,1.014,0.144,0.854,0.549,0.183,493.72
119948,143220,9298,-0.075,1.016,0.141,0.854,0.549,0.183,493.724
119948,143241,10855,-0.078,1.017,0.142,0.488,0.732,0.244,493.73
119945,143220,9298,-0.082,1.017,0.145,0.488,0.732,0.244,493.734
119945,143253,10857,-0.078,1.017,0.142,-0.305,0.549,0.488,493.74
119957,143220,9298,-0.075,1.016,0.141,-0.305,0.549,0.488,493.744
119957,143258,10850,-0.075,1.013,0.14,0.061,0.122,0.427,493.75
119944,143220,9298,-0.075,1.013,0.14,0.061,0.122,0.427,493.754
119944,143240,10855,-0.075,1.015,0.144,0.305,0.122,0.488,493.76
119934,143220,9298,-0.075,1.015,0.144,0.305,0.122,0.488,493.764
119934,143226,10867,-0.074,1.021,0.147,-0.488,0.061,0.366,493.77
119945,143220,9298,-0.074,1.021,0.147,-0.488,0.061,0.366,493.773
119945,143247,10841,-0.071,1.018,0.146,-0.244,0.244,0.488,493.78
119934,143220,9298,-0.071,1.018,0.146,-0.244,0.244,0.488,493.783
119934,143240,10862,-0.073,1.015,0.139,0.61,0.61,0.366,493.79
119941,143220,9298,-0.073,1.015,0.139,0.61,0.61,0.366,493.793
119941,143233,10858,-0.076,1.024,0.144,0.183,0.732,0.122,493.799
119948,143220,9298,-0.076,1.024,0.144,0.183,0.732,0.122,493.803
119948,143215,10852,-0.077,1.023,0.141,-0.183,0.671,0,493.809
119933,143220,9298,-0.077,1.023,0.141,-0.183,0.671,0,493.813
119933,143249,10874,-0.074,1.017,0.147,0.122,0.427,0.122,493.819
119921,143220,9298,-0.074,1.017,0.147,0.122,0.427,0.122,493.823
119921,143227,10868,-0.075,1.008,0.147,0.305,0.305,0.122,493.829
119964,143220,9298,-0.075,1.008,0.147,0.305,0.305,0.122,493.833
119964,143244,10865,-0.077,1.01,0.144,0.061,0.732,0.061,493.839
119926,143220,9298,-0.077,1.01,0.144,0.061,0.732,0.061,493.843
119926,143245,10867,-0.077,1.013,0.144,0.366,0.915,0.122,493.849
119936,143220,9298,-0.077,1.013,0.144,0.366,0.915,0.122,493.853
119936,143240,10855,-0.078,1.017,0.139,0.488,0.732,0.183,493.859
119934,143220,9298,-0.078,1.017,0.139,0.488,0.732,0.183,493.863
119934,143248,10864,-0.077,1.021,0.147,0.122,0.549,0.366,493.869
119927,143220,9298,-0.077,1.021,0.147,0.122,0.549,0.366,493.872
119927,143227,10860,-0.075,1.019,0.144,-0.061,0.305,0.427,493.879
119912,143220,9298,-0.075,1.019,0.144,-0.061,0.305,0.427,493.882
119912,143240,10850,-0.075,1.018,0.147,-0.732,0.244,0.427,493.889
119922,143220,9298,-0.075,1.018,0.147,-0.732,0.244,0.427,493.892
119922,143231,10862,-0.073,1.019,0.143,-0.732,0.244,0.427,493.898
119925,143220,9298,-0.074,1.02,0.144,-0.732,0.366,0.366,493.902
119925,143232,10863,-0.074,1.017,0.148,-0.732,0.366,0.366,493.908
119939,143220,9298,-0.074,1.014,0.145,-0.122,0.427,0.244,493.912
119939,143219,10838,-0.08,1.019,0.143,-0.122,0.427,0.244,493.918
119923,143220,9298,-0.078,1.019,0.144,-0.183,0.427,0.244,493.922
119923,143241,10878,-0.078,1.02,0.145,-0.183,0.427,0.244,493.928
119937,143220,9298,-0.075,1.018,0.141,-0.366,0.549,0.427,493.932
119937,143230,10857,-0.076,1.018,0.145,-0.366,0.549,0.427,493.938
119930,143220,9298,-0.076,1.017,0.144,-0.427,0.305,0.488,493.942
119930,143255,10863,-0.078,1.013,0.147,-0.427,0.305,0.488,493.948
119939,143220,9298,-0.074,1.012,0.143,-0.122,0.061,0.61,493.952
119939,143234,10838,-0.072,1.01,0.143,-0.122,0.061,0.61,493.958
119933,143220,9298,-0.074,1.01,0.144,0.305,0.122,0.488,493.962
119933,143254,10855,-0.075,1.015,0.145,0.305,0.122,0.488,493.968
119925,143220,9298,-0.078,1.018,0.145,0.183,0.488,0.488,493.971
119925,143231,10856,-0.077,1.022,0.145,0.183,0.488,0.488,493.978
119946,143220,9298,-0.075,1.023,0.143,-0.122,0.366,0.61,493.981
119946,143251,10865,-0.076,1.021,0.141,-0.122,0.366,0.61,493.988
119910,143220,9298,-0.077,1.02,0.142,0.244,0.366,0.671,493.991
119910,143221,10869,-0.078,1.021,0.139,0.244,0.366,0.671,493.997
119926,143220,9298,-0.075,1.021,0.14,-0.061,0.305,0.427,494.001
119926,143215,10858,-0.075,1.021,0.142,-0.061,0.305,0.427,494.007
119898,143220,9298,-0.074,1.022,0.141,-0.854,0.366,0.366,494.011
119898,143192,10859,-0.074,1.021,0.141,-0.854,0.366,0.366,494.017
119894,143220,9298,-0.079,1.02,0.142,-0.793,0.244,0.427,494.021
119894,143205,10844,-0.075,1.02,0.143,-0.793,0.244,0.427,494.027
119887,143220,9298,-0.075,1.017,0.144,-0.488,0.061,0.244,494.031
119887,143166,10861,-0.073,1.021,0.145,-0.488,0.061,0.244,494.037
119883,143220,9298,-0.075,1.018,0.146,-0.854,0.183,0.183,494.041
119883,143175,10849,-0.074,1.014,0.142,-0.854,0.183,0.183,494.047
119892,143220,9298,-0.075,1.016,0.147,-1.037,0.366,0.305,494.051
119892,143185,10852,-0.076,1.015,0.149,-1.037,0.366,0.305,494.057
119886,143220,9298,-0.075,1.013,0.146,-0.732,0.427,0.427,494.061
119886,143204,10848,-0.075,1.011,0.147,-0.732,0.427,0.427,494.067
119878,143220,9298,-0.075,1.009,0.15,-0.061,0.366,0.488,494.07
119878,143188,10861,-0.074,1.011,0.145,-0.061,0.366,0.488,494.077
119886,143220,9298,-0.075,1.015,0.148,0.183,0.305,0.488,494.08
119886,143186,10838,-0.075,1.016,0.15,0.183,0.305,0.488,494.087
119873,143220,9298,-0.076,1.015,0.15,0.549,0.549,0.488,494.09
119873,143189,10861,-0.074,1.016,0.146,0.549,0.549,0.488,494.096
119847,143220,9298,-0.074,1.02,0.146,1.22,0.793,0.488,494.1
119847,143170,10832,-0.075,1.02,0.143,1.22,0.793,0.488,494.106
119875,143220,9298,-0.073,1.021,0.142,1.28,0.854,0.488,494.11
119875,143181,10848,-0.075,1.019,0.142,1.28,0.854,0.488,494.116
119866,143220,9298,-0.075,1.019,0.141,1.098,0.793,0.427,494.12
119866,143174,10844,-0.076,1.018,0.142,1.098,0.793,0.427,494.126
119849,143220,9298,-0.072,1.019,0.143,0.854,0.671,0.366,494.13
119849,143145,10835,-0.075,1.02,0.144,0.854,0.671,0.366,494.136
119836,143220,9298,-0.075,1.02,0.142,0.793,0.671,0.366,494.14
119836,143168,10840,-0.075,1.02,0.142,0.793,0.671,0.366,494.146
119837,143220,9298,-0.075,1.022,0.14,0.793,0.732,0.244,494.15
119837,143150,10848,-0.074,1.019,0.141,0.793,0.732,0.244,494.156
119855,143220,9298,-0.076,1.017,0.139,0.244,0.671,0.183,494.16
119855,143159,10851,-0.077,1.018,0.141,0.244,0.671,0.183,494.166
119842,143220,9298,-0.077,1.013,0.14,0,0.488,0.366,494.169
119842,143134,10852,-0.076,1.012,0.142,0,0.488,0.366,494.176
119863,143220,9298,-0.073,1.013,0.14,0.366,0.427,0.366,494.179
119863,143183,10849,-0.073,1.016,0.142,0.366,0.427,0.366,494.186
119851,143220,9298,-0.076,1.018,0.145,0.122,0.366,0.488,494.189
119851,143178,10859,-0.074,1.019,0.145,0.122,0.366,0.488,494.195
119875,143220,9298,-0.072,1.015,0.145,0.366,0.427,0.61,494.199
119875,143177,10862,-0.071,1.014,0.145,0.366,0.427,0.61,494.205
119859,143220,9298,-0.073,1.012,0.144,1.22,0.61,0.549,494.209
119859,143196,10849,-0.073,1.019,0.142,1.22,0.61,0.549,494.215
119867,143220,9298,-0.076,1.021,0.136,0.793,0.793,0.427,494.219
119867,143195,10825,-0.077,1.021,0.137,0.793,0.793,0.427,494.225
119854,143220,9298,-0.079,1.021,0.139,0.61,0.854,0.366,494.229
119854,143170,10855,-0.078,1.023,0.137,0.61,0.854,0.366,494.235
119861,143220,9298,-0.076,1.022,0.138,0.244,0.549,0.488,494.239
119861,143178,10852,-0.078,1.023,0.136,0.244,0.549,0.488,494.245
119868,143220,9298,-0.076,1.022,0.141,-0.183,0.122,0.427,494.249
119868,143171,10845,-0.073,1.023,0.135,-0.183,0.122,0.427,494.255
119843,143220,9298,-0.076,1.022,0.139,-0.549,0.122,0.305,494.259
119843,143170,10855,-0.074,1.023,0.142,-0.549,0.122,0.305,494.265
119857,143220,9298,-0.077,1.02,0.143,-1.22,0.122,0.366,494.269
119857,143167,10843,-0.074,1.017,0.145,-1.22,0.122,0.366,494.275
119836,143220,9298,-0.076,1.01,0.142,-0.915,0,0.366,494.278
119836,143182,10845,-0.076,1.007,0.145,-0.915,0,0.366,494.285
119849,143220,9298,-0.076,1.011,0.149,-0.61,0.183,0.366,494.288
119849,143156,10840,-0.074,1.014,0.147,-0.61,0.183,0.366,494.294
119849,143220,9298,-0.072,1.018,0.145,-0.488,0.244,0.61,494.298
119849,143145,10847,-0.074,1.02,0.145,-0.488,0.244,0.61,494.304
119837,143220,9298,-0.075,1.019,0.145,0.244,0.366,0.671,494.308
119837,143188,10853,-0.074,1.015,0.144,0.244,0.366,0.671,494.314
119865,143220,9298,-0.072,1.018,0.143,0.915,0.366,0.549,494.318
119865,143173,10866,-0.072,1.022,0.142,0.915,0.366,0.549,494.324
119872,143220,9298,-0.075,1.023,0.14,1.037,0.671,0.427,494.328
119872,143205,10854,-0.075,1.02,0.14,1.037,0.671,0.427,494.334
119896,143220,9298,-0.074,1.019,0.141,0.427,0.854,0.366,494.338
119896,143173,10853,-0.077,1.022,0.14,0.427,0.854,0.366,494.344
119862,143220,9298,-0.077,1.022,0.14,0.427,0.854,0.366,494.348
119862,143193,10851,-0.075,1.019,0.137,-0.183,0.549,0.366,494.354
119856,143220,9298,-0.075,1.019,0.137,-0.183,0.549,0.366,494.358
119856,143171,10848,-0.074,1.015,0.14,-0.122,0.305,0.366,494.364
119839,143220,9298,-0.074,1.015,0.14,-0.122,0.305,0.366,494.367
119839,143165,10839,-0.076,1.019,0.14,-0.488,0.183,0.305,494.374
119828,143220,9298,-0.076,1.019,0.14,-0.488,0.183,0.305,494.377
119828,143158,10850,-0.074,1.018,0.142,-0.671,0.183,0.305,494.384
119832,143220,9298,-0.074,1.018,0.142,-0.671,0.183,0.305,494.387
119832,143146,10828,-0.073,1.021,0.144,-0.427,0.183,0.244,494.393
119831,143220,9298,-0.073,1.021,0.144,-0.427,0.183,0.244,494.397
119831,143176,10856,-0.076,1.017,0.146,-0.244,0.183,0.244,494.403
119825,143220,9298,-0.076,1.017,0.146,-0.244,0.183,0.244,494.407
119825,143150,10840,-0.072,1.017,0.147,-0.122,0.427,0.366,494.413
119825,143220,9298,-0.072,1.017,0.147,-0.122,0.427,0.366,494.417
119825,143160,10836,-0.072,1.012,0.144,0.244,0.61,0.427,494.423
119828,143220,9298,-0.072,1.012,0.144,0.244,0.61,0.427,494.427
119828,143157,10852,-0.074,1.017,0.141,1.22,0.732,0.427,494.433
119821,143220,9298,-0.074,1.017,0.141,1.22,0.732,0.427,494.437
119821,143152,10854,-0.077,1.021,0.141,1.159,0.976,0.305,494.443
119808,143220,9298,-0.077,1.021,0.141,1.159,0.976,0.305,494.447
119808,143116,10838,-0.076,1.022,0.139,0.549,0.915,0.305,494.453
119809,143220,9298,-0.076,1.022,0.139,0.549,0.915,0.305,494.457
119809,143115,10841,-0.075,1.018,0.138,0.549,0.732,0.366,494.463
119778,143220,9298,-0.075,1.018,0.138,0.549,0.732,0.366,494.466
119778,143132,10858,-0.077,1.017,0.14,0.549,0.549,0.305,494.473
119790,143220,9298,-0.077,1.017,0.14,0.549,0.549,0.305,494.476
119790,143142,10839,-0.075,1.02,0.137,-0.061,0.61,0.366,494.483
119766,143220,9298,-0.075,1.02,0.137,-0.061,0.61,0.366,494.486
119766,143124,10839,-0.076,1.018,0.141,-0.122,0.61,0.488,494.492
119789,143220,9298,-0.075,1.015,0.143,-0.122,0.61,0.488,494.496
119789,143122,10834,-0.075,1.016,0.143,0.183,0.366,0.427,494.502
119766,143220,9298,-0.072,1.016,0.14,0.183,0.366,0.427,494.506
119766,143133,10844,-0.074,1.018,0.145,0.183,0.488,0.366,494.512
119758,143220,9298,-0.073,1.021,0.145,0.183,0.488,0.366,494.516
119758,143109,10838,-0.073,1.019,0.145,0.305,0.61,0.305,494.522
119789,143220,9298,-0.074,1.016,0.138,0.305,0.61,0.305,494.526
119789,143104,10842,-0.077,1.017,0.139,0.61,0.61,0.183,494.532
119788,143220,9298,-0.075,1.018,0.14,0.61,0.61,0.183,494.536
119788,143146,10849,-0.075,1.019,0.138,0.122,0.732,0.244,494.542
119785,143220,9298,-0.073,1.018,0.14,0.122,0.732,0.244,494.546
119785,143142,10845,-0.077,1.018,0.137,-0.244,0.549,0.244,494.552
119808,143220,9298,-0.074,1.016,0.139,-0.244,0.549,0.244,494.556
119808,143163,10832,-0.075,1.016,0.139,-0.427,0.366,0.244,494.562
119796,143220,9298,-0.077,1.021,0.142,-0.427,0.366,0.244,494.565
119796,143154,10846,-0.079,1.019,0.142,-0.793,0.427,0.183,494.572
119780,143220,9298,-0.078,1.019,0.14,-0.793,0.427,0.183,494.575
119780,143145,10856,-0.078,1.018,0.139,-0.427,0.366,0.122,494.582
119777,143220,9298,-0.074,1.018,0.138,-0.427,0.366,0.122,494.585
119777,143126,10846,-0.075,1.019,0.137,0.122,0.244,0.305,494.591
119758,143220,9298,-0.076,1.022,0.14,0.122,0.244,0.305,494.595
119758,143127,10842,-0.074,1.023,0.142,-0.488,0.427,0.366,494.601
119765,142964,9298,-0.074,1.018,0.143,-0.488,0.427,0.366,494.605
119765,143093,10839,-0.075,1.016,0.142,-0.549,0.427,0.366,494.611
119769,143220,9298,-0.076,1.014,0.142,-0.549,0.427,0.366,494.615
119769,143118,10850,-0.077,1.013,0.141,-0.549,0.305,0.366,494.621
119752,143220,9298,-0.078,1.017,0.143,-0.549,0.305,0.366,494.625
119752,143109,10857,-0.075,1.018,0.141,-1.159,0.305,0.305,494.631
119761,143220,9298,-0.074,1.015,0.142,-1.159,0.305,0.305,494.635
119761,143126,10836,-0.076,1.016,0.145,-0.732,0.183,0.122,494.641
119781,143220,9298,-0.074,1.021,0.144,-0.732,0.183,0.122,494.645
119781,143120,10856,-0.074,1.019,0.147,-0.305,0.183,0.122,494.651
119780,143220,9298,-0.073,1.014,0.144,-0.305,0.183,0.122,494.655
119780,143123,10840,-0.072,1.015,0.142,-0.183,0.427,0.183,494.661
119788,143220,9298,-0.073,1.013,0.143,-0.183,0.427,0.183,494.664
119788,143144,10859,-0.075,1.011,0.143,0.183,0.61,0.122,494.671
119782,143220,9298,-0.078,1.013,0.142,0.183,0.61,0.122,494.674
119782,143137,10840,-0.078,1.017,0.141,0,0.732,0.244,494.681
119767,143220,9298,-0.077,1.018,0.14,0,0.732,0.244,494.684
119767,143140,10846,-0.075,1.021,0.14,-0.061,0.61,0.488,494.69
119765,143220,9298,-0.078,1.025,0.139,-0.061,0.61,0.488,494.694
119765,143113,10857,-0.077,1.022,0.141,0.244,0.244,0.549,494.7
119775,143220,9298,-0.078,1.021,0.141,0.244,0.244,0.549,494.704
119775,143122,10845,-0.074,1.022,0.143,-0.122,0.183,0.427,494.71
119760,143220,9298,-0.075,1.022,0.144,-0.122,0.183,0.427,494.714
119760,143132,10845,-0.076,1.015,0.14,-0.183,0.305,0.244,494.72
119752,142964,9298,-0.074,1.012,0.139,-0.183,0.305,0.244,494.724
119752,143078,10847,-0.075,1.013,0.143,0.244,0.61,0.366,494.73
119738,143220,9298,-0.074,1.013,0.144,0.244,0.61,0.366,494.734
119738,143106,10847,-0.078,1.014,0.141,0.061,0.549,0.427,494.74
119725,142964,9298,-0.078,1.015,0.139,0.061,0.549,0.427,494.744
119725,143094,10847,-0.077,1.018,0.145,0.061,0.427,0.366,494.75
119737,142964,9298,-0.077,1.021,0.142,0.061,0.427,0.366,494.754
119737,143097,10837,-0.073,1.019,0.143,0.183,0.183,0.488,494.76
119709,142964,9298,-0.074,1.017,0.144,0.183,0.183,0.488,494.763
119709,143064,10839,-0.076,1.016,0.144,0.305,0.122,0.61,494.77
119713,142964,9298,-0.073,1.019,0.144,0.305,0.122,0.61,494.773
119713,143065,10854,-0.072,1.02,0.144,0.549,0.366,0.427,494.78
119706,142964,9298,-0.073,1.018,0.14,0.549,0.366,0.427,494.783
119706,143086,10825,-0.078,1.018,0.14,0.671,0.732,0.366,494.789
119690,142964,9298,-0.078,1.019,0.138,0.671,0.732,0.366,494.793
119690,143062,10839,-0.076,1.018,0.141,0.427,0.793,0.244,494.799
119714,142964,9298,-0.077,1.022,0.139,0.427,0.793,0.244,494.803
119714,143070,10838,-0.078,1.021,0.138,0.061,0.488,0.244,494.809
119700,142964,9298,-0.076,1.019,0.138,0.061,0.488,0.244,494.813
119700,143070,10846,-0.077,1.017,0.138,0.244,0.305,0.366,494.819
119707,142964,9298,-0.075,1.016,0.137,0.244,0.305,0.366,494.823
119707,143053,10832,-0.078,1.019,0.136,-0.366,0.366,0.305,494.829
119698,142964,9298,-0.077,1.023,0.14,-0.366,0.366,0.305,494.833
119698,143089,10839,-0.079,1.022,0.14,-1.22,0.183,0.244,494.839
119698,142964,9298,-0.079,1.018,0.143,-1.22,0.183,0.244,494.843
119698,143053,10834,-0.075,1.014,0.14,-0.854,0.183,0.488,494.849
119699,142964,9298,-0.075,1.012,0.142,-0.854,0.183,0.488,494.853
119699,143097,10848,-0.075,1.013,0.145,-0.427,0.244,0.488,494.859
119730,142964,9298,-0.078,1.014,0.14,-0.427,0.244,0.488,494.862
119730,143081,10837,-0.076,1.017,0.142,-0.549,0.183,0.488,494.869
119706,142964,9298,-0.074,1.02,0.147,-0.549,0.183,0.488,494.872
119706,143072,10840,-0.076,1.022,0.143,-0.122,0.305,0.366,494.879
119712,142964,9298,-0.073,1.021,0.141,-0.122,0.305,0.366,494.882
119712,143084,10845,-0.072,1.02,0.146,0.671,0.305,0.366,494.888
119723,142964,9298,-0.073,1.017,0.141,0.671,0.305,0.366,494.892
119723,143098,10843,-0.076,1.018,0.139,0.549,0.61,0.488,494.898
119690,142964,9298,-0.074,1.019,0.142,0.549,0.61,0.488,494.902
119690,143088,10854,-0.076,1.019,0.142,0.122,0.732,0.427,494.908
119715,142964,9298,-0.079,1.014,0.139,0.122,0.732,0.427,494.912
119715,143089,10841,-0.08,1.01,0.138,0,0.671,0.366,494.918
119706,143220,9298,-0.079,1.012,0.146,0,0.671,0.366,494.922
119706,143112,10860,-0.078,1.016,0.138,-0.366,0.366,0.427,494.928
119724,142964,9298,-0.078,1.016,0.138,-0.366,0.366,0.427,494.932
119724,143091,10829,-0.076,1.02,0.141,-0.671,0.061,0.366,494.938
119723,143220,9298,-0.076,1.02,0.141,-0.671,0.061,0.366,494.942
119723,143106,10838,-0.073,1.018,0.143,-0.366,-0.122,0.366,494.948
119718,142964,9298,-0.073,1.018,0.143,-0.366,-0.122,0.366,494.952
119718,143100,10850,-0.075,1.018,0.142,0.061,0.244,0.366,494.958
119706,142964,9298,-0.075,1.018,0.142,0.061,0.244,0.366,494.961
119706,143097,10840,-0.077,1.02,0.145,-0.305,0.549,0.427,494.968
119721,143220,9298,-0.077,1.02,0.145,-0.305,0.549,0.427,494.971
119721,143110,10853,-0.076,1.015,0.141,-0.183,0.427,0.427,494.978
119720,142964,9298,-0.076,1.015,0.141,-0.183,0.427,0.427,494.981
119720,143083,10851,-0.075,1.015,0.141,0.549,0.366,0.488,494.987
119714,143220,9298,-0.075,1.015,0.141,0.549,0.366,0.488,494.991
119714,143121,10839,-0.078,1.019,0.141,0.061,0.305,0.61,494.997
119697,142964,9298,-0.078,1.019,0.141,0.061,0.305,0.61,495.001
119697,143092,10842,-0.075,1.026,0.14,-0.61,0.122,0.488,495.007
119717,142964,9298,-0.075,1.026,0.14,-0.61,0.122,0.488,495.011
119717,143090,10849,-0.074,1.016,0.138,-0.427,0.061,0.366,495.017
119701,142964,9298,-0.074,1.016,0.138,-0.427,0.061,0.366,495.021
119701,143100,10833,-0.074,1.017,0.142,-0.427,0.305,0.488,495.027
119690,142964,9298,-0.074,1.017,0.142,-0.427,0.305,0.488,495.031
119690,143073,10845,-0.076,1.016,0.142,-0.183,0.427,0.305,495.037
119703,142964,9298,-0.076,1.016,0.142,-0.183,0.427,0.305,495.041
119703,143086,10840,-0.074,1.017,0.14,-0.122,0.427,0.183,495.047
119688,142964,9298,-0.074,1.017,0.14,-0.122,0.427,0.183,495.051
119688,143082,10847,-0.074,1.022,0.139,-0.549,0.366,0.366,495.057
119693,142964,9298,-0.074,1.022,0.139,-0.549,0.366,0.366,495.06
119693,143077,10831,-0.075,1.011,0.143,0.122,0.244,0.366,495.067
119678,142964,9298,-0.075,1.011,0.143,0.122,0.244,0.366,495.07
119678,143078,10852,-0.074,1.011,0.141,0.122,0.244,0.366,495.077
119706,143220,9298,-0.073,1.018,0.142,0,0.427,0.305,495.08
119706,143105,10834,-0.076,1.019,0.141,0,0.427,0.305,495.086
119676,142964,9298,-0.076,1.021,0.139,-0.549,0.61,0.427,495.09
119676,143083,10837,-0.074,1.021,0.139,-0.549,0.61,0.427,495.096
119685,142964,9298,-0.076,1.021,0.142,0,0.427,0.305,495.1
119685,143072,10841,-0.075,1.021,0.139,0,0.427,0.305,495.106
119696,142964,9298,-0.073,1.018,0.137,-0.183,0.305,0.305,495.11
119696,143093,10838,-0.076,1.021,0.142,-0.183,0.305,0.305,495.116
119697,143220,9298,-0.076,1.019,0.14,-0.549,0.427,0.366,495.12
119697,143104,10833,-0.073,1.016,0.138,-0.549,0.427,0.366,495.126
119701,142964,9298,-0.073,1.014,0.14,-0.427,0.366,0.366,495.13
119701,143069,10817,-0.075,1.016,0.143,-0.427,0.366,0.366,495.136
119687,142964,9298,-0.076,1.014,0.149,-0.488,0.244,0.305,495.14
119687,143081,10849,-0.076,1.017,0.147,-0.488,0.244,0.305,495.146
119703,143220,9298,-0.071,1.015,0.142,0,0.305,0.305,495.15
119703,143104,10853,-0.071,1.017,0.147,0,0.305,0.305,495.156
119696,142964,9298,-0.071,1.019,0.142,0.549,0.488,0.122,495.16
119696,143082,10848,-0.075,1.02,0.14,0.549,0.488,0.122,495.166
119706,143220,9298,-0.074,1.019,0.145,0.122,0.793,0.122,495.169
119706,143107,10834,-0.075,1.019,0.141,0.122,0.793,0.122,495.176
119694,142964,9298,-0.08,1.012,0.138,0.488,0.976,0.366,495.179
119694,143094,10838,-0.08,1.011,0.138,0.488,0.976,0.366,495.185
119686,142964,9298,-0.079,1.01,0.142,0.732,0.915,0.366,495.189
119686,143098,10844,-0.077,1.015,0.14,0.732,0.915,0.366,495.195
119695,142964,9298,-0.079,1.018,0.137,0.244,0.549,0.427,495.199
119695,143097,10849,-0.078,1.021,0.139,0.244,0.549,0.427,495.205
119680,142964,9298,-0.076,1.023,0.141,0.183,0.183,0.488,495.209
119680,143087,10848,-0.079,1.021,0.138,0.183,0.183,0.488,495.215
119680,142964,9298,-0.075,1.024,0.138,0.244,0,0.671,495.219
119680,143089,10854,-0.074,1.026,0.138,0.244,0,0.671,495.225
119693,142964,9298,-0.074,1.022,0.137,0.061,0.244,0.793,495.229
119693,143097,10849,-0.076,1.02,0.142,0.061,0.244,0.793,495.235
119690,142964,9298,-0.076,1.022,0.141,-0.488,0.305,0.671,495.239
119690,143095,10844,-0.075,1.02,0.141,-0.488,0.305,0.671,495.245
119695,142964,9298,-0.073,1.015,0.141,-0.366,0.366,0.366,495.249
119695,143088,10840,-0.073,1.014,0.142,-0.366,0.366,0.366,495.255
119707,142964,9298,-0.074,1.013,0.143,-0.549,0.427,0.366,495.258
119707,143097,10851,-0.075,1.015,0.142,-0.549,0.427,0.366,495.265
119698,142964,9298,-0.074,1.014,0.144,-0.549,0.305,0.366,495.268
119698,143096,10856,-0.073,1.012,0.143,-0.549,0.305,0.366,495.275
119712,142964,9298,-0.074,1.013,0.142,0.183,0.305,0.244,495.278
119712,143098,10839,-0.074,1.018,0.14,0.183,0.305,0.244,495.284
119705,142964,9298,-0.075,1.023,0.143,-0.244,0.549,0.061,495.288
119705,143103,10842,-0.077,1.024,0.141,-0.244,0.549,0.061,495.294
119711,142964,9298,-0.075,1.024,0.141,-0.732,0.61,0.244,495.298
119711,143095,10836,-0.078,1.017,0.146,-0.732,0.61,0.244,495.304
119684,143220,9298,-0.078,1.012,0.144,-0.061,0.549,0.305,495.308
119684,143105,10843,-0.075,1.013,0.141,-0.061,0.549,0.305,495.314
119703,143220,9298,-0.074,1.017,0.143,-0.122,0.366,0.305,495.318
119703,143114,10853,-0.076,1.019,0.14,-0.122,0.366,0.305,495.324
119701,142964,9298,-0.076,1.022,0.142,-0.671,0.183,0.366,495.328
119701,143096,10855,-0.077,1.019,0.141,-0.671,0.183,0.366,495.334
119695,142964,9298,-0.074,1.02,0.144,-0.305,0.305,0.366,495.338
119695,143091,10833,-0.077,1.021,0.143,-0.305,0.305,0.366,495.344
119704,143220,9298,-0.078,1.015,0.141,-0.183,0.305,0.427,495.348
119704,143105,10852,-0.075,1.016,0.139,-0.183,0.305,0.427,495.354
119723,143220,9298,-0.074,1.015,0.141,0.183,0.366,0.549,495.357
119723,143106,10851,-0.075,1.015,0.139,0.183,0.366,0.549,495.364
119691,143220,9298,-0.077,1.018,0.138,-0.305,0.427,0.366,495.367
119691,143125,10851,-0.077,1.023,0.137,-0.305,0.427,0.366,495.374
119710,143220,9298,-0.076,1.019,0.144,-1.037,0.244,0.427,495.377
119710,143111,10869,-0.075,1.017,0.144,-1.037,0.244,0.427,495.383
119710,143220,9298,-0.074,1.016,0.143,-0.61,-0.061,0.488,495.387
119710,143133,10856,-0.07,1.019,0.143,-0.61,-0.061,0.488,495.393
119713,143220,9298,-0.074,1.023,0.145,-0.549,0.122,0.427,495.397
119713,143137,10864,-0.075,1.023,0.141,-0.549,0.122,0.427,495.403
119713,143220,9298,-0.072,1.02,0.143,-0.793,0.427,0.244,495.407
119713,143148,10845,-0.072,1.016,0.143,-0.793,0.427,0.244,495.413
119719,143220,9298,-0.077,1.017,0.141,-0.183,0.671,0.244,495.417
119719,143125,10850,-0.076,1.016,0.141,-0.183,0.671,0.244,495.423
119736,143220,9298,-0.074,1.013,0.138,0,0.854,0.305,495.427
119736,143147,10854,-0.079,1.011,0.138,0,0.854,0.305,495.433
119715,143220,9298,-0.08,1.016,0.138,-0.488,0.732,0.244,495.437
119715,143133,10858,-0.078,1.016,0.141,-0.488,0.732,0.244,495.443
119705,143220,9298,-0.077,1.02,0.142,-0.671,0.305,0.183,495.447
119705,143123,10854,-0.079,1.015,0.143,-0.671,0.305,0.183,495.453
119694,142964,9298,-0.077,1.014,0.142,-0.244,0.061,0.427,495.456
119694,143097,10864,-0.074,1.015,0.142,-0.244,0.061,0.427,495.463
119678,142964,9298,-0.074,1.015,0.143,-0.061,0.244,0.61,495.466
119678,143097,10844,-0.075,1.016,0.142,-0.061,0.244,0.61,495.473
119669,142964,9298,-0.076,1.017,0.143,-0.244,0.427,0.61,495.476
119669,143085,10846,-0.076,1.02,0.141,-0.244,0.427,0.61,495.482
119671,142964,9298,-0.077,1.019,0.141,-0.305,0.244,0.549,495.486
119671,143085,10858,-0.076,1.015,0.141,-0.305,0.244,0.549,495.492
119666,142964,9298,-0.072,1.015,0.14,0.366,0.061,0.549,495.496
119666,143094,10843,-0.075,1.016,0.141,0.366,0.061,0.549,495.502
119668,142964,9298,-0.074,1.022,0.137,0.305,0.305,0.549,495.506
119668,143063,10842,-0.077,1.025,0.138,0.305,0.305,0.549,495.512
119671,142964,9298,-0.078,1.025,0.141,-0.732,0.488,0.427,495.516
119671,143095,10841,-0.082,1.022,0.142,-0.732,0.488,0.427,495.522
119681,142964,9298,-0.082,1.022,0.142,-0.732,0.488,0.427,495.526
119681,143080,10856,-0.076,1.015,0.134,-0.732,0.183,0.366,495.532
119682,142964,9298,-0.076,1.015,0.134,-0.732,0.183,0.366,495.536
119682,143091,10823,-0.073,1.02,0.145,-0.976,0.061,0.427,495.542
119658,142964,9298,-0.073,1.02,0.145,-0.976,0.061,0.427,495.546
119658,143098,10839,-0.072,1.019,0.146,-1.402,-0.061,0.549,495.552
119689,142964,9298,-0.072,1.019,0.146,-1.402,-0.061,0.549,495.555
119689,143091,10838,-0.069,1.011,0.146,-0.732,-0.244,0.305,495.562
119689,142964,9298,-0.069,1.011,0.146,-0.732,-0.244,0.305,495.565
119689,143086,10835,-0.071,1.019,0.144,0.366,0,0.244,495.572
119676,142964,9298,-0.071,1.019,0.144,0.366,0,0.244,495.575
119676,143075,10840,-0.076,1.018,0.14,0.122,0.793,0.366,495.581
119677,142964,9298,-0.076,1.018,0.14,0.122,0.793,0.366,495.585
119677,143094,10838,-0.078,1.014,0.144,-0.122,0.976,0.305,495.591
119680,142964,9298,-0.078,1.014,0.144,-0.122,0.976,0.305,495.595
119680,143097,10848,-0.079,1.012,0.143,0.244,0.549,0.305,495.601
119700,143220,9298,-0.079,1.012,0.143,0.244,0.549,0.305,495.605
119700,143116,10850,-0.075,1.018,0.143,0.244,0.244,0.427,495.611
119704,142964,9298,-0.075,1.018,0.143,0.244,0.244,0.427,495.615
119704,143082,10838,-0.074,1.025,0.142,-0.305,0.183,0.549,495.621
119693,143220,9298,-0.074,1.025,0.142,-0.305,0.183,0.549,495.625
119693,143110,10843,-0.074,1.022,0.14,-0.549,0.244,0.549,495.631
119701,142964,9298,-0.074,1.022,0.14,-0.549,0.244,0.549,495.635
119701,143083,10843,-0.078,1.018,0.14,-0.061,0.366,0.488,495.641
119693,143220,9298,-0.078,1.018,0.14,-0.061,0.366,0.488,495.645
119693,143110,10855,-0.077,1.022,0.141,-0.61,0.305,0.427,495.651
119697,143220,9298,-0.077,1.022,0.141,-0.61,0.305,0.427,495.654
119697,143110,10833,-0.074,1.015,0.142,-1.159,-0.061,0.366,495.661
119698,143220,9298,-0.074,1.015,0.142,-1.159,-0.061,0.366,495.664
119698,143145,10851,-0.074,1.014,0.145,-0.305,-0.061,0.427,495.671
119717,143220,9298,-0.072,1.012,0.143,-0.305,-0.061,0.427,495.674
119717,143127,10843,-0.071,1.012,0.143,0.366,0.183,0.427,495.68
119707,143220,9298,-0.073,1.012,0.147,0.366,0.183,0.427,495.684
119707,143131,10828,-0.072,1.015,0.143,0.244,0.549,0.183,495.69
119705,143220,9298,-0.073,1.019,0.14,0.244,0.549,0.183,495.694
119705,143129,10832,-0.076,1.019,0.137,0.366,0.854,0.244,495.7
119708,143220,9298,-0.079,1.016,0.14,0.366,0.854,0.244,495.704
119708,143119,10823,-0.078,1.02,0.138,0.244,0.61,0.244,495.71
119713,143220,9298,-0.073,1.017,0.142,0.244,0.61,0.244,495.714
119713,143130,10851,-0.073,1.015,0.141,-0.122,0.244,0.427,495.72
119726,143220,9298,-0.076,1.015,0.14,-0.122,0.244,0.427,495.724
119726,143121,10836,-0.076,1.017,0.141,-0.366,0.305,0.549,495.73
119711,143220,9298,-0.074,1.022,0.141,-0.366,0.305,0.549,495.734
119711,143129,10849,-0.076,1.024,0.141,-0.732,0.366,0.427,495.74
119710,142964,9298,-0.076,1.02,0.142,-0.732,0.366,0.427,495.744
119710,143101,10848,-0.076,1.02,0.144,-0.366,0.305,0.366,495.75
119696,143220,9298,-0.075,1.02,0.141,-0.366,0.305,0.366,495.753
119696,143126,10845,-0.075,1.022,0.142,-0.244,0.427,0.427,495.76
119711,143220,9298,-0.076,1.021,0.143,-0.244,0.427,0.427,495.763
119711,143105,10834,-0.076,1.021,0.144,-0.854,0.244,0.427,495.77
119689,143220,9298,-0.077,1.014,0.143,-0.854,0.244,0.427,495.773
119689,143129,10854,-0.075,1.009,0.144,0.061,0.061,0.305,495.779
119705,143220,9298,-0.074,1.008,0.143,0.061,0.061,0.305,495.783
119705,143135,10859,-0.074,1.014,0.142,-0.244,0.122,0.305,495.789
119698,143220,9298,-0.076,1.021,0.143,-0.244,0.122,0.305,495.793
119698,143149,10845,-0.076,1.021,0.144,-1.22,0.305,0.427,495.799
119701,143220,9298,-0.075,1.018,0.143,-1.22,0.305,0.427,495.803
119701,143116,10847,-0.074,1.014,0.145,-0.366,0.183,0.549,495.809
119732,143220,9298,-0.071,1.013,0.143,-0.366,0.183,0.549,495.813
119732,143129,10844,-0.07,1.011,0.142,0.244,0,0.488,495.819
119702,143220,9298,-0.072,1.013,0.145,0.244,0,0.488,495.823
119702,143118,10843,-0.074,1.019,0.144,0.061,0.305,0.427,495.829
119703,143220,9298,-0.077,1.021,0.141,0.061,0.305,0.427,495.833
119703,143107,10851,-0.077,1.023,0.139,0.061,0.732,0.305,495.839
119704,143220,9298,-0.077,1.025,0.142,0.061,0.732,0.305,495.843
119704,143139,10836,-0.077,1.022,0.14,0.244,0.549,0.305,495.849
119705,143220,9298,-0.076,1.023,0.136,0.244,0.549,0.305,495.853
119705,143110,10851,-0.077,1.021,0.139,-0.549,0.183,0.366,495.859
119722,143220,9298,-0.076,1.022,0.14,-0.549,0.183,0.366,495.862
119722,143120,10840,-0.073,1.02,0.144,-1.22,-0.061,0.549,495.869
119693,143220,9298,-0.073,1.016,0.142,-1.22,-0.061,0.549,495.872
119693,143122,10846,-0.073,1.012,0.143,-0.793,-0.061,0.61,495.878
119712,143220,9298,-0.072,1.011,0.143,-0.793,-0.061,0.61,495.882
119712,143119,10847,-0.072,1.012,0.146,-0.732,0.122,0.427,495.888
119687,143220,9298,-0.074,1.015,0.145,-0.732,0.122,0.427,495.892
119687,143130,10850,-0.074,1.018,0.146,-1.159,0.244,0.366,495.898
119685,143220,9298,-0.071,1.02,0.145,-1.159,0.244,0.366,495.902
119685,143127,10843,-0.07,1.019,0.144,-0.61,0.305,0.366,495.908
119701,143220,9298,-0.072,1.011,0.148,-0.61,0.305,0.366,495.912
119701,143131,10847,-0.074,1.012,0.147,0.549,0.366,0.305,495.918
119700,143220,9298,-0.075,1.013,0.146,0.549,0.366,0.305,495.922
119700,143129,10833,-0.075,1.017,0.145,0.305,0.732,0.305,495.928
119692,143220,9298,-0.077,1.025,0.141,0.305,0.732,0.305,495.932
119692,143129,10857,-0.075,1.024,0.14,-0.305,0.732,0.244,495.938
119675,143220,9298,-0.078,1.024,0.141,-0.305,0.732,0.244,495.942
119675,143124,10850,-0.078,1.019,0.141,0.122,0.488,0.244,495.948
119714,143220,9298,-0.075,1.016,0.143,0.122,0.488,0.244,495.951
119714,143116,10832,-0.076,1.016,0.144,-0.122,0.244,0.427,495.958
119680,143220,9298,-0.077,1.017,0.145,-0.122,0.244,0.427,495.961
119680,143114,10854,-0.075,1.016,0.143,-0.366,0.183,0.366,495.968
119685,143220,9298,-0.076,1.019,0.141,-0.366,0.183,0.366,495.971
119685,143130,10841,-0.076,1.022,0.142,-0.732,0.183,0.244,495.977
119683,143220,9298,-0.076,1.023,0.144,-0.732,0.183,0.244,495.981
119683,143115,10845,-0.072,1.023,0.139,-0.976,0.122,0.305,495.987
119684,143220,9298,-0.075,1.019,0.135,-0.976,0.122,0.305,495.991
119684,143105,10844,-0.075,1.017,0.139,-0.793,0.366,0.427,495.997
119670,143220,9298,-0.075,1.019,0.147,-0.793,0.366,0.427,496.001
119670,143135,10834,-0.076,1.019,0.144,-1.28,0.366,0.427,496.007
119680,143220,9298,-0.076,1.018,0.149,-1.28,0.366,0.427,496.011
119680,143108,10851,-0.073,1.015,0.147,-1.22,0.061,0.366,496.017
119667,143220,9298,-0.071,1.008,0.148,-1.22,0.061,0.366,496.021
119667,143118,10847,-0.074,1.008,0.146,0,0.183,0.427,496.027
119702,142964,9298,-0.074,1.013,0.143,0,0.183,0.427,496.031
119702,143102,10829,-0.076,1.019,0.147,-0.305,0.671,0.427,496.037
119663,143220,9298,-0.079,1.019,0.147,-0.305,0.671,0.427,496.041
119663,143113,10836,-0.082,1.019,0.148,-0.427,0.488,0.488,496.047
119692,143220,9298,-0.075,1.017,0.14,-0.427,0.488,0.488,496.051
119692,143120,10851,-0.073,1.016,0.142,0.732,0.061,0.549,496.057
119700,143220,9298,-0.073,1.015,0.143,0.732,0.061,0.549,496.06
119700,143134,10853,-0.073,1.019,0.141,0.549,0,0.732,496.067
119681,143220,9298,-0.072,1.024,0.145,0.549,0,0.732,496.07
119681,143114,10856,-0.074,1.023,0.141,-0.488,0.122,0.671,496.076
119697,143220,9298,-0.075,1.024,0.141,-0.488,0.122,0.671,496.08
119697,143119,10845,-0.071,1.023,0.14,-0.427,0.122,0.549,496.086
119680,143220,9298,-0.073,1.021,0.142,-0.427,0.122,0.549,496.09
119680,143136,10848,-0.076,1.021,0.14,-0.976,0.244,0.549,496.096
119699,143220,9298,-0.073,1.024,0.142,-0.976,0.244,0.549,496.1
119699,143115,10837,-0.075,1.021,0.144,-1.341,0.122,0.427,496.106
119679,143220,9298,-0.075,1.021,0.144,-1.341,0.122,0.427,496.11
119679,143132,10847,-0.071,1.013,0.139,-0.915,0,0.244,496.116
119685,143220,9298,-0.071,1.013,0.139,-0.915,0,0.244,496.12
119685,143130,10853,-0.075,1.016,0.146,-1.28,0.305,0.061,496.126
119697,143220,9298,-0.075,1.016,0.146,-1.28,0.305,0.061,496.13
119697,143152,10850,-0.075,1.019,0.147,-1.28,0.305,0.061,496.136
119691,143220,9298,-0.075,1.019,0.147,-1.28,0.305,0.061,496.14
119691,143135,10857,-0.075,1.014,0.143,-0.122,0.366,0.122,496.146
119700,143220,9298,-0.075,1.014,0.143,-0.122,0.366,0.122,496.149
119700,143136,10845,-0.074,1.016,0.144,-0.305,0.366,0.061,496.156
119695,143220,9298,-0.074,1.016,0.144,-0.305,0.366,0.061,496.159
119695,143121,10854,-0.076,1.022,0.146,-0.732,0.488,0.366,496.166
119721,143220,9298,-0.076,1.022,0.146,-0.732,0.488,0.366,496.169
119721,143159,10847,-0.077,1.017,0.147,-0.488,0.427,0.549,496.175
119719,143220,9298,-0.077,1.017,0.147,-0.488,0.427,0.549,496.179
119719,143135,10852,-0.076,1.02,0.143,-0.61,0.183,0.488,496.185
119712,143220,9298,-0.076,1.02,0.143,-0.61,0.183,0.488,496.189
119712,143120,10841,-0.073,1.017,0.146,-0.793,0,0.488,496.195
119706,143220,9298,-0.073,1.017,0.146,-0.793,0,0.488,496.199
119706,143137,10848,-0.073,1.019,0.146,-0.61,0.122,0.427,496.205
119681,143220,9298,-0.073,1.019,0.146,-0.61,0.122,0.427,496.209
119681,143153,10859,-0.071,1.017,0.147,-0.549,0.122,0.244,496.215
119711,143220,9298,-0.071,1.017,0.147,-0.549,0.122,0.244,496.219
119711,143161,10857,-0.075,1.018,0.141,-0.671,0.366,0.305,496.225
119706,143220,9298,-0.075,1.018,0.141,-0.671,0.366,0.305,496.229
119706,143158,10852,-0.072,1.02,0.145,-0.793,0.427,0.305,496.235
119693,143220,9298,-0.072,1.02,0.145,-0.793,0.427,0.305,496.239
119693,143162,10860,-0.076,1.012,0.145,-0.305,0.183,0.305,496.245
119739,143220,9298,-0.076,1.012,0.145,-0.305,0.183,0.305,496.248
119739,143156,10837,-0.073,1.008,0.15,-0.305,0.183,0.305,496.255
119696,143220,9298,-0.073,1.014,0.147,-0.427,0.244,0.244,496.258
119696,143174,10852,-0.075,1.017,0.145,-0.427,0.244,0.244,496.265
119731,143220,9298,-0.074,1.019,0.144,-0.549,0.305,0.366,496.268
119731,143176,10862,-0.075,1.018,0.143,-0.549,0.305,0.366,496.274
119737,143220,9298,-0.077,1.019,0.144,-0.183,0.305,0.488,496.278
119737,143181,10854,-0.077,1.02,0.145,-0.183,0.305,0.488,496.284
119732,143220,9298,-0.076,1.019,0.146,-0.305,0.183,0.549,496.288
119732,143156,10849,-0.078,1.019,0.146,-0.305,0.183,0.549,496.294
119730,143220,9298,-0.075,1.019,0.147,-0.671,0.061,0.549,496.298
119730,143170,10835,-0.076,1.019,0.145,-0.671,0.061,0.549,496.304
119710,143220,9298,-0.075,1.019,0.144,-0.732,0.183,0.549,496.308
119710,143156,10852,-0.075,1.015,0.144,-0.732,0.183,0.549,496.314
119729,143220,9298,-0.074,1.013,0.147,-0.488,0.122,0.488,496.318
119729,143163,10842,-0.072,1.017,0.146,-0.488,0.122,0.488,496.324
119721,143220,9298,-0.07,1.015,0.145,-0.427,0,0.549,496.328
119721,143176,10864,-0.071,1.017,0.15,-0.427,0,0.549,496.334
119733,143220,9298,-0.072,1.016,0.145,-0.061,0.122,0.305,496.338
119733,143163,10858,-0.073,1.017,0.14,-0.061,0.122,0.305,496.344
119708,143220,9298,-0.076,1.019,0.143,-0.854,0.366,0.366,496.347
119708,143164,10843,-0.078,1.02,0.143,-0.854,0.366,0.366,496.354
119714,143220,9298,-0.078,1.018,0.143,-0.976,0.305,0.488,496.357
119714,143163,10836,-0.078,1.015,0.143,-0.976,0.305,0.488,496.364
119749,143220,9298,-0.075,1.015,0.146,-0.793,0.061,0.366,496.367
119749,143163,10835,-0.072,1.013,0.148,-0.793,0.061,0.366,496.373
119724,143220,9298,-0.073,1.014,0.15,-0.793,-0.183,0.366,496.377
119724,143156,10853,-0.075,1.014,0.149,-0.793,-0.183,0.366,496.383
119744,143220,9298,-0.074,1.014,0.144,-0.244,0.061,0.488,496.387
119744,143183,10844,-0.073,1.019,0.148,-0.244,0.061,0.488,496.393
119753,143220,9298,-0.072,1.018,0.151,-0.183,0.305,0.549,496.397
119753,143189,10868,-0.071,1.017,0.147,-0.183,0.305,0.549,496.403
119758,143220,9298,-0.076,1.017,0.147,0,0.488,0.488,496.407
119758,143210,10862,-0.076,1.019,0.146,0,0.488,0.488,496.413
119757,143220,9298,-0.075,1.018,0.145,0.122,0.488,0.549,496.417
119757,143198,10869,-0.076,1.018,0.141,0.122,0.488,0.549,496.423
119773,143220,9298,-0.075,1.02,0.143,-0.549,0.183,0.427,496.427
119773,143183,10865,-0.075,1.026,0.146,-0.549,0.183,0.427,496.433
119769,143220,9298,-0.076,1.021,0.144,-0.854,-0.122,0.488,496.437
119769,143229,10862,-0.072,1.019,0.143,-0.854,-0.122,0.488,496.443
119748,143220,9298,-0.073,1.015,0.147,-0.366,-0.061,0.488,496.446
119748,143200,10858,-0.071,1.015,0.145,-0.366,-0.061,0.488,496.453
119770,143220,9298,-0.074,1.015,0.146,-0.549,0.244,0.488,496.456
119770,143236,10844,-0.071,1.017,0.147,-0.549,0.244,0.488,496.463
119774,143220,9298,-0.073,1.018,0.149,-1.037,0.366,0.427,496.466
119774,143215,10843,-0.074,1.014,0.148,-1.037,0.366,0.427,496.472
119796,143220,9298,-0.073,1.015,0.147,-0.244,0.366,0.305,496.476
119796,143228,10854,-0.072,1.01,0.146,-0.244,0.366,0.305,496.482
119787,143220,9298,-0.072,1.013,0.145,0.183,0.366,0.244,496.486
119787,143226,10866,-0.075,1.018,0.145,0.183,0.366,0.244,496.492
119799,143220,9298,-0.073,1.016,0.15,-0.244,0.488,0.244,496.496
119799,143236,10847,-0.076,1.016,0.148,-0.244,0.488,0.244,496.502
119787,143220,9298,-0.072,1.019,0.147,-0.122,0.488,0.305,496.506
119787,143237,10864,-0.072,1.017,0.149,-0.122,0.488,0.305,496.512
119809,143220,9298,-0.072,1.015,0.147,0.305,0.427,0.244,496.516
119809,143222,10850,-0.074,1.013,0.147,0.305,0.427,0.244,496.522
119830,143220,9298,-0.077,1.017,0.146,0.122,0.671,0.183,496.526
119830,143214,10855,-0.077,1.023,0.141,0.122,0.671,0.183,496.532
119788,143220,9298,-0.077,1.026,0.146,-0.488,0.61,0.183,496.536
119788,143224,10866,-0.076,1.023,0.144,-0.488,0.61,0.183,496.542
119793,143220,9298,-0.076,1.017,0.144,-0.183,0.366,0.305,496.545
119793,143228,10860,-0.074,1.013,0.148,-0.183,0.366,0.305,496.552
119815,143220,9298,-0.071,1.013,0.147,0.244,0.122,0.183,496.555
119815,143245,10847,-0.073,1.018,0.146,0.244,0.122,0.183,496.562
119801,143220,9298,-0.075,1.018,0.145,-0.549,0.366,0.244,496.565
119801,143251,10865,-0.075,1.015,0.146,-0.549,0.366,0.244,496.571
119817,143220,9298,-0.074,1.018,0.145,-0.427,0.549,0.244,496.575
119817,143240,10857,-0.073,1.021,0.147,-0.427,0.549,0.244,496.581
119826,143220,9298,-0.074,1.021,0.146,-0.427,0.305,0.305,496.585
119826,143256,10869,-0.076,1.019,0.147,-0.427,0.305,0.305,496.591
119790,143220,9298,-0.072,1.021,0.15,-0.549,0.122,0.244,496.595
119790,143276,10858,-0.072,1.017,0.149,-0.549,0.122,0.244,496.601
119815,143220,9298,-0.075,1.018,0.144,-0.305,0.122,0.305,496.605
119815,143258,10846,-0.075,1.015,0.146,-0.305,0.122,0.305,496.611
119834,143220,9298,-0.077,1.01,0.146,-0.244,0.427,0.305,496.615
119834,143263,10860,-0.077,1.013,0.151,-0.244,0.427,0.305,496.621
119815,143220,9298,-0.078,1.018,0.147,-0.488,0.549,0.427,496.625
119815,143287,10866,-0.076,1.016,0.144,-0.488,0.549,0.427,496.631
119807,143220,9298,-0.074,1.017,0.143,-0.183,0.244,0.366,496.635
119807,143265,10857,-0.068,1.016,0.145,-0.183,0.244,0.366,496.641
119829,143220,9298,-0.071,1.018,0.147,-0.061,-0.122,0.244,496.644
119829,143268,10872,-0.072,1.022,0.147,-0.061,-0.122,0.244,496.651
119828,143220,9298,-0.073,1.022,0.148,-0.488,0.183,0.366,496.654
119828,143252,10866,-0.071,1.021,0.146,-0.488,0.183,0.366,496.661
119816,143220,9298,-0.074,1.016,0.146,-0.427,0.488,0.488,496.664
119816,143260,10875,-0.075,1.015,0.145,-0.427,0.488,0.488,496.67
119861,143220,9298,-0.077,1.015,0.144,-0.244,0.61,0.305,496.674
119861,143256,10847,-0.078,1.016,0.145,-0.244,0.61,0.305,496.68
119837,143220,9298,-0.078,1.016,0.144,-0.854,0.61,0.305,496.684
119837,143274,10866,-0.079,1.017,0.147,-0.854,0.61,0.305,496.69
119836,143220,9298,-0.079,1.017,0.147,-0.854,0.61,0.305,496.694
119836,143267,10865,-0.076,1.017,0.146,-0.976,0.183,0.427,496.7
119849,143220,9298,-0.076,1.017,0.146,-0.976,0.183,0.427,496.704
119849,143269,10854,-0.072,1.016,0.143,-0.366,-0.305,0.549,496.71
119846,143220,9298,-0.072,1.016,0.143,-0.366,-0.305,0.549,496.714
119846,143299,10859,-0.07,1.019,0.15,-0.183,-0.244,0.549,496.72
119853,143220,9298,-0.07,1.019,0.15,-0.183,-0.244,0.549,496.724
119853,143292,10872,-0.074,1.021,0.146,-0.305,0,0.488,496.73
119843,143220,9298,-0.074,1.021,0.146,-0.305,0,0.488,496.734
119843,143287,10874,-0.072,1.017,0.144,-0.183,0.305,0.488,496.74
119862,143220,9298,-0.072,1.017,0.144,-0.183,0.305,0.488,496.743
119862,143290,10847,-0.074,1.012,0.147,-0.122,0.427,0.427,496.75
119862,143220,9298,-0.074,1.012,0.147,-0.122,0.427,0.427,496.753
119862,143285,10879,-0.073,1.017,0.147,-0.549,0.427,0.244,496.76
119867,143220,9298,-0.073,1.017,0.147,-0.549,0.427,0.244,496.763
119867,143297,10849,-0.076,1.018,0.144,-0.671,0.244,0.366,496.769
119877,143220,9298,-0.076,1.018,0.144,-0.671,0.244,0.366,496.773
119877,143298,10870,-0.076,1.017,0.147,-0.671,-0.061,0.366,496.779
119846,143220,9298,-0.076,1.017,0.147,-0.671,-0.061,0.366,496.783
119846,143288,10855,-0.073,1.022,0.148,-0.854,-0.061,0.427,496.789
119856,143220,9298,-0.073,1.022,0.148,-0.854,-0.061,0.427,496.793
119856,143312,10858,-0.07,1.017,0.15,-1.159,0.061,0.305,496.799
119855,143220,9298,-0.07,1.017,0.15,-1.159,0.061,0.305,496.803
119855,143264,10852,-0.074,1.016,0.153,-0.854,0.244,0.244,496.809
119882,143220,9298,-0.074,1.016,0.153,-0.854,0.244,0.244,496.813
119882,143286,10874,-0.073,1.01,0.146,0,0.305,0.122,496.819
119847,143220,9298,-0.073,1.01,0.146,0,0.305,0.122,496.823
119847,143274,10864,-0.074,1.019,0.154,0.122,0.366,0.183,496.829
119866,143220,9298,-0.074,1.019,0.154,0.122,0.366,0.183,496.833
119866,143301,10862,-0.073,1.02,0.151,-0.183,0.366,0.244,496.839
119862,143220,9298,-0.074,1.021,0.147,-0.183,0.366,0.244,496.842
119862,143292,10864,-0.076,1.02,0.148,-0.183,0.366,0.305,496.849
119872,143220,9298,-0.074,1.016,0.149,-0.183,0.366,0.305,496.852
