120437,143476,9298,-0.1,1.025,0.084,0.671,0.427,0.122,378.792
120437,143505,10967,-0.101,1.029,0.089,0.305,0.793,0.122,378.798
120424,143476,9298,-0.104,1.031,0.092,0.305,0.793,0.122,378.801
120424,143470,10975,-0.102,1.026,0.088,0,0.732,0.427,378.808
120430,143476,9298,-0.105,1.025,0.083,0,0.732,0.427,378.811
120430,143491,10964,-0.101,1.02,0.085,-0.671,0.122,0.488,378.818
120441,143476,9298,-0.1,1.016,0.086,-0.671,0.122,0.488,378.821
120441,143487,10971,-0.099,1.017,0.088,-0.915,-0.244,0.366,378.827
120446,143476,9298,-0.1,1.017,0.092,-0.915,-0.244,0.366,378.831
120446,143454,10974,-0.097,1.016,0.094,-0.549,-0.122,0.427,378.837
120424,143476,9298,-0.099,1.02,0.095,-0.549,-0.122,0.427,378.841
120424,143468,10982,-0.099,1.019,0.094,-0.305,0.122,0.488,378.847
120448,143476,9298,-0.099,1.02,0.098,-0.305,0.122,0.488,378.851
120448,143471,10970,-0.1,1.022,0.096,-0.488,0.488,0.427,378.857
120462,143476,9298,-0.101,1.022,0.091,-0.488,0.488,0.427,378.861
120462,143500,10992,-0.102,1.02,0.09,-0.671,0.549,0.366,378.867
120484,143476,9298,-0.099,1.016,0.089,-0.671,0.549,0.366,378.871
120484,143504,10963,-0.102,1.018,0.097,-0.488,0.244,0.427,378.877
120480,143476,9298,-0.101,1.023,0.098,-0.488,0.244,0.427,378.881
120480,143518,10979,-0.099,1.024,0.094,-0.488,0,0.427,378.887
120463,143476,9298,-0.096,1.023,0.093,-0.488,0,0.427,378.891
120463,143504,10974,-0.093,1.021,0.086,0.122,0.305,0.305,378.897
120465,143476,9298,-0.099,1.025,0.082,0.122,0.305,0.305,378.9
120465,143504,10975,-0.1,1.028,0.091,0.122,0.732,0.366,378.907
120457,143476,9298,-0.102,1.028,0.094,0.122,0.732,0.366,378.91
120457,143510,10979,-0.101,1.026,0.089,-0.488,0.854,0.244,378.917
120463,143476,9298,-0.103,1.022,0.083,-0.488,0.854,0.244,378.92
120463,143493,10981,-0.104,1.017,0.086,-0.549,0.61,0.061,378.926
120469,143476,9298,-0.106,1.015,0.089,-0.549,0.61,0.061,378.93
120469,143492,10982,-0.104,1.017,0.092,-0.183,0.244,0.122,378.936
120456,143476,9298,-0.101,1.018,0.093,-0.183,0.244,0.122,378.94
120456,143514,10972,-0.1,1.016,0.092,0.061,0,0.488,378.946
120444,143476,9298,-0.099,1.019,0.097,0.061,0,0.488,378.95
120444,143501,10977,-0.096,1.02,0.097,0.122,-0.183,0.488,378.956
120469,143476,9298,-0.094,1.024,0.099,0.122,-0.183,0.488,378.96
120469,143537,10967,-0.09,1.02,0.093,0.427,0.061,0.366,378.966
120486,143476,9298,-0.094,1.018,0.092,0.427,0.061,0.366,378.97
120486,143520,10980,-0.096,1.021,0.089,0.061,0.488,0.244,378.976
120448,143476,9298,-0.097,1.023,0.095,0.061,0.488,0.244,378.98
120448,143530,10982,-0.099,1.021,0.097,-0.061,0.915,0.427,378.986
120469,143476,9298,-0.104,1.022,0.091,-0.061,0.915,0.427,378.99
120469,143513,10986,-0.104,1.02,0.088,0.061,1.098,0.488,378.996
120468,143476,9298,-0.103,1.021,0.084,0.061,1.098,0.488,378.999
120468,143513,10976,-0.107,1.02,0.083,-0.427,0.854,0.427,379.006
120468,143476,9298,-0.109,1.019,0.085,-0.427,0.854,0.427,379.009
120468,143501,10991,-0.112,1.018,0.083,-0.305,0.488,0.427,379.015
120485,143476,9298,-0.107,1.022,0.081,-0.305,0.488,0.427,379.019
120485,143509,10961,-0.105,1.024,0.079,-0.427,0.122,0.61,379.025
120444,143476,9298,-0.106,1.029,0.084,-0.427,0.122,0.61,379.029
120444,143492,10981,-0.101,1.029,0.09,-0.427,-0.488,0.61,379.035
120462,143476,9298,-0.096,1.03,0.091,-0.427,-0.488,0.61,379.039
120462,143493,10975,-0.095,1.029,0.095,-0.244,-0.732,0.61,379.045
120436,143476,9298,-0.095,1.027,0.097,-0.244,-0.732,0.61,379.049
120436,143480,10959,-0.092,1.022,0.094,-0.488,-0.366,0.488,379.055
120428,143476,9298,-0.094,1.02,0.091,-0.488,-0.366,0.488,379.059
120428,143484,10971,-0.096,1.021,0.092,-1.098,0.244,0.183,379.065
120442,143476,9298,-0.1,1.02,0.093,-1.098,0.244,0.183,379.069
120442,143497,10965,-0.104,1.016,0.093,-0.915,0.671,0.061,379.075
120452,143476,9298,-0.102,1.014,0.091,-0.915,0.671,0.061,379.079
120452,143505,10969,-0.102,1.01,0.091,-0.183,0.793,0.061,379.085
120465,143476,9298,-0.104,1.012,0.093,-0.183,0.793,0.061,379.089
120465,143481,10981,-0.103,1.016,0.092,-0.122,0.427,0.305,379.095
120450,143476,9298,-0.102,1.017,0.089,-0.122,0.427,0.305,379.098
120450,143506,10988,-0.102,1.018,0.089,-0.183,0.244,0.549,379.105
120450,143476,9298,-0.103,1.019,0.092,-0.183,0.244,0.549,379.108
120450,143486,10971,-0.099,1.021,0.091,0.488,0.061,0.61,379.114
120451,143476,9298,-0.097,1.021,0.093,0.488,0.061,0.61,379.118
120451,143528,10971,-0.097,1.021,0.095,0.366,0.061,0.671,379.124
120464,143476,9298,-0.098,1.027,0.09,0.366,0.061,0.671,379.128
120464,143497,10976,-0.095,1.027,0.088,-0.122,0.305,0.915,379.134
120468,143476,9298,-0.095,1.025,0.094,-0.122,0.305,0.915,379.138
120468,143515,10977,-0.098,1.027,0.095,0.061,0.427,0.732,379.144
120483,143476,9298,-0.098,1.024,0.097,0.061,0.427,0.732,379.148
120483,143489,10979,-0.098,1.025,0.096,-0.061,0.488,0.549,379.154
120478,143476,9298,-0.099,1.027,0.091,-0.061,0.488,0.549,379.158
120478,143494,10985,-0.099,1.023,0.087,-0.427,0.854,0.183,379.164
120450,143476,9298,-0.102,1.021,0.084,-0.427,0.854,0.183,379.168
120450,143532,10981,-0.104,1.02,0.087,0,1.159,0,379.174
120462,143476,9298,-0.105,1.021,0.088,0,1.159,0,379.178
120462,143512,10962,-0.108,1.019,0.086,0.183,0.976,0,379.184
120455,143476,9298,-0.109,1.017,0.086,0.183,0.976,0,379.187
120455,143517,10974,-0.109,1.016,0.087,-0.061,0.427,0,379.194
120478,143476,9298,-0.105,1.018,0.089,-0.061,0.427,0,379.197
120478,143516,10973,-0.101,1.023,0.088,0.427,0,0.061,379.204
120487,143476,9298,-0.101,1.022,0.085,0.427,0,0.061,379.207
120487,143532,10973,-0.101,1.023,0.09,0.183,-0.183,0.183,379.213
120495,143476,9298,-0.101,1.023,0.09,0.183,-0.183,0.183,379.217
120495,143539,10967,-0.099,1.025,0.098,-0.549,-0.122,0.488,379.223
120472,143476,9298,-0.099,1.025,0.098,-0.549,-0.122,0.488,379.227
120472,143519,10978,-0.095,1.016,0.095,-0.732,-0.122,0.915,379.233
120478,143476,9298,-0.095,1.016,0.095,-0.732,-0.122,0.915,379.237
120478,143538,10956,-0.093,1.013,0.095,-0.61,0.244,0.854,379.243
120472,143476,9298,-0.093,1.013,0.095,-0.61,0.244,0.854,379.247
120472,143543,10977,-0.097,1.021,0.094,-0.854,0.732,0.427,379.253
120485,143476,9298,-0.097,1.021,0.094,-0.854,0.732,0.427,379.257
120485,143527,10995,-0.099,1.024,0.085,0,1.159,0.183,379.263
120468,143476,9298,-0.099,1.024,0.085,0,1.159,0.183,379.267
120468,143554,10990,-0.107,1.024,0.091,0.732,1.159,0.122,379.273
120479,143476,9298,-0.107,1.024,0.091,0.732,1.159,0.122,379.277
120479,143517,10991,-0.108,1.023,0.09,0.488,0.915,0.366,379.283
120465,143476,9298,-0.108,1.023,0.09,0.488,0.915,0.366,379.286
120465,143539,10971,-0.105,1.021,0.085,-0.183,0.427,0.427,379.293
120477,143476,9298,-0.105,1.021,0.085,-0.183,0.427,0.427,379.296
120477,143522,10975,-0.102,1.02,0.092,-0.488,-0.061,0.366,379.303
120472,143476,9298,-0.102,1.02,0.092,-0.488,-0.061,0.366,379.306
120472,143493,10983,-0.098,1.025,0.091,-0.549,-0.122,0.488,379.312
120482,143476,9298,-0.098,1.025,0.091,-0.549,-0.122,0.488,379.316
120482,143507,10962,-0.098,1.023,0.094,-0.427,0,0.427,379.322
120461,143476,9298,-0.098,1.023,0.094,-0.427,0,0.427,379.326
120461,143543,10987,-0.097,1.021,0.092,-0.183,0.244,0.366,379.332
120484,143476,9298,-0.097,1.021,0.092,-0.183,0.244,0.366,379.336
120484,143544,10970,-0.098,1.019,0.095,-0.427,0.366,0.244,379.342
120478,143476,9298,-0.098,1.019,0.095,-0.427,0.366,0.244,379.346
120478,143562,10973,-0.095,1.017,0.097,-0.427,0.366,0.244,379.352
120480,143476,9298,-0.098,1.016,0.097,-0.61,0.366,0.244,379.356
120480,143540,10979,-0.1,1.013,0.091,-0.61,0.366,0.244,379.362
120480,143476,9298,-0.099,1.015,0.092,-0.061,0.488,0.183,379.366
120480,143505,10989,-0.097,1.017,0.091,-0.061,0.488,0.183,379.372
120479,143476,9298,-0.099,1.02,0.094,-0.183,0.488,0.244,379.376
120479,143555,10983,-0.102,1.022,0.095,-0.183,0.488,0.244,379.382
120451,143476,9298,-0.101,1.026,0.089,0.061,0.427,0.488,379.385
120451,143523,10984,-0.101,1.023,0.089,0.061,0.427,0.488,379.392
120489,143476,9298,-0.099,1.023,0.086,0.122,0.366,0.427,379.395
120489,143519,10974,-0.099,1.025,0.084,0.122,0.366,0.427,379.402
120468,143476,9298,-0.099,1.026,0.085,-0.427,0.488,0.244,379.405
120468,143531,10986,-0.097,1.025,0.088,-0.427,0.488,0.244,379.411
120485,143476,9298,-0.1,1.024,0.089,-0.549,0.61,0.244,379.415
120485,143501,10992,-0.102,1.019,0.086,-0.549,0.61,0.244,379.421
120469,143476,9298,-0.104,1.018,0.088,-0.671,0.61,0.244,379.425
120469,143512,10989,-0.105,1.019,0.091,-0.671,0.61,0.244,379.431
120448,143476,9298,-0.106,1.019,0.093,-0.793,0.671,0.183,379.435
120448,143519,10978,-0.106,1.023,0.094,-0.793,0.671,0.183,379.441
120472,143476,9298,-0.106,1.022,0.097,-0.488,0.488,0.305,379.445
120472,143517,10979,-0.106,1.018,0.093,-0.488,0.488,0.305,379.451
120463,143476,9298,-0.099,1.021,0.09,-0.061,0.244,0.305,379.455
120463,143530,10970,-0.1,1.021,0.09,-0.061,0.244,0.305,379.461
120462,143476,9298,-0.1,1.019,0.098,0.061,0,0.305,379.465
120462,143532,10976,-0.101,1.02,0.104,0.061,0,0.305,379.471
120492,143476,9298,-0.097,1.022,0.102,0.244,-0.061,0.427,379.475
120492,143518,10987,-0.098,1.02,0.102,0.244,-0.061,0.427,379.481
120477,143476,9298,-0.094,1.019,0.095,0,0.122,0.427,379.484
120477,143530,10987,-0.095,1.016,0.089,0,0.122,0.427,379.491
120465,143476,9298,-0.095,1.015,0.089,-0.366,0.61,0.305,379.494
120465,143521,10980,-0.099,1.017,0.087,-0.366,0.61,0.305,379.5
120465,143476,9298,-0.101,1.02,0.085,0,0.854,0.244,379.504
120465,143503,10986,-0.105,1.021,0.083,0,0.854,0.244,379.51
120469,143476,9298,-0.102,1.018,0.086,0.061,0.671,0.305,379.514
120469,143514,10983,-0.104,1.02,0.088,0.061,0.671,0.305,379.52
120452,143476,9298,-0.105,1.021,0.092,0.122,0.366,0.366,379.524
120452,143498,10983,-0.104,1.022,0.089,0.122,0.366,0.366,379.53
120429,143476,9298,-0.102,1.025,0.083,0.061,0.305,0.488,379.534
120429,143512,10988,-0.103,1.028,0.085,0.061,0.305,0.488,379.54
120445,143476,9298,-0.102,1.027,0.095,-0.549,0.183,0.61,379.544
120445,143525,10964,-0.101,1.025,0.093,-0.549,0.183,0.61,379.55
120453,143476,9298,-0.103,1.023,0.095,-0.427,-0.061,0.488,379.554
120453,143514,10980,-0.102,1.024,0.091,-0.427,-0.061,0.488,379.56
120442,143476,9298,-0.1,1.021,0.089,-0.366,0.061,0.488,379.564
120442,143506,10989,-0.102,1.02,0.091,-0.366,0.061,0.488,379.57
120459,143476,9298,-0.102,1.023,0.095,-0.366,0.488,0.488,379.573
120459,143528,10987,-0.104,1.021,0.099,-0.366,0.488,0.488,379.58
120436,143476,9298,-0.101,1.021,0.097,0,0.305,0.427,379.583
120436,143497,10994,-0.095,1.021,0.093,0,0.305,0.427,379.59
120458,143476,9298,-0.095,1.017,0.092,-0.183,-0.061,0.305,379.593
120458,143489,10979,-0.096,1.014,0.089,-0.183,-0.061,0.305,379.599
120461,143476,9298,-0.099,1.017,0.088,-0.488,0.122,0.122,379.603
120461,143505,10984,-0.099,1.017,0.087,-0.488,0.122,0.122,379.609
120443,143476,9298,-0.098,1.018,0.09,-0.061,0.488,0.244,379.613
120443,143483,10981,-0.097,1.02,0.091,-0.061,0.488,0.244,379.619
120450,143476,9298,-0.102,1.019,0.09,0.305,0.61,0.427,379.623
120450,143494,10984,-0.103,1.025,0.093,0.305,0.61,0.427,379.629
120430,143476,9298,-0.099,1.028,0.094,0,0.244,0.366,379.633
120430,143487,10958,-0.1,1.024,0.091,0,0.244,0.366,379.639
120432,143476,9298,-0.098,1.023,0.087,-0.305,0.244,0.427,379.643
120432,143494,10975,-0.098,1.022,0.089,-0.305,0.244,0.427,379.649
120431,143476,9298,-0.099,1.024,0.094,-0.488,0.305,0.366,379.653
120431,143504,10981,-0.103,1.025,0.095,-0.488,0.305,0.366,379.659
120413,143476,9298,-0.101,1.027,0.095,-0.488,0.366,0.427,379.663
120413,143500,10972,-0.103,1.02,0.09,-0.488,0.366,0.427,379.669
120422,143476,9298,-0.1,1.015,0.092,-0.244,0.488,0.427,379.672
120422,143462,10986,-0.1,1.015,0.091,-0.244,0.488,0.427,379.679
120439,143476,9298,-0.1,1.015,0.092,-0.061,0.61,0.305,379.682
120439,143494,10960,-0.102,1.02,0.096,-0.061,0.61,0.305,379.689
120430,143476,9298,-0.1,1.024,0.094,0.122,0.549,0.244,379.692
120430,143503,10980,-0.099,1.024,0.09,0.122,0.549,0.244,379.698
120445,143476,9298,-0.098,1.022,0.086,0.244,0.366,0.183,379.702
120445,143507,10961,-0.096,1.017,0.087,0.244,0.366,0.183,379.708
120450,143476,9298,-0.096,1.018,0.087,0.549,0.488,0.183,379.712
120450,143490,10972,-0.099,1.021,0.094,0.549,0.488,0.183,379.718
120460,143476,9298,-0.102,1.023,0.097,0.122,0.671,0.366,379.722
120460,143522,10970,-0.103,1.024,0.093,0.122,0.671,0.366,379.728
120458,143476,9298,-0.101,1.026,0.089,-0.732,0.488,0.366,379.732
120458,143518,10981,-0.104,1.023,0.088,-0.732,0.488,0.366,379.738
120459,143476,9298,-0.104,1.019,0.086,-0.915,0.366,0.366,379.742
120459,143511,10959,-0.101,1.017,0.088,-0.915,0.366,0.366,379.748
120419,143476,9298,-0.103,1.016,0.095,-0.61,0.244,0.305,379.752
120419,143496,10975,-0.1,1.013,0.097,-0.61,0.244,0.305,379.758
120427,143476,9298,-0.102,1.015,0.096,-0.61,0.122,0.366,379.762
120427,143509,10968,-0.101,1.02,0.096,-0.61,0.122,0.366,379.768
120439,143476,9298,-0.104,1.023,0.09,-0.549,0.366,0.488,379.771
120439,143506,10966,-0.099,1.02,0.086,-0.549,0.366,0.488,379.778
120440,143476,9298,-0.098,1.018,0.082,0.427,0.549,0.427,379.781
120440,143491,10962,-0.1,1.021,0.084,0.427,0.549,0.427,379.788
120432,143476,9298,-0.1,1.021,0.084,0.427,0.549,0.427,379.791
120432,143494,10977,-0.097,1.025,0.089,0.793,0.488,0.305,379.797
120430,143476,9298,-0.097,1.025,0.089,0.793,0.488,0.305,379.801
120430,143503,10972,-0.097,1.023,0.088,0.549,0.244,0.183,379.807
120447,143476,9298,-0.097,1.023,0.088,0.549,0.244,0.183,379.811
120447,143491,10952,-0.101,1.022,0.091,0.122,0.366,0.427,379.817
120421,143476,9298,-0.101,1.022,0.091,0.122,0.366,0.427,379.821
120421,143477,10960,-0.103,1.024,0.093,-1.098,0.366,0.671,379.827
120438,143476,9298,-0.103,1.024,0.093,-1.098,0.366,0.671,379.831
120438,143502,10974,-0.098,1.02,0.099,-1.585,0.122,0.549,379.837
120423,143476,9298,-0.098,1.02,0.099,-1.585,0.122,0.549,379.841
120423,143474,10975,-0.097,1.014,0.092,-1.159,-0.122,0.366,379.847
120408,143476,9298,-0.097,1.014,0.092,-1.159,-0.122,0.366,379.851
120408,143489,10965,-0.098,1.017,0.091,-0.671,0.244,0.549,379.857
120414,143476,9298,-0.098,1.017,0.091,-0.671,0.244,0.549,379.861
120414,143478,10962,-0.103,1.024,0.098,0.122,0.671,0.488,379.867
120420,143476,9298,-0.103,1.024,0.098,0.122,0.671,0.488,379.87
120420,143479,10978,-0.101,1.027,0.094,0.793,0.732,0.244,379.877
120422,143476,9298,-0.101,1.027,0.094,0.793,0.732,0.244,379.88
120422,143499,10976,-0.099,1.026,0.086,0.549,0.488,0.244,379.887
120434,143476,9298,-0.099,1.026,0.086,0.549,0.488,0.244,379.89
120434,143507,10962,-0.103,1.02,0.092,0.366,0.488,0.244,379.896
120422,143476,9298,-0.103,1.02,0.092,0.366,0.488,0.244,379.9
120422,143475,10968,-0.102,1.02,0.092,-0.244,0.427,0.183,379.906
120386,143476,9298,-0.102,1.02,0.092,-0.244,0.427,0.183,379.91
120386,143489,10966,-0.098,1.017,0.088,-0.732,0.122,0.366,379.916
120451,143476,9298,-0.098,1.017,0.088,-0.732,0.122,0.366,379.92
120451,143511,10979,-0.094,1.013,0.086,-0.549,0.061,0.366,379.926
120412,143476,9298,-0.097,1.014,0.087,-0.549,0.061,0.366,379.93
120412,143506,10976,-0.096,1.018,0.091,-0.061,0.305,0.366,379.936
120428,143476,9298,-0.099,1.02,0.096,-0.061,0.305,0.366,379.94
120428,143506,10960,-0.1,1.021,0.099,0,0.305,0.366,379.946
120429,143476,9298,-0.099,1.021,0.098,0,0.305,0.366,379.95
120429,143503,10977,-0.1,1.022,0.089,0.061,0.549,0.122,379.956
120456,143476,9298,-0.1,1.019,0.09,0.061,0.549,0.122,379.96
120456,143492,10967,-0.102,1.019,0.088,0.183,0.793,0.122,379.966
120426,143476,9298,-0.105,1.021,0.09,0.183,0.793,0.122,379.969
120426,143504,10967,-0.107,1.025,0.09,0,0.671,0.427,379.976
120429,143476,9298,-0.105,1.024,0.091,0,0.671,0.427,379.979
120429,143491,10982,-0.101,1.025,0.085,0,0.061,0.488,379.985
120450,143476,9298,-0.102,1.021,0.089,0,0.061,0.488,379.989
120450,143483,10970,-0.099,1.022,0.092,0,-0.122,0.488,379.995
120420,143476,9298,-0.101,1.023,0.092,0,-0.122,0.488,379.999
120420,143492,10976,-0.099,1.024,0.092,-0.488,-0.061,0.549,380.005
120429,143476,9298,-0.097,1.022,0.087,-0.488,-0.061,0.549,380.009
120429,143499,10960,-0.099,1.021,0.086,-0.671,0.061,0.427,380.015
120397,143476,9298,-0.099,1.018,0.087,-0.671,0.061,0.427,380.019
120397,143526,10975,-0.098,1.02,0.088,-0.427,0.183,0.244,380.025
120436,143476,9298,-0.1,1.021,0.087,-0.427,0.183,0.244,380.029
120436,143486,10979,-0.099,1.02,0.089,-0.793,0.183,0.244,380.035
120420,143476,9298,-0.1,1.019,0.089,-0.793,0.183,0.244,380.039
120420,143504,10976,-0.103,1.018,0.095,-0.854,0.183,0.305,380.045
120418,143476,9298,-0.1,1.016,0.094,-0.854,0.183,0.305,380.049
120418,143462,10981,-0.101,1.016,0.093,-0.488,0,0.183,380.055
120428,143476,9298,-0.1,1.014,0.094,-0.488,0,0.183,380.059
120428,143474,10970,-0.103,1.016,0.091,-0.549,0,0.305,380.065
120410,143476,9298,-0.102,1.018,0.097,-0.549,0,0.305,380.068
120410,143486,10971,-0.101,1.019,0.102,0,0.122,0.488,380.075
120417,143476,9298,-0.099,1.018,0.099,0,0.122,0.488,380.078
120417,143481,10967,-0.098,1.019,0.099,0.061,0.122,0.61,380.084
120442,143476,9298,-0.097,1.022,0.099,0.061,0.122,0.61,380.088
120442,143512,10968,-0.094,1.022,0.098,-0.183,0.183,0.732,380.094
120423,143476,9298,-0.096,1.022,0.104,-0.183,0.183,0.732,380.098
120423,143492,10984,-0.093,1.022,0.096,0,0.488,0.671,380.104
120449,143476,9298,-0.094,1.017,0.089,0,0.488,0.671,380.108
120449,143487,10966,-0.094,1.019,0.088,0.488,0.915,0.427,380.114
120454,143476,9298,-0.097,1.019,0.088,0.488,0.915,0.427,380.118
120454,143498,10970,-0.099,1.022,0.088,0.732,1.341,0.244,380.124
120442,143476,9298,-0.101,1.025,0.081,0.732,1.341,0.244,380.128
120442,143522,10978,-0.107,1.029,0.083,0.549,1.524,0.305,380.134
120460,143476,9298,-0.108,1.028,0.086,0.549,1.524,0.305,380.138
120460,143513,10978,-0.105,1.024,0.091,0.366,1.159,0.244,380.144
120452,143476,9298,-0.103,1.028,0.092,0.366,1.159,0.244,380.148
120452,143503,10977,-0.108,1.025,0.084,0.061,0.61,0.305,380.154
120463,143476,9298,-0.107,1.019,0.084,0.061,0.61,0.305,380.157
120463,143510,10974,-0.106,1.02,0.089,-0.122,0.305,0.366,380.164
120464,143476,9298,-0.103,1.017,0.097,-0.122,0.305,0.366,380.167
120464,143517,10980,-0.1,1.018,0.097,-0.061,0.183,0.366,380.174
120461,143476,9298,-0.1,1.02,0.096,-0.061,0.183,0.366,380.177
120461,143542,10982,-0.099,1.022,0.101,0.061,0.183,0.488,380.183
120443,143476,9298,-0.097,1.018,0.095,0.061,0.183,0.488,380.187
120443,143509,10983,-0.095,1.017,0.095,0.183,0.305,0.61,380.193
120439,143476,9298,-0.094,1.018,0.091,0.183,0.305,0.61,380.197
120439,143503,10981,-0.095,1.018,0.091,0.061,0.549,0.549,380.203
120452,143476,9298,-0.097,1.017,0.094,0.061,0.549,0.549,380.207
120452,143541,10976,-0.099,1.023,0.087,-0.244,0.732,0.488,380.213
120445,143476,9298,-0.098,1.025,0.085,-0.244,0.732,0.488,380.217
120445,143508,10994,-0.1,1.025,0.079,-0.122,0.671,0.366,380.223
120463,143476,9298,-0.098,1.022,0.081,-0.122,0.671,0.366,380.227
120463,143550,10970,-0.101,1.021,0.087,0.427,0.366,0.244,380.233
120467,143476,9298,-0.103,1.025,0.088,0.427,0.366,0.244,380.237
120467,143540,10986,-0.1,1.027,0.093,-0.244,0.122,0.305,380.243
120482,143476,9298,-0.1,1.028,0.092,-0.244,0.122,0.305,380.247
120482,143529,10982,-0.1,1.024,0.086,-1.098,0.122,0.305,380.253
120487,143476,9298,-0.101,1.021,0.085,-1.098,0.122,0.305,380.256
120487,143585,10976,-0.099,1.018,0.091,-1.159,0.122,0.183,380.263
120484,143476,9298,-0.102,1.02,0.093,-1.159,0.122,0.183,380.266
120484,143566,10986,-0.106,1.019,0.096,-1.28,0.122,0.366,380.273
120512,143476,9298,-0.104,1.02,0.098,-1.28,0.122,0.366,380.276
120512,143555,10995,-0.1,1.022,0.1,-1.098,0,0.427,380.282
120514,143476,9298,-0.1,1.019,0.098,-1.098,0,0.427,380.286
120514,143587,11001,-0.099,1.018,0.099,-0.61,0.122,0.305,380.292
120540,143476,9298,-0.1,1.019,0.093,-0.61,0.122,0.305,380.296
120540,143579,10977,-0.103,1.021,0.094,-0.488,0.122,0.427,380.302
120545,143476,9298,-0.102,1.019,0.098,-0.488,0.122,0.427,380.306
120545,143594,10983,-0.099,1.019,0.099,-0.305,0.061,0.488,380.312
120534,143476,9298,-0.099,1.017,0.099,-0.305,0.061,0.488,380.316
120534,143568,10994,-0.099,1.014,0.095,-0.122,0.061,0.305,380.322
120533,143476,9298,-0.099,1.017,0.092,-0.122,0.061,0.305,380.326
120533,143598,10996,-0.098,1.02,0.095,0,0.244,0.305,380.332
120515,143476,9298,-0.099,1.025,0.096,0,0.244,0.305,380.336
120515,143574,11000,-0.099,1.025,0.094,0.305,0.61,0.427,380.342
120507,143476,9298,-0.098,1.025,0.088,0.305,0.61,0.427,380.346
120507,143577,10988,-0.099,1.022,0.089,0.244,0.793,0.366,380.352
120493,143476,9298,-0.098,1.022,0.09,0.244,0.793,0.366,380.355
120493,143587,11000,-0.098,1.018,0.09,0,0.732,0.305,380.362
120492,143476,9298,-0.098,1.018,0.09,0,0.732,0.305,380.365
120492,143556,10983,-0.099,1.018,0.094,0.122,0.549,0.366,380.372
120480,143476,9298,-0.099,1.018,0.094,0.122,0.549,0.366,380.375
120480,143537,10977,-0.1,1.015,0.096,0.366,0.366,0.305,380.381
120488,143476,9298,-0.1,1.015,0.096,0.366,0.366,0.305,380.385
120488,143561,11005,-0.099,1.02,0.09,0,0.732,0.366,380.391
120479,143476,9298,-0.099,1.02,0.09,0,0.732,0.366,380.395
120479,143537,10982,-0.102,1.024,0.096,0.244,0.915,0.427,380.401
120480,143476,9298,-0.102,1.024,0.096,0.244,0.915,0.427,380.405
120480,143561,10988,-0.101,1.024,0.093,0.366,0.793,0.488,380.411
120470,143476,9298,-0.101,1.024,0.093,0.366,0.793,0.488,380.415
120470,143536,10997,-0.102,1.023,0.089,0.061,0.671,0.427,380.421
120496,143476,9298,-0.102,1.023,0.089,0.061,0.671,0.427,380.425
120496,143547,10983,-0.103,1.019,0.087,0.244,0.549,0.305,380.431
120479,143476,9298,-0.103,1.019,0.087,0.244,0.549,0.305,380.435
120479,143542,10975,-0.102,1.021,0.09,0.427,0.183,0.305,380.441
120474,143476,9298,-0.102,1.021,0.09,0.427,0.183,0.305,380.445
120474,143516,10989,-0.102,1.024,0.088,0.61,0.122,0.305,380.451
120459,143476,9298,-0.102,1.024,0.088,0.61,0.122,0.305,380.454
120459,143533,10974,-0.098,1.026,0.089,0.61,0.183,0.244,380.461
120462,143476,9298,-0.098,1.026,0.089,0.61,0.183,0.244,380.464
120462,143516,10985,-0.1,1.026,0.087,0.183,0.305,0.122,380.471
120459,143476,9298,-0.1,1.026,0.087,0.183,0.305,0.122,380.474
120459,143534,10984,-0.099,1.021,0.089,-0.732,0.488,0.122,380.48
120467,143476,9298,-0.099,1.021,0.089,-0.732,0.488,0.122,380.484
120467,143513,10979,-0.103,1.018,0.09,-0.976,0.427,0.366,380.49
120458,143476,9298,-0.103,1.018,0.09,-0.976,0.427,0.366,380.494
120458,143528,10982,-0.103,1.018,0.09,-0.793,0.488,0.427,380.5
120478,143476,9298,-0.103,1.018,0.09,-0.793,0.488,0.427,380.504
120478,143527,10982,-0.102,1.018,0.088,-0.793,0.488,0.427,380.51
120454,143476,9298,-0.1,1.019,0.09,-0.61,0.244,0.366,380.514
120454,143511,10989,-0.102,1.019,0.091,-0.61,0.244,0.366,380.52
120452,143476,9298,-0.103,1.02,0.093,-0.366,0.122,0.549,380.524
120452,143508,10982,-0.102,1.022,0.096,-0.366,0.122,0.549,380.53
120471,143476,9298,-0.102,1.022,0.1,-0.549,0.183,0.671,380.534
120471,143511,10979,-0.101,1.023,0.097,-0.549,0.183,0.671,380.54
120456,143476,9298,-0.098,1.022,0.092,-0.183,0.061,0.671,380.544
120456,143509,10980,-0.093,1.021,0.095,-0.183,0.061,0.671,380.55
120437,143476,9298,-0.095,1.022,0.093,-0.061,0.122,0.488,380.553
120437,143500,10985,-0.095,1.023,0.092,-0.061,0.122,0.488,380.56
120455,143476,9298,-0.095,1.023,0.096,-0.244,0.244,0.366,380.563
120455,143512,10972,-0.096,1.022,0.094,-0.244,0.244,0.366,380.57
120459,143476,9298,-0.101,1.02,0.09,-0.122,0.61,0.244,380.573
120459,143522,10980,-0.1,1.021,0.086,-0.122,0.61,0.244,380.579
120434,143476,9298,-0.101,1.02,0.086,-0.549,0.793,0.183,380.583
120434,143502,10989,-0.101,1.022,0.086,-0.549,0.793,0.183,380.589
120454,143476,9298,-0.101,1.023,0.09,-0.671,0.671,0.183,380.593
120454,143529,10978,-0.103,1.021,0.094,-0.671,0.671,0.183,380.599
120458,143476,9298,-0.103,1.022,0.091,-0.305,0.244,0.305,380.603
120458,143528,10972,-0.104,1.019,0.091,-0.305,0.244,0.305,380.609
120460,143476,9298,-0.101,1.02,0.093,-0.427,0.122,0.427,380.613
120460,143525,10975,-0.1,1.019,0.093,-0.427,0.122,0.427,380.619
120462,143476,9298,-0.1,1.017,0.092,-0.671,0.305,0.305,380.623
120462,143543,10975,-0.1,1.018,0.092,-0.671,0.305,0.305,380.629
120483,143476,9298,-0.101,1.018,0.091,-0.305,0.549,0.427,380.633
120483,143528,10977,-0.102,1.019,0.09,-0.305,0.549,0.427,380.639
120463,143476,9298,-0.104,1.022,0.09,-0.366,0.488,0.488,380.643
120463,143538,10964,-0.102,1.024,0.1,-0.366,0.488,0.488,380.649
120447,143476,9298,-0.099,1.026,0.098,-0.061,0.183,0.61,380.652
120447,143529,10986,-0.097,1.025,0.101,-0.061,0.183,0.61,380.659
120475,143476,9298,-0.094,1.021,0.097,-0.183,-0.122,0.732,380.662
120475,143515,10978,-0.094,1.018,0.087,-0.183,-0.122,0.732,380.668
120463,143476,9298,-0.093,1.02,0.089,-0.061,0.061,0.366,380.672
120463,143512,10981,-0.094,1.018,0.098,-0.061,0.061,0.366,380.678
120445,143476,9298,-0.098,1.023,0.098,0.366,0.732,0.122,380.682
120445,143486,10991,-0.102,1.022,0.091,0.366,0.732,0.122,380.688
120455,143476,9298,-0.102,1.019,0.095,0.122,1.22,0.122,380.692
120455,143513,10970,-0.104,1.021,0.093,0.122,1.22,0.122,380.698
120446,143476,9298,-0.105,1.021,0.086,0.061,1.037,0.183,380.702
120446,143538,10983,-0.106,1.019,0.086,0.061,1.037,0.183,380.708
120441,143476,9298,-0.104,1.021,0.087,-0.122,0.549,0.366,380.712
120441,143512,10989,-0.103,1.018,0.089,-0.122,0.549,0.366,380.718
120454,143476,9298,-0.1,1.02,0.093,0.061,0.122,0.427,380.722
120454,143545,10985,-0.101,1.018,0.094,0.061,0.122,0.427,380.728
120454,143476,9298,-0.103,1.023,0.093,-0.061,-0.061,0.427,380.732
120454,143534,10981,-0.102,1.027,0.096,-0.061,-0.061,0.427,380.738
120472,143476,9298,-0.099,1.025,0.095,-0.122,0,0.488,380.742
120472,143537,10969,-0.097,1.022,0.096,-0.122,0,0.488,380.748
120459,143476,9298,-0.096,1.022,0.095,0.366,0.183,0.427,380.751
120459,143541,10976,-0.095,1.024,0.094,0.366,0.183,0.427,380.758
120488,143476,9298,-0.097,1.026,0.088,-0.244,0.427,0.244,380.761
120488,143548,10983,-0.097,1.024,0.09,-0.244,0.427,0.244,380.767
120479,143476,9298,-0.098,1.023,0.093,-0.549,0.671,0.183,380.771
120479,143537,10982,-0.1,1.019,0.093,-0.549,0.671,0.183,380.777
120501,143476,9298,-0.102,1.017,0.091,-0.244,0.793,0.244,380.781
120501,143531,10969,-0.105,1.019,0.083,-0.244,0.793,0.244,380.787
120491,143476,9298,-0.101,1.02,0.083,-0.366,0.732,0.122,380.791
120491,143566,10978,-0.107,1.02,0.086,-0.366,0.732,0.122,380.797
120500,143476,9298,-0.105,1.021,0.094,-0.183,0.427,0.183,380.801
120500,143559,10980,-0.102,1.017,0.098,-0.183,0.427,0.183,380.807
120505,143476,9298,-0.102,1.016,0.09,0.244,0.122,0.366,380.811
120505,143569,10988,-0.102,1.022,0.089,0.244,0.122,0.366,380.817
120519,143476,9298,-0.101,1.024,0.091,0.061,0.061,0.488,380.821
120519,143550,10980,-0.1,1.026,0.095,0.061,0.061,0.488,380.827
120514,143476,9298,-0.096,1.025,0.099,-0.122,0.122,0.549,380.831
120514,143585,10981,-0.094,1.024,0.094,-0.122,0.122,0.549,380.837
120519,143476,9298,-0.094,1.026,0.094,-0.305,0,0.488,380.84
120519,143571,10979,-0.092,1.025,0.096,-0.305,0,0.488,380.847
120508,143476,9298,-0.095,1.021,0.095,-0.244,0.183,0.305,380.85
120508,143558,10989,-0.097,1.023,0.093,-0.244,0.183,0.305,380.857
120510,143476,9298,-0.099,1.025,0.097,-0.427,0.915,0.061,380.86
120510,143574,10985,-0.101,1.021,0.096,-0.427,0.915,0.061,380.866
120497,143476,9298,-0.105,1.017,0.098,-0.427,1.28,-0.061,380.87
120497,143579,10987,-0.107,1.017,0.088,-0.427,1.28,-0.061,380.876
120521,143476,9298,-0.107,1.016,0.086,0.183,1.037,0.183,380.88
120521,143580,10985,-0.108,1.02,0.091,0.183,1.037,0.183,380.886
120510,143476,9298,-0.104,1.021,0.093,0,0.305,0.305,380.89
120510,143608,10978,-0.102,1.021,0.095,0,0.305,0.305,380.896
120520,143476,9298,-0.101,1.024,0.095,-0.244,-0.366,0.305,380.9
120520,143586,10974,-0.1,1.02,0.094,-0.244,-0.366,0.305,380.906
120527,143476,9298,-0.098,1.019,0.089,0,-0.244,0.366,380.91
120527,143597,10977,-0.097,1.021,0.089,0,-0.244,0.366,380.916
120509,143476,9298,-0.098,1.021,0.089,0.244,0.244,0.488,380.92
120509,143584,10982,-0.099,1.022,0.093,0.244,0.244,0.488,380.926
120506,143476,9298,-0.099,1.022,0.098,0.61,0.488,0.488,380.93
120506,143552,10981,-0.097,1.025,0.101,0.61,0.488,0.488,380.936
120488,143476,9298,-0.097,1.025,0.101,0.61,0.488,0.488,380.94
120488,143567,10993,-0.098,1.026,0.093,0.305,0.366,0.366,380.946
120529,143476,9298,-0.098,1.026,0.093,0.305,0.366,0.366,380.949
120529,143563,10980,-0.096,1.02,0.089,-0.244,0.61,0.366,380.956
120502,143476,9298,-0.096,1.02,0.089,-0.244,0.61,0.366,380.959
120502,143570,10994,-0.103,1.018,0.09,-0.244,1.037,0.183,380.965
120492,143476,9298,-0.103,1.018,0.09,-0.244,1.037,0.183,380.969
120492,143581,10985,-0.107,1.019,0.081,-0.427,1.159,0.244,380.975
120502,143476,9298,-0.107,1.019,0.081,-0.427,1.159,0.244,380.979
120502,143553,10984,-0.105,1.022,0.089,0.122,0.854,0.427,380.985
120513,143476,9298,-0.105,1.022,0.089,0.122,0.854,0.427,380.989
120513,143553,10987,-0.104,1.025,0.091,0.366,0.244,0.427,380.995
120507,143476,9298,-0.104,1.025,0.091,0.366,0.244,0.427,380.999
120507,143547,10987,-0.101,1.022,0.091,-0.183,0.061,0.488,381.005
120476,143476,9298,-0.101,1.022,0.091,-0.183,0.061,0.488,381.009
120476,143575,10993,-0.1,1.015,0.09,-0.793,0.122,0.488,381.015
120450,143476,9298,-0.1,1.015,0.09,-0.793,0.122,0.488,381.019
120450,143541,10997,-0.098,1.015,0.091,-0.854,0.244,0.671,381.025
120485,143476,9298,-0.098,1.015,0.091,-0.854,0.244,0.671,381.029
120485,143557,10966,-0.1,1.021,0.105,-0.549,0.244,0.61,381.035
120473,143476,9298,-0.1,1.021,0.105,-0.549,0.244,0.61,381.038
120473,143578,10997,-0.095,1.025,0.097,0.183,-0.061,0.61,381.045
120489,143476,9298,-0.095,1.025,0.097,0.183,-0.061,0.61,381.048
120489,143558,10969,-0.094,1.023,0.089,0.305,0.122,0.427,381.055
120483,143476,9298,-0.094,1.023,0.089,0.305,0.122,0.427,381.058
120483,143576,10989,-0.1,1.023,0.087,0.122,0.61,0.183,381.064
120504,143476,9298,-0.1,1.023,0.087,0.122,0.61,0.183,381.068
120504,143583,10975,-0.101,1.021,0.092,-0.427,0.793,0.183,381.074
120489,143476,9298,-0.101,1.021,0.092,-0.427,0.793,0.183,381.078
120489,143569,10993,-0.102,1.02,0.09,-0.183,0.488,0.183,381.084
120479,143476,9298,-0.099,1.018,0.083,-0.183,0.488,0.183,381.088
120479,143548,10989,-0.1,1.018,0.083,0.061,0.122,0.183,381.094
120497,143476,9298,-0.1,1.022,0.089,0.061,0.122,0.183,381.098
120497,143557,10985,-0.1,1.028,0.095,-0.671,0.122,0.488,381.104
120461,143476,9298,-0.101,1.03,0.093,-0.671,0.122,0.488,381.108
120461,143547,11005,-0.098,1.025,0.093,-1.159,0.244,0.427,381.114
120481,143476,9298,-0.099,1.016,0.09,-1.159,0.244,0.427,381.118
120481,143546,10993,-0.1,1.016,0.088,-1.037,0.549,0.244,381.124
120468,143476,9298,-0.103,1.015,0.094,-1.037,0.549,0.244,381.128
120468,143548,10998,-0.105,1.016,0.099,-1.037,0.61,0.427,381.134
120493,143476,9298,-0.106,1.018,0.102,-1.037,0.61,0.427,381.137
120493,143570,10989,-0.109,1.021,0.101,-0.61,0.488,0.671,381.144
120480,143476,9298,-0.107,1.021,0.098,-0.61,0.488,0.671,381.147
120480,143595,10987,-0.101,1.02,0.094,0.183,0.122,0.488,381.154
120490,143476,9298,-0.1,1.023,0.095,0.183,0.122,0.488,381.157
120490,143588,10992,-0.1,1.026,0.096,0.244,0,0.305,381.163
120488,143476,9298,-0.1,1.024,0.099,0.244,0,0.305,381.167
120488,143589,10987,-0.1,1.02,0.1,0.061,-0.061,0.427,381.173
120501,143476,9298,-0.097,1.017,0.095,0.061,-0.061,0.427,381.177
120501,143573,10984,-0.095,1.02,0.088,0.183,0.183,0.427,381.183
120506,143476,9298,-0.094,1.022,0.09,0.183,0.183,0.427,381.187
120506,143591,10994,-0.095,1.024,0.088,-0.549,0.427,0.244,381.193
120495,143476,9298,-0.097,1.022,0.089,-0.549,0.427,0.244,381.197
120495,143576,10995,-0.098,1.021,0.091,-0.183,0.427,0.244,381.203
120500,143476,9298,-0.098,1.017,0.095,-0.183,0.427,0.244,381.207
120500,143555,10991,-0.097,1.019,0.09,-0.244,0.427,0.366,381.213
120478,143476,9298,-0.101,1.018,0.084,-0.244,0.427,0.366,381.217
120478,143556,10995,-0.1,1.021,0.086,-0.976,0.732,0.427,381.223
120482,143476,9298,-0.105,1.021,0.092,-0.976,0.732,0.427,381.227
120482,143583,10992,-0.105,1.019,0.096,-0.122,0.732,0.488,381.233
120473,143476,9298,-0.105,1.017,0.098,-0.122,0.732,0.488,381.236
120473,143574,11000,-0.11,1.022,0.101,0.183,0.427,0.61,381.243
120477,143476,9298,-0.109,1.023,0.097,0.183,0.427,0.61,381.246
120477,143586,11011,-0.101,1.027,0.092,0.183,0.183,0.549,381.253
120494,143476,9298,-0.1,1.024,0.091,0.183,0.183,0.549,381.256
120494,143568,10991,-0.098,1.021,0.09,0.793,0.244,0.305,381.262
120491,143476,9298,-0.098,1.024,0.096,0.793,0.244,0.305,381.266
120491,143582,10986,-0.097,1.025,0.097,0.549,0.244,0.366,381.272
120474,143476,9298,-0.099,1.025,0.099,0.549,0.244,0.366,381.276
120474,143551,10992,-0.097,1.022,0.09,-0.061,0.427,0.488,381.282
120488,143476,9298,-0.097,1.019,0.082,-0.061,0.427,0.488,381.286
120488,143565,10998,-0.095,1.016,0.084,-0.305,0.671,0.366,381.292
120468,143476,9298,-0.097,1.014,0.083,-0.305,0.671,0.366,381.296
120468,143569,10989,-0.099,1.014,0.087,-0.305,0.427,0.305,381.302
120479,143476,9298,-0.1,1.02,0.095,-0.305,0.427,0.305,381.306
120479,143555,10982,-0.099,1.021,0.092,-0.244,0.061,0.366,381.312
120461,143476,9298,-0.101,1.022,0.095,-0.244,0.061,0.366,381.316
120461,143548,10997,-0.096,1.019,0.104,-0.488,0.061,0.244,381.322
120443,143476,9298,-0.1,1.021,0.098,-0.488,0.061,0.244,381.326
120443,143563,10994,-0.103,1.018,0.099,-0.122,0.427,0.427,381.332
120452,143476,9298,-0.102,1.018,0.096,-0.122,0.427,0.427,381.335
120452,143558,10990,-0.104,1.021,0.09,-0.549,0.793,0.61,381.342
120454,143476,9298,-0.105,1.022,0.093,-0.549,0.793,0.61,381.345
120454,143541,10988,-0.104,1.024,0.089,0.122,0.732,0.366,381.352
120456,143476,9298,-0.102,1.023,0.094,0.122,0.732,0.366,381.355
120456,143540,10986,-0.101,1.023,0.092,0.366,0.366,0.427,381.361
120464,143476,9298,-0.1,1.03,0.098,0.366,0.366,0.427,381.365
120464,143545,10981,-0.097,1.028,0.097,0.305,0,0.61,381.371
120484,143476,9298,-0.099,1.022,0.094,0.305,0,0.61,381.375
120484,143549,10982,-0.095,1.021,0.088,0.305,0.244,0.366,381.381
120456,143476,9298,-0.095,1.016,0.087,0.305,0.244,0.366,381.385
120456,143554,11012,-0.098,1.016,0.085,-0.732,0.549,0.122,381.391
120492,143476,9298,-0.101,1.017,0.09,-0.732,0.549,0.122,381.395
120492,143578,10995,-0.102,1.014,0.092,-0.732,0.61,0.305,381.401
120491,143476,9298,-0.104,1.017,0.09,-0.732,0.61,0.305,381.405
120491,143587,10999,-0.104,1.018,0.091,-0.061,0.366,0.366,381.411
120475,143476,9298,-0.099,1.02,0.09,-0.061,0.366,0.366,381.415
120475,143540,10990,-0.099,1.025,0.088,0,0.244,0.366,381.421
120463,143476,9298,-0.102,1.025,0.088,0,0.244,0.366,381.425
120463,143560,10992,-0.099,1.026,0.093,0.122,0.244,0.427,381.431
120482,143476,9298,-0.099,1.025,0.093,0.122,0.244,0.427,381.434
120482,143535,10969,-0.102,1.022,0.09,-0.427,0.366,0.549,381.441
120454,143476,9298,-0.101,1.02,0.093,-0.427,0.366,0.549,381.444
120454,143564,10985,-0.099,1.02,0.096,-0.61,0.305,0.488,381.451
120466,143476,9298,-0.1,1.022,0.095,-0.61,0.305,0.488,381.454
120466,143539,10975,-0.1,1.023,0.089,-0.366,0.488,0.427,381.46
120472,143476,9298,-0.099,1.026,0.089,-0.366,0.488,0.427,381.464
120472,143549,10986,-0.102,1.028,0.092,-0.244,0.549,0.183,381.47
120470,143476,9298,-0.103,1.027,0.098,-0.244,0.549,0.183,381.474
120470,143575,10998,-0.104,1.02,0.097,-0.305,0.305,0.244,381.48
120501,143476,9298,-0.1,1.017,0.096,-0.305,0.305,0.244,381.484
120501,143576,10983,-0.101,1.017,0.091,-0.61,-0.122,0.427,381.49
120493,143476,9298,-0.101,1.015,0.086,-0.61,-0.122,0.427,381.494
120493,143585,10988,-0.1,1.015,0.089,-0.976,-0.244,0.488,381.5
120482,143476,9298,-0.101,1.018,0.095,-0.976,-0.244,0.488,381.504
120482,143569,10973,-0.097,1.021,0.096,-0.732,-0.366,0.366,381.51
120450,143476,9298,-0.094,1.021,0.096,-0.732,-0.366,0.366,381.514
120450,143546,10985,-0.102,1.017,0.097,-0.427,-0.061,0.488,381.52
120472,143476,9298,-0.102,1.017,0.097,-0.427,-0.061,0.488,381.524
120472,143554,10972,-0.1,1.018,0.085,-0.427,0.549,0.366,381.53
120459,143476,9298,-0.1,1.018,0.085,-0.427,0.549,0.366,381.533
120459,143573,10985,-0.102,1.019,0.086,-0.244,0.915,0.427,381.54
120444,143476,9298,-0.102,1.019,0.086,-0.244,0.915,0.427,381.543
120444,143538,10983,-0.104,1.02,0.096,0.366,0.549,0.671,381.549
120433,143476,9298,-0.104,1.02,0.096,0.366,0.549,0.671,381.553
120433,143513,10972,-0.101,1.025,0.095,0.244,0,0.61,381.559
120456,143476,9298,-0.101,1.025,0.095,0.244,0,0.61,381.563
120456,143539,10977,-0.099,1.025,0.095,-0.183,0,0.549,381.569
120441,143476,9298,-0.099,1.025,0.095,-0.183,0,0.549,381.573
120441,143531,10985,-0.096,1.021,0.098,-0.244,0.305,0.488,381.579
120463,143476,9298,-0.096,1.021,0.098,-0.244,0.305,0.488,381.583
120463,143555,10978,-0.097,1.021,0.095,-0.549,0.488,0.244,381.589
120451,143476,9298,-0.097,1.021,0.095,-0.549,0.488,0.244,381.593
120451,143516,10979,-0.101,1.016,0.094,-0.61,0.61,0.244,381.599
120450,143476,9298,-0.101,1.016,0.094,-0.61,0.61,0.244,381.603
120450,143532,10989,-0.098,1.016,0.093,0.061,0.671,0.244,381.609
120439,143476,9298,-0.098,1.016,0.093,0.061,0.671,0.244,381.613
120439,143550,10980,-0.1,1.02,0.095,0.122,0.61,0.061,381.619
120435,143476,9298,-0.1,1.02,0.095,0.122,0.61,0.061,381.623
120435,143521,10985,-0.102,1.022,0.093,0.427,0.488,0.061,381.629
120441,143476,9298,-0.102,1.022,0.093,0.427,0.488,0.061,381.632
120441,143546,10989,-0.1,1.024,0.09,0.61,0.61,0.244,381.639
120438,143476,9298,-0.1,1.024,0.09,0.61,0.61,0.244,381.642
120438,143508,10981,-0.102,1.021,0.097,0.183,0.671,0.427,381.648
120429,143476,9298,-0.102,1.021,0.097,0.183,0.671,0.427,381.652
120429,143501,10982,-0.099,1.019,0.087,-0.122,0.793,0.488,381.658
120435,143476,9298,-0.099,1.019,0.087,-0.122,0.793,0.488,381.662
120435,143530,10979,-0.104,1.022,0.09,-0.122,0.793,0.488,381.668
120442,143476,9298,-0.101,1.022,0.094,-0.244,0.793,0.427,381.672
120442,143520,10975,-0.102,1.02,0.095,-0.244,0.793,0.427,381.678
120422,143476,9298,-0.097,1.021,0.095,0.305,0.61,0.366,381.682
120422,143536,10991,-0.098,1.018,0.099,0.305,0.61,0.366,381.688
120435,143476,9298,-0.098,1.019,0.091,0.366,0.549,0.427,381.692
120435,143557,10981,-0.098,1.021,0.09,0.366,0.549,0.427,381.698
120438,143476,9298,-0.098,1.02,0.093,0.305,0.671,0.366,381.702
120438,143554,10980,-0.101,1.02,0.091,0.305,0.671,0.366,381.708
120445,143476,9298,-0.102,1.019,0.087,0.732,0.732,0.244,381.712
120445,143547,10984,-0.103,1.019,0.092,0.732,0.732,0.244,381.718
120420,143476,9298,-0.1,1.023,0.094,0.488,0.61,0.305,381.722
120420,143557,11000,-0.1,1.028,0.091,0.488,0.61,0.305,381.728
120472,143476,9298,-0.099,1.027,0.089,0.732,0.366,0.244,381.731
120472,143568,10984,-0.102,1.026,0.091,0.732,0.366,0.244,381.738
120476,143476,9298,-0.102,1.026,0.09,0.549,0.305,0.122,381.741
120476,143575,10985,-0.1,1.027,0.088,0.549,0.305,0.122,381.747
120505,143476,9298,-0.103,1.026,0.086,-0.549,0.427,0.183,381.751
120505,143571,10992,-0.104,1.024,0.086,-0.549,0.427,0.183,381.757
120480,143476,9298,-0.103,1.021,0.085,-1.037,0.488,0.488,381.761
120480,143590,10987,-0.105,1.018,0.086,-1.037,0.488,0.488,381.767
120507,143732,9298,-0.103,1.014,0.083,-1.037,0.183,0.366,381.771
120507,143622,10997,-0.105,1.017,0.085,-1.037,0.183,0.366,381.777
120522,143476,9298,-0.103,1.019,0.092,-0.671,-0.183,0.427,381.781
120522,143604,10989,-0.099,1.023,0.099,-0.671,-0.183,0.427,381.787
120532,143476,9298,-0.099,1.023,0.1,-0.427,-0.671,0.671,381.791
120532,143606,10993,-0.095,1.023,0.095,-0.427,-0.671,0.671,381.797
120527,143732,9298,-0.09,1.02,0.095,-0.244,-0.549,0.671,381.801
120527,143637,11005,-0.088,1.022,0.094,-0.244,-0.549,0.671,381.807
120539,143732,9298,-0.09,1.023,0.099,-0.488,0,0.366,381.811
120539,143631,10995,-0.095,1.025,0.104,-0.488,0,0.366,381.817
120574,143732,9298,-0.099,1.024,0.109,-0.793,0.854,0.305,381.821
120574,143640,11004,-0.103,1.022,0.102,-0.793,0.854,0.305,381.827
120565,143732,9298,-0.104,1.021,0.098,0,1.037,0.244,381.83
120565,143636,11014,-0.1,1.016,0.09,0,1.037,0.244,381.837
120567,143732,9298,-0.104,1.018,0.084,0.244,0.976,0.244,381.84
120567,143637,10990,-0.103,1.022,0.086,0.244,0.976,0.244,381.846
120525,143732,9298,-0.103,1.022,0.086,-0.427,0.793,0.183,381.85
120525,143637,10988,-0.103,1.024,0.091,-0.427,0.793,0.183,381.856
120555,143732,9298,-0.102,1.022,0.091,-0.244,0.427,0.305,381.86
120555,143637,10989,-0.102,1.016,0.097,-0.244,0.427,0.305,381.866
120550,143732,9298,-0.098,1.015,0.094,-0.061,0.244,0.366,381.87
120550,143629,10994,-0.099,1.016,0.09,-0.061,0.244,0.366,381.876
120546,143732,9298,-0.098,1.019,0.091,-0.366,0.366,0.305,381.88
120546,143638,10985,-0.098,1.02,0.095,-0.366,0.366,0.305,381.886
120539,143732,9298,-0.099,1.021,0.095,0.183,0.549,0.488,381.89
120539,143621,10994,-0.099,1.022,0.095,0.183,0.549,0.488,381.896
120542,143476,9298,-0.098,1.023,0.097,0.549,0.366,0.549,381.9
120542,143615,10995,-0.098,1.025,0.098,0.549,0.366,0.549,381.906
120524,143732,9298,-0.097,1.027,0.098,0.305,0.366,0.427,381.91
120524,143620,11007,-0.099,1.023,0.098,0.305,0.366,0.427,381.916
120520,143476,9298,-0.1,1.023,0.103,0.122,0.549,0.244,381.919
120520,143607,10996,-0.097,1.022,0.098,0.122,0.549,0.244,381.926
120496,143732,9298,-0.095,1.018,0.089,0.061,0.671,0.244,381.929
120496,143648,10985,-0.099,1.016,0.088,0.061,0.671,0.244,381.936
120537,143732,9298,-0.098,1.019,0.09,0.244,0.915,0.244,381.939
120537,143622,10984,-0.101,1.021,0.094,0.244,0.915,0.244,381.945
120526,143732,9298,-0.102,1.02,0.091,0.061,0.976,0.183,381.949
120526,143639,10992,-0.105,1.021,0.083,0.061,0.976,0.183,381.955
120533,143476,9298,-0.104,1.02,0.077,0.061,0.915,0.183,381.959
120533,143589,10983,-0.103,1.02,0.076,0.061,0.915,0.183,381.965
120514,143732,9298,-0.106,1.019,0.08,-0.183,0.427,0.244,381.969
120514,143620,11004,-0.105,1.026,0.086,-0.183,0.427,0.244,381.975
120506,143476,9298,-0.102,1.027,0.09,-0.488,-0.061,0.549,381.979
120506,143606,10988,-0.104,1.029,0.09,-0.488,-0.061,0.549,381.985
120516,143732,9298,-0.099,1.024,0.089,-0.793,-0.427,0.671,381.989
120516,143625,10991,-0.096,1.019,0.095,-0.793,-0.427,0.671,381.995
120492,143476,9298,-0.097,1.023,0.098,-1.22,-0.366,0.549,381.999
120492,143590,10994,-0.097,1.025,0.1,-1.22,-0.366,0.549,382.005
120496,143476,9298,-0.1,1.02,0.101,-1.28,0.122,0.427,382.009
120496,143599,11000,-0.103,1.02,0.099,-1.28,0.122,0.427,382.015
120494,143476,9298,-0.102,1.015,0.095,-0.61,0.305,0.183,382.018
120494,143596,10985,-0.105,1.016,0.095,-0.61,0.305,0.183,382.025
120502,143476,9298,-0.102,1.019,0.095,-0.122,0.305,0.122,382.028
120502,143590,11004,-0.1,1.019,0.096,-0.122,0.305,0.122,382.035
120503,143732,9298,-0.102,1.022,0.093,0,0.183,0.366,382.038
120503,143619,10982,-0.1,1.023,0.086,0,0.183,0.366,382.044
120502,143732,9298,-0.098,1.022,0.086,0.061,0.122,0.427,382.048
120502,143620,11004,-0.102,1.02,0.09,0.061,0.122,0.427,382.054
120502,143476,9298,-0.1,1.024,0.09,-0.122,0.122,0.305,382.058
120502,143607,10992,-0.097,1.024,0.092,-0.122,0.122,0.305,382.064
120480,143476,9298,-0.097,1.023,0.093,-0.671,0.122,0.427,382.068
120480,143606,10983,-0.098,1.021,0.095,-0.671,0.122,0.427,382.074
120487,143476,9298,-0.098,1.019,0.093,-0.793,0.122,0.427,382.078
120487,143612,11005,-0.097,1.017,0.098,-0.793,0.122,0.427,382.084
120492,143476,9298,-0.097,1.016,0.1,-0.427,0.183,0.427,382.088
120492,143589,10979,-0.099,1.014,0.102,-0.427,0.183,0.427,382.094
120473,143476,9298,-0.1,1.015,0.102,-0.183,0.305,0.61,382.098
120473,143582,11005,-0.1,1.017,0.096,-0.183,0.305,0.61,382.104
120482,143476,9298,-0.1,1.017,0.096,-0.183,0.305,0.61,382.108
120482,143577,10999,-0.098,1.018,0.094,0,0.549,0.366,382.114
120478,143476,9298,-0.098,1.018,0.094,0,0.549,0.366,382.117
120478,143600,11000,-0.106,1.024,0.095,0.549,0.976,0.244,382.124
120491,143476,9298,-0.106,1.024,0.095,0.549,0.976,0.244,382.127
120491,143566,11002,-0.102,1.028,0.098,1.098,1.037,0.244,382.134
120505,143476,9298,-0.102,1.028,0.098,1.098,1.037,0.244,382.137
120505,143578,10997,-0.1,1.024,0.084,0.915,0.732,0.305,382.143
120482,143476,9298,-0.1,1.024,0.084,0.915,0.732,0.305,382.147
120482,143580,10988,-0.099,1.019,0.089,0.183,0.427,0.427,382.153
120493,143476,9298,-0.099,1.019,0.089,0.183,0.427,0.427,382.157
120493,143568,10992,-0.096,1.021,0.098,-0.122,0.305,0.549,382.163
120480,143476,9298,-0.096,1.021,0.098,-0.122,0.305,0.549,382.167
120480,143571,10991,-0.096,1.022,0.083,-0.366,0.183,0.427,382.173
120459,143476,9298,-0.096,1.022,0.083,-0.366,0.183,0.427,382.177
120459,143564,10994,-0.101,1.02,0.087,-0.488,0.427,0.366,382.183
120461,143476,9298,-0.101,1.02,0.087,-0.488,0.427,0.366,382.187
120461,143577,10991,-0.103,1.023,0.098,-0.244,0.549,0.366,382.193
120466,143476,9298,-0.103,1.023,0.098,-0.244,0.549,0.366,382.197
120466,143541,10991,-0.101,1.021,0.096,-0.366,0.305,0.305,382.203
120476,143476,9298,-0.101,1.021,0.096,-0.366,0.305,0.305,382.207
120476,143581,10989,-0.101,1.019,0.095,-0.183,0.183,0.244,382.213
120470,143476,9298,-0.101,1.019,0.095,-0.183,0.183,0.244,382.216
120470,143555,10986,-0.1,1.025,0.094,0.122,0.366,0.366,382.223
120467,143476,9298,-0.1,1.025,0.094,0.122,0.366,0.366,382.226
120467,143571,10991,-0.098,1.026,0.09,0,0.366,0.305,382.233
120493,143476,9298,-0.098,1.026,0.09,0,0.366,0.305,382.236
120493,143579,10989,-0.101,1.02,0.086,0.366,0.305,0.183,382.242
120456,143476,9298,-0.101,1.02,0.086,0.366,0.305,0.183,382.246
120456,143590,10994,-0.104,1.019,0.088,0.244,0.427,0.244,382.252
120471,143476,9298,-0.102,1.017,0.094,0.244,0.427,0.244,382.256
120471,143577,10978,-0.1,1.019,0.093,-0.366,0.305,0.366,382.262
120459,143476,9298,-0.1,1.02,0.092,-0.366,0.305,0.366,382.266
120459,143575,10977,-0.099,1.022,0.094,-1.037,0.122,0.366,382.272
120456,143476,9298,-0.101,1.019,0.094,-1.037,0.122,0.366,382.276
120456,143561,10968,-0.099,1.016,0.092,-1.28,0.183,0.305,382.282
120448,143476,9298,-0.099,1.016,0.091,-1.28,0.183,0.305,382.286
120448,143588,10992,-0.101,1.015,0.09,-0.854,0.549,0.427,382.292
120460,143476,9298,-0.1,1.016,0.091,-0.854,0.549,0.427,382.296
120460,143572,10994,-0.102,1.02,0.091,0.122,0.61,0.549,382.302
120473,143476,9298,-0.102,1.027,0.094,0.122,0.61,0.549,382.306
120473,143581,10989,-0.1,1.03,0.103,0.549,0.427,0.427,382.312
120449,143476,9298,-0.099,1.03,0.104,0.549,0.427,0.427,382.315
120449,143590,10999,-0.097,1.029,0.098,0.61,0.122,0.183,382.322
120487,143476,9298,-0.097,1.025,0.093,0.61,0.122,0.183,382.325
120487,143606,10982,-0.1,1.021,0.088,0.183,0.122,0.122,382.331
120474,143476,9298,-0.098,1.019,0.091,0.183,0.122,0.122,382.335
120474,143592,11000,-0.099,1.017,0.098,-0.427,0.549,0.183,382.341
120480,143476,9298,-0.103,1.017,0.096,-0.427,0.549,0.183,382.345
120480,143603,11006,-0.103,1.02,0.092,-0.671,0.732,0.305,382.351
120509,143476,9298,-0.1,1.017,0.093,-0.671,0.732,0.305,382.355
120509,143615,11002,-0.099,1.015,0.09,-0.549,0.488,0.305,382.361
120474,143476,9298,-0.103,1.02,0.091,-0.549,0.488,0.305,382.365
120474,143604,10979,-0.1,1.018,0.092,-0.427,0.244,0.244,382.371
120472,143476,9298,-0.099,1.017,0.087,-0.427,0.244,0.244,382.375
120472,143590,11003,-0.1,1.016,0.086,-0.427,0.183,0.244,382.381
120456,143476,9298,-0.099,1.016,0.091,-0.427,0.183,0.244,382.385
120456,143571,10982,-0.1,1.019,0.093,-0.122,0.366,0.427,382.391
120466,143476,9298,-0.101,1.021,0.096,-0.122,0.366,0.427,382.395
120466,143573,10967,-0.103,1.026,0.101,-0.244,0.244,0.549,382.401
120448,143476,9298,-0.104,1.027,0.107,-0.244,0.244,0.549,382.405
120448,143595,10974,-0.102,1.029,0.104,0,-0.061,0.61,382.411
120468,143476,9298,-0.096,1.03,0.098,0,-0.061,0.61,382.414
120468,143589,10982,-0.093,1.025,0.097,0.122,0.183,0.488,382.421
120465,143476,9298,-0.096,1.025,0.099,0.122,0.183,0.488,382.424
120465,143579,10971,-0.098,1.021,0.096,-0.244,0.61,0.305,382.43
120456,143476,9298,-0.095,1.022,0.089,-0.244,0.61,0.305,382.434
120456,143573,10992,-0.098,1.021,0.081,-0.183,0.976,0.366,382.44
120467,143476,9298,-0.102,1.017,0.085,-0.183,0.976,0.366,382.444
120467,143591,11000,-0.101,1.017,0.093,0.305,1.098,0.122,382.45
120478,143476,9298,-0.103,1.02,0.094,0.305,1.098,0.122,382.454
120478,143580,10993,-0.105,1.026,0.092,0.183,0.732,-0.061,382.46
120481,143476,9298,-0.105,1.024,0.082,0.183,0.732,-0.061,382.464
120481,143574,10988,-0.101,1.021,0.082,-0.183,0.305,0.061,382.47
120463,143476,9298,-0.101,1.018,0.085,-0.183,0.305,0.061,382.474
120463,143561,10973,-0.103,1.02,0.089,0,0.183,0.183,382.48
120452,143476,9298,-0.103,1.02,0.093,0,0.183,0.183,382.484
120452,143583,10986,-0.103,1.021,0.096,-0.244,0,0.61,382.49
120431,143476,9298,-0.1,1.022,0.091,-0.244,0,0.61,382.494
120431,143562,10977,-0.099,1.021,0.094,-0.549,-0.122,0.61,382.5
120457,143476,9298,-0.096,1.022,0.099,-0.549,-0.122,0.61,382.504
120457,143575,10994,-0.098,1.023,0.102,-0.854,0,0.549,382.51
120456,143476,9298,-0.101,1.021,0.103,-0.854,0,0.549,382.513
120456,143597,10999,-0.098,1.02,0.105,-0.732,0.244,0.671,382.52
120458,143476,9298,-0.097,1.02,0.101,-0.732,0.244,0.671,382.523
120458,143570,10996,-0.096,1.021,0.095,-0.427,0.61,0.549,382.529
120443,143476,9298,-0.099,1.015,0.09,-0.427,0.61,0.549,382.533
120443,143587,10997,-0.101,1.017,0.09,0.366,1.037,0.122,382.539
120459,143476,9298,-0.102,1.019,0.089,0.366,1.037,0.122,382.543
120459,143569,10995,-0.106,1.02,0.092,1.098,1.037,0.061,382.549
120461,143476,9298,-0.105,1.025,0.093,1.098,1.037,0.061,382.553
120461,143563,10990,-0.104,1.027,0.088,0.793,0.793,0.122,382.559
120460,143476,9298,-0.104,1.028,0.088,0.793,0.793,0.122,382.563
120460,143589,10986,-0.101,1.026,0.085,0.061,0.305,0.244,382.569
120458,143476,9298,-0.102,1.024,0.083,0.061,0.305,0.244,382.573
120458,143580,10984,-0.1,1.017,0.09,-0.366,-0.183,0.427,382.579
120456,143476,9298,-0.099,1.016,0.088,-0.366,-0.183,0.427,382.583
120456,143563,10983,-0.099,1.017,0.088,-0.793,-0.427,0.488,382.589
120429,143476,9298,-0.096,1.017,0.095,-0.793,-0.427,0.488,382.593
120429,143546,10983,-0.097,1.018,0.096,-0.671,-0.244,0.305,382.599
120461,143476,9298,-0.098,1.018,0.093,-0.671,-0.244,0.305,382.603
120461,143576,10986,-0.099,1.022,0.093,-0.61,0.183,0.183,382.609
120451,143476,9298,-0.101,1.022,0.09,-0.61,0.183,0.183,382.612
120451,143571,10992,-0.104,1.022,0.095,-0.61,0.488,0.366,382.619
120455,143476,9298,-0.102,1.021,0.101,-0.61,0.488,0.366,382.622
120455,143607,10986,-0.101,1.021,0.104,-0.305,0.244,0.671,382.628
120460,143476,9298,-0.1,1.023,0.102,-0.305,0.244,0.671,382.632
120460,143602,10981,-0.095,1.018,0.096,-0.427,-0.183,0.549,382.638
120483,143476,9298,-0.093,1.016,0.092,-0.427,-0.183,0.549,382.642
120483,143582,10993,-0.093,1.022,0.094,-0.366,-0.061,0.305,382.648
120477,143732,9298,-0.093,1.022,0.096,-0.366,-0.061,0.305,382.652
120477,143624,10993,-0.095,1.023,0.1,0.366,0.488,0.244,382.658
120496,143476,9298,-0.098,1.025,0.093,0.366,0.488,0.244,382.662
120496,143580,10992,-0.099,1.028,0.089,0.305,1.098,0.061,382.668
120473,143476,9298,-0.104,1.028,0.089,0.305,1.098,0.061,382.672
120473,143586,10984,-0.105,1.021,0.09,0,1.22,0.122,382.678
120452,143476,9298,-0.105,1.021,0.09,0,1.22,0.122,382.682
120452,143566,10985,-0.106,1.017,0.094,0,0.61,0.305,382.688
120436,143476,9298,-0.106,1.017,0.094,0,0.61,0.305,382.692
120436,143570,10998,-0.102,1.016,0.09,-0.671,0.061,0.305,382.698
120448,143476,9298,-0.102,1.016,0.09,-0.671,0.061,0.305,382.701
120448,143582,10980,-0.104,1.011,0.09,-0.549,0.122,0.305,382.708
120451,143476,9298,-0.104,1.011,0.09,-0.549,0.122,0.305,382.711
120451,143582,10993,-0.102,1.018,0.104,0.305,0.305,0.671,382.718
120463,143476,9298,-0.102,1.018,0.104,0.305,0.305,0.671,382.721
120463,143603,10985,-0.102,1.02,0.099,0.366,0.244,0.61,382.727
120426,143476,9298,-0.102,1.02,0.099,0.366,0.244,0.61,382.731
120426,143605,10989,-0.096,1.023,0.097,0.427,0.305,0.427,382.737
120453,143476,9298,-0.096,1.023,0.097,0.427,0.305,0.427,382.741
120453,143574,10991,-0.096,1.021,0.101,0.549,0.366,0.427,382.747
120469,143476,9298,-0.096,1.021,0.101,0.549,0.366,0.427,382.751
120469,143577,10985,-0.095,1.02,0.093,0.488,0.61,0.366,382.757
120458,143476,9298,-0.095,1.02,0.093,0.488,0.61,0.366,382.761
120458,143585,10988,-0.1,1.022,0.081,0.366,1.098,0.122,382.767
120457,143476,9298,-0.1,1.022,0.081,0.366,1.098,0.122,382.771
120457,143593,11004,-0.101,1.023,0.086,0.366,1.159,0.061,382.777
120457,143476,9298,-0.101,1.023,0.086,0.366,1.159,0.061,382.781
120457,143593,11002,-0.099,1.029,0.085,0.122,0.793,0.061,382.787
120457,143476,9298,-0.099,1.029,0.085,0.122,0.793,0.061,382.791
120457,143580,10977,-0.101,1.029,0.086,-0.366,0.366,0.061,382.797
120442,143476,9298,-0.101,1.029,0.086,-0.366,0.366,0.061,382.8
120442,143587,10996,-0.101,1.028,0.09,-0.854,0.366,0.183,382.807
120461,143476,9298,-0.101,1.028,0.09,-0.854,0.366,0.183,382.81
120461,143592,10998,-0.1,1.016,0.092,-1.098,0.488,0.122,382.817
120463,143476,9298,-0.1,1.016,0.092,-1.098,0.488,0.122,382.82
120463,143606,10991,-0.102,1.012,0.096,-1.098,0.488,0.122,382.826
120444,143732,9298,-0.101,1.012,0.096,-0.732,0.427,0,382.83
120444,143619,10990,-0.104,1.013,0.096,-0.732,0.427,0,382.836
120463,143476,9298,-0.105,1.013,0.094,-0.305,0.305,0.122,382.84
120463,143593,11004,-0.101,1.013,0.095,-0.305,0.305,0.122,382.846
120469,143476,9298,-0.099,1.021,0.094,0.183,0.549,0,382.85
120469,143602,10995,-0.1,1.021,0.095,0.183,0.549,0,382.856
120460,143476,9298,-0.102,1.021,0.095,0.061,0.549,0.305,382.86
120460,143601,10993,-0.105,1.02,0.095,0.061,0.549,0.305,382.866
120460,143476,9298,-0.104,1.019,0.094,-0.244,0.488,0.732,382.87
120460,143587,10997,-0.104,1.016,0.093,-0.244,0.488,0.732,382.876
120464,143476,9298,-0.101,1.016,0.095,0,0.305,0.732,382.88
120464,143612,10987,-0.098,1.018,0.09,0,0.305,0.732,382.886
120472,143476,9298,-0.096,1.025,0.091,-0.549,0,0.488,382.89
120472,143585,10992,-0.096,1.026,0.092,-0.549,0,0.488,382.896
120481,143476,9298,-0.097,1.024,0.092,-0.061,0.122,0.427,382.899
120481,143573,11003,-0.094,1.023,0.092,-0.061,0.122,0.427,382.906
120474,143476,9298,-0.097,1.023,0.09,0.305,0.427,0.488,382.909
120474,143594,10986,-0.098,1.023,0.087,0.305,0.427,0.488,382.916
120479,143732,9298,-0.1,1.025,0.09,-0.122,0.61,0.488,382.919
120479,143621,11001,-0.102,1.023,0.092,-0.122,0.61,0.488,382.925
120459,143476,9298,-0.102,1.023,0.094,0,0.549,0.305,382.929
120459,143609,10985,-0.104,1.023,0.092,0,0.549,0.305,382.935
120466,143476,9298,-0.106,1.02,0.087,0.183,0.549,0.183,382.939
120466,143596,11002,-0.104,1.019,0.088,0.183,0.549,0.183,382.945
120463,143476,9298,-0.104,1.02,0.087,-0.244,0.671,0.183,382.949
120463,143601,10995,-0.106,1.019,0.089,-0.244,0.671,0.183,382.955
120468,143476,9298,-0.106,1.016,0.09,-0.61,0.61,0.366,382.959
120468,143586,11007,-0.105,1.016,0.091,-0.61,0.61,0.366,382.965
120456,143476,9298,-0.104,1.018,0.099,-0.244,0,0.61,382.969
120456,143582,10988,-0.1,1.017,0.098,-0.244,0,0.61,382.975
120433,143476,9298,-0.099,1.017,0.094,-0.183,-0.61,0.61,382.979
120433,143605,11007,-0.096,1.02,0.103,-0.183,-0.61,0.61,382.985
120435,143476,9298,-0.096,1.022,0.095,-0.427,-0.488,0.61,382.989
120435,143587,10993,-0.095,1.023,0.095,-0.427,-0.488,0.61,382.995
120450,143476,9298,-0.095,1.021,0.106,-0.549,0.122,0.671,382.998
120450,143574,10994,-0.099,1.019,0.098,-0.549,0.122,0.671,383.005
120434,143476,9298,-0.099,1.02,0.097,-0.244,0.671,0.549,383.008
120434,143578,10996,-0.101,1.021,0.095,-0.244,0.671,0.549,383.014
120422,143476,9298,-0.102,1.023,0.092,-0.244,0.854,0.488,383.018
120422,143612,10988,-0.099,1.026,0.089,-0.244,0.854,0.488,383.024
120417,143476,9298,-0.102,1.029,0.093,0.122,0.732,0.427,383.028
120417,143569,10998,-0.101,1.026,0.097,0.122,0.732,0.427,383.034
120416,143476,9298,-0.1,1.024,0.097,0.366,0.549,0.305,383.038
120416,143557,10995,-0.101,1.02,0.094,0.366,0.549,0.305,383.044
120425,143476,9298,-0.098,1.019,0.091,0.427,0.488,0.427,383.048
120425,143552,10983,-0.1,1.021,0.089,0.427,0.488,0.427,383.054
120431,143476,9298,-0.1,1.024,0.09,0.305,0.488,0.427,383.058
120431,143570,10993,-0.099,1.025,0.099,0.305,0.488,0.427,383.064
120435,143476,9298,-0.099,1.025,0.096,0.488,0.427,0.305,383.068
120435,143559,10993,-0.098,1.023,0.089,0.488,0.427,0.305,383.074
120431,143476,9298,-0.098,1.023,0.092,0.488,0.549,0.183,383.078
120431,143571,10986,-0.097,1.023,0.092,0.488,0.549,0.183,383.084
120459,143476,9298,-0.097,1.021,0.091,0,0.915,0.122,383.088
120459,143579,10986,-0.099,1.02,0.09,0,0.915,0.122,383.094
120463,143476,9298,-0.101,1.017,0.093,-0.122,1.037,0.305,383.097
120463,143610,10989,-0.103,1.016,0.089,-0.122,1.037,0.305,383.104
120448,143476,9298,-0.103,1.017,0.091,0.061,0.793,0.183,383.107
120448,143589,11001,-0.099,1.017,0.088,0.061,0.793,0.183,383.113
120470,143476,9298,-0.101,1.016,0.085,-0.244,0.549,0,383.117
120470,143601,11001,-0.106,1.02,0.089,-0.244,0.549,0,383.123
120449,143476,9298,-0.103,1.024,0.088,0,0.549,0.183,383.127
120449,143580,11003,-0.1,1.025,0.091,0,0.549,0.183,383.133
120456,143476,9298,-0.104,1.023,0.088,0.061,0.427,0.488,383.137
120456,143568,10997,-0.103,1.025,0.084,0.061,0.427,0.488,383.143
120443,143476,9298,-0.101,1.026,0.093,-0.793,0.244,0.549,383.147
120443,143592,10987,-0.102,1.022,0.093,-0.793,0.244,0.549,383.153
120473,143476,9298,-0.102,1.025,0.092,-1.22,0.122,0.488,383.157
120473,143577,10997,-0.101,1.024,0.096,-1.22,0.122,0.488,383.163
120455,143476,9298,-0.102,1.019,0.095,-1.159,0.061,0.549,383.167
120455,143590,10985,-0.099,1.014,0.091,-1.159,0.061,0.549,383.173
120449,143476,9298,-0.098,1.014,0.092,-1.098,0.122,0.427,383.177
120449,143597,10998,-0.098,1.018,0.093,-1.098,0.122,0.427,383.183
120435,143476,9298,-0.101,1.018,0.095,-0.793,0.183,0.488,383.186
120435,143598,10997,-0.104,1.019,0.094,-0.793,0.183,0.488,383.193
120480,143476,9298,-0.1,1.025,0.096,-0.122,0.305,0.366,383.196
120480,143605,10985,-0.101,1.025,0.092,-0.122,0.305,0.366,383.203
120452,143476,9298,-0.1,1.024,0.091,0.122,0.305,0.183,383.206
120452,143595,11002,-0.102,1.025,0.091,0.122,0.305,0.183,383.212
120473,143476,9298,-0.103,1.021,0.092,0.366,0.366,0.122,383.216
120473,143595,10992,-0.101,1.021,0.094,0.366,0.366,0.122,383.222
120478,143732,9298,-0.101,1.02,0.094,0,0.366,0.244,383.226
120478,143639,11001,-0.103,1.019,0.096,0,0.366,0.244,383.232
120487,143476,9298,-0.103,1.019,0.092,-0.793,0.244,0.427,383.236
120487,143603,10990,-0.1,1.016,0.09,-0.793,0.244,0.427,383.242
120467,143732,9298,-0.101,1.018,0.091,-0.854,0.183,0.549,383.246
120467,143621,11008,-0.102,1.015,0.094,-0.854,0.183,0.549,383.252
120493,143732,9298,-0.098,1.016,0.095,-0.366,0.183,0.549,383.256
120493,143623,11002,-0.1,1.018,0.094,-0.366,0.183,0.549,383.262
120492,143732,9298,-0.1,1.018,0.094,-0.366,0.183,0.549,383.266
120492,143638,10994,-0.098,1.022,0.096,-0.061,0.305,0.488,383.272
120487,143732,9298,-0.098,1.022,0.096,-0.061,0.305,0.488,383.276
120487,143634,11021,-0.098,1.023,0.091,0.183,0.427,0.488,383.282
120511,143732,9298,-0.098,1.023,0.091,0.183,0.427,0.488,383.285
120511,143646,11006,-0.101,1.022,0.095,0.366,0.61,0.549,383.292
120525,143732,9298,-0.101,1.022,0.095,0.366,0.61,0.549,383.295
120525,143654,11007,-0.099,1.023,0.097,0.061,0.488,0.366,383.302
120534,143732,9298,-0.099,1.023,0.097,0.061,0.488,0.366,383.305
120534,143667,11014,-0.096,1.025,0.085,0.427,0.427,0.244,383.311
120530,143732,9298,-0.096,1.025,0.085,0.427,0.427,0.244,383.315
120530,143663,11009,-0.102,1.024,0.087,0.122,0.61,0.183,383.321
120532,143732,9298,-0.102,1.024,0.087,0.122,0.61,0.183,383.325
120532,143658,11006,-0.104,1.026,0.097,-0.061,0.732,0.061,383.331
120553,143732,9298,-0.104,1.026,0.097,-0.061,0.732,0.061,383.335
120553,143659,10988,-0.103,1.021,0.091,-0.427,0.427,0.183,383.341
120511,143732,9298,-0.103,1.021,0.091,-0.427,0.427,0.183,383.345
120511,143646,11008,-0.1,1.015,0.089,-0.549,0.183,0.122,383.351
120513,143732,9298,-0.1,1.015,0.089,-0.549,0.183,0.122,383.355
120513,143646,11008,-0.1,1.016,0.089,-0.549,0.244,0.183,383.361
120522,143732,9298,-0.1,1.016,0.089,-0.549,0.244,0.183,383.365
120522,143658,11001,-0.101,1.017,0.09,-0.427,0.183,0.427,383.371
120529,143732,9298,-0.101,1.017,0.09,-0.427,0.183,0.427,383.375
120529,143666,11007,-0.102,1.021,0.097,-0.244,0.244,0.305,383.381
120539,143732,9298,-0.102,1.021,0.097,-0.244,0.244,0.305,383.384
120539,143658,11008,-0.103,1.023,0.099,-0.061,0.183,0.488,383.391
120556,143732,9298,-0.103,1.023,0.099,-0.061,0.183,0.488,383.394
120556,143656,11001,-0.097,1.023,0.093,0.122,0.122,0.488,383.401
120522,143732,9298,-0.1,1.023,0.087,0.122,0.122,0.488,383.404
120522,143658,11013,-0.102,1.024,0.089,0.183,0.427,0.305,383.41
120530,143732,9298,-0.101,1.024,0.094,0.183,0.427,0.305,383.414
120530,143661,11010,-0.103,1.024,0.097,0.183,0.61,0.305,383.42
120536,143732,9298,-0.102,1.022,0.091,0.183,0.61,0.305,383.424
120536,143652,11002,-0.101,1.023,0.091,-0.366,0.671,0.244,383.43
120521,143732,9298,-0.102,1.021,0.093,-0.366,0.671,0.244,383.434
120521,143665,11004,-0.1,1.019,0.091,-0.366,0.427,0.122,383.44
120504,143732,9298,-0.1,1.019,0.088,-0.366,0.427,0.122,383.444
120504,143657,10984,-0.101,1.021,0.088,0.366,0.305,0.122,383.45
120510,143732,9298,-0.1,1.021,0.089,0.366,0.305,0.122,383.454
120510,143668,11003,-0.1,1.018,0.089,0.427,0.122,0.061,383.46
120543,143732,9298,-0.1,1.019,0.091,0.427,0.122,0.061,383.464
120543,143681,10993,-0.098,1.019,0.092,0.183,0.122,0.183,383.47
120521,143732,9298,-0.1,1.023,0.092,0.183,0.122,0.183,383.474
120521,143661,11011,-0.102,1.025,0.096,-0.061,0.366,0.244,383.48
120522,143732,9298,-0.1,1.023,0.091,-0.061,0.366,0.244,383.483
120522,143669,11017,-0.099,1.022,0.086,-0.305,0.488,0.244,383.49
120535,143732,9298,-0.1,1.019,0.087,-0.305,0.488,0.244,383.493
120535,143646,11009,-0.099,1.02,0.087,-0.427,0.488,0.244,383.5
120529,143732,9298,-0.104,1.019,0.094,-0.427,0.488,0.244,383.503
120529,143644,10992,-0.106,1.021,0.094,-0.488,0.488,0.427,383.509
120532,143732,9298,-0.103,1.023,0.093,-0.488,0.488,0.427,383.513
120532,143668,10992,-0.105,1.021,0.099,-0.305,0.366,0.488,383.519
120552,143732,9298,-0.104,1.02,0.096,-0.305,0.366,0.488,383.523
120552,143681,11001,-0.102,1.019,0.092,-0.061,0.244,0.305,383.529
120539,143732,9298,-0.102,1.018,0.09,-0.061,0.244,0.305,383.533
120539,143665,10999,-0.104,1.019,0.087,-0.305,0.61,0.366,383.539
120554,143732,9298,-0.104,1.023,0.088,-0.305,0.61,0.366,383.543
120554,143685,11008,-0.106,1.022,0.087,-0.305,0.61,0.549,383.549
120530,143732,9298,-0.105,1.025,0.089,-0.305,0.61,0.549,383.553
120530,143669,11024,-0.104,1.024,0.09,0.305,0.305,0.549,383.559
120536,143732,9298,-0.104,1.025,0.094,0.305,0.305,0.549,383.563
120536,143652,11014,-0.1,1.026,0.092,0.122,-0.122,0.427,383.569
120529,143732,9298,-0.1,1.023,0.087,0.122,-0.122,0.427,383.573
120529,143672,11007,-0.094,1.02,0.088,-0.183,-0.183,0.366,383.579
120528,143732,9298,-0.093,1.018,0.09,-0.183,-0.183,0.366,383.582
120528,143658,11019,-0.094,1.017,0.093,-0.305,0,0.305,383.589
120524,143732,9298,-0.096,1.017,0.1,-0.305,0,0.305,383.592
120524,143669,11012,-0.097,1.018,0.098,-0.488,0.244,0.305,383.599
120554,143732,9298,-0.099,1.02,0.098,-0.488,0.244,0.305,383.602
120554,143688,11015,-0.095,1.017,0.092,-0.427,0.427,0.305,383.608
120553,143732,9298,-0.1,1.02,0.092,-0.427,0.427,0.305,383.612
120553,143696,11013,-0.1,1.02,0.089,-0.183,0.549,0,383.618
120539,143732,9298,-0.1,1.02,0.095,-0.183,0.549,0,383.622
120539,143684,11009,-0.102,1.021,0.091,-0.061,0.61,-0.122,383.628
120553,143732,9298,-0.105,1.021,0.088,-0.061,0.61,-0.122,383.632
120553,143702,10998,-0.107,1.019,0.088,-0.366,0.488,0.244,383.638
120566,143732,9298,-0.106,1.02,0.087,-0.366,0.488,0.244,383.642
120566,143698,11015,-0.105,1.018,0.088,-0.671,0.61,0.427,383.648
120549,143732,9298,-0.106,1.019,0.092,-0.671,0.61,0.427,383.652
120549,143693,11016,-0.107,1.022,0.091,-1.098,0.244,0.671,383.658
120548,143732,9298,-0.103,1.021,0.089,-1.098,0.244,0.671,383.662
120548,143706,11012,-0.103,1.019,0.092,-1.098,-0.366,0.61,383.668
120518,143732,9298,-0.099,1.023,0.092,-1.098,-0.366,0.61,383.672
120518,143695,11013,-0.097,1.025,0.098,-0.671,-0.488,0.671,383.678
120543,143732,9298,-0.098,1.021,0.096,-0.671,-0.488,0.671,383.681
120543,143712,11004,-0.098,1.026,0.098,-0.61,-0.183,0.732,383.688
120561,143732,9298,-0.099,1.023,0.102,-0.61,-0.183,0.732,383.691
120561,143679,11013,-0.103,1.022,0.104,-0.549,-0.061,0.549,383.698
120532,143732,9298,-0.098,1.019,0.101,-0.549,-0.061,0.549,383.701
120532,143696,11010,-0.098,1.016,0.098,-0.183,0,0.244,383.707
120543,143732,9298,-0.094,1.016,0.094,-0.183,0,0.244,383.711
120543,143684,11018,-0.097,1.016,0.096,0,0.122,0.061,383.717
120550,143732,9298,-0.099,1.02,0.101,0,0.122,0.061,383.721
120550,143711,11023,-0.102,1.02,0.102,0.061,0.366,0.183,383.727
120573,143732,9298,-0.101,1.021,0.1,0.061,0.366,0.183,383.731
120573,143699,11007,-0.1,1.022,0.093,0.183,0.732,0.366,383.737
