119279,142452,9298,-0.094,1.02,0.094,-1.159,0,0.244,354.272
119279,142485,10837,-0.094,1.023,0.098,-0.976,0.183,0.244,354.278
119285,142452,9298,-0.094,1.023,0.098,-0.976,0.183,0.244,354.282
119285,142479,10831,-0.092,1.022,0.096,-0.061,0.061,0.305,354.288
119276,142452,9298,-0.092,1.022,0.096,-0.061,0.061,0.305,354.292
119276,142491,10849,-0.091,1.017,0.092,0.549,0.122,0.366,354.298
119293,142452,9298,-0.091,1.017,0.092,0.549,0.122,0.366,354.302
119293,142493,10832,-0.091,1.021,0.095,0.244,0.366,0.366,354.308
119280,142452,9298,-0.091,1.021,0.095,0.244,0.366,0.366,354.311
119280,142493,10843,-0.093,1.02,0.103,-0.183,0.549,0.427,354.318
119274,142452,9298,-0.093,1.02,0.103,-0.183,0.549,0.427,354.321
119274,142502,10846,-0.088,1.017,0.093,-0.183,0.488,0.549,354.328
119318,142452,9298,-0.088,1.017,0.093,-0.183,0.488,0.549,354.331
119318,142530,10833,-0.09,1.021,0.082,0.122,0.61,0.366,354.337
119289,142452,9298,-0.09,1.021,0.082,0.122,0.61,0.366,354.341
119289,142539,10842,-0.097,1.026,0.095,0.549,1.037,0,354.347
119281,142452,9298,-0.097,1.026,0.095,0.549,1.037,0,354.351
119281,142507,10855,-0.094,1.027,0.092,0.915,1.28,0.122,354.357
119297,142452,9298,-0.094,1.027,0.092,0.915,1.28,0.122,354.361
119297,142525,10843,-0.096,1.02,0.084,0.549,1.098,0.366,354.367
119289,142452,9298,-0.096,1.02,0.084,0.549,1.098,0.366,354.371
119289,142493,10833,-0.093,1.019,0.084,0.122,0.976,0.305,354.377
119289,142452,9298,-0.091,1.022,0.089,0.122,0.976,0.305,354.381
119289,142496,10844,-0.093,1.021,0.092,0.122,0.732,0.244,354.387
119262,142452,9298,-0.093,1.021,0.088,0.122,0.732,0.244,354.391
119262,142495,10851,-0.092,1.022,0.087,0.61,0.61,0.183,354.397
119263,142452,9298,-0.091,1.027,0.089,0.61,0.61,0.183,354.401
119263,142520,10835,-0.094,1.028,0.09,0.671,0.915,0.122,354.407
119276,142452,9298,-0.096,1.026,0.087,0.671,0.915,0.122,354.41
119276,142520,10841,-0.099,1.021,0.09,0.793,1.22,0,354.417
119283,142452,9298,-0.101,1.019,0.087,0.793,1.22,0,354.42
119283,142507,10848,-0.1,1.02,0.081,0.366,0.915,0,354.426
119272,142452,9298,-0.097,1.019,0.079,0.366,0.915,0,354.43
119272,142529,10860,-0.096,1.018,0.082,-0.488,0.183,0.122,354.436
119282,142452,9298,-0.094,1.02,0.091,-0.488,0.183,0.122,354.44
119282,142543,10835,-0.093,1.021,0.097,-0.183,-0.122,0.366,354.446
119289,142452,9298,-0.091,1.023,0.096,-0.183,-0.122,0.366,354.45
119289,142508,10834,-0.094,1.024,0.09,-0.366,-0.061,0.427,354.456
119274,142452,9298,-0.091,1.021,0.084,-0.366,-0.061,0.427,354.46
119274,142503,10846,-0.093,1.02,0.081,-0.671,0.488,0.305,354.466
119276,142452,9298,-0.095,1.018,0.082,-0.671,0.488,0.305,354.47
119276,142477,10847,-0.099,1.019,0.09,-0.183,0.854,0.244,354.476
119275,142452,9298,-0.102,1.017,0.091,-0.183,0.854,0.244,354.48
119275,142495,10848,-0.101,1.018,0.085,-0.549,0.671,0.549,354.486
119291,142452,9298,-0.097,1.021,0.085,-0.549,0.671,0.549,354.49
119291,142486,10842,-0.097,1.023,0.083,-0.549,0.183,0.61,354.496
119264,142452,9298,-0.095,1.025,0.086,-0.549,0.183,0.61,354.5
119264,142528,10841,-0.094,1.025,0.088,-0.366,-0.122,0.549,354.506
119275,142452,9298,-0.092,1.026,0.086,-0.366,-0.122,0.549,354.509
119275,142510,10839,-0.093,1.026,0.087,-0.549,-0.122,0.549,354.516
119278,142452,9298,-0.092,1.024,0.087,-0.549,-0.122,0.549,354.519
119278,142503,10833,-0.092,1.02,0.095,-0.61,0,0.305,354.526
119296,142452,9298,-0.091,1.022,0.094,-0.61,0,0.305,354.529
119296,142524,10839,-0.094,1.022,0.093,-0.732,-0.061,0.244,354.535
119319,142452,9298,-0.092,1.019,0.09,-0.732,-0.061,0.244,354.539
119319,142532,10840,-0.094,1.02,0.09,-1.037,-0.061,0.305,354.545
119305,142452,9298,-0.094,1.021,0.093,-1.037,-0.061,0.305,354.549
119305,142517,10849,-0.095,1.019,0.096,-1.098,0.061,0.244,354.555
119317,142452,9298,-0.096,1.016,0.099,-1.098,0.061,0.244,354.559
119317,142531,10837,-0.095,1.015,0.097,-0.915,0.122,0.549,354.565
119306,142452,9298,-0.095,1.014,0.095,-0.915,0.122,0.549,354.569
119306,142538,10844,-0.092,1.017,0.094,-0.671,0.305,0.671,354.575
119309,142452,9298,-0.092,1.018,0.09,-0.671,0.305,0.671,354.579
119309,142548,10853,-0.092,1.018,0.088,0.427,0.427,0.488,354.585
119335,142452,9298,-0.091,1.023,0.087,0.427,0.427,0.488,354.589
119335,142523,10842,-0.092,1.028,0.087,0.793,0.61,0.427,354.595
119296,142452,9298,-0.094,1.031,0.095,0.793,0.61,0.427,354.599
119296,142551,10845,-0.093,1.029,0.095,0.732,0.61,0.366,354.605
119306,142452,9298,-0.091,1.025,0.09,0.732,0.61,0.366,354.608
119306,142548,10836,-0.094,1.022,0.088,0.366,0.671,0.427,354.615
119322,142452,9298,-0.096,1.02,0.085,0.366,0.671,0.427,354.618
119322,142532,10847,-0.093,1.021,0.088,-0.549,0.732,0.244,354.624
119329,142452,9298,-0.093,1.022,0.095,-0.549,0.732,0.244,354.628
119329,142514,10836,-0.095,1.018,0.091,-0.854,0.732,0.183,354.634
119317,142452,9298,-0.096,1.015,0.083,-0.854,0.732,0.183,354.638
119317,142499,10851,-0.097,1.017,0.083,0.183,0.732,0.305,354.644
119318,142452,9298,-0.097,1.018,0.087,0.183,0.732,0.305,354.648
119318,142537,10844,-0.099,1.019,0.091,0.61,0.61,0.244,354.654
119306,142452,9298,-0.097,1.027,0.095,0.61,0.61,0.244,354.658
119306,142549,10844,-0.094,1.029,0.094,0.793,0.427,0.427,354.664
119306,142452,9298,-0.093,1.026,0.09,0.793,0.427,0.427,354.668
119306,142510,10848,-0.09,1.024,0.092,0.671,0.122,0.549,354.674
119300,142452,9298,-0.088,1.022,0.09,0.671,0.122,0.549,354.678
119300,142530,10836,-0.089,1.021,0.093,0.305,0.183,0.366,354.684
119305,142452,9298,-0.091,1.02,0.088,0.305,0.183,0.366,354.688
119305,142508,10838,-0.094,1.022,0.085,-0.305,0.671,0.366,354.694
119330,142452,9298,-0.095,1.023,0.086,-0.305,0.671,0.366,354.698
119330,142517,10827,-0.098,1.02,0.083,-0.61,0.732,0.244,354.704
119311,142452,9298,-0.099,1.02,0.086,-0.61,0.732,0.244,354.707
119311,142537,10843,-0.098,1.019,0.085,-0.671,0.427,0.244,354.714
119316,142452,9298,-0.1,1.016,0.083,-0.671,0.427,0.244,354.717
119316,142528,10847,-0.099,1.02,0.082,-1.098,0,0.366,354.723
119302,142452,9298,-0.1,1.022,0.084,-1.098,0,0.366,354.727
119302,142529,10852,-0.099,1.021,0.087,-1.28,-0.366,0.305,354.733
119319,142452,9298,-0.094,1.021,0.093,-1.28,-0.366,0.305,354.737
119319,142525,10847,-0.095,1.023,0.091,-0.854,-0.366,0.488,354.743
119310,142452,9298,-0.092,1.021,0.09,-0.854,-0.366,0.488,354.747
119310,142521,10842,-0.094,1.021,0.091,-0.732,-0.366,0.976,354.753
119307,142452,9298,-0.091,1.019,0.098,-0.732,-0.366,0.976,354.757
119307,142504,10848,-0.088,1.022,0.103,-0.488,-0.427,0.915,354.763
119301,142452,9298,-0.085,1.021,0.107,-0.488,-0.427,0.915,354.767
119301,142543,10849,-0.087,1.021,0.102,-0.671,-0.244,0.732,354.773
119328,142452,9298,-0.087,1.021,0.1,-0.671,-0.244,0.732,354.777
119328,142527,10844,-0.087,1.017,0.093,-0.488,0.549,0.549,354.783
119337,142452,9298,-0.09,1.018,0.09,-0.488,0.549,0.549,354.787
119337,142534,10848,-0.093,1.02,0.085,-0.427,1.22,0.366,354.793
119313,142452,9298,-0.096,1.016,0.081,-0.427,1.22,0.366,354.797
119313,142524,10838,-0.099,1.018,0.083,-0.244,1.341,0.305,354.803
119316,142452,9298,-0.104,1.018,0.086,-0.244,1.341,0.305,354.806
119316,142554,10842,-0.102,1.018,0.086,0.427,0.976,0.366,354.813
119340,142452,9298,-0.102,1.018,0.086,0.427,0.976,0.366,354.816
119340,142547,10852,-0.098,1.024,0.092,0.61,0.366,0.427,354.823
119365,142452,9298,-0.098,1.024,0.092,0.61,0.366,0.427,354.826
119365,142565,10835,-0.092,1.027,0.092,0.427,0.122,0.488,354.832
119352,142452,9298,-0.092,1.027,0.092,0.427,0.122,0.488,354.836
119352,142571,10850,-0.092,1.026,0.097,0.061,0.183,0.488,354.842
119364,142452,9298,-0.092,1.026,0.097,0.061,0.183,0.488,354.846
119364,142538,10851,-0.095,1.018,0.092,0.244,0.61,0.488,354.852
119357,142452,9298,-0.095,1.018,0.092,0.244,0.61,0.488,354.856
119357,142575,10845,-0.097,1.016,0.093,0.488,0.854,0.488,354.862
119335,142452,9298,-0.097,1.016,0.093,0.488,0.854,0.488,354.866
119335,142551,10856,-0.096,1.023,0.088,0.549,0.671,0.366,354.872
119333,142452,9298,-0.096,1.023,0.088,0.549,0.671,0.366,354.876
119333,142534,10856,-0.094,1.024,0.084,0.793,0.366,0.244,354.882
119327,142452,9298,-0.094,1.024,0.084,0.793,0.366,0.244,354.886
119327,142531,10842,-0.094,1.021,0.077,-0.122,0.305,0.427,354.892
119346,142452,9298,-0.094,1.021,0.077,-0.122,0.305,0.427,354.896
119346,142515,10851,-0.093,1.023,0.081,-0.976,0.183,0.488,354.902
119310,142452,9298,-0.093,1.023,0.081,-0.976,0.183,0.488,354.905
119310,142558,10862,-0.092,1.022,0.084,-0.976,0,0.488,354.912
119330,142452,9298,-0.092,1.022,0.084,-0.976,0,0.488,354.915
119330,142568,10847,-0.094,1.024,0.091,-1.037,-0.305,0.488,354.921
119344,142452,9298,-0.094,1.024,0.091,-1.037,-0.305,0.488,354.925
119344,142545,10856,-0.09,1.021,0.088,-1.037,-0.061,0.366,354.931
119344,142452,9298,-0.09,1.021,0.088,-1.037,-0.061,0.366,354.935
119344,142547,10844,-0.096,1.021,0.094,-0.854,0.305,0.244,354.941
119326,142452,9298,-0.096,1.021,0.094,-0.854,0.305,0.244,354.945
119326,142547,10854,-0.096,1.025,0.097,-0.732,0.305,0.183,354.951
119331,142452,9298,-0.096,1.025,0.097,-0.732,0.305,0.183,354.955
119331,142523,10856,-0.097,1.024,0.097,-0.732,0.305,0.183,354.961
119334,142452,9298,-0.094,1.021,0.099,-0.793,0.122,0.366,354.965
119334,142544,10846,-0.094,1.019,0.094,-0.793,0.122,0.366,354.971
119316,142452,9298,-0.095,1.016,0.089,-0.854,0.122,0.549,354.975
119316,142521,10864,-0.098,1.017,0.092,-0.854,0.122,0.549,354.981
119338,142452,9298,-0.091,1.018,0.09,-0.732,0.122,0.488,354.985
119338,142526,10852,-0.093,1.019,0.092,-0.732,0.122,0.488,354.991
119329,142452,9298,-0.094,1.022,0.093,-0.305,0.122,0.305,354.994
119329,142543,10858,-0.091,1.023,0.09,-0.305,0.122,0.305,355.001
119309,142452,9298,-0.09,1.021,0.094,0.183,0.061,0.305,355.004
119309,142547,10851,-0.09,1.02,0.094,0.183,0.061,0.305,355.011
119350,142452,9298,-0.09,1.018,0.094,-0.061,0.183,0.488,355.014
119350,142568,10856,-0.091,1.021,0.09,-0.061,0.183,0.488,355.02
119364,142452,9298,-0.091,1.023,0.092,-0.488,0.244,0.366,355.024
119364,142561,10861,-0.094,1.017,0.094,-0.488,0.244,0.366,355.03
119366,142452,9298,-0.09,1.019,0.092,0,0.366,0.183,355.034
119366,142567,10846,-0.09,1.016,0.089,0,0.366,0.183,355.04
119334,142452,9298,-0.094,1.02,0.083,0.244,0.854,0.305,355.044
119334,142547,10843,-0.097,1.024,0.084,0.244,0.854,0.305,355.05
119358,142452,9298,-0.099,1.025,0.084,0,1.037,0.427,355.054
119358,142550,10844,-0.099,1.027,0.087,0,1.037,0.427,355.06
119352,142452,9298,-0.098,1.027,0.089,0.488,0.793,0.305,355.064
119352,142581,10868,-0.094,1.027,0.09,0.488,0.793,0.305,355.07
119361,142452,9298,-0.093,1.026,0.09,-0.061,0.122,0.305,355.074
119361,142561,10864,-0.094,1.022,0.089,-0.061,0.122,0.305,355.08
119368,142708,9298,-0.091,1.02,0.095,-0.549,-0.122,0.61,355.084
119368,142602,10862,-0.091,1.023,0.103,-0.549,-0.122,0.61,355.09
119347,142452,9298,-0.091,1.021,0.101,-0.488,-0.061,0.488,355.093
119347,142556,10872,-0.089,1.019,0.096,-0.488,-0.061,0.488,355.1
119361,142452,9298,-0.09,1.02,0.092,-0.488,0.366,0.427,355.103
119361,142564,10869,-0.091,1.02,0.095,-0.488,0.366,0.427,355.11
119352,142452,9298,-0.094,1.02,0.097,0.122,0.671,0.183,355.113
119352,142570,10858,-0.093,1.017,0.098,0.122,0.671,0.183,355.119
119363,142452,9298,-0.095,1.017,0.097,0.366,0.915,0,355.123
119363,142552,10838,-0.093,1.019,0.089,0.366,0.915,0,355.129
119336,142452,9298,-0.095,1.018,0.079,-0.061,0.915,0.183,355.133
119336,142573,10847,-0.097,1.014,0.079,-0.061,0.915,0.183,355.139
119341,142452,9298,-0.099,1.012,0.083,0.244,0.793,0.244,355.143
119341,142548,10850,-0.099,1.018,0.088,0.244,0.793,0.244,355.149
119337,142452,9298,-0.099,1.025,0.091,0.671,0.549,0.305,355.153
119337,142527,10856,-0.1,1.03,0.093,0.671,0.549,0.305,355.159
119323,142452,9298,-0.097,1.033,0.09,-0.061,0.244,0.549,355.163
119323,142535,10848,-0.096,1.032,0.089,-0.061,0.244,0.549,355.169
119318,142452,9298,-0.093,1.025,0.095,-0.427,-0.061,0.732,355.173
119318,142493,10849,-0.093,1.023,0.096,-0.427,-0.061,0.732,355.179
119298,142452,9298,-0.089,1.023,0.094,-0.915,-0.183,0.671,355.183
119298,142515,10855,-0.089,1.021,0.099,-0.915,-0.183,0.671,355.189
119302,142452,9298,-0.09,1.019,0.096,-1.159,0.061,0.305,355.192
119302,142501,10847,-0.09,1.016,0.098,-1.159,0.061,0.305,355.199
119298,142452,9298,-0.09,1.016,0.093,0.244,0.61,0,355.202
119298,142532,10847,-0.091,1.016,0.087,0.244,0.61,0,355.209
119316,142452,9298,-0.093,1.018,0.08,1.159,1.098,0,355.212
119316,142520,10858,-0.095,1.019,0.082,1.159,1.098,0,355.218
119315,142452,9298,-0.096,1.02,0.087,0.61,1.22,0,355.222
119315,142537,10849,-0.096,1.021,0.089,0.61,1.22,0,355.228
119312,142452,9298,-0.097,1.02,0.086,0.427,0.793,0.183,355.232
119312,142517,10840,-0.098,1.02,0.087,0.427,0.793,0.183,355.238
119350,142452,9298,-0.097,1.021,0.09,0,0.305,0.488,355.242
119350,142520,10856,-0.098,1.021,0.09,0,0.305,0.488,355.248
119336,142452,9298,-0.096,1.022,0.093,-0.61,-0.061,0.549,355.252
119336,142549,10850,-0.094,1.028,0.095,-0.61,-0.061,0.549,355.258
119323,142452,9298,-0.095,1.029,0.093,-0.732,-0.061,0.61,355.262
119323,142508,10844,-0.092,1.023,0.091,-0.732,-0.061,0.61,355.268
119338,142452,9298,-0.094,1.025,0.092,-0.427,0,0.427,355.272
119338,142533,10836,-0.092,1.023,0.096,-0.427,0,0.427,355.278
119319,142452,9298,-0.091,1.022,0.099,-0.671,0.183,0.244,355.282
119319,142524,10855,-0.094,1.019,0.096,-0.671,0.183,0.244,355.288
119314,142452,9298,-0.093,1.016,0.094,-0.549,0.488,0.305,355.291
119314,142536,10855,-0.092,1.016,0.088,-0.549,0.488,0.305,355.298
119310,142452,9298,-0.094,1.014,0.087,0.061,0.671,0.122,355.301
119310,142536,10836,-0.094,1.02,0.086,0.061,0.671,0.122,355.308
119279,142452,9298,-0.094,1.022,0.09,0.183,0.854,-0.061,355.311
119279,142503,10850,-0.095,1.023,0.089,0.183,0.854,-0.061,355.317
119297,142452,9298,-0.099,1.02,0.086,0.549,0.915,0.183,355.321
119297,142526,10841,-0.101,1.019,0.085,0.549,0.915,0.183,355.327
119306,142452,9298,-0.1,1.021,0.083,0.366,0.549,0.549,355.331
119306,142507,10843,-0.095,1.021,0.082,0.366,0.549,0.549,355.337
119322,142452,9298,-0.094,1.022,0.089,-0.366,0,0.549,355.341
119322,142500,10827,-0.09,1.021,0.089,-0.366,0,0.549,355.347
119313,142452,9298,-0.091,1.021,0.093,-0.915,-0.244,0.671,355.351
119313,142516,10846,-0.09,1.021,0.095,-0.915,-0.244,0.671,355.357
119282,142452,9298,-0.09,1.022,0.099,-1.829,0.061,0.61,355.361
119282,142520,10831,-0.092,1.02,0.098,-1.829,0.061,0.61,355.367
119299,142452,9298,-0.093,1.017,0.095,-1.707,0.427,0.549,355.371
119299,142515,10838,-0.096,1.02,0.099,-1.707,0.427,0.549,355.377
119312,142452,9298,-0.094,1.018,0.092,-0.244,0.61,0.305,355.381
119312,142507,10845,-0.095,1.017,0.092,-0.244,0.61,0.305,355.387
119290,142452,9298,-0.094,1.018,0.099,0.854,0.793,0,355.39
119290,142517,10859,-0.095,1.025,0.101,0.854,0.793,0,355.397
119312,142452,9298,-0.095,1.025,0.101,0.854,0.793,0,355.4
119312,142513,10844,-0.096,1.027,0.088,1.22,0.671,0.183,355.407
119309,142452,9298,-0.096,1.027,0.088,1.22,0.671,0.183,355.41
119309,142542,10851,-0.094,1.024,0.09,1.22,0.732,0.366,355.416
119326,142452,9298,-0.094,1.024,0.09,1.22,0.732,0.366,355.42
119326,142518,10841,-0.093,1.021,0.092,0.671,0.61,0.244,355.426
119301,142452,9298,-0.093,1.021,0.092,0.671,0.61,0.244,355.43
119301,142520,10846,-0.093,1.02,0.084,-0.549,0.61,0.366,355.436
119297,142452,9298,-0.093,1.02,0.084,-0.549,0.61,0.366,355.44
119297,142515,10851,-0.094,1.015,0.082,-0.793,0.488,0.488,355.446
119294,142452,9298,-0.094,1.015,0.082,-0.793,0.488,0.488,355.45
119294,142510,10846,-0.097,1.017,0.088,-0.366,0.671,0.366,355.456
119297,142452,9298,-0.097,1.017,0.088,-0.366,0.671,0.366,355.46
119297,142504,10850,-0.099,1.016,0.085,0.183,0.671,0.122,355.466
119312,142452,9298,-0.099,1.016,0.085,0.183,0.671,0.122,355.47
119312,142510,10855,-0.095,1.023,0.092,0.427,0.244,0.244,355.476
119301,142452,9298,-0.095,1.023,0.092,0.427,0.244,0.244,355.48
119301,142512,10846,-0.097,1.03,0.098,0.305,0.122,0.488,355.486
119324,142452,9298,-0.097,1.03,0.098,0.305,0.122,0.488,355.489
119324,142520,10835,-0.094,1.026,0.093,-0.366,0.061,0.61,355.496
119326,142452,9298,-0.094,1.026,0.093,-0.366,0.061,0.61,355.499
119326,142520,10840,-0.088,1.014,0.082,-0.854,0,0.549,355.506
119301,142452,9298,-0.088,1.014,0.082,-0.854,0,0.549,355.509
119301,142524,10826,-0.094,1.016,0.093,-0.732,0.122,0.549,355.515
119310,142452,9298,-0.094,1.016,0.093,-0.732,0.122,0.549,355.519
119310,142512,10844,-0.092,1.023,0.094,-0.488,0.122,0.549,355.525
119297,142452,9298,-0.092,1.023,0.094,-0.488,0.122,0.549,355.529
119297,142507,10837,-0.094,1.023,0.086,-0.183,0.305,0.488,355.535
119300,142452,9298,-0.094,1.023,0.086,-0.183,0.305,0.488,355.539
119300,142506,10849,-0.095,1.023,0.088,-0.061,0.488,0.366,355.545
119308,142452,9298,-0.096,1.021,0.089,-0.061,0.488,0.366,355.549
119308,142500,10857,-0.097,1.019,0.088,-0.305,0.549,0.122,355.555
119318,142452,9298,-0.097,1.022,0.088,-0.305,0.549,0.122,355.559
119318,142509,10820,-0.096,1.021,0.09,-0.427,0.122,0.305,355.565
119293,142452,9298,-0.097,1.018,0.09,-0.427,0.122,0.305,355.569
119293,142498,10836,-0.092,1.018,0.091,0,-0.122,0.488,355.575
119304,142452,9298,-0.094,1.019,0.099,0,-0.122,0.488,355.579
119304,142507,10837,-0.092,1.026,0.1,-0.305,0,0.61,355.585
119303,142452,9298,-0.087,1.024,0.102,-0.305,0,0.61,355.588
119303,142503,10834,-0.089,1.021,0.099,-1.037,-0.061,0.488,355.595
119302,142452,9298,-0.089,1.02,0.102,-1.037,-0.061,0.488,355.598
119302,142541,10841,-0.089,1.015,0.097,-1.037,0,0.427,355.605
119302,142452,9298,-0.088,1.013,0.094,-1.037,0,0.427,355.608
119302,142516,10841,-0.089,1.017,0.088,-0.183,0.427,0.366,355.614
119283,142452,9298,-0.092,1.024,0.087,-0.183,0.427,0.366,355.618
119283,142534,10833,-0.094,1.022,0.088,0.183,0.854,0.244,355.624
119305,142452,9298,-0.095,1.025,0.088,0.183,0.854,0.244,355.628
119305,142533,10847,-0.095,1.026,0.088,0.61,0.976,0.183,355.634
119315,142452,9298,-0.096,1.025,0.09,0.61,0.976,0.183,355.638
119315,142531,10844,-0.099,1.028,0.086,-0.244,0.732,0.305,355.644
119319,142452,9298,-0.099,1.026,0.086,-0.244,0.732,0.305,355.648
119319,142526,10840,-0.095,1.021,0.084,-0.732,0.366,0.427,355.654
119303,142452,9298,-0.093,1.019,0.087,-0.732,0.366,0.427,355.658
119303,142531,10858,-0.092,1.019,0.093,-0.427,0,0.305,355.664
119345,142452,9298,-0.092,1.017,0.095,-0.427,0,0.305,355.668
119345,142511,10836,-0.091,1.019,0.101,-0.122,-0.122,0.488,355.674
119310,142452,9298,-0.09,1.019,0.097,-0.122,-0.122,0.488,355.678
119310,142515,10852,-0.088,1.022,0.096,0.305,0.427,0.488,355.684
119314,142452,9298,-0.088,1.02,0.095,0.305,0.427,0.488,355.687
119314,142534,10837,-0.093,1.021,0.091,0.244,0.976,0.305,355.694
119311,142452,9298,-0.093,1.02,0.089,0.244,0.976,0.305,355.697
119311,142538,10844,-0.096,1.02,0.09,0.122,1.22,0.183,355.703
119328,142452,9298,-0.098,1.021,0.093,0.122,1.22,0.183,355.707
119328,142524,10841,-0.093,1.019,0.091,0.244,1.037,0.244,355.713
119324,142452,9298,-0.097,1.021,0.086,0.244,1.037,0.244,355.717
119324,142551,10842,-0.1,1.022,0.083,0.244,0.854,0.366,355.723
119332,142452,9298,-0.1,1.02,0.08,0.244,0.854,0.366,355.727
119332,142559,10852,-0.099,1.019,0.08,0.122,0.61,0.61,355.733
119327,142452,9298,-0.1,1.022,0.088,0.122,0.61,0.61,355.737
119327,142543,10846,-0.097,1.023,0.092,-0.183,-0.061,0.61,355.743
119344,142452,9298,-0.094,1.023,0.092,-0.183,-0.061,0.61,355.747
119344,142539,10849,-0.091,1.024,0.085,-0.427,-0.671,0.671,355.753
119319,142452,9298,-0.088,1.024,0.082,-0.427,-0.671,0.671,355.757
119319,142549,10834,-0.086,1.02,0.089,-0.122,-0.427,0.549,355.763
119321,142452,9298,-0.087,1.02,0.096,-0.122,-0.427,0.549,355.767
119321,142540,10856,-0.093,1.024,0.1,-0.427,0.244,0.305,355.773
119347,142452,9298,-0.092,1.024,0.098,-0.427,0.244,0.305,355.777
119347,142550,10844,-0.091,1.022,0.095,-0.976,0.488,0.305,355.783
119353,142452,9298,-0.093,1.02,0.086,-0.976,0.488,0.305,355.786
119353,142552,10861,-0.092,1.017,0.085,-0.671,0.488,0.183,355.793
119323,142452,9298,-0.091,1.015,0.088,-0.671,0.488,0.183,355.796
119323,142530,10851,-0.094,1.017,0.096,-0.061,0.488,0.122,355.803
119324,142452,9298,-0.095,1.025,0.098,-0.061,0.488,0.122,355.806
119324,142528,10861,-0.096,1.023,0.093,-0.366,0.366,0.061,355.812
119329,142452,9298,-0.094,1.024,0.088,-0.366,0.366,0.061,355.816
119329,142522,10834,-0.093,1.023,0.086,-0.488,0.427,0.122,355.822
119320,142452,9298,-0.096,1.021,0.089,-0.488,0.427,0.122,355.826
119320,142523,10851,-0.098,1.017,0.092,-0.61,0.61,0.366,355.832
119339,142452,9298,-0.098,1.018,0.098,-0.61,0.61,0.366,355.836
119339,142543,10838,-0.099,1.019,0.096,-0.854,0.366,0.61,355.842
119344,142452,9298,-0.098,1.018,0.09,-0.854,0.366,0.61,355.846
119344,142546,10859,-0.092,1.014,0.084,-0.427,-0.061,0.61,355.852
119352,142452,9298,-0.09,1.013,0.082,-0.427,-0.061,0.61,355.856
119352,142561,10858,-0.092,1.019,0.089,0.549,0,0.305,355.862
119321,142452,9298,-0.089,1.026,0.095,0.549,0,0.305,355.866
119321,142532,10853,-0.089,1.031,0.105,0.488,0.244,0.427,355.872
119330,142452,9298,-0.09,1.036,0.104,0.488,0.244,0.427,355.876
119330,142554,10839,-0.091,1.033,0.101,-0.061,0.488,0.488,355.882
119336,142452,9298,-0.091,1.025,0.1,-0.061,0.488,0.488,355.885
119336,142533,10836,-0.091,1.021,0.092,-0.488,0.732,0.305,355.892
119327,142452,9298,-0.092,1.014,0.088,-0.488,0.732,0.305,355.895
119327,142572,10838,-0.094,1.012,0.086,-0.366,0.793,0.122,355.902
119341,142452,9298,-0.094,1.015,0.09,-0.366,0.793,0.122,355.905
119341,142542,10851,-0.093,1.017,0.091,0.488,0.671,0,355.911
119331,142452,9298,-0.095,1.019,0.09,0.488,0.671,0,355.915
119331,142540,10856,-0.095,1.023,0.088,0.915,0.549,0.183,355.921
119330,142452,9298,-0.094,1.024,0.089,0.915,0.549,0.183,355.925
119330,142521,10846,-0.095,1.023,0.091,0.915,0.366,0.244,355.931
119329,142452,9298,-0.091,1.025,0.087,0.915,0.366,0.244,355.935
119329,142534,10860,-0.096,1.023,0.082,0.183,0.305,0.183,355.941
119338,142452,9298,-0.095,1.024,0.081,0.183,0.305,0.183,355.945
119338,142557,10853,-0.096,1.023,0.081,-0.915,0.427,0.305,355.951
119305,142452,9298,-0.1,1.022,0.085,-0.915,0.427,0.305,355.955
119305,142510,10849,-0.099,1.02,0.089,-1.098,0.427,0.488,355.961
119317,142452,9298,-0.1,1.017,0.087,-1.098,0.427,0.488,355.965
119317,142546,10850,-0.1,1.016,0.088,-1.28,0.122,0.732,355.971
119312,142452,9298,-0.099,1.018,0.089,-1.28,0.122,0.732,355.975
119312,142535,10849,-0.094,1.02,0.089,-0.976,-0.244,0.61,355.981
119298,142452,9298,-0.094,1.02,0.089,-0.976,-0.244,0.61,355.984
119298,142518,10851,-0.093,1.024,0.102,-0.427,-0.366,0.366,355.991
119320,142452,9298,-0.093,1.024,0.102,-0.427,-0.366,0.366,355.994
119320,142520,10848,-0.092,1.026,0.108,-0.305,-0.122,0.488,356
119305,142452,9298,-0.092,1.026,0.108,-0.305,-0.122,0.488,356.004
119305,142501,10850,-0.091,1.019,0.09,-0.305,0.244,0.488,356.01
119303,142452,9298,-0.091,1.019,0.09,-0.305,0.244,0.488,356.014
119303,142523,10850,-0.091,1.015,0.087,0,0.427,0.183,356.02
119281,142452,9298,-0.091,1.015,0.087,0,0.427,0.183,356.024
119281,142494,10845,-0.091,1.023,0.099,0.183,0.366,0.122,356.03
119306,142452,9298,-0.091,1.023,0.099,0.183,0.366,0.122,356.034
119306,142521,10848,-0.089,1.024,0.091,-0.183,0.366,0.305,356.04
119288,142452,9298,-0.089,1.024,0.091,-0.183,0.366,0.305,356.044
119288,142502,10847,-0.092,1.018,0.088,-0.183,0.366,0.427,356.05
119297,142452,9298,-0.092,1.018,0.088,-0.183,0.366,0.427,356.054
119297,142535,10838,-0.093,1.022,0.093,-0.427,0.488,0.427,356.06
119303,142452,9298,-0.093,1.022,0.093,-0.427,0.488,0.427,356.064
119303,142541,10858,-0.091,1.017,0.094,-0.244,0.366,0.366,356.07
119314,142452,9298,-0.091,1.017,0.094,-0.244,0.366,0.366,356.074
119314,142520,10846,-0.094,1.02,0.096,0.122,0.549,0.305,356.08
119310,142452,9298,-0.094,1.02,0.096,0.122,0.549,0.305,356.083
119310,142517,10838,-0.096,1.023,0.088,0.488,0.915,0.488,356.09
119295,142452,9298,-0.096,1.023,0.088,0.488,0.915,0.488,356.093
119295,142519,10851,-0.098,1.024,0.091,0.915,1.037,0.305,356.1
119315,142452,9298,-0.098,1.024,0.091,0.915,1.037,0.305,356.103
119315,142525,10841,-0.098,1.022,0.092,0.854,0.793,0.122,356.109
119294,142452,9298,-0.098,1.022,0.092,0.854,0.793,0.122,356.113
119294,142519,10845,-0.094,1.025,0.087,0.061,0.488,0.366,356.119
119307,142452,9298,-0.094,1.025,0.087,0.061,0.488,0.366,356.123
119307,142509,10849,-0.093,1.026,0.084,0.061,0.488,0.366,356.129
119304,142452,9298,-0.095,1.021,0.09,-0.732,0.244,0.549,356.133
119304,142521,10843,-0.094,1.021,0.098,-0.732,0.244,0.549,356.139
119318,142452,9298,-0.092,1.019,0.095,-0.366,0.061,0.366,356.143
119318,142539,10832,-0.089,1.019,0.088,-0.366,0.061,0.366,356.149
119304,142452,9298,-0.091,1.021,0.09,-0.244,0.122,0.244,356.153
119304,142523,10842,-0.092,1.024,0.089,-0.244,0.122,0.244,356.159
119304,142452,9298,-0.091,1.022,0.088,-0.427,0.305,0.305,356.163
119304,142526,10839,-0.094,1.018,0.087,-0.427,0.305,0.305,356.169
119341,142452,9298,-0.096,1.021,0.085,-0.183,0.61,0.183,356.173
119341,142548,10832,-0.095,1.021,0.084,-0.183,0.61,0.183,356.179
119326,142452,9298,-0.096,1.023,0.085,-0.793,0.61,0.244,356.182
119326,142526,10848,-0.099,1.023,0.09,-0.793,0.61,0.244,356.189
119316,142452,9298,-0.098,1.022,0.088,-0.549,0.244,0.427,356.192
119316,142521,10848,-0.096,1.023,0.086,-0.549,0.244,0.427,356.198
119293,142452,9298,-0.097,1.02,0.087,-0.427,0,0.427,356.202
119293,142513,10837,-0.095,1.023,0.09,-0.427,0,0.427,356.208
119311,142452,9298,-0.094,1.024,0.094,-0.732,-0.122,0.488,356.212
119311,142491,10842,-0.094,1.025,0.093,-0.732,-0.122,0.488,356.218
119307,142452,9298,-0.093,1.023,0.099,-0.915,-0.305,0.549,356.222
119307,142531,10836,-0.092,1.02,0.099,-0.915,-0.305,0.549,356.228
119332,142452,9298,-0.089,1.019,0.099,-0.732,-0.305,0.549,356.232
119332,142555,10850,-0.089,1.017,0.1,-0.732,-0.305,0.549,356.238
119330,142452,9298,-0.091,1.016,0.098,-0.793,0,0.305,356.242
119330,142542,10837,-0.091,1.017,0.095,-0.793,0,0.305,356.248
119329,142452,9298,-0.09,1.017,0.099,-0.488,0.427,0.305,356.252
119329,142575,10845,-0.093,1.017,0.099,-0.488,0.427,0.305,356.258
119320,142452,9298,-0.098,1.017,0.094,0.366,0.61,0.305,356.262
119320,142549,10838,-0.096,1.019,0.088,0.366,0.61,0.305,356.268
119315,142452,9298,-0.095,1.021,0.087,0.549,0.671,0.244,356.272
119315,142529,10840,-0.095,1.024,0.091,0.549,0.671,0.244,356.278
119305,142452,9298,-0.094,1.028,0.086,0.549,0.61,0.305,356.281
119305,142513,10847,-0.095,1.027,0.087,0.549,0.61,0.305,356.288
119305,142452,9298,-0.095,1.027,0.089,0.488,0.427,0.488,356.291
119305,142535,10842,-0.094,1.024,0.083,0.488,0.427,0.488,356.297
119309,142452,9298,-0.092,1.022,0.084,-0.366,0.244,0.427,356.301
119309,142522,10843,-0.092,1.024,0.084,-0.366,0.244,0.427,356.307
119306,142452,9298,-0.092,1.024,0.091,-1.341,0.305,0.488,356.311
119306,142536,10838,-0.091,1.02,0.088,-1.341,0.305,0.488,356.317
119333,142452,9298,-0.089,1.017,0.088,-0.854,0.244,0.549,356.321
119333,142528,10859,-0.091,1.017,0.094,-0.854,0.244,0.549,356.327
119334,142452,9298,-0.093,1.016,0.096,-0.671,0.305,0.366,356.331
119334,142543,10834,-0.091,1.015,0.097,-0.671,0.305,0.366,356.337
119323,142452,9298,-0.094,1.019,0.092,-0.488,0.366,0.244,356.341
119323,142556,10848,-0.097,1.018,0.094,-0.488,0.366,0.244,356.347
119333,142452,9298,-0.095,1.022,0.095,0.427,0.488,0.183,356.351
119333,142518,10851,-0.096,1.021,0.09,0.427,0.488,0.183,356.357
119305,142452,9298,-0.096,1.024,0.09,0.976,0.488,0.183,356.361
119305,142527,10851,-0.095,1.027,0.093,0.976,0.488,0.183,356.367
119332,142452,9298,-0.093,1.025,0.091,0.61,0.366,0.305,356.371
119332,142537,10840,-0.094,1.021,0.089,0.61,0.366,0.305,356.377
119326,142452,9298,-0.095,1.018,0.091,-0.122,0.183,0.427,356.38
119326,142549,10832,-0.095,1.019,0.091,-0.122,0.183,0.427,356.387
119320,142452,9298,-0.096,1.017,0.085,-1.22,0.061,0.793,356.39
119320,142545,10842,-0.092,1.017,0.084,-1.22,0.061,0.793,356.396
119323,142452,9298,-0.091,1.015,0.084,-1.524,-0.122,0.854,356.4
119323,142548,10843,-0.092,1.02,0.085,-1.524,-0.122,0.854,356.406
119323,142452,9298,-0.094,1.025,0.092,-1.646,-0.305,0.671,356.41
119323,142557,10843,-0.094,1.029,0.093,-1.646,-0.305,0.671,356.416
119336,142452,9298,-0.09,1.03,0.091,-0.976,-0.183,0.488,356.42
119336,142546,10844,-0.09,1.032,0.094,-0.976,-0.183,0.488,356.426
119338,142452,9298,-0.096,1.029,0.093,-0.732,0.122,0.305,356.43
119338,142547,10844,-0.096,1.026,0.096,-0.732,0.122,0.305,356.436
119332,142452,9298,-0.094,1.023,0.098,-1.22,0.305,0.305,356.44
119332,142532,10854,-0.095,1.021,0.1,-1.22,0.305,0.305,356.446
119322,142452,9298,-0.093,1.015,0.1,-0.976,0.122,0.183,356.45
119322,142566,10850,-0.091,1.016,0.099,-0.976,0.122,0.183,356.456
119330,142452,9298,-0.092,1.017,0.1,-0.122,-0.244,0.061,356.46
119330,142552,10839,-0.088,1.014,0.101,-0.122,-0.244,0.061,356.466
119335,142452,9298,-0.088,1.02,0.099,0.976,0.122,0.122,356.47
119335,142545,10849,-0.088,1.019,0.098,0.976,0.122,0.122,356.476
119326,142452,9298,-0.094,1.018,0.095,0.976,0.854,0.122,356.479
119326,142530,10848,-0.088,1.019,0.091,0.976,0.854,0.122,356.486
119334,142452,9298,-0.09,1.016,0.089,0.366,1.22,0.244,356.489
119334,142538,10846,-0.096,1.014,0.09,0.366,1.22,0.244,356.495
119347,142452,9298,-0.096,1.016,0.089,-0.122,1.22,0.488,356.499
119347,142550,10841,-0.094,1.018,0.086,-0.122,1.22,0.488,356.505
119359,142452,9298,-0.094,1.019,0.086,0.061,0.854,0.549,356.509
119359,142561,10854,-0.092,1.021,0.088,0.061,0.854,0.549,356.515
119391,142452,9298,-0.094,1.023,0.093,0.61,0.732,0.427,356.519
119391,142557,10858,-0.094,1.031,0.092,0.61,0.732,0.427,356.525
119355,142452,9298,-0.094,1.033,0.095,0.61,0.854,0.427,356.529
119355,142569,10854,-0.097,1.03,0.092,0.61,0.854,0.427,356.535
119369,142452,9298,-0.095,1.025,0.086,0.427,0.854,0.366,356.539
119369,142551,10839,-0.095,1.027,0.089,0.427,0.854,0.366,356.545
119356,142452,9298,-0.097,1.027,0.095,0.183,0.854,0.244,356.549
119356,142567,10854,-0.099,1.025,0.102,0.183,0.854,0.244,356.555
119369,142452,9298,-0.093,1.023,0.097,0.244,0.671,0.122,356.559
119369,142552,10845,-0.095,1.021,0.084,0.244,0.671,0.122,356.565
119352,142452,9298,-0.095,1.021,0.084,0.244,0.671,0.122,356.568
119352,142562,10841,-0.094,1.015,0.079,0.305,0.732,-0.061,356.575
119372,142452,9298,-0.094,1.015,0.079,0.305,0.732,-0.061,356.578
119372,142580,10853,-0.099,1.013,0.088,0.366,0.976,-0.244,356.585
119373,142452,9298,-0.099,1.013,0.088,0.366,0.976,-0.244,356.588
119373,142582,10856,-0.099,1.014,0.082,0.549,0.732,0.183,356.594
119357,142452,9298,-0.099,1.014,0.082,0.549,0.732,0.183,356.598
119357,142581,10868,-0.091,1.022,0.087,0.732,0.061,0.549,356.604
119391,142452,9298,-0.091,1.022,0.087,0.732,0.061,0.549,356.608
119391,142580,10846,-0.088,1.026,0.089,0.427,-0.427,0.488,356.614
119360,142452,9298,-0.088,1.026,0.089,0.427,-0.427,0.488,356.618
119360,142587,10848,-0.091,1.022,0.095,-0.366,-0.427,0.549,356.624
119385,142708,9298,-0.091,1.022,0.095,-0.366,-0.427,0.549,356.628
119385,142596,10857,-0.092,1.019,0.091,-1.098,0,0.671,356.634
119368,142452,9298,-0.092,1.019,0.091,-1.098,0,0.671,356.638
119368,142576,10858,-0.094,1.017,0.09,-1.463,0.488,0.549,356.644
119355,142452,9298,-0.094,1.017,0.09,-1.463,0.488,0.549,356.648
119355,142559,10856,-0.097,1.025,0.092,-1.098,0.671,0.427,356.654
119367,142452,9298,-0.097,1.025,0.092,-1.098,0.671,0.427,356.658
119367,142578,10858,-0.097,1.026,0.089,-0.671,0.427,0.366,356.664
119379,142452,9298,-0.097,1.026,0.089,-0.671,0.427,0.366,356.667
119379,142581,10840,-0.096,1.024,0.087,-0.244,0.244,0.305,356.674
119391,142452,9298,-0.096,1.024,0.087,-0.244,0.244,0.305,356.677
119391,142585,10863,-0.093,1.02,0.09,-0.122,0.122,0.305,356.684
119376,142708,9298,-0.093,1.02,0.09,-0.122,0.122,0.305,356.687
119376,142617,10858,-0.092,1.02,0.095,-0.244,0.061,0.488,356.693
119388,142452,9298,-0.092,1.02,0.095,-0.244,0.061,0.488,356.697
119388,142583,10861,-0.091,1.024,0.096,-0.427,-0.061,0.488,356.703
119378,142452,9298,-0.096,1.026,0.1,-0.427,-0.061,0.488,356.707
119378,142590,10831,-0.092,1.025,0.093,-0.915,0,0.427,356.713
119385,142452,9298,-0.089,1.026,0.091,-0.915,0,0.427,356.717
119385,142572,10863,-0.088,1.02,0.093,-0.915,0.305,0.427,356.723
119387,142452,9298,-0.093,1.017,0.094,-0.915,0.305,0.427,356.727
119387,142590,10851,-0.093,1.02,0.098,-0.732,0.305,0.427,356.733
119385,142452,9298,-0.092,1.019,0.096,-0.732,0.305,0.427,356.737
119385,142577,10858,-0.093,1.017,0.092,-0.61,0.183,0.305,356.743
119384,142452,9298,-0.091,1.013,0.093,-0.61,0.183,0.305,356.747
119384,142589,10843,-0.092,1.011,0.091,-0.122,0.427,0.244,356.753
119355,142452,9298,-0.094,1.013,0.097,-0.122,0.427,0.244,356.757
119355,142576,10858,-0.093,1.018,0.094,0.366,0.61,0.305,356.763
119379,142452,9298,-0.093,1.019,0.098,0.366,0.61,0.305,356.766
119379,142560,10852,-0.09,1.022,0.095,0.122,0.488,0.366,356.773
119376,142452,9298,-0.089,1.026,0.09,0.122,0.488,0.366,356.776
119376,142587,10848,-0.091,1.024,0.09,-0.061,0.244,0.366,356.783
119369,142452,9298,-0.096,1.023,0.094,-0.061,0.244,0.366,356.786
119369,142551,10854,-0.094,1.02,0.089,0.061,0.732,0.305,356.792
119360,142452,9298,-0.096,1.022,0.097,0.061,0.732,0.305,356.796
119360,142556,10855,-0.099,1.023,0.097,-0.305,0.793,0.427,356.802
119350,142452,9298,-0.098,1.021,0.094,-0.305,0.793,0.427,356.806
119350,142536,10862,-0.098,1.023,0.097,-0.305,0.671,0.427,356.812
119343,142452,9298,-0.095,1.023,0.09,-0.305,0.671,0.427,356.816
119343,142568,10859,-0.094,1.022,0.089,-0.244,0.427,0.427,356.822
119322,142452,9298,-0.094,1.021,0.089,-0.244,0.427,0.427,356.826
119322,142543,10841,-0.092,1.023,0.087,0.183,0.366,0.366,356.832
119316,142452,9298,-0.094,1.016,0.087,0.183,0.366,0.366,356.836
119316,142546,10840,-0.093,1.017,0.087,0.732,0.549,0.305,356.842
119341,142452,9298,-0.095,1.021,0.091,0.732,0.549,0.305,356.846
119341,142537,10849,-0.098,1.025,0.092,0.61,0.549,0.366,356.852
119336,142452,9298,-0.095,1.023,0.093,0.61,0.549,0.366,356.856
119336,142525,10850,-0.095,1.023,0.093,0.61,0.122,0.244,356.862
119317,142452,9298,-0.091,1.022,0.09,0.61,0.122,0.244,356.865
119317,142529,10848,-0.09,1.022,0.092,0.061,-0.183,0.244,356.872
119337,142452,9298,-0.089,1.021,0.093,0.061,-0.183,0.244,356.875
119337,142532,10848,-0.091,1.021,0.096,-0.854,0,0.305,356.882
119328,142452,9298,-0.094,1.022,0.097,-0.854,0,0.305,356.885
119328,142507,10847,-0.095,1.016,0.096,-0.793,0.305,0.244,356.891
119335,142452,9298,-0.096,1.015,0.092,-0.793,0.305,0.244,356.895
119335,142532,10849,-0.097,1.017,0.083,-0.732,0.549,0.427,356.901
119320,142452,9298,-0.097,1.02,0.087,-0.732,0.549,0.427,356.905
119320,142539,10851,-0.099,1.026,0.097,-0.549,0.488,0.61,356.911
119333,142452,9298,-0.097,1.031,0.097,-0.549,0.488,0.61,356.915
119333,142512,10839,-0.098,1.029,0.096,-0.732,0.061,0.61,356.921
119349,142452,9298,-0.095,1.024,0.094,-0.732,0.061,0.61,356.925
119349,142525,10845,-0.089,1.019,0.084,-0.244,-0.244,0.427,356.931
119342,142452,9298,-0.088,1.016,0.085,-0.244,-0.244,0.427,356.935
119342,142515,10840,-0.091,1.016,0.087,0,0,0.305,356.941
119346,142452,9298,-0.092,1.023,0.095,0,0,0.305,356.945
119346,142530,10847,-0.093,1.025,0.098,-0.427,0.427,0.244,356.951
119312,142452,9298,-0.09,1.029,0.098,-0.427,0.427,0.244,356.954
119312,142523,10838,-0.091,1.023,0.097,0.061,0.549,0.183,356.961
119325,142452,9298,-0.092,1.021,0.096,0.061,0.549,0.183,356.964
119325,142507,10846,-0.091,1.02,0.097,0,0.671,0.244,356.971
119307,142452,9298,-0.094,1.019,0.095,0,0.671,0.244,356.974
119307,142510,10839,-0.092,1.016,0.094,-0.793,0.61,0.244,356.98
119294,142452,9298,-0.097,1.012,0.09,-0.793,0.61,0.244,356.984
119294,142482,10844,-0.098,1.008,0.089,-0.122,0.671,0.244,356.99
119323,142452,9298,-0.095,1.015,0.092,-0.122,0.671,0.244,356.994
119323,142515,10839,-0.094,1.021,0.096,0.793,0.61,0.366,357
119317,142452,9298,-0.095,1.027,0.097,0.793,0.61,0.366,357.004
119317,142538,10844,-0.096,1.028,0.092,0.915,0.427,0.366,357.01
119322,142452,9298,-0.094,1.027,0.094,0.915,0.427,0.366,357.014
119322,142511,10844,-0.093,1.026,0.095,0.488,0.427,0.427,357.02
119320,142452,9298,-0.093,1.024,0.092,0.488,0.427,0.427,357.024
119320,142539,10857,-0.094,1.024,0.089,-0.244,0.488,0.549,357.03
119341,142452,9298,-0.094,1.021,0.092,-0.244,0.488,0.549,357.034
119341,142527,10837,-0.088,1.018,0.087,0,0.732,0.427,357.04
119319,142452,9298,-0.09,1.016,0.084,0,0.732,0.427,357.044
119319,142538,10829,-0.093,1.02,0.083,0.366,0.671,0.244,357.05
119344,142452,9298,-0.095,1.021,0.086,0.366,0.671,0.244,357.054
119344,142526,10836,-0.095,1.025,0.088,-0.061,0.549,0.305,357.06
119332,142452,9298,-0.097,1.023,0.087,-0.061,0.549,0.305,357.063
119332,142542,10837,-0.097,1.022,0.089,-0.244,0.488,0.244,357.07
119312,142452,9298,-0.097,1.019,0.088,-0.244,0.488,0.244,357.073
119312,142553,10852,-0.097,1.022,0.086,-0.732,0.366,0.244,357.079
119317,142452,9298,-0.1,1.021,0.083,-0.732,0.366,0.244,357.083
119317,142521,10829,-0.099,1.019,0.087,-1.037,0.061,0.366,357.089
119307,142452,9298,-0.095,1.021,0.092,-1.037,0.061,0.366,357.093
119307,142520,10844,-0.096,1.026,0.099,-0.732,-0.183,0.488,357.099
119307,142452,9298,-0.095,1.025,0.101,-0.732,-0.183,0.488,357.103
119307,142509,10868,-0.094,1.02,0.095,-0.366,-0.305,0.488,357.109
119318,142452,9298,-0.092,1.018,0.092,-0.366,-0.305,0.488,357.113
119318,142512,10839,-0.092,1.019,0.096,-0.549,-0.122,0.427,357.119
119297,142452,9298,-0.094,1.018,0.097,-0.549,-0.122,0.427,357.123
119297,142513,10840,-0.095,1.023,0.093,-0.793,0.061,0.488,357.129
119295,142452,9298,-0.094,1.023,0.094,-0.793,0.061,0.488,357.133
119295,142512,10844,-0.091,1.022,0.095,-0.244,0.244,0.427,357.139
119315,142452,9298,-0.091,1.022,0.095,-0.244,0.244,0.427,357.143
119315,142535,10843,-0.092,1.025,0.092,-0.366,0.244,0.305,357.149
119321,142452,9298,-0.092,1.025,0.092,-0.366,0.244,0.305,357.152
119321,142513,10841,-0.092,1.018,0.086,-0.549,0.244,0.366,357.159
119327,142452,9298,-0.092,1.018,0.086,-0.549,0.244,0.366,357.162
119327,142518,10830,-0.093,1.016,0.097,-0.305,0.427,0.244,357.169
119326,142452,9298,-0.093,1.016,0.097,-0.305,0.427,0.244,357.172
119326,142548,10855,-0.095,1.021,0.091,-0.61,0.427,0.427,357.178
119332,142452,9298,-0.095,1.021,0.091,-0.61,0.427,0.427,357.182
119332,142532,10841,-0.096,1.021,0.086,-0.122,0.183,0.61,357.188
119316,142452,9298,-0.096,1.021,0.086,-0.122,0.183,0.61,357.192
119316,142520,10848,-0.091,1.021,0.097,0.427,-0.061,0.549,357.198
119317,142452,9298,-0.091,1.021,0.097,0.427,-0.061,0.549,357.202
119317,142524,10849,-0.089,1.025,0.101,-0.061,-0.122,0.366,357.208
119327,142452,9298,-0.089,1.025,0.101,-0.061,-0.122,0.366,357.212
119327,142542,10855,-0.091,1.023,0.091,-0.488,0.305,0.488,357.218
119328,142452,9298,-0.091,1.023,0.091,-0.488,0.305,0.488,357.222
119328,142518,10840,-0.098,1.018,0.089,-0.366,0.915,0.427,357.228
119336,142452,9298,-0.098,1.018,0.089,-0.366,0.915,0.427,357.232
119336,142543,10857,-0.097,1.018,0.088,-0.366,0.915,0.305,357.238
119325,142452,9298,-0.097,1.018,0.088,-0.366,0.915,0.305,357.242
119325,142542,10843,-0.094,1.022,0.091,-0.122,0.366,0.366,357.248
119375,142452,9298,-0.094,1.022,0.091,-0.122,0.366,0.366,357.251
119375,142537,10856,-0.095,1.019,0.093,0.183,0.122,0.305,357.258
119349,142452,9298,-0.095,1.019,0.093,0.183,0.122,0.305,357.261
119349,142545,10833,-0.095,1.023,0.089,-0.366,0.183,0.488,357.268
119372,142452,9298,-0.095,1.023,0.089,-0.366,0.183,0.488,357.271
119372,142548,10840,-0.091,1.024,0.095,-0.732,-0.061,0.61,357.277
119340,142452,9298,-0.091,1.024,0.095,-0.732,-0.061,0.61,357.281
119340,142534,10840,-0.092,1.021,0.098,-0.732,-0.061,0.61,357.287
119335,142452,9298,-0.091,1.023,0.097,-0.671,-0.183,0.427,357.291
119335,142538,10839,-0.09,1.025,0.093,-0.671,-0.183,0.427,357.297
119329,142452,9298,-0.09,1.024,0.097,-0.854,0,0.427,357.301
119329,142523,10840,-0.092,1.021,0.095,-0.854,0,0.427,357.307
119341,142452,9298,-0.093,1.02,0.093,-0.366,0.366,0.366,357.311
119341,142537,10850,-0.092,1.016,0.095,-0.366,0.366,0.366,357.317
119344,142452,9298,-0.093,1.017,0.097,-0.061,0.549,0.061,357.321
119344,142554,10824,-0.095,1.018,0.098,-0.061,0.549,0.061,357.327
119362,142452,9298,-0.098,1.021,0.093,0.061,0.61,0,357.331
119362,142530,10835,-0.096,1.019,0.089,0.061,0.61,0,357.337
119364,142452,9298,-0.097,1.021,0.083,0.61,0.61,0.183,357.341
119364,142569,10844,-0.096,1.02,0.086,0.61,0.61,0.183,357.347
119347,142452,9298,-0.094,1.027,0.096,0.549,0.549,0.183,357.35
119347,142568,10838,-0.096,1.03,0.098,0.549,0.549,0.183,357.357
119363,142452,9298,-0.093,1.025,0.1,0.061,0.244,0.366,357.36
119363,142549,10841,-0.092,1.019,0.098,0.061,0.244,0.366,357.367
119348,142452,9298,-0.089,1.016,0.091,-0.366,0.061,0.671,357.37
119348,142574,10841,-0.091,1.016,0.091,-0.366,0.061,0.671,357.376
119348,142452,9298,-0.093,1.016,0.092,-0.976,0.488,0.671,357.38
119348,142540,10837,-0.095,1.015,0.097,-0.976,0.488,0.671,357.386
119366,142452,9298,-0.096,1.02,0.096,-0.671,0.732,0.61,357.39
119366,142547,10849,-0.096,1.023,0.095,-0.671,0.732,0.61,357.396
119332,142452,9298,-0.092,1.022,0.091,0.61,0.61,0.427,357.4
119332,142548,10832,-0.091,1.024,0.091,0.61,0.61,0.427,357.406
119339,142452,9298,-0.095,1.026,0.094,1.098,0.671,0.244,357.41
119339,142527,10854,-0.095,1.029,0.091,1.098,0.671,0.244,357.416
119347,142452,9298,-0.095,1.029,0.089,0.732,0.61,0.305,357.42
119347,142543,10844,-0.095,1.026,0.086,0.732,0.61,0.305,357.426
119344,142452,9298,-0.093,1.022,0.084,0.427,0.488,0.244,357.43
119344,142558,10848,-0.096,1.021,0.088,0.427,0.488,0.244,357.436
119390,142452,9298,-0.094,1.021,0.089,0,0.244,0.183,357.44
119390,142559,10841,-0.094,1.021,0.092,0,0.244,0.183,357.446
119371,142452,9298,-0.092,1.022,0.091,-0.244,0.061,0.366,357.449
119371,142572,10836,-0.09,1.024,0.089,-0.244,0.061,0.366,357.456
119379,142452,9298,-0.09,1.021,0.089,-0.488,-0.061,0.244,357.459
119379,142565,10863,-0.09,1.016,0.088,-0.488,-0.061,0.244,357.466
119385,142452,9298,-0.091,1.02,0.088,-1.098,0.061,0.244,357.469
119385,142570,10858,-0.091,1.022,0.094,-1.098,0.061,0.244,357.475
119373,142452,9298,-0.094,1.02,0.099,-1.402,0.244,0.366,357.479
119373,142563,10841,-0.096,1.015,0.098,-1.402,0.244,0.366,357.485
119340,142452,9298,-0.095,1.016,0.098,-0.915,0.488,0.305,357.489
119340,142566,10847,-0.095,1.016,0.1,-0.915,0.488,0.305,357.495
119348,142452,9298,-0.098,1.023,0.096,-0.671,0.488,0.488,357.499
119348,142551,10849,-0.097,1.025,0.097,-0.671,0.488,0.488,357.505
119367,142452,9298,-0.094,1.025,0.099,-0.366,0.183,0.549,357.509
119367,142556,10855,-0.096,1.022,0.096,-0.366,0.183,0.549,357.515
119353,142452,9298,-0.091,1.021,0.095,0.366,0.122,0.549,357.519
119353,142520,10854,-0.09,1.021,0.096,0.366,0.122,0.549,357.525
119359,142452,9298,-0.091,1.021,0.09,0.122,0.427,0.427,357.529
119359,142534,10840,-0.093,1.025,0.091,0.122,0.427,0.427,357.535
119361,142452,9298,-0.093,1.026,0.094,-0.122,0.915,0.305,357.539
119361,142549,10854,-0.093,1.025,0.091,-0.122,0.915,0.305,357.545
119376,142452,9298,-0.096,1.024,0.092,-0.122,0.732,0.305,357.548
119376,142554,10855,-0.092,1.02,0.091,-0.122,0.732,0.305,357.555
119369,142452,9298,-0.091,1.021,0.089,-0.488,0.549,0.244,357.558
119369,142551,10853,-0.094,1.018,0.085,-0.488,0.549,0.244,357.565
119358,142452,9298,-0.096,1.017,0.087,-0.488,0.61,0.244,357.568
119358,142549,10851,-0.096,1.02,0.089,-0.488,0.61,0.244,357.574
119363,142452,9298,-0.098,1.023,0.094,-0.244,0.61,0.305,357.578
119363,142536,10860,-0.098,1.02,0.091,-0.244,0.61,0.305,357.584
119361,142452,9298,-0.096,1.022,0.094,0.183,0.488,0.244,357.588
119361,142548,10834,-0.095,1.019,0.092,0.183,0.488,0.244,357.594
119336,142452,9298,-0.095,1.017,0.095,0.061,0,0.305,357.598
119336,142529,10857,-0.094,1.022,0.094,0.061,0,0.305,357.604
119331,142452,9298,-0.092,1.024,0.093,-0.427,0,0.549,357.608
119331,142520,10855,-0.092,1.029,0.099,-0.427,0,0.549,357.614
119320,142452,9298,-0.088,1.029,0.102,-0.427,0.122,0.671,357.618
119320,142550,10846,-0.087,1.025,0.096,-0.427,0.122,0.671,357.624
119318,142452,9298,-0.087,1.022,0.091,-0.122,0.366,0.366,357.628
119318,142503,10862,-0.092,1.018,0.087,-0.122,0.366,0.366,357.634
119293,142452,9298,-0.096,1.017,0.088,-0.488,0.732,0.244,357.638
119293,142532,10834,-0.096,1.017,0.096,-0.488,0.732,0.244,357.644
119329,142452,9298,-0.098,1.017,0.098,-0.183,0.793,0.244,357.647
119329,142522,10844,-0.095,1.017,0.094,-0.183,0.793,0.244,357.654
119302,142452,9298,-0.097,1.02,0.088,0.122,0.549,0.244,357.657
119302,142530,10839,-0.094,1.019,0.09,0.122,0.549,0.244,357.664
119289,142452,9298,-0.096,1.019,0.099,0.427,0.244,0.183,357.667
119289,142503,10840,-0.098,1.025,0.099,0.427,0.244,0.183,357.673
119280,142452,9298,-0.097,1.022,0.094,0.366,0.122,0.244,357.677
119280,142505,10853,-0.094,1.019,0.098,0.366,0.122,0.244,357.683
119258,142452,9298,-0.092,1.017,0.092,0.244,0.305,0.366,357.687
119258,142457,10839,-0.094,1.02,0.095,0.244,0.305,0.366,357.693
119245,142452,9298,-0.096,1.021,0.094,0,0.488,0.488,357.697
119245,142441,10836,-0.096,1.019,0.091,0,0.488,0.488,357.703
119253,142452,9298,-0.094,1.021,0.087,-0.122,0.366,0.671,357.707
119253,142456,10837,-0.095,1.023,0.091,-0.122,0.366,0.671,357.713
119238,142452,9298,-0.09,1.026,0.087,-0.366,-0.061,0.488,357.717
119238,142452,10831,-0.09,1.03,0.087,-0.366,-0.061,0.488,357.723
119229,142452,9298,-0.09,1.03,0.087,-0.366,-0.061,0.488,357.727
119229,142436,10846,-0.089,1.027,0.088,-0.244,0,0.366,357.733
119241,142452,9298,-0.089,1.027,0.088,-0.244,0,0.366,357.737
119241,142454,10835,-0.098,1.021,0.093,-0.427,0.488,0.549,357.743
119270,142452,9298,-0.098,1.021,0.093,-0.427,0.488,0.549,357.746
119270,142452,10821,-0.093,1.02,0.095,-0.549,0.671,0.61,357.753
119257,142452,9298,-0.093,1.02,0.095,-0.549,0.671,0.61,357.756
119257,142469,10851,-0.096,1.022,0.09,-0.488,0.305,0.366,357.763
119291,142452,9298,-0.096,1.022,0.09,-0.488,0.305,0.366,357.766
119291,142446,10821,-0.094,1.021,0.094,-0.122,-0.061,0.183,357.772
119269,142452,9298,-0.094,1.021,0.094,-0.122,-0.061,0.183,357.776
119269,142471,10827,-0.092,1.025,0.093,0.732,0.061,0.122,357.782
119269,142452,9298,-0.092,1.025,0.093,0.732,0.061,0.122,357.786
119269,142474,10830,-0.092,1.026,0.09,-0.061,0.244,0.244,357.792
119284,142452,9298,-0.092,1.026,0.09,-0.061,0.244,0.244,357.796
119284,142486,10821,-0.094,1.018,0.089,-0.305,0.366,0.305,357.802
119284,142452,9298,-0.094,1.018,0.089,-0.305,0.366,0.305,357.806
119284,142478,10826,-0.093,1.016,0.093,-0.732,0.183,0.305,357.812
119274,142452,9298,-0.093,1.016,0.093,-0.732,0.183,0.305,357.816
119274,142457,10822,-0.093,1.016,0.097,-1.098,-0.122,0.427,357.822
119277,142452,9298,-0.093,1.016,0.097,-1.098,-0.122,0.427,357.826
119277,142468,10846,-0.09,1.022,0.094,-0.793,0,0.61,357.832
119289,142452,9298,-0.09,1.022,0.094,-0.793,0,0.61,357.836
119289,142461,10828,-0.095,1.026,0.093,-0.366,0.244,0.549,357.842
119291,142452,9298,-0.095,1.026,0.093,-0.366,0.244,0.549,357.845
119291,142469,10817,-0.093,1.029,0.098,0,0.366,0.427,357.852
119272,142452,9298,-0.093,1.029,0.098,0,0.366,0.427,357.855
119272,142504,10846,-0.095,1.023,0.099,0.366,0.488,0.244,357.862
119294,142452,9298,-0.095,1.023,0.099,0.366,0.488,0.244,357.865
119294,142479,10826,-0.094,1.023,0.099,0.427,0.549,0.183,357.871
119300,142452,9298,-0.093,1.019,0.093,0.427,0.549,0.183,357.875
119300,142513,10831,-0.094,1.021,0.087,0.183,0.793,0.244,357.881
119304,142452,9298,-0.095,1.021,0.088,0.183,0.793,0.244,357.885
119304,142514,10825,-0.095,1.02,0.094,-0.122,0.61,0.244,357.891
119283,142452,9298,-0.097,1.023,0.093,-0.122,0.61,0.244,357.895
119283,142487,10828,-0.091,1.021,0.094,0.366,0.183,0.183,357.901
119301,142452,9298,-0.091,1.018,0.09,0.366,0.183,0.183,357.905
119301,142518,10848,-0.09,1.017,0.093,0,0.122,0.244,357.911
119331,142452,9298,-0.092,1.02,0.092,0,0.122,0.244,357.915
119331,142533,10843,-0.095,1.019,0.089,-0.366,0.244,0.366,357.921
119282,142452,9298,-0.093,1.015,0.091,-0.366,0.244,0.366,357.925
119282,142505,10847,-0.094,1.017,0.093,-0.427,0.366,0.366,357.931
119305,142452,9298,-0.096,1.018,0.094,-0.427,0.366,0.366,357.935
119305,142530,10843,-0.095,1.02,0.097,-0.61,0.305,0.549,357.941
119295,142452,9298,-0.098,1.022,0.099,-0.61,0.305,0.549,357.944
119295,142523,10838,-0.094,1.02,0.095,-0.305,0.061,0.793,357.951
119312,142452,9298,-0.091,1.022,0.092,-0.305,0.061,0.793,357.954
119312,142512,10839,-0.093,1.022,0.085,0.305,0.122,0.61,357.961
119325,142452,9298,-0.094,1.025,0.086,0.305,0.122,0.61,357.964
119325,142540,10837,-0.094,1.03,0.091,0.122,0.671,0.244,357.97
119321,142452,9298,-0.095,1.03,0.092,0.122,0.671,0.244,357.974
119321,142537,10841,-0.095,1.029,0.092,-0.122,0.61,0.122,357.98
119320,142452,9298,-0.096,1.025,0.087,-0.122,0.61,0.122,357.984
119320,142532,10819,-0.093,1.021,0.087,-0.427,0.122,0.244,357.99
119314,142452,9298,-0.094,1.02,0.085,-0.427,0.122,0.244,357.994
119314,142531,10835,-0.091,1.022,0.093,-0.183,-0.183,0.305,358
119305,142452,9298,-0.093,1.023,0.099,-0.183,-0.183,0.305,358.004
119305,142528,10837,-0.091,1.022,0.095,-0.366,-0.183,0.244,358.01
119315,142452,9298,-0.089,1.019,0.094,-0.366,-0.183,0.244,358.014
119315,142510,10848,-0.091,1.016,0.092,-0.61,0.183,0.122,358.02
119286,142452,9298,-0.092,1.015,0.09,-0.61,0.183,0.122,358.024
119286,142521,10824,-0.094,1.014,0.095,-0.61,0.366,0.244,358.03
119294,142452,9298,-0.095,1.014,0.099,-0.61,0.366,0.244,358.034
119294,142495,10842,-0.095,1.015,0.098,-0.427,0.061,0.549,358.04
119301,142452,9298,-0.094,1.017,0.091,-0.427,0.061,0.549,358.043
119301,142490,10839,-0.095,1.017,0.089,-0.122,0.122,0.61,358.05
119295,142452,9298,-0.097,1.023,0.094,-0.122,0.122,0.61,358.053
119295,142484,10837,-0.096,1.027,0.098,-0.122,0.122,0.549,358.06
119318,142452,9298,-0.092,1.031,0.101,-0.122,0.122,0.549,358.063
119318,142502,10824,-0.093,1.033,0.099,-0.366,0.061,0.549,358.069
119308,142452,9298,-0.092,1.03,0.097,-0.366,0.061,0.549,358.073
119308,142505,10839,-0.09,1.023,0.095,-0.915,0.183,0.488,358.079
119305,142452,9298,-0.09,1.019,0.093,-0.915,0.183,0.488,358.083
119305,142500,10819,-0.091,1.019,0.097,-1.402,0.427,0.305,358.089
119294,142452,9298,-0.091,1.017,0.094,-1.402,0.427,0.305,358.093
119294,142516,10832,-0.094,1.016,0.086,-1.037,0.488,0.366,358.099
119292,142452,9298,-0.09,1.014,0.091,-1.037,0.488,0.366,358.103
119292,142481,10839,-0.091,1.017,0.096,0.488,0.488,0.183,358.109
119288,142452,9298,-0.091,1.028,0.1,0.488,0.488,0.183,358.113
119288,142505,10826,-0.093,1.028,0.094,1.098,0.366,0,358.119
119297,142452,9298,-0.091,1.026,0.098,1.098,0.366,0,358.123
119297,142477,10849,-0.088,1.029,0.096,0.854,0.427,-0.061,358.129
119294,142452,9298,-0.09,1.024,0.092,0.854,0.427,-0.061,358.133
119294,142477,10825,-0.093,1.021,0.096,0.244,0.427,0,358.139
119260,142452,9298,-0.091,1.019,0.093,0.244,0.427,0,358.142
119260,142474,10803,-0.092,1.015,0.091,-0.183,0.854,0,358.149
119296,142452,9298,-0.095,1.018,0.093,-0.183,0.854,0,358.152
119296,142484,10808,-0.097,1.018,0.092,-0.122,1.22,0,358.158
119296,142452,9298,-0.099,1.02,0.093,-0.122,1.22,0,358.162
119296,142467,10802,-0.099,1.02,0.093,0,1.098,0.305,358.168
119258,142452,9298,-0.098,1.017,0.089,0,1.098,0.305,358.172
119258,142475,10835,-0.099,1.02,0.087,0.305,0.732,0.366,358.178
119277,142452,9298,-0.096,1.02,0.089,0.305,0.732,0.366,358.182
119277,142492,10831,-0.099,1.023,0.093,0.061,0.549,0.427,358.188
119281,142452,9298,-0.099,1.024,0.091,0.061,0.549,0.427,358.192
119281,142485,10840,-0.096,1.026,0.091,-0.183,0.488,0.61,358.198
119282,142452,9298,-0.095,1.026,0.096,-0.183,0.488,0.61,358.202
119282,142469,10842,-0.095,1.025,0.1,0.122,0.244,0.793,358.208
119282,142452,9298,-0.092,1.022,0.095,0.122,0.244,0.793,358.212
119282,142481,10830,-0.092,1.023,0.089,-0.183,-0.183,0.61,358.218
119264,142452,9298,-0.091,1.021,0.091,-0.183,-0.183,0.61,358.222
119264,142453,10832,-0.084,1.02,0.096,-0.427,-0.183,0.427,358.228
119276,142452,9298,-0.085,1.023,0.097,-0.427,-0.183,0.427,358.232
119276,142479,10836,-0.089,1.02,0.093,0,0.244,0.244,358.238
119277,142452,9298,-0.09,1.02,0.092,0,0.244,0.244,358.241
119277,142502,10829,-0.089,1.019,0.091,0.488,0.488,0.061,358.248
119258,142452,9298,-0.091,1.016,0.089,0.488,0.488,0.061,358.251
119258,142466,10833,-0.093,1.016,0.09,0.183,0.671,-0.061,358.258
119271,142452,9298,-0.096,1.016,0.086,0.183,0.671,-0.061,358.261
119271,142432,10814,-0.101,1.021,0.088,-0.488,0.61,0.183,358.267
119273,142452,9298,-0.103,1.022,0.088,-0.488,0.61,0.183,358.271
119273,142479,10834,-0.098,1.023,0.087,-0.427,0.488,0.305,358.277
119264,142452,9298,-0.099,1.024,0.083,-0.427,0.488,0.305,358.281
119264,142441,10828,-0.102,1.025,0.092,-0.793,0.244,0.549,358.287
119270,142452,9298,-0.099,1.027,0.102,-0.793,0.244,0.549,358.291
119270,142452,10821,-0.097,1.023,0.106,-0.915,-0.061,0.671,358.297
119278,142452,9298,-0.094,1.022,0.101,-0.915,-0.061,0.671,358.301
119278,142487,10833,-0.092,1.022,0.099,-1.341,-0.244,0.793,358.307
119269,142452,9298,-0.092,1.022,0.099,-1.341,-0.244,0.793,358.311
119269,142486,10850,-0.086,1.018,0.107,-1.22,-0.122,0.793,358.317
119266,142452,9298,-0.086,1.018,0.107,-1.22,-0.122,0.793,358.321
119266,142509,10831,-0.088,1.013,0.099,0,0.305,0.488,358.327
119279,142452,9298,-0.088,1.013,0.099,0,0.305,0.488,358.331
119279,142488,10840,-0.089,1.023,0.093,0.915,0.915,0.183,358.337
119277,142452,9298,-0.089,1.023,0.093,0.915,0.915,0.183,358.34
119277,142468,10841,-0.092,1.028,0.104,1.402,0.976,0.061,358.347
119265,142452,9298,-0.092,1.028,0.104,1.402,0.976,0.061,358.35
119265,142465,10851,-0.095,1.026,0.093,1.463,0.915,0.061,358.356
119299,142452,9298,-0.095,1.026,0.093,1.463,0.915,0.061,358.36
119299,142487,10822,-0.096,1.024,0.083,0.244,0.915,0,358.366
119261,142452,9298,-0.096,1.024,0.083,0.244,0.915,0,358.37
119261,142459,10838,-0.096,1.019,0.086,-0.366,0.671,0.061,358.376
119293,142452,9298,-0.096,1.019,0.086,-0.366,0.671,0.061,358.38
119293,142468,10826,-0.095,1.018,0.08,-0.183,0.488,0.366,358.386
119271,142452,9298,-0.095,1.018,0.08,-0.183,0.488,0.366,358.39
119271,142500,10829,-0.094,1.022,0.091,-0.915,0.244,0.732,358.396
119262,142452,9298,-0.094,1.022,0.091,-0.915,0.244,0.732,358.4
119262,142465,10835,-0.096,1.019,0.093,-1.159,0.183,0.854,358.406
119263,142452,9298,-0.096,1.019,0.093,-1.159,0.183,0.854,358.41
119263,142473,10834,-0.093,1.019,0.097,-0.732,0.183,0.61,358.416
119265,142452,9298,-0.093,1.019,0.097,-0.732,0.183,0.61,358.42
119265,142450,10832,-0.095,1.022,0.1,0.061,0.122,0.427,358.426
119291,142452,9298,-0.095,1.022,0.1,0.061,0.122,0.427,358.429
119291,142465,10833,-0.091,1.026,0.1,0.366,0.244,0.305,358.436
119270,142452,9298,-0.091,1.026,0.1,0.366,0.244,0.305,358.439
119270,142482,10838,-0.093,1.029,0.093,0.488,0.549,0.244,358.446
119272,142452,9298,-0.093,1.029,0.093,0.488,0.549,0.244,358.449
119272,142470,10834,-0.095,1.026,0.087,0.488,0.549,0.244,358.455
119270,142452,9298,-0.096,1.023,0.082,0.305,0.671,0.122,358.459
119270,142495,10834,-0.097,1.023,0.086,0.305,0.671,0.122,358.465
119255,142452,9298,-0.095,1.022,0.085,-0.549,0.183,0.244,358.469
119255,142468,10821,-0.095,1.021,0.09,-0.549,0.183,0.244,358.475
119223,142452,9298,-0.094,1.021,0.09,-1.037,-0.244,0.305,358.479
119223,142456,10828,-0.094,1.019,0.092,-1.037,-0.244,0.305,358.485
119246,142452,9298,-0.093,1.016,0.097,-1.28,-0.366,0.427,358.489
119246,142439,10820,-0.094,1.016,0.092,-1.28,-0.366,0.427,358.495
119239,142452,9298,-0.094,1.015,0.095,-1.22,-0.122,0.549,358.499
119239,142422,10836,-0.095,1.018,0.093,-1.22,-0.122,0.549,358.505
119239,142452,9298,-0.093,1.016,0.096,-1.037,0.122,0.549,358.509
119239,142414,10836,-0.092,1.019,0.098,-1.037,0.122,0.549,358.515
119245,142452,9298,-0.094,1.022,0.101,-0.366,0.183,0.61,358.519
119245,142431,10836,-0.091,1.023,0.1,-0.366,0.183,0.61,358.525
119243,142452,9298,-0.088,1.024,0.106,0.122,0.061,0.549,358.529
119243,142447,10831,-0.09,1.025,0.105,0.122,0.061,0.549,358.535
119243,142452,9298,-0.091,1.027,0.103,0.488,0.244,0.366,358.538
119243,142441,10835,-0.091,1.023,0.101,0.488,0.244,0.366,358.545
119243,142452,9298,-0.091,1.021,0.094,0.183,0.671,0.366,358.548
119243,142424,10830,-0.091,1.018,0.085,0.183,0.671,0.366,358.554
119256,142452,9298,-0.093,1.016,0.079,-0.244,1.22,0.305,358.558
119256,142433,10833,-0.096,1.019,0.087,-0.244,1.22,0.305,358.564
119232,142452,9298,-0.098,1.023,0.096,-0.366,0.854,0.244,358.568
119232,142459,10837,-0.097,1.027,0.1,-0.366,0.854,0.244,358.574
119244,142452,9298,-0.096,1.027,0.094,0.061,0.244,0.305,358.578
119244,142451,10814,-0.093,1.022,0.087,0.061,0.244,0.305,358.584
119219,142452,9298,-0.092,1.021,0.085,0.305,0.183,0.183,358.588
119219,142460,10825,-0.093,1.024,0.092,0.305,0.183,0.183,358.594
119230,142452,9298,-0.091,1.024,0.099,0.061,0.549,0.305,358.598
119230,142458,10828,-0.091,1.024,0.102,0.061,0.549,0.305,358.604
119261,142452,9298,-0.091,1.022,0.1,-0.122,0.366,0.427,358.608
119261,142480,10835,-0.09,1.018,0.097,-0.122,0.366,0.427,358.614
119262,142452,9298,-0.088,1.014,0.094,0.183,0.366,0.244,358.618
119262,142437,10825,-0.088,1.012,0.093,0.183,0.366,0.244,358.624
119217,142452,9298,-0.091,1.013,0.094,0.488,0.732,0.244,358.628
119217,142439,10814,-0.093,1.019,0.092,0.488,0.732,0.244,358.634
119226,142452,9298,-0.095,1.022,0.094,0.305,0.915,0.366,358.637
119226,142445,10836,-0.097,1.023,0.088,0.305,0.915,0.366,358.644
119242,142452,9298,-0.097,1.021,0.085,0.793,1.098,0.305,358.647
119242,142420,10817,-0.1,1.021,0.081,0.793,1.098,0.305,358.653
119230,142452,9298,-0.101,1.023,0.083,0.549,1.037,0.366,358.657
119230,142470,10824,-0.101,1.027,0.081,0.549,1.037,0.366,358.663
119243,142452,9298,-0.099,1.028,0.08,-0.305,0.427,0.549,358.667
119243,142441,10825,-0.099,1.025,0.086,-0.305,0.427,0.549,358.673
119225,142452,9298,-0.097,1.021,0.088,-0.366,-0.183,0.488,358.677
119225,142461,10815,-0.094,1.022,0.088,-0.366,-0.183,0.488,358.683
119225,142452,9298,-0.092,1.025,0.09,-0.793,-0.549,0.671,358.687
119225,142442,10812,-0.092,1.022,0.103,-0.793,-0.549,0.671,358.693
119234,142452,9298,-0.091,1.02,0.099,-1.098,-0.488,0.671,358.697
119234,142449,10822,-0.089,1.023,0.098,-1.098,-0.488,0.671,358.703
119254,142452,9298,-0.087,1.024,0.1,-0.793,-0.183,0.488,358.707
119254,142462,10820,-0.086,1.023,0.102,-0.793,-0.183,0.488,358.713
119222,142452,9298,-0.09,1.02,0.107,-0.244,0,0.183,358.717
119222,142455,10830,-0.087,1.021,0.104,-0.244,0,0.183,358.723
119223,142452,9298,-0.09,1.019,0.096,0,0.488,0.122,358.726
119223,142408,10827,-0.093,1.019,0.094,0,0.488,0.122,358.733
119241,142452,9298,-0.093,1.017,0.094,0.061,0.976,0.061,358.736
119241,142427,10810,-0.095,1.017,0.099,0.061,0.976,0.061,358.743
119236,142452,9298,-0.099,1.015,0.092,0.732,1.22,-0.061,358.746
119236,142451,10825,-0.098,1.014,0.082,0.732,1.22,-0.061,358.752
119239,142452,9298,-0.099,1.016,0.081,1.098,1.037,0.244,358.756
119239,142440,10813,-0.098,1.018,0.081,1.098,1.037,0.244,358.762
119231,142452,9298,-0.097,1.024,0.089,0.549,0.61,0.488,358.766
119231,142410,10830,-0.098,1.028,0.099,0.549,0.61,0.488,358.772
119246,142452,9298,-0.097,1.032,0.101,-0.305,-0.061,0.61,358.776
119246,142426,10809,-0.093,1.028,0.101,-0.305,-0.061,0.61,358.782
119242,142452,9298,-0.091,1.023,0.094,-1.037,-0.305,0.61,358.786
119242,142470,10827,-0.091,1.019,0.092,-1.037,-0.305,0.61,358.792
119255,142452,9298,-0.09,1.018,0.09,-1.098,0.305,0.61,358.796
119255,142445,10815,-0.09,1.016,0.093,-1.098,0.305,0.61,358.802
119245,142452,9298,-0.092,1.018,0.095,-0.427,0.61,0.427,358.806
119245,142478,10827,-0.093,1.019,0.099,-0.427,0.61,0.427,358.812
119226,142452,9298,-0.094,1.024,0.1,0.366,0.671,0.244,358.816
119226,142449,10826,-0.09,1.025,0.099,0.366,0.671,0.244,358.822
119257,142452,9298,-0.092,1.025,0.101,1.037,0.732,0.183,358.826
119257,142458,10830,-0.091,1.024,0.095,1.037,0.732,0.183,358.832
119260,142452,9298,-0.092,1.021,0.089,1.037,0.793,0.183,358.835
119260,142454,10829,-0.091,1.021,0.09,1.037,0.793,0.183,358.842
119243,142452,9298,-0.093,1.022,0.09,0.366,1.037,0.061,358.845
119243,142427,10815,-0.097,1.02,0.092,0.366,1.037,0.061,358.851
119228,142452,9298,-0.097,1.02,0.09,-0.183,1.037,0.122,358.855
119228,142460,10829,-0.099,1.021,0.084,-0.183,1.037,0.122,358.861
119253,142452,9298,-0.099,1.019,0.082,0.122,0.793,0.244,358.865
119253,142472,10821,-0.097,1.023,0.08,0.122,0.793,0.244,358.871
119241,142452,9298,-0.095,1.026,0.09,-0.305,0.305,0.244,358.875
119241,142476,10832,-0.095,1.022,0.096,-0.305,0.305,0.244,358.881
119225,142452,9298,-0.095,1.023,0.097,-0.854,-0.122,0.549,358.885
119225,142473,10828,-0.095,1.02,0.093,-0.854,-0.122,0.549,358.891
119258,142452,9298,-0.095,1.02,0.093,-0.854,-0.122,0.549,358.895
119258,142425,10816,-0.088,1.02,0.093,-1.159,-0.244,0.732,358.901
119245,142452,9298,-0.088,1.02,0.093,-1.159,-0.244,0.732,358.905
119245,142475,10827,-0.092,1.021,0.1,-1.037,-0.122,0.61,358.911
119242,142452,9298,-0.092,1.021,0.1,-1.037,-0.122,0.61,358.915
119242,142458,10838,-0.09,1.028,0.092,0,0.244,0.549,358.921
119247,142452,9298,-0.09,1.028,0.092,0,0.244,0.549,358.924
119247,142453,10829,-0.088,1.029,0.089,0.732,0.671,0.061,358.931
119261,142452,9298,-0.088,1.029,0.089,0.732,0.671,0.061,358.934
119261,142471,10825,-0.097,1.022,0.087,0.488,1.22,-0.244,358.941
119265,142452,9298,-0.097,1.022,0.087,0.488,1.22,-0.244,358.944
119265,142476,10825,-0.103,1.018,0.091,-0.427,1.341,0.061,358.95
119287,142452,9298,-0.103,1.018,0.091,-0.427,1.341,0.061,358.954
119287,142486,10824,-0.1,1.012,0.086,-1.22,0.976,0.305,358.96
119304,142452,9298,-0.1,1.012,0.086,-1.22,0.976,0.305,358.964
119304,142499,10842,-0.096,1.017,0.089,-0.976,0.366,0.366,358.97
119285,142452,9298,-0.096,1.017,0.089,-0.976,0.366,0.366,358.974
119285,142474,10829,-0.096,1.023,0.101,-0.427,-0.061,0.427,358.98
119280,142452,9298,-0.096,1.023,0.101,-0.427,-0.061,0.427,358.984
119280,142475,10819,-0.09,1.02,0.097,0.244,-0.183,0.732,358.99
119259,142452,9298,-0.09,1.02,0.097,0.244,-0.183,0.732,358.994
119259,142468,10838,-0.09,1.02,0.092,0,-0.061,0.732,359
119261,142452,9298,-0.09,1.02,0.092,0,-0.061,0.732,359.004
119261,142486,10817,-0.093,1.023,0.1,-0.488,0.366,0.549,359.01
119238,142452,9298,-0.093,1.023,0.1,-0.488,0.366,0.549,359.014
119238,142475,10834,-0.09,1.024,0.09,-0.061,0.427,0.549,359.02
119264,142452,9298,-0.09,1.024,0.09,-0.061,0.427,0.549,359.023
119264,142471,10825,-0.094,1.024,0.089,-0.122,0.488,0.305,359.03
119271,142452,9298,-0.094,1.024,0.089,-0.122,0.488,0.305,359.033
119271,142509,10826,-0.094,1.027,0.089,-0.549,0.549,0.244,359.04
119253,142452,9298,-0.096,1.024,0.09,-0.549,0.549,0.244,359.043
119253,142481,10823,-0.097,1.02,0.09,-0.732,0.793,0.488,359.049
119255,142452,9298,-0.094,1.017,0.082,-0.732,0.793,0.488,359.053
119255,142467,10808,-0.095,1.019,0.082,-0.915,0.488,0.305,359.059
119268,142452,9298,-0.095,1.021,0.085,-0.915,0.488,0.305,359.063
119268,142468,10832,-0.096,1.023,0.089,-0.488,0.122,0.183,359.069
119276,142452,9298,-0.099,1.023,0.099,-0.488,0.122,0.183,359.073
119276,142462,10828,-0.096,1.024,0.1,0.061,0.183,0.366,359.079
119245,142452,9298,-0.095,1.026,0.096,0.061,0.183,0.366,359.083
119245,142476,10831,-0.092,1.023,0.096,0,0.183,0.244,359.089
119263,142452,9298,-0.089,1.021,0.099,0,0.183,0.244,359.093
119263,142456,10811,-0.09,1.017,0.1,-0.244,0.244,0.244,359.099
119248,142452,9298,-0.087,1.015,0.102,-0.244,0.244,0.244,359.103
119248,142474,10825,-0.091,1.013,0.107,-0.305,0.427,0.366,359.109
119249,142452,9298,-0.091,1.016,0.103,-0.305,0.427,0.366,359.113
119249,142454,10828,-0.09,1.013,0.096,-0.061,0.61,0.244,359.119
119254,142452,9298,-0.088,1.009,0.091,-0.061,0.61,0.244,359.122
119254,142448,10818,-0.094,1.011,0.094,0.671,0.976,0.061,359.129
119249,142452,9298,-0.096,1.018,0.092,0.671,0.976,0.061,359.132
119249,142446,10829,-0.097,1.022,0.092,0.976,1.098,0.244,359.139
119243,142452,9298,-0.098,1.024,0.088,0.976,1.098,0.244,359.142
119243,142480,10821,-0.1,1.031,0.087,1.098,0.976,0.427,359.148
119256,142452,9298,-0.098,1.032,0.088,1.098,0.976,0.427,359.152
119256,142437,10814,-0.094,1.029,0.085,0.732,0.61,0.427,359.158
119248,142452,9298,-0.092,1.029,0.085,0.732,0.61,0.427,359.162
119248,142458,10818,-0.094,1.026,0.085,-0.366,0.366,0.488,359.168
119245,142452,9298,-0.094,1.024,0.086,-0.366,0.366,0.488,359.172
119245,142488,10828,-0.092,1.025,0.091,-1.28,0.122,0.488,359.178
119224,142452,9298,-0.094,1.022,0.089,-1.28,0.122,0.488,359.182
119224,142478,10830,-0.092,1.02,0.09,-1.098,0.244,0.488,359.188
119235,142452,9298,-0.094,1.021,0.092,-1.098,0.244,0.488,359.192
119235,142469,10815,-0.096,1.022,0.098,-0.854,0.366,0.427,359.198
119220,142452,9298,-0.095,1.025,0.102,-0.854,0.366,0.427,359.202
119220,142438,10840,-0.092,1.022,0.102,-0.61,0.122,0.305,359.208
119234,142452,9298,-0.093,1.019,0.094,-0.61,0.122,0.305,359.212
119234,142440,10820,-0.089,1.017,0.092,0,0.061,0.122,359.218
