129485,135390,13173,0.012,-0.933,-0.242,0.122,0.427,0.488,5.074
129495,135290,43087,0.012,-0.934,-0.245,0.122,0.427,0.488,5.078
129495,135378,13166,0.014,-0.93,-0.24,0.244,0.488,0.305,5.084
129492,135290,43087,0.015,-0.929,-0.241,0.244,0.488,0.305,5.088
129492,135399,13171,0.017,-0.93,-0.237,-0.061,0.366,0.122,5.094
129485,135290,43087,0.016,-0.929,-0.239,-0.061,0.366,0.122,5.097
129485,135387,13178,0.015,-0.931,-0.243,-0.549,0.366,0,5.104
129521,135290,43087,0.015,-0.934,-0.241,-0.549,0.366,0,5.107
129521,135400,13163,0.017,-0.935,-0.247,-0.671,0.366,0.061,5.114
129497,135290,43087,0.016,-0.935,-0.247,-0.671,0.366,0.061,5.117
129497,135384,13175,0.016,-0.936,-0.248,-0.549,0.305,0.061,5.123
129515,135290,43087,0.018,-0.932,-0.246,-0.549,0.305,0.061,5.127
129515,135397,13159,0.02,-0.932,-0.244,-0.244,0.427,0.183,5.133
129499,135290,43087,0.017,-0.931,-0.24,-0.244,0.427,0.183,5.137
129499,135385,13171,0.016,-0.93,-0.243,-0.183,0.549,0.366,5.143
129506,135290,43087,0.016,-0.933,-0.246,-0.183,0.549,0.366,5.147
129506,135395,13171,0.017,-0.932,-0.248,-0.244,0.488,0.305,5.153
129510,135290,43087,0.015,-0.933,-0.246,-0.244,0.488,0.305,5.157
129510,135399,13166,0.013,-0.932,-0.245,-0.488,0.488,0.183,5.163
129517,135290,43087,0.017,-0.934,-0.247,-0.488,0.488,0.183,5.167
129517,135390,13180,0.016,-0.935,-0.249,-0.305,0.366,0.122,5.173
129506,135290,43087,0.016,-0.935,-0.249,-0.305,0.366,0.122,5.177
129506,135416,13183,0.017,-0.934,-0.247,0.122,0.427,0.305,5.183
129511,135290,43087,0.017,-0.934,-0.247,0.122,0.427,0.305,5.187
129511,135394,13176,0.016,-0.93,-0.246,0.183,0.366,0.366,5.193
129504,135290,43087,0.016,-0.93,-0.246,0.183,0.366,0.366,5.196
129504,135401,13198,0.015,-0.934,-0.244,0.183,0.366,0.183,5.203
129497,135290,43087,0.015,-0.934,-0.244,0.183,0.366,0.183,5.206
129497,135408,13175,0.015,-0.931,-0.238,0.305,0.427,0.305,5.213
129506,135290,43087,0.015,-0.931,-0.238,0.305,0.427,0.305,5.216
129506,135388,13185,0.013,-0.934,-0.241,0,0.305,0.488,5.222
129503,135290,43087,0.013,-0.934,-0.241,0,0.305,0.488,5.226
129503,135390,13180,0.017,-0.932,-0.244,-0.244,0.366,0.488,5.232
129500,135290,43087,0.017,-0.932,-0.244,-0.244,0.366,0.488,5.236
129500,135398,13170,0.014,-0.937,-0.243,-0.122,0.427,0.488,5.242
129528,135290,43087,0.014,-0.937,-0.243,-0.122,0.427,0.488,5.246
129528,135406,13173,0.013,-0.931,-0.237,0,0.366,0.549,5.252
129529,135290,43087,0.013,-0.931,-0.237,0,0.366,0.549,5.256
129529,135407,13188,0.014,-0.93,-0.24,-0.366,0.305,0.61,5.262
129548,135290,43087,0.014,-0.93,-0.24,-0.366,0.305,0.61,5.266
129548,135422,13175,0.011,-0.932,-0.243,-0.488,0.366,0.488,5.272
129559,135546,43087,0.011,-0.932,-0.243,-0.488,0.366,0.488,5.276
129559,135427,13186,0.011,-0.928,-0.242,-0.183,0.488,0.427,5.282
129565,135546,43087,0.011,-0.928,-0.242,-0.183,0.488,0.427,5.286
129565,135443,13194,0.009,-0.932,-0.242,-0.366,0.549,0.366,5.292
129539,135546,43087,0.009,-0.932,-0.242,-0.366,0.549,0.366,5.295
129539,135436,13185,0.013,-0.935,-0.248,-0.549,0.366,0,5.302
129572,135546,43087,0.013,-0.935,-0.248,-0.549,0.366,0,5.305
129572,135451,13177,0.013,-0.932,-0.245,-0.244,0.427,-0.183,5.311
129562,135546,43087,0.013,-0.932,-0.245,-0.244,0.427,-0.183,5.315
129562,135451,13174,0.011,-0.932,-0.246,-0.244,0.427,-0.183,5.321
129576,135290,43087,0.016,-0.932,-0.246,-0.244,0.427,-0.305,5.325
129576,135417,13207,0.017,-0.934,-0.244,-0.244,0.427,-0.305,5.331
129590,135546,43087,0.016,-0.934,-0.243,-0.427,0.427,-0.427,5.335
129590,135437,13181,0.015,-0.933,-0.242,-0.427,0.427,-0.427,5.341
129579,135546,43087,0.017,-0.93,-0.243,-0.305,0.305,-0.366,5.345
129579,135435,13190,0.015,-0.933,-0.242,-0.305,0.305,-0.366,5.351
129582,135546,43087,0.017,-0.933,-0.243,-0.244,0.305,-0.366,5.355
129582,135459,13202,0.018,-0.933,-0.242,-0.244,0.305,-0.366,5.361
129594,135546,43087,0.016,-0.934,-0.24,0.061,0.366,-0.122,5.365
129594,135439,13185,0.016,-0.93,-0.244,0.061,0.366,-0.122,5.371
129560,135546,43087,0.018,-0.93,-0.246,-0.061,0.366,0,5.375
129560,135443,13184,0.016,-0.934,-0.245,-0.061,0.366,0,5.381
129541,135290,43087,0.015,-0.934,-0.245,-0.061,0.244,0.244,5.385
129541,135423,13186,0.016,-0.932,-0.241,-0.061,0.244,0.244,5.391
129557,135546,43087,0.015,-0.93,-0.241,-0.122,0.366,0.244,5.394
129557,135442,13171,0.018,-0.931,-0.24,-0.122,0.366,0.244,5.401
129551,135290,43087,0.016,-0.932,-0.241,-0.183,0.366,0.366,5.404
129551,135408,13173,0.015,-0.932,-0.244,-0.183,0.366,0.366,5.41
129547,135290,43087,0.013,-0.933,-0.244,-0.183,0.427,0.305,5.414
129547,135397,13188,0.015,-0.933,-0.245,-0.183,0.427,0.305,5.42
129554,135290,43087,0.015,-0.93,-0.244,-0.122,0.427,0.305,5.424
129554,135399,13206,0.014,-0.932,-0.247,-0.122,0.427,0.305,5.43
129530,135546,43087,0.016,-0.932,-0.242,0,0.244,0.244,5.434
129530,135425,13161,0.016,-0.929,-0.242,0,0.244,0.244,5.44
129506,135290,43087,0.013,-0.93,-0.244,-0.305,0.244,0.183,5.444
129506,135412,13186,0.015,-0.933,-0.248,-0.305,0.244,0.183,5.45
129556,135290,43087,0.015,-0.934,-0.246,-0.427,0.305,0.244,5.454
129556,135417,13178,0.015,-0.934,-0.244,-0.427,0.305,0.244,5.46
129533,135290,43087,0.016,-0.934,-0.244,0,0.366,0.305,5.464
129533,135407,13196,0.017,-0.933,-0.244,0,0.366,0.305,5.47
129539,135546,43087,0.017,-0.93,-0.244,0.183,0.366,0.366,5.474
129539,135435,13173,0.017,-0.931,-0.241,0.183,0.366,0.366,5.48
129546,135546,43087,0.017,-0.932,-0.243,0.122,0.427,0.549,5.484
129546,135448,13195,0.017,-0.933,-0.239,0.122,0.427,0.549,5.49
129565,135290,43087,0.019,-0.932,-0.241,0.061,0.488,0.549,5.493
129565,135418,13188,0.016,-0.931,-0.247,0.061,0.488,0.549,5.5
129573,135546,43087,0.015,-0.932,-0.245,0.061,0.366,0.793,5.503
129573,135464,13196,0.018,-0.932,-0.244,0.061,0.366,0.793,5.509
129567,135546,43087,0.018,-0.933,-0.244,0.122,0.488,0.732,5.513
129567,135434,13199,0.018,-0.933,-0.241,0.122,0.488,0.732,5.519
129567,135546,43087,0.017,-0.932,-0.238,0.122,0.488,0.793,5.523
129567,135454,13185,0.013,-0.928,-0.239,0.122,0.488,0.793,5.529
129566,135546,43087,0.016,-0.932,-0.239,-0.305,0.427,0.915,5.533
129566,135426,13192,0.013,-0.935,-0.243,-0.305,0.427,0.915,5.539
129568,135546,43087,0.014,-0.93,-0.246,-0.549,0.427,0.915,5.543
129568,135451,13199,0.014,-0.928,-0.244,-0.549,0.427,0.915,5.549
129553,135546,43087,0.015,-0.932,-0.245,-0.488,0.305,0.732,5.553
129553,135441,13181,0.015,-0.931,-0.246,-0.488,0.305,0.732,5.559
129553,135546,43087,0.016,-0.932,-0.245,-0.427,0.366,0.61,5.563
129553,135426,13206,0.015,-0.936,-0.244,-0.427,0.366,0.61,5.569
129562,135546,43087,0.011,-0.933,-0.244,-0.244,0.366,0.488,5.573
129562,135442,13180,0.011,-0.932,-0.244,-0.244,0.366,0.488,5.579
129551,135546,43087,0.013,-0.931,-0.244,-0.122,0.427,0.366,5.582
129551,135424,13197,0.011,-0.933,-0.242,-0.122,0.427,0.366,5.589
129547,135546,43087,0.016,-0.933,-0.243,0.061,0.427,0.305,5.592
129547,135438,13196,0.015,-0.932,-0.241,0.061,0.427,0.305,5.599
129561,135546,43087,0.014,-0.931,-0.245,0.122,0.366,0.122,5.602
129561,135450,13187,0.014,-0.934,-0.243,0.122,0.366,0.122,5.608
129542,135290,43087,0.016,-0.936,-0.244,-0.183,0.366,0.122,5.612
129542,135413,13182,0.013,-0.934,-0.247,-0.183,0.366,0.122,5.618
129541,135546,43087,0.014,-0.932,-0.244,0.061,0.366,0.244,5.622
129541,135451,13175,0.014,-0.93,-0.243,0.061,0.366,0.244,5.628
129533,135546,43087,0.017,-0.931,-0.241,0,0.305,0.244,5.632
129533,135438,13187,0.015,-0.931,-0.242,0,0.305,0.244,5.638
129550,135546,43087,0.012,-0.931,-0.244,-0.061,0.244,0.427,5.642
129550,135450,13174,0.013,-0.932,-0.241,-0.061,0.244,0.427,5.648
129544,135546,43087,0.015,-0.934,-0.237,0,0.366,0.488,5.652
129544,135446,13180,0.014,-0.933,-0.239,0,0.366,0.488,5.658
129521,135546,43087,0.013,-0.933,-0.244,-0.305,0.244,0.305,5.662
129521,135460,13171,0.013,-0.934,-0.243,-0.305,0.244,0.305,5.668
129539,135546,43087,0.014,-0.933,-0.24,-0.549,0.305,0.305,5.672
129539,135445,13183,0.013,-0.933,-0.243,-0.549,0.305,0.305,5.678
129530,135546,43087,0.014,-0.933,-0.245,-0.427,0.366,0.305,5.681
129530,135427,13189,0.014,-0.936,-0.247,-0.427,0.366,0.305,5.688
129549,135546,43087,0.016,-0.936,-0.243,-0.244,0.366,0.366,5.691
129549,135440,13176,0.016,-0.93,-0.241,-0.244,0.366,0.366,5.698
129540,135546,43087,0.015,-0.93,-0.239,-0.122,0.427,0.366,5.701
129540,135461,13177,0.015,-0.933,-0.239,-0.122,0.427,0.366,5.707
129554,135546,43087,0.013,-0.934,-0.241,-0.305,0.366,0.305,5.711
129554,135443,13180,0.017,-0.933,-0.247,-0.305,0.366,0.305,5.717
129550,135546,43087,0.017,-0.931,-0.244,-0.427,0.427,0.244,5.721
129550,135463,13180,0.016,-0.934,-0.245,-0.427,0.427,0.244,5.727
129533,135546,43087,0.013,-0.935,-0.245,-0.366,0.488,0.244,5.731
129533,135467,13183,0.015,-0.933,-0.241,-0.366,0.488,0.244,5.737
129543,135546,43087,0.014,-0.931,-0.24,-0.244,0.366,0.183,5.741
129543,135458,13185,0.017,-0.93,-0.242,-0.244,0.366,0.183,5.747
129557,135546,43087,0.017,-0.93,-0.242,-0.244,0.366,0.183,5.751
129557,135461,13187,0.015,-0.934,-0.246,-0.183,0.488,0.061,5.757
129549,135546,43087,0.015,-0.934,-0.246,-0.183,0.488,0.061,5.761
129549,135488,13195,0.013,-0.932,-0.248,-0.183,0.549,-0.183,5.767
129590,135546,43087,0.013,-0.932,-0.248,-0.183,0.549,-0.183,5.771
129590,135492,13182,0.016,-0.932,-0.244,0.183,0.488,-0.244,5.777
129575,135546,43087,0.016,-0.932,-0.244,0.183,0.488,-0.244,5.78
129575,135495,13183,0.018,-0.93,-0.241,0.305,0.488,-0.244,5.787
129597,135546,43087,0.018,-0.93,-0.241,0.305,0.488,-0.244,5.79
129597,135506,13187,0.016,-0.931,-0.24,0.305,0.488,-0.122,5.796
129572,135546,43087,0.016,-0.931,-0.24,0.305,0.488,-0.122,5.8
129572,135520,13199,0.017,-0.933,-0.241,-0.122,0.427,0,5.806
129592,135546,43087,0.017,-0.933,-0.241,-0.122,0.427,0,5.81
129592,135493,13202,0.016,-0.933,-0.242,-0.488,0.366,0,5.816
129575,135546,43087,0.016,-0.933,-0.242,-0.488,0.366,0,5.82
129575,135486,13172,0.016,-0.931,-0.239,-0.549,0.366,0.122,5.826
129582,135546,43087,0.016,-0.931,-0.239,-0.549,0.366,0.122,5.83
129582,135506,13193,0.016,-0.934,-0.247,-0.61,0.305,0.305,5.836
129585,135546,43087,0.016,-0.934,-0.247,-0.61,0.305,0.305,5.84
129585,135518,13196,0.018,-0.934,-0.247,-0.732,0.244,0.427,5.846
129617,135546,43087,0.018,-0.934,-0.247,-0.732,0.244,0.427,5.85
129617,135499,13196,0.016,-0.934,-0.252,-0.549,0.244,0.488,5.856
129603,135546,43087,0.016,-0.934,-0.252,-0.549,0.244,0.488,5.86
129603,135500,13195,0.016,-0.93,-0.237,-0.061,0.427,0.61,5.866
129618,135546,43087,0.016,-0.93,-0.237,-0.061,0.427,0.61,5.87
129618,135523,13190,0.014,-0.933,-0.245,-0.061,0.366,0.61,5.876
129592,135546,43087,0.014,-0.933,-0.245,-0.061,0.366,0.61,5.879
129592,135514,13192,0.014,-0.936,-0.247,-0.366,0.427,0.671,5.886
129623,135546,43087,0.014,-0.936,-0.247,-0.366,0.427,0.671,5.889
129623,135510,13186,0.018,-0.934,-0.247,-0.061,0.305,0.549,5.895
129595,135546,43087,0.015,-0.931,-0.246,-0.061,0.305,0.549,5.899
129595,135514,13180,0.012,-0.93,-0.24,0.244,0.488,0.549,5.905
129602,135546,43087,0.013,-0.93,-0.24,0.244,0.488,0.549,5.909
129602,135517,13201,0.015,-0.931,-0.238,0.61,0.427,0.549,5.915
129620,135546,43087,0.012,-0.932,-0.239,0.61,0.427,0.549,5.919
129620,135486,13196,0.014,-0.931,-0.241,0.61,0.427,0.488,5.925
129612,135546,43087,0.017,-0.931,-0.241,0.61,0.427,0.488,5.929
129612,135509,13200,0.016,-0.93,-0.244,0.488,0.366,0.183,5.935
129586,135546,43087,0.015,-0.934,-0.244,0.488,0.366,0.183,5.939
129586,135522,13185,0.017,-0.934,-0.241,-0.122,0.427,0.061,5.945
129597,135546,43087,0.02,-0.933,-0.241,-0.122,0.427,0.061,5.949
129597,135505,13195,0.016,-0.935,-0.241,-0.488,0.366,0.061,5.955
129582,135546,43087,0.018,-0.932,-0.244,-0.488,0.366,0.061,5.959
129582,135487,13181,0.018,-0.929,-0.242,-0.732,0.427,0.244,5.965
129583,135546,43087,0.017,-0.932,-0.243,-0.732,0.427,0.244,5.968
129583,135496,13194,0.02,-0.933,-0.244,-0.61,0.366,0.427,5.975
129588,135546,43087,0.02,-0.934,-0.246,-0.61,0.366,0.427,5.978
129588,135481,13188,0.018,-0.931,-0.244,-0.488,0.427,0.61,5.985
129582,135546,43087,0.016,-0.931,-0.246,-0.488,0.427,0.61,5.988
129582,135509,13202,0.015,-0.934,-0.248,-0.671,0.488,0.61,5.994
129580,135546,43087,0.016,-0.935,-0.246,-0.671,0.488,0.61,5.998
129580,135491,13182,0.015,-0.934,-0.248,-0.732,0.488,0.427,6.004
129575,135546,43087,0.019,-0.931,-0.251,-0.732,0.488,0.427,6.008
129575,135499,13202,0.015,-0.932,-0.249,-0.488,0.366,0.305,6.014
129579,135546,43087,0.012,-0.931,-0.25,-0.488,0.366,0.305,6.018
129579,135507,13205,0.016,-0.933,-0.248,0,0.366,0.366,6.024
129583,135546,43087,0.017,-0.933,-0.245,0,0.366,0.366,6.028
129583,135490,13188,0.018,-0.932,-0.243,0.488,0.305,0.305,6.034
129549,135546,43087,0.016,-0.931,-0.24,0.488,0.305,0.305,6.038
129549,135462,13193,0.014,-0.933,-0.238,0.427,0.305,0.366,6.044
129593,135546,43087,0.016,-0.933,-0.241,0.427,0.305,0.366,6.048
129593,135492,13179,0.015,-0.933,-0.243,0.305,0.305,0.427,6.054
129603,135546,43087,0.013,-0.936,-0.243,0.305,0.305,0.427,6.058
129603,135497,13194,0.014,-0.934,-0.244,0.549,0.305,0.427,6.064
129587,135546,43087,0.015,-0.932,-0.24,0.549,0.305,0.427,6.067
129587,135509,13195,0.015,-0.928,-0.24,0.244,0.305,0.366,6.074
129599,135546,43087,0.015,-0.931,-0.24,0.244,0.305,0.366,6.077
129599,135509,13199,0.014,-0.932,-0.24,-0.183,0.244,0.427,6.084
129603,135546,43087,0.013,-0.932,-0.24,-0.183,0.244,0.427,6.087
129603,135486,13205,0.013,-0.934,-0.239,-0.244,0.305,0.427,6.093
129609,135546,43087,0.012,-0.932,-0.237,-0.244,0.305,0.427,6.097
129609,135507,13193,0.014,-0.931,-0.244,-0.549,0.366,0.366,6.103
129571,135546,43087,0.013,-0.932,-0.246,-0.549,0.366,0.366,6.107
129571,135484,13198,0.011,-0.934,-0.244,-0.854,0.244,0.488,6.113
129600,135546,43087,0.011,-0.931,-0.242,-0.854,0.244,0.488,6.117
129600,135492,13188,0.013,-0.931,-0.246,-0.671,0.305,0.366,6.123
129575,135546,43087,0.012,-0.934,-0.245,-0.671,0.305,0.366,6.127
129575,135483,13184,0.012,-0.935,-0.244,-0.366,0.427,0.122,6.133
129566,135546,43087,0.014,-0.934,-0.244,-0.366,0.427,0.122,6.137
129566,135491,13201,0.014,-0.932,-0.245,-0.244,0.427,0.061,6.143
129552,135546,43087,0.015,-0.932,-0.242,-0.244,0.427,0.061,6.147
129552,135477,13202,0.014,-0.932,-0.246,-0.305,0.427,-0.183,6.153
129598,135546,43087,0.014,-0.936,-0.244,-0.305,0.427,-0.183,6.157
129598,135519,13193,0.015,-0.937,-0.244,-0.244,0.488,-0.427,6.163
129580,135546,43087,0.015,-0.934,-0.241,-0.244,0.488,-0.427,6.166
129580,135513,13185,0.014,-0.932,-0.241,-0.244,0.488,-0.427,6.173
129599,135546,43087,0.017,-0.93,-0.245,-0.244,0.488,-0.427,6.176
129599,135507,13197,0.015,-0.933,-0.247,-0.488,0.488,-0.244,6.183
129602,135546,43087,0.018,-0.934,-0.243,-0.488,0.488,-0.244,6.186
129602,135510,13196,0.018,-0.935,-0.239,-0.366,0.366,-0.244,6.192
129637,135546,43087,0.018,-0.93,-0.24,-0.366,0.366,-0.244,6.196
129637,135525,13209,0.02,-0.923,-0.244,-0.427,0.366,-0.183,6.202
129624,135546,43087,0.019,-0.931,-0.245,-0.427,0.366,-0.183,6.206
129624,135562,13204,0.019,-0.937,-0.244,-0.244,0.305,0,6.212
129628,135546,43087,0.018,-0.938,-0.246,-0.244,0.305,0,6.216
129628,135526,13221,0.018,-0.929,-0.242,0.122,0.366,0.122,6.222
129644,135546,43087,0.017,-0.928,-0.24,0.122,0.366,0.122,6.226
129644,135562,13192,0.018,-0.929,-0.244,-0.305,0.427,0.427,6.232
129612,135546,43087,0.02,-0.932,-0.251,-0.305,0.427,0.427,6.236
129612,135515,13212,0.022,-0.936,-0.245,-0.305,0.366,0.427,6.242
129630,135546,43087,0.019,-0.938,-0.245,-0.305,0.366,0.427,6.246
129630,135538,13201,0.016,-0.933,-0.24,0.244,0.366,0.488,6.252
129603,135546,43087,0.018,-0.929,-0.236,0.244,0.366,0.488,6.256
129603,135513,13204,0.02,-0.93,-0.239,-0.244,0.244,0.488,6.262
129594,135546,43087,0.017,-0.932,-0.242,-0.244,0.244,0.488,6.265
129594,135489,13206,0.019,-0.935,-0.245,-0.915,0.122,0.427,6.272
129575,135546,43087,0.019,-0.934,-0.243,-0.915,0.122,0.427,6.275
129575,135512,13198,0.019,-0.933,-0.246,-0.732,0.244,0.488,6.281
129581,135546,43087,0.016,-0.934,-0.246,-0.732,0.244,0.488,6.285
129581,135499,13198,0.016,-0.93,-0.242,-0.61,0.305,0.549,6.291
129561,135546,43087,0.017,-0.931,-0.246,-0.61,0.305,0.549,6.295
129561,135468,13193,0.018,-0.936,-0.244,-0.488,0.305,0.732,6.301
129571,135546,43087,0.017,-0.932,-0.242,-0.488,0.305,0.732,6.305
129571,135463,13206,0.014,-0.931,-0.241,-0.122,0.427,0.793,6.311
129585,135546,43087,0.017,-0.933,-0.245,-0.122,0.427,0.793,6.315
129585,135500,13192,0.015,-0.933,-0.244,-0.122,0.366,0.976,6.321
129580,135546,43087,0.015,-0.933,-0.244,-0.122,0.366,0.976,6.325
129580,135505,13188,0.015,-0.933,-0.244,-0.366,0.305,0.915,6.331
129601,135546,43087,0.015,-0.933,-0.244,-0.366,0.305,0.915,6.335
129601,135492,13218,0.017,-0.935,-0.247,-0.305,0.366,0.915,6.341
129580,135546,43087,0.017,-0.935,-0.247,-0.305,0.366,0.915,6.345
129580,135529,13213,0.016,-0.934,-0.242,0.061,0.366,0.915,6.351
129627,135546,43087,0.016,-0.934,-0.242,0.061,0.366,0.915,6.355
129627,135523,13197,0.017,-0.934,-0.242,-0.061,0.366,0.915,6.361
129604,135546,43087,0.017,-0.934,-0.242,-0.061,0.366,0.915,6.364
129604,135497,13192,0.017,-0.931,-0.244,-0.427,0.366,0.915,6.371
129601,135546,43087,0.017,-0.931,-0.244,-0.427,0.366,0.915,6.374
129601,135483,13206,0.015,-0.933,-0.243,-0.61,0.366,0.915,6.38
129597,135546,43087,0.015,-0.933,-0.243,-0.61,0.366,0.915,6.384
129597,135518,13184,0.016,-0.934,-0.247,-0.61,0.305,0.854,6.39
129590,135546,43087,0.016,-0.934,-0.247,-0.61,0.305,0.854,6.394
129590,135508,13210,0.015,-0.931,-0.246,-0.305,0.366,0.854,6.4
129565,135546,43087,0.015,-0.931,-0.246,-0.305,0.366,0.854,6.404
129565,135493,13179,0.015,-0.934,-0.241,-0.122,0.427,0.732,6.41
129559,135546,43087,0.015,-0.934,-0.241,-0.122,0.427,0.732,6.414
129559,135495,13209,0.014,-0.933,-0.244,-0.244,0.488,0.61,6.42
129580,135546,43087,0.014,-0.933,-0.244,-0.244,0.488,0.61,6.424
129580,135491,13200,0.015,-0.933,-0.243,-0.549,0.366,0.61,6.43
129558,135546,43087,0.015,-0.933,-0.243,-0.549,0.366,0.61,6.434
129558,135502,13198,0.012,-0.931,-0.24,-0.549,0.305,0.549,6.44
129578,135546,43087,0.012,-0.931,-0.24,-0.549,0.305,0.549,6.444
129578,135496,13191,0.013,-0.932,-0.244,-0.671,0.366,0.671,6.45
129574,135546,43087,0.013,-0.932,-0.244,-0.671,0.366,0.671,6.454
129574,135525,13208,0.016,-0.934,-0.248,-0.793,0.427,0.671,6.46
129587,135546,43087,0.016,-0.934,-0.248,-0.793,0.427,0.671,6.463
129587,135532,13188,0.013,-0.933,-0.247,-0.793,0.427,0.671,6.47
129601,135546,43087,0.014,-0.934,-0.243,-0.366,0.366,0.61,6.473
129601,135505,13192,0.013,-0.93,-0.241,-0.366,0.366,0.61,6.479
129583,135546,43087,0.018,-0.933,-0.246,-0.549,0.366,0.671,6.483
129583,135511,13204,0.018,-0.934,-0.249,-0.549,0.366,0.671,6.489
129589,135546,43087,0.016,-0.935,-0.247,-0.61,0.427,0.671,6.493
129589,135533,13197,0.015,-0.933,-0.247,-0.61,0.427,0.671,6.499
129571,135546,43087,0.016,-0.932,-0.243,-0.183,0.366,0.549,6.503
129571,135529,13200,0.018,-0.933,-0.245,-0.183,0.366,0.549,6.509
129561,135546,43087,0.016,-0.933,-0.246,-0.061,0.366,0.549,6.513
129561,135528,13194,0.014,-0.933,-0.245,-0.061,0.366,0.549,6.519
129590,135546,43087,0.018,-0.934,-0.241,-0.061,0.427,0.549,6.523
129590,135530,13207,0.016,-0.934,-0.243,-0.061,0.427,0.549,6.529
129587,135546,43087,0.014,-0.93,-0.241,-0.122,0.488,0.427,6.533
129587,135544,13188,0.015,-0.93,-0.242,-0.122,0.488,0.427,6.539
129600,135546,43087,0.014,-0.934,-0.243,-0.366,0.305,0.488,6.543
129600,135547,13205,0.013,-0.931,-0.242,-0.366,0.305,0.488,6.549
129597,135546,43087,0.01,-0.93,-0.243,-0.61,0.305,0.488,6.553
129597,135552,13194,0.013,-0.932,-0.245,-0.61,0.305,0.488,6.559
129595,135546,43087,0.017,-0.934,-0.244,-0.793,0.427,0.488,6.562
129595,135535,13202,0.014,-0.933,-0.243,-0.793,0.427,0.488,6.569
129593,135546,43087,0.014,-0.931,-0.242,-0.61,0.366,0.488,6.572
129593,135542,13193,0.012,-0.93,-0.245,-0.61,0.366,0.488,6.578
129581,135546,43087,0.011,-0.931,-0.248,-0.549,0.366,0.366,6.582
129581,135574,13214,0.01,-0.935,-0.245,-0.549,0.366,0.366,6.588
129583,135546,43087,0.013,-0.932,-0.244,-0.305,0.366,0.244,6.592
129583,135540,13191,0.016,-0.931,-0.246,-0.305,0.366,0.244,6.598
129613,135546,43087,0.017,-0.932,-0.246,-0.366,0.366,0.305,6.602
129613,135552,13191,0.015,-0.932,-0.243,-0.366,0.366,0.305,6.608
129593,135546,43087,0.015,-0.934,-0.242,-0.488,0.244,0.183,6.612
129593,135558,13197,0.015,-0.931,-0.249,-0.488,0.244,0.183,6.618
129610,135546,43087,0.016,-0.93,-0.244,-0.732,0.244,0.244,6.622
129610,135592,13199,0.013,-0.933,-0.244,-0.732,0.244,0.244,6.628
129601,135546,43087,0.014,-0.933,-0.245,-0.61,0.244,0.183,6.632
129601,135567,13205,0.015,-0.934,-0.242,-0.61,0.244,0.183,6.638
129591,135546,43087,0.015,-0.932,-0.242,-0.305,0.366,0.122,6.642
129591,135555,13187,0.014,-0.933,-0.248,-0.305,0.366,0.122,6.648
129604,135546,43087,0.016,-0.932,-0.248,-0.305,0.366,0.244,6.651
129604,135553,13194,0.017,-0.935,-0.246,-0.305,0.366,0.244,6.658
129573,135546,43087,0.016,-0.93,-0.245,-0.244,0.366,0.244,6.661
129573,135533,13196,0.017,-0.93,-0.243,-0.244,0.366,0.244,6.668
129592,135546,43087,0.018,-0.93,-0.243,-0.061,0.183,0.366,6.671
129592,135558,13183,0.014,-0.93,-0.243,-0.061,0.183,0.366,6.677
129600,135546,43087,0.014,-0.934,-0.251,-0.366,0.366,0.366,6.681
129600,135542,13199,0.016,-0.933,-0.247,-0.366,0.366,0.366,6.687
129568,135546,43087,0.016,-0.935,-0.246,-0.122,0.427,0.305,6.691
129568,135550,13189,0.015,-0.931,-0.244,-0.122,0.427,0.305,6.697
129565,135546,43087,0.013,-0.933,-0.243,-0.061,0.427,0.366,6.701
129565,135526,13195,0.015,-0.933,-0.244,-0.061,0.427,0.366,6.707
129583,135546,43087,0.015,-0.93,-0.245,-0.549,0.244,0.305,6.711
129583,135554,13192,0.013,-0.932,-0.249,-0.549,0.244,0.305,6.717
129558,135546,43087,0.015,-0.93,-0.243,-0.183,0.366,0.183,6.721
129558,135535,13204,0.015,-0.931,-0.24,-0.183,0.366,0.183,6.727
129561,135546,43087,0.011,-0.929,-0.241,0,0.427,0.244,6.731
129561,135511,13188,0.011,-0.929,-0.244,0,0.427,0.244,6.737
129559,135546,43087,0.017,-0.933,-0.246,-0.305,0.305,0.305,6.741
129559,135516,13200,0.014,-0.937,-0.247,-0.305,0.305,0.305,6.747
129538,135546,43087,0.013,-0.935,-0.247,-0.427,0.366,0.122,6.75
129538,135517,13198,0.018,-0.933,-0.244,-0.427,0.366,0.122,6.757
129535,135546,43087,0.014,-0.931,-0.244,-0.366,0.427,0,6.76
129535,135489,13202,0.016,-0.929,-0.244,-0.366,0.427,0,6.767
129558,135546,43087,0.016,-0.931,-0.246,-0.549,0.427,0.122,6.77
129558,135487,13180,0.019,-0.933,-0.247,-0.549,0.427,0.122,6.776
129533,135546,43087,0.018,-0.932,-0.248,-0.549,0.427,0.183,6.78
129533,135495,13200,0.017,-0.932,-0.246,-0.549,0.427,0.183,6.786
129536,135546,43087,0.015,-0.932,-0.244,-0.183,0.488,0.244,6.79
129536,135529,13192,0.017,-0.929,-0.244,-0.183,0.488,0.244,6.796
129551,135546,43087,0.018,-0.932,-0.245,-0.244,0.549,0.488,6.8
129551,135524,13195,0.02,-0.933,-0.248,-0.244,0.549,0.488,6.806
129562,135546,43087,0.016,-0.935,-0.247,-0.305,0.61,0.488,6.81
129562,135500,13186,0.016,-0.933,-0.247,-0.305,0.61,0.488,6.816
129559,135546,43087,0.019,-0.932,-0.248,-0.427,0.366,0.305,6.82
129559,135517,13197,0.018,-0.934,-0.245,-0.427,0.366,0.305,6.826
129538,135546,43087,0.017,-0.935,-0.249,-0.183,0.427,0.244,6.83
129538,135500,13196,0.017,-0.933,-0.247,-0.183,0.427,0.244,6.836
129533,135546,43087,0.016,-0.933,-0.249,0.061,0.305,0.549,6.84
129533,135470,13184,0.014,-0.932,-0.243,0.061,0.305,0.549,6.846
129507,135546,43087,0.017,-0.932,-0.245,0.366,0.305,0.732,6.849
129507,135479,13194,0.019,-0.93,-0.243,0.366,0.305,0.732,6.856
129514,135546,43087,0.017,-0.93,-0.241,0.488,0.366,0.854,6.859
129514,135457,13193,0.015,-0.931,-0.239,0.488,0.366,0.854,6.866
129530,135546,43087,0.013,-0.931,-0.241,0.488,0.305,0.976,6.869
129530,135481,13177,0.012,-0.931,-0.241,0.488,0.305,0.976,6.875
129506,135546,43087,0.01,-0.935,-0.243,0.122,0.366,1.098,6.879
129506,135498,13187,0.013,-0.933,-0.24,0.122,0.366,1.098,6.885
129507,135546,43087,0.013,-0.936,-0.242,-0.183,0.305,1.22,6.889
129507,135463,13173,0.011,-0.934,-0.242,-0.183,0.305,1.22,6.895
129517,135546,43087,0.012,-0.932,-0.245,-0.549,0.305,1.22,6.899
129517,135454,13198,0.01,-0.931,-0.248,-0.549,0.305,1.22,6.905
129499,135546,43087,0.01,-0.931,-0.248,-0.549,0.305,1.22,6.909
129499,135474,13187,0.012,-0.933,-0.246,-0.488,0.366,1.22,6.915
129496,135546,43087,0.012,-0.933,-0.246,-0.488,0.366,1.22,6.919
129496,135454,13183,0.01,-0.93,-0.243,-0.244,0.366,1.037,6.925
129495,135546,43087,0.01,-0.93,-0.243,-0.244,0.366,1.037,6.929
129495,135463,13195,0.011,-0.931,-0.246,-0.366,0.305,0.854,6.935
129471,135546,43087,0.011,-0.931,-0.246,-0.366,0.305,0.854,6.939
129471,135452,13193,0.01,-0.931,-0.242,-0.366,0.305,0.671,6.945
129495,135546,43087,0.01,-0.931,-0.242,-0.366,0.305,0.671,6.948
129495,135445,13188,0.008,-0.933,-0.248,-0.122,0.427,0.366,6.955
129491,135546,43087,0.008,-0.933,-0.248,-0.122,0.427,0.366,6.958
129491,135433,13186,0.011,-0.933,-0.246,-0.061,0.427,0,6.965
129495,135546,43087,0.011,-0.933,-0.246,-0.061,0.427,0,6.968
129495,135468,13191,0.012,-0.934,-0.243,0.061,0.427,-0.366,6.974
129474,135546,43087,0.012,-0.934,-0.243,0.061,0.427,-0.366,6.978
129474,135450,13182,0.016,-0.931,-0.246,-0.122,0.427,-0.488,6.984
129486,135546,43087,0.016,-0.931,-0.246,-0.122,0.427,-0.488,6.988
129486,135462,13184,0.015,-0.935,-0.239,-0.183,0.366,-0.549,6.994
129500,135546,43087,0.015,-0.935,-0.239,-0.183,0.366,-0.549,6.998
129500,135457,13189,0.015,-0.929,-0.239,-0.061,0.366,-0.549,7.004
129483,135290,43087,0.015,-0.929,-0.239,-0.061,0.366,-0.549,7.008
129483,135416,13193,0.016,-0.933,-0.243,-0.488,0.366,-0.488,7.014
129483,135546,43087,0.016,-0.933,-0.243,-0.488,0.366,-0.488,7.018
129483,135451,13175,0.019,-0.938,-0.247,-1.037,0.244,-0.305,7.024
129472,135546,43087,0.019,-0.938,-0.247,-1.037,0.244,-0.305,7.028
129472,135451,13179,0.017,-0.933,-0.249,-0.732,0.244,-0.244,7.034
129458,135290,43087,0.017,-0.933,-0.249,-0.732,0.244,-0.244,7.038
129458,135403,13200,0.016,-0.93,-0.243,-0.244,0.366,-0.061,7.044
129459,135290,43087,0.016,-0.93,-0.243,-0.244,0.366,-0.061,7.047
129459,135415,13188,0.014,-0.933,-0.245,-0.305,0.366,0.061,7.054
129447,135290,43087,0.016,-0.934,-0.244,-0.305,0.366,0.061,7.057
129447,135411,13182,0.016,-0.933,-0.241,-0.366,0.366,0.061,7.064
129460,135290,43087,0.014,-0.931,-0.244,-0.366,0.366,0.061,7.067
129460,135398,13187,0.016,-0.931,-0.25,0,0.427,0.061,7.073
129443,135290,43087,0.016,-0.934,-0.247,0,0.427,0.061,7.077
129443,135415,13180,0.015,-0.933,-0.25,0.183,0.488,0,7.083
129418,135290,43087,0.017,-0.932,-0.248,0.183,0.488,0,7.087
129418,135388,13197,0.015,-0.93,-0.243,0.427,0.488,-0.061,7.093
129440,135290,43087,0.016,-0.931,-0.242,0.427,0.488,-0.061,7.097
129440,135397,13186,0.017,-0.929,-0.243,0.427,0.488,0.061,7.103
129413,135290,43087,0.016,-0.929,-0.242,0.427,0.488,0.061,7.107
129413,135372,13182,0.016,-0.93,-0.244,0.305,0.427,0.183,7.113
129425,135290,43087,0.015,-0.932,-0.244,0.305,0.427,0.183,7.117
129425,135400,13170,0.018,-0.935,-0.242,0.183,0.427,0.305,7.123
129425,135290,43087,0.017,-0.932,-0.246,0.183,0.427,0.305,7.127
129425,135378,13161,0.016,-0.933,-0.241,0.305,0.427,0.488,7.133
129454,135290,43087,0.015,-0.929,-0.246,0.305,0.427,0.488,7.137
129454,135392,13178,0.016,-0.932,-0.243,0.061,0.427,0.61,7.143
129438,135290,43087,0.018,-0.936,-0.241,0.061,0.427,0.61,7.146
129438,135368,13201,0.017,-0.935,-0.243,0.183,0.488,0.61,7.153
129450,135290,43087,0.016,-0.931,-0.245,0.183,0.488,0.61,7.156
129450,135402,13178,0.016,-0.928,-0.243,0.305,0.488,0.732,7.163
129452,135546,43087,0.018,-0.929,-0.244,0.305,0.488,0.732,7.166
129452,135434,13178,0.015,-0.932,-0.247,0.061,0.488,0.671,7.172
129429,135290,43087,0.014,-0.932,-0.244,0.061,0.488,0.671,7.176
129429,135403,13183,0.014,-0.933,-0.244,-0.244,0.488,0.671,7.182
129434,135290,43087,0.014,-0.932,-0.243,-0.244,0.488,0.671,7.186
129434,135397,13197,0.015,-0.93,-0.244,-0.366,0.427,0.61,7.192
129431,135290,43087,0.015,-0.932,-0.246,-0.366,0.427,0.61,7.196
129431,135359,13179,0.014,-0.93,-0.242,-0.488,0.488,0.549,7.202
129430,135290,43087,0.017,-0.932,-0.245,-0.488,0.488,0.549,7.206
129430,135401,13180,0.017,-0.932,-0.244,-0.488,0.244,0.549,7.212
129410,135290,43087,0.014,-0.934,-0.245,-0.488,0.244,0.549,7.216
129410,135391,13173,0.015,-0.934,-0.248,-0.305,0.427,0.549,7.222
129400,135290,43087,0.015,-0.93,-0.246,-0.305,0.427,0.549,7.226
129400,135410,13180,0.017,-0.93,-0.246,-0.366,0.488,0.549,7.232
129401,135290,43087,0.017,-0.932,-0.248,-0.366,0.488,0.549,7.236
129401,135403,13179,0.014,-0.932,-0.243,-0.549,0.427,0.488,7.242
129405,135290,43087,0.016,-0.93,-0.244,-0.549,0.427,0.488,7.245
129405,135382,13181,0.014,-0.933,-0.241,-0.671,0.427,0.488,7.252
129412,135290,43087,0.016,-0.934,-0.245,-0.671,0.427,0.488,7.255
129412,135389,13165,0.016,-0.932,-0.248,-0.671,0.488,0.549,7.261
129424,135290,43087,0.017,-0.932,-0.249,-0.671,0.488,0.549,7.265
129424,135401,13170,0.014,-0.933,-0.249,-0.366,0.305,0.61,7.271
129396,135290,43087,0.015,-0.932,-0.242,-0.366,0.305,0.61,7.275
129396,135394,13182,0.017,-0.929,-0.241,0.122,0.366,0.671,7.281
129415,135290,43087,0.013,-0.933,-0.244,0.122,0.366,0.671,7.285
129415,135391,13166,0.013,-0.934,-0.243,0,0.366,0.793,7.291
129420,135290,43087,0.012,-0.93,-0.242,0,0.366,0.793,7.295
129420,135379,13173,0.013,-0.933,-0.246,-0.244,0.305,0.549,7.301
129397,135290,43087,0.015,-0.933,-0.248,-0.244,0.305,0.549,7.305
129397,135395,13168,0.015,-0.93,-0.243,-0.122,0.366,0.488,7.311
129417,135290,43087,0.012,-0.93,-0.244,-0.122,0.366,0.488,7.315
129417,135391,13185,0.012,-0.935,-0.242,0.122,0.427,0.549,7.321
129423,135290,43087,0.013,-0.934,-0.241,0.122,0.427,0.549,7.325
129423,135391,13158,0.012,-0.932,-0.245,0.061,0.366,0.61,7.331
129405,135290,43087,0.01,-0.933,-0.246,0.061,0.366,0.61,7.335
129405,135404,13179,0.015,-0.931,-0.244,0.183,0.488,0.549,7.341
129410,135290,43087,0.016,-0.93,-0.242,0.183,0.488,0.549,7.344
129410,135410,13172,0.014,-0.931,-0.24,0.122,0.488,0.366,7.351
129418,135290,43087,0.011,-0.933,-0.241,0.122,0.488,0.366,7.354
129418,135420,13179,0.012,-0.934,-0.243,-0.305,0.427,0.305,7.361
129433,135290,43087,0.015,-0.932,-0.245,-0.305,0.427,0.305,7.364
129433,135401,13167,0.014,-0.934,-0.244,-0.61,0.366,0.244,7.37
129438,135546,43087,0.015,-0.933,-0.244,-0.61,0.366,0.244,7.374
129438,135424,13178,0.016,-0.93,-0.242,-0.366,0.366,0.244,7.38
129446,135546,43087,0.013,-0.931,-0.241,-0.366,0.366,0.244,7.384
129446,135466,13175,0.015,-0.933,-0.243,-0.183,0.366,0.366,7.39
129468,135546,43087,0.012,-0.933,-0.246,-0.183,0.366,0.366,7.394
129468,135428,13172,0.014,-0.932,-0.246,-0.183,0.427,0.305,7.4
129476,135546,43087,0.011,-0.934,-0.246,-0.183,0.427,0.305,7.404
129476,135455,13175,0.013,-0.933,-0.245,-0.244,0.427,0.244,7.41
129485,135546,43087,0.014,-0.933,-0.245,-0.244,0.427,0.244,7.414
129485,135477,13174,0.014,-0.933,-0.246,-0.305,0.427,0.244,7.42
129502,135546,43087,0.014,-0.93,-0.245,-0.305,0.427,0.244,7.424
129502,135489,13196,0.014,-0.93,-0.245,-0.183,0.366,0.183,7.43
129523,135546,43087,0.014,-0.933,-0.246,-0.183,0.366,0.183,7.434
129523,135483,13186,0.014,-0.933,-0.244,0,0.427,0.183,7.44
129525,135546,43087,0.016,-0.93,-0.243,0,0.427,0.183,7.443
129525,135486,13184,0.016,-0.933,-0.24,0.244,0.427,0.244,7.45
129517,135546,43087,0.015,-0.933,-0.242,0.244,0.427,0.244,7.453
129517,135500,13193,0.014,-0.932,-0.246,-0.061,0.366,0.244,7.459
129528,135546,43087,0.014,-0.934,-0.241,-0.061,0.366,0.244,7.463
129528,135510,13173,0.015,-0.933,-0.243,-0.122,0.305,0.244,7.469
129498,135546,43087,0.018,-0.93,-0.245,-0.122,0.305,0.244,7.473
129498,135501,13185,0.016,-0.929,-0.242,0.061,0.427,0.244,7.479
129505,135546,43087,0.014,-0.929,-0.243,0.061,0.427,0.244,7.483
129505,135479,13186,0.016,-0.931,-0.245,-0.305,0.366,0.305,7.489
129493,135546,43087,0.016,-0.931,-0.245,-0.305,0.366,0.305,7.493
129493,135515,13183,0.014,-0.934,-0.249,-0.366,0.366,0.183,7.499
129502,135546,43087,0.014,-0.934,-0.249,-0.366,0.366,0.183,7.503
129502,135486,13185,0.014,-0.931,-0.243,0.366,0.427,0.244,7.509
129515,135546,43087,0.014,-0.931,-0.243,0.366,0.427,0.244,7.513
129515,135477,13193,0.012,-0.927,-0.24,0.366,0.488,0.366,7.519
129508,135546,43087,0.012,-0.927,-0.24,0.366,0.488,0.366,7.523
129508,135492,13198,0.014,-0.931,-0.245,-0.244,0.366,0.305,7.529
129503,135546,43087,0.014,-0.931,-0.245,-0.244,0.366,0.305,7.532
129503,135485,13180,0.014,-0.93,-0.247,-0.183,0.366,0.244,7.539
129496,135546,43087,0.014,-0.93,-0.247,-0.183,0.366,0.244,7.542
129496,135490,13180,0.016,-0.93,-0.241,0,0.427,0.122,7.549
129509,135546,43087,0.016,-0.93,-0.241,0,0.427,0.122,7.552
129509,135479,13197,0.014,-0.933,-0.245,-0.427,0.366,-0.061,7.558
129511,135546,43087,0.014,-0.933,-0.245,-0.427,0.366,-0.061,7.562
129511,135511,13175,0.018,-0.934,-0.241,-0.427,0.366,0,7.568
129508,135546,43087,0.018,-0.934,-0.241,-0.427,0.366,0,7.572
129508,135482,13191,0.016,-0.933,-0.243,-0.183,0.366,0.122,7.578
129510,135546,43087,0.016,-0.933,-0.243,-0.183,0.366,0.122,7.582
129510,135504,13190,0.018,-0.932,-0.243,-0.244,0.488,0.305,7.588
129514,135546,43087,0.018,-0.932,-0.243,-0.244,0.488,0.305,7.592
129514,135490,13187,0.018,-0.934,-0.245,-0.366,0.549,0.366,7.598
129525,135546,43087,0.018,-0.934,-0.245,-0.366,0.549,0.366,7.602
129525,135494,13185,0.014,-0.932,-0.246,-0.244,0.427,0.427,7.608
129517,135546,43087,0.014,-0.932,-0.246,-0.244,0.427,0.427,7.612
129517,135500,13198,0.017,-0.932,-0.245,-0.488,0.366,0.305,7.618
129540,135546,43087,0.017,-0.932,-0.245,-0.488,0.366,0.305,7.622
129540,135490,13195,0.015,-0.934,-0.25,-0.488,0.366,0.305,7.628
129519,135546,43087,0.017,-0.932,-0.251,-0.732,0.366,0.122,7.631
129519,135505,13197,0.012,-0.932,-0.251,-0.732,0.366,0.122,7.638
129539,135546,43087,0.013,-0.932,-0.247,0.122,0.366,0.183,7.641
129539,135500,13185,0.016,-0.933,-0.241,0.122,0.366,0.183,7.648
129508,135546,43087,0.014,-0.93,-0.242,0.671,0.366,0.244,7.651
129508,135496,13199,0.013,-0.932,-0.24,0.671,0.366,0.244,7.657
129527,135546,43087,0.014,-0.931,-0.241,0.549,0.366,0.183,7.661
129527,135508,13191,0.014,-0.933,-0.238,0.549,0.366,0.183,7.667
129515,135546,43087,0.016,-0.934,-0.243,0.427,0.366,0.244,7.671
129515,135481,13189,0.016,-0.936,-0.243,0.427,0.366,0.244,7.677
129516,135546,43087,0.014,-0.934,-0.239,0.427,0.427,0.305,7.681
129516,135499,13186,0.013,-0.931,-0.239,0.427,0.427,0.305,7.687
129520,135546,43087,0.015,-0.926,-0.239,0.061,0.488,0.488,7.691
129520,135497,13183,0.012,-0.929,-0.241,0.061,0.488,0.488,7.697
129525,135546,43087,0.013,-0.935,-0.246,-0.366,0.488,0.488,7.701
129525,135488,13203,0.013,-0.933,-0.239,-0.366,0.488,0.488,7.707
129509,135546,43087,0.013,-0.929,-0.24,-0.305,0.366,0.61,7.711
129509,135483,13184,0.013,-0.929,-0.242,-0.305,0.366,0.61,7.717
129521,135546,43087,0.015,-0.932,-0.243,-0.549,0.427,0.61,7.721
129521,135477,13184,0.011,-0.932,-0.241,-0.549,0.427,0.61,7.727
129499,135546,43087,0.013,-0.935,-0.243,-0.732,0.366,0.549,7.73
129499,135501,13194,0.013,-0.931,-0.244,-0.732,0.366,0.549,7.737
129524,135546,43087,0.012,-0.932,-0.244,-0.671,0.427,0.366,7.74
129524,135508,13189,0.01,-0.93,-0.247,-0.671,0.427,0.366,7.747
129527,135546,43087,0.014,-0.93,-0.246,-0.61,0.488,0.305,7.75
129527,135488,13191,0.012,-0.933,-0.247,-0.61,0.488,0.305,7.756
129533,135546,43087,0.013,-0.934,-0.248,-0.366,0.488,0,7.76
129533,135504,13186,0.014,-0.934,-0.244,-0.366,0.488,0,7.766
129524,135546,43087,0.015,-0.932,-0.245,-0.122,0.61,-0.183,7.77
129524,135496,13203,0.013,-0.933,-0.247,-0.122,0.61,-0.183,7.776
129535,135546,43087,0.014,-0.934,-0.244,-0.183,0.549,-0.366,7.78
129535,135506,13198,0.015,-0.935,-0.24,-0.183,0.549,-0.366,7.786
129534,135546,43087,0.014,-0.932,-0.244,-0.061,0.549,-0.427,7.79
129534,135507,13211,0.018,-0.931,-0.244,-0.061,0.549,-0.427,7.796
129542,135546,43087,0.017,-0.931,-0.246,-0.061,0.549,-0.427,7.8
129542,135502,13190,0.019,-0.935,-0.244,-0.061,0.549,-0.427,7.806
129546,135546,43087,0.019,-0.935,-0.244,-0.122,0.549,-0.244,7.81
129546,135518,13201,0.02,-0.93,-0.24,-0.122,0.549,-0.244,7.816
129544,135546,43087,0.019,-0.931,-0.243,-0.122,0.427,-0.061,7.82
129544,135537,13190,0.016,-0.931,-0.246,-0.122,0.427,-0.061,7.826
129557,135546,43087,0.017,-0.929,-0.241,-0.305,0.488,0.183,7.829
129557,135517,13194,0.017,-0.932,-0.243,-0.305,0.488,0.183,7.836
129554,135546,43087,0.017,-0.932,-0.248,-0.549,0.427,0.244,7.839
129554,135504,13202,0.02,-0.929,-0.246,-0.549,0.427,0.244,7.846
129536,135546,43087,0.016,-0.928,-0.246,-0.549,0.366,0.244,7.849
129536,135527,13203,0.017,-0.93,-0.245,-0.549,0.366,0.244,7.855
129531,135546,43087,0.015,-0.934,-0.245,-0.61,0.366,0.244,7.859
129531,135505,13195,0.016,-0.932,-0.247,-0.61,0.366,0.244,7.865
129532,135546,43087,0.016,-0.932,-0.246,-0.427,0.305,0.122,7.869
129532,135485,13194,0.015,-0.933,-0.249,-0.427,0.305,0.122,7.875
129524,135546,43087,0.018,-0.932,-0.249,-0.366,0.366,0,7.879
129524,135505,13214,0.017,-0.932,-0.243,-0.366,0.366,0,7.885
129527,135546,43087,0.016,-0.932,-0.242,-0.244,0.305,-0.061,7.889
129527,135482,13189,0.018,-0.934,-0.246,-0.244,0.305,-0.061,7.895
129503,135546,43087,0.018,-0.931,-0.244,-0.305,0.366,0.061,7.899
129503,135466,13204,0.015,-0.933,-0.247,-0.305,0.366,0.061,7.905
129511,135546,43087,0.018,-0.934,-0.245,-0.244,0.244,0.122,7.909
129511,135461,13202,0.019,-0.933,-0.243,-0.244,0.244,0.122,7.915
129502,135546,43087,0.019,-0.933,-0.246,-0.183,0.244,0.244,7.919
129502,135475,13203,0.016,-0.936,-0.245,-0.183,0.244,0.244,7.925
129514,135546,43087,0.016,-0.934,-0.244,-0.122,0.366,0.427,7.928
129514,135489,13193,0.015,-0.931,-0.241,-0.122,0.366,0.427,7.935
129534,135546,43087,0.014,-0.932,-0.241,0,0.488,0.671,7.938
129534,135491,13199,0.018,-0.936,-0.241,0,0.488,0.671,7.944
129520,135546,43087,0.017,-0.935,-0.245,-0.244,0.488,0.732,7.948
129520,135517,13202,0.018,-0.932,-0.246,-0.244,0.488,0.732,7.954
129533,135546,43087,0.017,-0.934,-0.244,-0.366,0.549,0.671,7.958
129533,135507,13215,0.018,-0.933,-0.244,-0.366,0.549,0.671,7.964
129547,135546,43087,0.018,-0.931,-0.246,-0.183,0.488,0.732,7.968
129547,135524,13204,0.017,-0.932,-0.243,-0.183,0.488,0.732,7.974
129565,135546,43087,0.015,-0.929,-0.245,-0.061,0.488,0.854,7.978
129565,135513,13206,0.016,-0.929,-0.242,-0.061,0.488,0.854,7.984
129532,135546,43087,0.017,-0.929,-0.24,-0.122,0.488,0.793,7.988
129532,135503,13191,0.017,-0.933,-0.242,-0.122,0.488,0.793,7.994
129525,135546,43087,0.015,-0.934,-0.248,-0.366,0.366,0.732,7.998
129525,135504,13205,0.016,-0.932,-0.247,-0.366,0.366,0.732,8.004
129520,135546,43087,0.016,-0.935,-0.246,-0.488,0.366,0.732,8.008
129520,135480,13187,0.018,-0.935,-0.245,-0.488,0.366,0.732,8.014
129506,135546,43087,0.016,-0.934,-0.243,-0.427,0.427,0.671,8.018
129506,135502,13194,0.013,-0.932,-0.246,-0.427,0.427,0.671,8.024
129473,135546,43087,0.015,-0.935,-0.246,-0.488,0.366,0.61,8.027
129473,135473,13193,0.017,-0.933,-0.243,-0.488,0.366,0.61,8.034
129527,135546,43087,0.014,-0.93,-0.244,-0.488,0.305,0.488,8.037
129527,135509,13190,0.015,-0.93,-0.245,-0.488,0.305,0.488,8.043
129502,135546,43087,0.013,-0.931,-0.245,-0.305,0.427,0.488,8.047
129502,135497,13203,0.014,-0.931,-0.247,-0.305,0.427,0.488,8.053
129519,135546,43087,0.013,-0.933,-0.247,-0.244,0.366,0.549,8.057
129519,135484,13191,0.017,-0.931,-0.244,-0.244,0.366,0.549,8.063
129508,135546,43087,0.017,-0.931,-0.244,-0.244,0.366,0.549,8.067
129508,135498,13189,0.014,-0.931,-0.245,-0.061,0.366,0.488,8.073
129482,135546,43087,0.014,-0.931,-0.245,-0.061,0.366,0.488,8.077
129482,135484,13184,0.02,-0.935,-0.243,0.061,0.366,0.427,8.083
129514,135546,43087,0.02,-0.935,-0.243,0.061,0.366,0.427,8.087
129514,135495,13182,0.014,-0.932,-0.246,0.244,0.305,0.488,8.093
129476,135546,43087,0.014,-0.932,-0.246,0.244,0.305,0.488,8.097
129476,135486,13191,0.014,-0.931,-0.239,0.305,0.366,0.549,8.103
129496,135546,43087,0.014,-0.931,-0.239,0.305,0.366,0.549,8.107
129496,135501,13188,0.014,-0.931,-0.244,0.061,0.366,0.61,8.113
129475,135546,43087,0.014,-0.931,-0.244,0.061,0.366,0.61,8.117
129475,135469,13171,0.016,-0.931,-0.243,-0.305,0.305,0.549,8.123
129489,135546,43087,0.016,-0.931,-0.243,-0.305,0.305,0.549,8.126
129489,135470,13176,0.012,-0.936,-0.245,-0.366,0.366,0.61,8.133
129463,135546,43087,0.012,-0.936,-0.245,-0.366,0.366,0.61,8.136
129463,135506,13182,0.017,-0.932,-0.245,-0.244,0.366,0.671,8.142
129464,135546,43087,0.017,-0.932,-0.245,-0.244,0.366,0.671,8.146
129464,135476,13177,0.016,-0.93,-0.245,-0.244,0.366,0.61,8.152
129476,135546,43087,0.016,-0.93,-0.245,-0.244,0.366,0.61,8.156
129476,135486,13185,0.015,-0.933,-0.248,-0.244,0.427,0.427,8.162
129491,135546,43087,0.015,-0.933,-0.248,-0.244,0.427,0.427,8.166
129491,135497,13187,0.015,-0.934,-0.245,-0.305,0.305,0.366,8.172
129470,135546,43087,0.015,-0.934,-0.245,-0.305,0.305,0.366,8.176
129470,135484,13181,0.016,-0.935,-0.24,0,0.366,0.305,8.182
129470,135546,43087,0.016,-0.935,-0.24,0,0.366,0.305,8.186
129470,135471,13179,0.013,-0.934,-0.245,0,0.427,0.366,8.192
129471,135546,43087,0.013,-0.934,-0.245,0,0.427,0.366,8.196
129471,135468,13183,0.017,-0.931,-0.241,0,0.427,0.366,8.202
129473,135546,43087,0.017,-0.931,-0.241,0,0.427,0.366,8.206
129473,135465,13192,0.019,-0.932,-0.24,0.183,0.244,0.427,8.212
129468,135546,43087,0.015,-0.934,-0.245,0.183,0.244,0.427,8.216
129468,135485,13194,0.016,-0.933,-0.247,0.122,0.427,0.427,8.222
129500,135546,43087,0.015,-0.935,-0.243,0.122,0.427,0.427,8.225
129500,135494,13194,0.014,-0.933,-0.243,0.061,0.366,0.427,8.232
129483,135546,43087,0.016,-0.931,-0.242,0.061,0.366,0.427,8.235
129483,135495,13185,0.015,-0.931,-0.243,-0.244,0.305,0.427,8.241
129485,135546,43087,0.017,-0.932,-0.243,-0.244,0.305,0.427,8.245
129485,135494,13183,0.014,-0.932,-0.245,-0.427,0.305,0.488,8.251
129489,135546,43087,0.014,-0.932,-0.247,-0.427,0.305,0.488,8.255
129489,135490,13195,0.014,-0.933,-0.246,-0.183,0.305,0.488,8.261
129494,135546,43087,0.012,-0.933,-0.241,-0.183,0.305,0.488,8.265
129494,135497,13172,0.017,-0.931,-0.241,0.061,0.305,0.61,8.271
129499,135546,43087,0.015,-0.929,-0.241,0.061,0.305,0.61,8.275
129499,135487,13179,0.015,-0.93,-0.241,-0.244,0.183,0.366,8.281
129492,135546,43087,0.015,-0.932,-0.245,-0.244,0.183,0.366,8.285
129492,135489,13207,0.017,-0.934,-0.245,-0.488,0.244,0.305,8.291
129479,135546,43087,0.018,-0.934,-0.244,-0.488,0.244,0.305,8.295
129479,135485,13183,0.017,-0.935,-0.242,-0.244,0.305,0.244,8.301
129483,135546,43087,0.017,-0.93,-0.239,-0.244,0.305,0.244,8.305
129483,135500,13179,0.017,-0.932,-0.243,-0.366,0.427,0.305,8.311
129469,135546,43087,0.018,-0.931,-0.247,-0.366,0.427,0.305,8.314
129469,135492,13192,0.017,-0.936,-0.244,-0.427,0.427,0.427,8.321
129477,135546,43087,0.017,-0.935,-0.24,-0.427,0.427,0.427,8.324
129477,135459,13185,0.016,-0.929,-0.243,-0.305,0.427,0.427,8.331
129485,135546,43087,0.017,-0.93,-0.247,-0.305,0.427,0.427,8.334
129485,135495,13181,0.016,-0.934,-0.245,-0.488,0.366,0.427,8.34
129471,135546,43087,0.016,-0.934,-0.248,-0.488,0.366,0.427,8.344
129471,135459,13203,0.016,-0.935,-0.251,-0.671,0.305,0.427,8.35
129480,135546,43087,0.017,-0.937,-0.25,-0.671,0.305,0.427,8.354
129480,135489,13189,0.016,-0.932,-0.246,-0.366,0.305,0.427,8.36
129482,135546,43087,0.016,-0.932,-0.245,-0.366,0.305,0.427,8.364
129482,135498,13181,0.015,-0.93,-0.245,-0.122,0.305,0.549,8.37
129505,135546,43087,0.016,-0.932,-0.243,-0.122,0.305,0.549,8.374
129505,135503,13192,0.017,-0.934,-0.247,-0.122,0.183,0.549,8.38
129523,135546,43087,0.016,-0.936,-0.243,-0.122,0.183,0.549,8.384
129523,135497,13199,0.015,-0.933,-0.241,0.305,0.244,0.488,8.39
129501,135546,43087,0.014,-0.929,-0.242,0.305,0.244,0.488,8.394
129501,135528,13189,0.016,-0.931,-0.239,0.549,0.305,0.671,8.4
129501,135546,43087,0.016,-0.935,-0.239,0.549,0.305,0.671,8.404
129501,135522,13199,0.014,-0.933,-0.242,0.183,0.244,0.671,8.41
129509,135546,43087,0.013,-0.932,-0.241,0.183,0.244,0.671,8.413
129509,135505,13199,0.012,-0.934,-0.243,-0.183,0.183,0.732,8.42
129497,135546,43087,0.012,-0.932,-0.244,-0.183,0.183,0.732,8.423
129497,135496,13202,0.011,-0.932,-0.246,-0.305,0.305,0.854,8.43
129510,135546,43087,0.012,-0.932,-0.242,-0.305,0.305,0.854,8.433
129510,135519,13195,0.013,-0.932,-0.242,-0.427,0.244,0.976,8.439
129495,135546,43087,0.011,-0.935,-0.244,-0.427,0.244,0.976,8.443
129495,135495,13197,0.012,-0.932,-0.244,-0.61,0.244,0.976,8.449
129508,135546,43087,0.011,-0.933,-0.242,-0.61,0.244,0.976,8.453
129508,135528,13192,0.011,-0.932,-0.245,-0.427,0.305,1.037,8.459
129520,135546,43087,0.009,-0.931,-0.242,-0.427,0.305,1.037,8.463
129520,135511,13191,0.014,-0.93,-0.243,-0.366,0.488,0.976,8.469
129534,135546,43087,0.014,-0.932,-0.247,-0.366,0.488,0.976,8.473
129534,135529,13195,0.009,-0.93,-0.247,-0.488,0.366,0.793,8.479
129543,135546,43087,0.011,-0.935,-0.246,-0.488,0.366,0.793,8.483
129543,135529,13204,0.014,-0.934,-0.244,-0.427,0.305,0.549,8.489
129549,135546,43087,0.012,-0.935,-0.245,-0.427,0.305,0.549,8.493
129549,135574,13206,0.012,-0.931,-0.244,-0.366,0.366,0.427,8.499
129557,135546,43087,0.013,-0.935,-0.243,-0.366,0.366,0.427,8.503
129557,135547,13204,0.013,-0.932,-0.241,-0.427,0.305,0.366,8.509
129563,135546,43087,0.015,-0.931,-0.247,-0.427,0.305,0.366,8.512
129563,135548,13206,0.016,-0.935,-0.245,-0.427,0.305,0.183,8.519
129555,135546,43087,0.016,-0.933,-0.243,-0.427,0.305,0.183,8.522
129555,135545,13206,0.014,-0.932,-0.244,-0.366,0.366,0.183,8.529
129572,135546,43087,0.016,-0.93,-0.247,-0.366,0.366,0.183,8.532
129572,135567,13202,0.016,-0.932,-0.242,-0.549,0.305,0.244,8.538
129553,135546,43087,0.014,-0.931,-0.24,-0.549,0.305,0.244,8.542
129553,135528,13199,0.015,-0.933,-0.238,-0.488,0.244,0.183,8.548
129585,135546,43087,0.017,-0.934,-0.241,-0.488,0.244,0.183,8.552
129585,135524,13208,0.014,-0.931,-0.243,-0.427,0.183,0.244,8.558
129555,135546,43087,0.016,-0.93,-0.242,-0.427,0.183,0.244,8.562
129555,135548,13219,0.015,-0.932,-0.241,-0.488,0,0.305,8.568
129555,135546,43087,0.015,-0.931,-0.245,-0.488,0,0.305,8.572
129555,135549,13223,0.012,-0.931,-0.247,-0.671,0.183,0.366,8.578
129574,135546,43087,0.015,-0.932,-0.244,-0.671,0.183,0.366,8.582
129574,135533,13189,0.017,-0.934,-0.242,-0.488,0.183,0.427,8.588
129560,135546,43087,0.016,-0.935,-0.244,-0.488,0.183,0.427,8.592
129560,135560,13207,0.015,-0.932,-0.242,-0.427,0.183,0.305,8.598
129547,135546,43087,0.014,-0.93,-0.244,-0.427,0.183,0.305,8.602
129547,135544,13201,0.014,-0.93,-0.245,-0.549,0.244,0.183,8.608
129550,135546,43087,0.015,-0.932,-0.247,-0.549,0.244,0.183,8.611
129550,135522,13202,0.016,-0.932,-0.243,-0.732,0.183,0.183,8.618
129532,135546,43087,0.018,-0.93,-0.244,-0.732,0.183,0.183,8.621
129532,135542,13204,0.016,-0.93,-0.247,-0.488,0.305,0.244,8.628
129520,135546,43087,0.016,-0.931,-0.246,-0.488,0.305,0.244,8.631
129520,135514,13195,0.015,-0.935,-0.244,-0.488,0.244,0.366,8.637
129516,135546,43087,0.015,-0.935,-0.244,-0.488,0.244,0.366,8.641
129516,135507,13210,0.014,-0.933,-0.244,-0.305,0.244,0.488,8.647
129533,135546,43087,0.014,-0.933,-0.244,-0.305,0.244,0.488,8.651
129533,135523,13191,0.017,-0.933,-0.246,-0.122,0.366,0.549,8.657
129522,135546,43087,0.017,-0.933,-0.246,-0.122,0.366,0.549,8.661
129522,135511,13210,0.017,-0.93,-0.242,-0.122,0.366,0.488,8.667
129532,135546,43087,0.017,-0.93,-0.242,-0.122,0.366,0.488,8.671
129532,135508,13218,0.011,-0.933,-0.247,-0.244,0.366,0.61,8.677
129542,135546,43087,0.011,-0.933,-0.247,-0.244,0.366,0.61,8.681
129542,135551,13214,0.014,-0.929,-0.242,-0.061,0.305,0.732,8.687
129534,135546,43087,0.014,-0.929,-0.242,-0.061,0.305,0.732,8.691
129534,135545,13198,0.015,-0.932,-0.245,-0.305,0.244,0.793,8.697
129539,135546,43087,0.015,-0.932,-0.245,-0.305,0.244,0.793,8.701
129539,135552,13196,0.013,-0.935,-0.245,-0.732,0.305,0.915,8.707
129527,135546,43087,0.013,-0.935,-0.245,-0.732,0.305,0.915,8.71
129527,135519,13211,0.014,-0.929,-0.246,-0.61,0.305,0.854,8.717
129518,135546,43087,0.014,-0.929,-0.246,-0.61,0.305,0.854,8.72
129518,135525,13196,0.01,-0.933,-0.247,-0.366,0.366,0.793,8.726
129518,135546,43087,0.01,-0.933,-0.247,-0.366,0.366,0.793,8.73
129518,135542,13210,0.012,-0.933,-0.245,-0.488,0.427,0.854,8.736
129527,135546,43087,0.012,-0.933,-0.245,-0.488,0.427,0.854,8.74
129527,135514,13201,0.014,-0.93,-0.246,-0.366,0.366,0.793,8.746
129507,135546,43087,0.014,-0.93,-0.246,-0.366,0.366,0.793,8.75
129507,135523,13198,0.011,-0.931,-0.244,-0.305,0.244,0.671,8.756
129491,135546,43087,0.011,-0.931,-0.244,-0.305,0.244,0.671,8.76
129491,135507,13199,0.013,-0.933,-0.248,-0.366,0.366,0.61,8.766
129504,135546,43087,0.013,-0.933,-0.248,-0.366,0.366,0.61,8.77
129504,135534,13198,0.009,-0.936,-0.252,-0.183,0.427,0.671,8.776
129486,135546,43087,0.009,-0.936,-0.252,-0.183,0.427,0.671,8.78
129486,135516,13194,0.011,-0.933,-0.246,-0.183,0.427,0.671,8.786
129495,135546,43087,0.014,-0.935,-0.244,0.122,0.305,0.61,8.79
129495,135504,13200,0.011,-0.932,-0.244,0.122,0.305,0.61,8.796
129497,135546,43087,0.009,-0.931,-0.247,0.061,0.366,0.488,8.8
129497,135508,13196,0.013,-0.933,-0.242,0.061,0.366,0.488,8.806
129491,135546,43087,0.013,-0.934,-0.241,-0.061,0.366,0.427,8.809
129491,135513,13199,0.015,-0.933,-0.246,-0.061,0.366,0.427,8.816
129485,135546,43087,0.014,-0.936,-0.245,0,0.366,0.427,8.819
129485,135504,13195,0.012,-0.93,-0.248,0,0.366,0.427,8.825
129485,135546,43087,0.013,-0.931,-0.248,0,0.305,0.427,8.829
129485,135506,13199,0.01,-0.933,-0.245,0,0.305,0.427,8.835
129493,135546,43087,0.013,-0.933,-0.247,-0.122,0.366,0.427,8.839
129493,135507,13199,0.014,-0.932,-0.245,-0.122,0.366,0.427,8.845
129479,135546,43087,0.014,-0.929,-0.238,0,0.305,0.366,8.849
129479,135504,13201,0.01,-0.93,-0.24,0,0.305,0.366,8.855
129493,135546,43087,0.012,-0.93,-0.243,-0.061,0.427,0.366,8.859
129493,135492,13182,0.011,-0.93,-0.247,-0.061,0.427,0.366,8.865
129471,135546,43087,0.012,-0.934,-0.243,-0.305,0.366,0.366,8.869
129471,135509,13190,0.015,-0.934,-0.246,-0.305,0.366,0.366,8.875
129459,135546,43087,0.014,-0.929,-0.241,-0.183,0.427,0.366,8.879
129459,135488,13183,0.014,-0.934,-0.244,-0.183,0.427,0.366,8.885
129454,135546,43087,0.014,-0.932,-0.247,-0.122,0.488,0.488,8.889
129454,135476,13184,0.012,-0.931,-0.245,-0.122,0.488,0.488,8.895
129450,135546,43087,0.013,-0.934,-0.243,-0.244,0.366,0.549,8.899
129450,135471,13182,0.013,-0.931,-0.242,-0.244,0.366,0.549,8.905
129431,135546,43087,0.013,-0.934,-0.248,-0.183,0.427,0.549,8.908
129431,135498,13190,0.012,-0.936,-0.247,-0.183,0.427,0.549,8.915
129427,135546,43087,0.01,-0.936,-0.244,-0.061,0.427,0.488,8.918
129427,135487,13182,0.011,-0.935,-0.246,-0.061,0.427,0.488,8.924
129431,135546,43087,0.011,-0.933,-0.243,-0.122,0.427,0.366,8.928
129431,135479,13192,0.011,-0.933,-0.246,-0.122,0.427,0.366,8.934
129468,135546,43087,0.012,-0.933,-0.246,-0.244,0.549,0.244,8.938
129468,135489,13175,0.012,-0.931,-0.247,-0.244,0.549,0.244,8.944
129470,135546,43087,0.012,-0.931,-0.245,0.061,0.488,0.244,8.948
129470,135486,13181,0.013,-0.93,-0.245,0.061,0.488,0.244,8.954
129447,135546,43087,0.011,-0.932,-0.248,0.122,0.488,0.244,8.958
129447,135517,13167,0.011,-0.936,-0.249,0.122,0.488,0.244,8.964
129450,135546,43087,0.011,-0.934,-0.247,0.305,0.427,0.122,8.968
129450,135488,13194,0.015,-0.931,-0.247,0.305,0.427,0.122,8.974
129457,135546,43087,0.015,-0.932,-0.242,0.244,0.488,-0.122,8.978
129457,135467,13181,0.013,-0.931,-0.242,0.244,0.488,-0.122,8.984
129432,135546,43087,0.013,-0.934,-0.242,-0.183,0.427,-0.183,8.988
129432,135480,13178,0.014,-0.934,-0.242,-0.183,0.427,-0.183,8.994
129444,135546,43087,0.017,-0.934,-0.242,-0.244,0.427,-0.122,8.997
129444,135486,13184,0.015,-0.933,-0.244,-0.244,0.427,-0.122,9.004
129455,135546,43087,0.017,-0.931,-0.241,-0.366,0.427,-0.122,9.007
129455,135494,13177,0.015,-0.933,-0.244,-0.366,0.427,-0.122,9.014
129432,135546,43087,0.015,-0.934,-0.244,-0.549,0.366,0.061,9.017
129432,135476,13175,0.015,-0.932,-0.248,-0.549,0.366,0.061,9.023
129408,135546,43087,0.017,-0.932,-0.25,-0.305,0.366,0.244,9.027
129408,135473,13186,0.015,-0.93,-0.244,-0.305,0.366,0.244,9.033
129406,135546,43087,0.012,-0.936,-0.249,-0.061,0.427,0.122,9.037
129406,135483,13182,0.013,-0.935,-0.247,-0.061,0.427,0.122,9.043
129416,135546,43087,0.017,-0.935,-0.25,0.061,0.488,0.061,9.047
129416,135463,13167,0.017,-0.935,-0.244,0.061,0.488,0.061,9.053
129405,135546,43087,0.016,-0.933,-0.244,0.122,0.305,0,9.057
129405,135446,13182,0.013,-0.933,-0.245,0.122,0.305,0,9.063
129419,135546,43087,0.012,-0.933,-0.243,0.122,0.305,0,9.067
129419,135443,13173,0.015,-0.931,-0.246,0.122,0.305,0,9.073
129421,135546,43087,0.017,-0.931,-0.246,0.305,0.366,0,9.077
129421,135461,13179,0.019,-0.93,-0.246,0.305,0.366,0,9.083
129433,135546,43087,0.017,-0.932,-0.241,0.488,0.305,0,9.087
129433,135477,13176,0.015,-0.934,-0.24,0.488,0.305,0,9.093
129413,135546,43087,0.016,-0.933,-0.24,0.488,0.427,0.122,9.096
129413,135462,13187,0.014,-0.932,-0.242,0.488,0.427,0.122,9.103
129430,135546,43087,0.012,-0.931,-0.241,0.305,0.488,0.305,9.106
129430,135484,13180,0.015,-0.933,-0.242,0.305,0.488,0.305,9.113
129426,135546,43087,0.013,-0.936,-0.241,0.183,0.427,0.366,9.116
129426,135471,13208,0.013,-0.935,-0.241,0.183,0.427,0.366,9.122
129456,135546,43087,0.014,-0.93,-0.24,-0.061,0.427,0.488,9.126
129456,135485,13174,0.011,-0.933,-0.247,-0.061,0.427,0.488,9.132
129460,135546,43087,0.01,-0.932,-0.246,-0.793,0.366,0.61,9.136
129460,135476,13174,0.011,-0.933,-0.243,-0.793,0.366,0.61,9.142
129445,135546,43087,0.011,-0.936,-0.246,-0.793,0.366,0.61,9.146
129445,135456,13182,0.012,-0.935,-0.247,-0.793,0.366,0.61,9.152
129427,135546,43087,0.012,-0.933,-0.243,-0.61,0.488,0.61,9.156
129427,135453,13189,0.013,-0.933,-0.246,-0.61,0.488,0.61,9.162
129410,135546,43087,0.01,-0.933,-0.246,-0.305,0.549,0.549,9.166
129410,135447,13174,0.012,-0.933,-0.245,-0.305,0.549,0.549,9.172
129412,135546,43087,0.012,-0.934,-0.247,0,0.488,0.427,9.176
129412,135464,13195,0.011,-0.932,-0.246,0,0.488,0.427,9.182
129445,135546,43087,0.011,-0.932,-0.248,0.122,0.549,0.366,9.186
129445,135465,13190,0.013,-0.932,-0.247,0.122,0.549,0.366,9.192
129439,135546,43087,0.013,-0.933,-0.246,0.305,0.549,0.061,9.195
129439,135482,13192,0.016,-0.933,-0.246,0.305,0.549,0.061,9.202
129445,135546,43087,0.013,-0.931,-0.243,0.549,0.61,-0.061,9.205
129445,135472,13184,0.012,-0.933,-0.245,0.549,0.61,-0.061,9.212
129446,135546,43087,0.014,-0.933,-0.242,0.549,0.549,-0.061,9.215
129446,135482,13182,0.016,-0.931,-0.241,0.549,0.549,-0.061,9.221
129439,135546,43087,0.016,-0.931,-0.241,0.549,0.549,-0.061,9.225
129439,135451,13193,0.015,-0.934,-0.243,0.183,0.549,-0.183,9.231
129441,135546,43087,0.015,-0.934,-0.243,0.183,0.549,-0.183,9.235
129441,135467,13186,0.016,-0.933,-0.243,-0.122,0.488,-0.122,9.241
129447,135546,43087,0.016,-0.933,-0.243,-0.122,0.488,-0.122,9.245
129447,135482,13200,0.016,-0.932,-0.241,-0.183,0.366,0,9.251
129463,135546,43087,0.016,-0.932,-0.241,-0.183,0.366,0,9.255
129463,135466,13188,0.015,-0.933,-0.241,-0.244,0.366,0.183,9.261
129466,135546,43087,0.015,-0.933,-0.241,-0.244,0.366,0.183,9.265
129466,135489,13184,0.013,-0.932,-0.243,-0.122,0.366,0.305,9.271
129452,135546,43087,0.013,-0.932,-0.243,-0.122,0.366,0.305,9.275
129452,135478,13196,0.015,-0.932,-0.246,-0.488,0.366,0.366,9.281
129450,135546,43087,0.015,-0.932,-0.246,-0.488,0.366,0.366,9.285
129450,135493,13184,0.015,-0.931,-0.249,-0.488,0.305,0.244,9.291
129424,135546,43087,0.015,-0.931,-0.249,-0.488,0.305,0.244,9.294
129424,135479,13180,0.014,-0.931,-0.245,-0.061,0.366,0.122,9.301
129443,135546,43087,0.014,-0.931,-0.245,-0.061,0.366,0.122,9.304
129443,135456,13193,0.016,-0.931,-0.241,0.061,0.427,0.061,9.311
129414,135546,43087,0.016,-0.931,-0.241,0.061,0.427,0.061,9.314
129414,135448,13193,0.013,-0.93,-0.247,-0.122,0.305,0,9.32
129433,135546,43087,0.013,-0.93,-0.247,-0.122,0.305,0,9.324
129433,135468,13174,0.016,-0.93,-0.242,-0.061,0.427,0.061,9.33
129409,135546,43087,0.016,-0.93,-0.242,-0.061,0.427,0.061,9.334
129409,135466,13188,0.015,-0.932,-0.242,0,0.427,0.061,9.34
129428,135546,43087,0.015,-0.932,-0.242,0,0.427,0.061,9.344
129428,135442,13189,0.016,-0.936,-0.248,-0.183,0.305,0.244,9.35
129441,135546,43087,0.016,-0.936,-0.248,-0.183,0.305,0.244,9.354
129441,135475,13182,0.016,-0.933,-0.245,0.061,0.366,0.305,9.36
129446,135546,43087,0.016,-0.933,-0.245,0.061,0.366,0.305,9.364
129446,135454,13200,0.014,-0.932,-0.24,0.305,0.488,0.366,9.37
129447,135546,43087,0.016,-0.933,-0.243,0.305,0.488,0.366,9.374
129447,135485,13198,0.018,-0.931,-0.246,0.122,0.61,0.366,9.38
129444,135546,43087,0.014,-0.934,-0.242,0.122,0.61,0.366,9.384
129444,135502,13187,0.015,-0.931,-0.242,0.244,0.549,0.427,9.39
129463,135546,43087,0.017,-0.931,-0.243,0.244,0.549,0.427,9.393
129463,135478,13218,0.016,-0.932,-0.243,0.061,0.61,0.549,9.4
129463,135546,43087,0.018,-0.931,-0.244,0.061,0.61,0.549,9.403
129463,135490,13179,0.016,-0.934,-0.241,-0.244,0.488,0.549,9.41
129433,135546,43087,0.015,-0.934,-0.244,-0.244,0.488,0.549,9.413
129433,135501,13199,0.016,-0.931,-0.245,-0.183,0.488,0.61,9.419
129433,135546,43087,0.016,-0.932,-0.244,-0.183,0.488,0.61,9.423
129433,135471,13193,0.016,-0.932,-0.244,0,0.549,0.61,9.429
129422,135546,43087,0.018,-0.93,-0.239,0,0.549,0.61,9.433
129422,135475,13186,0.017,-0.93,-0.239,-0.122,0.305,0.488,9.439
129420,135546,43087,0.014,-0.934,-0.245,-0.122,0.305,0.488,9.443
129420,135447,13179,0.013,-0.935,-0.248,-0.366,0.366,0.366,9.449
129410,135546,43087,0.014,-0.933,-0.244,-0.366,0.366,0.366,9.453
129410,135479,13189,0.016,-0.932,-0.24,-0.244,0.305,0.427,9.459
129415,135546,43087,0.014,-0.933,-0.245,-0.244,0.305,0.427,9.463
129415,135489,13200,0.013,-0.936,-0.245,-0.427,0.366,0.366,9.469
129435,135546,43087,0.013,-0.935,-0.244,-0.427,0.366,0.366,9.473
129435,135503,13197,0.014,-0.935,-0.247,-0.549,0.305,0.305,9.479
129465,135546,43087,0.015,-0.934,-0.25,-0.549,0.305,0.305,9.483
129465,135504,13184,0.015,-0.934,-0.244,-0.244,0.305,0.244,9.489
129470,135546,43087,0.013,-0.934,-0.244,-0.244,0.305,0.244,9.492
129470,135524,13203,0.013,-0.932,-0.24,-0.183,0.366,0.305,9.499
129495,135546,43087,0.014,-0.93,-0.243,-0.183,0.366,0.305,9.502
129495,135542,13187,0.016,-0.933,-0.247,0,0.427,0.305,9.509
129484,135546,43087,0.016,-0.934,-0.244,0,0.427,0.305,9.512
129484,135556,13200,0.014,-0.933,-0.241,0.366,0.488,0.305,9.518
129505,135546,43087,0.015,-0.932,-0.241,0.366,0.488,0.305,9.522
129505,135548,13185,0.016,-0.93,-0.245,0.244,0.549,0.488,9.528
129490,135546,43087,0.014,-0.932,-0.246,0.244,0.549,0.488,9.532
129490,135548,13187,0.014,-0.938,-0.24,0,0.488,0.366,9.538
129490,135546,43087,0.013,-0.934,-0.24,0,0.488,0.366,9.542
129490,135554,13206,0.014,-0.929,-0.24,-0.061,0.488,0.366,9.548
129497,135546,43087,0.017,-0.93,-0.24,-0.061,0.488,0.366,9.552
129497,135536,13198,0.018,-0.931,-0.24,-0.244,0.366,0.366,9.558
129499,135546,43087,0.012,-0.932,-0.242,-0.244,0.366,0.366,9.562
129499,135546,13197,0.013,-0.932,-0.245,-0.61,0.488,0.305,9.568
129480,135546,43087,0.017,-0.934,-0.245,-0.61,0.488,0.305,9.572
129480,135559,13172,0.014,-0.934,-0.242,-0.793,0.488,0.305,9.578
129500,135546,43087,0.015,-0.931,-0.248,-0.793,0.488,0.305,9.582
129500,135540,13186,0.018,-0.932,-0.246,-1.037,0.244,0.244,9.588
129475,135546,43087,0.017,-0.933,-0.247,-1.037,0.244,0.244,9.591
129475,135550,13195,0.016,-0.938,-0.245,-0.854,0.244,0.183,9.598
129500,135546,43087,0.017,-0.935,-0.243,-0.854,0.244,0.183,9.601
129500,135527,13181,0.014,-0.932,-0.242,-0.671,0.305,0.122,9.607
129484,135546,43087,0.014,-0.935,-0.246,-0.671,0.305,0.122,9.611
129484,135564,13175,0.015,-0.932,-0.247,-0.549,0.427,0.244,9.617
129511,135546,43087,0.018,-0.934,-0.243,-0.549,0.427,0.244,9.621
129511,135549,13190,0.015,-0.936,-0.249,-0.244,0.305,0.244,9.627
129511,135546,43087,0.016,-0.934,-0.249,-0.244,0.305,0.244,9.631
129511,135543,13182,0.017,-0.931,-0.248,0.366,0.488,0.244,9.637
129517,135546,43087,0.014,-0.931,-0.244,0.366,0.488,0.244,9.641
129517,135583,13202,0.015,-0.932,-0.246,0.732,0.671,0.244,9.647
129527,135546,43087,0.015,-0.929,-0.244,0.732,0.671,0.244,9.651
129527,135581,13193,0.011,-0.931,-0.245,0.488,0.549,0.305,9.657
129538,135546,43087,0.013,-0.932,-0.241,0.488,0.549,0.305,9.661
129538,135578,13200,0.013,-0.929,-0.243,0.366,0.427,0.488,9.667
129539,135546,43087,0.015,-0.931,-0.236,0.366,0.427,0.488,9.671
129539,135576,13192,0.015,-0.932,-0.236,0.183,0.488,0.549,9.677
129528,135546,43087,0.013,-0.933,-0.244,0.183,0.488,0.549,9.681
129528,135558,13195,0.014,-0.934,-0.243,-0.488,0.366,0.305,9.687
129503,135546,43087,0.014,-0.937,-0.247,-0.488,0.366,0.305,9.69
129503,135570,13193,0.015,-0.933,-0.246,-1.098,0.244,0.183,9.697
129508,135546,43087,0.017,-0.932,-0.243,-1.098,0.244,0.183,9.7
129508,135592,13202,0.015,-0.933,-0.244,-0.854,0.366,0.183,9.706
129508,135546,43087,0.016,-0.934,-0.245,-0.854,0.366,0.183,9.71
129508,135541,13192,0.017,-0.933,-0.247,-0.427,0.488,0.183,9.716
129523,135546,43087,0.019,-0.932,-0.242,-0.427,0.488,0.183,9.72
129523,135555,13192,0.016,-0.937,-0.246,-0.305,0.488,0.244,9.726
129506,135546,43087,0.016,-0.936,-0.247,-0.305,0.488,0.244,9.73
129506,135548,13196,0.015,-0.934,-0.251,-0.183,0.488,0.183,9.736
129533,135546,43087,0.015,-0.933,-0.25,-0.183,0.488,0.183,9.74
129533,135558,13203,0.016,-0.933,-0.248,0.122,0.488,0.183,9.746
129493,135546,43087,0.015,-0.934,-0.242,0.122,0.488,0.183,9.75
129493,135536,13209,0.016,-0.934,-0.242,0.244,0.488,0.061,9.756
129499,135546,43087,0.016,-0.931,-0.245,0.244,0.488,0.061,9.76
129499,135546,13198,0.017,-0.931,-0.244,0.122,0.488,0,9.766
129518,135546,43087,0.017,-0.931,-0.247,0.122,0.488,0,9.77
129518,135563,13204,0.016,-0.93,-0.243,0.122,0.427,0.122,9.776
129490,135546,43087,0.015,-0.93,-0.24,0.122,0.427,0.122,9.779
129490,135551,13196,0.014,-0.933,-0.24,0.122,0.305,0.244,9.786
129498,135546,43087,0.014,-0.931,-0.243,0.122,0.305,0.244,9.789
129498,135553,13204,0.015,-0.933,-0.243,0.122,0.244,0.305,9.796
129507,135546,43087,0.017,-0.934,-0.245,0.122,0.244,0.305,9.799
129507,135566,13207,0.015,-0.935,-0.241,0.244,0.305,0.244,9.805
129518,135546,43087,0.015,-0.935,-0.241,0.244,0.305,0.244,9.809
129518,135568,13205,0.015,-0.933,-0.242,0.244,0.366,0.366,9.815
129531,135546,43087,0.015,-0.933,-0.242,0.244,0.366,0.366,9.819
129531,135542,13221,0.014,-0.934,-0.247,0.305,0.488,0.488,9.825
129531,135546,43087,0.014,-0.934,-0.247,0.305,0.488,0.488,9.829
129531,135590,13213,0.016,-0.933,-0.243,0.183,0.488,0.61,9.835
129511,135546,43087,0.016,-0.933,-0.243,0.183,0.488,0.61,9.839
129511,135577,13213,0.012,-0.932,-0.244,0.122,0.427,0.61,9.845
129498,135546,43087,0.012,-0.932,-0.244,0.122,0.427,0.61,9.849
129498,135557,13194,0.011,-0.933,-0.243,0,0.488,0.549,9.855
129502,135546,43087,0.011,-0.933,-0.243,0,0.488,0.549,9.859
129502,135525,13182,0.013,-0.933,-0.242,0.183,0.549,0.671,9.865
129490,135546,43087,0.013,-0.933,-0.242,0.183,0.549,0.671,9.869
129490,135541,13186,0.012,-0.931,-0.239,-0.061,0.427,0.549,9.875
129480,135546,43087,0.012,-0.931,-0.239,-0.061,0.427,0.549,9.879
129480,135528,13212,0.011,-0.932,-0.245,-0.366,0.488,0.366,9.885
129465,135546,43087,0.011,-0.932,-0.245,-0.366,0.488,0.366,9.888
129465,135514,13195,0.013,-0.933,-0.248,-0.244,0.427,0.061,9.895
129457,135546,43087,0.013,-0.933,-0.248,-0.244,0.427,0.061,9.898
129457,135513,13201,0.012,-0.934,-0.24,-0.122,0.488,-0.122,9.904
129461,135546,43087,0.012,-0.934,-0.24,-0.122,0.488,-0.122,9.908
129461,135546,13206,0.016,-0.932,-0.24,-0.122,0.549,-0.244,9.914
129489,135546,43087,0.016,-0.932,-0.24,-0.122,0.549,-0.244,9.918
129489,135545,13186,0.016,-0.935,-0.243,-0.122,0.427,-0.183,9.924
129488,135546,43087,0.016,-0.935,-0.243,-0.122,0.427,-0.183,9.928
129488,135547,13194,0.018,-0.932,-0.245,0,0.427,-0.122,9.934
129516,135546,43087,0.018,-0.932,-0.245,0,0.427,-0.122,9.938
129516,135535,13210,0.017,-0.932,-0.242,0,0.427,-0.122,9.944
129528,135546,43087,0.017,-0.935,-0.243,0.244,0.549,0,9.948
129528,135577,13205,0.018,-0.931,-0.244,0.244,0.549,0,9.954
129518,135546,43087,0.019,-0.932,-0.24,0.244,0.427,0.244,9.958
129518,135561,13198,0.019,-0.933,-0.24,0.244,0.427,0.244,9.964
129499,135546,43087,0.019,-0.933,-0.242,0.122,0.366,0.366,9.968
129499,135547,13199,0.018,-0.932,-0.238,0.122,0.366,0.366,9.974
129482,135546,43087,0.015,-0.934,-0.241,-0.122,0.244,0.427,9.977
129482,135546,13203,0.015,-0.934,-0.241,-0.122,0.244,0.427,9.984
129469,135546,43087,0.013,-0.933,-0.241,-0.427,0.244,0.549,9.987
129469,135535,13189,0.014,-0.934,-0.241,-0.427,0.244,0.549,9.994
129460,135546,43087,0.015,-0.934,-0.241,-0.488,0.305,0.366,9.997
129460,135503,13203,0.017,-0.932,-0.243,-0.488,0.305,0.366,10.003
129444,135546,43087,0.015,-0.935,-0.243,-0.427,0.305,0.183,10.007
129444,135498,13198,0.014,-0.933,-0.242,-0.427,0.305,0.183,10.013
129434,135546,43087,0.018,-0.93,-0.241,-0.61,0.305,0.244,10.017
