132928,139748,13505,0.047,-0.95,-0.14,-0.854,0.244,0,356.524
132918,139642,43087,0.047,-0.95,-0.14,-0.854,0.244,0,356.528
132918,139743,13515,0.046,-0.951,-0.142,-1.22,0.244,0.244,356.534
132946,139898,43087,0.046,-0.951,-0.142,-1.22,0.244,0.244,356.538
132946,139784,13505,0.046,-0.954,-0.142,-1.037,0.244,0.244,356.544
132927,139642,43087,0.046,-0.954,-0.142,-1.037,0.244,0.244,356.548
132927,139744,13523,0.048,-0.952,-0.138,-0.549,0.305,0.122,356.554
132939,139642,43087,0.048,-0.952,-0.138,-0.549,0.305,0.122,356.558
132939,139775,13485,0.047,-0.95,-0.142,-0.427,0.427,0.183,356.564
132940,139898,43087,0.047,-0.95,-0.142,-0.427,0.427,0.183,356.568
132940,139785,13497,0.044,-0.953,-0.141,-0.61,0.244,0.305,356.574
132927,139642,43087,0.044,-0.953,-0.141,-0.61,0.244,0.305,356.578
132927,139773,13501,0.05,-0.952,-0.141,-0.488,0.122,0.244,356.584
132922,139642,43087,0.05,-0.952,-0.141,-0.488,0.122,0.244,356.587
132922,139767,13512,0.049,-0.952,-0.141,-0.549,0.244,0.122,356.594
132927,139642,43087,0.049,-0.952,-0.141,-0.549,0.244,0.122,356.597
132927,139730,13510,0.05,-0.948,-0.141,-0.366,0.305,0.122,356.604
132931,139642,43087,0.05,-0.948,-0.141,-0.366,0.305,0.122,356.607
132931,139770,13495,0.047,-0.952,-0.135,-0.183,0.427,0.183,356.613
132927,139642,43087,0.046,-0.958,-0.141,-0.183,0.427,0.183,356.617
132927,139759,13516,0.046,-0.954,-0.14,-0.061,0.366,0.244,356.623
132930,139642,43087,0.045,-0.952,-0.14,-0.061,0.366,0.244,356.627
132930,139763,13497,0.048,-0.95,-0.14,-0.183,0.305,0.183,356.633
132945,139642,43087,0.048,-0.949,-0.138,-0.183,0.305,0.183,356.637
132945,139760,13499,0.05,-0.947,-0.141,-0.122,0.183,0.061,356.643
132921,139642,43087,0.049,-0.948,-0.135,-0.122,0.183,0.061,356.647
132921,139753,13496,0.046,-0.949,-0.135,-0.427,0.244,0,356.653
132944,139898,43087,0.048,-0.946,-0.141,-0.427,0.244,0,356.657
132944,139779,13493,0.048,-0.947,-0.14,-0.915,0.305,0.183,356.663
132951,139898,43087,0.047,-0.952,-0.143,-0.915,0.305,0.183,356.667
132951,139776,13492,0.052,-0.955,-0.146,-0.488,0.366,0.183,356.673
132966,139898,43087,0.05,-0.958,-0.143,-0.488,0.366,0.183,356.677
132966,139779,13505,0.048,-0.952,-0.137,0.122,0.427,0.244,356.683
132968,139898,43087,0.049,-0.947,-0.137,0.122,0.427,0.244,356.686
132968,139795,13501,0.051,-0.947,-0.141,0.061,0.427,0.305,356.693
132970,139642,43087,0.051,-0.951,-0.14,0.061,0.427,0.305,356.696
132970,139775,13499,0.047,-0.952,-0.142,-0.061,0.488,0.366,356.702
132943,139898,43087,0.047,-0.953,-0.139,-0.061,0.488,0.366,356.706
132943,139794,13504,0.047,-0.957,-0.139,0.122,0.488,0.488,356.712
132972,139898,43087,0.046,-0.952,-0.141,0.122,0.488,0.488,356.716
132972,139782,13497,0.046,-0.947,-0.14,0,0.488,0.549,356.722
132972,139898,43087,0.048,-0.948,-0.137,0,0.488,0.549,356.726
132972,139789,13513,0.049,-0.948,-0.143,-0.183,0.305,0.671,356.732
132972,139898,43087,0.046,-0.951,-0.14,-0.183,0.305,0.671,356.736
132972,139778,13502,0.047,-0.952,-0.138,-0.244,0.427,0.671,356.742
132945,139642,43087,0.046,-0.953,-0.14,-0.244,0.427,0.671,356.746
132945,139772,13498,0.043,-0.955,-0.14,-0.244,0.549,0.488,356.752
132973,139898,43087,0.043,-0.951,-0.141,-0.244,0.549,0.488,356.756
132973,139781,13494,0.046,-0.949,-0.143,-0.122,0.366,0.366,356.762
132961,139898,43087,0.046,-0.951,-0.141,-0.122,0.366,0.366,356.766
132961,139811,13505,0.048,-0.951,-0.134,0.183,0.305,0.183,356.772
132965,139898,43087,0.046,-0.952,-0.136,0.183,0.305,0.183,356.776
132965,139794,13500,0.045,-0.95,-0.138,0.183,0.427,0.183,356.782
132947,139898,43087,0.047,-0.953,-0.135,0.183,0.427,0.183,356.785
132947,139788,13506,0.047,-0.953,-0.136,-0.061,0.366,0.183,356.792
132961,139898,43087,0.047,-0.95,-0.131,-0.061,0.366,0.183,356.795
132961,139797,13511,0.05,-0.944,-0.134,-0.305,0.427,0.244,356.801
132955,139898,43087,0.05,-0.947,-0.137,-0.305,0.427,0.244,356.805
132955,139788,13500,0.05,-0.949,-0.137,-0.976,0.366,0.366,356.811
132930,139642,43087,0.052,-0.952,-0.138,-0.976,0.366,0.366,356.815
132930,139767,13501,0.052,-0.957,-0.136,-1.22,0.366,0.549,356.821
132947,139898,43087,0.05,-0.957,-0.139,-1.22,0.366,0.549,356.825
132947,139780,13512,0.045,-0.952,-0.142,-1.098,0.488,0.732,356.831
132938,139642,43087,0.049,-0.951,-0.142,-1.098,0.488,0.732,356.835
132938,139770,13493,0.047,-0.948,-0.142,-1.28,0.549,0.854,356.841
132957,139642,43087,0.047,-0.949,-0.146,-1.28,0.549,0.854,356.845
132957,139763,13498,0.048,-0.953,-0.147,-1.098,0.488,0.732,356.851
132978,139898,43087,0.046,-0.956,-0.144,-1.098,0.488,0.732,356.855
132978,139805,13500,0.045,-0.955,-0.145,-0.793,0.366,0.366,356.861
132967,139898,43087,0.046,-0.952,-0.147,-0.793,0.366,0.366,356.865
132967,139799,13485,0.046,-0.95,-0.142,-0.549,0.244,0.183,356.871
132960,139898,43087,0.046,-0.95,-0.141,-0.549,0.244,0.183,356.875
132960,139794,13511,0.048,-0.948,-0.138,-0.244,0.122,0.061,356.881
132965,139898,43087,0.047,-0.951,-0.141,-0.244,0.122,0.061,356.884
132965,139796,13502,0.045,-0.952,-0.139,-0.244,0.183,0.061,356.891
132985,139898,43087,0.049,-0.95,-0.139,-0.244,0.183,0.061,356.894
132985,139789,13508,0.049,-0.951,-0.142,-0.305,0.244,0,356.9
132951,139898,43087,0.052,-0.955,-0.143,-0.305,0.244,0,356.904
132951,139788,13513,0.053,-0.954,-0.14,-0.061,0.305,0.061,356.91
132974,139898,43087,0.047,-0.953,-0.14,-0.061,0.305,0.061,356.914
132974,139795,13506,0.049,-0.951,-0.137,0.244,0.488,0.305,356.92
132998,139898,43087,0.047,-0.95,-0.133,0.244,0.488,0.305,356.924
132998,139783,13500,0.046,-0.95,-0.131,0.305,0.427,0.61,356.93
132968,139898,43087,0.047,-0.949,-0.135,0.305,0.427,0.61,356.934
132968,139832,13519,0.044,-0.948,-0.136,-0.183,0.427,0.854,356.94
132980,139898,43087,0.046,-0.949,-0.138,-0.183,0.427,0.854,356.944
132980,139812,13509,0.046,-0.953,-0.138,-0.732,0.366,0.915,356.95
132964,139898,43087,0.044,-0.951,-0.139,-0.732,0.366,0.915,356.954
132964,139801,13520,0.042,-0.949,-0.142,-0.915,0.366,0.915,356.96
132978,139898,43087,0.041,-0.947,-0.138,-0.915,0.366,0.915,356.964
132978,139815,13486,0.042,-0.95,-0.136,-1.037,0.244,0.793,356.97
132992,139898,43087,0.045,-0.953,-0.14,-1.037,0.244,0.793,356.974
132992,139794,13498,0.044,-0.949,-0.141,-1.22,0.244,0.549,356.98
132983,139898,43087,0.041,-0.952,-0.14,-1.22,0.244,0.549,356.983
132983,139795,13505,0.044,-0.952,-0.143,-1.159,0.305,0.244,356.99
132985,139898,43087,0.045,-0.953,-0.145,-1.159,0.305,0.244,356.993
132985,139796,13510,0.044,-0.954,-0.143,-1.037,0.244,0.061,356.999
132964,139898,43087,0.045,-0.951,-0.146,-1.037,0.244,0.061,357.003
132964,139825,13511,0.052,-0.95,-0.143,-1.098,0.244,-0.305,357.009
132977,139898,43087,0.048,-0.955,-0.143,-1.098,0.244,-0.305,357.013
132977,139806,13516,0.045,-0.953,-0.147,-0.732,0.183,-0.427,357.019
133003,139898,43087,0.049,-0.956,-0.144,-0.732,0.183,-0.427,357.023
133003,139826,13508,0.049,-0.952,-0.141,-0.366,0.244,-0.305,357.029
132986,139898,43087,0.047,-0.951,-0.142,-0.366,0.244,-0.305,357.033
132986,139823,13496,0.051,-0.95,-0.14,-0.183,0.244,-0.122,357.039
132984,139898,43087,0.051,-0.95,-0.14,-0.183,0.244,-0.122,357.043
132984,139814,13521,0.052,-0.947,-0.137,0.061,0.183,0.061,357.049
133003,139898,43087,0.052,-0.947,-0.137,0.061,0.183,0.061,357.053
133003,139822,13502,0.052,-0.945,-0.133,-0.244,0.305,0.366,357.059
132980,139898,43087,0.052,-0.945,-0.133,-0.244,0.305,0.366,357.063
132980,139815,13514,0.048,-0.95,-0.138,-0.976,0.427,0.732,357.069
132990,139898,43087,0.048,-0.95,-0.138,-0.976,0.427,0.732,357.072
132990,139809,13516,0.047,-0.955,-0.139,-0.854,0.427,0.915,357.079
132974,139898,43087,0.047,-0.955,-0.139,-0.854,0.427,0.915,357.082
132974,139786,13518,0.048,-0.95,-0.14,-0.915,0.366,0.854,357.089
132985,139898,43087,0.048,-0.95,-0.14,-0.915,0.366,0.854,357.092
132985,139796,13502,0.049,-0.946,-0.136,-1.159,0.244,0.793,357.098
132976,139898,43087,0.049,-0.946,-0.136,-1.159,0.244,0.793,357.102
132976,139801,13506,0.048,-0.952,-0.141,-1.28,0.122,0.61,357.108
132957,139898,43087,0.048,-0.952,-0.141,-1.28,0.122,0.61,357.112
132957,139806,13518,0.047,-0.947,-0.145,-1.585,0.122,0.366,357.118
132972,139898,43087,0.047,-0.947,-0.145,-1.585,0.122,0.366,357.122
132972,139778,13517,0.049,-0.954,-0.144,-1.524,0.122,0.427,357.128
132949,139898,43087,0.049,-0.954,-0.144,-1.524,0.122,0.427,357.132
132949,139789,13498,0.05,-0.948,-0.143,-1.159,0.244,0.61,357.138
132934,139642,43087,0.05,-0.948,-0.143,-1.159,0.244,0.61,357.142
132934,139773,13525,0.05,-0.95,-0.146,-1.098,0.366,0.915,357.148
132936,139642,43087,0.05,-0.95,-0.146,-1.098,0.366,0.915,357.152
132936,139747,13496,0.046,-0.957,-0.145,-0.732,0.488,0.915,357.158
132929,139642,43087,0.046,-0.957,-0.145,-0.732,0.488,0.915,357.162
132929,139757,13507,0.048,-0.956,-0.146,-0.122,0.61,0.854,357.168
132923,139642,43087,0.048,-0.956,-0.146,-0.122,0.61,0.854,357.171
132923,139743,13500,0.047,-0.952,-0.144,0.427,0.549,0.976,357.178
132909,139642,43087,0.047,-0.952,-0.144,0.427,0.549,0.976,357.181
132909,139741,13498,0.049,-0.949,-0.14,0.427,0.549,0.976,357.188
132938,139642,43087,0.049,-0.949,-0.137,0.427,0.61,1.159,357.191
132938,139757,13504,0.05,-0.949,-0.141,0.427,0.61,1.159,357.197
132919,139642,43087,0.051,-0.95,-0.145,0.183,0.671,1.28,357.201
132919,139734,13516,0.046,-0.949,-0.143,0.183,0.671,1.28,357.207
132937,139642,43087,0.049,-0.954,-0.141,0.244,0.61,1.585,357.211
132937,139747,13517,0.048,-0.954,-0.147,0.244,0.61,1.585,357.217
132918,139642,43087,0.045,-0.951,-0.142,0.183,0.671,1.707,357.221
132918,139746,13496,0.044,-0.946,-0.138,0.183,0.671,1.707,357.227
132939,139642,43087,0.045,-0.945,-0.141,-0.061,0.488,1.707,357.231
132939,139756,13511,0.043,-0.949,-0.144,-0.061,0.488,1.707,357.237
132918,139642,43087,0.044,-0.955,-0.14,-0.305,0.427,1.524,357.241
132918,139764,13511,0.043,-0.953,-0.141,-0.305,0.427,1.524,357.247
132903,139642,43087,0.041,-0.954,-0.142,-0.305,0.488,1.402,357.251
132903,139744,13497,0.046,-0.951,-0.142,-0.305,0.488,1.402,357.257
132910,139642,43087,0.045,-0.947,-0.142,-0.244,0.427,1.159,357.261
132910,139720,13496,0.045,-0.946,-0.136,-0.244,0.427,1.159,357.267
132907,139642,43087,0.044,-0.951,-0.138,-0.305,0.305,1.037,357.27
132907,139743,13484,0.042,-0.951,-0.137,-0.305,0.305,1.037,357.277
132882,139642,43087,0.042,-0.95,-0.141,-0.732,0.366,0.915,357.28
132882,139732,13495,0.042,-0.951,-0.139,-0.732,0.366,0.915,357.287
132906,139642,43087,0.041,-0.951,-0.143,-1.098,0.244,0.793,357.29
132906,139713,13498,0.047,-0.951,-0.141,-1.098,0.244,0.793,357.296
132906,139642,43087,0.045,-0.951,-0.14,-1.585,0.122,0.61,357.3
132906,139730,13488,0.043,-0.949,-0.141,-1.585,0.122,0.61,357.306
132887,139642,43087,0.046,-0.948,-0.143,-2.012,-0.061,0.671,357.31
132887,139743,13492,0.047,-0.947,-0.146,-2.012,-0.061,0.671,357.316
132904,139642,43087,0.042,-0.95,-0.146,-2.195,-0.061,0.61,357.32
132904,139741,13476,0.043,-0.951,-0.15,-2.195,-0.061,0.61,357.326
132873,139642,43087,0.044,-0.952,-0.147,-1.768,0.061,0.61,357.33
132873,139721,13493,0.044,-0.958,-0.146,-1.768,0.061,0.61,357.336
132868,139642,43087,0.044,-0.955,-0.145,-1.159,0.061,0.671,357.34
132868,139740,13515,0.048,-0.954,-0.141,-1.159,0.061,0.671,357.346
132885,139642,43087,0.046,-0.953,-0.146,-0.976,0.183,0.793,357.35
132885,139740,13484,0.045,-0.949,-0.146,-0.976,0.183,0.793,357.356
132879,139642,43087,0.045,-0.95,-0.144,-0.915,0.122,0.793,357.36
132879,139715,13487,0.043,-0.954,-0.144,-0.915,0.122,0.793,357.366
132870,139642,43087,0.045,-0.952,-0.143,-0.793,0.122,0.732,357.369
132870,139722,13485,0.048,-0.954,-0.143,-0.793,0.122,0.732,357.376
132852,139642,43087,0.045,-0.95,-0.145,-1.037,0.122,0.61,357.379
132852,139721,13489,0.045,-0.948,-0.145,-1.037,0.122,0.61,357.385
132849,139642,43087,0.043,-0.947,-0.147,-1.463,0,0.732,357.389
132849,139739,13478,0.044,-0.948,-0.149,-1.463,0,0.732,357.395
132844,139642,43087,0.044,-0.957,-0.146,-1.341,0.122,0.549,357.399
132844,139688,13484,0.045,-0.955,-0.148,-1.341,0.122,0.549,357.405
132847,139642,43087,0.045,-0.953,-0.144,-0.732,0.244,0.427,357.409
132847,139715,13487,0.045,-0.95,-0.143,-0.732,0.244,0.427,357.415
132838,139642,43087,0.046,-0.949,-0.144,-0.427,0.244,0.61,357.419
132838,139699,13482,0.045,-0.949,-0.143,-0.427,0.244,0.61,357.425
132837,139642,43087,0.044,-0.95,-0.146,-0.305,0.244,0.549,357.429
132837,139689,13483,0.046,-0.952,-0.143,-0.305,0.244,0.549,357.435
132863,139642,43087,0.046,-0.955,-0.147,-0.427,0.244,0.61,357.439
132863,139688,13472,0.044,-0.95,-0.142,-0.427,0.244,0.61,357.445
132838,139642,43087,0.044,-0.947,-0.145,-0.61,0.244,0.61,357.449
132838,139720,13488,0.045,-0.951,-0.144,-0.61,0.244,0.61,357.455
132851,139642,43087,0.045,-0.949,-0.143,-0.549,0,0.61,357.459
132851,139693,13490,0.045,-0.95,-0.145,-0.549,0,0.61,357.465
132835,139642,43087,0.044,-0.951,-0.148,-0.793,0.061,0.671,357.468
132835,139685,13473,0.045,-0.949,-0.145,-0.793,0.061,0.671,357.475
132856,139642,43087,0.044,-0.949,-0.145,-1.098,0.122,0.732,357.478
132856,139695,13463,0.044,-0.949,-0.146,-1.098,0.122,0.732,357.484
132845,139642,43087,0.044,-0.951,-0.146,-1.159,0,0.61,357.488
132845,139724,13479,0.044,-0.949,-0.148,-1.159,0,0.61,357.494
132866,139642,43087,0.047,-0.948,-0.144,-1.159,0.061,0.61,357.498
132866,139719,13493,0.044,-0.954,-0.144,-1.159,0.061,0.61,357.504
132863,139642,43087,0.043,-0.954,-0.145,-1.098,0.122,0.793,357.508
132863,139702,13469,0.042,-0.953,-0.141,-1.098,0.122,0.793,357.514
132867,139642,43087,0.045,-0.949,-0.146,-1.341,-0.061,0.854,357.518
132867,139733,13471,0.043,-0.951,-0.146,-1.341,-0.061,0.854,357.524
132837,139642,43087,0.047,-0.949,-0.146,-1.463,-0.183,0.915,357.528
132837,139703,13476,0.047,-0.951,-0.15,-1.463,-0.183,0.915,357.534
132863,139642,43087,0.042,-0.952,-0.151,-1.341,0.061,0.915,357.538
132863,139715,13474,0.041,-0.951,-0.146,-1.341,0.061,0.915,357.544
132836,139642,43087,0.044,-0.951,-0.15,-1.463,0.061,0.915,357.548
132836,139735,13480,0.045,-0.949,-0.146,-1.463,0.061,0.915,357.554
132859,139642,43087,0.043,-0.947,-0.141,-1.341,0,0.915,357.558
132859,139698,13492,0.043,-0.949,-0.148,-1.341,0,0.915,357.564
132827,139642,43087,0.043,-0.948,-0.149,-1.28,0.183,0.854,357.567
132827,139696,13485,0.043,-0.948,-0.147,-1.28,0.183,0.854,357.574
132806,139642,43087,0.043,-0.951,-0.153,-1.159,0.244,0.915,357.577
132806,139681,13471,0.041,-0.949,-0.15,-1.159,0.244,0.915,357.583
132800,139642,43087,0.042,-0.951,-0.148,-0.915,0.122,0.915,357.587
132800,139680,13464,0.043,-0.95,-0.15,-0.915,0.122,0.915,357.593
132807,139642,43087,0.04,-0.952,-0.15,-0.549,0.183,0.854,357.597
132807,139648,13483,0.041,-0.951,-0.15,-0.549,0.183,0.854,357.603
132789,139642,43087,0.043,-0.951,-0.149,-0.549,0.183,0.732,357.607
132789,139656,13474,0.041,-0.949,-0.151,-0.549,0.183,0.732,357.613
132782,139642,43087,0.045,-0.95,-0.148,-0.793,0.061,0.732,357.617
132782,139647,13464,0.047,-0.95,-0.146,-0.793,0.061,0.732,357.623
132776,139642,43087,0.047,-0.95,-0.146,-0.793,0.061,0.732,357.627
132776,139641,13469,0.044,-0.951,-0.146,-0.854,0.061,0.732,357.633
132757,139642,43087,0.044,-0.951,-0.146,-0.854,0.061,0.732,357.637
132757,139655,13455,0.044,-0.953,-0.15,-1.098,0.061,0.854,357.643
132742,139642,43087,0.044,-0.953,-0.15,-1.098,0.061,0.854,357.647
132742,139609,13471,0.04,-0.949,-0.15,-1.037,0.244,0.854,357.653
132770,139642,43087,0.04,-0.949,-0.15,-1.037,0.244,0.854,357.656
132770,139612,13460,0.044,-0.951,-0.15,-0.671,0.305,0.793,357.663
132730,139642,43087,0.044,-0.951,-0.15,-0.671,0.305,0.793,357.666
132730,139616,13485,0.04,-0.949,-0.146,-0.427,0.244,0.732,357.673
132746,139642,43087,0.04,-0.949,-0.146,-0.427,0.244,0.732,357.676
132746,139612,13478,0.044,-0.949,-0.146,-0.366,0.244,0.732,357.682
132747,139642,43087,0.044,-0.949,-0.146,-0.366,0.244,0.732,357.686
132747,139640,13470,0.043,-0.947,-0.15,-0.366,0.366,0.854,357.692
132731,139642,43087,0.043,-0.947,-0.15,-0.366,0.366,0.854,357.696
132731,139617,13465,0.042,-0.948,-0.148,-0.366,0.427,0.793,357.702
132747,139642,43087,0.042,-0.948,-0.148,-0.366,0.427,0.793,357.706
132747,139610,13470,0.044,-0.95,-0.147,-0.61,0.366,0.671,357.712
132754,139642,43087,0.044,-0.95,-0.147,-0.61,0.366,0.671,357.716
132754,139609,13450,0.043,-0.952,-0.152,-1.037,0.427,0.915,357.722
132723,139642,43087,0.043,-0.952,-0.152,-1.037,0.427,0.915,357.726
132723,139621,13467,0.043,-0.949,-0.149,-0.976,0.488,1.037,357.732
132720,139642,43087,0.043,-0.949,-0.149,-0.976,0.488,1.037,357.736
132720,139616,13465,0.041,-0.953,-0.152,-0.854,0.488,1.098,357.742
132718,139642,43087,0.041,-0.953,-0.152,-0.854,0.488,1.098,357.746
132718,139580,13462,0.043,-0.952,-0.159,-0.671,0.488,0.976,357.752
132714,139642,43087,0.043,-0.952,-0.159,-0.671,0.488,0.976,357.755
132714,139581,13453,0.041,-0.958,-0.154,0.183,0.671,0.61,357.762
132724,139642,43087,0.041,-0.958,-0.154,0.183,0.671,0.61,357.765
132724,139603,13441,0.041,-0.953,-0.15,0.976,0.61,0.427,357.772
132724,139642,43087,0.042,-0.95,-0.147,0.976,0.61,0.427,357.775
132724,139610,13462,0.045,-0.947,-0.148,0.793,0.427,0.427,357.781
132711,139642,43087,0.043,-0.946,-0.146,0.793,0.427,0.427,357.785
132711,139583,13446,0.041,-0.946,-0.144,0.183,0.244,0.488,357.791
132672,139642,43087,0.041,-0.948,-0.142,0.183,0.244,0.488,357.795
132672,139552,13445,0.04,-0.953,-0.141,-0.305,0.366,0.549,357.801
132714,139642,43087,0.042,-0.95,-0.143,-0.305,0.366,0.549,357.805
132714,139567,13448,0.04,-0.947,-0.144,-0.488,0.244,0.427,357.811
132679,139642,43087,0.043,-0.944,-0.142,-0.488,0.244,0.427,357.815
132679,139574,13458,0.043,-0.944,-0.143,-0.671,0.122,0.427,357.821
132684,139642,43087,0.041,-0.946,-0.147,-0.671,0.122,0.427,357.825
132684,139551,13454,0.045,-0.947,-0.148,-0.793,0.183,0.671,357.831
132666,139642,43087,0.042,-0.951,-0.146,-0.793,0.183,0.671,357.835
132666,139539,13447,0.04,-0.953,-0.146,-0.366,0.305,0.915,357.841
132647,139642,43087,0.041,-0.95,-0.141,-0.366,0.305,0.915,357.845
132647,139530,13451,0.039,-0.944,-0.145,-0.488,0.183,0.976,357.851
132645,139642,43087,0.042,-0.946,-0.147,-0.488,0.183,0.976,357.854
132645,139546,13468,0.039,-0.95,-0.147,-0.793,0.183,1.159,357.861
132648,139642,43087,0.036,-0.952,-0.15,-0.793,0.183,1.159,357.864
132648,139521,13451,0.037,-0.949,-0.145,-0.793,0.305,1.098,357.871
132655,139642,43087,0.037,-0.95,-0.148,-0.793,0.305,1.098,357.874
132655,139525,13447,0.035,-0.949,-0.15,-1.037,0.183,0.915,357.88
132647,139386,43087,0.034,-0.95,-0.151,-1.037,0.183,0.915,357.884
132647,139515,13453,0.04,-0.95,-0.149,-1.159,0,0.427,357.89
132638,139386,43087,0.039,-0.948,-0.15,-1.159,0,0.427,357.894
132638,139519,13461,0.038,-0.946,-0.152,-1.707,-0.061,0.061,357.9
132646,139386,43087,0.039,-0.949,-0.152,-1.707,-0.061,0.061,357.904
132646,139519,13441,0.039,-0.948,-0.154,-1.646,0,-0.183,357.91
132635,139386,43087,0.043,-0.952,-0.156,-1.646,0,-0.183,357.914
132635,139494,13450,0.046,-0.952,-0.154,-0.793,0.061,-0.305,357.92
132624,139642,43087,0.043,-0.95,-0.151,-0.793,0.061,-0.305,357.924
132624,139530,13446,0.043,-0.952,-0.15,-0.122,0.122,-0.061,357.93
132632,139642,43087,0.043,-0.95,-0.147,-0.122,0.122,-0.061,357.934
132632,139525,13454,0.044,-0.949,-0.142,-0.061,-0.122,0.122,357.94
132622,139386,43087,0.044,-0.949,-0.148,-0.061,-0.122,0.122,357.944
132622,139510,13448,0.041,-0.95,-0.144,-0.732,-0.061,0.366,357.95
132631,139386,43087,0.045,-0.949,-0.145,-0.732,-0.061,0.366,357.953
132631,139487,13446,0.044,-0.946,-0.144,-1.28,-0.122,0.488,357.96
132622,139642,43087,0.044,-0.946,-0.15,-1.28,-0.122,0.488,357.963
132622,139536,13459,0.044,-0.949,-0.153,-1.646,-0.183,0.61,357.97
132620,139386,43087,0.045,-0.951,-0.153,-1.646,-0.183,0.61,357.973
132620,139506,13446,0.043,-0.953,-0.15,-1.402,-0.061,0.793,357.979
132670,139386,43087,0.043,-0.952,-0.148,-1.402,-0.061,0.793,357.983
132670,139511,13459,0.042,-0.945,-0.148,-0.793,-0.061,0.915,357.989
132613,139386,43087,0.04,-0.947,-0.145,-0.793,-0.061,0.915,357.993
132613,139499,13455,0.041,-0.947,-0.146,-0.671,-0.061,0.793,357.999
132624,139386,43087,0.043,-0.949,-0.148,-0.671,-0.061,0.793,358.003
132624,139484,13427,0.041,-0.95,-0.147,-0.915,0.183,0.61,358.009
132624,139386,43087,0.041,-0.951,-0.152,-0.915,0.183,0.61,358.013
132624,139488,13459,0.041,-0.951,-0.156,-0.976,0.305,0.366,358.019
132597,139386,43087,0.041,-0.952,-0.153,-0.976,0.305,0.366,358.023
132597,139473,13447,0.041,-0.949,-0.151,-0.915,0.244,0.183,358.029
132600,139386,43087,0.041,-0.952,-0.148,-0.915,0.244,0.183,358.033
132600,139503,13445,0.043,-0.949,-0.149,-1.28,0.183,0.061,358.039
132605,139386,43087,0.042,-0.947,-0.15,-1.28,0.183,0.061,358.043
132605,139496,13454,0.043,-0.95,-0.156,-2.012,0.122,0.183,358.049
132601,139386,43087,0.045,-0.951,-0.155,-2.012,0.122,0.183,358.052
132601,139462,13433,0.047,-0.952,-0.158,-1.89,0.244,0.427,358.059
132580,139386,43087,0.043,-0.956,-0.156,-1.89,0.244,0.427,358.062
132580,139480,13449,0.043,-0.954,-0.155,-0.976,0.427,0.732,358.069
132575,139386,43087,0.046,-0.949,-0.154,-0.976,0.427,0.732,358.072
132575,139473,13434,0.045,-0.948,-0.154,-0.183,0.549,0.976,358.078
132599,139386,43087,0.045,-0.948,-0.151,-0.183,0.549,0.976,358.082
132599,139483,13453,0.044,-0.95,-0.15,0.244,0.549,1.341,358.088
132583,139386,43087,0.041,-0.951,-0.149,0.244,0.549,1.341,358.092
132583,139471,13443,0.04,-0.952,-0.152,0.488,0.61,1.585,358.098
132582,139386,43087,0.04,-0.951,-0.148,0.488,0.61,1.585,358.102
132582,139464,13456,0.042,-0.95,-0.144,0.427,0.427,1.707,358.108
132598,139386,43087,0.041,-0.945,-0.15,0.427,0.427,1.707,358.112
132598,139480,13446,0.04,-0.948,-0.152,-0.305,0.427,1.768,358.118
132579,139386,43087,0.039,-0.95,-0.149,-0.305,0.427,1.768,358.122
132579,139463,13456,0.038,-0.952,-0.151,-0.488,0.427,1.768,358.128
132579,139386,43087,0.039,-0.953,-0.152,-0.488,0.427,1.768,358.132
132579,139465,13454,0.038,-0.95,-0.15,-0.183,0.427,1.707,358.138
132579,139386,43087,0.04,-0.948,-0.148,-0.183,0.427,1.707,358.142
132579,139477,13454,0.038,-0.946,-0.152,-0.244,0.549,1.524,358.148
132586,139386,43087,0.039,-0.951,-0.151,-0.244,0.549,1.524,358.151
132586,139473,13454,0.037,-0.952,-0.155,-0.122,0.671,1.28,358.158
132591,139386,43087,0.035,-0.951,-0.154,-0.122,0.671,1.28,358.161
132591,139492,13443,0.037,-0.95,-0.154,0.122,0.732,1.098,358.168
132570,139386,43087,0.038,-0.951,-0.151,0.122,0.732,1.098,358.171
132570,139449,13435,0.036,-0.954,-0.146,0.61,0.732,0.549,358.177
132582,139386,43087,0.036,-0.947,-0.147,0.61,0.732,0.549,358.181
132582,139479,13439,0.039,-0.946,-0.15,0.61,0.488,0.305,358.187
132589,139386,43087,0.04,-0.946,-0.146,0.61,0.488,0.305,358.191
132589,139494,13434,0.039,-0.948,-0.147,-0.122,0.305,0.305,358.197
132597,139386,43087,0.038,-0.948,-0.149,-0.122,0.305,0.305,358.201
132597,139462,13438,0.038,-0.953,-0.15,-0.427,0.305,0.366,358.207
132581,139386,43087,0.038,-0.953,-0.15,-0.427,0.305,0.366,358.211
132581,139464,13428,0.041,-0.949,-0.153,-0.854,0.183,0.366,358.217
132571,139386,43087,0.041,-0.949,-0.153,-0.854,0.183,0.366,358.221
132571,139467,13445,0.041,-0.949,-0.148,-1.159,0.244,0.305,358.227
132550,139386,43087,0.041,-0.949,-0.148,-1.159,0.244,0.305,358.231
132550,139455,13442,0.04,-0.951,-0.154,-1.098,0.183,0.427,358.237
132540,139386,43087,0.04,-0.951,-0.154,-1.098,0.183,0.427,358.241
132540,139457,13434,0.039,-0.954,-0.151,-0.854,0.244,0.671,358.247
132565,139386,43087,0.039,-0.954,-0.151,-0.854,0.244,0.671,358.25
132565,139435,13422,0.038,-0.951,-0.152,-0.671,0.244,0.671,358.257
132543,139386,43087,0.038,-0.951,-0.152,-0.671,0.244,0.671,358.26
132543,139436,13427,0.038,-0.944,-0.153,-0.915,0.244,0.793,358.267
132544,139386,43087,0.038,-0.944,-0.153,-0.915,0.244,0.793,358.27
132544,139431,13435,0.04,-0.95,-0.154,-0.854,0.244,0.732,358.276
132542,139386,43087,0.04,-0.95,-0.154,-0.854,0.244,0.732,358.28
132542,139423,13419,0.038,-0.955,-0.151,-0.732,0.366,0.549,358.286
132530,139386,43087,0.038,-0.955,-0.151,-0.732,0.366,0.549,358.29
132530,139420,13441,0.036,-0.946,-0.144,-0.976,0.305,0.488,358.296
132538,139386,43087,0.036,-0.946,-0.144,-0.976,0.305,0.488,358.3
132538,139416,13413,0.036,-0.943,-0.144,-1.28,0,0.366,358.306
132514,139386,43087,0.036,-0.943,-0.144,-1.28,0,0.366,358.31
132514,139414,13426,0.038,-0.947,-0.148,-1.707,-0.061,0.061,358.316
132492,139386,43087,0.038,-0.947,-0.148,-1.707,-0.061,0.061,358.32
132492,139403,13425,0.039,-0.948,-0.148,-2.256,-0.061,0.183,358.326
132500,139386,43087,0.039,-0.948,-0.148,-2.256,-0.061,0.183,358.33
132500,139399,13416,0.04,-0.948,-0.155,-2.439,-0.061,0.366,358.336
132492,139386,43087,0.04,-0.948,-0.155,-2.439,-0.061,0.366,358.34
132492,139400,13421,0.038,-0.948,-0.156,-2.439,-0.061,0.366,358.346
132487,139386,43087,0.042,-0.954,-0.156,-2.195,0.061,0.366,358.349
132487,139405,13415,0.04,-0.955,-0.154,-2.195,0.061,0.366,358.356
132498,139386,43087,0.041,-0.951,-0.152,-1.829,0.061,0.305,358.359
132498,139402,13430,0.04,-0.946,-0.158,-1.829,0.061,0.305,358.365
132503,139386,43087,0.038,-0.947,-0.16,-1.89,0.061,0.427,358.369
132503,139398,13426,0.042,-0.953,-0.161,-1.89,0.061,0.427,358.375
132494,139386,43087,0.042,-0.952,-0.156,-1.768,0.122,0.488,358.379
132494,139360,13420,0.04,-0.949,-0.161,-1.768,0.122,0.488,358.385
132477,139386,43087,0.042,-0.95,-0.159,-1.28,0.122,0.671,358.389
132477,139401,13431,0.043,-0.952,-0.156,-1.28,0.122,0.671,358.395
132483,139386,43087,0.044,-0.949,-0.152,-0.976,0.183,0.854,358.399
132483,139392,13414,0.038,-0.946,-0.153,-0.976,0.183,0.854,358.405
132490,139386,43087,0.039,-0.946,-0.158,-0.671,0.244,1.159,358.409
132490,139388,13424,0.042,-0.952,-0.156,-0.671,0.244,1.159,358.415
132502,139386,43087,0.04,-0.956,-0.156,-0.549,0.305,1.402,358.419
132502,139420,13415,0.039,-0.954,-0.16,-0.549,0.305,1.402,358.425
132482,139386,43087,0.038,-0.951,-0.16,-0.488,0.488,1.524,358.429
132482,139388,13429,0.038,-0.951,-0.156,-0.488,0.488,1.524,358.435
132502,139386,43087,0.036,-0.948,-0.153,-0.061,0.305,1.463,358.439
132502,139398,13424,0.038,-0.949,-0.152,-0.061,0.305,1.463,358.445
132511,139386,43087,0.039,-0.948,-0.154,-0.122,0.244,1.463,358.448
132511,139406,13430,0.039,-0.95,-0.157,-0.122,0.244,1.463,358.455
132506,139386,43087,0.04,-0.95,-0.161,-0.427,0.244,1.402,358.458
132506,139417,13416,0.037,-0.954,-0.161,-0.427,0.244,1.402,358.464
132514,139386,43087,0.035,-0.953,-0.158,-0.061,0.305,1.402,358.468
132514,139401,13425,0.04,-0.953,-0.157,-0.061,0.305,1.402,358.474
132513,139386,43087,0.039,-0.951,-0.154,0.854,0.427,1.341,358.478
132513,139403,13414,0.038,-0.946,-0.154,0.854,0.427,1.341,358.484
132493,139386,43087,0.033,-0.946,-0.154,1.22,0.671,1.402,358.488
132493,139389,13384,0.033,-0.949,-0.151,1.22,0.671,1.402,358.494
132502,139386,43087,0.036,-0.949,-0.155,1.22,0.671,1.524,358.498
132502,139377,13421,0.035,-0.946,-0.153,1.22,0.671,1.524,358.504
132484,139386,43087,0.035,-0.946,-0.148,0.915,0.427,1.768,358.508
132484,139379,13439,0.033,-0.946,-0.148,0.915,0.427,1.768,358.514
132489,139386,43087,0.036,-0.947,-0.152,0.305,0.366,1.707,358.518
132489,139381,13419,0.037,-0.947,-0.146,0.305,0.366,1.707,358.524
132485,139386,43087,0.036,-0.95,-0.147,-0.305,0.366,1.524,358.528
132485,139380,13437,0.038,-0.946,-0.151,-0.305,0.366,1.524,358.534
132502,139386,43087,0.037,-0.95,-0.154,-1.341,0.244,1.463,358.537
132502,139393,13412,0.035,-0.954,-0.158,-1.341,0.244,1.463,358.544
132474,139386,43087,0.035,-0.951,-0.157,-1.951,0.122,1.463,358.547
132474,139386,13415,0.035,-0.952,-0.159,-1.951,0.122,1.463,358.554
132505,139386,43087,0.036,-0.954,-0.16,-1.707,0.061,1.402,358.557
132505,139392,13415,0.035,-0.953,-0.159,-1.707,0.061,1.402,358.563
132466,139386,43087,0.036,-0.953,-0.163,-1.524,0.122,1.341,358.567
132466,139373,13425,0.036,-0.951,-0.168,-1.524,0.122,1.341,358.573
132463,139386,43087,0.032,-0.95,-0.165,-1.037,0.061,1.159,358.577
132463,139382,13418,0.031,-0.952,-0.158,-1.037,0.061,1.159,358.583
132465,139386,43087,0.034,-0.948,-0.16,0.305,0.366,0.671,358.587
132465,139367,13419,0.037,-0.948,-0.157,0.305,0.366,0.671,358.593
132451,139386,43087,0.039,-0.949,-0.152,0.854,0.366,0,358.597
132451,139357,13423,0.038,-0.95,-0.144,0.854,0.366,0,358.603
132447,139386,43087,0.038,-0.948,-0.15,0.366,0.183,0,358.607
132447,139360,13408,0.037,-0.945,-0.152,0.366,0.183,0,358.613
132422,139386,43087,0.035,-0.939,-0.15,-0.244,0.061,0.305,358.617
132422,139351,13404,0.037,-0.942,-0.149,-0.244,0.061,0.305,358.623
132434,139386,43087,0.04,-0.945,-0.147,-0.244,-0.061,0.488,358.627
132434,139320,13415,0.041,-0.945,-0.151,-0.244,-0.061,0.488,358.633
132411,139386,43087,0.039,-0.95,-0.15,-0.366,0,0.61,358.636
132411,139347,13407,0.036,-0.95,-0.153,-0.366,0,0.61,358.643
132415,139386,43087,0.036,-0.953,-0.15,-1.159,0.305,1.037,358.646
132415,139311,13398,0.033,-0.955,-0.153,-1.159,0.305,1.037,358.653
132401,139386,43087,0.037,-0.955,-0.16,-1.159,0.427,1.28,358.656
132401,139339,13411,0.034,-0.954,-0.16,-1.159,0.427,1.28,358.662
132398,139386,43087,0.034,-0.957,-0.159,-0.793,0.488,1.585,358.666
132398,139311,13412,0.033,-0.955,-0.159,-0.793,0.488,1.585,358.672
132392,139386,43087,0.03,-0.952,-0.154,-0.488,0.488,1.829,358.676
132392,139326,13412,0.031,-0.947,-0.153,-0.488,0.488,1.829,358.682
132391,139386,43087,0.032,-0.945,-0.152,-0.671,0.183,1.768,358.686
132391,139301,13404,0.034,-0.946,-0.154,-0.671,0.183,1.768,358.692
132396,139386,43087,0.033,-0.95,-0.156,-1.22,0,1.707,358.696
132396,139315,13402,0.029,-0.949,-0.155,-1.22,0,1.707,358.702
132391,139386,43087,0.03,-0.949,-0.157,-1.585,0.061,1.707,358.706
132391,139316,13422,0.03,-0.948,-0.163,-1.585,0.061,1.707,358.712
132413,139386,43087,0.03,-0.948,-0.158,-1.89,0,1.463,358.716
132413,139316,13403,0.031,-0.952,-0.157,-1.89,0,1.463,358.722
132407,139386,43087,0.034,-0.95,-0.159,-1.646,-0.122,1.037,358.726
132407,139335,13413,0.036,-0.953,-0.159,-1.646,-0.122,1.037,358.732
132411,139386,43087,0.036,-0.952,-0.159,-0.976,0,0.732,358.735
132411,139315,13414,0.032,-0.953,-0.16,-0.976,0,0.732,358.742
132415,139386,43087,0.032,-0.953,-0.16,-0.732,0.122,0.671,358.745
132415,139345,13418,0.034,-0.953,-0.161,-0.732,0.122,0.671,358.751
132431,139386,43087,0.036,-0.953,-0.154,-0.488,0.122,0.61,358.755
132431,139336,13427,0.035,-0.949,-0.156,-0.488,0.122,0.61,358.761
132424,139386,43087,0.035,-0.95,-0.153,-0.427,0.183,0.549,358.765
132424,139342,13401,0.035,-0.95,-0.152,-0.427,0.183,0.549,358.771
132418,139386,43087,0.036,-0.946,-0.155,-0.366,0.244,0.61,358.775
132418,139317,13412,0.037,-0.945,-0.156,-0.366,0.244,0.61,358.781
132447,139386,43087,0.037,-0.945,-0.156,-0.366,0.244,0.61,358.785
132447,139348,13413,0.036,-0.956,-0.161,-0.549,0.183,0.61,358.791
132425,139386,43087,0.036,-0.956,-0.161,-0.549,0.183,0.61,358.795
132425,139324,13423,0.028,-0.951,-0.159,-0.793,0.305,0.61,358.801
132429,139386,43087,0.028,-0.951,-0.159,-0.793,0.305,0.61,358.805
132429,139327,13411,0.033,-0.944,-0.153,-0.488,0.427,0.366,358.811
132416,139386,43087,0.033,-0.944,-0.153,-0.488,0.427,0.366,358.815
132416,139338,13410,0.029,-0.946,-0.154,-0.366,0.427,-0.244,358.821
132416,139386,43087,0.029,-0.946,-0.154,-0.366,0.427,-0.244,358.825
132416,139299,13413,0.035,-0.948,-0.149,-0.671,0.366,-0.427,358.831
132393,139386,43087,0.035,-0.948,-0.149,-0.671,0.366,-0.427,358.834
132393,139293,13412,0.041,-0.943,-0.155,-0.976,0.305,-0.61,358.841
132378,139386,43087,0.041,-0.943,-0.155,-0.976,0.305,-0.61,358.844
132378,139282,13420,0.039,-0.942,-0.16,-2.012,0.122,-0.305,358.85
132387,139386,43087,0.039,-0.942,-0.16,-2.012,0.122,-0.305,358.854
132387,139277,13412,0.036,-0.956,-0.165,-2.622,0.122,0.183,358.86
132363,139386,43087,0.036,-0.956,-0.165,-2.622,0.122,0.183,358.864
132363,139279,13410,0.037,-0.954,-0.163,-2.134,0.305,0.366,358.87
132369,139130,43087,0.037,-0.954,-0.163,-2.134,0.305,0.366,358.874
132369,139257,13415,0.037,-0.952,-0.162,-1.524,0.183,0.61,358.88
132343,139386,43087,0.037,-0.952,-0.162,-1.524,0.183,0.61,358.884
132343,139265,13391,0.036,-0.95,-0.165,-0.61,0.427,1.098,358.89
132329,139130,43087,0.036,-0.95,-0.165,-0.61,0.427,1.098,358.894
132329,139257,13399,0.035,-0.955,-0.164,0.244,0.61,1.524,358.9
132306,139130,43087,0.035,-0.955,-0.164,0.244,0.61,1.524,358.904
132306,139231,13403,0.034,-0.948,-0.16,0.671,0.549,1.829,358.91
132282,139130,43087,0.034,-0.948,-0.16,0.671,0.549,1.829,358.914
132282,139201,13403,0.034,-0.944,-0.157,0.854,0.305,1.951,358.92
132289,139130,43087,0.035,-0.944,-0.153,0.854,0.305,1.951,358.923
132289,139191,13391,0.035,-0.948,-0.155,0.732,0.305,1.951,358.93
132279,139130,43087,0.03,-0.947,-0.158,0.732,0.305,1.951,358.933
132279,139198,13395,0.03,-0.943,-0.157,0.183,0.305,2.134,358.94
132272,139130,43087,0.033,-0.945,-0.158,0.183,0.305,2.134,358.943
132272,139202,13403,0.029,-0.948,-0.158,-0.183,0.122,2.134,358.949
132293,139130,43087,0.029,-0.952,-0.158,-0.183,0.122,2.134,358.953
132293,139192,13405,0.029,-0.952,-0.16,-0.244,-0.122,1.89,358.959
132266,139130,43087,0.027,-0.954,-0.154,-0.244,-0.122,1.89,358.963
132266,139191,13371,0.031,-0.951,-0.153,-0.183,0,1.646,358.969
132255,139130,43087,0.031,-0.948,-0.152,-0.183,0,1.646,358.973
132255,139188,13388,0.031,-0.95,-0.153,-0.183,0.061,1.159,358.979
132262,139130,43087,0.031,-0.952,-0.15,-0.183,0.061,1.159,358.983
132262,139166,13391,0.029,-0.951,-0.151,-0.915,-0.122,1.159,358.989
132251,139130,43087,0.027,-0.949,-0.155,-0.915,-0.122,1.159,358.993
132251,139163,13393,0.028,-0.948,-0.154,-1.829,-0.305,1.098,358.999
132251,139130,43087,0.029,-0.945,-0.156,-1.829,-0.305,1.098,359.003
132251,139163,13387,0.03,-0.943,-0.153,-2.683,-0.549,0.732,359.009
132238,139130,43087,0.025,-0.941,-0.154,-2.683,-0.549,0.732,359.013
132238,139178,13395,0.031,-0.946,-0.157,-3.476,-0.854,0.305,359.019
132255,139130,43087,0.031,-0.945,-0.161,-3.476,-0.854,0.305,359.022
132255,139148,13374,0.032,-0.947,-0.166,-3.902,-0.793,0.244,359.029
132245,139130,43087,0.032,-0.952,-0.168,-3.902,-0.793,0.244,359.032
132245,139130,13390,0.03,-0.955,-0.17,-3.11,-0.366,0.244,359.039
132255,139130,43087,0.033,-0.954,-0.171,-3.11,-0.366,0.244,359.042
132255,139166,13364,0.033,-0.954,-0.173,-2.012,-0.061,0.305,359.048
132259,139130,43087,0.029,-0.952,-0.166,-2.012,-0.061,0.305,359.052
132259,139176,13386,0.029,-0.951,-0.166,-0.976,0.122,0.244,359.058
132240,139130,43087,0.031,-0.95,-0.162,-0.976,0.122,0.244,359.062
132240,139156,13373,0.033,-0.949,-0.16,-0.244,0.183,0.122,359.068
132262,139130,43087,0.035,-0.951,-0.159,-0.244,0.183,0.122,359.072
132262,139175,13389,0.034,-0.951,-0.158,-0.549,0.061,0.122,359.078
132259,139130,43087,0.032,-0.946,-0.156,-0.549,0.061,0.122,359.082
132259,139201,13369,0.032,-0.942,-0.158,-0.915,0.061,0.305,359.088
132243,139130,43087,0.035,-0.945,-0.158,-0.915,0.061,0.305,359.092
132243,139178,13381,0.034,-0.945,-0.163,-1.28,-0.122,0.488,359.098
132248,139130,43087,0.032,-0.947,-0.161,-1.28,-0.122,0.488,359.102
132248,139163,13381,0.034,-0.951,-0.161,-1.22,0.122,0.915,359.108
132263,139130,43087,0.032,-0.951,-0.163,-1.22,0.122,0.915,359.112
132263,139169,13381,0.032,-0.953,-0.166,-1.037,0.244,1.22,359.118
132252,139130,43087,0.034,-0.951,-0.162,-1.037,0.244,1.22,359.121
132252,139189,13388,0.031,-0.952,-0.16,-0.61,0.305,1.463,359.128
132257,139130,43087,0.03,-0.947,-0.164,-0.61,0.305,1.463,359.131
132257,139186,13368,0.032,-0.945,-0.166,-0.305,0.183,1.646,359.138
132236,139130,43087,0.031,-0.948,-0.167,-0.305,0.183,1.646,359.141
132236,139159,13379,0.028,-0.955,-0.163,0,0.305,1.707,359.147
132249,139130,43087,0.03,-0.958,-0.166,0,0.305,1.707,359.151
132249,139166,13372,0.028,-0.956,-0.165,0.427,0.488,1.646,359.157
132234,139130,43087,0.024,-0.955,-0.165,0.427,0.488,1.646,359.161
132234,139169,13395,0.026,-0.95,-0.159,0.671,0.305,1.402,359.167
132235,139130,43087,0.026,-0.944,-0.158,0.671,0.305,1.402,359.171
132235,139156,13377,0.03,-0.941,-0.156,0.732,0.183,0.854,359.177
132233,139130,43087,0.032,-0.943,-0.157,0.732,0.183,0.854,359.181
132233,139148,13369,0.03,-0.947,-0.159,-0.122,0.061,0.61,359.187
132257,139130,43087,0.029,-0.95,-0.16,-0.122,0.061,0.61,359.191
132257,139169,13372,0.03,-0.947,-0.159,-0.61,0.122,0.671,359.197
132255,139130,43087,0.03,-0.949,-0.159,-0.61,0.122,0.671,359.201
132255,139165,13384,0.03,-0.946,-0.155,-0.915,0.183,0.732,359.207
132273,139130,43087,0.031,-0.945,-0.163,-0.915,0.183,0.732,359.211
132273,139175,13376,0.03,-0.946,-0.166,-1.28,-0.061,0.732,359.217
132258,139130,43087,0.03,-0.949,-0.166,-1.28,-0.061,0.732,359.22
132258,139194,13373,0.027,-0.953,-0.163,-1.098,0.061,0.915,359.227
132256,139130,43087,0.032,-0.951,-0.168,-1.098,0.061,0.915,359.23
132256,139170,13375,0.031,-0.951,-0.168,-0.915,-0.122,0.976,359.236
132245,139130,43087,0.03,-0.951,-0.162,-0.915,-0.122,0.976,359.24
132245,139157,13391,0.032,-0.951,-0.163,-0.427,0,0.976,359.246
132248,139130,43087,0.031,-0.947,-0.161,-0.427,0,0.976,359.25
132248,139164,13372,0.029,-0.944,-0.159,0,0.244,1.098,359.256
132219,139130,43087,0.027,-0.947,-0.164,0,0.244,1.098,359.26
132219,139137,13371,0.031,-0.949,-0.162,-0.183,0.305,1.22,359.266
132248,139130,43087,0.031,-0.952,-0.168,-0.183,0.305,1.22,359.27
132248,139150,13362,0.026,-0.955,-0.165,-0.061,0.366,1.402,359.276
132231,139130,43087,0.027,-0.953,-0.158,-0.061,0.366,1.402,359.28
132231,139141,13370,0.029,-0.947,-0.159,0.549,0.244,1.098,359.286
132220,139130,43087,0.03,-0.941,-0.156,0.549,0.244,1.098,359.29
132220,139144,13355,0.032,-0.938,-0.156,0.183,0.244,0.854,359.296
132196,139130,43087,0.031,-0.943,-0.161,0.183,0.244,0.854,359.3
132196,139123,13363,0.031,-0.949,-0.163,-0.671,0.183,1.22,359.306
132190,139130,43087,0.027,-0.953,-0.161,-0.671,0.183,1.22,359.31
132190,139102,13364,0.027,-0.952,-0.161,-1.159,0.305,1.463,359.316
132195,139130,43087,0.029,-0.948,-0.166,-1.159,0.305,1.463,359.319
132195,139101,13395,0.03,-0.945,-0.164,-1.22,0.061,1.524,359.326
132204,139130,43087,0.03,-0.946,-0.162,-1.22,0.061,1.524,359.329
132204,139097,13363,0.03,-0.95,-0.164,-0.976,0,1.524,359.335
132209,139130,43087,0.028,-0.951,-0.162,-0.976,0,1.524,359.339
132209,139134,13384,0.028,-0.949,-0.162,-0.732,0,1.585,359.345
132214,139130,43087,0.027,-0.944,-0.163,-0.732,0,1.585,359.349
132214,139135,13364,0.026,-0.948,-0.162,-1.22,-0.183,1.524,359.355
132227,139130,43087,0.026,-0.948,-0.162,-1.22,-0.183,1.524,359.359
132227,139120,13383,0.027,-0.948,-0.162,-1.341,-0.305,1.341,359.365
132231,139130,43087,0.027,-0.948,-0.162,-1.341,-0.305,1.341,359.369
132231,139147,13369,0.027,-0.946,-0.162,-1.341,-0.427,1.159,359.375
132212,139130,43087,0.027,-0.946,-0.162,-1.341,-0.427,1.159,359.379
132212,139141,13393,0.029,-0.944,-0.161,-1.524,-0.427,1.159,359.385
132233,139130,43087,0.029,-0.944,-0.161,-1.524,-0.427,1.159,359.389
132233,139115,13382,0.028,-0.948,-0.16,-1.037,-0.427,1.463,359.395
132220,139130,43087,0.028,-0.948,-0.16,-1.037,-0.427,1.463,359.399
132220,139134,13376,0.028,-0.952,-0.161,-0.854,-0.244,1.646,359.405
132228,139130,43087,0.028,-0.952,-0.161,-0.854,-0.244,1.646,359.408
132228,139132,13362,0.026,-0.946,-0.159,-1.341,-0.244,1.524,359.415
132237,139130,43087,0.026,-0.946,-0.159,-1.341,-0.244,1.524,359.418
132237,139134,13389,0.024,-0.949,-0.159,-1.951,-0.366,1.402,359.425
132240,139130,43087,0.024,-0.949,-0.159,-1.951,-0.366,1.402,359.428
132240,139147,13386,0.026,-0.945,-0.162,-2.561,-0.61,1.585,359.434
132259,139130,43087,0.026,-0.945,-0.162,-2.561,-0.61,1.585,359.438
132259,139151,13385,0.021,-0.951,-0.169,-3.11,-0.61,1.646,359.444
132244,139130,43087,0.021,-0.951,-0.169,-3.11,-0.61,1.646,359.448
132244,139149,13376,0.022,-0.949,-0.167,-2.683,-0.671,1.402,359.454
132252,139130,43087,0.022,-0.949,-0.167,-2.683,-0.671,1.402,359.458
132252,139155,13400,0.025,-0.942,-0.164,-2.073,-0.61,0.915,359.464
132266,139130,43087,0.025,-0.942,-0.164,-2.073,-0.61,0.915,359.468
132266,139165,13394,0.025,-0.945,-0.163,-2.439,-0.671,0.976,359.474
132287,139130,43087,0.025,-0.945,-0.163,-2.439,-0.671,0.976,359.478
132287,139164,13392,0.025,-0.95,-0.167,-2.744,-0.488,0.976,359.484
132271,139130,43087,0.025,-0.95,-0.167,-2.744,-0.488,0.976,359.488
132271,139155,13392,0.023,-0.95,-0.169,-2.744,-0.488,0.976,359.494
132280,139130,43087,0.024,-0.949,-0.167,-2.683,-0.488,0.549,359.498
132280,139159,13384,0.024,-0.947,-0.167,-2.683,-0.488,0.549,359.504
132287,139130,43087,0.023,-0.947,-0.169,-2.927,-0.671,0.244,359.507
132287,139187,13376,0.024,-0.949,-0.17,-2.927,-0.671,0.244,359.514
132295,139130,43087,0.025,-0.948,-0.171,-3.171,-0.793,0.366,359.517
132295,139159,13407,0.026,-0.954,-0.172,-3.171,-0.793,0.366,359.524
132303,139130,43087,0.028,-0.953,-0.171,-2.744,-0.732,0.427,359.527
132303,139184,13385,0.029,-0.949,-0.173,-2.744,-0.732,0.427,359.533
132297,139130,43087,0.027,-0.947,-0.169,-2.073,-0.61,0.488,359.537
132297,139157,13393,0.029,-0.946,-0.17,-2.073,-0.61,0.488,359.543
132305,139130,43087,0.028,-0.948,-0.167,-1.524,-0.488,0.549,359.547
132305,139181,13391,0.031,-0.946,-0.169,-1.524,-0.488,0.549,359.553
132337,139130,43087,0.029,-0.946,-0.169,-1.402,-0.427,0.732,359.557
132337,139199,13400,0.026,-0.949,-0.172,-1.402,-0.427,0.732,359.563
132302,139130,43087,0.024,-0.954,-0.177,-1.341,-0.427,1.098,359.567
132302,139206,13396,0.024,-0.951,-0.175,-1.341,-0.427,1.098,359.573
132314,139130,43087,0.026,-0.949,-0.174,-0.854,-0.305,1.159,359.577
132314,139177,13388,0.024,-0.947,-0.176,-0.854,-0.305,1.159,359.583
132332,139130,43087,0.027,-0.944,-0.173,-0.244,-0.244,1.159,359.587
132332,139192,13399,0.028,-0.948,-0.172,-0.244,-0.244,1.159,359.593
132320,139130,43087,0.025,-0.949,-0.175,-0.061,-0.366,1.707,359.597
132320,139207,13394,0.022,-0.952,-0.172,-0.061,-0.366,1.707,359.603
132311,139130,43087,0.025,-0.954,-0.172,0.122,-0.305,2.012,359.606
132311,139201,13387,0.026,-0.95,-0.168,0.122,-0.305,2.012,359.613
132328,139130,43087,0.025,-0.946,-0.166,0.305,-0.427,1.768,359.616
132328,139185,13380,0.023,-0.942,-0.166,0.305,-0.427,1.768,359.622
132314,139130,43087,0.025,-0.944,-0.169,0.061,-0.427,1.768,359.626
132314,139172,13395,0.022,-0.946,-0.17,0.061,-0.427,1.768,359.632
132301,139130,43087,0.023,-0.95,-0.172,0,-0.305,1.768,359.636
132301,139142,13377,0.02,-0.953,-0.169,0,-0.305,1.768,359.642
132288,139130,43087,0.021,-0.953,-0.169,0.244,-0.061,1.707,359.646
132288,139158,13370,0.022,-0.95,-0.162,0.244,-0.061,1.707,359.652
132246,139130,43087,0.02,-0.943,-0.163,0.305,-0.122,1.585,359.656
132246,139167,13382,0.021,-0.94,-0.164,0.305,-0.122,1.585,359.662
132256,139130,43087,0.023,-0.943,-0.166,-0.183,-0.305,1.524,359.666
132256,139105,13396,0.025,-0.946,-0.167,-0.183,-0.305,1.524,359.672
132238,139130,43087,0.023,-0.95,-0.172,-0.549,-0.305,1.341,359.676
132238,139131,13384,0.022,-0.953,-0.173,-0.549,-0.305,1.341,359.682
132243,139130,43087,0.02,-0.948,-0.172,-0.549,-0.244,1.463,359.686
132243,139125,13385,0.023,-0.946,-0.168,-0.549,-0.244,1.463,359.692
132205,139130,43087,0.024,-0.946,-0.171,-0.305,-0.366,1.524,359.695
132205,139105,13374,0.021,-0.948,-0.172,-0.305,-0.366,1.524,359.702
132196,139130,43087,0.021,-0.949,-0.166,-0.122,-0.366,1.402,359.705
132196,139074,13381,0.021,-0.951,-0.163,-0.122,-0.366,1.402,359.712
132177,139130,43087,0.019,-0.95,-0.164,-0.122,-0.366,1.28,359.715
132177,139080,13378,0.019,-0.946,-0.166,-0.122,-0.366,1.28,359.721
132176,139130,43087,0.018,-0.946,-0.169,-0.427,-0.427,1.037,359.725
132176,139074,13365,0.019,-0.948,-0.166,-0.427,-0.427,1.037,359.731
132159,139130,43087,0.02,-0.946,-0.167,-0.732,-0.427,0.61,359.735
132159,139047,13359,0.02,-0.948,-0.169,-0.732,-0.427,0.61,359.741
132150,139130,43087,0.019,-0.949,-0.171,-0.854,-0.244,0.427,359.745
132150,139036,13375,0.021,-0.948,-0.17,-0.854,-0.244,0.427,359.751
132152,139130,43087,0.024,-0.946,-0.169,-0.915,-0.244,0.244,359.755
132152,139029,13366,0.024,-0.946,-0.172,-0.915,-0.244,0.244,359.761
132126,138874,43087,0.022,-0.946,-0.173,-0.793,-0.122,-0.061,359.765
132126,139005,13361,0.023,-0.948,-0.171,-0.793,-0.122,-0.061,359.771
132131,139130,43087,0.026,-0.947,-0.173,-0.671,-0.061,-0.244,359.775
132131,139015,13351,0.023,-0.948,-0.174,-0.671,-0.061,-0.244,359.781
132102,138874,43087,0.022,-0.947,-0.173,-0.671,0.061,0.061,359.785
132102,138988,13377,0.02,-0.953,-0.177,-0.671,0.061,0.061,359.791
132094,138874,43087,0.021,-0.955,-0.181,-0.244,0.305,0.366,359.794
132094,138993,13355,0.023,-0.953,-0.178,-0.244,0.305,0.366,359.801
132100,138874,43087,0.02,-0.949,-0.176,0.549,0.549,0.488,359.804
132100,138978,13367,0.018,-0.947,-0.174,0.549,0.549,0.488,359.811
132085,138874,43087,0.021,-0.944,-0.174,1.524,0.671,0.488,359.814
132085,138985,13364,0.022,-0.946,-0.171,1.524,0.671,0.488,359.82
132086,138874,43087,0.021,-0.953,-0.169,2.439,0.915,0.366,359.824
132086,138991,13349,0.019,-0.953,-0.169,2.439,0.915,0.366,359.83
132070,138874,43087,0.019,-0.952,-0.166,3.049,1.159,0.122,359.834
132070,138975,13346,0.018,-0.947,-0.159,3.049,1.159,0.122,359.84
132106,138874,43087,0.019,-0.942,-0.165,2.744,1.037,0,359.844
132106,138984,13362,0.02,-0.939,-0.166,2.744,1.037,0,359.85
132071,138874,43087,0.019,-0.939,-0.165,2.012,0.854,-0.122,359.854
132071,138987,13346,0.02,-0.944,-0.166,2.012,0.854,-0.122,359.86
132091,138874,43087,0.02,-0.953,-0.165,1.463,0.732,-0.122,359.864
132091,138969,13372,0.021,-0.953,-0.165,1.463,0.732,-0.122,359.87
132106,138874,43087,0.025,-0.948,-0.164,1.22,0.732,-0.305,359.874
132106,138992,13353,0.025,-0.947,-0.164,1.22,0.732,-0.305,359.88
132125,138874,43087,0.022,-0.945,-0.161,0.976,0.671,-0.488,359.884
132125,138982,13358,0.021,-0.943,-0.162,0.976,0.671,-0.488,359.89
132107,139130,43087,0.022,-0.947,-0.161,0.427,0.732,-0.183,359.893
132107,139012,13374,0.024,-0.947,-0.163,0.427,0.732,-0.183,359.9
132103,138874,43087,0.027,-0.951,-0.165,-0.183,0.61,0,359.903
132103,139003,13361,0.028,-0.952,-0.167,-0.183,0.61,0,359.91
132129,138874,43087,0.029,-0.95,-0.173,-0.488,0.427,-0.061,359.913
132129,139007,13373,0.03,-0.951,-0.17,-0.488,0.427,-0.061,359.919
132131,138874,43087,0.026,-0.955,-0.168,-0.244,0.488,0.305,359.923
132131,138998,13365,0.022,-0.954,-0.174,-0.244,0.488,0.305,359.929
132138,139130,43087,0.022,-0.954,-0.174,-0.244,0.488,0.305,359.933
132138,139012,13351,0.024,-0.944,-0.169,-0.366,0.427,0.61,359.939
132116,138874,43087,0.024,-0.944,-0.169,-0.366,0.427,0.61,359.943
132116,139007,13365,0.022,-0.945,-0.17,-0.366,0.244,0.488,359.949
132143,139130,43087,0.022,-0.945,-0.17,-0.366,0.244,0.488,359.953
132143,139010,13358,0.018,-0.954,-0.168,-0.244,0.305,0.366,359.959
132117,138874,43087,0.018,-0.954,-0.168,-0.244,0.305,0.366,359.963
132117,138996,13360,0.018,-0.954,-0.163,0.183,0.427,0.305,359.969
132095,138874,43087,0.018,-0.954,-0.163,0.183,0.427,0.305,359.973
132095,138955,13366,0.021,-0.949,-0.16,0.549,0.305,-0.549,359.979
132097,138874,43087,0.021,-0.949,-0.16,0.549,0.305,-0.549,359.983
132097,138974,13362,0.024,-0.944,-0.16,0.305,0.305,-1.463,359.989
132099,138874,43087,0.024,-0.944,-0.16,0.305,0.305,-1.463,359.992
132099,138980,13368,0.019,-0.943,-0.167,-0.366,0.122,-1.646,359.999
132096,138874,43087,0.019,-0.943,-0.167,-0.366,0.122,-1.646,360.002
132096,138969,13366,0.026,-0.949,-0.171,-0.732,0.183,-1.829,360.009
132131,138874,43087,0.026,-0.949,-0.171,-0.732,0.183,-1.829,360.012
132131,138981,13357,0.026,-0.95,-0.168,-0.671,0.122,-2.073,360.018
132095,138874,43087,0.026,-0.95,-0.168,-0.671,0.122,-2.073,360.022
132095,138979,13359,0.025,-0.948,-0.167,-0.488,0.244,-1.951,360.028
132093,138874,43087,0.025,-0.948,-0.167,-0.488,0.244,-1.951,360.032
132093,138983,13358,0.026,-0.946,-0.161,-0.549,0.488,-1.463,360.038
132117,138874,43087,0.026,-0.946,-0.161,-0.549,0.488,-1.463,360.042
132117,138983,13353,0.025,-0.949,-0.165,-0.915,0.427,-1.098,360.048
132100,138874,43087,0.025,-0.949,-0.165,-0.915,0.427,-1.098,360.052
132100,138964,13364,0.024,-0.946,-0.164,-1.524,0.244,-0.671,360.058
132106,139130,43087,0.024,-0.946,-0.164,-1.524,0.244,-0.671,360.062
132106,139010,13357,0.025,-0.948,-0.168,-1.951,0.122,-0.488,360.068
132092,138874,43087,0.027,-0.946,-0.17,-1.951,0.122,-0.488,360.072
132092,138994,13364,0.027,-0.95,-0.169,-1.646,0.366,-0.366,360.078
132138,138874,43087,0.024,-0.953,-0.173,-1.646,0.366,-0.366,360.082
132138,138991,13354,0.022,-0.954,-0.173,-0.976,0.488,-0.122,360.088
132125,138874,43087,0.024,-0.953,-0.172,-0.976,0.488,-0.122,360.091
132125,138995,13368,0.024,-0.952,-0.169,-0.305,0.366,-0.183,360.098
132147,139130,43087,0.025,-0.949,-0.166,-0.305,0.366,-0.183,360.101
132147,139023,13376,0.026,-0.945,-0.168,0.122,0.427,-0.305,360.108
132179,139130,43087,0.024,-0.947,-0.164,0.122,0.427,-0.305,360.111
132179,139052,13372,0.023,-0.947,-0.162,0.061,0.549,-0.549,360.117
132200,139130,43087,0.023,-0.947,-0.163,0.061,0.549,-0.549,360.121
132200,139040,13375,0.023,-0.945,-0.161,-0.488,0.61,-0.61,360.127
132212,139130,43087,0.025,-0.945,-0.163,-0.488,0.61,-0.61,360.131
132212,139059,13378,0.025,-0.943,-0.161,-1.037,0.61,-0.793,360.137
132243,139130,43087,0.028,-0.939,-0.162,-1.037,0.61,-0.793,360.141
132243,139089,13383,0.033,-0.943,-0.165,-1.646,0.366,-1.28,360.147
132230,139130,43087,0.028,-0.944,-0.169,-1.646,0.366,-1.28,360.151
132230,139094,13401,0.029,-0.949,-0.17,-1.89,0.488,-1.402,360.157
132280,139130,43087,0.03,-0.956,-0.174,-1.89,0.488,-1.402,360.161
132280,139082,13390,0.029,-0.956,-0.18,-1.585,0.671,-1.037,360.167
132269,139130,43087,0.028,-0.954,-0.177,-1.585,0.671,-1.037,360.171
132269,139099,13382,0.029,-0.952,-0.172,-0.427,0.915,-0.915,360.177
132274,139130,43087,0.03,-0.947,-0.172,-0.427,0.915,-0.915,360.181
132274,139115,13394,0.031,-0.95,-0.171,0.488,1.098,-0.854,360.187
132285,139130,43087,0.031,-0.944,-0.171,0.488,1.098,-0.854,360.19
132285,139118,13375,0.03,-0.949,-0.173,0.793,1.098,-0.488,360.197
132312,139130,43087,0.031,-0.954,-0.172,0.793,1.098,-0.488,360.2
132312,139114,13391,0.027,-0.951,-0.17,0.854,1.159,-0.366,360.206
132305,139130,43087,0.025,-0.953,-0.17,0.854,1.159,-0.366,360.21
132305,139131,13405,0.029,-0.948,-0.166,0.854,1.159,-0.427,360.216
132292,139130,43087,0.029,-0.946,-0.167,0.854,1.159,-0.427,360.22
132292,139114,13399,0.03,-0.948,-0.17,0.732,0.976,-0.366,360.226
132309,139130,43087,0.027,-0.947,-0.165,0.732,0.976,-0.366,360.23
132309,139115,13391,0.028,-0.948,-0.164,0.61,0.976,-0.244,360.236
132288,139130,43087,0.03,-0.948,-0.17,0.61,0.976,-0.244,360.24
132288,139141,13391,0.031,-0.947,-0.169,0.488,0.915,-0.305,360.246
132305,139130,43087,0.032,-0.946,-0.168,0.488,0.915,-0.305,360.25
132305,139132,13395,0.03,-0.95,-0.167,0.732,0.793,-0.183,360.256
132293,139130,43087,0.03,-0.949,-0.167,0.732,0.793,-0.183,360.26
132293,139152,13396,0.03,-0.944,-0.165,1.037,1.037,-0.061,360.266
132312,139130,43087,0.029,-0.944,-0.165,1.037,1.037,-0.061,360.27
132312,139141,13388,0.031,-0.943,-0.166,0.732,0.915,0.122,360.276
132329,139130,43087,0.026,-0.944,-0.164,0.732,0.915,0.122,360.28
132329,139142,13390,0.024,-0.948,-0.161,0.183,0.793,0.183,360.286
132343,139130,43087,0.026,-0.945,-0.161,0.183,0.793,0.183,360.289
132343,139164,13403,0.027,-0.944,-0.161,-0.244,0.671,-0.061,360.296
132350,139130,43087,0.029,-0.941,-0.156,-0.244,0.671,-0.061,360.299
132350,139157,13417,0.029,-0.939,-0.159,-0.915,0.488,-0.366,360.305
132333,139130,43087,0.027,-0.942,-0.164,-0.915,0.488,-0.366,360.309
132333,139152,13404,0.024,-0.945,-0.167,-1.829,0.488,-0.488,360.315
132329,139130,43087,0.028,-0.95,-0.173,-1.829,0.488,-0.488,360.319
132329,139152,13398,0.03,-0.953,-0.172,-2.134,0.427,-0.671,360.325
132336,139130,43087,0.027,-0.956,-0.171,-2.134,0.427,-0.671,360.329
132336,139179,13389,0.03,-0.953,-0.17,-1.463,0.366,-0.732,360.335
132318,139130,43087,0.03,-0.945,-0.169,-1.463,0.366,-0.732,360.339
132318,139138,13397,0.03,-0.944,-0.17,-0.671,0.244,-0.732,360.345
132325,139130,43087,0.03,-0.948,-0.164,-0.671,0.244,-0.732,360.349
132325,139129,13390,0.03,-0.952,-0.166,-0.366,0.244,-0.61,360.355
132336,139130,43087,0.026,-0.949,-0.168,-0.366,0.244,-0.61,360.359
132336,139124,13406,0.031,-0.948,-0.169,-0.61,0.244,-0.488,360.365
132301,139130,43087,0.03,-0.945,-0.169,-0.61,0.244,-0.488,360.369
132301,139139,13394,0.03,-0.946,-0.167,-1.037,0.183,-0.549,360.375
132312,139130,43087,0.032,-0.944,-0.169,-1.037,0.183,-0.549,360.379
132312,139128,13396,0.032,-0.946,-0.17,-1.402,0.244,-0.488,360.385
132313,139130,43087,0.031,-0.95,-0.171,-1.402,0.244,-0.488,360.388
132313,139136,13385,0.029,-0.947,-0.167,-1.402,0.305,-0.305,360.395
132316,139130,43087,0.028,-0.947,-0.172,-1.402,0.305,-0.305,360.398
132316,139130,13394,0.029,-0.951,-0.173,-1.098,0.366,-0.244,360.404
132288,139130,43087,0.029,-0.948,-0.172,-1.098,0.366,-0.244,360.408
132288,139115,13395,0.031,-0.946,-0.173,-0.61,0.305,-0.122,360.414
132282,139130,43087,0.032,-0.944,-0.174,-0.61,0.305,-0.122,360.418
132282,139105,13395,0.032,-0.947,-0.17,-0.061,0.427,-0.122,360.424
132284,139130,43087,0.03,-0.95,-0.175,-0.061,0.427,-0.122,360.428
132284,139106,13398,0.031,-0.951,-0.173,0.793,0.61,-0.061,360.434
132288,139130,43087,0.031,-0.949,-0.164,0.793,0.61,-0.061,360.438
132288,139123,13390,0.032,-0.946,-0.165,1.159,0.671,-0.061,360.444
132293,139130,43087,0.032,-0.944,-0.168,1.159,0.671,-0.061,360.448
132293,139130,13382,0.032,-0.949,-0.171,0.915,0.732,0.061,360.454
132304,139130,43087,0.031,-0.95,-0.166,0.915,0.732,0.061,360.458
132304,139099,13384,0.031,-0.949,-0.168,0.854,0.732,-0.061,360.464
132291,139130,43087,0.033,-0.95,-0.173,0.854,0.732,-0.061,360.468
132291,139119,13395,0.032,-0.951,-0.174,1.28,0.854,-0.122,360.474
132326,139130,43087,0.033,-0.95,-0.175,1.28,0.854,-0.122,360.478
132326,139145,13393,0.033,-0.949,-0.175,1.951,1.037,-0.061,360.484
132323,139130,43087,0.03,-0.951,-0.17,1.951,1.037,-0.061,360.487
132323,139152,13374,0.031,-0.949,-0.162,2.561,1.22,0.244,360.494
132331,139130,43087,0.033,-0.949,-0.165,2.561,1.22,0.244,360.497
132331,139143,13392,0.032,-0.952,-0.167,2.988,1.22,0.244,360.503
132355,139130,43087,0.032,-0.952,-0.167,2.988,1.22,0.244,360.507
132355,139152,13380,0.031,-0.947,-0.16,3.049,1.22,0.183,360.513
132365,139130,43087,0.031,-0.947,-0.16,3.049,1.22,0.183,360.517
132365,139184,13394,0.029,-0.94,-0.161,2.378,1.159,0.244,360.523
132392,139130,43087,0.029,-0.94,-0.161,2.378,1.159,0.244,360.527
132392,139191,13389,0.027,-0.946,-0.162,1.28,0.976,0.549,360.533
132396,139130,43087,0.027,-0.946,-0.162,1.28,0.976,0.549,360.537
132396,139182,13399,0.03,-0.95,-0.167,1.28,1.037,0.366,360.543
132421,139130,43087,0.03,-0.95,-0.167,1.28,1.037,0.366,360.547
132421,139194,13392,0.032,-0.946,-0.163,1.89,1.22,-0.183,360.553
132424,139130,43087,0.032,-0.946,-0.163,1.89,1.22,-0.183,360.557
132424,139250,13415,0.032,-0.945,-0.164,1.89,1.28,-0.061,360.563
132418,139130,43087,0.032,-0.945,-0.164,1.89,1.28,-0.061,360.567
132418,139219,13405,0.034,-0.949,-0.166,1.829,1.402,0.122,360.573
132429,139130,43087,0.034,-0.949,-0.166,1.829,1.402,0.122,360.576
132429,139208,13409,0.032,-0.949,-0.162,1.951,1.402,0.366,360.583
132408,139130,43087,0.032,-0.949,-0.162,1.951,1.402,0.366,360.586
132408,139213,13389,0.032,-0.945,-0.162,1.463,1.22,0.61,360.593
132403,139130,43087,0.032,-0.945,-0.162,1.463,1.22,0.61,360.596
132403,139207,13410,0.026,-0.945,-0.16,0.854,0.915,0.61,360.602
132409,139130,43087,0.026,-0.945,-0.16,0.854,0.915,0.61,360.606
132409,139202,13395,0.03,-0.948,-0.164,0.427,0.793,0.366,360.612
132383,139130,43087,0.03,-0.948,-0.164,0.427,0.793,0.366,360.616
132383,139170,13393,0.027,-0.951,-0.168,0.305,0.793,0.122,360.622
132372,139130,43087,0.027,-0.951,-0.168,0.305,0.793,0.122,360.626
132372,139204,13401,0.03,-0.955,-0.166,0.854,0.61,-0.366,360.632
132400,139130,43087,0.03,-0.955,-0.166,0.854,0.61,-0.366,360.636
132400,139190,13383,0.032,-0.947,-0.161,1.22,0.61,-0.671,360.642
132360,139130,43087,0.032,-0.947,-0.161,1.22,0.61,-0.671,360.646
132360,139163,13387,0.031,-0.946,-0.155,1.22,0.61,-0.671,360.652
132363,139130,43087,0.033,-0.944,-0.156,0.976,0.671,-0.854,360.656
132363,139167,13394,0.032,-0.95,-0.153,0.976,0.671,-0.854,360.662
132323,139130,43087,0.031,-0.951,-0.161,0.549,0.61,-1.037,360.666
132323,139167,13386,0.031,-0.95,-0.158,0.549,0.61,-1.037,360.672
132314,139130,43087,0.032,-0.951,-0.155,0.122,0.549,-1.22,360.676
132314,139159,13380,0.033,-0.952,-0.157,0.122,0.549,-1.22,360.682
132329,139130,43087,0.034,-0.948,-0.16,-0.61,0.305,-1.098,360.685
132329,139124,13394,0.034,-0.945,-0.16,-0.61,0.305,-1.098,360.692
132341,139130,43087,0.032,-0.943,-0.161,-1.159,0.122,-0.732,360.695
132341,139140,13386,0.029,-0.945,-0.161,-1.159,0.122,-0.732,360.701
132338,139130,43087,0.03,-0.945,-0.163,-1.098,0.183,-0.488,360.705
132338,139154,13388,0.031,-0.948,-0.164,-1.098,0.183,-0.488,360.711
132322,139130,43087,0.033,-0.948,-0.162,-1.159,0.122,-0.305,360.715
132322,139158,13384,0.032,-0.946,-0.163,-1.159,0.122,-0.305,360.721
132321,139130,43087,0.033,-0.946,-0.167,-1.22,0.183,-0.122,360.725
132321,139128,13384,0.033,-0.951,-0.164,-1.22,0.183,-0.122,360.731
132371,139130,43087,0.033,-0.951,-0.161,-0.854,0.366,-0.122,360.735
132371,139168,13392,0.032,-0.951,-0.161,-0.854,0.366,-0.122,360.741
132360,139130,43087,0.03,-0.95,-0.158,-0.61,0.366,-0.183,360.745
132360,139179,13394,0.029,-0.948,-0.159,-0.61,0.366,-0.183,360.751
132393,139130,43087,0.03,-0.946,-0.161,-1.28,0.183,-0.244,360.755
132393,139213,13392,0.032,-0.95,-0.164,-1.28,0.183,-0.244,360.761
132407,139130,43087,0.033,-0.951,-0.167,-1.951,0,-0.549,360.765
132407,139202,13412,0.032,-0.948,-0.159,-1.951,0,-0.549,360.771
132422,139130,43087,0.033,-0.947,-0.162,-2.073,-0.122,-0.915,360.774
132422,139251,13408,0.036,-0.943,-0.166,-2.073,-0.122,-0.915,360.781
132456,139130,43087,0.036,-0.941,-0.166,-2.439,-0.122,-0.976,360.784
132456,139225,13403,0.034,-0.946,-0.168,-2.439,-0.122,-0.976,360.791
132464,139130,43087,0.035,-0.952,-0.166,-1.951,-0.061,-0.976,360.794
132464,139237,13406,0.036,-0.953,-0.167,-1.951,-0.061,-0.976,360.8
132480,139130,43087,0.038,-0.95,-0.166,-1.22,0.244,-0.793,360.804
132480,139252,13406,0.038,-0.946,-0.164,-1.22,0.244,-0.793,360.81
132480,139386,43087,0.036,-0.946,-0.162,-0.732,0.488,-0.61,360.814
132480,139287,13420,0.039,-0.947,-0.162,-0.732,0.488,-0.61,360.82
132531,139386,43087,0.04,-0.947,-0.164,-0.488,0.427,-0.488,360.824
132531,139295,13412,0.037,-0.952,-0.167,-0.488,0.427,-0.488,360.83
132509,139386,43087,0.036,-0.953,-0.172,-0.61,0.427,-0.244,360.834
132509,139297,13419,0.036,-0.954,-0.165,-0.61,0.427,-0.244,360.84
132519,139386,43087,0.039,-0.948,-0.164,-0.427,0.488,0,360.844
132519,139308,13413,0.036,-0.947,-0.168,-0.427,0.488,0,360.85
132536,139386,43087,0.033,-0.947,-0.169,-0.122,0.549,0.122,360.854
132536,139306,13421,0.034,-0.948,-0.168,-0.122,0.549,0.122,360.86
132546,139386,43087,0.038,-0.952,-0.166,-0.244,0.61,0.305,360.864
132546,139289,13413,0.034,-0.949,-0.169,-0.244,0.61,0.305,360.87
132539,139386,43087,0.038,-0.95,-0.166,-0.061,0.671,0.183,360.873
132539,139294,13433,0.036,-0.952,-0.167,-0.061,0.671,0.183,360.88
132533,139386,43087,0.036,-0.952,-0.166,0.488,0.793,0.183,360.883
132533,139313,13426,0.035,-0.953,-0.165,0.488,0.793,0.183,360.89
132517,139386,43087,0.035,-0.945,-0.164,0.976,0.976,0.305,360.893
132517,139301,13419,0.036,-0.949,-0.167,0.976,0.976,0.305,360.899
132515,139386,43087,0.037,-0.946,-0.166,0.976,0.854,0.305,360.903
132515,139284,13408,0.036,-0.948,-0.168,0.976,0.854,0.305,360.909
132520,139386,43087,0.036,-0.953,-0.163,1.22,0.854,0.427,360.913
132520,139273,13421,0.036,-0.949,-0.164,1.22,0.854,0.427,360.919
132508,139386,43087,0.038,-0.946,-0.161,1.524,0.854,0.61,360.923
132508,139292,13416,0.038,-0.943,-0.164,1.524,0.854,0.61,360.929
132510,139386,43087,0.036,-0.947,-0.165,1.707,0.976,0.793,360.933
132510,139297,13420,0.038,-0.951,-0.166,1.707,0.976,0.793,360.939
132538,139386,43087,0.037,-0.951,-0.164,2.073,0.976,0.915,360.943
132538,139280,13417,0.036,-0.948,-0.165,2.073,0.976,0.915,360.949
132527,139386,43087,0.036,-0.95,-0.16,2.317,1.098,1.037,360.953
132527,139298,13416,0.038,-0.948,-0.161,2.317,1.098,1.037,360.959
132520,139386,43087,0.033,-0.945,-0.158,2.195,1.037,1.098,360.963
132520,139284,13410,0.034,-0.944,-0.158,2.195,1.037,1.098,360.969
132523,139386,43087,0.035,-0.945,-0.158,1.463,0.976,1.098,360.972
132523,139287,13402,0.034,-0.95,-0.156,1.463,0.976,1.098,360.979
132508,139386,43087,0.032,-0.944,-0.156,0.61,0.793,1.22,360.982
132508,139288,13410,0.032,-0.948,-0.155,0.61,0.793,1.22,360.989
132510,139386,43087,0.033,-0.948,-0.157,-0.061,0.732,1.159,360.992
132510,139309,13415,0.03,-0.952,-0.156,-0.061,0.732,1.159,360.998
132502,139130,43087,0.032,-0.946,-0.154,-0.61,0.427,0.854,361.002
132502,139260,13418,0.032,-0.945,-0.158,-0.61,0.427,0.854,361.008
132498,139386,43087,0.03,-0.947,-0.161,-1.402,0.305,0.671,361.012
132498,139281,13407,0.031,-0.945,-0.16,-1.402,0.305,0.671,361.018
132479,139386,43087,0.033,-0.949,-0.162,-1.707,0.366,0.488,361.022
132479,139299,13407,0.03,-0.95,-0.164,-1.707,0.366,0.488,361.028
132475,139130,43087,0.03,-0.95,-0.157,-1.707,0.122,0.366,361.032
132475,139259,13400,0.029,-0.947,-0.159,-1.707,0.122,0.366,361.038
132468,139130,43087,0.031,-0.948,-0.163,-1.829,0.122,0.244,361.042
132468,139261,13397,0.032,-0.946,-0.164,-1.829,0.122,0.244,361.048
132459,139130,43087,0.034,-0.948,-0.166,-1.707,0.061,0.122,361.052
132459,139256,13388,0.035,-0.954,-0.162,-1.707,0.061,0.122,361.058
132457,139130,43087,0.035,-0.955,-0.165,-1.463,0.183,0.122,361.062
132457,139250,13392,0.035,-0.952,-0.163,-1.463,0.183,0.122,361.068
132409,139130,43087,0.035,-0.948,-0.162,-1.341,0.061,0.122,361.071
132409,139220,13397,0.036,-0.949,-0.164,-1.341,0.061,0.122,361.078
132433,139130,43087,0.037,-0.947,-0.166,-1.28,0.122,0.122,361.081
132433,139224,13392,0.036,-0.949,-0.16,-1.28,0.122,0.122,361.087
132425,139130,43087,0.036,-0.949,-0.16,-1.28,0.122,0.122,361.091
132425,139204,13396,0.034,-0.948,-0.165,-1.341,0,0.061,361.097
132417,139130,43087,0.034,-0.948,-0.165,-1.341,0,0.061,361.101
132417,139243,13389,0.033,-0.947,-0.169,-1.89,0.061,0.061,361.107
132417,139130,43087,0.033,-0.947,-0.169,-1.89,0.061,0.061,361.111
132417,139222,13395,0.033,-0.949,-0.167,-1.707,0.061,0.061,361.117
132403,139130,43087,0.033,-0.949,-0.167,-1.707,0.061,0.061,361.121
132403,139223,13387,0.036,-0.95,-0.162,-1.037,0.122,-0.061,361.127
132409,139130,43087,0.036,-0.95,-0.162,-1.037,0.122,-0.061,361.131
132409,139207,13382,0.035,-0.946,-0.165,-0.976,0.183,0,361.137
132420,139130,43087,0.035,-0.946,-0.165,-0.976,0.183,0,361.141
132420,139226,13383,0.035,-0.952,-0.166,-1.28,0.244,0,361.147
132436,139130,43087,0.035,-0.952,-0.166,-1.28,0.244,0,361.151
132436,139223,13385,0.036,-0.954,-0.167,-1.098,0.244,-0.183,361.157
132433,139130,43087,0.036,-0.954,-0.167,-1.098,0.244,-0.183,361.161
132433,139225,13403,0.032,-0.948,-0.168,-0.61,0.244,-0.183,361.167
132459,139130,43087,0.032,-0.948,-0.168,-0.61,0.244,-0.183,361.17
132459,139247,13414,0.034,-0.944,-0.166,-0.61,0.305,-0.061,361.177
132456,139130,43087,0.034,-0.944,-0.166,-0.61,0.305,-0.061,361.18
132456,139249,13389,0.036,-0.951,-0.165,-0.549,0.366,0.122,361.186
132473,139130,43087,0.036,-0.951,-0.165,-0.549,0.366,0.122,361.19
132473,139245,13398,0.037,-0.948,-0.166,0,0.488,0.061,361.196
132508,139386,43087,0.037,-0.948,-0.166,0,0.488,0.061,361.2
132508,139282,13393,0.038,-0.948,-0.168,0.488,0.427,0.122,361.206
132503,139130,43087,0.038,-0.948,-0.168,0.488,0.427,0.122,361.21
132503,139252,13408,0.038,-0.949,-0.168,0.793,0.549,-0.061,361.216
132511,139386,43087,0.038,-0.949,-0.168,0.793,0.549,-0.061,361.22
132511,139281,13404,0.038,-0.948,-0.159,0.976,0.671,0,361.226
132529,139386,43087,0.038,-0.948,-0.159,0.976,0.671,0,361.23
132529,139298,13394,0.038,-0.947,-0.162,0.61,0.671,0.427,361.236
132538,139386,43087,0.039,-0.943,-0.167,0.61,0.671,0.427,361.24
132538,139313,13408,0.041,-0.945,-0.164,0.305,0.732,0.671,361.246
132545,139386,43087,0.036,-0.95,-0.166,0.305,0.732,0.671,361.25
132545,139320,13417,0.035,-0.947,-0.166,0.244,0.793,0.793,361.256
132556,139386,43087,0.036,-0.948,-0.165,0.244,0.793,0.793,361.26
132556,139332,13417,0.036,-0.945,-0.166,0.305,0.793,0.732,361.266
132544,139386,43087,0.032,-0.946,-0.161,0.305,0.793,0.732,361.269
132544,139316,13395,0.035,-0.947,-0.166,0.549,0.732,0.427,361.276
132557,139386,43087,0.035,-0.951,-0.166,0.549,0.732,0.427,361.279
132557,139330,13408,0.033,-0.951,-0.161,0.915,0.732,0.244,361.285
132549,139386,43087,0.031,-0.951,-0.162,0.915,0.732,0.244,361.289
132549,139328,13407,0.033,-0.951,-0.161,1.098,0.793,0.122,361.295
132528,139386,43087,0.036,-0.944,-0.163,1.098,0.793,0.122,361.299
132528,139318,13410,0.032,-0.945,-0.161,1.037,0.549,-0.122,361.305
132516,139386,43087,0.033,-0.946,-0.164,1.037,0.549,-0.122,361.309
132516,139275,13404,0.037,-0.948,-0.162,0.915,0.488,-0.244,361.315
132513,139386,43087,0.04,-0.95,-0.16,0.915,0.488,-0.244,361.319
132513,139270,13395,0.036,-0.95,-0.158,1.098,0.61,-0.122,361.325
132484,139386,43087,0.033,-0.952,-0.164,1.098,0.61,-0.122,361.329
132484,139283,13409,0.035,-0.95,-0.157,0.976,0.61,-0.061,361.335
132476,139130,43087,0.033,-0.947,-0.156,0.976,0.61,-0.061,361.339
132476,139256,13410,0.034,-0.945,-0.158,0.732,0.488,0.061,361.345
132501,139130,43087,0.036,-0.944,-0.157,0.732,0.488,0.061,361.349
132501,139260,13400,0.035,-0.945,-0.161,0.183,0.427,0.183,361.355
132462,139130,43087,0.035,-0.947,-0.157,0.183,0.427,0.183,361.358
132462,139243,13401,0.032,-0.947,-0.156,-0.305,0.427,0.305,361.365
132463,139130,43087,0.032,-0.949,-0.16,-0.305,0.427,0.305,361.368
132463,139259,13401,0.032,-0.948,-0.163,-0.793,0.366,0.427,361.375
132428,139130,43087,0.032,-0.949,-0.159,-0.793,0.366,0.427,361.378
132428,139206,13381,0.034,-0.948,-0.161,-1.098,0.244,0.366,361.384
132429,139130,43087,0.034,-0.948,-0.162,-1.098,0.244,0.366,361.388
132429,139214,13406,0.034,-0.949,-0.16,-1.159,0.305,0.183,361.394
132430,139130,43087,0.032,-0.948,-0.159,-1.159,0.305,0.183,361.398
132430,139219,13376,0.033,-0.949,-0.159,-1.22,0.244,0,361.404
132438,139130,43087,0.032,-0.947,-0.161,-1.22,0.244,0,361.408
132438,139205,13387,0.032,-0.951,-0.164,-1.402,0.122,-0.183,361.414
132425,139130,43087,0.033,-0.953,-0.163,-1.402,0.122,-0.183,361.418
132425,139206,13385,0.036,-0.951,-0.161,-1.22,0.061,-0.488,361.424
132421,139130,43087,0.035,-0.948,-0.162,-1.22,0.061,-0.488,361.428
132421,139182,13386,0.033,-0.946,-0.165,-1.22,-0.061,-0.671,361.434
132407,139130,43087,0.034,-0.948,-0.17,-1.22,-0.061,-0.671,361.438
132407,139186,13378,0.036,-0.946,-0.165,-1.037,0.122,-0.854,361.444
132426,139130,43087,0.038,-0.946,-0.167,-1.037,0.122,-0.854,361.448
132426,139225,13382,0.037,-0.951,-0.163,-0.732,0.244,-1.098,361.454
132426,139130,43087,0.04,-0.95,-0.163,-0.732,0.244,-1.098,361.457
132426,139202,13386,0.04,-0.946,-0.16,-0.488,0.244,-1.037,361.464
132429,139130,43087,0.04,-0.947,-0.161,-0.488,0.244,-1.037,361.467
