126501,132986,43087,0.005,-0.96,0.121,0.915,0.549,0,67.886
126501,132911,12760,0.006,-0.958,0.123,0.61,0.549,0.122,67.892
126493,132986,43087,0.006,-0.958,0.123,0.61,0.549,0.122,67.896
126493,132907,12762,0.008,-0.96,0.122,0.122,0.488,0.427,67.902
126500,132986,43087,0.008,-0.96,0.122,0.122,0.488,0.427,67.906
126500,132919,12769,0.01,-0.961,0.12,0.183,0.549,0.488,67.912
126504,132986,43087,0.01,-0.961,0.12,0.183,0.549,0.488,67.916
126504,132928,12761,0.008,-0.964,0.115,0.183,0.549,0.549,67.922
126497,132986,43087,0.008,-0.964,0.115,0.183,0.549,0.549,67.926
126497,132928,12757,0.005,-0.971,0.119,0,0.549,0.793,67.932
126498,132986,43087,0.005,-0.971,0.119,0,0.549,0.793,67.936
126498,132922,12763,0.004,-0.969,0.116,0.061,0.732,0.915,67.942
126507,132986,43087,0.004,-0.969,0.116,0.061,0.732,0.915,67.946
126507,132930,12746,0.006,-0.963,0.119,0.244,0.732,0.793,67.952
126517,132986,43087,0.006,-0.963,0.119,0.244,0.732,0.793,67.955
126517,132933,12775,0.008,-0.971,0.12,0.549,0.61,0.61,67.962
126523,132986,43087,0.008,-0.971,0.12,0.549,0.61,0.61,67.965
126523,132914,12758,0.007,-0.963,0.119,1.037,0.671,0.549,67.972
126495,132986,43087,0.007,-0.963,0.119,1.037,0.671,0.549,67.975
126495,132905,12752,0.007,-0.965,0.116,1.098,0.61,0.793,67.981
126500,132986,43087,0.007,-0.965,0.116,1.098,0.61,0.793,67.985
126500,132924,12742,0.006,-0.967,0.117,1.829,0.671,0.671,67.991
126460,132986,43087,0.006,-0.967,0.117,1.829,0.671,0.671,67.995
126460,132889,12753,0.004,-0.963,0.126,2.378,0.915,0.854,68.001
126489,132986,43087,0.004,-0.963,0.126,2.378,0.915,0.854,68.005
126489,132889,12754,0.003,-0.957,0.127,2.012,0.793,1.098,68.011
126468,132986,43087,0.003,-0.957,0.127,2.012,0.793,1.098,68.015
126468,132881,12746,0.004,-0.962,0.124,1.22,0.549,0.976,68.021
126446,132986,43087,0.004,-0.962,0.124,1.22,0.549,0.976,68.025
126446,132880,12756,0.001,-0.961,0.123,1.22,0.549,0.976,68.031
126457,132986,43087,0.004,-0.96,0.13,0.427,0.427,0.671,68.035
126457,132882,12751,0.005,-0.962,0.131,0.427,0.427,0.671,68.041
126459,132730,43087,0.005,-0.962,0.124,0,0.305,0.671,68.045
126459,132860,12747,0.003,-0.962,0.126,0,0.305,0.671,68.051
126461,132986,43087,0.003,-0.966,0.127,-0.427,0.183,0.732,68.054
126461,132896,12745,0.001,-0.959,0.129,-0.427,0.183,0.732,68.061
126475,132986,43087,0.001,-0.958,0.124,-1.341,0.061,0.61,68.064
126475,132886,12759,0.006,-0.959,0.122,-1.341,0.061,0.61,68.071
126468,132986,43087,0.005,-0.962,0.122,-2.256,-0.061,0.244,68.074
126468,132877,12747,0.003,-0.965,0.119,-2.256,-0.061,0.244,68.08
126463,132986,43087,0.001,-0.969,0.118,-2.195,-0.183,0.244,68.084
126463,132898,12766,0.007,-0.97,0.115,-2.195,-0.183,0.244,68.09
126498,132986,43087,0.006,-0.969,0.114,-1.463,0.061,0.183,68.094
126498,132905,12769,0.006,-0.966,0.121,-1.463,0.061,0.183,68.1
126533,132986,43087,0.006,-0.965,0.119,-0.915,0.305,0.122,68.104
126533,132944,12751,0.004,-0.965,0.114,-0.915,0.305,0.122,68.11
126556,132986,43087,0.009,-0.97,0.117,-0.488,0.366,0.183,68.114
126556,132937,12764,0.009,-0.972,0.114,-0.488,0.366,0.183,68.12
126545,132986,43087,0.009,-0.972,0.117,0.671,0.549,0.244,68.124
126545,132963,12761,0.007,-0.967,0.116,0.671,0.549,0.244,68.13
126582,132986,43087,0.003,-0.96,0.12,1.463,0.915,0.61,68.134
126582,132959,12760,0.001,-0.958,0.127,1.463,0.915,0.61,68.14
126568,132986,43087,0.002,-0.961,0.124,1.098,0.915,0.915,68.144
126568,132957,12751,0.002,-0.96,0.122,1.098,0.915,0.915,68.15
126579,132986,43087,0.004,-0.958,0.126,0.488,0.732,0.732,68.153
126579,132947,12780,0.005,-0.958,0.129,0.488,0.732,0.732,68.16
126537,132986,43087,0.005,-0.958,0.125,-0.244,0.549,0.671,68.163
126537,132922,12760,0.007,-0.96,0.124,-0.244,0.549,0.671,68.17
126522,132986,43087,0.004,-0.964,0.119,-0.915,0.427,0.732,68.173
126522,132926,12756,-0.001,-0.966,0.115,-0.915,0.427,0.732,68.179
126493,132986,43087,0.001,-0.97,0.118,-0.976,0.305,0.61,68.183
126493,132905,12734,0.006,-0.967,0.12,-0.976,0.305,0.61,68.189
126440,132730,43087,0.002,-0.965,0.123,-0.244,0.183,0.488,68.193
126440,132847,12742,0.002,-0.965,0.121,-0.244,0.183,0.488,68.199
126432,132730,43087,0.002,-0.963,0.121,0.061,0.305,0.488,68.203
126432,132808,12735,0.002,-0.962,0.119,0.061,0.305,0.488,68.209
126367,132730,43087,0.004,-0.963,0.12,-0.061,0.305,0.183,68.213
126367,132794,12726,0.006,-0.967,0.119,-0.061,0.305,0.183,68.219
126332,132730,43087,0.004,-0.969,0.117,-0.183,0.183,-0.061,68.223
126332,132768,12719,0.001,-0.969,0.12,-0.183,0.183,-0.061,68.229
126304,132730,43087,0.005,-0.968,0.119,0.305,0.427,0,68.233
126304,132732,12723,0.004,-0.964,0.123,0.305,0.427,0,68.239
126272,132730,43087,0.002,-0.958,0.125,0.488,0.549,0.183,68.243
126272,132736,12722,0.004,-0.962,0.124,0.488,0.549,0.183,68.249
126255,132730,43087,0.005,-0.963,0.124,0.183,0.549,0.122,68.252
126255,132717,12695,0.008,-0.966,0.123,0.183,0.549,0.122,68.259
126221,132730,43087,0.005,-0.966,0.125,-0.183,0.488,0.244,68.262
126221,132696,12699,0.003,-0.962,0.124,-0.183,0.488,0.244,68.269
126196,132730,43087,-0,-0.96,0.125,-0.427,0.427,0.366,68.272
126196,132648,12716,0.002,-0.964,0.118,-0.427,0.427,0.366,68.278
126157,132730,43087,0.004,-0.966,0.119,-0.61,0.305,0.244,68.282
126157,132672,12700,0.002,-0.97,0.125,-0.61,0.305,0.244,68.288
126152,132730,43087,0.003,-0.967,0.126,-0.427,0.305,0.305,68.292
126152,132648,12690,0.002,-0.962,0.125,-0.427,0.305,0.305,68.298
126122,132730,43087,0.004,-0.963,0.12,-0.427,0.427,0.427,68.302
126122,132611,12687,0.003,-0.964,0.117,-0.427,0.427,0.427,68.308
126120,132730,43087,0.005,-0.964,0.118,-0.61,0.366,0.305,68.312
126120,132613,12687,0.008,-0.965,0.122,-0.61,0.366,0.305,68.318
126085,132474,43087,0.011,-0.963,0.127,-0.183,0.305,0.244,68.322
126085,132587,12680,0.007,-0.964,0.124,-0.183,0.305,0.244,68.328
126070,132474,43087,0.006,-0.966,0.124,0,0.305,0.488,68.332
126070,132586,12679,0.005,-0.966,0.124,0,0.305,0.488,68.338
126054,132474,43087,0.004,-0.963,0.125,-0.732,0.305,0.61,68.342
126054,132587,12675,0.004,-0.966,0.12,-0.732,0.305,0.61,68.348
126051,132474,43087,0.005,-0.965,0.115,-1.646,0.305,0.549,68.351
126051,132574,12680,0.007,-0.968,0.116,-1.646,0.305,0.549,68.358
125998,132474,43087,0.008,-0.969,0.117,-0.854,0.305,0.366,68.361
125998,132544,12678,0.005,-0.971,0.121,-0.854,0.305,0.366,68.368
126031,132474,43087,0.004,-0.966,0.121,0.244,0.427,0.366,68.371
126031,132549,12667,-0,-0.962,0.123,0.244,0.427,0.366,68.377
126003,132474,43087,0,-0.962,0.124,0.122,0.366,0.427,68.381
126003,132541,12678,-0.001,-0.967,0.122,0.122,0.366,0.427,68.387
125995,132474,43087,-0.001,-0.967,0.123,-0.915,0.122,0.122,68.391
125995,132583,12681,0.003,-0.964,0.114,-0.915,0.122,0.122,68.397
126020,132474,43087,0.003,-0.964,0.112,-1.402,0.061,-0.488,68.401
126020,132554,12684,0.008,-0.965,0.113,-1.402,0.061,-0.488,68.407
126041,132474,43087,0.009,-0.965,0.121,-0.305,0,-0.732,68.411
126041,132564,12687,0.008,-0.964,0.125,-0.305,0,-0.732,68.417
126078,132474,43087,0.006,-0.963,0.12,0.61,0.183,-0.305,68.421
126078,132603,12677,0.007,-0.965,0.125,0.61,0.183,-0.305,68.427
126066,132730,43087,0.005,-0.964,0.124,0.061,0.183,0.061,68.431
126066,132627,12681,0.002,-0.963,0.119,0.061,0.183,0.061,68.437
126082,132730,43087,0.006,-0.963,0.118,-0.915,0.122,0.061,68.441
126082,132624,12676,0.009,-0.964,0.118,-0.915,0.122,0.061,68.447
126104,132730,43087,0.01,-0.965,0.119,-0.732,0.122,0.061,68.45
126104,132626,12681,0.006,-0.966,0.119,-0.732,0.122,0.061,68.457
126132,132730,43087,0.006,-0.966,0.119,0.061,0.488,0.549,68.46
126132,132665,12682,0.005,-0.967,0.118,0.061,0.488,0.549,68.466
126146,132730,43087,0.005,-0.967,0.118,0.061,0.488,0.549,68.47
126146,132631,12690,0,-0.965,0.123,0.549,0.61,0.976,68.476
126119,132730,43087,0,-0.965,0.123,0.549,0.61,0.976,68.48
126119,132646,12695,0.006,-0.964,0.116,0.366,0.61,0.793,68.486
126151,132730,43087,0.006,-0.964,0.116,0.366,0.61,0.793,68.49
126151,132667,12685,0.008,-0.968,0.121,0.183,0.549,0.488,68.496
126172,132730,43087,0.008,-0.968,0.121,0.183,0.549,0.488,68.5
126172,132672,12688,0.001,-0.961,0.118,0.793,0.488,0.366,68.506
126151,132730,43087,0.001,-0.961,0.118,0.793,0.488,0.366,68.51
126151,132673,12703,0.003,-0.959,0.124,1.22,0.671,0.427,68.516
126183,132730,43087,0.003,-0.959,0.124,1.22,0.671,0.427,68.52
126183,132696,12694,0.004,-0.966,0.122,0.976,0.61,0.366,68.526
126201,132730,43087,0.004,-0.966,0.122,0.976,0.61,0.366,68.53
126201,132688,12709,0.006,-0.964,0.125,0.488,0.488,-0.061,68.536
126238,132730,43087,0.006,-0.964,0.125,0.488,0.488,-0.061,68.54
126238,132714,12701,0.005,-0.959,0.116,0.244,0.366,-0.183,68.546
126237,132730,43087,0.005,-0.959,0.116,0.244,0.366,-0.183,68.549
126237,132726,12715,0.006,-0.966,0.124,0.366,0.366,-0.244,68.556
126251,132730,43087,0.006,-0.966,0.124,0.366,0.366,-0.244,68.559
126251,132727,12696,0.008,-0.965,0.122,0.61,0.366,-0.183,68.565
126270,132730,43087,0.008,-0.965,0.122,0.61,0.366,-0.183,68.569
126270,132707,12711,0.005,-0.967,0.124,0.732,0.549,-0.061,68.575
126250,132730,43087,0.005,-0.967,0.124,0.732,0.549,-0.061,68.579
126250,132719,12712,0.007,-0.963,0.123,1.098,0.61,0.244,68.585
126250,132730,43087,0.007,-0.963,0.123,1.098,0.61,0.244,68.589
126250,132744,12720,0.011,-0.965,0.12,1.098,0.976,0.793,68.595
126252,132730,43087,0.011,-0.965,0.12,1.098,0.976,0.793,68.599
126252,132726,12723,0.006,-0.965,0.128,1.098,0.915,0.976,68.605
126266,132730,43087,0.006,-0.965,0.128,1.098,0.915,0.976,68.609
126266,132697,12706,0.003,-0.962,0.125,0.915,0.793,1.22,68.615
126280,132730,43087,0.001,-0.964,0.121,0.915,0.793,1.22,68.619
126280,132713,12721,0.003,-0.97,0.122,0.488,0.61,1.28,68.625
126304,132730,43087,0.006,-0.968,0.122,0.488,0.61,1.28,68.629
126304,132744,12721,0.007,-0.962,0.118,0.61,0.488,1.159,68.635
126315,132730,43087,0.003,-0.964,0.122,0.61,0.488,1.159,68.639
126315,132751,12729,0.008,-0.967,0.125,1.037,0.366,1.22,68.645
126310,132730,43087,0.006,-0.968,0.121,1.037,0.366,1.22,68.648
126310,132766,12711,0.002,-0.967,0.118,1.341,0.549,1.159,68.655
126307,132730,43087,0.003,-0.966,0.12,1.341,0.549,1.159,68.658
126307,132762,12734,0.004,-0.963,0.119,1.463,0.732,0.976,68.664
126327,132730,43087,0.007,-0.962,0.119,1.463,0.732,0.976,68.668
126327,132769,12732,0.006,-0.971,0.126,1.89,0.793,0.732,68.674
126314,132730,43087,0.006,-0.971,0.129,1.89,0.793,0.732,68.678
126314,132788,12724,0.004,-0.962,0.128,2.378,0.915,0.854,68.684
126317,132730,43087,0.002,-0.948,0.135,2.378,0.915,0.854,68.688
126317,132756,12720,0.001,-0.949,0.135,1.646,0.976,0.793,68.694
126315,132730,43087,0.003,-0.954,0.135,1.646,0.976,0.793,68.698
126315,132748,12730,0.005,-0.961,0.128,0.061,0.488,0.488,68.704
126307,132730,43087,0.006,-0.965,0.127,0.061,0.488,0.488,68.708
126307,132748,12712,0.005,-0.967,0.125,-0.854,0.244,0.366,68.714
126319,132730,43087,0.002,-0.96,0.13,-0.854,0.244,0.366,68.718
126319,132748,12723,0.002,-0.96,0.127,-1.22,0.366,0.488,68.724
126329,132730,43087,-0,-0.957,0.121,-1.22,0.366,0.488,68.728
126329,132741,12730,0.001,-0.965,0.12,-1.829,0.305,0.427,68.734
126333,132730,43087,0.005,-0.974,0.125,-1.829,0.305,0.427,68.737
126333,132747,12719,0.003,-0.971,0.12,-1.524,0.122,0.183,68.744
126332,132730,43087,0.003,-0.969,0.117,-1.524,0.122,0.183,68.747
126332,132754,12717,0.005,-0.967,0.124,-1.037,0.305,0.183,68.754
126360,132730,43087,0.004,-0.966,0.124,-1.037,0.305,0.183,68.757
126360,132777,12706,0.005,-0.967,0.122,-0.366,0.427,0.244,68.763
126358,132730,43087,0.005,-0.964,0.121,-0.366,0.427,0.244,68.767
126358,132804,12725,0.004,-0.962,0.122,0,0.488,0.305,68.773
126372,132730,43087,0.003,-0.964,0.122,0,0.488,0.305,68.777
126372,132808,12724,0.005,-0.964,0.122,0,0.366,0.305,68.783
126393,132730,43087,0.006,-0.965,0.122,0,0.366,0.305,68.787
126393,132827,12720,0.006,-0.963,0.122,-0.183,0.366,0.366,68.793
126406,132730,43087,0.005,-0.964,0.122,-0.183,0.366,0.366,68.797
126406,132797,12705,0.005,-0.965,0.123,-0.061,0.305,0.549,68.803
126382,132730,43087,0.001,-0.962,0.123,-0.061,0.305,0.549,68.807
126382,132793,12736,0.002,-0.963,0.124,-0.244,0.305,0.671,68.813
126380,132730,43087,0.002,-0.967,0.126,-0.244,0.305,0.671,68.817
126380,132796,12736,0.002,-0.968,0.12,-0.244,0.244,0.61,68.823
126384,132730,43087,0.005,-0.968,0.123,-0.244,0.244,0.61,68.827
126384,132789,12735,0.004,-0.967,0.121,0.061,0.427,0.488,68.833
126361,132730,43087,0.003,-0.969,0.121,0.061,0.427,0.488,68.836
126361,132786,12727,0.002,-0.968,0.122,0.549,0.549,0.488,68.843
126372,132730,43087,0.003,-0.966,0.12,0.549,0.549,0.488,68.846
126372,132802,12722,0.003,-0.964,0.124,1.037,0.671,0.61,68.853
126355,132730,43087,-0,-0.961,0.126,1.037,0.671,0.61,68.856
126355,132775,12702,0.001,-0.962,0.129,1.22,0.732,0.427,68.862
126336,132730,43087,0.002,-0.961,0.125,1.22,0.732,0.427,68.866
126336,132767,12709,0.004,-0.961,0.121,0.793,0.671,0.366,68.872
126270,132730,43087,0.002,-0.964,0.122,0.793,0.671,0.366,68.876
126270,132709,12712,0.004,-0.962,0.127,0.671,0.61,0.366,68.882
126213,132730,43087,0.007,-0.963,0.13,0.671,0.61,0.366,68.886
126213,132692,12703,0.004,-0.962,0.126,0.61,0.488,0.366,68.892
126175,132730,43087,0.003,-0.96,0.129,0.61,0.488,0.366,68.896
126175,132627,12686,0.001,-0.96,0.129,-0.183,0.305,0.366,68.902
126149,132474,43087,0.002,-0.962,0.13,-0.183,0.305,0.366,68.906
126149,132601,12662,0.004,-0.962,0.126,-0.793,0.183,0.183,68.912
126079,132474,43087,0.004,-0.962,0.124,-0.793,0.183,0.183,68.916
126079,132574,12668,0.008,-0.963,0.124,-0.976,0.122,0.061,68.922
126079,132474,43087,0.005,-0.966,0.122,-0.976,0.122,0.061,68.926
126079,132581,12676,-0,-0.965,0.12,-0.732,0.244,0.183,68.932
126066,132474,43087,0.002,-0.962,0.124,-0.732,0.244,0.183,68.935
126066,132547,12662,0.001,-0.963,0.125,-0.427,0.305,0.366,68.942
126066,132474,43087,0.002,-0.965,0.127,-0.427,0.305,0.366,68.945
126066,132546,12670,0.003,-0.964,0.121,-0.305,0.305,0.305,68.952
126066,132474,43087,0.006,-0.968,0.12,-0.305,0.305,0.305,68.955
126066,132554,12645,0.004,-0.969,0.123,-0.122,0.427,0.244,68.961
126078,132474,43087,0.003,-0.967,0.121,-0.122,0.427,0.244,68.965
126078,132595,12662,0.004,-0.964,0.126,-0.061,0.427,0.305,68.971
126081,132474,43087,0.004,-0.963,0.126,-0.061,0.427,0.305,68.975
126081,132605,12665,0.004,-0.961,0.121,-0.061,0.427,0.305,68.981
126091,132474,43087,-0.001,-0.96,0.123,-0.061,0.427,0.305,68.985
126091,132554,12677,0.002,-0.962,0.126,-0.122,0.549,0.244,68.991
126084,132474,43087,0.009,-0.965,0.127,-0.122,0.549,0.244,68.995
126084,132563,12669,0.007,-0.968,0.126,0.305,0.488,0.366,69.001
126060,132474,43087,0.007,-0.967,0.128,0.305,0.488,0.366,69.005
126060,132568,12673,0.002,-0.963,0.126,0.488,0.549,0.732,69.011
126059,132474,43087,0.002,-0.96,0.126,0.488,0.549,0.732,69.015
126059,132572,12660,0.002,-0.96,0.129,0.122,0.488,0.854,69.021
126052,132474,43087,0.006,-0.96,0.131,0.122,0.488,0.854,69.025
126052,132582,12665,0.006,-0.962,0.13,-0.183,0.366,0.61,69.031
126078,132474,43087,0.005,-0.962,0.126,-0.183,0.366,0.61,69.034
126078,132594,12668,0.007,-0.96,0.127,-0.549,0.366,0.61,69.041
126085,132474,43087,0.004,-0.966,0.126,-0.549,0.366,0.61,69.044
126085,132578,12663,0.003,-0.971,0.123,-0.61,0.305,0.854,69.051
126117,132474,43087,0.003,-0.971,0.123,-0.61,0.305,0.854,69.054
126117,132585,12661,0,-0.963,0.126,-0.793,0.427,0.61,69.06
126126,132474,43087,0,-0.963,0.126,-0.793,0.427,0.61,69.064
126126,132607,12656,0,-0.96,0.121,-1.402,0.305,0.183,69.07
126124,132730,43087,0,-0.96,0.121,-1.402,0.305,0.183,69.074
126124,132634,12673,0.003,-0.967,0.126,-1.707,0.061,-0.366,69.08
126145,132730,43087,0.003,-0.967,0.126,-1.707,0.061,-0.366,69.084
126145,132634,12681,0.002,-0.969,0.122,-1.707,-0.061,-0.244,69.09
126165,132730,43087,0.002,-0.969,0.122,-1.707,-0.061,-0.244,69.094
126165,132627,12680,0.003,-0.964,0.118,-1.402,0,0.061,69.1
126175,132730,43087,0.003,-0.964,0.118,-1.402,0,0.061,69.104
126175,132639,12664,0.005,-0.963,0.119,-0.976,0.061,-0.061,69.11
126187,132730,43087,0.005,-0.963,0.119,-0.976,0.061,-0.061,69.114
126187,132671,12667,0.009,-0.964,0.124,-0.549,0.061,-0.122,69.12
126208,132730,43087,0.009,-0.964,0.124,-0.549,0.061,-0.122,69.124
126208,132676,12679,0.004,-0.966,0.119,-0.305,0.183,0.305,69.13
126220,132730,43087,0.004,-0.966,0.119,-0.305,0.183,0.305,69.133
126220,132685,12688,0.003,-0.964,0.122,-0.305,0.305,0.549,69.14
126230,132730,43087,0.003,-0.964,0.122,-0.305,0.305,0.549,69.143
126230,132685,12699,0.004,-0.964,0.121,-0.183,0.366,0.488,69.15
126262,132730,43087,0.004,-0.964,0.121,-0.183,0.366,0.488,69.153
126262,132732,12690,0.003,-0.962,0.122,0.061,0.549,0.549,69.159
126267,132730,43087,0.003,-0.962,0.122,0.061,0.549,0.549,69.163
126267,132717,12681,0.002,-0.961,0.122,0.305,0.549,0.793,69.169
126282,132730,43087,0.002,-0.961,0.122,0.305,0.549,0.793,69.173
126282,132725,12683,0.001,-0.967,0.121,0.427,0.61,0.732,69.179
126278,132730,43087,0.001,-0.967,0.121,0.427,0.61,0.732,69.183
126278,132711,12708,-0.002,-0.968,0.124,0.793,0.61,0.549,69.189
126286,132730,43087,-0.002,-0.968,0.124,0.793,0.61,0.549,69.193
126286,132720,12679,0.001,-0.964,0.126,0.793,0.61,0.549,69.199
126291,132730,43087,-0,-0.966,0.124,0.793,0.488,0.366,69.203
126291,132726,12686,0.002,-0.964,0.127,0.793,0.488,0.366,69.209
126274,132730,43087,0.001,-0.963,0.127,0.549,0.427,0.061,69.213
126274,132729,12683,0.001,-0.962,0.125,0.549,0.427,0.061,69.219
126276,132730,43087,0.003,-0.96,0.123,0.366,0.305,-0.122,69.223
126276,132731,12678,0.005,-0.957,0.124,0.366,0.305,-0.122,69.229
126291,132730,43087,0.005,-0.96,0.123,0.366,0.183,-0.366,69.232
126291,132746,12684,0.003,-0.961,0.124,0.366,0.183,-0.366,69.239
126292,132730,43087,0.005,-0.967,0.13,0.305,0.183,-0.427,69.242
126292,132729,12700,0.005,-0.97,0.135,0.305,0.183,-0.427,69.249
126312,132730,43087,0.006,-0.97,0.13,0.183,0.244,-0.183,69.252
126312,132746,12691,0.003,-0.964,0.124,0.183,0.244,-0.183,69.258
126314,132730,43087,-0.001,-0.953,0.12,-0.427,0.366,0,69.262
126314,132746,12690,0.005,-0.959,0.122,-0.427,0.366,0,69.268
126322,132730,43087,0.009,-0.966,0.126,-0.671,0.061,0,69.272
126322,132735,12695,0.007,-0.968,0.127,-0.671,0.061,0,69.278
126325,132730,43087,0.007,-0.964,0.13,-0.244,0.183,0.122,69.282
126325,132748,12691,0.008,-0.958,0.129,-0.244,0.183,0.122,69.288
126342,132730,43087,0.006,-0.955,0.13,-0.488,0.427,0.61,69.292
126342,132760,12703,0.006,-0.961,0.131,-0.488,0.427,0.61,69.298
126357,132730,43087,0.005,-0.967,0.122,-0.793,0.244,0.61,69.302
126357,132759,12695,0.005,-0.971,0.117,-0.793,0.244,0.61,69.308
126373,132730,43087,0.004,-0.968,0.121,-0.854,0.244,0.305,69.312
126373,132783,12689,0.008,-0.964,0.119,-0.854,0.244,0.305,69.318
126358,132730,43087,0.007,-0.962,0.12,-0.305,0.366,0.549,69.322
126358,132763,12706,0.003,-0.963,0.121,-0.305,0.366,0.549,69.328
126370,132730,43087,0.004,-0.972,0.123,0.244,0.366,0.793,69.331
126370,132761,12701,0.006,-0.976,0.119,0.244,0.366,0.793,69.338
126363,132730,43087,0.004,-0.97,0.119,0.305,0.61,0.793,69.341
126363,132788,12694,0.003,-0.963,0.121,0.305,0.61,0.793,69.347
126353,132730,43087,0.004,-0.959,0.122,0.549,0.793,0.671,69.351
126353,132753,12697,0.005,-0.958,0.126,0.549,0.793,0.671,69.357
126327,132730,43087,0.005,-0.96,0.129,0.854,0.732,0.488,69.361
126327,132745,12695,0.01,-0.964,0.127,0.854,0.732,0.488,69.367
126319,132730,43087,0.005,-0.964,0.129,1.037,0.549,0.427,69.371
126319,132731,12696,0.002,-0.963,0.13,1.037,0.549,0.427,69.377
126321,132730,43087,0.003,-0.958,0.13,0.793,0.549,0.61,69.381
126321,132735,12699,0.005,-0.957,0.124,0.793,0.549,0.61,69.387
126313,132730,43087,0.005,-0.962,0.13,0.183,0.549,0.549,69.391
126313,132728,12688,0.006,-0.968,0.132,0.183,0.549,0.549,69.397
126298,132730,43087,0.007,-0.967,0.12,-0.183,0.305,0.366,69.401
126298,132732,12700,0.004,-0.964,0.125,-0.183,0.305,0.366,69.407
126310,132730,43087,0.004,-0.967,0.13,-0.244,0.427,0.427,69.411
126310,132744,12702,0.004,-0.959,0.126,-0.244,0.427,0.427,69.417
126313,132730,43087,0.003,-0.957,0.124,-0.732,0.305,0.549,69.421
126313,132734,12690,0.002,-0.957,0.126,-0.732,0.305,0.549,69.427
126322,132730,43087,0.005,-0.961,0.121,-1.22,0.183,0.488,69.43
126322,132731,12678,0.008,-0.965,0.124,-1.22,0.183,0.488,69.437
126311,132730,43087,0.004,-0.966,0.127,-1.098,0.122,0.366,69.44
126311,132754,12686,0.004,-0.967,0.119,-1.098,0.122,0.366,69.447
126332,132730,43087,0.004,-0.968,0.121,-0.854,0.305,0.61,69.45
126332,132763,12696,-0.001,-0.965,0.124,-0.854,0.305,0.61,69.456
126347,132730,43087,0.001,-0.964,0.123,-0.488,0.305,0.732,69.46
126347,132771,12687,0.006,-0.965,0.124,-0.488,0.305,0.732,69.466
126351,132730,43087,0.004,-0.967,0.121,-0.793,0.244,0.488,69.47
126351,132744,12693,0.003,-0.967,0.118,-0.793,0.244,0.488,69.476
126370,132730,43087,0.004,-0.965,0.122,-0.61,0.244,0.427,69.48
126370,132764,12696,0.004,-0.965,0.123,-0.61,0.244,0.427,69.486
126380,132730,43087,0.006,-0.966,0.124,0.122,0.366,0.488,69.49
126380,132790,12686,0.006,-0.965,0.126,0.122,0.366,0.488,69.496
126401,132730,43087,0.004,-0.967,0.122,0.244,0.549,0.549,69.5
126401,132771,12684,0.004,-0.968,0.12,0.244,0.549,0.549,69.506
126381,132730,43087,0.001,-0.97,0.121,0.244,0.549,0.549,69.51
126381,132768,12680,0.003,-0.97,0.12,0.244,0.549,0.549,69.516
126386,132730,43087,0,-0.967,0.124,0.915,0.732,0.244,69.52
126386,132785,12677,0,-0.963,0.123,0.915,0.732,0.244,69.526
126380,132730,43087,-0.002,-0.962,0.125,1.463,0.793,-0.061,69.529
126380,132798,12674,0.002,-0.963,0.128,1.463,0.793,-0.061,69.536
126399,132730,43087,0.004,-0.964,0.127,1.585,0.732,-0.427,69.539
126399,132810,12673,0.005,-0.96,0.128,1.585,0.732,-0.427,69.546
126400,132730,43087,0.005,-0.958,0.129,1.159,0.732,-0.732,69.549
126400,132804,12690,0.006,-0.961,0.128,1.159,0.732,-0.732,69.555
126396,132730,43087,0.005,-0.969,0.136,0.549,0.61,-0.793,69.559
126396,132790,12695,0.004,-0.949,0.134,0.549,0.61,-0.793,69.565
126409,132730,43087,0.003,-0.943,0.13,-0.305,0.427,-0.732,69.569
126409,132818,12686,0.007,-0.965,0.129,-0.305,0.427,-0.732,69.575
126403,132730,43087,0.008,-0.978,0.126,-1.341,-0.061,-0.61,69.579
126403,132831,12693,0.01,-0.972,0.117,-1.341,-0.061,-0.61,69.585
126405,132730,43087,0.013,-0.964,0.124,-1.28,0.183,-0.244,69.589
126405,132839,12695,0.005,-0.958,0.149,-1.28,0.183,-0.244,69.595
126405,132730,43087,0.002,-0.933,0.143,-1.28,0.61,0.183,69.599
126405,132836,12696,0.006,-0.945,0.12,-1.28,0.61,0.183,69.605
126424,132730,43087,0.006,-0.995,0.118,-3.232,0,0.305,69.609
126424,132827,12691,0.006,-1.005,0.113,-3.232,0,0.305,69.615
126417,132730,43087,0.011,-0.97,0.104,-2.134,-0.122,0.061,69.619
126417,132835,12695,0.014,-0.94,0.126,-2.134,-0.122,0.061,69.625
126452,132986,43087,0.012,-0.943,0.144,-0.122,0.488,0.671,69.628
126452,132868,12691,0.008,-0.957,0.131,-0.122,0.488,0.671,69.635
126465,132730,43087,0.008,-0.957,0.131,-0.122,0.488,0.671,69.638
126465,132862,12706,0.003,-0.976,0.123,-0.793,0.305,1.037,69.644
126455,132730,43087,0.003,-0.976,0.123,-0.793,0.305,1.037,69.648
126455,132849,12671,0,-0.965,0.119,-1.463,-0.061,1.22,69.654
126459,132986,43087,0,-0.965,0.119,-1.463,-0.061,1.22,69.658
126459,132887,12683,0.005,-0.959,0.122,-1.524,0.061,0.915,69.664
126442,132730,43087,0.005,-0.959,0.122,-1.524,0.061,0.915,69.668
126442,132857,12684,0.007,-0.973,0.114,-1.341,0.183,0.793,69.674
126462,132730,43087,0.007,-0.973,0.114,-1.341,0.183,0.793,69.678
126462,132860,12676,0.006,-0.969,0.13,-0.061,0.244,0.549,69.684
126471,132730,43087,0.006,-0.969,0.13,-0.061,0.244,0.549,69.688
126471,132857,12691,-0.001,-0.951,0.118,1.22,0.427,0.732,69.694
126472,132986,43087,-0.001,-0.951,0.118,1.22,0.427,0.732,69.698
126472,132872,12684,0.01,-0.979,0.121,0.488,0.549,0.854,69.704
126463,132730,43087,0.01,-0.979,0.121,0.488,0.549,0.854,69.708
126463,132850,12689,0.008,-0.963,0.133,1.22,0.305,0.366,69.714
126447,132730,43087,0.008,-0.963,0.133,1.22,0.305,0.366,69.717
126447,132824,12683,0,-0.952,0.125,1.402,0.549,0.61,69.724
126424,132730,43087,0,-0.952,0.125,1.402,0.549,0.61,69.727
126424,132811,12705,0.005,-0.968,0.127,0.427,0.549,0.976,69.734
126393,132730,43087,0.005,-0.968,0.127,0.427,0.549,0.976,69.737
126393,132801,12672,0.006,-0.959,0.128,0.061,0.366,0.549,69.743
126393,132730,43087,0.006,-0.959,0.128,0.061,0.366,0.549,69.747
126393,132809,12661,0,-0.96,0.128,-0.427,0.244,0.61,69.753
126393,132730,43087,0,-0.96,0.128,-0.427,0.244,0.61,69.757
126393,132788,12666,0.002,-0.963,0.122,-1.037,0.061,0.61,69.763
126379,132730,43087,0.002,-0.963,0.122,-1.037,0.061,0.61,69.767
126379,132774,12672,0.003,-0.966,0.123,-1.829,-0.061,0.183,69.773
126326,132730,43087,0.006,-0.969,0.119,-1.829,-0.061,0.183,69.777
126326,132754,12652,0.005,-0.97,0.113,-1.768,0,0.122,69.783
126317,132730,43087,0.005,-0.973,0.115,-1.768,0,0.122,69.787
126317,132718,12677,0.004,-0.971,0.117,-0.732,0.244,0.366,69.793
126311,132730,43087,0.005,-0.966,0.123,-0.732,0.244,0.366,69.797
126311,132715,12672,0.003,-0.96,0.123,0.244,0.549,0.488,69.803
126280,132730,43087,0.005,-0.958,0.127,0.244,0.549,0.488,69.807
126280,132713,12660,0.005,-0.96,0.124,0.183,0.427,0.488,69.813
126275,132730,43087,0.007,-0.963,0.124,0.183,0.427,0.488,69.816
126275,132725,12678,0.005,-0.966,0.126,-0.427,0.305,0.366,69.823
126295,132730,43087,0.004,-0.968,0.121,-0.427,0.305,0.366,69.826
126295,132690,12661,0.005,-0.965,0.121,-0.488,0.427,0.488,69.833
126326,132730,43087,0.004,-0.963,0.122,-0.488,0.427,0.488,69.836
126326,132722,12673,0.005,-0.964,0.123,-0.244,0.488,0.793,69.842
126309,132730,43087,0.006,-0.967,0.123,-0.244,0.488,0.793,69.846
126309,132707,12670,0.003,-0.967,0.118,0.183,0.427,0.793,69.852
126294,132730,43087,0.004,-0.964,0.12,0.183,0.427,0.793,69.856
126294,132701,12658,0.001,-0.969,0.123,0.427,0.488,0.915,69.862
126303,132730,43087,0,-0.97,0.124,0.427,0.488,0.915,69.866
126303,132709,12674,0.001,-0.969,0.121,0.427,0.549,0.915,69.872
126326,132730,43087,0.001,-0.966,0.122,0.427,0.549,0.915,69.876
126326,132701,12663,-0.002,-0.968,0.122,0.793,0.549,0.549,69.882
126316,132730,43087,0,-0.967,0.12,0.793,0.549,0.549,69.886
126316,132730,12651,0.002,-0.967,0.122,1.28,0.488,0.183,69.892
126339,132730,43087,0.004,-0.966,0.121,1.28,0.488,0.183,69.896
126339,132711,12667,0.002,-0.964,0.122,1.524,0.61,0.061,69.902
126277,132730,43087,0.002,-0.963,0.128,1.524,0.61,0.061,69.906
126277,132685,12643,0.002,-0.963,0.127,1.829,0.549,-0.061,69.912
126239,132730,43087,0.002,-0.958,0.13,1.829,0.549,-0.061,69.915
126239,132675,12656,0.003,-0.96,0.13,1.524,0.488,-0.122,69.922
126202,132730,43087,0.004,-0.961,0.131,1.524,0.488,-0.122,69.925
126202,132640,12665,0.005,-0.961,0.13,0.915,0.305,-0.061,69.932
126175,132730,43087,0.005,-0.963,0.133,0.915,0.305,-0.061,69.935
126175,132622,12648,0.006,-0.964,0.134,0.366,0.244,0.244,69.941
126152,132730,43087,0.007,-0.957,0.129,0.366,0.244,0.244,69.945
126152,132617,12631,0.003,-0.953,0.125,-0.427,0.244,0.427,69.951
126161,132474,43087,0.003,-0.959,0.126,-0.427,0.244,0.427,69.955
126161,132590,12638,0.005,-0.965,0.128,-0.915,0.122,0.305,69.961
126137,132474,43087,0.006,-0.965,0.125,-0.915,0.122,0.305,69.965
126137,132589,12626,0.008,-0.963,0.123,-0.793,0.122,0,69.971
126149,132474,43087,0.01,-0.96,0.127,-0.793,0.122,0,69.975
126149,132578,12655,0.006,-0.964,0.128,-0.671,0.366,0.183,69.981
126162,132474,43087,0.004,-0.97,0.127,-0.671,0.366,0.183,69.985
126162,132584,12629,0.001,-0.971,0.124,-0.793,0.305,0.366,69.991
126150,132474,43087,0.004,-0.965,0.119,-0.793,0.305,0.366,69.995
126150,132604,12632,0.003,-0.962,0.115,-0.732,0.427,0.122,70.001
126180,132474,43087,0.006,-0.966,0.12,-0.732,0.427,0.122,70.005
126180,132607,12656,0.008,-0.967,0.125,0.183,0.366,0,70.011
126174,132730,43087,0.006,-0.962,0.13,0.183,0.366,0,70.014
126174,132615,12648,0.005,-0.961,0.13,0.793,0.488,0.183,70.021
126170,132474,43087,0.004,-0.96,0.128,0.793,0.488,0.183,70.024
126170,132593,12648,0,-0.96,0.129,0.427,0.488,0.305,70.031
126150,132474,43087,0.003,-0.961,0.127,0.427,0.488,0.305,70.034
126150,132589,12634,0.008,-0.963,0.127,0,0.305,0.122,70.04
126162,132474,43087,0.005,-0.964,0.124,0,0.305,0.122,70.044
126162,132575,12638,0.007,-0.964,0.125,-0.122,0.427,0.183,70.05
126139,132474,43087,0.005,-0.963,0.126,-0.122,0.427,0.183,70.054
126139,132566,12626,0.004,-0.966,0.126,0.305,0.427,0.244,70.06
126129,132474,43087,0.005,-0.965,0.128,0.305,0.427,0.244,70.064
126129,132572,12626,0.001,-0.96,0.129,0.427,0.549,0.366,70.07
126130,132474,43087,0.002,-0.958,0.129,0.427,0.549,0.366,70.074
126130,132560,12629,0.002,-0.962,0.126,-0.366,0.549,0.427,70.08
126140,132474,43087,0.002,-0.961,0.123,-0.366,0.549,0.427,70.084
126140,132543,12639,0.002,-0.966,0.122,-1.037,0.488,0.244,70.09
126144,132474,43087,0.007,-0.966,0.121,-1.037,0.488,0.244,70.094
126144,132554,12632,0.006,-0.966,0.129,-0.549,0.366,0.244,70.1
126157,132474,43087,0,-0.964,0.127,-0.549,0.366,0.244,70.104
126157,132585,12625,0.001,-0.959,0.122,-0.244,0.488,0.549,70.11
126155,132474,43087,0.003,-0.964,0.126,-0.244,0.488,0.549,70.113
126155,132560,12629,0.003,-0.967,0.133,-0.366,0.427,0.549,70.12
126152,132474,43087,0.002,-0.966,0.126,-0.366,0.427,0.549,70.123
126152,132558,12629,-0,-0.966,0.127,-0.549,0.366,0.549,70.13
126145,132474,43087,0.005,-0.966,0.123,-0.549,0.366,0.549,70.133
126145,132570,12640,0.004,-0.963,0.125,-0.915,0.427,0.427,70.139
126195,132474,43087,0.005,-0.961,0.126,-0.915,0.427,0.427,70.143
126195,132571,12627,0.005,-0.961,0.124,-0.976,0.488,0.427,70.149
126183,132730,43087,0.005,-0.964,0.121,-0.976,0.488,0.427,70.153
126183,132608,12628,0.004,-0.965,0.122,-0.854,0.305,0.366,70.159
126201,132730,43087,0.007,-0.963,0.12,-0.854,0.305,0.366,70.163
126201,132636,12636,0.005,-0.961,0.122,-0.549,0.366,0.061,70.169
126256,132730,43087,0.006,-0.965,0.123,-0.549,0.366,0.061,70.173
126256,132664,12657,0.007,-0.969,0.125,-0.488,0.366,0.061,70.179
126286,132730,43087,0.005,-0.967,0.132,-0.488,0.366,0.061,70.183
126286,132666,12649,0.006,-0.962,0.13,-0.305,0.427,0.305,70.189
126310,132730,43087,0.003,-0.962,0.123,-0.305,0.427,0.305,70.193
126310,132718,12645,0.002,-0.964,0.122,-0.488,0.427,0.427,70.199
126319,132730,43087,0.002,-0.964,0.124,-0.488,0.427,0.427,70.203
126319,132718,12641,0.004,-0.965,0.124,-0.305,0.305,0.427,70.209
126330,132730,43087,0.004,-0.965,0.124,-0.305,0.305,0.427,70.212
126330,132719,12646,0.005,-0.972,0.117,-0.244,0.244,0.366,70.219
126333,132730,43087,0.005,-0.972,0.117,-0.244,0.244,0.366,70.222
126333,132715,12664,0.006,-0.966,0.125,0.671,0.427,0.488,70.229
126354,132730,43087,0.006,-0.966,0.125,0.671,0.427,0.488,70.232
126354,132721,12659,0.005,-0.962,0.124,1.22,0.549,0.732,70.238
126369,132730,43087,0.005,-0.962,0.124,1.22,0.549,0.732,70.242
126369,132722,12649,0.003,-0.966,0.13,0.915,0.427,0.976,70.248
126351,132730,43087,0.003,-0.966,0.13,0.915,0.427,0.976,70.252
126351,132726,12654,0.007,-0.974,0.122,0.732,0.305,0.915,70.258
126375,132730,43087,0.007,-0.974,0.122,0.732,0.305,0.915,70.262
126375,132749,12643,-0,-0.949,0.14,1.22,0.61,1.098,70.268
126381,132730,43087,-0,-0.949,0.14,1.22,0.61,1.098,70.272
126381,132758,12655,0.006,-0.97,0.11,-0.183,0.61,0.732,70.278
126385,132730,43087,0.006,-0.97,0.11,-0.183,0.61,0.732,70.282
126385,132760,12654,0.009,-0.975,0.128,1.22,0.427,0.549,70.288
126387,132730,43087,0.009,-0.975,0.128,1.22,0.427,0.549,70.292
126387,132753,12676,0.001,-0.939,0.138,1.829,0.793,1.159,70.298
126410,132730,43087,0.001,-0.939,0.138,1.829,0.793,1.159,70.302
126410,132773,12656,-0.007,-0.973,0.128,-0.183,0.671,1.28,70.308
126440,132730,43087,-0.007,-0.973,0.128,-0.183,0.671,1.28,70.311
126440,132793,12664,0.003,-0.967,0.122,-1.402,0.244,0.244,70.318
126465,132730,43087,0.003,-0.967,0.122,-1.402,0.244,0.244,70.321
126465,132804,12653,0.01,-0.953,0.125,-1.22,0.183,-0.061,70.328
126477,132730,43087,0.01,-0.953,0.125,-1.22,0.183,-0.061,70.331
126477,132820,12653,0.002,-0.959,0.138,-0.976,0.244,0.427,70.337
126465,132730,43087,0.002,-0.959,0.138,-0.976,0.244,0.427,70.341
126465,132842,12666,0.001,-0.963,0.11,-1.098,0.244,0.61,70.347
126479,132730,43087,0.001,-0.963,0.11,-1.098,0.244,0.61,70.351
126479,132836,12661,-0.001,-0.967,0.119,-1.098,0.244,0.61,70.357
126497,132730,43087,0.007,-0.973,0.134,-0.732,0.244,0.427,70.361
126497,132827,12665,0.009,-0.97,0.131,-0.732,0.244,0.427,70.367
126508,132730,43087,0.003,-0.968,0.123,-0.305,0.366,0.549,70.371
126508,132844,12651,0.001,-0.967,0.121,-0.305,0.366,0.549,70.377
126474,132730,43087,0.001,-0.971,0.118,-0.366,0.61,0.793,70.381
126474,132835,12648,0.007,-0.971,0.117,-0.366,0.61,0.793,70.387
126480,132986,43087,0.005,-0.973,0.131,0.366,0.61,0.305,70.391
126480,132872,12662,0.001,-0.96,0.134,0.366,0.61,0.305,70.397
126489,132730,43087,-0.001,-0.941,0.118,0.244,0.671,0.427,70.401
126489,132835,12672,0.001,-0.952,0.118,0.244,0.671,0.427,70.407
126477,132730,43087,0.006,-0.977,0.129,0.305,0.427,0.183,70.41
126477,132809,12668,0.008,-0.977,0.134,0.305,0.427,0.183,70.417
126442,132730,43087,0.005,-0.96,0.137,1.159,0.549,0.122,70.42
126442,132813,12653,-0.005,-0.948,0.131,1.159,0.549,0.122,70.427
126432,132730,43087,-0.005,-0.958,0.121,-0.366,0.366,0.671,70.43
126432,132796,12646,-0.005,-0.973,0.115,-0.366,0.366,0.671,70.436
126412,132730,43087,0.001,-0.979,0.12,-1.22,0,0,70.44
126412,132806,12637,0.007,-0.97,0.119,-1.22,0,0,70.446
126383,132730,43087,0.004,-0.965,0.121,-0.732,0.061,-0.366,70.45
126383,132771,12655,0.002,-0.962,0.125,-0.732,0.061,-0.366,70.456
126339,132730,43087,0.003,-0.964,0.124,0,0.244,0,70.46
126339,132755,12646,0.001,-0.966,0.124,0,0.244,0,70.466
126301,132730,43087,0.004,-0.963,0.131,0.671,0.183,-0.122,70.47
126301,132687,12638,0.005,-0.957,0.13,0.671,0.183,-0.122,70.476
126235,132730,43087,0.003,-0.955,0.126,0.183,0.244,-0.244,70.48
126235,132643,12621,0.003,-0.959,0.129,0.183,0.244,-0.244,70.486
126190,132730,43087,0.008,-0.964,0.133,-0.427,0.122,0.061,70.49
126190,132630,12625,0.009,-0.968,0.131,-0.427,0.122,0.061,70.496
126151,132474,43087,0.003,-0.961,0.127,-0.549,0.061,0.244,70.5
126151,132575,12618,-0,-0.963,0.122,-0.549,0.061,0.244,70.506
126058,132474,43087,0,-0.961,0.128,-1.037,0.244,0.61,70.509
126058,132520,12612,-0.001,-0.962,0.129,-1.037,0.244,0.61,70.516
126028,132474,43087,0.001,-0.963,0.112,-1.585,0.183,0.488,70.519
126028,132454,12596,0.006,-0.971,0.109,-1.585,0.183,0.488,70.525
125976,132474,43087,0.005,-0.982,0.118,-1.098,0.183,0.244,70.529
125976,132458,12593,0.005,-0.981,0.122,-1.098,0.183,0.244,70.535
125929,132474,43087,0.004,-0.97,0.118,1.159,0.61,0.366,70.539
125929,132431,12587,-0,-0.955,0.119,1.159,0.61,0.366,70.545
125911,132474,43087,-0,-0.956,0.123,1.951,0.976,0.61,70.549
125911,132406,12569,0.001,-0.97,0.125,1.951,0.976,0.61,70.555
125915,132474,43087,0.004,-0.976,0.127,2.317,0.732,0.305,70.559
125915,132400,12590,0.007,-0.971,0.13,2.317,0.732,0.305,70.565
125878,132474,43087,0.006,-0.959,0.133,2.683,0.793,-0.061,70.569
125878,132370,12577,0.004,-0.954,0.132,2.683,0.793,-0.061,70.575
125837,132218,43087,0,-0.955,0.132,2.012,0.854,0.122,70.579
125837,132346,12589,0.002,-0.958,0.127,2.012,0.854,0.122,70.585
125851,132474,43087,0.001,-0.961,0.127,0.976,0.61,-0.183,70.589
125851,132356,12577,0.003,-0.964,0.13,0.976,0.61,-0.183,70.595
125830,132218,43087,0.006,-0.963,0.134,0.549,0.366,-0.366,70.599
125830,132345,12582,0.005,-0.956,0.134,0.549,0.366,-0.366,70.605
125846,132474,43087,0.006,-0.955,0.136,0.061,0.305,-0.122,70.608
125846,132359,12581,0.006,-0.959,0.131,0.061,0.305,-0.122,70.615
125843,132474,43087,0.005,-0.963,0.127,-0.366,0.244,0.122,70.618
125843,132355,12580,0.003,-0.968,0.126,-0.366,0.244,0.122,70.624
125855,132218,43087,0.002,-0.966,0.131,-0.793,0.244,0.488,70.628
125855,132344,12581,0.006,-0.964,0.129,-0.793,0.244,0.488,70.634
125834,132218,43087,0.003,-0.963,0.125,-0.976,0.366,0.732,70.638
125834,132348,12571,0.005,-0.965,0.126,-0.976,0.366,0.732,70.644
125857,132474,43087,0.005,-0.966,0.128,-1.037,0.427,0.671,70.648
125857,132382,12572,0.001,-0.961,0.123,-1.037,0.427,0.671,70.654
125869,132474,43087,0.005,-0.961,0.118,-1.098,0.488,0.488,70.658
125869,132372,12574,0.006,-0.968,0.122,-1.098,0.488,0.488,70.664
125889,132474,43087,0.005,-0.97,0.126,-0.549,0.427,0.366,70.668
125889,132420,12582,0.005,-0.966,0.121,-0.549,0.427,0.366,70.674
125944,132474,43087,0.009,-0.964,0.126,0.061,0.549,0.366,70.678
125944,132424,12590,0.004,-0.965,0.125,0.061,0.549,0.366,70.684
125922,132474,43087,0.003,-0.966,0.126,0.427,0.61,0.366,70.688
125922,132411,12582,0.003,-0.964,0.127,0.427,0.61,0.366,70.694
125901,132474,43087,0.002,-0.964,0.124,0.427,0.61,0.183,70.697
125901,132391,12596,0.005,-0.964,0.127,0.427,0.61,0.183,70.704
125902,132474,43087,0.007,-0.965,0.126,0.549,0.549,0.122,70.707
125902,132428,12574,0.003,-0.964,0.127,0.549,0.549,0.122,70.714
125907,132474,43087,0.005,-0.964,0.125,0.732,0.61,0.488,70.717
125907,132441,12582,0.003,-0.96,0.127,0.732,0.61,0.488,70.723
125922,132474,43087,0,-0.958,0.132,0.549,0.61,0.671,70.727
125922,132434,12593,0.002,-0.958,0.135,0.549,0.61,0.671,70.733
125938,132474,43087,0.003,-0.957,0.13,0,0.366,0.549,70.737
125938,132460,12609,0.006,-0.962,0.131,0,0.366,0.549,70.743
125983,132474,43087,0.003,-0.965,0.13,-0.671,0.122,0.366,70.747
125983,132450,12607,0.007,-0.967,0.128,-0.671,0.122,0.366,70.753
126028,132474,43087,0.002,-0.965,0.128,-0.793,0.244,0.366,70.757
126028,132494,12589,0.001,-0.961,0.132,-0.793,0.244,0.366,70.763
126053,132474,43087,0.005,-0.959,0.132,-1.098,0.244,0.427,70.767
126053,132513,12608,0.004,-0.961,0.127,-1.098,0.244,0.427,70.773
126065,132474,43087,0.004,-0.964,0.129,-1.646,0.122,0.183,70.777
126065,132565,12614,0.002,-0.962,0.125,-1.646,0.122,0.183,70.783
126089,132474,43087,0.006,-0.963,0.124,-1.707,0.122,0,70.787
126089,132557,12617,0.006,-0.962,0.126,-1.707,0.122,0,70.793
126099,132474,43087,0.006,-0.962,0.126,-1.707,0.122,0,70.797
126099,132580,12621,0.004,-0.963,0.124,-1.463,0.061,0.061,70.803
126119,132474,43087,0.004,-0.963,0.124,-1.463,0.061,0.061,70.806
126119,132564,12611,0.004,-0.971,0.124,-1.098,0.122,0.183,70.813
126154,132474,43087,0.004,-0.971,0.124,-1.098,0.122,0.183,70.816
126154,132577,12620,0.002,-0.961,0.123,-0.732,0.183,0.183,70.822
126161,132730,43087,0.002,-0.961,0.123,-0.732,0.183,0.183,70.826
126161,132639,12617,0.003,-0.964,0.125,-0.793,0.366,0.244,70.832
126202,132730,43087,0.003,-0.964,0.125,-0.793,0.366,0.244,70.836
126202,132637,12614,0.004,-0.964,0.124,-0.549,0.366,0.183,70.842
126205,132730,43087,0.004,-0.964,0.124,-0.549,0.366,0.183,70.846
126205,132633,12626,0.003,-0.96,0.127,0,0.61,0.244,70.852
126253,132730,43087,0.003,-0.96,0.127,0,0.61,0.244,70.856
126253,132654,12625,0.004,-0.966,0.132,0.061,0.671,0.427,70.862
126262,132730,43087,0.004,-0.966,0.132,0.061,0.671,0.427,70.866
126262,132696,12622,0.003,-0.965,0.121,-0.305,0.549,0.549,70.872
126289,132730,43087,0.003,-0.965,0.121,-0.305,0.549,0.549,70.876
126289,132687,12625,0.006,-0.964,0.123,-0.488,0.549,0.549,70.882
126283,132730,43087,0.006,-0.964,0.123,-0.488,0.549,0.549,70.886
126283,132692,12634,0.003,-0.966,0.126,-0.122,0.488,0.366,70.892
126288,132730,43087,0.003,-0.966,0.126,-0.122,0.488,0.366,70.895
126288,132691,12640,0.002,-0.965,0.125,0.183,0.488,0.427,70.902
126264,132730,43087,0.002,-0.965,0.125,0.183,0.488,0.427,70.905
126264,132692,12638,0.002,-0.959,0.128,0,0.61,0.488,70.912
126307,132730,43087,0.002,-0.959,0.128,0,0.61,0.488,70.915
126307,132700,12620,0.006,-0.962,0.126,-0.183,0.549,0.305,70.921
126308,132730,43087,0.006,-0.962,0.126,-0.183,0.549,0.305,70.925
126308,132742,12643,0.003,-0.961,0.13,-0.122,0.427,0.244,70.931
126330,132730,43087,0.003,-0.961,0.13,-0.122,0.427,0.244,70.935
126330,132762,12627,0.005,-0.961,0.129,-0.305,0.488,0.488,70.941
126341,132730,43087,0.003,-0.961,0.129,-0.305,0.488,0.488,70.945
126341,132740,12610,0.003,-0.96,0.125,-0.549,0.366,0.488,70.951
126335,132730,43087,0.005,-0.959,0.124,-0.549,0.366,0.488,70.955
126335,132737,12622,0.007,-0.962,0.125,-1.037,0.427,0.305,70.961
126330,132730,43087,0.004,-0.968,0.125,-1.037,0.427,0.305,70.965
126330,132750,12636,0.002,-0.97,0.123,-0.976,0.244,0.244,70.971
126354,132730,43087,0.003,-0.964,0.119,-0.976,0.244,0.244,70.975
126354,132786,12631,0.005,-0.962,0.126,-0.61,0.305,0.305,70.981
126376,132730,43087,0.004,-0.966,0.123,-0.61,0.305,0.305,70.985
126376,132774,12645,0.003,-0.966,0.122,-0.183,0.305,0.305,70.991
126391,132730,43087,0.004,-0.965,0.124,-0.183,0.305,0.305,70.994
126391,132782,12632,0.005,-0.963,0.127,0.122,0.488,0.183,71.001
126408,132730,43087,0.004,-0.966,0.124,0.122,0.488,0.183,71.004
126408,132791,12635,0.007,-0.966,0.122,0.488,0.427,0.061,71.011
126410,132730,43087,0.004,-0.966,0.123,0.488,0.427,0.061,71.014
126410,132813,12644,0.005,-0.962,0.13,0.732,0.427,0.244,71.02
126429,132730,43087,0.002,-0.959,0.129,0.732,0.427,0.244,71.024
126429,132815,12659,0.002,-0.964,0.129,0.549,0.427,0.488,71.03
126447,132730,43087,0.005,-0.966,0.13,0.549,0.427,0.488,71.034
126447,132827,12628,0.006,-0.965,0.125,0.488,0.488,0.427,71.04
126440,132730,43087,0.005,-0.966,0.129,0.488,0.488,0.427,71.044
126440,132835,12637,0.002,-0.965,0.134,0.427,0.549,0.427,71.05
126452,132730,43087,0.004,-0.959,0.127,0.427,0.549,0.427,71.054
126452,132825,12651,0.005,-0.957,0.126,-0.244,0.549,0.549,71.06
126442,132730,43087,0.006,-0.961,0.128,-0.244,0.549,0.549,71.064
126442,132844,12640,0.006,-0.964,0.128,-0.671,0.244,0.366,71.07
126431,132730,43087,0.005,-0.964,0.125,-0.671,0.244,0.366,71.074
126431,132846,12656,0.004,-0.966,0.121,-0.854,0.366,0.305,71.08
126434,132730,43087,0.005,-0.965,0.125,-0.854,0.366,0.305,71.084
126434,132836,12645,0.004,-0.962,0.129,-0.305,0.366,0.549,71.09
126461,132730,43087,0.004,-0.963,0.124,-0.305,0.366,0.549,71.093
126461,132838,12643,0.005,-0.967,0.126,-0.061,0.305,0.549,71.1
126466,132730,43087,0.005,-0.969,0.125,-0.061,0.305,0.549,71.103
126466,132851,12649,0.002,-0.967,0.127,0.061,0.244,0.305,71.11
126477,132986,43087,0.003,-0.962,0.126,0.061,0.244,0.305,71.113
126477,132880,12638,0.005,-0.963,0.124,-0.244,0.122,-0.061,71.119
126490,132986,43087,0.005,-0.966,0.124,-0.244,0.122,-0.061,71.123
126490,132874,12650,0.005,-0.964,0.125,-0.366,0.061,-0.244,71.129
126496,132986,43087,0.001,-0.968,0.123,-0.366,0.061,-0.244,71.133
126496,132872,12659,0.006,-0.967,0.12,0,0.122,-0.244,71.139
126467,132986,43087,0.009,-0.965,0.123,0,0.122,-0.244,71.143
126467,132870,12656,0.006,-0.962,0.126,0.732,0.366,-0.122,71.149
126507,132730,43087,0.008,-0.963,0.13,0.732,0.366,-0.122,71.153
126507,132862,12651,0.009,-0.963,0.128,1.28,0.427,0.244,71.159
126488,132986,43087,0.006,-0.964,0.126,1.28,0.427,0.244,71.163
126488,132880,12664,0.007,-0.964,0.127,1.159,0.427,0.61,71.169
126500,132986,43087,0.005,-0.965,0.125,1.159,0.427,0.61,71.173
126500,132885,12669,0.006,-0.962,0.126,1.037,0.549,0.915,71.179
126509,132986,43087,0.007,-0.962,0.129,1.037,0.549,0.915,71.183
126509,132889,12653,0.004,-0.963,0.131,1.098,0.732,1.098,71.189
126521,132986,43087,0.003,-0.964,0.127,1.098,0.732,1.098,71.192
126521,132913,12656,0.002,-0.962,0.128,0.793,0.732,1.341,71.199
126520,132986,43087,-0.001,-0.962,0.133,0.793,0.732,1.341,71.202
126520,132873,12656,0,-0.964,0.131,0.61,0.61,1.159,71.208
126515,132986,43087,0.003,-0.962,0.126,0.61,0.61,1.159,71.212
126515,132899,12654,0.004,-0.963,0.126,0.366,0.671,0.976,71.218
126499,132986,43087,0.003,-0.962,0.124,0.366,0.671,0.976,71.222
126499,132894,12661,0.002,-0.965,0.124,0.549,0.549,0.915,71.228
126507,132986,43087,0.005,-0.968,0.132,0.549,0.549,0.915,71.232
126507,132880,12659,0.002,-0.967,0.13,1.098,0.488,0.793,71.238
126508,132986,43087,0.001,-0.964,0.13,1.098,0.488,0.793,71.242
126508,132880,12670,0.001,-0.962,0.129,0.854,0.549,0.549,71.248
126510,132986,43087,0.001,-0.964,0.127,0.854,0.549,0.549,71.252
126510,132871,12654,0.002,-0.964,0.129,0.488,0.488,0.122,71.258
126519,132986,43087,0.004,-0.965,0.131,0.488,0.488,0.122,71.262
126519,132888,12651,0.004,-0.962,0.133,0.549,0.305,-0.183,71.268
126529,132986,43087,0.003,-0.956,0.135,0.549,0.305,-0.183,71.272
126529,132875,12644,-0,-0.958,0.133,0.183,0.305,-0.305,71.278
126518,132986,43087,0.002,-0.958,0.132,0.183,0.305,-0.305,71.282
126518,132907,12667,0.003,-0.961,0.129,-0.366,0.183,-0.244,71.288
126507,132986,43087,0.005,-0.963,0.125,-0.366,0.183,-0.244,71.291
126507,132916,12671,0.004,-0.964,0.13,-0.671,0.061,-0.122,71.298
126542,132986,43087,0.004,-0.964,0.133,-0.671,0.061,-0.122,71.301
126542,132902,12664,0.004,-0.96,0.131,-0.61,0,0.061,71.307
126538,132986,43087,0.005,-0.956,0.132,-0.61,0,0.061,71.311
126538,132898,12667,0.005,-0.956,0.131,-0.915,0.183,0.427,71.317
126529,132986,43087,0.006,-0.962,0.125,-0.915,0.183,0.427,71.321
126529,132906,12665,0.008,-0.969,0.122,-0.976,0.305,0.549,71.327
126506,132986,43087,0.005,-0.969,0.125,-0.976,0.305,0.549,71.331
126506,132894,12666,0.005,-0.965,0.129,-0.61,0.366,0.488,71.337
126538,132986,43087,0.009,-0.963,0.123,-0.61,0.366,0.488,71.341
126538,132893,12662,0.003,-0.963,0.131,-0.305,0.549,0.793,71.347
126540,132986,43087,0.005,-0.962,0.129,-0.305,0.549,0.793,71.351
126540,132896,12652,0.006,-0.967,0.126,-0.244,0.61,0.915,71.357
126539,132986,43087,0.006,-0.966,0.127,-0.244,0.61,0.915,71.361
126539,132909,12654,0.004,-0.966,0.127,-0.366,0.61,0.854,71.367
126519,132986,43087,0.004,-0.966,0.127,-0.366,0.61,0.854,71.371
126519,132899,12645,0.007,-0.965,0.125,-0.183,0.61,0.854,71.377
126536,132986,43087,0.007,-0.965,0.125,-0.183,0.61,0.854,71.38
126536,132909,12673,0.006,-0.964,0.127,0,0.61,0.915,71.387
126500,132986,43087,0.006,-0.964,0.127,0,0.61,0.915,71.39
126500,132893,12652,0.004,-0.963,0.125,-0.061,0.61,0.793,71.397
126508,132986,43087,0.004,-0.963,0.125,-0.061,0.61,0.793,71.4
126508,132879,12648,0.004,-0.965,0.13,0,0.671,0.61,71.406
126483,132986,43087,0.004,-0.965,0.13,0,0.671,0.61,71.41
126483,132867,12651,0.003,-0.959,0.132,-0.183,0.671,0.61,71.416
126493,132986,43087,0.003,-0.959,0.132,-0.183,0.671,0.61,71.42
126493,132873,12660,0.004,-0.956,0.135,-0.671,0.488,0.61,71.426
126481,132730,43087,0.004,-0.956,0.135,-0.671,0.488,0.61,71.43
126481,132855,12660,0.004,-0.959,0.137,-1.341,0.183,0.671,71.436
126494,132986,43087,0.004,-0.959,0.137,-1.341,0.183,0.671,71.44
126494,132871,12669,0.002,-0.96,0.133,-1.89,0,0.671,71.446
126502,132986,43087,0.002,-0.96,0.133,-1.89,0,0.671,71.45
126502,132883,12657,0.004,-0.964,0.129,-2.439,-0.122,0.671,71.456
126530,132986,43087,0.004,-0.964,0.129,-2.439,-0.122,0.671,71.46
126530,132899,12649,0.004,-0.968,0.122,-2.744,-0.122,0.732,71.466
126530,132986,43087,0.004,-0.968,0.122,-2.744,-0.122,0.732,71.47
126530,132898,12663,0.002,-0.967,0.12,-2.622,0,0.671,71.476
126552,132986,43087,0.002,-0.967,0.12,-2.622,0,0.671,71.479
126552,132892,12667,0.001,-0.972,0.118,-2.195,0.061,0.61,71.486
126537,132986,43087,0.001,-0.972,0.118,-2.195,0.061,0.61,71.489
126537,132902,12657,0.005,-0.97,0.116,-1.098,0.244,0.488,71.496
126563,132986,43087,0.005,-0.97,0.116,-1.098,0.244,0.488,71.499
126563,132932,12650,0.001,-0.968,0.122,-0.061,0.488,0.61,71.505
126559,132986,43087,0.001,-0.968,0.122,-0.061,0.488,0.61,71.509
126559,132918,12686,0.001,-0.965,0.125,-0.061,0.488,0.61,71.515
126569,132986,43087,0.001,-0.96,0.125,0.366,0.61,0.793,71.519
126569,132925,12650,0.002,-0.961,0.128,0.366,0.61,0.793,71.525
126571,132986,43087,0.004,-0.963,0.127,0.366,0.61,0.732,71.529
126571,132927,12671,0.003,-0.959,0.127,0.366,0.61,0.732,71.535
126592,132986,43087,-0,-0.959,0.126,0.122,0.488,0.61,71.539
126592,132954,12665,0.002,-0.961,0.128,0.122,0.488,0.61,71.545
126596,132986,43087,0.001,-0.964,0.128,0.122,0.305,0.732,71.549
126596,132953,12666,0,-0.965,0.125,0.122,0.305,0.732,71.555
126571,132986,43087,0.001,-0.966,0.12,-0.122,0.427,0.793,71.559
126571,132932,12668,0,-0.966,0.124,-0.122,0.427,0.793,71.565
126590,132986,43087,-0,-0.967,0.125,0,0.427,0.793,71.569
126590,132930,12669,-0,-0.967,0.126,0,0.427,0.793,71.575
126578,132986,43087,0,-0.964,0.126,0,0.427,0.732,71.578
126578,132939,12663,-0.001,-0.964,0.125,0,0.427,0.732,71.585
126560,132986,43087,0,-0.962,0.121,-0.183,0.366,0.549,71.588
126560,132927,12663,0.002,-0.964,0.12,-0.183,0.366,0.549,71.595
126571,132986,43087,0.004,-0.966,0.125,0.061,0.366,0.244,71.598
126571,132915,12667,0.005,-0.966,0.123,0.061,0.366,0.244,71.604
126577,132986,43087,0.001,-0.962,0.124,0.305,0.366,0.183,71.608
126577,132947,12652,0,-0.963,0.124,0.305,0.366,0.183,71.614
126558,132986,43087,0,-0.963,0.125,0.061,0.427,0.366,71.618
126558,132930,12647,0.001,-0.963,0.126,0.061,0.427,0.366,71.624
126551,132986,43087,0.004,-0.963,0.126,-0.061,0.305,0.244,71.628
126551,132923,12656,0.002,-0.963,0.13,-0.061,0.305,0.244,71.634
126555,132986,43087,0.002,-0.962,0.131,-0.183,0.244,0.366,71.638
126555,132932,12653,0.002,-0.963,0.126,-0.183,0.244,0.366,71.644
126555,132986,43087,0.003,-0.962,0.125,-0.305,0.366,0.549,71.648
126555,132929,12651,0.001,-0.963,0.126,-0.305,0.366,0.549,71.654
126566,132986,43087,0.002,-0.961,0.126,-0.305,0.305,0.488,71.658
126566,132918,12646,0.001,-0.966,0.125,-0.305,0.305,0.488,71.664
126553,132986,43087,0.005,-0.969,0.121,-0.122,0.305,0.488,71.668
126553,132920,12638,0.003,-0.965,0.127,-0.122,0.305,0.488,71.674
126553,132986,43087,0.001,-0.963,0.126,0.122,0.427,0.549,71.677
126553,132933,12661,0.003,-0.964,0.124,0.122,0.427,0.549,71.684
126553,132986,43087,0.002,-0.965,0.125,0.427,0.488,0.549,71.687
126553,132947,12646,0.004,-0.966,0.126,0.427,0.488,0.549,71.694
126557,132986,43087,0.003,-0.965,0.13,0.549,0.488,0.671,71.697
126557,132926,12646,0.001,-0.962,0.131,0.549,0.488,0.671,71.703
126554,132986,43087,0.001,-0.958,0.13,0.183,0.488,0.671,71.707
126554,132910,12644,-0.005,-0.957,0.125,0.183,0.488,0.671,71.713
126531,132986,43087,-0,-0.962,0.128,-0.061,0.427,0.671,71.717
126531,132911,12650,0.002,-0.966,0.128,-0.061,0.427,0.671,71.723
126516,132986,43087,0.001,-0.967,0.123,-0.183,0.366,0.549,71.727
126516,132889,12638,0.001,-0.966,0.126,-0.183,0.366,0.549,71.733
126478,132986,43087,0.001,-0.963,0.124,-0.244,0.549,0.793,71.737
126478,132881,12651,0.004,-0.959,0.126,-0.244,0.549,0.793,71.743
126434,132730,43087,0.004,-0.961,0.127,0.183,0.488,0.793,71.747
126434,132831,12612,0.005,-0.963,0.132,0.183,0.488,0.793,71.753
126403,132730,43087,0.005,-0.965,0.128,0.122,0.366,0.732,71.757
126403,132829,12642,0.004,-0.966,0.125,0.122,0.366,0.732,71.763
126396,132730,43087,0.005,-0.963,0.124,-0.183,0.366,0.671,71.767
126396,132801,12636,0.002,-0.963,0.125,-0.183,0.366,0.671,71.773
126385,132730,43087,0.004,-0.966,0.128,-0.244,0.427,0.671,71.776
126385,132794,12644,0.003,-0.969,0.127,-0.244,0.427,0.671,71.783
126394,132730,43087,0,-0.964,0.127,-0.244,0.549,0.976,71.786
126394,132803,12611,-0.001,-0.96,0.126,-0.244,0.549,0.976,71.793
126411,132730,43087,0.001,-0.957,0.131,-0.732,0.549,0.976,71.796
126411,132812,12626,0.002,-0.96,0.127,-0.732,0.549,0.976,71.802
126388,132730,43087,0.003,-0.961,0.127,-1.098,0.366,0.488,71.806
126388,132800,12633,0.001,-0.965,0.123,-1.098,0.366,0.488,71.812
126402,132730,43087,-0.001,-0.967,0.125,-1.159,0.122,0.244,71.816
126402,132821,12633,0.002,-0.966,0.129,-1.159,0.122,0.244,71.822
126407,132730,43087,0.003,-0.965,0.124,-1.037,0.122,0.183,71.826
126407,132798,12636,-0.001,-0.965,0.12,-1.037,0.122,0.183,71.832
126403,132730,43087,0.001,-0.966,0.119,-0.915,0.122,0.122,71.836
126403,132804,12630,0.003,-0.966,0.119,-0.915,0.122,0.122,71.842
126419,132730,43087,0,-0.968,0.123,-0.488,0.183,0,71.846
126419,132811,12631,0.002,-0.968,0.125,-0.488,0.183,0,71.852
126415,132730,43087,0.003,-0.967,0.125,0.366,0.305,0.122,71.856
126415,132817,12628,0.002,-0.962,0.126,0.366,0.305,0.122,71.862
126411,132730,43087,0.001,-0.96,0.126,0.549,0.549,0.366,71.866
126411,132814,12637,0.001,-0.961,0.125,0.549,0.549,0.366,71.872
126422,132730,43087,0.002,-0.964,0.13,0.366,0.488,0.549,71.875
126422,132808,12643,0.003,-0.964,0.132,0.366,0.488,0.549,71.882
126399,132730,43087,0.003,-0.958,0.13,0,0.549,0.671,71.885
126399,132797,12620,0.001,-0.957,0.129,0,0.549,0.671,71.892
126410,132730,43087,0.001,-0.962,0.126,-0.488,0.488,1.037,71.895
126410,132803,12637,0.002,-0.965,0.127,-0.488,0.488,1.037,71.901
126424,132730,43087,0.002,-0.965,0.123,-0.671,0.244,1.098,71.905
126424,132807,12622,0.001,-0.964,0.118,-0.671,0.244,1.098,71.911
126418,132730,43087,0.001,-0.969,0.119,-0.793,0.366,1.098,71.915
126418,132838,12632,0.002,-0.973,0.123,-0.793,0.366,1.098,71.921
126433,132730,43087,0,-0.975,0.123,0.122,0.427,1.159,71.925
126433,132792,12633,-0.001,-0.974,0.122,0.122,0.427,1.159,71.931
126419,132730,43087,-0.005,-0.965,0.121,0.671,0.732,0.976,71.935
126419,132791,12634,-0.005,-0.965,0.125,0.671,0.732,0.976,71.941
126420,132730,43087,-0.003,-0.964,0.13,0.854,0.732,0.671,71.945
126420,132798,12622,-0.004,-0.961,0.13,0.854,0.732,0.671,71.951
126407,132730,43087,-0.004,-0.961,0.13,0.854,0.732,0.671,71.955
126407,132848,12642,-0.001,-0.958,0.129,0.976,0.61,0.122,71.961
126422,132730,43087,-0.001,-0.958,0.129,0.976,0.61,0.122,71.965
126422,132792,12647,-0.001,-0.954,0.135,0.854,0.488,-0.183,71.971
126411,132730,43087,-0.001,-0.954,0.135,0.854,0.488,-0.183,71.974
126411,132828,12651,-0.001,-0.955,0.131,0.183,0.183,-0.244,71.981
126441,132730,43087,-0.001,-0.955,0.131,0.183,0.183,-0.244,71.984
126441,132815,12638,0.006,-0.971,0.128,-0.671,-0.061,-0.427,71.99
126439,132730,43087,0.006,-0.971,0.128,-0.671,-0.061,-0.427,71.994
126439,132811,12638,0.006,-0.962,0.126,-0.793,0,-0.305,72
126440,132730,43087,0.006,-0.962,0.126,-0.793,0,-0.305,72.004
126440,132823,12649,0.007,-0.964,0.125,-0.671,0.183,0.122,72.01
126436,132730,43087,0.007,-0.964,0.125,-0.671,0.183,0.122,72.014
126436,132851,12641,0.004,-0.967,0.121,-0.488,0.305,0.549,72.02
126432,132730,43087,0.004,-0.967,0.121,-0.488,0.305,0.549,72.024
126432,132820,12642,-0,-0.969,0.124,-0.427,0.549,0.793,72.03
126454,132730,43087,-0,-0.969,0.124,-0.427,0.549,0.793,72.034
126454,132824,12655,-0,-0.958,0.125,0.061,0.793,0.976,72.04
126432,132730,43087,-0,-0.958,0.125,0.061,0.793,0.976,72.044
126432,132837,12647,0,-0.962,0.128,0.122,0.854,0.976,72.05
126450,132730,43087,0,-0.962,0.128,0.122,0.854,0.976,72.054
126450,132827,12656,-0.001,-0.96,0.129,-0.183,0.732,0.732,72.06
126452,132730,43087,-0.001,-0.96,0.129,-0.183,0.732,0.732,72.063
126452,132827,12660,-0.002,-0.964,0.124,-0.488,0.549,0.488,72.07
126415,132730,43087,-0.002,-0.964,0.124,-0.488,0.549,0.488,72.073
126415,132792,12657,-0,-0.97,0.121,-0.427,0.427,0.427,72.08
126432,132730,43087,-0,-0.97,0.121,-0.427,0.427,0.427,72.083
126432,132817,12649,0.002,-0.965,0.126,-0.122,0.61,0.244,72.089
126422,132730,43087,0.002,-0.965,0.126,-0.122,0.61,0.244,72.093
126422,132775,12646,-0.001,-0.961,0.125,0.183,0.61,0.183,72.099
126391,132730,43087,0.001,-0.959,0.122,0.183,0.61,0.183,72.103
126391,132801,12639,0.002,-0.962,0.125,0.61,0.671,0.244,72.109
126389,132730,43087,0.001,-0.965,0.126,0.61,0.671,0.244,72.113
126389,132793,12647,0,-0.964,0.128,0.976,0.732,0.488,72.119
126395,132730,43087,-0.003,-0.961,0.134,0.976,0.732,0.488,72.123
126395,132771,12633,-0,-0.953,0.135,0.366,0.671,0.61,72.129
126364,132730,43087,0.003,-0.954,0.131,0.366,0.671,0.61,72.133
126364,132772,12631,0,-0.959,0.13,-0.854,0.427,0.488,72.139
126377,132730,43087,0,-0.964,0.131,-0.854,0.427,0.488,72.143
126377,132787,12631,0,-0.965,0.126,-1.768,0.122,0.305,72.149
126361,132730,43087,-0.002,-0.963,0.126,-1.768,0.122,0.305,72.153
126361,132773,12643,0.001,-0.958,0.125,-2.195,0.061,0.305,72.159
126361,132730,43087,-0.001,-0.96,0.124,-2.195,0.061,0.305,72.162
126361,132783,12646,0.002,-0.962,0.12,-2.256,0.061,0.244,72.169
126384,132730,43087,0.003,-0.966,0.12,-2.256,0.061,0.244,72.172
126384,132770,12633,0.002,-0.972,0.122,-2.195,-0.061,0.305,72.179
126358,132730,43087,0.001,-0.972,0.121,-2.195,-0.061,0.305,72.182
126358,132777,12634,0.001,-0.973,0.116,-1.402,0.122,0.305,72.188
126359,132730,43087,0,-0.967,0.122,-1.402,0.122,0.305,72.192
126359,132800,12646,-0.003,-0.968,0.118,-0.61,0.366,0.305,72.198
126357,132730,43087,-0.003,-0.967,0.12,-0.61,0.366,0.305,72.202
126357,132794,12643,-0.002,-0.966,0.12,-0.183,0.366,0.183,72.208
126385,132730,43087,-0.001,-0.967,0.122,-0.183,0.366,0.183,72.212
126385,132801,12646,-0.001,-0.967,0.12,0.244,0.366,-0.122,72.218
126364,132730,43087,0,-0.963,0.119,0.244,0.366,-0.122,72.222
126364,132832,12638,-0,-0.965,0.125,0.61,0.488,-0.244,72.228
126397,132730,43087,-0.003,-0.963,0.13,0.61,0.488,-0.244,72.232
126397,132817,12654,-0.004,-0.961,0.128,0.915,0.549,-0.244,72.238
126417,132730,43087,0,-0.961,0.125,0.915,0.549,-0.244,72.242
126417,132831,12643,0.003,-0.962,0.125,0.244,0.488,-0.244,72.248
126417,132730,43087,0.003,-0.963,0.128,0.244,0.488,-0.244,72.252
126417,132820,12630,0.001,-0.963,0.129,0.122,0.244,-0.122,72.258
126401,132730,43087,0.003,-0.964,0.124,0.122,0.244,-0.122,72.261
126401,132816,12633,0.003,-0.964,0.128,0.061,0.244,-0.244,72.268
126387,132730,43087,0.004,-0.963,0.127,0.061,0.244,-0.244,72.271
126387,132808,12633,0.003,-0.962,0.124,-0.244,0.244,0,72.278
126382,132730,43087,0.002,-0.963,0.119,-0.244,0.244,0,72.281
126382,132796,12614,0.004,-0.965,0.123,-0.549,0.244,0.061,72.287
126359,132730,43087,0.005,-0.972,0.126,-0.549,0.244,0.061,72.291
126359,132781,12645,0.003,-0.966,0.126,-0.122,0.183,0.122,72.297
126354,132730,43087,-0,-0.962,0.127,-0.122,0.183,0.122,72.301
126354,132789,12629,-0.001,-0.961,0.128,-0.244,0.366,0,72.307
126344,132730,43087,-0.001,-0.965,0.123,-0.244,0.366,0,72.311
126344,132818,12638,0.001,-0.965,0.122,-0.366,0.427,-0.061,72.317
126383,132730,43087,0.003,-0.964,0.127,-0.366,0.427,-0.061,72.321
126383,132803,12648,0.004,-0.966,0.129,-0.122,0.366,-0.061,72.327
126376,132730,43087,0.003,-0.963,0.125,-0.122,0.366,-0.061,72.331
126376,132817,12633,0.005,-0.958,0.127,-0.061,0.427,0.061,72.337
126346,132730,43087,0.004,-0.965,0.132,-0.061,0.427,0.061,72.341
126346,132806,12632,0.003,-0.967,0.129,-0.061,0.366,0.061,72.347
126370,132730,43087,0.004,-0.961,0.126,-0.061,0.366,0.061,72.351
126370,132805,12639,0.002,-0.963,0.125,-0.305,0.305,0.061,72.357
126354,132730,43087,0.002,-0.963,0.125,-0.305,0.305,0.061,72.36
126354,132790,12619,0.001,-0.964,0.124,-0.549,0.244,0.122,72.367
126352,132730,43087,0.004,-0.966,0.123,-0.549,0.244,0.122,72.37
126352,132793,12630,0.003,-0.968,0.119,-0.366,0.244,0.183,72.377
126324,132730,43087,0.002,-0.968,0.122,-0.366,0.244,0.183,72.38
126324,132806,12629,0.006,-0.963,0.124,0.183,0.366,0.305,72.386
126369,132730,43087,0.002,-0.963,0.124,0.183,0.366,0.305,72.39
126369,132766,12611,-0,-0.961,0.122,0.549,0.488,0.427,72.396
126360,132730,43087,0.001,-0.965,0.12,0.549,0.488,0.427,72.4
126360,132790,12622,0.002,-0.967,0.125,0.671,0.61,0.427,72.406
126360,132730,43087,0.003,-0.969,0.122,0.671,0.61,0.427,72.41
126360,132821,12634,0.002,-0.964,0.123,1.159,0.732,0.244,72.416
126360,132730,43087,0.001,-0.962,0.126,1.159,0.732,0.244,72.42
126360,132783,12625,0.002,-0.96,0.132,1.463,0.732,0.244,72.426
126349,132730,43087,-0.003,-0.959,0.131,1.463,0.732,0.244,72.43
126349,132781,12620,0,-0.96,0.128,0.976,0.61,0.366,72.436
126324,132730,43087,0.002,-0.959,0.13,0.976,0.61,0.366,72.44
126324,132784,12643,0,-0.961,0.134,0.305,0.366,0.183,72.446
126322,132730,43087,0.001,-0.96,0.132,0.305,0.366,0.183,72.45
126322,132755,12636,0.003,-0.956,0.131,-0.671,0.244,0.183,72.456
126295,132730,43087,-0,-0.96,0.131,-0.671,0.244,0.183,72.459
126295,132762,12631,0.001,-0.962,0.133,-1.585,0.122,0.244,72.466
126295,132730,43087,0.006,-0.96,0.125,-1.585,0.122,0.244,72.469
126295,132729,12602,0.006,-0.964,0.124,-1.89,0.061,0.305,72.476
126291,132730,43087,0.005,-0.966,0.127,-1.89,0.061,0.305,72.479
126291,132765,12631,0.004,-0.968,0.121,-1.768,0.122,0.549,72.485
126298,132730,43087,0.002,-0.966,0.121,-1.768,0.122,0.549,72.489
126298,132763,12617,0.003,-0.963,0.123,-1.585,0.183,0.732,72.495
126310,132730,43087,0.003,-0.965,0.122,-1.585,0.183,0.732,72.499
126310,132776,12614,0.001,-0.969,0.124,-1.22,0.183,0.61,72.505
126287,132730,43087,-0.005,-0.971,0.122,-1.22,0.183,0.61,72.509
126287,132769,12621,0,-0.967,0.118,-1.159,0.183,0.244,72.515
126282,132730,43087,0,-0.965,0.124,-1.159,0.183,0.244,72.519
126282,132736,12624,-0,-0.965,0.123,-0.793,0.244,0,72.525
126304,132730,43087,-0,-0.965,0.123,-0.793,0.244,0,72.529
126304,132767,12617,-0,-0.964,0.123,-0.427,0.305,-0.061,72.535
126293,132730,43087,-0,-0.964,0.123,-0.427,0.305,-0.061,72.539
126293,132769,12632,0,-0.967,0.124,-0.061,0.305,-0.061,72.545
126309,132730,43087,0,-0.967,0.124,-0.061,0.305,-0.061,72.549
126309,132754,12623,0.001,-0.965,0.122,0.122,0.366,-0.183,72.555
126314,132730,43087,0.001,-0.965,0.122,0.122,0.366,-0.183,72.558
126314,132757,12636,0.003,-0.959,0.125,0.305,0.427,-0.122,72.565
126304,132730,43087,0.003,-0.959,0.125,0.305,0.427,-0.122,72.568
126304,132771,12636,0.004,-0.961,0.128,0,0.427,0,72.575
126319,132730,43087,0.004,-0.961,0.128,0,0.427,0,72.578
126319,132782,12629,0.004,-0.964,0.125,-0.122,0.305,0.061,72.584
126334,132730,43087,0.004,-0.964,0.125,-0.122,0.305,0.061,72.588
126334,132770,12629,0,-0.964,0.122,-0.061,0.366,0.305,72.594
126339,132730,43087,0,-0.964,0.122,-0.061,0.366,0.305,72.598
126339,132793,12620,0.002,-0.962,0.125,-0.183,0.366,0.61,72.604
126360,132730,43087,0.002,-0.962,0.125,-0.183,0.366,0.61,72.608
126360,132802,12643,0.001,-0.969,0.119,-0.366,0.305,0.671,72.614
126357,132730,43087,0.001,-0.969,0.119,-0.366,0.305,0.671,72.618
126357,132787,12643,0.002,-0.969,0.124,0.244,0.488,0.671,72.624
126363,132730,43087,0.002,-0.969,0.124,0.244,0.488,0.671,72.628
126363,132786,12645,-0.001,-0.973,0.122,0.976,0.732,0.732,72.634
126361,132730,43087,-0.001,-0.973,0.122,0.976,0.732,0.732,72.638
126361,132777,12636,-0.003,-0.965,0.131,1.037,0.793,0.61,72.644
126366,132730,43087,-0.003,-0.965,0.131,1.037,0.793,0.61,72.648
126366,132808,12635,-0.001,-0.954,0.131,-0.061,0.61,0.122,72.654
126386,132730,43087,-0.001,-0.954,0.131,-0.061,0.61,0.122,72.657
126386,132789,12646,0,-0.959,0.125,-0.854,0.183,-0.427,72.664
126380,132730,43087,0,-0.959,0.125,-0.854,0.183,-0.427,72.667
126380,132800,12641,0.002,-0.96,0.124,-0.854,0.183,-0.427,72.673
126395,132730,43087,0.007,-0.962,0.129,-0.427,-0.061,-0.671,72.677
126395,132802,12638,0.003,-0.962,0.128,-0.427,-0.061,-0.671,72.683
126380,132730,43087,0.003,-0.963,0.128,0.122,0,-0.366,72.687
126380,132819,12654,0.005,-0.964,0.126,0.122,0,-0.366,72.693
126402,132730,43087,0.005,-0.969,0.122,-0.061,0.061,-0.122,72.697
126402,132813,12633,0.005,-0.972,0.118,-0.061,0.061,-0.122,72.703
126409,132730,43087,0.007,-0.974,0.118,-0.122,0.244,0,72.707
126409,132842,12636,0.007,-0.972,0.125,-0.122,0.244,0,72.713
126427,132730,43087,0.005,-0.965,0.123,0.305,0.427,0.061,72.717
126427,132849,12651,0.003,-0.96,0.125,0.305,0.427,0.061,72.723
126449,132730,43087,0.002,-0.952,0.125,0.244,0.61,0.366,72.727
126449,132858,12654,0.005,-0.956,0.128,0.244,0.61,0.366,72.733
126449,132730,43087,0.005,-0.958,0.128,-0.183,0.488,0.305,72.737
126449,132836,12655,0.008,-0.96,0.125,-0.183,0.488,0.305,72.743
126436,132730,43087,0.008,-0.965,0.128,-0.244,0.366,0.183,72.747
126436,132831,12660,0.006,-0.967,0.129,-0.244,0.366,0.183,72.753
126418,132730,43087,0.005,-0.964,0.128,-0.427,0.427,0.671,72.756
126418,132830,12643,0,-0.958,0.128,-0.427,0.427,0.671,72.763
126405,132730,43087,0.001,-0.958,0.127,-1.037,0.427,0.976,72.766
126405,132815,12645,0.001,-0.966,0.124,-1.037,0.427,0.976,72.772
126374,132730,43087,0.003,-0.969,0.119,-1.28,0.244,0.488,72.776
126374,132776,12649,0.006,-0.972,0.117,-1.28,0.244,0.488,72.782
126364,132730,43087,0.005,-0.971,0.114,-0.305,0.244,0.366,72.786
126364,132794,12645,0.007,-0.969,0.115,-0.305,0.244,0.366,72.792
126356,132730,43087,0.005,-0.964,0.119,1.037,0.61,0.61,72.796
126356,132785,12654,0.004,-0.962,0.123,1.037,0.61,0.61,72.802
126353,132730,43087,0.005,-0.969,0.122,1.707,0.854,0.732,72.806
126353,132772,12632,0.006,-0.969,0.126,1.707,0.854,0.732,72.812
126343,132730,43087,0.005,-0.965,0.127,1.646,0.854,0.732,72.816
126343,132789,12640,0.002,-0.959,0.13,1.646,0.854,0.732,72.822
126346,132730,43087,-0.001,-0.959,0.134,1.463,0.976,0.793,72.826
126346,132772,12634,-0.004,-0.956,0.131,1.463,0.976,0.793,72.832
