124310,131878,12509,0.039,-0.967,0.033,-0.854,0.183,0.305,43.164
124306,131962,43087,0.042,-0.964,0.026,-0.854,0.183,0.305,43.168
124306,131886,12486,0.046,-0.975,0.022,-1.22,0.122,-0.122,43.174
124273,131962,43087,0.048,-0.978,0.026,-1.22,0.122,-0.122,43.178
124273,131896,12478,0.048,-0.963,0.03,0.122,0.61,-0.366,43.184
124268,131962,43087,0.045,-0.963,0.033,0.122,0.61,-0.366,43.188
124268,131889,12487,0.041,-0.965,0.039,1.341,0.732,0,43.194
124276,131962,43087,0.044,-0.969,0.041,1.341,0.732,0,43.198
124276,131890,12486,0.044,-0.966,0.037,1.22,0.549,0.305,43.204
124258,131962,43087,0.038,-0.96,0.039,1.22,0.549,0.305,43.208
124258,131877,12493,0.04,-0.96,0.044,0.305,0.244,0.549,43.214
124261,131962,43087,0.04,-0.96,0.049,0.305,0.244,0.549,43.217
124261,131878,12485,0.04,-0.962,0.043,-0.793,-0.244,0.61,43.224
124287,131962,43087,0.043,-0.966,0.026,-0.793,-0.244,0.61,43.227
124287,131900,12485,0.044,-0.979,0.02,-2.073,-0.488,0.427,43.234
124299,131962,43087,0.041,-0.982,0.019,-2.073,-0.488,0.427,43.237
124299,131910,12472,0.042,-0.977,0.023,-0.976,0.061,0.427,43.243
124296,131962,43087,0.047,-0.971,0.024,-0.976,0.061,0.427,43.247
124296,131891,12486,0.045,-0.972,0.029,0.915,0.61,0.244,43.253
124317,131962,43087,0.043,-0.968,0.03,0.915,0.61,0.244,43.257
124317,131920,12494,0.044,-0.96,0.045,2.073,0.732,0.366,43.263
124336,131962,43087,0.046,-0.963,0.052,2.073,0.732,0.366,43.267
124336,131918,12497,0.042,-0.962,0.046,1.585,0.366,0.793,43.273
124334,131962,43087,0.036,-0.955,0.038,1.585,0.366,0.793,43.277
124334,131915,12486,0.041,-0.96,0.037,-0.671,0,1.098,43.283
124317,131962,43087,0.044,-0.973,0.032,-0.671,0,1.098,43.287
124317,131903,12496,0.043,-0.991,0.023,-1.829,-0.427,0.671,43.293
124351,131962,43087,0.041,-0.983,0.023,-1.829,-0.427,0.671,43.297
124351,131918,12501,0.04,-0.959,0.028,-0.915,0.244,0.488,43.303
124352,131962,43087,0.041,-0.953,0.028,-0.915,0.244,0.488,43.307
124352,131929,12478,0.044,-0.963,0.037,0.427,0.305,0.244,43.313
124357,131962,43087,0.046,-0.969,0.038,0.427,0.305,0.244,43.317
124357,131920,12480,0.045,-0.958,0.046,1.098,-0.183,-0.244,43.323
124363,131962,43087,0.045,-0.947,0.063,1.098,-0.183,-0.244,43.326
124363,131929,12497,0.041,-0.941,0.069,0.183,-1.22,0.61,43.333
124360,131962,43087,0.042,-0.958,0.061,0.183,-1.22,0.61,43.336
124360,131906,12488,0.037,-0.984,0.032,-4.085,-1.951,1.037,43.342
124371,131962,43087,0.035,-1,0.006,-4.085,-1.951,1.037,43.346
124371,131944,12492,0.036,-0.98,0.002,-6.341,-1.341,0.488,43.352
124399,131962,43087,0.047,-0.964,0.005,-6.341,-1.341,0.488,43.356
124399,131937,12507,0.053,-0.979,0.016,-3.171,-0.671,-0.366,43.362
124389,131962,43087,0.053,-0.998,0.012,-3.171,-0.671,-0.366,43.366
124389,131930,12518,0.045,-0.988,0.012,0.976,0.244,-0.305,43.372
124406,131962,43087,0.041,-0.963,0.027,0.976,0.244,-0.305,43.376
124406,131932,12518,0.045,-0.949,0.033,3.841,0.793,0.793,43.382
124398,131962,43087,0.044,-0.962,0.034,3.841,0.793,0.793,43.386
124398,131924,12503,0.045,-0.976,0.039,4.146,0.915,0.183,43.392
124432,131962,43087,0.049,-0.974,0.034,4.146,0.915,0.183,43.396
124432,131933,12511,0.047,-0.961,0.034,3.293,1.037,0.366,43.402
124444,131962,43087,0.043,-0.95,0.046,3.293,1.037,0.366,43.406
124444,131940,12494,0.047,-0.958,0.048,3.293,0.793,1.524,43.412
124433,131962,43087,0.047,-0.973,0.043,3.293,0.793,1.524,43.416
124433,131949,12503,0.042,-0.974,0.035,2.683,0.854,1.646,43.422
124457,131962,43087,0.042,-0.974,0.035,2.683,0.854,1.646,43.425
124457,131920,12508,0.037,-0.953,0.047,2.073,1.28,1.768,43.432
124435,131962,43087,0.037,-0.953,0.047,2.073,1.28,1.768,43.435
124435,131916,12507,0.042,-0.98,0.049,0.793,0.549,1.524,43.441
124419,131962,43087,0.042,-0.98,0.049,0.793,0.549,1.524,43.445
124419,131951,12515,0.035,-0.963,0.031,-1.585,0.488,1.463,43.451
124418,131962,43087,0.035,-0.963,0.031,-1.585,0.488,1.463,43.455
124418,131922,12514,0.038,-0.972,0.021,-2.073,0.366,1.402,43.461
124424,131962,43087,0.038,-0.972,0.021,-2.073,0.366,1.402,43.465
124424,131915,12524,0.043,-0.974,0.027,-1.159,0.61,0.244,43.471
124425,131962,43087,0.043,-0.974,0.027,-1.159,0.61,0.244,43.475
124425,131901,12500,0.043,-0.966,0.032,0.793,0.854,0,43.481
124434,131962,43087,0.043,-0.966,0.032,0.793,0.854,0,43.485
124434,131893,12520,0.039,-0.969,0.026,2.134,1.28,0.305,43.491
124434,131962,43087,0.039,-0.969,0.026,2.134,1.28,0.305,43.495
124434,131889,12492,0.039,-0.946,0.073,2.683,0.915,0.305,43.501
124425,131962,43087,0.039,-0.946,0.073,2.683,0.915,0.305,43.505
124425,131912,12511,0.035,-0.98,0.039,-0.427,-0.061,0.061,43.511
124432,131962,43087,0.035,-0.98,0.039,-0.427,-0.061,0.061,43.514
124432,131911,12500,0.033,-0.96,0.015,-2.988,0,0.061,43.521
124440,131962,43087,0.033,-0.96,0.015,-2.988,0,0.061,43.524
124440,131915,12496,0.051,-0.979,0.036,-1.098,-0.244,-1.037,43.531
124438,131962,43087,0.051,-0.979,0.036,-1.098,-0.244,-1.037,43.534
124438,131937,12500,0.042,-0.971,0.027,0.549,0.183,-0.854,43.54
124421,131962,43087,0.042,-0.971,0.027,0.549,0.183,-0.854,43.544
124421,131899,12487,0.042,-0.967,0.043,1.463,0.61,0.122,43.55
124394,131962,43087,0.042,-0.967,0.043,1.463,0.61,0.122,43.554
124394,131905,12498,0.047,-0.962,0.039,1.037,0.488,-0.122,43.56
124387,131962,43087,0.047,-0.962,0.039,1.037,0.488,-0.122,43.564
124387,131903,12487,0.044,-0.967,0.045,1.037,0.488,-0.122,43.57
124410,131962,43087,0.049,-0.966,0.042,-0.061,0.244,0.244,43.574
124410,131913,12506,0.05,-0.967,0.042,-0.061,0.244,0.244,43.58
124412,131962,43087,0.044,-0.961,0.043,-0.488,0.427,0.671,43.584
124412,131930,12495,0.045,-0.964,0.032,-0.488,0.427,0.671,43.59
124404,131962,43087,0.041,-0.971,0.031,-0.976,0.61,1.159,43.594
124404,131888,12491,0.037,-0.971,0.032,-0.976,0.61,1.159,43.6
124368,131962,43087,0.039,-0.961,0.044,-0.915,0.549,1.098,43.604
124368,131849,12501,0.044,-0.952,0.049,-0.915,0.549,1.098,43.61
124288,131962,43087,0.043,-0.969,0.04,-1.341,0,0.671,43.613
124288,131871,12475,0.038,-0.975,0.024,-1.341,0,0.671,43.62
124263,131962,43087,0.04,-0.969,0.024,-2.195,0.061,0.366,43.623
124263,131874,12484,0.044,-0.97,0.037,-2.195,0.061,0.366,43.63
124256,131962,43087,0.045,-0.972,0.032,-1.28,-0.061,0.244,43.633
124256,131848,12468,0.04,-0.979,0.015,-1.28,-0.061,0.244,43.639
124236,131962,43087,0.038,-0.982,0.025,-0.793,0.427,0.061,43.643
124236,131849,12477,0.044,-0.978,0.04,-0.793,0.427,0.061,43.649
124244,131962,43087,0.045,-0.966,0.035,0.61,0.793,0.061,43.653
124244,131870,12477,0.042,-0.964,0.027,0.61,0.793,0.061,43.659
124232,131962,43087,0.041,-0.968,0.026,0.793,1.037,0,43.663
124232,131846,12469,0.044,-0.964,0.039,0.793,1.037,0,43.669
124226,131706,43087,0.048,-0.958,0.046,1.768,1.037,-0.366,43.673
124226,131831,12489,0.045,-0.955,0.043,1.768,1.037,-0.366,43.679
124225,131962,43087,0.044,-0.954,0.043,1.463,0.61,-0.183,43.683
124225,131845,12478,0.04,-0.961,0.062,1.463,0.61,-0.183,43.689
124241,131706,43087,0.041,-0.959,0.065,0.244,0,0.305,43.693
124241,131830,12477,0.039,-0.959,0.043,0.244,0,0.305,43.699
124232,131962,43087,0.037,-0.968,0.027,-3.11,-0.61,0.427,43.703
124232,131848,12480,0.041,-0.979,0.025,-3.11,-0.61,0.427,43.709
124200,131962,43087,0.046,-0.98,0.022,-4.146,-0.366,0.244,43.712
124200,131856,12474,0.045,-0.979,0.024,-4.146,-0.366,0.244,43.719
124199,131706,43087,0.042,-0.97,0.03,-2.317,0,-0.061,43.722
124199,131835,12474,0.043,-0.967,0.029,-2.317,0,-0.061,43.729
124200,131706,43087,0.04,-0.97,0.034,-0.671,0.366,0.305,43.732
124200,131822,12476,0.037,-0.962,0.047,-0.671,0.366,0.305,43.738
124187,131962,43087,0.039,-0.948,0.049,-0.427,0.366,0.488,43.742
124187,131854,12482,0.04,-0.951,0.045,-0.427,0.366,0.488,43.748
124181,131962,43087,0.038,-0.968,0.044,-2.378,-0.549,0.427,43.752
124181,131850,12461,0.034,-0.969,0.038,-2.378,-0.549,0.427,43.758
124200,131962,43087,0.04,-0.967,0.035,-3.902,-0.976,0.183,43.762
124200,131866,12468,0.042,-0.974,0.028,-3.902,-0.976,0.183,43.768
124196,131706,43087,0.042,-0.978,0.021,-4.146,-1.037,-0.244,43.772
124196,131830,12464,0.045,-0.979,0.015,-4.146,-1.037,-0.244,43.778
124169,131706,43087,0.049,-0.972,0.019,-2.5,-0.305,-0.427,43.782
124169,131826,12467,0.048,-0.966,0.033,-2.5,-0.305,-0.427,43.788
124196,131706,43087,0.046,-0.966,0.036,-0.427,-0.061,-0.366,43.792
124196,131838,12479,0.047,-0.969,0.032,-0.427,-0.061,-0.366,43.798
124192,131962,43087,0.043,-0.973,0.026,-0.366,0.244,0.061,43.802
124192,131848,12471,0.043,-0.973,0.027,-0.366,0.244,0.061,43.808
124182,131706,43087,0.045,-0.958,0.042,-0.305,0.366,0.305,43.811
124182,131826,12477,0.05,-0.956,0.042,-0.305,0.366,0.305,43.818
124181,131706,43087,0.046,-0.966,0.034,-0.854,-0.061,0.366,43.821
124181,131836,12473,0.038,-0.975,0.036,-0.854,-0.061,0.366,43.828
124188,131706,43087,0.04,-0.974,0.025,-1.829,-0.122,0.488,43.831
124188,131838,12464,0.042,-0.969,0.023,-1.829,-0.122,0.488,43.837
124205,131706,43087,0.042,-0.962,0.032,-1.22,0.366,0.305,43.841
124205,131830,12470,0.049,-0.973,0.027,-1.22,0.366,0.305,43.847
124201,131706,43087,0.045,-0.977,0.025,-0.61,0.488,0.122,43.851
124201,131830,12471,0.041,-0.972,0.029,-0.61,0.488,0.122,43.857
124219,131962,43087,0.046,-0.957,0.034,0.061,0.793,0.366,43.861
124219,131885,12477,0.047,-0.956,0.036,0.061,0.793,0.366,43.867
124235,131962,43087,0.044,-0.966,0.034,0.366,0.671,0.305,43.871
124235,131891,12469,0.044,-0.971,0.03,0.366,0.671,0.305,43.877
124226,131962,43087,0.044,-0.972,0.026,-0.244,0.671,0.183,43.881
124226,131858,12468,0.043,-0.977,0.025,-0.244,0.671,0.183,43.887
124210,131962,43087,0.043,-0.972,0.021,0.122,1.098,0.366,43.891
124210,131849,12491,0.04,-0.962,0.021,0.122,1.098,0.366,43.897
124215,131962,43087,0.045,-0.957,0.03,1.402,0.915,0.488,43.901
124215,131846,12478,0.049,-0.967,0.039,1.402,0.915,0.488,43.907
124198,131962,43087,0.045,-0.974,0.053,2.439,0.732,0.305,43.91
124198,131851,12489,0.041,-0.966,0.047,2.439,0.732,0.305,43.917
124204,131962,43087,0.036,-0.951,0.045,1.341,0.671,0.61,43.92
124204,131877,12479,0.037,-0.958,0.037,1.341,0.671,0.61,43.927
124213,131962,43087,0.041,-0.972,0.022,-1.22,0.244,0.671,43.93
124213,131864,12475,0.042,-0.982,0.012,-1.22,0.244,0.671,43.936
124241,131962,43087,0.046,-0.972,0.016,-0.915,0.305,-0.061,43.94
124241,131869,12469,0.048,-0.976,0.02,-0.915,0.305,-0.061,43.946
124241,131962,43087,0.044,-0.985,0.019,2.134,0.732,0.061,43.95
124241,131861,12473,0.041,-0.973,0.023,2.134,0.732,0.061,43.956
124232,131962,43087,0.04,-0.954,0.039,4.573,1.585,0.183,43.96
124232,131866,12481,0.044,-0.948,0.048,4.573,1.585,0.183,43.966
124231,131962,43087,0.046,-0.963,0.037,3.841,1.037,-0.122,43.97
124231,131848,12457,0.035,-0.975,0.049,3.841,1.037,-0.122,43.976
124232,131706,43087,0.036,-0.962,0.078,1.707,0.427,-0.244,43.98
124232,131830,12476,0.048,-0.94,0.082,1.707,0.427,-0.244,43.986
124195,131962,43087,0.039,-0.936,0.048,-3.171,-0.671,0,43.99
124195,131847,12491,0.028,-0.951,0.036,-3.171,-0.671,0,43.996
124183,131706,43087,0.035,-0.954,0.056,-9.085,-1.829,0.366,44
124183,131834,12474,0.043,-0.948,0.057,-9.085,-1.829,0.366,44.006
124196,131706,43087,0.043,-0.948,0.057,-9.085,-1.829,0.366,44.009
124196,131839,12479,0.047,-0.966,0.026,-11.037,-3.598,-0.61,44.016
124170,131706,43087,0.047,-0.966,0.026,-11.037,-3.598,-0.61,44.019
124170,131837,12452,0.044,-1,0.003,-11.768,-3.72,-0.915,44.026
124172,131706,43087,0.044,-1,0.003,-11.768,-3.72,-0.915,44.029
124172,131818,12474,0.047,-0.975,-0.002,-9.573,-3.11,-0.427,44.035
124158,131706,43087,0.047,-0.975,-0.002,-9.573,-3.11,-0.427,44.039
124158,131822,12458,0.053,-0.985,0.009,-6.037,-1.829,-0.427,44.045
124151,131706,43087,0.053,-0.985,0.009,-6.037,-1.829,-0.427,44.049
124151,131830,12484,0.055,-0.981,0.005,-2.317,-0.61,-0.244,44.055
124168,131706,43087,0.055,-0.981,0.005,-2.317,-0.61,-0.244,44.059
124168,131825,12464,0.046,-0.977,0.019,0.915,0.976,0.366,44.065
124125,131706,43087,0.046,-0.977,0.019,0.915,0.976,0.366,44.069
124125,131822,12459,0.044,-0.953,0.047,3.354,1.89,1.22,44.075
124135,131706,43087,0.044,-0.953,0.047,3.354,1.89,1.22,44.079
124135,131809,12475,0.04,-0.957,0.034,2.256,1.341,1.524,44.085
124136,131706,43087,0.04,-0.957,0.034,2.256,1.341,1.524,44.089
124136,131796,12454,0.045,-0.958,0.035,-0.671,0.976,1.524,44.095
124108,131706,43087,0.045,-0.958,0.035,-0.671,0.976,1.524,44.099
124108,131812,12457,0.042,-0.971,0.029,-1.707,0.061,1.463,44.105
124102,131706,43087,0.042,-0.971,0.029,-1.707,0.061,1.463,44.108
124102,131826,12439,0.044,-0.972,0.012,-1.951,0.305,1.585,44.115
124122,131706,43087,0.044,-0.972,0.012,-1.951,0.305,1.585,44.118
124122,131807,12461,0.042,-0.974,0.036,-1.768,0.488,1.768,44.125
124126,131706,43087,0.042,-0.974,0.036,-1.768,0.488,1.768,44.128
124126,131813,12462,0.041,-0.952,0.033,-1.098,0.549,1.829,44.134
124142,131706,43087,0.041,-0.952,0.033,-1.098,0.549,1.829,44.138
124142,131829,12451,0.04,-0.956,0.047,-2.317,0.244,1.951,44.144
124172,131962,43087,0.04,-0.956,0.047,-2.317,0.244,1.951,44.148
124172,131877,12458,0.04,-0.964,0.038,-4.634,-0.671,1.585,44.154
124186,131962,43087,0.036,-0.971,0.022,-4.634,-0.671,1.585,44.158
124186,131864,12464,0.038,-0.972,0.004,-7.256,-0.854,1.341,44.164
124197,131962,43087,0.038,-0.974,0.002,-7.256,-0.854,1.341,44.168
124197,131878,12470,0.047,-0.976,0.009,-6.585,-0.854,0.854,44.174
124209,131962,43087,0.05,-0.977,0.005,-6.585,-0.854,0.854,44.178
124209,131866,12469,0.045,-0.974,0.007,-3.171,-0.427,0.427,44.184
124210,131962,43087,0.042,-0.974,0.022,-3.171,-0.427,0.427,44.188
124210,131848,12464,0.043,-0.971,0.021,-0.122,0.061,0.854,44.194
124222,131962,43087,0.041,-0.972,0.017,-0.122,0.061,0.854,44.198
124222,131863,12458,0.038,-0.973,0.016,0.366,0.61,1.037,44.204
124200,131962,43087,0.041,-0.976,0.014,0.366,0.61,1.037,44.207
124200,131851,12488,0.043,-0.976,0.011,0.061,1.098,0.671,44.214
124211,131962,43087,0.043,-0.976,0.01,0.061,1.098,0.671,44.217
124211,131880,12482,0.044,-0.972,0.016,1.037,1.402,0.427,44.224
124204,131962,43087,0.044,-0.969,0.022,1.037,1.402,0.427,44.227
124204,131892,12482,0.041,-0.956,0.027,2.805,1.646,0.61,44.233
124224,131962,43087,0.043,-0.955,0.028,2.805,1.646,0.61,44.237
124224,131879,12486,0.044,-0.967,0.027,2.988,1.585,0.671,44.243
124263,131962,43087,0.04,-0.975,0.025,2.988,1.585,0.671,44.247
124263,131889,12481,0.04,-0.974,0.025,2.683,1.646,0.793,44.253
124285,131962,43087,0.036,-0.962,0.026,2.683,1.646,0.793,44.257
124285,131937,12481,0.042,-0.962,0.026,1.951,1.463,1.037,44.263
124354,131962,43087,0.045,-0.967,0.031,1.951,1.463,1.037,44.267
124354,131952,12491,0.045,-0.963,0.02,1.28,1.402,0.976,44.273
124409,131962,43087,0.041,-0.959,0.021,1.28,1.402,0.976,44.277
124409,132013,12498,0.044,-0.965,0.045,1.402,1.28,1.159,44.283
124410,131962,43087,0.044,-0.976,0.042,1.402,1.28,1.159,44.287
124410,132030,12505,0.036,-0.966,0.025,0.305,0.915,1.22,44.293
124449,131962,43087,0.033,-0.96,0.024,0.305,0.915,1.22,44.297
124449,132039,12517,0.039,-0.962,0.027,-1.524,0.671,1.28,44.303
124446,131962,43087,0.041,-0.965,0.02,-1.524,0.671,1.28,44.306
124446,132046,12519,0.039,-0.971,0.019,-2.012,0.61,0.671,44.313
124458,131962,43087,0.041,-0.974,0.023,-2.012,0.61,0.671,44.316
124458,132073,12499,0.042,-0.979,0.022,-1.098,0.488,0.183,44.323
124463,131962,43087,0.041,-0.976,0.017,-1.098,0.488,0.183,44.326
124463,132078,12502,0.034,-0.959,0.021,-0.61,0.671,0.183,44.332
124474,131962,43087,0.037,-0.946,0.031,-0.61,0.671,0.183,44.336
124474,132085,12517,0.045,-0.959,0.028,-0.976,0.122,0.244,44.342
124490,131962,43087,0.043,-0.969,0.018,-0.976,0.122,0.244,44.346
124490,132080,12515,0.042,-0.975,0.017,-1.22,-0.183,-0.366,44.352
124510,132218,43087,0.043,-0.984,0.012,-1.22,-0.183,-0.366,44.356
124510,132110,12510,0.045,-0.984,0.013,0.427,0.183,-0.183,44.362
124520,132218,43087,0.039,-0.976,0.012,0.427,0.183,-0.183,44.366
124520,132099,12508,0.037,-0.969,0.022,1.89,0.854,0.244,44.372
124515,132218,43087,0.04,-0.967,0.034,1.89,0.854,0.244,44.376
124515,132106,12518,0.04,-0.97,0.033,1.463,0.732,0.061,44.382
124493,131962,43087,0.041,-0.969,0.025,1.463,0.732,0.061,44.386
124493,132095,12515,0.041,-0.963,0.018,0.122,0.671,-0.061,44.392
124481,132218,43087,0.041,-0.961,0.024,0.122,0.671,-0.061,44.396
124481,132099,12510,0.043,-0.96,0.023,0.488,0.671,-0.122,44.402
124457,131962,43087,0.044,-0.96,0.016,0.488,0.671,-0.122,44.405
124457,132077,12513,0.044,-0.968,0.024,1.707,0.549,-0.305,44.412
124434,131962,43087,0.045,-0.969,0.037,1.707,0.549,-0.305,44.415
124434,132041,12507,0.047,-0.967,0.042,2.073,0.183,-0.122,44.422
124410,131962,43087,0.043,-0.962,0.035,2.073,0.183,-0.122,44.425
124410,132062,12498,0.042,-0.968,0.026,0.427,0.183,0.549,44.431
124384,131962,43087,0.041,-0.978,0.016,0.427,0.183,0.549,44.435
124384,132050,12501,0.04,-0.977,0.008,-0.976,0.488,0.61,44.441
124371,131962,43087,0.046,-0.981,0.014,-0.976,0.488,0.61,44.445
124371,132034,12510,0.048,-0.975,0.01,-0.061,0.976,0.427,44.451
124357,131962,43087,0.043,-0.967,0.018,-0.061,0.976,0.427,44.455
124357,132016,12482,0.04,-0.953,0.026,2.073,1.341,0.732,44.461
124323,131962,43087,0.04,-0.949,0.047,2.073,1.341,0.732,44.465
124323,132020,12490,0.044,-0.957,0.048,2.683,0.61,0.793,44.471
124304,131962,43087,0.042,-0.969,0.036,2.683,0.61,0.793,44.475
124304,131981,12498,0.036,-0.981,0.02,0.671,0.122,0.671,44.481
124310,131962,43087,0.035,-0.972,0.007,0.671,0.122,0.671,44.485
124310,131989,12494,0.037,-0.972,0.014,-0.183,0.549,0.427,44.491
124331,131962,43087,0.043,-0.98,0.016,-0.183,0.549,0.427,44.495
124331,131986,12491,0.041,-0.984,0.009,1.22,1.037,-0.61,44.501
124327,131962,43087,0.042,-0.976,0.013,1.22,1.037,-0.61,44.504
124327,131994,12498,0.047,-0.962,0.025,3.598,1.768,-0.61,44.511
124312,131962,43087,0.046,-0.954,0.028,3.598,1.768,-0.61,44.514
124312,131991,12495,0.044,-0.96,0.04,5.854,1.768,-0.244,44.52
124319,131962,43087,0.044,-0.963,0.042,5.854,1.768,-0.244,44.524
124319,131997,12505,0.04,-0.962,0.038,5.061,1.524,-0.061,44.53
124295,131962,43087,0.038,-0.963,0.035,5.061,1.524,-0.061,44.534
124295,131975,12492,0.04,-0.974,0.033,2.866,1.28,0.122,44.54
124301,131962,43087,0.04,-0.972,0.023,2.866,1.28,0.122,44.544
124301,131938,12505,0.042,-0.965,0.024,1.585,1.159,0.061,44.55
124299,131962,43087,0.043,-0.967,0.036,1.585,1.159,0.061,44.554
124299,131943,12502,0.044,-0.964,0.032,2.439,1.159,0.183,44.56
124289,131962,43087,0.042,-0.961,0.024,2.439,1.159,0.183,44.564
124289,131937,12505,0.041,-0.964,0.036,2.744,1.037,0.366,44.57
124283,131962,43087,0.041,-0.958,0.039,2.744,1.037,0.366,44.574
124283,131937,12498,0.039,-0.958,0.05,2.5,0.854,0.61,44.58
124320,131962,43087,0.039,-0.962,0.049,2.5,0.854,0.61,44.584
124320,131948,12503,0.038,-0.965,0.034,0.549,0.549,0.427,44.59
124299,131962,43087,0.039,-0.97,0.025,0.549,0.549,0.427,44.594
124299,131937,12493,0.039,-0.981,0.024,-1.524,0.427,0.305,44.6
124291,131962,43087,0.039,-0.981,0.024,-1.524,0.427,0.305,44.603
124291,131950,12482,0.04,-0.974,0.023,-0.61,0.549,-0.183,44.61
124287,131962,43087,0.04,-0.974,0.023,-0.61,0.549,-0.183,44.613
124287,131930,12513,0.042,-0.96,0.034,0.793,0.732,-0.427,44.62
124291,131962,43087,0.042,-0.96,0.034,0.793,0.732,-0.427,44.623
124291,131945,12509,0.042,-0.969,0.027,0.549,0.488,-0.427,44.629
124260,131962,43087,0.042,-0.969,0.027,0.549,0.488,-0.427,44.633
124260,131914,12486,0.042,-0.971,0.026,0.671,0.549,-0.671,44.639
124258,131962,43087,0.042,-0.971,0.026,0.671,0.549,-0.671,44.643
124258,131912,12486,0.047,-0.973,0.03,1.585,0.915,-0.671,44.649
124277,131962,43087,0.047,-0.973,0.03,1.585,0.915,-0.671,44.653
124277,131936,12486,0.043,-0.963,0.026,2.012,1.159,-0.244,44.659
124264,131962,43087,0.043,-0.963,0.026,2.012,1.159,-0.244,44.663
124264,131915,12486,0.047,-0.974,0.041,2.073,1.159,-0.244,44.669
124272,131962,43087,0.047,-0.974,0.041,2.073,1.159,-0.244,44.673
124272,131922,12494,0.046,-0.959,0.029,2.378,1.402,-0.305,44.679
124277,131962,43087,0.046,-0.959,0.029,2.378,1.402,-0.305,44.683
124277,131930,12489,0.043,-0.967,0.048,2.073,1.037,0.427,44.689
124246,131962,43087,0.043,-0.967,0.048,2.073,1.037,0.427,44.693
124246,131896,12479,0.042,-0.956,0.031,1.098,0.732,0.427,44.699
124253,131962,43087,0.042,-0.956,0.031,1.098,0.732,0.427,44.702
124253,131864,12497,0.041,-0.963,0.049,0.305,0.488,0.427,44.709
124252,131962,43087,0.041,-0.963,0.049,0.305,0.488,0.427,44.712
124252,131885,12491,0.043,-0.97,0.026,-1.098,0.183,0.183,44.718
124245,131962,43087,0.043,-0.97,0.026,-1.098,0.183,0.183,44.722
124245,131903,12492,0.046,-0.972,0.019,-1.159,0.366,0,44.728
124242,131962,43087,0.046,-0.972,0.019,-1.159,0.366,0,44.732
124242,131899,12489,0.042,-0.976,0.039,0.427,0.61,0.244,44.738
124219,131706,43087,0.042,-0.976,0.039,0.427,0.61,0.244,44.742
124219,131830,12488,0.04,-0.967,0.021,0.427,0.61,0.244,44.748
124184,131962,43087,0.037,-0.961,0.029,0.793,0.793,0.366,44.752
124184,131853,12475,0.042,-0.965,0.051,0.793,0.793,0.366,44.758
124181,131962,43087,0.048,-0.958,0.056,0.915,0.305,-0.061,44.762
124181,131840,12476,0.045,-0.957,0.053,0.915,0.305,-0.061,44.768
124170,131706,43087,0.037,-0.961,0.041,-1.829,-0.427,0.244,44.772
124170,131831,12478,0.036,-0.96,0.036,-1.829,-0.427,0.244,44.778
124200,131962,43087,0.045,-0.964,0.042,-4.329,-1.037,0.732,44.782
124200,131871,12478,0.053,-0.971,0.031,-4.329,-1.037,0.732,44.788
124192,131962,43087,0.043,-0.981,0.026,-5.244,-1.28,0.244,44.792
124192,131860,12485,0.034,-0.965,0.027,-5.244,-1.28,0.244,44.798
124218,131962,43087,0.041,-0.948,0.015,-5.366,-0.976,0.488,44.801
124218,131845,12481,0.05,-0.965,0.02,-5.366,-0.976,0.488,44.808
124227,131962,43087,0.049,-0.981,0.029,-3.659,-0.976,-0.061,44.811
124227,131841,12475,0.047,-0.963,0.038,-3.659,-0.976,-0.061,44.817
124220,131962,43087,0.05,-0.953,0.037,-1.646,-0.915,0.305,44.821
124220,131878,12487,0.048,-0.986,0.019,-1.646,-0.915,0.305,44.827
124264,131962,43087,0.036,-0.983,0.02,-1.585,-0.549,1.22,44.831
124264,131908,12501,0.038,-0.955,0.033,-1.585,-0.549,1.22,44.837
124257,131962,43087,0.051,-0.974,0.025,-0.854,-0.183,1.28,44.841
124257,131876,12491,0.049,-0.998,-0.003,-0.854,-0.183,1.28,44.847
124270,131962,43087,0.038,-0.992,-0.008,-0.427,0.488,0.915,44.851
124270,131860,12479,0.048,-0.98,0.015,-0.427,0.488,0.915,44.857
124241,131962,43087,0.055,-0.974,0.022,3.963,1.646,0.976,44.861
124241,131873,12471,0.045,-0.966,0.033,3.963,1.646,0.976,44.867
124255,131962,43087,0.038,-0.97,0.034,6.22,2.195,1.098,44.871
124255,131895,12472,0.042,-0.963,0.031,6.22,2.195,1.098,44.877
124267,131962,43087,0.041,-0.952,0.041,5.549,2.439,0.915,44.881
124267,131887,12485,0.039,-0.957,0.057,5.549,2.439,0.915,44.887
124298,131962,43087,0.044,-0.959,0.056,4.146,1.707,0.488,44.891
124298,131860,12502,0.039,-0.964,0.039,4.146,1.707,0.488,44.897
124272,131962,43087,0.036,-0.97,0.047,1.829,1.037,0.61,44.9
124272,131875,12491,0.041,-0.959,0.045,1.829,1.037,0.61,44.907
124272,131962,43087,0.042,-0.947,0.039,0.488,0.793,0.671,44.91
124272,131862,12487,0.038,-0.957,0.04,0.488,0.793,0.671,44.916
124279,131962,43087,0.039,-0.964,0.044,-0.793,0.244,0.305,44.92
124279,131870,12488,0.041,-0.968,0.043,-0.793,0.244,0.305,44.926
124300,131962,43087,0.041,-0.958,0.038,-2.073,-0.366,0,44.93
124300,131871,12484,0.041,-0.953,0.047,-2.073,-0.366,0,44.936
124301,131962,43087,0.042,-0.96,0.047,-3.415,-1.159,0.122,44.94
124301,131876,12494,0.044,-0.975,0.022,-3.415,-1.159,0.122,44.946
124313,131962,43087,0.042,-0.987,0.012,-5.488,-1.28,0,44.95
124313,131884,12491,0.042,-0.986,0.01,-5.488,-1.28,0,44.956
124334,131962,43087,0.042,-0.983,0.004,-4.573,-0.671,-0.305,44.96
124334,131885,12509,0.044,-0.981,0.009,-4.573,-0.671,-0.305,44.966
124338,131962,43087,0.046,-0.975,0.026,-0.976,0,-0.549,44.97
124338,131882,12496,0.048,-0.971,0.035,-0.976,0,-0.549,44.976
124338,131962,43087,0.046,-0.967,0.029,1.22,0.427,-0.183,44.98
124338,131895,12498,0.036,-0.97,0.029,1.22,0.427,-0.183,44.986
124334,131962,43087,0.04,-0.969,0.022,1.646,1.159,0.305,44.99
124334,131896,12507,0.042,-0.965,0.018,1.646,1.159,0.305,44.996
124350,131962,43087,0.044,-0.964,0.04,2.378,1.159,0.061,44.999
124350,131903,12485,0.047,-0.966,0.051,2.378,1.159,0.061,45.006
124350,131962,43087,0.044,-0.969,0.043,2.439,0.671,0.183,45.009
124350,131891,12490,0.037,-0.965,0.039,2.439,0.671,0.183,45.015
124336,131962,43087,0.038,-0.963,0.032,0.915,0.793,0.732,45.019
124336,131883,12486,0.04,-0.969,0.032,0.915,0.793,0.732,45.025
124345,131962,43087,0.042,-0.964,0.034,0.122,0.671,0.366,45.029
124345,131893,12487,0.044,-0.956,0.036,0.122,0.671,0.366,45.035
124326,131962,43087,0.045,-0.961,0.051,-0.305,0.183,0.061,45.039
124326,131866,12499,0.045,-0.968,0.04,-0.305,0.183,0.061,45.045
124324,131962,43087,0.043,-0.974,0.033,-0.793,-0.122,0.183,45.049
124324,131862,12484,0.04,-0.968,0.031,-0.793,-0.122,0.183,45.055
124300,131962,43087,0.041,-0.962,0.025,-1.159,0.244,0.305,45.059
124300,131858,12472,0.043,-0.968,0.02,-1.159,0.244,0.305,45.065
124292,131962,43087,0.044,-0.977,0.017,-0.976,0.366,-0.122,45.069
124292,131876,12488,0.047,-0.981,0.017,-0.976,0.366,-0.122,45.075
124297,131962,43087,0.049,-0.98,0.021,0.915,0.732,-0.427,45.079
124297,131877,12486,0.046,-0.974,0.028,0.915,0.732,-0.427,45.085
124291,131962,43087,0.044,-0.961,0.041,3.415,1.402,-0.061,45.089
124291,131861,12477,0.043,-0.949,0.055,3.415,1.402,-0.061,45.095
124259,131706,43087,0.042,-0.948,0.053,3.11,1.037,0.427,45.098
124259,131819,12481,0.042,-0.963,0.038,3.11,1.037,0.427,45.105
124211,131962,43087,0.04,-0.979,0.034,0.061,0.549,0.427,45.108
124211,131841,12468,0.044,-0.973,0.032,0.061,0.549,0.427,45.114
124172,131706,43087,0.047,-0.96,0.033,-0.549,0.366,0.244,45.118
124172,131812,12460,0.045,-0.961,0.034,-0.549,0.366,0.244,45.124
124177,131706,43087,0.045,-0.967,0.034,-0.244,0.366,0.244,45.128
124177,131807,12477,0.045,-0.973,0.034,-0.244,0.366,0.244,45.134
124192,131706,43087,0.042,-0.972,0.035,-0.061,0.549,0.305,45.138
124192,131827,12459,0.043,-0.966,0.028,-0.061,0.549,0.305,45.144
124157,131706,43087,0.041,-0.971,0.027,0.244,0.793,0.183,45.148
124157,131799,12449,0.043,-0.978,0.032,0.244,0.793,0.183,45.154
124156,131706,43087,0.044,-0.973,0.03,1.463,1.098,0.366,45.158
124156,131794,12458,0.042,-0.958,0.031,1.463,1.098,0.366,45.164
124159,131706,43087,0.047,-0.946,0.044,1.707,0.854,0.366,45.168
124159,131804,12466,0.05,-0.965,0.047,1.707,0.854,0.366,45.174
124154,131706,43087,0.045,-0.988,0.033,1.037,0.427,0.244,45.178
124154,131811,12442,0.039,-0.989,0.03,1.037,0.427,0.244,45.184
124156,131706,43087,0.039,-0.989,0.03,1.037,0.427,0.244,45.188
124156,131806,12462,0.047,-0.955,0.036,0.427,0.793,0.854,45.194
124153,131706,43087,0.047,-0.955,0.036,0.427,0.793,0.854,45.197
124153,131806,12460,0.041,-0.979,0.032,-0.427,0.488,0.427,45.204
124127,131706,43087,0.041,-0.979,0.032,-0.427,0.488,0.427,45.207
124127,131782,12449,0.046,-0.963,0.024,-0.976,0.488,0.427,45.213
124135,131706,43087,0.046,-0.963,0.024,-0.976,0.488,0.427,45.217
124135,131785,12452,0.044,-0.968,0.035,-0.305,0.671,0.427,45.223
124114,131706,43087,0.044,-0.968,0.035,-0.305,0.671,0.427,45.227
124114,131790,12462,0.041,-0.973,0.031,1.098,0.793,0.366,45.233
124140,131706,43087,0.041,-0.973,0.031,1.098,0.793,0.366,45.237
124140,131814,12454,0.047,-0.965,0.049,1.829,1.098,0.793,45.243
124125,131706,43087,0.047,-0.965,0.049,1.829,1.098,0.793,45.247
124125,131826,12468,0.038,-0.968,0.036,1.829,1.037,0.793,45.253
124137,131706,43087,0.038,-0.968,0.036,1.829,1.037,0.793,45.257
124137,131800,12466,0.045,-0.96,0.036,1.159,1.098,1.037,45.263
124141,131962,43087,0.045,-0.96,0.036,1.159,1.098,1.037,45.267
124141,131842,12456,0.047,-0.974,0.046,0.488,0.976,0.183,45.273
124123,131706,43087,0.047,-0.974,0.046,0.488,0.976,0.183,45.277
124123,131809,12473,0.04,-0.951,0.037,-0.061,0.793,0.549,45.283
124120,131706,43087,0.04,-0.951,0.037,-0.061,0.793,0.549,45.286
124120,131811,12461,0.046,-0.964,0.055,-1.341,0.366,1.037,45.293
124123,131706,43087,0.046,-0.964,0.055,-1.341,0.366,1.037,45.296
124123,131792,12466,0.04,-0.963,0.051,-2.988,-0.122,0.366,45.303
124118,131706,43087,0.04,-0.963,0.051,-2.988,-0.122,0.366,45.306
124118,131805,12460,0.041,-0.954,0.021,-5.671,-1.159,0.976,45.312
124148,131706,43087,0.041,-0.954,0.021,-5.671,-1.159,0.976,45.316
124148,131798,12465,0.044,-0.967,0.052,-7.012,-1.768,0.915,45.322
124157,131706,43087,0.044,-0.967,0.052,-7.012,-1.768,0.915,45.326
124157,131803,12470,0.047,-0.972,0.042,-5.732,-2.622,0.427,45.332
124171,131706,43087,0.039,-0.976,0.006,-5.732,-2.622,0.427,45.336
124171,131808,12462,0.032,-0.975,0.008,-6.159,-2.378,0.427,45.342
124195,131962,43087,0.045,-0.979,0.016,-6.159,-2.378,0.427,45.346
124195,131847,12458,0.053,-0.986,0.004,-4.024,-1.585,0.244,45.352
124207,131706,43087,0.049,-0.985,-0.003,-4.024,-1.585,0.244,45.356
124207,131833,12470,0.05,-1,-0.015,-0.732,-0.183,0.061,45.362
124208,131706,43087,0.048,-1.005,-0.005,-0.732,-0.183,0.061,45.366
124208,131836,12460,0.044,-0.986,0.024,4.695,1.28,0.671,45.372
124208,131706,43087,0.044,-0.965,0.041,4.695,1.28,0.671,45.376
124208,131832,12459,0.04,-0.948,0.049,7.5,2.256,1.22,45.382
124200,131962,43087,0.035,-0.933,0.055,7.5,2.256,1.22,45.386
124200,131854,12466,0.04,-0.941,0.057,4.512,1.646,1.707,45.392
124223,131962,43087,0.046,-0.969,0.048,4.512,1.646,1.707,45.395
124223,131844,12469,0.042,-0.98,0.033,1.402,0.732,1.22,45.402
124232,131962,43087,0.039,-0.975,0.029,1.402,0.732,1.22,45.405
124232,131845,12495,0.038,-0.96,0.036,1.524,1.037,1.768,45.411
124216,131962,43087,0.039,-0.958,0.047,1.524,1.037,1.768,45.415
124216,131855,12474,0.039,-0.97,0.046,1.768,0.915,2.012,45.421
124252,131962,43087,0.036,-0.975,0.039,1.768,0.915,2.012,45.425
124252,131857,12470,0.03,-0.972,0.028,0.061,1.159,1.646,45.431
124244,131962,43087,0.035,-0.961,0.034,0.061,1.159,1.646,45.435
124244,131879,12483,0.037,-0.955,0.042,-0.61,0.793,1.159,45.441
124243,131962,43087,0.039,-0.958,0.038,-0.61,0.793,1.159,45.445
124243,131848,12487,0.039,-0.961,0.039,-0.854,0.305,0.366,45.451
124242,131706,43087,0.038,-0.958,0.043,-0.854,0.305,0.366,45.455
124242,131831,12488,0.04,-0.957,0.04,-1.28,-0.122,0.305,45.461
124263,131962,43087,0.041,-0.967,0.036,-1.28,-0.122,0.305,45.465
124263,131846,12491,0.039,-0.975,0.028,-2.073,-0.244,0,45.471
124303,131962,43087,0.036,-0.977,0.028,-2.073,-0.244,0,45.475
124303,131887,12480,0.043,-0.97,0.028,-2.195,-0.061,-0.183,45.481
124317,131962,43087,0.041,-0.972,0.022,-2.195,-0.061,-0.183,45.484
124317,131880,12501,0.036,-0.964,0.037,-1.585,0.061,-0.305,45.491
124326,131962,43087,0.044,-0.951,0.055,-1.585,0.061,-0.305,45.494
124326,131898,12497,0.048,-0.962,0.047,-1.463,-0.61,-0.305,45.501
124335,131962,43087,0.043,-0.976,0.027,-1.463,-0.61,-0.305,45.504
124335,131900,12492,0.038,-0.976,0.009,-3.232,-0.366,-0.122,45.51
124349,131962,43087,0.044,-0.973,0.009,-3.232,-0.366,-0.122,45.514
124349,131908,12506,0.047,-0.977,0.019,-2.073,0.122,0,45.52
124344,131962,43087,0.047,-0.976,0.021,-2.073,0.122,0,45.524
124344,131909,12509,0.049,-0.969,0.024,0.061,0.427,-0.366,45.53
124348,131962,43087,0.048,-0.967,0.027,0.061,0.427,-0.366,45.534
124348,131922,12508,0.045,-0.973,0.033,1.585,0.915,0.244,45.54
124362,131962,43087,0.045,-0.975,0.034,1.585,0.915,0.244,45.544
124362,131908,12500,0.042,-0.973,0.03,2.5,1.098,0.427,45.55
124362,131962,43087,0.042,-0.965,0.035,2.5,1.098,0.427,45.554
124362,131911,12497,0.042,-0.957,0.039,1.707,1.037,0.549,45.56
124376,131962,43087,0.042,-0.961,0.035,1.707,1.037,0.549,45.564
124376,131896,12503,0.044,-0.964,0.035,0.671,0.915,0.549,45.57
124363,131962,43087,0.043,-0.966,0.034,0.671,0.915,0.549,45.574
124363,131895,12515,0.044,-0.964,0.034,0.244,0.793,0.366,45.58
124343,131962,43087,0.042,-0.962,0.033,0.244,0.793,0.366,45.583
124343,131883,12519,0.043,-0.956,0.04,0.366,0.671,0.488,45.59
124350,131962,43087,0.044,-0.958,0.049,0.366,0.671,0.488,45.593
124350,131894,12497,0.044,-0.966,0.041,-0.122,0.061,0.488,45.6
124295,131962,43087,0.042,-0.975,0.031,-0.122,0.061,0.488,45.603
124295,131850,12483,0.043,-0.977,0.03,-0.976,0.061,0.61,45.609
124264,131962,43087,0.041,-0.973,0.032,-0.976,0.061,0.61,45.613
124264,131869,12483,0.04,-0.969,0.029,-0.976,0.305,0.793,45.619
124185,131706,43087,0.042,-0.966,0.026,-0.976,0.305,0.793,45.623
124185,131798,12474,0.041,-0.967,0.037,-1.159,0.427,0.732,45.629
124189,131962,43087,0.043,-0.969,0.037,-1.159,0.427,0.732,45.633
124189,131846,12483,0.044,-0.965,0.033,-1.22,0.427,0.549,45.639
124157,131706,43087,0.041,-0.964,0.026,-1.22,0.427,0.549,45.643
124157,131814,12477,0.042,-0.97,0.024,-1.098,0.427,0.671,45.649
124163,131706,43087,0.043,-0.972,0.025,-1.098,0.427,0.671,45.653
124163,131805,12472,0.044,-0.973,0.024,-0.244,0.61,0.61,45.659
124182,131706,43087,0.044,-0.971,0.026,-0.244,0.61,0.61,45.663
124182,131826,12460,0.043,-0.969,0.033,1.159,0.976,0.671,45.669
124151,131706,43087,0.041,-0.969,0.04,1.159,0.976,0.671,45.673
124151,131836,12483,0.041,-0.962,0.041,1.524,1.037,0.915,45.679
124159,131962,43087,0.043,-0.958,0.042,1.524,1.037,0.915,45.682
124159,131843,12478,0.041,-0.96,0.034,0.122,0.488,0.915,45.689
124143,131706,43087,0.041,-0.965,0.03,0.122,0.488,0.915,45.692
124143,131807,12456,0.043,-0.97,0.029,-0.915,0.305,0.61,45.699
124151,131706,43087,0.043,-0.972,0.025,-0.915,0.305,0.61,45.702
124151,131817,12487,0.043,-0.97,0.026,-0.427,0.366,0.671,45.708
124171,131706,43087,0.043,-0.971,0.028,-0.427,0.366,0.671,45.712
124171,131813,12472,0.041,-0.975,0.032,0.671,0.671,0.976,45.718
124172,131706,43087,0.039,-0.971,0.044,0.671,0.671,0.976,45.722
124172,131822,12467,0.036,-0.96,0.047,0.854,0.793,1.159,45.728
124182,131706,43087,0.033,-0.949,0.044,0.854,0.793,1.159,45.732
124182,131820,12461,0.034,-0.949,0.044,-1.341,0.061,1.159,45.738
124162,131706,43087,0.042,-0.963,0.038,-1.341,0.061,1.159,45.742
124162,131826,12473,0.044,-0.974,0.026,-3.171,-0.732,0.549,45.748
124145,131706,43087,0.039,-0.977,0.025,-3.171,-0.732,0.549,45.752
124145,131822,12479,0.04,-0.967,0.026,-2.622,-0.427,0.305,45.758
124167,131706,43087,0.042,-0.968,0.022,-2.622,-0.427,0.305,45.762
124167,131788,12477,0.044,-0.967,0.024,-1.402,-0.061,0.671,45.768
124119,131706,43087,0.044,-0.967,0.024,-1.402,-0.061,0.671,45.772
124119,131802,12478,0.041,-0.985,0.027,-0.549,0.183,0.427,45.778
124125,131706,43087,0.041,-0.985,0.027,-0.549,0.183,0.427,45.781
124125,131789,12467,0.041,-0.964,0.033,-0.061,0.488,0.61,45.788
124130,131706,43087,0.041,-0.964,0.033,-0.061,0.488,0.61,45.791
124130,131796,12471,0.04,-0.959,0.026,-0.549,0.549,0.854,45.798
124137,131706,43087,0.04,-0.959,0.026,-0.549,0.549,0.854,45.801
124137,131811,12460,0.042,-0.968,0.036,-0.793,0.244,0.488,45.807
124123,131706,43087,0.042,-0.968,0.036,-0.793,0.244,0.488,45.811
124123,131807,12464,0.038,-0.969,0.031,-0.61,-0.061,0.549,45.817
124141,131706,43087,0.038,-0.969,0.031,-0.61,-0.061,0.549,45.821
124141,131804,12465,0.035,-0.969,0.026,-0.915,0.061,0.915,45.827
124157,131706,43087,0.035,-0.969,0.026,-0.915,0.061,0.915,45.831
124157,131816,12465,0.044,-0.973,0.026,-0.793,0.183,0.61,45.837
124192,131706,43087,0.044,-0.973,0.026,-0.793,0.183,0.61,45.841
124192,131833,12473,0.046,-0.968,0.027,0.122,0.366,0.366,45.847
124199,131962,43087,0.046,-0.968,0.027,0.122,0.366,0.366,45.851
124199,131857,12482,0.04,-0.966,0.033,1.159,0.671,0.61,45.857
124235,131962,43087,0.04,-0.966,0.033,1.159,0.671,0.61,45.861
124235,131859,12485,0.039,-0.964,0.034,1.28,0.915,0.793,45.867
124248,131962,43087,0.039,-0.964,0.034,1.28,0.915,0.793,45.871
124248,131881,12478,0.042,-0.969,0.031,0.854,0.793,0.671,45.877
124246,131962,43087,0.042,-0.969,0.031,0.854,0.793,0.671,45.88
124246,131879,12478,0.039,-0.973,0.031,0.427,0.793,0.671,45.887
124261,131962,43087,0.039,-0.973,0.031,0.427,0.793,0.671,45.89
124261,131859,12472,0.041,-0.963,0.033,0.488,0.915,0.732,45.897
124275,131962,43087,0.041,-0.963,0.033,0.488,0.915,0.732,45.9
124275,131877,12481,0.041,-0.966,0.036,0.793,0.854,0.366,45.906
124278,131962,43087,0.041,-0.966,0.036,0.793,0.854,0.366,45.91
124278,131885,12486,0.043,-0.965,0.037,0.793,0.854,0.366,45.916
124267,131962,43087,0.04,-0.964,0.036,0.915,0.793,0.366,45.92
124267,131869,12478,0.039,-0.964,0.037,0.915,0.793,0.366,45.926
124280,131962,43087,0.037,-0.965,0.033,0.427,0.671,0.366,45.93
124280,131882,12485,0.038,-0.965,0.03,0.427,0.671,0.366,45.936
124283,131962,43087,0.039,-0.967,0.044,0.183,0.732,0.305,45.94
124283,131884,12477,0.04,-0.965,0.036,0.183,0.732,0.305,45.946
124295,131962,43087,0.039,-0.969,0.026,-0.366,0.61,0.366,45.95
124295,131869,12503,0.039,-0.976,0.03,-0.366,0.61,0.366,45.956
124312,131962,43087,0.042,-0.975,0.032,-0.061,0.61,0.305,45.96
124312,131883,12483,0.041,-0.971,0.034,-0.061,0.61,0.305,45.966
124286,131962,43087,0.04,-0.97,0.031,0.366,0.732,0.244,45.97
124286,131886,12493,0.04,-0.968,0.031,0.366,0.732,0.244,45.976
124285,131962,43087,0.04,-0.972,0.034,0.549,0.732,0.244,45.979
124285,131895,12493,0.045,-0.972,0.036,0.549,0.732,0.244,45.986
124317,131962,43087,0.042,-0.964,0.037,0.427,0.732,0.244,45.989
124317,131895,12487,0.04,-0.962,0.032,0.427,0.732,0.244,45.996
124323,131962,43087,0.04,-0.966,0.031,-0.122,0.549,0.427,45.999
124323,131892,12488,0.039,-0.971,0.03,-0.122,0.549,0.427,46.005
124318,131962,43087,0.038,-0.973,0.035,-0.061,0.488,0.305,46.009
124318,131897,12492,0.04,-0.969,0.032,-0.061,0.488,0.305,46.015
124286,131962,43087,0.04,-0.962,0.032,0.305,0.488,0.183,46.019
124286,131897,12482,0.041,-0.966,0.033,0.305,0.488,0.183,46.025
124285,131962,43087,0.04,-0.969,0.036,0.488,0.549,0.549,46.029
124285,131850,12487,0.04,-0.976,0.036,0.488,0.549,0.549,46.035
124279,131962,43087,0.039,-0.966,0.036,0.854,0.549,0.427,46.039
124279,131851,12487,0.038,-0.959,0.036,0.854,0.549,0.427,46.045
124252,131962,43087,0.04,-0.962,0.033,0.427,0.427,0.488,46.049
124252,131896,12474,0.037,-0.971,0.037,0.427,0.427,0.488,46.055
124270,131962,43087,0.037,-0.97,0.031,-0.244,0.366,0.366,46.059
124270,131863,12488,0.039,-0.967,0.031,-0.244,0.366,0.366,46.065
124290,131962,43087,0.041,-0.969,0.032,-0.122,0.549,0.305,46.069
124290,131855,12480,0.038,-0.97,0.031,-0.122,0.549,0.305,46.075
124275,131962,43087,0.042,-0.971,0.035,0.244,0.671,0.122,46.078
124275,131876,12490,0.042,-0.965,0.042,0.244,0.671,0.122,46.085
124289,131962,43087,0.04,-0.962,0.035,-0.061,0.61,0,46.088
124289,131861,12486,0.041,-0.97,0.029,-0.061,0.61,0,46.095
124287,131962,43087,0.043,-0.97,0.035,-0.976,0.427,0,46.098
124287,131856,12492,0.046,-0.978,0.027,-0.976,0.427,0,46.104
124289,131962,43087,0.042,-0.979,0.024,-0.427,0.488,0,46.108
124289,131870,12489,0.04,-0.961,0.035,-0.427,0.488,0,46.114
124273,131962,43087,0.044,-0.957,0.028,0.671,0.854,0.305,46.118
124273,131870,12479,0.042,-0.969,0.031,0.671,0.854,0.305,46.124
124263,131962,43087,0.04,-0.971,0.035,0.427,0.732,0.244,46.128
124263,131870,12479,0.039,-0.971,0.027,0.427,0.732,0.244,46.134
124277,131962,43087,0.04,-0.965,0.026,-0.061,0.732,0.366,46.138
124277,131853,12499,0.041,-0.959,0.035,-0.061,0.732,0.366,46.144
124279,131962,43087,0.041,-0.961,0.035,0.122,0.61,0.061,46.148
124279,131864,12480,0.043,-0.971,0.032,0.122,0.61,0.061,46.154
124283,131962,43087,0.042,-0.977,0.031,0.061,0.427,-0.427,46.158
124283,131870,12486,0.039,-0.972,0.029,0.061,0.427,-0.427,46.164
124289,131962,43087,0.038,-0.968,0.031,0.427,0.427,-0.244,46.168
124289,131849,12478,0.04,-0.958,0.039,0.427,0.427,-0.244,46.174
124320,131962,43087,0.043,-0.962,0.036,0.488,0.244,-0.244,46.177
124320,131864,12482,0.039,-0.97,0.035,0.488,0.244,-0.244,46.184
124299,131962,43087,0.04,-0.966,0.03,-0.122,0.061,-0.427,46.187
124299,131865,12500,0.039,-0.966,0.029,-0.122,0.061,-0.427,46.194
124315,131962,43087,0.04,-0.974,0.03,-0.427,0.183,-0.488,46.197
124315,131867,12486,0.041,-0.973,0.025,-0.427,0.183,-0.488,46.203
124309,131962,43087,0.041,-0.967,0.028,0.244,0.305,-0.427,46.207
124309,131866,12481,0.042,-0.967,0.036,0.244,0.305,-0.427,46.213
124297,131962,43087,0.042,-0.97,0.032,0.976,0.427,-0.122,46.217
124297,131876,12476,0.042,-0.97,0.035,0.976,0.427,-0.122,46.223
124316,131962,43087,0.043,-0.967,0.045,1.463,0.793,0.061,46.227
124316,131872,12481,0.042,-0.959,0.04,1.463,0.793,0.061,46.233
124294,131962,43087,0.039,-0.957,0.034,0.427,0.732,0.549,46.237
124294,131869,12490,0.037,-0.966,0.04,0.427,0.732,0.549,46.243
124310,131962,43087,0.04,-0.972,0.038,0,0.488,0.61,46.247
124310,131858,12494,0.045,-0.971,0.022,0,0.488,0.61,46.253
124301,131962,43087,0.042,-0.974,0.025,0.488,0.61,0.366,46.257
124301,131908,12484,0.042,-0.971,0.036,0.488,0.61,0.366,46.263
124293,131962,43087,0.04,-0.968,0.035,1.89,0.793,0.549,46.267
124293,131892,12477,0.036,-0.968,0.035,1.89,0.793,0.549,46.273
124311,131962,43087,0.038,-0.971,0.037,2.012,0.915,0.549,46.276
124311,131862,12500,0.038,-0.972,0.036,2.012,0.915,0.549,46.283
124338,131962,43087,0.038,-0.968,0.031,1.463,0.976,0.305,46.286
124338,131897,12482,0.042,-0.968,0.028,1.463,0.976,0.305,46.292
124317,131962,43087,0.044,-0.966,0.032,1.28,0.976,0,46.296
124317,131886,12484,0.043,-0.963,0.047,1.28,0.976,0,46.302
124324,131962,43087,0.044,-0.967,0.041,1.463,0.854,0,46.306
124324,131872,12502,0.038,-0.967,0.036,1.463,0.854,0,46.312
124345,131962,43087,0.036,-0.961,0.042,0.976,0.854,0.366,46.316
124345,131866,12498,0.041,-0.959,0.042,0.976,0.854,0.366,46.322
124315,131962,43087,0.043,-0.966,0.045,0.183,0.427,0.122,46.326
124315,131899,12494,0.04,-0.969,0.043,0.183,0.427,0.122,46.332
124325,131962,43087,0.041,-0.967,0.04,-0.732,0.305,0,46.336
124325,131891,12488,0.042,-0.962,0.039,-0.732,0.305,0,46.342
124347,131962,43087,0.042,-0.962,0.041,-1.037,0.183,0.183,46.346
124347,131874,12509,0.043,-0.965,0.037,-1.037,0.183,0.183,46.352
124326,131962,43087,0.043,-0.965,0.037,-1.037,0.183,0.183,46.356
124326,131860,12497,0.041,-0.974,0.034,-1.585,0.122,0.122,46.362
124341,131962,43087,0.041,-0.974,0.034,-1.585,0.122,0.122,46.366
124341,131881,12499,0.043,-0.969,0.029,-1.463,0,0.183,46.372
124324,131962,43087,0.043,-0.969,0.029,-1.463,0,0.183,46.375
124324,131881,12502,0.045,-0.959,0.042,-0.671,0.061,0.244,46.382
124337,131962,43087,0.045,-0.959,0.042,-0.671,0.061,0.244,46.385
124337,131864,12482,0.043,-0.98,0.032,0.427,-0.183,0.244,46.392
124331,131962,43087,0.043,-0.98,0.032,0.427,-0.183,0.244,46.395
124331,131859,12492,0.04,-0.978,0.019,0.305,0.061,0.366,46.401
124328,131962,43087,0.04,-0.978,0.019,0.305,0.061,0.366,46.405
124328,131875,12490,0.042,-0.972,0.033,0.854,0.732,0.427,46.411
124333,131962,43087,0.042,-0.972,0.033,0.854,0.732,0.427,46.415
124333,131880,12479,0.044,-0.968,0.029,2.5,0.915,0.061,46.421
124335,131962,43087,0.044,-0.968,0.029,2.5,0.915,0.061,46.425
124335,131877,12502,0.041,-0.964,0.034,2.988,1.402,0,46.431
124331,131962,43087,0.041,-0.964,0.034,2.988,1.402,0,46.435
124331,131858,12498,0.042,-0.955,0.05,3.476,1.707,0.122,46.441
124335,131962,43087,0.042,-0.955,0.05,3.476,1.707,0.122,46.445
124335,131876,12499,0.042,-0.964,0.046,2.866,1.159,0.244,46.451
124324,131962,43087,0.042,-0.964,0.046,2.866,1.159,0.244,46.455
124324,131881,12491,0.041,-0.968,0.042,1.22,0.793,0.427,46.461
124344,131962,43087,0.041,-0.968,0.042,1.22,0.793,0.427,46.465
124344,131876,12498,0.043,-0.964,0.043,0.305,0.793,0.427,46.471
124355,131962,43087,0.043,-0.964,0.043,0.305,0.793,0.427,46.474
124355,131873,12488,0.04,-0.967,0.042,-0.122,0.671,0.366,46.481
124331,131962,43087,0.04,-0.967,0.042,-0.122,0.671,0.366,46.484
124331,131879,12492,0.042,-0.967,0.04,-0.488,0.427,0.366,46.49
124339,131962,43087,0.042,-0.967,0.04,-0.488,0.427,0.366,46.494
124339,131877,12497,0.041,-0.969,0.027,-1.159,0.305,0.183,46.5
124351,131962,43087,0.043,-0.964,0.023,-1.159,0.305,0.183,46.504
124351,131897,12493,0.041,-0.97,0.039,-0.732,0.488,0.061,46.51
124347,131962,43087,0.044,-0.974,0.042,-0.732,0.488,0.061,46.514
124347,131878,12496,0.046,-0.972,0.028,0,0.549,0.061,46.52
124357,131962,43087,0.043,-0.956,0.041,0,0.549,0.061,46.524
124357,131896,12486,0.044,-0.962,0.055,-0.061,0.366,0.427,46.53
124373,131962,43087,0.041,-0.972,0.041,-0.061,0.366,0.427,46.534
124373,131882,12502,0.036,-0.962,0.03,-0.671,0.305,0.549,46.54
124354,131962,43087,0.039,-0.968,0.038,-0.671,0.305,0.549,46.544
124354,131878,12485,0.047,-0.973,0.037,-0.793,0.183,0.244,46.55
124352,131962,43087,0.044,-0.967,0.027,-0.793,0.183,0.244,46.554
124352,131892,12490,0.042,-0.971,0.034,-0.549,0.244,-0.061,46.56
124344,131962,43087,0.045,-0.973,0.043,-0.549,0.244,-0.061,46.564
124344,131858,12483,0.044,-0.97,0.038,-0.061,0.305,0.305,46.57
124342,131962,43087,0.04,-0.966,0.03,-0.061,0.305,0.305,46.573
124342,131858,12493,0.04,-0.969,0.03,0,0.549,0.488,46.58
124324,131962,43087,0.045,-0.973,0.04,0,0.549,0.488,46.583
124324,131866,12488,0.047,-0.974,0.039,0.732,0.549,0.366,46.589
124336,131962,43087,0.043,-0.969,0.037,0.732,0.549,0.366,46.593
124336,131857,12509,0.039,-0.969,0.039,1.341,0.793,0.549,46.599
124368,131962,43087,0.041,-0.973,0.039,1.341,0.793,0.549,46.603
124368,131848,12490,0.042,-0.972,0.045,1.707,0.976,0.732,46.609
124326,131962,43087,0.038,-0.964,0.042,1.707,0.976,0.732,46.613
124326,131861,12484,0.037,-0.96,0.042,0.854,0.915,0.549,46.619
124343,131962,43087,0.041,-0.959,0.05,0.854,0.915,0.549,46.623
124343,131853,12481,0.043,-0.964,0.044,-0.366,0.61,0.549,46.629
124348,131962,43087,0.042,-0.966,0.036,-0.366,0.61,0.549,46.633
124348,131849,12486,0.04,-0.969,0.03,-0.671,0.427,0.061,46.639
124329,131962,43087,0.044,-0.97,0.033,-0.671,0.427,0.061,46.643
124329,131853,12477,0.045,-0.962,0.038,0.427,0.488,0.061,46.649
124325,131962,43087,0.041,-0.965,0.048,0.427,0.488,0.061,46.653
124325,131870,12478,0.041,-0.969,0.048,0.854,0.488,0.244,46.659
124309,131962,43087,0.041,-0.965,0.034,0.854,0.488,0.244,46.662
124309,131853,12478,0.039,-0.971,0.036,-0.122,0.305,0.427,46.669
124285,131962,43087,0.042,-0.972,0.04,-0.122,0.305,0.427,46.672
124285,131843,12482,0.044,-0.966,0.035,0.061,0.305,0.244,46.679
124310,131706,43087,0.041,-0.969,0.034,0.061,0.305,0.244,46.682
124310,131837,12464,0.039,-0.973,0.033,0.488,0.427,0.305,46.688
124284,131962,43087,0.043,-0.972,0.034,0.488,0.427,0.305,46.692
124284,131848,12465,0.042,-0.966,0.04,0.732,0.671,0.305,46.698
124333,131962,43087,0.041,-0.964,0.042,0.732,0.671,0.305,46.702
124333,131841,12485,0.04,-0.966,0.046,0.793,0.671,0.183,46.708
124340,131962,43087,0.043,-0.966,0.041,0.793,0.671,0.183,46.712
124340,131846,12509,0.04,-0.964,0.038,0.244,0.488,0.122,46.718
124347,131962,43087,0.044,-0.959,0.043,0.244,0.488,0.122,46.722
124347,131858,12499,0.043,-0.957,0.041,-0.305,0.366,0.244,46.728
124353,131962,43087,0.04,-0.958,0.046,-0.305,0.366,0.244,46.732
124353,131866,12485,0.044,-0.963,0.043,-0.305,0.122,0.183,46.738
124382,131962,43087,0.047,-0.966,0.04,-0.305,0.122,0.183,46.742
124382,131865,12485,0.042,-0.972,0.039,-0.488,-0.061,0.305,46.748
124364,131962,43087,0.042,-0.973,0.039,-0.488,-0.061,0.305,46.752
124364,131879,12481,0.041,-0.97,0.037,-0.549,-0.061,0.549,46.758
124378,131962,43087,0.043,-0.972,0.034,-0.549,-0.061,0.549,46.762
124378,131880,12485,0.043,-0.978,0.034,-0.305,-0.061,0.366,46.768
124345,131962,43087,0.043,-0.978,0.03,-0.305,-0.061,0.366,46.771
124345,131872,12460,0.045,-0.972,0.034,0.427,0.366,0.244,46.778
124357,131962,43087,0.046,-0.968,0.031,0.427,0.366,0.244,46.781
124357,131875,12501,0.044,-0.968,0.038,1.341,0.671,0.366,46.787
124376,131962,43087,0.043,-0.97,0.04,1.341,0.671,0.366,46.791
124376,131857,12495,0.042,-0.969,0.039,1.768,0.915,0.366,46.797
124383,131962,43087,0.043,-0.967,0.041,1.768,0.915,0.366,46.801
124383,131865,12476,0.041,-0.965,0.039,1.89,0.915,0.427,46.807
124361,131962,43087,0.042,-0.966,0.043,1.89,0.915,0.427,46.811
124361,131872,12472,0.041,-0.97,0.042,1.89,0.976,0.427,46.817
124374,131962,43087,0.042,-0.966,0.045,1.89,0.976,0.427,46.821
124374,131870,12484,0.042,-0.963,0.05,1.524,0.976,0.488,46.827
124375,131962,43087,0.041,-0.963,0.047,1.524,0.976,0.488,46.831
124375,131854,12496,0.038,-0.964,0.044,0.732,0.732,0.549,46.837
124375,131962,43087,0.04,-0.965,0.04,0.732,0.732,0.549,46.841
124375,131868,12498,0.042,-0.967,0.038,-0.122,0.488,0.488,46.847
124351,131962,43087,0.041,-0.968,0.038,-0.122,0.488,0.488,46.851
124351,131862,12487,0.041,-0.969,0.035,-0.183,0.488,0.244,46.857
124347,131962,43087,0.043,-0.97,0.037,-0.183,0.488,0.244,46.86
124347,131851,12491,0.04,-0.973,0.038,0.427,0.549,0.488,46.867
124358,131962,43087,0.039,-0.97,0.046,0.427,0.549,0.488,46.87
124358,131847,12477,0.038,-0.965,0.044,0.976,0.671,0.732,46.877
124365,131962,43087,0.039,-0.966,0.04,0.976,0.671,0.732,46.88
124365,131871,12486,0.04,-0.965,0.043,0.549,0.854,0.488,46.886
124353,131962,43087,0.04,-0.966,0.043,0.549,0.854,0.488,46.89
124353,131868,12500,0.043,-0.964,0.04,-0.305,0.61,0.122,46.896
124373,131962,43087,0.046,-0.965,0.039,-0.305,0.61,0.122,46.9
124373,131890,12489,0.046,-0.969,0.045,-0.549,0.61,0,46.906
124383,131962,43087,0.046,-0.974,0.04,-0.549,0.61,0,46.91
124383,131862,12489,0.043,-0.97,0.043,0.183,0.732,0.122,46.916
124369,131962,43087,0.041,-0.965,0.045,0.183,0.732,0.122,46.92
124369,131869,12478,0.043,-0.965,0.045,0.488,0.793,0.488,46.926
124378,131962,43087,0.043,-0.965,0.045,0.488,0.793,0.488,46.93
124378,131856,12479,0.043,-0.966,0.043,0.061,0.854,0.488,46.936
124376,131962,43087,0.043,-0.966,0.043,0.061,0.854,0.488,46.94
124376,131841,12482,0.043,-0.973,0.044,-0.061,0.793,0.305,46.946
124365,131962,43087,0.043,-0.973,0.044,-0.061,0.793,0.305,46.95
124365,131849,12480,0.042,-0.97,0.038,0.244,0.793,0.183,46.956
124363,131962,43087,0.042,-0.97,0.038,0.244,0.793,0.183,46.959
124363,131841,12478,0.04,-0.97,0.046,0.427,0.732,0.183,46.966
124347,131962,43087,0.04,-0.97,0.046,0.427,0.732,0.183,46.969
124347,131873,12487,0.04,-0.964,0.038,-0.183,0.427,0.061,46.976
124357,131962,43087,0.04,-0.964,0.038,-0.183,0.427,0.061,46.979
124357,131860,12489,0.044,-0.968,0.038,-0.244,0.305,-0.061,46.985
124380,131962,43087,0.044,-0.968,0.038,-0.244,0.305,-0.061,46.989
124380,131852,12502,0.047,-0.973,0.024,0.854,0.549,-0.305,46.995
124383,131962,43087,0.047,-0.973,0.024,0.854,0.549,-0.305,46.999
124383,131870,12469,0.044,-0.961,0.057,2.317,0.793,-0.061,47.005
124361,131962,43087,0.044,-0.961,0.057,2.317,0.793,-0.061,47.009
124361,131879,12480,0.032,-0.967,0.053,2.012,0.793,0.427,47.015
124353,131962,43087,0.032,-0.967,0.053,2.012,0.793,0.427,47.019
124353,131854,12493,0.045,-0.945,0.059,0.305,0.366,0.488,47.025
124345,131962,43087,0.045,-0.945,0.059,0.305,0.366,0.488,47.029
124345,131844,12495,0.038,-0.98,0.029,-2.561,0,0.061,47.035
124327,131962,43087,0.038,-0.98,0.029,-2.561,0,0.061,47.039
124327,131843,12470,0.045,-0.969,0.037,-1.463,-0.061,0.061,47.045
124313,131962,43087,0.045,-0.969,0.037,-1.463,-0.061,0.061,47.049
124313,131858,12480,0.037,-0.968,0.043,0.366,0.427,0.305,47.055
124325,131962,43087,0.037,-0.968,0.043,0.366,0.427,0.305,47.058
124325,131844,12488,0.039,-0.965,0.046,0.122,0.366,0.427,47.065
124321,131962,43087,0.039,-0.965,0.046,0.122,0.366,0.427,47.068
124321,131852,12474,0.038,-0.968,0.047,0.122,0.366,0.427,47.075
124325,131962,43087,0.038,-0.967,0.05,-1.159,0.183,0.183,47.078
124325,131840,12472,0.042,-0.962,0.048,-1.159,0.183,0.183,47.084
124317,131706,43087,0.045,-0.959,0.043,-2.439,-0.305,0.122,47.088
124317,131832,12472,0.042,-0.957,0.046,-2.439,-0.305,0.122,47.094
124342,131706,43087,0.043,-0.962,0.042,-2.805,-0.671,0.244,47.098
124342,131835,12486,0.044,-0.973,0.03,-2.805,-0.671,0.244,47.104
124330,131706,43087,0.045,-0.981,0.032,-2.256,-0.793,0,47.108
124330,131825,12484,0.043,-0.971,0.043,-2.256,-0.793,0,47.114
124342,131706,43087,0.046,-0.96,0.044,-1.341,-0.732,0.122,47.118
124342,131809,12491,0.044,-0.967,0.037,-1.341,-0.732,0.122,47.124
124343,131962,43087,0.044,-0.979,0.035,-1.463,-0.366,0.549,47.128
124343,131845,12489,0.045,-0.98,0.029,-1.463,-0.366,0.549,47.134
124360,131706,43087,0.046,-0.978,0.021,-0.976,0.244,0.61,47.138
124360,131830,12494,0.046,-0.972,0.03,-0.976,0.244,0.61,47.144
124335,131706,43087,0.047,-0.976,0.042,1.098,0.732,0.732,47.148
124335,131836,12484,0.05,-0.969,0.043,1.098,0.732,0.732,47.154
124377,131706,43087,0.044,-0.964,0.041,2.256,1.098,1.037,47.157
124377,131838,12491,0.04,-0.962,0.046,2.256,1.098,1.037,47.164
124359,131706,43087,0.042,-0.964,0.05,1.646,1.28,1.402,47.167
124359,131825,12478,0.043,-0.959,0.048,1.646,1.28,1.402,47.174
124367,131962,43087,0.042,-0.958,0.044,0.427,0.793,1.098,47.177
124367,131855,12482,0.043,-0.961,0.043,0.427,0.793,1.098,47.183
124356,131962,43087,0.045,-0.965,0.044,-0.549,0.61,0.976,47.187
124356,131851,12494,0.047,-0.968,0.045,-0.549,0.61,0.976,47.193
124385,131962,43087,0.046,-0.965,0.045,-0.671,0.61,0.915,47.197
124385,131852,12489,0.043,-0.963,0.04,-0.671,0.61,0.915,47.203
124363,131962,43087,0.042,-0.966,0.043,-0.732,0.488,0.915,47.207
124363,131859,12494,0.043,-0.977,0.038,-0.732,0.488,0.915,47.213
124361,131962,43087,0.042,-0.974,0.033,-0.549,0.488,0.976,47.217
124361,131844,12498,0.043,-0.975,0.033,-0.549,0.488,0.976,47.223
124383,131962,43087,0.043,-0.974,0.036,0.122,0.793,0.854,47.227
124383,131859,12489,0.044,-0.974,0.042,0.122,0.793,0.854,47.233
124377,131962,43087,0.043,-0.968,0.041,0.732,1.037,0.793,47.237
124377,131882,12494,0.042,-0.962,0.039,0.732,1.037,0.793,47.243
124385,131962,43087,0.043,-0.966,0.037,0.366,0.976,0.854,47.247
124385,131870,12490,0.044,-0.969,0.041,0.366,0.976,0.854,47.253
124402,131962,43087,0.046,-0.968,0.043,0.793,0.854,0.793,47.256
124402,131859,12490,0.045,-0.964,0.045,0.793,0.854,0.793,47.263
124398,131962,43087,0.045,-0.964,0.047,1.159,0.854,0.976,47.266
124398,131847,12494,0.043,-0.968,0.041,1.159,0.854,0.976,47.273
124421,131962,43087,0.041,-0.972,0.04,1.098,1.037,1.524,47.276
124421,131892,12495,0.042,-0.97,0.043,1.098,1.037,1.524,47.282
124429,131962,43087,0.044,-0.968,0.042,1.28,1.28,1.707,47.286
124429,131869,12516,0.042,-0.967,0.043,1.28,1.28,1.707,47.292
124409,131706,43087,0.041,-0.971,0.045,1.646,1.585,1.89,47.296
124409,131831,12510,0.041,-0.971,0.05,1.646,1.585,1.89,47.302
124404,131962,43087,0.04,-0.964,0.05,1.341,1.463,2.134,47.306
124404,131856,12483,0.038,-0.953,0.048,1.341,1.463,2.134,47.312
124426,131706,43087,0.04,-0.956,0.052,-0.183,0.976,2.195,47.316
124426,131835,12509,0.042,-0.962,0.055,-0.183,0.976,2.195,47.322
124406,131962,43087,0.042,-0.96,0.049,-1.707,0.305,1.89,47.326
124406,131840,12501,0.041,-0.96,0.046,-1.707,0.305,1.89,47.332
124415,131962,43087,0.041,-0.963,0.043,-2.927,-0.122,1.89,47.336
124415,131860,12516,0.037,-0.967,0.044,-2.927,-0.122,1.89,47.342
124428,131962,43087,0.035,-0.97,0.044,-3.232,-0.183,2.134,47.346
124428,131846,12476,0.038,-0.968,0.04,-3.232,-0.183,2.134,47.352
124440,131962,43087,0.042,-0.97,0.037,-3.11,-0.244,1.951,47.355
124440,131854,12476,0.039,-0.972,0.032,-3.11,-0.244,1.951,47.362
124413,131962,43087,0.036,-0.975,0.031,-2.378,-0.061,1.89,47.365
124413,131841,12493,0.038,-0.98,0.031,-2.378,-0.061,1.89,47.372
124402,131962,43087,0.041,-0.974,0.033,-0.915,0.305,1.829,47.375
124402,131877,12484,0.039,-0.973,0.031,-0.915,0.305,1.829,47.381
124391,131962,43087,0.036,-0.977,0.032,0.244,0.793,1.951,47.385
124391,131852,12490,0.037,-0.976,0.033,0.244,0.793,1.951,47.391
124358,131706,43087,0.035,-0.973,0.04,1.402,1.098,1.89,47.395
124358,131819,12489,0.032,-0.967,0.038,1.402,1.098,1.89,47.401
124331,131706,43087,0.034,-0.96,0.046,1.89,1.037,1.707,47.405
124331,131810,12477,0.032,-0.964,0.047,1.89,1.037,1.707,47.411
124321,131706,43087,0.03,-0.969,0.045,1.098,0.915,1.585,47.415
124321,131832,12465,0.034,-0.967,0.039,1.098,0.915,1.585,47.421
124306,131706,43087,0.035,-0.963,0.042,0.732,0.976,1.585,47.425
124306,131791,12467,0.037,-0.97,0.041,0.732,0.976,1.585,47.431
124306,131706,43087,0.034,-0.973,0.04,1.22,1.037,1.768,47.435
124306,131831,12484,0.034,-0.973,0.04,1.22,1.037,1.768,47.441
124333,131706,43087,0.034,-0.972,0.037,1.829,1.098,2.195,47.445
124333,131811,12476,0.034,-0.964,0.038,1.829,1.098,2.195,47.451
124325,131706,43087,0.034,-0.968,0.04,2.317,0.976,2.439,47.454
124325,131824,12468,0.03,-0.972,0.033,2.317,0.976,2.439,47.461
124345,131706,43087,0.029,-0.977,0.038,2.744,0.976,2.5,47.464
124345,131837,12470,0.03,-0.973,0.046,2.744,0.976,2.5,47.47
124343,131706,43087,0.03,-0.97,0.045,3.232,1.037,2.439,47.474
124343,131831,12479,0.029,-0.973,0.042,3.232,1.037,2.439,47.48
124354,131962,43087,0.027,-0.975,0.04,2.988,1.159,2.439,47.484
124354,131856,12474,0.027,-0.977,0.034,2.988,1.159,2.439,47.49
124355,131706,43087,0.028,-0.979,0.03,3.72,1.402,2.317,47.494
124355,131837,12482,0.028,-0.976,0.04,3.72,1.402,2.317,47.5
124380,131706,43087,0.026,-0.968,0.048,5.488,1.707,2.5,47.504
124380,131837,12483,0.026,-0.965,0.053,5.488,1.707,2.5,47.51
124373,131962,43087,0.026,-0.965,0.053,5.488,1.707,2.5,47.514
124373,131886,12474,0.026,-0.967,0.048,6.402,1.89,2.927,47.52
124401,131962,43087,0.026,-0.967,0.048,6.402,1.89,2.927,47.524
124401,131879,12482,0.034,-0.975,0.042,6.402,1.707,2.866,47.53
124397,131962,43087,0.034,-0.975,0.042,6.402,1.707,2.866,47.534
124397,131860,12497,0.036,-0.963,0.058,7.439,1.463,2.134,47.54
124412,131962,43087,0.036,-0.963,0.058,7.439,1.463,2.134,47.544
124412,131847,12471,0.034,-0.971,0.057,8.232,1.098,1.463,47.55
124414,131962,43087,0.034,-0.971,0.057,8.232,1.098,1.463,47.553
124414,131876,12488,0.033,-0.969,0.048,6.524,0.793,1.22,47.56
124405,131962,43087,0.033,-0.969,0.048,6.524,0.793,1.22,47.563
124405,131881,12489,0.036,-0.964,0.046,5.183,0.549,0.915,47.57
124424,131962,43087,0.036,-0.964,0.046,5.183,0.549,0.915,47.573
124424,131881,12473,0.035,-0.977,0.048,5.854,0.366,0.549,47.579
124429,131962,43087,0.035,-0.977,0.048,5.854,0.366,0.549,47.583
124429,131878,12497,0.032,-0.958,0.06,7.256,0.427,0.671,47.589
124443,131962,43087,0.032,-0.958,0.06,7.256,0.427,0.671,47.593
124443,131905,12482,0.034,-0.961,0.057,7.805,0.366,0.732,47.599
124440,131962,43087,0.034,-0.961,0.057,7.805,0.366,0.732,47.603
124440,131894,12481,0.032,-0.961,0.067,7.683,0.244,0.793,47.609
124423,131962,43087,0.032,-0.961,0.067,7.683,0.244,0.793,47.613
124423,131892,12490,0.029,-0.959,0.064,6.951,0.122,0.732,47.619
124419,131962,43087,0.029,-0.959,0.064,6.951,0.122,0.732,47.623
124419,131881,12483,0.029,-0.962,0.063,5.305,-0.122,0.549,47.629
124404,131962,43087,0.029,-0.962,0.063,5.305,-0.122,0.549,47.633
124404,131883,12482,0.03,-0.967,0.062,4.268,-0.122,0.549,47.639
124404,131962,43087,0.03,-0.967,0.062,4.268,-0.122,0.549,47.643
124404,131881,12473,0.031,-0.962,0.077,3.902,-0.122,0.61,47.649
124401,131962,43087,0.031,-0.962,0.077,3.902,-0.122,0.61,47.652
124401,131885,12470,0.031,-0.955,0.076,2.927,-0.366,1.037,47.659
124415,131962,43087,0.034,-0.951,0.073,2.927,-0.366,1.037,47.662
124415,131889,12480,0.034,-0.954,0.069,1.159,-0.671,1.585,47.668
124407,131962,43087,0.037,-0.959,0.067,1.159,-0.671,1.585,47.672
124407,131872,12487,0.034,-0.968,0.077,-0.488,-0.793,2.195,47.678
124424,131962,43087,0.038,-0.974,0.067,-0.488,-0.793,2.195,47.682
124424,131863,12472,0.037,-0.972,0.056,-1.646,-0.976,2.744,47.688
124432,131962,43087,0.031,-0.969,0.068,-1.646,-0.976,2.744,47.692
124432,131899,12478,0.031,-0.967,0.083,-1.829,-0.549,3.293,47.698
124442,131962,43087,0.031,-0.963,0.083,-1.829,-0.549,3.293,47.702
124442,131879,12467,0.033,-0.952,0.073,-3.72,-1.037,3.476,47.708
124441,131962,43087,0.036,-0.95,0.063,-3.72,-1.037,3.476,47.712
124441,131904,12481,0.034,-0.959,0.059,-6.463,-1.22,3.598,47.718
124443,131962,43087,0.036,-0.964,0.066,-6.463,-1.22,3.598,47.722
124443,131892,12484,0.039,-0.973,0.064,-6.037,-1.341,2.927,47.728
124432,131962,43087,0.029,-0.976,0.06,-6.037,-1.341,2.927,47.732
124432,131886,12496,0.025,-0.974,0.058,-5.061,-1.098,3.537,47.738
124463,131962,43087,0.026,-0.968,0.054,-5.061,-1.098,3.537,47.741
124463,131898,12495,0.028,-0.969,0.053,-5.244,-0.732,4.085,47.748
124442,131962,43087,0.032,-0.97,0.052,-5.244,-0.732,4.085,47.751
124442,131877,12485,0.033,-0.98,0.053,-4.573,-0.427,3.293,47.758
124506,131962,43087,0.033,-0.981,0.05,-4.573,-0.427,3.293,47.761
124506,131920,12494,0.035,-0.977,0.044,-3.11,0.122,3.354,47.767
124509,131962,43087,0.035,-0.964,0.049,-3.11,0.122,3.354,47.771
124509,131915,12502,0.028,-0.96,0.067,-1.28,0.488,3.72,47.777
124533,131962,43087,0.033,-0.966,0.045,-1.28,0.488,3.72,47.781
124533,131911,12496,0.029,-0.975,0.031,-0.976,0.671,3.963,47.787
124528,131962,43087,0.028,-0.985,0.047,-0.976,0.671,3.963,47.791
124528,131942,12496,0.034,-0.977,0.052,1.037,1.22,4.146,47.797
124556,131962,43087,0.035,-0.964,0.05,1.037,1.22,4.146,47.801
124556,131924,12512,0.03,-0.966,0.051,2.927,1.768,4.695,47.807
124559,131962,43087,0.027,-0.974,0.058,2.927,1.768,4.695,47.811
124559,131913,12508,0.026,-0.972,0.054,3.963,2.134,5.366,47.817
124552,131962,43087,0.025,-0.97,0.055,3.963,2.134,5.366,47.821
124552,131939,12503,0.024,-0.968,0.058,4.39,2.439,5.976,47.827
124542,131962,43087,0.02,-0.967,0.06,4.39,2.439,5.976,47.831
124542,131919,12506,0.021,-0.966,0.057,4.268,2.622,6.402,47.837
124575,131962,43087,0.02,-0.975,0.054,4.268,2.622,6.402,47.84
124575,131915,12507,0.023,-0.978,0.06,4.512,2.622,6.463,47.847
124599,131962,43087,0.021,-0.969,0.071,4.512,2.622,6.463,47.85
124599,131961,12495,0.015,-0.959,0.073,4.146,2.744,6.524,47.857
124600,131962,43087,0.016,-0.952,0.066,4.146,2.744,6.524,47.86
124600,132007,12527,0.016,-0.954,0.067,1.768,2.317,6.22,47.866
124612,131962,43087,0.017,-0.967,0.066,1.768,2.317,6.22,47.87
124612,132017,12530,0.018,-0.977,0.065,-0.122,1.585,5.488,47.876
124644,131962,43087,0.016,-0.974,0.064,-0.122,1.585,5.488,47.88
124644,132028,12500,0.014,-0.964,0.067,-0.549,1.341,5.122,47.886
124634,131962,43087,0.014,-0.955,0.057,-0.549,1.341,5.122,47.89
124634,132033,12511,0.008,-0.961,0.074,-1.402,0.976,4.756,47.896
124636,131962,43087,0.009,-0.954,0.063,-1.402,0.976,4.756,47.9
124636,132063,12510,0.011,-0.959,0.049,-2.988,0.122,3.902,47.906
124672,131962,43087,0.011,-0.981,0.05,-2.988,0.122,3.902,47.91
124672,132037,12508,0.015,-0.983,0.047,-2.439,-0.305,2.744,47.916
124654,131962,43087,0.015,-0.973,0.041,-2.439,-0.305,2.744,47.92
124654,132093,12509,0.016,-0.973,0.053,0,-0.183,2.134,47.926
124709,132218,43087,0.015,-0.97,0.06,0,-0.183,2.134,47.93
124709,132129,12508,0.01,-0.964,0.059,1.463,-0.061,2.317,47.936
124705,132218,43087,0.015,-0.968,0.06,1.463,-0.061,2.317,47.939
124705,132129,12515,0.018,-0.974,0.061,1.341,-0.305,1.951,47.946
124729,132218,43087,0.02,-0.973,0.062,1.341,-0.305,1.951,47.949
124729,132164,12522,0.021,-0.968,0.059,1.098,-0.305,1.829,47.956
124724,132218,43087,0.019,-0.964,0.064,1.098,-0.305,1.829,47.959
124724,132202,12512,0.016,-0.958,0.057,0.915,-0.305,2.317,47.965
124788,132218,43087,0.019,-0.967,0.056,0.915,-0.305,2.317,47.969
124788,132229,12529,0.022,-0.979,0.054,1.402,-0.488,2.378,47.975
124811,132218,43087,0.02,-0.979,0.045,1.402,-0.488,2.378,47.979
124811,132235,12528,0.019,-0.979,0.052,2.683,-0.122,2.378,47.985
124836,132218,43087,0.021,-0.974,0.056,2.683,-0.122,2.378,47.989
124836,132268,12551,0.023,-0.967,0.061,4.085,0.305,2.744,47.995
124888,132218,43087,0.02,-0.968,0.07,4.085,0.305,2.744,47.999
124888,132308,12542,0.017,-0.973,0.066,3.902,0.488,3.11,48.005
124851,132218,43087,0.017,-0.968,0.06,3.902,0.488,3.11,48.009
124851,132300,12530,0.018,-0.964,0.058,2.744,0.61,3.72,48.015
124868,132218,43087,0.015,-0.966,0.063,2.744,0.61,3.72,48.019
124868,132316,12548,0.014,-0.969,0.064,2.683,0.549,4.207,48.025
124888,132218,43087,0.012,-0.971,0.062,2.683,0.549,4.207,48.029
124888,132347,12540,0.012,-0.973,0.067,3.72,0.793,4.939,48.035
124889,132218,43087,0.009,-0.97,0.065,3.72,0.793,4.939,48.038
124889,132348,12519,0.007,-0.967,0.061,4.39,1.28,5.427,48.045
124889,132218,43087,0.006,-0.973,0.056,4.39,1.28,5.427,48.048
124889,132350,12538,0.005,-0.977,0.056,4.817,1.707,5.366,48.055
124893,132218,43087,0.003,-0.975,0.062,4.817,1.707,5.366,48.058
124893,132330,12547,0.004,-0.973,0.069,5.793,2.134,5.122,48.064
124870,132218,43087,0.003,-0.966,0.073,5.793,2.134,5.122,48.068
124870,132345,12520,0.005,-0.965,0.072,6.28,2.195,4.695,48.074
124838,132474,43087,0.004,-0.956,0.074,6.28,2.195,4.695,48.078
124838,132356,12531,0.008,-0.96,0.07,5.427,2.073,4.329,48.084
124852,132218,43087,0.009,-0.952,0.081,5.427,2.073,4.329,48.088
124852,132318,12522,0.012,-0.963,0.088,5,1.707,4.573,48.094
124831,132218,43087,0.012,-0.963,0.088,5,1.707,4.573,48.098
124831,132334,12540,-0.006,-0.958,0.073,3.598,1.28,5.244,48.104
124825,132218,43087,-0.006,-0.958,0.073,3.598,1.28,5.244,48.108
