126435,134010,43087,0.023,-0.957,0.15,0.549,0.549,0.549,89.528
126435,133973,12952,0.025,-0.958,0.156,0.549,0.549,0.549,89.534
126434,134010,43087,0.025,-0.96,0.151,0.671,0.549,0.427,89.537
126434,133974,12953,0.024,-0.958,0.152,0.671,0.549,0.427,89.544
126430,134010,43087,0.025,-0.956,0.154,0.549,0.488,0.366,89.547
126430,133997,12961,0.025,-0.955,0.157,0.549,0.488,0.366,89.554
126431,134010,43087,0.025,-0.957,0.158,0.183,0.366,0.305,89.557
126431,133973,12949,0.023,-0.96,0.158,0.183,0.366,0.305,89.563
126418,134010,43087,0.024,-0.957,0.156,-0.366,0.305,0.305,89.567
126418,133959,12952,0.024,-0.955,0.156,-0.366,0.305,0.305,89.573
126446,134010,43087,0.025,-0.96,0.154,-0.976,0.183,0.183,89.577
126446,133975,12937,0.024,-0.957,0.152,-0.976,0.183,0.183,89.583
126427,134010,43087,0.023,-0.957,0.152,-1.28,0,0.122,89.587
126427,133977,12945,0.026,-0.961,0.15,-1.28,0,0.122,89.593
126426,134010,43087,0.024,-0.96,0.153,-1.098,0,0.183,89.597
126426,133972,12943,0.025,-0.959,0.151,-1.098,0,0.183,89.603
126408,134010,43087,0.028,-0.958,0.15,-0.854,0.122,0.122,89.607
126408,133967,12938,0.025,-0.955,0.149,-0.854,0.122,0.122,89.613
126427,134010,43087,0.026,-0.96,0.149,-0.793,0.183,0.122,89.617
126427,133957,12943,0.028,-0.962,0.152,-0.793,0.183,0.122,89.623
126433,134010,43087,0.026,-0.962,0.151,-0.366,0.366,0.183,89.627
126433,133983,12929,0.025,-0.962,0.153,-0.366,0.366,0.183,89.633
126427,134010,43087,0.027,-0.963,0.152,0.183,0.427,0.305,89.636
126427,133973,12941,0.027,-0.96,0.151,0.183,0.427,0.305,89.643
126451,134010,43087,0.027,-0.96,0.151,0.183,0.427,0.305,89.646
126451,133955,12942,0.025,-0.959,0.154,0.305,0.488,0.427,89.652
126424,134010,43087,0.025,-0.959,0.154,0.305,0.488,0.427,89.656
126424,133964,12937,0.025,-0.961,0.155,0.183,0.488,0.549,89.662
126434,134010,43087,0.025,-0.961,0.155,0.183,0.488,0.549,89.666
126434,133966,12934,0.023,-0.96,0.152,0.366,0.549,0.488,89.672
126446,134010,43087,0.023,-0.96,0.152,0.366,0.549,0.488,89.676
126446,133947,12937,0.024,-0.959,0.154,0.549,0.671,0.488,89.682
126441,134010,43087,0.024,-0.959,0.154,0.549,0.671,0.488,89.686
126441,133969,12957,0.023,-0.961,0.155,0.732,0.854,0.549,89.692
126429,134010,43087,0.023,-0.961,0.155,0.732,0.854,0.549,89.696
126429,133960,12933,0.027,-0.956,0.154,0.793,0.854,0.366,89.702
126453,134010,43087,0.027,-0.956,0.154,0.793,0.854,0.366,89.706
126453,133959,12920,0.022,-0.958,0.152,0.854,0.732,0.427,89.712
126443,134010,43087,0.022,-0.958,0.152,0.854,0.732,0.427,89.716
126443,133968,12932,0.023,-0.955,0.155,0.854,0.61,0.488,89.722
126443,134010,43087,0.023,-0.955,0.155,0.854,0.61,0.488,89.726
126443,133972,12943,0.024,-0.955,0.155,0.732,0.61,0.549,89.732
126447,134010,43087,0.024,-0.955,0.155,0.732,0.61,0.549,89.735
126447,133951,12940,0.026,-0.963,0.157,0.244,0.549,0.122,89.742
126442,134010,43087,0.026,-0.963,0.157,0.244,0.549,0.122,89.745
126442,133966,12938,0.026,-0.952,0.153,0.61,0.427,0.122,89.751
126452,134010,43087,0.026,-0.952,0.153,0.61,0.427,0.122,89.755
126452,133981,12931,0.027,-0.957,0.159,0.732,0.427,0.305,89.761
126449,134010,43087,0.027,-0.957,0.159,0.732,0.427,0.305,89.765
126449,133969,12933,0.027,-0.953,0.156,0.549,0.366,0.244,89.771
126462,134010,43087,0.027,-0.953,0.156,0.549,0.366,0.244,89.775
126462,133966,12953,0.025,-0.957,0.155,-0.244,0.305,0.244,89.781
126458,134010,43087,0.025,-0.957,0.155,-0.244,0.305,0.244,89.785
126458,133993,12943,0.023,-0.961,0.156,-0.427,0.183,0.183,89.791
126444,134010,43087,0.021,-0.958,0.153,-0.427,0.183,0.183,89.795
126444,133998,12945,0.024,-0.955,0.151,-0.61,0.244,0.366,89.801
126445,134010,43087,0.027,-0.955,0.152,-0.61,0.244,0.366,89.805
126445,133980,12957,0.023,-0.956,0.153,-1.22,0.122,0.183,89.811
126445,134010,43087,0.025,-0.957,0.152,-1.22,0.122,0.183,89.815
126445,133969,12949,0.026,-0.962,0.15,-1.646,0.183,0.305,89.821
126440,134010,43087,0.023,-0.968,0.15,-1.646,0.183,0.305,89.824
126440,134007,12923,0.024,-0.965,0.153,-1.037,0.427,0.61,89.831
126453,134010,43087,0.024,-0.956,0.154,-1.037,0.427,0.61,89.834
126453,133970,12937,0.024,-0.953,0.157,-0.732,0.366,0.61,89.841
126452,134010,43087,0.027,-0.954,0.157,-0.732,0.366,0.61,89.844
126452,133965,12935,0.025,-0.96,0.155,-1.22,0.366,0.671,89.85
126452,134010,43087,0.025,-0.962,0.153,-1.22,0.366,0.671,89.854
126452,133981,12936,0.022,-0.958,0.155,-1.28,0.488,1.098,89.86
126446,134010,43087,0.024,-0.953,0.154,-1.28,0.488,1.098,89.864
126446,133969,12942,0.022,-0.952,0.155,-1.159,0.488,1.098,89.87
126452,134010,43087,0.021,-0.959,0.157,-1.159,0.488,1.098,89.874
126452,133991,12934,0.02,-0.956,0.156,-1.768,0.366,0.976,89.88
126453,134010,43087,0.021,-0.959,0.151,-1.768,0.366,0.976,89.884
126453,133983,12938,0.021,-0.961,0.148,-3.11,0.061,0.671,89.89
126428,134010,43087,0.022,-0.959,0.149,-3.11,0.061,0.671,89.894
126428,134004,12931,0.021,-0.966,0.143,-3.476,-0.183,0.244,89.9
126431,134010,43087,0.02,-0.973,0.147,-3.476,-0.183,0.244,89.904
126431,133990,12931,0.019,-0.967,0.15,-2.134,0,0.366,89.91
126434,134010,43087,0.025,-0.959,0.146,-2.134,0,0.366,89.914
126434,133981,12937,0.025,-0.96,0.147,-1.707,0.244,0.183,89.92
126440,134010,43087,0.022,-0.964,0.147,-1.707,0.244,0.183,89.923
126440,133996,12947,0.023,-0.963,0.149,-1.159,0.305,0.244,89.93
126450,134010,43087,0.023,-0.956,0.147,-1.159,0.305,0.244,89.933
126450,133988,12937,0.023,-0.958,0.146,-0.488,0.427,0.122,89.94
126445,134010,43087,0.027,-0.956,0.155,-0.488,0.427,0.122,89.943
126445,133979,12940,0.027,-0.957,0.155,-0.366,0.366,-0.122,89.949
126445,134010,43087,0.026,-0.956,0.151,-0.366,0.366,-0.122,89.953
126445,133961,12933,0.029,-0.954,0.152,-1.098,0.244,-0.122,89.959
126439,134010,43087,0.029,-0.961,0.152,-1.098,0.244,-0.122,89.963
126439,133991,12944,0.025,-0.966,0.15,-1.646,0.244,-0.122,89.969
126455,134010,43087,0.025,-0.963,0.149,-1.646,0.244,-0.122,89.973
126455,133986,12946,0.024,-0.96,0.143,-1.524,0.305,0.305,89.979
126450,134010,43087,0.025,-0.966,0.15,-1.524,0.305,0.305,89.983
126450,133991,12959,0.022,-0.962,0.147,-0.854,0.366,0.427,89.989
126461,134010,43087,0.023,-0.959,0.148,-0.854,0.366,0.427,89.993
126461,133985,12956,0.021,-0.96,0.153,-0.244,0.488,0.549,89.999
126460,134010,43087,0.021,-0.959,0.156,-0.244,0.488,0.549,90.003
126460,133979,12947,0.021,-0.956,0.149,-0.366,0.366,0.305,90.009
126443,134010,43087,0.021,-0.956,0.149,-0.366,0.366,0.305,90.013
126443,133994,12952,0.021,-0.965,0.153,-0.854,0.183,0,90.019
126461,134010,43087,0.023,-0.967,0.15,-0.854,0.183,0,90.022
126461,133961,12954,0.023,-0.963,0.147,-0.854,0.183,0,90.029
126461,134010,43087,0.024,-0.96,0.144,-0.854,0.183,0,90.032
126461,134000,12927,0.025,-0.962,0.145,-0.122,0.427,-0.061,90.039
126474,134010,43087,0.025,-0.962,0.148,-0.122,0.427,-0.061,90.042
126474,133974,12948,0.026,-0.96,0.151,0.671,0.549,0,90.048
126457,134010,43087,0.024,-0.959,0.146,0.671,0.549,0,90.052
126457,133994,12934,0.023,-0.959,0.148,0.976,0.61,0.183,90.058
126463,134010,43087,0.023,-0.96,0.151,0.976,0.61,0.183,90.062
126463,133980,12936,0.022,-0.958,0.152,1.28,0.732,0.244,90.068
126450,134010,43087,0.022,-0.958,0.152,1.28,0.732,0.244,90.072
126450,133991,12939,0.023,-0.961,0.151,1.22,0.671,0.427,90.078
126474,134010,43087,0.024,-0.959,0.151,1.22,0.671,0.427,90.082
126474,133975,12948,0.023,-0.959,0.155,1.037,0.61,0.427,90.088
126444,134010,43087,0.023,-0.957,0.152,1.037,0.61,0.427,90.092
126444,133989,12941,0.022,-0.953,0.153,0.793,0.488,0.366,90.098
126450,134010,43087,0.021,-0.954,0.159,0.793,0.488,0.366,90.102
126450,133987,12961,0.022,-0.96,0.158,0.488,0.366,0.305,90.108
126454,134010,43087,0.023,-0.957,0.154,0.488,0.366,0.305,90.112
126454,133992,12938,0.024,-0.955,0.154,0,0.183,0.366,90.118
126458,134010,43087,0.021,-0.956,0.155,0,0.183,0.366,90.121
126458,133985,12932,0.023,-0.957,0.157,-0.305,0.122,0.305,90.128
126475,134010,43087,0.023,-0.956,0.154,-0.305,0.122,0.305,90.131
126475,133999,12938,0.023,-0.96,0.152,-0.488,-0.122,0.061,90.137
126470,134010,43087,0.022,-0.961,0.15,-0.488,-0.122,0.061,90.141
126470,134002,12946,0.024,-0.965,0.15,-0.854,-0.183,-0.183,90.147
126469,134010,43087,0.026,-0.964,0.147,-0.854,-0.183,-0.183,90.151
126469,133999,12935,0.025,-0.959,0.151,-0.915,-0.122,-0.305,90.157
126460,134010,43087,0.025,-0.959,0.153,-0.915,-0.122,-0.305,90.161
126460,133993,12945,0.026,-0.96,0.151,-0.793,0,-0.305,90.167
126459,134010,43087,0.027,-0.961,0.151,-0.793,0,-0.305,90.171
126459,133996,12948,0.027,-0.963,0.146,-0.61,0.305,-0.244,90.177
126472,134010,43087,0.028,-0.953,0.144,-0.61,0.305,-0.244,90.181
126472,133978,12936,0.025,-0.907,0.134,-1.463,0.244,-0.305,90.187
126437,134010,43087,0.026,-0.945,0.141,-1.463,0.244,-0.305,90.191
126437,133987,12950,0.028,-1.11,0.189,0.549,0.427,-0.122,90.197
126454,134010,43087,-0.003,-1.043,0.196,0.549,0.427,-0.122,90.201
126454,134008,12951,0.025,-0.825,0.119,3.171,0.915,2.805,90.207
126450,134010,43087,0.091,-0.801,0.095,3.171,0.915,2.805,90.211
126450,133971,12942,0.067,-0.989,0.172,-3.659,-0.427,-4.756,90.217
126438,134010,43087,-0.011,-1.085,0.175,-3.659,-0.427,-4.756,90.22
126438,133981,12951,-0.034,-1.013,0.126,1.463,1.037,4.573,90.227
126430,134010,43087,-0.034,-1.013,0.126,1.463,1.037,4.573,90.23
126430,133966,12948,0.066,-0.885,0.185,3.476,1.402,2.012,90.236
126450,134010,43087,0.066,-0.885,0.185,3.476,1.402,2.012,90.24
126450,133976,12954,0.011,-0.987,0.154,-0.793,-0.122,-1.951,90.246
126433,134010,43087,0.011,-0.987,0.154,-0.793,-0.122,-1.951,90.25
126433,133986,12933,0.034,-0.976,0.115,-6.707,-0.61,1.707,90.256
126413,134010,43087,0.034,-0.976,0.115,-6.707,-0.61,1.707,90.26
126413,133976,12944,0.021,-0.983,0.139,0,0.488,-0.427,90.266
126415,134010,43087,0.021,-0.983,0.139,0,0.488,-0.427,90.27
126415,133983,12944,0.029,-0.942,0.166,5.793,1.646,2.622,90.276
126416,134010,43087,0.029,-0.942,0.166,5.793,1.646,2.622,90.28
126416,133956,12949,0.018,-0.936,0.159,2.378,0.976,0.61,90.286
126408,134010,43087,0.018,-0.936,0.159,2.378,0.976,0.61,90.29
126408,133965,12954,0.021,-0.985,0.14,-2.866,0.244,1.098,90.296
126383,134010,43087,0.021,-0.985,0.14,-2.866,0.244,1.098,90.3
126383,133966,12930,0.032,-0.96,0.146,0.061,0.732,0,90.306
126389,134010,43087,0.032,-0.96,0.146,0.061,0.732,0,90.31
126389,133960,12932,0.025,-0.953,0.162,3.11,0.732,0.366,90.316
126387,134010,43087,0.025,-0.953,0.162,3.11,0.732,0.366,90.319
126387,133947,12949,0.014,-0.946,0.156,1.89,0.915,1.951,90.326
126380,134010,43087,0.014,-0.946,0.156,1.89,0.915,1.951,90.329
126380,133943,12940,0.023,-0.961,0.15,-1.22,0.305,0.61,90.335
126385,134010,43087,0.023,-0.961,0.15,-1.22,0.305,0.61,90.339
126385,133967,12946,0.033,-0.968,0.152,-1.098,0,-0.793,90.345
126396,134010,43087,0.033,-0.968,0.152,-1.098,0,-0.793,90.349
126396,133939,12941,0.016,-0.963,0.152,0.366,0.549,1.28,90.355
126390,134010,43087,0.016,-0.963,0.152,0.366,0.549,1.28,90.359
126390,133935,12942,0.024,-0.944,0.156,0.488,0.366,0.915,90.365
126387,134010,43087,0.024,-0.944,0.156,0.488,0.366,0.915,90.369
126387,133961,12946,0.033,-0.951,0.159,0.488,0.366,0.915,90.375
126400,134010,43087,0.028,-0.966,0.155,-1.159,-0.061,-0.183,90.379
126400,133952,12950,0.021,-0.967,0.147,-1.159,-0.061,-0.183,90.385
126411,134010,43087,0.019,-0.963,0.145,-1.585,0.183,0.549,90.389
126411,133962,12939,0.027,-0.967,0.147,-1.585,0.183,0.549,90.395
126404,134010,43087,0.03,-0.956,0.152,0.427,0.305,0.427,90.399
126404,133934,12963,0.028,-0.95,0.153,0.427,0.305,0.427,90.405
126405,134010,43087,0.025,-0.961,0.152,1.159,0.671,0.732,90.409
126405,133945,12951,0.015,-0.952,0.155,1.159,0.671,0.732,90.415
126407,134010,43087,0.022,-0.972,0.154,0.549,0.549,0.976,90.418
126407,133928,12956,0.024,-0.958,0.152,0.549,0.549,0.976,90.425
126412,134010,43087,0.026,-0.941,0.148,0.122,0.671,0.671,90.428
126412,133945,12938,0.031,-0.961,0.149,0.122,0.671,0.671,90.434
126393,134010,43087,0.023,-0.985,0.161,0.488,0.732,0.244,90.438
126393,133971,12932,0.018,-0.965,0.154,0.488,0.732,0.244,90.444
126418,134010,43087,0.022,-0.946,0.15,0.732,0.732,1.341,90.448
126418,133958,12930,0.027,-0.948,0.156,0.732,0.732,1.341,90.454
126412,134010,43087,0.026,-0.956,0.156,0.488,0.488,0.488,90.458
126412,133957,12930,0.022,-0.962,0.15,0.488,0.488,0.488,90.464
126437,134010,43087,0.021,-0.96,0.15,-0.122,0.427,0.671,90.468
126437,134010,12939,0.023,-0.956,0.152,-0.122,0.427,0.671,90.474
126330,134010,43087,0.025,-0.953,0.154,0.061,0.427,0.671,90.478
126330,133920,12921,0.024,-0.955,0.159,0.061,0.427,0.671,90.484
126472,134010,43087,0.021,-0.958,0.156,-0.061,0.427,0.549,90.488
126472,133998,12953,0.023,-0.959,0.156,-0.061,0.427,0.549,90.494
126405,134010,43087,0.024,-0.958,0.154,-0.488,0.244,0.61,90.498
126405,133989,12938,0.02,-0.959,0.153,-0.488,0.244,0.61,90.504
126406,134010,43087,0.021,-0.96,0.152,-0.793,0.244,0.366,90.507
126406,134000,12940,0.022,-0.947,0.146,-0.793,0.244,0.366,90.514
126402,134010,43087,0.025,-0.951,0.147,-1.341,0.061,0.061,90.517
126402,133985,12941,0.028,-0.987,0.162,-1.341,0.061,0.061,90.524
126402,134010,43087,0.015,-0.962,0.157,0,0.305,0.488,90.527
126402,134000,12946,0.022,-0.959,0.148,0,0.305,0.488,90.533
126413,134010,43087,0.033,-0.964,0.155,0.183,0.366,0.488,90.537
126413,134018,12939,0.026,-0.944,0.161,0.183,0.366,0.488,90.543
126402,134010,43087,0.03,-0.947,0.144,-0.671,0.122,-0.183,90.547
126402,134003,12948,0.024,-0.974,0.15,-0.671,0.122,-0.183,90.553
126438,134010,43087,0.017,-0.967,0.156,-0.366,0.366,0.732,90.557
126438,133990,12937,0.023,-0.958,0.145,-0.366,0.366,0.732,90.563
126413,134010,43087,0.025,-0.95,0.158,0.183,0.427,0.549,90.567
126413,134013,12950,0.026,-0.949,0.16,0.183,0.427,0.549,90.573
126422,134010,43087,0.026,-0.963,0.155,-0.427,0.305,0.305,90.577
126422,134017,12942,0.018,-0.964,0.153,-0.427,0.305,0.305,90.583
126434,134010,43087,0.024,-0.954,0.145,-1.768,0.122,0.366,90.587
126434,134015,12948,0.032,-0.96,0.137,-1.768,0.122,0.366,90.593
126476,134010,43087,0.029,-0.974,0.15,-1.28,0.305,0.061,90.597
126476,134014,12941,0.024,-0.972,0.152,-1.28,0.305,0.061,90.603
126456,134010,43087,0.022,-0.958,0.149,0.976,0.976,0.915,90.606
126456,134002,12942,0.025,-0.942,0.152,0.976,0.976,0.915,90.613
126442,134010,43087,0.025,-0.948,0.159,1.341,0.976,0.976,90.616
126442,134013,12942,0.021,-0.962,0.157,1.341,0.976,0.976,90.623
126438,134010,43087,0.018,-0.962,0.151,0.183,0.732,1.098,90.626
126438,133994,12943,0.02,-0.949,0.149,0.183,0.732,1.098,90.632
126462,134010,43087,0.027,-0.939,0.146,-1.341,0.366,0.671,90.636
126462,134006,12940,0.029,-0.956,0.148,-1.341,0.366,0.671,90.642
126439,134010,43087,0.018,-0.979,0.153,-1.28,0.244,0.427,90.646
126439,134028,12942,0.012,-0.984,0.159,-1.28,0.244,0.427,90.652
126444,134010,43087,0.018,-0.972,0.155,0.061,0.61,1.951,90.656
126444,134010,12938,0.029,-0.954,0.159,0.061,0.61,1.951,90.662
126450,134010,43087,0.035,-0.943,0.15,-0.183,0.549,0.427,90.666
126450,134009,12943,0.032,-0.948,0.145,-0.183,0.549,0.427,90.672
126440,134010,43087,0.024,-0.967,0.145,-1.159,0.427,0.122,90.676
126440,134013,12934,0.018,-0.973,0.15,-1.159,0.427,0.122,90.682
126441,134010,43087,0.018,-0.967,0.155,0.488,0.793,1.646,90.686
126441,134009,12950,0.019,-0.953,0.157,0.488,0.793,1.646,90.692
126424,134010,43087,0.022,-0.943,0.163,1.341,1.037,1.037,90.696
126424,133989,12952,0.027,-0.946,0.161,1.341,1.037,1.037,90.702
126440,134010,43087,0.029,-0.957,0.151,-1.707,0.305,-0.305,90.705
126440,134016,12945,0.024,-0.975,0.142,-1.707,0.305,-0.305,90.712
126433,134010,43087,0.02,-0.979,0.133,-3.232,-0.061,-0.061,90.715
126433,133985,12943,0.023,-0.97,0.135,-3.232,-0.061,-0.061,90.722
126437,134010,43087,0.027,-0.961,0.145,0.305,0.549,0.488,90.725
126437,133988,12944,0.027,-0.952,0.158,0.305,0.549,0.488,90.731
126428,134010,43087,0.022,-0.944,0.165,3.659,0.915,0.671,90.735
126428,133996,12944,0.016,-0.944,0.165,3.659,0.915,0.671,90.741
126421,134010,43087,0.014,-0.948,0.161,1.159,0.366,0.976,90.745
126421,134017,12931,0.018,-0.959,0.158,1.159,0.366,0.976,90.751
126430,134010,43087,0.022,-0.962,0.152,-2.256,-0.122,0.305,90.755
126430,134007,12939,0.023,-0.967,0.148,-2.256,-0.122,0.305,90.761
126438,134010,43087,0.029,-0.971,0.145,-2.012,-0.122,-0.244,90.765
126438,134013,12941,0.024,-0.964,0.152,-2.012,-0.122,-0.244,90.771
126441,134010,43087,0.023,-0.958,0.151,-0.061,0.183,0.427,90.775
126441,134014,12951,0.019,-0.953,0.152,-0.061,0.183,0.427,90.781
126433,134010,43087,0.017,-0.952,0.154,0.183,0.427,0.976,90.785
126433,134009,12944,0.021,-0.957,0.149,0.183,0.427,0.976,90.791
126449,134010,43087,0.024,-0.961,0.154,-0.732,0.366,0.488,90.795
126449,134003,12970,0.023,-0.963,0.151,-0.732,0.366,0.488,90.801
126430,134010,43087,0.023,-0.963,0.151,-0.732,0.366,0.488,90.804
126430,134024,12944,0.02,-0.964,0.152,-0.915,0.305,0.244,90.811
126428,134010,43087,0.02,-0.964,0.152,-0.915,0.305,0.244,90.814
126428,134011,12947,0.021,-0.953,0.154,-0.183,0.549,0.854,90.821
126445,134010,43087,0.021,-0.953,0.154,-0.183,0.549,0.854,90.824
126445,134003,12937,0.023,-0.959,0.149,0.305,0.549,0.854,90.83
126434,134010,43087,0.023,-0.959,0.149,0.305,0.549,0.854,90.834
126434,133995,12939,0.021,-0.961,0.15,0.244,0.549,0.671,90.84
126453,134010,43087,0.021,-0.961,0.15,0.244,0.549,0.671,90.844
126453,133998,12940,0.022,-0.956,0.153,0.244,0.61,0.671,90.85
126443,134010,43087,0.022,-0.956,0.153,0.244,0.61,0.671,90.854
126443,133998,12930,0.021,-0.961,0.152,0.549,0.549,0.732,90.86
126445,134010,43087,0.021,-0.961,0.152,0.549,0.549,0.732,90.864
126445,133989,12940,0.019,-0.954,0.156,0.671,0.488,0.793,90.87
126425,134010,43087,0.019,-0.954,0.156,0.671,0.488,0.793,90.874
126425,133976,12952,0.019,-0.959,0.154,0.122,0.305,0.488,90.88
126420,134010,43087,0.019,-0.959,0.154,0.122,0.305,0.488,90.884
126420,133996,12952,0.024,-0.962,0.154,-0.671,0,0,90.89
126427,134010,43087,0.024,-0.962,0.154,-0.671,0,0,90.894
126427,133984,12950,0.022,-0.962,0.15,-1.037,-0.061,-0.122,90.9
126446,134010,43087,0.022,-0.962,0.15,-1.037,-0.061,-0.122,90.903
126446,133975,12951,0.023,-0.962,0.148,-1.037,0,0,90.91
126441,134010,43087,0.023,-0.962,0.148,-1.037,0,0,90.913
126441,134013,12967,0.025,-0.96,0.149,-0.732,0.183,0.061,90.919
126413,134010,43087,0.025,-0.96,0.149,-0.732,0.183,0.061,90.923
126413,134020,12936,0.025,-0.961,0.153,-0.488,0.244,0,90.929
126415,134010,43087,0.025,-0.961,0.153,-0.488,0.244,0,90.933
126415,133977,12941,0.025,-0.956,0.151,-0.305,0.305,0.183,90.939
126406,134010,43087,0.025,-0.956,0.151,-0.305,0.305,0.183,90.943
126406,133999,12943,0.026,-0.958,0.153,-0.122,0.305,0.427,90.949
126430,134010,43087,0.026,-0.961,0.15,-0.122,0.305,0.427,90.953
126430,134023,12963,0.024,-0.96,0.147,-0.122,0.427,0.61,90.959
126423,134010,43087,0.025,-0.96,0.15,-0.122,0.427,0.61,90.963
126423,133990,12964,0.025,-0.957,0.153,0.183,0.427,0.671,90.969
126429,134010,43087,0.024,-0.958,0.155,0.183,0.427,0.671,90.973
126429,133985,12946,0.025,-0.958,0.152,0.183,0.488,0.61,90.979
126432,134010,43087,0.025,-0.959,0.15,0.183,0.488,0.61,90.983
126432,134004,12958,0.024,-0.96,0.152,-0.122,0.366,0.61,90.989
126418,134010,43087,0.023,-0.961,0.151,-0.122,0.366,0.61,90.992
126418,134001,12936,0.023,-0.959,0.153,-0.427,0.305,0.549,90.999
126434,134010,43087,0.022,-0.962,0.154,-0.427,0.305,0.549,91.002
126434,134014,12958,0.023,-0.961,0.149,-0.427,0.366,0.671,91.009
126417,134010,43087,0.022,-0.96,0.15,-0.427,0.366,0.671,91.012
126417,133974,12946,0.021,-0.961,0.15,-0.061,0.427,0.671,91.018
126424,134010,43087,0.026,-0.96,0.153,-0.061,0.427,0.671,91.022
126424,133979,12947,0.025,-0.96,0.149,0.366,0.549,0.671,91.028
126399,134010,43087,0.023,-0.96,0.152,0.366,0.549,0.671,91.032
126399,133950,12949,0.023,-0.962,0.149,0.793,0.793,0.793,91.038
126391,134010,43087,0.023,-0.958,0.152,0.793,0.793,0.793,91.042
126391,133962,12955,0.022,-0.957,0.153,1.28,0.915,0.854,91.048
126407,134010,43087,0.022,-0.954,0.155,1.28,0.915,0.854,91.052
126407,133968,12955,0.02,-0.955,0.152,1.098,0.732,0.793,91.058
126405,134010,43087,0.02,-0.958,0.157,1.098,0.732,0.793,91.062
126405,133973,12963,0.023,-0.957,0.158,0.427,0.61,0.793,91.068
126414,134010,43087,0.022,-0.955,0.156,0.427,0.61,0.793,91.072
126414,133979,12961,0.022,-0.956,0.156,-0.122,0.61,0.671,91.078
126415,134010,43087,0.02,-0.96,0.158,-0.122,0.61,0.671,91.082
126415,133991,12940,0.021,-0.955,0.157,-0.671,0.366,0.671,91.088
126416,134010,43087,0.021,-0.955,0.156,-0.671,0.366,0.671,91.091
126416,133993,12936,0.023,-0.958,0.153,-1.341,0.122,0.732,91.098
126426,134010,43087,0.021,-0.96,0.15,-1.341,0.122,0.732,91.101
126426,133965,12947,0.022,-0.962,0.149,-1.585,0.061,0.671,91.108
126423,134010,43087,0.025,-0.962,0.15,-1.585,0.061,0.671,91.111
126423,133983,12965,0.023,-0.961,0.15,-1.159,0.122,0.488,91.117
126420,134010,43087,0.023,-0.96,0.147,-1.159,0.122,0.488,91.121
126420,133997,12951,0.021,-0.958,0.151,-0.732,0.244,0.549,91.127
126426,134010,43087,0.021,-0.963,0.149,-0.732,0.244,0.549,91.131
126426,133965,12949,0.021,-0.963,0.15,-0.732,0.244,0.671,91.137
126419,134010,43087,0.022,-0.965,0.149,-0.732,0.244,0.671,91.141
126419,133971,12957,0.021,-0.961,0.147,-0.732,0.305,0.549,91.147
126417,134010,43087,0.023,-0.962,0.148,-0.732,0.305,0.549,91.151
126417,134003,12952,0.021,-0.958,0.148,-0.488,0.366,0.366,91.157
126407,134010,43087,0.022,-0.961,0.148,-0.488,0.366,0.366,91.161
126407,133979,12943,0.022,-0.963,0.15,-0.061,0.366,0.427,91.167
126401,134010,43087,0.021,-0.961,0.151,-0.061,0.366,0.427,91.171
126401,133973,12945,0.021,-0.957,0.149,0.305,0.488,0.549,91.177
126397,134010,43087,0.022,-0.958,0.148,0.305,0.488,0.549,91.181
126397,133992,12956,0.021,-0.957,0.153,0.488,0.427,0.549,91.187
126393,134010,43087,0.022,-0.958,0.155,0.488,0.427,0.549,91.19
126393,133991,12933,0.023,-0.962,0.153,0.366,0.366,0.549,91.197
126399,134010,43087,0.02,-0.96,0.154,0.366,0.366,0.549,91.2
126399,133969,12938,0.02,-0.958,0.149,0,0.427,0.549,91.207
126408,134010,43087,0.02,-0.956,0.152,0,0.427,0.549,91.21
126408,133969,12938,0.019,-0.957,0.152,0.061,0.305,0.488,91.216
126402,134010,43087,0.022,-0.958,0.153,0.061,0.305,0.488,91.22
126402,133978,12948,0.02,-0.961,0.153,0.061,0.305,0.427,91.226
126411,134010,43087,0.022,-0.959,0.154,0.061,0.305,0.427,91.23
126411,133992,12944,0.021,-0.96,0.15,-0.183,0.244,0.366,91.236
126412,134010,43087,0.023,-0.961,0.152,-0.183,0.244,0.366,91.24
126412,134003,12932,0.022,-0.961,0.154,-0.488,0.305,0.305,91.246
126430,134010,43087,0.023,-0.959,0.154,-0.488,0.305,0.305,91.25
126430,134003,12947,0.021,-0.957,0.154,-0.671,0.305,0.183,91.256
126422,134010,43087,0.021,-0.957,0.15,-0.671,0.305,0.183,91.26
126422,134018,12936,0.023,-0.957,0.149,-0.793,0.366,0.183,91.266
126415,134010,43087,0.02,-0.961,0.149,-0.793,0.366,0.183,91.27
126415,134010,12937,0.019,-0.96,0.149,-0.671,0.427,0.305,91.276
126430,134010,43087,0.022,-0.961,0.155,-0.671,0.427,0.305,91.28
126430,134003,12929,0.02,-0.962,0.15,-0.183,0.427,0.366,91.286
126397,134010,43087,0.023,-0.96,0.147,-0.183,0.427,0.366,91.289
126397,133995,12943,0.024,-0.958,0.15,-0.061,0.61,0.183,91.296
126415,134010,43087,0.022,-0.958,0.149,-0.061,0.61,0.183,91.299
126415,134002,12933,0.022,-0.962,0.148,0.183,0.671,0.244,91.306
126429,134010,43087,0.022,-0.96,0.154,0.183,0.671,0.244,91.309
126429,134007,12931,0.023,-0.959,0.154,0.427,0.61,0.427,91.315
126441,134010,43087,0.022,-0.957,0.151,0.427,0.61,0.427,91.319
126441,133983,12939,0.022,-0.954,0.156,0.366,0.549,0.366,91.325
126424,134010,43087,0.02,-0.954,0.154,0.366,0.549,0.366,91.329
126424,134001,12935,0.017,-0.955,0.156,-0.244,0.427,0.244,91.335
126410,134010,43087,0.021,-0.961,0.154,-0.244,0.427,0.244,91.339
126410,133989,12958,0.022,-0.962,0.15,-1.098,0.183,0,91.345
126414,134010,43087,0.021,-0.961,0.151,-1.098,0.183,0,91.349
126414,133981,12949,0.021,-0.962,0.146,-0.976,0.305,0,91.355
126417,134010,43087,0.022,-0.962,0.151,-0.976,0.305,0,91.359
126417,133982,12940,0.021,-0.964,0.151,-0.305,0.366,0.183,91.365
126432,134010,43087,0.018,-0.96,0.152,-0.305,0.366,0.183,91.369
126432,133992,12952,0.022,-0.955,0.154,0.122,0.366,0.183,91.375
126428,134010,43087,0.022,-0.955,0.154,0.122,0.366,0.183,91.379
126428,133990,12950,0.024,-0.956,0.154,-0.183,0.305,0.061,91.385
126423,134010,43087,0.024,-0.956,0.154,-0.183,0.305,0.061,91.388
126423,133979,12936,0.022,-0.964,0.152,-0.732,0.244,-0.061,91.395
126412,134010,43087,0.022,-0.964,0.152,-0.732,0.244,-0.061,91.398
126412,133988,12944,0.026,-0.96,0.154,-0.488,0.305,-0.061,91.404
126400,134010,43087,0.026,-0.96,0.154,-0.488,0.305,-0.061,91.408
126400,133994,12943,0.022,-0.96,0.154,-0.122,0.427,0.122,91.414
126416,134010,43087,0.022,-0.96,0.154,-0.122,0.427,0.122,91.418
126416,133971,12937,0.024,-0.963,0.151,-0.305,0.427,0.305,91.424
126384,134010,43087,0.024,-0.963,0.151,-0.305,0.427,0.305,91.428
126384,133991,12949,0.023,-0.964,0.149,-0.122,0.61,0.427,91.434
126389,134010,43087,0.023,-0.964,0.149,-0.122,0.61,0.427,91.438
126389,133983,12946,0.02,-0.958,0.15,0.305,0.549,0.366,91.444
126400,134010,43087,0.02,-0.958,0.15,0.305,0.549,0.366,91.448
126400,133984,12932,0.021,-0.955,0.154,0.366,0.366,0.183,91.454
126405,134010,43087,0.021,-0.955,0.154,0.366,0.366,0.183,91.458
126405,133972,12937,0.024,-0.957,0.153,-0.061,0.244,-0.061,91.464
126404,134010,43087,0.024,-0.957,0.153,-0.061,0.244,-0.061,91.468
126404,133979,12936,0.021,-0.959,0.153,-0.488,0.122,-0.061,91.474
126387,134010,43087,0.021,-0.959,0.153,-0.488,0.122,-0.061,91.478
126387,133982,12939,0.025,-0.956,0.152,-0.732,0.122,-0.061,91.484
126392,134010,43087,0.025,-0.956,0.152,-0.732,0.122,-0.061,91.487
126392,133967,12941,0.024,-0.964,0.15,-0.854,0.122,-0.122,91.494
126385,134010,43087,0.024,-0.964,0.15,-0.854,0.122,-0.122,91.497
126385,133956,12931,0.023,-0.962,0.148,-0.61,0.183,-0.061,91.503
126383,134010,43087,0.023,-0.962,0.148,-0.61,0.183,-0.061,91.507
126383,133974,12949,0.021,-0.962,0.152,-0.549,0.244,0.183,91.513
126385,134010,43087,0.021,-0.962,0.152,-0.549,0.244,0.183,91.517
126385,133950,12953,0.021,-0.96,0.15,-0.549,0.244,0.183,91.523
126391,134010,43087,0.02,-0.957,0.15,-0.671,0.305,0.305,91.527
126391,133962,12940,0.022,-0.958,0.149,-0.671,0.305,0.305,91.533
126380,134010,43087,0.023,-0.963,0.153,-0.732,0.244,0.366,91.537
126380,133947,12938,0.02,-0.962,0.152,-0.732,0.244,0.366,91.543
126359,134010,43087,0.023,-0.96,0.15,-0.61,0.366,0.366,91.547
126359,133954,12941,0.024,-0.96,0.149,-0.61,0.366,0.366,91.553
126376,134010,43087,0.022,-0.962,0.149,-0.427,0.427,0.366,91.557
126376,133947,12953,0.021,-0.962,0.149,-0.427,0.427,0.366,91.563
126359,134010,43087,0.019,-0.962,0.15,-0.061,0.427,0.427,91.567
126359,133959,12930,0.019,-0.961,0.149,-0.061,0.427,0.427,91.573
126386,134010,43087,0.022,-0.96,0.153,0.366,0.488,0.366,91.576
126386,133965,12935,0.023,-0.96,0.148,0.366,0.488,0.366,91.583
126378,134010,43087,0.022,-0.959,0.148,0.549,0.488,0.244,91.586
126378,133938,12939,0.021,-0.958,0.151,0.549,0.488,0.244,91.593
126368,134010,43087,0.019,-0.954,0.152,0.549,0.427,0.122,91.596
126368,133990,12934,0.021,-0.954,0.152,0.549,0.427,0.122,91.602
126378,134010,43087,0.023,-0.959,0.155,0.488,0.305,0,91.606
126378,133980,12932,0.022,-0.959,0.149,0.488,0.305,0,91.612
126385,134010,43087,0.024,-0.96,0.15,0.305,0.366,-0.183,91.616
126385,133948,12928,0.027,-0.963,0.15,0.305,0.366,-0.183,91.622
126383,134010,43087,0.023,-0.961,0.154,0.427,0.427,-0.122,91.626
126383,133943,12947,0.024,-0.957,0.152,0.427,0.427,-0.122,91.632
126366,134010,43087,0.025,-0.958,0.151,0.183,0.488,0.122,91.636
126366,133985,12944,0.025,-0.958,0.152,0.183,0.488,0.122,91.642
126377,134010,43087,0.026,-0.959,0.153,-0.305,0.427,0.122,91.646
126377,133941,12950,0.025,-0.956,0.152,-0.305,0.427,0.122,91.652
126360,134010,43087,0.026,-0.957,0.152,-0.488,0.427,0.305,91.656
126360,133962,12959,0.024,-0.96,0.153,-0.488,0.427,0.305,91.662
126361,134010,43087,0.022,-0.962,0.152,-0.122,0.61,0.732,91.666
126361,133949,12931,0.021,-0.96,0.15,-0.122,0.61,0.732,91.672
126364,134010,43087,0.025,-0.96,0.153,0.122,0.671,0.671,91.675
126364,133927,12943,0.023,-0.959,0.156,0.122,0.671,0.671,91.682
126373,134010,43087,0.023,-0.961,0.152,-0.183,0.61,0.427,91.685
126373,133931,12946,0.023,-0.963,0.152,-0.183,0.61,0.427,91.692
126373,134010,43087,0.022,-0.961,0.15,-0.183,0.61,0.427,91.695
126373,133946,12944,0.022,-0.963,0.148,-0.183,0.61,0.427,91.701
126351,134010,43087,0.024,-0.963,0.15,0,0.488,0.305,91.705
126351,133928,12937,0.024,-0.959,0.154,0,0.488,0.305,91.711
126355,134010,43087,0.024,-0.961,0.15,0.671,0.549,0.366,91.715
126355,133943,12936,0.022,-0.959,0.151,0.671,0.549,0.366,91.721
126354,134010,43087,0.024,-0.958,0.152,0.793,0.61,0.488,91.725
126354,133915,12936,0.023,-0.957,0.153,0.793,0.61,0.488,91.731
126338,134010,43087,0.023,-0.959,0.153,0.61,0.549,0.366,91.735
126338,133932,12912,0.022,-0.96,0.153,0.61,0.549,0.366,91.741
126342,134010,43087,0.024,-0.962,0.151,0.671,0.671,0.61,91.745
126342,133911,12948,0.023,-0.96,0.151,0.671,0.671,0.61,91.751
126338,134010,43087,0.023,-0.956,0.152,1.159,0.854,0.793,91.755
126338,133926,12923,0.023,-0.955,0.156,1.159,0.854,0.793,91.761
126334,134010,43087,0.02,-0.958,0.155,1.22,0.854,1.098,91.765
126334,133940,12954,0.021,-0.956,0.155,1.22,0.854,1.098,91.771
126338,134010,43087,0.021,-0.954,0.157,0.61,0.793,1.037,91.774
126338,133907,12944,0.019,-0.954,0.158,0.61,0.793,1.037,91.781
126354,134010,43087,0.021,-0.955,0.157,-0.183,0.488,0.793,91.784
126354,133943,12929,0.024,-0.959,0.156,-0.183,0.488,0.793,91.791
126334,134010,43087,0.023,-0.954,0.155,-0.732,0.244,0.732,91.794
126334,133932,12940,0.021,-0.957,0.153,-0.732,0.244,0.732,91.8
126338,134010,43087,0.019,-0.965,0.155,-1.159,0.183,0.488,91.804
126338,133924,12938,0.02,-0.962,0.152,-1.159,0.183,0.488,91.81
126347,134010,43087,0.02,-0.961,0.151,-1.524,0.122,0.244,91.814
126347,133902,12930,0.02,-0.962,0.149,-1.524,0.122,0.244,91.82
126347,134010,43087,0.022,-0.96,0.151,-1.463,0.061,0.183,91.824
126347,133927,12936,0.024,-0.96,0.149,-1.463,0.061,0.183,91.83
126347,134010,43087,0.022,-0.959,0.151,-1.037,0.183,0.183,91.834
126347,133933,12937,0.022,-0.96,0.151,-1.037,0.183,0.183,91.84
126350,134010,43087,0.023,-0.959,0.15,-0.488,0.183,0.244,91.844
126350,133918,12947,0.024,-0.961,0.146,-0.488,0.183,0.244,91.85
126336,134010,43087,0.021,-0.961,0.15,-0.122,0.305,0.244,91.854
126336,133923,12946,0.02,-0.961,0.155,-0.122,0.305,0.244,91.86
126351,134010,43087,0.022,-0.963,0.15,0.122,0.427,0.244,91.864
126351,133945,12945,0.024,-0.961,0.152,0.122,0.427,0.244,91.87
126360,134010,43087,0.023,-0.961,0.147,0.244,0.427,0.305,91.873
126360,133940,12941,0.023,-0.961,0.149,0.244,0.427,0.305,91.88
126375,134010,43087,0.023,-0.958,0.153,0.244,0.427,0.366,91.883
126375,133948,12938,0.021,-0.961,0.151,0.244,0.427,0.366,91.889
126370,134010,43087,0.019,-0.962,0.152,0.305,0.427,0.305,91.893
126370,133969,12933,0.022,-0.961,0.151,0.305,0.427,0.305,91.899
126360,134010,43087,0.023,-0.961,0.154,0.366,0.427,0.183,91.903
126360,133941,12949,0.025,-0.961,0.152,0.366,0.427,0.183,91.909
126352,134010,43087,0.02,-0.961,0.153,0.183,0.427,0.305,91.913
126352,133943,12940,0.021,-0.958,0.152,0.183,0.427,0.305,91.919
126375,134010,43087,0.023,-0.955,0.154,0.183,0.427,0.427,91.923
126375,133955,12916,0.022,-0.958,0.154,0.183,0.427,0.427,91.929
126367,134010,43087,0.02,-0.961,0.154,0.183,0.366,0.366,91.933
126367,133947,12943,0.02,-0.957,0.156,0.183,0.366,0.366,91.939
126366,134010,43087,0.021,-0.953,0.156,-0.122,0.366,0.366,91.943
126366,133948,12925,0.018,-0.957,0.154,-0.122,0.366,0.366,91.949
126364,134010,43087,0.018,-0.957,0.154,-0.122,0.366,0.366,91.953
126364,133937,12926,0.022,-0.957,0.156,-0.305,0.305,0.305,91.959
126375,134010,43087,0.022,-0.957,0.156,-0.305,0.305,0.305,91.963
126375,133957,12928,0.024,-0.961,0.15,-0.183,0.183,0.244,91.969
126371,134010,43087,0.024,-0.961,0.15,-0.183,0.183,0.244,91.972
126371,133960,12931,0.023,-0.962,0.153,-0.183,0.366,0.244,91.979
126377,134010,43087,0.023,-0.962,0.153,-0.183,0.366,0.244,91.982
126377,133968,12927,0.022,-0.958,0.154,-0.122,0.427,0.244,91.988
126390,134010,43087,0.022,-0.958,0.154,-0.122,0.427,0.244,91.992
126390,133957,12926,0.024,-0.961,0.15,-0.061,0.549,0.122,91.998
126373,134010,43087,0.024,-0.961,0.15,-0.061,0.549,0.122,92.002
126373,133963,12951,0.024,-0.958,0.149,0.122,0.671,0.305,92.008
126384,134010,43087,0.024,-0.958,0.149,0.122,0.671,0.305,92.012
126384,133984,12927,0.023,-0.96,0.152,0.122,0.732,0.427,92.018
126402,134010,43087,0.023,-0.96,0.152,0.122,0.732,0.427,92.022
126402,133976,12938,0.024,-0.957,0.152,0.244,0.732,0.366,92.028
126413,134010,43087,0.024,-0.957,0.152,0.244,0.732,0.366,92.032
126413,133997,12951,0.024,-0.957,0.152,0.122,0.671,0.488,92.038
126404,134010,43087,0.024,-0.957,0.152,0.122,0.671,0.488,92.042
126404,133994,12936,0.022,-0.958,0.155,-0.122,0.61,0.61,92.048
126404,134010,43087,0.022,-0.958,0.155,-0.122,0.61,0.61,92.052
126404,133979,12945,0.021,-0.957,0.156,-0.244,0.549,0.61,92.058
126404,134010,43087,0.021,-0.957,0.156,-0.244,0.549,0.61,92.061
126404,133972,12948,0.019,-0.959,0.152,-0.61,0.366,0.427,92.068
126400,134010,43087,0.019,-0.959,0.152,-0.61,0.366,0.427,92.071
126400,134005,12938,0.02,-0.964,0.153,-0.854,0.183,0.305,92.078
126419,134010,43087,0.02,-0.964,0.153,-0.854,0.183,0.305,92.081
126419,133997,12944,0.02,-0.963,0.149,-0.854,0.183,0.366,92.087
126417,134010,43087,0.02,-0.963,0.149,-0.854,0.183,0.366,92.091
126417,133994,12932,0.024,-0.961,0.154,-0.366,0.366,0.183,92.097
126409,134010,43087,0.022,-0.961,0.157,-0.366,0.366,0.183,92.101
126409,133976,12942,0.022,-0.957,0.154,-0.244,0.366,0.122,92.107
126427,134010,43087,0.025,-0.959,0.154,-0.244,0.366,0.122,92.111
126427,134005,12942,0.024,-0.959,0.153,-0.671,0.366,0.061,92.117
126427,134010,43087,0.025,-0.958,0.153,-0.671,0.366,0.061,92.121
126427,133997,12950,0.026,-0.959,0.154,-0.732,0.366,0,92.127
126434,134010,43087,0.024,-0.958,0.155,-0.732,0.366,0,92.131
126434,134006,12949,0.022,-0.958,0.154,-0.854,0.305,0.183,92.137
126447,134010,43087,0.023,-0.961,0.15,-0.854,0.305,0.183,92.141
126447,133993,12943,0.025,-0.959,0.151,-1.159,0.305,0.427,92.147
126430,134010,43087,0.023,-0.963,0.149,-1.159,0.305,0.427,92.151
126430,133983,12953,0.023,-0.963,0.148,-0.732,0.366,0.61,92.157
126423,134010,43087,0.02,-0.959,0.151,-0.732,0.366,0.61,92.16
126423,134016,12950,0.022,-0.958,0.151,-0.366,0.366,0.61,92.167
126436,134010,43087,0.021,-0.959,0.153,-0.366,0.366,0.61,92.17
126436,133998,12947,0.019,-0.958,0.153,-0.366,0.244,0.366,92.177
126453,134010,43087,0.023,-0.959,0.151,-0.366,0.244,0.366,92.18
126453,134001,12957,0.023,-0.961,0.151,-0.793,0.122,0.122,92.186
126439,134010,43087,0.021,-0.96,0.15,-0.793,0.122,0.122,92.19
126439,134000,12934,0.021,-0.959,0.151,-0.915,0.122,0.061,92.196
126433,134010,43087,0.024,-0.961,0.15,-0.915,0.122,0.061,92.2
126433,134018,12936,0.022,-0.961,0.15,-1.037,0.061,-0.061,92.206
126440,134010,43087,0.023,-0.959,0.152,-1.037,0.061,-0.061,92.21
126440,134009,12938,0.024,-0.961,0.149,-0.915,0.122,-0.183,92.216
126421,134010,43087,0.022,-0.959,0.151,-0.915,0.122,-0.183,92.22
126421,133993,12957,0.027,-0.958,0.15,-0.61,0.183,-0.122,92.226
126440,134010,43087,0.024,-0.962,0.145,-0.61,0.183,-0.122,92.23
126440,134001,12946,0.02,-0.964,0.15,-0.122,0.366,0.061,92.236
126428,134010,43087,0.024,-0.961,0.15,-0.122,0.366,0.061,92.24
126428,134001,12950,0.024,-0.958,0.149,0.366,0.488,0.305,92.246
126425,134010,43087,0.024,-0.958,0.151,0.366,0.488,0.305,92.25
126425,133999,12938,0.026,-0.959,0.153,0.488,0.671,0.427,92.256
126412,134010,43087,0.024,-0.958,0.151,0.488,0.671,0.427,92.259
126412,133998,12956,0.022,-0.957,0.157,0.366,0.671,0.488,92.266
126421,134010,43087,0.02,-0.96,0.153,0.366,0.671,0.488,92.269
126421,134013,12940,0.02,-0.961,0.152,0.122,0.61,0.549,92.275
126418,134010,43087,0.019,-0.961,0.151,0.122,0.61,0.549,92.279
126418,133991,12961,0.019,-0.958,0.157,0,0.549,0.488,92.285
126415,134010,43087,0.022,-0.959,0.15,0,0.549,0.488,92.289
126415,133988,12943,0.023,-0.962,0.149,-0.122,0.366,0.244,92.295
126433,134010,43087,0.019,-0.961,0.152,-0.122,0.366,0.244,92.299
126433,134001,12954,0.02,-0.961,0.15,-0.122,0.305,-0.061,92.305
126435,134010,43087,0.021,-0.96,0.148,-0.122,0.305,-0.061,92.309
126435,134005,12945,0.023,-0.959,0.149,0,0.427,-0.183,92.315
126427,134010,43087,0.022,-0.958,0.151,0,0.427,-0.183,92.319
126427,133988,12961,0.023,-0.96,0.15,0.061,0.366,-0.183,92.325
126417,134010,43087,0.023,-0.959,0.151,0.061,0.366,-0.183,92.329
126417,134009,12981,0.024,-0.959,0.152,0,0.122,-0.244,92.335
126433,134010,43087,0.026,-0.959,0.15,0,0.122,-0.244,92.339
126433,133983,12954,0.025,-0.96,0.151,0.061,0.244,-0.244,92.345
126429,134010,43087,0.025,-0.96,0.152,0.061,0.244,-0.244,92.349
126429,133978,12943,0.027,-0.959,0.153,0.488,0.427,0.061,92.355
126429,134010,43087,0.024,-0.958,0.153,0.488,0.427,0.061,92.358
126429,133964,12955,0.022,-0.957,0.155,0.549,0.488,0.244,92.365
126427,134010,43087,0.023,-0.957,0.151,0.549,0.488,0.244,92.368
126427,134006,12946,0.023,-0.957,0.151,0.244,0.488,0.305,92.374
126433,134010,43087,0.024,-0.959,0.156,0.244,0.488,0.305,92.378
126433,133992,12940,0.025,-0.96,0.152,0,0.549,0.427,92.384
126432,134010,43087,0.025,-0.962,0.151,0,0.549,0.427,92.388
126432,133990,12954,0.022,-0.961,0.154,-0.061,0.671,0.549,92.394
126427,134010,43087,0.025,-0.957,0.153,-0.061,0.671,0.549,92.398
126427,133992,12945,0.025,-0.957,0.154,-0.061,0.61,0.549,92.404
126428,134010,43087,0.026,-0.961,0.151,-0.061,0.61,0.549,92.408
126428,133977,12953,0.025,-0.959,0.149,-0.244,0.488,0.366,92.414
126421,134010,43087,0.022,-0.962,0.15,-0.244,0.488,0.366,92.418
126421,133990,12957,0.022,-0.96,0.151,-0.244,0.305,0.488,92.424
126421,134010,43087,0.022,-0.957,0.154,-0.244,0.305,0.488,92.428
126421,134005,12948,0.024,-0.96,0.148,-0.366,0.366,0.488,92.434
126425,134010,43087,0.023,-0.96,0.151,-0.366,0.366,0.488,92.438
126425,133996,12949,0.024,-0.96,0.149,-0.305,0.183,0.366,92.444
126414,134010,43087,0.025,-0.962,0.147,-0.305,0.183,0.366,92.448
126414,133982,12962,0.024,-0.962,0.149,-0.061,0.061,0.305,92.454
126406,134010,43087,0.023,-0.962,0.151,-0.061,0.061,0.305,92.457
126406,133980,12947,0.022,-0.96,0.15,0.122,0.244,0.305,92.464
126397,134010,43087,0.023,-0.96,0.148,0.122,0.244,0.305,92.467
126397,133997,12954,0.023,-0.961,0.151,0.549,0.366,0.305,92.473
126387,134010,43087,0.023,-0.959,0.152,0.549,0.366,0.305,92.477
126387,133951,12955,0.023,-0.957,0.152,0.732,0.488,0.366,92.483
126392,134010,43087,0.023,-0.958,0.152,0.732,0.488,0.366,92.487
126392,133978,12955,0.023,-0.957,0.155,0.549,0.61,0.366,92.493
126396,134010,43087,0.023,-0.96,0.156,0.549,0.61,0.366,92.497
126396,133957,12949,0.024,-0.956,0.154,0.427,0.549,0.427,92.503
126368,134010,43087,0.024,-0.954,0.155,0.427,0.549,0.427,92.507
126368,133959,12947,0.024,-0.955,0.157,0.183,0.427,0.427,92.513
126392,134010,43087,0.023,-0.959,0.154,0.183,0.427,0.427,92.517
126392,133958,12960,0.022,-0.956,0.153,0,0.427,0.427,92.523
126379,134010,43087,0.022,-0.956,0.153,0,0.427,0.427,92.527
126379,133980,12934,0.026,-0.958,0.153,-0.061,0.305,0.549,92.533
126401,134010,43087,0.026,-0.958,0.153,-0.061,0.305,0.549,92.537
126401,133955,12948,0.024,-0.961,0.155,-0.244,0.305,0.61,92.543
126386,134010,43087,0.024,-0.961,0.155,-0.244,0.305,0.61,92.546
126386,133963,12957,0.025,-0.959,0.153,-0.427,0.305,0.549,92.553
126386,134010,43087,0.025,-0.959,0.153,-0.427,0.305,0.549,92.556
126386,133974,12945,0.023,-0.962,0.148,-0.366,0.366,0.61,92.563
126382,134010,43087,0.023,-0.962,0.148,-0.366,0.366,0.61,92.566
126382,133977,12941,0.022,-0.961,0.149,-0.122,0.549,0.61,92.572
126400,134010,43087,0.022,-0.961,0.149,-0.122,0.549,0.61,92.576
126400,133955,12939,0.021,-0.96,0.15,-0.061,0.61,0.61,92.582
126397,134010,43087,0.021,-0.96,0.15,-0.061,0.61,0.61,92.586
126397,133975,12945,0.023,-0.96,0.15,0.305,0.671,0.549,92.592
126406,134010,43087,0.023,-0.96,0.15,0.305,0.671,0.549,92.596
126406,133989,12948,0.021,-0.959,0.156,0.488,0.61,0.671,92.602
126392,134010,43087,0.021,-0.959,0.156,0.488,0.61,0.671,92.606
126392,133987,12942,0.021,-0.957,0.154,0.427,0.549,0.549,92.612
126412,134010,43087,0.021,-0.957,0.154,0.427,0.549,0.549,92.616
126412,133967,12936,0.02,-0.956,0.158,0.305,0.549,0.427,92.622
126412,134010,43087,0.02,-0.956,0.158,0.305,0.549,0.427,92.626
126412,133975,12943,0.022,-0.958,0.156,0.122,0.488,0.488,92.632
126421,134010,43087,0.022,-0.958,0.156,0.122,0.488,0.488,92.636
126421,133982,12963,0.021,-0.955,0.154,-0.061,0.427,0.427,92.642
126424,134010,43087,0.021,-0.955,0.154,-0.061,0.427,0.427,92.645
126424,133994,12953,0.019,-0.957,0.156,-0.427,0.305,0.244,92.652
126428,134010,43087,0.019,-0.957,0.156,-0.427,0.305,0.244,92.655
126428,133977,12948,0.025,-0.961,0.149,-0.549,0.305,0.061,92.662
126411,134010,43087,0.025,-0.961,0.149,-0.549,0.305,0.061,92.665
126411,133996,12954,0.024,-0.959,0.153,-0.549,0.305,0.061,92.671
126403,134010,43087,0.021,-0.96,0.154,-0.427,0.305,0,92.675
126403,133999,12954,0.022,-0.959,0.155,-0.427,0.305,0,92.681
126427,134010,43087,0.022,-0.956,0.15,-0.244,0.488,0.061,92.685
126427,133997,12947,0.026,-0.959,0.153,-0.244,0.488,0.061,92.691
126423,134010,43087,0.023,-0.957,0.156,-0.183,0.427,0.061,92.695
126423,134020,12943,0.022,-0.956,0.156,-0.183,0.427,0.061,92.701
126436,134010,43087,0.022,-0.957,0.154,-0.183,0.305,0.061,92.705
126436,134010,12944,0.023,-0.96,0.155,-0.183,0.305,0.061,92.711
126432,134010,43087,0.025,-0.959,0.155,-0.122,0.366,0.061,92.715
126432,134021,12955,0.021,-0.957,0.156,-0.122,0.366,0.061,92.721
126430,134010,43087,0.021,-0.955,0.153,-0.305,0.427,0.244,92.725
126430,134007,12941,0.022,-0.956,0.153,-0.305,0.427,0.244,92.731
126421,134010,43087,0.023,-0.956,0.154,-0.732,0.427,0.305,92.735
126421,134025,12949,0.024,-0.957,0.151,-0.732,0.427,0.305,92.741
126447,134010,43087,0.023,-0.958,0.155,-0.732,0.366,0.366,92.744
126447,134002,12936,0.021,-0.958,0.153,-0.732,0.366,0.366,92.751
126433,134010,43087,0.025,-0.956,0.149,-0.61,0.549,0.427,92.754
126433,134023,12957,0.022,-0.959,0.146,-0.61,0.549,0.427,92.76
126446,134010,43087,0.02,-0.957,0.152,-0.671,0.427,0.549,92.764
126446,134021,12948,0.023,-0.957,0.153,-0.671,0.427,0.549,92.77
126465,134010,43087,0.024,-0.959,0.154,-0.671,0.305,0.549,92.774
126465,134034,12952,0.021,-0.958,0.153,-0.671,0.305,0.549,92.78
126447,134010,43087,0.025,-0.96,0.152,-0.915,0.427,0.549,92.784
126447,134026,12952,0.025,-0.959,0.151,-0.915,0.427,0.549,92.79
126444,134010,43087,0.023,-0.96,0.149,-0.793,0.427,0.305,92.794
126444,134050,12937,0.021,-0.96,0.152,-0.793,0.427,0.305,92.8
126450,134010,43087,0.022,-0.962,0.15,-0.793,0.366,0.244,92.804
126450,134025,12944,0.022,-0.959,0.149,-0.793,0.366,0.244,92.81
126473,134010,43087,0.022,-0.962,0.151,-0.671,0.427,0.305,92.814
126473,134013,12950,0.023,-0.96,0.147,-0.671,0.427,0.305,92.82
126450,134010,43087,0.026,-0.957,0.15,-0.366,0.488,0.366,92.824
126450,134021,12942,0.023,-0.958,0.154,-0.366,0.488,0.366,92.83
126479,134010,43087,0.025,-0.958,0.151,-0.122,0.488,0.244,92.834
126479,134032,12939,0.024,-0.958,0.151,-0.122,0.488,0.244,92.84
126467,134010,43087,0.024,-0.957,0.156,-0.427,0.305,0.183,92.843
126467,133997,12967,0.026,-0.957,0.156,-0.427,0.305,0.183,92.85
126448,134010,43087,0.024,-0.958,0.155,-0.732,0.366,0.122,92.853
126448,134041,12956,0.025,-0.962,0.154,-0.732,0.366,0.122,92.859
126463,134010,43087,0.025,-0.959,0.152,-0.671,0.244,0.244,92.863
126463,134006,12951,0.025,-0.96,0.154,-0.671,0.244,0.244,92.869
126464,134010,43087,0.023,-0.96,0.152,-0.915,0.366,0.427,92.873
126464,134010,12954,0.024,-0.962,0.15,-0.915,0.366,0.427,92.879
126436,134010,43087,0.022,-0.96,0.145,-0.976,0.488,0.549,92.883
126436,134031,12961,0.023,-0.96,0.151,-0.976,0.488,0.549,92.889
126454,134010,43087,0.022,-0.959,0.15,-0.732,0.366,0.427,92.893
126454,134027,12944,0.023,-0.961,0.151,-0.732,0.366,0.427,92.899
126468,134010,43087,0.023,-0.959,0.152,-0.671,0.183,0.061,92.903
126468,134035,12950,0.023,-0.957,0.151,-0.671,0.183,0.061,92.909
126470,134010,43087,0.022,-0.957,0.15,-0.549,0.061,-0.122,92.913
126470,134025,12953,0.02,-0.959,0.149,-0.549,0.061,-0.122,92.919
126471,134010,43087,0.019,-0.961,0.145,-0.671,0.122,-0.122,92.923
126471,134045,12965,0.024,-0.963,0.148,-0.671,0.122,-0.122,92.929
126478,134010,43087,0.023,-0.963,0.149,-0.305,0.183,0,92.932
126478,134032,12963,0.025,-0.961,0.15,-0.305,0.183,0,92.939
126472,134010,43087,0.027,-0.96,0.151,0.305,0.122,-0.061,92.942
126472,134034,12965,0.024,-0.959,0.15,0.305,0.122,-0.061,92.949
126463,134010,43087,0.026,-0.961,0.152,0.732,0.244,-0.122,92.952
126463,134038,12949,0.026,-0.96,0.153,0.732,0.244,-0.122,92.958
126449,134010,43087,0.025,-0.959,0.151,0.854,0.366,0.183,92.962
126449,134029,12958,0.024,-0.959,0.154,0.854,0.366,0.183,92.968
126450,134010,43087,0.023,-0.957,0.153,0.61,0.488,0.427,92.972
126450,134019,12956,0.022,-0.959,0.15,0.61,0.488,0.427,92.978
126456,134010,43087,0.022,-0.962,0.154,0.549,0.671,0.549,92.982
126456,134025,12960,0.022,-0.962,0.151,0.549,0.671,0.549,92.988
126471,134010,43087,0.022,-0.958,0.151,0.488,0.61,0.793,92.992
126471,134023,12952,0.021,-0.96,0.151,0.488,0.61,0.793,92.998
126452,134010,43087,0.023,-0.959,0.155,0.488,0.671,0.854,93.002
126452,134029,12948,0.021,-0.955,0.153,0.488,0.671,0.854,93.008
126461,134010,43087,0.021,-0.956,0.153,0.427,0.671,0.793,93.012
126461,134020,12947,0.019,-0.955,0.156,0.427,0.671,0.793,93.018
126454,134010,43087,0.02,-0.957,0.154,0.427,0.427,0.793,93.022
126454,134011,12966,0.021,-0.956,0.154,0.427,0.427,0.793,93.028
126432,134010,43087,0.02,-0.958,0.153,0.061,0.427,0.488,93.031
126432,134025,12957,0.022,-0.958,0.154,0.061,0.427,0.488,93.038
126438,134010,43087,0.019,-0.96,0.155,-0.427,0.305,0.061,93.041
126438,134018,12964,0.021,-0.957,0.154,-0.427,0.305,0.061,93.048
126435,134010,43087,0.023,-0.957,0.151,-0.671,0.183,-0.244,93.051
126435,134011,12944,0.023,-0.956,0.152,-0.671,0.183,-0.244,93.057
126448,134010,43087,0.024,-0.958,0.151,-0.976,0.061,-0.427,93.061
126448,134007,12946,0.022,-0.961,0.151,-0.976,0.061,-0.427,93.067
126433,134010,43087,0.026,-0.96,0.153,-0.854,0.183,-0.366,93.071
126433,134013,12953,0.027,-0.958,0.153,-0.854,0.183,-0.366,93.077
126445,134010,43087,0.027,-0.961,0.154,-0.488,0.244,-0.244,93.081
126445,134015,12963,0.028,-0.961,0.153,-0.488,0.244,-0.244,93.087
126443,134010,43087,0.027,-0.958,0.151,-0.305,0.244,-0.061,93.091
126443,133996,12951,0.026,-0.96,0.152,-0.305,0.244,-0.061,93.097
126464,134010,43087,0.026,-0.96,0.152,-0.305,0.244,-0.061,93.101
126464,134039,12966,0.026,-0.956,0.153,-0.366,0.244,0.305,93.107
126454,134010,43087,0.026,-0.956,0.153,-0.366,0.244,0.305,93.111
126454,134010,12957,0.027,-0.957,0.154,-0.488,0.305,0.427,93.117
126436,134010,43087,0.027,-0.957,0.154,-0.488,0.305,0.427,93.121
126436,134038,12952,0.026,-0.958,0.154,-0.976,0.183,0.732,93.127
126437,134010,43087,0.026,-0.958,0.154,-0.976,0.183,0.732,93.13
126437,134006,12974,0.026,-0.961,0.151,-1.098,0.244,0.976,93.137
126445,134010,43087,0.026,-0.961,0.151,-1.098,0.244,0.976,93.14
126445,134023,12980,0.022,-0.958,0.151,-1.28,0.305,0.915,93.147
126437,134010,43087,0.022,-0.958,0.151,-1.28,0.305,0.915,93.15
126437,134021,12964,0.025,-0.963,0.151,-1.463,0.244,0.915,93.156
126450,134010,43087,0.025,-0.963,0.151,-1.463,0.244,0.915,93.16
126450,134020,12953,0.024,-0.965,0.142,-1.341,0.305,0.854,93.166
126433,134010,43087,0.024,-0.965,0.142,-1.341,0.305,0.854,93.17
126433,134019,12968,0.024,-0.964,0.142,-0.61,0.427,0.793,93.176
126446,134010,43087,0.024,-0.964,0.142,-0.61,0.427,0.793,93.18
126446,134012,12953,0.024,-0.96,0.145,0.305,0.671,0.854,93.186
126433,134010,43087,0.024,-0.96,0.145,0.305,0.671,0.854,93.19
126433,134016,12971,0.022,-0.961,0.148,1.22,0.793,0.976,93.196
126458,134010,43087,0.022,-0.961,0.148,1.22,0.793,0.976,93.2
126458,134025,12950,0.022,-0.958,0.149,1.646,0.854,0.915,93.206
126449,134010,43087,0.022,-0.958,0.149,1.646,0.854,0.915,93.21
126449,134025,12957,0.022,-0.956,0.158,1.585,0.854,0.915,93.216
126450,134010,43087,0.022,-0.956,0.158,1.585,0.854,0.915,93.22
126450,134009,12957,0.022,-0.958,0.155,0.793,0.732,0.854,93.226
126447,134010,43087,0.022,-0.958,0.155,0.793,0.732,0.854,93.229
126447,134006,12968,0.024,-0.96,0.151,0.061,0.549,0.61,93.236
126462,134010,43087,0.024,-0.96,0.151,0.061,0.549,0.61,93.239
126462,134026,12966,0.022,-0.958,0.15,-0.305,0.61,0.671,93.245
126456,134010,43087,0.021,-0.957,0.15,-0.305,0.61,0.671,93.249
126456,134044,12955,0.023,-0.955,0.153,-0.366,0.549,0.671,93.255
126460,134010,43087,0.022,-0.956,0.155,-0.366,0.549,0.671,93.259
126460,134021,12959,0.021,-0.962,0.15,-0.366,0.427,0.732,93.265
126464,134010,43087,0.019,-0.963,0.15,-0.366,0.427,0.732,93.269
126464,134037,12965,0.019,-0.958,0.156,-0.061,0.61,0.854,93.275
126461,134010,43087,0.021,-0.959,0.152,-0.061,0.61,0.854,93.279
126461,134030,12963,0.017,-0.958,0.149,0.183,0.549,0.915,93.285
126466,134010,43087,0.018,-0.957,0.153,0.183,0.549,0.915,93.289
126466,134028,12966,0.019,-0.959,0.157,0.061,0.549,0.793,93.295
126467,134010,43087,0.02,-0.961,0.153,0.061,0.549,0.793,93.299
126467,134011,12969,0.021,-0.959,0.151,-0.244,0.488,0.671,93.305
126453,134010,43087,0.019,-0.962,0.152,-0.244,0.488,0.671,93.309
126453,134045,12970,0.02,-0.963,0.15,-0.122,0.549,0.305,93.315
126454,134010,43087,0.02,-0.96,0.152,-0.122,0.549,0.305,93.319
126454,134033,12961,0.019,-0.959,0.151,-0.061,0.549,0.244,93.325
126454,134010,43087,0.021,-0.963,0.152,-0.061,0.549,0.244,93.328
126454,134041,12945,0.02,-0.963,0.15,0.183,0.671,0.244,93.335
126444,134010,43087,0.023,-0.958,0.149,0.183,0.671,0.244,93.338
126444,134023,12973,0.023,-0.962,0.152,0.61,0.732,0.183,93.345
126480,134010,43087,0.022,-0.962,0.152,0.61,0.732,0.183,93.348
126480,134039,12959,0.022,-0.96,0.151,1.037,0.793,0.305,93.354
126425,134010,43087,0.023,-0.958,0.152,1.037,0.793,0.305,93.358
126425,134038,12965,0.024,-0.958,0.161,1.159,0.854,0.61,93.364
126467,134010,43087,0.021,-0.953,0.156,1.159,0.854,0.61,93.368
126467,134029,12954,0.02,-0.955,0.157,0.854,0.793,0.732,93.374
126464,134010,43087,0.021,-0.951,0.156,0.854,0.793,0.732,93.378
126464,134009,12965,0.022,-0.956,0.162,0.122,0.549,0.732,93.384
126445,134010,43087,0.022,-0.957,0.155,0.122,0.549,0.732,93.388
126445,134054,12958,0.019,-0.957,0.153,-1.098,0.427,0.671,93.394
126432,134010,43087,0.021,-0.959,0.156,-1.098,0.427,0.671,93.398
126432,134035,12942,0.02,-0.958,0.155,-1.707,0.244,0.671,93.404
126478,134010,43087,0.022,-0.959,0.151,-1.707,0.244,0.671,93.408
126478,134026,12963,0.021,-0.964,0.15,-1.829,0.061,0.549,93.414
126466,134010,43087,0.02,-0.963,0.151,-1.829,0.061,0.549,93.418
126466,134047,12941,0.022,-0.958,0.149,-1.646,0.061,0.427,93.424
126468,134010,43087,0.024,-0.962,0.144,-1.646,0.061,0.427,93.427
126468,134043,12953,0.023,-0.962,0.149,-0.915,0.183,0.183,93.434
126452,134010,43087,0.024,-0.963,0.146,-0.915,0.183,0.183,93.437
126452,134052,12946,0.027,-0.963,0.146,0.061,0.305,0,93.443
126461,134010,43087,0.022,-0.962,0.152,0.061,0.305,0,93.447
126461,134074,12955,0.021,-0.961,0.152,0.732,0.244,-0.183,93.453
126451,134010,43087,0.022,-0.96,0.151,0.732,0.244,-0.183,93.457
126451,134060,12954,0.026,-0.96,0.15,1.037,0.244,-0.183,93.463
126453,134010,43087,0.025,-0.957,0.152,1.037,0.244,-0.183,93.467
126453,134050,12961,0.026,-0.959,0.154,1.037,0.427,-0.122,93.473
126456,134010,43087,0.024,-0.959,0.154,1.037,0.427,-0.122,93.477
126456,134037,12954,0.023,-0.96,0.157,1.098,0.427,0,93.483
126458,134010,43087,0.024,-0.96,0.153,1.098,0.427,0,93.487
126458,134046,12967,0.024,-0.959,0.155,1.22,0.488,0.305,93.493
126450,134010,43087,0.024,-0.96,0.154,1.22,0.488,0.305,93.497
126450,134049,12952,0.025,-0.963,0.154,1.159,0.671,0.732,93.503
126486,134010,43087,0.022,-0.96,0.151,1.159,0.671,0.732,93.507
126486,134078,12962,0.022,-0.96,0.148,1.159,0.854,1.037,93.513
126478,134010,43087,0.023,-0.962,0.154,1.159,0.854,1.037,93.516
126478,134081,12960,0.022,-0.959,0.159,1.402,0.915,1.28,93.523
126489,134010,43087,0.019,-0.953,0.158,1.402,0.915,1.28,93.526
126489,134082,12960,0.017,-0.954,0.157,0.915,0.976,1.463,93.533
126522,134010,43087,0.015,-0.959,0.155,0.915,0.976,1.463,93.536
126522,134076,12967,0.019,-0.958,0.152,0.183,0.793,1.28,93.542
126507,134010,43087,0.021,-0.961,0.156,0.183,0.793,1.28,93.546
126507,134082,12973,0.017,-0.959,0.152,-0.366,0.549,0.915,93.552
126542,134010,43087,0.015,-0.959,0.151,-0.366,0.549,0.915,93.556
126542,134103,12960,0.017,-0.958,0.151,-0.488,0.61,0.732,93.562
126522,134010,43087,0.017,-0.958,0.152,-0.488,0.61,0.732,93.566
126522,134110,12975,0.02,-0.957,0.156,-0.183,0.488,0.61,93.572
126526,134010,43087,0.019,-0.956,0.152,-0.183,0.488,0.61,93.576
126526,134082,12963,0.02,-0.958,0.155,0,0.488,0.427,93.582
126537,134010,43087,0.023,-0.956,0.156,0,0.488,0.427,93.586
126537,134046,12979,0.02,-0.96,0.152,-0.122,0.244,0.183,93.592
126548,134010,43087,0.019,-0.957,0.153,-0.122,0.244,0.183,93.596
126548,134081,12970,0.021,-0.955,0.158,-0.366,0.122,0,93.602
126517,134010,43087,0.024,-0.957,0.158,-0.366,0.122,0,93.606
126517,134090,12962,0.022,-0.959,0.153,-0.671,0.122,-0.183,93.612
126525,134010,43087,0.024,-0.962,0.151,-0.671,0.122,-0.183,93.615
126525,134072,12959,0.025,-0.963,0.154,-0.854,0.183,-0.183,93.622
126512,134010,43087,0.021,-0.963,0.152,-0.854,0.183,-0.183,93.625
126512,134063,12982,0.021,-0.965,0.148,-0.549,0.305,0.061,93.632
126534,134010,43087,0.022,-0.963,0.145,-0.549,0.305,0.061,93.635
126534,134095,12959,0.024,-0.964,0.145,0.122,0.549,0.244,93.641
126508,134010,43087,0.024,-0.968,0.148,0.122,0.549,0.244,93.645
126508,134062,12956,0.023,-0.966,0.152,1.402,0.732,0.305,93.651
126517,134010,43087,0.024,-0.961,0.152,1.402,0.732,0.305,93.655
126517,134063,12983,0.021,-0.959,0.153,2.5,0.915,0.488,93.661
126508,134010,43087,0.021,-0.957,0.157,2.5,0.915,0.488,93.665
126508,134067,12960,0.018,-0.956,0.156,2.805,0.854,0.549,93.671
126486,134010,43087,0.016,-0.957,0.159,2.805,0.854,0.549,93.675
126486,134073,12966,0.017,-0.958,0.16,2.317,0.732,0.488,93.681
126493,134010,43087,0.017,-0.958,0.16,2.317,0.732,0.488,93.685
126493,134064,12975,0.018,-0.959,0.156,1.768,0.61,0.183,93.691
126501,134010,43087,0.018,-0.959,0.156,1.768,0.61,0.183,93.695
126501,134065,12964,0.017,-0.958,0.159,1.585,0.488,-0.061,93.701
126474,134010,43087,0.017,-0.958,0.159,1.585,0.488,-0.061,93.705
126474,134057,12980,0.018,-0.956,0.158,1.463,0.305,0,93.711
126479,134010,43087,0.018,-0.956,0.158,1.463,0.305,0,93.714
126479,134062,12969,0.018,-0.958,0.162,1.341,0.244,0,93.721
126507,134010,43087,0.018,-0.958,0.162,1.341,0.244,0,93.724
126507,134047,12969,0.018,-0.954,0.161,0.854,0.183,-0.122,93.731
126489,134010,43087,0.018,-0.954,0.161,0.854,0.183,-0.122,93.734
126489,134041,12976,0.02,-0.957,0.161,0.366,0.061,-0.305,93.74
126499,134010,43087,0.02,-0.957,0.161,0.366,0.061,-0.305,93.744
126499,134067,12967,0.019,-0.958,0.162,-0.244,-0.183,-0.366,93.75
126507,134010,43087,0.019,-0.958,0.162,-0.244,-0.183,-0.366,93.754
126507,134062,12964,0.019,-0.964,0.157,-0.854,0,-0.549,93.76
126522,134010,43087,0.019,-0.964,0.157,-0.854,0,-0.549,93.764
126522,134097,12977,0.018,-0.962,0.154,-0.732,0,-0.671,93.77
126533,134010,43087,0.018,-0.962,0.154,-0.732,0,-0.671,93.774
126533,134068,12970,0.024,-0.962,0.151,-0.366,0,-0.976,93.78
126559,134010,43087,0.024,-0.962,0.151,-0.366,0,-0.976,93.784
126559,134108,12967,0.023,-0.96,0.156,0.244,0.366,-0.976,93.79
126546,134010,43087,0.023,-0.96,0.156,0.244,0.366,-0.976,93.794
126546,134101,12974,0.023,-0.96,0.162,0.793,0.366,-0.793,93.8
126552,134010,43087,0.023,-0.96,0.162,0.793,0.366,-0.793,93.804
126552,134099,12962,0.022,-0.959,0.155,0.793,0.488,-0.793,93.81
126544,134010,43087,0.022,-0.959,0.155,0.793,0.488,-0.793,93.813
126544,134098,12991,0.023,-0.955,0.156,0.793,0.488,-0.793,93.82
126539,134010,43087,0.025,-0.954,0.158,0.671,0.488,-0.915,93.823
126539,134120,12977,0.026,-0.956,0.161,0.671,0.488,-0.915,93.83
126557,134010,43087,0.024,-0.955,0.161,0.671,0.427,-0.854,93.833
126557,134112,12982,0.023,-0.954,0.161,0.671,0.427,-0.854,93.839
126560,134010,43087,0.025,-0.95,0.162,0.366,0.366,-0.61,93.843
126560,134094,12989,0.026,-0.951,0.161,0.366,0.366,-0.61,93.849
126539,134010,43087,0.026,-0.956,0.156,-0.244,0.183,-0.671,93.853
126539,134104,12970,0.024,-0.955,0.159,-0.244,0.183,-0.671,93.859
126547,134010,43087,0.025,-0.955,0.164,-0.61,0.061,-0.671,93.863
126547,134122,12978,0.026,-0.954,0.16,-0.61,0.061,-0.671,93.869
126528,134010,43087,0.028,-0.954,0.161,-1.159,0,-0.427,93.873
126528,134107,12977,0.029,-0.956,0.158,-1.159,0,-0.427,93.879
126536,134010,43087,0.031,-0.954,0.153,-1.341,-0.061,-0.366,93.883
126536,134099,12983,0.033,-0.964,0.156,-1.341,-0.061,-0.366,93.889
126554,134010,43087,0.023,-0.964,0.166,0.122,0.244,-0.549,93.893
126554,134094,12972,0.019,-0.954,0.165,0.122,0.244,-0.549,93.899
126537,134010,43087,0.024,-0.952,0.155,-0.488,0.122,0.732,93.903
126537,134082,12973,0.029,-0.959,0.154,-0.488,0.122,0.732,93.909
126542,134010,43087,0.03,-0.964,0.156,-2.012,-0.122,-0.61,93.912
126542,134093,12986,0.029,-0.972,0.146,-2.012,-0.122,-0.61,93.919
126547,134010,43087,0.024,-0.969,0.147,-1.951,0,-0.305,93.922
126547,134097,12989,0.03,-0.961,0.145,-1.951,0,-0.305,93.928
126548,134010,43087,0.031,-0.956,0.15,-0.549,0.305,-0.427,93.932
126548,134115,12969,0.028,-0.96,0.154,-0.549,0.305,-0.427,93.938
126549,134010,43087,0.024,-0.96,0.157,0.366,0.305,-0.183,93.942
126549,134095,12985,0.025,-0.96,0.152,0.366,0.305,-0.183,93.948
126544,134010,43087,0.027,-0.957,0.151,0.122,0.427,0.061,93.952
126544,134087,12972,0.028,-0.953,0.154,0.122,0.427,0.061,93.958
126532,134010,43087,0.026,-0.952,0.155,0.305,0.549,0,93.962
126532,134090,12988,0.029,-0.958,0.153,0.305,0.549,0,93.968
126568,134010,43087,0.025,-0.969,0.161,1.22,0.61,0.488,93.972
126568,134097,12988,0.02,-0.965,0.166,1.22,0.61,0.488,93.978
126556,134010,43087,0.021,-0.952,0.162,1.89,0.732,1.098,93.982
126556,134061,12997,0.027,-0.95,0.161,1.89,0.732,1.098,93.988
126559,134010,43087,0.03,-0.956,0.162,0.976,0.427,0.427,93.992
126559,134110,12993,0.027,-0.961,0.156,0.976,0.427,0.427,93.998
126565,134010,43087,0.025,-0.967,0.156,0.366,0.366,0.427,94.002
126565,134095,12989,0.021,-0.96,0.161,0.366,0.366,0.427,94.008
126584,134010,43087,0.022,-0.951,0.158,0.976,0.488,0.732,94.011
126584,134097,12986,0.023,-0.952,0.162,0.976,0.488,0.732,94.018
126578,134010,43087,0.023,-0.952,0.163,0.671,0.366,0.427,94.021
126578,134103,12982,0.021,-0.957,0.16,0.671,0.366,0.427,94.027
126556,134010,43087,0.021,-0.96,0.153,-0.732,0.244,0.183,94.031
126556,134108,12972,0.023,-0.965,0.154,-0.732,0.244,0.183,94.037
126566,134010,43087,0.022,-0.964,0.152,-1.341,0,-0.305,94.041
126566,134090,12991,0.024,-0.964,0.151,-1.341,0,-0.305,94.047
126555,134010,43087,0.026,-0.964,0.15,-0.183,0.244,-0.061,94.051
126555,134100,12994,0.025,-0.96,0.154,-0.183,0.244,-0.061,94.057
126567,134010,43087,0.025,-0.96,0.157,1.28,0.549,0.244,94.061
126567,134079,12971,0.025,-0.954,0.161,1.28,0.549,0.244,94.067
126569,134010,43087,0.02,-0.955,0.158,1.524,0.61,0.183,94.071
126569,134108,12984,0.021,-0.956,0.158,1.524,0.61,0.183,94.077
126558,134010,43087,0.023,-0.956,0.159,0.915,0.549,-0.061,94.081
126558,134090,12972,0.024,-0.961,0.159,0.915,0.549,-0.061,94.087
126558,134010,43087,0.027,-0.959,0.158,0.549,0.366,-0.427,94.091
126558,134095,12972,0.026,-0.957,0.159,0.549,0.366,-0.427,94.097
126583,134010,43087,0.024,-0.958,0.16,0.732,0.427,-0.122,94.101
126583,134091,12976,0.024,-0.959,0.154,0.732,0.427,-0.122,94.107
126570,134010,43087,0.027,-0.957,0.156,0.793,0.427,-0.061,94.11
126570,134101,12981,0.027,-0.959,0.156,0.793,0.427,-0.061,94.117
126560,134010,43087,0.027,-0.959,0.158,0.671,0.427,-0.244,94.12
126560,134060,12983,0.029,-0.958,0.161,0.671,0.427,-0.244,94.126
126572,134010,43087,0.027,-0.956,0.161,0.976,0.488,0,94.13
126572,134082,12978,0.026,-0.959,0.159,0.976,0.488,0,94.136
126562,134010,43087,0.026,-0.96,0.163,1.098,0.671,0.366,94.14
126562,134087,12975,0.026,-0.958,0.164,1.098,0.671,0.366,94.146
126547,134010,43087,0.025,-0.957,0.163,0.732,0.549,0.366,94.15
126547,134089,12991,0.025,-0.955,0.16,0.732,0.549,0.366,94.156
126582,134010,43087,0.028,-0.953,0.16,0,0.61,0.305,94.16
126582,134076,12984,0.025,-0.955,0.16,0,0.61,0.305,94.166
126541,134010,43087,0.026,-0.958,0.162,-0.122,0.671,0.244,94.17
126541,134081,12976,0.028,-0.958,0.159,-0.122,0.671,0.244,94.176
126563,134010,43087,0.025,-0.957,0.157,0.183,0.671,0.549,94.18
126563,134081,12977,0.022,-0.959,0.159,0.183,0.671,0.549,94.186
126551,134010,43087,0.027,-0.957,0.16,0.732,0.854,0.793,94.19
126551,134090,12985,0.026,-0.955,0.165,0.732,0.854,0.793,94.196
126535,134010,43087,0.028,-0.956,0.162,0.976,0.915,0.915,94.2
126535,134078,12974,0.026,-0.959,0.162,0.976,0.915,0.915,94.206
126539,134010,43087,0.027,-0.958,0.161,0.854,0.976,0.854,94.209
126539,134073,12985,0.025,-0.956,0.165,0.854,0.976,0.854,94.216
126547,134010,43087,0.026,-0.957,0.162,0.305,0.854,0.732,94.219
126547,134076,12965,0.025,-0.956,0.16,0.305,0.854,0.732,94.225
126558,134010,43087,0.026,-0.957,0.162,-0.183,0.732,0.61,94.229
126558,134085,12974,0.025,-0.956,0.161,-0.183,0.732,0.61,94.235
126558,134010,43087,0.024,-0.958,0.162,-0.854,0.488,0.549,94.239
126558,134108,12995,0.024,-0.957,0.158,-0.854,0.488,0.549,94.245
126565,134010,43087,0.024,-0.958,0.157,-1.341,0.488,0.366,94.249
126565,134115,12970,0.026,-0.957,0.159,-1.341,0.488,0.366,94.255
126571,134010,43087,0.026,-0.957,0.159,-1.341,0.488,0.366,94.259
126571,134084,12979,0.024,-0.957,0.153,-1.341,0.549,0.366,94.265
126576,134010,43087,0.024,-0.957,0.153,-1.341,0.549,0.366,94.269
126576,134092,12977,0.024,-0.959,0.156,-0.793,0.549,0.427,94.275
126591,134010,43087,0.024,-0.959,0.156,-0.793,0.549,0.427,94.279
126591,134119,12980,0.024,-0.953,0.156,-0.244,0.61,0.549,94.285
126600,134010,43087,0.024,-0.953,0.156,-0.244,0.61,0.549,94.289
126600,134115,12978,0.025,-0.958,0.162,0.122,0.671,0.671,94.295
126591,134010,43087,0.025,-0.958,0.162,0.122,0.671,0.671,94.298
126591,134095,12981,0.026,-0.959,0.16,0.061,0.671,0.549,94.305
126599,134010,43087,0.026,-0.959,0.16,0.061,0.671,0.549,94.308
126599,134101,12985,0.025,-0.959,0.157,-0.122,0.61,0.366,94.315
126578,134010,43087,0.025,-0.959,0.157,-0.122,0.61,0.366,94.318
126578,134115,12989,0.023,-0.962,0.158,-0.244,0.61,0.427,94.324
126584,134010,43087,0.023,-0.962,0.158,-0.244,0.61,0.427,94.328
126584,134109,12983,0.026,-0.957,0.16,-0.061,0.488,0.549,94.334
126612,134010,43087,0.026,-0.957,0.16,-0.061,0.488,0.549,94.338
126612,134118,12997,0.023,-0.955,0.159,0,0.305,0.488,94.344
126607,134010,43087,0.023,-0.955,0.159,0,0.305,0.488,94.348
126607,134102,12992,0.025,-0.956,0.157,-0.549,0.122,0.244,94.354
126603,134010,43087,0.025,-0.956,0.157,-0.549,0.122,0.244,94.358
126603,134089,12993,0.027,-0.959,0.159,-0.915,0,0.183,94.364
126591,134010,43087,0.027,-0.959,0.159,-0.915,0,0.183,94.368
126591,134116,12990,0.03,-0.954,0.159,-0.976,-0.061,0.061,94.374
126598,134010,43087,0.03,-0.954,0.159,-0.976,-0.061,0.061,94.378
126598,134112,12978,0.028,-0.958,0.155,-0.732,-0.061,0.305,94.384
126601,134010,43087,0.028,-0.958,0.155,-0.732,-0.061,0.305,94.388
126601,134103,12990,0.025,-0.96,0.156,-0.732,-0.061,0.427,94.394
126594,134010,43087,0.025,-0.96,0.156,-0.732,-0.061,0.427,94.397
126594,134093,12990,0.027,-0.958,0.155,-0.488,0.061,0.427,94.404
126620,134010,43087,0.029,-0.959,0.158,-0.488,0.061,0.427,94.407
126620,134105,12980,0.028,-0.958,0.16,-0.183,0.061,0.366,94.414
126592,134010,43087,0.029,-0.958,0.161,-0.183,0.061,0.366,94.417
126592,134108,12980,0.026,-0.96,0.16,-0.122,0.061,0.305,94.423
126594,134010,43087,0.026,-0.959,0.155,-0.122,0.061,0.305,94.427
126594,134071,13001,0.025,-0.962,0.155,-0.244,0.061,0.488,94.433
126596,134010,43087,0.028,-0.962,0.156,-0.244,0.061,0.488,94.437
126596,134085,12984,0.027,-0.963,0.152,-0.061,0.244,0.61,94.443
126593,134010,43087,0.026,-0.96,0.157,-0.061,0.244,0.61,94.447
126593,134113,12972,0.029,-0.96,0.158,0.549,0.366,0.732,94.453
126585,134010,43087,0.03,-0.961,0.157,0.549,0.366,0.732,94.457
126585,134108,12978,0.03,-0.96,0.155,0.976,0.61,0.793,94.463
126598,134010,43087,0.028,-0.957,0.154,0.976,0.61,0.793,94.467
126598,134082,12982,0.027,-0.959,0.158,1.341,0.854,0.915,94.473
