125808,134051,12505,-0.052,-0.944,0.22,-1.159,0.305,0.122,226.34
125811,134010,43087,-0.051,-0.948,0.218,-1.159,0.305,0.122,226.344
125811,134043,12503,-0.051,-0.949,0.218,-1.22,0,-0.244,226.35
125797,134010,43087,-0.046,-0.948,0.214,-1.22,0,-0.244,226.354
125797,134029,12510,-0.05,-0.949,0.212,-1.28,0,-0.305,226.36
125822,134010,43087,-0.048,-0.946,0.216,-1.28,0,-0.305,226.364
125822,134054,12513,-0.045,-0.95,0.218,-0.732,0,-0.183,226.37
125820,134010,43087,-0.05,-0.948,0.219,-0.732,0,-0.183,226.374
125820,134045,12511,-0.05,-0.947,0.218,-0.488,0.061,-0.122,226.38
125825,134010,43087,-0.05,-0.95,0.222,-0.488,0.061,-0.122,226.384
125825,134058,12515,-0.05,-0.946,0.224,-0.793,0,0,226.39
125839,134010,43087,-0.05,-0.943,0.22,-0.793,0,0,226.393
125839,134034,12489,-0.048,-0.943,0.219,-1.524,-0.061,-0.183,226.4
125806,134010,43087,-0.048,-0.945,0.22,-1.524,-0.061,-0.183,226.403
125806,134059,12512,-0.048,-0.951,0.216,-2.012,0,-0.183,226.41
125826,134010,43087,-0.047,-0.955,0.213,-2.012,0,-0.183,226.413
125826,134074,12508,-0.049,-0.953,0.212,-2.073,0.061,0.061,226.419
125813,134010,43087,-0.048,-0.95,0.211,-2.073,0.061,0.061,226.423
125813,134065,12502,-0.048,-0.95,0.213,-1.89,0.183,0.305,226.429
125809,134010,43087,-0.051,-0.95,0.215,-1.89,0.183,0.305,226.433
125809,134061,12499,-0.051,-0.949,0.215,-1.524,0.244,0.427,226.439
125812,134010,43087,-0.049,-0.951,0.216,-1.524,0.244,0.427,226.443
125812,134076,12516,-0.05,-0.949,0.215,-1.22,0.366,0.549,226.449
125818,134010,43087,-0.052,-0.951,0.214,-1.22,0.366,0.549,226.453
125818,134065,12507,-0.051,-0.948,0.213,-1.22,0.488,0.793,226.459
125809,134010,43087,-0.052,-0.944,0.215,-1.22,0.488,0.793,226.463
125809,134075,12512,-0.05,-0.948,0.215,-1.098,0.488,0.793,226.469
125832,134010,43087,-0.049,-0.95,0.214,-1.098,0.488,0.793,226.473
125832,134094,12516,-0.049,-0.953,0.213,-1.159,0.488,0.732,226.479
125854,134010,43087,-0.052,-0.951,0.212,-1.159,0.488,0.732,226.483
125854,134080,12506,-0.052,-0.947,0.216,-1.463,0.488,0.915,226.489
125800,134010,43087,-0.05,-0.945,0.216,-1.463,0.488,0.915,226.492
125800,134067,12508,-0.048,-0.944,0.214,-1.829,0.366,0.793,226.499
125813,134010,43087,-0.051,-0.951,0.211,-1.829,0.366,0.793,226.502
125813,134094,12509,-0.05,-0.952,0.211,-1.829,0.427,0.671,226.509
125824,134010,43087,-0.051,-0.951,0.214,-1.829,0.427,0.671,226.512
125824,134084,12518,-0.05,-0.954,0.212,-1.524,0.427,0.732,226.518
125815,134010,43087,-0.053,-0.956,0.213,-1.524,0.427,0.732,226.522
125815,134093,12513,-0.052,-0.951,0.213,-1.28,0.488,0.793,226.528
125830,134010,43087,-0.052,-0.948,0.212,-1.28,0.488,0.793,226.532
125830,134077,12496,-0.051,-0.947,0.212,-1.159,0.61,0.854,226.538
125827,134010,43087,-0.051,-0.949,0.211,-1.159,0.61,0.854,226.542
125827,134079,12530,-0.054,-0.95,0.213,-1.037,0.549,0.793,226.548
125828,134010,43087,-0.054,-0.95,0.213,-1.037,0.549,0.793,226.552
125828,134104,12520,-0.053,-0.948,0.213,-1.037,0.61,0.671,226.558
125832,134010,43087,-0.053,-0.948,0.213,-1.037,0.61,0.671,226.562
125832,134081,12513,-0.051,-0.946,0.214,-1.098,0.549,0.61,226.568
125840,134010,43087,-0.051,-0.946,0.214,-1.098,0.549,0.61,226.572
125840,134094,12524,-0.05,-0.953,0.21,-1.22,0.366,0.366,226.578
125836,134010,43087,-0.05,-0.953,0.21,-1.22,0.366,0.366,226.582
125836,134088,12523,-0.049,-0.949,0.211,-1.159,0.366,0.244,226.588
125849,134010,43087,-0.049,-0.949,0.211,-1.159,0.366,0.244,226.591
125849,134088,12521,-0.051,-0.953,0.213,-1.098,0.488,0.305,226.598
125836,134010,43087,-0.051,-0.953,0.213,-1.098,0.488,0.305,226.601
125836,134104,12511,-0.052,-0.956,0.207,-0.854,0.427,0.183,226.607
125839,134010,43087,-0.052,-0.956,0.207,-0.854,0.427,0.183,226.611
125839,134089,12522,-0.051,-0.954,0.208,-0.366,0.61,0.427,226.617
125834,134010,43087,-0.051,-0.954,0.208,-0.366,0.61,0.427,226.621
125834,134095,12511,-0.055,-0.951,0.21,0.183,0.61,0.793,226.627
125841,134010,43087,-0.055,-0.951,0.21,0.183,0.61,0.793,226.631
125841,134085,12515,-0.052,-0.953,0.213,0.976,0.671,1.098,226.637
125842,134010,43087,-0.052,-0.953,0.213,0.976,0.671,1.098,226.641
125842,134097,12508,-0.055,-0.944,0.214,1.037,0.671,1.22,226.647
125829,134010,43087,-0.055,-0.944,0.214,1.037,0.671,1.22,226.651
125829,134073,12516,-0.057,-0.946,0.215,0.305,0.366,0.915,226.657
125817,134010,43087,-0.057,-0.946,0.215,0.305,0.366,0.915,226.661
125817,134068,12505,-0.057,-0.949,0.215,-0.671,0.061,0.366,226.667
125827,134010,43087,-0.057,-0.949,0.215,-0.671,0.061,0.366,226.671
125827,134078,12498,-0.054,-0.95,0.217,-1.463,0,-0.366,226.677
125846,134010,43087,-0.054,-0.95,0.217,-1.463,0,-0.366,226.681
125846,134067,12505,-0.054,-0.948,0.216,-1.463,0,-0.366,226.687
125815,134010,43087,-0.055,-0.947,0.213,-1.768,-0.122,-0.671,226.69
125815,134069,12505,-0.055,-0.946,0.214,-1.768,-0.122,-0.671,226.697
125811,134010,43087,-0.055,-0.949,0.212,-1.768,-0.305,-0.915,226.7
125811,134081,12497,-0.052,-0.949,0.208,-1.768,-0.305,-0.915,226.706
125792,134010,43087,-0.051,-0.944,0.209,-1.22,-0.427,-1.402,226.71
125792,134075,12510,-0.05,-0.949,0.211,-1.22,-0.427,-1.402,226.716
125790,134010,43087,-0.052,-0.953,0.214,-0.976,-0.488,-1.707,226.72
125790,134069,12504,-0.051,-0.948,0.21,-0.976,-0.488,-1.707,226.726
125786,134010,43087,-0.05,-0.948,0.21,-1.159,-0.61,-1.646,226.73
125786,134063,12511,-0.047,-0.953,0.211,-1.159,-0.61,-1.646,226.736
125781,134010,43087,-0.048,-0.953,0.208,-1.463,-0.549,-1.463,226.74
125781,134050,12492,-0.046,-0.953,0.208,-1.463,-0.549,-1.463,226.746
125783,134010,43087,-0.046,-0.954,0.21,-1.28,-0.366,-1.098,226.75
125783,134038,12517,-0.042,-0.953,0.208,-1.28,-0.366,-1.098,226.756
125800,134010,43087,-0.039,-0.95,0.21,-0.793,-0.122,-0.61,226.76
125800,134084,12504,-0.04,-0.95,0.207,-0.793,-0.122,-0.61,226.766
125782,134010,43087,-0.041,-0.955,0.209,-0.488,0.183,0.061,226.77
125782,134060,12505,-0.04,-0.957,0.206,-0.488,0.183,0.061,226.776
125769,134010,43087,-0.044,-0.955,0.209,0.122,0.549,0.793,226.779
125769,134041,12489,-0.043,-0.956,0.208,0.122,0.549,0.793,226.786
125764,134010,43087,-0.045,-0.953,0.208,0.854,0.854,1.463,226.789
125764,134031,12504,-0.047,-0.95,0.21,0.854,0.854,1.463,226.796
125752,134010,43087,-0.05,-0.953,0.209,1.463,1.037,2.073,226.799
125752,134040,12497,-0.05,-0.953,0.211,1.463,1.037,2.073,226.805
125734,134010,43087,-0.05,-0.953,0.209,1.768,1.28,2.317,226.809
125734,134056,12495,-0.052,-0.95,0.212,1.768,1.28,2.317,226.815
125732,134010,43087,-0.052,-0.945,0.211,1.768,1.341,2.378,226.819
125732,134031,12502,-0.052,-0.942,0.214,1.768,1.341,2.378,226.825
125712,134010,43087,-0.054,-0.944,0.213,1.341,1.22,2.195,226.829
125712,134029,12482,-0.057,-0.945,0.216,1.341,1.22,2.195,226.835
125728,134010,43087,-0.057,-0.943,0.216,0.549,0.915,1.707,226.839
125728,134029,12489,-0.056,-0.945,0.21,0.549,0.915,1.707,226.845
125718,134010,43087,-0.056,-0.948,0.21,-0.122,0.671,1.159,226.849
125718,134008,12497,-0.055,-0.949,0.215,-0.122,0.671,1.159,226.855
125692,134010,43087,-0.056,-0.946,0.213,-0.793,0.488,0.549,226.859
125692,134007,12502,-0.057,-0.941,0.212,-0.793,0.488,0.549,226.865
125676,134010,43087,-0.057,-0.942,0.211,-1.463,0.244,0.061,226.869
125676,134026,12503,-0.052,-0.947,0.214,-1.463,0.244,0.061,226.875
125698,134010,43087,-0.049,-0.949,0.214,-1.829,0,-0.427,226.879
125698,133988,12482,-0.051,-0.954,0.209,-1.829,0,-0.427,226.885
125673,134010,43087,-0.049,-0.954,0.211,-2.012,0,-0.366,226.888
125673,134005,12494,-0.045,-0.952,0.21,-2.012,0,-0.366,226.895
125696,134010,43087,-0.049,-0.952,0.21,-1.768,0.122,-0.183,226.898
125696,134012,12483,-0.049,-0.952,0.212,-1.768,0.122,-0.183,226.904
125692,134010,43087,-0.052,-0.953,0.206,-1.341,0.244,0,226.908
125692,134012,12489,-0.047,-0.953,0.208,-1.341,0.244,0,226.914
125698,134010,43087,-0.046,-0.953,0.209,-0.915,0.427,0.549,226.918
125698,133994,12501,-0.049,-0.952,0.209,-0.915,0.427,0.549,226.924
125701,134010,43087,-0.051,-0.95,0.211,-0.488,0.427,0.915,226.928
125701,134001,12506,-0.052,-0.949,0.21,-0.488,0.427,0.915,226.934
125692,134010,43087,-0.053,-0.951,0.213,-0.549,0.305,0.915,226.938
125692,134006,12510,-0.052,-0.95,0.207,-0.549,0.305,0.915,226.944
125680,134010,43087,-0.052,-0.947,0.212,-0.732,0.305,0.61,226.948
125680,134005,12492,-0.053,-0.951,0.214,-0.732,0.305,0.61,226.954
125705,134010,43087,-0.058,-0.947,0.214,-1.037,0.122,0.183,226.958
125705,134002,12496,-0.055,-0.945,0.212,-1.037,0.122,0.183,226.964
125693,134010,43087,-0.053,-0.944,0.212,-1.402,0,-0.122,226.968
125693,134001,12497,-0.053,-0.946,0.215,-1.402,0,-0.122,226.974
125681,134010,43087,-0.052,-0.947,0.214,-1.707,-0.122,-0.366,226.977
125681,134013,12508,-0.049,-0.948,0.212,-1.707,-0.122,-0.366,226.984
125677,134010,43087,-0.047,-0.948,0.212,-1.89,-0.183,-0.366,226.987
125677,133990,12500,-0.05,-0.948,0.209,-1.89,-0.183,-0.366,226.994
125652,134010,43087,-0.047,-0.947,0.21,-1.951,-0.061,0,226.997
125652,133951,12473,-0.042,-0.951,0.21,-1.951,-0.061,0,227.003
125632,134010,43087,-0.047,-0.954,0.208,-1.768,0.061,0.427,227.007
125632,133946,12475,-0.05,-0.954,0.205,-1.768,0.061,0.427,227.013
125621,134010,43087,-0.046,-0.951,0.206,-1.524,0.366,0.793,227.017
125621,133951,12471,-0.044,-0.955,0.21,-1.524,0.366,0.793,227.023
125616,134010,43087,-0.048,-0.955,0.213,-1.28,0.61,1.159,227.027
125616,133928,12470,-0.047,-0.954,0.206,-1.28,0.61,1.159,227.033
125602,134010,43087,-0.049,-0.954,0.208,-1.463,0.793,1.463,227.037
125602,133913,12476,-0.049,-0.953,0.208,-1.463,0.793,1.463,227.043
125595,134010,43087,-0.046,-0.953,0.207,-1.463,0.915,1.707,227.047
125595,133935,12481,-0.048,-0.951,0.205,-1.463,0.915,1.707,227.053
125594,134010,43087,-0.05,-0.951,0.208,-1.037,1.159,1.829,227.057
125594,133951,12500,-0.047,-0.953,0.207,-1.037,1.159,1.829,227.063
125585,134010,43087,-0.052,-0.953,0.204,-0.488,1.341,2.134,227.067
125585,133947,12487,-0.051,-0.951,0.204,-0.488,1.341,2.134,227.073
125621,134010,43087,-0.051,-0.949,0.21,0.244,1.463,2.317,227.076
125621,133944,12491,-0.057,-0.945,0.212,0.244,1.463,2.317,227.083
125639,134010,43087,-0.056,-0.947,0.213,0.488,1.463,2.256,227.086
125639,133984,12487,-0.056,-0.946,0.212,0.488,1.463,2.256,227.093
125668,134010,43087,-0.058,-0.948,0.213,0,1.22,1.89,227.096
125668,134010,12491,-0.055,-0.947,0.211,0,1.22,1.89,227.102
125668,134010,43087,-0.058,-0.95,0.209,-1.22,0.854,1.28,227.106
125668,133973,12489,-0.055,-0.95,0.207,-1.22,0.854,1.28,227.112
125676,134010,43087,-0.053,-0.952,0.207,-1.951,0.732,0.793,227.116
125676,133987,12502,-0.054,-0.955,0.201,-1.951,0.732,0.793,227.122
125679,134010,43087,-0.054,-0.955,0.201,-1.951,0.732,0.793,227.126
125679,134014,12503,-0.049,-0.965,0.191,-1.89,0.61,0.549,227.132
125670,134010,43087,-0.049,-0.965,0.191,-1.89,0.61,0.549,227.136
125670,133993,12476,-0.054,-0.966,0.189,-0.488,0.549,0.61,227.142
125656,134010,43087,-0.054,-0.966,0.189,-0.488,0.549,0.61,227.146
125656,133984,12491,-0.056,-0.95,0.206,1.89,0.732,1.037,227.152
125651,134010,43087,-0.056,-0.95,0.206,1.89,0.732,1.037,227.156
125651,133984,12494,-0.054,-0.955,0.198,3.415,0.793,1.646,227.162
125634,134010,43087,-0.054,-0.955,0.198,3.415,0.793,1.646,227.166
125634,133973,12489,-0.057,-0.964,0.196,3.841,0.793,1.829,227.172
125630,134010,43087,-0.057,-0.964,0.196,3.841,0.793,1.829,227.175
125630,133962,12496,-0.054,-0.947,0.21,5.305,0.732,2.134,227.182
125618,134010,43087,-0.054,-0.947,0.21,5.305,0.732,2.134,227.185
125618,133991,12471,-0.062,-0.949,0.211,5.976,0.549,2.073,227.192
125628,134010,43087,-0.062,-0.949,0.211,5.976,0.549,2.073,227.195
125628,133973,12480,-0.063,-0.948,0.214,5.244,0.366,1.707,227.201
125612,134010,43087,-0.063,-0.948,0.214,5.244,0.366,1.707,227.205
125612,133971,12480,-0.063,-0.942,0.22,5,0.244,0.915,227.211
125623,134010,43087,-0.063,-0.942,0.22,5,0.244,0.915,227.215
125623,133974,12458,-0.06,-0.941,0.219,5.061,-0.183,-0.061,227.221
125604,134010,43087,-0.06,-0.941,0.219,5.061,-0.183,-0.061,227.225
125604,133983,12486,-0.057,-0.941,0.224,4.207,-0.427,-0.671,227.231
125618,134010,43087,-0.057,-0.941,0.224,4.207,-0.427,-0.671,227.235
125618,133976,12488,-0.054,-0.934,0.225,3.476,-0.488,-1.037,227.241
125614,134010,43087,-0.054,-0.934,0.225,3.476,-0.488,-1.037,227.245
125614,133989,12466,-0.052,-0.942,0.224,2.317,-0.671,-1.524,227.251
125617,134010,43087,-0.052,-0.942,0.224,2.317,-0.671,-1.524,227.255
125617,133978,12490,-0.052,-0.942,0.222,0.915,-0.793,-1.463,227.261
125618,134010,43087,-0.052,-0.942,0.222,0.915,-0.793,-1.463,227.265
125618,133977,12471,-0.05,-0.945,0.22,-0.854,-0.732,-1.341,227.271
125596,134010,43087,-0.054,-0.947,0.223,-0.854,-0.732,-1.341,227.274
125596,133981,12478,-0.048,-0.947,0.213,-2.012,-0.671,-1.159,227.281
125616,134010,43087,-0.047,-0.953,0.212,-2.012,-0.671,-1.159,227.284
125616,133990,12497,-0.048,-0.958,0.212,-2.378,-0.366,-0.854,227.291
125585,134010,43087,-0.05,-0.959,0.211,-2.378,-0.366,-0.854,227.294
125585,133982,12484,-0.052,-0.96,0.21,-1.829,0,-0.427,227.3
125575,134010,43087,-0.052,-0.954,0.208,-1.829,0,-0.427,227.304
125575,133983,12480,-0.051,-0.954,0.207,-1.585,0.305,-0.061,227.31
125589,134010,43087,-0.052,-0.955,0.208,-1.585,0.305,-0.061,227.314
125589,133962,12483,-0.05,-0.955,0.21,-1.037,0.427,0,227.32
125563,134010,43087,-0.051,-0.957,0.204,-1.037,0.427,0,227.324
125563,133971,12487,-0.052,-0.956,0.204,-0.183,0.671,0.061,227.33
125578,134010,43087,-0.052,-0.954,0.209,-0.183,0.671,0.061,227.334
125578,133955,12489,-0.053,-0.952,0.21,1.22,0.915,0.061,227.34
125566,134010,43087,-0.053,-0.949,0.214,1.22,0.915,0.061,227.344
125566,133973,12486,-0.052,-0.945,0.215,2.134,0.976,0.122,227.35
125589,134010,43087,-0.055,-0.945,0.217,2.134,0.976,0.122,227.354
125589,133968,12487,-0.053,-0.948,0.215,2.317,0.732,0.061,227.36
125589,134010,43087,-0.051,-0.944,0.218,2.317,0.732,0.061,227.364
125589,133974,12484,-0.05,-0.946,0.219,1.707,0.549,0.122,227.37
125577,134010,43087,-0.053,-0.947,0.219,1.707,0.549,0.122,227.373
125577,133981,12482,-0.054,-0.946,0.217,1.341,0.549,0.183,227.38
125588,134010,43087,-0.053,-0.949,0.216,1.341,0.549,0.183,227.383
125588,133962,12484,-0.05,-0.95,0.218,1.098,0.427,0,227.39
125559,134010,43087,-0.045,-0.949,0.214,1.098,0.427,0,227.393
125559,133962,12479,-0.046,-0.95,0.213,0.915,0.183,-0.183,227.399
125572,134010,43087,-0.049,-0.95,0.217,0.915,0.183,-0.183,227.403
125572,133967,12485,-0.047,-0.951,0.212,0.915,0.244,0,227.409
125578,134010,43087,-0.049,-0.95,0.213,0.915,0.244,0,227.413
125578,133967,12485,-0.049,-0.95,0.215,1.22,0.427,0.305,227.419
125580,134010,43087,-0.047,-0.951,0.219,1.22,0.427,0.305,227.423
125580,133954,12480,-0.047,-0.949,0.217,1.707,0.488,0.488,227.429
125573,134010,43087,-0.051,-0.951,0.216,1.707,0.488,0.488,227.433
125573,133965,12487,-0.051,-0.949,0.215,2.134,0.732,0.854,227.439
125595,134010,43087,-0.055,-0.95,0.22,2.134,0.732,0.854,227.443
125595,133981,12491,-0.055,-0.949,0.219,2.5,0.854,0.854,227.449
125632,134010,43087,-0.054,-0.944,0.221,2.5,0.854,0.854,227.453
125632,134006,12494,-0.054,-0.941,0.222,2.317,0.732,0.488,227.459
125663,134010,43087,-0.057,-0.94,0.225,2.317,0.732,0.488,227.463
125663,134029,12501,-0.053,-0.943,0.223,1.768,0.488,0.061,227.469
125709,134010,43087,-0.05,-0.944,0.222,1.768,0.488,0.061,227.472
125709,134026,12504,-0.053,-0.942,0.225,0.732,0.244,-0.305,227.479
125752,134010,43087,-0.051,-0.947,0.23,0.732,0.244,-0.305,227.482
125752,134066,12519,-0.052,-0.948,0.228,-0.305,0.122,-0.183,227.489
125787,134010,43087,-0.052,-0.943,0.224,-0.305,0.122,-0.183,227.492
125787,134104,12520,-0.051,-0.943,0.218,-1.402,0.122,-0.061,227.498
125818,134010,43087,-0.052,-0.943,0.223,-1.402,0.122,-0.061,227.502
125818,134114,12523,-0.051,-0.947,0.222,-2.073,-0.183,-0.122,227.508
125841,134010,43087,-0.053,-0.949,0.217,-2.073,-0.183,-0.122,227.512
125841,134119,12515,-0.05,-0.949,0.219,-2.134,-0.244,-0.122,227.518
125862,134010,43087,-0.05,-0.953,0.215,-2.134,-0.244,-0.122,227.522
125862,134143,12520,-0.05,-0.954,0.217,-2.012,-0.122,-0.122,227.528
125870,134010,43087,-0.051,-0.951,0.218,-2.012,-0.122,-0.122,227.532
125870,134119,12516,-0.054,-0.947,0.219,-1.951,-0.061,-0.244,227.538
125859,134010,43087,-0.054,-0.947,0.216,-1.951,-0.061,-0.244,227.542
125859,134080,12537,-0.051,-0.951,0.212,-2.317,-0.183,-0.488,227.548
125834,134010,43087,-0.052,-0.954,0.212,-2.317,-0.183,-0.488,227.552
125834,134085,12525,-0.052,-0.956,0.209,-2.317,-0.122,-0.671,227.558
125820,134010,43087,-0.051,-0.956,0.21,-2.317,-0.122,-0.671,227.562
125820,134052,12514,-0.051,-0.955,0.212,-1.098,0.122,-0.488,227.568
125804,134010,43087,-0.053,-0.951,0.21,-1.098,0.122,-0.488,227.571
125804,134064,12522,-0.051,-0.948,0.213,0,0.122,-0.183,227.578
125795,134010,43087,-0.049,-0.946,0.219,0,0.122,-0.183,227.581
125795,134055,12516,-0.052,-0.946,0.218,0.305,0.122,0.061,227.587
125799,134010,43087,-0.051,-0.948,0.218,0.305,0.122,0.061,227.591
125799,134063,12524,-0.047,-0.95,0.217,0.183,0.183,0.183,227.597
125784,134010,43087,-0.048,-0.956,0.219,0.183,0.183,0.183,227.601
125784,134068,12528,-0.05,-0.953,0.219,-0.122,0.366,0.366,227.607
125806,134010,43087,-0.052,-0.948,0.214,-0.122,0.366,0.366,227.611
125806,134070,12520,-0.052,-0.949,0.218,-0.61,0.366,0.488,227.617
125786,134010,43087,-0.051,-0.951,0.217,-0.61,0.366,0.488,227.621
125786,134065,12538,-0.051,-0.949,0.214,-1.22,0.366,0.488,227.627
125801,134010,43087,-0.051,-0.951,0.214,-1.22,0.366,0.488,227.631
125801,134086,12530,-0.051,-0.952,0.213,-1.22,0.427,0.366,227.637
125814,134010,43087,-0.053,-0.955,0.213,-1.22,0.427,0.366,227.641
125814,134105,12541,-0.052,-0.952,0.211,-0.793,0.488,0.244,227.647
125828,134010,43087,-0.05,-0.948,0.211,-0.793,0.488,0.244,227.651
125828,134121,12523,-0.048,-0.947,0.215,-0.366,0.61,0.305,227.657
125825,134010,43087,-0.047,-0.95,0.216,-0.366,0.61,0.305,227.661
125825,134129,12538,-0.05,-0.953,0.215,-0.122,0.732,0.366,227.667
125839,134010,43087,-0.05,-0.951,0.216,-0.122,0.732,0.366,227.67
125839,134127,12523,-0.049,-0.948,0.214,0.061,0.854,0.488,227.677
125853,134010,43087,-0.052,-0.949,0.212,0.061,0.854,0.488,227.68
125853,134127,12541,-0.05,-0.944,0.216,0.244,0.854,0.488,227.686
125839,134010,43087,-0.049,-0.943,0.217,0.244,0.854,0.488,227.69
125839,134141,12522,-0.048,-0.946,0.215,0.183,0.732,0.366,227.696
125845,134266,43087,-0.049,-0.951,0.213,0.183,0.732,0.366,227.7
125845,134161,12539,-0.049,-0.951,0.216,0.061,0.732,0.366,227.706
125891,134266,43087,-0.049,-0.951,0.216,0.061,0.732,0.366,227.71
125891,134152,12527,-0.051,-0.947,0.217,-0.122,0.732,0.427,227.716
125882,134266,43087,-0.051,-0.947,0.217,-0.122,0.732,0.427,227.72
125882,134151,12550,-0.052,-0.95,0.214,-0.366,0.427,0.488,227.726
125901,134266,43087,-0.052,-0.95,0.214,-0.366,0.427,0.488,227.73
125901,134172,12540,-0.048,-0.95,0.214,-0.793,0.305,0.427,227.736
125915,134266,43087,-0.048,-0.95,0.214,-0.793,0.305,0.427,227.74
125915,134187,12528,-0.047,-0.954,0.213,-0.915,0.427,0.549,227.746
125890,134266,43087,-0.047,-0.954,0.213,-0.915,0.427,0.549,227.75
125890,134150,12535,-0.05,-0.953,0.213,-0.183,0.488,0.549,227.756
125895,134266,43087,-0.05,-0.953,0.213,-0.183,0.488,0.549,227.76
125895,134166,12531,-0.052,-0.95,0.215,0.488,0.488,0.61,227.766
125885,134266,43087,-0.052,-0.95,0.215,0.488,0.488,0.61,227.769
125885,134158,12532,-0.05,-0.948,0.218,0.671,0.549,0.61,227.776
125880,134010,43087,-0.05,-0.948,0.218,0.671,0.549,0.61,227.779
125880,134141,12547,-0.053,-0.945,0.218,0.488,0.549,0.61,227.785
125848,134010,43087,-0.053,-0.945,0.218,0.488,0.549,0.61,227.789
125848,134133,12535,-0.053,-0.947,0.213,0,0.366,0.488,227.795
125848,134010,43087,-0.053,-0.947,0.213,0,0.366,0.488,227.799
125848,134133,12535,-0.05,-0.95,0.22,-0.427,0.244,0.305,227.805
125841,134010,43087,-0.05,-0.95,0.22,-0.427,0.244,0.305,227.809
125841,134119,12533,-0.055,-0.948,0.213,-0.915,0.183,0.183,227.815
125851,134010,43087,-0.055,-0.948,0.213,-0.915,0.183,0.183,227.819
125851,134125,12542,-0.05,-0.944,0.219,-0.915,0,0,227.825
125827,134010,43087,-0.05,-0.944,0.219,-0.915,0,0,227.829
125827,134120,12539,-0.053,-0.953,0.219,-1.159,0,-0.122,227.835
125842,134266,43087,-0.053,-0.953,0.219,-1.159,0,-0.122,227.839
125842,134148,12539,-0.049,-0.949,0.211,-1.159,0,-0.061,227.845
125830,134010,43087,-0.049,-0.949,0.211,-1.159,0,-0.061,227.849
125830,134119,12528,-0.051,-0.947,0.216,-1.159,0,-0.061,227.855
125822,134010,43087,-0.049,-0.947,0.219,-0.915,0.122,0,227.859
125822,134141,12530,-0.052,-0.954,0.215,-0.915,0.122,0,227.865
125839,134010,43087,-0.052,-0.95,0.214,-0.732,0.244,0.183,227.868
125839,134132,12523,-0.051,-0.949,0.219,-0.732,0.244,0.183,227.875
125850,134010,43087,-0.049,-0.951,0.219,-0.854,0.366,0.244,227.878
125850,134142,12521,-0.049,-0.951,0.215,-0.854,0.366,0.244,227.884
125848,134010,43087,-0.05,-0.948,0.212,-1.22,0.427,0.427,227.888
125848,134140,12537,-0.051,-0.95,0.213,-1.22,0.427,0.427,227.894
125838,134010,43087,-0.05,-0.953,0.214,-1.098,0.427,0.61,227.898
125838,134141,12528,-0.053,-0.952,0.213,-1.098,0.427,0.61,227.904
125849,134010,43087,-0.052,-0.95,0.211,-0.793,0.488,0.671,227.908
125849,134137,12531,-0.051,-0.953,0.214,-0.793,0.488,0.671,227.914
125846,134010,43087,-0.052,-0.954,0.217,-0.549,0.61,0.793,227.918
125846,134119,12528,-0.052,-0.95,0.218,-0.549,0.61,0.793,227.924
125836,134010,43087,-0.052,-0.945,0.214,-0.366,0.732,0.793,227.928
125836,134121,12531,-0.053,-0.947,0.214,-0.366,0.732,0.793,227.934
125838,134010,43087,-0.052,-0.949,0.212,-0.305,0.793,0.671,227.938
125838,134124,12526,-0.05,-0.949,0.214,-0.305,0.793,0.671,227.944
125849,134010,43087,-0.052,-0.947,0.216,-0.244,0.732,0.549,227.948
125849,134103,12535,-0.053,-0.95,0.214,-0.244,0.732,0.549,227.954
125836,134266,43087,-0.054,-0.951,0.215,0,0.61,0.61,227.957
125836,134144,12523,-0.055,-0.946,0.216,0,0.61,0.61,227.964
125846,134010,43087,-0.053,-0.947,0.219,-0.183,0.61,0.61,227.967
125846,134142,12537,-0.054,-0.945,0.214,-0.183,0.61,0.61,227.974
125834,134010,43087,-0.052,-0.948,0.214,-0.366,0.549,0.427,227.977
125834,134124,12529,-0.052,-0.95,0.217,-0.366,0.549,0.427,227.983
125816,134010,43087,-0.054,-0.952,0.216,-0.671,0.366,0.244,227.987
125816,134131,12532,-0.054,-0.949,0.214,-0.671,0.366,0.244,227.993
125815,134010,43087,-0.053,-0.95,0.213,-1.037,0.305,0.183,227.997
125815,134133,12524,-0.049,-0.951,0.214,-1.037,0.305,0.183,228.003
125839,134010,43087,-0.05,-0.952,0.214,-1.098,0.305,0,228.007
125839,134129,12541,-0.052,-0.95,0.214,-1.098,0.305,0,228.013
125831,134010,43087,-0.052,-0.946,0.215,-0.976,0.305,-0.122,228.017
125831,134126,12534,-0.05,-0.948,0.215,-0.976,0.305,-0.122,228.023
125818,134010,43087,-0.049,-0.951,0.215,-0.732,0.305,0,228.027
125818,134121,12525,-0.049,-0.947,0.211,-0.732,0.305,0,228.033
125826,134266,43087,-0.048,-0.949,0.214,-0.61,0.305,0.244,228.037
125826,134151,12518,-0.048,-0.951,0.212,-0.61,0.305,0.244,228.043
125843,134010,43087,-0.049,-0.951,0.212,-0.366,0.488,0.488,228.047
125843,134119,12535,-0.051,-0.952,0.212,-0.366,0.488,0.488,228.053
125842,134010,43087,-0.049,-0.953,0.212,-0.183,0.671,0.793,228.056
125842,134112,12532,-0.052,-0.953,0.214,-0.183,0.671,0.793,228.063
125842,134010,43087,-0.049,-0.949,0.213,-0.061,0.732,0.915,228.066
125842,134140,12536,-0.051,-0.949,0.215,-0.061,0.732,0.915,228.073
125842,134010,43087,-0.051,-0.95,0.215,-0.366,0.793,1.098,228.076
125842,134105,12541,-0.049,-0.948,0.214,-0.366,0.793,1.098,228.082
125827,134010,43087,-0.05,-0.952,0.217,-0.854,0.732,1.098,228.086
125827,134092,12534,-0.051,-0.949,0.214,-0.854,0.732,1.098,228.092
125833,134010,43087,-0.052,-0.952,0.209,-0.915,0.549,1.037,228.096
125833,134110,12523,-0.053,-0.952,0.21,-0.915,0.549,1.037,228.102
125834,134010,43087,-0.056,-0.953,0.21,-0.488,0.549,1.159,228.106
125834,134116,12527,-0.056,-0.95,0.21,-0.488,0.549,1.159,228.112
125796,134010,43087,-0.054,-0.95,0.206,0.122,0.549,1.22,228.116
125796,134086,12532,-0.055,-0.948,0.214,0.122,0.549,1.22,228.122
125830,134010,43087,-0.053,-0.953,0.219,0.854,0.488,0.976,228.126
125830,134074,12531,-0.051,-0.951,0.213,0.854,0.488,0.976,228.132
125800,134010,43087,-0.054,-0.948,0.211,0.671,0.366,0.488,228.136
125800,134084,12521,-0.051,-0.947,0.212,0.671,0.366,0.488,228.142
125798,134010,43087,-0.049,-0.947,0.211,0.305,0.183,0.061,228.146
125798,134103,12530,-0.049,-0.95,0.209,0.305,0.183,0.061,228.152
125792,134010,43087,-0.048,-0.952,0.211,0.061,0.183,-0.244,228.155
125792,134073,12530,-0.047,-0.956,0.216,0.061,0.183,-0.244,228.162
125802,134010,43087,-0.048,-0.957,0.214,0.366,0.305,-0.061,228.165
125802,134095,12529,-0.05,-0.951,0.217,0.366,0.305,-0.061,228.172
125798,134010,43087,-0.048,-0.95,0.216,1.098,0.488,0.305,228.175
125798,134092,12537,-0.05,-0.947,0.213,1.098,0.488,0.305,228.181
125799,134010,43087,-0.05,-0.948,0.214,1.341,0.549,0.305,228.185
125799,134089,12534,-0.05,-0.951,0.216,1.341,0.549,0.305,228.191
125798,134010,43087,-0.055,-0.949,0.212,1.28,0.427,0.244,228.195
125798,134091,12539,-0.053,-0.949,0.213,1.28,0.427,0.244,228.201
125790,134010,43087,-0.055,-0.951,0.215,0.915,0.305,0.183,228.205
125790,134091,12530,-0.053,-0.951,0.215,0.915,0.305,0.183,228.211
125789,134010,43087,-0.053,-0.953,0.214,0.671,0.183,0.244,228.215
125789,134092,12542,-0.05,-0.95,0.214,0.671,0.183,0.244,228.221
125794,134010,43087,-0.053,-0.95,0.213,0.549,0.305,0.244,228.225
125794,134093,12533,-0.05,-0.948,0.214,0.549,0.305,0.244,228.231
125777,134010,43087,-0.049,-0.946,0.215,0.732,0.244,0,228.235
125777,134094,12527,-0.052,-0.95,0.217,0.732,0.244,0,228.241
125799,134010,43087,-0.054,-0.947,0.217,1.037,0.183,-0.122,228.245
125799,134077,12528,-0.051,-0.947,0.218,1.037,0.183,-0.122,228.251
125797,134010,43087,-0.049,-0.944,0.22,1.28,0.183,-0.244,228.254
125797,134084,12526,-0.053,-0.94,0.221,1.28,0.183,-0.244,228.261
125798,134010,43087,-0.057,-0.944,0.22,0.732,0.122,-0.183,228.264
125798,134071,12537,-0.052,-0.946,0.219,0.732,0.122,-0.183,228.271
125783,134010,43087,-0.05,-0.947,0.221,0.183,0,0,228.274
125783,134105,12537,-0.054,-0.948,0.219,0.183,0,0,228.28
125788,134010,43087,-0.052,-0.945,0.223,-0.305,0.061,0,228.284
125788,134075,12520,-0.05,-0.945,0.223,-0.305,0.061,0,228.29
125796,134010,43087,-0.05,-0.945,0.223,-0.305,0.061,0,228.294
125796,134081,12517,-0.053,-0.947,0.219,-0.793,0.122,0.061,228.3
125781,134010,43087,-0.053,-0.947,0.219,-0.793,0.122,0.061,228.304
125781,134096,12528,-0.054,-0.952,0.213,-1.28,0.122,0.244,228.31
125782,134010,43087,-0.054,-0.952,0.213,-1.28,0.122,0.244,228.314
125782,134058,12547,-0.054,-0.95,0.214,-1.402,0.305,0.305,228.32
125776,134010,43087,-0.054,-0.95,0.214,-1.402,0.305,0.305,228.324
125776,134066,12534,-0.052,-0.947,0.216,-1.159,0.305,0.366,228.33
125749,134010,43087,-0.052,-0.947,0.216,-1.159,0.305,0.366,228.334
125749,134088,12544,-0.051,-0.95,0.216,-0.976,0.244,0.305,228.34
125772,134010,43087,-0.051,-0.95,0.216,-0.976,0.244,0.305,228.344
125772,134059,12531,-0.053,-0.948,0.215,-0.854,0.366,0.183,228.35
125758,134010,43087,-0.053,-0.948,0.215,-0.854,0.366,0.183,228.353
125758,134050,12531,-0.052,-0.948,0.215,-0.976,0.366,0.183,228.36
125745,134010,43087,-0.052,-0.948,0.215,-0.976,0.366,0.183,228.363
125745,134070,12537,-0.049,-0.952,0.215,-0.854,0.183,0.061,228.37
125756,134010,43087,-0.049,-0.952,0.215,-0.854,0.183,0.061,228.373
125756,134067,12523,-0.049,-0.953,0.215,-0.671,0.366,-0.061,228.379
125752,134010,43087,-0.049,-0.953,0.215,-0.671,0.366,-0.061,228.383
125752,134068,12531,-0.049,-0.945,0.218,-0.61,0.61,0.061,228.389
125734,134010,43087,-0.049,-0.945,0.218,-0.61,0.61,0.061,228.393
125734,134084,12526,-0.045,-0.942,0.215,-0.793,0.671,0.183,228.399
125738,134010,43087,-0.045,-0.942,0.215,-0.793,0.671,0.183,228.403
125738,134076,12516,-0.047,-0.945,0.216,-1.159,0.671,0.122,228.409
125736,134010,43087,-0.047,-0.945,0.216,-1.159,0.671,0.122,228.413
125736,134083,12520,-0.049,-0.946,0.215,-1.22,0.671,0.244,228.419
125755,134010,43087,-0.049,-0.946,0.215,-1.22,0.671,0.244,228.423
125755,134055,12516,-0.047,-0.947,0.218,-1.341,0.549,0.366,228.429
125748,134010,43087,-0.047,-0.947,0.218,-1.341,0.549,0.366,228.433
125748,134058,12534,-0.048,-0.948,0.217,-1.707,0.488,0.366,228.439
125742,134010,43087,-0.047,-0.95,0.216,-1.707,0.488,0.366,228.443
125742,134064,12535,-0.049,-0.953,0.214,-2.378,0.488,0.366,228.449
125749,134010,43087,-0.049,-0.955,0.215,-2.378,0.488,0.366,228.452
125749,134088,12529,-0.049,-0.954,0.215,-2.805,0.427,0.549,228.459
125754,134010,43087,-0.049,-0.954,0.207,-2.805,0.427,0.549,228.462
125754,134076,12533,-0.048,-0.955,0.203,-2.866,0.427,0.61,228.469
125755,134010,43087,-0.049,-0.96,0.204,-2.866,0.427,0.61,228.472
125755,134073,12538,-0.051,-0.965,0.203,-2.073,0.549,0.732,228.478
125741,134010,43087,-0.053,-0.959,0.201,-2.073,0.549,0.732,228.482
125741,134075,12519,-0.053,-0.956,0.204,-0.549,0.854,0.976,228.488
125737,134010,43087,-0.054,-0.955,0.21,-0.549,0.854,0.976,228.492
125737,134047,12538,-0.055,-0.95,0.209,0.915,0.915,1.098,228.498
125729,134010,43087,-0.056,-0.95,0.212,0.915,0.915,1.098,228.502
125729,134057,12522,-0.056,-0.95,0.215,1.707,0.854,0.976,228.508
125737,134010,43087,-0.058,-0.945,0.215,1.707,0.854,0.976,228.512
125737,134084,12555,-0.055,-0.94,0.217,1.707,0.61,0.61,228.518
125749,134010,43087,-0.057,-0.941,0.217,1.707,0.61,0.61,228.522
125749,134058,12544,-0.06,-0.941,0.217,0.793,0.366,0.122,228.528
125767,134010,43087,-0.057,-0.946,0.215,0.793,0.366,0.122,228.532
125767,134066,12518,-0.053,-0.948,0.215,-0.061,0.183,-0.305,228.538
125756,134010,43087,-0.054,-0.948,0.219,-0.061,0.183,-0.305,228.542
125756,134084,12529,-0.055,-0.949,0.215,-0.671,-0.061,-0.671,228.548
125760,134010,43087,-0.055,-0.951,0.214,-0.671,-0.061,-0.671,228.551
125760,134078,12528,-0.054,-0.948,0.214,-1.402,-0.122,-0.854,228.558
125756,134010,43087,-0.054,-0.95,0.215,-1.402,-0.122,-0.854,228.561
125756,134079,12521,-0.052,-0.95,0.211,-1.829,-0.244,-1.037,228.567
125761,134010,43087,-0.049,-0.95,0.205,-1.829,-0.244,-1.037,228.571
125761,134090,12516,-0.049,-0.95,0.208,-1.768,-0.427,-1.159,228.577
125743,134010,43087,-0.049,-0.954,0.208,-1.768,-0.427,-1.159,228.581
125743,134089,12528,-0.047,-0.957,0.207,-1.28,-0.244,-1.098,228.587
125748,134010,43087,-0.05,-0.954,0.208,-1.28,-0.244,-1.098,228.591
125748,134098,12530,-0.048,-0.953,0.208,-0.793,-0.183,-0.915,228.597
125735,134010,43087,-0.046,-0.952,0.21,-0.793,-0.183,-0.915,228.601
125735,134072,12526,-0.046,-0.955,0.21,-0.61,-0.122,-0.793,228.607
125746,134010,43087,-0.044,-0.957,0.211,-0.61,-0.122,-0.793,228.611
125746,134078,12522,-0.046,-0.955,0.208,-0.366,0.061,-0.732,228.617
125747,134010,43087,-0.045,-0.955,0.211,-0.366,0.061,-0.732,228.621
125747,134093,12528,-0.043,-0.951,0.213,-0.122,0.122,-0.488,228.627
125737,134010,43087,-0.042,-0.951,0.211,-0.122,0.122,-0.488,228.631
125737,134057,12535,-0.042,-0.947,0.21,0.061,0.244,-0.305,228.637
125691,134010,43087,-0.045,-0.952,0.212,0.061,0.244,-0.305,228.641
125691,134060,12528,-0.044,-0.955,0.209,0.427,0.427,-0.061,228.647
125709,134010,43087,-0.043,-0.952,0.208,0.427,0.427,-0.061,228.65
125709,134058,12523,-0.045,-0.95,0.21,1.098,0.61,0.488,228.657
125716,134010,43087,-0.043,-0.949,0.211,1.098,0.61,0.488,228.66
125716,134037,12512,-0.043,-0.943,0.215,1.463,0.732,0.732,228.666
125703,134010,43087,-0.046,-0.946,0.219,1.463,0.732,0.732,228.67
125703,134057,12517,-0.045,-0.949,0.219,1.28,0.793,1.037,228.676
125709,134010,43087,-0.045,-0.949,0.215,1.28,0.793,1.037,228.68
125709,134071,12520,-0.047,-0.949,0.215,0.976,0.732,1.28,228.686
125718,134010,43087,-0.046,-0.949,0.218,0.976,0.732,1.28,228.69
125718,134047,12530,-0.048,-0.945,0.219,0.427,0.61,1.341,228.696
125707,134010,43087,-0.046,-0.943,0.215,0.427,0.61,1.341,228.7
125707,134053,12519,-0.048,-0.947,0.214,-0.366,0.549,1.28,228.706
125694,134010,43087,-0.045,-0.953,0.213,-0.366,0.549,1.28,228.71
125694,134061,12515,-0.048,-0.955,0.211,-0.427,0.671,1.28,228.716
125687,134010,43087,-0.052,-0.952,0.21,-0.427,0.671,1.28,228.72
125687,134025,12526,-0.053,-0.948,0.209,0.061,0.854,1.28,228.726
125671,134010,43087,-0.053,-0.951,0.212,0.061,0.854,1.28,228.73
125671,134029,12508,-0.052,-0.95,0.214,0.732,0.732,1.22,228.736
125638,134010,43087,-0.051,-0.949,0.213,0.732,0.732,1.22,228.74
125638,134036,12508,-0.052,-0.951,0.213,0.915,0.671,1.159,228.746
125649,134010,43087,-0.051,-0.947,0.214,0.915,0.671,1.159,228.749
125649,134029,12522,-0.051,-0.948,0.219,1.037,0.671,1.037,228.756
125626,134010,43087,-0.053,-0.947,0.218,1.037,0.671,1.037,228.759
125626,134034,12523,-0.051,-0.946,0.216,0.915,0.488,1.037,228.765
125667,134010,43087,-0.052,-0.947,0.22,0.915,0.488,1.037,228.769
125667,134037,12525,-0.052,-0.943,0.218,0.244,0.549,1.037,228.775
125643,134010,43087,-0.053,-0.948,0.214,0.244,0.549,1.037,228.779
125643,134055,12513,-0.055,-0.944,0.217,-0.61,0.549,1.159,228.785
125675,134010,43087,-0.05,-0.943,0.216,-0.61,0.549,1.159,228.789
125675,134048,12516,-0.048,-0.943,0.215,-1.402,0.427,1.037,228.795
125650,134010,43087,-0.052,-0.949,0.216,-1.402,0.427,1.037,228.799
125650,134055,12515,-0.054,-0.957,0.211,-1.89,0.305,1.037,228.805
125681,134010,43087,-0.053,-0.951,0.209,-1.89,0.305,1.037,228.809
125681,134032,12508,-0.049,-0.951,0.211,-1.768,0.366,1.159,228.815
125665,134010,43087,-0.05,-0.954,0.209,-1.768,0.366,1.159,228.819
125665,134037,12515,-0.053,-0.957,0.209,-1.159,0.488,1.159,228.825
125658,134010,43087,-0.053,-0.956,0.208,-1.159,0.488,1.159,228.829
125658,134043,12526,-0.055,-0.956,0.204,-0.671,0.61,1.159,228.835
125635,134010,43087,-0.055,-0.957,0.208,-0.671,0.61,1.159,228.839
125635,134028,12504,-0.054,-0.955,0.211,-0.122,0.732,1.341,228.845
125656,134010,43087,-0.057,-0.956,0.209,-0.122,0.732,1.341,228.848
125656,134027,12510,-0.054,-0.952,0.213,0.61,0.671,1.22,228.855
125633,134010,43087,-0.056,-0.948,0.213,0.61,0.671,1.22,228.858
125633,134022,12512,-0.055,-0.944,0.213,0.366,0.549,0.854,228.864
125661,134010,43087,-0.055,-0.944,0.213,0.366,0.549,0.854,228.868
125661,134014,12510,-0.055,-0.945,0.214,-0.183,0.427,0.671,228.874
125626,134010,43087,-0.055,-0.945,0.214,-0.183,0.427,0.671,228.878
125626,134019,12509,-0.053,-0.944,0.213,-0.549,0.183,0.305,228.884
125636,134010,43087,-0.053,-0.944,0.213,-0.549,0.183,0.305,228.888
125636,134002,12513,-0.051,-0.945,0.216,-0.976,0.061,-0.061,228.894
125613,134010,43087,-0.051,-0.945,0.216,-0.976,0.061,-0.061,228.898
125613,133993,12529,-0.051,-0.951,0.214,-1.22,0.183,-0.183,228.904
125624,134010,43087,-0.051,-0.951,0.214,-1.22,0.183,-0.183,228.908
125624,134029,12515,-0.051,-0.948,0.209,-1.159,0.366,0.061,228.914
125631,134010,43087,-0.051,-0.948,0.209,-1.159,0.366,0.061,228.918
125631,134037,12512,-0.05,-0.954,0.209,-0.488,0.549,0.427,228.924
125655,134010,43087,-0.05,-0.954,0.209,-0.488,0.549,0.427,228.928
125655,134011,12515,-0.052,-0.952,0.211,0.488,0.671,0.61,228.934
125637,134010,43087,-0.052,-0.952,0.211,0.488,0.671,0.61,228.937
125637,134041,12526,-0.056,-0.945,0.214,0.793,0.732,0.427,228.944
125660,134010,43087,-0.056,-0.945,0.214,0.793,0.732,0.427,228.947
125660,134036,12520,-0.055,-0.949,0.212,0.366,0.549,0.061,228.954
125683,134010,43087,-0.055,-0.949,0.212,0.366,0.549,0.061,228.957
125683,134044,12520,-0.053,-0.952,0.21,-0.183,0.427,-0.122,228.963
125682,134010,43087,-0.053,-0.952,0.21,-0.183,0.427,-0.122,228.967
125682,134025,12515,-0.049,-0.956,0.206,0.061,0.366,-0.061,228.973
125670,134010,43087,-0.049,-0.956,0.206,0.061,0.366,-0.061,228.977
125670,134053,12516,-0.048,-0.948,0.211,0.549,0.488,0.122,228.983
125681,134010,43087,-0.048,-0.948,0.211,0.549,0.488,0.122,228.987
125681,134040,12508,-0.051,-0.947,0.214,0.915,0.549,0.244,228.993
125675,134010,43087,-0.051,-0.947,0.214,0.915,0.549,0.244,228.997
125675,134061,12526,-0.052,-0.952,0.21,1.28,0.549,0.366,229.003
125676,134010,43087,-0.052,-0.952,0.21,1.28,0.549,0.366,229.007
125676,134062,12525,-0.054,-0.952,0.217,1.28,0.549,0.366,229.013
125693,134010,43087,-0.052,-0.947,0.217,1.768,0.549,0.366,229.017
125693,134066,12522,-0.053,-0.944,0.216,1.768,0.549,0.366,229.023
125703,134010,43087,-0.051,-0.946,0.218,1.646,0.488,0.549,229.027
125703,134064,12522,-0.056,-0.947,0.219,1.646,0.488,0.549,229.033
125717,134010,43087,-0.056,-0.947,0.218,1.037,0.488,0.549,229.036
125717,134067,12533,-0.052,-0.948,0.215,1.037,0.488,0.549,229.043
125689,134010,43087,-0.052,-0.945,0.218,0.366,0.305,0.488,229.046
125689,134062,12523,-0.053,-0.944,0.218,0.366,0.305,0.488,229.053
125698,134010,43087,-0.054,-0.947,0.213,-0.366,0.305,0.244,229.056
125698,134064,12527,-0.054,-0.948,0.215,-0.366,0.305,0.244,229.062
125697,134010,43087,-0.052,-0.95,0.216,-0.915,0.061,-0.061,229.066
125697,134051,12549,-0.051,-0.951,0.213,-0.915,0.061,-0.061,229.072
125705,134010,43087,-0.054,-0.949,0.21,-0.976,0,-0.183,229.076
125705,134046,12524,-0.054,-0.951,0.208,-0.976,0,-0.183,229.082
125692,134010,43087,-0.051,-0.953,0.208,-0.488,0.061,-0.427,229.086
125692,134081,12511,-0.052,-0.958,0.208,-0.488,0.061,-0.427,229.092
125707,134010,43087,-0.052,-0.956,0.21,0.305,0,-0.366,229.096
125707,134044,12527,-0.051,-0.95,0.215,0.305,0,-0.366,229.102
125688,134010,43087,-0.053,-0.95,0.211,0.915,0.183,-0.427,229.106
125688,134031,12530,-0.053,-0.948,0.214,0.915,0.183,-0.427,229.112
125692,134010,43087,-0.05,-0.95,0.216,0.671,0.061,-0.488,229.116
125692,134079,12528,-0.051,-0.951,0.214,0.671,0.061,-0.488,229.122
125691,134010,43087,-0.047,-0.95,0.213,0.305,0.183,-0.488,229.126
125691,134040,12543,-0.047,-0.952,0.214,0.305,0.183,-0.488,229.132
125687,134010,43087,-0.047,-0.948,0.213,0.427,0.244,-0.427,229.135
125687,134039,12539,-0.047,-0.948,0.216,0.427,0.244,-0.427,229.142
125695,134010,43087,-0.047,-0.951,0.215,0.366,0.366,-0.122,229.145
125695,134030,12530,-0.045,-0.953,0.213,0.366,0.366,-0.122,229.152
125710,134010,43087,-0.048,-0.95,0.217,0.366,0.549,0.183,229.155
125710,134063,12535,-0.046,-0.949,0.219,0.366,0.549,0.183,229.161
125681,134010,43087,-0.046,-0.95,0.219,0.305,0.671,0.427,229.165
125681,134049,12535,-0.048,-0.951,0.219,0.305,0.671,0.427,229.171
125701,134010,43087,-0.052,-0.951,0.22,-0.122,0.732,0.732,229.175
125701,134026,12529,-0.049,-0.95,0.219,-0.122,0.732,0.732,229.181
125650,134010,43087,-0.049,-0.949,0.217,-0.732,0.732,0.732,229.185
125650,134015,12527,-0.05,-0.947,0.213,-0.732,0.732,0.732,229.191
125668,134010,43087,-0.049,-0.942,0.215,-1.402,0.61,0.488,229.195
125668,134027,12525,-0.048,-0.947,0.208,-1.402,0.61,0.488,229.201
125639,134010,43087,-0.052,-0.949,0.208,-1.463,0.549,0.427,229.205
125639,134025,12544,-0.05,-0.953,0.207,-1.463,0.549,0.427,229.211
125642,134010,43087,-0.049,-0.953,0.207,-0.854,0.61,0.488,229.215
125642,133977,12527,-0.049,-0.949,0.208,-0.854,0.61,0.488,229.221
125604,134010,43087,-0.048,-0.946,0.209,0.122,0.549,0.671,229.225
125604,133984,12524,-0.046,-0.945,0.213,0.122,0.549,0.671,229.231
125622,134010,43087,-0.049,-0.948,0.214,0.61,0.61,0.915,229.234
125622,133980,12519,-0.05,-0.957,0.211,0.61,0.61,0.915,229.241
125593,134010,43087,-0.053,-0.956,0.214,0.976,0.732,0.976,229.244
125593,133984,12523,-0.052,-0.953,0.214,0.976,0.732,0.976,229.25
125602,134010,43087,-0.051,-0.952,0.218,1.22,0.793,0.915,229.254
125602,133985,12536,-0.053,-0.951,0.217,1.22,0.793,0.915,229.26
125598,134010,43087,-0.052,-0.949,0.214,0.915,0.732,0.854,229.264
125598,133980,12531,-0.052,-0.947,0.216,0.915,0.732,0.854,229.27
125605,134010,43087,-0.051,-0.943,0.214,0.427,0.732,0.671,229.274
125605,133965,12531,-0.05,-0.946,0.213,0.427,0.732,0.671,229.28
125612,134010,43087,-0.053,-0.948,0.218,0.427,0.61,0.488,229.284
125612,134011,12527,-0.053,-0.945,0.218,0.427,0.61,0.488,229.29
125625,134010,43087,-0.052,-0.944,0.223,0.732,0.61,0.427,229.294
125625,134017,12501,-0.053,-0.943,0.223,0.732,0.61,0.427,229.3
125633,134010,43087,-0.055,-0.942,0.219,0.427,0.427,0.549,229.304
125633,134011,12522,-0.054,-0.943,0.22,0.427,0.427,0.549,229.31
125617,134010,43087,-0.052,-0.946,0.218,-0.366,0.366,0.488,229.314
125617,134019,12511,-0.052,-0.946,0.217,-0.366,0.366,0.488,229.32
125625,134010,43087,-0.053,-0.947,0.216,-0.854,0.183,0.244,229.324
125625,134031,12519,-0.05,-0.944,0.215,-0.854,0.183,0.244,229.33
125644,134010,43087,-0.05,-0.948,0.212,-1.22,0.122,0.244,229.333
125644,134017,12540,-0.05,-0.949,0.217,-1.22,0.122,0.244,229.34
125640,134010,43087,-0.05,-0.954,0.219,-1.463,0.244,0.183,229.343
125640,134018,12532,-0.051,-0.954,0.215,-1.463,0.244,0.183,229.349
125650,134010,43087,-0.05,-0.957,0.21,-1.341,0.244,0.244,229.353
125650,134030,12527,-0.05,-0.957,0.209,-1.341,0.244,0.244,229.359
125657,134010,43087,-0.049,-0.954,0.207,-1.037,0.366,0.305,229.363
125657,134035,12521,-0.048,-0.951,0.209,-1.037,0.366,0.305,229.369
125655,134010,43087,-0.05,-0.953,0.212,-0.244,0.488,0.549,229.373
125655,134034,12524,-0.051,-0.951,0.21,-0.244,0.488,0.549,229.379
125640,134010,43087,-0.051,-0.953,0.212,0.244,0.671,0.854,229.383
125640,134028,12535,-0.05,-0.952,0.216,0.244,0.671,0.854,229.389
125633,134010,43087,-0.05,-0.952,0.214,0.366,0.671,1.037,229.393
125633,134029,12538,-0.052,-0.951,0.215,0.366,0.671,1.037,229.399
125633,134010,43087,-0.054,-0.951,0.214,0.488,0.61,1.037,229.403
125633,134012,12549,-0.054,-0.951,0.215,0.488,0.61,1.037,229.409
125641,134010,43087,-0.055,-0.952,0.216,0.427,0.488,0.915,229.413
125641,134031,12536,-0.052,-0.948,0.213,0.427,0.488,0.915,229.419
125607,134010,43087,-0.055,-0.945,0.208,0.183,0.488,0.671,229.423
125607,134036,12514,-0.056,-0.947,0.214,0.183,0.488,0.671,229.429
125602,134010,43087,-0.053,-0.954,0.217,0.122,0.305,0.427,229.432
125602,134014,12512,-0.052,-0.954,0.215,0.122,0.305,0.427,229.439
125580,134010,43087,-0.053,-0.953,0.214,0.305,0.366,0.244,229.442
125580,133972,12495,-0.055,-0.952,0.214,0.305,0.366,0.244,229.448
125532,134010,43087,-0.055,-0.952,0.214,0.305,0.366,0.244,229.452
125532,133974,12507,-0.051,-0.942,0.217,0.61,0.366,0.183,229.458
125499,134010,43087,-0.051,-0.942,0.217,0.61,0.366,0.183,229.462
125499,133936,12490,-0.052,-0.949,0.218,0.61,0.244,0,229.468
125472,134010,43087,-0.052,-0.949,0.218,0.61,0.244,0,229.472
125472,133912,12493,-0.051,-0.948,0.215,0.305,0.244,0.061,229.478
125451,134010,43087,-0.051,-0.948,0.215,0.305,0.244,0.061,229.482
125451,133905,12480,-0.053,-0.95,0.214,0.061,0.244,0.122,229.488
125437,134010,43087,-0.053,-0.95,0.214,0.061,0.244,0.122,229.492
125437,133898,12498,-0.05,-0.948,0.215,-0.122,0.244,0.244,229.498
125422,134010,43087,-0.05,-0.948,0.215,-0.122,0.244,0.244,229.502
125422,133908,12491,-0.049,-0.955,0.216,-0.183,0.244,0.366,229.508
125398,133754,43087,-0.049,-0.955,0.216,-0.183,0.244,0.366,229.512
125398,133876,12496,-0.051,-0.95,0.211,-0.061,0.305,0.366,229.518
125356,133754,43087,-0.051,-0.95,0.211,-0.061,0.305,0.366,229.521
125356,133876,12476,-0.053,-0.949,0.213,0.305,0.488,0.366,229.528
125370,133754,43087,-0.053,-0.949,0.213,0.305,0.488,0.366,229.531
125370,133859,12477,-0.05,-0.949,0.214,0.549,0.61,0.488,229.538
125364,133754,43087,-0.05,-0.949,0.214,0.549,0.61,0.488,229.541
125364,133869,12486,-0.051,-0.953,0.219,0.793,0.671,0.549,229.547
125381,133754,43087,-0.051,-0.953,0.219,0.793,0.671,0.549,229.551
125381,133880,12491,-0.052,-0.941,0.213,0.976,0.671,0.549,229.557
125395,133754,43087,-0.052,-0.941,0.213,0.976,0.671,0.549,229.561
125395,133878,12511,-0.053,-0.95,0.218,0.671,0.671,0.671,229.567
125401,133754,43087,-0.053,-0.95,0.218,0.671,0.671,0.671,229.571
125401,133879,12491,-0.051,-0.948,0.215,0.244,0.488,0.671,229.577
125389,133754,43087,-0.051,-0.948,0.215,0.244,0.488,0.671,229.581
125389,133879,12491,-0.052,-0.953,0.216,0.244,0.549,0.732,229.587
125366,133754,43087,-0.052,-0.953,0.216,0.244,0.549,0.732,229.591
125366,133846,12486,-0.052,-0.953,0.218,0.427,0.488,0.61,229.597
125369,133754,43087,-0.053,-0.95,0.216,0.427,0.488,0.61,229.601
125369,133848,12488,-0.053,-0.951,0.212,0.305,0.427,0.366,229.607
125344,133754,43087,-0.054,-0.95,0.214,0.305,0.427,0.366,229.611
125344,133860,12473,-0.051,-0.948,0.218,0.122,0.305,0.061,229.617
125323,133754,43087,-0.052,-0.948,0.22,0.122,0.305,0.061,229.62
125323,133844,12491,-0.053,-0.945,0.217,0.061,0.183,-0.061,229.627
125311,133754,43087,-0.052,-0.947,0.218,0.061,0.183,-0.061,229.63
125311,133843,12489,-0.052,-0.951,0.216,0.244,0.244,0,229.637
125315,133754,43087,-0.052,-0.951,0.216,0.244,0.244,0,229.64
125315,133816,12493,-0.05,-0.945,0.219,0.427,0.366,0,229.646
125297,133754,43087,-0.048,-0.946,0.224,0.427,0.366,0,229.65
125297,133839,12497,-0.05,-0.945,0.222,0.183,0.244,0.061,229.656
125323,133754,43087,-0.047,-0.944,0.217,0.183,0.244,0.061,229.66
125323,133862,12468,-0.047,-0.944,0.221,-0.549,0.244,0.244,229.666
125328,133754,43087,-0.046,-0.953,0.219,-0.549,0.244,0.244,229.67
125328,133867,12478,-0.048,-0.953,0.222,-0.915,0.305,0.61,229.676
125330,133754,43087,-0.051,-0.953,0.218,-0.915,0.305,0.61,229.68
125330,133853,12483,-0.052,-0.952,0.215,-1.28,0.427,0.976,229.686
125312,133754,43087,-0.053,-0.946,0.215,-1.28,0.427,0.976,229.69
125312,133846,12486,-0.054,-0.953,0.212,-1.341,0.549,0.915,229.696
125327,133754,43087,-0.053,-0.953,0.213,-1.341,0.549,0.915,229.7
125327,133854,12486,-0.055,-0.949,0.209,-1.098,0.366,0.488,229.706
125316,133754,43087,-0.052,-0.948,0.212,-1.098,0.366,0.488,229.71
125316,133862,12481,-0.054,-0.947,0.213,-1.098,0.366,0.244,229.716
125307,133754,43087,-0.055,-0.954,0.211,-1.098,0.366,0.244,229.719
125307,133849,12503,-0.051,-0.957,0.21,-0.854,0.305,0.061,229.726
125327,133754,43087,-0.052,-0.952,0.215,-0.854,0.305,0.061,229.729
125327,133874,12492,-0.05,-0.949,0.212,-0.305,0.366,0,229.736
125338,133754,43087,-0.051,-0.947,0.215,-0.305,0.366,0,229.739
125338,133859,12498,-0.052,-0.949,0.216,0.183,0.366,0.183,229.745
125350,133754,43087,-0.053,-0.946,0.212,0.183,0.366,0.183,229.749
125350,133875,12498,-0.051,-0.947,0.212,0.488,0.366,0.305,229.755
125350,133754,43087,-0.049,-0.948,0.217,0.488,0.366,0.305,229.759
125350,133860,12487,-0.05,-0.949,0.216,0.732,0.366,0.427,229.765
125351,134010,43087,-0.052,-0.952,0.217,0.732,0.366,0.427,229.769
125351,133914,12510,-0.053,-0.946,0.216,0.61,0.427,0.488,229.775
125355,134010,43087,-0.053,-0.946,0.217,0.61,0.427,0.488,229.779
125355,133900,12499,-0.052,-0.95,0.223,0.305,0.427,0.488,229.785
125370,134010,43087,-0.052,-0.95,0.219,0.305,0.427,0.488,229.789
125370,133912,12494,-0.053,-0.948,0.218,-0.305,0.366,0.549,229.795
125356,134010,43087,-0.054,-0.948,0.217,-0.305,0.366,0.549,229.799
125356,133902,12508,-0.055,-0.952,0.22,-0.671,0.427,0.793,229.805
125390,134010,43087,-0.052,-0.954,0.214,-0.671,0.427,0.793,229.809
125390,133932,12496,-0.054,-0.949,0.214,-0.549,0.488,0.915,229.815
125397,134010,43087,-0.054,-0.953,0.213,-0.549,0.488,0.915,229.818
125397,133916,12509,-0.056,-0.949,0.218,-0.122,0.549,0.976,229.825
125397,134010,43087,-0.055,-0.947,0.216,-0.122,0.549,0.976,229.828
125397,133924,12524,-0.057,-0.95,0.217,-0.183,0.427,0.793,229.835
125389,134010,43087,-0.055,-0.947,0.217,-0.183,0.427,0.793,229.838
125389,133926,12514,-0.052,-0.949,0.219,-0.427,0.366,0.549,229.844
125406,134010,43087,-0.055,-0.951,0.214,-0.427,0.366,0.549,229.848
125406,133939,12512,-0.054,-0.954,0.214,-0.671,0.305,0.244,229.854
125409,134010,43087,-0.052,-0.954,0.214,-0.671,0.305,0.244,229.858
125409,133945,12511,-0.053,-0.951,0.214,-0.61,0.244,0.061,229.864
125404,134010,43087,-0.053,-0.948,0.218,-0.61,0.244,0.061,229.868
125404,133958,12504,-0.053,-0.946,0.217,-0.549,0.244,-0.183,229.874
125417,134010,43087,-0.054,-0.948,0.217,-0.549,0.244,-0.183,229.878
125417,133926,12519,-0.049,-0.945,0.218,-0.549,0.183,-0.305,229.884
125403,134010,43087,-0.047,-0.948,0.213,-0.549,0.183,-0.305,229.888
125403,133942,12520,-0.049,-0.951,0.211,-0.305,0.122,-0.366,229.894
125411,134010,43087,-0.052,-0.95,0.211,-0.305,0.122,-0.366,229.898
125411,133947,12516,-0.053,-0.948,0.212,-0.061,0.122,-0.122,229.904
125417,134010,43087,-0.048,-0.95,0.211,-0.061,0.122,-0.122,229.908
125417,133925,12519,-0.047,-0.952,0.216,0.244,0.244,0,229.914
125418,134010,43087,-0.047,-0.95,0.218,0.244,0.244,0,229.917
125418,133971,12517,-0.048,-0.953,0.216,0.427,0.366,0.183,229.924
125437,134010,43087,-0.047,-0.951,0.216,0.427,0.366,0.183,229.927
125437,133927,12514,-0.049,-0.95,0.221,0.61,0.488,0.366,229.934
125432,134010,43087,-0.052,-0.947,0.219,0.61,0.488,0.366,229.937
125432,133950,12527,-0.05,-0.945,0.215,0.488,0.427,0.183,229.943
125410,134010,43087,-0.047,-0.946,0.215,0.488,0.427,0.183,229.947
125410,133938,12512,-0.051,-0.949,0.219,0.061,0.488,0.183,229.953
125416,134010,43087,-0.051,-0.952,0.214,0.061,0.488,0.183,229.957
125416,133935,12526,-0.05,-0.948,0.21,0,0.488,0.305,229.963
125387,134010,43087,-0.049,-0.948,0.213,0,0.488,0.305,229.967
125387,133915,12519,-0.051,-0.948,0.218,0.122,0.488,0.427,229.973
125378,134010,43087,-0.051,-0.948,0.217,0.122,0.488,0.427,229.977
125378,133899,12522,-0.05,-0.947,0.216,0.244,0.427,0.61,229.983
125374,134010,43087,-0.049,-0.949,0.216,0.244,0.427,0.61,229.987
125374,133900,12514,-0.051,-0.952,0.22,0.427,0.427,0.793,229.993
125352,133754,43087,-0.054,-0.952,0.219,0.427,0.427,0.793,229.997
125352,133875,12504,-0.053,-0.949,0.217,0.366,0.488,0.915,230.003
125348,134010,43087,-0.053,-0.947,0.219,0.366,0.488,0.915,230.007
125348,133900,12501,-0.052,-0.949,0.223,-0.183,0.671,0.915,230.013
125345,134010,43087,-0.053,-0.947,0.224,-0.183,0.671,0.915,230.016
125345,133888,12490,-0.052,-0.944,0.22,-0.488,0.549,0.61,230.023
125348,134010,43087,-0.052,-0.944,0.22,-0.488,0.549,0.61,230.026
125348,133902,12494,-0.05,-0.949,0.216,-0.915,0.427,0.549,230.033
125358,133754,43087,-0.05,-0.949,0.216,-0.915,0.427,0.549,230.036
125358,133883,12516,-0.05,-0.948,0.218,-1.037,0.427,0.427,230.042
125353,134010,43087,-0.05,-0.948,0.218,-1.037,0.427,0.427,230.046
125353,133903,12502,-0.047,-0.947,0.215,-1.098,0.244,0.427,230.052
125353,134010,43087,-0.047,-0.947,0.215,-1.098,0.244,0.427,230.056
125353,133896,12491,-0.056,-0.95,0.215,-1.22,0.183,0.427,230.062
125365,134010,43087,-0.056,-0.95,0.215,-1.22,0.183,0.427,230.066
125365,133895,12524,-0.053,-0.951,0.214,-1.22,0.183,0.427,230.072
125365,134010,43087,-0.053,-0.951,0.214,-1.22,0.183,0.427,230.076
125365,133923,12517,-0.053,-0.953,0.217,-0.854,0.183,0.183,230.082
125387,134010,43087,-0.053,-0.953,0.217,-0.854,0.183,0.183,230.086
125387,133921,12513,-0.051,-0.953,0.212,-0.61,0.244,0.122,230.092
125382,134010,43087,-0.051,-0.953,0.212,-0.61,0.244,0.122,230.096
125382,133916,12523,-0.052,-0.949,0.214,-0.183,0.366,0,230.102
125395,134010,43087,-0.052,-0.949,0.214,-0.183,0.366,0,230.106
125395,133941,12510,-0.046,-0.947,0.215,0.244,0.366,0,230.112
125412,134010,43087,-0.046,-0.947,0.215,0.244,0.366,0,230.115
125412,133942,12499,-0.051,-0.949,0.217,0.305,0.427,0.183,230.122
125427,134010,43087,-0.051,-0.949,0.217,0.305,0.427,0.183,230.125
125427,133966,12506,-0.05,-0.948,0.215,0.366,0.366,0.366,230.132
125408,134010,43087,-0.05,-0.948,0.215,0.366,0.366,0.366,230.135
125408,133946,12515,-0.052,-0.948,0.217,0.305,0.488,0.671,230.141
125424,134010,43087,-0.052,-0.948,0.217,0.305,0.488,0.671,230.145
125424,133949,12527,-0.055,-0.95,0.214,0.183,0.488,0.915,230.151
125423,134010,43087,-0.055,-0.95,0.214,0.183,0.488,0.915,230.155
125423,133956,12517,-0.055,-0.953,0.215,0,0.488,0.976,230.161
125443,134010,43087,-0.055,-0.953,0.215,0,0.488,0.976,230.165
125443,133973,12520,-0.052,-0.948,0.214,0,0.488,0.976,230.171
125444,134010,43087,-0.053,-0.951,0.215,0.122,0.488,0.915,230.175
125444,133958,12517,-0.056,-0.951,0.215,0.122,0.488,0.915,230.181
125452,134010,43087,-0.053,-0.948,0.215,0.122,0.366,0.793,230.185
125452,133956,12509,-0.055,-0.946,0.216,0.122,0.366,0.793,230.191
125432,134010,43087,-0.054,-0.946,0.215,-0.122,0.427,0.61,230.195
125432,133967,12533,-0.051,-0.947,0.219,-0.122,0.427,0.61,230.201
125426,134010,43087,-0.055,-0.951,0.22,-0.244,0.427,0.427,230.205
125426,133943,12528,-0.056,-0.95,0.215,-0.244,0.427,0.427,230.211
125432,134010,43087,-0.054,-0.948,0.215,-0.427,0.427,0.305,230.214
125432,133958,12514,-0.055,-0.948,0.214,-0.427,0.427,0.305,230.221
125452,134010,43087,-0.052,-0.95,0.216,-0.488,0.305,0.244,230.224
125452,133975,12521,-0.052,-0.95,0.22,-0.488,0.305,0.244,230.23
125461,134010,43087,-0.052,-0.949,0.216,-0.732,0.305,0.061,230.234
125461,133984,12519,-0.053,-0.949,0.216,-0.732,0.305,0.061,230.24
125463,134010,43087,-0.053,-0.948,0.218,-0.671,0.244,0.183,230.244
125463,133981,12525,-0.053,-0.95,0.215,-0.671,0.244,0.183,230.25
125471,134010,43087,-0.052,-0.954,0.215,-0.61,0.366,0.244,230.254
125471,133990,12540,-0.05,-0.958,0.218,-0.61,0.366,0.244,230.26
125473,134010,43087,-0.051,-0.956,0.214,-0.305,0.427,0.183,230.264
125473,134004,12525,-0.052,-0.95,0.217,-0.305,0.427,0.183,230.27
125478,134010,43087,-0.051,-0.946,0.218,-0.061,0.488,0.427,230.274
125478,133981,12520,-0.052,-0.947,0.216,-0.061,0.488,0.427,230.28
125488,134010,43087,-0.05,-0.948,0.218,0,0.366,0.488,230.284
125488,133983,12534,-0.051,-0.951,0.217,0,0.366,0.488,230.29
125483,134010,43087,-0.052,-0.948,0.215,-0.061,0.366,0.488,230.294
125483,133983,12535,-0.051,-0.95,0.212,-0.061,0.366,0.488,230.3
125463,134010,43087,-0.05,-0.953,0.213,-0.061,0.488,0.488,230.303
125463,134001,12520,-0.051,-0.953,0.214,-0.061,0.488,0.488,230.31
125480,134010,43087,-0.051,-0.952,0.214,0.061,0.549,0.549,230.313
125480,133995,12523,-0.053,-0.947,0.213,0.061,0.549,0.549,230.32
125461,134010,43087,-0.051,-0.947,0.215,0,0.549,0.549,230.323
125461,134004,12532,-0.051,-0.948,0.217,0,0.549,0.549,230.329
125483,134010,43087,-0.054,-0.952,0.218,-0.122,0.549,0.61,230.333
125483,134005,12521,-0.054,-0.952,0.214,-0.122,0.549,0.61,230.339
125459,134010,43087,-0.052,-0.953,0.214,-0.183,0.549,0.854,230.343
125459,134003,12531,-0.054,-0.951,0.212,-0.183,0.549,0.854,230.349
125486,134010,43087,-0.055,-0.953,0.215,-0.061,0.549,0.854,230.353
125486,133983,12528,-0.056,-0.954,0.214,-0.061,0.549,0.854,230.359
125460,134010,43087,-0.053,-0.949,0.214,-0.061,0.549,0.854,230.363
125460,133978,12532,-0.057,-0.948,0.219,-0.061,0.549,0.854,230.369
125493,134010,43087,-0.056,-0.948,0.217,0.183,0.488,0.854,230.373
125493,134000,12521,-0.053,-0.948,0.215,0.183,0.488,0.854,230.379
125463,134010,43087,-0.053,-0.945,0.221,0.061,0.488,0.793,230.383
125463,133994,12522,-0.055,-0.944,0.224,0.061,0.488,0.793,230.389
125485,134010,43087,-0.052,-0.941,0.223,-0.488,0.366,0.61,230.393
125485,133987,12539,-0.049,-0.94,0.225,-0.488,0.366,0.61,230.399
125479,134010,43087,-0.052,-0.943,0.223,-1.646,0.183,0.427,230.402
125479,133978,12533,-0.051,-0.947,0.215,-1.646,0.183,0.427,230.409
125451,134010,43087,-0.051,-0.949,0.213,-2.622,0.122,0.183,230.412
125451,133990,12528,-0.05,-0.956,0.212,-2.622,0.122,0.183,230.419
125472,134010,43087,-0.05,-0.958,0.207,-2.744,0.122,0.183,230.422
125472,133980,12540,-0.051,-0.957,0.209,-2.744,0.122,0.183,230.428
125478,134010,43087,-0.05,-0.957,0.206,-1.951,0.366,0.549,230.432
125478,133979,12527,-0.05,-0.959,0.21,-1.951,0.366,0.549,230.438
125506,134010,43087,-0.048,-0.953,0.21,-0.427,0.61,0.976,230.442
125506,134005,12542,-0.05,-0.952,0.208,-0.427,0.61,0.976,230.448
125503,134010,43087,-0.048,-0.954,0.212,0.793,0.671,0.793,230.452
125503,134018,12540,-0.047,-0.954,0.217,0.793,0.671,0.793,230.458
125516,134010,43087,-0.051,-0.947,0.219,1.159,0.732,0.854,230.462
125516,133987,12546,-0.053,-0.944,0.221,1.159,0.732,0.854,230.468
125494,134010,43087,-0.054,-0.944,0.221,0.549,0.732,1.159,230.472
125494,134027,12537,-0.054,-0.947,0.219,0.549,0.732,1.159,230.478
125506,134010,43087,-0.052,-0.951,0.217,-0.549,0.671,1.098,230.482
125506,134014,12541,-0.053,-0.95,0.217,-0.549,0.671,1.098,230.488
125510,134010,43087,-0.051,-0.948,0.213,-1.159,0.549,1.098,230.492
125510,134016,12525,-0.053,-0.949,0.214,-1.159,0.549,1.098,230.498
125509,134010,43087,-0.054,-0.948,0.212,-1.22,0.488,1.159,230.501
125509,134014,12545,-0.054,-0.952,0.213,-1.22,0.488,1.159,230.508
125514,134010,43087,-0.056,-0.952,0.212,-0.915,0.549,1.22,230.511
125514,134015,12539,-0.054,-0.948,0.213,-0.915,0.549,1.22,230.518
125515,134010,43087,-0.056,-0.949,0.214,-0.671,0.549,1.098,230.521
125515,133999,12545,-0.056,-0.95,0.212,-0.671,0.549,1.098,230.527
125513,134010,43087,-0.055,-0.952,0.213,-0.488,0.549,1.159,230.531
125513,134047,12532,-0.058,-0.948,0.214,-0.488,0.549,1.159,230.537
125506,134010,43087,-0.057,-0.945,0.216,-0.671,0.549,1.341,230.541
125506,134025,12531,-0.057,-0.949,0.213,-0.671,0.549,1.341,230.547
125534,134010,43087,-0.054,-0.948,0.215,-1.159,0.61,1.402,230.551
125534,134021,12539,-0.055,-0.948,0.212,-1.159,0.61,1.402,230.557
125530,134010,43087,-0.056,-0.952,0.212,-1.159,0.61,1.159,230.561
125530,134001,12536,-0.057,-0.953,0.211,-1.159,0.61,1.159,230.567
125524,134010,43087,-0.06,-0.955,0.211,-1.159,0.427,1.037,230.571
125524,134022,12551,-0.058,-0.953,0.209,-1.159,0.427,1.037,230.577
125527,134010,43087,-0.056,-0.952,0.21,-1.159,0.488,1.037,230.581
125527,134035,12543,-0.056,-0.952,0.214,-1.159,0.488,1.037,230.587
125536,134010,43087,-0.057,-0.947,0.218,-0.976,0.488,0.793,230.591
125536,134043,12545,-0.052,-0.945,0.215,-0.976,0.488,0.793,230.597
125536,134010,43087,-0.057,-0.943,0.217,-1.037,0.366,0.61,230.6
125536,134051,12544,-0.056,-0.948,0.212,-1.037,0.366,0.61,230.607
125550,134010,43087,-0.056,-0.948,0.212,-1.037,0.366,0.61,230.61
125550,134072,12557,-0.055,-0.951,0.216,-1.341,0.183,0.488,230.617
125570,134010,43087,-0.055,-0.951,0.216,-1.341,0.183,0.488,230.62
125570,134069,12537,-0.051,-0.948,0.212,-1.646,0.244,0.427,230.626
125598,134010,43087,-0.051,-0.948,0.212,-1.646,0.244,0.427,230.63
125598,134073,12537,-0.053,-0.95,0.212,-1.707,0.244,0.549,230.636
125586,134010,43087,-0.053,-0.95,0.212,-1.707,0.244,0.549,230.64
125586,134063,12555,-0.051,-0.951,0.21,-1.524,0.244,0.732,230.646
125593,134010,43087,-0.051,-0.951,0.21,-1.524,0.244,0.732,230.65
125593,134075,12566,-0.054,-0.953,0.213,-1.524,0.366,0.976,230.656
125571,134010,43087,-0.054,-0.953,0.213,-1.524,0.366,0.976,230.66
125571,134089,12557,-0.053,-0.948,0.211,-1.585,0.488,1.22,230.666
125581,134010,43087,-0.053,-0.948,0.211,-1.585,0.488,1.22,230.67
125581,134066,12552,-0.053,-0.951,0.208,-1.707,0.61,1.28,230.676
125576,134010,43087,-0.053,-0.951,0.208,-1.707,0.61,1.28,230.68
125576,134067,12550,-0.057,-0.951,0.209,-1.463,0.732,1.524,230.686
125564,134010,43087,-0.057,-0.951,0.209,-1.463,0.732,1.524,230.69
125564,134065,12541,-0.055,-0.95,0.212,-0.854,0.732,1.585,230.696
125557,134010,43087,-0.055,-0.95,0.212,-0.854,0.732,1.585,230.699
125557,134051,12559,-0.052,-0.953,0.209,-0.305,0.915,1.707,230.706
125555,134010,43087,-0.052,-0.953,0.209,-0.305,0.915,1.707,230.709
125555,134045,12560,-0.058,-0.954,0.209,-0.122,0.976,1.951,230.715
125542,134010,43087,-0.058,-0.954,0.209,-0.122,0.976,1.951,230.719
125542,134062,12551,-0.059,-0.948,0.212,-0.061,0.915,1.951,230.725
125557,134010,43087,-0.059,-0.948,0.212,-0.061,0.915,1.951,230.729
125557,134040,12551,-0.057,-0.941,0.215,-0.488,0.793,1.89,230.735
125543,134010,43087,-0.057,-0.941,0.215,-0.488,0.793,1.89,230.739
125543,134049,12541,-0.06,-0.947,0.212,-1.402,0.671,1.646,230.745
125554,134010,43087,-0.06,-0.947,0.212,-1.402,0.671,1.646,230.749
125554,134069,12554,-0.058,-0.951,0.21,-2.561,0.427,1.28,230.755
125523,134010,43087,-0.056,-0.952,0.21,-2.561,0.427,1.28,230.759
125523,134053,12559,-0.059,-0.953,0.207,-2.988,0.305,1.037,230.765
125548,134010,43087,-0.06,-0.956,0.207,-2.988,0.305,1.037,230.769
125548,134053,12540,-0.058,-0.953,0.205,-2.5,0.183,0.915,230.775
125557,134010,43087,-0.057,-0.955,0.202,-2.5,0.183,0.915,230.779
125557,134044,12548,-0.058,-0.958,0.202,-1.829,0.183,0.793,230.785
125557,134010,43087,-0.06,-0.957,0.207,-1.829,0.183,0.793,230.789
125557,134053,12537,-0.059,-0.953,0.206,-1.402,0.183,0.671,230.795
125555,134010,43087,-0.06,-0.951,0.204,-1.402,0.183,0.671,230.798
125555,134056,12534,-0.058,-0.951,0.203,-0.793,0.183,0.671,230.805
125571,134010,43087,-0.059,-0.952,0.205,-0.793,0.183,0.671,230.808
125571,134074,12563,-0.054,-0.952,0.208,0,0.244,0.549,230.814
125557,134010,43087,-0.055,-0.953,0.205,0,0.244,0.549,230.818
125557,134061,12554,-0.056,-0.951,0.209,0.366,0.305,0.61,230.824
125579,134010,43087,-0.057,-0.95,0.213,0.366,0.305,0.61,230.828
125579,134088,12557,-0.054,-0.948,0.208,0.488,0.427,0.732,230.834
125575,134010,43087,-0.056,-0.948,0.21,0.488,0.427,0.732,230.838
125575,134071,12553,-0.056,-0.948,0.209,0.366,0.366,0.854,230.844
125568,134010,43087,-0.053,-0.95,0.212,0.366,0.366,0.854,230.848
125568,134063,12551,-0.052,-0.949,0.213,0.427,0.427,1.037,230.854
125565,134010,43087,-0.055,-0.951,0.211,0.427,0.427,1.037,230.858
125565,134080,12546,-0.055,-0.947,0.215,0.305,0.671,1.463,230.864
125565,134010,43087,-0.057,-0.946,0.214,0.305,0.671,1.463,230.868
125565,134068,12536,-0.058,-0.948,0.212,0,0.732,1.707,230.874
125541,134010,43087,-0.056,-0.948,0.209,0,0.732,1.707,230.878
125541,134023,12546,-0.056,-0.953,0.21,-0.488,0.854,1.951,230.884
125545,134010,43087,-0.061,-0.953,0.209,-0.488,0.854,1.951,230.888
125545,134051,12551,-0.06,-0.948,0.211,-0.244,0.915,2.134,230.894
125527,134010,43087,-0.059,-0.945,0.209,-0.244,0.915,2.134,230.897
125527,134021,12549,-0.062,-0.948,0.209,-0.305,0.854,2.195,230.904
125504,134010,43087,-0.062,-0.948,0.212,-0.305,0.854,2.195,230.907
125504,134028,12544,-0.059,-0.951,0.208,-0.61,0.793,2.134,230.913
125491,134010,43087,-0.061,-0.952,0.206,-0.61,0.793,2.134,230.917
125491,134029,12550,-0.064,-0.954,0.207,-0.793,0.854,1.951,230.923
125480,134010,43087,-0.064,-0.956,0.207,-0.793,0.854,1.951,230.927
125480,134031,12555,-0.061,-0.949,0.209,-0.671,0.854,1.646,230.933
125484,134010,43087,-0.063,-0.945,0.208,-0.671,0.854,1.646,230.937
125484,134003,12525,-0.062,-0.947,0.206,-0.305,0.793,1.28,230.943
125462,134010,43087,-0.062,-0.95,0.206,-0.305,0.793,1.28,230.947
125462,133987,12532,-0.061,-0.952,0.209,0.061,0.793,1.159,230.953
125450,134010,43087,-0.063,-0.95,0.21,0.061,0.793,1.159,230.957
125450,134020,12538,-0.063,-0.947,0.208,0.488,0.732,1.159,230.963
125459,134010,43087,-0.064,-0.951,0.209,0.488,0.732,1.159,230.967
125459,134015,12534,-0.062,-0.949,0.214,0.854,0.671,0.915,230.973
125451,134010,43087,-0.062,-0.946,0.216,0.854,0.671,0.915,230.977
125451,134012,12534,-0.063,-0.946,0.21,0.366,0.61,0.732,230.983
125458,134010,43087,-0.065,-0.948,0.213,0.366,0.61,0.732,230.986
125458,134035,12546,-0.065,-0.95,0.213,-0.305,0.305,0.488,230.993
125468,134010,43087,-0.064,-0.946,0.209,-0.305,0.305,0.488,230.996
125468,134028,12533,-0.063,-0.948,0.211,-0.671,0.183,0.183,231.003
125470,134010,43087,-0.063,-0.949,0.215,-0.671,0.183,0.183,231.006
125470,134008,12544,-0.065,-0.944,0.219,-0.915,0.061,0,231.012
125479,134010,43087,-0.064,-0.944,0.214,-0.915,0.061,0,231.016
125479,134027,12543,-0.066,-0.948,0.207,-1.768,-0.183,-0.122,231.022
125452,134010,43087,-0.065,-0.953,0.206,-1.768,-0.183,-0.122,231.026
125452,134012,12523,-0.064,-0.956,0.204,-2.012,-0.305,-0.244,231.032
125424,134010,43087,-0.063,-0.958,0.206,-2.012,-0.305,-0.244,231.036
125424,133989,12536,-0.064,-0.958,0.205,-1.22,-0.427,-0.61,231.042
125383,134010,43087,-0.066,-0.954,0.205,-1.22,-0.427,-0.61,231.046
125383,133976,12536,-0.065,-0.957,0.212,-0.366,-0.366,-0.61,231.052
125364,134010,43087,-0.063,-0.952,0.208,-0.366,-0.366,-0.61,231.056
125364,133955,12530,-0.064,-0.95,0.203,0,-0.305,-0.671,231.062
125358,134010,43087,-0.06,-0.953,0.207,0,-0.305,-0.671,231.066
125358,133955,12524,-0.063,-0.952,0.209,-0.061,-0.305,-0.854,231.072
125344,134010,43087,-0.063,-0.95,0.208,-0.061,-0.305,-0.854,231.076
125344,133951,12523,-0.06,-0.944,0.21,0.122,-0.244,-0.915,231.082
125346,134010,43087,-0.061,-0.946,0.211,0.122,-0.244,-0.915,231.085
125346,133948,12505,-0.062,-0.948,0.217,0.183,-0.305,-0.915,231.092
125341,134010,43087,-0.063,-0.947,0.215,0.183,-0.305,-0.915,231.095
125341,133923,12523,-0.062,-0.947,0.21,-0.427,-0.366,-0.854,231.102
125352,134010,43087,-0.063,-0.95,0.214,-0.427,-0.366,-0.854,231.105
125352,133933,12521,-0.064,-0.953,0.21,-1.341,-0.427,-1.037,231.111
125344,134010,43087,-0.061,-0.952,0.201,-1.341,-0.427,-1.037,231.115
125344,133934,12525,-0.058,-0.955,0.203,-1.707,-0.427,-1.22,231.121
125323,134010,43087,-0.055,-0.956,0.209,-1.707,-0.427,-1.22,231.125
125323,133951,12531,-0.053,-0.957,0.206,-1.159,-0.183,-1.159,231.131
125319,134010,43087,-0.056,-0.956,0.201,-1.159,-0.183,-1.159,231.135
125319,133948,12509,-0.059,-0.956,0.204,-0.244,0.244,-0.793,231.141
125340,134010,43087,-0.055,-0.954,0.204,-0.244,0.244,-0.793,231.145
125340,133924,12511,-0.054,-0.956,0.205,0.427,0.183,-0.671,231.151
125331,134010,43087,-0.055,-0.954,0.202,0.427,0.183,-0.671,231.155
125331,133941,12519,-0.053,-0.948,0.202,0.915,0.305,-0.61,231.161
125324,134010,43087,-0.055,-0.947,0.202,0.915,0.305,-0.61,231.165
125324,133924,12512,-0.054,-0.946,0.212,1.707,0.427,-0.488,231.171
125326,134010,43087,-0.056,-0.948,0.213,1.707,0.427,-0.488,231.175
125326,133940,12533,-0.055,-0.947,0.213,1.829,0.61,-0.732,231.181
125307,134010,43087,-0.055,-0.947,0.213,1.829,0.61,-0.732,231.184
125307,133927,12519,-0.053,-0.944,0.213,0.732,0.488,-0.732,231.191
125338,134010,43087,-0.053,-0.944,0.213,0.732,0.488,-0.732,231.194
125338,133943,12507,-0.057,-0.953,0.21,-0.305,0.183,-0.732,231.201
125343,134010,43087,-0.057,-0.953,0.21,-0.305,0.183,-0.732,231.204
125343,133919,12524,-0.054,-0.951,0.206,-0.854,0.122,-0.732,231.21
125335,134010,43087,-0.054,-0.951,0.206,-0.854,0.122,-0.732,231.214
125335,133962,12524,-0.052,-0.951,0.208,-0.854,0.122,-0.61,231.22
125345,134010,43087,-0.052,-0.951,0.208,-0.854,0.122,-0.61,231.224
125345,133957,12522,-0.05,-0.955,0.206,-0.671,-0.061,-0.488,231.23
125324,134010,43087,-0.05,-0.955,0.206,-0.671,-0.061,-0.488,231.234
125324,133956,12524,-0.055,-0.952,0.206,-0.427,-0.061,-0.366,231.24
125338,134010,43087,-0.055,-0.952,0.206,-0.427,-0.061,-0.366,231.244
125338,133943,12531,-0.053,-0.955,0.208,-0.061,-0.061,-0.244,231.25
125348,134010,43087,-0.053,-0.955,0.208,-0.061,-0.061,-0.244,231.254
125348,133955,12532,-0.056,-0.955,0.209,0.122,0.061,0.122,231.26
125358,134010,43087,-0.056,-0.955,0.209,0.122,0.061,0.122,231.264
125358,133982,12528,-0.055,-0.954,0.208,0.183,0.183,0.488,231.27
125377,134010,43087,-0.055,-0.954,0.208,0.183,0.183,0.488,231.274
125377,133979,12523,-0.053,-0.952,0.199,0.122,0.183,0.549,231.28
125372,134010,43087,-0.053,-0.952,0.199,0.122,0.183,0.549,231.283
