18,122,43087,0.059,-0.909,-0.323,-1.402,-0.122,1.22,266.747
18,12,0,0.058,-0.906,-0.322,-1.585,-0.122,1.159,266.754
14,122,43087,0.058,-0.906,-0.322,-1.585,-0.122,1.159,266.757
14,6,2,0.058,-0.906,-0.323,-1.402,0,1.159,266.764
21,122,43087,0.058,-0.906,-0.323,-1.402,0,1.159,266.767
21,0,2,0.058,-0.907,-0.323,-0.915,-0.061,1.098,266.773
0,122,43087,0.058,-0.907,-0.323,-0.915,-0.061,1.098,266.777
0,0,5,0.055,-0.904,-0.32,-0.671,0,0.854,266.783
7,122,43087,0.055,-0.904,-0.32,-0.671,0,0.854,266.787
7,0,1,0.062,-0.909,-0.321,-0.488,0.366,0.549,266.793
0,122,43087,0.062,-0.909,-0.321,-0.488,0.366,0.549,266.797
0,14,4,0.061,-0.908,-0.321,-0.61,0.793,0.122,266.803
7,122,43087,0.061,-0.908,-0.321,-0.61,0.793,0.122,266.807
7,15,5,0.058,-0.905,-0.32,-1.28,0.549,-0.244,266.813
9,122,43087,0.058,-0.905,-0.32,-1.28,0.549,-0.244,266.817
9,16,0,0.064,-0.908,-0.321,-1.402,0.122,-0.549,266.823
0,122,43087,0.064,-0.908,-0.321,-1.402,0.122,-0.549,266.827
0,0,6,0.064,-0.907,-0.321,-1.646,0.427,-0.183,266.833
19,122,43087,0.064,-0.907,-0.321,-1.646,0.427,-0.183,266.837
19,0,0,0.063,-0.907,-0.322,-1.646,0.549,0.427,266.843
0,122,43087,0.063,-0.907,-0.322,-1.646,0.549,0.427,266.846
0,24,0,0.064,-0.905,-0.322,-1.341,0.671,0.671,266.853
0,122,43087,0.064,-0.905,-0.322,-1.341,0.671,0.671,266.856
0,16,9,0.062,-0.907,-0.329,-1.098,0.61,0.793,266.863
8,122,43087,0.062,-0.907,-0.329,-1.098,0.61,0.793,266.866
8,5,0,0.059,-0.906,-0.327,-0.732,0.549,0.915,266.872
4,122,43087,0.059,-0.906,-0.327,-0.732,0.549,0.915,266.876
4,6,8,0.061,-0.904,-0.325,-0.488,0.427,1.098,266.882
23,122,43087,0.061,-0.904,-0.325,-0.488,0.427,1.098,266.886
23,13,17,0.061,-0.905,-0.332,-0.488,0.427,1.098,266.892
10,122,43087,0.059,-0.906,-0.329,-0.061,0.427,1.341,266.896
10,0,0,0.06,-0.907,-0.327,-0.061,0.427,1.341,266.902
8,122,43087,0.058,-0.906,-0.324,0.854,0.427,1.341,266.906
8,9,19,0.061,-0.905,-0.324,0.854,0.427,1.341,266.912
0,122,43087,0.06,-0.906,-0.328,1.22,0.427,1.159,266.916
0,9,9,0.06,-0.904,-0.325,1.22,0.427,1.159,266.922
2,122,43087,0.06,-0.906,-0.325,1.524,0.549,1.159,266.926
2,4,0,0.06,-0.907,-0.322,1.524,0.549,1.159,266.932
6,122,43087,0.057,-0.912,-0.32,1.951,0.488,1.098,266.936
6,0,7,0.057,-0.908,-0.32,1.951,0.488,1.098,266.942
3,122,43087,0.057,-0.907,-0.322,1.829,0.366,0.793,266.945
3,8,8,0.057,-0.907,-0.32,1.829,0.366,0.793,266.952
18,122,43087,0.058,-0.907,-0.321,1.22,0.488,0.427,266.955
18,9,0,0.058,-0.906,-0.319,1.22,0.488,0.427,266.962
16,122,43087,0.057,-0.908,-0.322,0.915,0.61,0.244,266.965
16,5,19,0.06,-0.907,-0.32,0.915,0.61,0.244,266.971
9,122,43087,0.062,-0.909,-0.32,1.22,0.61,0.122,266.975
9,4,0,0.06,-0.909,-0.319,1.22,0.61,0.122,266.981
3,122,43087,0.063,-0.905,-0.318,1.28,0.854,0.061,266.985
3,8,13,0.065,-0.911,-0.321,1.28,0.854,0.061,266.991
2,122,43087,0.062,-0.912,-0.322,1.402,1.341,0.122,266.995
2,4,2,0.054,-0.906,-0.319,1.402,1.341,0.122,267.001
11,122,43087,0.054,-0.908,-0.321,1.524,1.341,0.61,267.005
11,0,12,0.057,-0.908,-0.32,1.524,1.341,0.61,267.011
6,122,43087,0.059,-0.905,-0.316,1.89,0.549,0.427,267.015
6,0,12,0.064,-0.906,-0.32,1.89,0.549,0.427,267.021
9,122,43087,0.062,-0.904,-0.318,1.89,0.549,0,267.025
9,10,0,0.059,-0.907,-0.316,1.89,0.549,0,267.031
8,122,43087,0.06,-0.905,-0.32,1.646,0.854,0.061,267.035
8,0,0,0.062,-0.905,-0.314,1.646,0.854,0.061,267.041
14,122,43087,0.061,-0.904,-0.313,1.28,0.671,0.366,267.044
14,4,8,0.06,-0.906,-0.31,1.28,0.671,0.366,267.051
4,122,43087,0.058,-0.908,-0.315,0.976,0.488,0.244,267.054
4,6,4,0.059,-0.908,-0.315,0.976,0.488,0.244,267.061
3,122,43087,0.062,-0.908,-0.315,0.488,0.488,0.061,267.064
3,18,1,0.063,-0.904,-0.315,0.488,0.488,0.061,267.07
3,122,43087,0.063,-0.904,-0.316,-0.183,0.427,0.122,267.074
3,19,5,0.063,-0.906,-0.319,-0.183,0.427,0.122,267.08
7,122,43087,0.065,-0.909,-0.318,-0.244,0.366,0.061,267.084
7,6,22,0.062,-0.909,-0.316,-0.244,0.366,0.061,267.09
11,122,43087,0.064,-0.907,-0.319,-0.061,0.427,0.183,267.094
11,0,4,0.063,-0.906,-0.317,-0.061,0.427,0.183,267.1
4,122,43087,0.063,-0.906,-0.313,0.061,0.305,0.366,267.104
4,12,9,0.061,-0.906,-0.31,0.061,0.305,0.366,267.11
3,122,43087,0.062,-0.909,-0.312,0.183,0.183,0.244,267.114
3,14,4,0.061,-0.907,-0.314,0.183,0.183,0.244,267.12
2,122,43087,0.061,-0.908,-0.315,-0.305,0.244,0.122,267.124
2,8,12,0.062,-0.907,-0.315,-0.305,0.244,0.122,267.13
26,122,43087,0.061,-0.904,-0.316,-0.732,0.183,0.122,267.134
26,17,5,0.064,-0.907,-0.318,-0.732,0.183,0.122,267.14
2,122,43087,0.064,-0.91,-0.318,-0.61,0.061,0.183,267.143
2,4,6,0.062,-0.906,-0.318,-0.61,0.061,0.183,267.15
17,122,43087,0.065,-0.91,-0.316,-0.488,0,0.488,267.153
17,5,5,0.064,-0.911,-0.317,-0.488,0,0.488,267.16
0,122,43087,0.062,-0.907,-0.317,-0.366,0,0.915,267.163
0,0,18,0.06,-0.909,-0.315,-0.366,0,0.915,267.169
0,122,43087,0.06,-0.909,-0.315,-0.427,0.183,0.976,267.173
0,3,11,0.06,-0.907,-0.318,-0.427,0.183,0.976,267.179
0,122,43087,0.06,-0.908,-0.32,-0.671,0.244,1.098,267.183
0,5,0,0.062,-0.909,-0.319,-0.671,0.244,1.098,267.189
3,122,43087,0.06,-0.906,-0.315,-0.488,0.244,0.976,267.193
3,12,1,0.062,-0.906,-0.316,-0.488,0.244,0.976,267.199
22,122,43087,0.061,-0.909,-0.318,-0.427,0.305,0.854,267.203
22,0,9,0.059,-0.908,-0.317,-0.427,0.305,0.854,267.209
5,122,43087,0.063,-0.908,-0.316,-0.244,0.244,0.854,267.213
5,16,10,0.061,-0.907,-0.315,-0.244,0.244,0.854,267.219
6,122,43087,0.06,-0.91,-0.318,-0.244,0.244,0.732,267.223
6,7,0,0.062,-0.908,-0.322,-0.244,0.244,0.732,267.229
4,122,43087,0.06,-0.908,-0.32,-0.488,0.244,0.732,267.233
4,16,4,0.06,-0.906,-0.317,-0.488,0.244,0.732,267.239
24,122,43087,0.063,-0.906,-0.317,-0.305,0.305,0.732,267.242
24,1,9,0.059,-0.909,-0.323,-0.305,0.305,0.732,267.249
0,122,43087,0.06,-0.906,-0.321,-0.122,0.305,0.671,267.252
0,11,1,0.063,-0.908,-0.314,-0.122,0.305,0.671,267.258
25,122,43087,0.059,-0.91,-0.315,0,0.366,0.61,267.262
25,0,14,0.06,-0.908,-0.321,0,0.366,0.61,267.268
1,122,43087,0.06,-0.906,-0.318,0.122,0.366,0.549,267.272
1,0,15,0.061,-0.905,-0.317,0.122,0.366,0.549,267.278
3,122,43087,0.059,-0.906,-0.316,0.366,0.366,0.61,267.282
3,0,0,0.059,-0.908,-0.314,0.366,0.366,0.61,267.288
2,122,43087,0.06,-0.908,-0.313,0.427,0.366,0.427,267.292
2,12,22,0.061,-0.908,-0.314,0.427,0.366,0.427,267.298
13,122,43087,0.062,-0.909,-0.316,-0.061,0.366,0.366,267.302
13,8,10,0.059,-0.907,-0.316,-0.061,0.366,0.366,267.308
11,122,43087,0.06,-0.909,-0.318,-0.366,0.366,0.488,267.312
11,0,2,0.057,-0.909,-0.319,-0.366,0.366,0.488,267.318
5,122,43087,0.057,-0.907,-0.32,-0.183,0.427,0.366,267.322
5,0,0,0.059,-0.908,-0.317,-0.183,0.427,0.366,267.328
0,122,43087,0.059,-0.908,-0.317,-0.183,0.427,0.366,267.331
0,22,0,0.063,-0.916,-0.314,0.122,0.488,0.305,267.338
0,122,43087,0.063,-0.916,-0.314,0.122,0.488,0.305,267.341
0,10,0,0.056,-0.901,-0.318,-0.122,0.61,0.366,267.348
8,122,43087,0.056,-0.901,-0.318,-0.122,0.61,0.366,267.351
8,11,11,0.06,-0.905,-0.316,-0.488,0.671,0.61,267.357
5,122,43087,0.06,-0.905,-0.316,-0.488,0.671,0.61,267.361
5,1,1,0.063,-0.913,-0.32,-0.366,0.427,0.366,267.367
4,122,43087,0.063,-0.913,-0.32,-0.366,0.427,0.366,267.371
4,14,1,0.06,-0.906,-0.314,-0.427,0.488,0.366,267.377
8,122,43087,0.06,-0.906,-0.314,-0.427,0.488,0.366,267.381
8,5,17,0.06,-0.905,-0.316,-0.488,0.61,0.671,267.387
0,122,43087,0.06,-0.905,-0.316,-0.488,0.61,0.671,267.391
0,0,3,0.059,-0.907,-0.319,-0.549,0.366,0.61,267.397
12,122,43087,0.059,-0.907,-0.319,-0.549,0.366,0.61,267.401
12,5,9,0.06,-0.908,-0.319,-0.732,0.305,0.549,267.407
4,122,43087,0.06,-0.908,-0.319,-0.732,0.305,0.549,267.411
4,0,11,0.061,-0.907,-0.319,-0.366,0.549,0.61,267.417
4,122,43087,0.061,-0.907,-0.319,-0.366,0.549,0.61,267.421
4,28,0,0.056,-0.909,-0.317,0,0.671,0.671,267.427
4,122,43087,0.056,-0.909,-0.317,0,0.671,0.671,267.431
4,11,8,0.055,-0.902,-0.311,0.183,0.244,0.549,267.437
3,122,43087,0.055,-0.902,-0.311,0.183,0.244,0.549,267.44
3,10,0,0.061,-0.908,-0.319,-0.488,-0.183,0.061,267.447
0,122,43087,0.061,-0.908,-0.319,-0.488,-0.183,0.061,267.45
0,15,17,0.057,-0.91,-0.324,-1.098,0.122,-0.122,267.456
15,122,43087,0.057,-0.91,-0.324,-1.098,0.122,-0.122,267.46
15,0,8,0.061,-0.906,-0.326,-0.549,0.366,-0.183,267.466
12,122,43087,0.061,-0.906,-0.326,-0.549,0.366,-0.183,267.47
12,7,12,0.062,-0.912,-0.328,0.366,0.488,-0.305,267.476
6,122,43087,0.059,-0.914,-0.32,0.366,0.488,-0.305,267.48
6,8,0,0.056,-0.909,-0.312,1.402,0.793,-0.305,267.486
0,122,43087,0.059,-0.904,-0.313,1.402,0.793,-0.305,267.49
0,12,16,0.062,-0.899,-0.315,1.28,0.976,-0.61,267.496
13,122,43087,0.06,-0.902,-0.317,1.28,0.976,-0.61,267.5
13,0,8,0.061,-0.91,-0.319,1.28,1.037,-0.793,267.506
8,122,43087,0.064,-0.912,-0.319,1.28,1.037,-0.793,267.51
8,2,10,0.063,-0.916,-0.322,1.463,1.28,-0.793,267.516
0,122,43087,0.062,-0.911,-0.322,1.463,1.28,-0.793,267.52
0,5,0,0.062,-0.909,-0.317,1.646,1.28,-0.488,267.526
21,122,43087,0.065,-0.906,-0.313,1.646,1.28,-0.488,267.529
21,13,7,0.065,-0.904,-0.312,1.951,1.098,-0.244,267.536
20,122,43087,0.063,-0.905,-0.309,1.951,1.098,-0.244,267.539
20,0,12,0.062,-0.905,-0.311,1.463,0.915,0.061,267.546
3,122,43087,0.061,-0.905,-0.312,1.463,0.915,0.061,267.549
3,7,0,0.062,-0.905,-0.313,0.427,0.671,0.183,267.555
8,122,43087,0.064,-0.909,-0.316,0.427,0.671,0.183,267.559
8,5,12,0.063,-0.909,-0.313,-0.244,0.61,0.122,267.565
10,122,43087,0.062,-0.909,-0.314,-0.244,0.61,0.122,267.569
10,3,10,0.061,-0.912,-0.314,-0.061,0.671,0.305,267.575
20,122,43087,0.061,-0.91,-0.312,-0.061,0.671,0.305,267.579
20,0,0,0.063,-0.91,-0.311,0.244,0.671,0.366,267.585
4,122,43087,0.059,-0.908,-0.31,0.244,0.671,0.366,267.589
4,12,0,0.06,-0.907,-0.311,0.244,0.61,0.427,267.595
14,122,43087,0.059,-0.905,-0.308,0.244,0.61,0.427,267.599
14,0,2,0.057,-0.903,-0.31,-0.488,0.427,0.488,267.605
8,122,43087,0.062,-0.907,-0.308,-0.488,0.427,0.488,267.609
8,7,1,0.061,-0.905,-0.31,-1.28,0.244,0.244,267.615
6,122,43087,0.063,-0.902,-0.309,-1.28,0.244,0.244,267.619
6,0,8,0.065,-0.903,-0.305,-1.768,0.183,0,267.625
2,122,43087,0.067,-0.906,-0.307,-1.768,0.183,0,267.628
2,3,0,0.067,-0.905,-0.306,-2.5,0.244,0.061,267.635
3,122,43087,0.068,-0.906,-0.313,-2.5,0.244,0.061,267.638
3,4,6,0.067,-0.906,-0.319,-3.476,0.122,0.244,267.645
0,122,43087,0.067,-0.906,-0.325,-3.476,0.122,0.244,267.648
0,0,17,0.069,-0.907,-0.319,-3.902,0.122,0.427,267.654
5,122,43087,0.067,-0.905,-0.319,-3.902,0.122,0.427,267.658
5,0,14,0.064,-0.907,-0.323,-3.902,0.122,0.793,267.664
3,122,43087,0.066,-0.905,-0.32,-3.902,0.122,0.793,267.668
3,7,1,0.064,-0.905,-0.32,-3.598,0.061,1.037,267.674
2,122,43087,0.062,-0.907,-0.325,-3.598,0.061,1.037,267.678
2,5,0,0.065,-0.909,-0.326,-3.11,0,0.976,267.684
7,122,43087,0.062,-0.909,-0.325,-3.11,0,0.976,267.688
7,0,21,0.062,-0.911,-0.324,-2.317,0.061,0.976,267.694
8,122,43087,0.062,-0.909,-0.319,-2.317,0.061,0.976,267.698
8,3,12,0.061,-0.906,-0.321,-1.585,-0.061,1.28,267.704
18,122,43087,0.062,-0.912,-0.32,-1.585,-0.061,1.28,267.708
18,4,0,0.059,-0.906,-0.324,-1.646,-0.183,1.707,267.714
8,122,43087,0.06,-0.906,-0.325,-1.646,-0.183,1.707,267.718
8,14,14,0.059,-0.908,-0.322,-1.28,0,1.89,267.724
16,122,43087,0.055,-0.908,-0.322,-1.28,0,1.89,267.727
16,0,14,0.057,-0.909,-0.319,-0.793,0,1.768,267.734
2,122,43087,0.058,-0.907,-0.325,-0.793,0,1.768,267.737
2,6,0,0.056,-0.907,-0.328,-0.488,0.061,1.646,267.744
9,122,43087,0.054,-0.906,-0.323,-0.488,0.061,1.646,267.747
9,1,2,0.058,-0.905,-0.323,-0.244,0.061,1.646,267.753
0,122,43087,0.057,-0.906,-0.327,-0.244,0.061,1.646,267.757
0,6,1,0.055,-0.905,-0.321,-0.061,-0.061,1.707,267.763
0,122,43087,0.059,-0.907,-0.324,-0.061,-0.061,1.707,267.767
0,0,17,0.059,-0.909,-0.328,-0.061,0.183,1.829,267.773
8,122,43087,0.058,-0.912,-0.324,-0.061,0.183,1.829,267.777
8,0,5,0.053,-0.912,-0.327,0.183,0.854,2.012,267.783
11,122,43087,0.053,-0.911,-0.326,0.183,0.854,2.012,267.787
11,5,10,0.052,-0.908,-0.323,0.427,0.732,2.5,267.793
0,122,43087,0.055,-0.905,-0.323,0.427,0.732,2.5,267.797
0,16,20,0.056,-0.904,-0.32,0.671,0.122,2.256,267.803
7,122,43087,0.058,-0.904,-0.32,0.671,0.122,2.256,267.807
7,11,19,0.054,-0.91,-0.321,0.915,0.244,1.951,267.813
22,122,43087,0.052,-0.91,-0.323,0.915,0.244,1.951,267.817
22,1,0,0.051,-0.909,-0.325,1.22,0.732,1.646,267.823
2,122,43087,0.049,-0.909,-0.32,1.22,0.732,1.646,267.826
2,6,0,0.049,-0.907,-0.322,1.159,0.732,1.22,267.833
4,122,43087,0.053,-0.906,-0.321,1.159,0.732,1.22,267.836
4,2,5,0.052,-0.91,-0.319,1.159,0.549,0.427,267.842
6,122,43087,0.053,-0.908,-0.318,1.159,0.549,0.427,267.846
6,6,13,0.055,-0.909,-0.32,1.098,0.671,-0.122,267.852
0,122,43087,0.059,-0.908,-0.321,1.098,0.671,-0.122,267.856
0,8,20,0.051,-0.907,-0.317,0.976,0.793,-0.671,267.862
13,122,43087,0.052,-0.907,-0.317,0.976,0.793,-0.671,267.866
13,4,13,0.053,-0.912,-0.315,0.793,0.61,-0.976,267.872
16,122,43087,0.057,-0.908,-0.317,0.793,0.61,-0.976,267.876
16,5,17,0.057,-0.902,-0.319,0.366,0.488,-1.341,267.882
0,122,43087,0.061,-0.902,-0.315,0.366,0.488,-1.341,267.886
0,0,13,0.061,-0.906,-0.317,0.061,0.427,-1.463,267.892
2,122,43087,0.066,-0.908,-0.318,0.061,0.427,-1.463,267.896
2,0,0,0.065,-0.908,-0.316,0.061,0.366,-1.22,267.902
27,122,43087,0.059,-0.907,-0.315,0.061,0.366,-1.22,267.906
27,0,0,0.062,-0.904,-0.315,-0.183,0.183,-0.671,267.912
0,122,43087,0.062,-0.904,-0.315,-0.183,0.183,-0.671,267.916
0,0,18,0.06,-0.908,-0.318,-0.244,0.183,-0.244,267.922
0,122,43087,0.06,-0.908,-0.318,-0.244,0.183,-0.244,267.925
0,19,6,0.063,-0.905,-0.312,-0.366,0.183,0,267.932
13,122,43087,0.063,-0.905,-0.312,-0.366,0.183,0,267.935
13,4,8,0.061,-0.907,-0.317,-0.793,0.305,0.183,267.941
6,122,43087,0.061,-0.907,-0.317,-0.793,0.305,0.183,267.945
6,2,7,0.058,-0.909,-0.316,-1.22,0.305,0.244,267.951
12,122,43087,0.058,-0.909,-0.316,-1.22,0.305,0.244,267.955
12,11,12,0.058,-0.909,-0.317,-1.585,0.061,0.244,267.961
8,122,43087,0.058,-0.909,-0.317,-1.585,0.061,0.244,267.965
8,0,1,0.066,-0.914,-0.319,-1.524,-0.061,0.305,267.971
3,122,43087,0.066,-0.914,-0.319,-1.524,-0.061,0.305,267.975
3,10,2,0.057,-0.904,-0.321,-1.524,0,0.488,267.981
6,122,43087,0.057,-0.904,-0.321,-1.524,0,0.488,267.985
6,0,12,0.058,-0.905,-0.319,-1.402,0.183,0.732,267.991
3,122,43087,0.058,-0.905,-0.319,-1.402,0.183,0.732,267.995
3,0,4,0.058,-0.904,-0.319,-1.037,0.244,0.671,268.001
15,122,43087,0.058,-0.904,-0.319,-1.037,0.244,0.671,268.005
15,0,0,0.06,-0.906,-0.319,-0.366,0.366,0.61,268.011
7,122,43087,0.06,-0.906,-0.319,-0.366,0.366,0.61,268.015
7,5,0,0.061,-0.907,-0.322,-0.122,0.488,0.732,268.021
0,122,43087,0.061,-0.907,-0.322,-0.122,0.488,0.732,268.024
0,1,10,0.062,-0.905,-0.321,0,0.427,0.732,268.031
18,122,43087,0.062,-0.905,-0.321,0,0.427,0.732,268.034
18,0,10,0.06,-0.907,-0.321,0.366,0.427,0.671,268.04
23,122,43087,0.06,-0.907,-0.321,0.366,0.427,0.671,268.044
23,0,9,0.06,-0.907,-0.323,0.366,0.427,0.671,268.05
3,122,43087,0.057,-0.908,-0.321,0.61,0.427,0.671,268.054
3,0,2,0.059,-0.907,-0.321,0.61,0.427,0.671,268.06
0,122,43087,0.061,-0.905,-0.316,0.732,0.366,0.61,268.064
0,9,4,0.061,-0.91,-0.321,0.732,0.366,0.61,268.07
0,122,43087,0.059,-0.907,-0.316,0.61,0.427,0.549,268.074
0,18,15,0.06,-0.905,-0.318,0.61,0.427,0.549,268.08
6,122,43087,0.059,-0.906,-0.318,0.305,0.549,0.427,268.084
6,5,24,0.058,-0.906,-0.32,0.305,0.549,0.427,268.09
0,122,43087,0.056,-0.906,-0.321,0.366,0.549,0.427,268.094
0,4,11,0.06,-0.905,-0.32,0.366,0.549,0.427,268.1
23,122,43087,0.062,-0.906,-0.322,0.732,0.549,0.366,268.104
23,4,14,0.057,-0.908,-0.32,0.732,0.549,0.366,268.11
17,122,43087,0.058,-0.907,-0.318,1.037,0.488,0.366,268.114
17,0,3,0.06,-0.909,-0.315,1.037,0.488,0.366,268.12
19,122,43087,0.057,-0.909,-0.316,1.098,0.488,0.244,268.123
19,6,1,0.059,-0.909,-0.317,1.098,0.488,0.244,268.13
14,122,43087,0.058,-0.906,-0.318,0.793,0.488,0.305,268.133
14,9,4,0.059,-0.911,-0.32,0.793,0.488,0.305,268.139
1,122,43087,0.058,-0.907,-0.316,0.488,0.427,0.61,268.143
1,0,1,0.06,-0.909,-0.316,0.488,0.427,0.61,268.149
0,122,43087,0.059,-0.91,-0.316,0.244,0.427,0.854,268.153
0,24,0,0.059,-0.91,-0.317,0.244,0.427,0.854,268.159
11,122,43087,0.061,-0.909,-0.314,-0.366,0.305,0.854,268.163
11,6,19,0.061,-0.906,-0.318,-0.366,0.305,0.854,268.169
18,122,43087,0.061,-0.907,-0.319,-0.793,0.061,0.976,268.173
18,11,0,0.057,-0.911,-0.319,-0.793,0.061,0.976,268.179
0,122,43087,0.059,-0.91,-0.318,-0.915,0.122,1.098,268.183
0,17,0,0.058,-0.908,-0.318,-0.915,0.122,1.098,268.189
20,122,43087,0.057,-0.909,-0.317,-1.22,0.122,1.098,268.193
20,20,0,0.055,-0.906,-0.319,-1.22,0.122,1.098,268.199
18,122,43087,0.055,-0.907,-0.322,-1.524,0,1.28,268.203
18,2,0,0.059,-0.908,-0.32,-1.524,0,1.28,268.209
0,122,43087,0.056,-0.907,-0.323,-1.341,0,1.22,268.212
0,0,0,0.057,-0.909,-0.322,-1.341,0,1.22,268.219
0,122,43087,0.057,-0.907,-0.319,-1.22,0,1.159,268.222
0,7,1,0.058,-0.905,-0.319,-1.22,0,1.159,268.229
0,122,43087,0.06,-0.908,-0.318,-0.976,0.061,1.159,268.232
0,12,0,0.056,-0.908,-0.318,-0.976,0.061,1.159,268.238
15,122,43087,0.062,-0.908,-0.318,-0.976,0.122,1.159,268.242
15,0,12,0.06,-0.907,-0.321,-0.976,0.122,1.159,268.248
4,122,43087,0.056,-0.906,-0.32,-1.037,0.122,1.28,268.252
4,5,15,0.055,-0.906,-0.323,-1.037,0.122,1.28,268.258
5,122,43087,0.054,-0.907,-0.323,-0.854,0.183,1.463,268.262
5,1,4,0.054,-0.909,-0.318,-0.854,0.183,1.463,268.268
7,122,43087,0.057,-0.907,-0.319,-0.61,0.061,1.524,268.272
7,0,19,0.056,-0.907,-0.323,-0.61,0.061,1.524,268.278
8,122,43087,0.054,-0.907,-0.322,-0.61,0.122,1.28,268.282
8,17,0,0.054,-0.911,-0.321,-0.61,0.122,1.28,268.288
2,122,43087,0.05,-0.907,-0.324,-0.488,0.183,1.159,268.292
2,4,8,0.052,-0.907,-0.326,-0.488,0.183,1.159,268.298
7,122,43087,0.056,-0.908,-0.324,-0.244,0.183,0.976,268.302
7,4,5,0.053,-0.909,-0.323,-0.244,0.183,0.976,268.308
2,122,43087,0.056,-0.907,-0.323,0,0.244,0.793,268.311
2,0,3,0.054,-0.907,-0.32,0,0.244,0.793,268.318
14,122,43087,0.056,-0.907,-0.32,-0.061,0.305,0.915,268.321
14,13,0,0.057,-0.91,-0.323,-0.061,0.305,0.915,268.328
4,122,43087,0.055,-0.909,-0.32,-0.244,0.305,0.976,268.331
4,6,12,0.052,-0.909,-0.323,-0.244,0.305,0.976,268.337
8,122,43087,0.05,-0.909,-0.323,-0.183,0.244,0.976,268.341
8,19,11,0.057,-0.905,-0.321,-0.183,0.244,0.976,268.347
18,122,43087,0.054,-0.904,-0.324,0,0.305,0.854,268.351
18,11,1,0.051,-0.905,-0.324,0,0.305,0.854,268.357
4,122,43087,0.052,-0.911,-0.323,0.488,0.366,0.732,268.361
4,11,0,0.053,-0.909,-0.322,0.488,0.366,0.732,268.367
0,122,43087,0.054,-0.908,-0.32,1.159,0.488,0.549,268.371
0,2,0,0.054,-0.91,-0.317,1.159,0.488,0.549,268.377
3,122,43087,0.052,-0.907,-0.318,1.22,0.61,0.183,268.381
3,8,4,0.053,-0.904,-0.319,1.22,0.61,0.183,268.387
1,122,43087,0.056,-0.908,-0.322,0.671,0.61,0.244,268.391
1,5,2,0.055,-0.908,-0.318,0.671,0.61,0.244,268.397
14,122,43087,0.053,-0.907,-0.318,0.793,0.61,0.305,268.401
14,11,3,0.054,-0.91,-0.317,0.793,0.61,0.305,268.407
4,122,43087,0.053,-0.908,-0.316,0.732,0.61,0.122,268.41
4,11,0,0.057,-0.907,-0.315,0.732,0.61,0.122,268.417
15,122,43087,0.057,-0.908,-0.313,0.305,0.549,0.061,268.42
15,12,5,0.056,-0.908,-0.318,0.305,0.549,0.061,268.427
2,122,43087,0.06,-0.909,-0.321,-0.305,0.488,0.122,268.43
2,7,9,0.06,-0.906,-0.321,-0.305,0.488,0.122,268.436
0,122,43087,0.059,-0.908,-0.322,-0.305,0.488,0.427,268.44
0,6,0,0.059,-0.907,-0.319,-0.305,0.488,0.427,268.446
3,122,43087,0.059,-0.908,-0.315,0.183,0.488,0.488,268.45
3,5,13,0.06,-0.907,-0.318,0.183,0.488,0.488,268.456
27,122,43087,0.059,-0.904,-0.316,0.061,0.488,0.61,268.46
27,7,7,0.056,-0.905,-0.319,0.061,0.488,0.61,268.466
0,122,43087,0.054,-0.909,-0.317,-0.183,0.549,0.854,268.47
0,18,0,0.059,-0.908,-0.319,-0.183,0.549,0.854,268.476
0,122,43087,0.054,-0.905,-0.318,0.061,0.488,0.793,268.48
0,0,0,0.055,-0.908,-0.32,0.061,0.488,0.793,268.486
6,122,43087,0.055,-0.908,-0.32,0.061,0.488,0.793,268.49
6,12,24,0.053,-0.906,-0.317,0.183,0.488,0.793,268.496
27,122,43087,0.053,-0.906,-0.317,0.183,0.488,0.793,268.5
27,0,1,0.055,-0.909,-0.319,0.305,0.427,0.854,268.506
10,122,43087,0.055,-0.909,-0.319,0.305,0.427,0.854,268.509
10,15,11,0.055,-0.908,-0.316,0,0.488,0.854,268.516
0,122,43087,0.055,-0.908,-0.316,0,0.488,0.854,268.519
0,8,12,0.052,-0.908,-0.323,-0.061,0.488,0.732,268.526
1,122,43087,0.052,-0.908,-0.323,-0.061,0.488,0.732,268.529
1,4,1,0.051,-0.906,-0.319,0,0.488,0.671,268.535
10,122,43087,0.051,-0.906,-0.319,0,0.488,0.671,268.539
10,22,6,0.055,-0.909,-0.316,0.122,0.488,0.427,268.545
5,122,43087,0.055,-0.909,-0.316,0.122,0.488,0.427,268.549
5,0,11,0.055,-0.906,-0.318,-0.061,0.427,0.366,268.555
0,122,43087,0.055,-0.906,-0.318,-0.061,0.427,0.366,268.559
0,0,0,0.055,-0.908,-0.322,-0.305,0.244,0.549,268.565
26,122,43087,0.055,-0.908,-0.322,-0.305,0.244,0.549,268.569
26,0,12,0.054,-0.91,-0.323,-0.305,0.183,0.549,268.575
2,122,43087,0.054,-0.91,-0.323,-0.305,0.183,0.549,268.579
2,12,11,0.056,-0.907,-0.322,-0.183,0.305,0.61,268.585
28,122,43087,0.056,-0.907,-0.322,-0.183,0.305,0.61,268.589
28,5,1,0.055,-0.908,-0.316,0,0.244,0.61,268.595
13,122,43087,0.055,-0.908,-0.316,0,0.244,0.61,268.599
13,2,7,0.053,-0.907,-0.321,-0.244,0.244,0.549,268.605
8,122,43087,0.053,-0.907,-0.321,-0.244,0.244,0.549,268.608
8,0,11,0.053,-0.907,-0.32,-0.366,0.366,0.61,268.615
8,122,43087,0.053,-0.907,-0.32,-0.366,0.366,0.61,268.618
8,4,9,0.053,-0.908,-0.323,-0.305,0.427,0.488,268.625
0,122,43087,0.053,-0.908,-0.323,-0.305,0.427,0.488,268.628
0,7,15,0.053,-0.908,-0.322,-0.244,0.488,0.244,268.634
12,122,43087,0.054,-0.906,-0.32,-0.244,0.488,0.244,268.638
12,0,3,0.051,-0.911,-0.318,0.061,0.549,0.122,268.644
18,122,43087,0.053,-0.907,-0.318,0.061,0.549,0.122,268.648
18,0,11,0.058,-0.906,-0.315,0.427,0.488,0,268.654
0,122,43087,0.055,-0.908,-0.313,0.427,0.488,0,268.658
0,12,0,0.055,-0.909,-0.316,0,0.427,0,268.664
10,122,43087,0.058,-0.91,-0.314,0,0.427,0,268.668
10,10,6,0.057,-0.909,-0.313,-0.549,0.366,0.122,268.674
14,122,43087,0.06,-0.905,-0.317,-0.549,0.366,0.122,268.678
14,14,0,0.056,-0.905,-0.323,-0.976,0.366,0.244,268.684
9,122,43087,0.057,-0.907,-0.322,-0.976,0.366,0.244,268.688
9,0,12,0.056,-0.907,-0.32,-0.793,0.366,0.305,268.694
10,122,43087,0.055,-0.907,-0.323,-0.793,0.366,0.305,268.698
10,10,11,0.055,-0.906,-0.32,-0.549,0.366,0.305,268.704
6,122,43087,0.057,-0.908,-0.324,-0.549,0.366,0.305,268.707
6,17,22,0.055,-0.909,-0.32,-0.427,0.366,0.244,268.714
4,122,43087,0.058,-0.906,-0.321,-0.427,0.366,0.244,268.717
4,10,3,0.059,-0.907,-0.318,-0.122,0.305,0.183,268.723
4,122,43087,0.053,-0.907,-0.316,-0.122,0.305,0.183,268.727
4,17,1,0.056,-0.909,-0.318,-0.183,0.366,0.244,268.733
15,122,43087,0.054,-0.907,-0.315,-0.183,0.366,0.244,268.737
15,3,6,0.055,-0.91,-0.32,-0.427,0.305,0.244,268.743
19,122,43087,0.059,-0.906,-0.318,-0.427,0.305,0.244,268.747
19,0,20,0.056,-0.907,-0.317,-0.549,0.244,0.183,268.753
17,122,43087,0.054,-0.909,-0.319,-0.549,0.244,0.183,268.757
17,1,0,0.054,-0.908,-0.319,-0.671,0.305,0.305,268.763
10,122,43087,0.05,-0.907,-0.32,-0.671,0.305,0.305,268.767
10,22,19,0.055,-0.907,-0.322,-0.854,0.244,0.244,268.773
6,122,43087,0.054,-0.906,-0.319,-0.854,0.244,0.244,268.777
6,8,0,0.053,-0.907,-0.319,-0.976,0.305,0.366,268.783
15,122,43087,0.057,-0.907,-0.32,-0.976,0.305,0.366,268.787
15,5,1,0.058,-0.907,-0.322,-0.549,0.366,0.305,268.793
14,122,43087,0.052,-0.909,-0.315,-0.549,0.366,0.305,268.797
14,9,11,0.055,-0.908,-0.317,-0.61,0.366,0.366,268.803
14,122,43087,0.057,-0.905,-0.322,-0.61,0.366,0.366,268.806
14,12,0,0.056,-0.905,-0.319,-0.915,0.366,0.366,268.813
10,122,43087,0.058,-0.907,-0.324,-0.915,0.366,0.366,268.816
10,8,12,0.056,-0.908,-0.327,-0.793,0.366,0.244,268.822
23,122,43087,0.053,-0.908,-0.32,-0.793,0.366,0.244,268.826
23,0,9,0.055,-0.91,-0.318,-0.061,0.427,0.244,268.832
11,122,43087,0.052,-0.91,-0.321,-0.061,0.427,0.244,268.836
11,12,4,0.055,-0.909,-0.318,-0.061,0.366,0.183,268.842
27,122,43087,0.056,-0.907,-0.318,-0.061,0.366,0.183,268.846
27,2,2,0.057,-0.908,-0.317,-0.488,0.427,0.183,268.852
22,122,43087,0.057,-0.908,-0.318,-0.488,0.427,0.183,268.856
22,0,10,0.057,-0.904,-0.322,-0.549,0.366,0.305,268.862
13,122,43087,0.053,-0.908,-0.324,-0.549,0.366,0.305,268.866
13,3,0,0.053,-0.909,-0.324,-0.366,0.366,0.305,268.872
0,122,43087,0.053,-0.907,-0.325,-0.366,0.366,0.305,268.876
0,2,17,0.053,-0.906,-0.32,0,0.488,0.244,268.882
15,122,43087,0.052,-0.907,-0.317,0,0.488,0.244,268.886
15,5,11,0.052,-0.905,-0.318,0.305,0.549,0.183,268.892
11,122,43087,0.055,-0.909,-0.318,0.305,0.549,0.183,268.896
11,7,5,0.055,-0.909,-0.32,0.427,0.549,0.122,268.902
1,122,43087,0.052,-0.908,-0.319,0.427,0.549,0.122,268.905
1,21,2,0.054,-0.91,-0.322,0.549,0.488,0.183,268.912
8,122,43087,0.058,-0.907,-0.322,0.549,0.488,0.183,268.915
8,4,2,0.056,-0.905,-0.317,0.61,0.549,0.122,268.921
14,122,43087,0.057,-0.909,-0.318,0.61,0.549,0.122,268.925
14,2,3,0.057,-0.906,-0.32,0.305,0.61,0.122,268.931
8,122,43087,0.057,-0.906,-0.321,0.305,0.61,0.122,268.935
8,13,6,0.057,-0.907,-0.314,0.427,0.427,0.305,268.941
11,122,43087,0.058,-0.909,-0.319,0.427,0.427,0.305,268.945
11,22,12,0.057,-0.907,-0.321,0.244,0.427,0.61,268.951
7,122,43087,0.053,-0.907,-0.321,0.244,0.427,0.61,268.955
7,3,5,0.053,-0.907,-0.324,0.061,0.366,0.732,268.961
15,122,43087,0.057,-0.909,-0.322,0.061,0.366,0.732,268.965
15,11,13,0.056,-0.91,-0.321,0.183,0.305,0.732,268.971
2,122,43087,0.054,-0.909,-0.321,0.183,0.305,0.732,268.975
2,5,3,0.055,-0.909,-0.322,0.122,0.427,0.549,268.981
0,122,43087,0.054,-0.909,-0.323,0.122,0.427,0.549,268.985
0,1,13,0.056,-0.908,-0.324,-0.183,0.305,0.244,268.991
13,122,43087,0.055,-0.907,-0.321,-0.183,0.305,0.244,268.995
13,5,5,0.053,-0.906,-0.325,-0.366,0.305,-0.061,269.001
0,122,43087,0.054,-0.909,-0.319,-0.366,0.305,-0.061,269.004
0,0,6,0.056,-0.909,-0.314,-0.183,0.244,-0.061,269.011
11,122,43087,0.055,-0.907,-0.316,-0.183,0.244,-0.061,269.014
11,0,7,0.055,-0.908,-0.319,-0.244,0.305,-0.244,269.02
6,122,43087,0.055,-0.906,-0.32,-0.244,0.305,-0.244,269.024
6,0,2,0.057,-0.912,-0.318,-0.122,0.305,-0.427,269.03
7,122,43087,0.056,-0.91,-0.316,-0.122,0.305,-0.427,269.034
7,20,0,0.057,-0.909,-0.319,-0.183,0.366,-0.427,269.04
4,122,43087,0.057,-0.911,-0.319,-0.183,0.366,-0.427,269.044
4,4,19,0.053,-0.908,-0.32,-0.549,0.427,-0.488,269.05
21,122,43087,0.057,-0.905,-0.316,-0.549,0.427,-0.488,269.054
21,9,6,0.058,-0.908,-0.316,-0.732,0.427,-0.488,269.06
11,122,43087,0.057,-0.909,-0.318,-0.732,0.427,-0.488,269.064
11,4,0,0.057,-0.906,-0.321,-0.793,0.427,-0.427,269.07
17,122,43087,0.057,-0.906,-0.321,-0.793,0.427,-0.427,269.074
17,0,12,0.058,-0.909,-0.319,-0.549,0.305,-0.122,269.08
0,122,43087,0.058,-0.909,-0.319,-0.549,0.305,-0.122,269.084
0,5,2,0.059,-0.906,-0.322,-0.427,0.244,-0.061,269.09
9,122,43087,0.059,-0.906,-0.322,-0.427,0.244,-0.061,269.093
9,0,13,0.056,-0.907,-0.32,-0.549,0.305,-0.061,269.1
0,122,43087,0.056,-0.907,-0.32,-0.549,0.305,-0.061,269.103
0,0,7,0.057,-0.905,-0.317,-0.427,0.305,0.244,269.11
4,122,43087,0.057,-0.905,-0.317,-0.427,0.305,0.244,269.113
4,0,5,0.056,-0.906,-0.323,-0.549,0.305,0.549,269.119
0,122,43087,0.056,-0.906,-0.323,-0.549,0.305,0.549,269.123
0,8,15,0.057,-0.908,-0.321,-0.671,0.183,0.671,269.129
3,122,43087,0.057,-0.908,-0.321,-0.671,0.183,0.671,269.133
3,3,1,0.055,-0.907,-0.327,-0.671,0.305,0.671,269.139
7,122,43087,0.055,-0.907,-0.327,-0.671,0.305,0.671,269.143
7,26,7,0.053,-0.907,-0.32,-0.305,0.366,0.549,269.149
19,122,43087,0.053,-0.907,-0.32,-0.305,0.366,0.549,269.153
19,0,11,0.055,-0.907,-0.32,0.061,0.366,0.305,269.159
0,122,43087,0.055,-0.907,-0.32,0.061,0.366,0.305,269.163
0,4,19,0.055,-0.908,-0.323,0.244,0.549,0.122,269.169
8,122,43087,0.055,-0.908,-0.323,0.244,0.549,0.122,269.173
8,25,0,0.056,-0.906,-0.321,0.488,0.61,-0.122,269.179
16,122,43087,0.056,-0.906,-0.321,0.488,0.61,-0.122,269.183
16,6,17,0.06,-0.903,-0.316,0.915,0.671,-0.366,269.189
9,122,43087,0.06,-0.903,-0.316,0.915,0.671,-0.366,269.193
9,1,0,0.06,-0.905,-0.315,1.037,0.793,-0.305,269.199
9,122,43087,0.06,-0.905,-0.315,1.037,0.793,-0.305,269.202
9,7,4,0.07,-0.923,-0.319,1.098,0.854,0,269.209
16,122,43087,0.07,-0.923,-0.319,1.098,0.854,0,269.212
16,0,19,0.056,-0.905,-0.321,1.098,0.854,0,269.218
10,122,43087,0.045,-0.9,-0.321,0.915,1.463,0.854,269.222
10,0,18,0.049,-0.902,-0.318,0.915,1.463,0.854,269.228
9,122,43087,0.053,-0.907,-0.316,1.22,0.976,0.61,269.232
9,10,3,0.056,-0.908,-0.317,1.22,0.976,0.61,269.238
0,122,43087,0.061,-0.911,-0.32,0.793,0.366,-0.305,269.242
0,7,6,0.06,-0.909,-0.323,0.793,0.366,-0.305,269.248
4,122,43087,0.059,-0.905,-0.319,0.671,0.793,-0.244,269.252
4,4,12,0.055,-0.906,-0.32,0.671,0.793,-0.244,269.258
12,122,43087,0.054,-0.907,-0.319,0.976,0.915,0.183,269.262
12,0,0,0.055,-0.908,-0.314,0.976,0.915,0.183,269.268
8,122,43087,0.057,-0.909,-0.316,0.732,0.732,-0.061,269.272
8,11,10,0.059,-0.908,-0.317,0.732,0.732,-0.061,269.278
17,122,43087,0.056,-0.908,-0.317,0.488,0.671,-0.244,269.282
17,0,8,0.057,-0.909,-0.317,0.488,0.671,-0.244,269.288
10,122,43087,0.059,-0.909,-0.316,0.183,0.793,-0.244,269.291
10,10,11,0.057,-0.908,-0.318,0.183,0.793,-0.244,269.298
1,122,43087,0.054,-0.908,-0.314,-0.183,0.61,-0.122,269.301
1,5,9,0.059,-0.909,-0.315,-0.183,0.61,-0.122,269.308
7,122,43087,0.057,-0.907,-0.318,-0.488,0.427,-0.061,269.311
7,10,5,0.056,-0.905,-0.319,-0.488,0.427,-0.061,269.317
14,122,43087,0.055,-0.906,-0.318,-0.732,0.305,0.061,269.321
14,13,1,0.057,-0.907,-0.319,-0.732,0.305,0.061,269.327
0,122,43087,0.057,-0.908,-0.319,-0.732,0.244,0.183,269.331
0,13,8,0.058,-0.91,-0.318,-0.732,0.244,0.183,269.337
1,122,43087,0.056,-0.908,-0.318,-0.549,0.244,0.244,269.341
1,7,1,0.055,-0.908,-0.318,-0.549,0.244,0.244,269.347
4,122,43087,0.057,-0.906,-0.317,-0.61,0.305,0.244,269.351
4,5,6,0.057,-0.909,-0.318,-0.61,0.305,0.244,269.357
4,122,43087,0.054,-0.908,-0.316,-0.854,0.244,0.122,269.361
4,5,0,0.053,-0.909,-0.317,-0.854,0.244,0.122,269.367
14,122,43087,0.056,-0.908,-0.321,-0.854,0.305,-0.061,269.371
14,8,12,0.059,-0.911,-0.317,-0.854,0.305,-0.061,269.377
0,122,43087,0.057,-0.909,-0.318,-0.976,0.305,-0.244,269.381
0,0,2,0.056,-0.907,-0.322,-0.976,0.305,-0.244,269.387
8,122,43087,0.058,-0.906,-0.32,-0.854,0.244,-0.427,269.39
8,19,4,0.058,-0.909,-0.317,-0.854,0.244,-0.427,269.397
7,122,43087,0.059,-0.907,-0.321,-0.61,0.305,-0.488,269.4
7,12,10,0.056,-0.906,-0.317,-0.61,0.305,-0.488,269.407
3,122,43087,0.056,-0.909,-0.317,-0.732,0.122,-0.488,269.41
3,0,11,0.061,-0.906,-0.315,-0.732,0.122,-0.488,269.416
8,122,43087,0.06,-0.907,-0.317,-0.915,0.122,-0.488,269.42
8,12,8,0.061,-0.905,-0.319,-0.915,0.122,-0.488,269.426
14,122,43087,0.059,-0.905,-0.316,-1.098,0.183,-0.488,269.43
14,0,7,0.06,-0.906,-0.318,-1.098,0.183,-0.488,269.436
3,122,43087,0.063,-0.91,-0.323,-1.159,0.305,-0.427,269.44
3,1,15,0.06,-0.908,-0.323,-1.159,0.305,-0.427,269.446
9,122,43087,0.057,-0.905,-0.32,-0.793,0.366,-0.061,269.45
9,1,9,0.06,-0.908,-0.32,-0.793,0.366,-0.061,269.456
11,122,43087,0.063,-0.909,-0.317,-0.244,0.488,0,269.46
11,8,8,0.064,-0.911,-0.317,-0.244,0.488,0,269.466
16,122,43087,0.06,-0.91,-0.317,-0.183,0.549,-0.061,269.47
16,7,0,0.059,-0.909,-0.321,-0.183,0.549,-0.061,269.476
0,122,43087,0.059,-0.908,-0.32,-0.366,0.427,0.122,269.48
0,5,16,0.06,-0.906,-0.318,-0.366,0.427,0.122,269.486
2,122,43087,0.059,-0.907,-0.32,-0.61,0.366,0.183,269.489
2,0,4,0.058,-0.909,-0.318,-0.61,0.366,0.183,269.496
13,122,43087,0.058,-0.907,-0.321,-0.854,0.244,0.061,269.499
13,11,9,0.063,-0.91,-0.323,-0.854,0.244,0.061,269.506
6,122,43087,0.06,-0.908,-0.324,-0.915,0.244,0,269.509
6,6,5,0.059,-0.905,-0.325,-0.915,0.244,0,269.515
5,122,43087,0.06,-0.905,-0.322,-0.488,0.366,0.122,269.519
5,14,10,0.058,-0.907,-0.317,-0.488,0.366,0.122,269.525
6,122,43087,0.057,-0.907,-0.321,-0.061,0.427,0.183,269.529
6,4,0,0.059,-0.906,-0.32,-0.061,0.427,0.183,269.535
13,122,43087,0.059,-0.904,-0.318,0.305,0.427,0.305,269.539
13,14,0,0.059,-0.906,-0.32,0.305,0.427,0.305,269.545
12,122,43087,0.064,-0.907,-0.317,0.305,0.427,0.366,269.549
12,17,9,0.063,-0.911,-0.317,0.305,0.427,0.366,269.555
4,122,43087,0.057,-0.909,-0.315,0.366,0.488,0.549,269.559
4,2,7,0.057,-0.909,-0.316,0.366,0.488,0.549,269.565
4,122,43087,0.058,-0.907,-0.314,0.366,0.427,0.732,269.569
4,5,0,0.06,-0.904,-0.317,0.366,0.427,0.732,269.575
3,122,43087,0.06,-0.907,-0.316,-0.122,0.305,0.488,269.579
3,4,10,0.061,-0.908,-0.317,-0.122,0.305,0.488,269.585
5,122,43087,0.059,-0.905,-0.32,-0.427,0.244,0.366,269.588
5,8,9,0.058,-0.904,-0.317,-0.427,0.244,0.366,269.595
14,122,43087,0.06,-0.908,-0.318,-0.488,0.305,0.366,269.598
14,0,12,0.058,-0.907,-0.323,-0.488,0.305,0.366,269.604
7,122,43087,0.059,-0.909,-0.32,-0.488,0.366,0.488,269.608
7,4,14,0.06,-0.906,-0.317,-0.488,0.366,0.488,269.614
15,122,43087,0.062,-0.905,-0.322,-0.305,0.244,0.366,269.618
15,0,8,0.058,-0.905,-0.319,-0.305,0.244,0.366,269.624
2,122,43087,0.058,-0.906,-0.318,-0.305,0.366,0.305,269.628
2,0,8,0.056,-0.911,-0.323,-0.305,0.366,0.305,269.634
0,122,43087,0.056,-0.906,-0.319,-0.305,0.366,0.366,269.638
0,10,0,0.056,-0.91,-0.319,-0.305,0.366,0.366,269.644
6,122,43087,0.056,-0.91,-0.319,-0.305,0.366,0.366,269.648
6,0,1,0.059,-0.909,-0.319,-0.427,0.305,0.305,269.654
0,122,43087,0.059,-0.909,-0.319,-0.427,0.305,0.305,269.658
0,6,4,0.061,-0.904,-0.324,-0.671,0.122,0.305,269.664
0,122,43087,0.061,-0.904,-0.324,-0.671,0.122,0.305,269.668
0,0,15,0.057,-0.909,-0.32,-0.549,0.305,0.549,269.674
7,122,43087,0.057,-0.909,-0.32,-0.549,0.305,0.549,269.678
7,16,8,0.057,-0.907,-0.322,-0.366,0.244,0.549,269.684
9,122,43087,0.057,-0.907,-0.322,-0.366,0.244,0.549,269.687
9,5,12,0.058,-0.906,-0.323,-0.305,0.244,0.549,269.694
11,122,43087,0.058,-0.906,-0.323,-0.305,0.244,0.549,269.697
11,13,8,0.059,-0.905,-0.315,-0.122,0.244,0.488,269.704
1,122,43087,0.059,-0.905,-0.315,-0.122,0.244,0.488,269.707
1,9,15,0.057,-0.909,-0.323,-0.122,0.366,0.549,269.713
9,122,43087,0.057,-0.909,-0.323,-0.122,0.366,0.549,269.717
9,4,9,0.06,-0.908,-0.319,-0.305,0.305,0.549,269.723
9,122,43087,0.06,-0.908,-0.319,-0.305,0.305,0.549,269.727
9,14,17,0.059,-0.908,-0.323,-0.488,0.305,0.488,269.733
30,122,43087,0.059,-0.908,-0.323,-0.488,0.305,0.488,269.737
30,0,2,0.057,-0.909,-0.318,-0.427,0.305,0.427,269.743
15,122,43087,0.057,-0.909,-0.318,-0.427,0.305,0.427,269.747
15,1,7,0.06,-0.906,-0.317,-0.244,0.244,0.305,269.753
18,122,43087,0.06,-0.906,-0.317,-0.244,0.244,0.305,269.757
18,11,9,0.061,-0.907,-0.326,-0.488,0.305,0.244,269.763
9,122,43087,0.061,-0.907,-0.326,-0.488,0.305,0.244,269.767
9,4,4,0.057,-0.906,-0.317,-0.549,0.305,0.183,269.773
6,122,43087,0.057,-0.906,-0.317,-0.549,0.305,0.183,269.777
6,3,14,0.06,-0.91,-0.323,-0.183,0.427,0.183,269.783
4,122,43087,0.06,-0.91,-0.323,-0.183,0.427,0.183,269.786
4,0,7,0.062,-0.908,-0.319,0.061,0.488,0.305,269.793
0,122,43087,0.059,-0.908,-0.318,0.061,0.488,0.305,269.796
0,3,1,0.057,-0.909,-0.317,0,0.427,0.183,269.802
2,122,43087,0.06,-0.908,-0.315,0,0.427,0.183,269.806
2,8,0,0.059,-0.91,-0.318,-0.122,0.427,0.183,269.812
18,122,43087,0.06,-0.906,-0.322,-0.122,0.427,0.183,269.816
18,6,0,0.058,-0.907,-0.321,-0.305,0.305,0.366,269.822
5,122,43087,0.058,-0.905,-0.319,-0.305,0.305,0.366,269.826
5,0,3,0.06,-0.907,-0.316,-0.427,0.305,0.488,269.832
0,122,43087,0.058,-0.909,-0.322,-0.427,0.305,0.488,269.836
0,12,1,0.056,-0.91,-0.32,-0.427,0.366,0.488,269.842
8,122,43087,0.058,-0.908,-0.32,-0.427,0.366,0.488,269.846
8,22,9,0.057,-0.907,-0.321,-0.488,0.183,0.488,269.852
8,122,43087,0.058,-0.909,-0.321,-0.488,0.183,0.488,269.856
8,4,9,0.06,-0.907,-0.323,-0.427,0.183,0.427,269.862
3,122,43087,0.058,-0.906,-0.318,-0.427,0.183,0.427,269.866
3,5,21,0.058,-0.906,-0.32,-0.244,0.366,0.305,269.872
0,122,43087,0.057,-0.908,-0.319,-0.244,0.366,0.305,269.876
0,6,5,0.055,-0.905,-0.321,-0.183,0.366,0.244,269.882
5,122,43087,0.056,-0.906,-0.318,-0.183,0.366,0.244,269.885
5,3,11,0.055,-0.907,-0.32,-0.244,0.427,0.122,269.892
9,122,43087,0.057,-0.908,-0.322,-0.244,0.427,0.122,269.895
9,0,0,0.058,-0.907,-0.322,-0.061,0.366,0.061,269.901
9,122,43087,0.056,-0.908,-0.314,-0.061,0.366,0.061,269.905
9,0,0,0.058,-0.907,-0.316,0.305,0.427,-0.122,269.911
0,122,43087,0.062,-0.91,-0.32,0.305,0.427,-0.122,269.915
0,13,1,0.063,-0.91,-0.32,0,0.488,-0.183,269.921
0,122,43087,0.06,-0.907,-0.316,0,0.488,-0.183,269.925
0,0,0,0.059,-0.904,-0.318,-0.305,0.427,-0.122,269.931
8,122,43087,0.063,-0.906,-0.32,-0.305,0.427,-0.122,269.935
8,0,11,0.062,-0.906,-0.318,-0.122,0.427,0,269.941
0,122,43087,0.062,-0.907,-0.317,-0.122,0.427,0,269.945
0,0,7,0.062,-0.907,-0.317,0,0.488,0.244,269.951
10,122,43087,0.061,-0.908,-0.318,0,0.488,0.244,269.955
10,5,4,0.063,-0.906,-0.315,-0.183,0.427,0.427,269.961
13,122,43087,0.061,-0.906,-0.321,-0.183,0.427,0.427,269.965
13,0,13,0.059,-0.907,-0.322,-0.488,0.366,0.61,269.971
0,122,43087,0.057,-0.909,-0.322,-0.488,0.366,0.61,269.974
0,7,7,0.059,-0.906,-0.318,-0.61,0.305,0.549,269.981
14,122,43087,0.058,-0.905,-0.321,-0.61,0.305,0.549,269.984
14,3,0,0.057,-0.906,-0.326,-0.793,0.366,0.305,269.991
8,122,43087,0.058,-0.905,-0.32,-0.793,0.366,0.305,269.994
8,6,11,0.058,-0.905,-0.32,-0.427,0.366,0.305,270
13,122,43087,0.058,-0.906,-0.322,-0.427,0.366,0.305,270.004
13,0,0,0.058,-0.905,-0.321,0.061,0.366,0.366,270.01
7,122,43087,0.059,-0.906,-0.323,0.061,0.366,0.366,270.014
7,11,1,0.06,-0.908,-0.322,0.183,0.488,0.305,270.02
0,122,43087,0.06,-0.904,-0.319,0.183,0.488,0.305,270.024
0,4,14,0.06,-0.905,-0.318,0.427,0.549,0.305,270.03
1,122,43087,0.062,-0.906,-0.318,0.427,0.549,0.305,270.034
1,0,1,0.06,-0.906,-0.317,0.366,0.488,0.122,270.04
0,122,43087,0.058,-0.906,-0.315,0.366,0.488,0.122,270.044
0,3,8,0.056,-0.91,-0.318,0.122,0.427,0.122,270.05
2,122,43087,0.058,-0.912,-0.319,0.122,0.427,0.122,270.054
2,0,8,0.056,-0.91,-0.32,-0.244,0.305,0.305,270.06
0,122,43087,0.059,-0.907,-0.32,-0.244,0.305,0.305,270.064
0,6,9,0.057,-0.908,-0.318,-0.427,0.244,0.305,270.07
10,122,43087,0.059,-0.913,-0.321,-0.427,0.244,0.305,270.073
10,22,0,0.062,-0.913,-0.321,-0.549,0.305,0.305,270.08
5,122,43087,0.06,-0.902,-0.319,-0.549,0.305,0.305,270.083
5,14,0,0.056,-0.9,-0.319,-0.488,0.488,0.671,270.09
10,122,43087,0.058,-0.906,-0.318,-0.488,0.488,0.671,270.093
10,0,0,0.059,-0.908,-0.321,-0.366,0.61,0.488,270.099
4,122,43087,0.055,-0.909,-0.324,-0.366,0.61,0.488,270.103
4,5,0,0.058,-0.908,-0.323,-0.549,0.427,0.305,270.109
21,122,43087,0.059,-0.907,-0.319,-0.549,0.427,0.305,270.113
21,10,12,0.059,-0.905,-0.318,-0.549,0.427,0.183,270.119
4,122,43087,0.058,-0.903,-0.317,-0.549,0.427,0.183,270.123
4,5,18,0.06,-0.904,-0.321,-0.488,0.427,0.061,270.129
2,122,43087,0.057,-0.908,-0.321,-0.488,0.427,0.061,270.133
2,6,7,0.057,-0.91,-0.324,-0.305,0.305,-0.122,270.139
7,122,43087,0.058,-0.908,-0.324,-0.305,0.305,-0.122,270.143
7,2,13,0.059,-0.906,-0.318,-0.366,0.305,-0.366,270.149
14,122,43087,0.06,-0.906,-0.318,-0.366,0.305,-0.366,270.153
14,11,15,0.06,-0.905,-0.321,-0.488,0.305,-0.366,270.159
9,122,43087,0.058,-0.908,-0.323,-0.488,0.305,-0.366,270.163
9,6,21,0.06,-0.911,-0.32,-0.488,0.305,-0.183,270.169
5,122,43087,0.061,-0.91,-0.316,-0.488,0.305,-0.183,270.172
5,3,0,0.061,-0.909,-0.318,-0.61,0.244,0,270.179
15,122,43087,0.061,-0.908,-0.321,-0.61,0.244,0,270.182
15,0,2,0.062,-0.906,-0.322,-0.854,0.244,0.061,270.189
12,122,43087,0.061,-0.906,-0.324,-0.854,0.244,0.061,270.192
12,12,7,0.062,-0.906,-0.322,-0.488,0.427,0.122,270.198
19,122,43087,0.058,-0.906,-0.319,-0.488,0.427,0.122,270.202
19,0,3,0.058,-0.907,-0.319,-0.122,0.427,0,270.208
9,122,43087,0.061,-0.905,-0.315,-0.122,0.427,0,270.212
9,11,0,0.062,-0.905,-0.318,-0.122,0.366,0.061,270.218
6,122,43087,0.063,-0.906,-0.319,-0.122,0.366,0.061,270.222
6,7,7,0.062,-0.907,-0.319,-0.549,0.366,0.183,270.228
22,122,43087,0.062,-0.907,-0.319,-0.549,0.366,0.183,270.232
22,0,14,0.063,-0.906,-0.321,-0.671,0.305,0.305,270.238
15,122,43087,0.063,-0.906,-0.321,-0.671,0.305,0.305,270.242
15,0,4,0.062,-0.906,-0.324,-0.732,0.244,0.488,270.248
0,122,43087,0.062,-0.906,-0.324,-0.732,0.244,0.488,270.252
0,12,3,0.061,-0.909,-0.322,-0.61,0.244,0.488,270.258
10,122,43087,0.061,-0.909,-0.322,-0.61,0.244,0.488,270.262
10,14,15,0.058,-0.908,-0.32,-0.61,0.305,0.366,270.268
12,122,43087,0.058,-0.908,-0.32,-0.61,0.305,0.366,270.271
12,5,22,0.061,-0.907,-0.323,-0.854,0.305,0.366,270.278
17,122,43087,0.061,-0.907,-0.323,-0.854,0.305,0.366,270.281
17,11,0,0.058,-0.907,-0.323,-0.488,0.366,0.427,270.288
11,122,43087,0.058,-0.907,-0.323,-0.488,0.366,0.427,270.291
11,2,6,0.062,-0.906,-0.324,0,0.366,0.427,270.297
0,122,43087,0.062,-0.906,-0.324,0,0.366,0.427,270.301
0,9,20,0.062,-0.903,-0.318,0,0.427,0.305,270.307
17,122,43087,0.062,-0.903,-0.318,0,0.427,0.305,270.311
17,0,5,0.063,-0.905,-0.319,-0.061,0.427,0.305,270.317
17,122,43087,0.063,-0.905,-0.319,-0.061,0.427,0.305,270.321
17,0,8,0.06,-0.906,-0.316,-0.183,0.305,0.488,270.327
1,122,43087,0.06,-0.906,-0.316,-0.183,0.305,0.488,270.331
1,15,11,0.06,-0.908,-0.32,-0.427,0.244,0.671,270.337
6,122,43087,0.06,-0.908,-0.32,-0.427,0.244,0.671,270.341
6,12,2,0.059,-0.907,-0.322,-0.61,0.183,0.671,270.347
9,122,43087,0.059,-0.907,-0.322,-0.61,0.183,0.671,270.351
9,6,0,0.056,-0.904,-0.323,-0.671,0.305,0.488,270.357
6,122,43087,0.056,-0.904,-0.323,-0.671,0.305,0.488,270.361
6,6,0,0.059,-0.907,-0.322,-0.488,0.305,0.427,270.367
11,122,43087,0.059,-0.907,-0.322,-0.488,0.305,0.427,270.37
11,2,0,0.061,-0.906,-0.323,-0.488,0.305,0.427,270.377
18,122,43087,0.06,-0.906,-0.32,-0.061,0.305,0.427,270.38
18,9,1,0.059,-0.907,-0.323,-0.061,0.305,0.427,270.387
22,122,43087,0.061,-0.906,-0.323,0.305,0.427,0.427,270.39
22,0,19,0.062,-0.907,-0.321,0.305,0.427,0.427,270.396
11,122,43087,0.061,-0.907,-0.319,0.427,0.366,0.427,270.4
11,10,15,0.058,-0.908,-0.319,0.427,0.366,0.427,270.406
0,122,43087,0.061,-0.907,-0.322,-0.122,0.244,0.549,270.41
0,6,4,0.061,-0.908,-0.323,-0.122,0.244,0.549,270.416
5,122,43087,0.063,-0.906,-0.323,-0.488,0.305,0.671,270.42
5,0,2,0.06,-0.907,-0.323,-0.488,0.305,0.671,270.426
29,122,43087,0.056,-0.906,-0.325,-0.488,0.366,0.732,270.43
29,10,10,0.057,-0.91,-0.323,-0.488,0.366,0.732,270.436
0,122,43087,0.058,-0.908,-0.32,-0.122,0.244,0.61,270.44
0,9,0,0.058,-0.908,-0.321,-0.122,0.244,0.61,270.446
0,122,43087,0.059,-0.907,-0.324,-0.305,0.366,0.488,270.45
0,3,7,0.061,-0.905,-0.322,-0.305,0.366,0.488,270.456
0,122,43087,0.058,-0.906,-0.323,-0.244,0.427,0.427,270.46
0,0,1,0.061,-0.905,-0.321,-0.244,0.427,0.427,270.466
0,122,43087,0.057,-0.911,-0.319,-0.122,0.366,0.427,270.469
0,4,11,0.06,-0.907,-0.316,-0.122,0.366,0.427,270.476
5,122,43087,0.059,-0.906,-0.323,-0.427,0.366,0.366,270.479
5,2,7,0.057,-0.907,-0.324,-0.427,0.366,0.366,270.486
24,122,43087,0.059,-0.906,-0.32,-0.732,0.366,0.366,270.489
24,14,8,0.06,-0.906,-0.319,-0.732,0.366,0.366,270.495
5,122,43087,0.055,-0.906,-0.321,-0.366,0.305,0.366,270.499
5,3,0,0.057,-0.907,-0.32,-0.366,0.305,0.366,270.505
10,122,43087,0.061,-0.905,-0.323,-0.183,0.244,0.366,270.509
10,19,3,0.06,-0.905,-0.322,-0.183,0.244,0.366,270.515
0,122,43087,0.059,-0.904,-0.319,-0.122,0.427,0.244,270.519
0,0,10,0.06,-0.905,-0.32,-0.122,0.427,0.244,270.525
0,122,43087,0.059,-0.908,-0.322,-0.122,0.427,0.305,270.529
0,7,0,0.059,-0.908,-0.321,-0.122,0.427,0.305,270.535
12,122,43087,0.057,-0.904,-0.318,-0.061,0.427,0.305,270.539
12,8,4,0.059,-0.905,-0.323,-0.061,0.427,0.305,270.545
0,122,43087,0.061,-0.907,-0.32,-0.122,0.488,0.366,270.549
0,9,16,0.057,-0.907,-0.319,-0.122,0.488,0.366,270.555
12,122,43087,0.058,-0.906,-0.321,-0.366,0.366,0.366,270.559
12,10,15,0.062,-0.906,-0.321,-0.366,0.366,0.366,270.565
15,122,43087,0.06,-0.908,-0.322,-0.427,0.427,0.305,270.568
15,15,8,0.059,-0.909,-0.321,-0.427,0.427,0.305,270.575
18,122,43087,0.063,-0.907,-0.321,-0.488,0.427,0.305,270.578
18,2,3,0.058,-0.907,-0.318,-0.488,0.427,0.305,270.584
14,122,43087,0.059,-0.907,-0.319,-0.427,0.366,0.366,270.588
14,9,0,0.06,-0.908,-0.32,-0.427,0.366,0.366,270.594
5,122,43087,0.057,-0.907,-0.319,-0.122,0.305,0.427,270.598
5,9,0,0.06,-0.908,-0.32,-0.122,0.305,0.427,270.604
12,122,43087,0.061,-0.907,-0.322,0,0.305,0.549,270.608
12,7,7,0.061,-0.907,-0.322,0,0.305,0.549,270.614
0,122,43087,0.058,-0.906,-0.319,-0.183,0.366,0.549,270.618
0,0,16,0.058,-0.905,-0.324,-0.183,0.366,0.549,270.624
0,122,43087,0.06,-0.907,-0.325,-0.488,0.305,0.488,270.628
0,0,0,0.057,-0.908,-0.324,-0.488,0.305,0.488,270.634
2,122,43087,0.054,-0.904,-0.325,-0.305,0.305,0.427,270.638
2,11,9,0.054,-0.907,-0.323,-0.305,0.305,0.427,270.644
19,122,43087,0.058,-0.908,-0.321,-0.183,0.305,0.427,270.648
19,6,6,0.053,-0.907,-0.323,-0.183,0.305,0.427,270.654
11,122,43087,0.053,-0.907,-0.325,-0.183,0.366,0.122,270.658
11,3,10,0.056,-0.906,-0.322,-0.183,0.366,0.122,270.664
10,122,43087,0.059,-0.905,-0.323,-0.122,0.366,-0.061,270.667
10,0,8,0.059,-0.905,-0.321,-0.122,0.366,-0.061,270.674
1,122,43087,0.059,-0.906,-0.319,0.305,0.488,-0.122,270.677
1,16,11,0.059,-0.908,-0.319,0.305,0.488,-0.122,270.683
8,122,43087,0.059,-0.906,-0.318,0.61,0.549,-0.366,270.687
8,8,1,0.061,-0.909,-0.318,0.61,0.549,-0.366,270.693
7,122,43087,0.062,-0.909,-0.318,0.183,0.61,-0.366,270.697
7,0,5,0.062,-0.907,-0.323,0.183,0.61,-0.366,270.703
4,122,43087,0.063,-0.904,-0.321,-0.244,0.549,-0.183,270.707
4,0,4,0.063,-0.905,-0.32,-0.244,0.549,-0.183,270.713
18,122,43087,0.063,-0.907,-0.321,0,0.61,-0.061,270.717
18,4,7,0.059,-0.907,-0.32,0,0.61,-0.061,270.723
18,122,43087,0.062,-0.908,-0.322,0.244,0.488,0.244,270.727
18,0,0,0.066,-0.907,-0.318,0.244,0.488,0.244,270.733
8,122,43087,0.061,-0.907,-0.318,0.061,0.366,0.305,270.737
8,0,4,0.06,-0.908,-0.324,0.061,0.366,0.305,270.743
5,122,43087,0.06,-0.909,-0.325,-0.427,0.427,0.488,270.747
5,11,11,0.057,-0.906,-0.326,-0.427,0.427,0.488,270.753
23,122,43087,0.056,-0.904,-0.322,-0.244,0.488,0.488,270.757
23,4,19,0.056,-0.906,-0.323,-0.244,0.488,0.488,270.763
13,122,43087,0.06,-0.905,-0.322,0.061,0.488,0.305,270.766
13,3,0,0.06,-0.907,-0.319,0.061,0.488,0.305,270.773
10,122,43087,0.059,-0.907,-0.319,0.122,0.427,0.244,270.776
10,16,13,0.06,-0.905,-0.321,0.122,0.427,0.244,270.782
3,122,43087,0.059,-0.907,-0.32,-0.061,0.488,0.305,270.786
3,0,9,0.058,-0.907,-0.325,-0.061,0.488,0.305,270.792
11,122,43087,0.061,-0.905,-0.323,-0.061,0.61,0.427,270.796
11,11,5,0.06,-0.904,-0.319,-0.061,0.61,0.427,270.802
17,122,43087,0.061,-0.904,-0.316,0.305,0.61,0.488,270.806
17,1,7,0.061,-0.905,-0.317,0.305,0.61,0.488,270.812
19,122,43087,0.061,-0.905,-0.317,0.305,0.61,0.488,270.816
19,4,5,0.056,-0.907,-0.317,0.305,0.488,0.305,270.822
3,122,43087,0.056,-0.907,-0.317,0.305,0.488,0.305,270.826
3,10,6,0.058,-0.907,-0.318,0.183,0.366,0.305,270.832
0,122,43087,0.058,-0.907,-0.318,0.183,0.366,0.305,270.836
0,3,1,0.059,-0.909,-0.319,-0.122,0.305,0.305,270.842
11,122,43087,0.059,-0.909,-0.319,-0.122,0.305,0.305,270.846
11,14,15,0.061,-0.906,-0.322,-0.549,0.244,0.305,270.852
4,122,43087,0.061,-0.906,-0.322,-0.549,0.244,0.305,270.855
4,2,0,0.056,-0.908,-0.322,-0.488,0.244,0.366,270.862
6,122,43087,0.056,-0.908,-0.322,-0.488,0.244,0.366,270.865
6,7,11,0.06,-0.908,-0.32,-0.366,0.305,0.488,270.872
7,122,43087,0.06,-0.908,-0.32,-0.366,0.305,0.488,270.875
7,7,0,0.058,-0.909,-0.322,-0.366,0.305,0.366,270.881
7,122,43087,0.058,-0.909,-0.322,-0.366,0.305,0.366,270.885
7,0,1,0.059,-0.905,-0.323,-0.244,0.427,0.244,270.891
17,122,43087,0.059,-0.905,-0.323,-0.244,0.427,0.244,270.895
17,4,24,0.058,-0.907,-0.32,0.061,0.549,0.061,270.901
22,122,43087,0.058,-0.907,-0.32,0.061,0.549,0.061,270.905
22,3,5,0.059,-0.905,-0.317,0.305,0.488,-0.122,270.911
0,122,43087,0.059,-0.905,-0.317,0.305,0.488,-0.122,270.915
0,0,0,0.059,-0.907,-0.316,0.061,0.61,-0.305,270.921
0,122,43087,0.059,-0.907,-0.316,0.061,0.61,-0.305,270.925
0,12,0,0.062,-0.908,-0.317,-0.122,0.61,-0.183,270.931
0,122,43087,0.062,-0.908,-0.317,-0.122,0.61,-0.183,270.935
0,0,13,0.061,-0.905,-0.322,-0.488,0.488,-0.122,270.941
9,122,43087,0.061,-0.905,-0.322,-0.488,0.488,-0.122,270.945
9,16,15,0.062,-0.907,-0.318,-0.366,0.488,0,270.951
21,122,43087,0.062,-0.905,-0.317,-0.366,0.488,0,270.954
21,4,1,0.062,-0.906,-0.315,0.061,0.488,0.061,270.961
15,122,43087,0.061,-0.904,-0.318,0.061,0.488,0.061,270.964
15,3,20,0.063,-0.907,-0.322,-0.244,0.427,0,270.971
8,122,43087,0.06,-0.904,-0.319,-0.244,0.427,0,270.974
8,3,10,0.062,-0.905,-0.318,-0.732,0.366,0.244,270.98
1,122,43087,0.062,-0.906,-0.318,-0.732,0.366,0.244,270.984
1,2,15,0.06,-0.907,-0.319,-0.427,0.305,0.427,270.99
6,122,43087,0.061,-0.904,-0.315,-0.427,0.305,0.427,270.994
6,11,12,0.063,-0.904,-0.318,-0.366,0.244,0.549,271
10,122,43087,0.063,-0.908,-0.32,-0.366,0.244,0.549,271.004
10,6,9,0.063,-0.907,-0.321,-0.915,0.122,0.488,271.01
5,122,43087,0.061,-0.909,-0.322,-0.915,0.122,0.488,271.014
5,6,0,0.06,-0.904,-0.322,-1.159,0.183,0.61,271.02
6,122,43087,0.06,-0.906,-0.323,-1.159,0.183,0.61,271.024
6,0,0,0.06,-0.907,-0.324,-1.159,0.183,0.793,271.03
6,122,43087,0.058,-0.908,-0.324,-1.159,0.183,0.793,271.034
6,3,0,0.059,-0.907,-0.325,-1.037,0.122,0.732,271.04
0,122,43087,0.058,-0.909,-0.326,-1.037,0.122,0.732,271.044
0,16,18,0.06,-0.906,-0.323,-0.915,0.183,0.61,271.05
1,122,43087,0.062,-0.902,-0.327,-0.915,0.183,0.61,271.053
1,0,19,0.065,-0.903,-0.326,-0.488,0.305,0.488,271.06
16,122,43087,0.063,-0.903,-0.325,-0.488,0.305,0.488,271.063
16,12,4,0.062,-0.906,-0.317,0,0.427,0.488,271.07
17,122,43087,0.062,-0.908,-0.321,0,0.427,0.488,271.073
17,18,19,0.06,-0.906,-0.325,0.244,0.488,0.427,271.079
14,122,43087,0.059,-0.902,-0.325,0.244,0.488,0.427,271.083
14,16,13,0.063,-0.904,-0.32,0.366,0.488,0.488,271.089
9,122,43087,0.059,-0.908,-0.32,0.366,0.488,0.488,271.093
9,4,0,0.059,-0.903,-0.32,0.732,0.488,0.549,271.099
4,122,43087,0.062,-0.903,-0.319,0.732,0.488,0.549,271.103
4,0,7,0.059,-0.907,-0.32,0.732,0.488,0.488,271.109
7,122,43087,0.061,-0.907,-0.32,0.732,0.488,0.488,271.113
7,11,4,0.059,-0.906,-0.319,0.366,0.366,0.549,271.119
0,122,43087,0.06,-0.906,-0.322,0.366,0.366,0.549,271.123
0,11,8,0.06,-0.906,-0.323,-0.122,0.305,0.549,271.129
0,122,43087,0.062,-0.906,-0.325,-0.122,0.305,0.549,271.133
0,10,0,0.059,-0.909,-0.324,-0.122,0.305,0.488,271.139
5,122,43087,0.06,-0.906,-0.321,-0.122,0.305,0.488,271.143
5,7,12,0.059,-0.905,-0.32,-0.061,0.366,0.488,271.149
12,122,43087,0.057,-0.905,-0.322,-0.061,0.366,0.488,271.152
12,4,2,0.061,-0.905,-0.318,-0.122,0.366,0.366,271.159
22,122,43087,0.058,-0.908,-0.32,-0.122,0.366,0.366,271.162
22,0,0,0.06,-0.905,-0.319,0,0.427,0.427,271.168
0,122,43087,0.059,-0.904,-0.32,0,0.427,0.427,271.172
0,12,15,0.057,-0.906,-0.325,0.183,0.427,0.549,271.178
5,122,43087,0.059,-0.908,-0.323,0.183,0.427,0.549,271.182
5,2,0,0.06,-0.91,-0.32,0.427,0.427,0.488,271.188
0,122,43087,0.06,-0.908,-0.319,0.427,0.427,0.488,271.192
0,15,14,0.058,-0.906,-0.319,0.244,0.427,0.488,271.198
6,122,43087,0.057,-0.908,-0.32,0.244,0.427,0.488,271.202
6,19,6,0.061,-0.904,-0.321,-0.122,0.305,0.549,271.208
14,122,43087,0.059,-0.908,-0.324,-0.122,0.305,0.549,271.212
14,7,4,0.056,-0.906,-0.323,-0.427,0.244,0.61,271.218
11,122,43087,0.059,-0.906,-0.322,-0.427,0.244,0.61,271.222
11,6,8,0.057,-0.91,-0.323,-0.793,0.244,0.671,271.228
0,122,43087,0.056,-0.907,-0.321,-0.793,0.244,0.671,271.232
0,18,14,0.058,-0.905,-0.323,-0.793,0.244,0.671,271.238
17,122,43087,0.059,-0.905,-0.321,-0.793,0.244,0.671,271.242
17,10,4,0.062,-0.904,-0.321,-0.854,0.305,0.305,271.248
1,122,43087,0.061,-0.905,-0.323,-0.854,0.305,0.305,271.251
1,13,12,0.06,-0.906,-0.322,-0.732,0.366,0.183,271.258
7,122,43087,0.061,-0.908,-0.321,-0.732,0.366,0.183,271.261
7,7,8,0.06,-0.907,-0.322,-0.183,0.366,0.244,271.267
0,122,43087,0.058,-0.906,-0.319,-0.183,0.366,0.244,271.271
0,14,6,0.059,-0.908,-0.317,-0.244,0.427,0.244,271.277
4,122,43087,0.061,-0.908,-0.319,-0.244,0.427,0.244,271.281
4,3,7,0.062,-0.906,-0.317,-0.305,0.366,0.183,271.287
19,122,43087,0.06,-0.904,-0.32,-0.305,0.366,0.183,271.291
19,11,0,0.06,-0.906,-0.324,-0.671,0.366,0.305,271.297
0,122,43087,0.06,-0.908,-0.323,-0.671,0.366,0.305,271.301
0,0,16,0.063,-0.906,-0.321,-0.366,0.366,0.488,271.307
0,122,43087,0.062,-0.907,-0.324,-0.366,0.366,0.488,271.311
0,6,15,0.06,-0.91,-0.326,0.061,0.366,0.488,271.317
5,122,43087,0.057,-0.909,-0.321,0.061,0.366,0.488,271.321
5,11,0,0.06,-0.907,-0.321,0.305,0.366,0.732,271.327
6,122,43087,0.061,-0.905,-0.327,0.305,0.366,0.732,271.331
6,2,0,0.057,-0.906,-0.323,0.305,0.427,0.793,271.337
1,122,43087,0.061,-0.906,-0.321,0.305,0.427,0.793,271.341
1,6,2,0.058,-0.905,-0.324,0.305,0.488,0.793,271.347
14,122,43087,0.06,-0.907,-0.323,0.305,0.488,0.793,271.35
14,3,16,0.061,-0.906,-0.322,0.427,0.488,0.732,271.357
0,122,43087,0.062,-0.906,-0.322,0.427,0.488,0.732,271.36
0,22,4,0.059,-0.906,-0.32,0.549,0.427,0.549,271.366
16,122,43087,0.057,-0.905,-0.318,0.549,0.427,0.549,271.37
16,2,9,0.061,-0.907,-0.321,0.427,0.427,0.427,271.376
0,122,43087,0.06,-0.906,-0.319,0.427,0.427,0.427,271.38
0,0,8,0.056,-0.904,-0.32,0.183,0.427,0.366,271.386
16,122,43087,0.056,-0.904,-0.32,0.183,0.427,0.366,271.39
16,16,0,0.059,-0.905,-0.321,0.305,0.366,0.488,271.396
8,122,43087,0.059,-0.905,-0.321,0.305,0.366,0.488,271.4
8,17,10,0.06,-0.906,-0.324,0.244,0.366,0.549,271.406
7,122,43087,0.06,-0.906,-0.324,0.244,0.366,0.549,271.41
7,12,0,0.06,-0.906,-0.319,0.244,0.305,0.549,271.416
10,122,43087,0.06,-0.906,-0.319,0.244,0.305,0.549,271.42
10,2,4,0.06,-0.91,-0.322,0.183,0.244,0.488,271.426
22,122,43087,0.06,-0.91,-0.322,0.183,0.244,0.488,271.43
22,3,1,0.061,-0.906,-0.32,-0.122,0.305,0.427,271.436
14,122,43087,0.061,-0.906,-0.32,-0.122,0.305,0.427,271.44
14,8,3,0.059,-0.907,-0.321,-0.427,0.244,0.488,271.446
0,122,43087,0.059,-0.907,-0.321,-0.427,0.244,0.488,271.449
0,17,0,0.061,-0.906,-0.322,-0.366,0.305,0.366,271.456
15,122,43087,0.061,-0.906,-0.322,-0.366,0.305,0.366,271.459
15,12,17,0.06,-0.907,-0.32,-0.183,0.366,0.366,271.465
15,122,43087,0.06,-0.907,-0.32,-0.183,0.366,0.366,271.469
15,12,12,0.056,-0.906,-0.32,-0.244,0.366,0.549,271.475
13,122,43087,0.056,-0.906,-0.32,-0.244,0.366,0.549,271.479
13,3,2,0.06,-0.907,-0.324,-0.488,0.183,0.61,271.485
13,122,43087,0.06,-0.907,-0.324,-0.488,0.183,0.61,271.489
13,13,0,0.058,-0.906,-0.319,-0.427,0.183,0.61,271.495
7,122,43087,0.058,-0.906,-0.319,-0.427,0.183,0.61,271.499
7,7,7,0.062,-0.91,-0.323,0.183,0.366,0.549,271.505
0,122,43087,0.062,-0.91,-0.323,0.183,0.366,0.549,271.509
0,9,4,0.06,-0.909,-0.317,0.122,0.366,0.305,271.515
0,122,43087,0.06,-0.909,-0.317,0.122,0.366,0.305,271.519
0,5,4,0.063,-0.907,-0.321,-0.61,0.244,0.305,271.525
0,122,43087,0.063,-0.907,-0.321,-0.61,0.244,0.305,271.529
0,2,14,0.061,-0.908,-0.32,-0.61,0.244,0.305,271.535
0,122,43087,0.062,-0.905,-0.324,-1.098,0.183,0.427,271.539
0,4,5,0.058,-0.906,-0.321,-1.098,0.183,0.427,271.545
10,122,43087,0.059,-0.904,-0.321,-0.793,0.183,0.61,271.548
10,11,3,0.062,-0.905,-0.317,-0.793,0.183,0.61,271.555
4,122,43087,0.061,-0.906,-0.315,-0.366,0.244,0.854,271.558
4,0,9,0.06,-0.906,-0.321,-0.366,0.244,0.854,271.564
0,122,43087,0.063,-0.908,-0.325,-0.427,0.244,1.037,271.568
0,13,3,0.061,-0.906,-0.321,-0.427,0.244,1.037,271.574
15,122,43087,0.059,-0.909,-0.324,-0.488,0.305,1.037,271.578
15,12,1,0.058,-0.908,-0.325,-0.488,0.305,1.037,271.584
0,122,43087,0.059,-0.907,-0.324,0.122,0.427,0.976,271.588
0,0,4,0.059,-0.906,-0.325,0.122,0.427,0.976,271.594
4,122,43087,0.056,-0.906,-0.321,0.488,0.427,0.671,271.598
4,6,5,0.056,-0.906,-0.321,0.488,0.427,0.671,271.604
0,122,43087,0.059,-0.905,-0.318,0.488,0.427,0.61,271.608
0,9,0,0.058,-0.906,-0.318,0.488,0.427,0.61,271.614
9,122,43087,0.058,-0.906,-0.323,0.244,0.488,0.671,271.618
9,15,11,0.057,-0.907,-0.321,0.244,0.488,0.671,271.624
17,122,43087,0.057,-0.906,-0.322,0.244,0.549,0.732,271.628
17,10,9,0.056,-0.907,-0.32,0.244,0.549,0.732,271.634
0,122,43087,0.056,-0.907,-0.318,0.549,0.549,0.549,271.637
0,9,16,0.057,-0.908,-0.315,0.549,0.549,0.549,271.644
8,122,43087,0.058,-0.91,-0.321,0.488,0.488,0.305,271.647
8,12,3,0.058,-0.906,-0.316,0.488,0.488,0.305,271.654
4,122,43087,0.058,-0.905,-0.317,0.366,0.427,0.305,271.657
4,1,3,0.059,-0.909,-0.318,0.366,0.427,0.305,271.663
6,122,43087,0.058,-0.912,-0.32,0.427,0.366,0.305,271.667
6,4,5,0.058,-0.911,-0.321,0.427,0.366,0.305,271.673
0,122,43087,0.059,-0.909,-0.321,0,0.366,0.366,271.677
0,14,0,0.061,-0.909,-0.318,0,0.366,0.366,271.683
0,122,43087,0.058,-0.905,-0.324,-0.427,0.549,0.61,271.687
0,0,10,0.052,-0.905,-0.323,-0.427,0.549,0.61,271.693
