11,122,43087,0,0,0,0,0,0,135.459
11,0,15,0,0,0,0,0,0,135.465
0,122,43087,0,0,0,0,0,0,135.469
0,2,0,0,0,0,0,0,0,135.475
10,122,43087,0,0,0,0,0,0,135.479
10,0,9,0,0,0,0,0,0,135.485
8,122,43087,0,0,0,0,0,0,135.489
8,8,7,0,0,0,0,0,0,135.495
10,122,43087,0,0,0,0,0,0,135.499
10,2,0,0,0,0,0,0,0,135.505
7,122,43087,0,0,0,0,0,0,135.508
7,18,14,0,0,0,0,0,0,135.515
4,122,43087,0,0,0,0,0,0,135.518
4,8,11,0,0,0,0,0,0,135.525
14,122,43087,0,0,0,0,0,0,135.528
14,11,16,0,0,0,0,0,0,135.534
8,122,43087,0,0,0,0,0,0,135.538
8,3,1,0,0,0,0,0,0,135.544
11,122,43087,0,0,0,0,0,0,135.548
11,12,0,0,0,0,0,0,0,135.554
6,122,43087,0,0,0,0,0,0,135.558
6,3,12,0,0,0,0,0,0,135.564
11,122,43087,0,0,0,0,0,0,135.568
11,16,6,0,0,0,0,0,0,135.574
1,122,43087,0,0,0,0,0,0,135.578
1,0,0,0,0,0,0,0,0,135.584
0,122,43087,0,0,0,0,0,0,135.588
0,6,4,0,0,0,0,0,0,135.594
14,122,43087,0,0,0,0,0,0,135.598
14,5,9,0,0,0,0,0,0,135.604
0,122,43087,0,0,0,0,0,0,135.607
0,12,0,0,0,0,0,0,0,135.614
0,122,43087,0,0,0,0,0,0,135.617
0,6,0,0,0,0,0,0,0,135.623
0,122,43087,0,0,0,0,0,0,135.627
0,7,3,0,0,0,0,0,0,135.633
8,122,43087,0,0,0,0,0,0,135.637
8,0,6,0,0,0,0,0,0,135.643
10,122,43087,0,0,0,0,0,0,135.647
10,8,1,0,0,0,0,0,0,135.653
16,122,43087,0,0,0,0,0,0,135.657
16,4,1,0,0,0,0,0,0,135.663
1,122,43087,0,0,0,0,0,0,135.667
1,4,22,0,0,0,0,0,0,135.673
11,122,43087,0,0,0,0,0,0,135.677
11,8,30,0,0,0,0,0,0,135.683
4,122,43087,0,0,0,0,0,0,135.687
4,9,0,0,0,0,0,0,0,135.693
0,122,43087,0,0,0,0,0,0,135.696
0,11,12,0,0,0,0,0,0,135.703
0,122,43087,0,0,0,0,0,0,135.706
0,15,4,0,0,0,0,0,0,135.712
0,122,43087,0,0,0,0,0,0,135.716
0,7,12,0,0,0,0,0,0,135.722
23,122,43087,0,0,0,0,0,0,135.726
23,9,0,0,0,0,0,0,0,135.732
15,122,43087,0,0,0,0,0,0,135.736
15,1,3,0,0,0,0,0,0,135.742
19,122,43087,0,0,0,0,0,0,135.746
19,7,5,0,0,0,0,0,0,135.752
13,122,43087,0,0,0,0,0,0,135.756
13,0,15,0,0,0,0,0,0,135.762
14,122,43087,0,0,0,0,0,0,135.766
14,8,5,0,0,0,0,0,0,135.772
7,122,43087,0,0,0,0,0,0,135.776
7,1,17,0,0,0,0,0,0,135.782
0,122,43087,0,0,0,0,0,0,135.785
0,9,2,0,0,0,0,0,0,135.792
17,122,43087,0,0,0,0,0,0,135.795
17,10,6,0,0,0,0,0,0,135.801
14,122,43087,0,0,0,0,0,0,135.805
14,7,0,0,0,0,0,0,0,135.811
8,122,43087,0,0,0,0,0,0,135.815
8,17,9,0,0,0,0,0,0,135.821
12,122,43087,0,0,0,0,0,0,135.825
12,13,6,0,0,0,0,0,0,135.831
0,122,43087,0,0,0,0,0,0,135.835
0,7,0,0,0,0,0,0,0,135.841
5,122,43087,0,0,0,0,0,0,135.845
5,17,8,0,0,0,0,0,0,135.851
13,122,43087,0,0,0,0,0,0,135.855
13,16,15,0,0,0,0,0,0,135.861
5,122,43087,0,0,0,0,0,0,135.865
5,0,0,0,0,0,0,0,0,135.871
6,122,43087,0,0,0,0,0,0,135.874
6,9,14,0,0,0,0,0,0,135.881
0,122,43087,0,0,0,0,0,0,135.884
0,4,4,0,0,0,0,0,0,135.89
5,122,43087,0,0,0,0,0,0,135.894
5,18,17,0,0,0,0,0,0,135.9
3,122,43087,0,0,0,0,0,0,135.904
3,0,11,0,0,0,0,0,0,135.91
18,122,43087,0,0,0,0,0,0,135.914
18,20,0,0,0,0,0,0,0,135.92
3,122,43087,0,0,0,0,0,0,135.924
3,2,6,0,0,0,0,0,0,135.93
18,122,43087,0,0,0,0,0,0,135.934
18,16,7,0,0,0,0,0,0,135.94
0,122,43087,0,0,0,0,0,0,135.944
0,2,1,0,0,0,0,0,0,135.95
12,122,43087,0,0,0,0,0,0,135.953
12,3,7,0,0,0,0,0,0,135.96
13,122,43087,0,0,0,0,0,0,135.963
13,7,6,0,0,0,0,0,0,135.97
0,122,43087,0,0,0,0,0,0,135.973
0,4,0,0,0,0,0,0,0,135.979
0,122,43087,0,0,0,0,0,0,135.983
0,3,8,0,0,0,0,0,0,135.989
7,122,43087,0,0,0,0,0,0,135.993
7,5,0,0,0,0,0,0,0,135.999
19,122,43087,0,0,0,0,0,0,136.003
19,9,0,0,0,0,0,0,0,136.009
3,122,43087,0,0,0,0,0,0,136.013
3,0,0,0,0,0,0,0,0,136.019
6,122,43087,0,0,0,0,0,0,136.023
6,1,0,0,0,0,0,0,0,136.029
0,122,43087,0,0,0,0,0,0,136.033
0,3,9,0,0,0,0,0,0,136.039
3,122,43087,0,0,0,0,0,0,136.043
3,0,9,0,0,0,0,0,0,136.049
14,122,43087,0,0,0,0,0,0,136.052
14,9,0,0,0,0,0,0,0,136.059
4,122,43087,0,0,0,0,0,0,136.062
4,17,0,0,0,0,0,0,0,136.068
16,122,43087,0,0,0,0,0,0,136.072
16,5,3,0,0,0,0,0,0,136.078
0,122,43087,0,0,0,0,0,0,136.082
0,1,19,0,0,0,0,0,0,136.088
5,122,43087,0,0,0,0,0,0,136.092
5,0,0,0,0,0,0,0,0,136.098
5,122,43087,0,0,0,0,0,0,136.102
5,20,6,0,0,0,0,0,0,136.108
16,122,43087,0,0,0,0,0,0,136.112
16,0,2,0,0,0,0,0,0,136.118
15,122,43087,0,0,0,0,0,0,136.122
15,0,13,0,0,0,0,0,0,136.128
14,122,43087,0,0,0,0,0,0,136.132
14,19,9,0,0,0,0,0,0,136.138
1,122,43087,0,0,0,0,0,0,136.141
1,8,5,0,0,0,0,0,0,136.148
15,122,43087,0,0,0,0,0,0,136.151
15,0,2,0,0,0,0,0,0,136.157
7,122,43087,0,0,0,0,0,0,136.161
7,0,20,0,0,0,0,0,0,136.167
11,122,43087,0,0,0,0,0,0,136.171
11,0,16,0,0,0,0,0,0,136.177
3,122,43087,0,0,0,0,0,0,136.181
3,5,5,0,0,0,0,0,0,136.187
18,122,43087,0,0,0,0,0,0,136.191
18,3,0,0,0,0,0,0,0,136.197
10,122,43087,0,0,0,0,0,0,136.201
10,0,0,0,0,0,0,0,0,136.207
8,122,43087,0,0,0,0,0,0,136.211
8,1,9,0,0,0,0,0,0,136.217
3,122,43087,0,0,0,0,0,0,136.221
3,10,13,0,0,0,0,0,0,136.227
7,122,43087,0,0,0,0,0,0,136.23
7,0,0,0,0,0,0,0,0,136.237
4,122,43087,0,0,0,0,0,0,136.24
4,0,0,0,0,0,0,0,0,136.246
27,122,43087,0,0,0,0,0,0,136.25
27,0,0,0,0,0,0,0,0,136.256
17,122,43087,0,0,0,0,0,0,136.26
17,0,20,0,0,0,0,0,0,136.266
9,122,43087,0,0,0,0,0,0,136.27
9,0,21,0,0,0,0,0,0,136.276
7,122,43087,0,0,0,0,0,0,136.28
7,6,4,0,0,0,0,0,0,136.286
0,122,43087,0,0,0,0,0,0,136.29
0,1,14,0,0,0,0,0,0,136.296
16,122,43087,0,0,0,0,0,0,136.3
16,14,11,0,0,0,0,0,0,136.306
0,122,43087,0,0,0,0,0,0,136.31
0,1,1,0,0,0,0,0,0,136.316
2,122,43087,0,0,0,0,0,0,136.319
2,0,0,0,0,0,0,0,0,136.326
10,122,43087,0,0,0,0,0,0,136.329
10,3,2,0,0,0,0,0,0,136.336
5,122,43087,0,0,0,0,0,0,136.339
5,0,16,0,0,0,0,0,0,136.345
6,122,43087,0,0,0,0,0,0,136.349
6,3,11,0,0,0,0,0,0,136.355
4,122,43087,0,0,0,0,0,0,136.359
4,5,5,0,0,0,0,0,0,136.365
17,122,43087,0,0,0,0,0,0,136.369
17,0,9,0,0,0,0,0,0,136.375
7,122,43087,0,0,0,0,0,0,136.379
7,3,9,0,0,0,0,0,0,136.385
8,122,43087,0,0,0,0,0,0,136.389
8,6,10,0,0,0,0,0,0,136.395
0,122,43087,0,0,0,0,0,0,136.399
0,12,7,0,0,0,0,0,0,136.405
4,122,43087,0,0,0,0,0,0,136.408
4,0,0,0,0,0,0,0,0,136.415
9,122,43087,0,0,0,0,0,0,136.418
9,16,3,0,0,0,0,0,0,136.425
2,122,43087,0,0,0,0,0,0,136.428
2,9,16,0,0,0,0,0,0,136.434
0,122,43087,0,0,0,0,0,0,136.438
0,9,8,0,0,0,0,0,0,136.444
12,122,43087,0,0,0,0,0,0,136.448
12,1,16,0,0,0,0,0,0,136.454
17,122,43087,0,0,0,0,0,0,136.458
17,0,1,0,0,0,0,0,0,136.464
2,122,43087,0,0,0,0,0,0,136.468
2,6,11,0,0,0,0,0,0,136.474
0,122,43087,0,0,0,0,0,0,136.478
0,8,3,0,0,0,0,0,0,136.484
11,122,43087,0,0,0,0,0,0,136.488
11,0,8,0,0,0,0,0,0,136.494
6,122,43087,0,0,0,0,0,0,136.497
6,18,4,0,0,0,0,0,0,136.504
0,122,43087,0,0,0,0,0,0,136.507
0,25,2,0,0,0,0,0,0,136.514
4,122,43087,0,0,0,0,0,0,136.517
4,6,9,0,0,0,0,0,0,136.523
6,122,43087,0,0,0,0,0,0,136.527
6,8,0,0,0,0,0,0,0,136.533
11,122,43087,0,0,0,0,0,0,136.537
11,1,15,0,0,0,0,0,0,136.543
0,122,43087,0,0,0,0,0,0,136.547
0,1,0,0,0,0,0,0,0,136.553
2,122,43087,0,0,0,0,0,0,136.557
2,0,0,0,0,0,0,0,0,136.563
5,122,43087,0,0,0,0,0,0,136.567
5,11,1,0,0,0,0,0,0,136.573
0,122,43087,0,0,0,0,0,0,136.577
0,5,16,0,0,0,0,0,0,136.583
5,122,43087,0,0,0,0,0,0,136.586
5,13,0,0,0,0,0,0,0,136.593
6,122,43087,0,0,0,0,0,0,136.596
6,18,18,0,0,0,0,0,0,136.603
8,122,43087,0,0,0,0,0,0,136.606
8,13,6,0,0,0,0,0,0,136.612
15,122,43087,0,0,0,0,0,0,136.616
15,8,0,0,0,0,0,0,0,136.622
11,122,43087,0,0,0,0,0,0,136.626
11,0,0,0,0,0,0,0,0,136.632
14,122,43087,0,0,0,0,0,0,136.636
14,0,11,0,0,0,0,0,0,136.642
0,122,43087,0,0,0,0,0,0,136.646
0,7,0,0,0,0,0,0,0,136.652
7,122,43087,0,0,0,0,0,0,136.656
7,0,5,0,0,0,0,0,0,136.662
0,122,43087,0,0,0,0,0,0,136.666
0,7,28,0,0,0,0,0,0,136.672
10,122,43087,0,0,0,0,0,0,136.675
10,4,10,0,0,0,0,0,0,136.682
4,122,43087,0,0,0,0,0,0,136.685
4,2,13,0,0,0,0,0,0,136.692
16,122,43087,0,0,0,0,0,0,136.695
16,4,6,0,0,0,0,0,0,136.701
6,122,43087,0,0,0,0,0,0,136.705
6,0,0,0,0,0,0,0,0,136.711
8,122,43087,0,0,0,0,0,0,136.715
8,1,11,0,0,0,0,0,0,136.721
4,122,43087,0,0,0,0,0,0,136.725
4,15,10,0,0,0,0,0,0,136.731
18,122,43087,0,0,0,0,0,0,136.735
18,0,2,0,0,0,0,0,0,136.741
0,122,43087,0,0,0,0,0,0,136.745
0,1,0,0,0,0,0,0,0,136.751
10,122,43087,0,0,0,0,0,0,136.755
10,2,9,0,0,0,0,0,0,136.761
0,122,43087,0,0,0,0,0,0,136.764
0,3,13,0,0,0,0,0,0,136.771
18,122,43087,0,0,0,0,0,0,136.774
18,6,13,0,0,0,0,0,0,136.781
1,122,43087,0,0,0,0,0,0,136.784
1,0,0,0,0,0,0,0,0,136.79
5,122,43087,0,0,0,0,0,0,136.794
5,7,5,0,0,0,0,0,0,136.8
11,122,43087,0,0,0,0,0,0,136.804
11,13,0,0,0,0,0,0,0,136.81
15,122,43087,0,0,0,0,0,0,136.814
15,6,7,0,0,0,0,0,0,136.82
0,122,43087,0,0,0,0,0,0,136.824
0,11,0,0,0,0,0,0,0,136.83
22,122,43087,0,0,0,0,0,0,136.834
22,11,19,0,0,0,0,0,0,136.84
11,122,43087,0,0,0,0,0,0,136.844
11,7,14,0,0,0,0,0,0,136.85
8,122,43087,0,0,0,0,0,0,136.854
8,27,7,0,0,0,0,0,0,136.86
2,122,43087,0,0,0,0,0,0,136.863
2,10,0,0,0,0,0,0,0,136.87
24,122,43087,0,0,0,0,0,0,136.873
24,2,15,0,0,0,0,0,0,136.879
12,122,43087,0,0,0,0,0,0,136.883
12,3,13,0,0,0,0,0,0,136.889
5,122,43087,0,0,0,0,0,0,136.893
5,17,22,0,0,0,0,0,0,136.899
9,122,43087,0,0,0,0,0,0,136.903
9,13,0,0,0,0,0,0,0,136.909
8,122,43087,0,0,0,0,0,0,136.913
8,6,4,0,0,0,0,0,0,136.919
3,122,43087,0,0,0,0,0,0,136.923
3,3,9,0,0,0,0,0,0,136.929
12,122,43087,0,0,0,0,0,0,136.933
12,0,0,0,0,0,0,0,0,136.939
6,122,43087,0,0,0,0,0,0,136.943
6,8,7,0,0,0,0,0,0,136.949
4,122,43087,0,0,0,0,0,0,136.952
4,9,9,0,0,0,0,0,0,136.959
7,122,43087,0,0,0,0,0,0,136.962
7,0,1,0,0,0,0,0,0,136.968
5,122,43087,0,0,0,0,0,0,136.972
5,0,17,0,0,0,0,0,0,136.978
0,122,43087,0,0,0,0,0,0,136.982
0,0,0,0,0,0,0,0,0,136.988
4,122,43087,0,0,0,0,0,0,136.992
4,2,12,0,0,0,0,0,0,136.998
2,122,43087,0,0,0,0,0,0,137.002
2,18,1,0,0,0,0,0,0,137.008
18,122,43087,0,0,0,0,0,0,137.012
18,8,20,0,0,0,0,0,0,137.018
8,122,43087,0,0,0,0,0,0,137.022
8,8,3,0,0,0,0,0,0,137.028
15,122,43087,0,0,0,0,0,0,137.032
15,21,9,0,0,0,0,0,0,137.038
0,122,43087,0,0,0,0,0,0,137.041
0,2,9,0,0,0,0,0,0,137.048
18,122,43087,0,0,0,0,0,0,137.051
18,8,4,0,0,0,0,0,0,137.057
10,122,43087,0,0,0,0,0,0,137.061
10,13,14,0,0,0,0,0,0,137.067
13,122,43087,0,0,0,0,0,0,137.071
13,5,9,0,0,0,0,0,0,137.077
20,122,43087,0,0,0,0,0,0,137.081
20,0,0,0,0,0,0,0,0,137.087
8,122,43087,0,0,0,0,0,0,137.091
8,5,0,0,0,0,0,0,0,137.097
19,122,43087,0,0,0,0,0,0,137.101
19,0,0,0,0,0,0,0,0,137.107
4,122,43087,0,0,0,0,0,0,137.111
4,13,5,0,0,0,0,0,0,137.117
18,122,43087,0,0,0,0,0,0,137.121
18,9,7,0,0,0,0,0,0,137.127
4,122,43087,0,0,0,0,0,0,137.13
4,16,0,0,0,0,0,0,0,137.137
9,122,43087,0,0,0,0,0,0,137.14
9,5,4,0,0,0,0,0,0,137.146
7,122,43087,0,0,0,0,0,0,137.15
7,26,1,0,0,0,0,0,0,137.156
2,122,43087,0,0,0,0,0,0,137.16
2,13,0,0,0,0,0,0,0,137.166
0,122,43087,0,0,0,0,0,0,137.17
0,9,0,0,0,0,0,0,0,137.176
3,122,43087,0,0,0,0,0,0,137.18
3,18,11,0,0,0,0,0,0,137.186
8,122,43087,0,0,0,0,0,0,137.19
8,0,12,0,0,0,0,0,0,137.196
3,122,43087,0,0,0,0,0,0,137.2
3,6,0,0,0,0,0,0,0,137.206
6,122,43087,0,0,0,0,0,0,137.21
6,9,1,0,0,0,0,0,0,137.216
8,122,43087,0,0,0,0,0,0,137.219
8,6,1,0,0,0,0,0,0,137.226
2,122,43087,0,0,0,0,0,0,137.229
2,4,10,0,0,0,0,0,0,137.236
20,122,43087,0,0,0,0,0,0,137.239
20,0,13,0,0,0,0,0,0,137.245
6,122,43087,0,0,0,0,0,0,137.249
6,6,7,0,0,0,0,0,0,137.255
14,122,43087,0,0,0,0,0,0,137.259
14,0,10,0,0,0,0,0,0,137.265
3,122,43087,0,0,0,0,0,0,137.269
3,8,14,0,0,0,0,0,0,137.275
9,122,43087,0,0,0,0,0,0,137.279
9,9,0,0,0,0,0,0,0,137.285
20,122,43087,0,0,0,0,0,0,137.289
20,4,7,0,0,0,0,0,0,137.295
8,122,43087,0,0,0,0,0,0,137.299
8,13,12,0,0,0,0,0,0,137.305
0,122,43087,0,0,0,0,0,0,137.309
0,10,10,0,0,0,0,0,0,137.315
18,122,43087,0,0,0,0,0,0,137.318
18,10,9,0,0,0,0,0,0,137.325
2,122,43087,0,0,0,0,0,0,137.328
2,8,17,0,0,0,0,0,0,137.334
11,122,43087,0,0,0,0,0,0,137.338
11,3,0,0,0,0,0,0,0,137.344
0,122,43087,0,0,0,0,0,0,137.348
0,8,7,0,0,0,0,0,0,137.354
8,122,43087,0,0,0,0,0,0,137.358
8,0,0,0,0,0,0,0,0,137.364
3,122,43087,0,0,0,0,0,0,137.368
3,7,13,0,0,0,0,0,0,137.374
3,122,43087,0,0,0,0,0,0,137.378
3,0,5,0,0,0,0,0,0,137.384
12,122,43087,0,0,0,0,0,0,137.388
12,5,12,0,0,0,0,0,0,137.394
4,122,43087,0,0,0,0,0,0,137.398
4,6,1,0,0,0,0,0,0,137.404
0,122,43087,0,0,0,0,0,0,137.407
0,10,0,0,0,0,0,0,0,137.414
3,122,43087,0,0,0,0,0,0,137.417
3,4,5,0,0,0,0,0,0,137.423
0,122,43087,0,0,0,0,0,0,137.427
0,6,4,0,0,0,0,0,0,137.433
16,122,43087,0,0,0,0,0,0,137.437
16,4,12,0,0,0,0,0,0,137.443
0,122,43087,0,0,0,0,0,0,137.447
0,10,0,0,0,0,0,0,0,137.453
0,122,43087,0,0,0,0,0,0,137.457
0,0,3,0,0,0,0,0,0,137.463
7,122,43087,0,0,0,0,0,0,137.467
7,4,0,0,0,0,0,0,0,137.473
0,122,43087,0,0,0,0,0,0,137.477
0,11,0,0,0,0,0,0,0,137.483
9,122,43087,0,0,0,0,0,0,137.486
9,12,0,0,0,0,0,0,0,137.493
0,122,43087,0,0,0,0,0,0,137.496
0,6,3,0,0,0,0,0,0,137.503
12,122,43087,0,0,0,0,0,0,137.506
12,11,5,0,0,0,0,0,0,137.512
11,122,43087,0,0,0,0,0,0,137.516
11,3,0,0,0,0,0,0,0,137.522
0,122,43087,0,0,0,0,0,0,137.526
0,0,3,0,0,0,0,0,0,137.532
22,122,43087,0,0,0,0,0,0,137.536
22,10,0,0,0,0,0,0,0,137.542
13,122,43087,0,0,0,0,0,0,137.546
13,3,7,0,0,0,0,0,0,137.552
4,122,43087,0,0,0,0,0,0,137.556
4,7,3,0,0,0,0,0,0,137.562
18,122,43087,0,0,0,0,0,0,137.566
18,3,0,0,0,0,0,0,0,137.572
1,122,43087,0,0,0,0,0,0,137.576
1,0,3,0,0,0,0,0,0,137.582
3,122,43087,0,0,0,0,0,0,137.585
3,22,0,0,0,0,0,0,0,137.592
23,122,43087,0,0,0,0,0,0,137.595
23,0,10,0,0,0,0,0,0,137.601
5,122,43087,0,0,0,0,0,0,137.605
5,0,0,0,0,0,0,0,0,137.611
5,122,43087,0,0,0,0,0,0,137.615
5,5,11,0,0,0,0,0,0,137.621
5,122,43087,0,0,0,0,0,0,137.625
5,3,7,0,0,0,0,0,0,137.631
12,122,43087,0,0,0,0,0,0,137.635
12,14,4,0,0,0,0,0,0,137.641
9,122,43087,0,0,0,0,0,0,137.645
9,11,0,0,0,0,0,0,0,137.651
3,122,43087,0,0,0,0,0,0,137.655
3,0,8,0,0,0,0,0,0,137.661
15,122,43087,0,0,0,0,0,0,137.665
15,0,7,0,0,0,0,0,0,137.671
0,122,43087,0,0,0,0,0,0,137.674
0,5,15,0,0,0,0,0,0,137.681
0,122,43087,0,0,0,0,0,0,137.684
0,6,0,0,0,0,0,0,0,137.69
10,122,43087,0,0,0,0,0,0,137.694
10,26,12,0,0,0,0,0,0,137.7
6,122,43087,0,0,0,0,0,0,137.704
6,8,8,0,0,0,0,0,0,137.71
0,122,43087,0,0,0,0,0,0,137.714
0,0,13,0,0,0,0,0,0,137.72
0,122,43087,0,0,0,0,0,0,137.724
0,5,1,0,0,0,0,0,0,137.73
8,122,43087,0,0,0,0,0,0,137.734
8,10,0,0,0,0,0,0,0,137.74
0,122,43087,0,0,0,0,0,0,137.744
0,18,11,0,0,0,0,0,0,137.75
12,122,43087,0,0,0,0,0,0,137.753
12,0,14,0,0,0,0,0,0,137.76
0,122,43087,0,0,0,0,0,0,137.763
0,4,8,0,0,0,0,0,0,137.77
1,122,43087,0,0,0,0,0,0,137.773
1,21,1,0,0,0,0,0,0,137.779
14,122,43087,0,0,0,0,0,0,137.783
14,17,4,0,0,0,0,0,0,137.789
9,122,43087,0,0,0,0,0,0,137.793
9,2,6,0,0,0,0,0,0,137.799
6,122,43087,0,0,0,0,0,0,137.803
6,8,7,0,0,0,0,0,0,137.809
24,122,43087,0,0,0,0,0,0,137.813
24,6,9,0,0,0,0,0,0,137.819
13,122,43087,0,0,0,0,0,0,137.823
13,7,5,0,0,0,0,0,0,137.829
11,122,43087,0,0,0,0,0,0,137.833
11,4,12,0,0,0,0,0,0,137.839
7,122,43087,0,0,0,0,0,0,137.843
7,0,0,0,0,0,0,0,0,137.849
3,122,43087,0,0,0,0,0,0,137.852
3,16,0,0,0,0,0,0,0,137.859
25,122,43087,0,0,0,0,0,0,137.862
25,0,7,0,0,0,0,0,0,137.868
11,122,43087,0,0,0,0,0,0,137.872
11,0,14,0,0,0,0,0,0,137.878
5,122,43087,0,0,0,0,0,0,137.882
5,6,5,0,0,0,0,0,0,137.888
6,122,43087,0,0,0,0,0,0,137.892
6,0,4,0,0,0,0,0,0,137.898
0,122,43087,0,0,0,0,0,0,137.902
0,26,13,0,0,0,0,0,0,137.908
2,122,43087,0,0,0,0,0,0,137.912
2,1,2,0,0,0,0,0,0,137.918
21,122,43087,0,0,0,0,0,0,137.922
21,14,12,0,0,0,0,0,0,137.928
12,122,43087,0,0,0,0,0,0,137.932
12,7,12,0,0,0,0,0,0,137.938
0,122,43087,0,0,0,0,0,0,137.941
0,2,0,0,0,0,0,0,0,137.948
5,122,43087,0,0,0,0,0,0,137.951
5,23,0,0,0,0,0,0,0,137.957
4,122,43087,0,0,0,0,0,0,137.961
4,0,6,0,0,0,0,0,0,137.967
19,122,43087,0,0,0,0,0,0,137.971
19,0,6,0,0,0,0,0,0,137.977
15,122,43087,0,0,0,0,0,0,137.981
15,0,11,0,0,0,0,0,0,137.987
12,122,43087,0,0,0,0,0,0,137.991
12,6,24,0,0,0,0,0,0,137.997
7,122,43087,0,0,0,0,0,0,138.001
7,5,8,0,0,0,0,0,0,138.007
16,122,43087,0,0,0,0,0,0,138.011
16,5,1,0,0,0,0,0,0,138.017
8,122,43087,0,0,0,0,0,0,138.021
8,13,5,0,0,0,0,0,0,138.027
0,122,43087,0,0,0,0,0,0,138.03
0,8,0,0,0,0,0,0,0,138.037
24,122,43087,0,0,0,0,0,0,138.04
24,12,10,0,0,0,0,0,0,138.046
0,122,43087,0,0,0,0,0,0,138.05
0,11,0,0,0,0,0,0,0,138.056
17,122,43087,0,0,0,0,0,0,138.06
17,0,0,0,0,0,0,0,0,138.066
9,122,43087,0,0,0,0,0,0,138.07
9,11,3,0,0,0,0,0,0,138.076
5,122,43087,0,0,0,0,0,0,138.08
5,0,0,0,0,0,0,0,0,138.086
9,122,43087,0,0,0,0,0,0,138.09
9,7,4,0,0,0,0,0,0,138.096
6,122,43087,0,0,0,0,0,0,138.1
6,5,8,0,0,0,0,0,0,138.106
12,122,43087,0,0,0,0,0,0,138.11
12,16,0,0,0,0,0,0,0,138.116
18,122,43087,0,0,0,0,0,0,138.119
18,0,13,0,0,0,0,0,0,138.126
12,122,43087,0,0,0,0,0,0,138.129
12,19,5,0,0,0,0,0,0,138.135
9,122,43087,0,0,0,0,0,0,138.139
9,7,7,0,0,0,0,0,0,138.145
4,122,43087,0,0,0,0,0,0,138.149
4,3,3,0,0,0,0,0,0,138.155
2,122,43087,0,0,0,0,0,0,138.159
2,13,22,0,0,0,0,0,0,138.165
12,122,43087,0,0,0,0,0,0,138.169
12,3,9,0,0,0,0,0,0,138.175
6,122,43087,0,0,0,0,0,0,138.179
6,13,0,0,0,0,0,0,0,138.185
1,122,43087,0,0,0,0,0,0,138.189
1,16,8,0,0,0,0,0,0,138.195
6,122,43087,0,0,0,0,0,0,138.199
6,7,0,0,0,0,0,0,0,138.205
0,122,43087,0,0,0,0,0,0,138.208
0,7,9,0,0,0,0,0,0,138.215
5,122,43087,0,0,0,0,0,0,138.218
5,10,12,0,0,0,0,0,0,138.225
16,122,43087,0,0,0,0,0,0,138.228
16,8,0,0,0,0,0,0,0,138.234
2,122,43087,0,0,0,0,0,0,138.238
2,23,7,0,0,0,0,0,0,138.244
0,122,43087,0,0,0,0,0,0,138.248
0,0,5,0,0,0,0,0,0,138.254
16,122,43087,0,0,0,0,0,0,138.258
16,3,4,0,0,0,0,0,0,138.264
0,122,43087,0,0,0,0,0,0,138.268
0,9,0,0,0,0,0,0,0,138.274
9,122,43087,0,0,0,0,0,0,138.278
9,5,6,0,0,0,0,0,0,138.284
2,122,43087,0,0,0,0,0,0,138.288
2,2,0,0,0,0,0,0,0,138.294
11,122,43087,0,0,0,0,0,0,138.297
11,8,8,0,0,0,0,0,0,138.304
0,122,43087,0,0,0,0,0,0,138.307
0,5,6,0,0,0,0,0,0,138.313
15,122,43087,0,0,0,0,0,0,138.317
15,4,10,0,0,0,0,0,0,138.323
0,122,43087,0,0,0,0,0,0,138.327
0,13,8,0,0,0,0,0,0,138.333
5,122,43087,0,0,0,0,0,0,138.337
5,10,4,0,0,0,0,0,0,138.343
0,122,43087,0,0,0,0,0,0,138.347
0,12,17,0,0,0,0,0,0,138.353
3,122,43087,0,0,0,0,0,0,138.357
3,3,7,0,0,0,0,0,0,138.363
18,122,43087,0,0,0,0,0,0,138.367
18,0,7,0,0,0,0,0,0,138.373
0,122,43087,0,0,0,0,0,0,138.377
0,2,6,0,0,0,0,0,0,138.383
15,122,43087,0,0,0,0,0,0,138.386
15,10,0,0,0,0,0,0,0,138.393
14,122,43087,0,0,0,0,0,0,138.396
14,14,3,0,0,0,0,0,0,138.403
13,122,43087,0,0,0,0,0,0,138.406
13,6,3,0,0,0,0,0,0,138.412
4,122,43087,0,0,0,0,0,0,138.416
4,14,13,0,0,0,0,0,0,138.422
8,122,43087,0,0,0,0,0,0,138.426
8,5,5,0,0,0,0,0,0,138.432
7,122,43087,0,0,0,0,0,0,138.436
7,4,6,0,0,0,0,0,0,138.442
12,122,43087,0,0,0,0,0,0,138.446
12,7,11,0,0,0,0,0,0,138.452
0,122,43087,0,0,0,0,0,0,138.456
0,12,1,0,0,0,0,0,0,138.462
0,122,43087,0,0,0,0,0,0,138.466
0,0,0,0,0,0,0,0,0,138.472
12,122,43087,0,0,0,0,0,0,138.475
12,0,6,0,0,0,0,0,0,138.482
2,122,43087,0,0,0,0,0,0,138.485
2,10,6,0,0,0,0,0,0,138.492
12,122,43087,0,0,0,0,0,0,138.495
12,0,12,0,0,0,0,0,0,138.501
10,122,43087,0,0,0,0,0,0,138.505
10,0,0,0,0,0,0,0,0,138.511
18,122,43087,0,0,0,0,0,0,138.515
18,5,6,0,0,0,0,0,0,138.521
35,122,43087,0,0,0,0,0,0,138.525
35,6,6,0,0,0,0,0,0,138.531
6,122,43087,0,0,0,0,0,0,138.535
6,18,3,0,0,0,0,0,0,138.541
0,122,43087,0,0,0,0,0,0,138.545
0,5,1,0,0,0,0,0,0,138.551
12,122,43087,0,0,0,0,0,0,138.555
12,7,6,0,0,0,0,0,0,138.561
9,122,43087,0,0,0,0,0,0,138.565
9,6,11,0,0,0,0,0,0,138.571
1,122,43087,0,0,0,0,0,0,138.574
1,8,6,0,0,0,0,0,0,138.581
11,122,43087,0,0,0,0,0,0,138.584
11,0,3,0,0,0,0,0,0,138.59
25,122,43087,0,0,0,0,0,0,138.594
25,9,0,0,0,0,0,0,0,138.6
13,122,43087,0,0,0,0,0,0,138.604
13,19,0,0,0,0,0,0,0,138.61
16,122,43087,0,0,0,0,0,0,138.614
16,4,0,0,0,0,0,0,0,138.62
9,122,43087,0,0,0,0,0,0,138.624
9,1,0,0,0,0,0,0,0,138.63
7,122,43087,0,0,0,0,0,0,138.634
7,0,4,0,0,0,0,0,0,138.64
13,122,43087,0,0,0,0,0,0,138.644
13,0,24,0,0,0,0,0,0,138.65
4,122,43087,0,0,0,0,0,0,138.654
4,18,9,0,0,0,0,0,0,138.66
10,122,43087,0,0,0,0,0,0,138.663
10,0,7,0,0,0,0,0,0,138.67
5,122,43087,0,0,0,0,0,0,138.673
5,15,3,0,0,0,0,0,0,138.679
16,122,43087,0,0,0,0,0,0,138.683
16,0,16,0,0,0,0,0,0,138.689
6,122,43087,0,0,0,0,0,0,138.693
6,10,13,0,0,0,0,0,0,138.699
14,122,43087,0,0,0,0,0,0,138.703
14,3,14,0,0,0,0,0,0,138.709
0,122,43087,0,0,0,0,0,0,138.713
0,11,9,0,0,0,0,0,0,138.719
14,122,43087,0,0,0,0,0,0,138.723
14,14,7,0,0,0,0,0,0,138.729
0,122,43087,0,0,0,0,0,0,138.733
0,7,0,0,0,0,0,0,0,138.739
8,122,43087,0,0,0,0,0,0,138.743
8,20,9,0,0,0,0,0,0,138.749
10,122,43087,0,0,0,0,0,0,138.752
10,5,0,0,0,0,0,0,0,138.759
2,122,43087,0,0,0,0,0,0,138.762
2,0,10,0,0,0,0,0,0,138.768
0,122,43087,0,0,0,0,0,0,138.772
0,7,3,0,0,0,0,0,0,138.778
6,122,43087,0,0,0,0,0,0,138.782
6,0,2,0,0,0,0,0,0,138.788
9,122,43087,0,0,0,0,0,0,138.792
9,6,3,0,0,0,0,0,0,138.798
19,122,43087,0,0,0,0,0,0,138.802
19,8,3,0,0,0,0,0,0,138.808
18,122,43087,0,0,0,0,0,0,138.812
18,14,3,0,0,0,0,0,0,138.818
18,122,43087,0,0,0,0,0,0,138.822
18,11,15,0,0,0,0,0,0,138.828
15,122,43087,0,0,0,0,0,0,138.832
15,12,6,0,0,0,0,0,0,138.838
3,122,43087,0,0,0,0,0,0,138.841
3,0,7,0,0,0,0,0,0,138.848
0,122,43087,0,0,0,0,0,0,138.851
0,14,0,0,0,0,0,0,0,138.858
4,122,43087,0,0,0,0,0,0,138.861
4,0,1,0,0,0,0,0,0,138.867
11,122,43087,0,0,0,0,0,0,138.871
11,0,15,0,0,0,0,0,0,138.877
1,122,43087,0,0,0,0,0,0,138.881
1,2,0,0,0,0,0,0,0,138.887
2,122,43087,0,0,0,0,0,0,138.891
2,0,2,0,0,0,0,0,0,138.897
0,122,43087,0,0,0,0,0,0,138.901
0,7,0,0,0,0,0,0,0,138.907
6,122,43087,0,0,0,0,0,0,138.911
6,6,8,0,0,0,0,0,0,138.917
0,122,43087,0,0,0,0,0,0,138.921
0,10,12,0,0,0,0,0,0,138.927
3,122,43087,0,0,0,0,0,0,138.931
3,4,26,0,0,0,0,0,0,138.937
5,122,43087,0,0,0,0,0,0,138.94
5,6,0,0,0,0,0,0,0,138.947
18,122,43087,0,0,0,0,0,0,138.95
18,8,0,0,0,0,0,0,0,138.956
0,122,43087,0,0,0,0,0,0,138.96
0,4,7,0,0,0,0,0,0,138.966
4,122,43087,0,0,0,0,0,0,138.97
4,0,2,0,0,0,0,0,0,138.976
12,122,43087,0,0,0,0,0,0,138.98
12,6,10,0,0,0,0,0,0,138.986
1,122,43087,0,0,0,0,0,0,138.99
1,1,3,0,0,0,0,0,0,138.996
0,122,43087,0,0,0,0,0,0,139
0,20,2,0,0,0,0,0,0,139.006
18,122,43087,0,0,0,0,0,0,139.01
18,13,2,0,0,0,0,0,0,139.016
6,122,43087,0,0,0,0,0,0,139.02
6,6,19,0,0,0,0,0,0,139.026
18,122,43087,0,0,0,0,0,0,139.029
18,5,1,0,0,0,0,0,0,139.036
2,122,43087,0,0,0,0,0,0,139.039
2,0,3,0,0,0,0,0,0,139.045
6,122,43087,0,0,0,0,0,0,139.049
6,10,2,0,0,0,0,0,0,139.055
10,122,43087,0,0,0,0,0,0,139.059
10,10,19,0,0,0,0,0,0,139.065
10,122,43087,0,0,0,0,0,0,139.069
10,5,0,0,0,0,0,0,0,139.075
0,122,43087,0,0,0,0,0,0,139.079
0,8,17,0,0,0,0,0,0,139.085
0,122,43087,0,0,0,0,0,0,139.089
0,6,3,0,0,0,0,0,0,139.095
0,122,43087,0,0,0,0,0,0,139.099
0,1,0,0,0,0,0,0,0,139.105
12,122,43087,0,0,0,0,0,0,139.109
12,5,12,0,0,0,0,0,0,139.115
16,122,43087,0,0,0,0,0,0,139.118
16,11,7,0,0,0,0,0,0,139.125
0,122,43087,0,0,0,0,0,0,139.128
0,9,11,0,0,0,0,0,0,139.134
0,122,43087,0,0,0,0,0,0,139.138
0,9,6,0,0,0,0,0,0,139.144
0,122,43087,0,0,0,0,0,0,139.148
0,9,0,0,0,0,0,0,0,139.154
13,122,43087,0,0,0,0,0,0,139.158
13,10,0,0,0,0,0,0,0,139.164
1,122,43087,0,0,0,0,0,0,139.168
1,0,17,0,0,0,0,0,0,139.174
16,122,43087,0,0,0,0,0,0,139.178
16,0,4,0,0,0,0,0,0,139.184
18,122,43087,0,0,0,0,0,0,139.188
18,5,9,0,0,0,0,0,0,139.194
20,122,43087,0,0,0,0,0,0,139.198
20,0,0,0,0,0,0,0,0,139.204
3,122,43087,0,0,0,0,0,0,139.207
3,1,25,0,0,0,0,0,0,139.214
5,122,43087,0,0,0,0,0,0,139.217
5,18,0,0,0,0,0,0,0,139.224
9,122,43087,0,0,0,0,0,0,139.227
9,4,0,0,0,0,0,0,0,139.233
0,122,43087,0,0,0,0,0,0,139.237
0,0,18,0,0,0,0,0,0,139.243
10,122,43087,0,0,0,0,0,0,139.247
10,5,11,0,0,0,0,0,0,139.253
5,122,43087,0,0,0,0,0,0,139.257
5,10,15,0,0,0,0,0,0,139.263
10,122,43087,0,0,0,0,0,0,139.267
10,0,16,0,0,0,0,0,0,139.273
12,122,43087,0,0,0,0,0,0,139.277
12,1,9,0,0,0,0,0,0,139.283
11,122,43087,0,0,0,0,0,0,139.287
11,7,10,0,0,0,0,0,0,139.293
1,122,43087,0,0,0,0,0,0,139.296
1,15,8,0,0,0,0,0,0,139.303
21,122,43087,0,0,0,0,0,0,139.306
21,0,0,0,0,0,0,0,0,139.313
0,122,43087,0,0,0,0,0,0,139.316
0,18,0,0,0,0,0,0,0,139.322
1,122,43087,0,0,0,0,0,0,139.326
1,6,0,0,0,0,0,0,0,139.332
0,122,43087,0,0,0,0,0,0,139.336
0,9,6,0,0,0,0,0,0,139.342
1,122,43087,0,0,0,0,0,0,139.346
1,5,12,0,0,0,0,0,0,139.352
17,122,43087,0,0,0,0,0,0,139.356
17,16,2,0,0,0,0,0,0,139.362
1,122,43087,0,0,0,0,0,0,139.366
1,9,7,0,0,0,0,0,0,139.372
0,122,43087,0,0,0,0,0,0,139.376
0,6,0,0,0,0,0,0,0,139.382
3,122,43087,0,0,0,0,0,0,139.386
3,0,5,0,0,0,0,0,0,139.392
0,122,43087,0,0,0,0,0,0,139.395
0,6,12,0,0,0,0,0,0,139.402
8,122,43087,0,0,0,0,0,0,139.405
8,0,0,0,0,0,0,0,0,139.411
7,122,43087,0,0,0,0,0,0,139.415
7,15,0,0,0,0,0,0,0,139.421
9,122,43087,0,0,0,0,0,0,139.425
9,0,9,0,0,0,0,0,0,139.431
9,122,43087,0,0,0,0,0,0,139.435
9,0,0,0,0,0,0,0,0,139.441
5,122,43087,0,0,0,0,0,0,139.445
5,0,8,0,0,0,0,0,0,139.451
3,122,43087,0,0,0,0,0,0,139.455
3,19,0,0,0,0,0,0,0,139.461
13,122,43087,0,0,0,0,0,0,139.465
13,1,4,0,0,0,0,0,0,139.471
0,122,43087,0,0,0,0,0,0,139.475
0,10,8,0,0,0,0,0,0,139.481
12,122,43087,0,0,0,0,0,0,139.484
12,4,3,0,0,0,0,0,0,139.491
0,122,43087,0,0,0,0,0,0,139.494
0,0,0,0,0,0,0,0,0,139.5
13,122,43087,0,0,0,0,0,0,139.504
13,3,6,0,0,0,0,0,0,139.51
0,122,43087,0,0,0,0,0,0,139.514
0,0,0,0,0,0,0,0,0,139.52
4,122,43087,0,0,0,0,0,0,139.524
4,6,0,0,0,0,0,0,0,139.53
5,122,43087,0,0,0,0,0,0,139.534
5,11,10,0,0,0,0,0,0,139.54
6,122,43087,0,0,0,0,0,0,139.544
6,11,2,0,0,0,0,0,0,139.55
15,122,43087,0,0,0,0,0,0,139.554
15,12,0,0,0,0,0,0,0,139.56
1,122,43087,0,0,0,0,0,0,139.564
1,0,3,0,0,0,0,0,0,139.57
9,122,43087,0,0,0,0,0,0,139.573
9,10,12,0,0,0,0,0,0,139.58
1,122,43087,0,0,0,0,0,0,139.583
1,2,0,0,0,0,0,0,0,139.589
0,122,43087,0,0,0,0,0,0,139.593
0,5,3,0,0,0,0,0,0,139.599
2,122,43087,0,0,0,0,0,0,139.603
2,2,4,0,0,0,0,0,0,139.609
0,122,43087,0,0,0,0,0,0,139.613
0,0,3,0,0,0,0,0,0,139.619
9,122,43087,0,0,0,0,0,0,139.623
9,0,7,0,0,0,0,0,0,139.629
11,122,43087,0,0,0,0,0,0,139.633
11,0,7,0,0,0,0,0,0,139.639
22,122,43087,0,0,0,0,0,0,139.643
22,6,3,0,0,0,0,0,0,139.649
3,122,43087,0,0,0,0,0,0,139.653
3,4,11,0,0,0,0,0,0,139.659
0,122,43087,0,0,0,0,0,0,139.662
0,6,13,0,0,0,0,0,0,139.669
7,122,43087,0,0,0,0,0,0,139.672
7,2,10,0,0,0,0,0,0,139.678
0,122,43087,0,0,0,0,0,0,139.682
0,11,20,0,0,0,0,0,0,139.688
12,122,43087,0,0,0,0,0,0,139.692
12,0,1,0,0,0,0,0,0,139.698
7,122,43087,0,0,0,0,0,0,139.702
7,4,10,0,0,0,0,0,0,139.708
6,122,43087,0,0,0,0,0,0,139.712
6,6,25,0,0,0,0,0,0,139.718
22,122,43087,0,0,0,0,0,0,139.722
22,15,1,0,0,0,0,0,0,139.728
5,122,43087,0,0,0,0,0,0,139.732
5,6,0,0,0,0,0,0,0,139.738
0,122,43087,0,0,0,0,0,0,139.742
0,1,6,0,0,0,0,0,0,139.748
14,122,43087,0,0,0,0,0,0,139.751
14,0,5,0,0,0,0,0,0,139.758
1,122,43087,0,0,0,0,0,0,139.761
1,18,7,0,0,0,0,0,0,139.768
0,122,43087,0,0,0,0,0,0,139.771
0,2,10,0,0,0,0,0,0,139.777
1,122,43087,0,0,0,0,0,0,139.781
1,10,0,0,0,0,0,0,0,139.787
3,122,43087,0,0,0,0,0,0,139.791
3,0,6,0,0,0,0,0,0,139.797
8,122,43087,0,0,0,0,0,0,139.801
8,1,9,0,0,0,0,0,0,139.807
14,122,43087,0,0,0,0,0,0,139.811
14,1,8,0,0,0,0,0,0,139.817
5,122,43087,0,0,0,0,0,0,139.821
5,3,0,0,0,0,0,0,0,139.827
5,122,43087,0,0,0,0,0,0,139.831
5,0,7,0,0,0,0,0,0,139.837
0,122,43087,0,0,0,0,0,0,139.84
0,3,6,0,0,0,0,0,0,139.847
0,122,43087,0,0,0,0,0,0,139.85
0,13,0,0,0,0,0,0,0,139.857
2,122,43087,0,0,0,0,0,0,139.86
2,20,14,0,0,0,0,0,0,139.866
15,122,43087,0,0,0,0,0,0,139.87
15,8,3,0,0,0,0,0,0,139.876
5,122,43087,0,0,0,0,0,0,139.88
5,15,4,0,0,0,0,0,0,139.886
0,122,43087,0,0,0,0,0,0,139.89
0,9,5,0,0,0,0,0,0,139.896
0,122,43087,0,0,0,0,0,0,139.9
0,5,0,0,0,0,0,0,0,139.906
8,122,43087,0,0,0,0,0,0,139.91
8,0,13,0,0,0,0,0,0,139.916
8,122,43087,0,0,0,0,0,0,139.92
8,0,4,0,0,0,0,0,0,139.926
0,122,43087,0,0,0,0,0,0,139.93
0,8,4,0,0,0,0,0,0,139.936
21,122,43087,0,0,0,0,0,0,139.939
21,4,15,0,0,0,0,0,0,139.946
10,122,43087,0,0,0,0,0,0,139.949
10,3,10,0,0,0,0,0,0,139.955
0,122,43087,0,0,0,0,0,0,139.959
0,12,9,0,0,0,0,0,0,139.965
6,122,43087,0,0,0,0,0,0,139.969
6,10,12,0,0,0,0,0,0,139.975
0,122,43087,0,0,0,0,0,0,139.979
0,15,20,0,0,0,0,0,0,139.985
0,122,43087,0,0,0,0,0,0,139.989
0,0,10,0,0,0,0,0,0,139.995
19,122,43087,0,0,0,0,0,0,139.999
19,14,6,0,0,0,0,0,0,140.005
0,122,43087,0,0,0,0,0,0,140.009
0,0,0,0,0,0,0,0,0,140.015
6,122,43087,0,0,0,0,0,0,140.019
6,12,6,0,0,0,0,0,0,140.025
11,122,43087,0,0,0,0,0,0,140.028
11,2,0,0,0,0,0,0,0,140.035
4,122,43087,0,0,0,0,0,0,140.038
4,2,12,0,0,0,0,0,0,140.045
12,122,43087,0,0,0,0,0,0,140.048
12,9,8,0,0,0,0,0,0,140.054
4,122,43087,0,0,0,0,0,0,140.058
4,11,0,0,0,0,0,0,0,140.064
4,122,43087,0,0,0,0,0,0,140.068
4,10,6,0,0,0,0,0,0,140.074
7,122,43087,0,0,0,0,0,0,140.078
7,9,1,0,0,0,0,0,0,140.084
10,122,43087,0,0,0,0,0,0,140.088
10,1,7,0,0,0,0,0,0,140.094
15,122,43087,0,0,0,0,0,0,140.098
15,18,1,0,0,0,0,0,0,140.104
18,122,43087,0,0,0,0,0,0,140.108
18,2,6,0,0,0,0,0,0,140.114
0,122,43087,0,0,0,0,0,0,140.117
0,15,8,0,0,0,0,0,0,140.124
5,122,43087,0,0,0,0,0,0,140.127
5,14,4,0,0,0,0,0,0,140.134
2,122,43087,0,0,0,0,0,0,140.137
2,14,9,0,0,0,0,0,0,140.143
9,122,43087,0,0,0,0,0,0,140.147
9,14,8,0,0,0,0,0,0,140.153
8,122,43087,0,0,0,0,0,0,140.157
8,16,0,0,0,0,0,0,0,140.163
2,122,43087,0,0,0,0,0,0,140.167
2,3,0,0,0,0,0,0,0,140.173
0,122,43087,0,0,0,0,0,0,140.177
0,12,5,0,0,0,0,0,0,140.183
2,122,43087,0,0,0,0,0,0,140.187
2,0,8,0,0,0,0,0,0,140.193
0,122,43087,0,0,0,0,0,0,140.197
0,6,9,0,0,0,0,0,0,140.203
8,122,43087,0,0,0,0,0,0,140.206
8,3,0,0,0,0,0,0,0,140.213
14,122,43087,0,0,0,0,0,0,140.216
14,4,0,0,0,0,0,0,0,140.223
7,122,43087,0,0,0,0,0,0,140.226
7,8,7,0,0,0,0,0,0,140.232
5,122,43087,0,0,0,0,0,0,140.236
5,1,0,0,0,0,0,0,0,140.242
10,122,43087,0,0,0,0,0,0,140.246
10,0,7,0,0,0,0,0,0,140.252
1,122,43087,0,0,0,0,0,0,140.256
1,11,0,0,0,0,0,0,0,140.262
11,122,43087,0,0,0,0,0,0,140.266
11,2,16,0,0,0,0,0,0,140.272
10,122,43087,0,0,0,0,0,0,140.276
10,5,0,0,0,0,0,0,0,140.282
20,122,43087,0,0,0,0,0,0,140.286
20,12,0,0,0,0,0,0,0,140.292
0,122,43087,0,0,0,0,0,0,140.295
0,3,9,0,0,0,0,0,0,140.302
22,122,43087,0,0,0,0,0,0,140.305
22,10,7,0,0,0,0,0,0,140.312
1,122,43087,0,0,0,0,0,0,140.315
1,0,0,0,0,0,0,0,0,140.321
3,122,43087,0,0,0,0,0,0,140.325
3,9,0,0,0,0,0,0,0,140.331
16,122,43087,0,0,0,0,0,0,140.335
16,11,15,0,0,0,0,0,0,140.341
9,122,43087,0,0,0,0,0,0,140.345
9,2,3,0,0,0,0,0,0,140.351
20,122,43087,0,0,0,0,0,0,140.355
20,0,3,0,0,0,0,0,0,140.361
0,122,43087,0,0,0,0,0,0,140.365
0,14,6,0,0,0,0,0,0,140.371
12,122,43087,0,0,0,0,0,0,140.375
12,10,1,0,0,0,0,0,0,140.381
4,122,43087,0,0,0,0,0,0,140.385
4,1,11,0,0,0,0,0,0,140.391
0,122,43087,0,0,0,0,0,0,140.394
0,2,11,0,0,0,0,0,0,140.401
