12,14,9,0,0,0,0,0,0,159.169
14,122,43087,0,0,0,0,0,0,159.173
14,5,17,0,0,0,0,0,0,159.179
3,122,43087,0,0,0,0,0,0,159.183
3,1,1,0,0,0,0,0,0,159.189
0,122,43087,0,0,0,0,0,0,159.192
0,12,9,0,0,0,0,0,0,159.199
11,122,43087,0,0,0,0,0,0,159.202
11,3,11,0,0,0,0,0,0,159.208
0,122,43087,0,0,0,0,0,0,159.212
0,10,2,0,0,0,0,0,0,159.218
0,122,43087,0,0,0,0,0,0,159.222
0,17,1,0,0,0,0,0,0,159.228
0,122,43087,0,0,0,0,0,0,159.232
0,0,31,0,0,0,0,0,0,159.238
4,122,43087,0,0,0,0,0,0,159.242
4,5,16,0,0,0,0,0,0,159.248
19,122,43087,0,0,0,0,0,0,159.252
19,7,11,0,0,0,0,0,0,159.258
14,122,43087,0,0,0,0,0,0,159.262
14,2,6,0,0,0,0,0,0,159.268
17,122,43087,0,0,0,0,0,0,159.272
17,2,10,0,0,0,0,0,0,159.278
8,122,43087,0,0,0,0,0,0,159.281
8,0,0,0,0,0,0,0,0,159.288
9,122,43087,0,0,0,0,0,0,159.291
9,15,0,0,0,0,0,0,0,159.298
12,122,43087,0,0,0,0,0,0,159.301
12,1,0,0,0,0,0,0,0,159.307
14,122,43087,0,0,0,0,0,0,159.311
14,10,6,0,0,0,0,0,0,159.317
13,122,43087,0,0,0,0,0,0,159.321
13,0,0,0,0,0,0,0,0,159.327
0,122,43087,0,0,0,0,0,0,159.331
0,0,0,0,0,0,0,0,0,159.337
2,122,43087,0,0,0,0,0,0,159.341
2,0,0,0,0,0,0,0,0,159.347
15,122,43087,0,0,0,0,0,0,159.351
15,15,15,0,0,0,0,0,0,159.357
0,122,43087,0,0,0,0,0,0,159.361
0,0,8,0,0,0,0,0,0,159.367
9,122,43087,0,0,0,0,0,0,159.371
9,8,3,0,0,0,0,0,0,159.377
9,122,43087,0,0,0,0,0,0,159.38
9,2,10,0,0,0,0,0,0,159.387
6,122,43087,0,0,0,0,0,0,159.39
6,10,22,0,0,0,0,0,0,159.396
0,122,43087,0,0,0,0,0,0,159.4
0,12,7,0,0,0,0,0,0,159.406
14,122,43087,0,0,0,0,0,0,159.41
14,21,3,0,0,0,0,0,0,159.416
2,122,43087,0,0,0,0,0,0,159.42
2,9,23,0,0,0,0,0,0,159.426
17,122,43087,0,0,0,0,0,0,159.43
17,13,11,0,0,0,0,0,0,159.436
0,122,43087,0,0,0,0,0,0,159.44
0,4,12,0,0,0,0,0,0,159.446
0,122,43087,0,0,0,0,0,0,159.45
0,5,0,0,0,0,0,0,0,159.456
0,122,43087,0,0,0,0,0,0,159.46
0,0,7,0,0,0,0,0,0,159.466
6,122,43087,0,0,0,0,0,0,159.47
6,5,3,0,0,0,0,0,0,159.476
0,122,43087,0,0,0,0,0,0,159.479
0,11,3,0,0,0,0,0,0,159.486
6,122,43087,0,0,0,0,0,0,159.489
6,9,4,0,0,0,0,0,0,159.495
6,122,43087,0,0,0,0,0,0,159.499
6,0,6,0,0,0,0,0,0,159.505
5,122,43087,0,0,0,0,0,0,159.509
5,8,4,0,0,0,0,0,0,159.515
7,122,43087,0,0,0,0,0,0,159.519
7,0,1,0,0,0,0,0,0,159.525
17,122,43087,0,0,0,0,0,0,159.529
17,15,8,0,0,0,0,0,0,159.535
6,122,43087,0,0,0,0,0,0,159.539
6,0,7,0,0,0,0,0,0,159.545
14,122,43087,0,0,0,0,0,0,159.549
14,2,3,0,0,0,0,0,0,159.555
0,122,43087,0,0,0,0,0,0,159.559
0,3,7,0,0,0,0,0,0,159.565
11,122,43087,0,0,0,0,0,0,159.568
11,13,10,0,0,0,0,0,0,159.575
0,122,43087,0,0,0,0,0,0,159.578
0,0,0,0,0,0,0,0,0,159.585
6,122,43087,0,0,0,0,0,0,159.588
6,12,1,0,0,0,0,0,0,159.594
3,122,43087,0,0,0,0,0,0,159.598
3,4,5,0,0,0,0,0,0,159.604
11,122,43087,0,0,0,0,0,0,159.608
11,7,4,0,0,0,0,0,0,159.614
8,122,43087,0,0,0,0,0,0,159.618
8,4,0,0,0,0,0,0,0,159.624
0,122,43087,0,0,0,0,0,0,159.628
0,13,5,0,0,0,0,0,0,159.634
6,122,43087,0,0,0,0,0,0,159.638
6,0,7,0,0,0,0,0,0,159.644
5,122,43087,0,0,0,0,0,0,159.648
5,15,9,0,0,0,0,0,0,159.654
0,122,43087,0,0,0,0,0,0,159.658
0,14,7,0,0,0,0,0,0,159.664
3,122,43087,0,0,0,0,0,0,159.667
3,13,16,0,0,0,0,0,0,159.674
12,122,43087,0,0,0,0,0,0,159.677
12,14,7,0,0,0,0,0,0,159.684
3,122,43087,0,0,0,0,0,0,159.687
3,6,1,0,0,0,0,0,0,159.693
9,122,43087,0,0,0,0,0,0,159.697
9,0,2,0,0,0,0,0,0,159.703
11,122,43087,0,0,0,0,0,0,159.707
11,1,8,0,0,0,0,0,0,159.713
1,122,43087,0,0,0,0,0,0,159.717
1,19,5,0,0,0,0,0,0,159.723
14,122,43087,0,0,0,0,0,0,159.727
14,18,0,0,0,0,0,0,0,159.733
0,122,43087,0,0,0,0,0,0,159.737
0,7,8,0,0,0,0,0,0,159.743
0,122,43087,0,0,0,0,0,0,159.747
0,19,7,0,0,0,0,0,0,159.753
8,122,43087,0,0,0,0,0,0,159.757
8,15,13,0,0,0,0,0,0,159.763
11,122,43087,0,0,0,0,0,0,159.766
11,14,5,0,0,0,0,0,0,159.773
13,122,43087,0,0,0,0,0,0,159.776
13,20,2,0,0,0,0,0,0,159.782
6,122,43087,0,0,0,0,0,0,159.786
6,1,0,0,0,0,0,0,0,159.792
3,122,43087,0,0,0,0,0,0,159.796
3,9,5,0,0,0,0,0,0,159.802
10,122,43087,0,0,0,0,0,0,159.806
10,9,23,0,0,0,0,0,0,159.812
15,122,43087,0,0,0,0,0,0,159.816
15,0,12,0,0,0,0,0,0,159.822
8,122,43087,0,0,0,0,0,0,159.826
8,0,1,0,0,0,0,0,0,159.832
3,122,43087,0,0,0,0,0,0,159.836
3,0,2,0,0,0,0,0,0,159.842
1,122,43087,0,0,0,0,0,0,159.846
1,14,0,0,0,0,0,0,0,159.852
3,122,43087,0,0,0,0,0,0,159.855
3,8,11,0,0,0,0,0,0,159.862
1,122,43087,0,0,0,0,0,0,159.865
1,0,6,0,0,0,0,0,0,159.872
12,122,43087,0,0,0,0,0,0,159.875
12,29,0,0,0,0,0,0,0,159.881
11,122,43087,0,0,0,0,0,0,159.885
11,8,8,0,0,0,0,0,0,159.891
2,122,43087,0,0,0,0,0,0,159.895
2,3,0,0,0,0,0,0,0,159.901
6,122,43087,0,0,0,0,0,0,159.905
6,7,0,0,0,0,0,0,0,159.911
14,122,43087,0,0,0,0,0,0,159.915
14,10,17,0,0,0,0,0,0,159.921
0,122,43087,0,0,0,0,0,0,159.925
0,9,3,0,0,0,0,0,0,159.931
18,122,43087,0,0,0,0,0,0,159.935
18,16,0,0,0,0,0,0,0,159.941
9,122,43087,0,0,0,0,0,0,159.945
9,6,7,0,0,0,0,0,0,159.951
16,122,43087,0,0,0,0,0,0,159.954
16,8,3,0,0,0,0,0,0,159.961
6,122,43087,0,0,0,0,0,0,159.964
6,0,1,0,0,0,0,0,0,159.971
15,122,43087,0,0,0,0,0,0,159.974
15,0,1,0,0,0,0,0,0,159.98
0,122,43087,0,0,0,0,0,0,159.984
0,2,0,0,0,0,0,0,0,159.99
16,122,43087,0,0,0,0,0,0,159.994
16,10,14,0,0,0,0,0,0,160
0,122,43087,0,0,0,0,0,0,160.004
0,0,28,0,0,0,0,0,0,160.01
3,122,43087,0,0,0,0,0,0,160.014
3,3,3,0,0,0,0,0,0,160.02
1,122,43087,0,0,0,0,0,0,160.024
1,18,21,0,0,0,0,0,0,160.03
24,122,43087,0,0,0,0,0,0,160.034
24,3,16,0,0,0,0,0,0,160.04
5,122,43087,0,0,0,0,0,0,160.044
5,2,8,0,0,0,0,0,0,160.05
11,122,43087,0,0,0,0,0,0,160.053
11,0,9,0,0,0,0,0,0,160.06
7,122,43087,0,0,0,0,0,0,160.063
7,21,11,0,0,0,0,0,0,160.069
12,122,43087,0,0,0,0,0,0,160.073
12,16,12,0,0,0,0,0,0,160.079
9,122,43087,0,0,0,0,0,0,160.083
9,7,15,0,0,0,0,0,0,160.089
12,122,43087,0,0,0,0,0,0,160.093
12,0,0,0,0,0,0,0,0,160.099
0,122,43087,0,0,0,0,0,0,160.103
0,16,1,0,0,0,0,0,0,160.109
15,122,43087,0,0,0,0,0,0,160.113
15,0,5,0,0,0,0,0,0,160.119
5,122,43087,0,0,0,0,0,0,160.123
5,14,0,0,0,0,0,0,0,160.129
7,122,43087,0,0,0,0,0,0,160.133
7,0,3,0,0,0,0,0,0,160.139
3,122,43087,0,0,0,0,0,0,160.143
3,8,11,0,0,0,0,0,0,160.149
0,122,43087,0,0,0,0,0,0,160.152
0,13,0,0,0,0,0,0,0,160.159
11,122,43087,0,0,0,0,0,0,160.162
11,10,5,0,0,0,0,0,0,160.168
1,122,43087,0,0,0,0,0,0,160.172
1,11,3,0,0,0,0,0,0,160.178
0,122,43087,0,0,0,0,0,0,160.182
0,11,16,0,0,0,0,0,0,160.188
13,122,43087,0,0,0,0,0,0,160.192
13,10,2,0,0,0,0,0,0,160.198
2,122,43087,0,0,0,0,0,0,160.202
2,3,20,0,0,0,0,0,0,160.208
4,122,43087,0,0,0,0,0,0,160.212
4,3,1,0,0,0,0,0,0,160.218
0,122,43087,0,0,0,0,0,0,160.222
0,2,3,0,0,0,0,0,0,160.228
9,122,43087,0,0,0,0,0,0,160.232
9,5,0,0,0,0,0,0,0,160.238
17,122,43087,0,0,0,0,0,0,160.241
17,0,6,0,0,0,0,0,0,160.248
0,122,43087,0,0,0,0,0,0,160.251
0,14,2,0,0,0,0,0,0,160.258
3,122,43087,0,0,0,0,0,0,160.261
3,9,8,0,0,0,0,0,0,160.267
0,122,43087,0,0,0,0,0,0,160.271
0,12,0,0,0,0,0,0,0,160.277
17,122,43087,0,0,0,0,0,0,160.281
17,10,18,0,0,0,0,0,0,160.287
3,122,43087,0,0,0,0,0,0,160.291
3,0,10,0,0,0,0,0,0,160.297
14,122,43087,0,0,0,0,0,0,160.301
14,0,4,0,0,0,0,0,0,160.307
13,122,43087,0,0,0,0,0,0,160.311
13,16,6,0,0,0,0,0,0,160.317
17,122,43087,0,0,0,0,0,0,160.321
17,4,14,0,0,0,0,0,0,160.327
0,122,43087,0,0,0,0,0,0,160.331
0,7,11,0,0,0,0,0,0,160.337
7,122,43087,0,0,0,0,0,0,160.34
7,7,24,0,0,0,0,0,0,160.347
9,122,43087,0,0,0,0,0,0,160.35
9,0,11,0,0,0,0,0,0,160.356
3,122,43087,0,0,0,0,0,0,160.36
3,8,5,0,0,0,0,0,0,160.366
0,122,43087,0,0,0,0,0,0,160.37
0,6,12,0,0,0,0,0,0,160.376
18,122,43087,0,0,0,0,0,0,160.38
18,3,11,0,0,0,0,0,0,160.386
7,122,43087,0,0,0,0,0,0,160.39
7,5,0,0,0,0,0,0,0,160.396
8,122,43087,0,0,0,0,0,0,160.4
8,27,16,0,0,0,0,0,0,160.406
0,122,43087,0,0,0,0,0,0,160.41
0,1,0,0,0,0,0,0,0,160.416
8,122,43087,0,0,0,0,0,0,160.42
8,6,12,0,0,0,0,0,0,160.426
4,122,43087,0,0,0,0,0,0,160.43
4,13,26,0,0,0,0,0,0,160.436
4,122,43087,0,0,0,0,0,0,160.439
4,6,0,0,0,0,0,0,0,160.446
1,122,43087,0,0,0,0,0,0,160.449
1,0,4,0,0,0,0,0,0,160.455
14,122,43087,0,0,0,0,0,0,160.459
14,0,1,0,0,0,0,0,0,160.465
10,122,43087,0,0,0,0,0,0,160.469
10,0,11,0,0,0,0,0,0,160.475
11,122,43087,0,0,0,0,0,0,160.479
11,0,0,0,0,0,0,0,0,160.485
0,122,43087,0,0,0,0,0,0,160.489
0,9,0,0,0,0,0,0,0,160.495
0,122,43087,0,0,0,0,0,0,160.499
0,0,16,0,0,0,0,0,0,160.505
6,122,43087,0,0,0,0,0,0,160.509
6,2,7,0,0,0,0,0,0,160.515
3,122,43087,0,0,0,0,0,0,160.519
3,0,17,0,0,0,0,0,0,160.525
13,122,43087,0,0,0,0,0,0,160.528
13,3,17,0,0,0,0,0,0,160.535
7,122,43087,0,0,0,0,0,0,160.538
7,10,21,0,0,0,0,0,0,160.545
8,122,43087,0,0,0,0,0,0,160.548
8,0,5,0,0,0,0,0,0,160.554
21,122,43087,0,0,0,0,0,0,160.558
21,0,6,0,0,0,0,0,0,160.564
0,122,43087,0,0,0,0,0,0,160.568
0,21,2,0,0,0,0,0,0,160.574
10,122,43087,0,0,0,0,0,0,160.578
10,9,7,0,0,0,0,0,0,160.584
9,122,43087,0,0,0,0,0,0,160.588
9,10,6,0,0,0,0,0,0,160.594
7,122,43087,0,0,0,0,0,0,160.598
7,3,18,0,0,0,0,0,0,160.604
0,122,43087,0,0,0,0,0,0,160.608
0,7,7,0,0,0,0,0,0,160.614
0,122,43087,0,0,0,0,0,0,160.618
0,6,0,0,0,0,0,0,0,160.624
9,122,43087,0,0,0,0,0,0,160.627
9,23,7,0,0,0,0,0,0,160.634
0,122,43087,0,0,0,0,0,0,160.637
0,0,1,0,0,0,0,0,0,160.643
0,122,43087,0,0,0,0,0,0,160.647
0,10,3,0,0,0,0,0,0,160.653
16,122,43087,0,0,0,0,0,0,160.657
16,5,17,0,0,0,0,0,0,160.663
3,122,43087,0,0,0,0,0,0,160.667
3,12,4,0,0,0,0,0,0,160.673
4,122,43087,0,0,0,0,0,0,160.677
4,12,12,0,0,0,0,0,0,160.683
1,122,43087,0,0,0,0,0,0,160.687
1,6,9,0,0,0,0,0,0,160.693
16,122,43087,0,0,0,0,0,0,160.697
16,14,3,0,0,0,0,0,0,160.703
10,122,43087,0,0,0,0,0,0,160.707
10,14,19,0,0,0,0,0,0,160.713
9,122,43087,0,0,0,0,0,0,160.717
9,0,6,0,0,0,0,0,0,160.723
7,122,43087,0,0,0,0,0,0,160.726
7,12,0,0,0,0,0,0,0,160.733
2,122,43087,0,0,0,0,0,0,160.736
2,0,10,0,0,0,0,0,0,160.742
5,122,43087,0,0,0,0,0,0,160.746
5,9,4,0,0,0,0,0,0,160.752
9,122,43087,0,0,0,0,0,0,160.756
9,7,7,0,0,0,0,0,0,160.762
11,122,43087,0,0,0,0,0,0,160.766
11,1,0,0,0,0,0,0,0,160.772
8,122,43087,0,0,0,0,0,0,160.776
8,3,8,0,0,0,0,0,0,160.782
14,122,43087,0,0,0,0,0,0,160.786
14,12,6,0,0,0,0,0,0,160.792
5,122,43087,0,0,0,0,0,0,160.796
5,21,0,0,0,0,0,0,0,160.802
1,122,43087,0,0,0,0,0,0,160.806
1,5,0,0,0,0,0,0,0,160.812
6,122,43087,0,0,0,0,0,0,160.815
6,11,22,0,0,0,0,0,0,160.822
14,122,43087,0,0,0,0,0,0,160.825
14,8,11,0,0,0,0,0,0,160.832
6,122,43087,0,0,0,0,0,0,160.835
6,6,5,0,0,0,0,0,0,160.841
9,122,43087,0,0,0,0,0,0,160.845
9,4,17,0,0,0,0,0,0,160.851
0,122,43087,0,0,0,0,0,0,160.855
0,0,0,0,0,0,0,0,0,160.861
2,122,43087,0,0,0,0,0,0,160.865
2,11,0,0,0,0,0,0,0,160.871
7,122,43087,0,0,0,0,0,0,160.875
7,15,4,0,0,0,0,0,0,160.881
2,122,43087,0,0,0,0,0,0,160.885
2,7,1,0,0,0,0,0,0,160.891
8,122,43087,0,0,0,0,0,0,160.895
8,14,20,0,0,0,0,0,0,160.901
3,122,43087,0,0,0,0,0,0,160.905
3,4,3,0,0,0,0,0,0,160.911
0,122,43087,0,0,0,0,0,0,160.914
0,0,0,0,0,0,0,0,0,160.921
2,122,43087,0,0,0,0,0,0,160.924
2,4,4,0,0,0,0,0,0,160.93
8,122,43087,0,0,0,0,0,0,160.934
8,0,17,0,0,0,0,0,0,160.94
9,122,43087,0,0,0,0,0,0,160.944
9,9,9,0,0,0,0,0,0,160.95
4,122,43087,0,0,0,0,0,0,160.954
4,10,2,0,0,0,0,0,0,160.96
0,122,43087,0,0,0,0,0,0,160.964
0,15,1,0,0,0,0,0,0,160.97
0,122,43087,0,0,0,0,0,0,160.974
0,11,5,0,0,0,0,0,0,160.98
0,122,43087,0,0,0,0,0,0,160.984
0,2,10,0,0,0,0,0,0,160.99
7,122,43087,0,0,0,0,0,0,160.994
7,8,0,0,0,0,0,0,0,161
12,122,43087,0,0,0,0,0,0,161.003
12,7,1,0,0,0,0,0,0,161.01
11,122,43087,0,0,0,0,0,0,161.013
11,8,3,0,0,0,0,0,0,161.02
15,122,43087,0,0,0,0,0,0,161.023
15,0,1,0,0,0,0,0,0,161.029
14,122,43087,0,0,0,0,0,0,161.033
14,24,0,0,0,0,0,0,0,161.039
2,122,43087,0,0,0,0,0,0,161.043
2,10,4,0,0,0,0,0,0,161.049
0,122,43087,0,0,0,0,0,0,161.053
0,13,0,0,0,0,0,0,0,161.059
14,122,43087,0,0,0,0,0,0,161.063
14,0,16,0,0,0,0,0,0,161.069
10,122,43087,0,0,0,0,0,0,161.073
10,0,0,0,0,0,0,0,0,161.079
6,122,43087,0,0,0,0,0,0,161.083
6,5,7,0,0,0,0,0,0,161.089
10,122,43087,0,0,0,0,0,0,161.092
10,20,4,0,0,0,0,0,0,161.099
10,122,43087,0,0,0,0,0,0,161.102
10,2,0,0,0,0,0,0,0,161.109
16,122,43087,0,0,0,0,0,0,161.112
16,0,20,0,0,0,0,0,0,161.118
12,122,43087,0,0,0,0,0,0,161.122
12,5,7,0,0,0,0,0,0,161.128
11,122,43087,0,0,0,0,0,0,161.132
11,7,2,0,0,0,0,0,0,161.138
5,122,43087,0,0,0,0,0,0,161.142
5,4,36,0,0,0,0,0,0,161.148
7,122,43087,0,0,0,0,0,0,161.152
7,19,6,0,0,0,0,0,0,161.158
0,122,43087,0,0,0,0,0,0,161.162
0,9,24,0,0,0,0,0,0,161.168
11,122,43087,0,0,0,0,0,0,161.172
11,17,0,0,0,0,0,0,0,161.178
10,122,43087,0,0,0,0,0,0,161.182
10,0,8,0,0,0,0,0,0,161.188
14,122,43087,0,0,0,0,0,0,161.191
14,9,12,0,0,0,0,0,0,161.198
6,122,43087,0,0,0,0,0,0,161.201
6,21,0,0,0,0,0,0,0,161.208
12,122,43087,0,0,0,0,0,0,161.211
12,8,2,0,0,0,0,0,0,161.217
4,122,43087,0,0,0,0,0,0,161.221
4,5,0,0,0,0,0,0,0,161.227
0,122,43087,0,0,0,0,0,0,161.231
0,27,12,0,0,0,0,0,0,161.237
7,122,43087,0,0,0,0,0,0,161.241
7,0,11,0,0,0,0,0,0,161.247
6,122,43087,0,0,0,0,0,0,161.251
6,2,17,0,0,0,0,0,0,161.257
3,122,43087,0,0,0,0,0,0,161.261
3,19,9,0,0,0,0,0,0,161.267
6,122,43087,0,0,0,0,0,0,161.271
6,0,6,0,0,0,0,0,0,161.277
2,122,43087,0,0,0,0,0,0,161.281
2,6,16,0,0,0,0,0,0,161.287
0,122,43087,0,0,0,0,0,0,161.29
0,4,9,0,0,0,0,0,0,161.297
0,122,43087,0,0,0,0,0,0,161.3
0,14,6,0,0,0,0,0,0,161.306
21,122,43087,0,0,0,0,0,0,161.31
21,12,0,0,0,0,0,0,0,161.316
3,122,43087,0,0,0,0,0,0,161.32
3,2,6,0,0,0,0,0,0,161.326
9,122,43087,0,0,0,0,0,0,161.33
9,8,7,0,0,0,0,0,0,161.336
3,122,43087,0,0,0,0,0,0,161.34
3,13,11,0,0,0,0,0,0,161.346
0,122,43087,0,0,0,0,0,0,161.35
0,1,15,0,0,0,0,0,0,161.356
6,122,43087,0,0,0,0,0,0,161.36
6,8,8,0,0,0,0,0,0,161.366
17,122,43087,0,0,0,0,0,0,161.37
17,1,5,0,0,0,0,0,0,161.376
15,122,43087,0,0,0,0,0,0,161.379
15,13,0,0,0,0,0,0,0,161.386
12,122,43087,0,0,0,0,0,0,161.389
12,3,0,0,0,0,0,0,0,161.396
15,122,43087,0,0,0,0,0,0,161.399
15,0,6,0,0,0,0,0,0,161.405
9,122,43087,0,0,0,0,0,0,161.409
9,0,13,0,0,0,0,0,0,161.415
0,122,43087,0,0,0,0,0,0,161.419
0,9,1,0,0,0,0,0,0,161.425
11,122,43087,0,0,0,0,0,0,161.429
11,10,5,0,0,0,0,0,0,161.435
24,122,43087,0,0,0,0,0,0,161.439
24,6,3,0,0,0,0,0,0,161.445
0,122,43087,0,0,0,0,0,0,161.449
0,4,0,0,0,0,0,0,0,161.455
15,122,43087,0,0,0,0,0,0,161.459
15,3,0,0,0,0,0,0,0,161.465
10,122,43087,0,0,0,0,0,0,161.469
10,9,7,0,0,0,0,0,0,161.475
4,122,43087,0,0,0,0,0,0,161.478
4,19,0,0,0,0,0,0,0,161.485
15,122,43087,0,0,0,0,0,0,161.488
15,5,4,0,0,0,0,0,0,161.495
6,122,43087,0,0,0,0,0,0,161.498
6,8,0,0,0,0,0,0,0,161.504
4,122,43087,0,0,0,0,0,0,161.508
4,5,5,0,0,0,0,0,0,161.514
8,122,43087,0,0,0,0,0,0,161.518
8,7,14,0,0,0,0,0,0,161.524
0,122,43087,0,0,0,0,0,0,161.528
0,4,16,0,0,0,0,0,0,161.534
14,122,43087,0,0,0,0,0,0,161.538
14,0,4,0,0,0,0,0,0,161.544
0,122,43087,0,0,0,0,0,0,161.548
0,6,10,0,0,0,0,0,0,161.554
6,122,43087,0,0,0,0,0,0,161.558
6,7,8,0,0,0,0,0,0,161.564
15,122,43087,0,0,0,0,0,0,161.568
15,0,18,0,0,0,0,0,0,161.574
0,122,43087,0,0,0,0,0,0,161.577
0,0,0,0,0,0,0,0,0,161.584
6,122,43087,0,0,0,0,0,0,161.587
6,4,8,0,0,0,0,0,0,161.593
0,122,43087,0,0,0,0,0,0,161.597
0,0,6,0,0,0,0,0,0,161.603
0,122,43087,0,0,0,0,0,0,161.607
0,0,8,0,0,0,0,0,0,161.613
1,122,43087,0,0,0,0,0,0,161.617
1,5,2,0,0,0,0,0,0,161.623
0,122,43087,0,0,0,0,0,0,161.627
0,0,19,0,0,0,0,0,0,161.633
10,122,43087,0,0,0,0,0,0,161.637
10,9,0,0,0,0,0,0,0,161.643
12,122,43087,0,0,0,0,0,0,161.647
12,0,14,0,0,0,0,0,0,161.653
4,122,43087,0,0,0,0,0,0,161.657
4,11,2,0,0,0,0,0,0,161.663
0,122,43087,0,0,0,0,0,0,161.666
0,0,0,0,0,0,0,0,0,161.673
11,122,43087,0,0,0,0,0,0,161.676
11,5,4,0,0,0,0,0,0,161.682
0,122,43087,0,0,0,0,0,0,161.686
0,0,11,0,0,0,0,0,0,161.692
9,122,43087,0,0,0,0,0,0,161.696
9,12,2,0,0,0,0,0,0,161.702
3,122,43087,0,0,0,0,0,0,161.706
3,0,0,0,0,0,0,0,0,161.712
11,122,43087,0,0,0,0,0,0,161.716
11,4,13,0,0,0,0,0,0,161.722
9,122,43087,0,0,0,0,0,0,161.726
9,9,9,0,0,0,0,0,0,161.732
13,122,43087,0,0,0,0,0,0,161.736
13,5,14,0,0,0,0,0,0,161.742
2,122,43087,0,0,0,0,0,0,161.746
2,18,8,0,0,0,0,0,0,161.752
13,122,43087,0,0,0,0,0,0,161.755
13,13,12,0,0,0,0,0,0,161.762
15,122,43087,0,0,0,0,0,0,161.765
15,8,1,0,0,0,0,0,0,161.772
4,122,43087,0,0,0,0,0,0,161.775
4,0,23,0,0,0,0,0,0,161.781
18,122,43087,0,0,0,0,0,0,161.785
18,6,8,0,0,0,0,0,0,161.791
1,122,43087,0,0,0,0,0,0,161.795
1,0,9,0,0,0,0,0,0,161.801
9,122,43087,0,0,0,0,0,0,161.805
9,0,3,0,0,0,0,0,0,161.811
7,122,43087,0,0,0,0,0,0,161.815
7,19,6,0,0,0,0,0,0,161.821
5,122,43087,0,0,0,0,0,0,161.825
5,15,11,0,0,0,0,0,0,161.831
7,122,43087,0,0,0,0,0,0,161.835
7,0,14,0,0,0,0,0,0,161.841
0,122,43087,0,0,0,0,0,0,161.845
0,5,16,0,0,0,0,0,0,161.851
17,122,43087,0,0,0,0,0,0,161.854
17,14,0,0,0,0,0,0,0,161.861
6,122,43087,0,0,0,0,0,0,161.864
6,11,12,0,0,0,0,0,0,161.87
12,122,43087,0,0,0,0,0,0,161.874
12,0,7,0,0,0,0,0,0,161.88
3,122,43087,0,0,0,0,0,0,161.884
3,15,2,0,0,0,0,0,0,161.89
6,122,43087,0,0,0,0,0,0,161.894
6,0,14,0,0,0,0,0,0,161.9
18,122,43087,0,0,0,0,0,0,161.904
18,8,8,0,0,0,0,0,0,161.91
6,122,43087,0,0,0,0,0,0,161.914
6,11,0,0,0,0,0,0,0,161.92
20,122,43087,0,0,0,0,0,0,161.924
20,0,12,0,0,0,0,0,0,161.93
0,122,43087,0,0,0,0,0,0,161.934
0,1,4,0,0,0,0,0,0,161.94
1,122,43087,0,0,0,0,0,0,161.943
1,0,13,0,0,0,0,0,0,161.95
7,122,43087,0,0,0,0,0,0,161.953
7,0,9,0,0,0,0,0,0,161.96
14,122,43087,0,0,0,0,0,0,161.963
14,11,6,0,0,0,0,0,0,161.969
10,122,43087,0,0,0,0,0,0,161.973
10,0,28,0,0,0,0,0,0,161.979
7,122,43087,0,0,0,0,0,0,161.983
7,22,8,0,0,0,0,0,0,161.989
11,122,43087,0,0,0,0,0,0,161.993
11,6,7,0,0,0,0,0,0,161.999
10,122,43087,0,0,0,0,0,0,162.003
10,1,13,0,0,0,0,0,0,162.009
5,122,43087,0,0,0,0,0,0,162.013
5,6,14,0,0,0,0,0,0,162.019
16,122,43087,0,0,0,0,0,0,162.023
16,18,11,0,0,0,0,0,0,162.029
0,122,43087,0,0,0,0,0,0,162.033
0,13,4,0,0,0,0,0,0,162.039
25,122,43087,0,0,0,0,0,0,162.042
25,6,3,0,0,0,0,0,0,162.049
12,122,43087,0,0,0,0,0,0,162.052
12,0,10,0,0,0,0,0,0,162.058
20,122,43087,0,0,0,0,0,0,162.062
20,12,9,0,0,0,0,0,0,162.068
6,122,43087,0,0,0,0,0,0,162.072
6,5,21,0,0,0,0,0,0,162.078
8,122,43087,0,0,0,0,0,0,162.082
8,11,2,0,0,0,0,0,0,162.088
0,122,43087,0,0,0,0,0,0,162.092
0,0,9,0,0,0,0,0,0,162.098
24,122,43087,0,0,0,0,0,0,162.102
24,13,5,0,0,0,0,0,0,162.108
0,122,43087,0,0,0,0,0,0,162.112
0,12,0,0,0,0,0,0,0,162.118
0,122,43087,0,0,0,0,0,0,162.122
0,13,8,0,0,0,0,0,0,162.128
10,122,43087,0,0,0,0,0,0,162.132
10,0,4,0,0,0,0,0,0,162.138
9,122,43087,0,0,0,0,0,0,162.141
9,9,0,0,0,0,0,0,0,162.148
4,122,43087,0,0,0,0,0,0,162.151
4,11,0,0,0,0,0,0,0,162.157
10,122,43087,0,0,0,0,0,0,162.161
10,4,0,0,0,0,0,0,0,162.167
10,122,43087,0,0,0,0,0,0,162.171
10,5,13,0,0,0,0,0,0,162.177
1,122,43087,0,0,0,0,0,0,162.181
1,12,17,0,0,0,0,0,0,162.187
9,122,43087,0,0,0,0,0,0,162.191
9,3,6,0,0,0,0,0,0,162.197
18,122,43087,0,0,0,0,0,0,162.201
18,19,11,0,0,0,0,0,0,162.207
9,122,43087,0,0,0,0,0,0,162.211
9,1,16,0,0,0,0,0,0,162.217
15,122,43087,0,0,0,0,0,0,162.221
15,2,0,0,0,0,0,0,0,162.227
0,122,43087,0,0,0,0,0,0,162.231
0,20,5,0,0,0,0,0,0,162.237
5,122,43087,0,0,0,0,0,0,162.24
5,0,0,0,0,0,0,0,0,162.247
9,122,43087,0,0,0,0,0,0,162.25
9,7,0,0,0,0,0,0,0,162.256
0,122,43087,0,0,0,0,0,0,162.26
0,0,2,0,0,0,0,0,0,162.266
0,122,43087,0,0,0,0,0,0,162.27
0,0,0,0,0,0,0,0,0,162.276
8,122,43087,0,0,0,0,0,0,162.28
8,0,10,0,0,0,0,0,0,162.286
8,122,43087,0,0,0,0,0,0,162.29
8,8,8,0,0,0,0,0,0,162.296
13,122,43087,0,0,0,0,0,0,162.3
13,0,0,0,0,0,0,0,0,162.306
6,122,43087,0,0,0,0,0,0,162.31
6,8,6,0,0,0,0,0,0,162.316
9,122,43087,0,0,0,0,0,0,162.32
9,0,18,0,0,0,0,0,0,162.326
4,122,43087,0,0,0,0,0,0,162.329
4,7,5,0,0,0,0,0,0,162.336
4,122,43087,0,0,0,0,0,0,162.339
4,11,0,0,0,0,0,0,0,162.346
15,122,43087,0,0,0,0,0,0,162.349
15,3,17,0,0,0,0,0,0,162.355
4,122,43087,0,0,0,0,0,0,162.359
4,3,8,0,0,0,0,0,0,162.365
6,122,43087,0,0,0,0,0,0,162.369
6,1,1,0,0,0,0,0,0,162.375
9,122,43087,0,0,0,0,0,0,162.379
9,0,8,0,0,0,0,0,0,162.385
0,122,43087,0,0,0,0,0,0,162.389
0,15,0,0,0,0,0,0,0,162.395
13,122,43087,0,0,0,0,0,0,162.399
13,11,5,0,0,0,0,0,0,162.405
0,122,43087,0,0,0,0,0,0,162.409
0,2,0,0,0,0,0,0,0,162.415
12,122,43087,0,0,0,0,0,0,162.419
12,12,9,0,0,0,0,0,0,162.425
13,122,43087,0,0,0,0,0,0,162.428
13,0,0,0,0,0,0,0,0,162.435
2,122,43087,0,0,0,0,0,0,162.438
2,0,0,0,0,0,0,0,0,162.445
10,122,43087,0,0,0,0,0,0,162.448
10,5,3,0,0,0,0,0,0,162.454
14,122,43087,0,0,0,0,0,0,162.458
14,4,9,0,0,0,0,0,0,162.464
20,122,43087,0,0,0,0,0,0,162.468
20,2,13,0,0,0,0,0,0,162.474
0,122,43087,0,0,0,0,0,0,162.478
0,18,8,0,0,0,0,0,0,162.484
26,122,43087,0,0,0,0,0,0,162.488
26,4,0,0,0,0,0,0,0,162.494
7,122,43087,0,0,0,0,0,0,162.498
7,13,9,0,0,0,0,0,0,162.504
8,122,43087,0,0,0,0,0,0,162.508
8,11,0,0,0,0,0,0,0,162.514
5,122,43087,0,0,0,0,0,0,162.518
5,20,8,0,0,0,0,0,0,162.524
8,122,43087,0,0,0,0,0,0,162.527
8,0,0,0,0,0,0,0,0,162.534
5,122,43087,0,0,0,0,0,0,162.537
5,11,10,0,0,0,0,0,0,162.543
7,122,43087,0,0,0,0,0,0,162.547
7,5,7,0,0,0,0,0,0,162.553
10,122,43087,0,0,0,0,0,0,162.557
10,5,11,0,0,0,0,0,0,162.563
0,122,43087,0,0,0,0,0,0,162.567
0,3,14,0,0,0,0,0,0,162.573
16,122,43087,0,0,0,0,0,0,162.577
16,1,6,0,0,0,0,0,0,162.583
13,122,43087,0,0,0,0,0,0,162.587
13,5,4,0,0,0,0,0,0,162.593
14,122,43087,0,0,0,0,0,0,162.597
14,6,1,0,0,0,0,0,0,162.603
24,122,43087,0,0,0,0,0,0,162.607
24,0,0,0,0,0,0,0,0,162.613
10,122,43087,0,0,0,0,0,0,162.617
10,6,16,0,0,0,0,0,0,162.623
13,122,43087,0,0,0,0,0,0,162.626
13,3,9,0,0,0,0,0,0,162.633
0,122,43087,0,0,0,0,0,0,162.636
0,14,1,0,0,0,0,0,0,162.642
4,122,43087,0,0,0,0,0,0,162.646
4,9,5,0,0,0,0,0,0,162.652
12,122,43087,0,0,0,0,0,0,162.656
12,0,8,0,0,0,0,0,0,162.662
12,122,43087,0,0,0,0,0,0,162.666
12,20,0,0,0,0,0,0,0,162.672
11,122,43087,0,0,0,0,0,0,162.676
11,1,13,0,0,0,0,0,0,162.682
11,122,43087,0,0,0,0,0,0,162.686
11,8,14,0,0,0,0,0,0,162.692
11,122,43087,0,0,0,0,0,0,162.696
11,0,20,0,0,0,0,0,0,162.702
0,122,43087,0,0,0,0,0,0,162.706
0,9,8,0,0,0,0,0,0,162.712
15,122,43087,0,0,0,0,0,0,162.715
15,22,3,0,0,0,0,0,0,162.722
6,122,43087,0,0,0,0,0,0,162.725
6,9,6,0,0,0,0,0,0,162.732
2,122,43087,0,0,0,0,0,0,162.735
2,1,0,0,0,0,0,0,0,162.741
7,122,43087,0,0,0,0,0,0,162.745
7,8,0,0,0,0,0,0,0,162.751
0,122,43087,0,0,0,0,0,0,162.755
0,4,0,0,0,0,0,0,0,162.761
0,122,43087,0,0,0,0,0,0,162.765
0,7,17,0,0,0,0,0,0,162.771
8,122,43087,0,0,0,0,0,0,162.775
8,6,7,0,0,0,0,0,0,162.781
0,122,43087,0,0,0,0,0,0,162.785
0,0,5,0,0,0,0,0,0,162.791
13,122,43087,0,0,0,0,0,0,162.795
13,10,5,0,0,0,0,0,0,162.801
4,122,43087,0,0,0,0,0,0,162.805
4,0,18,0,0,0,0,0,0,162.811
7,122,43087,0,0,0,0,0,0,162.814
7,10,4,0,0,0,0,0,0,162.821
4,122,43087,0,0,0,0,0,0,162.824
4,8,0,0,0,0,0,0,0,162.83
2,122,43087,0,0,0,0,0,0,162.834
2,6,5,0,0,0,0,0,0,162.84
12,122,43087,0,0,0,0,0,0,162.844
12,10,0,0,0,0,0,0,0,162.85
15,122,43087,0,0,0,0,0,0,162.854
15,0,8,0,0,0,0,0,0,162.86
0,122,43087,0,0,0,0,0,0,162.864
0,16,10,0,0,0,0,0,0,162.87
0,122,43087,0,0,0,0,0,0,162.874
0,2,1,0,0,0,0,0,0,162.88
12,122,43087,0,0,0,0,0,0,162.884
12,9,5,0,0,0,0,0,0,162.89
3,122,43087,0,0,0,0,0,0,162.894
3,6,7,0,0,0,0,0,0,162.9
6,122,43087,0,0,0,0,0,0,162.904
6,8,0,0,0,0,0,0,0,162.91
8,122,43087,0,0,0,0,0,0,162.913
8,13,10,0,0,0,0,0,0,162.92
0,122,43087,0,0,0,0,0,0,162.923
0,11,6,0,0,0,0,0,0,162.929
14,122,43087,0,0,0,0,0,0,162.933
14,0,28,0,0,0,0,0,0,162.939
7,122,43087,0,0,0,0,0,0,162.943
7,24,3,0,0,0,0,0,0,162.949
12,122,43087,0,0,0,0,0,0,162.953
12,5,6,0,0,0,0,0,0,162.959
0,122,43087,0,0,0,0,0,0,162.963
0,2,10,0,0,0,0,0,0,162.969
0,122,43087,0,0,0,0,0,0,162.973
0,0,0,0,0,0,0,0,0,162.979
13,122,43087,0,0,0,0,0,0,162.983
13,0,11,0,0,0,0,0,0,162.989
0,122,43087,0,0,0,0,0,0,162.993
0,15,13,0,0,0,0,0,0,162.999
7,122,43087,0,0,0,0,0,0,163.002
7,8,1,0,0,0,0,0,0,163.009
12,122,43087,0,0,0,0,0,0,163.012
12,12,0,0,0,0,0,0,0,163.019
12,122,43087,0,0,0,0,0,0,163.022
12,0,7,0,0,0,0,0,0,163.028
2,122,43087,0,0,0,0,0,0,163.032
2,6,7,0,0,0,0,0,0,163.038
0,122,43087,0,0,0,0,0,0,163.042
0,3,2,0,0,0,0,0,0,163.048
9,122,43087,0,0,0,0,0,0,163.052
9,1,12,0,0,0,0,0,0,163.058
14,122,43087,0,0,0,0,0,0,163.062
14,0,6,0,0,0,0,0,0,163.068
2,122,43087,0,0,0,0,0,0,163.072
2,8,10,0,0,0,0,0,0,163.078
11,122,43087,0,0,0,0,0,0,163.082
11,6,4,0,0,0,0,0,0,163.088
7,122,43087,0,0,0,0,0,0,163.092
7,3,4,0,0,0,0,0,0,163.098
12,122,43087,0,0,0,0,0,0,163.101
12,6,4,0,0,0,0,0,0,163.108
11,122,43087,0,0,0,0,0,0,163.111
11,3,0,0,0,0,0,0,0,163.117
9,122,43087,0,0,0,0,0,0,163.121
9,0,9,0,0,0,0,0,0,163.127
6,122,43087,0,0,0,0,0,0,163.131
6,6,9,0,0,0,0,0,0,163.137
13,122,43087,0,0,0,0,0,0,163.141
13,0,8,0,0,0,0,0,0,163.147
13,122,43087,0,0,0,0,0,0,163.151
13,6,16,0,0,0,0,0,0,163.157
6,122,43087,0,0,0,0,0,0,163.161
6,15,4,0,0,0,0,0,0,163.167
2,122,43087,0,0,0,0,0,0,163.171
2,4,8,0,0,0,0,0,0,163.177
6,122,43087,0,0,0,0,0,0,163.181
6,0,2,0,0,0,0,0,0,163.187
20,122,43087,0,0,0,0,0,0,163.191
20,2,4,0,0,0,0,0,0,163.197
9,122,43087,0,0,0,0,0,0,163.2
9,9,0,0,0,0,0,0,0,163.207
21,122,43087,0,0,0,0,0,0,163.21
21,20,7,0,0,0,0,0,0,163.216
0,122,43087,0,0,0,0,0,0,163.22
0,0,4,0,0,0,0,0,0,163.226
0,122,43087,0,0,0,0,0,0,163.23
0,24,8,0,0,0,0,0,0,163.236
6,122,43087,0,0,0,0,0,0,163.24
6,3,0,0,0,0,0,0,0,163.246
7,122,43087,0,0,0,0,0,0,163.25
7,7,7,0,0,0,0,0,0,163.256
28,122,43087,0,0,0,0,0,0,163.26
28,3,17,0,0,0,0,0,0,163.266
4,122,43087,0,0,0,0,0,0,163.27
4,0,2,0,0,0,0,0,0,163.276
0,122,43087,0,0,0,0,0,0,163.28
0,0,7,0,0,0,0,0,0,163.286
7,122,43087,0,0,0,0,0,0,163.289
7,11,0,0,0,0,0,0,0,163.296
0,122,43087,0,0,0,0,0,0,163.299
0,6,3,0,0,0,0,0,0,163.306
0,122,43087,0,0,0,0,0,0,163.309
0,5,5,0,0,0,0,0,0,163.315
10,122,43087,0,0,0,0,0,0,163.319
10,0,0,0,0,0,0,0,0,163.325
0,122,43087,0,0,0,0,0,0,163.329
0,2,0,0,0,0,0,0,0,163.335
0,122,43087,0,0,0,0,0,0,163.339
0,0,0,0,0,0,0,0,0,163.345
14,122,43087,0,0,0,0,0,0,163.349
14,1,0,0,0,0,0,0,0,163.355
0,122,43087,0,0,0,0,0,0,163.359
0,8,1,0,0,0,0,0,0,163.365
0,122,43087,0,0,0,0,0,0,163.369
0,5,5,0,0,0,0,0,0,163.375
8,122,43087,0,0,0,0,0,0,163.379
8,15,12,0,0,0,0,0,0,163.385
16,122,43087,0,0,0,0,0,0,163.389
16,4,7,0,0,0,0,0,0,163.395
8,122,43087,0,0,0,0,0,0,163.398
8,4,11,0,0,0,0,0,0,163.405
12,122,43087,0,0,0,0,0,0,163.408
12,13,7,0,0,0,0,0,0,163.414
16,122,43087,0,0,0,0,0,0,163.418
16,6,0,0,0,0,0,0,0,163.424
7,122,43087,0,0,0,0,0,0,163.428
7,8,1,0,0,0,0,0,0,163.434
4,122,43087,0,0,0,0,0,0,163.438
4,13,11,0,0,0,0,0,0,163.444
12,122,43087,0,0,0,0,0,0,163.448
12,2,9,0,0,0,0,0,0,163.454
0,122,43087,0,0,0,0,0,0,163.458
0,0,0,0,0,0,0,0,0,163.464
15,122,43087,0,0,0,0,0,0,163.468
15,4,6,0,0,0,0,0,0,163.474
5,122,43087,0,0,0,0,0,0,163.478
5,4,8,0,0,0,0,0,0,163.484
3,122,43087,0,0,0,0,0,0,163.487
3,3,10,0,0,0,0,0,0,163.494
6,122,43087,0,0,0,0,0,0,163.497
6,7,4,0,0,0,0,0,0,163.504
9,122,43087,0,0,0,0,0,0,163.507
9,15,0,0,0,0,0,0,0,163.513
4,122,43087,0,0,0,0,0,0,163.517
4,0,4,0,0,0,0,0,0,163.523
3,122,43087,0,0,0,0,0,0,163.527
3,5,7,0,0,0,0,0,0,163.533
13,122,43087,0,0,0,0,0,0,163.537
13,5,12,0,0,0,0,0,0,163.543
21,122,43087,0,0,0,0,0,0,163.547
21,1,10,0,0,0,0,0,0,163.553
7,122,43087,0,0,0,0,0,0,163.557
7,7,0,0,0,0,0,0,0,163.563
4,122,43087,0,0,0,0,0,0,163.567
4,6,5,0,0,0,0,0,0,163.573
15,122,43087,0,0,0,0,0,0,163.577
15,12,10,0,0,0,0,0,0,163.583
21,122,43087,0,0,0,0,0,0,163.586
21,10,1,0,0,0,0,0,0,163.593
0,122,43087,0,0,0,0,0,0,163.596
0,5,9,0,0,0,0,0,0,163.602
8,122,43087,0,0,0,0,0,0,163.606
8,2,6,0,0,0,0,0,0,163.612
15,122,43087,0,0,0,0,0,0,163.616
15,1,0,0,0,0,0,0,0,163.622
17,122,43087,0,0,0,0,0,0,163.626
17,4,1,0,0,0,0,0,0,163.632
0,122,43087,0,0,0,0,0,0,163.636
0,16,0,0,0,0,0,0,0,163.642
7,122,43087,0,0,0,0,0,0,163.646
7,5,8,0,0,0,0,0,0,163.652
8,122,43087,0,0,0,0,0,0,163.656
8,1,11,0,0,0,0,0,0,163.662
22,122,43087,0,0,0,0,0,0,163.666
22,0,5,0,0,0,0,0,0,163.672
6,122,43087,0,0,0,0,0,0,163.676
6,6,2,0,0,0,0,0,0,163.682
8,122,43087,0,0,0,0,0,0,163.685
8,17,4,0,0,0,0,0,0,163.692
6,122,43087,0,0,0,0,0,0,163.695
6,0,0,0,0,0,0,0,0,163.701
9,122,43087,0,0,0,0,0,0,163.705
9,4,1,0,0,0,0,0,0,163.711
3,122,43087,0,0,0,0,0,0,163.715
3,6,1,0,0,0,0,0,0,163.721
9,122,43087,0,0,0,0,0,0,163.725
9,0,15,0,0,0,0,0,0,163.731
5,122,43087,0,0,0,0,0,0,163.735
5,0,17,0,0,0,0,0,0,163.741
11,122,43087,0,0,0,0,0,0,163.745
11,0,8,0,0,0,0,0,0,163.751
4,122,43087,0,0,0,0,0,0,163.755
4,8,0,0,0,0,0,0,0,163.761
23,122,43087,0,0,0,0,0,0,163.765
23,0,17,0,0,0,0,0,0,163.771
4,122,43087,0,0,0,0,0,0,163.774
4,6,9,0,0,0,0,0,0,163.781
12,122,43087,0,0,0,0,0,0,163.784
12,5,8,0,0,0,0,0,0,163.791
13,122,43087,0,0,0,0,0,0,163.794
13,16,2,0,0,0,0,0,0,163.8
0,122,43087,0,0,0,0,0,0,163.804
0,0,17,0,0,0,0,0,0,163.81
7,122,43087,0,0,0,0,0,0,163.814
7,11,8,0,0,0,0,0,0,163.82
0,122,43087,0,0,0,0,0,0,163.824
0,11,12,0,0,0,0,0,0,163.83
0,122,43087,0,0,0,0,0,0,163.834
0,4,0,0,0,0,0,0,0,163.84
8,122,43087,0,0,0,0,0,0,163.844
8,2,5,0,0,0,0,0,0,163.85
0,122,43087,0,0,0,0,0,0,163.854
0,1,10,0,0,0,0,0,0,163.86
0,122,43087,0,0,0,0,0,0,163.864
0,5,7,0,0,0,0,0,0,163.87
0,122,43087,0,0,0,0,0,0,163.873
0,0,0,0,0,0,0,0,0,163.88
0,122,43087,0,0,0,0,0,0,163.883
0,26,1,0,0,0,0,0,0,163.889
0,122,43087,0,0,0,0,0,0,163.893
0,0,17,0,0,0,0,0,0,163.899
10,122,43087,0,0,0,0,0,0,163.903
10,6,11,0,0,0,0,0,0,163.909
27,122,43087,0,0,0,0,0,0,163.913
27,0,0,0,0,0,0,0,0,163.919
2,122,43087,0,0,0,0,0,0,163.923
2,0,3,0,0,0,0,0,0,163.929
2,122,43087,0,0,0,0,0,0,163.933
2,2,0,0,0,0,0,0,0,163.939
17,122,43087,0,0,0,0,0,0,163.943
17,7,0,0,0,0,0,0,0,163.949
13,122,43087,0,0,0,0,0,0,163.953
13,10,0,0,0,0,0,0,0,163.959
7,122,43087,0,0,0,0,0,0,163.963
7,1,1,0,0,0,0,0,0,163.969
11,122,43087,0,0,0,0,0,0,163.972
11,8,2,0,0,0,0,0,0,163.979
10,122,43087,0,0,0,0,0,0,163.982
10,1,13,0,0,0,0,0,0,163.988
9,122,43087,0,0,0,0,0,0,163.992
9,5,0,0,0,0,0,0,0,163.998
9,122,43087,0,0,0,0,0,0,164.002
9,1,4,0,0,0,0,0,0,164.008
15,122,43087,0,0,0,0,0,0,164.012
15,7,0,0,0,0,0,0,0,164.018
2,122,43087,0,0,0,0,0,0,164.022
2,5,0,0,0,0,0,0,0,164.028
4,122,43087,0,0,0,0,0,0,164.032
4,4,12,0,0,0,0,0,0,164.038
16,122,43087,0,0,0,0,0,0,164.042
16,0,13,0,0,0,0,0,0,164.048
8,122,43087,0,0,0,0,0,0,164.052
8,4,6,0,0,0,0,0,0,164.058
0,122,43087,0,0,0,0,0,0,164.062
0,11,7,0,0,0,0,0,0,164.068
11,122,43087,0,0,0,0,0,0,164.071
11,13,0,0,0,0,0,0,0,164.078
12,122,43087,0,0,0,0,0,0,164.081
12,7,3,0,0,0,0,0,0,164.087
4,122,43087,0,0,0,0,0,0,164.091
4,6,4,0,0,0,0,0,0,164.097
10,122,43087,0,0,0,0,0,0,164.101
10,8,0,0,0,0,0,0,0,164.107
14,122,43087,0,0,0,0,0,0,164.111
