19,122,43087,0.059,-0.926,-0.262,0.183,0.427,0.366,251.158
19,13,17,0.06,-0.928,-0.266,0.183,0.427,0.366,251.164
17,122,43087,0.059,-0.927,-0.261,0.183,0.61,0.366,251.168
17,6,12,0.054,-0.927,-0.263,0.183,0.61,0.366,251.174
11,122,43087,0.054,-0.927,-0.263,0.183,0.61,0.366,251.177
11,7,8,0.054,-0.923,-0.26,0.488,0.61,0.488,251.184
12,122,43087,0.054,-0.923,-0.26,0.488,0.61,0.488,251.187
12,0,15,0.053,-0.925,-0.261,0.427,0.305,0.671,251.193
10,122,43087,0.053,-0.925,-0.261,0.427,0.305,0.671,251.197
10,9,0,0.059,-0.926,-0.26,-0.122,0.122,0.427,251.203
19,122,43087,0.059,-0.926,-0.26,-0.122,0.122,0.427,251.207
19,19,0,0.06,-0.923,-0.264,-0.732,0.122,0.122,251.213
17,122,43087,0.06,-0.923,-0.264,-0.732,0.122,0.122,251.217
17,0,11,0.063,-0.925,-0.265,-1.22,0.061,0.122,251.223
8,122,43087,0.063,-0.925,-0.265,-1.22,0.061,0.122,251.227
8,1,0,0.059,-0.927,-0.266,-1.22,0.122,0.122,251.233
13,122,43087,0.059,-0.927,-0.266,-1.22,0.122,0.122,251.237
13,7,14,0.054,-0.925,-0.261,-0.976,0.244,0.305,251.243
4,122,43087,0.054,-0.925,-0.261,-0.976,0.244,0.305,251.247
4,0,4,0.056,-0.923,-0.265,-0.854,0.244,0.366,251.253
15,122,43087,0.056,-0.923,-0.265,-0.854,0.244,0.366,251.257
15,0,8,0.059,-0.921,-0.261,-1.037,-0.061,0.061,251.263
0,122,43087,0.059,-0.921,-0.261,-1.037,-0.061,0.061,251.266
0,12,4,0.058,-0.926,-0.262,-1.341,-0.183,-0.305,251.273
13,122,43087,0.058,-0.926,-0.262,-1.341,-0.183,-0.305,251.276
13,23,20,0.062,-0.924,-0.263,-1.585,-0.183,-0.427,251.283
6,122,43087,0.062,-0.924,-0.263,-1.585,-0.183,-0.427,251.286
6,0,15,0.061,-0.928,-0.262,-1.89,-0.305,-0.61,251.292
11,122,43087,0.061,-0.928,-0.262,-1.89,-0.305,-0.61,251.296
11,11,0,0.058,-0.928,-0.266,-2.073,-0.366,-0.732,251.302
2,122,43087,0.058,-0.928,-0.266,-2.073,-0.366,-0.732,251.306
2,6,10,0.057,-0.921,-0.264,-1.951,-0.427,-0.671,251.312
0,122,43087,0.057,-0.921,-0.264,-1.951,-0.427,-0.671,251.316
0,15,3,0.06,-0.921,-0.267,-2.195,-0.549,-0.793,251.322
10,122,43087,0.06,-0.924,-0.268,-2.195,-0.549,-0.793,251.326
10,11,21,0.06,-0.926,-0.266,-2.622,-0.671,-0.976,251.332
0,122,43087,0.059,-0.924,-0.264,-2.622,-0.671,-0.976,251.336
0,18,11,0.059,-0.923,-0.264,-2.317,-0.427,-1.098,251.342
13,122,43087,0.063,-0.924,-0.263,-2.317,-0.427,-1.098,251.346
13,1,9,0.06,-0.923,-0.257,-2.073,-0.366,-1.22,251.352
4,122,43087,0.061,-0.919,-0.258,-2.073,-0.366,-1.22,251.356
4,20,11,0.063,-0.923,-0.26,-2.5,-0.488,-1.037,251.362
0,122,43087,0.062,-0.927,-0.26,-2.5,-0.488,-1.037,251.365
0,0,16,0.069,-0.921,-0.261,-3.841,-0.793,-1.463,251.372
9,122,43087,0.066,-0.922,-0.268,-3.841,-0.793,-1.463,251.375
9,5,2,0.063,-0.923,-0.275,-4.939,-0.671,-1.707,251.382
0,122,43087,0.063,-0.929,-0.277,-4.939,-0.671,-1.707,251.385
0,8,0,0.062,-0.926,-0.273,-4.695,-0.793,-0.61,251.391
11,122,43087,0.063,-0.925,-0.275,-4.695,-0.793,-0.61,251.395
11,11,9,0.062,-0.921,-0.274,-3.72,-0.854,-0.122,251.401
6,122,43087,0.063,-0.92,-0.27,-3.72,-0.854,-0.122,251.405
6,3,21,0.062,-0.921,-0.268,-3.415,-0.671,0.244,251.411
8,122,43087,0.064,-0.921,-0.273,-3.415,-0.671,0.244,251.415
8,5,14,0.065,-0.923,-0.276,-2.988,-0.671,0.671,251.421
7,122,43087,0.064,-0.922,-0.279,-2.988,-0.671,0.671,251.425
7,0,13,0.062,-0.927,-0.276,-2.012,-0.427,1.098,251.431
0,122,43087,0.059,-0.928,-0.273,-2.012,-0.427,1.098,251.435
0,9,0,0.056,-0.927,-0.273,-0.854,-0.122,1.707,251.441
13,122,43087,0.057,-0.926,-0.275,-0.854,-0.122,1.707,251.445
13,5,9,0.055,-0.924,-0.271,0,0,1.951,251.451
2,122,43087,0.052,-0.925,-0.273,0,0,1.951,251.455
2,12,7,0.052,-0.925,-0.271,0.366,0.183,1.768,251.461
1,122,43087,0.056,-0.925,-0.27,0.366,0.183,1.768,251.464
1,5,16,0.058,-0.924,-0.27,0.549,0.427,1.402,251.471
8,122,43087,0.057,-0.923,-0.273,0.549,0.427,1.402,251.474
8,9,0,0.055,-0.921,-0.271,0.488,0.671,1.037,251.481
10,122,43087,0.053,-0.923,-0.275,0.488,0.671,1.037,251.484
10,13,0,0.057,-0.925,-0.273,0.61,0.854,0.915,251.49
9,122,43087,0.053,-0.925,-0.272,0.61,0.854,0.915,251.494
9,7,10,0.054,-0.925,-0.274,1.098,1.159,0.732,251.5
8,122,43087,0.056,-0.924,-0.273,1.098,1.159,0.732,251.504
8,4,5,0.056,-0.923,-0.272,1.768,1.22,0.549,251.51
0,122,43087,0.054,-0.926,-0.272,1.768,1.22,0.549,251.514
0,8,9,0.056,-0.925,-0.272,2.134,1.402,0.183,251.52
7,122,43087,0.06,-0.926,-0.272,2.134,1.402,0.183,251.524
7,5,4,0.062,-0.924,-0.27,2.622,1.646,0,251.53
16,122,43087,0.056,-0.923,-0.271,2.622,1.646,0,251.534
16,1,7,0.056,-0.924,-0.27,2.988,1.829,0,251.54
6,122,43087,0.055,-0.924,-0.272,2.988,1.829,0,251.544
6,6,9,0.055,-0.926,-0.269,2.744,1.829,-0.244,251.55
15,122,43087,0.059,-0.925,-0.265,2.744,1.829,-0.244,251.554
15,0,4,0.059,-0.924,-0.268,2.744,1.768,-0.549,251.56
17,122,43087,0.06,-0.923,-0.266,2.744,1.768,-0.549,251.563
17,0,17,0.059,-0.924,-0.269,2.805,1.707,-0.671,251.57
16,122,43087,0.057,-0.924,-0.266,2.805,1.707,-0.671,251.573
16,0,10,0.061,-0.922,-0.264,2.683,1.646,-0.854,251.58
26,122,43087,0.06,-0.923,-0.262,2.683,1.646,-0.854,251.583
26,0,0,0.063,-0.922,-0.266,2.073,1.646,-1.037,251.589
10,122,43087,0.067,-0.921,-0.266,2.073,1.646,-1.037,251.593
10,7,3,0.065,-0.922,-0.263,1.829,1.524,-0.976,251.599
0,122,43087,0.061,-0.922,-0.264,1.829,1.524,-0.976,251.603
0,20,15,0.064,-0.922,-0.266,1.707,1.463,-0.976,251.609
0,122,43087,0.065,-0.925,-0.266,1.707,1.463,-0.976,251.613
0,2,13,0.062,-0.925,-0.262,1.524,1.22,-0.976,251.619
3,122,43087,0.061,-0.926,-0.265,1.524,1.22,-0.976,251.623
3,15,7,0.064,-0.926,-0.265,1.585,1.159,-0.854,251.629
30,122,43087,0.065,-0.926,-0.262,1.585,1.159,-0.854,251.633
30,7,19,0.065,-0.921,-0.259,1.524,1.037,-0.793,251.639
5,122,43087,0.063,-0.922,-0.26,1.524,1.037,-0.793,251.643
5,9,10,0.064,-0.922,-0.26,1.22,0.732,-0.488,251.649
9,122,43087,0.067,-0.923,-0.26,1.22,0.732,-0.488,251.653
9,7,0,0.064,-0.924,-0.255,0.732,0.671,0,251.659
2,122,43087,0.062,-0.923,-0.26,0.732,0.671,0,251.662
2,0,1,0.063,-0.925,-0.26,-0.061,0.427,0.183,251.669
18,122,43087,0.067,-0.923,-0.259,-0.061,0.427,0.183,251.672
18,0,11,0.063,-0.924,-0.261,-0.427,0.244,0.183,251.678
5,122,43087,0.059,-0.923,-0.262,-0.427,0.244,0.183,251.682
5,8,8,0.063,-0.923,-0.26,-0.793,0.122,0.427,251.688
0,122,43087,0.061,-0.921,-0.261,-0.793,0.122,0.427,251.692
0,10,8,0.061,-0.922,-0.261,-1.646,-0.122,0.427,251.698
9,122,43087,0.065,-0.924,-0.266,-1.646,-0.122,0.427,251.702
9,4,2,0.063,-0.926,-0.267,-2.439,-0.305,0.244,251.708
0,122,43087,0.062,-0.925,-0.266,-2.439,-0.305,0.244,251.712
0,0,0,0.061,-0.927,-0.264,-2.5,-0.183,0.305,251.718
1,122,43087,0.062,-0.926,-0.268,-2.5,-0.183,0.305,251.722
1,15,4,0.06,-0.925,-0.269,-2.195,-0.244,0.366,251.728
8,122,43087,0.059,-0.926,-0.266,-2.195,-0.244,0.366,251.732
8,16,7,0.063,-0.923,-0.268,-2.073,-0.305,0.305,251.738
12,122,43087,0.061,-0.923,-0.268,-2.073,-0.305,0.305,251.742
12,13,0,0.061,-0.926,-0.266,-1.829,-0.183,0.244,251.748
0,122,43087,0.061,-0.926,-0.266,-1.829,-0.183,0.244,251.752
0,0,0,0.062,-0.924,-0.268,-1.463,-0.061,0,251.758
4,122,43087,0.062,-0.924,-0.268,-1.463,-0.061,0,251.761
4,4,0,0.066,-0.927,-0.263,-1.159,0.061,-0.122,251.768
6,122,43087,0.066,-0.927,-0.263,-1.159,0.061,-0.122,251.771
6,5,19,0.066,-0.924,-0.265,-1.098,0.122,-0.122,251.777
21,122,43087,0.066,-0.924,-0.265,-1.098,0.122,-0.122,251.781
21,0,0,0.065,-0.923,-0.27,-1.28,0.305,-0.305,251.787
5,122,43087,0.065,-0.923,-0.27,-1.28,0.305,-0.305,251.791
5,0,9,0.068,-0.927,-0.267,-1.098,0.366,-0.427,251.797
0,122,43087,0.068,-0.927,-0.267,-1.098,0.366,-0.427,251.801
0,15,6,0.066,-0.923,-0.267,-0.915,0.61,-0.122,251.807
10,122,43087,0.066,-0.923,-0.267,-0.915,0.61,-0.122,251.811
10,9,1,0.06,-0.923,-0.268,-0.915,0.854,0.122,251.817
17,122,43087,0.06,-0.923,-0.268,-0.915,0.854,0.122,251.821
17,0,0,0.067,-0.927,-0.27,-0.671,0.915,0.183,251.827
23,122,43087,0.067,-0.927,-0.27,-0.671,0.915,0.183,251.831
23,13,10,0.062,-0.927,-0.271,-0.366,1.037,0.244,251.837
5,122,43087,0.062,-0.927,-0.271,-0.366,1.037,0.244,251.841
5,5,12,0.059,-0.922,-0.27,-0.122,0.976,0.427,251.847
10,122,43087,0.059,-0.922,-0.27,-0.122,0.976,0.427,251.85
10,3,12,0.06,-0.923,-0.268,0.183,0.976,0.427,251.857
0,122,43087,0.06,-0.923,-0.268,0.183,0.976,0.427,251.86
0,0,5,0.062,-0.924,-0.268,0.671,0.976,0.549,251.867
5,122,43087,0.062,-0.924,-0.268,0.671,0.976,0.549,251.87
5,10,4,0.062,-0.922,-0.264,1.037,1.037,0.427,251.876
7,122,43087,0.062,-0.922,-0.264,1.037,1.037,0.427,251.88
7,0,0,0.066,-0.92,-0.265,1.098,0.976,0.305,251.886
22,122,43087,0.066,-0.92,-0.265,1.098,0.976,0.305,251.89
22,16,7,0.065,-0.92,-0.264,1.098,0.976,0.305,251.896
0,122,43087,0.065,-0.925,-0.262,0.976,0.793,0.427,251.9
0,3,0,0.064,-0.924,-0.262,0.976,0.793,0.427,251.906
2,122,43087,0.064,-0.921,-0.262,1.037,0.915,0.61,251.91
2,0,1,0.062,-0.923,-0.262,1.037,0.915,0.61,251.916
13,122,43087,0.062,-0.925,-0.255,0.854,0.793,0.976,251.92
13,4,6,0.06,-0.922,-0.262,0.854,0.793,0.976,251.926
0,122,43087,0.062,-0.923,-0.266,0.183,0.488,1.037,251.93
0,13,0,0.064,-0.923,-0.268,0.183,0.488,1.037,251.936
1,122,43087,0.062,-0.923,-0.266,-0.61,0.305,0.976,251.94
1,9,6,0.062,-0.922,-0.266,-0.61,0.305,0.976,251.946
10,122,43087,0.062,-0.923,-0.269,-1.037,0.244,0.793,251.949
10,23,2,0.063,-0.923,-0.269,-1.037,0.244,0.793,251.956
14,122,43087,0.064,-0.925,-0.271,-0.915,0.122,0.61,251.959
14,10,7,0.064,-0.925,-0.274,-0.915,0.122,0.61,251.966
7,122,43087,0.062,-0.924,-0.271,-0.732,-0.061,0.671,251.969
7,9,9,0.064,-0.927,-0.269,-0.732,-0.061,0.671,251.975
1,122,43087,0.061,-0.925,-0.267,-0.488,-0.122,0.793,251.979
1,16,1,0.061,-0.927,-0.268,-0.488,-0.122,0.793,251.985
3,122,43087,0.06,-0.924,-0.266,-0.244,-0.305,0.915,251.989
3,5,0,0.062,-0.922,-0.265,-0.244,-0.305,0.915,251.995
0,122,43087,0.061,-0.924,-0.266,-0.61,-0.488,0.915,251.999
0,9,9,0.061,-0.922,-0.27,-0.61,-0.488,0.915,252.005
3,122,43087,0.062,-0.922,-0.268,-1.037,-0.671,0.61,252.009
3,22,0,0.061,-0.924,-0.269,-1.037,-0.671,0.61,252.015
11,122,43087,0.06,-0.926,-0.268,-1.402,-0.854,0.549,252.019
11,0,6,0.063,-0.924,-0.269,-1.402,-0.854,0.549,252.025
12,122,43087,0.062,-0.924,-0.266,-1.768,-1.037,0.549,252.029
12,15,0,0.06,-0.925,-0.268,-1.768,-1.037,0.549,252.035
8,122,43087,0.063,-0.927,-0.272,-1.951,-1.159,0.488,252.039
8,0,8,0.061,-0.926,-0.274,-1.951,-1.159,0.488,252.045
0,122,43087,0.06,-0.925,-0.275,-1.89,-1.22,0.366,252.048
0,8,8,0.063,-0.925,-0.27,-1.89,-1.22,0.366,252.055
16,122,43087,0.063,-0.927,-0.269,-1.524,-1.037,0.183,252.058
16,5,5,0.059,-0.929,-0.269,-1.524,-1.037,0.183,252.065
10,122,43087,0.056,-0.925,-0.268,-0.732,-0.671,0.183,252.068
10,11,0,0.056,-0.922,-0.264,-0.732,-0.671,0.183,252.074
0,122,43087,0.059,-0.918,-0.263,-0.305,-0.549,0,252.078
0,0,12,0.057,-0.919,-0.261,-0.305,-0.549,0,252.084
11,122,43087,0.059,-0.921,-0.263,-0.915,-0.427,-0.427,252.088
11,14,10,0.059,-0.922,-0.267,-0.915,-0.427,-0.427,252.094
11,122,43087,0.06,-0.922,-0.265,-1.341,-0.305,-0.61,252.098
11,0,13,0.061,-0.923,-0.266,-1.341,-0.305,-0.61,252.104
7,122,43087,0.062,-0.924,-0.268,-1.28,-0.061,-0.488,252.108
7,8,15,0.062,-0.922,-0.267,-1.28,-0.061,-0.488,252.114
3,122,43087,0.062,-0.925,-0.266,-0.915,0.061,-0.244,252.118
3,0,0,0.061,-0.922,-0.262,-0.915,0.061,-0.244,252.124
12,122,43087,0.062,-0.922,-0.265,-0.915,0.122,0.061,252.128
12,0,16,0.062,-0.923,-0.264,-0.915,0.122,0.061,252.134
11,122,43087,0.062,-0.922,-0.267,-0.976,0.244,0.305,252.138
11,1,18,0.061,-0.924,-0.27,-0.976,0.244,0.305,252.144
0,122,43087,0.064,-0.924,-0.273,-0.854,0.61,0.549,252.147
0,4,2,0.064,-0.922,-0.268,-0.854,0.61,0.549,252.154
3,122,43087,0.066,-0.927,-0.27,-0.427,0.732,0.793,252.157
3,18,4,0.064,-0.925,-0.27,-0.427,0.732,0.793,252.163
11,122,43087,0.062,-0.924,-0.272,0.122,0.915,1.22,252.167
11,15,2,0.063,-0.925,-0.274,0.122,0.915,1.22,252.173
8,122,43087,0.058,-0.928,-0.271,0.732,1.098,1.402,252.177
8,2,11,0.057,-0.927,-0.269,0.732,1.098,1.402,252.183
2,122,43087,0.056,-0.921,-0.269,1.159,1.159,1.463,252.187
2,3,12,0.058,-0.922,-0.269,1.159,1.159,1.463,252.193
6,122,43087,0.061,-0.922,-0.267,1.037,1.037,1.341,252.197
6,0,17,0.059,-0.921,-0.267,1.037,1.037,1.341,252.203
3,122,43087,0.056,-0.922,-0.27,0.915,1.22,0.976,252.207
3,7,23,0.06,-0.921,-0.27,0.915,1.22,0.976,252.213
11,122,43087,0.056,-0.923,-0.272,0.915,1.341,0.671,252.217
11,0,5,0.056,-0.926,-0.273,0.915,1.341,0.671,252.223
12,122,43087,0.059,-0.928,-0.274,1.28,1.524,0.488,252.227
12,0,3,0.059,-0.925,-0.271,1.28,1.524,0.488,252.233
8,122,43087,0.055,-0.928,-0.269,1.829,1.524,0.061,252.237
8,0,2,0.058,-0.926,-0.274,1.829,1.524,0.061,252.243
18,122,43087,0.058,-0.924,-0.266,2.195,1.463,-0.427,252.246
18,16,11,0.061,-0.922,-0.26,2.195,1.463,-0.427,252.253
1,122,43087,0.061,-0.924,-0.266,2.317,1.524,-0.732,252.256
1,4,0,0.064,-0.922,-0.267,2.317,1.524,-0.732,252.262
3,122,43087,0.061,-0.925,-0.266,2.134,1.524,-0.915,252.266
3,7,16,0.063,-0.924,-0.261,2.134,1.524,-0.915,252.272
17,122,43087,0.062,-0.926,-0.261,1.463,1.341,-0.854,252.276
17,7,6,0.063,-0.924,-0.268,1.463,1.341,-0.854,252.282
6,122,43087,0.064,-0.923,-0.265,0.793,1.159,-0.854,252.286
6,5,17,0.065,-0.924,-0.261,0.793,1.159,-0.854,252.292
17,122,43087,0.063,-0.924,-0.263,0.549,1.159,-0.915,252.296
17,0,1,0.061,-0.923,-0.262,0.549,1.159,-0.915,252.302
10,122,43087,0.063,-0.919,-0.263,0.061,0.976,-0.915,252.306
10,0,10,0.063,-0.922,-0.259,0.061,0.976,-0.915,252.312
10,122,43087,0.067,-0.924,-0.265,-0.305,0.488,-1.037,252.316
10,6,2,0.07,-0.922,-0.266,-0.305,0.488,-1.037,252.322
9,122,43087,0.069,-0.925,-0.266,-0.732,0.305,-0.854,252.326
9,12,0,0.066,-0.926,-0.263,-0.732,0.305,-0.854,252.332
13,122,43087,0.066,-0.926,-0.263,-0.732,0.305,-0.854,252.335
13,0,9,0.062,-0.916,-0.266,-1.098,0.305,-0.427,252.342
4,122,43087,0.062,-0.916,-0.266,-1.098,0.305,-0.427,252.345
4,21,4,0.066,-0.927,-0.266,-1.768,0.061,-0.305,252.352
6,122,43087,0.066,-0.927,-0.266,-1.768,0.061,-0.305,252.355
6,1,0,0.064,-0.922,-0.269,-1.768,-0.122,-0.305,252.361
8,122,43087,0.064,-0.922,-0.269,-1.768,-0.122,-0.305,252.365
8,6,4,0.068,-0.925,-0.268,-1.89,-0.244,-0.122,252.371
7,122,43087,0.068,-0.925,-0.268,-1.89,-0.244,-0.122,252.375
7,0,3,0.066,-0.923,-0.266,-1.768,-0.366,0,252.381
10,122,43087,0.066,-0.923,-0.266,-1.768,-0.366,0,252.385
10,9,17,0.069,-0.921,-0.264,-1.768,-0.366,0.244,252.391
23,122,43087,0.069,-0.921,-0.264,-1.768,-0.366,0.244,252.395
23,0,15,0.069,-0.917,-0.261,-1.951,-0.305,0.427,252.401
9,122,43087,0.069,-0.917,-0.261,-1.951,-0.305,0.427,252.405
9,2,10,0.067,-0.922,-0.266,-2.439,-0.305,0.61,252.411
13,122,43087,0.067,-0.922,-0.266,-2.439,-0.305,0.61,252.415
13,0,0,0.064,-0.924,-0.273,-2.866,-0.305,0.732,252.421
5,122,43087,0.064,-0.924,-0.273,-2.866,-0.305,0.732,252.425
5,12,14,0.062,-0.927,-0.273,-2.866,-0.305,0.732,252.431
0,122,43087,0.062,-0.927,-0.273,-2.866,-0.305,0.732,252.435
0,16,0,0.066,-0.924,-0.281,-2.317,-0.122,0.732,252.441
17,122,43087,0.066,-0.924,-0.281,-2.317,-0.122,0.732,252.444
17,19,12,0.061,-0.925,-0.278,-1.28,0.183,0.854,252.451
2,122,43087,0.061,-0.925,-0.278,-1.28,0.183,0.854,252.454
2,9,0,0.061,-0.925,-0.271,-0.549,0.244,0.976,252.46
15,122,43087,0.061,-0.925,-0.271,-0.549,0.244,0.976,252.464
15,9,18,0.063,-0.923,-0.272,-0.122,0.366,1.037,252.47
5,122,43087,0.063,-0.925,-0.272,-0.122,0.366,1.037,252.474
5,24,5,0.064,-0.927,-0.274,0.305,0.488,0.854,252.48
8,122,43087,0.067,-0.923,-0.275,0.305,0.488,0.854,252.484
8,1,4,0.066,-0.925,-0.27,0.732,0.793,0.854,252.49
0,122,43087,0.065,-0.924,-0.272,0.732,0.793,0.854,252.494
0,9,0,0.067,-0.926,-0.27,0.915,0.976,1.037,252.5
8,122,43087,0.065,-0.926,-0.272,0.915,0.976,1.037,252.504
8,9,0,0.062,-0.927,-0.273,0.915,0.854,0.976,252.51
3,122,43087,0.065,-0.924,-0.267,0.915,0.854,0.976,252.514
3,17,0,0.062,-0.924,-0.269,1.22,0.976,1.037,252.52
8,122,43087,0.066,-0.923,-0.271,1.22,0.976,1.037,252.524
8,5,2,0.065,-0.921,-0.271,1.646,1.098,1.22,252.53
7,122,43087,0.064,-0.92,-0.271,1.646,1.098,1.22,252.533
7,8,8,0.062,-0.924,-0.272,1.951,1.098,1.402,252.54
0,122,43087,0.064,-0.92,-0.272,1.951,1.098,1.402,252.543
0,0,8,0.064,-0.922,-0.268,1.829,1.159,1.341,252.55
21,122,43087,0.062,-0.924,-0.269,1.829,1.159,1.341,252.553
21,9,15,0.061,-0.925,-0.268,1.768,1.037,1.159,252.559
5,122,43087,0.062,-0.925,-0.271,1.768,1.037,1.159,252.563
5,0,23,0.06,-0.922,-0.269,2.012,0.854,1.28,252.569
21,122,43087,0.061,-0.923,-0.265,2.012,0.854,1.28,252.573
21,6,6,0.06,-0.925,-0.268,2.012,0.854,1.463,252.579
0,122,43087,0.06,-0.925,-0.266,2.012,0.854,1.463,252.583
0,0,2,0.059,-0.926,-0.26,2.073,0.854,1.524,252.589
8,122,43087,0.057,-0.926,-0.261,2.073,0.854,1.524,252.593
8,11,0,0.059,-0.925,-0.26,1.89,0.61,1.28,252.599
0,122,43087,0.062,-0.924,-0.261,1.89,0.61,1.28,252.603
0,9,0,0.063,-0.921,-0.26,1.524,0.549,0.915,252.609
2,122,43087,0.061,-0.923,-0.26,1.524,0.549,0.915,252.613
2,6,1,0.061,-0.924,-0.263,1.037,0.549,0.793,252.619
9,122,43087,0.056,-0.925,-0.26,1.037,0.549,0.793,252.623
9,6,7,0.058,-0.925,-0.261,0.305,0.427,0.854,252.629
7,122,43087,0.059,-0.923,-0.261,0.305,0.427,0.854,252.632
7,5,0,0.056,-0.925,-0.262,-0.427,0.122,0.793,252.639
13,122,43087,0.057,-0.922,-0.264,-0.427,0.122,0.793,252.642
13,22,9,0.057,-0.923,-0.263,-1.098,-0.122,0.549,252.648
5,122,43087,0.058,-0.921,-0.261,-1.098,-0.122,0.549,252.652
5,14,0,0.06,-0.924,-0.264,-1.585,-0.183,0.427,252.658
19,122,43087,0.059,-0.926,-0.266,-1.585,-0.183,0.427,252.662
19,11,3,0.06,-0.923,-0.269,-1.707,-0.183,0.427,252.668
3,122,43087,0.06,-0.926,-0.265,-1.707,-0.183,0.427,252.672
3,0,14,0.061,-0.924,-0.262,-1.707,-0.183,0.488,252.678
8,122,43087,0.06,-0.925,-0.269,-1.707,-0.183,0.488,252.682
8,0,0,0.058,-0.924,-0.264,-1.707,-0.183,0.488,252.688
19,122,43087,0.059,-0.924,-0.266,-1.707,-0.183,0.488,252.692
19,8,7,0.063,-0.922,-0.275,-1.829,-0.244,0.366,252.698
6,122,43087,0.059,-0.926,-0.272,-1.829,-0.244,0.366,252.702
6,8,1,0.06,-0.926,-0.269,-1.707,-0.366,0.244,252.708
0,122,43087,0.06,-0.925,-0.266,-1.707,-0.366,0.244,252.712
0,9,0,0.06,-0.924,-0.265,-1.402,-0.366,0.183,252.718
20,122,43087,0.06,-0.926,-0.265,-1.402,-0.366,0.183,252.722
20,6,10,0.061,-0.922,-0.264,-1.646,-0.305,0.061,252.728
0,122,43087,0.06,-0.92,-0.266,-1.646,-0.305,0.061,252.731
0,9,1,0.062,-0.919,-0.266,-2.012,-0.427,-0.122,252.738
13,122,43087,0.061,-0.923,-0.269,-2.012,-0.427,-0.122,252.741
13,12,9,0.063,-0.925,-0.268,-2.256,-0.366,-0.244,252.747
0,122,43087,0.063,-0.925,-0.269,-2.256,-0.366,-0.244,252.751
0,3,3,0.06,-0.927,-0.272,-2.195,-0.183,-0.183,252.757
12,122,43087,0.06,-0.924,-0.268,-2.195,-0.183,-0.183,252.761
12,13,6,0.059,-0.921,-0.271,-2.195,-0.183,-0.244,252.767
14,122,43087,0.063,-0.924,-0.27,-2.195,-0.183,-0.244,252.771
14,6,26,0.062,-0.923,-0.269,-1.829,-0.244,-0.305,252.777
0,122,43087,0.059,-0.925,-0.272,-1.829,-0.244,-0.305,252.781
0,6,0,0.062,-0.924,-0.269,-1.463,-0.122,-0.122,252.787
0,122,43087,0.066,-0.925,-0.269,-1.463,-0.122,-0.122,252.791
0,7,0,0.065,-0.926,-0.271,-1.037,0,0.061,252.797
1,122,43087,0.065,-0.924,-0.271,-1.037,0,0.061,252.801
1,0,12,0.063,-0.921,-0.268,-0.732,0.122,0.183,252.807
4,122,43087,0.063,-0.924,-0.269,-0.732,0.122,0.183,252.811
4,0,12,0.066,-0.925,-0.271,-0.549,0.183,0.305,252.817
13,122,43087,0.065,-0.924,-0.267,-0.549,0.183,0.305,252.821
13,6,0,0.063,-0.927,-0.272,-0.427,0.244,0.427,252.827
3,122,43087,0.063,-0.925,-0.274,-0.427,0.244,0.427,252.83
3,12,7,0.066,-0.923,-0.272,-0.183,0.183,0.671,252.837
0,122,43087,0.061,-0.921,-0.272,-0.183,0.183,0.671,252.84
0,1,3,0.063,-0.922,-0.274,0.061,0.183,0.793,252.846
4,122,43087,0.063,-0.923,-0.275,0.061,0.183,0.793,252.85
4,9,9,0.061,-0.924,-0.273,0.305,0.244,0.976,252.856
0,122,43087,0.063,-0.923,-0.275,0.305,0.244,0.976,252.86
0,7,3,0.062,-0.923,-0.273,0.61,0.183,1.037,252.866
6,122,43087,0.062,-0.925,-0.27,0.61,0.183,1.037,252.87
6,0,16,0.059,-0.925,-0.272,0.854,0.183,1.28,252.876
2,122,43087,0.061,-0.922,-0.269,0.854,0.183,1.28,252.88
2,2,0,0.06,-0.921,-0.271,0.915,0.366,1.402,252.886
23,122,43087,0.061,-0.923,-0.268,0.915,0.366,1.402,252.89
23,8,11,0.06,-0.925,-0.268,0.976,0.427,1.28,252.896
1,122,43087,0.062,-0.925,-0.271,0.976,0.427,1.28,252.9
1,0,0,0.06,-0.925,-0.273,1.098,0.549,1.22,252.906
10,122,43087,0.06,-0.925,-0.273,1.098,0.549,1.22,252.91
10,19,6,0.059,-0.924,-0.266,1.341,0.671,1.22,252.916
4,122,43087,0.059,-0.924,-0.266,1.341,0.671,1.22,252.919
4,0,2,0.059,-0.922,-0.268,1.22,0.671,1.22,252.926
4,122,43087,0.059,-0.922,-0.268,1.22,0.671,1.22,252.929
4,10,0,0.058,-0.924,-0.265,0.732,0.732,0.976,252.936
0,122,43087,0.058,-0.924,-0.265,0.732,0.732,0.976,252.939
0,7,8,0.056,-0.924,-0.266,0.366,0.793,0.732,252.945
2,122,43087,0.056,-0.924,-0.266,0.366,0.793,0.732,252.949
2,4,0,0.058,-0.924,-0.264,0.427,0.671,0.549,252.955
11,122,43087,0.058,-0.924,-0.264,0.427,0.671,0.549,252.959
11,0,15,0.062,-0.921,-0.268,0.427,0.488,0.427,252.965
3,122,43087,0.062,-0.921,-0.268,0.427,0.488,0.427,252.969
3,0,4,0.06,-0.922,-0.268,0.305,0.549,0.366,252.975
20,122,43087,0.06,-0.922,-0.268,0.305,0.549,0.366,252.979
20,11,4,0.058,-0.921,-0.267,0.061,0.549,0.305,252.985
9,122,43087,0.058,-0.921,-0.267,0.061,0.549,0.305,252.989
9,18,7,0.062,-0.92,-0.269,-0.244,0.488,0.183,252.995
3,122,43087,0.062,-0.92,-0.269,-0.244,0.488,0.183,252.999
3,7,0,0.06,-0.925,-0.267,-0.427,0.488,0.183,253.005
5,122,43087,0.06,-0.925,-0.267,-0.427,0.488,0.183,253.009
5,10,15,0.062,-0.923,-0.264,-0.549,0.427,0.183,253.015
2,122,43087,0.062,-0.923,-0.264,-0.549,0.427,0.183,253.018
2,0,7,0.06,-0.921,-0.265,-1.037,0.305,0.061,253.025
3,122,43087,0.06,-0.921,-0.265,-1.037,0.305,0.061,253.028
3,3,16,0.06,-0.925,-0.263,-1.463,0.244,0.122,253.035
9,122,43087,0.06,-0.925,-0.263,-1.463,0.244,0.122,253.038
9,0,13,0.062,-0.921,-0.269,-1.463,0.244,0.122,253.044
2,122,43087,0.062,-0.923,-0.272,-1.585,0.061,0.061,253.048
2,12,4,0.06,-0.923,-0.271,-1.585,0.061,0.061,253.054
2,122,43087,0.06,-0.923,-0.266,-1.829,-0.061,0,253.058
2,3,3,0.058,-0.924,-0.262,-1.829,-0.061,0,253.064
11,122,43087,0.062,-0.922,-0.265,-2.256,-0.183,-0.061,253.068
11,0,4,0.062,-0.922,-0.27,-2.256,-0.183,-0.061,253.074
13,122,43087,0.065,-0.924,-0.272,-2.317,-0.183,0,253.078
13,10,9,0.06,-0.924,-0.269,-2.317,-0.183,0,253.084
0,122,43087,0.063,-0.926,-0.272,-1.829,-0.122,0.305,253.088
0,1,10,0.063,-0.922,-0.27,-1.829,-0.122,0.305,253.094
0,122,43087,0.061,-0.919,-0.27,-1.524,-0.061,0.61,253.098
0,16,0,0.062,-0.921,-0.271,-1.524,-0.061,0.61,253.104
14,122,43087,0.062,-0.925,-0.271,-1.402,0,0.549,253.108
14,7,11,0.06,-0.929,-0.271,-1.402,0,0.549,253.114
6,122,43087,0.058,-0.923,-0.273,-1.098,0,0.793,253.117
6,0,8,0.063,-0.921,-0.271,-1.098,0,0.793,253.124
1,122,43087,0.06,-0.92,-0.273,-0.854,0.122,0.854,253.127
1,0,0,0.06,-0.923,-0.271,-0.854,0.122,0.854,253.134
7,122,43087,0.06,-0.926,-0.273,-0.854,0.183,0.915,253.137
7,0,1,0.061,-0.927,-0.273,-0.854,0.183,0.915,253.143
4,122,43087,0.058,-0.925,-0.279,-0.549,0.244,0.915,253.147
4,12,12,0.059,-0.922,-0.274,-0.549,0.244,0.915,253.153
15,122,43087,0.056,-0.92,-0.272,-0.061,0.305,0.915,253.157
15,0,0,0.061,-0.923,-0.27,-0.061,0.305,0.915,253.163
15,122,43087,0.059,-0.923,-0.271,0.244,0.427,0.854,253.167
15,5,3,0.058,-0.923,-0.271,0.244,0.427,0.854,253.173
7,122,43087,0.057,-0.925,-0.273,0.671,0.732,0.793,253.177
7,8,18,0.057,-0.924,-0.274,0.671,0.732,0.793,253.183
2,122,43087,0.057,-0.921,-0.269,1.098,0.915,0.793,253.187
2,15,10,0.054,-0.919,-0.271,1.098,0.915,0.793,253.193
8,122,43087,0.059,-0.92,-0.271,0.854,0.732,0.732,253.197
8,0,7,0.061,-0.921,-0.269,0.854,0.732,0.732,253.203
8,122,43087,0.058,-0.925,-0.271,0.732,0.793,0.305,253.207
8,0,17,0.058,-0.926,-0.269,0.732,0.793,0.305,253.213
8,122,43087,0.06,-0.926,-0.272,0.793,1.037,0.183,253.216
8,16,6,0.056,-0.923,-0.268,0.793,1.037,0.183,253.223
8,122,43087,0.056,-0.921,-0.268,0.732,0.854,0.061,253.226
8,8,11,0.061,-0.921,-0.267,0.732,0.854,0.061,253.232
8,122,43087,0.061,-0.923,-0.268,0.488,0.732,-0.244,253.236
8,3,0,0.063,-0.928,-0.27,0.488,0.732,-0.244,253.242
8,122,43087,0.064,-0.926,-0.267,0.793,1.037,-0.305,253.246
8,12,13,0.062,-0.925,-0.268,0.793,1.037,-0.305,253.252
18,122,43087,0.06,-0.921,-0.266,1.037,1.098,0.183,253.256
18,14,2,0.062,-0.919,-0.264,1.037,1.098,0.183,253.262
6,122,43087,0.057,-0.924,-0.264,0.976,0.976,0.366,253.266
6,0,6,0.059,-0.921,-0.268,0.976,0.976,0.366,253.272
0,122,43087,0.061,-0.921,-0.268,0.427,0.854,0.183,253.276
0,3,0,0.062,-0.923,-0.27,0.427,0.854,0.183,253.282
0,122,43087,0.061,-0.925,-0.27,-0.061,0.854,-0.061,253.286
0,7,0,0.06,-0.927,-0.27,-0.061,0.854,-0.061,253.292
5,122,43087,0.058,-0.924,-0.267,0.122,0.549,0.061,253.296
5,4,11,0.056,-0.922,-0.267,0.122,0.549,0.061,253.302
6,122,43087,0.059,-0.922,-0.264,0.305,0.427,0.305,253.305
6,6,4,0.059,-0.925,-0.266,0.305,0.427,0.305,253.312
0,122,43087,0.057,-0.924,-0.269,0.305,0.427,0.366,253.315
0,0,5,0.058,-0.927,-0.271,0.305,0.427,0.366,253.322
4,122,43087,0.059,-0.923,-0.266,0,0.427,0.183,253.325
4,5,10,0.059,-0.922,-0.265,0,0.427,0.183,253.331
17,122,43087,0.059,-0.923,-0.271,0.061,0.488,0.061,253.335
17,4,5,0.059,-0.922,-0.268,0.061,0.488,0.061,253.341
0,122,43087,0.058,-0.926,-0.264,0.122,0.488,0.122,253.345
0,13,9,0.06,-0.928,-0.263,0.122,0.488,0.122,253.351
20,122,43087,0.061,-0.924,-0.268,-0.061,0.427,0.183,253.355
20,14,0,0.058,-0.92,-0.265,-0.061,0.427,0.183,253.361
1,122,43087,0.058,-0.92,-0.262,-0.366,0.244,0.183,253.365
1,12,4,0.064,-0.921,-0.266,-0.366,0.244,0.183,253.371
13,122,43087,0.058,-0.923,-0.266,-0.854,0.183,0.122,253.375
13,8,1,0.059,-0.923,-0.269,-0.854,0.183,0.122,253.381
2,122,43087,0.059,-0.925,-0.268,-1.159,0.122,0,253.385
2,8,14,0.061,-0.924,-0.271,-1.159,0.122,0,253.391
17,122,43087,0.059,-0.925,-0.271,-1.28,0.183,0.061,253.395
17,3,12,0.059,-0.926,-0.271,-1.28,0.183,0.061,253.401
10,122,43087,0.059,-0.926,-0.272,-1.341,0.244,0.122,253.405
10,0,4,0.057,-0.925,-0.272,-1.341,0.244,0.122,253.411
13,122,43087,0.061,-0.928,-0.272,-1.159,0.183,-0.061,253.414
13,11,2,0.061,-0.925,-0.273,-1.159,0.183,-0.061,253.421
7,122,43087,0.06,-0.923,-0.272,-0.732,0.366,-0.122,253.424
7,10,11,0.058,-0.925,-0.271,-0.732,0.366,-0.122,253.43
10,122,43087,0.059,-0.923,-0.269,-0.366,0.305,-0.122,253.434
10,5,0,0.059,-0.926,-0.269,-0.366,0.305,-0.122,253.44
2,122,43087,0.058,-0.923,-0.271,-0.061,0.244,-0.305,253.444
2,6,0,0.06,-0.92,-0.274,-0.061,0.244,-0.305,253.45
11,122,43087,0.062,-0.922,-0.269,-0.122,0.305,-0.427,253.454
11,0,0,0.063,-0.924,-0.265,-0.122,0.305,-0.427,253.46
14,122,43087,0.066,-0.923,-0.27,-0.061,0.366,-0.61,253.464
14,23,0,0.065,-0.92,-0.269,-0.061,0.366,-0.61,253.47
2,122,43087,0.063,-0.923,-0.268,-0.183,0.427,-0.61,253.474
2,11,15,0.061,-0.922,-0.269,-0.183,0.427,-0.61,253.48
11,122,43087,0.061,-0.922,-0.269,-0.183,0.427,-0.61,253.484
11,10,0,0.062,-0.927,-0.27,-0.183,0.427,-0.427,253.49
0,122,43087,0.062,-0.927,-0.27,-0.183,0.427,-0.427,253.494
0,8,7,0.062,-0.922,-0.267,-0.122,0.488,-0.244,253.5
0,122,43087,0.062,-0.922,-0.267,-0.122,0.488,-0.244,253.503
0,6,0,0.063,-0.922,-0.269,0.244,0.549,0,253.51
16,122,43087,0.063,-0.922,-0.269,0.244,0.549,0,253.513
16,2,10,0.063,-0.923,-0.265,0.549,0.61,0.366,253.52
5,122,43087,0.063,-0.923,-0.265,0.549,0.61,0.366,253.523
5,13,0,0.064,-0.919,-0.267,0.305,0.61,0.427,253.529
8,122,43087,0.064,-0.919,-0.267,0.305,0.61,0.427,253.533
8,15,0,0.064,-0.926,-0.267,-0.244,0.427,0.305,253.539
0,122,43087,0.064,-0.926,-0.267,-0.244,0.427,0.305,253.543
0,3,4,0.061,-0.922,-0.267,-0.366,0.183,0.366,253.549
12,122,43087,0.061,-0.922,-0.267,-0.366,0.183,0.366,253.553
12,3,24,0.062,-0.921,-0.269,-0.427,0.122,0.427,253.559
5,122,43087,0.062,-0.921,-0.269,-0.427,0.122,0.427,253.563
5,4,16,0.063,-0.921,-0.273,-0.915,0.061,0.366,253.569
4,122,43087,0.063,-0.921,-0.273,-0.915,0.061,0.366,253.573
4,19,3,0.064,-0.923,-0.275,-1.098,0.061,0.305,253.579
14,122,43087,0.064,-0.923,-0.275,-1.098,0.061,0.305,253.583
14,0,0,0.064,-0.926,-0.27,-0.488,0.244,0.366,253.589
6,122,43087,0.064,-0.926,-0.27,-0.488,0.244,0.366,253.593
6,0,0,0.063,-0.924,-0.271,0.061,0.427,0.61,253.599
27,122,43087,0.063,-0.924,-0.271,0.061,0.427,0.61,253.602
27,10,11,0.062,-0.918,-0.27,0.183,0.488,0.61,253.609
7,122,43087,0.062,-0.918,-0.27,0.183,0.488,0.61,253.612
7,0,1,0.062,-0.924,-0.272,0.244,0.427,0.61,253.619
3,122,43087,0.062,-0.926,-0.267,0.244,0.427,0.61,253.622
3,1,14,0.063,-0.926,-0.269,0.366,0.61,0.61,253.628
8,122,43087,0.06,-0.923,-0.269,0.366,0.61,0.61,253.632
8,0,10,0.06,-0.923,-0.27,0.305,0.549,0.854,253.638
14,122,43087,0.061,-0.921,-0.271,0.305,0.549,0.854,253.642
14,0,4,0.061,-0.921,-0.271,0.061,0.549,0.793,253.648
6,122,43087,0.06,-0.923,-0.272,0.061,0.549,0.793,253.652
6,8,11,0.06,-0.925,-0.271,0.061,0.61,0.671,253.658
13,122,43087,0.057,-0.926,-0.269,0.061,0.61,0.671,253.662
13,3,4,0.057,-0.923,-0.268,0.244,0.671,0.549,253.668
15,122,43087,0.056,-0.922,-0.267,0.244,0.671,0.549,253.672
15,4,2,0.059,-0.923,-0.263,0.305,0.549,0.366,253.678
10,122,43087,0.061,-0.924,-0.265,0.305,0.549,0.366,253.682
10,0,6,0.058,-0.925,-0.268,0.305,0.549,0.183,253.688
13,122,43087,0.057,-0.92,-0.265,0.305,0.549,0.183,253.692
13,22,0,0.06,-0.925,-0.269,0.061,0.671,-0.061,253.698
0,122,43087,0.06,-0.922,-0.268,0.061,0.671,-0.061,253.701
0,0,4,0.063,-0.922,-0.267,-0.183,0.488,0,253.708
6,122,43087,0.064,-0.922,-0.266,-0.183,0.488,0,253.711
6,15,9,0.064,-0.922,-0.267,-0.61,0.427,-0.122,253.718
18,122,43087,0.062,-0.919,-0.271,-0.61,0.427,-0.122,253.721
18,9,6,0.066,-0.92,-0.268,-1.037,0.488,-0.122,253.727
0,122,43087,0.063,-0.923,-0.266,-1.037,0.488,-0.122,253.731
0,0,0,0.066,-0.923,-0.268,-1.037,0.488,0.061,253.737
1,122,43087,0.065,-0.922,-0.268,-1.037,0.488,0.061,253.741
1,4,19,0.063,-0.922,-0.269,-1.159,0.305,0.366,253.747
13,122,43087,0.062,-0.922,-0.27,-1.159,0.305,0.366,253.751
13,14,4,0.063,-0.922,-0.27,-1.341,0.122,0.427,253.757
18,122,43087,0.064,-0.924,-0.271,-1.341,0.122,0.427,253.761
18,3,6,0.066,-0.924,-0.271,-1.341,0.122,0.61,253.767
3,122,43087,0.063,-0.924,-0.273,-1.341,0.122,0.61,253.771
3,7,16,0.061,-0.923,-0.273,-1.22,0.122,0.732,253.777
0,122,43087,0.062,-0.924,-0.268,-1.22,0.122,0.732,253.781
0,15,11,0.062,-0.922,-0.27,-1.22,0,0.915,253.787
13,122,43087,0.063,-0.918,-0.274,-1.22,0,0.915,253.791
13,6,0,0.064,-0.927,-0.273,-1.098,-0.122,1.159,253.797
11,122,43087,0.063,-0.922,-0.274,-1.098,-0.122,1.159,253.8
11,15,0,0.063,-0.924,-0.271,-0.854,0.061,1.22,253.807
0,122,43087,0.061,-0.929,-0.274,-0.854,0.061,1.22,253.81
0,5,0,0.059,-0.922,-0.274,-0.427,0.244,1.22,253.817
12,122,43087,0.06,-0.923,-0.273,-0.427,0.244,1.22,253.82
12,0,9,0.059,-0.923,-0.273,-0.366,0.061,1.098,253.826
9,122,43087,0.061,-0.924,-0.273,-0.366,0.061,1.098,253.83
9,10,4,0.06,-0.927,-0.269,-0.183,0.061,0.915,253.836
7,122,43087,0.056,-0.928,-0.273,-0.183,0.061,0.915,253.84
7,0,16,0.059,-0.927,-0.272,0.061,0.183,0.915,253.846
4,122,43087,0.058,-0.924,-0.27,0.061,0.183,0.915,253.85
4,0,0,0.061,-0.923,-0.272,0.122,0.305,0.854,253.856
16,122,43087,0.059,-0.923,-0.273,0.122,0.305,0.854,253.86
16,0,0,0.057,-0.923,-0.269,0.183,0.427,0.732,253.866
16,122,43087,0.058,-0.924,-0.271,0.183,0.427,0.732,253.87
16,0,13,0.06,-0.923,-0.268,0.305,0.488,0.61,253.876
17,122,43087,0.059,-0.925,-0.267,0.305,0.488,0.61,253.88
17,9,6,0.056,-0.922,-0.271,0.122,0.366,0.549,253.886
11,122,43087,0.059,-0.92,-0.273,0.122,0.366,0.549,253.89
11,5,10,0.061,-0.921,-0.274,-0.305,0.305,0.427,253.896
9,122,43087,0.062,-0.923,-0.273,-0.305,0.305,0.427,253.899
9,9,14,0.06,-0.922,-0.27,-0.061,0.427,0.549,253.906
0,122,43087,0.059,-0.922,-0.272,-0.061,0.427,0.549,253.909
0,12,8,0.061,-0.921,-0.271,0.122,0.488,0.976,253.915
0,122,43087,0.059,-0.92,-0.271,0.122,0.488,0.976,253.919
0,2,0,0.059,-0.923,-0.27,0.305,0.305,0.793,253.925
24,122,43087,0.061,-0.923,-0.269,0.305,0.305,0.793,253.929
24,2,11,0.058,-0.925,-0.269,0.488,0.488,0.427,253.935
2,122,43087,0.061,-0.923,-0.272,0.488,0.488,0.427,253.939
2,12,4,0.062,-0.922,-0.269,0.549,0.61,0.305,253.945
6,122,43087,0.059,-0.923,-0.271,0.549,0.61,0.305,253.949
6,1,19,0.06,-0.926,-0.271,0.732,0.61,0.183,253.955
9,122,43087,0.06,-0.929,-0.271,0.732,0.61,0.183,253.959
9,11,0,0.063,-0.922,-0.269,1.22,0.61,0.244,253.965
13,122,43087,0.059,-0.921,-0.268,1.22,0.61,0.244,253.969
13,5,0,0.058,-0.923,-0.263,1.463,0.732,0.488,253.975
16,122,43087,0.059,-0.924,-0.265,1.463,0.732,0.488,253.979
16,10,9,0.059,-0.921,-0.268,1.28,0.793,0.671,253.985
6,122,43087,0.057,-0.921,-0.269,1.28,0.793,0.671,253.989
6,10,9,0.055,-0.923,-0.264,0.976,0.671,0.427,253.995
22,122,43087,0.056,-0.919,-0.266,0.976,0.671,0.427,253.998
22,19,4,0.057,-0.923,-0.268,0.61,0.488,0.366,254.005
0,122,43087,0.057,-0.924,-0.267,0.61,0.488,0.366,254.008
0,6,10,0.059,-0.92,-0.265,0.366,0.427,0.305,254.015
2,122,43087,0.056,-0.923,-0.266,0.366,0.427,0.305,254.018
2,11,18,0.061,-0.922,-0.268,0.366,0.488,0.366,254.024
9,122,43087,0.061,-0.921,-0.263,0.366,0.488,0.366,254.028
9,9,0,0.06,-0.921,-0.266,0.183,0.427,0.549,254.034
12,122,43087,0.062,-0.923,-0.265,0.183,0.427,0.549,254.038
12,4,14,0.062,-0.927,-0.266,-0.061,0.366,0.366,254.044
10,122,43087,0.059,-0.928,-0.267,-0.061,0.366,0.366,254.048
10,10,8,0.059,-0.924,-0.265,-0.366,0.427,0.305,254.054
11,122,43087,0.058,-0.922,-0.264,-0.366,0.427,0.305,254.058
11,1,5,0.058,-0.925,-0.266,-0.732,0.305,0.427,254.064
8,122,43087,0.058,-0.925,-0.266,-0.732,0.305,0.427,254.068
8,0,15,0.059,-0.925,-0.266,-0.976,0.244,0.366,254.074
26,122,43087,0.059,-0.925,-0.266,-0.976,0.244,0.366,254.078
26,0,7,0.056,-0.923,-0.27,-1.159,0.305,0.244,254.084
3,122,43087,0.056,-0.923,-0.27,-1.159,0.305,0.244,254.088
3,17,11,0.058,-0.925,-0.268,-1.402,0.183,-0.061,254.094
6,122,43087,0.058,-0.925,-0.268,-1.402,0.183,-0.061,254.097
6,0,10,0.062,-0.924,-0.27,-1.524,0.183,-0.183,254.104
5,122,43087,0.062,-0.924,-0.27,-1.524,0.183,-0.183,254.107
5,0,2,0.057,-0.928,-0.272,-1.159,0.305,-0.366,254.113
7,122,43087,0.057,-0.928,-0.272,-1.159,0.305,-0.366,254.117
7,11,11,0.058,-0.923,-0.271,-0.671,0.366,-0.427,254.123
0,122,43087,0.058,-0.923,-0.271,-0.671,0.366,-0.427,254.127
0,6,0,0.06,-0.922,-0.266,-0.732,0.305,-0.854,254.133
0,122,43087,0.06,-0.922,-0.266,-0.732,0.305,-0.854,254.137
0,1,0,0.062,-0.924,-0.272,-0.793,0.305,-1.037,254.143
15,122,43087,0.062,-0.924,-0.272,-0.793,0.305,-1.037,254.147
15,8,7,0.06,-0.921,-0.268,-0.976,0.183,-1.098,254.153
3,122,43087,0.06,-0.921,-0.268,-0.976,0.183,-1.098,254.157
3,8,6,0.065,-0.922,-0.268,-1.22,0.122,-0.915,254.163
4,122,43087,0.065,-0.922,-0.268,-1.22,0.122,-0.915,254.167
4,18,9,0.063,-0.925,-0.267,-1.28,0.122,-0.549,254.173
0,122,43087,0.063,-0.925,-0.267,-1.28,0.122,-0.549,254.177
0,17,3,0.069,-0.924,-0.27,-1.402,0.122,-0.122,254.183
4,122,43087,0.069,-0.924,-0.27,-1.402,0.122,-0.122,254.187
4,7,11,0.064,-0.923,-0.272,-1.524,0.061,0.244,254.193
10,122,43087,0.064,-0.923,-0.272,-1.524,0.061,0.244,254.196
10,14,13,0.065,-0.923,-0.273,-1.524,0.061,0.244,254.203
11,122,43087,0.065,-0.922,-0.27,-1.524,0,0.549,254.206
11,15,2,0.065,-0.924,-0.274,-1.524,0,0.549,254.212
16,122,43087,0.064,-0.926,-0.274,-1.463,0.061,0.793,254.216
16,10,3,0.06,-0.925,-0.273,-1.463,0.061,0.793,254.222
0,122,43087,0.06,-0.925,-0.273,-1.037,0.122,1.037,254.226
0,12,10,0.06,-0.925,-0.268,-1.037,0.122,1.037,254.232
19,122,43087,0.058,-0.922,-0.27,-0.488,0.183,1.22,254.236
19,12,3,0.061,-0.92,-0.27,-0.488,0.183,1.22,254.242
0,122,43087,0.06,-0.918,-0.265,-0.549,0.244,1.159,254.246
0,11,12,0.059,-0.924,-0.271,-0.549,0.244,1.159,254.252
11,122,43087,0.06,-0.924,-0.271,-1.159,0.244,0.732,254.256
11,0,1,0.061,-0.922,-0.271,-1.159,0.244,0.732,254.262
10,122,43087,0.062,-0.921,-0.269,-1.768,0.244,0.488,254.266
10,0,18,0.058,-0.92,-0.271,-1.768,0.244,0.488,254.272
0,122,43087,0.058,-0.921,-0.271,-1.89,0.183,0.427,254.276
0,14,2,0.06,-0.921,-0.272,-1.89,0.183,0.427,254.282
0,122,43087,0.06,-0.922,-0.274,-1.89,0.244,0.305,254.285
0,2,0,0.06,-0.922,-0.276,-1.89,0.244,0.305,254.292
29,122,43087,0.062,-0.922,-0.279,-1.707,0.366,0.305,254.295
29,12,9,0.063,-0.923,-0.273,-1.707,0.366,0.305,254.302
7,122,43087,0.064,-0.925,-0.276,-0.976,0.366,0.305,254.305
7,4,8,0.062,-0.922,-0.275,-0.976,0.366,0.305,254.311
0,122,43087,0.06,-0.925,-0.272,-0.366,0.488,0.549,254.315
0,10,5,0.06,-0.923,-0.272,-0.366,0.488,0.549,254.321
7,122,43087,0.061,-0.922,-0.271,0.061,0.427,0.854,254.325
7,5,2,0.062,-0.919,-0.271,0.061,0.427,0.854,254.331
1,122,43087,0.063,-0.922,-0.272,0.061,0.488,0.854,254.335
1,8,7,0.061,-0.923,-0.273,0.061,0.488,0.854,254.341
6,122,43087,0.061,-0.927,-0.273,0.122,0.61,0.976,254.345
6,17,12,0.062,-0.924,-0.275,0.122,0.61,0.976,254.351
0,122,43087,0.059,-0.923,-0.275,0,0.549,1.098,254.355
0,16,9,0.059,-0.922,-0.27,0,0.549,1.098,254.361
9,122,43087,0.058,-0.923,-0.274,-0.183,0.366,1.22,254.365
9,6,0,0.058,-0.923,-0.276,-0.183,0.366,1.22,254.371
0,122,43087,0.059,-0.922,-0.275,-0.488,0.366,1.22,254.375
0,10,9,0.057,-0.924,-0.273,-0.488,0.366,1.22,254.381
3,122,43087,0.055,-0.924,-0.276,-0.549,0.549,1.098,254.385
3,11,6,0.056,-0.922,-0.277,-0.549,0.549,1.098,254.391
15,122,43087,0.054,-0.924,-0.275,-0.122,0.488,1.037,254.394
15,0,18,0.054,-0.924,-0.276,-0.122,0.488,1.037,254.401
9,122,43087,0.055,-0.923,-0.275,0.244,0.366,0.854,254.404
9,5,12,0.055,-0.927,-0.274,0.244,0.366,0.854,254.41
5,122,43087,0.056,-0.926,-0.276,0.61,0.427,0.549,254.414
5,2,0,0.054,-0.924,-0.272,0.61,0.427,0.549,254.42
14,122,43087,0.056,-0.924,-0.274,0.915,0.427,0.427,254.424
14,8,10,0.056,-0.924,-0.273,0.915,0.427,0.427,254.43
12,122,43087,0.053,-0.923,-0.272,1.037,0.488,0.183,254.434
12,10,4,0.056,-0.921,-0.272,1.037,0.488,0.183,254.44
6,122,43087,0.058,-0.921,-0.269,0.854,0.488,-0.183,254.444
6,4,1,0.056,-0.924,-0.272,0.854,0.488,-0.183,254.45
0,122,43087,0.056,-0.923,-0.272,0.305,0.366,-0.549,254.454
0,19,13,0.058,-0.923,-0.268,0.305,0.366,-0.549,254.46
2,122,43087,0.056,-0.921,-0.267,-0.122,0.305,-0.854,254.464
2,0,0,0.058,-0.923,-0.269,-0.122,0.305,-0.854,254.47
6,122,43087,0.06,-0.927,-0.269,-0.61,0.305,-0.976,254.474
6,0,12,0.06,-0.926,-0.273,-0.61,0.305,-0.976,254.48
0,122,43087,0.061,-0.922,-0.271,-0.976,0.305,-1.159,254.483
0,13,0,0.063,-0.92,-0.268,-0.976,0.305,-1.159,254.49
2,122,43087,0.061,-0.919,-0.268,-1.463,0.244,-1.402,254.493
2,8,8,0.063,-0.922,-0.27,-1.463,0.244,-1.402,254.5
14,122,43087,0.063,-0.926,-0.27,-1.524,0.061,-1.22,254.503
14,0,14,0.062,-0.924,-0.272,-1.524,0.061,-1.22,254.509
0,122,43087,0.064,-0.923,-0.271,-1.341,0.061,-0.976,254.513
0,9,11,0.067,-0.92,-0.271,-1.341,0.061,-0.976,254.519
7,122,43087,0.067,-0.917,-0.273,-1.463,0,-0.915,254.523
7,0,9,0.068,-0.917,-0.275,-1.463,0,-0.915,254.529
2,122,43087,0.067,-0.922,-0.274,-1.402,0.061,-0.732,254.533
2,0,8,0.069,-0.926,-0.274,-1.402,0.061,-0.732,254.539
1,122,43087,0.066,-0.925,-0.274,-1.22,0.061,-0.305,254.543
1,8,0,0.067,-0.923,-0.274,-1.22,0.061,-0.305,254.549
10,122,43087,0.064,-0.922,-0.275,-0.915,0.061,0,254.553
10,3,6,0.067,-0.923,-0.278,-0.915,0.061,0,254.559
8,122,43087,0.064,-0.923,-0.277,-0.671,0.061,0.366,254.563
8,1,0,0.065,-0.922,-0.267,-0.671,0.061,0.366,254.569
2,122,43087,0.062,-0.92,-0.274,-0.549,0.061,0.488,254.573
2,2,0,0.063,-0.916,-0.273,-0.549,0.061,0.488,254.579
1,122,43087,0.063,-0.922,-0.278,-0.793,0.183,0.488,254.582
1,5,20,0.064,-0.925,-0.28,-0.793,0.183,0.488,254.589
8,122,43087,0.061,-0.925,-0.274,-0.61,0.244,0.732,254.592
8,0,6,0.066,-0.924,-0.277,-0.61,0.244,0.732,254.599
0,122,43087,0.062,-0.92,-0.275,0,0.366,0.793,254.602
0,6,0,0.059,-0.921,-0.277,0,0.366,0.793,254.608
20,122,43087,0.059,-0.92,-0.275,0.305,0.427,1.098,254.612
20,0,10,0.06,-0.919,-0.276,0.305,0.427,1.098,254.618
0,122,43087,0.06,-0.922,-0.274,0.427,0.488,1.037,254.622
0,2,10,0.061,-0.919,-0.274,0.427,0.488,1.037,254.628
0,122,43087,0.062,-0.923,-0.271,0.61,0.671,0.549,254.632
0,7,5,0.06,-0.925,-0.27,0.61,0.671,0.549,254.638
6,122,43087,0.06,-0.925,-0.27,0.61,0.671,0.549,254.642
6,16,11,0.065,-0.923,-0.27,0.854,0.671,0.305,254.648
24,122,43087,0.065,-0.923,-0.27,0.854,0.671,0.305,254.652
24,12,0,0.063,-0.922,-0.273,0.671,0.61,0.366,254.658
15,122,43087,0.063,-0.922,-0.273,0.671,0.61,0.366,254.662
15,3,17,0.062,-0.924,-0.273,0.488,0.732,0.244,254.668
13,122,43087,0.062,-0.924,-0.273,0.488,0.732,0.244,254.672
13,0,3,0.067,-0.92,-0.27,0.915,0.976,0.244,254.678
0,122,43087,0.067,-0.92,-0.27,0.915,0.976,0.244,254.681
0,1,0,0.06,-0.918,-0.271,1.159,0.915,0.732,254.688
8,122,43087,0.06,-0.918,-0.271,1.159,0.915,0.732,254.691
8,3,2,0.062,-0.919,-0.27,0.793,0.854,0.793,254.698
0,122,43087,0.062,-0.919,-0.27,0.793,0.854,0.793,254.701
0,0,17,0.064,-0.925,-0.276,0.366,0.854,0.488,254.707
7,122,43087,0.064,-0.925,-0.276,0.366,0.854,0.488,254.711
7,4,7,0.059,-0.922,-0.276,0.366,0.793,0.366,254.717
21,122,43087,0.059,-0.922,-0.276,0.366,0.793,0.366,254.721
21,4,0,0.063,-0.922,-0.272,0.671,0.671,0.549,254.727
13,122,43087,0.063,-0.922,-0.272,0.671,0.671,0.549,254.731
13,17,0,0.06,-0.923,-0.269,1.037,0.549,0.793,254.737
18,122,43087,0.06,-0.923,-0.269,1.037,0.549,0.793,254.741
18,4,5,0.059,-0.921,-0.266,1.28,0.488,0.793,254.747
11,122,43087,0.059,-0.921,-0.266,1.28,0.488,0.793,254.751
11,10,8,0.06,-0.921,-0.265,0.976,0.427,0.732,254.757
7,122,43087,0.06,-0.921,-0.265,0.976,0.427,0.732,254.761
7,0,12,0.061,-0.922,-0.271,0.366,0.366,0.61,254.767
8,122,43087,0.061,-0.922,-0.271,0.366,0.366,0.61,254.771
8,3,0,0.059,-0.923,-0.268,0.061,0.366,0.61,254.777
17,122,43087,0.058,-0.924,-0.268,0.061,0.366,0.61,254.78
17,5,8,0.06,-0.922,-0.271,-0.183,0.427,0.854,254.787
10,122,43087,0.059,-0.92,-0.269,-0.183,0.427,0.854,254.79
10,0,14,0.058,-0.921,-0.271,-0.61,0.122,0.915,254.796
9,122,43087,0.058,-0.923,-0.274,-0.61,0.122,0.915,254.8
9,0,2,0.057,-0.922,-0.274,-1.159,0.122,0.732,254.806
0,122,43087,0.059,-0.924,-0.273,-1.159,0.122,0.732,254.81
0,22,4,0.064,-0.922,-0.275,-1.402,0.244,0.732,254.816
20,122,43087,0.059,-0.92,-0.276,-1.402,0.244,0.732,254.82
20,0,8,0.061,-0.921,-0.278,-1.159,0.366,0.854,254.826
2,122,43087,0.06,-0.923,-0.277,-1.159,0.366,0.854,254.83
2,0,5,0.058,-0.925,-0.273,-0.854,0.549,0.854,254.836
0,122,43087,0.057,-0.924,-0.274,-0.854,0.549,0.854,254.84
0,16,13,0.06,-0.923,-0.271,-0.305,0.549,0.854,254.846
10,122,43087,0.058,-0.922,-0.274,-0.305,0.549,0.854,254.85
10,0,0,0.058,-0.925,-0.274,0,0.366,0.915,254.856
12,122,43087,0.061,-0.924,-0.275,0,0.366,0.915,254.86
12,22,5,0.06,-0.923,-0.272,0.183,0.427,0.671,254.866
9,122,43087,0.059,-0.925,-0.273,0.183,0.427,0.671,254.87
9,4,9,0.059,-0.922,-0.275,0.122,0.427,0.488,254.876
17,122,43087,0.059,-0.92,-0.272,0.122,0.427,0.488,254.879
17,6,6,0.059,-0.922,-0.272,0.061,0.488,0.488,254.886
2,122,43087,0.059,-0.923,-0.276,0.061,0.488,0.488,254.889
2,5,8,0.058,-0.926,-0.275,0.061,0.366,0.366,254.895
8,122,43087,0.06,-0.928,-0.276,0.061,0.366,0.366,254.899
8,23,0,0.059,-0.927,-0.276,0.183,0.488,0.183,254.905
21,122,43087,0.057,-0.924,-0.271,0.183,0.488,0.183,254.909
21,3,0,0.061,-0.922,-0.27,0.366,0.549,-0.061,254.915
5,122,43087,0.061,-0.923,-0.274,0.366,0.549,-0.061,254.919
5,14,2,0.061,-0.925,-0.272,0.732,0.488,-0.244,254.925
18,122,43087,0.065,-0.926,-0.268,0.732,0.488,-0.244,254.929
18,5,18,0.062,-0.925,-0.266,1.037,0.732,-0.183,254.935
18,122,43087,0.059,-0.922,-0.268,1.037,0.732,-0.183,254.939
18,0,0,0.056,-0.918,-0.265,0.915,0.732,-0.122,254.945
4,122,43087,0.061,-0.92,-0.265,0.915,0.732,-0.122,254.949
4,14,8,0.062,-0.919,-0.27,0.488,0.549,-0.549,254.955
0,122,43087,0.061,-0.92,-0.272,0.488,0.549,-0.549,254.959
0,10,7,0.062,-0.925,-0.268,0.061,0.61,-0.732,254.965
8,122,43087,0.064,-0.924,-0.266,0.061,0.61,-0.732,254.968
8,5,7,0.061,-0.922,-0.268,-0.244,0.793,-0.61,254.975
10,122,43087,0.062,-0.92,-0.269,-0.244,0.793,-0.61,254.978
10,4,12,0.066,-0.919,-0.269,-0.549,0.549,-0.488,254.985
5,122,43087,0.065,-0.921,-0.268,-0.549,0.549,-0.488,254.988
5,13,0,0.066,-0.92,-0.268,-0.549,0.488,-0.366,254.994
9,122,43087,0.065,-0.92,-0.27,-0.549,0.488,-0.366,254.998
9,7,12,0.067,-0.923,-0.27,-0.793,0.549,0,255.004
0,122,43087,0.066,-0.919,-0.271,-0.793,0.549,0,255.008
0,9,11,0.066,-0.92,-0.272,-0.61,0.488,0.366,255.014
7,122,43087,0.065,-0.923,-0.265,-0.61,0.488,0.366,255.018
7,0,11,0.063,-0.924,-0.268,-0.488,0.427,0.549,255.024
0,122,43087,0.066,-0.924,-0.271,-0.488,0.427,0.549,255.028
0,0,12,0.064,-0.926,-0.272,-0.427,0.366,0.671,255.034
14,122,43087,0.064,-0.927,-0.269,-0.427,0.366,0.671,255.038
14,16,7,0.065,-0.923,-0.269,-0.427,0.427,0.854,255.044
14,122,43087,0.061,-0.92,-0.269,-0.427,0.427,0.854,255.048
14,12,0,0.064,-0.918,-0.271,-0.793,0.427,0.854,255.054
0,122,43087,0.066,-0.922,-0.273,-0.793,0.427,0.854,255.058
0,2,0,0.063,-0.924,-0.273,-0.854,0.366,0.854,255.064
7,122,43087,0.062,-0.927,-0.271,-0.854,0.366,0.854,255.067
7,11,6,0.063,-0.925,-0.279,-0.488,0.488,0.976,255.074
3,122,43087,0.06,-0.921,-0.272,-0.488,0.488,0.976,255.077
3,11,0,0.059,-0.92,-0.272,-0.244,0.488,1.22,255.084
5,122,43087,0.059,-0.923,-0.273,-0.244,0.488,1.22,255.087
5,5,0,0.059,-0.924,-0.272,-0.061,0.488,1.159,255.093
7,122,43087,0.059,-0.925,-0.269,-0.061,0.488,1.159,255.097
7,6,0,0.06,-0.924,-0.271,-0.061,0.549,0.915,255.103
6,122,43087,0.062,-0.92,-0.273,-0.061,0.549,0.915,255.107
6,7,14,0.062,-0.92,-0.271,-0.122,0.549,0.732,255.113
5,122,43087,0.059,-0.924,-0.27,-0.122,0.549,0.732,255.117
5,0,5,0.061,-0.924,-0.271,-0.061,0.793,0.549,255.123
24,122,43087,0.06,-0.925,-0.276,-0.061,0.793,0.549,255.127
24,4,1,0.058,-0.925,-0.271,-0.183,0.732,0.305,255.133
8,122,43087,0.058,-0.923,-0.268,-0.183,0.732,0.305,255.137
8,26,0,0.061,-0.921,-0.269,-0.549,0.549,0,255.143
14,122,43087,0.061,-0.923,-0.27,-0.549,0.549,0,255.147
14,10,7,0.063,-0.922,-0.271,-0.61,0.427,-0.183,255.153
1,122,43087,0.063,-0.925,-0.274,-0.61,0.427,-0.183,255.157
1,9,10,0.06,-0.925,-0.27,-0.305,0.549,0,255.163
11,122,43087,0.062,-0.923,-0.273,-0.305,0.549,0,255.166
11,0,10,0.059,-0.92,-0.273,-0.183,0.488,0.122,255.173
6,122,43087,0.059,-0.921,-0.268,-0.183,0.488,0.122,255.176
6,2,10,0.062,-0.921,-0.267,-0.305,0.427,0.061,255.182
12,122,43087,0.061,-0.922,-0.267,-0.305,0.427,0.061,255.186
12,8,2,0.062,-0.922,-0.273,-0.61,0.427,0,255.192
1,122,43087,0.064,-0.921,-0.274,-0.61,0.427,0,255.196
1,4,0,0.064,-0.921,-0.273,-0.61,0.305,-0.061,255.202
11,122,43087,0.062,-0.923,-0.271,-0.61,0.305,-0.061,255.206
11,20,8,0.058,-0.923,-0.271,-0.793,0.244,0.061,255.212
0,122,43087,0.058,-0.923,-0.271,-0.793,0.244,0.061,255.216
0,4,0,0.063,-0.923,-0.274,-1.037,0.183,0.244,255.222
5,122,43087,0.063,-0.923,-0.274,-1.037,0.183,0.244,255.226
5,7,0,0.063,-0.922,-0.276,-1.22,0.122,0,255.232
0,122,43087,0.063,-0.922,-0.276,-1.22,0.122,0,255.236
0,0,8,0.062,-0.922,-0.276,-0.793,0.366,-0.122,255.242
0,122,43087,0.062,-0.922,-0.276,-0.793,0.366,-0.122,255.246
0,5,14,0.061,-0.925,-0.272,-0.427,0.366,0.061,255.252
0,122,43087,0.061,-0.925,-0.272,-0.427,0.366,0.061,255.255
0,0,3,0.063,-0.919,-0.272,-0.244,0.488,0.183,255.262
16,122,43087,0.063,-0.919,-0.272,-0.244,0.488,0.183,255.265
16,0,3,0.064,-0.922,-0.275,0,0.549,0.305,255.272
0,122,43087,0.064,-0.922,-0.275,0,0.549,0.305,255.275
0,8,5,0.063,-0.928,-0.274,0.427,0.61,0.61,255.281
3,122,43087,0.063,-0.928,-0.274,0.427,0.61,0.61,255.285
3,0,8,0.061,-0.922,-0.271,0.61,0.732,0.61,255.291
8,122,43087,0.061,-0.922,-0.271,0.61,0.732,0.61,255.295
8,0,0,0.061,-0.923,-0.276,0.549,0.732,0.427,255.301
16,122,43087,0.061,-0.923,-0.276,0.549,0.732,0.427,255.305
16,2,9,0.059,-0.92,-0.271,0.427,0.61,0.366,255.311
17,122,43087,0.059,-0.92,-0.271,0.427,0.61,0.366,255.315
17,5,12,0.057,-0.922,-0.278,0.488,0.732,0.427,255.321
0,122,43087,0.057,-0.922,-0.278,0.488,0.732,0.427,255.325
0,15,8,0.061,-0.927,-0.275,0.793,0.854,0.427,255.331
13,122,43087,0.061,-0.927,-0.275,0.793,0.854,0.427,255.335
13,15,0,0.061,-0.925,-0.272,1.098,0.732,0.244,255.341
2,122,43087,0.061,-0.925,-0.272,1.098,0.732,0.244,255.345
2,6,15,0.063,-0.922,-0.272,1.341,0.732,0.122,255.351
9,122,43087,0.063,-0.922,-0.272,1.341,0.732,0.122,255.355
9,0,4,0.059,-0.922,-0.27,1.341,0.732,0.122,255.361
21,122,43087,0.063,-0.924,-0.268,1.22,0.732,0,255.364
21,13,13,0.066,-0.922,-0.271,1.22,0.732,0,255.371
14,122,43087,0.064,-0.922,-0.269,1.159,0.854,-0.122,255.374
14,2,19,0.065,-0.922,-0.266,1.159,0.854,-0.122,255.38
10,122,43087,0.063,-0.924,-0.268,1.098,0.976,0.183,255.384
10,1,0,0.064,-0.921,-0.267,1.098,0.976,0.183,255.39
14,122,43087,0.062,-0.921,-0.266,1.098,0.976,0.61,255.394
14,14,0,0.062,-0.922,-0.266,1.098,0.976,0.61,255.4
14,122,43087,0.06,-0.923,-0.266,0.732,0.915,0.732,255.404
14,0,3,0.057,-0.925,-0.27,0.732,0.915,0.732,255.41
0,122,43087,0.058,-0.922,-0.27,-0.061,0.854,0.549,255.414
0,18,5,0.06,-0.921,-0.272,-0.061,0.854,0.549,255.42
4,122,43087,0.063,-0.923,-0.273,-0.488,0.671,0.183,255.424
4,0,0,0.06,-0.922,-0.273,-0.488,0.671,0.183,255.43
1,122,43087,0.06,-0.924,-0.27,-0.366,0.488,0.244,255.434
1,22,4,0.059,-0.924,-0.27,-0.366,0.488,0.244,255.44
14,122,43087,0.058,-0.923,-0.27,0.122,0.549,0.488,255.444
14,1,20,0.059,-0.921,-0.267,0.122,0.549,0.488,255.45
17,122,43087,0.06,-0.926,-0.27,0.427,0.488,0.488,255.453
17,2,15,0.058,-0.926,-0.271,0.427,0.488,0.488,255.46
0,122,43087,0.061,-0.924,-0.269,0.61,0.427,0.305,255.463
0,18,4,0.061,-0.924,-0.269,0.61,0.427,0.305,255.47
0,122,43087,0.064,-0.925,-0.267,0.61,0.549,0.122,255.473
0,11,11,0.062,-0.923,-0.267,0.61,0.549,0.122,255.479
0,122,43087,0.058,-0.924,-0.268,0.427,0.488,0.061,255.483
0,8,0,0.063,-0.927,-0.267,0.427,0.488,0.061,255.489
26,122,43087,0.063,-0.924,-0.266,0.183,0.366,-0.061,255.493
26,0,6,0.058,-0.925,-0.266,0.183,0.366,-0.061,255.499
12,122,43087,0.062,-0.923,-0.267,-0.427,0.305,-0.061,255.503
12,0,9,0.063,-0.922,-0.27,-0.427,0.305,-0.061,255.509
1,122,43087,0.064,-0.924,-0.269,-0.61,0.183,-0.183,255.513
1,9,7,0.061,-0.922,-0.27,-0.61,0.183,-0.183,255.519
9,122,43087,0.058,-0.921,-0.265,-0.61,0.244,-0.061,255.523
9,2,3,0.062,-0.921,-0.267,-0.61,0.244,-0.061,255.529
10,122,43087,0.062,-0.922,-0.269,-1.098,0.244,0,255.533
10,5,8,0.064,-0.923,-0.268,-1.098,0.244,0,255.539
10,122,43087,0.061,-0.924,-0.269,-1.463,0.183,-0.061,255.543
10,1,10,0.061,-0.926,-0.271,-1.463,0.183,-0.061,255.549
5,122,43087,0.062,-0.927,-0.276,-1.22,0.183,-0.122,255.552
5,5,5,0.061,-0.925,-0.273,-1.22,0.183,-0.122,255.559
0,122,43087,0.062,-0.922,-0.267,-0.915,0.244,-0.244,255.562
0,11,3,0.062,-0.923,-0.273,-0.915,0.244,-0.244,255.569
4,122,43087,0.06,-0.922,-0.274,-0.61,0.183,-0.427,255.572
4,1,6,0.062,-0.924,-0.271,-0.61,0.183,-0.427,255.578
25,122,43087,0.062,-0.924,-0.266,-0.732,0.122,-0.61,255.582
25,0,5,0.064,-0.921,-0.265,-0.732,0.122,-0.61,255.588
0,122,43087,0.066,-0.92,-0.264,-1.098,0.061,-0.671,255.592
0,3,7,0.063,-0.92,-0.266,-1.098,0.061,-0.671,255.598
0,122,43087,0.066,-0.922,-0.269,-1.463,-0.061,-0.61,255.602
0,11,2,0.066,-0.923,-0.268,-1.463,-0.061,-0.61,255.608
8,122,43087,0.068,-0.924,-0.271,-1.463,0.061,-0.549,255.612
8,12,13,0.067,-0.928,-0.271,-1.463,0.061,-0.549,255.618
19,122,43087,0.066,-0.925,-0.272,-1.22,0.061,-0.366,255.622
19,3,5,0.065,-0.924,-0.276,-1.22,0.061,-0.366,255.628
9,122,43087,0.067,-0.924,-0.276,-1.037,0.122,-0.061,255.632
9,18,12,0.064,-0.924,-0.272,-1.037,0.122,-0.061,255.638
2,122,43087,0.066,-0.922,-0.271,-0.793,0.183,0,255.642
2,10,4,0.069,-0.92,-0.269,-0.793,0.183,0,255.648
15,122,43087,0.067,-0.919,-0.268,-0.732,0.183,0.183,255.651
15,10,0,0.063,-0.921,-0.27,-0.732,0.183,0.183,255.658
14,122,43087,0.063,-0.92,-0.273,-0.915,0.244,0.183,255.661
14,0,9,0.065,-0.924,-0.273,-0.915,0.244,0.183,255.667
19,122,43087,0.067,-0.923,-0.275,-1.037,0.366,0.305,255.671
19,14,12,0.068,-0.921,-0.275,-1.037,0.366,0.305,255.677
2,122,43087,0.062,-0.92,-0.274,-0.915,0.244,0.244,255.681
2,7,6,0.063,-0.922,-0.268,-0.915,0.244,0.244,255.687
0,122,43087,0.059,-0.922,-0.271,-0.549,0,0.244,255.691
0,10,3,0.066,-0.921,-0.275,-0.549,0,0.244,255.697
0,122,43087,0.065,-0.923,-0.271,-0.427,0.122,0.427,255.701
0,10,9,0.066,-0.925,-0.271,-0.427,0.122,0.427,255.707
2,122,43087,0.064,-0.922,-0.272,-0.427,0.183,0.488,255.711
2,0,2,0.066,-0.92,-0.27,-0.427,0.183,0.488,255.717
9,122,43087,0.066,-0.921,-0.271,-0.671,0.183,0.61,255.721
9,5,11,0.065,-0.922,-0.273,-0.671,0.183,0.61,255.727
4,122,43087,0.063,-0.925,-0.271,-0.671,0.244,0.671,255.731
4,7,4,0.062,-0.924,-0.267,-0.671,0.244,0.671,255.737
6,122,43087,0.062,-0.924,-0.269,-0.671,0.305,0.732,255.741
6,0,6,0.061,-0.924,-0.271,-0.671,0.305,0.732,255.747
0,122,43087,0.06,-0.921,-0.273,-0.915,0.183,0.61,255.75
0,0,6,0.059,-0.922,-0.271,-0.915,0.183,0.61,255.757
2,122,43087,0.062,-0.925,-0.272,-1.037,0.061,0.366,255.76
2,8,6,0.062,-0.923,-0.272,-1.037,0.061,0.366,255.766
1,122,43087,0.061,-0.922,-0.271,-1.402,0,0.122,255.77
1,4,8,0.067,-0.921,-0.271,-1.402,0,0.122,255.776
8,122,43087,0.062,-0.921,-0.272,-1.707,0,0.183,255.78
8,0,10,0.06,-0.921,-0.27,-1.707,0,0.183,255.786
9,122,43087,0.06,-0.921,-0.27,-1.707,0,0.183,255.79
9,7,9,0.064,-0.92,-0.274,-1.829,-0.122,0.183,255.796
4,122,43087,0.064,-0.92,-0.274,-1.829,-0.122,0.183,255.8
4,7,2,0.063,-0.923,-0.276,-1.89,-0.122,0.122,255.806
0,122,43087,0.063,-0.923,-0.276,-1.89,-0.122,0.122,255.81
0,7,9,0.063,-0.922,-0.277,-1.768,-0.061,0.061,255.816
14,122,43087,0.063,-0.922,-0.277,-1.768,-0.061,0.061,255.82
14,4,3,0.062,-0.921,-0.271,-1.22,0.061,0.183,255.826
0,122,43087,0.062,-0.921,-0.271,-1.22,0.061,0.183,255.83
0,10,18,0.062,-0.92,-0.273,-0.915,0,0.183,255.836
11,122,43087,0.062,-0.92,-0.273,-0.915,0,0.183,255.839
11,5,4,0.064,-0.926,-0.271,-0.915,0.061,0.122,255.846
4,122,43087,0.064,-0.926,-0.271,-0.915,0.061,0.122,255.849
4,0,0,0.062,-0.919,-0.274,-1.037,0.061,0.244,255.856
0,122,43087,0.062,-0.919,-0.274,-1.037,0.061,0.244,255.859
0,13,2,0.062,-0.921,-0.279,-1.28,0.122,0.305,255.865
0,122,43087,0.062,-0.921,-0.279,-1.28,0.122,0.305,255.869
0,3,8,0.063,-0.92,-0.276,-1.402,0.183,0.427,255.875
0,122,43087,0.063,-0.92,-0.276,-1.402,0.183,0.427,255.879
0,1,2,0.061,-0.923,-0.28,-1.28,0.183,0.366,255.885
17,122,43087,0.061,-0.923,-0.28,-1.28,0.183,0.366,255.889
17,13,4,0.061,-0.921,-0.271,-1.22,0.183,0.244,255.895
4,122,43087,0.061,-0.921,-0.271,-1.22,0.183,0.244,255.899
4,8,8,0.063,-0.92,-0.273,-1.098,0.122,0.061,255.905
20,122,43087,0.063,-0.92,-0.273,-1.098,0.122,0.061,255.909
20,0,7,0.061,-0.922,-0.276,-0.915,0.122,-0.244,255.915
7,122,43087,0.061,-0.922,-0.276,-0.915,0.122,-0.244,255.919
7,11,4,0.064,-0.921,-0.274,-0.854,0.427,-0.122,255.925
0,122,43087,0.061,-0.924,-0.275,-0.854,0.427,-0.122,255.929
0,12,13,0.062,-0.922,-0.275,-0.61,0.488,0,255.935
0,122,43087,0.062,-0.924,-0.277,-0.61,0.488,0,255.938
0,8,0,0.063,-0.922,-0.277,-0.427,0.305,-0.122,255.945
9,122,43087,0.064,-0.92,-0.275,-0.427,0.305,-0.122,255.948
9,11,13,0.066,-0.921,-0.274,-0.427,0.305,-0.244,255.955
3,122,43087,0.063,-0.92,-0.275,-0.427,0.305,-0.244,255.958
3,8,0,0.064,-0.92,-0.276,-0.427,0.366,-0.244,255.964
8,122,43087,0.061,-0.923,-0.274,-0.427,0.366,-0.244,255.968
8,0,0,0.06,-0.921,-0.277,-0.488,0.427,-0.305,255.974
2,122,43087,0.062,-0.921,-0.272,-0.488,0.427,-0.305,255.978
2,15,5,0.066,-0.919,-0.276,-0.671,0.427,-0.305,255.984
0,122,43087,0.063,-0.92,-0.276,-0.671,0.427,-0.305,255.988
0,9,3,0.062,-0.92,-0.278,-0.915,0.427,-0.366,255.994
11,122,43087,0.065,-0.919,-0.274,-0.915,0.427,-0.366,255.998
11,4,0,0.064,-0.921,-0.278,-0.976,0.488,-0.305,256.004
11,122,43087,0.066,-0.921,-0.278,-0.976,0.488,-0.305,256.008
11,0,6,0.064,-0.92,-0.276,-0.915,0.305,-0.183,256.014
0,122,43087,0.064,-0.921,-0.276,-0.915,0.305,-0.183,256.018
0,4,9,0.066,-0.921,-0.278,-0.854,0.244,-0.183,256.024
18,122,43087,0.063,-0.919,-0.277,-0.854,0.244,-0.183,256.028
18,0,12,0.067,-0.922,-0.274,-0.793,0.305,-0.061,256.034
4,122,43087,0.064,-0.921,-0.274,-0.793,0.305,-0.061,256.037
4,0,0,0.066,-0.921,-0.277,-0.366,0.427,0.061,256.044
15,122,43087,0.067,-0.923,-0.278,-0.366,0.427,0.061,256.047
15,0,1,0.064,-0.922,-0.278,-0.244,0.427,0.244,256.053
4,122,43087,0.063,-0.925,-0.275,-0.244,0.427,0.244,256.057
4,2,0,0.064,-0.92,-0.274,-0.488,0.366,0.305,256.063
16,122,43087,0.064,-0.92,-0.279,-0.488,0.366,0.305,256.067
16,11,2,0.064,-0.918,-0.278,-0.854,0.366,0.305,256.073
5,122,43087,0.064,-0.921,-0.279,-0.854,0.366,0.305,256.077
5,4,21,0.067,-0.922,-0.28,-0.915,0.366,0.305,256.083
7,122,43087,0.063,-0.922,-0.276,-0.915,0.366,0.305,256.087
7,1,0,0.062,-0.923,-0.276,-0.549,0.427,0.366,256.093
1,122,43087,0.064,-0.924,-0.276,-0.549,0.427,0.366,256.097
1,3,11,0.064,-0.922,-0.278,-0.305,0.244,0.366,256.103
