8,4,4,0.093,-0.902,-0.328,-1.037,0.244,0.244,186.144
8,122,43087,0.092,-0.903,-0.328,-1.037,0.244,0.244,186.147
8,2,10,0.095,-0.906,-0.326,-0.488,0.244,0.183,186.154
13,122,43087,0.093,-0.904,-0.329,-0.488,0.244,0.183,186.157
13,10,0,0.09,-0.901,-0.329,-0.244,0.305,0.183,186.163
12,122,43087,0.09,-0.899,-0.328,-0.244,0.305,0.183,186.167
12,0,17,0.091,-0.898,-0.325,0,0.244,0.122,186.173
14,122,43087,0.091,-0.902,-0.326,0,0.244,0.122,186.177
14,6,2,0.094,-0.904,-0.328,0.244,0.244,-0.061,186.183
0,122,43087,0.093,-0.9,-0.326,0.244,0.244,-0.061,186.187
0,14,3,0.091,-0.904,-0.325,0.488,0.366,0.061,186.193
8,122,43087,0.09,-0.902,-0.326,0.488,0.366,0.061,186.197
8,5,0,0.09,-0.905,-0.326,0.488,0.427,0.244,186.203
1,122,43087,0.091,-0.904,-0.324,0.488,0.427,0.244,186.207
1,0,0,0.09,-0.903,-0.325,0.732,0.366,0.244,186.213
5,122,43087,0.092,-0.902,-0.323,0.732,0.366,0.244,186.217
5,4,3,0.092,-0.903,-0.32,1.037,0.61,0.244,186.223
9,122,43087,0.092,-0.903,-0.32,1.037,0.61,0.244,186.227
9,5,2,0.093,-0.898,-0.325,1.098,0.793,0.366,186.233
4,122,43087,0.093,-0.898,-0.325,1.098,0.793,0.366,186.236
4,0,12,0.092,-0.902,-0.324,0.671,0.671,0.305,186.243
5,122,43087,0.092,-0.902,-0.324,0.671,0.671,0.305,186.246
5,9,1,0.091,-0.901,-0.323,0,0.61,0.366,186.252
7,122,43087,0.091,-0.901,-0.323,0,0.61,0.366,186.256
7,6,13,0.091,-0.901,-0.325,-0.305,0.61,0.61,186.262
11,122,43087,0.091,-0.901,-0.325,-0.305,0.61,0.61,186.266
11,0,0,0.094,-0.901,-0.328,0,0.61,0.854,186.272
4,122,43087,0.094,-0.901,-0.328,0,0.61,0.854,186.276
4,9,12,0.092,-0.905,-0.322,0.427,0.61,1.037,186.282
12,122,43087,0.092,-0.905,-0.322,0.427,0.61,1.037,186.286
12,18,0,0.094,-0.902,-0.324,0.671,0.549,1.159,186.292
0,122,43087,0.094,-0.902,-0.324,0.671,0.549,1.159,186.296
0,0,8,0.091,-0.904,-0.323,0.915,0.488,1.098,186.302
1,122,43087,0.091,-0.904,-0.323,0.915,0.488,1.098,186.306
1,0,7,0.092,-0.902,-0.326,1.22,0.549,1.159,186.312
7,122,43087,0.092,-0.902,-0.326,1.22,0.549,1.159,186.316
7,10,1,0.089,-0.906,-0.321,1.28,0.61,1.28,186.322
6,122,43087,0.089,-0.906,-0.321,1.28,0.61,1.28,186.326
6,7,1,0.093,-0.905,-0.318,1.402,0.549,1.159,186.332
11,122,43087,0.093,-0.905,-0.318,1.402,0.549,1.159,186.335
11,13,12,0.088,-0.901,-0.316,0.854,0.427,1.159,186.342
7,122,43087,0.088,-0.901,-0.316,0.854,0.427,1.159,186.345
7,0,8,0.089,-0.902,-0.318,0.061,0.488,1.098,186.351
6,122,43087,0.089,-0.902,-0.318,0.061,0.488,1.098,186.355
6,8,14,0.088,-0.904,-0.321,-0.549,0.427,1.037,186.361
9,122,43087,0.088,-0.904,-0.321,-0.549,0.427,1.037,186.365
9,0,9,0.092,-0.905,-0.322,-0.549,0.427,1.037,186.371
0,122,43087,0.088,-0.905,-0.321,-0.793,0.366,0.915,186.375
0,10,7,0.088,-0.901,-0.322,-0.793,0.366,0.915,186.381
12,122,43087,0.088,-0.898,-0.32,-0.915,0.305,0.793,186.385
12,9,8,0.089,-0.902,-0.32,-0.915,0.305,0.793,186.391
1,122,43087,0.086,-0.901,-0.322,-0.976,0.183,0.366,186.395
1,8,12,0.091,-0.901,-0.321,-0.976,0.183,0.366,186.401
3,122,43087,0.087,-0.903,-0.323,-0.976,0.183,0.305,186.405
3,7,0,0.086,-0.901,-0.322,-0.976,0.183,0.305,186.411
3,122,43087,0.089,-0.903,-0.325,-0.976,0.122,0.244,186.415
3,1,0,0.09,-0.903,-0.324,-0.976,0.122,0.244,186.421
0,122,43087,0.089,-0.902,-0.323,-1.037,0.122,0.122,186.425
0,15,0,0.088,-0.902,-0.32,-1.037,0.122,0.122,186.431
3,122,43087,0.088,-0.901,-0.32,-1.098,0.061,0.122,186.434
3,0,12,0.088,-0.902,-0.318,-1.098,0.061,0.122,186.441
4,122,43087,0.088,-0.904,-0.319,-1.402,0,0.183,186.444
4,1,0,0.091,-0.904,-0.323,-1.402,0,0.183,186.45
7,122,43087,0.089,-0.905,-0.325,-1.646,-0.122,0.305,186.454
7,8,10,0.091,-0.903,-0.325,-1.646,-0.122,0.305,186.46
8,122,43087,0.093,-0.903,-0.329,-1.707,0,0.366,186.464
8,13,9,0.088,-0.904,-0.327,-1.707,0,0.366,186.47
10,122,43087,0.089,-0.908,-0.326,-1.707,0,0.427,186.474
10,0,20,0.088,-0.903,-0.326,-1.707,0,0.427,186.48
15,122,43087,0.091,-0.903,-0.326,-1.707,-0.122,0.366,186.484
15,0,10,0.088,-0.902,-0.325,-1.707,-0.122,0.366,186.49
23,122,43087,0.087,-0.901,-0.325,-1.829,-0.061,0.305,186.494
23,0,10,0.086,-0.902,-0.323,-1.829,-0.061,0.305,186.5
0,122,43087,0.089,-0.905,-0.324,-1.768,0.061,0.305,186.504
0,2,15,0.089,-0.901,-0.329,-1.768,0.061,0.305,186.51
12,122,43087,0.089,-0.902,-0.327,-1.463,0.122,0.183,186.514
12,7,7,0.09,-0.901,-0.328,-1.463,0.122,0.183,186.52
0,122,43087,0.091,-0.902,-0.326,-1.402,0.061,0.122,186.523
0,0,2,0.089,-0.901,-0.33,-1.402,0.061,0.122,186.53
8,122,43087,0.087,-0.902,-0.328,-1.22,0.061,0.122,186.533
8,11,4,0.088,-0.902,-0.324,-1.22,0.061,0.122,186.54
10,122,43087,0.085,-0.903,-0.328,-1.098,0.183,0.061,186.543
10,0,19,0.089,-0.903,-0.327,-1.098,0.183,0.061,186.549
2,122,43087,0.087,-0.904,-0.326,-1.037,0.183,-0.061,186.553
2,16,0,0.087,-0.904,-0.326,-1.037,0.183,-0.061,186.559
13,122,43087,0.09,-0.901,-0.327,-1.037,0.183,-0.183,186.563
13,19,8,0.091,-0.894,-0.325,-1.037,0.183,-0.183,186.569
14,122,43087,0.089,-0.898,-0.33,-1.159,0.122,-0.183,186.573
14,6,13,0.09,-0.901,-0.332,-1.159,0.122,-0.183,186.579
0,122,43087,0.087,-0.908,-0.33,-1.037,0.305,-0.122,186.583
0,7,13,0.089,-0.906,-0.33,-1.037,0.305,-0.122,186.589
11,122,43087,0.094,-0.903,-0.326,-0.732,0.427,0,186.593
11,0,4,0.088,-0.903,-0.332,-0.732,0.427,0,186.599
0,122,43087,0.088,-0.9,-0.328,-0.549,0.305,-0.122,186.603
0,6,0,0.091,-0.9,-0.326,-0.549,0.305,-0.122,186.609
10,122,43087,0.09,-0.9,-0.327,-0.244,0.366,-0.061,186.613
10,0,12,0.088,-0.901,-0.324,-0.244,0.366,-0.061,186.619
7,122,43087,0.089,-0.902,-0.32,-0.427,0.488,0.061,186.622
7,4,7,0.092,-0.9,-0.327,-0.427,0.488,0.061,186.629
2,122,43087,0.092,-0.901,-0.325,-0.549,0.427,0,186.632
2,1,7,0.093,-0.902,-0.324,-0.549,0.427,0,186.639
4,122,43087,0.091,-0.901,-0.325,-0.427,0.427,0.122,186.642
4,15,9,0.091,-0.901,-0.326,-0.427,0.427,0.122,186.648
6,122,43087,0.087,-0.902,-0.328,-0.305,0.366,0.183,186.652
6,10,6,0.092,-0.902,-0.331,-0.305,0.366,0.183,186.658
10,122,43087,0.09,-0.901,-0.331,-0.427,0.244,0.244,186.662
10,8,0,0.09,-0.901,-0.331,-0.427,0.244,0.244,186.668
6,122,43087,0.091,-0.902,-0.327,-0.549,0.244,0.305,186.672
6,0,12,0.092,-0.902,-0.332,-0.549,0.244,0.305,186.678
3,122,43087,0.091,-0.903,-0.331,-0.244,0.366,0.183,186.682
3,6,20,0.091,-0.901,-0.329,-0.244,0.366,0.183,186.688
2,122,43087,0.089,-0.902,-0.329,0,0.427,0.183,186.692
2,5,10,0.092,-0.901,-0.329,0,0.427,0.183,186.698
12,122,43087,0.091,-0.898,-0.327,0.061,0.366,0.183,186.702
12,0,7,0.088,-0.902,-0.325,0.061,0.366,0.183,186.708
5,122,43087,0.087,-0.901,-0.328,0.183,0.488,0.183,186.712
5,0,11,0.09,-0.9,-0.324,0.183,0.488,0.183,186.718
1,122,43087,0.09,-0.901,-0.324,0.305,0.488,0.244,186.721
1,9,10,0.088,-0.9,-0.327,0.305,0.488,0.244,186.728
2,122,43087,0.09,-0.9,-0.327,0,0.427,0.244,186.731
2,9,19,0.087,-0.901,-0.327,0,0.427,0.244,186.738
9,122,43087,0.086,-0.901,-0.327,-0.122,0.488,0.305,186.741
9,0,0,0.091,-0.902,-0.323,-0.122,0.488,0.305,186.747
11,122,43087,0.095,-0.902,-0.323,-0.183,0.427,0.061,186.751
11,5,7,0.095,-0.899,-0.325,-0.183,0.427,0.061,186.757
15,122,43087,0.092,-0.9,-0.324,-0.549,0.427,-0.061,186.761
15,0,16,0.094,-0.904,-0.325,-0.549,0.427,-0.061,186.767
11,122,43087,0.091,-0.904,-0.329,-0.793,0.488,-0.061,186.771
11,0,0,0.094,-0.906,-0.33,-0.793,0.488,-0.061,186.777
6,122,43087,0.096,-0.904,-0.325,-0.671,0.488,0.122,186.781
6,6,10,0.096,-0.903,-0.326,-0.671,0.488,0.122,186.787
9,122,43087,0.094,-0.901,-0.328,-0.366,0.488,0.366,186.791
9,10,0,0.094,-0.899,-0.326,-0.366,0.488,0.366,186.797
6,122,43087,0.094,-0.899,-0.326,-0.183,0.488,0.61,186.801
6,0,1,0.092,-0.901,-0.328,-0.183,0.488,0.61,186.807
13,122,43087,0.092,-0.901,-0.328,-0.183,0.488,0.61,186.811
13,3,7,0.09,-0.904,-0.33,-0.061,0.488,0.732,186.817
3,122,43087,0.09,-0.904,-0.33,-0.061,0.488,0.732,186.82
3,17,0,0.09,-0.903,-0.334,-0.061,0.488,0.549,186.827
8,122,43087,0.09,-0.903,-0.334,-0.061,0.488,0.549,186.83
8,2,8,0.088,-0.901,-0.33,0.122,0.549,0.122,186.837
0,122,43087,0.088,-0.901,-0.33,0.122,0.549,0.122,186.84
0,8,5,0.089,-0.9,-0.331,0.366,0.549,0.183,186.846
11,122,43087,0.089,-0.9,-0.331,0.366,0.549,0.183,186.85
11,5,4,0.09,-0.901,-0.323,0.671,0.671,0.244,186.856
8,122,43087,0.09,-0.901,-0.323,0.671,0.671,0.244,186.86
8,4,0,0.09,-0.903,-0.325,0.549,0.61,0.122,186.866
8,122,43087,0.09,-0.903,-0.325,0.549,0.61,0.122,186.87
8,20,0,0.091,-0.903,-0.326,0.61,0.549,-0.122,186.876
4,122,43087,0.091,-0.903,-0.326,0.61,0.549,-0.122,186.88
4,1,7,0.091,-0.902,-0.328,0.854,0.549,-0.122,186.886
19,122,43087,0.091,-0.902,-0.328,0.854,0.549,-0.122,186.89
19,13,4,0.093,-0.901,-0.325,1.098,0.61,0,186.896
0,122,43087,0.093,-0.901,-0.325,1.098,0.61,0,186.9
0,6,0,0.088,-0.903,-0.319,1.22,0.671,0.183,186.906
6,122,43087,0.088,-0.903,-0.319,1.22,0.671,0.183,186.91
6,1,20,0.09,-0.899,-0.322,0.732,0.61,0.305,186.916
4,122,43087,0.09,-0.899,-0.322,0.732,0.61,0.305,186.919
4,4,2,0.092,-0.9,-0.321,0.122,0.427,0.366,186.926
6,122,43087,0.092,-0.9,-0.321,0.122,0.427,0.366,186.929
6,9,0,0.093,-0.901,-0.328,-0.427,0.427,0.427,186.936
0,122,43087,0.093,-0.901,-0.328,-0.427,0.427,0.427,186.939
0,0,2,0.092,-0.903,-0.328,-0.732,0.549,0.488,186.945
12,122,43087,0.09,-0.903,-0.328,-0.732,0.549,0.488,186.949
12,11,4,0.091,-0.904,-0.328,-0.793,0.488,0.732,186.955
10,122,43087,0.088,-0.904,-0.327,-0.793,0.488,0.732,186.959
10,6,16,0.09,-0.901,-0.328,-0.549,0.427,0.671,186.965
2,122,43087,0.09,-0.901,-0.327,-0.549,0.427,0.671,186.969
2,9,0,0.089,-0.904,-0.33,-0.061,0.427,0.488,186.975
10,122,43087,0.088,-0.903,-0.328,-0.061,0.427,0.488,186.979
10,8,11,0.087,-0.903,-0.326,0.183,0.488,0.244,186.985
14,122,43087,0.09,-0.9,-0.326,0.183,0.488,0.244,186.989
14,14,8,0.088,-0.898,-0.325,0.122,0.366,-0.183,186.995
7,122,43087,0.088,-0.899,-0.322,0.122,0.366,-0.183,186.999
7,11,17,0.092,-0.9,-0.323,-0.183,0.183,-0.488,187.005
3,122,43087,0.091,-0.9,-0.321,-0.183,0.183,-0.488,187.009
3,13,0,0.091,-0.9,-0.325,-0.671,0.183,-0.488,187.015
8,122,43087,0.092,-0.899,-0.328,-0.671,0.183,-0.488,187.018
8,5,0,0.094,-0.9,-0.325,-0.976,0.244,-0.488,187.025
7,122,43087,0.094,-0.904,-0.324,-0.976,0.244,-0.488,187.028
7,4,2,0.094,-0.904,-0.33,-0.915,0.244,-0.427,187.034
0,122,43087,0.092,-0.906,-0.329,-0.915,0.244,-0.427,187.038
0,17,0,0.093,-0.908,-0.325,-0.366,0.244,-0.366,187.044
9,122,43087,0.093,-0.9,-0.323,-0.366,0.244,-0.366,187.048
9,8,3,0.09,-0.9,-0.324,-0.244,0.244,-0.366,187.054
2,122,43087,0.091,-0.899,-0.321,-0.244,0.244,-0.366,187.058
2,13,32,0.093,-0.9,-0.322,-0.549,0.183,-0.488,187.064
1,122,43087,0.097,-0.899,-0.323,-0.549,0.183,-0.488,187.068
1,4,12,0.094,-0.901,-0.326,-1.037,0.183,-0.61,187.074
2,122,43087,0.097,-0.901,-0.327,-1.037,0.183,-0.61,187.078
2,5,24,0.096,-0.899,-0.327,-1.463,0.183,-0.366,187.084
14,122,43087,0.095,-0.901,-0.329,-1.463,0.183,-0.366,187.088
14,0,6,0.092,-0.902,-0.328,-1.402,0.244,0.061,187.094
14,122,43087,0.093,-0.901,-0.326,-1.402,0.244,0.061,187.098
14,0,6,0.095,-0.903,-0.329,-1.402,0.244,0.488,187.104
0,122,43087,0.093,-0.901,-0.332,-1.402,0.244,0.488,187.108
0,15,5,0.093,-0.9,-0.328,-1.28,0.305,0.793,187.114
9,122,43087,0.095,-0.903,-0.329,-1.28,0.305,0.793,187.117
9,0,6,0.096,-0.903,-0.328,-1.037,0.183,0.793,187.124
10,122,43087,0.095,-0.902,-0.332,-1.037,0.183,0.793,187.127
10,9,2,0.091,-0.905,-0.33,-0.732,0.244,0.854,187.133
13,122,43087,0.093,-0.906,-0.331,-0.732,0.244,0.854,187.137
13,18,19,0.09,-0.898,-0.326,-0.305,0.244,0.915,187.143
0,122,43087,0.09,-0.902,-0.323,-0.305,0.244,0.915,187.147
0,13,10,0.092,-0.901,-0.327,-0.061,0.366,0.854,187.153
0,122,43087,0.09,-0.898,-0.328,-0.061,0.366,0.854,187.157
0,0,26,0.09,-0.9,-0.327,-0.183,0.305,0.671,187.163
14,122,43087,0.091,-0.905,-0.33,-0.183,0.305,0.671,187.167
14,3,14,0.089,-0.904,-0.332,-0.183,0.366,0.549,187.173
0,122,43087,0.088,-0.904,-0.331,-0.183,0.366,0.549,187.177
0,0,6,0.091,-0.903,-0.332,0.122,0.488,0.549,187.183
3,122,43087,0.093,-0.9,-0.334,0.122,0.488,0.549,187.187
3,0,7,0.09,-0.9,-0.328,0.427,0.61,0.427,187.193
11,122,43087,0.09,-0.902,-0.326,0.427,0.61,0.427,187.197
11,7,2,0.095,-0.899,-0.327,0.61,0.671,0.366,187.203
3,122,43087,0.092,-0.899,-0.328,0.61,0.671,0.366,187.207
3,0,1,0.089,-0.902,-0.323,0.671,0.549,0.366,187.213
5,122,43087,0.091,-0.898,-0.323,0.671,0.549,0.366,187.216
5,11,4,0.09,-0.9,-0.328,0.366,0.488,0.366,187.223
7,122,43087,0.088,-0.901,-0.324,0.366,0.488,0.366,187.226
7,0,0,0.091,-0.899,-0.329,0.244,0.488,0.244,187.232
12,122,43087,0.089,-0.905,-0.33,0.244,0.488,0.244,187.236
12,10,0,0.093,-0.904,-0.327,0.488,0.671,0.305,187.242
9,122,43087,0.089,-0.902,-0.327,0.488,0.671,0.305,187.246
9,0,0,0.089,-0.9,-0.326,0.549,0.793,0.427,187.252
7,122,43087,0.091,-0.898,-0.329,0.549,0.793,0.427,187.256
7,7,0,0.089,-0.902,-0.325,0.488,0.671,0.427,187.262
6,122,43087,0.091,-0.902,-0.323,0.488,0.671,0.427,187.266
6,8,12,0.091,-0.901,-0.323,0.183,0.427,0.305,187.272
0,122,43087,0.09,-0.901,-0.323,0.183,0.427,0.305,187.276
0,6,16,0.093,-0.9,-0.327,-0.366,0.305,0.305,187.282
1,122,43087,0.093,-0.899,-0.328,-0.366,0.305,0.305,187.286
1,0,10,0.092,-0.9,-0.329,-0.671,0.366,0.427,187.292
1,122,43087,0.094,-0.9,-0.329,-0.671,0.366,0.427,187.296
1,0,19,0.094,-0.902,-0.324,-0.549,0.366,0.549,187.302
11,122,43087,0.092,-0.904,-0.328,-0.549,0.366,0.549,187.305
11,10,5,0.089,-0.902,-0.328,-0.366,0.305,0.549,187.312
9,122,43087,0.09,-0.9,-0.327,-0.366,0.305,0.549,187.315
9,16,0,0.091,-0.901,-0.326,-0.427,0.427,0.427,187.322
6,122,43087,0.09,-0.9,-0.326,-0.427,0.427,0.427,187.325
6,17,0,0.089,-0.901,-0.326,-0.366,0.366,0.305,187.331
19,122,43087,0.09,-0.903,-0.325,-0.366,0.366,0.305,187.335
19,0,3,0.089,-0.9,-0.328,-0.366,0.305,0.183,187.341
4,122,43087,0.089,-0.901,-0.325,-0.366,0.305,0.183,187.345
4,14,17,0.093,-0.901,-0.321,-0.549,0.305,0.061,187.351
8,122,43087,0.097,-0.897,-0.324,-0.549,0.305,0.061,187.355
8,20,0,0.093,-0.899,-0.328,-0.671,0.244,0,187.361
2,122,43087,0.095,-0.901,-0.326,-0.671,0.244,0,187.365
2,21,2,0.092,-0.9,-0.327,-0.793,0.305,0.061,187.371
2,122,43087,0.093,-0.899,-0.329,-0.793,0.305,0.061,187.375
2,4,8,0.093,-0.901,-0.328,-0.854,0.244,0,187.381
0,122,43087,0.093,-0.901,-0.328,-0.854,0.244,0,187.385
0,9,16,0.093,-0.904,-0.327,-0.732,0.244,-0.061,187.391
10,122,43087,0.093,-0.904,-0.327,-0.732,0.244,-0.061,187.395
10,14,0,0.091,-0.901,-0.326,-0.549,0.244,0,187.401
16,122,43087,0.091,-0.901,-0.326,-0.549,0.244,0,187.404
16,15,1,0.093,-0.898,-0.325,-0.671,0.183,0,187.411
7,122,43087,0.093,-0.898,-0.325,-0.671,0.183,0,187.414
7,0,0,0.095,-0.901,-0.325,-0.732,0.061,-0.061,187.421
0,122,43087,0.095,-0.901,-0.325,-0.732,0.061,-0.061,187.424
0,9,12,0.094,-0.9,-0.324,-0.854,0.183,-0.061,187.43
3,122,43087,0.094,-0.9,-0.324,-0.854,0.183,-0.061,187.434
3,20,13,0.091,-0.901,-0.33,-0.793,0.366,0.183,187.44
3,122,43087,0.091,-0.901,-0.33,-0.793,0.366,0.183,187.444
3,15,12,0.092,-0.902,-0.331,-0.305,0.305,0.366,187.45
12,122,43087,0.092,-0.902,-0.331,-0.305,0.305,0.366,187.454
12,6,0,0.095,-0.903,-0.326,0,0.366,0.488,187.46
0,122,43087,0.095,-0.903,-0.326,0,0.366,0.488,187.464
0,16,8,0.091,-0.902,-0.33,0.061,0.488,0.61,187.47
0,122,43087,0.091,-0.902,-0.33,0.061,0.488,0.61,187.474
0,14,0,0.092,-0.903,-0.326,-0.122,0.366,0.61,187.48
22,122,43087,0.092,-0.903,-0.326,-0.122,0.366,0.61,187.484
22,1,7,0.093,-0.9,-0.328,-0.122,0.244,0.549,187.49
8,122,43087,0.093,-0.9,-0.328,-0.122,0.244,0.549,187.494
8,15,18,0.093,-0.904,-0.331,0.061,0.427,0.549,187.5
0,122,43087,0.093,-0.904,-0.331,0.061,0.427,0.549,187.503
0,4,0,0.092,-0.9,-0.328,0,0.488,0.549,187.51
24,122,43087,0.092,-0.9,-0.328,0,0.488,0.549,187.513
24,3,0,0.092,-0.902,-0.326,0.305,0.488,0.61,187.519
15,122,43087,0.092,-0.902,-0.326,0.305,0.488,0.61,187.523
15,1,14,0.092,-0.905,-0.328,0.305,0.488,0.61,187.529
10,122,43087,0.092,-0.903,-0.325,0.671,0.488,0.671,187.533
10,0,0,0.092,-0.901,-0.324,0.671,0.488,0.671,187.539
11,122,43087,0.088,-0.901,-0.327,0.732,0.61,0.793,187.543
11,10,10,0.091,-0.901,-0.328,0.732,0.61,0.793,187.549
6,122,43087,0.093,-0.902,-0.326,0.793,0.549,0.854,187.553
6,0,5,0.09,-0.903,-0.327,0.793,0.549,0.854,187.559
3,122,43087,0.091,-0.903,-0.327,0.915,0.61,0.793,187.563
3,18,7,0.09,-0.9,-0.326,0.915,0.61,0.793,187.569
1,122,43087,0.088,-0.898,-0.327,0.61,0.61,0.854,187.573
1,3,3,0.086,-0.902,-0.325,0.61,0.61,0.854,187.579
16,122,43087,0.091,-0.903,-0.329,0.549,0.549,0.732,187.583
16,4,0,0.091,-0.9,-0.326,0.549,0.549,0.732,187.589
9,122,43087,0.089,-0.902,-0.326,0.732,0.671,0.549,187.593
9,19,0,0.087,-0.905,-0.328,0.732,0.671,0.549,187.599
0,122,43087,0.086,-0.902,-0.327,0.793,0.854,0.61,187.602
0,12,9,0.086,-0.902,-0.33,0.793,0.854,0.61,187.609
6,122,43087,0.086,-0.902,-0.325,0.793,0.793,0.549,187.612
6,10,8,0.086,-0.9,-0.325,0.793,0.793,0.549,187.618
0,122,43087,0.091,-0.902,-0.325,0.854,0.671,0.244,187.622
0,8,0,0.093,-0.903,-0.323,0.854,0.671,0.244,187.628
5,122,43087,0.093,-0.903,-0.324,0.671,0.732,-0.183,187.632
5,0,9,0.093,-0.9,-0.322,0.671,0.732,-0.183,187.638
13,122,43087,0.096,-0.9,-0.327,0.244,0.732,-0.305,187.642
13,15,0,0.095,-0.901,-0.328,0.244,0.732,-0.305,187.648
14,122,43087,0.096,-0.903,-0.326,0.183,0.732,-0.061,187.652
14,11,13,0.096,-0.901,-0.325,0.183,0.732,-0.061,187.658
0,122,43087,0.096,-0.902,-0.322,0.488,0.976,0.305,187.662
0,3,1,0.094,-0.901,-0.323,0.488,0.976,0.305,187.668
0,122,43087,0.092,-0.897,-0.322,0.61,1.098,0.854,187.672
0,11,8,0.095,-0.899,-0.328,0.61,1.098,0.854,187.678
6,122,43087,0.091,-0.903,-0.33,0.366,0.793,0.854,187.682
6,0,0,0.09,-0.905,-0.327,0.366,0.793,0.854,187.688
0,122,43087,0.091,-0.903,-0.329,0.488,0.732,0.732,187.692
0,10,4,0.092,-0.901,-0.331,0.488,0.732,0.732,187.698
17,122,43087,0.092,-0.901,-0.329,0.549,0.671,0.427,187.701
17,16,8,0.094,-0.902,-0.324,0.549,0.671,0.427,187.708
0,122,43087,0.089,-0.899,-0.321,0.793,0.488,0.549,187.711
0,3,14,0.089,-0.902,-0.325,0.793,0.488,0.549,187.717
6,122,43087,0.089,-0.898,-0.327,0.671,0.366,0.671,187.721
6,0,6,0.09,-0.899,-0.325,0.671,0.366,0.671,187.727
2,122,43087,0.09,-0.901,-0.321,0.305,0.244,0.488,187.731
2,0,2,0.093,-0.903,-0.323,0.305,0.244,0.488,187.737
8,122,43087,0.096,-0.899,-0.323,0.366,0.305,0.061,187.741
8,9,0,0.093,-0.901,-0.328,0.366,0.305,0.061,187.747
8,122,43087,0.091,-0.906,-0.324,0.671,0.549,0,187.751
8,5,12,0.088,-0.905,-0.324,0.671,0.549,0,187.757
12,122,43087,0.09,-0.906,-0.325,0.915,0.488,0.183,187.761
12,7,14,0.088,-0.9,-0.319,0.915,0.488,0.183,187.767
0,122,43087,0.087,-0.899,-0.317,0.549,0.488,-0.061,187.771
0,8,3,0.089,-0.899,-0.314,0.549,0.488,-0.061,187.777
11,122,43087,0.094,-0.9,-0.321,-0.122,0.244,-0.366,187.781
11,0,0,0.093,-0.899,-0.32,-0.122,0.244,-0.366,187.787
10,122,43087,0.094,-0.898,-0.315,-1.098,0.183,-0.488,187.79
10,10,15,0.094,-0.899,-0.325,-1.098,0.183,-0.488,187.797
13,122,43087,0.093,-0.9,-0.328,-1.768,0.305,-0.244,187.8
13,0,13,0.092,-0.902,-0.324,-1.768,0.305,-0.244,187.807
6,122,43087,0.092,-0.902,-0.328,-1.707,0.305,0.061,187.81
6,0,13,0.092,-0.904,-0.332,-1.707,0.305,0.061,187.816
11,122,43087,0.092,-0.906,-0.325,-0.976,0.122,0.244,187.82
11,2,15,0.091,-0.899,-0.327,-0.976,0.122,0.244,187.826
5,122,43087,0.094,-0.902,-0.322,-0.61,0.183,0.427,187.83
5,0,7,0.094,-0.898,-0.325,-0.61,0.183,0.427,187.836
6,122,43087,0.094,-0.899,-0.329,-0.732,0.183,0.305,187.84
6,17,0,0.095,-0.902,-0.324,-0.732,0.183,0.305,187.846
8,122,43087,0.095,-0.905,-0.326,-0.793,0.305,0.305,187.85
8,9,2,0.092,-0.903,-0.327,-0.793,0.305,0.305,187.856
10,122,43087,0.095,-0.901,-0.327,-1.037,0.244,0.305,187.86
10,17,3,0.096,-0.903,-0.33,-1.037,0.244,0.305,187.866
2,122,43087,0.096,-0.905,-0.329,-0.854,0.244,0.427,187.87
2,6,9,0.091,-0.904,-0.329,-0.854,0.244,0.427,187.876
0,122,43087,0.092,-0.902,-0.328,-0.549,0.244,0.488,187.88
0,0,0,0.096,-0.9,-0.326,-0.549,0.244,0.488,187.886
4,122,43087,0.092,-0.902,-0.325,-0.427,0.183,0.61,187.889
4,6,0,0.094,-0.904,-0.323,-0.427,0.183,0.61,187.896
8,122,43087,0.093,-0.902,-0.329,-0.122,0.183,0.61,187.899
8,4,9,0.093,-0.898,-0.331,-0.122,0.183,0.61,187.906
0,122,43087,0.094,-0.902,-0.324,-0.122,0.305,0.61,187.909
0,13,0,0.095,-0.903,-0.326,-0.122,0.305,0.61,187.915
10,122,43087,0.094,-0.903,-0.327,0.244,0.427,0.671,187.919
10,3,7,0.091,-0.904,-0.326,0.244,0.427,0.671,187.925
0,122,43087,0.094,-0.906,-0.322,0.854,0.61,0.854,187.929
0,12,0,0.091,-0.902,-0.321,0.854,0.61,0.854,187.935
21,122,43087,0.091,-0.898,-0.323,0.854,0.671,0.854,187.939
21,0,0,0.093,-0.901,-0.325,0.854,0.671,0.854,187.945
0,122,43087,0.091,-0.902,-0.321,0.61,0.61,0.671,187.949
0,7,24,0.094,-0.901,-0.324,0.61,0.61,0.671,187.955
5,122,43087,0.094,-0.901,-0.324,0.61,0.61,0.671,187.959
5,8,0,0.091,-0.902,-0.325,0.366,0.488,0.793,187.965
2,122,43087,0.091,-0.902,-0.325,0.366,0.488,0.793,187.969
2,0,0,0.091,-0.902,-0.327,0,0.549,0.915,187.975
11,122,43087,0.091,-0.902,-0.327,0,0.549,0.915,187.979
11,5,12,0.092,-0.9,-0.324,0.061,0.488,1.037,187.985
5,122,43087,0.092,-0.9,-0.324,0.061,0.488,1.037,187.988
5,0,0,0.091,-0.905,-0.325,0.244,0.427,1.22,187.995
7,122,43087,0.091,-0.905,-0.325,0.244,0.427,1.22,187.998
7,0,9,0.09,-0.905,-0.324,0.305,0.366,1.22,188.004
2,122,43087,0.09,-0.905,-0.324,0.305,0.366,1.22,188.008
2,6,15,0.087,-0.9,-0.323,0.305,0.427,1.28,188.014
0,122,43087,0.087,-0.9,-0.323,0.305,0.427,1.28,188.018
0,14,4,0.089,-0.901,-0.322,0.366,0.427,1.402,188.024
2,122,43087,0.089,-0.901,-0.322,0.366,0.427,1.402,188.028
2,18,0,0.091,-0.899,-0.321,0.305,0.244,1.22,188.034
4,122,43087,0.091,-0.899,-0.321,0.305,0.244,1.22,188.038
4,0,0,0.09,-0.903,-0.321,-0.244,0.244,0.915,188.044
12,122,43087,0.09,-0.903,-0.321,-0.244,0.244,0.915,188.048
12,15,9,0.086,-0.903,-0.327,-0.732,0.244,0.793,188.054
5,122,43087,0.086,-0.903,-0.327,-0.732,0.244,0.793,188.058
5,6,2,0.089,-0.902,-0.326,-0.854,0.122,0.793,188.064
17,122,43087,0.089,-0.902,-0.326,-0.854,0.122,0.793,188.068
17,0,0,0.084,-0.902,-0.328,-1.037,0.122,0.671,188.074
18,122,43087,0.084,-0.902,-0.328,-1.037,0.122,0.671,188.078
18,0,19,0.088,-0.902,-0.324,-1.098,0.061,0.366,188.084
4,122,43087,0.088,-0.902,-0.324,-1.098,0.061,0.366,188.087
4,7,2,0.09,-0.901,-0.325,-1.28,-0.061,0,188.094
10,122,43087,0.09,-0.901,-0.325,-1.28,-0.061,0,188.097
10,16,0,0.09,-0.903,-0.325,-1.159,0,-0.244,188.103
2,122,43087,0.089,-0.9,-0.327,-1.159,0,-0.244,188.107
2,0,0,0.088,-0.902,-0.324,-1.098,0.061,-0.305,188.113
10,122,43087,0.089,-0.9,-0.32,-1.098,0.061,-0.305,188.117
10,3,0,0.088,-0.899,-0.323,-1.28,0,-0.427,188.123
6,122,43087,0.09,-0.899,-0.325,-1.28,0,-0.427,188.127
6,24,11,0.092,-0.901,-0.32,-1.585,-0.122,-0.61,188.133
17,122,43087,0.094,-0.901,-0.32,-1.585,-0.122,-0.61,188.137
17,7,4,0.092,-0.899,-0.324,-2.073,-0.183,-0.671,188.143
1,122,43087,0.091,-0.902,-0.321,-2.073,-0.183,-0.671,188.147
1,14,4,0.093,-0.901,-0.324,-2.378,-0.305,-0.427,188.153
12,122,43087,0.089,-0.902,-0.325,-2.378,-0.305,-0.427,188.157
12,0,20,0.093,-0.905,-0.329,-2.439,-0.305,-0.183,188.163
0,122,43087,0.094,-0.901,-0.324,-2.439,-0.305,-0.183,188.167
0,3,12,0.094,-0.901,-0.324,-2.378,-0.427,0.061,188.173
2,122,43087,0.092,-0.898,-0.327,-2.378,-0.427,0.061,188.177
2,3,6,0.093,-0.899,-0.331,-2.5,-0.305,0.305,188.183
9,122,43087,0.096,-0.899,-0.33,-2.5,-0.305,0.305,188.186
9,20,0,0.094,-0.902,-0.33,-2.378,-0.244,0.61,188.193
3,122,43087,0.093,-0.905,-0.332,-2.378,-0.244,0.61,188.196
3,9,4,0.091,-0.903,-0.332,-1.951,-0.183,0.854,188.202
10,122,43087,0.09,-0.902,-0.33,-1.951,-0.183,0.854,188.206
10,8,8,0.088,-0.9,-0.332,-1.585,-0.061,0.854,188.212
7,122,43087,0.089,-0.898,-0.33,-1.585,-0.061,0.854,188.216
7,0,8,0.089,-0.9,-0.326,-1.28,0.061,0.732,188.222
1,122,43087,0.092,-0.902,-0.329,-1.28,0.061,0.732,188.226
1,0,0,0.09,-0.9,-0.328,-1.22,0.122,0.671,188.232
11,122,43087,0.092,-0.9,-0.331,-1.22,0.122,0.671,188.236
11,0,1,0.091,-0.902,-0.333,-1.28,0.183,0.61,188.242
11,122,43087,0.091,-0.903,-0.333,-1.28,0.183,0.61,188.246
11,5,0,0.09,-0.901,-0.335,-0.976,0.244,0.61,188.252
3,122,43087,0.09,-0.901,-0.332,-0.976,0.244,0.61,188.256
3,1,12,0.091,-0.903,-0.331,-0.366,0.305,0.671,188.262
2,122,43087,0.09,-0.901,-0.331,-0.366,0.305,0.671,188.266
2,1,5,0.089,-0.901,-0.328,0.122,0.305,0.61,188.272
0,122,43087,0.09,-0.901,-0.327,0.122,0.305,0.61,188.275
0,8,0,0.091,-0.9,-0.331,0.305,0.427,0.732,188.282
16,122,43087,0.092,-0.902,-0.331,0.305,0.427,0.732,188.285
16,14,2,0.087,-0.902,-0.331,0.488,0.488,0.732,188.292
0,122,43087,0.089,-0.902,-0.328,0.488,0.488,0.732,188.295
0,16,0,0.091,-0.902,-0.326,0.488,0.61,0.793,188.301
0,122,43087,0.092,-0.899,-0.329,0.488,0.61,0.793,188.305
0,16,1,0.089,-0.894,-0.33,0.366,0.549,0.61,188.311
17,122,43087,0.09,-0.899,-0.331,0.366,0.549,0.61,188.315
17,8,1,0.091,-0.902,-0.33,0.488,0.671,0.61,188.321
7,122,43087,0.092,-0.903,-0.331,0.488,0.671,0.61,188.325
7,13,5,0.092,-0.904,-0.328,0.61,0.549,0.549,188.331
3,122,43087,0.091,-0.903,-0.326,0.61,0.549,0.549,188.335
3,4,14,0.09,-0.897,-0.325,0.549,0.488,0.549,188.341
9,122,43087,0.09,-0.897,-0.329,0.549,0.488,0.549,188.345
9,0,0,0.09,-0.901,-0.325,0.183,0.305,0.488,188.351
17,122,43087,0.088,-0.902,-0.326,0.183,0.305,0.488,188.355
17,11,5,0.089,-0.901,-0.328,0.061,0.305,0.366,188.361
28,122,43087,0.09,-0.9,-0.331,0.061,0.305,0.366,188.365
28,1,8,0.092,-0.898,-0.33,-0.183,0.305,0.305,188.371
2,122,43087,0.091,-0.897,-0.332,-0.183,0.305,0.305,188.374
2,17,13,0.09,-0.902,-0.333,0,0.305,0.488,188.381
10,122,43087,0.089,-0.906,-0.325,0,0.305,0.488,188.384
10,3,0,0.088,-0.903,-0.328,0.244,0.305,0.549,188.391
4,122,43087,0.092,-0.902,-0.328,0.244,0.305,0.549,188.394
4,0,17,0.093,-0.9,-0.328,0.244,0.183,0.366,188.4
19,122,43087,0.091,-0.9,-0.324,0.244,0.183,0.366,188.404
19,0,16,0.091,-0.902,-0.324,0,0.061,0.183,188.41
10,122,43087,0.091,-0.901,-0.328,0,0.061,0.183,188.414
10,7,0,0.09,-0.901,-0.327,-0.427,0,0.122,188.42
19,122,43087,0.093,-0.901,-0.328,-0.427,0,0.122,188.424
19,10,9,0.091,-0.903,-0.332,-0.61,0,0.183,188.43
16,122,43087,0.092,-0.901,-0.329,-0.61,0,0.183,188.434
16,17,21,0.092,-0.902,-0.326,-0.488,0,0.244,188.44
0,122,43087,0.089,-0.899,-0.324,-0.488,0,0.244,188.444
0,0,13,0.086,-0.898,-0.328,-0.976,-0.061,0.183,188.45
8,122,43087,0.086,-0.896,-0.325,-0.976,-0.061,0.183,188.454
8,10,3,0.085,-0.898,-0.321,-1.341,-0.183,0.244,188.46
3,122,43087,0.091,-0.899,-0.327,-1.341,-0.183,0.244,188.464
3,9,4,0.09,-0.903,-0.328,-1.402,-0.183,0.061,188.47
4,122,43087,0.089,-0.902,-0.327,-1.402,-0.183,0.061,188.473
4,13,0,0.093,-0.901,-0.33,-1.463,-0.183,-0.244,188.48
9,122,43087,0.09,-0.901,-0.328,-1.463,-0.183,-0.244,188.483
9,0,2,0.091,-0.901,-0.329,-1.768,-0.061,-0.183,188.489
17,122,43087,0.092,-0.898,-0.327,-1.768,-0.061,-0.183,188.493
17,7,1,0.092,-0.903,-0.33,-1.89,-0.122,0,188.499
0,122,43087,0.094,-0.901,-0.331,-1.89,-0.122,0,188.503
0,4,7,0.094,-0.901,-0.328,-1.951,-0.183,0.122,188.509
18,122,43087,0.095,-0.901,-0.327,-1.951,-0.183,0.122,188.513
18,22,22,0.092,-0.896,-0.331,-1.829,-0.122,0.122,188.519
0,122,43087,0.09,-0.898,-0.327,-1.829,-0.122,0.122,188.523
0,0,25,0.092,-0.899,-0.334,-2.073,-0.183,0.122,188.529
0,122,43087,0.092,-0.899,-0.334,-2.073,-0.183,0.122,188.533
0,13,0,0.09,-0.902,-0.335,-2.256,-0.122,0,188.539
14,122,43087,0.09,-0.902,-0.335,-2.256,-0.122,0,188.543
14,11,13,0.091,-0.905,-0.334,-1.829,-0.061,-0.061,188.549
14,122,43087,0.091,-0.905,-0.334,-1.829,-0.061,-0.061,188.553
14,2,0,0.086,-0.899,-0.335,-1.28,-0.122,-0.122,188.559
14,122,43087,0.086,-0.899,-0.335,-1.28,-0.122,-0.122,188.563
14,3,17,0.088,-0.9,-0.332,-0.854,-0.183,-0.244,188.569
0,122,43087,0.088,-0.9,-0.332,-0.854,-0.183,-0.244,188.572
0,6,5,0.09,-0.9,-0.332,-0.61,-0.122,-0.61,188.579
4,122,43087,0.09,-0.9,-0.332,-0.61,-0.122,-0.61,188.582
4,5,12,0.094,-0.897,-0.329,-0.305,0.061,-0.976,188.589
4,122,43087,0.094,-0.897,-0.329,-0.305,0.061,-0.976,188.592
4,9,10,0.095,-0.9,-0.33,0.061,0.122,-0.732,188.598
0,122,43087,0.095,-0.9,-0.33,0.061,0.122,-0.732,188.602
0,0,3,0.092,-0.897,-0.329,0.244,0.183,-0.305,188.608
19,122,43087,0.092,-0.897,-0.329,0.244,0.183,-0.305,188.612
19,3,13,0.092,-0.901,-0.327,0.427,0.244,0.122,188.618
19,122,43087,0.092,-0.901,-0.327,0.427,0.244,0.122,188.622
19,7,1,0.092,-0.895,-0.328,-0.122,0.305,0.488,188.628
2,122,43087,0.092,-0.895,-0.328,-0.122,0.305,0.488,188.632
2,0,0,0.095,-0.897,-0.333,-0.976,0.244,0.671,188.638
0,122,43087,0.095,-0.897,-0.333,-0.976,0.244,0.671,188.642
0,13,6,0.092,-0.897,-0.335,-1.402,0.122,0.976,188.648
0,122,43087,0.092,-0.897,-0.335,-1.402,0.122,0.976,188.652
0,9,13,0.09,-0.902,-0.337,-1.28,0.305,1.341,188.658
18,122,43087,0.09,-0.902,-0.337,-1.28,0.305,1.341,188.662
18,0,13,0.091,-0.899,-0.334,-0.671,0.549,1.524,188.668
0,122,43087,0.091,-0.899,-0.334,-0.671,0.549,1.524,188.671
0,9,8,0.09,-0.901,-0.335,-0.671,0.549,1.524,188.678
0,122,43087,0.088,-0.901,-0.334,0.183,0.549,1.646,188.681
0,0,3,0.089,-0.901,-0.329,0.183,0.549,1.646,188.687
16,122,43087,0.087,-0.897,-0.334,0.488,0.549,1.585,188.691
16,3,3,0.087,-0.901,-0.332,0.488,0.549,1.585,188.697
12,122,43087,0.087,-0.903,-0.329,0.61,0.61,1.159,188.701
12,16,0,0.085,-0.898,-0.328,0.61,0.61,1.159,188.707
16,122,43087,0.09,-0.898,-0.331,0.671,0.61,0.732,188.711
16,5,0,0.087,-0.898,-0.331,0.671,0.61,0.732,188.717
7,122,43087,0.088,-0.897,-0.329,0.549,0.671,0.488,188.721
7,13,9,0.088,-0.901,-0.329,0.549,0.671,0.488,188.727
23,122,43087,0.087,-0.901,-0.331,0.488,0.732,0.427,188.731
23,21,14,0.089,-0.899,-0.328,0.488,0.732,0.427,188.737
14,122,43087,0.088,-0.896,-0.329,0.488,0.732,0.427,188.741
14,0,6,0.089,-0.897,-0.326,0.488,0.732,0.427,188.747
16,122,43087,0.092,-0.898,-0.329,0,0.732,0.305,188.751
16,0,5,0.09,-0.898,-0.332,0,0.732,0.305,188.757
15,122,43087,0.092,-0.899,-0.332,-0.366,0.61,0.183,188.76
15,6,0,0.092,-0.901,-0.331,-0.366,0.61,0.183,188.767
3,122,43087,0.091,-0.903,-0.333,-0.122,0.854,0.366,188.77
3,12,0,0.092,-0.901,-0.333,-0.122,0.854,0.366,188.777
6,122,43087,0.088,-0.899,-0.331,0.061,0.976,0.488,188.78
6,6,13,0.089,-0.899,-0.329,0.061,0.976,0.488,188.786
4,122,43087,0.09,-0.896,-0.331,0.061,0.976,0.305,188.79
4,11,2,0.088,-0.9,-0.333,0.061,0.976,0.305,188.796
11,122,43087,0.092,-0.904,-0.334,-0.366,0.854,0.244,188.8
11,9,13,0.091,-0.903,-0.337,-0.366,0.854,0.244,188.806
16,122,43087,0.09,-0.901,-0.331,-0.366,0.793,0.305,188.81
16,6,8,0.091,-0.903,-0.33,-0.366,0.793,0.305,188.816
1,122,43087,0.092,-0.902,-0.329,-0.122,0.732,0.366,188.82
1,12,0,0.092,-0.899,-0.33,-0.122,0.732,0.366,188.826
22,122,43087,0.09,-0.897,-0.33,-0.305,0.427,0.366,188.83
22,2,12,0.091,-0.9,-0.331,-0.305,0.427,0.366,188.836
12,122,43087,0.094,-0.902,-0.335,-0.671,0.244,0.366,188.84
12,11,0,0.091,-0.903,-0.336,-0.671,0.244,0.366,188.846
21,122,43087,0.089,-0.904,-0.333,-0.427,0.122,0.305,188.85
21,0,12,0.089,-0.904,-0.337,-0.427,0.122,0.305,188.856
18,122,43087,0.087,-0.903,-0.331,0.061,0.183,0.305,188.859
18,13,5,0.089,-0.901,-0.33,0.061,0.183,0.305,188.866
11,122,43087,0.088,-0.901,-0.331,0.244,0.244,0.061,188.869
11,5,6,0.09,-0.896,-0.328,0.244,0.244,0.061,188.876
8,122,43087,0.089,-0.895,-0.326,-0.244,0.183,-0.183,188.879
8,5,2,0.09,-0.896,-0.326,-0.244,0.183,-0.183,188.885
3,122,43087,0.091,-0.897,-0.329,-0.793,0.244,-0.366,188.889
3,3,2,0.093,-0.898,-0.333,-0.793,0.244,-0.366,188.895
4,122,43087,0.092,-0.899,-0.334,-1.098,0.122,-0.366,188.899
4,12,12,0.095,-0.899,-0.334,-1.098,0.122,-0.366,188.905
13,122,43087,0.091,-0.901,-0.331,-1.159,0.183,-0.244,188.909
13,0,14,0.091,-0.899,-0.331,-1.159,0.183,-0.244,188.915
10,122,43087,0.091,-0.902,-0.333,-1.098,0.305,-0.122,188.919
10,0,6,0.091,-0.902,-0.33,-1.098,0.305,-0.122,188.925
0,122,43087,0.091,-0.9,-0.33,-0.976,0.244,-0.061,188.929
0,10,0,0.091,-0.9,-0.332,-0.976,0.244,-0.061,188.935
6,122,43087,0.09,-0.896,-0.332,-0.915,0.183,-0.305,188.939
6,6,8,0.094,-0.894,-0.33,-0.915,0.183,-0.305,188.945
23,122,43087,0.093,-0.896,-0.33,-0.915,0.183,-0.244,188.949
23,0,11,0.092,-0.897,-0.332,-0.915,0.183,-0.244,188.955
15,122,43087,0.092,-0.9,-0.335,-0.915,0.366,-0.061,188.958
15,7,0,0.091,-0.899,-0.337,-0.915,0.366,-0.061,188.965
19,122,43087,0.093,-0.901,-0.337,-0.366,0.488,0.061,188.968
19,0,20,0.091,-0.904,-0.333,-0.366,0.488,0.061,188.975
10,122,43087,0.093,-0.901,-0.336,-0.183,0.488,0.366,188.978
10,18,0,0.092,-0.899,-0.333,-0.183,0.488,0.366,188.984
14,122,43087,0.089,-0.898,-0.336,-0.061,0.366,0.427,188.988
14,6,0,0.091,-0.9,-0.336,-0.061,0.366,0.427,188.994
6,122,43087,0.091,-0.9,-0.334,-0.122,0.366,0.305,188.998
6,0,3,0.093,-0.901,-0.336,-0.122,0.366,0.305,189.004
4,122,43087,0.089,-0.902,-0.334,0.061,0.549,0.366,189.008
4,4,8,0.089,-0.901,-0.334,0.061,0.549,0.366,189.014
28,122,43087,0.09,-0.902,-0.336,0.427,0.549,0.366,189.018
28,5,0,0.091,-0.898,-0.334,0.427,0.549,0.366,189.024
0,122,43087,0.092,-0.9,-0.333,0.61,0.366,0.244,189.028
0,10,0,0.09,-0.9,-0.334,0.61,0.366,0.244,189.034
0,122,43087,0.092,-0.898,-0.334,0.671,0.549,-0.061,189.038
0,2,0,0.089,-0.902,-0.335,0.671,0.549,-0.061,189.044
0,122,43087,0.091,-0.899,-0.333,1.037,0.671,-0.122,189.048
0,0,0,0.091,-0.899,-0.331,1.037,0.671,-0.122,189.054
5,122,43087,0.092,-0.902,-0.332,1.463,0.854,-0.122,189.057
5,9,8,0.092,-0.898,-0.327,1.463,0.854,-0.122,189.064
7,122,43087,0.092,-0.896,-0.323,1.341,0.793,-0.122,189.067
7,11,2,0.092,-0.898,-0.33,1.341,0.793,-0.122,189.074
14,122,43087,0.093,-0.9,-0.331,1.098,0.732,-0.122,189.077
14,8,21,0.094,-0.901,-0.326,1.098,0.732,-0.122,189.083
0,122,43087,0.091,-0.9,-0.329,1.037,0.854,0.061,189.087
0,0,9,0.092,-0.901,-0.329,1.037,0.854,0.061,189.093
0,122,43087,0.092,-0.9,-0.327,1.159,0.976,0.305,189.097
0,17,3,0.09,-0.901,-0.327,1.159,0.976,0.305,189.103
13,122,43087,0.091,-0.897,-0.327,1.159,0.793,0.427,189.107
13,0,13,0.093,-0.901,-0.326,1.159,0.793,0.427,189.113
12,122,43087,0.093,-0.901,-0.326,1.159,0.793,0.427,189.117
12,1,6,0.094,-0.896,-0.328,0.915,0.732,0.427,189.123
7,122,43087,0.094,-0.896,-0.328,0.915,0.732,0.427,189.127
7,4,0,0.09,-0.897,-0.327,0.427,0.732,0.427,189.133
18,122,43087,0.09,-0.897,-0.327,0.427,0.732,0.427,189.137
18,20,3,0.093,-0.9,-0.332,0.305,0.671,0.488,189.143
9,122,43087,0.093,-0.9,-0.332,0.305,0.671,0.488,189.147
9,5,14,0.09,-0.901,-0.334,0.366,0.488,0.549,189.153
11,122,43087,0.09,-0.901,-0.334,0.366,0.488,0.549,189.156
11,22,0,0.087,-0.901,-0.328,0.488,0.549,0.549,189.163
9,122,43087,0.087,-0.901,-0.328,0.488,0.549,0.549,189.166
9,4,16,0.094,-0.899,-0.326,0.61,0.549,0.488,189.173
19,122,43087,0.094,-0.899,-0.326,0.61,0.549,0.488,189.176
19,14,0,0.094,-0.899,-0.327,0.305,0.488,0.244,189.182
0,122,43087,0.094,-0.899,-0.327,0.305,0.488,0.244,189.186
0,9,7,0.093,-0.901,-0.329,0.061,0.488,0.305,189.192
9,122,43087,0.093,-0.901,-0.329,0.061,0.488,0.305,189.196
9,0,14,0.09,-0.9,-0.326,-0.183,0.549,0.427,189.202
0,122,43087,0.09,-0.9,-0.326,-0.183,0.549,0.427,189.206
0,4,13,0.092,-0.902,-0.329,-0.549,0.366,0.305,189.212
19,122,43087,0.092,-0.902,-0.329,-0.549,0.366,0.305,189.216
19,0,19,0.092,-0.899,-0.33,-1.037,0.183,0.122,189.222
8,122,43087,0.092,-0.899,-0.33,-1.037,0.183,0.122,189.226
8,0,5,0.092,-0.901,-0.329,-1.341,0.183,0.305,189.232
8,122,43087,0.092,-0.901,-0.329,-1.341,0.183,0.305,189.236
8,0,20,0.09,-0.898,-0.332,-1.341,0.122,0.366,189.242
6,122,43087,0.09,-0.898,-0.332,-1.341,0.122,0.366,189.245
6,9,0,0.09,-0.899,-0.332,-1.402,0.061,0.366,189.252
19,122,43087,0.089,-0.901,-0.336,-1.402,0.061,0.366,189.255
19,1,4,0.092,-0.901,-0.331,-0.915,0.122,0.183,189.262
4,122,43087,0.09,-0.9,-0.333,-0.915,0.122,0.183,189.265
4,14,6,0.093,-0.899,-0.33,-0.549,0.244,0.122,189.271
19,122,43087,0.089,-0.898,-0.329,-0.549,0.244,0.122,189.275
19,3,15,0.089,-0.901,-0.331,-0.366,0.244,0.183,189.281
0,122,43087,0.092,-0.898,-0.33,-0.366,0.244,0.183,189.285
0,13,1,0.092,-0.9,-0.328,-0.305,0.183,0.183,189.291
0,122,43087,0.09,-0.899,-0.326,-0.305,0.183,0.183,189.295
0,0,0,0.095,-0.899,-0.329,-0.122,0.305,-0.061,189.301
2,122,43087,0.096,-0.899,-0.325,-0.122,0.305,-0.061,189.305
2,15,17,0.096,-0.896,-0.327,-0.366,0.366,-0.244,189.311
21,122,43087,0.097,-0.896,-0.332,-0.366,0.366,-0.244,189.315
21,3,0,0.098,-0.898,-0.327,-0.854,0.305,0.122,189.321
2,122,43087,0.095,-0.9,-0.328,-0.854,0.305,0.122,189.325
2,6,12,0.094,-0.902,-0.329,-0.854,0.427,0.427,189.331
24,122,43087,0.094,-0.9,-0.329,-0.854,0.427,0.427,189.335
24,15,18,0.092,-0.897,-0.331,-0.854,0.61,0.793,189.341
20,122,43087,0.092,-0.901,-0.336,-0.854,0.61,0.793,189.344
20,0,9,0.091,-0.902,-0.333,-0.854,0.549,0.915,189.351
0,122,43087,0.092,-0.898,-0.333,-0.854,0.549,0.915,189.354
0,13,0,0.093,-0.898,-0.34,-0.793,0.488,0.671,189.361
18,122,43087,0.092,-0.9,-0.338,-0.793,0.488,0.671,189.364
18,6,19,0.091,-0.903,-0.337,-0.305,0.366,0.427,189.37
15,122,43087,0.093,-0.904,-0.339,-0.305,0.366,0.427,189.374
15,5,19,0.091,-0.903,-0.336,0.671,0.549,0.488,189.38
15,122,43087,0.089,-0.904,-0.335,0.671,0.549,0.488,189.384
15,14,2,0.087,-0.902,-0.327,1.402,0.549,0.671,189.39
0,122,43087,0.092,-0.901,-0.327,1.402,0.549,0.671,189.394
0,0,0,0.088,-0.901,-0.331,1.585,0.427,0.549,189.4
0,122,43087,0.091,-0.897,-0.324,1.585,0.427,0.549,189.404
0,3,0,0.092,-0.899,-0.328,1.402,0.427,0.183,189.41
8,122,43087,0.092,-0.901,-0.331,1.402,0.427,0.183,189.414
8,13,4,0.095,-0.903,-0.329,1.28,0.61,0.061,189.42
2,122,43087,0.094,-0.901,-0.33,1.28,0.61,0.061,189.424
2,8,10,0.092,-0.9,-0.326,1.037,0.671,0.305,189.43
4,122,43087,0.09,-0.9,-0.324,1.037,0.671,0.305,189.434
4,16,9,0.09,-0.898,-0.322,0.793,0.61,0.305,189.44
0,122,43087,0.092,-0.896,-0.325,0.793,0.61,0.305,189.443
0,20,7,0.089,-0.896,-0.326,0.427,0.732,0.305,189.45
13,122,43087,0.089,-0.9,-0.323,0.427,0.732,0.305,189.453
13,0,4,0.09,-0.903,-0.325,-0.061,0.671,0.427,189.46
6,122,43087,0.092,-0.9,-0.329,-0.061,0.671,0.427,189.463
6,0,12,0.088,-0.898,-0.331,-0.61,0.549,0.366,189.469
0,122,43087,0.092,-0.898,-0.327,-0.61,0.549,0.366,189.473
0,3,18,0.093,-0.9,-0.332,-0.61,0.671,0.488,189.479
1,122,43087,0.091,-0.902,-0.333,-0.61,0.671,0.488,189.483
1,18,4,0.091,-0.9,-0.328,-0.305,0.61,0.61,189.489
8,122,43087,0.087,-0.9,-0.331,-0.305,0.61,0.61,189.493
8,1,4,0.091,-0.899,-0.329,-0.061,0.549,0.671,189.499
7,122,43087,0.089,-0.898,-0.327,-0.061,0.549,0.671,189.503
7,11,7,0.092,-0.898,-0.33,-0.122,0.427,0.488,189.509
8,122,43087,0.089,-0.899,-0.333,-0.122,0.427,0.488,189.513
8,5,0,0.089,-0.902,-0.334,-0.244,0.549,0.305,189.519
5,122,43087,0.091,-0.901,-0.331,-0.244,0.549,0.305,189.523
5,4,10,0.091,-0.902,-0.329,-0.244,0.549,0.183,189.529
12,122,43087,0.088,-0.899,-0.329,-0.244,0.549,0.183,189.533
12,9,11,0.09,-0.897,-0.328,-0.305,0.427,0.061,189.539
6,122,43087,0.09,-0.895,-0.327,-0.305,0.427,0.061,189.542
6,20,9,0.09,-0.897,-0.329,-0.427,0.305,-0.122,189.549
18,122,43087,0.091,-0.901,-0.331,-0.427,0.305,-0.122,189.552
18,10,0,0.091,-0.905,-0.33,-0.488,0.305,-0.122,189.558
10,122,43087,0.092,-0.901,-0.33,-0.488,0.305,-0.122,189.562
10,8,12,0.094,-0.902,-0.33,-0.488,0.305,-0.061,189.568
0,122,43087,0.093,-0.9,-0.329,-0.488,0.305,-0.061,189.572
0,14,0,0.095,-0.899,-0.33,-0.427,0.305,-0.061,189.578
12,122,43087,0.093,-0.899,-0.33,-0.427,0.305,-0.061,189.582
12,6,7,0.092,-0.901,-0.328,-0.305,0.427,-0.183,189.588
14,122,43087,0.094,-0.902,-0.327,-0.305,0.427,-0.183,189.592
14,4,1,0.094,-0.901,-0.328,-0.183,0.488,-0.061,189.598
20,122,43087,0.094,-0.899,-0.33,-0.183,0.488,-0.061,189.602
20,11,19,0.09,-0.9,-0.324,-0.305,0.488,-0.244,189.608
8,122,43087,0.091,-0.902,-0.329,-0.305,0.488,-0.244,189.612
8,0,19,0.093,-0.901,-0.332,-0.549,0.305,-0.427,189.618
19,122,43087,0.095,-0.901,-0.33,-0.549,0.305,-0.427,189.622
19,1,4,0.092,-0.9,-0.329,-0.793,0.244,-0.366,189.628
0,122,43087,0.096,-0.9,-0.331,-0.793,0.244,-0.366,189.632
0,0,0,0.093,-0.901,-0.332,-0.854,0.183,-0.244,189.638
8,122,43087,0.096,-0.899,-0.331,-0.854,0.183,-0.244,189.641
8,16,11,0.095,-0.898,-0.333,-0.976,0.122,-0.061,189.648
0,122,43087,0.094,-0.901,-0.329,-0.976,0.122,-0.061,189.651
0,16,13,0.095,-0.899,-0.329,-0.793,0.244,0.244,189.657
10,122,43087,0.091,-0.898,-0.332,-0.793,0.244,0.244,189.661
10,2,13,0.095,-0.904,-0.329,-0.793,0.366,0.366,189.667
0,122,43087,0.096,-0.899,-0.333,-0.793,0.366,0.366,189.671
0,7,3,0.094,-0.897,-0.334,-0.488,0.366,0.488,189.677
4,122,43087,0.094,-0.897,-0.334,-0.488,0.366,0.488,189.681
4,8,0,0.094,-0.904,-0.332,-0.305,0.427,0.61,189.687
0,122,43087,0.094,-0.904,-0.332,-0.305,0.427,0.61,189.691
0,30,8,0.09,-0.905,-0.327,-0.183,0.427,0.671,189.697
7,122,43087,0.09,-0.905,-0.327,-0.183,0.427,0.671,189.701
7,5,0,0.09,-0.901,-0.331,-0.244,0.305,0.549,189.707
11,122,43087,0.09,-0.901,-0.331,-0.244,0.305,0.549,189.711
11,8,4,0.095,-0.9,-0.329,-0.427,0.305,0.488,189.717
7,122,43087,0.095,-0.9,-0.329,-0.427,0.305,0.488,189.721
7,1,19,0.094,-0.9,-0.33,-0.366,0.427,0.61,189.727
8,122,43087,0.094,-0.9,-0.33,-0.366,0.427,0.61,189.731
8,6,5,0.091,-0.899,-0.333,-0.305,0.549,0.793,189.737
24,122,43087,0.091,-0.899,-0.333,-0.305,0.549,0.793,189.74
24,0,8,0.089,-0.901,-0.332,-0.366,0.488,0.732,189.747
0,122,43087,0.089,-0.901,-0.332,-0.366,0.488,0.732,189.75
0,1,8,0.094,-0.902,-0.332,-0.122,0.488,0.488,189.756
7,122,43087,0.094,-0.902,-0.332,-0.122,0.488,0.488,189.76
7,14,0,0.091,-0.9,-0.33,0.305,0.61,0.366,189.766
4,122,43087,0.091,-0.9,-0.33,0.305,0.61,0.366,189.77
4,7,2,0.093,-0.901,-0.333,0.61,0.671,0.244,189.776
6,122,43087,0.093,-0.901,-0.333,0.61,0.671,0.244,189.78
6,6,10,0.093,-0.902,-0.328,0.976,0.61,0.183,189.786
9,122,43087,0.093,-0.902,-0.328,0.976,0.61,0.183,189.79
9,10,12,0.091,-0.898,-0.33,0.976,0.61,0.305,189.796
3,122,43087,0.091,-0.898,-0.33,0.976,0.61,0.305,189.8
3,10,6,0.091,-0.9,-0.328,0.488,0.61,0.366,189.806
3,122,43087,0.091,-0.9,-0.328,0.488,0.61,0.366,189.81
3,8,2,0.093,-0.903,-0.326,0.305,0.488,0.488,189.816
24,122,43087,0.093,-0.903,-0.326,0.305,0.488,0.488,189.82
24,0,12,0.093,-0.904,-0.332,0.305,0.488,0.488,189.826
3,122,43087,0.09,-0.901,-0.33,0.183,0.366,0.549,189.829
3,0,12,0.093,-0.899,-0.329,0.183,0.366,0.549,189.836
5,122,43087,0.089,-0.9,-0.328,0.305,0.366,0.549,189.839
5,0,7,0.09,-0.898,-0.326,0.305,0.366,0.549,189.846
0,122,43087,0.092,-0.898,-0.327,0.183,0.427,0.488,189.849
0,5,0,0.09,-0.902,-0.329,0.183,0.427,0.488,189.855
11,122,43087,0.092,-0.904,-0.33,0.183,0.488,0.366,189.859
11,5,3,0.091,-0.904,-0.33,0.183,0.488,0.366,189.865
2,122,43087,0.089,-0.901,-0.328,0.183,0.549,0.427,189.869
2,6,25,0.091,-0.9,-0.327,0.183,0.549,0.427,189.875
0,122,43087,0.092,-0.898,-0.329,0,0.427,0.366,189.879
0,11,21,0.09,-0.9,-0.328,0,0.427,0.366,189.885
7,122,43087,0.094,-0.897,-0.327,-0.122,0.305,0.183,189.889
7,10,0,0.093,-0.902,-0.331,-0.122,0.305,0.183,189.895
1,122,43087,0.092,-0.905,-0.328,-0.305,0.305,0.244,189.899
1,1,24,0.093,-0.899,-0.326,-0.305,0.305,0.244,189.905
22,122,43087,0.09,-0.895,-0.328,-0.488,0.366,0.244,189.909
22,3,3,0.094,-0.897,-0.331,-0.488,0.366,0.244,189.915
16,122,43087,0.094,-0.9,-0.329,-0.732,0.305,0,189.919
16,7,6,0.089,-0.901,-0.327,-0.732,0.305,0,189.925
3,122,43087,0.091,-0.899,-0.331,-0.671,0.183,-0.061,189.928
3,12,5,0.093,-0.899,-0.33,-0.671,0.183,-0.061,189.935
3,122,43087,0.093,-0.902,-0.327,-0.793,0.122,-0.122,189.938
3,1,15,0.093,-0.901,-0.331,-0.793,0.122,-0.122,189.945
4,122,43087,0.094,-0.9,-0.333,-0.854,0.122,-0.244,189.948
4,0,8,0.094,-0.899,-0.332,-0.854,0.122,-0.244,189.954
6,122,43087,0.094,-0.897,-0.333,-0.854,0.183,-0.061,189.958
6,2,12,0.096,-0.902,-0.328,-0.854,0.183,-0.061,189.964
9,122,43087,0.094,-0.903,-0.329,-0.793,0.305,0,189.968
9,7,0,0.093,-0.9,-0.33,-0.793,0.305,0,189.974
21,122,43087,0.093,-0.901,-0.328,-0.488,0.244,0.061,189.978
21,3,6,0.094,-0.898,-0.329,-0.488,0.244,0.061,189.984
0,122,43087,0.095,-0.896,-0.329,-0.427,0.244,0.183,189.988
0,11,12,0.093,-0.899,-0.331,-0.427,0.244,0.183,189.994
0,122,43087,0.096,-0.903,-0.332,-0.488,0.366,0.305,189.998
0,1,2,0.091,-0.902,-0.329,-0.488,0.366,0.305,190.004
9,122,43087,0.093,-0.902,-0.331,-0.305,0.366,0.427,190.008
9,3,7,0.092,-0.903,-0.332,-0.305,0.366,0.427,190.014
20,122,43087,0.094,-0.899,-0.332,-0.305,0.305,0.488,190.018
20,5,7,0.093,-0.898,-0.332,-0.305,0.305,0.488,190.024
5,122,43087,0.094,-0.902,-0.335,-0.122,0.244,0.488,190.027
5,12,0,0.095,-0.902,-0.329,-0.122,0.244,0.488,190.034
12,122,43087,0.092,-0.902,-0.327,-0.183,0.305,0.427,190.037
12,4,11,0.093,-0.9,-0.33,-0.183,0.305,0.427,190.043
11,122,43087,0.094,-0.898,-0.33,0,0.488,0.549,190.047
11,13,11,0.094,-0.897,-0.329,0,0.488,0.549,190.053
5,122,43087,0.092,-0.899,-0.331,0.061,0.549,0.61,190.057
5,0,16,0.091,-0.903,-0.33,0.061,0.549,0.61,190.063
6,122,43087,0.092,-0.904,-0.331,0.61,0.549,0.671,190.067
6,6,19,0.091,-0.903,-0.33,0.61,0.549,0.671,190.073
0,122,43087,0.092,-0.901,-0.329,0.976,0.61,0.732,190.077
0,13,0,0.09,-0.902,-0.33,0.976,0.61,0.732,190.083
18,122,43087,0.088,-0.9,-0.328,0.976,0.732,0.61,190.087
18,14,11,0.089,-0.9,-0.331,0.976,0.732,0.61,190.093
0,122,43087,0.092,-0.895,-0.327,0.915,0.671,0.427,190.097
0,12,5,0.094,-0.896,-0.327,0.915,0.671,0.427,190.103
3,122,43087,0.094,-0.898,-0.33,0.61,0.61,0.427,190.107
3,3,2,0.093,-0.9,-0.33,0.61,0.61,0.427,190.113
12,122,43087,0.094,-0.901,-0.332,0.305,0.61,0.427,190.116
12,0,13,0.094,-0.901,-0.33,0.305,0.61,0.427,190.123
0,122,43087,0.096,-0.901,-0.329,0.183,0.61,0.305,190.126
0,4,3,0.095,-0.904,-0.331,0.183,0.61,0.305,190.133
16,122,43087,0.092,-0.903,-0.332,0.366,0.793,0.427,190.136
16,21,0,0.094,-0.903,-0.33,0.366,0.793,0.427,190.142
0,122,43087,0.095,-0.9,-0.327,0.671,0.793,0.427,190.146
0,0,12,0.096,-0.898,-0.326,0.671,0.793,0.427,190.152
21,122,43087,0.097,-0.897,-0.326,0.732,0.732,0.549,190.156
21,10,12,0.096,-0.901,-0.321,0.732,0.732,0.549,190.162
1,122,43087,0.092,-0.899,-0.324,0.732,0.854,0.915,190.166
1,3,8,0.093,-0.898,-0.323,0.732,0.854,0.915,190.172
16,122,43087,0.092,-0.901,-0.329,0.183,0.854,0.976,190.176
16,18,5,0.091,-0.899,-0.335,0.183,0.854,0.976,190.182
23,122,43087,0.094,-0.902,-0.332,-0.305,0.61,0.671,190.186
23,0,6,0.091,-0.904,-0.332,-0.305,0.61,0.671,190.192
16,122,43087,0.091,-0.904,-0.33,0.122,0.61,0.488,190.196
16,3,0,0.092,-0.903,-0.333,0.122,0.61,0.488,190.202
7,122,43087,0.09,-0.897,-0.328,0.427,0.61,0.61,190.206
7,7,13,0.09,-0.897,-0.324,0.427,0.61,0.61,190.212
5,122,43087,0.092,-0.893,-0.328,0.366,0.366,0.61,190.215
5,0,13,0.093,-0.895,-0.328,0.366,0.366,0.61,190.222
18,122,43087,0.094,-0.901,-0.325,0.305,0.244,0.305,190.225
18,9,15,0.095,-0.902,-0.323,0.305,0.244,0.305,190.232
0,122,43087,0.091,-0.903,-0.329,0.488,0.427,0.183,190.235
0,14,12,0.09,-0.903,-0.331,0.488,0.427,0.183,190.241
4,122,43087,0.094,-0.901,-0.329,0.549,0.549,0.183,190.245
4,11,14,0.093,-0.902,-0.327,0.549,0.549,0.183,190.251
21,122,43087,0.093,-0.902,-0.327,0.549,0.549,0.183,190.255
21,5,6,0.089,-0.899,-0.325,0.854,0.488,0.183,190.261
5,122,43087,0.089,-0.899,-0.325,0.854,0.488,0.183,190.265
5,0,2,0.089,-0.898,-0.325,0.305,0.488,0.122,190.271
28,122,43087,0.089,-0.898,-0.325,0.305,0.488,0.122,190.275
28,0,10,0.092,-0.899,-0.326,-0.305,0.488,-0.061,190.281
10,122,43087,0.092,-0.899,-0.326,-0.305,0.488,-0.061,190.285
10,18,1,0.094,-0.9,-0.326,-0.915,0.488,0,190.291
7,122,43087,0.094,-0.9,-0.326,-0.915,0.488,0,190.295
7,0,0,0.091,-0.901,-0.327,-1.037,0.488,0.061,190.301
8,122,43087,0.091,-0.901,-0.327,-1.037,0.488,0.061,190.305
8,19,14,0.092,-0.901,-0.329,-0.976,0.427,0.305,190.311
6,122,43087,0.092,-0.901,-0.329,-0.976,0.427,0.305,190.314
6,2,9,0.094,-0.897,-0.326,-0.793,0.366,0.427,190.321
4,122,43087,0.094,-0.897,-0.326,-0.793,0.366,0.427,190.324
4,8,17,0.092,-0.901,-0.328,-0.732,0.366,0.488,190.33
8,122,43087,0.092,-0.901,-0.328,-0.732,0.366,0.488,190.334
8,15,0,0.09,-0.899,-0.33,-0.61,0.427,0.366,190.34
10,122,43087,0.09,-0.899,-0.33,-0.61,0.427,0.366,190.344
10,8,0,0.093,-0.902,-0.333,-0.488,0.427,0.244,190.35
2,122,43087,0.093,-0.902,-0.333,-0.488,0.427,0.244,190.354
2,11,0,0.094,-0.899,-0.327,-0.488,0.427,0.183,190.36
13,122,43087,0.094,-0.899,-0.327,-0.488,0.427,0.183,190.364
13,1,12,0.092,-0.901,-0.327,-0.61,0.366,0.122,190.37
0,122,43087,0.092,-0.901,-0.327,-0.61,0.366,0.122,190.374
0,11,6,0.093,-0.898,-0.331,-0.61,0.305,0.183,190.38
0,122,43087,0.093,-0.898,-0.331,-0.61,0.305,0.183,190.384
0,2,9,0.092,-0.9,-0.329,-0.427,0.183,0.244,190.39
3,122,43087,0.093,-0.899,-0.325,-0.427,0.183,0.244,190.394
3,5,10,0.094,-0.898,-0.327,-0.488,0.305,0.244,190.4
6,122,43087,0.094,-0.897,-0.329,-0.488,0.305,0.244,190.403
6,3,21,0.093,-0.898,-0.333,-0.793,0.305,0.122,190.41
5,122,43087,0.093,-0.902,-0.329,-0.793,0.305,0.122,190.413
5,0,10,0.094,-0.902,-0.326,-0.305,0.366,0,190.42
20,122,43087,0.093,-0.903,-0.325,-0.305,0.366,0,190.423
20,8,27,0.094,-0.9,-0.323,0.122,0.549,0.122,190.429
7,122,43087,0.094,-0.896,-0.324,0.122,0.549,0.122,190.433
7,15,4,0.095,-0.899,-0.323,0.061,0.61,0,190.439
10,122,43087,0.094,-0.899,-0.326,0.061,0.61,0,190.443
10,6,11,0.092,-0.902,-0.327,-0.305,0.427,-0.244,190.449
11,122,43087,0.096,-0.902,-0.331,-0.305,0.427,-0.244,190.453
11,8,16,0.096,-0.901,-0.328,-0.732,0.305,-0.244,190.459
13,122,43087,0.096,-0.896,-0.33,-0.732,0.305,-0.244,190.463
13,4,23,0.095,-0.901,-0.336,-1.098,0.305,0,190.469
16,122,43087,0.095,-0.9,-0.334,-1.098,0.305,0,190.473
16,5,6,0.097,-0.897,-0.332,-0.793,0.244,0.244,190.479
4,122,43087,0.094,-0.899,-0.332,-0.793,0.244,0.244,190.483
4,19,12,0.095,-0.899,-0.332,-0.305,0.305,0.488,190.489
0,122,43087,0.095,-0.901,-0.33,-0.305,0.305,0.488,190.493
0,11,0,0.095,-0.901,-0.33,-0.244,0.366,0.61,190.499
21,122,43087,0.094,-0.901,-0.331,-0.244,0.366,0.61,190.502
21,3,5,0.093,-0.902,-0.331,0.061,0.366,0.549,190.509
23,122,43087,0.094,-0.903,-0.327,0.061,0.366,0.549,190.512
23,0,5,0.093,-0.905,-0.33,0.244,0.366,0.488,190.519
4,122,43087,0.094,-0.902,-0.328,0.244,0.366,0.488,190.522
4,0,1,0.095,-0.898,-0.323,0.244,0.366,0.549,190.528
3,122,43087,0.094,-0.897,-0.324,0.244,0.366,0.549,190.532
3,13,0,0.094,-0.899,-0.328,-0.244,0.305,0.549,190.538
0,122,43087,0.096,-0.898,-0.329,-0.244,0.305,0.549,190.542
0,8,0,0.095,-0.898,-0.33,-0.61,0.244,0.549,190.548
21,122,43087,0.093,-0.899,-0.328,-0.61,0.244,0.549,190.552
21,6,13,0.096,-0.9,-0.327,-0.915,0.244,0.549,190.558
7,122,43087,0.092,-0.902,-0.332,-0.915,0.244,0.549,190.562
7,5,16,0.092,-0.904,-0.336,-0.732,0.366,0.61,190.568
15,122,43087,0.093,-0.9,-0.332,-0.732,0.366,0.61,190.572
15,2,7,0.093,-0.901,-0.329,-0.305,0.427,0.671,190.578
7,122,43087,0.095,-0.901,-0.329,-0.305,0.427,0.671,190.582
7,18,15,0.091,-0.898,-0.328,0,0.366,0.61,190.588
9,122,43087,0.094,-0.897,-0.329,0,0.366,0.61,190.592
9,15,0,0.095,-0.897,-0.332,0.183,0.366,0.427,190.598
0,122,43087,0.094,-0.898,-0.329,0.183,0.366,0.427,190.601
0,20,0,0.094,-0.901,-0.325,0.427,0.488,0.366,190.608
11,122,43087,0.093,-0.903,-0.33,0.427,0.488,0.366,190.611
11,10,0,0.091,-0.901,-0.327,0.549,0.549,0.61,190.617
5,122,43087,0.09,-0.899,-0.328,0.549,0.549,0.61,190.621
5,12,9,0.089,-0.9,-0.333,0.244,0.427,0.671,190.627
17,122,43087,0.093,-0.897,-0.331,0.244,0.427,0.671,190.631
17,9,8,0.096,-0.899,-0.328,0.122,0.244,0.671,190.637
0,122,43087,0.094,-0.902,-0.328,0.122,0.244,0.671,190.641
0,1,2,0.092,-0.899,-0.331,0,0.366,0.793,190.647
6,122,43087,0.092,-0.898,-0.331,0,0.366,0.793,190.651
6,5,18,0.091,-0.902,-0.331,0.183,0.427,0.915,190.657
0,122,43087,0.091,-0.902,-0.329,0.183,0.427,0.915,190.661
0,14,0,0.093,-0.901,-0.33,0.366,0.366,0.915,190.667
18,122,43087,0.092,-0.902,-0.331,0.366,0.366,0.915,190.671
18,9,9,0.094,-0.902,-0.332,0.671,0.427,1.037,190.677
14,122,43087,0.094,-0.901,-0.328,0.671,0.427,1.037,190.681
14,24,0,0.094,-0.901,-0.327,1.159,0.61,1.098,190.687
13,122,43087,0.091,-0.901,-0.323,1.159,0.61,1.098,190.691
13,0,0,0.093,-0.899,-0.323,1.402,0.854,1.159,190.697
12,122,43087,0.092,-0.901,-0.324,1.402,0.854,1.159,190.7
12,4,3,0.091,-0.903,-0.324,1.341,0.854,1.098,190.707
19,122,43087,0.093,-0.904,-0.324,1.341,0.854,1.098,190.71
19,20,0,0.092,-0.906,-0.325,1.524,0.793,1.037,190.716
15,122,43087,0.09,-0.901,-0.323,1.524,0.793,1.037,190.72
15,7,1,0.094,-0.9,-0.322,1.463,1.037,1.037,190.726
9,122,43087,0.095,-0.898,-0.322,1.463,1.037,1.037,190.73
9,13,6,0.096,-0.899,-0.325,1.098,1.098,1.037,190.736
14,122,43087,0.095,-0.901,-0.327,1.098,1.098,1.037,190.74
14,3,5,0.092,-0.901,-0.325,0.915,0.976,1.341,190.746
6,122,43087,0.094,-0.903,-0.327,0.915,0.976,1.341,190.75
6,5,21,0.091,-0.902,-0.328,0.854,1.098,1.707,190.756
0,122,43087,0.091,-0.9,-0.328,0.854,1.098,1.707,190.76
0,5,4,0.091,-0.901,-0.329,0.671,1.098,2.012,190.766
6,122,43087,0.089,-0.901,-0.33,0.671,1.098,2.012,190.77
6,8,10,0.087,-0.9,-0.33,0.915,0.915,2.134,190.776
9,122,43087,0.092,-0.901,-0.33,0.915,0.915,2.134,190.78
9,3,2,0.09,-0.9,-0.331,1.524,0.854,2.012,190.786
15,122,43087,0.089,-0.9,-0.331,1.524,0.854,2.012,190.789
15,2,5,0.089,-0.9,-0.327,1.707,0.854,1.89,190.796
7,122,43087,0.089,-0.899,-0.324,1.707,0.854,1.89,190.799
7,0,1,0.088,-0.9,-0.323,1.585,0.671,1.768,190.806
0,122,43087,0.087,-0.901,-0.327,1.585,0.671,1.768,190.809
0,3,10,0.09,-0.9,-0.327,1.402,0.549,1.646,190.815
1,122,43087,0.09,-0.9,-0.327,1.402,0.549,1.646,190.819
1,13,0,0.091,-0.901,-0.324,1.28,0.427,1.646,190.825
7,122,43087,0.091,-0.901,-0.324,1.28,0.427,1.646,190.829
7,5,1,0.089,-0.898,-0.324,0.427,0.183,1.524,190.835
8,122,43087,0.089,-0.898,-0.324,0.427,0.183,1.524,190.839
8,3,7,0.091,-0.901,-0.322,-0.305,-0.061,1.402,190.845
11,122,43087,0.091,-0.901,-0.322,-0.305,-0.061,1.402,190.849
11,21,2,0.087,-0.908,-0.325,-0.671,-0.488,1.28,190.855
6,122,43087,0.087,-0.908,-0.325,-0.671,-0.488,1.28,190.859
6,0,6,0.084,-0.906,-0.324,-0.976,-0.671,1.22,190.865
0,122,43087,0.084,-0.906,-0.324,-0.976,-0.671,1.22,190.869
0,17,13,0.088,-0.901,-0.318,-1.585,-0.915,0.793,190.875
9,122,43087,0.088,-0.901,-0.318,-1.585,-0.915,0.793,190.879
9,9,7,0.087,-0.9,-0.32,-2.195,-1.22,0.305,190.885
13,122,43087,0.087,-0.9,-0.32,-2.195,-1.22,0.305,190.888
13,8,3,0.085,-0.903,-0.319,-2.805,-1.341,-0.061,190.895
17,122,43087,0.085,-0.903,-0.319,-2.805,-1.341,-0.061,190.898
17,17,11,0.085,-0.898,-0.319,-3.537,-1.463,-0.488,190.905
8,122,43087,0.085,-0.898,-0.319,-3.537,-1.463,-0.488,190.908
8,5,17,0.087,-0.899,-0.321,-4.512,-1.646,-0.732,190.914
10,122,43087,0.087,-0.899,-0.321,-4.512,-1.646,-0.732,190.918
10,10,5,0.09,-0.901,-0.323,-5.183,-1.89,-0.915,190.924
6,122,43087,0.09,-0.901,-0.323,-5.183,-1.89,-0.915,190.928
6,2,16,0.089,-0.9,-0.323,-5.366,-1.951,-1.22,190.934
7,122,43087,0.089,-0.9,-0.323,-5.366,-1.951,-1.22,190.938
7,0,4,0.089,-0.897,-0.324,-5.976,-2.012,-1.341,190.944
2,122,43087,0.089,-0.897,-0.324,-5.976,-2.012,-1.341,190.948
2,8,7,0.091,-0.899,-0.327,-6.829,-2.134,-1.463,190.954
15,122,43087,0.091,-0.899,-0.327,-6.829,-2.134,-1.463,190.958
15,4,11,0.091,-0.903,-0.331,-6.829,-2.134,-1.463,190.964
12,122,43087,0.097,-0.901,-0.333,-7.012,-1.89,-1.402,190.968
12,4,11,0.095,-0.9,-0.339,-7.012,-1.89,-1.402,190.974
14,122,43087,0.094,-0.9,-0.336,-6.707,-1.463,-0.915,190.978
14,0,2,0.092,-0.898,-0.338,-6.707,-1.463,-0.915,190.984
9,122,43087,0.091,-0.898,-0.339,-6.22,-1.159,-0.671,190.987
9,4,16,0.09,-0.898,-0.341,-6.22,-1.159,-0.671,190.994
9,122,43087,0.089,-0.898,-0.344,-5.915,-1.22,-0.671,190.997
9,18,7,0.091,-0.899,-0.345,-5.915,-1.22,-0.671,191.004
26,122,43087,0.094,-0.899,-0.346,-5.427,-1.098,-0.854,191.007
26,7,6,0.091,-0.904,-0.345,-5.427,-1.098,-0.854,191.013
0,122,43087,0.092,-0.901,-0.343,-4.329,-0.793,-0.915,191.017
0,10,10,0.092,-0.899,-0.349,-4.329,-0.793,-0.915,191.023
12,122,43087,0.092,-0.9,-0.349,-2.805,-0.366,-0.488,191.027
12,12,18,0.092,-0.9,-0.349,-2.805,-0.366,-0.488,191.033
17,122,43087,0.093,-0.902,-0.346,-1.159,-0.122,-0.183,191.037
17,4,16,0.09,-0.899,-0.343,-1.159,-0.122,-0.183,191.043
7,122,43087,0.091,-0.899,-0.343,0.122,0.061,-0.183,191.047
7,0,14,0.092,-0.899,-0.339,0.122,0.061,-0.183,191.053
4,122,43087,0.093,-0.899,-0.337,1.28,0.366,-0.122,191.057
4,8,0,0.093,-0.898,-0.342,1.28,0.366,-0.122,191.063
2,122,43087,0.096,-0.9,-0.34,2.256,0.793,0.305,191.067
2,3,13,0.093,-0.899,-0.336,2.256,0.793,0.305,191.073
5,122,43087,0.09,-0.898,-0.336,2.866,1.22,0.793,191.077
5,4,11,0.091,-0.896,-0.332,2.866,1.22,0.793,191.083
0,122,43087,0.09,-0.896,-0.332,2.988,1.402,1.037,191.086
