111321,130801,9715,-0.138,0.998,0.213,0.976,0.305,0.305,70.025
111321,130592,10012,-0.134,0.999,0.21,0.976,0.427,0.488,70.031
111312,130545,9715,-0.135,1,0.213,0.976,0.427,0.488,70.035
111312,130558,10016,-0.134,1.001,0.214,0.366,0.427,0.671,70.041
111347,130801,9715,-0.133,1.002,0.215,0.366,0.427,0.671,70.044
111347,130596,10025,-0.132,1.002,0.214,0.305,0.305,0.61,70.051
111361,130801,9715,-0.132,1.001,0.213,0.305,0.305,0.61,70.054
111361,130603,10014,-0.133,1.003,0.21,0.549,0.366,0.427,70.06
111321,130545,9715,-0.131,1.003,0.212,0.549,0.366,0.427,70.064
111321,130555,10022,-0.131,0.997,0.213,0.732,0.488,0.122,70.07
111229,130545,9715,-0.134,0.999,0.211,0.732,0.488,0.122,70.074
111229,130435,10013,-0.134,1,0.213,0.671,0.549,-0.061,70.08
111128,130545,9715,-0.135,0.998,0.213,0.671,0.549,-0.061,70.084
111128,130321,9998,-0.13,0.998,0.21,0.427,0.366,-0.183,70.09
111050,130289,9715,-0.135,0.998,0.214,0.427,0.366,-0.183,70.094
111050,130231,9990,-0.132,0.998,0.214,0.488,0.183,-0.366,70.1
111025,130289,9715,-0.133,0.997,0.215,0.488,0.183,-0.366,70.104
111025,130212,9984,-0.132,0.999,0.215,0.732,0.305,-0.488,70.11
111024,130289,9715,-0.137,1.002,0.216,0.732,0.305,-0.488,70.114
111024,130176,9999,-0.139,0.999,0.214,0.549,0.427,-0.366,70.12
110976,130289,9715,-0.136,0.998,0.214,0.549,0.427,-0.366,70.124
110976,130126,9989,-0.136,0.998,0.212,0.549,0.366,-0.122,70.13
110893,130289,9715,-0.14,1.002,0.212,0.549,0.366,-0.122,70.133
110893,130086,10005,-0.137,1.002,0.216,0.305,0.366,0,70.14
110871,130289,9715,-0.136,1,0.216,0.305,0.366,0,70.143
110871,130051,9976,-0.136,1,0.211,0.488,0.427,0.305,70.15
110888,130033,9715,-0.135,0.997,0.211,0.488,0.427,0.305,70.153
110888,130031,9962,-0.135,0.999,0.212,0.549,0.61,0.427,70.159
110901,130033,9715,-0.134,0.999,0.213,0.549,0.61,0.427,70.163
110901,130047,9991,-0.134,1.003,0.211,0.488,0.488,0.427,70.169
110927,130289,9715,-0.136,1.004,0.212,0.488,0.488,0.427,70.173
110927,130113,9999,-0.132,0.999,0.211,0.305,0.305,0.488,70.179
110952,130289,9715,-0.134,0.996,0.215,0.305,0.305,0.488,70.183
110952,130116,9991,-0.137,0.996,0.212,0.488,0.366,0.427,70.189
110983,130289,9715,-0.135,0.998,0.209,0.488,0.366,0.427,70.193
110983,130172,9994,-0.135,0.999,0.209,0.366,0.427,0.183,70.199
110993,130289,9715,-0.134,0.999,0.214,0.366,0.427,0.183,70.203
110993,130177,9994,-0.132,1,0.212,0.122,0.183,0.061,70.209
111019,130289,9715,-0.132,1.001,0.214,0.122,0.183,0.061,70.213
111019,130196,9990,-0.134,1.006,0.211,-0.183,0.366,0,70.219
111063,130289,9715,-0.136,1.004,0.209,-0.183,0.366,0,70.223
111063,130220,9998,-0.135,0.998,0.215,-0.427,0.488,-0.183,70.229
111083,130289,9715,-0.134,0.996,0.213,-0.427,0.488,-0.183,70.233
111083,130236,10005,-0.136,1,0.211,-0.488,0.427,-0.305,70.239
111101,130289,9715,-0.136,1,0.211,-0.488,0.427,-0.305,70.242
111101,130262,10010,-0.136,0.994,0.208,-0.549,0.549,-0.183,70.249
111124,130289,9715,-0.136,0.994,0.208,-0.549,0.549,-0.183,70.252
111124,130297,10004,-0.137,1.001,0.214,-0.671,0.427,-0.122,70.258
111149,130545,9715,-0.137,1.001,0.214,-0.671,0.427,-0.122,70.262
111149,130338,10006,-0.136,0.992,0.214,-0.427,0.488,0.122,70.268
111171,130545,9715,-0.136,0.992,0.214,-0.427,0.488,0.122,70.272
111171,130355,10017,-0.136,0.999,0.214,-0.183,0.61,0.122,70.278
111234,130545,9715,-0.136,0.999,0.214,-0.183,0.61,0.122,70.282
111234,130421,10018,-0.137,0.999,0.213,-0.061,0.427,0.183,70.288
111284,130545,9715,-0.137,0.999,0.213,-0.061,0.427,0.183,70.292
111284,130502,10025,-0.135,0.997,0.212,0.183,0.305,0.305,70.298
111334,130545,9715,-0.135,0.997,0.212,0.183,0.305,0.305,70.302
111334,130540,10040,-0.134,1.002,0.212,0.122,0.549,0.183,70.308
111369,130801,9715,-0.134,1.002,0.212,0.122,0.549,0.183,70.312
111369,130591,10040,-0.133,1,0.217,0,0.427,0.183,70.318
111433,130801,9715,-0.133,1,0.217,0,0.427,0.183,70.322
111433,130656,10039,-0.134,0.996,0.213,0.549,0.305,0.061,70.328
111469,130801,9715,-0.134,0.996,0.213,0.549,0.305,0.061,70.332
111469,130717,10051,-0.138,1,0.212,0.854,0.427,0,70.338
111528,130801,9715,-0.138,1,0.212,0.854,0.427,0,70.341
111528,130794,10037,-0.14,0.999,0.213,0.671,0.427,0.122,70.348
111564,131057,9715,-0.14,0.999,0.213,0.671,0.427,0.122,70.351
111564,130844,10056,-0.133,1.001,0.208,0.488,0.305,0.244,70.357
111612,131057,9715,-0.133,1.001,0.208,0.488,0.305,0.244,70.361
111612,130903,10053,-0.139,1.001,0.21,0.061,0.427,0.244,70.367
111655,131057,9715,-0.139,1.001,0.21,0.061,0.427,0.244,70.371
111655,130931,10066,-0.135,1,0.21,-0.366,0.366,0.244,70.377
111701,131057,9715,-0.135,1,0.21,-0.366,0.366,0.244,70.381
111701,130940,10064,-0.136,1.001,0.21,-0.488,0.427,0.366,70.387
111724,131057,9715,-0.136,1.001,0.21,-0.488,0.427,0.366,70.391
111724,130991,10071,-0.135,1.002,0.21,-0.488,0.427,0.366,70.397
111745,131057,9715,-0.137,0.997,0.211,-0.793,0.488,0.488,70.401
111745,131033,10076,-0.135,0.998,0.213,-0.793,0.488,0.488,70.407
111761,131057,9715,-0.133,0.996,0.21,-0.793,0.366,0.488,70.411
111761,131059,10063,-0.135,0.997,0.212,-0.793,0.366,0.488,70.417
111797,131313,9715,-0.141,1.001,0.213,-0.732,0.366,0.427,70.421
111797,131102,10069,-0.141,1.004,0.214,-0.732,0.366,0.427,70.427
111849,131313,9715,-0.136,1.001,0.211,-1.098,0.305,0.488,70.431
111849,131162,10080,-0.132,0.998,0.213,-1.098,0.305,0.488,70.437
111881,131313,9715,-0.134,0.997,0.218,-1.098,0.366,0.366,70.44
111881,131211,10078,-0.136,0.997,0.212,-1.098,0.366,0.366,70.447
111933,131313,9715,-0.135,0.997,0.209,-0.915,0.61,0.305,70.45
111933,131221,10090,-0.133,0.996,0.214,-0.915,0.61,0.305,70.456
111948,131313,9715,-0.135,0.998,0.215,-0.732,0.427,0.305,70.46
111948,131271,10083,-0.137,1.002,0.215,-0.732,0.427,0.305,70.466
111984,131313,9715,-0.134,1,0.214,-0.488,0.244,0.244,70.47
111984,131305,10092,-0.136,0.998,0.217,-0.488,0.244,0.244,70.476
112002,131313,9715,-0.136,0.998,0.212,-0.427,0.488,0.122,70.48
112002,131290,10104,-0.134,1,0.213,-0.427,0.488,0.122,70.486
111994,131313,9715,-0.139,0.998,0.216,-0.061,0.427,-0.061,70.49
111994,131305,10093,-0.136,0.995,0.214,-0.061,0.427,-0.061,70.496
111953,131313,9715,-0.138,0.998,0.216,0.366,0.488,0,70.5
111953,131292,10082,-0.137,0.999,0.214,0.366,0.488,0,70.506
111945,131313,9715,-0.137,1,0.213,0.61,0.488,0.122,70.51
111945,131292,10075,-0.138,0.997,0.214,0.61,0.488,0.122,70.516
111938,131313,9715,-0.135,0.995,0.211,0.732,0.366,0.244,70.52
111938,131252,10075,-0.136,0.995,0.212,0.732,0.366,0.244,70.526
111908,131313,9715,-0.136,0.997,0.212,0.61,0.366,0.366,70.53
111908,131264,10092,-0.14,1.001,0.21,0.61,0.366,0.366,70.536
111924,131313,9715,-0.137,1,0.211,0.244,0.305,0.488,70.539
111924,131280,10073,-0.133,0.999,0.215,0.244,0.305,0.488,70.546
111958,131313,9715,-0.133,1,0.211,0.183,0.183,0.488,70.549
111958,131278,10068,-0.138,1,0.21,0.183,0.183,0.488,70.555
111964,131313,9715,-0.135,1.002,0.209,0.122,0.549,0.488,70.559
111964,131304,10079,-0.135,1.001,0.21,0.122,0.549,0.488,70.565
111998,131569,9715,-0.135,1,0.21,-0.244,0.427,0.427,70.569
111998,131345,10075,-0.134,0.997,0.209,-0.244,0.427,0.427,70.575
112018,131569,9715,-0.136,1.003,0.21,-0.366,0.305,0.427,70.579
112018,131359,10078,-0.135,1.004,0.211,-0.366,0.305,0.427,70.585
112033,131569,9715,-0.134,1.002,0.211,-0.488,0.366,0.244,70.589
112033,131378,10094,-0.135,1.004,0.214,-0.488,0.366,0.244,70.595
112079,131569,9715,-0.137,1.004,0.215,-0.793,0.366,0.061,70.599
112079,131441,10084,-0.134,1.002,0.213,-0.793,0.366,0.061,70.605
112118,131569,9715,-0.133,0.995,0.215,-0.549,0.488,-0.122,70.609
112118,131493,10082,-0.138,0.994,0.213,-0.549,0.488,-0.122,70.615
112156,131569,9715,-0.137,0.996,0.215,-0.183,0.732,-0.244,70.619
112156,131561,10090,-0.138,0.995,0.213,-0.183,0.732,-0.244,70.625
112200,131825,9715,-0.136,0.997,0.216,0.183,0.61,-0.183,70.628
112200,131614,10101,-0.135,0.993,0.217,0.183,0.61,-0.183,70.635
112246,131825,9715,-0.139,0.995,0.215,0.671,0.488,-0.122,70.638
112246,131668,10116,-0.138,0.998,0.215,0.671,0.488,-0.122,70.645
112270,131825,9715,-0.134,0.998,0.21,0.915,0.488,0,70.648
112270,131680,10106,-0.137,1.001,0.209,0.915,0.488,0,70.654
112249,131825,9715,-0.135,0.999,0.211,0.793,0.305,0.183,70.658
112249,131673,10106,-0.137,0.997,0.215,0.793,0.305,0.183,70.664
112241,131825,9715,-0.137,0.997,0.213,0.61,0.305,0.305,70.668
112241,131653,10121,-0.137,1.001,0.213,0.61,0.305,0.305,70.674
112243,131825,9715,-0.137,1.002,0.209,0.427,0.366,0.366,70.678
112243,131639,10114,-0.139,0.998,0.21,0.427,0.366,0.366,70.684
112228,131825,9715,-0.135,1,0.21,0.427,0.366,0.305,70.688
112228,131650,10109,-0.136,1.003,0.211,0.427,0.366,0.305,70.694
112237,131825,9715,-0.137,1.006,0.211,0.061,0.366,0.366,70.698
112237,131631,10110,-0.133,1.002,0.212,0.061,0.366,0.366,70.704
112228,131825,9715,-0.13,0.999,0.211,-0.366,0.366,0.366,70.708
112228,131602,10103,-0.135,1,0.212,-0.366,0.366,0.366,70.714
112191,131569,9715,-0.138,0.998,0.217,-0.366,0.427,0.122,70.718
112191,131569,10099,-0.136,1,0.215,-0.366,0.427,0.122,70.724
112169,131569,9715,-0.136,0.999,0.214,-0.427,0.488,0.122,70.728
112169,131555,10097,-0.136,1,0.216,-0.427,0.488,0.122,70.734
112143,131569,9715,-0.135,1.001,0.211,-0.366,0.366,0.122,70.737
112143,131522,10107,-0.138,0.998,0.211,-0.366,0.366,0.122,70.744
112115,131569,9715,-0.14,0.999,0.212,-0.488,0.427,0,70.747
112115,131498,10111,-0.139,0.998,0.211,-0.488,0.427,0,70.753
112115,131569,9715,-0.136,0.996,0.209,-0.427,0.488,0,70.757
112115,131488,10098,-0.136,1,0.21,-0.427,0.488,0,70.763
112142,131569,9715,-0.135,0.998,0.213,-0.244,0.366,0.122,70.767
112142,131503,10092,-0.135,0.997,0.213,-0.244,0.366,0.122,70.773
112141,131569,9715,-0.133,1.001,0.214,0.061,0.366,0.305,70.777
112141,131534,10110,-0.137,1.001,0.211,0.061,0.366,0.305,70.783
112170,131569,9715,-0.137,1.001,0.213,0.305,0.427,0.366,70.787
112170,131557,10103,-0.137,0.998,0.216,0.305,0.427,0.366,70.793
112210,131825,9715,-0.138,0.998,0.214,0.61,0.488,0.244,70.797
112210,131599,10099,-0.137,1,0.209,0.61,0.488,0.244,70.803
112227,131825,9715,-0.138,1.002,0.21,0.732,0.488,0.183,70.807
112227,131617,10112,-0.135,1.003,0.21,0.732,0.488,0.183,70.813
112259,131825,9715,-0.131,1.001,0.215,0.732,0.488,0.122,70.817
112259,131666,10099,-0.134,0.999,0.215,0.732,0.488,0.122,70.823
112285,131825,9715,-0.135,0.997,0.213,1.098,0.549,-0.244,70.826
112285,131687,10110,-0.136,0.999,0.211,1.098,0.549,-0.244,70.833
112283,131825,9715,-0.136,0.999,0.211,1.098,0.549,-0.244,70.836
112283,131691,10117,-0.141,0.996,0.208,1.341,0.915,-0.488,70.843
112313,131825,9715,-0.141,0.996,0.208,1.341,0.915,-0.488,70.846
112313,131731,10121,-0.132,1.002,0.212,1.159,0.793,-0.549,70.852
112313,131825,9715,-0.132,1.002,0.212,1.159,0.793,-0.549,70.856
112313,131696,10124,-0.137,0.998,0.212,1.22,0.549,-0.61,70.862
112298,131825,9715,-0.137,0.998,0.212,1.22,0.549,-0.61,70.866
112298,131705,10104,-0.139,0.995,0.21,1.707,0.671,-0.854,70.872
112312,131825,9715,-0.139,0.995,0.21,1.707,0.671,-0.854,70.876
112312,131731,10117,-0.14,0.998,0.204,1.646,0.732,-0.854,70.882
112330,131825,9715,-0.14,0.998,0.204,1.646,0.732,-0.854,70.886
112330,131734,10108,-0.136,1.004,0.21,1.22,0.488,-0.549,70.892
112333,131825,9715,-0.136,1.004,0.21,1.22,0.488,-0.549,70.896
112333,131755,10131,-0.138,1.001,0.211,0.854,0.427,-0.427,70.902
112375,131825,9715,-0.138,1.001,0.211,0.854,0.427,-0.427,70.906
112375,131798,10113,-0.14,1.002,0.207,0.61,0.671,-0.427,70.912
112416,132081,9715,-0.14,1.002,0.207,0.61,0.671,-0.427,70.916
112416,131843,10145,-0.141,1,0.205,0.305,0.671,-0.427,70.922
112453,132081,9715,-0.141,1,0.205,0.305,0.671,-0.427,70.926
112453,131895,10119,-0.141,1,0.207,0.122,0.61,-0.244,70.932
112476,132081,9715,-0.141,1,0.207,0.122,0.61,-0.244,70.935
112476,131931,10143,-0.138,0.999,0.208,-0.183,0.549,-0.183,70.942
112503,132081,9715,-0.138,0.999,0.208,-0.183,0.549,-0.183,70.945
112503,131971,10140,-0.139,0.996,0.212,-0.488,0.488,0,70.951
112533,132081,9715,-0.139,0.996,0.212,-0.488,0.488,0,70.955
112533,132003,10136,-0.139,1,0.208,-0.732,0.427,0.183,70.961
112543,132081,9715,-0.139,1,0.208,-0.732,0.427,0.183,70.965
112543,132009,10136,-0.138,0.998,0.209,-0.671,0.427,0.244,70.971
112535,132081,9715,-0.138,0.998,0.209,-0.671,0.427,0.244,70.975
112535,132025,10143,-0.139,1.001,0.209,-0.732,0.366,0.366,70.981
112554,132081,9715,-0.138,1.001,0.207,-0.732,0.366,0.366,70.985
112554,132033,10139,-0.139,1.002,0.206,-1.037,0.427,0.366,70.991
112556,132081,9715,-0.139,1.003,0.208,-1.037,0.427,0.366,70.995
112556,132038,10143,-0.14,1.001,0.211,-1.28,0.488,0.427,71.001
112572,132081,9715,-0.139,1,0.212,-1.28,0.488,0.427,71.005
112572,132052,10147,-0.138,0.999,0.212,-1.159,0.427,0.305,71.011
112593,132081,9715,-0.138,0.997,0.21,-1.159,0.427,0.305,71.015
112593,132056,10145,-0.14,1,0.212,-0.915,0.488,0.305,71.021
112602,132081,9715,-0.139,0.997,0.211,-0.915,0.488,0.305,71.024
112602,132075,10158,-0.139,0.999,0.208,-0.671,0.488,0.244,71.031
112616,132081,9715,-0.138,0.999,0.209,-0.671,0.488,0.244,71.034
112616,132069,10155,-0.137,1.001,0.212,-0.793,0.427,0.244,71.041
112643,132337,9715,-0.138,1.001,0.21,-0.793,0.427,0.244,71.044
112643,132130,10151,-0.14,0.997,0.209,-0.61,0.366,0.183,71.05
112652,132337,9715,-0.139,0.998,0.209,-0.61,0.366,0.183,71.054
112652,132123,10129,-0.14,0.997,0.209,-0.671,0.488,0.183,71.06
112676,132337,9715,-0.142,0.999,0.21,-0.671,0.488,0.183,71.064
112676,132160,10159,-0.139,0.999,0.213,-0.976,0.366,0.244,71.07
112708,132337,9715,-0.139,1.001,0.212,-0.976,0.366,0.244,71.074
112708,132198,10145,-0.137,1.001,0.212,-0.915,0.366,0.122,71.08
112750,132337,9715,-0.138,0.998,0.209,-0.915,0.366,0.122,71.084
112750,132254,10166,-0.14,1,0.206,-0.732,0.427,0,71.09
112808,132337,9715,-0.14,1,0.207,-0.732,0.427,0,71.094
112808,132340,10157,-0.136,1.004,0.208,-0.915,0.366,-0.122,71.1
112884,132593,9715,-0.134,1,0.211,-0.915,0.366,-0.122,71.104
112884,132420,10180,-0.137,1,0.214,-0.915,0.366,-0.244,71.11
112932,132593,9715,-0.137,1,0.212,-0.915,0.366,-0.244,71.114
112932,132461,10185,-0.138,0.999,0.214,-0.366,0.61,-0.427,71.12
113000,132593,9715,-0.141,0.997,0.21,-0.366,0.61,-0.427,71.124
113000,132555,10178,-0.141,0.997,0.21,-0.244,0.671,-0.244,71.13
113081,132849,9715,-0.14,0.996,0.211,-0.244,0.671,-0.244,71.133
113081,132660,10180,-0.139,0.996,0.212,-0.427,0.488,-0.061,71.14
113155,132849,9715,-0.137,1,0.211,-0.427,0.488,-0.061,71.143
113155,132747,10188,-0.14,0.999,0.21,-0.549,0.366,0,71.149
113242,132849,9715,-0.14,0.999,0.212,-0.549,0.366,0,71.153
113242,132809,10204,-0.14,0.996,0.214,-0.61,0.427,0,71.159
113260,133105,9715,-0.142,0.994,0.214,-0.61,0.427,0,71.163
113260,132898,10204,-0.142,0.998,0.214,-0.305,0.366,0.061,71.169
113324,133105,9715,-0.141,1,0.213,-0.305,0.366,0.061,71.173
113324,132975,10226,-0.139,1.001,0.21,-0.427,0.366,0.244,71.179
113382,133105,9715,-0.139,1.001,0.21,-0.427,0.366,0.244,71.183
113382,133013,10215,-0.139,1,0.21,-0.732,0.305,0.488,71.189
113429,133105,9715,-0.141,0.998,0.211,-0.732,0.305,0.488,71.193
113429,133080,10216,-0.139,0.999,0.21,-0.793,0.427,0.427,71.199
113445,133361,9715,-0.139,0.997,0.212,-0.793,0.427,0.427,71.203
113445,133126,10220,-0.14,0.995,0.211,-0.671,0.427,0.366,71.209
113452,133105,9715,-0.143,0.998,0.211,-0.671,0.427,0.366,71.213
113452,133107,10212,-0.138,1.001,0.212,-0.671,0.549,0.488,71.219
113451,133361,9715,-0.139,1.001,0.21,-0.671,0.549,0.488,71.222
113451,133138,10221,-0.139,1.006,0.21,-1.159,0.488,0.61,71.229
113438,133361,9715,-0.137,1.005,0.212,-1.159,0.488,0.61,71.232
113438,133133,10226,-0.136,0.998,0.213,-1.22,0.366,0.427,71.239
113436,133361,9715,-0.137,0.996,0.212,-1.22,0.366,0.427,71.242
113436,133147,10221,-0.137,0.994,0.217,-0.976,0.549,0.183,71.248
113437,133105,9715,-0.141,0.993,0.216,-0.976,0.549,0.183,71.252
113437,133100,10222,-0.14,0.996,0.214,-0.854,0.488,0.061,71.258
113433,133105,9715,-0.138,0.995,0.214,-0.854,0.488,0.061,71.262
113433,133109,10217,-0.137,0.997,0.213,-0.488,0.366,0.061,71.268
113401,133105,9715,-0.142,0.995,0.212,-0.488,0.366,0.061,71.272
113401,133057,10211,-0.14,0.995,0.211,-0.305,0.488,0.061,71.278
113368,133105,9715,-0.144,1,0.213,-0.305,0.488,0.061,71.282
113368,133063,10216,-0.141,1.003,0.211,-0.915,0.244,0.061,71.288
113358,133105,9715,-0.14,1.006,0.213,-0.915,0.244,0.061,71.292
113358,132995,10208,-0.142,0.999,0.214,-1.22,0.061,0.061,71.298
113330,133105,9715,-0.141,0.997,0.213,-1.22,0.061,0.061,71.302
113330,132963,10206,-0.142,0.999,0.211,-0.793,0.427,0,71.308
113292,133105,9715,-0.141,1,0.21,-0.793,0.427,0,71.312
113292,132961,10207,-0.141,1,0.212,-0.854,0.61,0.122,71.318
113314,133105,9715,-0.14,0.999,0.214,-0.854,0.61,0.122,71.322
113314,132950,10207,-0.138,0.996,0.213,-1.037,0.366,0.244,71.328
113286,133105,9715,-0.137,0.998,0.216,-1.037,0.366,0.244,71.331
113286,132910,10201,-0.136,0.995,0.218,-0.793,0.427,0.122,71.338
113256,133105,9715,-0.14,0.996,0.215,-0.793,0.427,0.122,71.341
113256,132899,10194,-0.14,0.998,0.214,-0.732,0.427,0.061,71.347
113226,133105,9715,-0.141,0.997,0.217,-0.732,0.427,0.061,71.351
113226,132882,10212,-0.14,0.997,0.216,-0.549,0.305,0.061,71.357
113186,132849,9715,-0.14,0.996,0.212,-0.549,0.305,0.061,71.361
113186,132842,10202,-0.14,0.998,0.212,-0.549,0.305,0,71.367
113170,132849,9715,-0.141,1.001,0.211,-0.549,0.305,0,71.371
113170,132796,10193,-0.143,0.999,0.212,-0.61,0.549,0.122,71.377
113153,132849,9715,-0.139,0.995,0.216,-0.61,0.549,0.122,71.381
113153,132769,10180,-0.142,0.996,0.216,-0.183,0.305,0.183,71.387
113129,132849,9715,-0.143,0.997,0.215,-0.183,0.305,0.183,71.391
113129,132730,10194,-0.142,0.993,0.216,0.244,0.427,0.183,71.397
113114,132849,9715,-0.14,1,0.21,0.244,0.427,0.183,71.401
113114,132754,10196,-0.142,1.001,0.213,0.427,0.427,0.244,71.407
113085,132849,9715,-0.141,0.998,0.213,0.427,0.427,0.244,71.411
113085,132748,10188,-0.142,0.999,0.213,0.366,0.244,0.488,71.417
113105,132849,9715,-0.142,0.999,0.213,0.366,0.244,0.488,71.421
113105,132736,10191,-0.142,0.997,0.213,0.061,0.427,0.488,71.427
113102,132849,9715,-0.142,0.997,0.213,0.061,0.427,0.488,71.43
113102,132737,10184,-0.141,1.003,0.212,-0.61,0.427,0.549,71.437
113080,132849,9715,-0.141,1.003,0.212,-0.61,0.427,0.549,71.44
113080,132731,10184,-0.14,1.002,0.216,-0.915,0.305,0.427,71.447
113080,132849,9715,-0.14,1.002,0.216,-0.915,0.305,0.427,71.45
113080,132735,10191,-0.142,0.997,0.211,-0.671,0.488,0.183,71.456
113057,132849,9715,-0.142,0.997,0.211,-0.671,0.488,0.183,71.46
113057,132693,10184,-0.141,0.999,0.212,-0.976,0.549,0.061,71.466
113031,132849,9715,-0.141,0.999,0.212,-0.976,0.549,0.061,71.47
113031,132662,10170,-0.138,1,0.214,-0.915,0.305,0,71.476
112997,132849,9715,-0.138,1,0.214,-0.915,0.305,0,71.48
112997,132627,10173,-0.139,0.999,0.214,-0.793,0.488,-0.183,71.486
112972,132593,9715,-0.139,0.999,0.214,-0.793,0.488,-0.183,71.49
112972,132600,10193,-0.142,0.995,0.216,-0.854,0.488,-0.122,71.496
112946,132593,9715,-0.142,0.995,0.216,-0.854,0.488,-0.122,71.5
112946,132573,10173,-0.142,0.995,0.217,-0.61,0.366,-0.061,71.506
112913,132593,9715,-0.142,0.995,0.217,-0.61,0.366,-0.061,71.51
112913,132550,10182,-0.14,1,0.214,-0.427,0.427,0.061,71.516
112923,132593,9715,-0.14,1,0.214,-0.427,0.427,0.061,71.52
112923,132508,10175,-0.14,1,0.217,-0.671,0.305,0.061,71.526
112896,132593,9715,-0.14,1,0.217,-0.671,0.305,0.061,71.529
112896,132523,10171,-0.141,0.994,0.218,-0.366,0.366,0,71.536
112908,132593,9715,-0.141,0.994,0.218,-0.366,0.366,0,71.539
112908,132506,10179,-0.144,0.995,0.212,-0.244,0.549,0,71.545
112876,132593,9715,-0.144,0.995,0.212,-0.244,0.549,0,71.549
112876,132493,10163,-0.142,0.998,0.212,-0.183,0.366,0.366,71.555
112847,132593,9715,-0.142,0.998,0.212,-0.183,0.366,0.366,71.559
112847,132444,10183,-0.141,0.995,0.217,-0.305,0.305,0.61,71.565
112814,132593,9715,-0.141,0.995,0.217,-0.305,0.305,0.61,71.569
112814,132420,10171,-0.138,0.997,0.216,-0.305,0.305,0.61,71.575
112787,132593,9715,-0.14,1.001,0.211,-0.305,0.305,0.61,71.579
112787,132408,10163,-0.141,1,0.215,-0.305,0.305,0.61,71.585
112728,132337,9715,-0.14,0.997,0.216,-0.244,0.305,0.427,71.589
112728,132334,10158,-0.14,0.999,0.214,-0.244,0.305,0.427,71.595
112700,132337,9715,-0.141,0.999,0.215,0.122,0.488,0.305,71.599
112700,132271,10151,-0.144,0.999,0.214,0.122,0.488,0.305,71.605
112656,132337,9715,-0.142,0.999,0.211,0.244,0.549,0.366,71.609
112656,132252,10148,-0.14,1.001,0.212,0.244,0.549,0.366,71.615
112634,132337,9715,-0.14,0.997,0.214,0.061,0.366,0.305,71.619
112634,132244,10159,-0.141,0.999,0.216,0.061,0.366,0.305,71.625
112635,132337,9715,-0.141,0.997,0.212,-0.183,0.427,0.366,71.628
112635,132228,10158,-0.141,0.996,0.213,-0.183,0.427,0.366,71.635
112646,132337,9715,-0.139,0.995,0.217,-0.488,0.366,0.549,71.638
112646,132234,10148,-0.139,0.997,0.212,-0.488,0.366,0.549,71.645
112615,132337,9715,-0.14,0.998,0.212,-0.549,0.244,0.671,71.648
112615,132222,10161,-0.14,1,0.214,-0.549,0.244,0.671,71.654
112620,132337,9715,-0.143,0.998,0.22,-0.61,0.305,0.732,71.658
112620,132233,10159,-0.143,0.998,0.213,-0.61,0.305,0.732,71.664
112622,132337,9715,-0.14,0.998,0.207,-0.61,0.366,0.793,71.668
112622,132220,10164,-0.14,0.999,0.214,-0.61,0.366,0.793,71.674
112654,132337,9715,-0.141,1.001,0.213,-0.976,0.366,0.854,71.678
112654,132229,10136,-0.138,1,0.21,-0.976,0.366,0.854,71.684
112661,132337,9715,-0.137,1,0.218,-1.22,0.244,0.854,71.688
112661,132257,10163,-0.137,1,0.217,-1.22,0.244,0.854,71.694
112675,132337,9715,-0.138,1.002,0.213,-1.098,0.305,0.549,71.698
112675,132248,10152,-0.135,0.997,0.214,-1.098,0.305,0.549,71.704
112659,132337,9715,-0.136,0.995,0.216,-0.793,0.488,0.183,71.708
112659,132244,10166,-0.141,0.999,0.218,-0.793,0.488,0.183,71.714
112655,132337,9715,-0.14,0.998,0.221,-0.61,0.427,0.061,71.718
112655,132253,10150,-0.138,0.995,0.217,-0.61,0.427,0.061,71.724
112622,132337,9715,-0.139,0.994,0.216,-0.305,0.366,0.122,71.727
112622,132224,10152,-0.141,0.993,0.218,-0.305,0.366,0.122,71.734
112620,132337,9715,-0.145,0.996,0.222,0.061,0.366,0,71.737
112620,132182,10138,-0.143,0.992,0.215,0.061,0.366,0,71.743
112567,132337,9715,-0.145,0.994,0.214,0.305,0.366,0.183,71.747
112567,132154,10153,-0.146,0.997,0.216,0.305,0.366,0.183,71.753
112545,132337,9715,-0.142,0.995,0.213,0.122,0.244,0.488,71.757
112545,132126,10151,-0.141,0.998,0.216,0.122,0.244,0.488,71.763
112517,132081,9715,-0.141,0.997,0.217,0.061,0.305,0.549,71.767
112517,132079,10131,-0.143,0.998,0.216,0.061,0.305,0.549,71.773
112494,132081,9715,-0.142,1,0.214,-0.061,0.366,0.732,71.777
112494,132064,10129,-0.142,0.999,0.213,-0.061,0.366,0.732,71.783
112460,132081,9715,-0.14,0.996,0.218,-0.061,0.244,0.854,71.787
112460,132028,10124,-0.141,0.998,0.215,-0.061,0.244,0.854,71.793
112433,132081,9715,-0.138,0.996,0.218,-0.244,0.305,0.854,71.797
112433,132011,10125,-0.141,0.998,0.216,-0.244,0.305,0.854,71.803
112450,132081,9715,-0.14,1,0.214,-0.305,0.366,0.976,71.807
112450,132008,10126,-0.14,0.998,0.21,-0.305,0.366,0.976,71.813
112444,132081,9715,-0.141,1,0.216,-0.61,0.305,1.037,71.817
112444,132043,10137,-0.138,0.997,0.212,-0.61,0.305,1.037,71.823
112473,132081,9715,-0.139,1.001,0.212,-0.793,0.244,0.976,71.826
112473,132058,10118,-0.14,1.003,0.214,-0.793,0.244,0.976,71.833
112464,132081,9715,-0.141,1,0.212,-0.915,0.366,0.915,71.836
112464,132012,10102,-0.14,0.997,0.215,-0.915,0.366,0.915,71.843
112437,132081,9715,-0.139,0.997,0.22,-1.098,0.305,0.915,71.846
112437,132024,10138,-0.141,0.999,0.215,-1.098,0.305,0.915,71.852
112440,132081,9715,-0.14,1,0.216,-0.854,0.305,0.976,71.856
112440,132037,10129,-0.138,0.999,0.216,-0.854,0.305,0.976,71.862
112465,132081,9715,-0.14,0.999,0.218,-1.159,0.366,0.915,71.866
112465,132065,10122,-0.137,0.999,0.218,-1.159,0.366,0.915,71.872
112474,132081,9715,-0.137,0.999,0.219,-1.463,0.183,0.854,71.876
112474,132076,10125,-0.138,0.996,0.217,-1.463,0.183,0.854,71.882
112506,132081,9715,-0.138,0.998,0.218,-1.159,0.183,0.671,71.886
112506,132090,10142,-0.139,0.994,0.221,-1.159,0.183,0.671,71.892
112516,132081,9715,-0.139,0.997,0.22,-0.793,0.366,0.549,71.896
112516,132085,10128,-0.139,0.999,0.213,-0.793,0.366,0.549,71.902
112516,132081,9715,-0.142,0.995,0.212,-0.671,0.244,0.671,71.906
112516,132066,10132,-0.141,0.997,0.216,-0.671,0.244,0.671,71.912
112485,132081,9715,-0.14,1.001,0.216,-0.61,0.244,0.671,71.916
112485,132046,10141,-0.139,0.999,0.218,-0.61,0.244,0.671,71.922
112468,132081,9715,-0.14,0.998,0.216,-0.366,0.305,0.549,71.925
112468,132059,10138,-0.141,0.998,0.221,-0.366,0.305,0.549,71.932
112438,132081,9715,-0.142,0.998,0.219,0,0.305,0.488,71.935
112438,132043,10133,-0.138,0.996,0.219,0,0.305,0.488,71.942
112427,132081,9715,-0.139,0.997,0.216,0.244,0.305,0.671,71.945
112427,132006,10128,-0.139,0.997,0.218,0.244,0.305,0.671,71.951
112421,132081,9715,-0.139,0.995,0.215,0.427,0.427,0.61,71.955
112421,131966,10114,-0.138,0.995,0.219,0.427,0.427,0.61,71.961
112372,132081,9715,-0.136,0.996,0.217,0.61,0.305,0.427,71.965
112372,131914,10127,-0.135,0.994,0.216,0.61,0.305,0.427,71.971
112344,132081,9715,-0.138,0.996,0.215,0.976,0.183,0.427,71.975
112344,131849,10129,-0.139,0.997,0.218,0.976,0.183,0.427,71.981
112313,131825,9715,-0.141,1.001,0.217,1.098,0.183,0.549,71.985
112313,131826,10091,-0.138,1.005,0.211,1.098,0.183,0.549,71.991
112294,131825,9715,-0.14,1,0.213,0.793,0.305,0.488,71.995
112294,131826,10098,-0.14,0.998,0.218,0.793,0.305,0.488,72.001
112285,131825,9715,-0.138,0.997,0.217,0.671,0.427,0.427,72.005
112285,131826,10114,-0.138,0.998,0.214,0.671,0.427,0.427,72.011
112295,131825,9715,-0.138,0.998,0.214,0.671,0.427,0.427,72.015
112295,131811,10102,-0.139,0.999,0.212,0.793,0.427,0.488,72.021
112283,131825,9715,-0.139,0.999,0.212,0.793,0.427,0.488,72.024
112283,131815,10109,-0.143,0.994,0.217,0.854,0.427,0.61,72.031
112300,132081,9715,-0.143,0.994,0.217,0.854,0.427,0.61,72.034
112300,131861,10109,-0.142,0.998,0.214,0.976,0.427,0.732,72.04
112321,131825,9715,-0.142,0.998,0.214,0.976,0.427,0.732,72.044
112321,131834,10109,-0.14,1,0.212,0.488,0.305,0.976,72.05
112319,132081,9715,-0.14,1,0.212,0.488,0.305,0.976,72.054
112319,131852,10107,-0.139,1.003,0.214,-0.122,0.122,1.22,72.06
112316,132081,9715,-0.139,1.003,0.214,-0.122,0.122,1.22,72.064
112316,131851,10121,-0.136,1.002,0.217,-0.549,0.183,1.037,72.07
112311,132081,9715,-0.136,1.002,0.217,-0.549,0.183,1.037,72.074
112311,131855,10116,-0.137,0.999,0.217,-0.671,0.366,0.732,72.08
112301,132081,9715,-0.137,0.999,0.217,-0.671,0.366,0.732,72.084
112301,131845,10118,-0.139,0.998,0.212,-0.793,0.488,0.488,72.09
112317,131825,9715,-0.139,0.998,0.212,-0.793,0.488,0.488,72.094
112317,131817,10110,-0.137,0.997,0.215,-0.549,0.488,0.244,72.1
112282,131825,9715,-0.137,0.997,0.215,-0.549,0.488,0.244,72.104
112282,131787,10113,-0.137,0.998,0.216,-0.366,0.488,0,72.11
112251,131825,9715,-0.137,0.998,0.216,-0.366,0.488,0,72.114
112251,131788,10100,-0.138,0.993,0.215,0,0.427,-0.061,72.12
112238,131825,9715,-0.138,0.993,0.215,0,0.427,-0.061,72.123
112238,131717,10093,-0.142,0.995,0.219,0.183,0.366,0,72.13
112182,131825,9715,-0.142,0.995,0.219,0.183,0.366,0,72.133
112182,131659,10098,-0.14,0.999,0.217,0.305,0.244,0.183,72.14
112114,131825,9715,-0.14,0.999,0.217,0.305,0.244,0.183,72.143
112114,131600,10077,-0.143,1,0.215,0.549,0.183,0.366,72.149
112079,131569,9715,-0.143,1,0.215,0.549,0.183,0.366,72.153
112079,131543,10101,-0.138,1.001,0.217,0.427,0.244,0.549,72.159
112055,131569,9715,-0.14,0.999,0.214,0.427,0.244,0.549,72.163
112055,131507,10084,-0.14,1,0.213,0.549,0.305,0.732,72.169
112035,131569,9715,-0.142,0.998,0.218,0.549,0.305,0.732,72.173
112035,131460,10075,-0.141,0.995,0.216,0.427,0.427,0.854,72.179
112001,131569,9715,-0.14,1,0.213,0.427,0.427,0.854,72.183
112001,131409,10096,-0.135,1.001,0.214,0,0.366,1.037,72.189
111972,131569,9715,-0.136,0.999,0.214,0,0.366,1.037,72.193
111972,131413,10097,-0.138,0.996,0.216,-0.244,0.183,1.098,72.199
111970,131569,9715,-0.137,0.994,0.219,-0.244,0.183,1.098,72.203
111970,131380,10088,-0.139,0.995,0.213,0.061,0.427,0.976,72.209
111964,131569,9715,-0.141,1,0.216,0.061,0.427,0.976,72.213
111964,131375,10083,-0.138,0.998,0.214,0.244,0.549,0.915,72.219
111937,131569,9715,-0.136,0.998,0.213,0.244,0.549,0.915,72.222
111937,131384,10089,-0.136,0.997,0.212,-0.061,0.244,0.976,72.229
111936,131569,9715,-0.137,0.999,0.213,-0.061,0.244,0.976,72.232
111936,131354,10065,-0.137,1.001,0.21,-0.427,0.305,0.854,72.238
111977,131569,9715,-0.136,0.998,0.212,-0.427,0.305,0.854,72.242
111977,131417,10073,-0.135,0.996,0.216,-0.366,0.305,0.671,72.248
112043,131569,9715,-0.136,0.995,0.214,-0.366,0.305,0.671,72.252
112043,131485,10081,-0.136,0.999,0.21,-0.488,0.244,0.793,72.258
112099,131569,9715,-0.139,0.999,0.215,-0.488,0.244,0.793,72.262
112099,131524,10088,-0.138,0.997,0.216,-0.549,0.122,0.854,72.268
112132,131825,9715,-0.138,1.001,0.213,-0.549,0.122,0.854,72.272
112132,131596,10092,-0.136,1.002,0.213,-0.549,0.244,0.732,72.278
112166,131825,9715,-0.139,1,0.213,-0.549,0.244,0.732,72.282
112166,131655,10106,-0.141,0.997,0.217,-0.427,0.488,0.793,72.288
112199,131825,9715,-0.141,0.997,0.212,-0.427,0.488,0.793,72.292
112199,131667,10094,-0.135,0.997,0.212,-0.61,0.427,0.854,72.298
112255,131825,9715,-0.136,0.999,0.217,-0.61,0.427,0.854,72.302
112255,131742,10101,-0.136,0.997,0.216,-0.488,0.305,0.915,72.308
112280,131825,9715,-0.133,0.999,0.212,-0.488,0.305,0.915,72.312
112280,131765,10102,-0.136,0.999,0.212,-0.549,0.244,0.854,72.318
112308,131825,9715,-0.136,0.999,0.214,-0.549,0.244,0.854,72.321
112308,131768,10101,-0.137,0.995,0.215,-0.427,0.305,0.732,72.328
112287,131825,9715,-0.137,0.997,0.215,-0.427,0.305,0.732,72.331
112287,131755,10116,-0.135,1.003,0.214,-0.427,0.427,0.671,72.338
112294,131825,9715,-0.133,1.001,0.215,-0.427,0.427,0.671,72.341
112294,131757,10097,-0.134,0.994,0.215,-0.183,0.427,0.488,72.347
112250,131825,9715,-0.134,0.996,0.214,-0.183,0.427,0.488,72.351
112250,131714,10092,-0.136,0.998,0.218,0.366,0.488,0.244,72.357
112220,131825,9715,-0.139,0.998,0.214,0.366,0.488,0.244,72.361
112220,131655,10104,-0.139,0.995,0.215,0.488,0.549,0.183,72.367
112210,131825,9715,-0.136,0.995,0.216,0.488,0.549,0.183,72.371
112210,131628,10101,-0.138,0.996,0.214,0.61,0.366,0.244,72.377
112201,131825,9715,-0.139,0.995,0.218,0.61,0.366,0.244,72.381
112201,131627,10084,-0.14,0.996,0.214,0.671,0.427,0.488,72.387
112176,131825,9715,-0.139,0.996,0.216,0.671,0.427,0.488,72.391
112176,131617,10096,-0.139,1.001,0.214,0.549,0.427,0.61,72.397
112194,131825,9715,-0.14,1.001,0.213,0.549,0.427,0.61,72.401
112194,131613,10090,-0.138,1,0.213,0.122,0.244,0.732,72.407
112201,131825,9715,-0.136,0.999,0.213,0.122,0.244,0.732,72.411
112201,131649,10100,-0.137,1,0.21,0.183,0.366,0.793,72.417
112229,131825,9715,-0.138,1.001,0.214,0.183,0.366,0.793,72.42
112229,131658,10098,-0.138,1.003,0.212,-0.122,0.366,0.854,72.427
112230,131825,9715,-0.135,0.998,0.215,-0.122,0.366,0.854,72.43
112230,131683,10086,-0.134,0.996,0.214,-0.183,0.183,0.793,72.436
112242,131825,9715,-0.134,1.003,0.213,-0.183,0.183,0.793,72.44
112242,131696,10085,-0.136,1.003,0.211,-0.244,0.366,0.732,72.446
112239,131825,9715,-0.137,1,0.216,-0.244,0.366,0.732,72.45
112239,131741,10094,-0.135,0.999,0.216,-0.366,0.305,0.671,72.456
112229,131825,9715,-0.135,0.997,0.213,-0.366,0.305,0.671,72.46
112229,131711,10086,-0.138,0.995,0.218,-0.244,0.305,0.549,72.466
112245,131825,9715,-0.137,0.999,0.212,-0.244,0.305,0.549,72.47
112245,131704,10103,-0.137,0.998,0.213,-0.122,0.549,0.488,72.476
112250,131825,9715,-0.14,1,0.219,-0.122,0.549,0.488,72.48
112250,131718,10097,-0.137,1.001,0.213,-0.183,0.488,0.427,72.486
112263,131825,9715,-0.135,1,0.215,-0.183,0.488,0.427,72.49
112263,131705,10094,-0.135,0.997,0.217,-0.244,0.366,0.427,72.496
112267,131825,9715,-0.133,0.996,0.216,-0.244,0.366,0.427,72.5
112267,131695,10084,-0.137,0.999,0.214,-0.061,0.488,0.366,72.506
112255,131825,9715,-0.136,0.999,0.217,-0.061,0.488,0.366,72.51
112255,131681,10084,-0.133,0.996,0.218,0.183,0.366,0.366,72.516
112226,131825,9715,-0.137,0.996,0.215,0.183,0.366,0.366,72.519
112226,131656,10104,-0.138,1,0.215,0.549,0.427,0.366,72.526
112194,131825,9715,-0.137,1.003,0.215,0.549,0.427,0.366,72.529
112194,131614,10093,-0.138,1.001,0.214,0.549,0.549,0.427,72.536
112149,131569,9715,-0.138,1.001,0.21,0.549,0.549,0.427,72.539
112149,131558,10062,-0.138,1,0.212,0.122,0.366,0.549,72.545
112102,131569,9715,-0.138,0.998,0.216,0.122,0.366,0.549,72.549
112102,131507,10098,-0.137,0.998,0.213,-0.183,0.305,0.61,72.555
112097,131569,9715,-0.135,1.003,0.211,-0.183,0.305,0.61,72.559
112097,131500,10084,-0.137,1.001,0.213,-0.427,0.305,0.732,72.565
112075,131569,9715,-0.136,1,0.213,-0.427,0.305,0.732,72.569
112075,131464,10076,-0.136,0.999,0.213,-0.61,0.366,0.671,72.575
112080,131569,9715,-0.136,0.995,0.215,-0.61,0.366,0.671,72.579
112080,131430,10074,-0.134,0.997,0.211,-0.549,0.427,0.549,72.585
112038,131569,9715,-0.136,1.001,0.214,-0.549,0.427,0.549,72.589
112038,131418,10076,-0.135,1,0.216,-0.915,0.305,0.305,72.595
112026,131569,9715,-0.135,1,0.216,-0.915,0.305,0.305,72.599
112026,131387,10063,-0.132,0.998,0.216,-0.854,0.183,0.244,72.605
111990,131569,9715,-0.132,0.998,0.216,-0.854,0.183,0.244,72.609
111990,131330,10066,-0.137,1.004,0.219,-0.671,0.244,0.061,72.615
111942,131313,9715,-0.137,1.004,0.219,-0.671,0.244,0.061,72.618
111942,131304,10073,-0.139,1.001,0.217,-0.427,0.244,0,72.625
111961,131313,9715,-0.139,1.001,0.217,-0.427,0.244,0,72.628
111961,131298,10079,-0.136,0.999,0.214,-0.549,0.488,-0.061,72.634
111957,131313,9715,-0.136,0.999,0.214,-0.549,0.488,-0.061,72.638
111957,131295,10064,-0.138,0.992,0.215,0.061,0.549,-0.061,72.644
111969,131313,9715,-0.138,0.992,0.215,0.061,0.549,-0.061,72.648
111969,131322,10072,-0.138,0.997,0.214,0.61,0.671,0.061,72.654
111984,131569,9715,-0.138,0.997,0.214,0.61,0.671,0.061,72.658
111984,131343,10063,-0.139,0.992,0.217,1.037,0.488,0.305,72.664
111988,131569,9715,-0.139,0.992,0.217,1.037,0.488,0.305,72.668
111988,131353,10078,-0.137,1.001,0.215,1.22,0.305,0.488,72.674
112026,131569,9715,-0.137,1.001,0.215,1.22,0.305,0.488,72.678
112026,131393,10086,-0.139,0.997,0.213,1.463,0.244,0.61,72.684
112049,131569,9715,-0.139,0.997,0.213,1.463,0.244,0.61,72.688
112049,131375,10090,-0.135,0.999,0.211,1.22,0.366,0.549,72.694
112031,131569,9715,-0.135,0.999,0.211,1.22,0.366,0.549,72.698
112031,131403,10072,-0.136,1.003,0.214,0.915,0.244,0.366,72.704
112032,131569,9715,-0.136,1.003,0.214,0.915,0.244,0.366,72.708
112032,131391,10082,-0.134,1.003,0.211,0.549,0.305,0.061,72.714
112026,131569,9715,-0.134,1.003,0.211,0.549,0.305,0.061,72.717
112026,131384,10069,-0.138,1.005,0.211,0.244,0.549,-0.366,72.724
112004,131569,9715,-0.138,1.005,0.211,0.244,0.549,-0.366,72.727
112004,131345,10059,-0.136,1.002,0.213,-0.244,0.488,-0.549,72.734
111988,131313,9715,-0.136,1.002,0.213,-0.244,0.488,-0.549,72.737
111988,131321,10065,-0.138,1,0.215,-0.61,0.488,-0.549,72.743
111995,131569,9715,-0.138,1,0.215,-0.61,0.488,-0.549,72.747
111995,131329,10074,-0.137,0.997,0.213,-0.61,0.488,-0.549,72.753
111977,131569,9715,-0.141,0.997,0.215,-0.732,0.671,-0.488,72.757
111977,131336,10064,-0.141,0.996,0.213,-0.732,0.671,-0.488,72.763
112002,131569,9715,-0.141,0.999,0.213,-1.037,0.61,-0.183,72.767
112002,131347,10074,-0.137,0.998,0.215,-1.037,0.61,-0.183,72.773
111979,131569,9715,-0.138,0.995,0.219,-1.463,0.244,0.183,72.777
111979,131345,10074,-0.139,0.994,0.218,-1.463,0.244,0.183,72.783
112003,131569,9715,-0.137,0.996,0.215,-1.463,0.305,0.427,72.787
112003,131357,10072,-0.138,0.997,0.213,-1.463,0.305,0.427,72.793
112019,131569,9715,-0.139,0.999,0.216,-1.463,0.427,0.61,72.797
112019,131385,10083,-0.138,1.001,0.218,-1.463,0.427,0.61,72.803
112050,131569,9715,-0.135,0.999,0.213,-1.768,0.244,0.854,72.807
112050,131413,10067,-0.134,0.999,0.212,-1.768,0.244,0.854,72.813
112061,131569,9715,-0.135,0.997,0.215,-1.402,0.244,0.854,72.816
112061,131410,10076,-0.14,0.998,0.219,-1.402,0.244,0.854,72.823
112063,131569,9715,-0.135,0.998,0.218,-0.854,0.366,0.671,72.826
112063,131405,10081,-0.137,1,0.216,-0.854,0.366,0.671,72.833
112054,131569,9715,-0.136,1.001,0.215,-0.305,0.305,0.61,72.836
112054,131380,10088,-0.136,0.997,0.214,-0.305,0.305,0.61,72.842
112044,131569,9715,-0.136,0.998,0.217,0.427,0.366,0.488,72.846
112044,131359,10072,-0.138,0.997,0.215,0.427,0.366,0.488,72.852
112028,131569,9715,-0.137,0.998,0.213,0.61,0.549,0.244,72.856
112028,131360,10068,-0.138,1,0.213,0.61,0.549,0.244,72.862
111996,131569,9715,-0.135,0.997,0.215,0.488,0.427,0.244,72.866
111996,131337,10058,-0.135,1,0.218,0.488,0.427,0.244,72.872
111957,131313,9715,-0.136,1,0.216,0.549,0.366,0.305,72.876
111957,131301,10069,-0.138,1,0.212,0.549,0.366,0.305,72.882
111949,131313,9715,-0.139,0.998,0.214,0.732,0.549,0.122,72.886
111949,131281,10072,-0.135,0.998,0.219,0.732,0.549,0.122,72.892
111937,131313,9715,-0.137,0.994,0.213,0.854,0.488,0.122,72.896
111937,131302,10068,-0.139,0.996,0.212,0.854,0.488,0.122,72.902
111938,131313,9715,-0.139,0.999,0.214,0.854,0.427,0.305,72.906
111938,131274,10062,-0.137,1,0.213,0.854,0.427,0.305,72.912
111949,131313,9715,-0.139,1,0.212,0.549,0.366,0.488,72.915
111949,131300,10074,-0.137,0.999,0.215,0.549,0.366,0.488,72.922
111983,131569,9715,-0.14,0.998,0.212,0.122,0.244,0.61,72.925
111983,131332,10070,-0.138,1.001,0.212,0.122,0.244,0.61,72.932
112035,131569,9715,-0.134,1,0.209,-0.305,0.305,0.549,72.935
112035,131372,10059,-0.136,1.002,0.213,-0.305,0.305,0.549,72.941
112103,131569,9715,-0.132,1.003,0.212,-0.854,0.244,0.549,72.945
112103,131429,10078,-0.133,1.002,0.21,-0.854,0.244,0.549,72.951
112153,131569,9715,-0.136,1.002,0.212,-1.22,0.244,0.427,72.955
112153,131531,10107,-0.136,1.005,0.215,-1.22,0.244,0.427,72.961
112255,131825,9715,-0.136,1.001,0.209,-1.28,0.427,0.244,72.965
112255,131617,10086,-0.136,0.998,0.216,-1.28,0.427,0.244,72.971
112310,131825,9715,-0.135,0.997,0.217,-1.098,0.488,0.061,72.975
112310,131671,10111,-0.137,1,0.214,-1.098,0.488,0.061,72.981
112340,131825,9715,-0.139,0.994,0.222,-0.976,0.488,0,72.985
112340,131722,10105,-0.138,0.999,0.213,-0.976,0.488,0,72.991
112352,131825,9715,-0.139,0.997,0.215,-0.793,0.488,0,72.995
112352,131728,10115,-0.138,0.996,0.223,-0.793,0.488,0,73.001
112349,131825,9715,-0.136,0.998,0.212,-0.671,0.488,0.061,73.005
112349,131754,10096,-0.139,0.994,0.215,-0.671,0.488,0.061,73.011
112354,131825,9715,-0.138,0.997,0.219,-0.366,0.366,0.183,73.014
112354,131747,10091,-0.137,0.998,0.214,-0.366,0.366,0.183,73.021
112343,131825,9715,-0.138,0.999,0.221,-0.061,0.366,0.366,73.024
112343,131753,10098,-0.138,0.995,0.218,-0.061,0.366,0.366,73.031
112312,131825,9715,-0.138,1,0.209,0.122,0.244,0.488,73.034
112312,131727,10097,-0.135,1.001,0.214,0.122,0.244,0.488,73.04
112302,131825,9715,-0.136,1,0.219,0.244,0.305,0.61,73.044
112302,131698,10102,-0.137,1,0.215,0.244,0.305,0.61,73.05
112242,131825,9715,-0.138,0.998,0.217,0.488,0.427,0.61,73.054
112242,131632,10084,-0.136,1,0.216,0.488,0.427,0.61,73.06
112201,131569,9715,-0.136,1.003,0.211,0.488,0.427,0.488,73.064
112201,131557,10084,-0.137,1.002,0.215,0.488,0.427,0.488,73.07
112153,131569,9715,-0.135,0.997,0.216,0.61,0.366,0.427,73.074
112153,131482,10078,-0.137,0.999,0.213,0.61,0.366,0.427,73.08
112087,131569,9715,-0.14,0.999,0.216,0.671,0.549,0.366,73.084
112087,131419,10075,-0.139,1,0.213,0.671,0.549,0.366,73.09
112041,131569,9715,-0.139,1.004,0.213,0.183,0.427,0.244,73.094
112041,131379,10071,-0.137,1.001,0.214,0.183,0.427,0.244,73.1
112031,131569,9715,-0.136,1.002,0.216,0.061,0.305,0.183,73.104
112031,131374,10074,-0.135,1,0.214,0.061,0.305,0.183,73.11
112057,131569,9715,-0.137,1,0.21,-0.061,0.488,-0.061,73.113
112057,131394,10046,-0.138,0.997,0.212,-0.061,0.488,-0.061,73.12
112085,131569,9715,-0.138,0.998,0.214,-0.061,0.427,-0.183,73.123
112085,131428,10063,-0.134,0.999,0.211,-0.061,0.427,-0.183,73.13
112105,131569,9715,-0.136,0.999,0.215,-0.244,0.366,-0.122,73.133
112105,131427,10068,-0.137,1,0.213,-0.244,0.366,-0.122,73.139
112140,131569,9715,-0.137,1.002,0.211,-0.366,0.488,-0.183,73.143
112140,131514,10088,-0.14,1.001,0.217,-0.366,0.488,-0.183,73.149
112180,131569,9715,-0.138,1,0.214,-0.366,0.427,-0.366,73.153
112180,131525,10097,-0.137,0.999,0.215,-0.366,0.427,-0.366,73.159
112215,131825,9715,-0.138,1,0.219,-0.366,0.366,-0.427,73.163
112215,131618,10073,-0.137,0.999,0.215,-0.366,0.366,-0.427,73.169
112277,131825,9715,-0.137,1,0.215,-0.061,0.549,-0.427,73.173
112277,131703,10095,-0.141,0.998,0.214,-0.061,0.549,-0.427,73.179
112334,131825,9715,-0.142,0.994,0.216,0.183,0.671,-0.488,73.183
112334,131732,10095,-0.141,0.998,0.211,0.183,0.671,-0.488,73.189
112369,131825,9715,-0.141,0.998,0.211,0.183,0.671,-0.488,73.193
112369,131801,10100,-0.137,0.995,0.216,-0.061,0.488,-0.244,73.199
112409,132081,9715,-0.137,0.995,0.216,-0.061,0.488,-0.244,73.203
112409,131840,10105,-0.137,0.997,0.218,-0.244,0.305,-0.061,73.209
112404,131825,9715,-0.137,0.997,0.218,-0.244,0.305,-0.061,73.212
112404,131830,10107,-0.137,0.997,0.218,-0.122,0.366,-0.122,73.219
112398,131825,9715,-0.137,0.997,0.218,-0.122,0.366,-0.122,73.222
112398,131805,10105,-0.138,1.001,0.213,0.122,0.244,0,73.229
112356,131825,9715,-0.138,1.001,0.213,0.122,0.244,0,73.232
112356,131759,10096,-0.14,1,0.213,0,0.366,0,73.238
112312,131825,9715,-0.14,1,0.213,0,0.366,0,73.242
112312,131689,10077,-0.141,0.998,0.214,-0.122,0.427,0,73.248
112272,131825,9715,-0.141,0.998,0.214,-0.122,0.427,0,73.252
112272,131660,10083,-0.139,0.999,0.211,0.061,0.488,0.061,73.258
112248,131825,9715,-0.139,0.999,0.211,0.061,0.488,0.061,73.262
112248,131627,10096,-0.141,1.001,0.21,0,0.549,0.244,73.268
112210,131569,9715,-0.141,1.001,0.21,0,0.549,0.244,73.272
112210,131579,10092,-0.139,0.999,0.214,-0.244,0.366,0.305,73.278
112192,131825,9715,-0.139,0.999,0.214,-0.244,0.366,0.305,73.282
112192,131595,10092,-0.14,0.995,0.214,-0.061,0.427,0.244,73.288
112203,131825,9715,-0.14,0.995,0.214,-0.061,0.427,0.244,73.292
112203,131595,10087,-0.139,1.001,0.213,0.061,0.671,0.305,73.298
112194,131825,9715,-0.139,1.001,0.213,0.061,0.671,0.305,73.302
112194,131585,10081,-0.136,1,0.216,-0.427,0.366,0.305,73.308
112209,131825,9715,-0.136,1,0.216,-0.427,0.366,0.305,73.311
112209,131603,10084,-0.138,0.995,0.217,-0.549,0.305,0.244,73.318
112246,131825,9715,-0.138,0.995,0.217,-0.549,0.305,0.244,73.321
112246,131609,10087,-0.137,1.002,0.212,-0.549,0.549,0.061,73.328
112237,131825,9715,-0.137,1.002,0.212,-0.549,0.549,0.061,73.331
112237,131649,10087,-0.135,0.998,0.217,-0.915,0.427,-0.122,73.337
112276,131825,9715,-0.135,0.998,0.217,-0.915,0.427,-0.122,73.341
112276,131689,10092,-0.137,0.995,0.22,-0.61,0.366,-0.183,73.347
112334,131825,9715,-0.14,0.996,0.218,-0.61,0.366,-0.183,73.351
112334,131743,10100,-0.142,0.995,0.214,-0.183,0.61,-0.305,73.357
112368,131825,9715,-0.142,0.999,0.216,-0.183,0.61,-0.305,73.361
112368,131789,10108,-0.141,0.999,0.214,-0.061,0.549,-0.366,73.367
112414,132081,9715,-0.14,0.996,0.215,-0.061,0.549,-0.366,73.371
112414,131842,10111,-0.14,0.997,0.217,-0.183,0.366,-0.122,73.377
112446,132081,9715,-0.139,0.999,0.215,-0.183,0.366,-0.122,73.381
112446,131867,10112,-0.14,0.999,0.213,0,0.305,-0.061,73.387
112478,132081,9715,-0.141,0.999,0.213,0,0.305,-0.061,73.391
112478,131905,10106,-0.144,1.003,0.219,-0.183,0.427,-0.122,73.397
112490,132081,9715,-0.14,1,0.218,-0.183,0.427,-0.122,73.401
112490,131943,10106,-0.14,0.995,0.216,-0.183,0.366,-0.061,73.407
112510,132081,9715,-0.14,0.995,0.215,-0.183,0.366,-0.061,73.41
112510,131953,10119,-0.142,0.996,0.214,0,0.549,0.122,73.417
112521,132081,9715,-0.142,0.998,0.214,0,0.549,0.122,73.42
112521,131970,10111,-0.141,0.995,0.209,-0.183,0.549,0.366,73.427
112532,132081,9715,-0.14,0.995,0.214,-0.183,0.549,0.366,73.43
112532,131998,10120,-0.141,1,0.212,-0.305,0.305,0.488,73.436
112540,132081,9715,-0.139,1,0.214,-0.305,0.305,0.488,73.44
112540,131996,10119,-0.14,0.999,0.217,-0.244,0.366,0.61,73.446
112559,132081,9715,-0.137,0.998,0.218,-0.244,0.366,0.61,73.45
112559,132014,10114,-0.139,0.998,0.217,-0.427,0.366,0.549,73.456
112567,132081,9715,-0.14,0.998,0.214,-0.427,0.366,0.549,73.46
112567,132046,10125,-0.14,0.998,0.216,-0.488,0.366,0.549,73.466
112562,132081,9715,-0.141,1,0.215,-0.488,0.366,0.549,73.47
112562,132060,10125,-0.142,1.001,0.214,-0.488,0.427,0.61,73.476
112597,132081,9715,-0.139,1,0.211,-0.488,0.427,0.61,73.48
112597,132090,10123,-0.136,1,0.207,-0.61,0.488,0.732,73.486
112625,132337,9715,-0.139,1.003,0.212,-0.61,0.488,0.732,73.49
112625,132104,10115,-0.142,1.001,0.216,-0.976,0.305,0.671,73.496
112653,132337,9715,-0.14,0.995,0.219,-0.976,0.305,0.671,73.5
112653,132138,10122,-0.137,0.995,0.217,-0.427,0.488,0.427,73.506
112673,132337,9715,-0.143,0.998,0.215,-0.427,0.488,0.427,73.509
112673,132141,10137,-0.142,1.001,0.212,-0.244,0.549,0.549,73.516
112681,132337,9715,-0.138,1,0.217,-0.244,0.549,0.549,73.519
112681,132186,10137,-0.138,0.998,0.217,-0.366,0.305,0.61,73.526
112696,132337,9715,-0.139,0.999,0.218,-0.366,0.305,0.61,73.529
112696,132202,10114,-0.14,0.999,0.212,-0.366,0.305,0.488,73.535
112715,132337,9715,-0.139,0.997,0.216,-0.366,0.305,0.488,73.539
112715,132190,10125,-0.14,0.997,0.217,-0.183,0.488,0.488,73.545
112715,132337,9715,-0.139,1,0.214,-0.183,0.488,0.488,73.549
112715,132215,10145,-0.137,0.999,0.214,-0.488,0.366,0.549,73.555
112727,132337,9715,-0.138,0.999,0.216,-0.488,0.366,0.549,73.559
112727,132237,10140,-0.137,1,0.219,-0.549,0.244,0.427,73.565
112730,132337,9715,-0.139,1.001,0.212,-0.549,0.244,0.427,73.569
112730,132218,10142,-0.142,0.998,0.212,-0.366,0.488,0.305,73.575
112727,132337,9715,-0.139,0.999,0.214,-0.366,0.488,0.305,73.579
112727,132238,10137,-0.137,0.997,0.215,-0.183,0.366,0.183,73.585
112720,132337,9715,-0.138,1,0.216,-0.183,0.366,0.183,73.589
112720,132204,10125,-0.138,1,0.216,0.122,0.366,0,73.595
112692,132337,9715,-0.139,0.996,0.216,0.122,0.366,0,73.599
112692,132185,10123,-0.139,1.002,0.213,0.183,0.549,0.122,73.605
112669,132337,9715,-0.142,1,0.213,0.183,0.549,0.122,73.609
112669,132162,10126,-0.143,0.997,0.216,0,0.427,0.183,73.615
112637,132337,9715,-0.139,0.997,0.218,0,0.427,0.183,73.618
112637,132168,10115,-0.139,0.999,0.218,-0.183,0.366,0.305,73.625
112639,132337,9715,-0.141,0.998,0.22,-0.183,0.366,0.305,73.628
112639,132144,10120,-0.141,0.994,0.214,-0.122,0.427,0.305,73.634
112635,132337,9715,-0.141,0.997,0.214,-0.122,0.427,0.305,73.638
112635,132153,10107,-0.139,0.997,0.213,-0.122,0.488,0.305,73.644
112663,132337,9715,-0.14,1,0.214,-0.122,0.488,0.305,73.648
112663,132188,10116,-0.139,0.998,0.215,-0.061,0.366,0.366,73.654
112666,132337,9715,-0.138,0.999,0.214,-0.061,0.366,0.366,73.658
112666,132158,10116,-0.138,1,0.215,-0.305,0.244,0.549,73.664
112650,132337,9715,-0.137,0.999,0.213,-0.305,0.244,0.549,73.668
112650,132173,10108,-0.14,0.999,0.219,-0.61,0.305,0.61,73.674
112678,132337,9715,-0.142,0.998,0.218,-0.61,0.305,0.61,73.678
112678,132205,10115,-0.14,0.997,0.216,-0.671,0.305,0.61,73.684
112673,132337,9715,-0.141,1.002,0.208,-0.671,0.305,0.61,73.688
112673,132226,10132,-0.141,1.002,0.213,-0.976,0.305,0.549,73.694
112696,132337,9715,-0.138,1.001,0.216,-0.976,0.305,0.549,73.698
112696,132218,10122,-0.137,0.999,0.218,-0.976,0.305,0.549,73.704
112700,132337,9715,-0.138,1,0.216,-0.976,0.305,0.549,73.708
112700,132229,10119,-0.138,1.002,0.215,-1.159,0.488,0.488,73.714
112687,132337,9715,-0.135,1,0.214,-1.159,0.488,0.488,73.717
112687,132204,10124,-0.137,0.997,0.215,-1.22,0.427,0.366,73.724
112673,132337,9715,-0.136,1.001,0.216,-1.22,0.427,0.366,73.727
112673,132216,10125,-0.136,1,0.217,-0.976,0.427,0.183,73.733
112690,132337,9715,-0.135,0.999,0.216,-0.976,0.427,0.183,73.737
112690,132213,10113,-0.136,0.994,0.222,-0.732,0.549,0,73.743
112684,132337,9715,-0.14,0.994,0.214,-0.732,0.549,0,73.747
112684,132187,10134,-0.139,0.992,0.216,-0.244,0.549,0,73.753
112661,132337,9715,-0.14,0.994,0.222,-0.244,0.549,0,73.757
112661,132154,10118,-0.139,1.001,0.216,0,0.366,0.183,73.763
112630,132337,9715,-0.14,0.997,0.216,0,0.366,0.183,73.767
112630,132123,10113,-0.14,0.997,0.219,0.061,0.305,0.244,73.773
112596,132337,9715,-0.139,0.996,0.219,0.061,0.305,0.244,73.777
112596,132099,10115,-0.144,0.995,0.217,0.122,0.366,0.244,73.783
112571,132081,9715,-0.144,0.995,0.217,0.122,0.366,0.244,73.787
112571,132065,10108,-0.14,0.998,0.216,-0.061,0.244,0.488,73.793
112568,132081,9715,-0.14,0.998,0.216,-0.061,0.244,0.488,73.797
112568,132071,10101,-0.14,1.001,0.215,-0.183,0.244,0.488,73.803
112573,132081,9715,-0.14,1.001,0.215,-0.183,0.244,0.488,73.806
112573,132073,10110,-0.138,1.004,0.219,-0.427,0.366,0.488,73.813
112575,132081,9715,-0.138,1.004,0.219,-0.427,0.366,0.488,73.816
112575,132049,10112,-0.136,0.996,0.215,-0.732,0.366,0.366,73.823
112557,132081,9715,-0.136,0.996,0.215,-0.732,0.366,0.366,73.826
112557,132017,10112,-0.137,1.001,0.217,-0.793,0.427,0.305,73.832
112540,132081,9715,-0.137,1.001,0.217,-0.793,0.427,0.305,73.836
112540,131984,10112,-0.137,1.001,0.218,-0.732,0.305,0,73.842
112509,132081,9715,-0.137,1.001,0.218,-0.732,0.305,0,73.846
112509,131957,10103,-0.136,0.997,0.217,-0.061,0.305,-0.244,73.852
112480,132081,9715,-0.136,0.997,0.217,-0.061,0.305,-0.244,73.856
112480,131956,10100,-0.138,0.994,0.217,0,0.732,-0.366,73.862
112494,132081,9715,-0.138,0.994,0.217,0,0.732,-0.366,73.866
112494,131967,10104,-0.142,0.997,0.214,-0.183,0.549,-0.122,73.872
112488,132081,9715,-0.142,0.997,0.214,-0.183,0.549,-0.122,73.876
112488,131963,10107,-0.14,0.994,0.219,0.305,0.427,0.122,73.882
112482,132081,9715,-0.14,0.994,0.219,0.305,0.427,0.122,73.886
112482,131959,10087,-0.143,0.996,0.217,0.366,0.427,0.305,73.892
112490,132081,9715,-0.143,0.996,0.217,0.366,0.427,0.305,73.896
112490,131983,10099,-0.14,1,0.218,0.305,0.183,0.488,73.902
112491,132081,9715,-0.14,1,0.218,0.305,0.183,0.488,73.906
112491,131979,10099,-0.139,0.998,0.216,0.488,0.244,0.61,73.912
112499,132081,9715,-0.139,0.998,0.216,0.488,0.244,0.61,73.915
112499,131980,10099,-0.143,1.001,0.216,0.671,0.488,0.61,73.922
112492,132081,9715,-0.143,1.001,0.216,0.671,0.488,0.61,73.925
112492,131976,10098,-0.14,0.999,0.219,0.671,0.488,0.61,73.931
112515,132081,9715,-0.138,1.003,0.212,0.549,0.305,0.671,73.935
112515,131977,10093,-0.14,1.003,0.213,0.549,0.305,0.671,73.941
112492,132081,9715,-0.138,1.001,0.216,-0.122,0.366,0.671,73.945
112492,131933,10088,-0.136,0.999,0.214,-0.122,0.366,0.671,73.951
112461,132081,9715,-0.137,1.002,0.213,-0.488,0.488,0.366,73.955
112461,131921,10090,-0.137,0.999,0.216,-0.488,0.488,0.366,73.961
112421,132081,9715,-0.135,0.998,0.217,-0.732,0.488,0.061,73.965
112421,131904,10101,-0.138,0.998,0.218,-0.732,0.488,0.061,73.971
112389,132081,9715,-0.138,0.997,0.219,-0.488,0.427,0,73.975
112389,131868,10090,-0.138,0.994,0.216,-0.488,0.427,0,73.981
112379,131825,9715,-0.14,0.997,0.214,-0.122,0.488,-0.122,73.985
112379,131819,10097,-0.143,0.994,0.218,-0.122,0.488,-0.122,73.991
112364,131825,9715,-0.142,0.999,0.22,-0.244,0.488,0,73.995
112364,131773,10080,-0.143,1.001,0.218,-0.244,0.488,0,74.001
112318,131825,9715,-0.142,0.998,0.222,-0.427,0.305,0.244,74.004
112318,131738,10083,-0.142,0.995,0.222,-0.427,0.305,0.244,74.011
112304,131825,9715,-0.141,0.999,0.218,-0.305,0.305,0.427,74.014
112304,131721,10073,-0.141,0.997,0.218,-0.305,0.305,0.427,74.021
112308,131825,9715,-0.142,1.001,0.221,-0.488,0.427,0.488,74.024
112308,131724,10081,-0.139,1,0.218,-0.488,0.427,0.488,74.03
112292,131825,9715,-0.139,0.998,0.219,-0.244,0.244,0.427,74.034
112292,131714,10106,-0.141,0.996,0.217,-0.244,0.244,0.427,74.04
112305,131825,9715,-0.14,0.995,0.214,0,0.488,0.549,74.044
112305,131727,10089,-0.141,0.997,0.218,0,0.488,0.549,74.05
112325,131825,9715,-0.138,0.997,0.211,0.122,0.427,0.793,74.054
112325,131787,10083,-0.139,0.994,0.215,0.122,0.427,0.793,74.06
112320,131825,9715,-0.139,0.995,0.219,0.244,0.427,0.854,74.064
112320,131780,10080,-0.139,0.998,0.218,0.244,0.427,0.854,74.07
112339,131825,9715,-0.139,0.996,0.213,0.488,0.366,0.915,74.074
112339,131760,10096,-0.137,0.999,0.216,0.488,0.366,0.915,74.08
112314,131825,9715,-0.139,1,0.214,0.549,0.305,0.915,74.084
112314,131758,10084,-0.139,1.001,0.216,0.549,0.305,0.915,74.09
112294,131825,9715,-0.137,0.998,0.216,0.488,0.244,0.976,74.094
112294,131707,10081,-0.138,0.999,0.214,0.488,0.244,0.976,74.1
112254,131825,9715,-0.139,0.999,0.217,0.671,0.305,0.915,74.103
112254,131662,10078,-0.14,1,0.214,0.671,0.305,0.915,74.11
112227,131825,9715,-0.136,1.001,0.213,0.427,0.488,0.854,74.113
112227,131656,10075,-0.136,1.002,0.215,0.427,0.488,0.854,74.12
112232,131825,9715,-0.14,0.999,0.213,0.183,0.305,0.854,74.123
112232,131674,10083,-0.139,0.996,0.217,0.183,0.305,0.854,74.129
112244,131825,9715,-0.14,0.996,0.216,0.183,0.427,0.793,74.133
112244,131672,10088,-0.142,1.002,0.21,0.183,0.427,0.793,74.139
112267,131825,9715,-0.139,1.007,0.215,-0.305,0.427,0.854,74.143
112267,131690,10076,-0.139,1.001,0.219,-0.305,0.427,0.854,74.149
112285,131825,9715,-0.139,1.002,0.217,-0.671,0.183,0.915,74.153
112285,131690,10071,-0.138,0.997,0.216,-0.671,0.183,0.915,74.159
112270,131825,9715,-0.14,1,0.218,-0.549,0.427,0.976,74.163
112270,131707,10082,-0.139,1.001,0.213,-0.549,0.427,0.976,74.169
112265,131825,9715,-0.143,1.001,0.216,-0.671,0.488,0.854,74.173
112265,131732,10079,-0.137,0.999,0.217,-0.671,0.488,0.854,74.179
112301,131825,9715,-0.137,0.997,0.216,-0.549,0.305,0.732,74.183
112301,131768,10094,-0.137,0.997,0.215,-0.549,0.305,0.732,74.189
112337,131825,9715,-0.137,0.998,0.217,-0.488,0.488,0.61,74.193
112337,131798,10083,-0.141,0.999,0.215,-0.488,0.488,0.61,74.199
112387,131825,9715,-0.141,1,0.213,-0.427,0.427,0.488,74.202
112387,131831,10082,-0.136,1,0.217,-0.427,0.427,0.488,74.209
112405,132081,9715,-0.132,0.998,0.215,-0.366,0.122,0.366,74.212
112405,131850,10080,-0.137,0.996,0.216,-0.366,0.122,0.366,74.219
112403,131825,9715,-0.139,0.997,0.219,0.122,0.305,0.244,74.222
112403,131829,10076,-0.139,0.997,0.215,0.122,0.305,0.244,74.228
112401,131825,9715,-0.141,0.997,0.216,0.305,0.427,0.244,74.232
112401,131821,10093,-0.14,1,0.215,0.305,0.427,0.244,74.238
112381,131825,9715,-0.139,1,0.215,0.366,0.366,0.427,74.242
112381,131795,10087,-0.14,0.999,0.219,0.366,0.366,0.427,74.248
112358,131825,9715,-0.139,0.998,0.221,0.671,0.366,0.366,74.252
112358,131794,10077,-0.138,0.994,0.214,0.671,0.366,0.366,74.258
112351,131825,9715,-0.143,0.995,0.215,0.854,0.488,0.366,74.262
112351,131775,10079,-0.14,0.998,0.218,0.854,0.488,0.366,74.268
112333,131825,9715,-0.137,0.999,0.22,0.61,0.183,0.671,74.272
112333,131788,10064,-0.14,1.001,0.214,0.61,0.183,0.671,74.278
112336,131825,9715,-0.139,1.004,0.213,0.061,0.183,0.915,74.282
112336,131766,10065,-0.136,1.001,0.215,0.061,0.183,0.915,74.288
112300,131825,9715,-0.136,1,0.214,0.061,0.366,0.915,74.292
112300,131755,10078,-0.137,0.997,0.214,0.061,0.366,0.915,74.298
112304,131825,9715,-0.14,0.999,0.217,0,0.427,0.793,74.301
112304,131725,10082,-0.139,1.002,0.214,0,0.427,0.793,74.308
112312,131825,9715,-0.139,1.001,0.216,-0.183,0.305,0.854,74.311
112312,131746,10074,-0.136,0.999,0.215,-0.183,0.305,0.854,74.318
112305,131825,9715,-0.139,1.001,0.215,0,0.427,0.793,74.321
112305,131734,10069,-0.136,1,0.214,0,0.427,0.793,74.327
112338,131825,9715,-0.136,1.002,0.214,-0.305,0.488,0.671,74.331
112338,131763,10073,-0.137,0.999,0.214,-0.305,0.488,0.671,74.337
112356,131825,9715,-0.137,0.995,0.219,-0.549,0.488,0.549,74.341
112356,131781,10079,-0.139,0.996,0.213,-0.549,0.488,0.549,74.347
112383,131825,9715,-0.137,1,0.214,-0.549,0.427,0.549,74.351
112383,131788,10073,-0.138,1.003,0.214,-0.549,0.427,0.549,74.357
112392,131825,9715,-0.136,1.004,0.215,-0.793,0.244,0.549,74.361
112392,131816,10073,-0.133,1,0.22,-0.793,0.244,0.549,74.367
112414,132081,9715,-0.133,1,0.22,-0.793,0.244,0.549,74.371
112414,131862,10082,-0.138,0.998,0.215,-0.427,0.366,0.366,74.377
112432,132081,9715,-0.138,0.998,0.215,-0.427,0.366,0.366,74.381
112432,131864,10085,-0.136,0.999,0.217,0.061,0.61,0.183,74.387
112444,132081,9715,-0.136,0.999,0.217,0.061,0.61,0.183,74.391
112444,131867,10077,-0.137,1,0.217,0.366,0.427,0.122,74.397
112463,132081,9715,-0.137,1,0.217,0.366,0.427,0.122,74.4
112463,131899,10088,-0.136,0.999,0.216,0.488,0.366,0.122,74.407
112437,132081,9715,-0.136,0.999,0.216,0.488,0.366,0.122,74.41
112437,131892,10089,-0.139,0.996,0.215,0.732,0.427,-0.061,74.417
112435,132081,9715,-0.139,0.996,0.215,0.732,0.427,-0.061,74.42
112435,131860,10086,-0.138,0.997,0.215,1.037,0.427,-0.122,74.426
112433,132081,9715,-0.138,0.997,0.215,1.037,0.427,-0.122,74.43
112433,131841,10075,-0.137,1.003,0.212,1.159,0.366,0,74.436
112404,131825,9715,-0.137,1.003,0.212,1.159,0.366,0,74.44
112404,131794,10076,-0.137,0.999,0.212,0.915,0.305,0.122,74.446
112368,131825,9715,-0.137,0.999,0.212,0.915,0.305,0.122,74.45
112368,131749,10091,-0.144,1.005,0.213,0.549,0.427,0,74.456
112348,131825,9715,-0.144,1.005,0.213,0.549,0.427,0,74.46
112348,131746,10070,-0.136,1.008,0.21,-0.244,0.427,-0.061,74.466
112344,131825,9715,-0.136,1.008,0.21,-0.244,0.427,-0.061,74.47
112344,131703,10072,-0.136,1.001,0.206,-1.037,0.305,-0.183,74.476
112323,131825,9715,-0.136,1.001,0.206,-1.037,0.305,-0.183,74.48
112323,131690,10066,-0.137,1.001,0.207,-1.463,0.61,-0.427,74.486
112307,131825,9715,-0.137,1.001,0.207,-1.463,0.61,-0.427,74.49
112307,131685,10058,-0.136,1.001,0.209,-2.195,0.732,-0.671,74.496
112292,131825,9715,-0.136,1.001,0.209,-2.195,0.732,-0.671,74.499
112292,131668,10057,-0.137,0.995,0.211,-2.5,0.549,-0.854,74.506
112271,131825,9715,-0.137,0.995,0.211,-2.5,0.549,-0.854,74.509
112271,131655,10067,-0.138,0.999,0.213,-2.805,0.488,-1.098,74.516
112304,131825,9715,-0.14,0.999,0.211,-2.805,0.488,-1.098,74.519
112304,131674,10056,-0.143,0.999,0.216,-3.171,0.488,-1.159,74.525
112340,131825,9715,-0.142,0.998,0.217,-3.171,0.488,-1.159,74.529
112340,131689,10058,-0.143,0.999,0.216,-3.354,0.427,-0.854,74.535
112365,131825,9715,-0.144,1.003,0.213,-3.354,0.427,-0.854,74.539
112365,131730,10073,-0.145,1.005,0.216,-3.841,0.61,-0.671,74.545
112387,131825,9715,-0.145,1,0.219,-3.841,0.61,-0.671,74.549
112387,131775,10075,-0.147,0.999,0.22,-4.146,0.61,-0.305,74.555
112376,131825,9715,-0.145,0.997,0.227,-4.146,0.61,-0.305,74.559
112376,131775,10075,-0.142,0.991,0.22,-4.268,0.549,0.244,74.565
112370,131825,9715,-0.145,0.992,0.22,-4.268,0.549,0.244,74.569
112370,131795,10063,-0.144,0.992,0.223,-4.451,0.305,0.793,74.575
112387,131825,9715,-0.143,0.996,0.222,-4.451,0.305,0.793,74.579
112387,131786,10067,-0.142,0.996,0.219,-4.39,0,1.28,74.585
112386,131825,9715,-0.137,0.998,0.221,-4.39,0,1.28,74.589
112386,131760,10065,-0.138,0.996,0.218,-4.146,-0.183,1.585,74.595
112377,131825,9715,-0.138,0.997,0.218,-4.146,-0.183,1.585,74.598
112377,131730,10069,-0.14,1,0.226,-4.024,-0.183,1.463,74.605
112351,131825,9715,-0.134,1,0.229,-4.024,-0.183,1.463,74.608
112351,131725,10075,-0.13,0.996,0.228,-3.476,-0.366,0.854,74.615
112360,131825,9715,-0.133,0.995,0.225,-3.476,-0.366,0.854,74.618
112360,131709,10081,-0.134,1.001,0.222,-2.195,0.061,0.061,74.624
112325,131825,9715,-0.132,1.007,0.219,-2.195,0.061,0.061,74.628
112325,131683,10068,-0.131,1.007,0.226,-1.524,0.427,-0.61,74.634
112303,131825,9715,-0.134,0.999,0.226,-1.524,0.427,-0.61,74.638
112303,131667,10074,-0.134,0.99,0.227,-0.61,0.427,-1.341,74.644
112319,131825,9715,-0.136,0.985,0.227,-0.61,0.427,-1.341,74.648
112319,131681,10078,-0.136,0.989,0.225,0.244,0.854,-1.89,74.654
112318,131825,9715,-0.141,0.99,0.224,0.244,0.854,-1.89,74.658
112318,131674,10070,-0.144,0.992,0.223,0.61,0.793,-1.829,74.664
112331,131825,9715,-0.143,0.994,0.221,0.61,0.793,-1.829,74.668
112331,131713,10060,-0.141,0.99,0.224,0.61,0.366,-1.524,74.674
112361,131825,9715,-0.144,0.989,0.222,0.61,0.366,-1.524,74.678
112361,131722,10062,-0.147,0.991,0.221,0.488,0.366,-1.22,74.684
112387,131825,9715,-0.146,0.995,0.222,0.488,0.366,-1.22,74.688
112387,131746,10081,-0.147,0.997,0.22,-0.549,0.488,-0.61,74.694
112441,131825,9715,-0.15,0.999,0.22,-0.549,0.488,-0.61,74.697
112441,131834,10070,-0.147,1,0.222,-1.402,0.061,0,74.704
112473,132081,9715,-0.145,0.998,0.224,-1.402,0.061,0,74.707
112473,131876,10091,-0.145,1,0.223,-1.829,0.061,0.244,74.714
112533,132081,9715,-0.146,1.002,0.224,-1.829,0.061,0.244,74.717
112533,131957,10077,-0.145,1,0.224,-2.317,0.427,0.488,74.723
112566,132081,9715,-0.144,1,0.22,-2.317,0.427,0.488,74.727
112566,131989,10089,-0.144,0.998,0.22,-2.683,0.305,0.793,74.733
112577,132081,9715,-0.145,1,0.221,-2.683,0.305,0.793,74.737
112577,132007,10090,-0.14,1.001,0.226,-3.049,0.366,0.976,74.743
112554,132081,9715,-0.141,1.001,0.224,-3.049,0.366,0.976,74.747
112554,131962,10097,-0.14,0.997,0.225,-2.683,0.366,0.793,74.753
112485,132081,9715,-0.139,0.989,0.226,-2.683,0.366,0.793,74.757
112485,131918,10095,-0.142,0.987,0.226,-1.951,0.427,0.732,74.763
112417,131825,9715,-0.141,0.991,0.23,-1.951,0.427,0.732,74.767
112417,131800,10065,-0.143,0.987,0.229,-1.768,0.61,1.098,74.773
112301,131825,9715,-0.144,0.99,0.226,-1.768,0.61,1.098,74.777
112301,131675,10065,-0.142,0.987,0.231,-1.707,0.183,1.463,74.783
112163,131569,9715,-0.143,0.985,0.227,-1.707,0.183,1.463,74.787
112163,131552,10052,-0.147,0.989,0.228,-1.768,-0.122,1.707,74.793
112036,131569,9715,-0.144,0.991,0.229,-1.768,-0.122,1.707,74.796
112036,131408,10042,-0.141,0.993,0.23,-1.951,-0.488,2.134,74.803
111889,131313,9715,-0.141,0.992,0.228,-1.951,-0.488,2.134,74.806
111889,131229,10020,-0.142,0.995,0.228,-1.707,-0.854,2.317,74.813
111729,131057,9715,-0.138,0.996,0.227,-1.707,-0.854,2.317,74.816
111729,131022,10020,-0.141,0.997,0.226,-1.22,-0.732,2.5,74.822
111543,131057,9715,-0.139,0.999,0.233,-1.22,-0.732,2.5,74.826
111543,130846,10004,-0.138,0.997,0.229,-0.915,-0.488,2.622,74.832
111357,130801,9715,-0.14,0.998,0.228,-0.915,-0.488,2.622,74.836
111357,130638,9985,-0.137,0.992,0.23,0,-0.366,2.5,74.842
111179,130545,9715,-0.14,0.993,0.225,0,-0.366,2.5,74.846
111179,130458,9945,-0.139,0.995,0.229,0.61,-0.061,2.5,74.852
111010,130289,9715,-0.139,1.002,0.231,0.61,-0.061,2.5,74.856
111010,130254,9957,-0.136,1.003,0.229,0.549,0,2.439,74.862
110865,130289,9715,-0.133,1.001,0.228,0.549,0,2.439,74.866
110865,130050,9935,-0.134,0.999,0.228,0.915,-0.061,1.951,74.872
110710,130033,9715,-0.133,0.996,0.232,0.915,-0.061,1.951,74.876
110710,129923,9901,-0.135,0.997,0.228,1.28,0.305,1.402,74.882
110667,130033,9715,-0.136,0.995,0.231,1.28,0.305,1.402,74.886
110667,129836,9888,-0.133,0.995,0.228,1.524,0.488,0.976,74.892
110598,129777,9715,-0.134,0.996,0.225,1.524,0.488,0.976,74.895
110598,129764,9906,-0.136,0.999,0.23,1.829,0.366,0.671,74.902
110575,129777,9715,-0.138,0.998,0.231,1.829,0.366,0.671,74.905
110575,129719,9874,-0.14,0.999,0.227,2.317,0.427,0.427,74.912
110525,129777,9715,-0.14,0.998,0.227,2.317,0.427,0.427,74.915
110525,129695,9899,-0.138,0.997,0.227,2.439,0.549,0.427,74.921
110561,129777,9715,-0.136,0.998,0.224,2.439,0.549,0.427,74.925
110561,129752,9896,-0.135,1.003,0.227,2.134,0.366,0.488,74.931
110578,130033,9715,-0.134,1.003,0.229,2.134,0.366,0.488,74.935
110578,129797,9892,-0.133,1.003,0.225,2.378,0.366,0.122,74.941
110622,130033,9715,-0.133,1,0.224,2.378,0.366,0.122,74.945
110622,129834,9904,-0.136,0.998,0.225,2.866,0.61,-0.427,74.951
110655,130033,9715,-0.136,0.998,0.225,2.866,0.61,-0.427,74.955
110655,129903,9910,-0.131,0.999,0.221,3.049,0.793,-0.915,74.961
110664,130033,9715,-0.131,0.999,0.221,3.049,0.793,-0.915,74.965
110664,129900,9905,-0.135,0.994,0.221,3.049,0.732,-1.22,74.971
