127106,142639,11358,-0.141,0.991,0.056,-2.805,-0.976,1.22,505.714
127103,142833,9715,-0.137,0.987,0.052,-2.805,-0.976,1.22,505.718
127103,142655,11374,-0.135,1.006,0.053,-1.098,-0.793,1.524,505.724
127087,142833,9715,-0.135,1.019,0.057,-1.098,-0.793,1.524,505.728
127087,142658,11362,-0.131,1.018,0.046,0.671,0.061,2.012,505.734
127193,142833,9715,-0.131,1.021,0.046,0.671,0.061,2.012,505.738
127193,142751,11370,-0.134,1.024,0.037,2.134,0.732,1.585,505.744
127161,142833,9715,-0.135,1.024,0.026,2.134,0.732,1.585,505.748
127161,142721,11369,-0.137,1.039,0.011,1.89,1.159,0.549,505.754
127222,142833,9715,-0.137,1.045,0.005,1.89,1.159,0.549,505.757
127222,142808,11370,-0.137,1.033,0.01,-0.61,0.549,0,505.764
127256,142833,9715,-0.135,1.027,0.016,-0.61,0.549,0,505.767
127256,142801,11368,-0.139,1.034,0.023,-4.207,-0.366,0.061,505.774
127181,142833,9715,-0.135,1.027,0.038,-4.207,-0.366,0.061,505.777
127181,142738,11366,-0.13,1.008,0.06,-5,-0.915,-0.061,505.783
127157,142833,9715,-0.125,0.992,0.075,-5,-0.915,-0.061,505.787
127157,142681,11365,-0.123,1.003,0.07,-0.122,-0.854,-0.854,505.793
127049,142833,9715,-0.125,1.013,0.059,-0.122,-0.854,-0.854,505.797
127049,142609,11361,-0.135,1.012,0.045,4.085,1.22,-1.829,505.803
127026,142577,9715,-0.145,1.016,0.027,4.085,1.22,-1.829,505.807
127026,142551,11358,-0.153,1.02,0.014,4.024,2.622,-2.195,505.813
127019,142577,9715,-0.154,1.01,0.026,4.024,2.622,-2.195,505.817
127019,142536,11345,-0.147,0.991,0.052,2.256,0.976,-0.976,505.823
127035,142833,9715,-0.137,0.973,0.066,2.256,0.976,-0.976,505.827
127035,142611,11361,-0.128,0.997,0.042,3.171,0.122,0.915,505.833
127025,142577,9715,-0.134,1.048,0,3.171,0.122,0.915,505.837
127025,142525,11354,-0.151,1.081,-0.025,1.341,1.829,1.341,505.843
126940,142577,9715,-0.155,1.067,-0.007,1.341,1.829,1.341,505.847
126940,142451,11357,-0.148,1.021,0.026,-3.78,0.244,0.427,505.853
126933,142577,9715,-0.137,0.977,0.05,-3.78,0.244,0.427,505.856
126933,142426,11350,-0.131,0.969,0.049,-4.695,-2.134,1.22,505.863
126839,142577,9715,-0.139,1.009,0.052,-4.695,-2.134,1.22,505.866
126839,142351,11333,-0.139,1.019,0.046,-2.805,-0.366,2.073,505.873
126890,142577,9715,-0.136,1.016,0.039,-2.805,-0.366,2.073,505.876
126890,142390,11345,-0.137,1.039,0.028,-0.122,0.488,1.585,505.882
126833,142321,9715,-0.143,1.051,0.032,-0.122,0.488,1.585,505.886
126833,142324,11341,-0.138,1.019,0.047,-0.61,0.061,1.098,505.892
126741,142321,9715,-0.131,0.995,0.05,-0.61,0.061,1.098,505.896
126741,142258,11343,-0.128,1.014,0.03,1.037,0,0.793,505.902
126759,142321,9715,-0.138,1.042,0.015,1.037,0,0.793,505.906
126759,142244,11340,-0.143,1.038,0.015,-0.305,0.915,0.061,505.912
126774,142321,9715,-0.143,1.016,0.026,-0.305,0.915,0.061,505.916
126774,142292,11341,-0.138,1.007,0.028,-1.524,-0.122,0.122,505.922
126822,142321,9715,-0.136,1.013,0.028,-1.524,-0.122,0.122,505.926
126822,142313,11345,-0.138,1.001,0.041,-2.866,-0.976,0.61,505.932
126738,142321,9715,-0.143,0.984,0.05,-2.866,-0.976,0.61,505.936
126738,142213,11324,-0.144,0.979,0.034,-1.098,-0.244,0.854,505.942
126759,142321,9715,-0.144,1.003,0.022,-1.098,-0.244,0.854,505.946
126759,142231,11335,-0.144,1.034,0.032,-2.988,-1.159,1.037,505.952
126753,142321,9715,-0.137,1.036,0.063,-2.988,-1.159,1.037,505.955
126753,142278,11340,-0.125,1.005,0.092,-2.561,-2.378,1.524,505.962
126732,142321,9715,-0.114,0.989,0.085,-2.561,-2.378,1.524,505.965
126732,142175,11316,-0.122,1.01,0.067,3.293,-0.244,1.22,505.972
126625,142321,9715,-0.132,1.053,0.04,3.293,-0.244,1.22,505.975
126625,142091,11321,-0.139,1.074,0.028,6.585,3.049,-0.427,505.981
126620,142321,9715,-0.135,1.046,0.032,6.585,3.049,-0.427,505.985
126620,142103,11335,-0.131,1.025,0.033,8.659,3.293,-1.646,505.991
126685,142321,9715,-0.131,1.026,0.021,8.659,3.293,-1.646,505.995
126685,142132,11323,-0.132,1.021,0.017,7.5,3.537,-2.012,506.001
126655,142321,9715,-0.133,1.005,0.025,7.5,3.537,-2.012,506.005
126655,142129,11336,-0.142,0.997,0.02,7.256,4.024,-2.195,506.011
126698,142321,9715,-0.149,1.005,0.002,7.256,4.024,-2.195,506.015
126698,142186,11343,-0.149,1.014,-0.01,6.585,3.598,-1.524,506.021
126725,142321,9715,-0.152,1.01,0.003,6.585,3.598,-1.524,506.025
126725,142204,11333,-0.152,0.999,0.045,4.207,1.585,-0.305,506.031
126660,142321,9715,-0.144,0.978,0.05,4.207,1.585,-0.305,506.035
126660,142136,11334,-0.134,0.962,0.031,0.732,-1.037,0.732,506.041
126577,142065,9715,-0.14,0.978,0.034,0.732,-1.037,0.732,506.045
126577,142024,11339,-0.15,1.012,0.043,-1.402,-0.549,1.707,506.051
126493,142065,9715,-0.15,1.021,0.062,-1.402,-0.549,1.707,506.054
126493,141902,11321,-0.132,1.004,0.071,1.098,-0.305,2.5,506.061
126494,142065,9715,-0.121,1.005,0.045,1.098,-0.305,2.5,506.064
126494,141916,11324,-0.128,1.055,0.004,3.72,-0.183,1.951,506.071
126497,142065,9715,-0.142,1.11,-0.016,3.72,-0.183,1.951,506.074
126497,141931,11320,-0.148,1.119,-0.007,0.61,1.89,0.854,506.08
126449,142065,9715,-0.145,1.081,0.005,0.61,1.89,0.854,506.084
126449,141828,11309,-0.133,1.041,0.032,-1.463,0.305,-0.061,506.09
126423,142065,9715,-0.121,1,0.052,-1.463,0.305,-0.061,506.094
126423,141860,11336,-0.117,0.982,0.047,0,-0.732,-0.915,506.1
126605,142065,9715,-0.13,1.003,0.026,0,-0.732,-0.915,506.104
126605,142070,11331,-0.145,1.021,0.024,4.085,2.561,-1.951,506.11
126549,142065,9715,-0.145,1.021,0.024,4.085,2.561,-1.951,506.114
126549,142006,11327,-0.145,0.996,0.049,6.951,3.232,-2.195,506.12
126467,142065,9715,-0.145,0.996,0.049,6.951,3.232,-2.195,506.124
126467,141919,11323,-0.136,0.981,0.034,5.671,0.732,-1.28,506.13
126574,142065,9715,-0.136,0.981,0.034,5.671,0.732,-1.28,506.134
126574,142034,11319,-0.143,0.977,0.012,4.268,0.793,-0.305,506.14
126495,142065,9715,-0.143,0.977,0.012,4.268,0.793,-0.305,506.144
126495,141948,11330,-0.152,1.02,-0.02,1.829,0.793,0.915,506.15
126391,141809,9715,-0.152,1.02,-0.02,1.829,0.793,0.915,506.153
126391,141751,11290,-0.143,1.055,-0.004,-4.146,-1.89,2.561,506.16
126243,141809,9715,-0.143,1.055,-0.004,-4.146,-1.89,2.561,506.163
126243,141630,11298,-0.13,1.006,0.069,-5.854,-4.024,3.232,506.17
126338,141809,9715,-0.13,1.006,0.069,-5.854,-4.024,3.232,506.173
126338,141746,11311,-0.128,1.047,0.042,-4.39,-2.073,2.012,506.179
126308,141809,9715,-0.128,1.047,0.042,-4.39,-2.073,2.012,506.183
126308,141714,11320,-0.141,1.055,0.027,-2.378,0.183,-0.122,506.189
126335,141809,9715,-0.141,1.055,0.027,-2.378,0.183,-0.122,506.193
126335,141721,11308,-0.143,1.02,0.026,0.366,0.427,-0.915,506.199
126318,141809,9715,-0.143,1.02,0.026,0.366,0.427,-0.915,506.203
126318,141712,11308,-0.14,0.996,0.045,1.89,0.732,-0.976,506.209
126320,141809,9715,-0.14,0.996,0.045,1.89,0.732,-0.976,506.213
126320,141706,11293,-0.137,0.976,0.024,3.841,0.976,-0.671,506.219
126254,141809,9715,-0.137,0.976,0.024,3.841,0.976,-0.671,506.223
126254,141599,11307,-0.152,1.027,0,2.317,1.341,0.61,506.229
126241,141809,9715,-0.152,1.027,0,2.317,1.341,0.61,506.233
126241,141635,11291,-0.135,0.996,0.045,0.854,-1.098,0.915,506.239
126357,141809,9715,-0.135,0.996,0.045,0.854,-1.098,0.915,506.243
126357,141768,11320,-0.127,0.987,0.059,0.366,-2.317,1.646,506.249
126257,141809,9715,-0.127,0.987,0.059,0.366,-2.317,1.646,506.252
126257,141648,11314,-0.133,1.011,0.052,0.366,-2.317,1.646,506.259
126109,141553,9715,-0.134,1.034,0.022,1.159,0.427,1.951,506.262
126109,141497,11272,-0.138,1.051,0.016,1.159,0.427,1.951,506.269
125931,141553,9715,-0.138,1.044,0.028,2.134,0.915,0.671,506.272
125931,141319,11277,-0.133,1.019,0.032,2.134,0.915,0.671,506.278
125735,141297,9715,-0.135,1.022,0.016,1.585,0.305,-0.305,506.282
125735,141093,11265,-0.144,1.054,-0.003,1.585,0.305,-0.305,506.288
125525,141041,9715,-0.145,1.057,-0.003,-1.098,1.159,-0.549,506.292
125525,140800,11236,-0.144,1.035,0.006,-1.098,1.159,-0.549,506.298
125257,140785,9715,-0.14,1.02,0.018,-1.707,0.183,-0.549,506.302
125257,140566,11226,-0.139,1.021,0.024,-1.707,0.183,-0.549,506.308
125265,140529,9715,-0.138,1.013,0.021,-2.622,-0.488,0.061,506.312
125265,140535,11220,-0.143,1.001,0.026,-2.622,-0.488,0.061,506.318
125116,140529,9715,-0.141,0.998,0.03,-0.549,0.061,-0.366,506.322
125116,140379,11202,-0.141,0.996,0.042,-0.549,0.061,-0.366,506.328
124969,140273,9715,-0.138,0.989,0.054,1.768,0.122,-0.244,506.332
124969,140227,11196,-0.135,0.981,0.049,1.768,0.122,-0.244,506.338
125017,140273,9715,-0.135,0.997,0.033,2.988,0.427,0.732,506.342
125017,140244,11200,-0.136,1.011,0.02,2.988,0.427,0.732,506.348
124804,140273,9715,-0.137,1.009,0.026,3.537,1.037,0.854,506.351
124804,140047,11180,-0.14,1.014,0.033,3.537,1.037,0.854,506.358
124611,140017,9715,-0.14,1.024,0.03,3.72,0.732,0.854,506.361
124611,139838,11179,-0.137,1.044,0.016,3.72,0.732,0.854,506.368
124718,140017,9715,-0.139,1.066,-0.005,1.159,0.183,0.976,506.371
124718,139979,11166,-0.141,1.065,0.008,1.159,0.183,0.976,506.377
124718,140017,9715,-0.139,1.035,0.041,-1.037,-0.488,0.244,506.381
124718,139960,11181,-0.132,1.008,0.037,-1.037,-0.488,0.244,506.387
124693,140017,9715,-0.132,1.013,0.016,-2.256,-1.159,-0.732,506.391
124693,139918,11181,-0.145,1.025,0.005,-2.256,-1.159,-0.732,506.397
124724,140017,9715,-0.15,1.021,0.006,-2.317,0.305,-0.671,506.401
124724,139982,11176,-0.152,1.017,0.012,-2.317,0.305,-0.671,506.407
124808,140273,9715,-0.145,1.002,0.027,-2.744,0.244,0.183,506.411
124808,140069,11183,-0.136,0.976,0.046,-2.744,0.244,0.183,506.417
124822,140273,9715,-0.135,0.965,0.062,-2.073,-0.976,1.341,506.421
124822,140044,11179,-0.135,0.97,0.055,-2.073,-0.976,1.341,506.427
124684,140017,9715,-0.142,0.982,0.039,2.073,0.488,2.012,506.431
124684,139900,11177,-0.146,1.007,0.011,2.073,0.488,2.012,506.437
124624,140017,9715,-0.147,1.051,-0.005,4.634,1.463,2.134,506.441
124624,139853,11165,-0.141,1.074,0.01,4.634,1.463,2.134,506.447
124687,140017,9715,-0.128,1.033,0.04,2.866,-0.488,1.951,506.45
124687,139905,11181,-0.123,1.006,0.034,2.866,-0.488,1.951,506.457
124534,139761,9715,-0.129,1.039,0.007,1.585,-0.793,0.793,506.46
124534,139750,11171,-0.137,1.063,0.005,1.585,-0.793,0.793,506.467
124423,139761,9715,-0.143,1.04,0.009,-1.22,0.793,-0.549,506.47
124423,139618,11156,-0.141,1.014,0.008,-1.22,0.793,-0.549,506.476
124390,139761,9715,-0.141,1.021,0.018,-3.354,0.244,-0.305,506.48
124390,139649,11165,-0.142,1.024,0.016,-3.354,0.244,-0.305,506.486
124512,139761,9715,-0.138,1.012,0.027,-6.22,-0.427,0.549,506.49
124512,139749,11160,-0.136,1.001,0.048,-6.22,-0.427,0.549,506.496
124539,139761,9715,-0.139,0.991,0.06,-3.171,-0.305,0.671,506.5
124539,139761,11173,-0.136,0.984,0.047,-3.171,-0.305,0.671,506.506
124512,139761,9715,-0.134,0.997,0.026,0.305,1.098,0.915,506.51
124512,139741,11177,-0.142,1.023,0.011,0.305,1.098,0.915,506.516
124630,140017,9715,-0.143,1.031,0.019,1.28,1.463,1.22,506.52
124630,139894,11173,-0.132,1.018,0.029,1.28,1.463,1.22,506.526
124744,140273,9715,-0.126,1.005,0.036,1.89,0.305,1.28,506.53
124744,140049,11194,-0.121,1.001,0.05,1.89,0.305,1.28,506.536
124741,140017,9715,-0.124,1.023,0.045,3.841,0.671,0.793,506.54
124741,140019,11179,-0.132,1.068,0.021,3.841,0.671,0.793,506.546
124724,140017,9715,-0.125,1.084,0.016,4.573,1.463,-0.732,506.549
124724,140028,11186,-0.12,1.075,0.028,4.573,1.463,-0.732,506.556
124788,140273,9715,-0.116,1.048,0.024,4.573,1.098,-2.866,506.559
124788,140064,11166,-0.122,1.01,0.005,4.573,1.098,-2.866,506.566
124701,140017,9715,-0.143,0.99,-0.019,2.5,2.622,-3.598,506.569
124701,139979,11180,-0.166,0.999,-0.04,2.5,2.622,-3.598,506.575
124678,140017,9715,-0.179,1.008,-0.034,-3.963,3.11,-2.988,506.579
124678,139928,11163,-0.18,0.993,0.009,-3.963,3.11,-2.988,506.585
124668,140017,9715,-0.163,0.96,0.034,-7.439,-2.012,-0.732,506.589
124668,139921,11194,-0.139,0.953,0.033,-7.439,-2.012,-0.732,506.595
124676,140017,9715,-0.138,1.009,0.018,-7.622,-4.39,2.561,506.599
124676,139926,11167,-0.151,1.062,0.02,-7.622,-4.39,2.561,506.605
124706,140017,9715,-0.155,1.039,0.06,-7.927,-1.646,3.232,506.609
124706,139990,11179,-0.138,0.974,0.071,-7.927,-1.646,3.232,506.615
124742,140017,9715,-0.128,0.969,0.051,-4.268,-2.195,2.134,506.619
124742,140016,11190,-0.138,1.034,0.032,-4.268,-2.195,2.134,506.625
124761,140273,9715,-0.138,1.074,0.02,-1.768,0.183,2.622,506.629
124761,140067,11203,-0.126,1.045,0.03,-1.768,0.183,2.622,506.635
124907,140273,9715,-0.128,1.009,0.027,0.976,0.976,1.463,506.639
124907,140220,11209,-0.136,1.007,0.013,0.976,0.976,1.463,506.645
124931,140273,9715,-0.14,1.029,-0.005,-0.183,1.159,0.244,506.648
124931,140254,11219,-0.144,1.051,-0.014,-0.183,1.159,0.244,506.655
125088,140529,9715,-0.148,1.034,0.016,-2.744,0.549,1.037,506.658
125088,140470,11226,-0.137,0.984,0.06,-2.744,0.549,1.037,506.665
125283,140785,9715,-0.129,0.969,0.067,-2.622,-1.037,1.646,506.668
125283,140699,11218,-0.129,0.978,0.062,-2.622,-1.037,1.646,506.674
125302,140785,9715,-0.132,0.987,0.057,-2.073,-0.427,1.585,506.678
125302,140728,11251,-0.138,1.001,0.031,-2.073,-0.427,1.585,506.684
125373,140785,9715,-0.147,1.037,0.028,-0.061,1.098,1.098,506.688
125373,140792,11231,-0.144,1.02,0.061,-0.061,1.098,1.098,506.694
125522,141041,9715,-0.13,0.971,0.068,3.415,0.244,0.915,506.698
125522,140944,11264,-0.122,0.998,0.033,3.415,0.244,0.915,506.704
125578,141041,9715,-0.122,0.998,0.033,3.415,0.244,0.915,506.708
125578,140993,11270,-0.141,1.081,-0.011,4.024,0.61,0.732,506.714
125500,141041,9715,-0.141,1.081,-0.011,4.024,0.61,0.732,506.718
125500,140888,11246,-0.14,1.032,-0.011,1.951,1.585,0.305,506.724
125628,141297,9715,-0.14,1.032,-0.011,1.951,1.585,0.305,506.728
125628,141063,11285,-0.129,1.045,0.018,-1.707,0.244,0.549,506.734
125723,141297,9715,-0.129,1.045,0.018,-1.707,0.244,0.549,506.738
125723,141162,11284,-0.125,0.989,0.066,-4.939,-1.402,0.549,506.744
125719,141297,9715,-0.125,0.989,0.066,-4.939,-1.402,0.549,506.747
125719,141147,11277,-0.139,0.991,0.053,-1.89,-0.244,-0.671,506.754
125695,141297,9715,-0.139,0.991,0.053,-1.89,-0.244,-0.671,506.757
125695,141166,11272,-0.137,0.992,0.06,2.134,2.256,-0.732,506.764
125749,141297,9715,-0.137,0.992,0.06,2.134,2.256,-0.732,506.767
125749,141197,11266,-0.143,1.016,0.004,6.037,1.768,-0.854,506.773
125814,141297,9715,-0.143,1.016,0.004,6.037,1.768,-0.854,506.777
125814,141309,11286,-0.149,1.028,0.008,4.329,2.378,-0.671,506.783
125846,141297,9715,-0.149,1.028,0.008,4.329,2.378,-0.671,506.787
125846,141285,11298,-0.138,1.029,0.003,1.22,0.61,0,506.793
125820,141297,9715,-0.138,1.029,0.003,1.22,0.61,0,506.797
125820,141276,11276,-0.138,1.063,0.011,-2.012,-1.159,0.976,506.803
125908,141553,9715,-0.138,1.063,0.011,-2.012,-1.159,0.976,506.807
125908,141420,11310,-0.131,1.011,0.043,-4.39,-0.671,1.28,506.813
126094,141809,9715,-0.131,1.011,0.043,-4.39,-0.671,1.28,506.817
126094,141590,11312,-0.133,1.001,0.046,-3.841,-0.854,0.488,506.823
126176,141809,9715,-0.133,1.001,0.046,-3.841,-0.854,0.488,506.827
126176,141750,11327,-0.134,0.989,0.079,-0.488,0,-0.366,506.833
126412,142065,9715,-0.134,0.989,0.079,-0.488,0,-0.366,506.837
126412,142024,11351,-0.132,1.001,0.019,6.159,1.585,-0.793,506.843
126559,142321,9715,-0.132,1.001,0.019,6.159,1.585,-0.793,506.846
126559,142163,11354,-0.141,1.057,-0.021,8.598,3.049,-1.22,506.853
126528,142321,9715,-0.152,1.08,-0.025,8.598,3.049,-1.22,506.856
126528,142172,11351,-0.156,1.036,-0.012,3.049,2.866,-1.28,506.863
126777,142577,9715,-0.146,0.973,0.003,3.049,2.866,-1.28,506.866
126777,142429,11388,-0.145,0.975,0.001,-1.646,0,-0.122,506.872
126877,142577,9715,-0.146,1.04,-0.022,-1.646,0,-0.122,506.876
126877,142535,11381,-0.148,1.083,-0.021,-7.378,-1.22,1.89,506.882
126894,142577,9715,-0.145,1.059,0.034,-7.378,-1.22,1.89,506.886
126894,142585,11378,-0.135,1.004,0.08,-8.598,-2.622,2.317,506.892
127142,143089,9715,-0.12,0.985,0.082,-8.598,-2.622,2.317,506.896
127142,142858,11404,-0.115,1.002,0.082,-5.854,-1.951,1.28,506.902
127132,143089,9715,-0.122,1.008,0.073,-5.854,-1.951,1.28,506.906
127132,142854,11397,-0.131,1.016,0.039,1.341,2.195,-0.488,506.912
127234,143089,9715,-0.141,1.029,0.015,1.341,2.195,-0.488,506.916
127234,142980,11407,-0.144,1.023,0.017,4.634,4.085,-2.073,506.922
127285,143089,9715,-0.139,0.997,0.026,4.634,4.085,-2.073,506.926
127285,143050,11412,-0.135,0.978,0.014,3.354,1.829,-1.524,506.932
127217,143089,9715,-0.134,0.998,-0.024,3.354,1.829,-1.524,506.936
127217,142980,11422,-0.143,1.054,-0.027,1.159,0.976,-0.427,506.942
127396,143345,9715,-0.147,1.081,-0.015,1.159,0.976,-0.427,506.945
127396,143158,11430,-0.141,1.035,-0.004,-4.268,-0.854,-0.244,506.952
127430,143345,9715,-0.139,0.992,0.011,-4.268,-0.854,-0.244,506.955
127430,143171,11423,-0.144,1.005,0.019,-6.646,-2.744,0.305,506.962
127302,143089,9715,-0.145,1.023,0.032,-6.646,-2.744,0.305,506.965
127302,143023,11401,-0.146,1.008,0.071,-4.756,-2.256,1.159,506.971
127394,143345,9715,-0.138,0.995,0.104,-4.756,-2.256,1.159,506.975
127394,143140,11425,-0.132,0.986,0.124,-0.305,-1.585,0.244,506.981
127338,143089,9715,-0.126,0.962,0.096,-0.305,-1.585,0.244,506.985
127338,143046,11424,-0.13,0.977,0.059,4.39,1.585,0.122,506.991
127190,143089,9715,-0.137,1.026,0.029,4.39,1.585,0.122,506.995
127190,142943,11414,-0.143,1.04,0.004,8.537,4.512,-0.61,507.001
127117,142833,9715,-0.15,1.034,-0.02,8.537,4.512,-0.61,507.005
127117,142821,11396,-0.156,1.04,-0.049,5.793,3.659,-0.732,507.011
127017,142833,9715,-0.156,1.05,-0.041,5.793,3.659,-0.732,507.015
127017,142721,11406,-0.144,1.06,-0.015,-1.341,0.183,0.854,507.021
127092,142833,9715,-0.126,1.048,0.008,-1.341,0.183,0.854,507.025
127092,142762,11403,-0.126,1.021,0.049,-6.707,-3.11,1.707,507.031
127027,142833,9715,-0.127,0.988,0.077,-6.707,-3.11,1.707,507.035
127027,142683,11393,-0.124,0.968,0.088,-4.573,-1.707,0.61,507.041
127076,142833,9715,-0.13,0.985,0.073,-4.573,-1.707,0.61,507.044
127076,142769,11411,-0.142,1.025,0.051,1.707,1.22,-0.366,507.051
127062,142833,9715,-0.141,1.027,0.043,1.707,1.22,-0.366,507.054
127062,142732,11403,-0.14,0.998,0.052,6.037,2.5,-1.098,507.061
127062,142833,9715,-0.144,0.998,0.03,6.037,2.5,-1.098,507.064
127062,142753,11427,-0.145,1.009,0.003,5.854,2.805,-1.22,507.07
127062,142833,9715,-0.149,1.012,-0.004,5.854,2.805,-1.22,507.074
127062,142746,11402,-0.152,1.018,-0.028,3.598,2.378,-0.305,507.08
126940,142833,9715,-0.153,1.04,-0.045,3.598,2.378,-0.305,507.084
126940,142608,11394,-0.15,1.066,-0.037,-1.159,0.488,1.341,507.09
126935,142833,9715,-0.141,1.078,-0.019,-1.159,0.488,1.341,507.094
126935,142595,11376,-0.14,1.045,0.02,-10,-2.744,2.317,507.1
126905,142833,9715,-0.131,0.996,0.06,-10,-2.744,2.317,507.104
126905,142602,11387,-0.121,0.981,0.055,-11.707,-3.963,1.768,507.11
127041,142833,9715,-0.129,1,0.067,-11.707,-3.963,1.768,507.114
127041,142716,11379,-0.14,1.012,0.088,-6.646,-0.976,1.037,507.12
127031,142833,9715,-0.139,1.001,0.083,-6.646,-0.976,1.037,507.124
127031,142703,11382,-0.134,0.979,0.074,1.28,1.463,0.61,507.13
126884,142577,9715,-0.134,0.994,0.06,1.28,1.463,0.61,507.134
126884,142573,11383,-0.136,1.034,0.035,6.829,2.683,-0.061,507.14
126949,142833,9715,-0.138,1.055,0.014,6.829,2.683,-0.061,507.143
126949,142626,11381,-0.144,1.055,-0.003,7.805,3.902,-0.427,507.15
126748,142577,9715,-0.146,1.057,-0.023,7.805,3.902,-0.427,507.153
126748,142370,11345,-0.147,1.057,-0.024,3.476,2.5,-0.488,507.16
126627,142321,9715,-0.147,1.034,0.008,3.476,2.5,-0.488,507.163
126627,142275,11358,-0.141,0.989,0.023,-1.768,-0.183,-0.122,507.169
126726,142321,9715,-0.135,0.973,0.02,-1.768,-0.183,-0.122,507.173
126726,142334,11369,-0.135,0.992,0.018,-4.329,-1.28,0.244,507.179
126765,142577,9715,-0.134,1.008,0.024,-4.329,-1.28,0.244,507.183
126765,142377,11369,-0.138,1.007,0.044,-2.439,-0.976,0.183,507.189
126697,142321,9715,-0.139,1.002,0.083,-2.439,-0.976,0.183,507.193
126697,142320,11355,-0.136,0.989,0.102,3.354,-0.366,-0.183,507.199
126805,142577,9715,-0.131,0.98,0.081,3.354,-0.366,-0.183,507.203
126805,142445,11366,-0.128,0.99,0.053,6.22,1.463,-0.427,507.209
126808,142577,9715,-0.139,1.015,0.026,6.22,1.463,-0.427,507.213
126808,142406,11363,-0.148,1.034,0.004,6.951,4.085,-0.976,507.219
126598,142321,9715,-0.148,1.03,-0.006,6.951,4.085,-0.976,507.223
126598,142174,11340,-0.145,1.012,-0.001,5.427,3.049,-0.854,507.229
126506,142065,9715,-0.141,1.019,-0.021,5.427,3.049,-0.854,507.233
126506,142042,11335,-0.142,1.054,-0.027,3.537,0.854,0.305,507.239
126361,142065,9715,-0.145,1.071,-0.002,3.537,0.854,0.305,507.242
126361,141871,11324,-0.142,1.043,0.017,-0.854,0.122,0.793,507.249
126404,142065,9715,-0.139,0.992,0.042,-0.854,0.122,0.793,507.252
126404,141916,11321,-0.137,0.969,0.052,-2.866,-0.854,0.732,507.259
126581,142321,9715,-0.14,0.995,0.042,-2.866,-0.854,0.732,507.262
126581,142153,11347,-0.145,1.012,0.037,-0.488,0.183,0.793,507.268
126554,142321,9715,-0.144,1.003,0.033,-0.488,0.183,0.793,507.272
126554,142115,11355,-0.146,1.007,0.029,2.256,1.341,0.915,507.278
126494,142321,9715,-0.145,1.026,0.025,2.256,1.341,0.915,507.282
126494,142095,11339,-0.135,1.02,0.02,1.159,0.732,0.915,507.288
126431,142065,9715,-0.135,1.02,0.02,1.159,0.732,0.915,507.292
126431,141967,11343,-0.14,1.042,0,1.28,0.671,0.793,507.298
126285,142065,9715,-0.14,1.042,0,1.28,0.671,0.793,507.302
126285,141838,11331,-0.141,1.028,0.007,-0.061,0.976,0.61,507.308
126354,142065,9715,-0.141,1.028,0.007,-0.061,0.976,0.61,507.312
126354,141918,11347,-0.137,1.033,0.014,-2.378,-0.183,0.854,507.318
126340,142065,9715,-0.137,1.033,0.014,-2.378,-0.183,0.854,507.322
126340,141833,11323,-0.135,1.01,0.05,-1.768,-0.488,0.854,507.328
126273,141809,9715,-0.135,1.01,0.05,-1.768,-0.488,0.854,507.332
126273,141802,11325,-0.138,1.005,0.033,0.061,0.61,0.183,507.338
126351,142065,9715,-0.138,1.005,0.033,0.061,0.61,0.183,507.341
126351,141870,11330,-0.143,0.994,0.04,0.854,1.707,0,507.348
126336,142065,9715,-0.143,0.994,0.04,0.854,1.707,0,507.351
126336,141860,11333,-0.138,0.996,0.055,2.134,0.915,0.61,507.358
126231,141809,9715,-0.138,0.996,0.055,2.134,0.915,0.61,507.361
126231,141700,11306,-0.128,1.005,0.019,3.476,1.402,0.915,507.367
126016,141553,9715,-0.128,1.005,0.019,3.476,1.402,0.915,507.371
126016,141507,11304,-0.154,1.042,-0.016,2.012,2.439,0.976,507.377
126063,141553,9715,-0.154,1.042,-0.016,2.012,2.439,0.976,507.381
126063,141517,11301,-0.138,1.044,-0.015,0.061,0.244,1.22,507.387
125989,141553,9715,-0.138,1.044,-0.015,0.061,0.244,1.22,507.391
125989,141432,11299,-0.131,1.057,0,-3.476,-2.134,1.402,507.397
125918,141553,9715,-0.131,1.057,0,-3.476,-2.134,1.402,507.401
125918,141372,11288,-0.134,1.02,0.031,-4.634,-1.646,0.732,507.407
125929,141553,9715,-0.134,1.02,0.031,-4.634,-1.646,0.732,507.411
125929,141371,11302,-0.136,1.001,0.031,-3.354,-0.915,-0.366,507.417
125825,141297,9715,-0.136,1.001,0.031,-3.354,-0.915,-0.366,507.421
125825,141213,11273,-0.144,1.021,0.059,-1.829,-0.061,-0.549,507.427
125629,141041,9715,-0.144,1.021,0.059,-1.829,-0.061,-0.549,507.431
125629,140997,11256,-0.137,1.004,0.04,-1.829,-0.061,-0.549,507.437
125561,141041,9715,-0.14,0.997,0.029,0.915,0.732,-0.549,507.44
125561,140910,11249,-0.145,0.999,0.024,0.915,0.732,-0.549,507.447
125582,141041,9715,-0.149,0.998,0.019,1.524,1.402,-0.549,507.45
125582,140953,11248,-0.147,1.002,0.012,1.524,1.402,-0.549,507.457
125539,141041,9715,-0.148,1.013,-0.006,0.793,1.28,0.366,507.46
125539,140891,11256,-0.147,1.028,-0.024,0.793,1.28,0.366,507.466
125568,141041,9715,-0.148,1.04,-0.017,-1.402,0.366,1.707,507.47
125568,140893,11248,-0.15,1.033,0.017,-1.402,0.366,1.707,507.476
125732,141297,9715,-0.143,1.012,0.047,-3.049,-1.159,2.134,507.48
125732,141091,11281,-0.133,1.012,0.036,-3.049,-1.159,2.134,507.486
125757,141297,9715,-0.135,1.023,0.029,-3.049,-2.134,1.89,507.49
125757,141130,11244,-0.124,1.018,0.047,-3.049,-2.134,1.89,507.496
125733,141297,9715,-0.126,1.018,0.059,0.122,-0.793,0.427,507.5
125733,141142,11276,-0.126,1.03,0.047,0.122,-0.793,0.427,507.506
125777,141297,9715,-0.132,1.035,0.053,1.646,0.854,-0.61,507.51
125777,141182,11284,-0.13,1.012,0.057,1.646,0.854,-0.61,507.516
125665,141041,9715,-0.13,0.995,0.022,1.524,0.793,-1.402,507.52
125665,141028,11262,-0.136,1.005,-0.014,1.524,0.793,-1.402,507.526
125677,141297,9715,-0.145,1.03,-0.029,1.22,1.707,-1.524,507.53
125677,141108,11263,-0.156,1.037,-0.008,1.22,1.707,-1.524,507.536
125747,141297,9715,-0.145,1.013,0.009,-1.037,0.366,-0.427,507.54
125747,141139,11269,-0.137,1.001,0.014,-1.037,0.366,-0.427,507.546
125699,141297,9715,-0.136,0.996,0.03,-4.939,-2.561,0.427,507.549
125699,141094,11265,-0.134,0.986,0.042,-4.939,-2.561,0.427,507.556
125680,141297,9715,-0.139,0.988,0.056,-4.573,-1.768,1.037,507.559
125680,141082,11272,-0.141,0.999,0.07,-4.573,-1.768,1.037,507.565
125697,141297,9715,-0.14,1.014,0.094,-0.61,-0.366,1.037,507.569
125697,141089,11289,-0.133,1.003,0.096,-0.61,-0.366,1.037,507.575
125625,141041,9715,-0.128,0.996,0.071,2.927,0.671,0.122,507.579
125625,141017,11257,-0.131,1.018,0.03,2.927,0.671,0.122,507.585
125624,141041,9715,-0.144,1.041,-0.001,3.232,3.354,-0.793,507.589
125624,141013,11264,-0.151,1.037,-0.002,3.232,3.354,-0.793,507.595
125625,141041,9715,-0.156,1.016,-0.009,2.012,3.476,-0.488,507.599
125625,140977,11254,-0.151,1.02,-0.031,2.012,3.476,-0.488,507.605
125675,141041,9715,-0.144,1.043,-0.018,-0.183,0.976,0.793,507.609
125675,141011,11259,-0.137,1.054,0.018,-0.183,0.976,0.793,507.615
125641,141041,9715,-0.133,1.044,0.035,-0.976,-0.793,1.28,507.619
125641,140982,11258,-0.13,1.03,0.038,-0.976,-0.793,1.28,507.625
125674,141041,9715,-0.129,1.019,0.04,-0.427,-0.549,0.305,507.629
125674,141013,11261,-0.13,1.01,0.046,-0.427,-0.549,0.305,507.635
125778,141297,9715,-0.141,1.001,0.063,1.829,1.22,-0.976,507.638
125778,141143,11261,-0.141,0.984,0.069,1.829,1.22,-0.976,507.645
125734,141297,9715,-0.135,0.98,0.034,5.244,2.622,-1.159,507.648
125734,141121,11270,-0.142,1.002,-0.006,5.244,2.622,-1.159,507.655
125683,141297,9715,-0.155,1.03,0.005,3.232,3.476,-0.427,507.658
125683,141075,11255,-0.157,1.023,0.026,3.232,3.476,-0.427,507.664
125587,141041,9715,-0.143,0.986,0.016,0,1.707,0.854,507.668
125587,140919,11258,-0.134,0.978,-0.007,0,1.707,0.854,507.674
125538,141041,9715,-0.139,1.014,-0.017,-1.585,0.366,2.195,507.678
125538,140850,11250,-0.145,1.046,0,-1.585,0.366,2.195,507.684
125522,141041,9715,-0.139,1.05,0.018,-1.22,0.244,2.439,507.688
125522,140894,11243,-0.131,1.037,0.027,-1.22,0.244,2.439,507.694
125455,140785,9715,-0.126,1.035,0.033,-0.061,-1.341,1.341,507.698
125455,140756,11246,-0.126,1.047,0.031,-0.061,-1.341,1.341,507.704
125428,140785,9715,-0.135,1.056,0.038,0.854,-0.244,0.061,507.708
125428,140738,11232,-0.137,1.024,0.057,0.854,-0.244,0.061,507.714
125363,140785,9715,-0.135,0.988,0.062,4.024,1.463,-1.341,507.718
125363,140677,11242,-0.136,0.989,0.043,4.024,1.463,-1.341,507.724
125383,140785,9715,-0.141,1.01,0.023,3.841,2.683,-2.134,507.728
125383,140682,11221,-0.145,1.013,0.016,3.841,2.683,-2.134,507.734
125325,140785,9715,-0.144,1.001,0.013,2.927,3.354,-1.098,507.738
125325,140628,11222,-0.141,0.99,0.002,2.927,3.354,-1.098,507.744
125273,140529,9715,-0.145,1.001,-0.009,2.805,2.317,0.061,507.747
125273,140518,11219,-0.147,1.024,-0.007,2.805,2.317,0.061,507.754
125362,140785,9715,-0.144,1.039,0.003,0.488,1.037,0.671,507.757
125362,140617,11224,-0.138,1.023,0.016,0.488,1.037,0.671,507.763
125378,140785,9715,-0.135,1.002,0.029,-0.61,-0.671,0.976,507.767
125378,140648,11217,-0.137,1,0.033,-0.61,-0.671,0.976,507.773
125392,140785,9715,-0.139,1.026,0.04,-0.305,-0.366,1.037,507.777
125392,140681,11236,-0.14,1.03,0.054,-0.305,-0.366,1.037,507.783
125378,140785,9715,-0.129,1.012,0.059,1.585,-0.183,0.244,507.787
125378,140631,11219,-0.125,1.014,0.05,1.585,-0.183,0.244,507.793
125351,140785,9715,-0.131,1.03,0.036,3.841,1.463,-0.427,507.797
125351,140617,11225,-0.141,1.044,0.011,3.841,1.463,-0.427,507.803
125187,140529,9715,-0.148,1.035,-0.01,2.195,3.902,-0.366,507.807
125187,140434,11197,-0.157,1.017,-0.02,2.195,3.902,-0.366,507.813
125192,140529,9715,-0.155,1.012,-0.019,0.976,3.049,-0.427,507.817
125192,140434,11215,-0.147,1.011,-0.013,0.976,3.049,-0.427,507.823
125268,140529,9715,-0.14,1.015,-0.005,0.244,0.854,-0.122,507.827
125268,140505,11214,-0.138,1.025,-0.007,0.244,0.854,-0.122,507.833
125260,140529,9715,-0.14,1.036,-0.008,-1.098,-0.122,0.915,507.836
125260,140488,11230,-0.14,1.036,0.005,-1.098,-0.122,0.915,507.843
125293,140785,9715,-0.14,1.02,0.029,-4.024,-0.305,0.976,507.846
125293,140555,11222,-0.137,0.995,0.051,-4.024,-0.305,0.976,507.853
125373,140785,9715,-0.131,0.968,0.065,-2.744,-0.854,0.61,507.856
125373,140641,11224,-0.126,0.975,0.051,-2.744,-0.854,0.61,507.862
125318,140785,9715,-0.135,1.019,0.027,1.707,0.61,0.244,507.866
125318,140618,11218,-0.141,1.043,0.011,1.707,0.61,0.244,507.872
125310,140785,9715,-0.142,1.038,0.005,3.963,2.439,-0.61,507.876
125310,140605,11212,-0.143,1.02,0.01,3.963,2.439,-0.61,507.882
125297,140785,9715,-0.143,1.02,0.01,3.963,2.439,-0.61,507.886
125297,140593,11209,-0.143,1.009,0,3.232,1.341,-0.854,507.892
125324,140785,9715,-0.143,1.009,0,3.232,1.341,-0.854,507.896
125324,140637,11227,-0.152,1.068,-0.023,0.915,0.549,0.183,507.902
125380,140785,9715,-0.152,1.068,-0.023,0.915,0.549,0.183,507.906
125380,140684,11226,-0.138,1.023,0.037,-2.439,0.122,0.854,507.912
125408,140785,9715,-0.138,1.023,0.037,-2.439,0.122,0.854,507.916
125408,140721,11219,-0.131,0.98,0.05,-4.329,-1.585,0.427,507.922
125473,140785,9715,-0.131,0.98,0.05,-4.329,-1.585,0.427,507.926
125473,140743,11230,-0.141,1.026,0.046,-1.646,-0.366,-0.061,507.932
125358,140785,9715,-0.141,1.026,0.046,-1.646,-0.366,-0.061,507.936
125358,140671,11216,-0.139,0.991,0.037,2.195,1.768,-0.488,507.942
125437,140785,9715,-0.139,0.991,0.037,2.195,1.768,-0.488,507.945
125437,140773,11216,-0.137,1.001,0.019,3.902,1.585,-1.22,507.952
125402,140785,9715,-0.137,1.001,0.019,3.902,1.585,-1.22,507.955
125402,140740,11225,-0.145,1.017,-0.009,4.573,1.768,-0.915,507.961
125400,140785,9715,-0.145,1.017,-0.009,4.573,1.768,-0.915,507.965
125400,140724,11212,-0.151,1.038,-0.02,4.329,2.073,0.183,507.971
125443,140785,9715,-0.151,1.038,-0.02,4.329,2.073,0.183,507.975
125443,140792,11231,-0.144,1.032,-0.001,0.366,0.427,0.488,507.981
125436,140785,9715,-0.144,1.032,-0.001,0.366,0.427,0.488,507.985
125436,140753,11220,-0.136,1.016,0.04,-3.415,-1.28,0.976,507.991
125494,141041,9715,-0.136,1.016,0.04,-3.415,-1.28,0.976,507.995
125494,140864,11253,-0.129,1.007,0.062,-3.049,-1.28,1.341,508.001
125525,141041,9715,-0.129,1.007,0.062,-3.049,-1.28,1.341,508.005
125525,140858,11240,-0.137,0.998,0.034,1.28,0,0.122,508.011
125542,141041,9715,-0.137,0.998,0.034,1.28,0,0.122,508.015
125542,140864,11231,-0.143,1.032,0.026,4.634,2.683,-1.037,508.021
125479,140785,9715,-0.143,1.032,0.026,4.634,2.683,-1.037,508.025
125479,140793,11242,-0.136,1.012,0.042,3.659,2.805,-0.305,508.031
125430,140785,9715,-0.134,0.991,0.035,3.659,2.805,-0.305,508.034
125430,140764,11229,-0.138,0.992,0.017,2.805,2.073,1.22,508.041
125447,140785,9715,-0.149,1.008,-0.016,2.805,2.073,1.22,508.044
125447,140776,11226,-0.163,1.039,-0.031,4.085,3.78,0.671,508.051
125435,140785,9715,-0.165,1.059,-0.018,4.085,3.78,0.671,508.054
125435,140745,11221,-0.153,1.054,-0.014,4.024,1.89,0,508.06
125505,141041,9715,-0.139,1.04,-0.018,4.024,1.89,0,508.064
125505,140827,11237,-0.132,1.038,-0.01,0.183,-1.037,1.159,508.07
125495,141041,9715,-0.135,1.037,0.001,0.183,-1.037,1.159,508.074
125495,140850,11237,-0.143,1.025,0.007,-3.293,-0.488,1.037,508.08
125444,140785,9715,-0.14,1.005,0.02,-3.293,-0.488,1.037,508.084
125444,140774,11225,-0.135,0.989,0.042,-2.683,-0.427,0.488,508.09
125416,140785,9715,-0.136,0.976,0.049,-2.683,-0.427,0.488,508.094
125416,140736,11222,-0.133,0.977,0.032,-0.549,0.305,0.732,508.1
125432,140785,9715,-0.133,0.997,0.019,-0.549,0.305,0.732,508.104
125432,140747,11235,-0.136,1.018,0.014,3.232,1.341,0.061,508.11
125384,140785,9715,-0.138,1.031,0.017,3.232,1.341,0.061,508.114
125384,140677,11215,-0.14,1.033,0.018,5.976,1.707,-0.793,508.12
125310,140785,9715,-0.142,1.031,0.007,5.976,1.707,-0.793,508.124
125310,140621,11207,-0.14,1.032,-0.005,5.854,1.951,-1.159,508.13
125414,140785,9715,-0.141,1.041,-0.01,5.854,1.951,-1.159,508.134
125414,140728,11224,-0.147,1.042,-0.002,3.049,1.829,-1.159,508.14
125432,140785,9715,-0.143,1.025,0.016,3.049,1.829,-1.159,508.143
125432,140755,11215,-0.14,1.008,0.022,1.28,1.098,-0.915,508.15
125335,140785,9715,-0.139,1.001,0.016,1.28,1.098,-0.915,508.153
125335,140679,11211,-0.142,1.007,0.003,1.89,1.037,-0.671,508.159
125380,140785,9715,-0.148,1.021,-0.005,1.89,1.037,-0.671,508.163
125380,140718,11220,-0.151,1.026,0.007,1.402,1.341,-0.488,508.169
125356,140785,9715,-0.151,0.994,0.019,1.402,1.341,-0.488,508.173
125356,140685,11220,-0.146,0.975,0.016,-0.122,0.366,0,508.179
125206,140529,9715,-0.145,0.992,0.013,-0.122,0.366,0,508.183
125206,140520,11186,-0.145,1.002,0.015,-2.256,0,1.098,508.189
125291,140785,9715,-0.144,0.995,0.029,-2.256,0,1.098,508.193
125291,140625,11214,-0.14,0.999,0.045,-0.671,-0.244,2.073,508.199
125328,140785,9715,-0.135,1.007,0.033,-0.671,-0.244,2.073,508.203
125328,140624,11216,-0.136,1.032,-0.007,1.28,-0.183,1.768,508.209
125258,140785,9715,-0.139,1.074,-0.022,1.28,-0.183,1.768,508.213
125258,140585,11215,-0.146,1.08,-0.007,1.037,0.61,0.61,508.219
125312,140785,9715,-0.143,1.05,0.003,1.037,0.61,0.61,508.223
125312,140626,11213,-0.133,1.024,-0.001,-0.244,-0.305,-0.366,508.229
125328,140785,9715,-0.137,1.02,-0.005,-0.244,-0.305,-0.366,508.233
125328,140664,11205,-0.145,1.035,-0.017,-2.805,-0.244,-0.915,508.239
125273,140785,9715,-0.15,1.03,-0.005,-2.805,-0.244,-0.915,508.242
125273,140598,11224,-0.146,1.003,0.011,-3.476,-0.305,-0.61,508.249
125227,140785,9715,-0.141,0.985,0.017,-3.476,-0.305,-0.61,508.252
125227,140568,11206,-0.141,0.984,0.031,-2.012,-0.793,0.183,508.259
125225,140785,9715,-0.143,0.99,0.042,-2.012,-0.793,0.183,508.262
125225,140558,11205,-0.143,0.994,0.038,-0.488,0.183,0.732,508.268
125300,140785,9715,-0.144,1.004,0.021,-0.488,0.183,0.732,508.272
125300,140638,11227,-0.147,1.002,0.018,0,0.671,0.793,508.278
125385,140785,9715,-0.146,0.989,0.022,0,0.671,0.793,508.282
125385,140753,11207,-0.147,0.992,0.009,0.671,0.732,1.524,508.288
125397,140785,9715,-0.146,1.02,-0.003,0.671,0.732,1.524,508.292
125397,140783,11233,-0.145,1.036,-0.009,-0.854,0.244,2.195,508.298
125425,140785,9715,-0.144,1.036,-0.008,-0.854,0.244,2.195,508.302
125425,140789,11220,-0.138,1.037,-0.005,-1.707,-0.976,2.134,508.308
125515,141041,9715,-0.135,1.045,0.004,-1.707,-0.976,2.134,508.312
125515,140921,11225,-0.137,1.042,0.016,-3.232,-1.402,1.89,508.318
125446,140785,9715,-0.134,1.026,0.042,-3.232,-1.402,1.89,508.322
125446,140796,11219,-0.125,1.005,0.068,-2.439,-1.463,1.159,508.328
125367,140785,9715,-0.119,0.984,0.058,-2.439,-1.463,1.159,508.332
125367,140736,11223,-0.125,1.011,0.019,2.012,0.183,-0.183,508.338
125363,140785,9715,-0.138,1.056,-0.004,2.012,0.183,-0.183,508.341
125363,140740,11211,-0.145,1.056,-0.002,3.537,2.5,-1.768,508.348
125364,140785,9715,-0.143,1.013,0.016,3.537,2.5,-1.768,508.351
125364,140709,11203,-0.138,0.981,0.016,2.927,1.037,-2.622,508.357
125317,140785,9715,-0.147,0.98,0.011,2.927,1.037,-2.622,508.361
125317,140629,11221,-0.153,0.994,0.012,1.89,0.976,-1.098,508.367
125347,140785,9715,-0.149,0.991,0.022,1.89,0.976,-1.098,508.371
125347,140639,11191,-0.144,0.995,0.024,2.195,0.732,0.244,508.377
125218,140529,9715,-0.147,1.006,0.02,2.195,0.732,0.244,508.381
125218,140486,11182,-0.145,1.01,0.028,2.5,-0.061,1.159,508.387
125013,140273,9715,-0.136,1.016,0.04,2.5,-0.061,1.159,508.391
125013,140262,11173,-0.133,1.029,0.041,4.329,0.305,1.402,508.397
124842,140273,9715,-0.133,1.043,0.029,4.329,0.305,1.402,508.401
124842,140075,11161,-0.131,1.051,0.009,4.878,1.463,0.671,508.407
124641,140017,9715,-0.125,1.049,-0.006,4.878,1.463,0.671,508.411
124641,139866,11142,-0.139,1.049,-0.026,2.866,2.317,0.366,508.417
124550,140017,9715,-0.157,1.04,-0.067,2.866,2.317,0.366,508.421
124550,139781,11148,-0.168,1.037,-0.085,-0.915,3.049,0.061,508.427
124484,139761,9715,-0.17,1.03,-0.052,-0.915,3.049,0.061,508.431
124484,139708,11120,-0.159,1.006,-0.008,-3.963,-0.366,-0.61,508.437
124336,139761,9715,-0.142,0.988,-0.004,-3.963,-0.366,-0.61,508.44
124336,139546,11124,-0.137,1.009,0.018,-5.183,-3.598,2.012,508.447
124301,139505,9715,-0.134,1.026,0.089,-5.183,-3.598,2.012,508.45
124301,139512,11115,-0.129,0.975,0.131,-2.378,-2.256,2.134,508.457
124265,139505,9715,-0.131,0.944,0.081,-2.378,-2.256,2.134,508.46
124265,139461,11094,-0.136,1.002,-0.003,3.963,1.768,0.122,508.466
124275,139505,9715,-0.147,1.069,-0.047,3.963,1.768,0.122,508.47
124275,139482,11118,-0.154,1.07,-0.029,4.39,3.902,-0.793,508.476
124349,139761,9715,-0.154,1.07,-0.029,4.39,3.902,-0.793,508.48
124349,139562,11123,-0.14,0.983,-0.023,2.988,0.793,-0.488,508.486
124210,139505,9715,-0.14,0.983,-0.023,2.988,0.793,-0.488,508.49
124210,139429,11101,-0.136,1.049,-0.07,-1.524,-0.61,1.098,508.496
124185,139505,9715,-0.136,1.049,-0.07,-1.524,-0.61,1.098,508.5
124185,139407,11116,-0.158,1.051,0.002,-7.073,-1.341,2.012,508.506
124155,139505,9715,-0.158,1.051,0.002,-7.073,-1.341,2.012,508.51
124155,139317,11089,-0.13,0.928,0.049,-7.256,-4.512,1.402,508.516
124011,139249,9715,-0.13,0.928,0.049,-7.256,-4.512,1.402,508.52
124011,139175,11084,-0.142,1.009,0.033,-5.732,-3.232,1.951,508.526
123965,139249,9715,-0.142,1.009,0.033,-5.732,-3.232,1.951,508.53
123965,139110,11095,-0.128,1.022,0.075,0.305,-1.524,1.22,508.536
123958,139249,9715,-0.128,1.022,0.075,0.305,-1.524,1.22,508.539
123958,139125,11101,-0.138,1.027,-0.005,1.524,0.61,1.098,508.546
123958,139249,9715,-0.138,1.027,-0.005,1.524,0.61,1.098,508.549
123958,139122,11100,-0.157,1.041,-0.031,-0.793,2.561,0.793,508.556
123976,139249,9715,-0.157,1.041,-0.031,-0.793,2.561,0.793,508.559
123976,139144,11066,-0.144,1.047,-0.043,-4.939,-1.402,1.098,508.565
123892,139249,9715,-0.144,1.047,-0.043,-4.939,-1.402,1.098,508.569
123892,139035,11069,-0.155,1.015,0.007,-7.988,-3.598,2.012,508.575
123872,139249,9715,-0.155,1.015,0.007,-7.988,-3.598,2.012,508.579
123872,139010,11078,-0.124,1.006,0.027,-5,-4.573,0.549,508.585
123846,138993,9715,-0.124,1.006,0.027,-5,-4.573,0.549,508.589
123846,138976,11069,-0.132,1.026,0.018,-3.78,-2.805,0.61,508.595
123873,139249,9715,-0.132,1.026,0.018,-3.78,-2.805,0.61,508.599
123873,139025,11078,-0.145,0.999,0.06,-3.598,-0.854,0.122,508.605
123978,139249,9715,-0.145,0.999,0.06,-3.598,-0.854,0.122,508.609
123978,139113,11082,-0.133,0.978,0.05,-4.268,-1.89,0.793,508.615
123860,138993,9715,-0.133,0.978,0.05,-4.268,-1.89,0.793,508.619
123860,138954,11054,-0.137,0.974,0.048,-4.268,-1.89,0.793,508.625
123842,139249,9715,-0.14,1.02,0.016,0,-0.366,1.402,508.629
123842,139017,11072,-0.144,1.061,0,0,-0.366,1.402,508.635
123962,139249,9715,-0.136,1.05,0.013,-0.732,0.549,0.976,508.638
123962,139136,11069,-0.133,1.026,0.008,-0.732,0.549,0.976,508.645
124053,139249,9715,-0.137,1.039,-0.003,-0.793,-0.122,0.732,508.648
124053,139249,11085,-0.134,1.053,-0.009,-0.793,-0.122,0.732,508.655
124109,139505,9715,-0.129,1.036,0.004,-2.317,0.061,0.61,508.658
124109,139296,11094,-0.135,1.01,0.031,-2.317,0.061,0.61,508.664
124103,139505,9715,-0.139,0.986,0.058,-0.671,-0.549,-0.122,508.668
124103,139303,11101,-0.141,0.971,0.056,-0.671,-0.549,-0.122,508.674
124049,139249,9715,-0.146,0.987,0.028,-1.341,0.488,-0.061,508.678
124049,139252,11081,-0.147,1.014,0.014,-1.341,0.488,-0.061,508.684
123896,139249,9715,-0.144,1.009,0.019,-2.988,0.549,0.915,508.688
123896,139047,11084,-0.137,0.991,0.027,-2.988,0.549,0.915,508.694
123660,138737,9715,-0.135,1,0.02,-1.951,-0.366,1.402,508.698
123660,138727,11038,-0.135,1.021,0.015,-1.951,-0.366,1.402,508.704
123289,138481,9715,-0.141,1.048,0.021,-3.72,-0.427,1.037,508.708
123289,138324,11017,-0.142,1.043,0.048,-3.72,-0.427,1.037,508.714
123154,138225,9715,-0.129,0.988,0.072,-1.89,-1.037,0.427,508.718
123154,138126,10991,-0.118,0.986,0.041,-1.89,-1.037,0.427,508.724
122954,137969,9715,-0.13,1.049,-0.005,3.415,0.427,-0.061,508.728
122954,137937,10976,-0.142,1.092,-0.002,3.415,0.427,-0.061,508.734
123116,138225,9715,-0.142,1.057,0.026,3.476,2.744,-1.098,508.737
123116,138087,10974,-0.134,0.992,0.029,3.476,2.744,-1.098,508.744
122839,137969,9715,-0.136,0.974,0.007,3.293,1.463,-1.89,508.747
122839,137780,10953,-0.149,0.999,-0,3.293,1.463,-1.89,508.754
122717,137713,9715,-0.154,1.015,0.022,1.585,2.073,-1.037,508.757
122717,137693,10964,-0.146,1,0.028,1.585,2.073,-1.037,508.763
122718,137713,9715,-0.139,0.988,0.018,3.049,1.037,-0.244,508.767
122718,137624,10955,-0.14,1.008,0.013,3.049,1.037,-0.244,508.773
122443,137457,9715,-0.145,1.03,0.014,2.683,0.488,0.793,508.777
122443,137327,10931,-0.143,1.032,0.016,2.683,0.488,0.793,508.783
122433,137457,9715,-0.137,1.014,0.017,1.829,0.732,0.976,508.787
122433,137341,10927,-0.141,1.008,0.016,1.829,0.732,0.976,508.793
122467,137457,9715,-0.144,1.02,0.015,1.037,0.671,0.915,508.797
122467,137316,10925,-0.145,1.024,0.021,1.037,0.671,0.915,508.803
122361,137457,9715,-0.14,1.013,0.022,0.976,0.732,1.28,508.807
122361,137251,10928,-0.137,1.026,0.01,0.976,0.732,1.28,508.813
122380,137457,9715,-0.138,1.047,0.002,2.805,0.732,1.22,508.817
122380,137226,10924,-0.138,1.046,0.009,2.805,0.732,1.22,508.823
122261,137201,9715,-0.138,1.031,0.017,2.927,1.037,0.244,508.827
122261,137136,10911,-0.139,1.029,0.021,2.927,1.037,0.244,508.833
122204,137201,9715,-0.137,1.009,0.042,2.5,1.037,-0.366,508.836
122204,137092,10905,-0.132,0.982,0.022,2.5,1.037,-0.366,508.843
122129,137201,9715,-0.134,1.007,-0.025,2.622,1.463,-0.427,508.846
122129,136976,10886,-0.152,1.041,-0.031,2.622,1.463,-0.427,508.853
122226,137201,9715,-0.156,1.032,0.002,-1.037,1.402,-0.183,508.856
122226,137114,10912,-0.138,0.987,0.021,-1.037,1.402,-0.183,508.862
122264,137201,9715,-0.134,0.971,0.011,-0.793,-0.915,0.427,508.866
122264,137154,10914,-0.141,1.01,-0.007,-0.793,-0.915,0.427,508.872
122217,137201,9715,-0.145,1.052,-0.016,-3.049,-0.183,1.402,508.876
122217,137079,10902,-0.143,1.035,0.001,-3.049,-0.183,1.402,508.882
122276,137201,9715,-0.144,1.003,0.023,-4.512,-0.793,1.098,508.886
122276,137134,10910,-0.143,0.995,0.028,-4.512,-0.793,1.098,508.892
122304,137201,9715,-0.139,1.013,0.029,-3.659,-1.646,1.098,508.896
122304,137144,10907,-0.135,1.035,0.041,-3.659,-1.646,1.098,508.902
122110,136945,9715,-0.128,1.024,0.069,-1.159,-0.915,1.037,508.906
122110,136939,10891,-0.127,1.005,0.08,-1.159,-0.915,1.037,508.912
122093,137201,9715,-0.123,0.996,0.064,3.902,0.488,-0.305,508.916
122093,136978,10899,-0.126,1.013,0.016,3.902,0.488,-0.305,508.922
122095,136945,9715,-0.142,1.054,-0.029,6.402,3.963,-2.195,508.926
122095,136948,10884,-0.157,1.072,-0.041,6.402,3.963,-2.195,508.932
122153,137201,9715,-0.157,1.042,-0.039,2.378,3.78,-2.195,508.935
122153,137040,10915,-0.149,1.02,-0.031,2.378,3.78,-2.195,508.942
122381,137457,9715,-0.14,1.026,-0.005,-1.829,-0.61,-0.732,508.945
122381,137290,10917,-0.134,1.012,0.016,-1.829,-0.61,-0.732,508.952
122416,137457,9715,-0.134,0.986,0.022,-4.207,-1.829,0.549,508.955
122416,137303,10905,-0.144,0.989,0.034,-4.207,-1.829,0.549,508.961
122398,137457,9715,-0.149,0.987,0.071,-4.329,-0.671,0.671,508.965
122398,137294,10911,-0.137,0.956,0.086,-4.329,-0.671,0.671,508.971
122331,137201,9715,-0.125,0.97,0.054,2.012,-0.549,0.732,508.975
122331,137198,10911,-0.132,1.036,-0.002,2.012,-0.549,0.732,508.981
122196,137201,9715,-0.143,1.085,-0.021,6.341,1.646,0.061,508.985
122196,137073,10886,-0.152,1.066,-0.012,6.341,1.646,0.061,508.991
122360,137457,9715,-0.15,1.013,-0.007,2.317,2.073,-1.037,508.995
122360,137300,10911,-0.15,0.98,-0.006,2.317,2.073,-1.037,509.001
122289,137201,9715,-0.148,0.989,-0.012,-1.524,0.061,0.183,509.005
122289,137199,10905,-0.145,1.031,-0.013,-1.524,0.061,0.183,509.011
122326,137457,9715,-0.147,1.057,-0.018,-3.171,0.122,2.195,509.015
122326,137289,10889,-0.143,1.05,-0.009,-3.171,0.122,2.195,509.021
122377,137457,9715,-0.14,1.024,0.017,-4.939,-0.976,2.378,509.025
122377,137331,10905,-0.137,1.015,0.034,-4.939,-0.976,2.378,509.031
122432,137457,9715,-0.134,1.015,0.051,-4.146,-1.829,1.463,509.034
122432,137402,10912,-0.131,1.008,0.049,-4.146,-1.829,1.463,509.041
122472,137457,9715,-0.131,1.004,0.025,-0.122,0.061,0.732,509.044
122472,137442,10932,-0.14,1.02,0.002,-0.122,0.061,0.732,509.051
122522,137713,9715,-0.151,1.028,-0.001,0.976,1.829,0.061,509.054
122522,137487,10930,-0.151,1.009,0.01,0.976,1.829,0.061,509.06
122540,137713,9715,-0.151,1.009,0.01,0.976,1.829,0.061,509.064
122540,137532,10927,-0.14,0.966,0.04,-0.671,0.854,0.793,509.07
122623,137713,9715,-0.14,0.966,0.04,-0.671,0.854,0.793,509.074
122623,137614,10943,-0.135,1.006,0.016,-0.915,-0.793,2.5,509.08
122690,137713,9715,-0.135,1.006,0.016,-0.915,-0.793,2.5,509.084
122690,137719,10949,-0.138,1.072,0.004,0.671,0,2.683,509.09
122689,137713,9715,-0.138,1.072,0.004,0.671,0,2.683,509.094
122689,137706,10933,-0.13,1.04,0.016,-0.061,-0.366,1.098,509.1
122684,137969,9715,-0.13,1.04,0.016,-0.061,-0.366,1.098,509.104
122684,137738,10933,-0.134,1.037,0.008,-0.122,-0.793,0.305,509.11
122803,137969,9715,-0.134,1.037,0.008,-0.122,-0.793,0.305,509.114
122803,137865,10956,-0.144,1.02,0.011,-1.646,0.305,-0.793,509.12
122723,137969,9715,-0.144,1.02,0.011,-1.646,0.305,-0.793,509.124
122723,137728,10936,-0.142,0.976,0.03,-2.012,0.427,-1.037,509.13
122676,137713,9715,-0.142,0.976,0.03,-2.012,0.427,-1.037,509.133
122676,137722,10944,-0.144,1.006,0.02,-0.366,-0.061,0,509.14
122753,137969,9715,-0.144,1.006,0.02,-0.366,-0.061,0,509.143
122753,137751,10948,-0.141,1.001,0.029,-0.366,0.366,0.793,509.15
122613,137713,9715,-0.141,1.001,0.029,-0.366,0.366,0.793,509.153
122613,137620,10935,-0.128,0.995,0.051,-0.671,-0.488,1.22,509.159
122602,137713,9715,-0.128,0.995,0.051,-0.671,-0.488,1.22,509.163
122602,137580,10935,-0.129,1.03,0.014,1.646,-0.488,1.22,509.169
122585,137713,9715,-0.129,1.03,0.014,1.646,-0.488,1.22,509.173
122585,137544,10919,-0.146,1.076,-0.02,3.232,1.951,0.366,509.179
122549,137713,9715,-0.146,1.076,-0.02,3.232,1.951,0.366,509.183
122549,137521,10938,-0.144,0.998,0.013,0.854,1.768,-0.915,509.189
122723,137713,9715,-0.144,0.998,0.013,0.854,1.768,-0.915,509.193
122723,137701,10940,-0.143,1.014,0.012,-0.793,-0.366,-1.098,509.199
122578,137713,9715,-0.143,1.014,0.012,-0.793,-0.366,-1.098,509.203
122578,137530,10927,-0.144,1.051,-0.004,-1.829,-0.488,0.244,509.209
122450,137457,9715,-0.144,1.051,-0.004,-1.829,-0.488,0.244,509.213
122450,137396,10925,-0.146,1.016,0.015,-2.683,-0.366,0.854,509.219
122404,137457,9715,-0.146,0.989,0.034,-2.683,-0.366,0.854,509.223
122404,137383,10912,-0.146,0.993,0.033,-1.89,-0.366,0.854,509.229
122436,137457,9715,-0.142,1.007,0.028,-1.89,-0.366,0.854,509.232
122436,137359,10925,-0.138,1.01,0.038,-0.854,-0.122,1.159,509.239
122447,137457,9715,-0.131,0.991,0.047,-0.854,-0.122,1.159,509.242
122447,137422,10933,-0.133,0.987,0.036,1.463,0.793,1.402,509.249
122604,137713,9715,-0.137,1.012,0.024,1.463,0.793,1.402,509.252
122604,137562,10927,-0.135,1.02,0.031,2.927,1.585,1.524,509.258
122388,137457,9715,-0.13,1,0.03,2.927,1.585,1.524,509.262
122388,137306,10896,-0.128,1.015,-0.008,4.39,1.402,1.159,509.268
122364,137457,9715,-0.138,1.06,-0.036,4.39,1.402,1.159,509.272
122364,137341,10922,-0.141,1.085,-0.028,1.22,1.159,0.244,509.278
122448,137457,9715,-0.134,1.063,-0.016,1.22,1.159,0.244,509.282
122448,137404,10918,-0.132,1.023,-0.003,-2.256,-0.671,-0.976,509.288
122305,137457,9715,-0.135,1.001,0.008,-2.256,-0.671,-0.976,509.292
122305,137225,10892,-0.143,1.002,0.01,-4.207,-0.793,-0.976,509.298
122242,137201,9715,-0.144,1.006,0.018,-4.207,-0.793,-0.976,509.302
122242,137199,10897,-0.143,0.997,0.03,-3.72,-0.732,-0.244,509.308
122293,137457,9715,-0.144,0.987,0.04,-3.72,-0.732,-0.244,509.312
122293,137252,10905,-0.142,0.984,0.043,-0.122,-0.671,0.244,509.318
122298,137457,9715,-0.138,0.985,0.034,-0.122,-0.671,0.244,509.322
122298,137232,10910,-0.142,1,0.018,2.805,0.488,1.037,509.328
122172,137201,9715,-0.145,1.016,0.023,2.805,0.488,1.037,509.331
122172,137068,10894,-0.143,1.005,0.03,3.72,1.22,1.402,509.338
122169,137201,9715,-0.139,0.994,0.015,3.72,1.22,1.402,509.341
122169,137065,10890,-0.137,1.016,-0.005,5.61,0.549,1.341,509.348
122314,137457,9715,-0.144,1.065,-0.008,5.61,0.549,1.341,509.351
122314,137261,10908,-0.141,1.08,-0.011,1.463,0.854,1.402,509.357
122289,137201,9715,-0.132,1.057,-0.001,1.463,0.854,1.402,509.361
122289,137205,10905,-0.133,1.032,0.014,-0.915,-0.366,0.793,509.367
122290,137201,9715,-0.136,1.014,0.026,-0.915,-0.366,0.793,509.371
122290,137208,10902,-0.133,0.999,0.031,-1.22,-0.488,-0.366,509.377
122348,137457,9715,-0.132,1.007,0.019,-1.22,-0.488,-0.366,509.381
122348,137238,10920,-0.137,1.029,0.015,0.183,0.61,-0.976,509.387
122255,137201,9715,-0.142,1.028,0.031,0.183,0.61,-0.976,509.391
122255,137168,10909,-0.133,0.988,0.055,1.402,0.854,-1.098,509.397
122285,137201,9715,-0.13,0.963,0.038,1.402,0.854,-1.098,509.401
122285,137164,10911,-0.141,0.989,0.001,2.378,1.585,-0.732,509.407
122285,137201,9715,-0.149,1.025,-0.018,2.378,1.585,-0.732,509.411
122285,137167,10901,-0.151,1.018,-0.002,-0.061,2.073,-0.305,509.417
122201,137201,9715,-0.144,0.991,0.01,-0.061,2.073,-0.305,509.421
122201,137078,10887,-0.137,0.989,-0.003,0.366,-0.183,0.976,509.427
122225,137201,9715,-0.14,1.022,-0.006,0.366,-0.183,0.976,509.43
122225,137115,10903,-0.138,1.054,-0.003,-0.427,-0.549,2.439,509.437
122376,137457,9715,-0.132,1.06,-0.001,-0.427,-0.549,2.439,509.44
122376,137312,10918,-0.127,1.051,0.01,-1.89,-0.854,1.585,509.447
122358,137457,9715,-0.132,1.031,0.024,-1.89,-0.854,1.585,509.45
122358,137227,10910,-0.133,1.014,0.027,-2.012,-0.549,0,509.456
122294,137457,9715,-0.139,1.008,0.031,-2.012,-0.549,0,509.46
122294,137274,10914,-0.145,1.004,0.038,-0.366,0.671,-0.732,509.466
122469,137457,9715,-0.147,0.993,0.038,-0.366,0.671,-0.732,509.47
122469,137425,10923,-0.145,0.99,0.033,1.768,0.976,-0.366,509.476
122444,137457,9715,-0.142,0.998,0.021,1.768,0.976,-0.366,509.48
122444,137375,10918,-0.141,1.001,0.02,3.415,1.098,0.61,509.486
122359,137457,9715,-0.142,1.006,0.016,3.415,1.098,0.61,509.49
122359,137280,10899,-0.142,1.015,0.007,2.927,1.159,1.159,509.496
122373,137457,9715,-0.135,1.016,-0.003,2.927,1.159,1.159,509.5
122373,137254,10913,-0.135,1.015,-0.01,2.561,0.671,1.463,509.506
122332,137201,9715,-0.138,1.034,-0.009,2.561,0.671,1.463,509.51
122332,137212,10906,-0.137,1.042,-0.002,2.317,0.305,1.585,509.516
122402,137457,9715,-0.133,1.028,0.017,2.317,0.305,1.585,509.52
122402,137315,10906,-0.131,1.019,0.017,3.171,-0.244,1.098,509.526
122425,137457,9715,-0.132,1.014,0.01,3.171,-0.244,1.098,509.529
122425,137325,10900,-0.134,0.998,0.013,8.049,0.549,0,509.536
122586,137457,9715,-0.14,1.007,0.005,8.049,0.549,0,509.539
122586,137471,10936,-0.143,0.994,0.024,13.537,1.463,-0.732,509.546
122492,137457,9715,-0.142,1.001,0.031,13.537,1.463,-0.732,509.549
122492,137359,10901,-0.134,1.006,0.027,15.366,1.829,-0.244,509.555
122417,137457,9715,-0.135,1.018,0.023,15.366,1.829,-0.244,509.559
122417,137300,10915,-0.131,1.03,0.013,15.427,2.378,0,509.565
122375,137457,9715,-0.134,1.032,-0.003,15.427,2.378,0,509.569
122375,137279,10916,-0.139,1.043,-0.018,12.683,3.049,-0.427,509.575
122312,137201,9715,-0.142,1.053,-0.026,12.683,3.049,-0.427,509.579
122312,137157,10890,-0.145,1.059,-0.025,6.524,2.988,-0.793,509.585
122290,137201,9715,-0.138,1.038,0.005,6.524,2.988,-0.793,509.589
122290,137143,10898,-0.131,0.995,0.025,0.366,1.524,-1.28,509.595
122211,137201,9715,-0.13,0.967,0.02,0.366,1.524,-1.28,509.599
122211,137042,10879,-0.138,0.973,-0.001,0.915,2.012,-1.098,509.605
122154,137201,9715,-0.143,0.993,-0.006,0.915,2.012,-1.098,509.609
122154,136986,10890,-0.146,1.021,-0.015,3.232,2.683,-0.854,509.615
122181,137201,9715,-0.145,1.033,-0.016,3.232,2.683,-0.854,509.619
122181,136999,10866,-0.143,1.019,-0.007,4.451,1.28,-0.183,509.625
122025,136945,9715,-0.137,1.013,-0.022,4.451,1.28,-0.183,509.628
122025,136853,10874,-0.141,1.03,-0.037,2.988,0.488,0.122,509.635
121986,136945,9715,-0.153,1.056,-0.047,2.988,0.488,0.122,509.638
121986,136827,10865,-0.152,1.057,-0.042,-0.793,0.427,-0.305,509.645
122068,136945,9715,-0.147,1.035,-0.023,-0.793,0.427,-0.305,509.648
122068,136902,10879,-0.145,1.012,0.014,-4.085,-1.463,0.305,509.654
122097,136945,9715,-0.145,1.012,0.014,-4.085,-1.463,0.305,509.658
122097,136880,10882,-0.131,0.984,0.015,-3.841,-1.829,1.22,509.664
122104,136945,9715,-0.131,0.984,0.015,-3.841,-1.829,1.22,509.668
122104,136926,10871,-0.146,1.046,-0.005,-1.89,0.305,0.976,509.674
122253,137201,9715,-0.146,1.046,-0.005,-1.89,0.305,0.976,509.678
122253,137063,10882,-0.139,0.969,0.01,-1.402,0.854,0.61,509.684
122216,137201,9715,-0.139,0.969,0.01,-1.402,0.854,0.61,509.688
122216,137068,10883,-0.141,1.026,-0,-1.098,-0.061,1.28,509.694
122292,137201,9715,-0.141,1.026,-0,-1.098,-0.061,1.28,509.698
122292,137148,10884,-0.129,1.01,0.009,0.549,0.122,1.463,509.704
122256,137201,9715,-0.129,1.01,0.009,0.549,0.122,1.463,509.708
122256,137108,10873,-0.147,1.049,-0.035,1.524,0.671,0.549,509.714
122140,137201,9715,-0.147,1.049,-0.035,1.524,0.671,0.549,509.718
122140,136978,10868,-0.142,1.019,0.01,-0.122,0.427,0.061,509.724
122110,136945,9715,-0.142,1.019,0.01,-0.122,0.427,0.061,509.727
122110,136952,10885,-0.138,1.014,-0.01,-1.037,-0.732,0.183,509.734
122110,136945,9715,-0.138,1.014,-0.01,-1.037,-0.732,0.183,509.737
122110,136931,10867,-0.135,0.989,0.037,0.427,-0.183,-0.061,509.744
122107,136945,9715,-0.135,0.989,0.037,0.427,-0.183,-0.061,509.747
122107,136945,10886,-0.135,1.047,-0.016,1.89,0.244,0,509.753
122120,136945,9715,-0.135,1.047,-0.016,1.89,0.244,0,509.757
122120,136945,10856,-0.135,1.002,0.004,0.793,0.915,-0.427,509.763
122143,137201,9715,-0.135,1.002,0.004,0.793,0.915,-0.427,509.767
122143,137004,10862,-0.148,1.005,-0.024,0.427,1.037,-0.854,509.773
122206,137201,9715,-0.148,1.005,-0.024,0.427,1.037,-0.854,509.777
122206,137042,10875,-0.143,1.045,-0.025,-1.524,0.427,0.183,509.783
122129,137201,9715,-0.143,1.045,-0.025,-1.524,0.427,0.183,509.787
122129,136964,10866,-0.135,1.004,0.019,-1.707,-0.976,0.549,509.793
122101,136945,9715,-0.135,1.004,0.019,-1.707,-0.976,0.549,509.797
122101,136924,10877,-0.137,1.021,0.024,0.61,-0.183,-0.122,509.803
122059,136945,9715,-0.137,1.021,0.024,0.61,-0.183,-0.122,509.807
122059,136875,10868,-0.139,1.024,0.002,0.61,-0.183,-0.122,509.813
121993,136945,9715,-0.148,1.023,-0.005,2.317,1.463,-1.159,509.817
121993,136742,10866,-0.149,1.015,0.002,2.317,1.463,-1.159,509.823
121910,136689,9715,-0.146,0.999,-0.001,2.195,1.402,-1.22,509.827
121910,136626,10860,-0.145,0.999,-0.014,2.195,1.402,-1.22,509.833
121917,136689,9715,-0.144,1.017,-0.016,2.5,0.976,-0.427,509.836
121917,136640,10861,-0.147,1.032,-0.018,2.5,0.976,-0.427,509.843
121932,136689,9715,-0.137,1.032,-0.025,0.976,0.732,0.183,509.846
121932,136695,10856,-0.132,1.025,-0.023,0.976,0.732,0.183,509.852
121951,136689,9715,-0.138,1.015,-0.024,-1.402,-0.122,0.061,509.856
121951,136691,10861,-0.14,1.001,-0.018,-1.402,-0.122,0.061,509.862
122009,136945,9715,-0.142,0.991,-0.005,-3.171,-0.122,-0.122,509.866
122009,136795,10877,-0.143,0.993,0.01,-3.171,-0.122,-0.122,509.872
122259,137201,9715,-0.14,1.003,0.014,-1.463,-0.732,0.61,509.876
122259,137062,10892,-0.132,1.015,0.018,-1.463,-0.732,0.61,509.882
122325,137201,9715,-0.128,1.015,0.027,2.805,-1.159,0.793,509.886
122325,137154,10896,-0.134,1.014,0.032,2.805,-1.159,0.793,509.892
122310,137201,9715,-0.14,1.01,0.03,6.28,0.549,-0.366,509.896
122310,137115,10883,-0.14,1.008,0.013,6.28,0.549,-0.366,509.902
122350,137201,9715,-0.142,1.021,-0.012,6.463,2.134,-1.463,509.906
122350,137163,10874,-0.145,1.04,-0.024,6.463,2.134,-1.463,509.912
122223,137201,9715,-0.148,1.035,-0.026,3.902,2.134,-1.585,509.916
122223,137017,10896,-0.149,1.024,-0.025,3.902,2.134,-1.585,509.922
122068,136945,9715,-0.145,1.024,-0.027,1.646,0.854,-1.28,509.926
122068,136846,10884,-0.144,1.031,-0.024,1.646,0.854,-1.28,509.932
122117,136945,9715,-0.147,1.029,-0.017,-0.427,0,-0.244,509.935
122117,136883,10877,-0.14,1.02,-0.006,-0.427,0,-0.244,509.942
122074,136945,9715,-0.141,1.008,0.005,-1.585,-0.122,0.61,509.945
122074,136832,10876,-0.142,1.004,-0.001,-1.585,-0.122,0.61,509.952
121977,136945,9715,-0.144,1.009,-0.01,-0.488,0.183,0.854,509.955
121977,136736,10862,-0.144,1.015,-0.01,-0.488,0.183,0.854,509.961
122096,136945,9715,-0.145,1.009,0.005,-0.305,0.305,0.793,509.965
122096,136854,10881,-0.141,0.995,0.024,-0.305,0.305,0.793,509.971
122063,136945,9715,-0.133,0.987,0.014,0.61,-0.122,0.732,509.975
122063,136844,10866,-0.135,1.003,-0.01,0.61,-0.122,0.732,509.981
122092,136945,9715,-0.144,1.028,-0.027,2.561,0.671,0.244,509.985
122092,136852,10870,-0.144,1.047,-0.03,2.561,0.671,0.244,509.991
121917,136689,9715,-0.145,1.042,-0.029,1.402,0.732,-0.122,509.995
121917,136656,10856,-0.139,1.023,-0.029,1.402,0.732,-0.122,510.001
121928,136689,9715,-0.14,1.019,-0.032,-0.305,-0.61,-0.183,510.005
121928,136664,10857,-0.146,1.031,-0.032,-0.305,-0.61,-0.183,510.011
121859,136689,9715,-0.151,1.026,-0.021,-2.439,-0.793,0.305,510.015
121859,136588,10857,-0.148,1.005,-0.009,-2.439,-0.793,0.305,510.021
121896,136689,9715,-0.151,0.996,0.011,-1.646,-1.159,0.854,510.025
121896,136585,10862,-0.148,0.986,0.028,-1.646,-1.159,0.854,510.031
121800,136689,9715,-0.141,0.986,0.024,0.854,-1.037,1.098,510.034
121800,136544,10848,-0.142,1.013,0.002,0.854,-1.037,1.098,510.041
121946,136689,9715,-0.146,1.03,-0.005,2.622,0.061,1.524,510.044
121946,136681,10868,-0.139,0.999,0.019,2.622,0.061,1.524,510.051
121972,136945,9715,-0.138,0.979,0.02,3.659,0.549,1.341,510.054
121972,136731,10862,-0.141,0.999,-0.012,3.659,0.549,1.341,510.06
121964,136945,9715,-0.141,1.024,-0.023,4.512,0.549,1.585,510.064
121964,136719,10861,-0.141,1.031,-0.018,4.512,0.549,1.585,510.07
122052,136945,9715,-0.142,1.034,-0.034,8.72,0.61,0.549,510.074
122052,136816,10877,-0.139,1.048,-0.05,8.72,0.61,0.549,510.08
122075,136945,9715,-0.134,1.059,-0.029,10.305,0.488,-0.915,510.084
122075,136832,10868,-0.13,1.056,0.01,10.305,0.488,-0.915,510.09
122093,136945,9715,-0.12,1.015,0.029,11.22,-0.061,-1.951,510.094
122093,136842,10880,-0.123,0.985,0.019,11.22,-0.061,-1.951,510.1
122182,136945,9715,-0.141,1.012,0.003,12.195,1.646,-2.134,510.104
122182,136944,10881,-0.153,1.024,0.015,12.195,1.646,-2.134,510.11
122129,136945,9715,-0.145,0.984,0.038,9.329,3.11,-1.829,510.114
122129,136890,10880,-0.136,0.948,0.018,9.329,3.11,-1.829,510.12
122062,136945,9715,-0.14,0.979,-0.01,7.134,2.683,-1.098,510.124
122062,136782,10855,-0.147,1.022,-0.029,7.134,2.683,-1.098,510.13
121979,136945,9715,-0.147,1.018,-0.042,1.951,3.11,-0.122,510.133
121979,136744,10856,-0.145,0.998,-0.055,1.951,3.11,-0.122,510.14
122002,136945,9715,-0.147,1.006,-0.075,1.463,1.402,0.732,510.143
122002,136726,10856,-0.15,1.05,-0.071,1.463,1.402,0.732,510.15
122012,136945,9715,-0.15,1.072,-0.06,-1.89,0.061,1.89,510.153
122012,136752,10870,-0.142,1.059,-0.042,-1.89,0.061,1.89,510.159
122054,136945,9715,-0.133,1.036,-0.03,-3.841,-2.012,1.098,510.163
122054,136793,10859,-0.136,1.031,-0.028,-3.841,-2.012,1.098,510.169
122133,136945,9715,-0.14,1.027,-0.016,-2.195,-1.098,-0.305,510.173
122133,136904,10878,-0.144,1.013,0.012,-2.195,-1.098,-0.305,510.179
122177,136945,9715,-0.146,1.006,0.011,0.244,0.244,-1.098,510.183
122177,136944,10867,-0.143,1.015,-0.007,0.244,0.244,-1.098,510.189
122199,137201,9715,-0.147,1.018,-0.004,2.317,0.854,-1.402,510.193
122199,136989,10873,-0.147,1.001,0.008,2.317,0.854,-1.402,510.199
122228,137201,9715,-0.15,0.98,0.003,5.122,2.256,-1.22,510.203
122228,137044,10871,-0.149,0.973,-0.016,5.122,2.256,-1.22,510.209
122210,137201,9715,-0.152,1.002,-0.034,6.463,2.805,-0.305,510.213
122210,137033,10887,-0.15,1.042,-0.045,6.463,2.805,-0.305,510.219
122240,137201,9715,-0.146,1.048,-0.04,4.512,1.829,1.341,510.223
122240,137007,10888,-0.141,1.032,-0.027,4.512,1.829,1.341,510.229
122197,136945,9715,-0.134,1.014,-0.011,0.244,0.122,1.646,510.232
122197,136953,10882,-0.133,0.999,0.01,0.244,0.122,1.646,510.239
122153,136945,9715,-0.13,0.98,0.006,0.122,-0.061,0.671,510.242
122153,136919,10863,-0.134,0.989,-0.014,0.122,-0.061,0.671,510.249
122239,137201,9715,-0.143,1.021,-0.036,3.72,0.793,-0.61,510.252
122239,136996,10883,-0.148,1.044,-0.048,3.72,0.793,-0.61,510.258
122100,136945,9715,-0.148,1.044,-0.048,3.72,0.793,-0.61,510.262
122100,136868,10878,-0.141,1.026,-0.024,3.11,0.854,-0.61,510.268
122048,136945,9715,-0.141,1.026,-0.024,3.11,0.854,-0.61,510.272
122048,136802,10872,-0.142,1.006,-0.045,3.232,-0.427,-1.037,510.278
121947,136689,9715,-0.142,1.006,-0.045,3.232,-0.427,-1.037,510.282
121947,136689,10856,-0.164,1.037,-0.041,2.683,0.854,-1.22,510.288
121869,136689,9715,-0.164,1.037,-0.041,2.683,0.854,-1.22,510.292
121869,136593,10860,-0.142,0.986,-0.032,-2.012,0.549,-0.366,510.298
121873,136689,9715,-0.142,0.986,-0.032,-2.012,0.549,-0.366,510.302
121873,136555,10853,-0.147,1.015,-0.024,-0.976,-0.976,0.793,510.308
121884,136689,9715,-0.147,1.015,-0.024,-0.976,-0.976,0.793,510.312
121884,136559,10856,-0.142,1.028,0.01,0.244,-0.183,0.915,510.318
121734,136433,9715,-0.142,1.028,0.01,0.244,-0.183,0.915,510.322
121734,136400,10841,-0.125,0.993,0.011,2.805,-0.366,0.244,510.328
121791,136689,9715,-0.125,0.993,0.011,2.805,-0.366,0.244,510.331
121791,136464,10851,-0.147,1.027,-0.02,9.878,1.707,-0.671,510.338
121799,136689,9715,-0.147,1.027,-0.02,9.878,1.707,-0.671,510.341
121799,136452,10829,-0.151,1,-0.029,10.305,4.024,-1.159,510.348
121678,136433,9715,-0.151,1,-0.029,10.305,4.024,-1.159,510.351
121678,136334,10834,-0.143,0.997,-0.054,7.317,1.951,-0.854,510.357
121602,136433,9715,-0.143,0.997,-0.054,7.317,1.951,-0.854,510.361
121602,136279,10821,-0.148,1.029,-0.033,5,0.854,0.549,510.367
121833,136689,9715,-0.148,1.029,-0.033,5,0.854,0.549,510.371
121833,136480,10833,-0.139,1.013,-0.031,2.683,0.061,1.159,510.377
121888,136689,9715,-0.139,1.013,-0.031,2.683,0.061,1.159,510.381
121888,136538,10854,-0.149,1.036,-0.039,4.268,-0.488,0.549,510.387
122047,136689,9715,-0.149,1.036,-0.039,4.268,-0.488,0.549,510.391
122047,136699,10865,-0.148,1.02,-0.025,3.963,0.549,-0.122,510.397
122125,136945,9715,-0.148,1.02,-0.025,3.963,0.549,-0.122,510.401
122125,136822,10890,-0.144,1.004,-0.025,5.488,0.061,-0.183,510.407
122171,136945,9715,-0.146,1.006,-0.035,5.488,0.061,-0.183,510.411
122171,136903,10901,-0.146,1.022,-0.052,8.598,0.732,-0.183,510.417
122237,136945,9715,-0.147,1.03,-0.06,8.598,0.732,-0.183,510.421
122237,136957,10886,-0.149,1.03,-0.065,9.573,1.646,-0.61,510.427
122127,136945,9715,-0.149,1.018,-0.055,9.573,1.646,-0.61,510.431
122127,136824,10874,-0.151,1.007,-0.028,8.78,1.524,-0.61,510.437
122075,136945,9715,-0.149,0.997,-0.009,8.78,1.524,-0.61,510.44
122075,136810,10869,-0.14,0.996,-0.007,6.646,0.488,0.061,510.447
121901,136689,9715,-0.134,1.005,-0.019,6.646,0.488,0.061,510.45
121901,136606,10854,-0.138,1.022,-0.034,4.146,0.427,0.366,510.456
121821,136689,9715,-0.14,1.03,-0.047,4.146,0.427,0.366,510.46
121821,136485,10839,-0.143,1.027,-0.036,2.744,1.159,-0.488,510.466
121709,136433,9715,-0.144,0.998,-0.018,2.744,1.159,-0.488,510.47
121709,136415,10842,-0.137,0.964,-0.022,5.183,0.671,-1.402,510.476
121828,136689,9715,-0.144,0.974,-0.039,5.183,0.671,-1.402,510.48
121828,136528,10862,-0.152,1.031,-0.056,5.549,0.976,-0.915,510.486
121877,136689,9715,-0.156,1.066,-0.079,5.549,0.976,-0.915,510.49
121877,136579,10860,-0.153,1.062,-0.093,1.098,0.61,0.183,510.496
121832,136689,9715,-0.148,1.06,-0.086,1.098,0.61,0.183,510.5
121832,136503,10848,-0.154,1.049,-0.066,-3.537,-0.732,0.366,510.506
121895,136689,9715,-0.154,1.005,-0.024,-3.537,-0.732,0.366,510.51
121895,136622,10871,-0.146,0.965,0.022,-6.037,-0.915,0.488,510.516
122063,136945,9715,-0.134,0.964,0.019,-6.037,-0.915,0.488,510.52
122063,136775,10882,-0.133,1.014,-0.017,0.854,-0.366,0.854,510.526
122035,136945,9715,-0.142,1.065,-0.049,0.854,-0.366,0.854,510.53
122035,136720,10869,-0.151,1.056,-0.044,6.037,2.805,-0.061,510.536
121924,136689,9715,-0.146,0.992,-0.021,6.037,2.805,-0.061,510.539
121924,136629,10853,-0.141,0.962,-0.026,5.854,2.561,-1.646,510.546
121989,136945,9715,-0.142,0.977,-0.048,5.854,2.561,-1.646,510.549
121989,136733,10873,-0.149,0.987,-0.051,3.78,1.768,-0.671,510.555
121822,136689,9715,-0.146,0.991,-0.061,3.78,1.768,-0.671,510.559
121822,136539,10846,-0.147,1.014,-0.082,3.415,1.098,0.915,510.565
121804,136689,9715,-0.151,1.041,-0.062,3.415,1.098,0.915,510.569
121804,136567,10861,-0.148,1.04,-0.038,-1.768,-0.305,1.646,510.575
121753,136433,9715,-0.137,1.032,-0.02,-1.768,-0.305,1.646,510.579
121753,136437,10842,-0.13,1.037,-0.021,-0.366,-1.646,0.732,510.585
121593,136433,9715,-0.134,1.048,-0.058,-0.366,-1.646,0.732,510.589
121593,136266,10836,-0.15,1.073,-0.089,3.11,0.793,-1.402,510.595
121626,136433,9715,-0.156,1.077,-0.081,3.11,0.793,-1.402,510.599
121626,136322,10837,-0.148,1.02,-0.043,-1.402,1.768,-2.805,510.605
121691,136433,9715,-0.142,0.943,-0.01,-1.402,1.768,-2.805,510.609
121691,136340,10844,-0.144,0.915,-0.007,-1.402,0.061,-1.768,510.615
121642,136433,9715,-0.15,0.955,-0.035,-1.402,0.061,-1.768,510.619
121642,136332,10838,-0.161,1.022,-0.068,-1.89,1.768,-0.061,510.625
121838,136689,9715,-0.159,1.048,-0.072,-1.89,1.768,-0.061,510.629
121838,136533,10859,-0.149,1.023,-0.04,-1.402,0.427,0.976,510.635
121905,136689,9715,-0.148,0.995,-0.015,-1.402,0.427,0.976,510.638
121905,136600,10869,-0.143,0.986,-0.024,-0.122,-0.915,1.768,510.645
121964,136689,9715,-0.145,1.001,-0.045,-0.122,-0.915,1.768,510.648
121964,136693,10876,-0.153,1.029,-0.07,-0.854,0.244,2.317,510.655
121997,136945,9715,-0.155,1.049,-0.078,-0.854,0.244,2.317,510.658
