126770,148046,11018,-0.185,1.002,0.021,-1.585,0.488,-0.488,35.14
126697,147953,9715,-0.183,1.003,0.022,-2.683,-0.122,0.061,35.144
126697,147961,11010,-0.182,1.003,0.024,-2.683,-0.122,0.061,35.15
126598,147953,9715,-0.177,0.999,0.032,-1.768,-0.366,0.305,35.154
126598,147853,11003,-0.176,1.002,0.036,-1.768,-0.366,0.305,35.16
126584,147953,9715,-0.177,1.002,0.042,0.061,-0.061,0.183,35.164
126584,147871,11011,-0.18,0.997,0.048,0.061,-0.061,0.183,35.17
126555,147953,9715,-0.18,0.997,0.048,0.061,-0.061,0.183,35.174
126555,147816,11005,-0.178,1.01,0.047,3.232,0.976,0.244,35.18
126507,147953,9715,-0.178,1.01,0.047,3.232,0.976,0.244,35.183
126507,147770,10993,-0.177,1.017,0.029,5.976,1.159,0,35.19
126542,147953,9715,-0.177,1.017,0.029,5.976,1.159,0,35.193
126542,147764,10994,-0.184,1.016,-0.007,6.463,1.707,-0.61,35.2
126464,147697,9715,-0.184,1.016,-0.007,6.463,1.707,-0.61,35.203
126464,147675,10993,-0.196,1.055,-0.035,4.146,2.5,-0.61,35.209
126473,147697,9715,-0.196,1.055,-0.035,4.146,2.5,-0.61,35.213
126473,147662,10999,-0.177,1.038,-0.013,-0.854,0.732,-0.122,35.219
126442,147697,9715,-0.177,1.038,-0.013,-0.854,0.732,-0.122,35.223
126442,147609,11008,-0.187,0.998,0.013,-6.89,-1.524,0.305,35.229
126390,147697,9715,-0.187,0.998,0.013,-6.89,-1.524,0.305,35.233
126390,147584,10996,-0.18,0.982,0.044,-9.207,-1.098,0.793,35.239
126306,147697,9715,-0.18,0.982,0.044,-9.207,-1.098,0.793,35.243
126306,147479,10987,-0.179,0.995,0.054,-6.098,-1.463,1.524,35.249
126284,147441,9715,-0.179,0.995,0.054,-6.098,-1.463,1.524,35.253
126284,147428,10976,-0.172,0.973,0.059,-1.646,-1.037,1.22,35.259
126330,147697,9715,-0.172,0.973,0.059,-1.646,-1.037,1.22,35.263
126330,147521,10989,-0.186,1.028,0.013,3.476,0.793,0.976,35.269
126325,147697,9715,-0.186,1.028,0.013,3.476,0.793,0.976,35.273
126325,147505,10975,-0.18,1.059,0.003,4.024,1.89,0.61,35.279
126362,147697,9715,-0.18,1.059,0.003,4.024,1.89,0.61,35.282
126362,147543,10989,-0.178,1.021,0.014,0.488,0.183,0.488,35.289
126438,147697,9715,-0.178,1.021,0.014,0.488,0.183,0.488,35.292
126438,147672,11002,-0.18,1.019,0.012,-3.902,0.183,0.793,35.299
126412,147697,9715,-0.18,1.019,0.012,-3.902,0.183,0.793,35.302
126412,147622,10995,-0.174,1.013,0.02,-5.854,-0.427,0.305,35.308
126418,147697,9715,-0.174,1.013,0.02,-5.854,-0.427,0.305,35.312
126418,147606,10990,-0.175,1.003,0.035,-5.122,-1.159,-0.305,35.318
126393,147697,9715,-0.174,0.99,0.048,-5.122,-1.159,-0.305,35.322
126393,147597,10984,-0.175,0.98,0.059,-1.707,-0.244,-0.671,35.328
126381,147697,9715,-0.179,0.976,0.049,-1.707,-0.244,-0.671,35.332
126381,147600,10973,-0.181,0.985,0.038,2.866,0.732,-0.854,35.338
126405,147697,9715,-0.186,1.01,0.022,2.866,0.732,-0.854,35.342
126405,147623,10982,-0.188,1.025,0.012,4.451,1.524,-0.732,35.348
126392,147697,9715,-0.19,1.027,0.009,4.451,1.524,-0.732,35.352
126392,147595,10990,-0.186,1.021,0.012,2.012,0.854,0.061,35.358
126429,147697,9715,-0.187,1.019,0.018,2.012,0.854,0.061,35.362
126429,147680,11016,-0.188,1.014,0.02,-1.28,0.366,0.976,35.368
126530,147953,9715,-0.186,1.01,0.03,-1.28,0.366,0.976,35.372
126530,147763,11004,-0.181,1.01,0.032,-2.561,-0.061,1.463,35.378
126527,147953,9715,-0.174,1.009,0.03,-2.561,-0.061,1.463,35.381
126527,147780,10999,-0.174,1.021,0.024,-1.463,-0.305,1.22,35.388
126540,147953,9715,-0.177,1.019,0.03,-1.463,-0.305,1.22,35.391
126540,147790,11003,-0.175,1.006,0.041,0.915,0.793,0.061,35.398
126531,147953,9715,-0.173,0.99,0.041,0.915,0.793,0.061,35.401
126531,147770,10992,-0.178,0.998,0.025,3.841,1.707,-0.61,35.407
126570,147953,9715,-0.181,1.02,0.009,3.841,1.707,-0.61,35.411
126570,147833,10997,-0.182,1.027,0.006,3.72,1.829,-0.488,35.417
126585,147953,9715,-0.183,1.024,0.008,3.72,1.829,-0.488,35.421
126585,147886,11004,-0.185,1.021,0.008,1.22,1.037,0.122,35.427
126583,147953,9715,-0.184,1.017,0.017,1.22,1.037,0.122,35.431
126583,147898,11003,-0.183,1.014,0.02,-1.402,0.244,0.671,35.437
126589,147953,9715,-0.182,1.018,0.016,-1.402,0.244,0.671,35.441
126589,147852,11000,-0.183,1.017,0.018,-3.171,-0.244,0.793,35.447
126635,147953,9715,-0.184,1.017,0.022,-3.171,-0.244,0.793,35.451
126635,147931,11014,-0.184,1.009,0.029,-3.537,-0.549,0.427,35.457
126661,147953,9715,-0.182,0.995,0.038,-3.537,-0.549,0.427,35.461
126661,147949,11000,-0.177,0.992,0.035,-2.317,-0.305,0.488,35.467
126649,147953,9715,-0.179,0.999,0.029,-2.317,-0.305,0.488,35.471
126649,147931,10997,-0.182,1.014,0.021,-0.305,0.366,0.488,35.477
126552,147953,9715,-0.184,1.023,0.022,-0.305,0.366,0.488,35.48
126552,147807,11000,-0.184,1.015,0.025,0,0.366,0.366,35.487
126422,147697,9715,-0.183,1.006,0.025,0,0.366,0.366,35.49
126422,147661,10987,-0.177,1.016,0.025,-0.061,0.183,0.854,35.497
126392,147697,9715,-0.179,1.026,0.024,-0.061,0.183,0.854,35.5
126392,147608,10995,-0.178,1.017,0.04,-0.305,0,0.854,35.506
126378,147697,9715,-0.175,0.986,0.051,-0.305,0,0.854,35.51
126378,147623,10982,-0.177,0.986,0.04,1.89,0.671,0.549,35.516
126397,147697,9715,-0.182,1.011,0.021,1.89,0.671,0.549,35.52
126397,147624,10979,-0.183,1.038,0.005,3.476,1.402,0.61,35.526
126367,147697,9715,-0.178,1.049,-0,3.476,1.402,0.61,35.53
126367,147601,10984,-0.176,1.037,0.005,1.402,0.305,0.244,35.536
126428,147697,9715,-0.18,1.017,0.02,1.402,0.305,0.244,35.54
126428,147657,10993,-0.184,1.002,0.02,-2.012,0.183,-0.061,35.546
126355,147697,9715,-0.187,1.001,0.015,-2.012,0.183,-0.061,35.55
126355,147531,10987,-0.189,1.003,0.019,-3.476,0.366,0.183,35.556
126300,147697,9715,-0.182,1.005,0.025,-3.476,0.366,0.183,35.56
126300,147524,10987,-0.182,1.009,0.021,-3.293,-0.915,0.854,35.566
126359,147697,9715,-0.18,1.011,0.024,-3.293,-0.915,0.854,35.57
126359,147560,10999,-0.179,1.011,0.035,-2.988,-0.976,0.976,35.576
126303,147697,9715,-0.177,1.002,0.04,-2.988,-0.976,0.976,35.579
126303,147509,10985,-0.179,0.996,0.037,-1.829,-0.366,0.488,35.586
126264,147697,9715,-0.182,1.006,0.027,-1.829,-0.366,0.488,35.589
126264,147483,10957,-0.184,1.026,0.018,-0.61,0.305,0.61,35.596
126311,147697,9715,-0.176,1.026,0.024,-0.61,0.305,0.61,35.599
126311,147566,10978,-0.177,1.017,0.031,-0.854,-0.183,0.671,35.605
126394,147697,9715,-0.18,1.011,0.031,-0.854,-0.183,0.671,35.609
126394,147624,10980,-0.184,1.008,0.028,-1.524,0.061,0.671,35.615
126373,147697,9715,-0.182,1.008,0.023,-1.524,0.061,0.671,35.619
126373,147616,10990,-0.18,1.018,0.029,-1.585,0.366,0.549,35.625
126371,147697,9715,-0.178,1.021,0.035,-1.585,0.366,0.549,35.629
126371,147644,10993,-0.172,1.013,0.039,-0.915,-0.122,0.427,35.635
126424,147697,9715,-0.17,1.003,0.037,-0.915,-0.122,0.427,35.639
126424,147654,10996,-0.178,0.998,0.033,1.402,0.549,-0.061,35.645
126434,147953,9715,-0.186,1.005,0.025,1.402,0.549,-0.061,35.649
126434,147714,10982,-0.183,1.014,0.014,2.5,1.22,-0.427,35.655
126483,147953,9715,-0.186,1.022,0.01,2.5,1.22,-0.427,35.659
126483,147763,11006,-0.181,1.025,0.017,1.28,0.366,0.061,35.665
126544,147953,9715,-0.183,1.017,0.022,1.28,0.366,0.061,35.669
126544,147826,11002,-0.185,1.004,0.029,-1.037,0.183,0.854,35.675
126652,148209,9715,-0.186,1,0.032,-1.037,0.183,0.854,35.678
126652,147973,11021,-0.185,1.004,0.036,-1.402,0.488,1.159,35.685
126657,148209,9715,-0.178,0.999,0.048,-1.402,0.488,1.159,35.688
126657,147983,11001,-0.171,0.987,0.052,1.829,0.183,1.28,35.695
126669,148209,9715,-0.175,1.002,0.03,1.829,0.183,1.28,35.698
126669,148002,11004,-0.182,1.039,0.005,4.573,0.915,0.793,35.704
126680,148209,9715,-0.18,1.055,0.009,4.573,0.915,0.793,35.708
126680,148001,11006,-0.177,1.035,0.014,3.232,1.159,-0.061,35.714
126646,147953,9715,-0.176,1.011,0.01,3.232,1.159,-0.061,35.718
126646,147963,11007,-0.182,1.021,0.007,0.915,0.549,-0.183,35.724
126597,147953,9715,-0.182,1.032,0.008,0.915,0.549,-0.183,35.728
126597,147912,11003,-0.181,1.021,0.014,-2.561,0.366,-0.122,35.734
126606,147953,9715,-0.175,1.006,0.026,-2.561,0.366,-0.122,35.738
126606,147924,11011,-0.176,1,0.028,-2.988,-0.366,-0.183,35.744
126573,147953,9715,-0.181,1.002,0.03,-2.988,-0.366,-0.183,35.748
126573,147890,11002,-0.185,1.007,0.03,-2.256,0.427,-0.427,35.754
126483,147953,9715,-0.18,1.007,0.029,-2.256,0.427,-0.427,35.758
126483,147730,11004,-0.179,1.009,0.03,-0.671,0.122,-0.427,35.764
126409,147697,9715,-0.179,1.009,0.03,-0.671,0.122,-0.427,35.768
126409,147686,10981,-0.182,1.015,0.02,-0.061,0.244,-0.427,35.774
126310,147697,9715,-0.182,1.015,0.02,-0.061,0.244,-0.427,35.777
126310,147522,10976,-0.186,1.022,0.017,-0.976,0.427,-0.366,35.784
126303,147697,9715,-0.186,1.022,0.017,-0.976,0.427,-0.366,35.787
126303,147496,10986,-0.185,0.992,0.036,-0.915,0.244,0.061,35.794
126214,147441,9715,-0.185,0.992,0.036,-0.915,0.244,0.061,35.797
126214,147366,10976,-0.188,1.004,0.036,-0.915,0.427,0.732,35.803
126031,147185,9715,-0.188,1.004,0.036,-0.915,0.427,0.732,35.807
126031,147182,10965,-0.177,0.994,0.039,0.793,0.061,1.098,35.813
125988,147185,9715,-0.177,0.994,0.039,0.793,0.061,1.098,35.817
125988,147117,10956,-0.185,1.033,0.008,2.012,0.366,0.915,35.823
125970,147185,9715,-0.185,1.033,0.008,2.012,0.366,0.915,35.827
125970,147066,10959,-0.178,1.024,0.021,0.061,0.122,0.671,35.833
125913,147185,9715,-0.178,1.024,0.021,0.061,0.122,0.671,35.837
125913,147002,10954,-0.177,1.011,0.027,-2.073,-0.061,0.976,35.843
125862,146929,9715,-0.177,1.011,0.027,-2.073,-0.061,0.976,35.847
125862,146927,10953,-0.177,1.005,0.032,-1.89,0.183,0.793,35.853
125832,146929,9715,-0.177,1.005,0.032,-1.89,0.183,0.793,35.857
125832,146925,10939,-0.179,1.024,0.019,-0.854,0.122,0.305,35.863
125811,146929,9715,-0.179,1.024,0.019,-0.854,0.122,0.305,35.867
125811,146868,10935,-0.176,0.999,0.044,0.061,0.122,-0.061,35.873
125724,146929,9715,-0.176,0.999,0.044,0.061,0.122,-0.061,35.876
125724,146819,10939,-0.182,1,0.039,1.89,0.671,-0.244,35.883
125753,146929,9715,-0.182,1,0.039,1.89,0.671,-0.244,35.886
125753,146823,10952,-0.185,1.013,0.018,3.415,1.159,0,35.893
125733,146929,9715,-0.185,1.013,0.018,3.415,1.159,0,35.896
125733,146809,10932,-0.185,1.035,0.007,1.646,0.61,0.488,35.902
125724,146929,9715,-0.185,1.035,0.007,1.646,0.61,0.488,35.906
125724,146810,10937,-0.183,1.025,0.013,1.646,0.61,0.488,35.912
125759,146929,9715,-0.183,1.014,0.011,-2.134,0.183,0.915,35.916
125759,146879,10938,-0.184,1.019,0.012,-2.134,0.183,0.915,35.922
125807,147185,9715,-0.184,1.016,0.021,-4.634,-0.183,1.22,35.926
125807,146949,10949,-0.181,1.006,0.041,-4.634,-0.183,1.22,35.932
125803,146929,9715,-0.177,0.993,0.061,-3.11,-0.61,1.402,35.936
125803,146936,10945,-0.172,0.976,0.058,-3.11,-0.61,1.402,35.942
125887,147185,9715,-0.174,0.987,0.043,1.707,0,1.159,35.946
125887,146979,10947,-0.181,1.022,0.025,1.707,0,1.159,35.952
125939,147185,9715,-0.178,1.042,0.016,4.146,1.098,0.244,35.956
125939,147077,10969,-0.175,1.028,0.023,4.146,1.098,0.244,35.962
126017,147185,9715,-0.175,1.011,0.031,4.085,0.976,-0.488,35.966
126017,147189,10976,-0.182,1.008,0.023,4.085,0.976,-0.488,35.972
126130,147441,9715,-0.184,1.017,0.009,2.622,1.463,-0.305,35.976
126130,147331,10974,-0.186,1.028,0.005,2.622,1.463,-0.305,35.982
126085,147441,9715,-0.185,1.03,0.008,0.122,0.854,-0.183,35.985
126085,147274,10961,-0.186,1.025,0.011,0.122,0.854,-0.183,35.992
126129,147441,9715,-0.183,1.013,0.018,-3.354,-0.488,0.183,35.995
126129,147320,10983,-0.182,1.007,0.024,-3.354,-0.488,0.183,36.001
126128,147441,9715,-0.181,1,0.037,-4.695,-0.366,0.366,36.005
126128,147292,10977,-0.182,0.989,0.056,-4.695,-0.366,0.366,36.011
126118,147441,9715,-0.177,0.972,0.055,-0.976,-0.061,0.305,36.015
126118,147294,10958,-0.176,0.979,0.044,-0.976,-0.061,0.305,36.021
126135,147441,9715,-0.184,1.019,0.021,4.329,0.793,0.244,36.025
126135,147316,10972,-0.185,1.049,0.009,4.329,0.793,0.244,36.031
126110,147441,9715,-0.179,1.04,0.009,4.573,1.22,0.183,36.035
126110,147275,10946,-0.179,1.029,0.011,4.573,1.22,0.183,36.041
126084,147441,9715,-0.186,1.018,0.012,1.707,1.22,0.183,36.045
126084,147245,10962,-0.185,1.013,0.012,1.707,1.22,0.183,36.051
126039,147185,9715,-0.186,1.011,0.019,-1.768,0.915,0.732,36.055
126039,147182,10951,-0.183,1.014,0.025,-1.768,0.915,0.732,36.061
126048,147185,9715,-0.182,1.013,0.033,-3.11,-0.366,1.098,36.065
126048,147190,10968,-0.174,1.002,0.044,-3.11,-0.366,1.098,36.071
126076,147441,9715,-0.17,0.985,0.046,-0.61,-0.183,0.732,36.074
126076,147202,10961,-0.177,0.988,0.035,-0.61,-0.183,0.732,36.081
126055,147441,9715,-0.181,1.02,0.008,3.232,0.854,-0.122,36.084
126055,147214,10973,-0.181,1.042,-0.003,3.232,0.854,-0.122,36.091
126106,147441,9715,-0.185,1.037,0.01,1.951,0.854,-0.732,36.094
126106,147279,10969,-0.181,1.011,0.025,1.951,0.854,-0.732,36.1
126044,147441,9715,-0.181,0.997,0.03,-0.915,0.244,0.122,36.104
126044,147214,10970,-0.186,1.005,0.026,-0.915,0.244,0.122,36.11
126034,147441,9715,-0.188,1.018,0.017,-2.317,0.366,0.732,36.114
126034,147209,10951,-0.186,1.021,0.024,-2.317,0.366,0.732,36.12
126034,147441,9715,-0.179,1.009,0.03,-2.073,-0.305,0.732,36.124
126034,147205,10971,-0.177,0.993,0.037,-2.073,-0.305,0.732,36.13
126051,147185,9715,-0.179,0.999,0.026,-0.549,-0.122,0.854,36.134
126051,147198,10964,-0.183,1.026,0.015,-0.549,-0.122,0.854,36.14
125986,147185,9715,-0.177,1.034,0.018,-0.122,0.549,0.732,36.144
125986,147145,10951,-0.173,1.022,0.019,-0.122,0.549,0.732,36.15
126070,147441,9715,-0.174,1.011,0.025,-0.244,0,0.427,36.154
126070,147214,10967,-0.182,1.015,0.017,-0.244,0,0.427,36.16
126092,147441,9715,-0.186,1.019,0.013,-1.463,0.671,0.244,36.164
126092,147260,10967,-0.184,1.012,0.015,-1.463,0.671,0.244,36.17
126064,147441,9715,-0.179,1.005,0.026,-2.012,0.305,0.305,36.174
126064,147207,10971,-0.179,0.999,0.032,-2.012,0.305,0.305,36.18
126076,147441,9715,-0.18,1.003,0.028,-2.012,-0.183,0.61,36.183
126076,147230,10943,-0.181,1.011,0.034,-2.012,-0.183,0.61,36.19
126069,147441,9715,-0.178,1.007,0.053,-0.915,-0.183,0.427,36.193
126069,147204,10960,-0.175,0.979,0.058,-0.915,-0.183,0.427,36.199
126040,147441,9715,-0.178,0.976,0.043,3.11,0.488,0.488,36.203
126040,147252,10955,-0.183,1.009,0.022,3.11,0.488,0.488,36.209
126141,147441,9715,-0.184,1.047,0.001,5,1.524,0.488,36.213
126141,147365,10989,-0.177,1.055,0.002,5,1.524,0.488,36.219
126207,147441,9715,-0.178,1.038,0.011,2.988,0.427,0,36.223
126207,147378,10972,-0.182,1.015,0.008,2.988,0.427,0,36.229
126161,147441,9715,-0.191,1.014,0.003,-1.098,0.854,0.061,36.233
126161,147339,10979,-0.189,1.027,0.001,-1.098,0.854,0.061,36.239
126229,147441,9715,-0.183,1.033,0.009,-5.366,-0.061,0.427,36.243
126229,147434,10976,-0.176,1.016,0.021,-5.366,-0.061,0.427,36.249
126242,147441,9715,-0.177,0.995,0.037,-5.915,-1.341,0.671,36.253
126242,147432,10981,-0.179,0.979,0.05,-5.915,-1.341,0.671,36.259
126212,147441,9715,-0.177,0.978,0.047,-2.5,0,0.488,36.263
126212,147376,10972,-0.178,0.996,0.036,-2.5,0,0.488,36.269
126185,147441,9715,-0.178,1.022,0.031,1.098,0.122,0.244,36.272
126185,147360,10970,-0.172,1.019,0.041,1.098,0.122,0.244,36.279
126193,147441,9715,-0.175,1.002,0.038,2.439,0.305,0.122,36.282
126193,147378,10969,-0.181,1.001,0.027,2.439,0.305,0.122,36.289
126254,147697,9715,-0.187,1.021,0.017,2.439,1.463,-0.061,36.292
126254,147456,10985,-0.186,1.034,0.014,2.439,1.463,-0.061,36.298
126217,147441,9715,-0.181,1.025,0.021,0.671,0.854,-0.183,36.302
126217,147402,10966,-0.182,1.014,0.024,0.671,0.854,-0.183,36.308
126179,147441,9715,-0.182,1.005,0.024,-0.854,0.183,0.122,36.312
126179,147390,10982,-0.183,1.008,0.02,-0.854,0.183,0.122,36.318
126227,147441,9715,-0.184,1.019,0.021,-1.28,0.366,0.305,36.322
126227,147410,10981,-0.18,1.014,0.024,-1.28,0.366,0.305,36.328
126216,147441,9715,-0.179,0.999,0.029,-0.61,0.122,0.244,36.332
126216,147401,10976,-0.18,0.992,0.032,-0.61,0.122,0.244,36.338
126231,147441,9715,-0.182,1.001,0.029,0.976,0.671,0.244,36.342
126231,147420,10973,-0.184,1.012,0.023,0.976,0.671,0.244,36.348
126311,147697,9715,-0.184,1.012,0.023,0.976,0.671,0.244,36.352
126311,147512,10976,-0.183,1.029,0.015,1.89,0.671,0.305,36.358
126284,147697,9715,-0.183,1.029,0.015,1.89,0.671,0.305,36.362
126284,147460,10968,-0.182,1.019,0.022,0.305,0.488,0.671,36.368
126212,147441,9715,-0.182,1.019,0.022,0.305,0.488,0.671,36.372
126212,147411,10972,-0.18,1.023,0.019,-1.707,0.122,0.793,36.378
126275,147697,9715,-0.18,1.023,0.019,-1.707,0.122,0.793,36.381
126275,147500,10980,-0.177,1.008,0.036,-3.232,0.061,0.732,36.388
126256,147441,9715,-0.177,1.008,0.036,-3.232,0.061,0.732,36.391
126256,147454,10979,-0.178,0.999,0.032,-2.378,-0.183,0.427,36.397
126267,147697,9715,-0.178,0.999,0.032,-2.378,-0.183,0.427,36.401
126267,147457,10978,-0.179,1.016,0.021,-0.244,0.305,-0.061,36.407
126293,147697,9715,-0.179,1.016,0.021,-0.244,0.305,-0.061,36.411
126293,147499,10986,-0.179,0.998,0.029,1.463,0.671,-0.183,36.417
126224,147441,9715,-0.179,0.998,0.029,1.463,0.671,-0.183,36.421
126224,147442,10978,-0.185,1.015,0.02,1.768,0.854,0.061,36.427
126254,147697,9715,-0.185,1.015,0.02,1.768,0.854,0.061,36.431
126254,147461,11000,-0.182,1.014,0.023,0.976,0.976,0.183,36.437
126254,147441,9715,-0.182,1.014,0.023,0.976,0.976,0.183,36.441
126254,147446,10975,-0.184,1.021,0.015,0.183,0.427,0.305,36.447
126241,147441,9715,-0.184,1.021,0.015,0.183,0.427,0.305,36.451
126241,147439,10984,-0.178,1.019,0.024,-0.976,0.244,0.366,36.457
126264,147441,9715,-0.178,1.019,0.024,-0.976,0.244,0.366,36.461
126264,147450,10964,-0.18,1.004,0.031,-1.646,0.061,0.244,36.467
126261,147697,9715,-0.18,1.004,0.031,-1.646,0.061,0.244,36.47
126261,147496,10998,-0.181,1.014,0.028,-1.037,0.366,0,36.477
126364,147697,9715,-0.181,1.014,0.028,-1.037,0.366,0,36.48
126364,147610,10967,-0.178,1,0.038,0.244,0.549,-0.061,36.487
126318,147697,9715,-0.178,1,0.038,0.244,0.549,-0.061,36.49
126318,147514,10992,-0.182,0.997,0.028,1.951,0.427,0.183,36.496
126297,147697,9715,-0.18,1.009,0.021,1.951,0.427,0.183,36.5
126297,147526,10977,-0.181,1.021,0.015,1.89,0.915,0.122,36.506
126287,147697,9715,-0.183,1.023,0.019,1.89,0.915,0.122,36.51
126287,147532,10987,-0.182,1.015,0.028,0.732,0.549,-0.061,36.516
126246,147697,9715,-0.181,1.012,0.032,0.732,0.549,-0.061,36.52
126246,147463,10991,-0.18,1.009,0.033,-0.061,0.427,0.488,36.526
126265,147697,9715,-0.181,1.008,0.03,-0.061,0.427,0.488,36.53
126265,147459,10973,-0.179,1.01,0.025,0.854,0.549,0.366,36.536
126297,147697,9715,-0.183,1.016,0.026,0.854,0.549,0.366,36.54
126297,147496,10975,-0.183,1.009,0.029,1.585,0.793,0.244,36.546
126249,147441,9715,-0.181,1.004,0.02,1.585,0.793,0.244,36.55
126249,147446,10975,-0.182,1.012,0.005,1.951,0.854,0.549,36.556
126311,147697,9715,-0.187,1.028,0.004,1.951,0.854,0.549,36.56
126311,147547,10992,-0.186,1.03,0.011,-0.244,0.488,0.732,36.566
126296,147697,9715,-0.183,1.017,0.017,-0.244,0.488,0.732,36.57
126296,147533,10983,-0.181,1.003,0.021,-2.134,-0.183,1.037,36.576
126295,147697,9715,-0.181,1.006,0.022,-2.134,-0.183,1.037,36.579
126295,147512,10981,-0.183,1.015,0.023,-2.988,-0.122,1.159,36.586
126347,147697,9715,-0.18,1.013,0.033,-2.988,-0.122,1.159,36.589
126347,147584,10989,-0.175,1.005,0.037,-2.195,-0.244,1.159,36.595
126325,147697,9715,-0.174,1.001,0.031,-2.195,-0.244,1.159,36.599
126325,147576,10988,-0.177,1.005,0.028,-0.122,0.122,0.793,36.605
126375,147697,9715,-0.178,1.015,0.024,-0.122,0.122,0.793,36.609
126375,147609,10983,-0.178,1.021,0.017,0.671,0.732,0.244,36.615
126409,147697,9715,-0.18,1.025,0.017,0.671,0.732,0.244,36.619
126409,147672,11005,-0.181,1.023,0.021,-0.366,0.305,0.305,36.625
126409,147697,9715,-0.178,1.016,0.023,-0.366,0.305,0.305,36.629
126409,147667,10988,-0.18,1.016,0.026,-2.012,0.061,0.366,36.635
126394,147697,9715,-0.179,1.014,0.026,-2.012,0.061,0.366,36.639
126394,147651,10992,-0.181,1.007,0.026,-2.134,0.183,0.183,36.645
126376,147697,9715,-0.181,1.002,0.028,-2.134,0.183,0.183,36.649
126376,147629,10972,-0.181,1.005,0.032,-1.28,0.183,0.244,36.655
126334,147697,9715,-0.179,1,0.038,-1.28,0.183,0.244,36.659
126334,147566,10982,-0.176,1,0.037,0.305,0.122,0.366,36.665
126338,147697,9715,-0.18,1.006,0.03,0.305,0.122,0.366,36.668
126338,147604,11005,-0.183,1.016,0.022,1.646,0.671,0.244,36.675
126359,147697,9715,-0.182,1.015,0.02,1.646,0.671,0.244,36.678
126359,147621,10999,-0.185,1.015,0.022,1.768,0.976,0.244,36.685
126350,147697,9715,-0.182,1.012,0.026,1.768,0.976,0.244,36.688
126350,147608,10984,-0.181,1.009,0.028,0.732,0.549,0.732,36.694
126403,147697,9715,-0.181,1.011,0.031,0.732,0.549,0.732,36.698
126403,147639,10982,-0.183,1.009,0.028,0.732,0.671,0.976,36.704
126397,147697,9715,-0.183,1.007,0.026,0.732,0.671,0.976,36.708
126397,147683,10978,-0.18,1.012,0.024,1.89,0.793,0.732,36.714
126408,147697,9715,-0.179,1.022,0.022,1.89,0.793,0.732,36.718
126408,147692,10985,-0.179,1.013,0.026,2.256,0.793,0.488,36.724
126385,147697,9715,-0.179,1.01,0.024,2.256,0.793,0.488,36.728
126385,147648,10993,-0.179,1.014,0.018,2.439,1.037,0.427,36.734
126400,147697,9715,-0.178,1.016,0.021,2.439,1.037,0.427,36.738
126400,147653,10981,-0.177,1.011,0.021,2.744,1.037,0.183,36.744
126410,147697,9715,-0.181,1.009,0.015,2.744,1.037,0.183,36.748
126410,147664,10988,-0.183,1.022,0.004,2.012,0.976,-0.061,36.754
126410,147697,9715,-0.185,1.033,0.002,2.012,0.976,-0.061,36.758
126410,147645,10983,-0.182,1.028,0.005,-0.671,0.427,0,36.764
126436,147953,9715,-0.18,1.019,0.012,-0.671,0.427,0,36.768
126436,147715,11005,-0.182,1.013,0.014,-3.598,-0.305,0.122,36.774
126457,147953,9715,-0.184,1.008,0.024,-3.598,-0.305,0.122,36.777
126457,147722,10976,-0.18,0.995,0.034,-4.085,-0.183,0.305,36.784
126433,147953,9715,-0.183,0.985,0.037,-4.085,-0.183,0.305,36.787
126433,147719,10996,-0.181,0.995,0.036,-1.463,-0.122,0.427,36.793
126500,147953,9715,-0.18,1.006,0.036,-1.463,-0.122,0.427,36.797
126500,147821,10987,-0.183,1.014,0.025,1.098,0.061,0.549,36.803
126532,147953,9715,-0.182,1.015,0.02,1.098,0.061,0.549,36.807
126532,147873,11009,-0.179,1.014,0.018,2.317,0.671,0.61,36.813
126582,147953,9715,-0.183,1.02,0.01,2.317,0.671,0.61,36.817
126582,147907,11008,-0.186,1.025,0.011,0.488,0.61,0.671,36.823
126576,147953,9715,-0.183,1.02,0.017,0.488,0.61,0.671,36.827
126576,147908,10994,-0.182,1.009,0.023,-2.134,0.183,1.159,36.833
126532,147953,9715,-0.18,1.004,0.025,-2.134,0.183,1.159,36.837
126532,147851,10984,-0.181,1.014,0.021,-2.927,-0.183,1.463,36.843
126520,147953,9715,-0.179,1.022,0.02,-2.927,-0.183,1.463,36.847
126520,147840,11004,-0.176,1.018,0.032,-3.171,-0.488,1.159,36.853
126525,147953,9715,-0.173,1.007,0.042,-3.171,-0.488,1.159,36.857
126525,147814,10988,-0.174,0.997,0.048,-1.707,-0.305,0.671,36.863
126491,147953,9715,-0.176,0.995,0.04,-1.707,-0.305,0.671,36.867
126491,147818,11005,-0.18,1.011,0.026,1.768,0.732,0.244,36.873
126508,147953,9715,-0.186,1.026,0.019,1.768,0.732,0.244,36.876
126508,147825,10981,-0.179,1.025,0.017,3.415,0.976,0.061,36.883
126474,147953,9715,-0.179,1.015,0.019,3.415,0.976,0.061,36.886
126474,147769,10994,-0.179,1.012,0.015,2.195,0.61,0.244,36.892
126454,147953,9715,-0.182,1.014,0.013,2.195,0.61,0.244,36.896
126454,147738,10995,-0.185,1.015,0.016,-0.427,0.732,0.305,36.902
126464,147953,9715,-0.181,1.004,0.027,-0.427,0.732,0.305,36.906
126464,147733,11003,-0.175,0.994,0.032,-1.098,0.061,0.61,36.912
126456,147953,9715,-0.177,0.998,0.031,-1.098,0.061,0.61,36.916
126456,147775,10994,-0.181,1.011,0.028,0.305,0,0.732,36.922
126474,147953,9715,-0.183,1.015,0.026,0.305,0,0.732,36.926
126474,147760,10991,-0.18,1.014,0.025,1.585,0.549,0.305,36.932
126507,147953,9715,-0.182,1.02,0.018,1.585,0.549,0.305,36.936
126507,147848,10996,-0.184,1.025,0.015,0.976,0.549,0.244,36.942
126555,147953,9715,-0.184,1.025,0.015,0.976,0.549,0.244,36.946
126555,147868,10995,-0.184,1.024,0.006,-1.22,0.183,0.61,36.952
126551,147953,9715,-0.184,1.024,0.006,-1.22,0.183,0.61,36.956
126551,147868,11003,-0.186,1.013,0.014,-4.329,-0.366,0.854,36.962
126587,147953,9715,-0.186,1.013,0.014,-4.329,-0.366,0.854,36.966
126587,147916,10993,-0.176,0.995,0.047,-5,-0.793,1.098,36.972
126622,147953,9715,-0.176,0.995,0.047,-5,-0.793,1.098,36.975
126622,147963,11003,-0.173,0.996,0.043,-1.463,-0.732,1.098,36.982
126656,148209,9715,-0.173,0.996,0.043,-1.463,-0.732,1.098,36.985
126656,147977,11008,-0.177,1.025,0.029,1.524,0.305,0.427,36.991
126669,148209,9715,-0.177,1.025,0.029,1.524,0.305,0.427,36.995
126669,148020,11025,-0.177,1.021,0.023,2.805,0.854,-0.305,37.001
126699,148209,9715,-0.177,1.021,0.023,2.805,0.854,-0.305,37.005
126699,148062,11011,-0.182,1.016,0.018,1.22,0.976,-0.183,37.011
126735,148209,9715,-0.182,1.016,0.018,1.22,0.976,-0.183,37.015
126735,148094,11007,-0.184,1.017,0.02,-0.549,0.61,0.244,37.021
126769,148209,9715,-0.184,1.017,0.02,-0.549,0.61,0.244,37.025
126769,148100,11020,-0.182,1.009,0.028,-2.134,0.061,0.549,37.031
126732,148209,9715,-0.182,1.009,0.028,-2.134,0.061,0.549,37.035
126732,148076,11006,-0.178,0.987,0.042,-1.037,0.183,0.61,37.041
126690,148209,9715,-0.178,0.987,0.042,-1.037,0.183,0.61,37.045
126690,148064,11015,-0.178,1.002,0.028,2.439,0.793,0.671,37.051
126689,148209,9715,-0.178,1.002,0.028,2.439,0.793,0.671,37.055
126689,148060,11020,-0.183,1.034,0.011,4.329,1.037,0.61,37.061
126688,148209,9715,-0.183,1.034,0.011,4.329,1.037,0.61,37.065
126688,148058,11001,-0.179,1.025,0.012,2.744,0.854,0.549,37.071
126661,148209,9715,-0.179,1.025,0.012,2.744,0.854,0.549,37.074
126661,147998,11001,-0.183,1.015,0.017,-0.061,0.976,0.61,37.081
126644,147953,9715,-0.183,1.015,0.017,-0.061,0.976,0.61,37.084
126644,147962,10996,-0.18,1.012,0.021,-0.061,0.976,0.61,37.09
126620,147953,9715,-0.177,1.011,0.024,-1.402,0.305,0.671,37.094
126620,147953,11009,-0.179,1.013,0.026,-1.402,0.305,0.671,37.1
126608,147953,9715,-0.177,1.009,0.033,-0.854,0.061,0.61,37.104
126608,147935,11001,-0.172,0.998,0.031,-0.854,0.061,0.61,37.11
126605,147953,9715,-0.172,1.005,0.021,1.159,0.427,0.061,37.114
126605,147942,11003,-0.176,1.024,0.017,1.159,0.427,0.061,37.12
126545,147953,9715,-0.178,1.019,0.024,1.707,0.915,-0.732,37.124
126545,147852,11004,-0.176,0.994,0.037,1.707,0.915,-0.732,37.13
126543,147953,9715,-0.178,0.993,0.025,2.927,1.159,-0.793,37.134
126543,147872,10990,-0.183,1.011,0.011,2.927,1.159,-0.793,37.14
126601,147953,9715,-0.186,1.027,0.011,2.561,1.402,-0.244,37.144
126601,147931,11000,-0.185,1.021,0.012,2.561,1.402,-0.244,37.15
126595,147953,9715,-0.184,1.013,0.022,0.915,0.671,0.122,37.154
126595,147903,10996,-0.181,1.007,0.019,0.915,0.671,0.122,37.16
126613,147953,9715,-0.181,1.013,0.021,-0.61,0.427,0.61,37.164
126613,147930,11008,-0.183,1.017,0.02,-0.61,0.427,0.61,37.17
126618,147953,9715,-0.182,1.017,0.019,-0.854,0.244,0.671,37.173
126618,147958,11013,-0.177,1.013,0.023,-0.854,0.244,0.671,37.18
126628,148209,9715,-0.179,1.011,0.023,-0.244,0.183,0.549,37.183
126628,147985,11009,-0.182,1.018,0.016,-0.244,0.183,0.549,37.19
126673,148209,9715,-0.182,1.023,0.01,-0.183,0.61,0.549,37.193
126673,148036,11000,-0.18,1.021,0.016,-0.183,0.61,0.549,37.199
126657,148209,9715,-0.179,1.005,0.03,-0.915,0.366,0.549,37.203
126657,148021,11004,-0.18,0.989,0.03,-0.915,0.366,0.549,37.209
126650,148209,9715,-0.182,0.998,0.02,-0.122,0.488,0.671,37.213
126650,148011,11016,-0.181,1.026,0.014,-0.122,0.488,0.671,37.219
126618,147953,9715,-0.178,1.027,0.021,0,0.366,0.732,37.223
126618,147924,11008,-0.172,1.01,0.023,0,0.366,0.732,37.229
126545,147953,9715,-0.177,1.005,0.025,-0.366,0,0.488,37.233
126545,147830,11001,-0.183,1.011,0.021,-0.366,0,0.488,37.239
126506,147953,9715,-0.183,1.015,0.02,-0.732,0.549,0.244,37.243
126506,147781,10997,-0.18,1.014,0.022,-0.732,0.549,0.244,37.249
126539,147953,9715,-0.179,1.012,0.019,-0.915,0.183,0.549,37.253
126539,147828,11007,-0.183,1.013,0.012,-0.915,0.183,0.549,37.259
126537,147953,9715,-0.184,1.02,0.008,-1.524,0,0.854,37.263
126537,147838,10994,-0.183,1.03,0.01,-1.524,0,0.854,37.269
126531,147953,9715,-0.181,1.017,0.019,-3.293,-0.244,0.976,37.272
126531,147833,10978,-0.176,0.994,0.024,-3.293,-0.244,0.976,37.279
126544,147953,9715,-0.175,0.998,0.031,-3.232,-0.488,0.976,37.282
126544,147848,11000,-0.18,1.006,0.035,-3.232,-0.488,0.976,37.288
126562,147953,9715,-0.178,1.005,0.032,-1.829,0.122,0.915,37.292
126562,147866,11011,-0.177,1.003,0.033,-1.829,0.122,0.915,37.298
126575,147953,9715,-0.176,1.012,0.032,0.732,0.244,1.037,37.302
126575,147910,11000,-0.176,1.02,0.029,0.732,0.244,1.037,37.308
126614,147953,9715,-0.182,1.014,0.031,1.341,0.915,0.732,37.312
126614,147932,10994,-0.176,1.005,0.03,1.341,0.915,0.732,37.318
126667,148209,9715,-0.178,1.006,0.03,1.829,0.915,0.488,37.322
126667,148029,11018,-0.18,1.01,0.028,1.829,0.915,0.488,37.328
126700,148209,9715,-0.178,1.011,0.023,2.195,0.793,0.61,37.332
126700,148048,11001,-0.18,1.015,0.016,2.195,0.793,0.61,37.338
126678,148209,9715,-0.18,1.023,0.013,1.829,0.671,0.61,37.342
126678,148004,11002,-0.176,1.025,0.012,1.829,0.671,0.61,37.348
126690,148209,9715,-0.176,1.026,0.011,0.183,0.244,0.366,37.352
126690,148065,11022,-0.176,1.02,0.018,0.183,0.244,0.366,37.358
126744,148209,9715,-0.178,1.006,0.021,-1.768,0.244,0.183,37.362
126744,148136,11022,-0.177,1.007,0.021,-1.768,0.244,0.183,37.368
126747,148209,9715,-0.179,1.014,0.023,-2.012,0.183,0.122,37.371
126747,148107,11035,-0.179,1.022,0.021,-2.012,0.183,0.122,37.378
126786,148209,9715,-0.179,1.017,0.026,-1.402,0,0.122,37.381
126786,148158,11014,-0.174,1.002,0.036,-1.402,0,0.122,37.388
126782,148209,9715,-0.175,0.99,0.044,0.854,0.244,-0.183,37.391
126782,148123,11019,-0.178,0.991,0.044,0.854,0.244,-0.183,37.397
126799,148209,9715,-0.177,1.004,0.036,4.024,0.793,-0.305,37.401
126799,148167,11012,-0.181,1.02,0.021,4.024,0.793,-0.305,37.407
126850,148465,9715,-0.184,1.027,0.021,5.122,1.585,0,37.411
126850,148231,11026,-0.178,1.018,0.023,5.122,1.585,0,37.417
126817,148209,9715,-0.176,1.01,0.02,4.512,1.402,0.183,37.421
126817,148203,10998,-0.179,1.006,0.017,4.512,1.402,0.183,37.427
126841,148465,9715,-0.181,1.008,0.014,3.659,1.585,0.061,37.431
126841,148241,11023,-0.182,1.018,0.01,3.659,1.585,0.061,37.437
126856,148465,9715,-0.178,1.026,0.008,2.866,1.463,0.427,37.441
126856,148250,11028,-0.177,1.023,0.013,2.866,1.463,0.427,37.447
126849,148465,9715,-0.178,1.011,0.013,2.073,1.037,0.488,37.451
126849,148237,11020,-0.18,1.007,0.005,2.073,1.037,0.488,37.457
126855,148465,9715,-0.185,1.013,-0.01,1.402,1.28,0.122,37.461
126855,148250,11009,-0.185,1.021,-0.01,1.402,1.28,0.122,37.467
126820,148209,9715,-0.185,1.027,-0.009,-1.22,0.549,0.305,37.47
126820,148220,11002,-0.185,1.029,-0.004,-1.22,0.549,0.305,37.477
126894,148465,9715,-0.177,1.021,0.006,-6.159,-0.976,1.159,37.48
126894,148298,11019,-0.178,1.013,0.012,-6.159,-0.976,1.159,37.486
126895,148465,9715,-0.183,1.01,0.017,-7.866,-1.402,1.341,37.49
126895,148288,11008,-0.182,1.009,0.027,-7.866,-1.402,1.341,37.496
126860,148465,9715,-0.177,1.005,0.042,-7.073,-1.22,0.976,37.5
126860,148266,11007,-0.175,0.996,0.046,-7.073,-1.22,0.976,37.506
126879,148465,9715,-0.173,0.991,0.04,-4.085,-1.037,0.915,37.51
126879,148312,11016,-0.176,1.004,0.034,-4.085,-1.037,0.915,37.516
126869,148465,9715,-0.177,1.012,0.034,-1.098,0.183,0.488,37.52
126869,148262,11009,-0.178,1.018,0.032,-1.098,0.183,0.488,37.526
126855,148465,9715,-0.178,1.018,0.032,-1.098,0.183,0.488,37.53
126855,148265,11009,-0.179,1.019,0.018,0.732,0.366,0,37.536
126813,148209,9715,-0.179,1.019,0.018,0.732,0.366,0,37.54
126813,148178,11006,-0.179,1.02,0.016,0.488,0.488,-0.122,37.546
126784,148209,9715,-0.179,1.02,0.016,0.488,0.488,-0.122,37.55
126784,148163,11029,-0.178,1.01,0.016,-1.341,0.183,0.122,37.556
126781,148209,9715,-0.178,1.01,0.016,-1.341,0.183,0.122,37.56
126781,148144,11011,-0.178,1.006,0.026,-1.89,-0.061,0.305,37.566
126798,148209,9715,-0.178,1.006,0.026,-1.89,-0.061,0.305,37.569
126798,148162,11001,-0.175,1.008,0.046,-1.646,0,0.305,37.576
126773,148209,9715,-0.175,1.008,0.046,-1.646,0,0.305,37.579
126773,148156,11019,-0.174,0.982,0.048,0.061,0,0,37.585
126800,148209,9715,-0.174,0.982,0.048,0.061,0,0,37.589
126800,148178,11008,-0.183,1.022,0.024,3.293,0.915,-0.061,37.595
126826,148465,9715,-0.183,1.022,0.024,3.293,0.915,-0.061,37.599
126826,148252,11005,-0.185,1.011,0.018,5.122,1.829,-0.427,37.605
126876,148465,9715,-0.185,1.011,0.018,5.122,1.829,-0.427,37.609
126876,148292,11017,-0.182,1.009,0.011,4.634,1.768,-0.427,37.615
126866,148465,9715,-0.182,1.009,0.011,4.634,1.768,-0.427,37.619
126866,148289,10999,-0.183,1.034,0.001,2.561,1.463,0.244,37.625
126865,148465,9715,-0.183,1.034,0.001,2.561,1.463,0.244,37.629
126865,148270,11009,-0.177,1.024,0.018,0.183,0.549,0.427,37.635
126879,148465,9715,-0.177,1.024,0.018,0.183,0.549,0.427,37.639
126879,148304,11025,-0.178,1.016,0.014,-1.89,-0.427,0.244,37.645
126882,148465,9715,-0.178,1.016,0.014,-1.89,-0.427,0.244,37.649
126882,148315,11001,-0.178,1.022,0.025,-2.561,-0.305,-0.244,37.655
126901,148465,9715,-0.178,1.022,0.025,-2.561,-0.305,-0.244,37.659
126901,148297,11015,-0.176,1,0.039,-2.134,-0.549,-0.488,37.665
127012,148721,9715,-0.176,1,0.039,-2.134,-0.549,-0.488,37.668
127012,148487,11023,-0.177,0.996,0.037,-0.061,-0.061,-0.122,37.675
127175,148721,9715,-0.183,0.991,0.028,-0.061,-0.061,-0.122,37.678
127175,148671,11039,-0.182,0.997,0.022,1.646,0.976,-0.244,37.684
127286,148977,9715,-0.18,1.009,0.024,1.646,0.976,-0.244,37.688
127286,148819,11065,-0.183,1.011,0.027,2.256,0.915,-0.244,37.694
127451,149233,9715,-0.184,1.011,0.016,2.256,0.915,-0.244,37.698
127451,149040,11061,-0.182,1.007,0.014,1.341,0.793,0.305,37.704
127549,149233,9715,-0.182,1.008,0.02,1.341,0.793,0.305,37.708
127549,149177,11060,-0.181,1.013,0.02,0.671,1.037,0.61,37.714
127641,149489,9715,-0.182,1.025,0.013,0.671,1.037,0.61,37.718
127641,149253,11075,-0.177,1.027,0.025,-0.061,0.732,0.915,37.724
127712,149489,9715,-0.173,1.006,0.039,-0.061,0.732,0.915,37.728
127712,149340,11074,-0.176,0.989,0.032,1.768,0.793,0.549,37.734
127686,149489,9715,-0.183,1.007,0.009,1.768,0.793,0.549,37.738
127686,149303,11084,-0.184,1.035,-0.001,2.622,1.768,-0.122,37.744
127608,149233,9715,-0.18,1.038,0.002,2.622,1.768,-0.122,37.748
127608,149188,11066,-0.182,1.023,0.005,1.402,1.098,-0.671,37.754
127569,149233,9715,-0.18,1.013,0.02,1.402,1.098,-0.671,37.757
127569,149152,11070,-0.181,1.003,0.027,-0.488,0.427,-0.366,37.764
127522,149233,9715,-0.183,0.992,0.022,-0.488,0.427,-0.366,37.767
127522,149050,11041,-0.183,0.999,0.014,-0.671,0.61,0.122,37.774
127465,149233,9715,-0.184,1.014,0.004,-0.671,0.61,0.122,37.777
127465,149019,11053,-0.182,1.02,0.002,-0.976,0.183,0,37.783
127467,149233,9715,-0.181,1.023,0.005,-0.976,0.183,0,37.787
127467,149017,11038,-0.181,1.022,0.012,-2.744,-0.549,0.122,37.793
127451,149233,9715,-0.181,1.011,0.026,-2.744,-0.549,0.122,37.797
127451,148994,11066,-0.177,0.997,0.028,-3.415,-0.427,0.488,37.803
127437,149233,9715,-0.181,0.996,0.023,-3.415,-0.427,0.488,37.807
127437,149007,11053,-0.182,1.009,0.016,-2.805,-0.183,0.549,37.813
127451,149233,9715,-0.182,1.019,0.012,-2.805,-0.183,0.549,37.817
127451,149031,11048,-0.183,1.022,0.023,-2.5,-0.183,0.488,37.823
127495,149233,9715,-0.18,1.015,0.032,-2.5,-0.183,0.488,37.827
127495,149081,11072,-0.171,0.996,0.043,-2.134,-0.61,0.915,37.833
127520,149233,9715,-0.174,0.988,0.041,-2.134,-0.61,0.915,37.837
127520,149120,11062,-0.18,0.999,0.029,-0.061,0.183,0.854,37.843
127525,149233,9715,-0.183,1.019,0.018,-0.061,0.183,0.854,37.847
127525,149121,11047,-0.182,1.03,0.013,1.402,0.915,0.183,37.853
127575,149233,9715,-0.181,1.026,0.021,1.402,0.915,0.183,37.857
127575,149197,11067,-0.178,1.014,0.025,0.305,0.244,0.305,37.863
127634,149489,9715,-0.177,1.006,0.022,0.305,0.244,0.305,37.866
127634,149258,11054,-0.18,1.01,0.023,-0.854,0.61,0.488,37.873
127665,149489,9715,-0.181,1.017,0.014,-0.854,0.61,0.488,37.876
127665,149264,11049,-0.181,1.019,0.013,-1.098,0.366,0.305,37.882
127690,149489,9715,-0.182,1.021,0.022,-1.098,0.366,0.305,37.886
127690,149353,11074,-0.178,1.009,0.03,-1.098,-0.305,0.427,37.892
127714,149489,9715,-0.177,1.002,0.024,-1.098,-0.305,0.427,37.896
127714,149370,11075,-0.181,1.007,0.019,-0.183,-0.122,0.061,37.902
127713,149489,9715,-0.185,1.015,0.022,-0.183,-0.122,0.061,37.906
127713,149369,11079,-0.181,1.006,0.027,-0.061,0.61,-0.305,37.912
127739,149489,9715,-0.181,0.997,0.028,-0.061,0.61,-0.305,37.916
127739,149402,11080,-0.182,1.011,0.019,0.244,0.244,0.244,37.922
127717,149489,9715,-0.181,1.023,0.012,0.244,0.244,0.244,37.926
127717,149367,11079,-0.186,1.022,0.011,-0.732,0.305,0.488,37.932
127693,149489,9715,-0.186,1.016,0.017,-0.732,0.305,0.488,37.936
127693,149391,11063,-0.181,1.007,0.028,-1.829,0,0.671,37.942
127751,149489,9715,-0.181,1.005,0.025,-1.829,0,0.671,37.946
127751,149432,11090,-0.181,1.008,0.026,-2.134,-0.244,1.098,37.952
127770,149489,9715,-0.178,1.004,0.031,-2.134,-0.244,1.098,37.956
127770,149437,11079,-0.177,1.001,0.031,-0.61,0.244,0.976,37.962
127803,149489,9715,-0.177,1.008,0.035,-0.61,0.244,0.976,37.965
127803,149457,11074,-0.173,1.014,0.038,1.098,0.671,0.793,37.972
127822,149489,9715,-0.175,1.008,0.032,1.098,0.671,0.793,37.975
127822,149468,11087,-0.177,1.013,0.019,3.171,0.976,0.488,37.981
127858,149745,9715,-0.179,1.025,0.01,3.171,0.976,0.488,37.985
127858,149559,11087,-0.179,1.025,0.013,3.354,1.28,-0.183,37.991
127869,149745,9715,-0.179,1.015,0.016,3.354,1.28,-0.183,37.995
127869,149542,11090,-0.18,1.01,0.013,1.463,0.732,-0.244,38.001
127945,149745,9715,-0.184,1.019,0.009,1.463,0.732,-0.244,38.005
127945,149679,11090,-0.182,1.02,0.011,-0.976,0.366,0.122,38.011
127899,149745,9715,-0.18,1.017,0.009,-0.976,0.366,0.122,38.015
127899,149552,11083,-0.183,1.019,0.012,-2.622,-0.427,0,38.021
127823,149489,9715,-0.183,1.022,0.013,-2.622,-0.427,0,38.025
127823,149458,11082,-0.179,1.008,0.021,-3.841,-0.671,0.061,38.031
127811,149489,9715,-0.178,1.002,0.027,-3.841,-0.671,0.061,38.035
127811,149437,11070,-0.179,0.998,0.035,-3.232,-0.427,0.244,38.041
127789,149489,9715,-0.18,0.996,0.039,-3.232,-0.427,0.244,38.045
127789,149424,11071,-0.182,0.999,0.034,-0.976,0.122,0.244,38.051
127717,149489,9715,-0.18,1.011,0.026,-0.976,0.122,0.244,38.054
127717,149324,11060,-0.181,1.017,0.021,1.28,0.61,0.366,38.061
127644,149233,9715,-0.179,1.014,0.03,1.28,0.61,0.366,38.064
127644,149202,11056,-0.179,1.006,0.035,2.317,0.793,0.488,38.071
127640,149233,9715,-0.178,1.005,0.025,2.317,0.793,0.488,38.074
127640,149240,11051,-0.183,1.016,0.013,2.317,1.28,0.549,38.08
127614,149233,9715,-0.187,1.028,0.01,2.317,1.28,0.549,38.084
127614,149199,11070,-0.178,1.026,0.018,0.915,0.854,0.488,38.09
127561,149233,9715,-0.175,1.016,0.026,0.915,0.854,0.488,38.094
127561,149140,11043,-0.172,1.004,0.033,0,0.244,0.671,38.1
127543,149233,9715,-0.176,0.995,0.025,0,0.244,0.671,38.104
127543,149168,11056,-0.18,1.013,0.01,0.549,0.488,0.366,38.11
127599,149233,9715,-0.18,1.013,0.01,0.549,0.488,0.366,38.114
127599,149218,11051,-0.182,1.036,0.006,-0.122,0.488,-0.488,38.12
127578,149233,9715,-0.182,1.036,0.006,-0.122,0.488,-0.488,38.124
127578,149121,11045,-0.18,0.987,0.031,-1.585,-0.183,-0.244,38.13
127503,149233,9715,-0.18,0.987,0.031,-1.585,-0.183,-0.244,38.134
127503,149071,11041,-0.189,1.014,0.009,-1.768,0.244,0.305,38.14
127536,149233,9715,-0.189,1.014,0.009,-1.768,0.244,0.305,38.144
127536,149100,11048,-0.184,1.027,0.013,-2.378,-0.366,0.305,38.15
127517,149233,9715,-0.184,1.027,0.013,-2.378,-0.366,0.305,38.154
127517,149073,11046,-0.181,1.003,0.033,-3.72,-0.793,0.793,38.16
127469,149233,9715,-0.181,1.003,0.033,-3.72,-0.793,0.793,38.163
127469,149027,11043,-0.18,0.994,0.044,-2.866,-0.183,1.098,38.17
127486,149233,9715,-0.18,0.994,0.044,-2.866,-0.183,1.098,38.173
127486,149045,11042,-0.178,1.018,0.026,0.061,0.061,1.037,38.179
127467,149233,9715,-0.178,1.018,0.026,0.061,0.061,1.037,38.183
127467,149019,11041,-0.178,1.028,0.013,1.22,0.61,0.61,38.189
127481,149233,9715,-0.178,1.028,0.013,1.22,0.61,0.61,38.193
127481,149025,11045,-0.175,1.017,0.025,-0.244,0.549,0.305,38.199
127440,149233,9715,-0.175,1.017,0.025,-0.244,0.549,0.305,38.203
127440,149002,11054,-0.181,1,0.019,-0.549,0.488,0.183,38.209
127401,148977,9715,-0.181,1,0.019,-0.549,0.488,0.183,38.213
127401,148949,11036,-0.182,1.022,0.013,-0.915,0.244,0.183,38.219
127440,148977,9715,-0.182,1.022,0.013,-0.915,0.244,0.183,38.223
127440,148973,11029,-0.179,1.012,0.022,-1.28,-0.793,0.244,38.229
127436,149233,9715,-0.179,1.012,0.022,-1.28,-0.793,0.244,38.233
127436,149018,11056,-0.183,1.002,0.03,-1.768,-0.427,0.061,38.239
127477,149233,9715,-0.183,1.002,0.03,-1.768,-0.427,0.061,38.243
127477,149024,11044,-0.18,1,0.037,-1.524,-0.122,0.183,38.249
127481,149233,9715,-0.18,1,0.037,-1.524,-0.122,0.183,38.252
127481,149058,11038,-0.177,0.995,0.043,-1.524,-0.122,0.183,38.259
127498,149233,9715,-0.183,1.002,0.03,0.061,0.305,0.61,38.262
127498,149049,11036,-0.186,1.018,0.019,0.061,0.305,0.61,38.269
127502,149233,9715,-0.183,1.025,0.018,0.671,0.732,0.793,38.272
127502,149093,11055,-0.182,1.026,0.02,0.671,0.732,0.793,38.278
127544,149233,9715,-0.181,1.012,0.026,0.122,0.427,0.732,38.282
127544,149108,11023,-0.178,1.007,0.026,0.122,0.427,0.732,38.288
127532,149233,9715,-0.179,1.009,0.022,-0.366,0.366,0.793,38.292
127532,149110,11047,-0.179,1.023,0.018,-0.366,0.366,0.793,38.298
127496,149233,9715,-0.177,1.026,0.019,-0.854,0,0.732,38.302
127496,149089,11046,-0.175,1.026,0.02,-0.854,0,0.732,38.308
127537,149233,9715,-0.172,1.02,0.026,-1.463,-0.427,0.366,38.312
127537,149113,11056,-0.175,1.011,0.027,-1.463,-0.427,0.366,38.318
127557,149233,9715,-0.177,1.004,0.03,-1.89,0,-0.122,38.322
127557,149169,11060,-0.179,1.007,0.03,-1.89,0,-0.122,38.328
127617,149233,9715,-0.18,1.004,0.03,-0.915,0.549,-0.61,38.332
127617,149213,11049,-0.18,1,0.03,-0.915,0.549,-0.61,38.338
127654,149489,9715,-0.182,1.007,0.027,0.549,0.549,-0.427,38.342
127654,149293,11065,-0.185,1.007,0.026,0.549,0.549,-0.427,38.348
127754,149489,9715,-0.183,1.005,0.025,0.976,0.61,-0.244,38.351
127754,149414,11072,-0.184,1.002,0.027,0.976,0.61,-0.244,38.358
127766,149489,9715,-0.183,1.003,0.028,1.159,0.732,0.061,38.361
127766,149423,11066,-0.181,1.002,0.032,1.159,0.732,0.061,38.368
127786,149489,9715,-0.184,1.007,0.024,1.89,0.793,0.671,38.371
127786,149482,11067,-0.186,1.02,0.015,1.89,0.793,0.671,38.377
127851,149745,9715,-0.182,1.031,0.01,1.585,0.854,1.159,38.381
127851,149589,11073,-0.18,1.034,0.015,1.585,0.854,1.159,38.387
127791,149489,9715,-0.181,1.025,0.021,-0.122,0.549,1.22,38.391
127791,149457,11078,-0.176,1.013,0.028,-0.122,0.549,1.22,38.397
127765,149489,9715,-0.175,1.008,0.029,-0.183,0.305,1.159,38.401
127765,149401,11074,-0.179,1.01,0.02,-0.183,0.305,1.159,38.407
127761,149489,9715,-0.182,1.018,0.012,0.915,0.732,0.61,38.411
127761,149429,11072,-0.179,1.033,0.012,0.915,0.732,0.61,38.417
127674,149489,9715,-0.176,1.032,0.018,-0.244,0.244,0.061,38.421
127674,149269,11064,-0.172,1.011,0.032,-0.244,0.244,0.061,38.427
127590,149233,9715,-0.175,0.996,0.039,-0.793,0,-0.488,38.431
127590,149180,11059,-0.176,0.995,0.036,-0.793,0,-0.488,38.437
127589,149233,9715,-0.18,0.999,0.027,0.915,1.098,-0.854,38.441
127589,149182,11061,-0.18,1.008,0.029,0.915,1.098,-0.854,38.447
127589,149233,9715,-0.182,1.01,0.028,2.866,1.341,-0.854,38.45
127589,149220,11055,-0.18,1.013,0.016,2.866,1.341,-0.854,38.457
127532,149233,9715,-0.18,1.015,0.009,2.683,0.976,-0.549,38.46
127532,149115,11053,-0.187,1.018,0.013,2.683,0.976,-0.549,38.467
127463,149233,9715,-0.186,1.013,0.018,0.976,1.098,-0.488,38.47
127463,149053,11030,-0.184,1.005,0.022,0.976,1.098,-0.488,38.476
127459,149233,9715,-0.182,1.007,0.021,-0.061,0.671,-0.061,38.48
127459,149043,11037,-0.185,1.008,0.022,-0.061,0.671,-0.061,38.486
127440,149233,9715,-0.181,1.014,0.024,-0.366,0.61,0.366,38.49
127440,149001,11028,-0.18,1.007,0.027,-0.366,0.61,0.366,38.496
127387,148977,9715,-0.182,1.005,0.021,0.244,0.366,0.366,38.5
127387,148932,11025,-0.182,1.016,0.01,0.244,0.366,0.366,38.506
127378,148977,9715,-0.183,1.024,0.011,-0.427,0.427,0.366,38.51
127378,148926,11035,-0.182,1.026,0.013,-0.427,0.427,0.366,38.516
127390,148977,9715,-0.182,1.024,0.016,-1.829,0.244,0.732,38.52
127390,148965,11039,-0.179,1.015,0.027,-1.829,0.244,0.732,38.526
127434,149233,9715,-0.18,1.002,0.036,-2.744,-0.122,0.976,38.53
127434,149023,11037,-0.179,1.002,0.032,-2.744,-0.122,0.976,38.536
127445,149233,9715,-0.182,1.005,0.026,-1.463,0.366,0.671,38.54
127445,149031,11030,-0.178,1.014,0.023,-1.463,0.366,0.671,38.546
127436,149233,9715,-0.176,1.017,0.021,0.671,0.122,0.305,38.549
127436,148992,11039,-0.18,1.015,0.02,0.671,0.122,0.305,38.556
127431,149233,9715,-0.18,1.014,0.011,1.159,0.244,-0.061,38.559
127431,149041,11042,-0.183,1.019,0.009,1.159,0.244,-0.061,38.566
127445,149233,9715,-0.185,1.021,0.017,-1.098,0.183,-0.427,38.569
127445,149006,11034,-0.183,1.007,0.023,-1.098,0.183,-0.427,38.575
127383,148977,9715,-0.184,0.998,0.026,-2.683,-0.244,0.122,38.579
127383,148947,11040,-0.184,1.003,0.022,-2.683,-0.244,0.122,38.585
127363,148977,9715,-0.184,1.01,0.025,-2.195,-0.122,0.793,38.589
127363,148915,11029,-0.182,1.011,0.036,-2.195,-0.122,0.793,38.595
127353,148977,9715,-0.177,1.01,0.037,-1.159,-0.305,1.037,38.599
127353,148945,11032,-0.178,1.003,0.032,-1.159,-0.305,1.037,38.605
127385,148977,9715,-0.181,1.002,0.034,0.854,0.183,0.854,38.609
127385,148936,11011,-0.181,1.01,0.03,0.854,0.183,0.854,38.615
127370,148977,9715,-0.182,1.018,0.018,2.5,1.037,0.793,38.619
127370,148927,11062,-0.181,1.023,0.017,2.5,1.037,0.793,38.625
127389,148977,9715,-0.177,1.022,0.023,2.317,0.732,1.037,38.629
127389,148933,11042,-0.177,1.013,0.02,2.317,0.732,1.037,38.635
127404,148977,9715,-0.178,1.005,0.022,0.915,0.488,0.61,38.639
127404,148986,11042,-0.182,1.006,0.023,0.915,0.488,0.61,38.645
127414,148977,9715,-0.182,1.011,0.019,0.183,0.671,0.366,38.648
127414,148969,11040,-0.18,1.01,0.019,0.183,0.671,0.366,38.655
127368,148977,9715,-0.178,1.017,0.016,0.305,0.122,0.427,38.658
127368,148977,11037,-0.179,1.025,0.01,0.305,0.122,0.427,38.665
127389,148977,9715,-0.177,1.018,0.021,-0.549,0.122,0.183,38.668
127389,148972,11033,-0.177,1.006,0.035,-0.549,0.122,0.183,38.674
127436,149233,9715,-0.178,0.996,0.034,0,0.366,-0.183,38.678
127436,149060,11051,-0.177,1.006,0.019,0,0.366,-0.183,38.684
127387,148977,9715,-0.181,1.027,0.008,1.28,0.671,-0.122,38.688
127387,148961,11029,-0.185,1.033,0.009,1.28,0.671,-0.122,38.694
127317,148977,9715,-0.183,1.02,0.017,0.061,0.549,-0.366,38.698
127317,148870,11016,-0.182,1.003,0.027,0.061,0.549,-0.366,38.704
127325,148977,9715,-0.182,1.003,0.027,0.061,0.549,-0.366,38.708
127325,148876,11033,-0.185,0.998,0.038,-1.524,0.366,-0.061,38.714
127289,148977,9715,-0.185,0.998,0.038,-1.524,0.366,-0.061,38.718
127289,148814,11033,-0.181,0.996,0.031,-0.671,0.671,0.427,38.724
127212,148721,9715,-0.181,0.996,0.031,-0.671,0.671,0.427,38.728
127212,148711,11020,-0.179,1.028,0.023,2.317,0.854,0.732,38.734
127135,148721,9715,-0.179,1.028,0.023,2.317,0.854,0.732,38.738
127135,148617,11016,-0.175,1.009,0.032,3.354,0.976,0.549,38.744
127084,148721,9715,-0.175,1.009,0.032,3.354,0.976,0.549,38.747
127084,148537,10992,-0.183,1.025,0,3.72,1.159,0.305,38.754
127042,148721,9715,-0.183,1.025,0,3.72,1.159,0.305,38.757
127042,148486,11005,-0.183,1.024,0.007,2.073,1.341,0,38.764
126954,148465,9715,-0.183,1.024,0.007,2.073,1.341,0,38.767
126954,148387,10980,-0.182,1.014,0.003,0.61,0.488,-0.122,38.773
126921,148465,9715,-0.182,1.014,0.003,0.61,0.488,-0.122,38.777
126921,148328,10981,-0.183,1.022,0.011,-2.073,0,-0.061,38.783
126791,148209,9715,-0.183,1.022,0.011,-2.073,0,-0.061,38.787
126791,148173,10993,-0.179,0.988,0.034,-4.085,-0.488,-0.061,38.793
126712,148209,9715,-0.179,0.988,0.034,-4.085,-0.488,-0.061,38.797
126712,148089,10970,-0.186,1.014,0.017,-2.927,-0.488,0.244,38.803
126702,148209,9715,-0.186,1.014,0.017,-2.927,-0.488,0.244,38.807
126702,148072,10981,-0.178,1.008,0.037,-1.768,0,0.366,38.813
126671,148209,9715,-0.178,1.008,0.037,-1.768,0,0.366,38.817
126671,148059,10975,-0.177,0.997,0.032,-0.61,-0.183,0.854,38.823
126628,148209,9715,-0.177,0.997,0.032,-0.61,-0.183,0.854,38.827
126628,147989,10965,-0.188,1.025,0.01,1.28,0.793,0.976,38.833
126577,147953,9715,-0.188,1.025,0.01,1.28,0.793,0.976,38.837
126577,147923,10965,-0.181,1.031,0.006,1.341,0.793,0.61,38.843
126508,147953,9715,-0.181,1.031,0.006,1.341,0.793,0.61,38.846
126508,147851,10954,-0.177,1.019,0.017,-1.463,-0.061,1.037,38.853
126504,147953,9715,-0.177,1.013,0.019,-1.463,-0.061,1.037,38.856
126504,147848,10951,-0.181,1.017,0.015,-3.841,-0.244,1.037,38.863
126455,147953,9715,-0.178,1.019,0.017,-3.841,-0.244,1.037,38.866
126455,147782,10957,-0.176,1.015,0.029,-3.963,-0.549,0.427,38.872
126428,147953,9715,-0.174,1.004,0.045,-3.963,-0.549,0.427,38.876
126428,147760,10963,-0.176,0.992,0.042,-2.073,-0.488,0.122,38.882
126422,147953,9715,-0.18,0.991,0.037,-2.073,-0.488,0.122,38.886
126422,147735,10949,-0.18,1.004,0.032,0.61,0.549,-0.061,38.892
126405,147953,9715,-0.182,1.011,0.019,0.61,0.549,-0.061,38.896
126405,147733,10934,-0.182,1.021,0.015,1.89,0.427,-0.427,38.902
126387,147953,9715,-0.182,1.026,0.019,1.89,0.427,-0.427,38.906
126387,147719,10953,-0.182,1.019,0.02,0.183,0.244,0.244,38.912
126412,147953,9715,-0.179,1.01,0.018,0.183,0.244,0.244,38.916
126412,147756,10941,-0.182,1.016,0.018,-0.854,0.488,0.427,38.922
126437,147953,9715,-0.187,1.028,0.01,-0.854,0.488,0.427,38.926
126437,147765,10956,-0.184,1.02,0.018,-2.683,0.549,0.732,38.932
126420,147953,9715,-0.179,1.005,0.029,-2.683,0.549,0.732,38.936
126420,147727,10959,-0.176,1.007,0.033,-2.805,-0.061,0.793,38.942
126390,147697,9715,-0.177,1.006,0.035,-2.805,-0.061,0.793,38.945
126390,147710,10946,-0.176,1.001,0.032,-0.671,0.488,0.244,38.952
126399,147697,9715,-0.178,1.007,0.021,-0.671,0.488,0.244,38.955
126399,147699,10948,-0.182,1.019,0.015,0.915,0.732,-0.183,38.962
126317,147697,9715,-0.18,1.024,0.011,0.915,0.732,-0.183,38.965
126317,147608,10944,-0.18,1.019,0.02,-0.549,0.244,-0.061,38.971
126291,147697,9715,-0.18,1.016,0.019,-0.549,0.244,-0.061,38.975
126291,147568,10932,-0.181,1.008,0.025,-2.378,-0.244,0.061,38.981
126279,147697,9715,-0.183,1,0.03,-2.378,-0.244,0.061,38.985
126279,147600,10932,-0.188,1.001,0.026,-2.805,0,0.183,38.991
126333,147697,9715,-0.187,1.012,0.027,-2.805,0,0.183,38.995
126333,147618,10937,-0.18,1.016,0.038,-1.951,-0.122,0.549,39.001
126360,147697,9715,-0.178,1.004,0.047,-1.951,-0.122,0.549,39.005
126360,147687,10948,-0.172,0.985,0.057,0.793,0,0.976,39.011
126407,147953,9715,-0.174,0.98,0.046,0.793,0,0.976,39.015
126407,147724,10947,-0.181,1.01,0.018,5.671,1.402,0.671,39.021
126428,147953,9715,-0.183,1.044,0,5.671,1.402,0.671,39.025
126428,147756,10952,-0.184,1.043,0.005,5.427,1.951,0,39.031
126426,147953,9715,-0.184,1.027,0.01,5.427,1.951,0,39.035
126426,147757,10952,-0.182,1.013,0.007,1.89,1.524,0,39.041
126434,147953,9715,-0.188,1.019,0.001,1.89,1.524,0,39.044
126434,147754,10959,-0.188,1.024,0.006,-2.744,1.463,0.61,39.051
126404,147697,9715,-0.182,1.016,0.017,-2.744,1.463,0.61,39.054
126404,147708,10941,-0.182,1.004,0.02,-5.427,0.366,1.037,39.061
126372,147697,9715,-0.181,1.006,0.026,-5.427,0.366,1.037,39.064
126372,147673,10946,-0.18,1.01,0.025,-6.463,0,1.159,39.07
126371,147697,9715,-0.18,1.006,0.028,-6.463,0,1.159,39.074
126371,147675,10950,-0.174,0.999,0.039,-5.427,0.061,0.61,39.08
126286,147697,9715,-0.173,0.997,0.047,-5.427,0.061,0.61,39.084
126286,147565,10932,-0.176,1.002,0.037,-2.439,0.366,0.122,39.09
126321,147697,9715,-0.181,1.015,0.025,-2.439,0.366,0.122,39.094
126321,147596,10944,-0.184,1.024,0.02,0.305,0.915,-0.244,39.1
126353,147697,9715,-0.182,1.022,0.025,0.305,0.915,-0.244,39.104
126353,147645,10947,-0.18,1.01,0.032,0.122,0.671,-0.183,39.11
126287,147697,9715,-0.181,1.004,0.031,0.122,0.671,-0.183,39.114
126287,147575,10938,-0.183,1.007,0.026,-0.976,0.61,0.244,39.12
126231,147697,9715,-0.183,1.009,0.024,-0.976,0.61,0.244,39.124
126231,147539,10935,-0.18,1.009,0.024,-0.549,0.305,0.366,39.13
126201,147697,9715,-0.179,1.024,0.017,-0.549,0.305,0.366,39.134
126201,147502,10926,-0.179,1.038,0.011,-0.793,0.061,0.488,39.14
126181,147697,9715,-0.176,1.032,0.019,-0.793,0.061,0.488,39.143
126181,147460,10925,-0.177,1.009,0.03,-2.744,-0.122,0.366,39.15
126167,147441,9715,-0.179,0.995,0.038,-2.744,-0.122,0.366,39.153
126167,147423,10927,-0.184,0.998,0.031,-2.683,0.305,-0.061,39.16
126107,147441,9715,-0.183,1.011,0.023,-2.683,0.305,-0.061,39.163
126107,147306,10920,-0.185,1.024,0.019,-1.159,0.427,-0.244,39.169
125950,147185,9715,-0.181,1.021,0.027,-1.159,0.427,-0.244,39.173
125950,147102,10905,-0.18,1,0.04,-0.976,0.183,-0.122,39.179
125797,146929,9715,-0.182,0.991,0.041,-0.976,0.183,-0.122,39.183
125797,146919,10885,-0.184,1.004,0.03,0.366,0.732,0.183,39.189
125673,146929,9715,-0.183,1.021,0.022,0.366,0.732,0.183,39.193
125673,146769,10888,-0.182,1.026,0.022,0.671,0.732,0.244,39.199
125504,146673,9715,-0.182,1.013,0.03,0.671,0.732,0.244,39.203
125504,146547,10872,-0.184,1.003,0.031,0.244,0.366,0.488,39.209
125459,146673,9715,-0.184,1.005,0.026,0.244,0.366,0.488,39.213
125459,146534,10864,-0.182,1.009,0.026,-0.183,0.549,1.098,39.219
125436,146673,9715,-0.18,1.013,0.024,-0.183,0.549,1.098,39.223
125436,146511,10864,-0.179,1.016,0.024,-0.488,0,1.402,39.229
125412,146673,9715,-0.177,1.016,0.021,-0.488,0,1.402,39.233
125412,146479,10853,-0.18,1.014,0.023,-1.707,-0.183,1.159,39.239
125367,146673,9715,-0.179,1.009,0.027,-1.707,-0.183,1.159,39.242
125367,146458,10862,-0.182,1.011,0.021,-2.5,-0.183,0.854,39.249
125413,146673,9715,-0.181,1.014,0.027,-2.5,-0.183,0.854,39.252
125413,146505,10868,-0.178,1.014,0.032,-2.561,-0.427,1.037,39.259
125441,146673,9715,-0.177,1.015,0.032,-2.561,-0.427,1.037,39.262
125441,146522,10864,-0.181,1.009,0.038,-1.768,-0.366,1.037,39.268
125433,146673,9715,-0.182,1.002,0.037,-1.768,-0.366,1.037,39.272
125433,146559,10872,-0.182,1.002,0.031,-0.061,0.305,0.854,39.278
125514,146673,9715,-0.182,1.011,0.031,-0.061,0.305,0.854,39.282
125514,146650,10877,-0.18,1.019,0.029,0.427,0.549,0.854,39.288
125642,146929,9715,-0.18,1.019,0.029,0.427,0.549,0.854,39.292
125642,146804,10882,-0.178,1.007,0.031,0.244,0.305,0.854,39.298
125627,146929,9715,-0.178,1.007,0.031,0.244,0.305,0.854,39.302
125627,146762,10875,-0.182,1.019,0.036,0.183,0.549,0.915,39.308
125693,146929,9715,-0.182,1.019,0.036,0.183,0.549,0.915,39.312
125693,146886,10900,-0.177,1.007,0.034,1.159,0.488,0.915,39.318
125818,147185,9715,-0.177,1.007,0.034,1.159,0.488,0.915,39.322
125818,147019,10891,-0.178,1.023,0.019,1.22,0.671,0.61,39.328
125919,147185,9715,-0.178,1.023,0.019,1.22,0.671,0.61,39.332
125919,147164,10906,-0.177,1.022,0.019,0.244,0.488,0.122,39.338
126037,147441,9715,-0.177,1.022,0.019,0.244,0.488,0.122,39.341
126037,147317,10921,-0.178,1.012,0.024,-1.159,0.427,-0.366,39.348
126089,147441,9715,-0.178,1.012,0.024,-1.159,0.427,-0.366,39.351
126089,147429,10909,-0.177,1.004,0.031,-1.951,0.305,-0.488,39.358
126263,147697,9715,-0.177,1.004,0.031,-1.951,0.305,-0.488,39.361
126263,147656,10925,-0.181,1.005,0.041,-1.28,0,-0.183,39.367
126379,147953,9715,-0.181,1.005,0.041,-1.28,0,-0.183,39.371
126379,147800,10931,-0.18,0.99,0.047,1.829,0.427,-0.061,39.377
126460,147953,9715,-0.18,0.99,0.047,1.829,0.427,-0.061,39.381
126460,147890,10931,-0.181,1.008,0.038,5.305,1.341,-0.183,39.387
126567,148209,9715,-0.181,1.008,0.038,5.305,1.341,-0.183,39.391
126567,148050,10926,-0.18,1.02,0.017,6.341,1.585,0.061,39.397
126639,148209,9715,-0.18,1.02,0.017,6.341,1.585,0.061,39.401
126639,148124,10953,-0.181,1.027,0.009,4.756,1.768,0.183,39.407
126625,148209,9715,-0.181,1.027,0.009,4.756,1.768,0.183,39.411
126625,148122,10952,-0.183,1.022,0.008,1.951,1.22,0.244,39.417
126588,148209,9715,-0.183,1.022,0.008,1.951,1.22,0.244,39.421
126588,148034,10924,-0.181,1.027,0.006,-0.915,0.427,0.488,39.427
126612,148209,9715,-0.181,1.027,0.006,-0.915,0.427,0.488,39.431
126612,148102,10940,-0.182,1.025,0.012,-0.915,0.427,0.488,39.437
126564,148209,9715,-0.178,1.012,0.018,-3.598,-0.366,0.244,39.44
126564,148030,10932,-0.18,1.006,0.026,-3.598,-0.366,0.244,39.447
126479,147953,9715,-0.182,0.993,0.042,-3.963,-0.549,-0.122,39.45
126479,147945,10939,-0.178,0.971,0.053,-3.963,-0.549,-0.122,39.457
126520,147953,9715,-0.177,0.972,0.046,-0.61,-0.061,0.244,39.46
126520,147950,10927,-0.181,1.005,0.026,-0.61,-0.061,0.244,39.466
126500,147953,9715,-0.189,1.037,0.009,2.073,0.61,0.183,39.47
126500,147959,10937,-0.184,1.04,0.011,2.073,0.61,0.183,39.476
126522,147953,9715,-0.18,1.018,0.024,0.244,0.244,0.305,39.48
126522,147967,10933,-0.18,1.004,0.031,0.244,0.244,0.305,39.486
126575,148209,9715,-0.187,1.005,0.027,-1.829,0.305,1.159,39.49
126575,148033,10923,-0.185,1.014,0.018,-1.829,0.305,1.159,39.496
126588,148209,9715,-0.182,1.032,0.018,-2.317,0.061,1.707,39.5
126588,148068,10940,-0.177,1.035,0.02,-2.317,0.061,1.707,39.506
126599,148209,9715,-0.175,1.02,0.028,-2.744,-0.793,1.646,39.51
126599,148054,10929,-0.175,1.014,0.034,-2.744,-0.793,1.646,39.516
126553,148209,9715,-0.172,1.011,0.037,-2.927,-0.549,1.159,39.52
126553,148014,10942,-0.172,1.003,0.047,-2.927,-0.549,1.159,39.526
126519,148209,9715,-0.17,0.988,0.052,-0.305,0.061,0.305,39.53
126519,147975,10941,-0.176,0.984,0.045,-0.305,0.061,0.305,39.536
126506,147953,9715,-0.181,0.995,0.038,3.659,0.915,-0.122,39.539
126506,147964,10927,-0.183,1.017,0.023,3.659,0.915,-0.122,39.546
126511,147953,9715,-0.186,1.027,0.015,4.451,1.463,-0.183,39.549
126511,147950,10933,-0.184,1.021,0.018,4.451,1.463,-0.183,39.556
126482,147953,9715,-0.182,1.012,0.022,2.561,0.732,0.183,39.559
126482,147922,10924,-0.185,1.012,0.021,2.561,0.732,0.183,39.565
126479,147953,9715,-0.185,1.018,0.022,0,0.61,0.671,39.569
126479,147906,10931,-0.182,1.021,0.026,0,0.61,0.671,39.575
126502,147953,9715,-0.178,1.011,0.034,-0.732,0.427,0.915,39.579
126502,147933,10925,-0.174,1.001,0.035,-0.732,0.427,0.915,39.585
126506,148209,9715,-0.177,1.01,0.03,0.488,0.305,0.854,39.589
126506,147979,10942,-0.181,1.027,0.019,0.488,0.305,0.854,39.595
126547,148209,9715,-0.179,1.03,0.014,0.976,0.732,0.244,39.599
126547,147986,10933,-0.179,1.015,0.022,0.976,0.732,0.244,39.605
126511,148209,9715,-0.18,0.998,0.03,1.098,0.732,-0.122,39.609
126511,147972,10939,-0.183,1.006,0.022,1.098,0.732,-0.122,39.615
126515,147953,9715,-0.182,1.021,0.015,0.488,0.915,0.122,39.619
126515,147963,10925,-0.18,1.024,0.02,0.488,0.915,0.122,39.625
126486,147953,9715,-0.178,1.015,0.028,-0.244,0.183,0.244,39.629
126486,147934,10931,-0.176,0.999,0.04,-0.244,0.183,0.244,39.635
126495,147953,9715,-0.178,0.983,0.048,0.488,0.244,0.305,39.638
126495,147922,10941,-0.18,0.992,0.032,0.488,0.244,0.305,39.645
126523,147953,9715,-0.179,1.026,0.011,2.927,0.976,0.305,39.648
126523,147955,10933,-0.181,1.045,0.005,2.927,0.976,0.305,39.655
126564,148209,9715,-0.179,1.038,0.016,1.402,0.183,0,39.658
126564,148036,10939,-0.172,1.011,0.027,1.402,0.183,0,39.664
126591,148209,9715,-0.177,1,0.03,-0.854,0.122,-0.183,39.668
126591,148058,10938,-0.184,1.01,0.022,-0.854,0.122,-0.183,39.674
126639,148209,9715,-0.185,1.017,0.016,-1.341,0.549,-0.122,39.678
126639,148115,10963,-0.184,1.016,0.019,-1.341,0.549,-0.122,39.684
126691,148209,9715,-0.184,1.009,0.021,-1.22,0,0.183,39.688
126691,148143,10942,-0.184,1.004,0.033,-1.22,0,0.183,39.694
126698,148209,9715,-0.183,0.995,0.044,-1.341,0.122,0.793,39.698
126698,148209,10959,-0.181,0.989,0.035,-1.341,0.122,0.793,39.704
126698,148209,9715,-0.181,1.012,0.022,1.159,0.549,1.037,39.708
126698,148182,10958,-0.184,1.038,0.016,1.159,0.549,1.037,39.714
126692,148209,9715,-0.18,1.031,0.027,2.317,0.732,0.793,39.718
126692,148164,10942,-0.169,0.992,0.043,2.317,0.732,0.793,39.724
126686,148209,9715,-0.172,0.987,0.036,3.598,0.793,0.732,39.728
126686,148177,10947,-0.182,1.017,0.01,3.598,0.793,0.732,39.734
126709,148209,9715,-0.183,1.037,0.002,3.232,1.829,0.488,39.737
126709,148188,10943,-0.181,1.035,0.003,3.232,1.829,0.488,39.744
126572,148209,9715,-0.176,1.026,0.001,1.037,0.732,0.183,39.747
126572,148046,10943,-0.178,1.025,0,1.037,0.732,0.183,39.754
126611,148209,9715,-0.184,1.03,0,-3.78,-0.061,0.366,39.757
126611,148075,10945,-0.181,1.023,0.007,-3.78,-0.061,0.366,39.763
126607,148209,9715,-0.181,1.008,0.019,-7.073,-0.793,0.305,39.767
126607,148085,10939,-0.181,0.998,0.031,-7.073,-0.793,0.305,39.773
126556,148209,9715,-0.179,0.993,0.055,-5.854,-1.159,0.305,39.777
126556,147999,10926,-0.177,0.98,0.068,-5.854,-1.159,0.305,39.783
126542,148209,9715,-0.174,0.967,0.062,-1.037,-0.488,0.366,39.787
126542,148013,10939,-0.174,0.983,0.048,-1.037,-0.488,0.366,39.793
126568,148209,9715,-0.182,1.019,0.03,4.451,0.976,0.122,39.797
126568,148031,10935,-0.181,1.037,0.026,4.451,0.976,0.122,39.803
126620,148209,9715,-0.182,1.016,0.03,5.915,1.768,-0.305,39.807
126620,148099,10935,-0.181,1.003,0.024,5.915,1.768,-0.305,39.813
126634,148209,9715,-0.183,1.012,0.008,4.512,1.768,0.122,39.817
126634,148095,10940,-0.189,1.028,-0.004,4.512,1.768,0.122,39.823
126590,148209,9715,-0.186,1.044,-0.003,1.159,1.28,0.793,39.827
126590,148051,10927,-0.181,1.05,-0.001,1.159,1.28,0.793,39.833
126615,148209,9715,-0.177,1.037,0.008,-3.476,-0.671,0.976,39.836
126615,148075,10939,-0.176,1.02,0.019,-3.476,-0.671,0.976,39.843
126634,148209,9715,-0.178,1.004,0.026,-5.854,-0.732,0.549,39.846
126634,148071,10948,-0.177,0.995,0.035,-5.854,-0.732,0.549,39.853
126623,148209,9715,-0.176,0.987,0.045,-4.085,-0.305,0,39.856
126623,148135,10950,-0.177,0.986,0.045,-4.085,-0.305,0,39.862
126678,148209,9715,-0.179,0.999,0.033,0,-0.244,0,39.866
126678,148153,10956,-0.181,1.015,0.022,0,-0.244,0,39.872
126644,148209,9715,-0.181,1.015,0.022,0,-0.244,0,39.876
126644,148127,10949,-0.183,1.024,0.018,1.951,0.427,-0.061,39.882
126698,148209,9715,-0.183,1.024,0.018,1.951,0.427,-0.061,39.886
126698,148201,10943,-0.182,1.011,0.026,0.549,0.488,0,39.892
126693,148209,9715,-0.182,1.011,0.026,0.549,0.488,0,39.896
126693,148213,10946,-0.182,1.003,0.033,-1.829,0.183,0.61,39.902
126719,148209,9715,-0.182,1.003,0.033,-1.829,0.183,0.61,39.906
126719,148211,10957,-0.179,1.004,0.032,-2.134,0,1.28,39.912
126812,148465,9715,-0.179,1.004,0.032,-2.134,0,1.28,39.916
126812,148349,10952,-0.175,1.024,0.023,-0.61,0,1.585,39.922
126757,148465,9715,-0.175,1.024,0.023,-0.61,0,1.585,39.926
126757,148251,10958,-0.178,1.009,0.025,0,0.244,0.915,39.932
126718,148209,9715,-0.178,1.009,0.025,0,0.244,0.915,39.935
126718,148201,10950,-0.183,1.029,0.012,0.427,0.549,0.244,39.942
126767,148465,9715,-0.183,1.029,0.012,0.427,0.549,0.244,39.945
126767,148271,10954,-0.176,1.009,0.027,-0.915,0.488,0.427,39.952
126739,148209,9715,-0.176,1.009,0.027,-0.915,0.488,0.427,39.955
126739,148190,10946,-0.181,1.009,0.023,-1.829,0.244,0.61,39.961
126675,148209,9715,-0.181,1.009,0.023,-1.829,0.244,0.61,39.965
126675,148146,10951,-0.182,1.015,0.019,-1.951,0.366,0.61,39.971
126717,148209,9715,-0.182,1.015,0.019,-1.951,0.366,0.61,39.975
126717,148201,10960,-0.182,1.008,0.03,-1.89,-0.183,0.549,39.981
126725,148209,9715,-0.182,1.008,0.03,-1.89,-0.183,0.549,39.985
126725,148200,10952,-0.176,1.015,0.032,-2.073,-0.061,0.732,39.991
126711,148209,9715,-0.176,1.015,0.032,-2.073,-0.061,0.732,39.995
126711,148168,10955,-0.175,1.011,0.029,-1.646,-0.244,0.671,40.001
126816,148465,9715,-0.175,1.011,0.029,-1.646,-0.244,0.671,40.005
126816,148316,10954,-0.179,1.019,0.027,-1.402,0.305,0.061,40.011
126788,148465,9715,-0.179,1.019,0.027,-1.402,0.305,0.061,40.015
126788,148258,10953,-0.177,1.006,0.035,-1.22,0.732,0.061,40.021
126758,148465,9715,-0.177,0.996,0.043,-1.22,0.732,0.061,40.025
126758,148257,10951,-0.178,0.993,0.046,0.366,0.61,0.122,40.031
126708,148209,9715,-0.177,1,0.041,0.366,0.61,0.122,40.034
126708,148172,10956,-0.178,1.01,0.034,2.744,1.463,-0.183,40.041
126664,148209,9715,-0.179,1.014,0.026,2.744,1.463,-0.183,40.044
126664,148098,10941,-0.181,1.013,0.03,3.415,1.89,-0.427,40.051
126633,148209,9715,-0.181,1.015,0.037,3.415,1.89,-0.427,40.054
126633,148089,10936,-0.179,1.009,0.032,2.805,1.585,-0.244,40.06
126680,148209,9715,-0.177,1.014,0.022,2.805,1.585,-0.244,40.064
126680,148141,10942,-0.178,1.023,0.014,2.988,1.402,-0.122,40.07
126618,148209,9715,-0.182,1.028,0.007,2.988,1.402,-0.122,40.074
126618,148094,10936,-0.185,1.031,0.005,2.683,1.524,-0.488,40.08
126632,148209,9715,-0.185,1.027,0,2.683,1.524,-0.488,40.084
