127751,146846,11365,-0.151,1.005,0.138,-2.805,-0.305,0.671,93.612
127730,146929,9715,-0.152,1.003,0.136,-2.805,-0.305,0.671,93.616
127730,146843,11383,-0.151,0.997,0.138,-0.549,-0.244,0.671,93.622
127771,146929,9715,-0.15,0.996,0.136,-0.549,-0.244,0.671,93.626
127771,146935,11381,-0.148,0.998,0.129,2.561,0.549,0.671,93.632
127864,147185,9715,-0.155,1.006,0.118,2.561,0.549,0.671,93.635
127864,146986,11389,-0.153,1.018,0.112,3.232,1.28,0.488,93.642
127857,147185,9715,-0.153,1.023,0.118,3.232,1.28,0.488,93.645
127857,147015,11388,-0.155,1.016,0.116,1.402,0.732,0.549,93.651
127851,147185,9715,-0.155,1.018,0.115,1.402,0.732,0.549,93.655
127851,146998,11389,-0.156,1.023,0.116,-0.183,0.488,0.488,93.661
127798,147185,9715,-0.159,1.02,0.122,-0.183,0.488,0.488,93.665
127798,146962,11380,-0.154,1.007,0.13,-0.61,0.122,0.671,93.671
127774,146929,9715,-0.151,1.006,0.131,-0.61,0.122,0.671,93.675
127774,146878,11365,-0.15,1.012,0.123,0.244,-0.183,0.915,93.681
127669,146929,9715,-0.15,1.015,0.12,0.244,-0.183,0.915,93.685
127669,146783,11365,-0.155,1.007,0.123,0.671,0.427,0.305,93.691
127639,146929,9715,-0.155,1.007,0.123,0.671,0.427,0.305,93.695
127639,146710,11365,-0.156,1.004,0.121,0.549,0.671,-0.061,93.701
127644,146929,9715,-0.156,1.004,0.121,0.549,0.671,-0.061,93.705
127644,146745,11381,-0.15,1.01,0.127,0.61,0.244,0.305,93.711
127643,146929,9715,-0.15,1.01,0.127,0.61,0.244,0.305,93.715
127643,146729,11367,-0.159,1.012,0.113,0.732,0.427,0.427,93.721
127644,146929,9715,-0.159,1.012,0.113,0.732,0.427,0.427,93.724
127644,146737,11372,-0.158,1.035,0.113,-1.159,0.488,0.122,93.731
127686,146929,9715,-0.158,1.035,0.113,-1.159,0.488,0.122,93.734
127686,146806,11372,-0.152,0.996,0.128,-2.866,-0.305,0.549,93.741
127709,146929,9715,-0.152,0.996,0.128,-2.866,-0.305,0.549,93.744
127709,146829,11373,-0.154,1.001,0.126,-2.073,0.183,0.793,93.75
127709,146929,9715,-0.154,1.001,0.126,-2.073,0.183,0.793,93.754
127709,146852,11373,-0.148,1.01,0.127,-0.671,0.427,0.488,93.76
127717,146929,9715,-0.148,1.01,0.127,-0.671,0.427,0.488,93.764
127717,146860,11382,-0.156,1.018,0.113,0.488,0.671,0.366,93.77
127789,146929,9715,-0.156,1.018,0.113,0.488,0.671,0.366,93.774
127789,146897,11374,-0.155,1.022,0.115,-0.549,0.61,0.183,93.78
127746,146929,9715,-0.155,1.022,0.115,-0.549,0.61,0.183,93.784
127746,146888,11378,-0.154,1.001,0.124,-2.561,-0.183,0.61,93.79
127750,146929,9715,-0.154,1.001,0.124,-2.561,-0.183,0.61,93.794
127750,146871,11371,-0.159,1.002,0.12,-3.415,-0.122,0.793,93.8
127725,146929,9715,-0.159,1.002,0.12,-3.415,-0.122,0.793,93.804
127725,146884,11384,-0.15,1.01,0.139,-3.232,-0.061,0.61,93.81
127695,146929,9715,-0.15,1.01,0.139,-3.232,-0.061,0.61,93.814
127695,146823,11363,-0.15,0.99,0.135,-0.549,-0.061,1.098,93.82
127647,146929,9715,-0.15,0.99,0.135,-0.549,-0.061,1.098,93.824
127647,146763,11382,-0.157,1.025,0.106,1.22,1.22,0.427,93.83
127634,146929,9715,-0.157,1.025,0.106,1.22,1.22,0.427,93.833
127634,146753,11365,-0.156,1.032,0.107,1.22,1.22,0.427,93.84
127626,146929,9715,-0.152,1.021,0.12,-0.427,0.549,-0.061,93.843
127626,146722,11366,-0.152,1,0.131,-0.427,0.549,-0.061,93.849
127605,146673,9715,-0.151,0.99,0.134,-2.195,-0.122,0.976,93.853
127605,146680,11356,-0.15,1.002,0.133,-2.195,-0.122,0.976,93.859
127582,146673,9715,-0.154,1.013,0.132,-1.098,0.549,0.671,93.863
127582,146657,11368,-0.152,1.02,0.132,-1.098,0.549,0.671,93.869
127545,146673,9715,-0.152,1.01,0.129,1.341,1.037,-0.061,93.873
127545,146662,11374,-0.154,1.006,0.126,1.341,1.037,-0.061,93.879
127545,146673,9715,-0.154,1.017,0.112,2.5,1.098,0,93.883
127545,146614,11366,-0.155,1.026,0.111,2.5,1.098,0,93.889
127524,146673,9715,-0.152,1.014,0.116,0.671,0.61,-0.366,93.893
127524,146612,11364,-0.153,0.999,0.121,0.671,0.61,-0.366,93.899
127538,146673,9715,-0.155,0.997,0.128,-1.22,0,-0.183,93.903
127538,146630,11355,-0.155,1.003,0.126,-1.22,0,-0.183,93.909
127594,146929,9715,-0.153,1.007,0.131,-2.012,0.122,0.488,93.913
127594,146716,11376,-0.152,1.01,0.134,-2.012,0.122,0.488,93.919
127665,146929,9715,-0.154,1.006,0.132,-0.854,0.366,0.854,93.922
127665,146788,11373,-0.155,1.003,0.133,-0.854,0.366,0.854,93.929
127767,146929,9715,-0.155,1.001,0.13,0.366,0.793,0.976,93.932
127767,146915,11379,-0.156,1.002,0.124,0.366,0.793,0.976,93.939
127810,147185,9715,-0.155,1.012,0.124,0.549,1.037,1.037,93.942
127810,147010,11376,-0.154,1.012,0.135,0.549,1.037,1.037,93.948
127855,147185,9715,-0.15,1,0.14,0.976,0.915,0.854,93.952
127855,147052,11387,-0.15,0.995,0.13,0.976,0.915,0.854,93.958
127911,147185,9715,-0.157,1.006,0.109,2.683,1.463,0.976,93.962
127911,147090,11397,-0.161,1.025,0.105,2.683,1.463,0.976,93.968
127912,147185,9715,-0.155,1.037,0.109,1.829,1.585,0.793,93.972
127912,147140,11386,-0.153,1.032,0.114,1.829,1.585,0.793,93.978
127938,147185,9715,-0.15,1.011,0.122,-0.61,0.061,1.159,93.982
127938,147132,11397,-0.151,1.003,0.125,-0.61,0.061,1.159,93.988
127967,147185,9715,-0.158,1.01,0.122,-1.28,0.122,1.22,93.992
127967,147182,11401,-0.154,1.008,0.128,-1.28,0.122,1.22,93.998
127926,147185,9715,-0.15,1.001,0.135,-0.854,0.244,0.671,94.002
127926,147092,11406,-0.152,0.987,0.13,-0.854,0.244,0.671,94.008
127849,147185,9715,-0.153,0.994,0.127,1.037,0.61,0.915,94.012
127849,147031,11393,-0.156,1.013,0.111,1.037,0.61,0.915,94.018
127820,147185,9715,-0.157,1.02,0.111,1.159,0.915,0.976,94.022
127820,146979,11392,-0.156,1.021,0.109,1.159,0.915,0.976,94.028
127792,147185,9715,-0.158,1.026,0.107,-1.22,0.122,0.732,94.031
127792,146956,11383,-0.156,1.023,0.112,-1.22,0.122,0.732,94.038
127757,146929,9715,-0.153,1.016,0.125,-3.537,-0.549,1.341,94.041
127757,146920,11383,-0.15,1.005,0.138,-3.537,-0.549,1.341,94.047
127687,146929,9715,-0.148,1.005,0.135,-3.293,-0.976,2.012,94.051
127687,146826,11366,-0.148,1.016,0.125,-3.293,-0.976,2.012,94.057
127634,146929,9715,-0.149,1.023,0.121,-2.927,-0.366,1.463,94.061
127634,146710,11367,-0.148,1.013,0.128,-2.927,-0.366,1.463,94.067
127596,146929,9715,-0.149,0.999,0.138,-2.683,0,0.427,94.071
127596,146709,11360,-0.149,0.992,0.139,-2.683,0,0.427,94.077
127531,146673,9715,-0.149,0.994,0.133,-1.28,0.427,0.488,94.081
127531,146604,11363,-0.149,1.008,0.13,-1.28,0.427,0.488,94.087
127514,146673,9715,-0.15,1.013,0.13,1.159,0.915,0.305,94.091
127514,146599,11355,-0.149,1.008,0.134,1.159,0.915,0.305,94.097
127546,146673,9715,-0.151,1.006,0.126,2.744,1.159,0.061,94.101
127546,146607,11347,-0.154,1.017,0.122,2.744,1.159,0.061,94.107
127455,146673,9715,-0.155,1.02,0.125,2.439,1.28,0.305,94.111
127455,146557,11361,-0.151,1.007,0.128,2.439,1.28,0.305,94.117
127469,146673,9715,-0.149,0.997,0.131,2.805,0.854,0.427,94.12
127469,146557,11370,-0.153,1.005,0.123,2.805,0.854,0.427,94.127
127544,146673,9715,-0.155,1.016,0.115,2.683,1.159,0.427,94.13
127544,146665,11359,-0.154,1.021,0.107,2.683,1.159,0.427,94.137
127567,146929,9715,-0.153,1.027,0.106,1.463,0.61,0.366,94.14
127567,146690,11351,-0.154,1.023,0.109,1.463,0.61,0.366,94.146
127590,146929,9715,-0.156,1.013,0.115,-1.463,-0.061,0.549,94.15
127590,146715,11357,-0.156,1.002,0.121,-1.463,-0.061,0.549,94.156
127567,146929,9715,-0.154,1.003,0.117,-2.988,-0.122,0.671,94.16
127567,146688,11355,-0.156,1.015,0.119,-2.988,-0.122,0.671,94.166
127540,146673,9715,-0.154,1.019,0.127,-2.744,-0.305,0.671,94.17
127540,146663,11364,-0.148,1.007,0.135,-2.744,-0.305,0.671,94.176
127547,146673,9715,-0.149,0.998,0.136,-1.402,-0.305,1.037,94.18
127547,146682,11348,-0.152,0.997,0.137,-1.402,-0.305,1.037,94.186
127500,146673,9715,-0.154,1.002,0.129,0.183,0.549,0.976,94.19
127500,146664,11370,-0.152,1.009,0.127,0.183,0.549,0.976,94.196
127514,146673,9715,-0.152,1.017,0.122,1.037,0.793,0.732,94.2
127514,146640,11341,-0.152,1.016,0.125,1.037,0.793,0.732,94.206
127530,146673,9715,-0.151,1.005,0.131,0.549,0.488,0.732,94.21
127530,146674,11351,-0.155,1.005,0.126,0.549,0.488,0.732,94.216
127555,146929,9715,-0.153,1.021,0.118,0.244,0.366,0.915,94.22
127555,146731,11359,-0.148,1.026,0.122,0.244,0.366,0.915,94.226
127658,146929,9715,-0.145,1.016,0.12,-0.427,0.122,0.793,94.229
127658,146829,11347,-0.149,1.009,0.121,-0.427,0.122,0.793,94.236
127650,146929,9715,-0.154,1.01,0.121,-0.915,0.244,0.488,94.239
127650,146839,11374,-0.155,1.012,0.119,-0.915,0.244,0.488,94.245
127650,146929,9715,-0.154,1.014,0.118,-1.159,0.183,0.183,94.249
127650,146799,11358,-0.152,1.017,0.122,-1.159,0.183,0.183,94.255
127639,146929,9715,-0.147,1.008,0.136,-0.976,-0.305,0.305,94.259
127639,146853,11359,-0.148,0.995,0.138,-0.976,-0.305,0.305,94.265
127664,146929,9715,-0.151,0.99,0.132,0.061,0.183,0.488,94.269
127664,146818,11369,-0.153,0.999,0.128,0.061,0.183,0.488,94.275
127662,146929,9715,-0.155,1.006,0.127,0.854,1.037,0.427,94.279
127662,146845,11376,-0.152,1.001,0.13,0.854,1.037,0.427,94.285
127696,146929,9715,-0.152,1.001,0.13,0.854,1.037,0.427,94.289
127696,146866,11378,-0.152,1.018,0.113,1.28,0.732,0.915,94.295
127639,146929,9715,-0.152,1.018,0.113,1.28,0.732,0.915,94.299
127639,146802,11362,-0.151,1.036,0.112,0.427,0.488,0.915,94.305
127588,146929,9715,-0.151,1.036,0.112,0.427,0.488,0.915,94.309
127588,146760,11373,-0.15,1.021,0.119,-1.646,-0.061,0.61,94.315
127550,146929,9715,-0.15,1.021,0.119,-1.646,-0.061,0.61,94.319
127550,146698,11355,-0.153,1.017,0.119,-3.537,-0.305,0.854,94.325
127532,146673,9715,-0.153,1.017,0.119,-3.537,-0.305,0.854,94.328
127532,146678,11350,-0.149,1.004,0.134,-4.39,-0.427,0.671,94.335
127470,146673,9715,-0.149,1.004,0.134,-4.39,-0.427,0.671,94.338
127470,146567,11333,-0.145,0.995,0.144,-3.415,-0.549,0.671,94.345
127420,146673,9715,-0.145,0.995,0.144,-3.415,-0.549,0.671,94.348
127420,146559,11356,-0.147,0.992,0.138,-0.671,-0.183,0.488,94.354
127419,146673,9715,-0.147,0.992,0.138,-0.671,-0.183,0.488,94.358
127419,146533,11348,-0.153,1.008,0.123,2.134,0.793,-0.305,94.364
127398,146673,9715,-0.153,1.008,0.123,2.134,0.793,-0.305,94.368
127398,146500,11343,-0.153,1.014,0.123,2.195,0.915,-0.366,94.374
127434,146673,9715,-0.153,1.014,0.123,2.195,0.915,-0.366,94.378
127434,146592,11349,-0.152,1.014,0.123,0.488,0.183,0.366,94.384
127467,146673,9715,-0.152,1.014,0.123,0.488,0.183,0.366,94.388
127467,146649,11357,-0.15,1.021,0.122,-1.098,0,0.854,94.394
127596,146929,9715,-0.15,1.021,0.122,-1.098,0,0.854,94.398
127596,146785,11353,-0.148,1.01,0.129,-1.768,0.244,1.037,94.404
127609,146929,9715,-0.148,1.01,0.129,-1.768,0.244,1.037,94.408
127609,146798,11354,-0.15,1.007,0.129,-0.244,-0.061,0.915,94.414
127586,146929,9715,-0.15,1.007,0.129,-0.244,-0.061,0.915,94.418
127586,146752,11352,-0.156,1.013,0.112,1.28,1.098,0.183,94.424
127563,146929,9715,-0.156,1.013,0.112,1.28,1.098,0.183,94.427
127563,146739,11386,-0.151,1.015,0.116,1.159,0.793,0.366,94.434
127562,146673,9715,-0.15,1.014,0.123,1.159,0.793,0.366,94.437
127562,146683,11335,-0.151,0.999,0.128,0.366,0.549,0.732,94.443
127488,146673,9715,-0.153,0.998,0.128,0.366,0.549,0.732,94.447
127488,146646,11373,-0.153,1.005,0.128,0.122,0.671,0.793,94.453
127492,146673,9715,-0.152,1.01,0.125,0.122,0.671,0.793,94.457
127492,146648,11353,-0.151,1.012,0.123,-0.305,0.427,0.915,94.463
127466,146673,9715,-0.151,1.011,0.124,-0.305,0.427,0.915,94.467
127466,146618,11356,-0.148,1.01,0.127,-0.488,0.061,0.915,94.473
127445,146673,9715,-0.147,1.015,0.129,-0.488,0.061,0.915,94.477
127445,146603,11351,-0.145,1.021,0.13,-0.671,0.305,0.61,94.483
127481,146673,9715,-0.144,1.015,0.137,-0.671,0.305,0.61,94.487
127481,146631,11351,-0.146,1,0.146,0.915,0.488,0.366,94.493
127468,146673,9715,-0.146,0.991,0.149,0.915,0.488,0.366,94.497
127468,146612,11340,-0.143,0.993,0.147,5.061,1.037,0.244,94.503
127432,146673,9715,-0.145,0.997,0.141,5.061,1.037,0.244,94.507
127432,146600,11357,-0.146,1.003,0.129,8.78,2.195,-0.305,94.513
127468,146673,9715,-0.155,1.003,0.114,8.78,2.195,-0.305,94.517
127468,146551,11367,-0.159,1.007,0.101,8.354,2.988,-0.976,94.523
127399,146673,9715,-0.16,1.02,0.094,8.354,2.988,-0.976,94.526
127399,146512,11344,-0.155,1.04,0.096,4.634,1.768,-0.732,94.533
127397,146673,9715,-0.153,1.052,0.089,4.634,1.768,-0.732,94.536
127397,146493,11350,-0.157,1.047,0.089,-1.159,-0.061,0.183,94.543
127382,146673,9715,-0.16,1.041,0.092,-1.159,-0.061,0.183,94.546
127382,146505,11351,-0.156,1.032,0.105,-6.951,-0.976,0.915,94.552
127378,146673,9715,-0.153,1.014,0.128,-6.951,-0.976,0.915,94.556
127378,146462,11344,-0.151,0.988,0.145,-9.512,-1.707,1.585,94.562
127423,146673,9715,-0.149,0.968,0.15,-9.512,-1.707,1.585,94.566
127423,146569,11362,-0.152,0.967,0.153,-5.549,-0.915,1.707,94.572
127383,146673,9715,-0.15,0.982,0.149,-5.549,-0.915,1.707,94.576
127383,146499,11342,-0.147,1.003,0.132,1.22,0.854,1.098,94.582
127354,146673,9715,-0.148,1.027,0.111,1.22,0.854,1.098,94.586
127354,146471,11351,-0.149,1.038,0.103,4.024,1.159,0.366,94.592
127315,146417,9715,-0.154,1.036,0.106,4.024,1.159,0.366,94.596
127315,146421,11330,-0.152,1.02,0.117,0.732,0.732,0.305,94.602
127248,146417,9715,-0.147,1.004,0.127,0.732,0.732,0.305,94.606
127248,146342,11335,-0.147,0.995,0.135,-2.256,-0.305,1.037,94.612
127267,146417,9715,-0.149,0.993,0.131,-2.256,-0.305,1.037,94.616
127267,146322,11334,-0.151,1.009,0.121,-1.585,-0.122,1.22,94.622
127294,146417,9715,-0.151,1.021,0.114,-1.585,-0.122,1.22,94.625
127294,146384,11343,-0.152,1.018,0.124,-1.463,0.061,0.671,94.632
127311,146673,9715,-0.151,1.005,0.137,-1.463,0.061,0.671,94.635
127311,146435,11338,-0.145,0.988,0.147,-0.61,-0.366,0.427,94.642
127317,146673,9715,-0.146,0.982,0.141,-0.61,-0.366,0.427,94.645
127317,146463,11343,-0.149,1.004,0.124,2.256,0.671,0.488,94.651
127320,146673,9715,-0.151,1.032,0.111,2.256,0.671,0.488,94.655
127320,146440,11341,-0.15,1.042,0.109,2.622,1.341,0,94.661
127310,146673,9715,-0.152,1.026,0.115,2.622,1.341,0,94.665
127310,146442,11342,-0.151,1.008,0.121,0.671,0.549,0.427,94.671
127320,146673,9715,-0.156,1.001,0.125,0.671,0.549,0.427,94.675
127320,146475,11322,-0.153,1,0.128,-0.61,0.549,1.159,94.681
127362,146673,9715,-0.151,1.004,0.127,-0.61,0.549,1.159,94.685
127362,146491,11343,-0.148,1.013,0.124,-0.122,0.183,1.28,94.691
127352,146673,9715,-0.146,1.017,0.125,-0.122,0.183,1.28,94.695
127352,146471,11336,-0.145,1.016,0.12,-0.183,0.244,1.037,94.701
127337,146673,9715,-0.144,1.014,0.119,-0.183,0.244,1.037,94.705
127337,146442,11349,-0.147,1.015,0.122,-0.732,0.427,0.244,94.711
127341,146673,9715,-0.146,1.016,0.12,-0.732,0.427,0.244,94.715
127341,146459,11331,-0.148,1.015,0.123,-1.159,0.427,-0.122,94.721
127363,146673,9715,-0.151,1.011,0.129,-1.159,0.427,-0.122,94.724
127363,146449,11345,-0.146,1,0.142,0.305,0.61,-0.183,94.731
127354,146673,9715,-0.145,0.992,0.14,0.305,0.61,-0.183,94.734
127354,146460,11340,-0.146,1,0.131,3.049,0.854,-0.305,94.741
127323,146673,9715,-0.149,1.012,0.122,3.049,0.854,-0.305,94.744
127323,146443,11341,-0.149,1.015,0.125,4.024,1.707,-0.793,94.75
127321,146417,9715,-0.151,1.004,0.127,4.024,1.707,-0.793,94.754
127321,146416,11328,-0.152,0.999,0.121,4.146,1.585,-0.732,94.76
127334,146417,9715,-0.154,1.011,0.11,4.146,1.585,-0.732,94.764
127334,146417,11353,-0.157,1.024,0.101,2.988,1.402,-0.549,94.77
127382,146673,9715,-0.156,1.028,0.101,2.988,1.402,-0.549,94.774
127382,146508,11353,-0.153,1.025,0.109,-0.061,0.61,-0.366,94.78
127476,146673,9715,-0.151,1.019,0.115,-0.061,0.61,-0.366,94.784
127476,146596,11350,-0.151,1.012,0.124,-2.927,-0.305,0.549,94.79
127553,146673,9715,-0.151,1.003,0.133,-2.927,-0.305,0.549,94.794
127553,146679,11367,-0.153,0.994,0.137,-2.012,-0.122,0.854,94.8
127535,146929,9715,-0.149,0.991,0.137,-2.012,-0.122,0.854,94.804
127535,146691,11364,-0.149,0.988,0.135,1.646,0.732,0.549,94.81
127518,146929,9715,-0.148,0.988,0.128,1.646,0.732,0.549,94.814
127518,146694,11365,-0.152,1.014,0.11,4.756,1.463,0.244,94.82
127417,146673,9715,-0.152,1.042,0.099,4.756,1.463,0.244,94.823
127417,146544,11354,-0.15,1.043,0.098,3.11,1.524,-0.366,94.83
127353,146673,9715,-0.149,1.028,0.105,3.11,1.524,-0.366,94.833
127353,146492,11339,-0.152,1.02,0.106,-0.305,0.183,-0.122,94.84
127369,146673,9715,-0.152,1.018,0.107,-0.305,0.183,-0.122,94.843
127369,146445,11347,-0.154,1.013,0.115,-3.476,-0.061,0.427,94.849
127335,146673,9715,-0.156,1.01,0.116,-3.476,-0.061,0.427,94.853
127335,146449,11351,-0.152,1.011,0.116,-5.061,-0.671,0.732,94.859
127275,146417,9715,-0.15,1.012,0.123,-5.061,-0.671,0.732,94.863
127275,146320,11325,-0.151,1.008,0.131,-5,-0.976,0.61,94.869
127226,146417,9715,-0.15,1.001,0.134,-5,-0.976,0.61,94.873
127226,146286,11321,-0.147,0.996,0.13,-3.11,-0.366,0.244,94.879
127249,146417,9715,-0.147,0.996,0.13,-3.11,-0.366,0.244,94.883
127249,146319,11349,-0.15,1.003,0.13,-0.732,0.366,0.122,94.889
127235,146417,9715,-0.15,1.003,0.13,-0.732,0.366,0.122,94.893
127235,146329,11324,-0.151,1.015,0.116,0.427,0.793,0.122,94.899
127191,146417,9715,-0.151,1.015,0.116,0.427,0.793,0.122,94.903
127191,146195,11326,-0.148,1.005,0.133,-0.122,0.244,0.183,94.909
127117,146161,9715,-0.148,1.005,0.133,-0.122,0.244,0.183,94.913
127117,146162,11324,-0.153,1.013,0.124,-0.244,0.244,0.61,94.919
127173,146417,9715,-0.153,1.013,0.124,-0.244,0.244,0.61,94.922
127173,146210,11334,-0.15,1.015,0.127,-0.427,0.488,0.427,94.929
127148,146417,9715,-0.15,1.015,0.127,-0.427,0.488,0.427,94.932
127148,146187,11322,-0.152,1.014,0.121,-0.671,0.183,0.427,94.939
127148,146417,9715,-0.152,1.014,0.121,-0.671,0.183,0.427,94.942
127148,146224,11325,-0.149,1.016,0.118,-0.854,0.244,0.427,94.948
127230,146417,9715,-0.149,1.016,0.118,-0.854,0.244,0.427,94.952
127230,146295,11316,-0.151,1.012,0.122,-1.037,0,0.305,94.958
127268,146417,9715,-0.151,1.012,0.122,-1.037,0,0.305,94.962
127268,146396,11332,-0.149,1,0.128,-0.427,0.305,0.183,94.968
127284,146417,9715,-0.149,1,0.128,-0.427,0.305,0.183,94.972
127284,146385,11331,-0.151,1.011,0.118,0.671,0.366,0.183,94.978
127302,146673,9715,-0.151,1.011,0.118,0.671,0.366,0.183,94.982
127302,146432,11334,-0.152,1.023,0.118,0.244,0.366,0,94.988
127326,146673,9715,-0.152,1.023,0.118,0.244,0.366,0,94.992
127326,146440,11343,-0.149,0.993,0.135,-0.732,0,0.061,94.998
127326,146673,9715,-0.149,0.993,0.135,-0.732,0,0.061,95.002
127326,146441,11333,-0.155,1.003,0.121,0.366,0.427,0.244,95.008
127368,146673,9715,-0.155,1.003,0.121,0.366,0.427,0.244,95.012
127368,146466,11351,-0.151,1.032,0.123,0.427,0.427,0.183,95.018
127387,146673,9715,-0.151,1.032,0.123,0.427,0.427,0.183,95.021
127387,146503,11353,-0.147,1.021,0.123,0.427,0.427,0.183,95.028
127475,146673,9715,-0.147,1.008,0.121,-0.061,-0.305,0.305,95.031
127475,146577,11354,-0.153,1.005,0.128,-0.061,-0.305,0.305,95.038
127475,146673,9715,-0.157,1.001,0.125,0.244,0.488,0.061,95.041
127475,146614,11359,-0.153,1.007,0.119,0.244,0.488,0.061,95.047
127465,146673,9715,-0.151,1.02,0.113,1.159,0.488,0.122,95.051
127465,146584,11353,-0.152,1.029,0.107,1.159,0.488,0.122,95.057
127460,146673,9715,-0.152,1.022,0.109,0.183,-0.122,0.183,95.061
127460,146590,11362,-0.149,1.016,0.119,0.183,-0.122,0.183,95.067
127485,146673,9715,-0.148,1.007,0.123,-1.402,-0.366,0.244,95.071
127485,146619,11351,-0.154,0.996,0.126,-1.402,-0.366,0.244,95.077
127497,146673,9715,-0.155,0.995,0.126,-1.768,0.122,0.427,95.081
127497,146640,11355,-0.154,1.003,0.129,-1.768,0.122,0.427,95.087
127536,146929,9715,-0.154,1.006,0.124,-0.976,0.366,0.366,95.091
127536,146696,11371,-0.151,1.012,0.127,-0.976,0.366,0.366,95.097
127482,146673,9715,-0.152,1.018,0.125,0.244,0.244,0.549,95.101
127482,146629,11361,-0.149,1.013,0.127,0.244,0.244,0.549,95.107
127476,146673,9715,-0.148,1.004,0.129,1.037,0.671,0.61,95.111
127476,146636,11350,-0.145,1.002,0.125,1.037,0.671,0.61,95.117
127510,146673,9715,-0.151,1.007,0.121,1.341,0.671,0.488,95.12
127510,146636,11350,-0.151,1.018,0.117,1.341,0.671,0.488,95.127
127439,146673,9715,-0.15,1.019,0.119,0.671,0.732,0.122,95.13
127439,146578,11371,-0.146,1.013,0.124,0.671,0.732,0.122,95.137
127376,146673,9715,-0.144,1.013,0.12,0.183,0,0.244,95.14
127376,146526,11352,-0.149,1.018,0.117,0.183,0,0.244,95.146
127311,146417,9715,-0.15,1.02,0.124,-0.122,0.244,0.244,95.15
127311,146422,11355,-0.146,1.008,0.133,-0.122,0.244,0.244,95.156
127302,146417,9715,-0.145,0.989,0.138,1.768,0.244,0,95.16
127302,146385,11342,-0.152,0.993,0.122,1.768,0.244,0,95.166
127276,146417,9715,-0.156,1.014,0.112,3.72,0.854,-0.244,95.17
127276,146362,11350,-0.155,1.021,0.111,3.72,0.854,-0.244,95.176
127231,146417,9715,-0.152,1.017,0.115,2.988,0.915,-0.671,95.18
127231,146329,11332,-0.155,1.009,0.116,2.988,0.915,-0.671,95.186
127266,146417,9715,-0.157,1.009,0.109,1.098,0,0.122,95.19
127266,146357,11336,-0.156,1.016,0.11,1.098,0,0.122,95.196
127250,146417,9715,-0.155,1.013,0.127,-0.793,0.122,0.671,95.2
127250,146366,11342,-0.15,1.008,0.127,-0.793,0.122,0.671,95.206
127223,146417,9715,-0.151,1.01,0.119,-0.732,-0.427,1.22,95.21
127223,146317,11341,-0.149,1.006,0.131,-0.732,-0.427,1.22,95.216
127196,146417,9715,-0.149,1,0.138,0.427,0.061,0.793,95.219
127196,146306,11330,-0.15,1,0.125,0.427,0.061,0.793,95.226
127160,146417,9715,-0.154,1.016,0.116,2.134,0.366,0.366,95.229
127160,146202,11335,-0.15,1.03,0.113,2.134,0.366,0.366,95.236
127105,146417,9715,-0.146,1.028,0.114,1.768,0.244,0,95.239
127105,146196,11337,-0.151,1.024,0.115,1.768,0.244,0,95.245
127116,146417,9715,-0.151,1.019,0.107,-0.488,0,0.122,95.249
127116,146179,11339,-0.157,1.006,0.112,-0.488,0,0.122,95.255
127087,146161,9715,-0.156,0.991,0.124,-2.5,0,0.305,95.259
127087,146154,11325,-0.154,0.987,0.129,-2.5,0,0.305,95.265
127062,146161,9715,-0.153,1.007,0.121,-2.805,-0.61,0.915,95.269
127062,146126,11352,-0.154,1.019,0.12,-2.805,-0.61,0.915,95.275
127152,146417,9715,-0.149,1.003,0.146,-2.012,-0.427,1.22,95.279
127152,146212,11327,-0.146,0.981,0.161,-2.012,-0.427,1.22,95.285
127108,146161,9715,-0.143,0.969,0.154,2.683,-0.183,1.22,95.289
127108,146170,11322,-0.149,0.992,0.125,2.683,-0.183,1.22,95.295
127080,146161,9715,-0.156,1.036,0.096,6.524,1.646,0.427,95.299
127080,146132,11336,-0.156,1.059,0.084,6.524,1.646,0.427,95.305
127101,146161,9715,-0.151,1.052,0.088,4.573,1.463,-0.793,95.309
127101,146164,11327,-0.15,1.027,0.102,4.573,1.463,-0.793,95.315
127110,146417,9715,-0.153,1.009,0.109,-1.22,-0.488,0.244,95.318
127110,146180,11342,-0.155,1.014,0.103,-1.22,-0.488,0.244,95.325
127083,146161,9715,-0.154,1.029,0.095,-5.183,-0.671,1.098,95.328
127083,146113,11333,-0.151,1.029,0.106,-5.183,-0.671,1.098,95.335
127030,146161,9715,-0.151,1.007,0.13,-7.744,-1.646,0.671,95.338
127030,146058,11344,-0.151,0.976,0.149,-7.744,-1.646,0.671,95.344
127017,146161,9715,-0.15,0.964,0.147,-6.768,-1.89,1.28,95.348
127017,146078,11321,-0.149,0.986,0.133,-6.768,-1.89,1.28,95.354
127047,146161,9715,-0.15,1.021,0.129,-2.866,-0.61,0.854,95.358
127047,146076,11336,-0.141,1.015,0.151,-2.866,-0.61,0.854,95.364
127030,146161,9715,-0.142,0.988,0.155,1.28,-0.061,0.061,95.368
127030,146043,11334,-0.148,0.988,0.132,1.28,-0.061,0.061,95.374
126982,146161,9715,-0.158,1.022,0.109,4.146,1.28,0.305,95.378
126982,146013,11331,-0.158,1.047,0.102,4.146,1.28,0.305,95.384
126974,146161,9715,-0.15,1.047,0.107,2.378,1.463,-0.244,95.388
126974,145996,11338,-0.148,1.025,0.115,2.378,1.463,-0.244,95.394
126987,146161,9715,-0.15,0.998,0.125,-0.854,-0.488,0.549,95.398
126987,146006,11322,-0.152,0.988,0.13,-0.854,-0.488,0.549,95.404
126970,146161,9715,-0.151,1,0.134,-1.768,0.122,1.037,95.408
126970,145960,11329,-0.146,1.006,0.14,-1.768,0.122,1.037,95.414
126955,146161,9715,-0.143,1.009,0.131,0.854,0,0.61,95.417
126955,145988,11328,-0.143,1.006,0.126,0.854,0,0.61,95.424
126942,146161,9715,-0.149,1.003,0.121,3.293,0.854,0.061,95.427
126942,145950,11325,-0.154,1.01,0.11,3.293,0.854,0.061,95.434
126953,146161,9715,-0.156,1.017,0.101,2.866,1.585,-0.793,95.437
126953,145974,11314,-0.156,1.021,0.108,2.866,1.585,-0.793,95.443
126925,145905,9715,-0.155,1.016,0.112,0.671,0.488,-0.671,95.447
126925,145910,11304,-0.154,1.009,0.117,0.671,0.488,-0.671,95.453
126868,145905,9715,-0.153,1.007,0.124,-1.22,0.122,0.488,95.457
126868,145858,11321,-0.153,1.002,0.133,-1.22,0.122,0.488,95.463
126859,145905,9715,-0.153,1.002,0.133,-1.22,0.122,0.488,95.467
126859,145794,11315,-0.151,0.996,0.133,-0.854,0.366,1.037,95.473
126778,145905,9715,-0.151,0.996,0.133,-0.854,0.366,1.037,95.477
126778,145735,11303,-0.147,1.024,0.116,2.317,0.488,0.854,95.483
126748,145649,9715,-0.147,1.024,0.116,2.317,0.488,0.854,95.487
126748,145657,11303,-0.15,1.024,0.106,3.232,0.793,0.244,95.493
126744,145905,9715,-0.15,1.024,0.106,3.232,0.793,0.244,95.497
126744,145691,11322,-0.153,1.018,0.103,1.646,0.427,-0.122,95.503
126697,145649,9715,-0.153,1.018,0.103,1.646,0.427,-0.122,95.507
126697,145624,11295,-0.152,1.022,0.115,-1.524,-0.122,0.061,95.513
126628,145649,9715,-0.152,1.022,0.115,-1.524,-0.122,0.061,95.516
126628,145514,11285,-0.151,0.997,0.127,-5.122,-0.976,0.732,95.523
126588,145649,9715,-0.151,0.997,0.127,-5.122,-0.976,0.732,95.526
126588,145472,11296,-0.15,0.98,0.143,-5.305,-0.976,0.854,95.533
126559,145649,9715,-0.15,0.98,0.143,-5.305,-0.976,0.854,95.536
126559,145436,11295,-0.149,1.019,0.127,-1.768,-0.061,0.549,95.542
126544,145649,9715,-0.149,1.019,0.127,-1.768,-0.061,0.549,95.546
126544,145410,11299,-0.148,1.016,0.128,1.159,0.488,0.305,95.552
126514,145649,9715,-0.148,1.016,0.128,1.159,0.488,0.305,95.556
126514,145429,11308,-0.15,0.999,0.127,2.012,0.854,0.061,95.562
126636,145649,9715,-0.15,0.999,0.127,2.012,0.854,0.061,95.566
126636,145532,11290,-0.154,1.026,0.105,1.951,0.976,0.061,95.572
126546,145649,9715,-0.154,1.026,0.105,1.951,0.976,0.061,95.576
126546,145430,11302,-0.15,1.026,0.108,0.488,0.671,0.183,95.582
126410,145393,9715,-0.15,1.026,0.108,0.488,0.671,0.183,95.586
126410,145298,11295,-0.151,1.014,0.122,-2.622,-0.61,0.61,95.592
126448,145393,9715,-0.151,1.014,0.122,-2.622,-0.61,0.61,95.596
126448,145291,11278,-0.15,0.983,0.135,-4.939,-0.549,0.488,95.602
126287,145137,9715,-0.15,0.983,0.135,-4.939,-0.549,0.488,95.606
126287,145072,11270,-0.152,1.006,0.128,-2.927,-0.183,0.427,95.612
126134,145137,9715,-0.152,1.006,0.128,-2.927,-0.183,0.427,95.615
126134,144906,11251,-0.152,1.017,0.119,-0.183,0.061,0.427,95.622
126078,144881,9715,-0.152,1.024,0.113,-0.183,0.061,0.427,95.625
126078,144828,11268,-0.15,1.026,0.115,0.122,0.244,0.244,95.632
125880,144625,9715,-0.15,1.016,0.124,0.122,0.244,0.244,95.635
125880,144602,11242,-0.153,1.007,0.123,-0.793,-0.061,0.244,95.641
125878,144625,9715,-0.154,1.011,0.12,-0.793,-0.061,0.244,95.645
125878,144638,11249,-0.152,1.016,0.115,-1.951,0.122,0.427,95.651
125866,144625,9715,-0.153,1.014,0.119,-1.951,0.122,0.427,95.655
125866,144580,11245,-0.153,1.009,0.129,-2.866,-0.244,0.549,95.661
125784,144625,9715,-0.148,1,0.14,-2.866,-0.244,0.549,95.665
125784,144534,11236,-0.147,0.99,0.143,-1.829,-0.488,0.915,95.671
125859,144625,9715,-0.149,1,0.138,-1.829,-0.488,0.915,95.675
125859,144617,11232,-0.145,1.015,0.131,0.793,0.183,0.732,95.681
125859,144625,9715,-0.146,1.019,0.123,0.793,0.183,0.732,95.685
125859,144619,11239,-0.147,1.012,0.12,2.622,0.915,-0.244,95.691
125849,144625,9715,-0.151,1.005,0.123,2.622,0.915,-0.244,95.695
125849,144620,11244,-0.151,1,0.123,2.744,1.22,-0.366,95.701
125924,144881,9715,-0.151,0.997,0.129,2.744,1.22,-0.366,95.705
125924,144711,11254,-0.15,0.997,0.131,2.866,0.976,0.122,95.711
125943,144881,9715,-0.152,1.006,0.122,2.866,0.976,0.122,95.715
125943,144743,11250,-0.153,1.013,0.12,3.11,1.098,0.305,95.721
125960,144881,9715,-0.152,1.019,0.118,3.11,1.098,0.305,95.724
125960,144774,11239,-0.152,1.017,0.125,2.622,1.28,0.244,95.731
126014,144881,9715,-0.152,1.009,0.123,2.622,1.28,0.244,95.734
126014,144834,11253,-0.152,1.017,0.119,2.5,1.037,0.488,95.74
126119,145137,9715,-0.155,1.03,0.108,2.5,1.037,0.488,95.744
126119,144954,11261,-0.155,1.04,0.097,2.073,1.402,0.183,95.75
126144,145137,9715,-0.152,1.041,0.098,2.073,1.402,0.183,95.754
126144,144978,11284,-0.149,1.028,0.112,-0.244,0.61,0.122,95.76
126129,145137,9715,-0.148,1.009,0.126,-0.244,0.61,0.122,95.764
126129,144968,11263,-0.152,0.99,0.126,-1.951,0.122,0.61,95.77
126131,145137,9715,-0.157,0.984,0.122,-1.951,0.122,0.61,95.774
126131,144984,11270,-0.153,0.992,0.125,-1.098,0.793,0.549,95.78
126076,144881,9715,-0.148,1,0.127,-1.098,0.793,0.549,95.784
126076,144892,11263,-0.148,1.007,0.12,0.427,0.427,0.122,95.79
125974,144881,9715,-0.15,1.022,0.107,0.427,0.427,0.122,95.794
125974,144784,11263,-0.151,1.037,0.096,0.183,0.061,-0.305,95.8
125921,144881,9715,-0.153,1.048,0.095,0.183,0.061,-0.305,95.804
125921,144775,11257,-0.149,1.039,0.113,-3.659,-0.61,-0.61,95.81
125885,144881,9715,-0.149,1.01,0.136,-3.659,-0.61,-0.61,95.813
125885,144671,11240,-0.15,0.98,0.148,-5.976,-0.976,0.305,95.82
125765,144625,9715,-0.151,0.967,0.151,-5.976,-0.976,0.305,95.823
125765,144535,11241,-0.155,0.973,0.15,-2.622,0.305,0.854,95.83
125787,144625,9715,-0.154,0.992,0.138,-2.622,0.305,0.854,95.833
125787,144594,11247,-0.151,1.017,0.128,2.561,1.159,0.244,95.839
125844,144625,9715,-0.15,1.03,0.118,2.561,1.159,0.244,95.843
125844,144638,11244,-0.149,1.028,0.116,4.024,0.793,-0.061,95.849
125782,144625,9715,-0.148,1.022,0.117,4.024,0.793,-0.061,95.853
125782,144563,11261,-0.152,1.01,0.114,2.378,0.915,-0.305,95.859
125736,144625,9715,-0.154,1.008,0.113,2.378,0.915,-0.305,95.863
125736,144509,11224,-0.156,1.017,0.112,0.366,0.854,-0.366,95.869
125689,144625,9715,-0.155,1.03,0.102,0.366,0.854,-0.366,95.873
125689,144485,11241,-0.152,1.034,0.102,-2.5,-0.061,0.427,95.879
125688,144625,9715,-0.149,1.034,0.113,-2.5,-0.061,0.427,95.883
125688,144433,11218,-0.147,1.012,0.134,-5.183,-1.159,0.732,95.889
125594,144369,9715,-0.147,0.977,0.16,-5.183,-1.159,0.732,95.893
125594,144341,11222,-0.149,0.95,0.16,-2.012,-0.244,0.244,95.899
125522,144369,9715,-0.152,0.958,0.141,-2.012,-0.244,0.244,95.903
125522,144292,11225,-0.156,1.011,0.111,3.963,1.341,0,95.909
125536,144369,9715,-0.156,1.047,0.094,3.963,1.341,0,95.912
125536,144301,11224,-0.15,1.048,0.095,3.963,1.28,-0.732,95.919
125518,144369,9715,-0.149,1.039,0.1,3.963,1.28,-0.732,95.922
125518,144251,11213,-0.148,1.021,0.112,-0.732,-0.122,0,95.929
125485,144369,9715,-0.154,1.002,0.12,-0.732,-0.122,0,95.932
125485,144224,11216,-0.156,0.993,0.127,-3.841,-0.122,0.915,95.938
125552,144369,9715,-0.159,1.007,0.125,-3.841,-0.122,0.915,95.942
125552,144304,11217,-0.154,1.022,0.123,-3.963,0.061,1.098,95.948
125560,144369,9715,-0.151,1.016,0.129,-3.963,0.061,1.098,95.952
125560,144326,11213,-0.148,1.004,0.135,-2.927,-0.61,1.22,95.958
125571,144369,9715,-0.149,0.992,0.133,-2.927,-0.61,1.22,95.962
125571,144360,11226,-0.148,1.003,0.121,-0.671,-0.244,0.854,95.968
125640,144625,9715,-0.149,1.02,0.121,-0.671,-0.244,0.854,95.972
125640,144414,11226,-0.148,1.015,0.125,0,0.549,0.244,95.978
125731,144625,9715,-0.15,1,0.128,0,0.549,0.244,95.982
125731,144544,11236,-0.15,0.994,0.129,0.366,0.305,0.61,95.988
125812,144881,9715,-0.153,1.004,0.127,0.366,0.305,0.61,95.992
125812,144644,11263,-0.152,1.015,0.12,0,0.732,0.732,95.998
125890,144881,9715,-0.151,1.021,0.116,0,0.732,0.732,96.002
125890,144748,11262,-0.147,1.02,0.123,-0.549,0.244,0.61,96.008
126056,145137,9715,-0.146,1.016,0.131,-0.549,0.244,0.61,96.012
126056,144951,11254,-0.147,1.003,0.136,-0.854,0.061,0.549,96.018
126151,145137,9715,-0.145,0.987,0.142,-0.854,0.061,0.549,96.021
126151,145062,11289,-0.149,0.982,0.14,1.646,0.976,0.122,96.028
126217,145137,9715,-0.152,0.995,0.127,1.646,0.976,0.122,96.031
126217,145138,11281,-0.154,1.009,0.116,4.329,1.768,-0.244,96.037
126379,145393,9715,-0.152,1.023,0.11,4.329,1.768,-0.244,96.041
126379,145327,11296,-0.149,1.026,0.111,4.573,1.768,-0.305,96.047
126521,145649,9715,-0.153,1.021,0.116,4.573,1.768,-0.305,96.051
126521,145443,11297,-0.157,1.009,0.117,3.11,1.098,-0.122,96.057
126579,145649,9715,-0.157,1.009,0.117,3.11,1.098,-0.122,96.061
126579,145553,11311,-0.16,1.026,0.099,1.707,0.976,0.366,96.067
126567,145649,9715,-0.16,1.026,0.099,1.707,0.976,0.366,96.071
126567,145527,11300,-0.149,1.027,0.113,-1.707,-0.183,0.549,96.077
126348,145393,9715,-0.149,1.027,0.113,-1.707,-0.183,0.549,96.081
126348,145262,11293,-0.15,0.995,0.126,-3.232,-0.427,0.366,96.087
126293,145393,9715,-0.15,0.995,0.126,-3.232,-0.427,0.366,96.091
126293,145208,11284,-0.152,0.999,0.131,-2.5,0.244,0.305,96.097
126322,145393,9715,-0.152,0.999,0.131,-2.5,0.244,0.305,96.101
126322,145235,11301,-0.15,1.007,0.124,0.366,0.183,0.549,96.107
126276,145393,9715,-0.15,1.007,0.124,0.366,0.183,0.549,96.111
126276,145176,11261,-0.152,1.025,0.118,1.829,0.488,0.183,96.117
126191,145137,9715,-0.152,1.025,0.118,1.829,0.488,0.183,96.12
126191,145090,11265,-0.152,1.019,0.111,1.646,0.671,-0.122,96.127
126182,145137,9715,-0.152,1.019,0.111,1.646,0.671,-0.122,96.13
126182,145110,11270,-0.157,0.995,0.125,-0.122,0.549,0.244,96.136
126188,145137,9715,-0.157,0.995,0.125,-0.122,0.549,0.244,96.14
126188,145094,11275,-0.155,0.995,0.123,-0.671,0.244,0.854,96.146
126104,145137,9715,-0.155,0.995,0.123,-0.671,0.244,0.854,96.15
126104,144989,11264,-0.151,1.022,0.119,-0.488,0.061,1.037,96.156
126017,144881,9715,-0.151,1.022,0.119,-0.488,0.061,1.037,96.16
126017,144894,11252,-0.15,1.006,0.126,-0.183,-0.061,1.037,96.166
126068,145137,9715,-0.15,1.006,0.126,-0.183,-0.061,1.037,96.17
126068,145007,11264,-0.152,1.002,0.124,0.671,0.366,0.976,96.176
126200,145137,9715,-0.152,1.002,0.124,0.671,0.366,0.976,96.18
126200,145072,11267,-0.149,1.02,0.112,1.402,0.366,0.976,96.186
126061,145137,9715,-0.149,1.02,0.112,1.402,0.366,0.976,96.19
126061,144986,11259,-0.145,1.014,0.124,0.915,0.061,0.915,96.196
126016,145137,9715,-0.145,1.014,0.124,0.915,0.061,0.915,96.2
126016,144917,11241,-0.148,1.002,0.124,0.915,0.061,0.915,96.206
126098,145137,9715,-0.153,1.004,0.113,0.732,0.122,1.159,96.21
126098,144978,11263,-0.151,1.023,0.107,0.732,0.122,1.159,96.216
126098,145137,9715,-0.151,1.036,0.103,-0.671,0.244,0.549,96.219
126098,144985,11257,-0.15,1.039,0.102,-0.671,0.244,0.549,96.226
126033,145137,9715,-0.152,1.032,0.107,-3.78,-0.732,0.061,96.229
126033,144914,11265,-0.15,1.016,0.129,-3.78,-0.732,0.061,96.235
126074,145137,9715,-0.147,0.989,0.144,-5.427,-0.732,0.549,96.239
126074,144973,11269,-0.148,0.975,0.144,-5.427,-0.732,0.549,96.245
126063,145137,9715,-0.151,0.975,0.14,-1.768,-0.061,1.037,96.249
126063,144969,11271,-0.15,0.993,0.132,-1.768,-0.061,1.037,96.255
126099,145137,9715,-0.151,1.012,0.12,2.256,0.732,0.366,96.259
126099,145018,11268,-0.151,1.03,0.107,2.256,0.732,0.366,96.265
126184,145137,9715,-0.152,1.038,0.101,2.317,0.305,-0.427,96.269
126184,145133,11270,-0.153,1.029,0.106,2.317,0.305,-0.427,96.275
126232,145393,9715,-0.15,1.016,0.116,-1.037,-0.061,-0.183,96.279
126232,145172,11288,-0.153,1.009,0.121,-1.037,-0.061,-0.183,96.285
126318,145393,9715,-0.151,1.001,0.129,-3.78,-0.427,0.732,96.289
126318,145290,11277,-0.152,0.989,0.133,-3.78,-0.427,0.732,96.295
126472,145649,9715,-0.153,0.986,0.137,-2.927,-0.427,1.098,96.299
126472,145501,11296,-0.153,0.994,0.139,-2.927,-0.427,1.098,96.305
126647,145905,9715,-0.15,1.005,0.134,0,-0.061,1.098,96.309
126647,145698,11294,-0.147,1.011,0.128,0,-0.061,1.098,96.315
126761,145905,9715,-0.148,1.01,0.127,2.5,0.366,0.671,96.318
126761,145845,11308,-0.15,1.018,0.114,2.5,0.366,0.671,96.325
126913,146161,9715,-0.152,1.029,0.109,2.256,0.732,0.122,96.328
126913,146022,11325,-0.15,1.028,0.106,2.256,0.732,0.122,96.335
127031,146161,9715,-0.148,1.018,0.109,0.427,0.244,0.244,96.338
127031,146150,11328,-0.153,1.01,0.111,0.427,0.244,0.244,96.344
126953,146161,9715,-0.152,1.008,0.11,-2.439,-0.183,0.915,96.348
126953,146060,11324,-0.151,1.007,0.112,-2.439,-0.183,0.915,96.354
126910,146161,9715,-0.151,1.01,0.126,-4.146,-1.037,1.159,96.358
126910,146030,11326,-0.149,1.008,0.142,-4.146,-1.037,1.159,96.364
126884,146161,9715,-0.146,1.005,0.141,-3.232,-1.463,0.976,96.368
126884,145967,11320,-0.145,1.012,0.132,-3.232,-1.463,0.976,96.374
126840,146161,9715,-0.145,1.021,0.129,-1.402,-0.732,0.549,96.378
126840,145925,11315,-0.145,1.013,0.134,-1.402,-0.732,0.549,96.384
126792,145905,9715,-0.152,0.996,0.128,0.183,0.427,-0.183,96.388
126792,145881,11311,-0.151,0.999,0.123,0.183,0.427,-0.183,96.394
126730,145905,9715,-0.151,1.018,0.117,1.28,0.488,-0.183,96.398
126730,145811,11317,-0.152,1.03,0.113,1.28,0.488,-0.183,96.404
126720,145905,9715,-0.15,1.015,0.125,0.244,0.305,0.244,96.408
126720,145735,11290,-0.153,0.997,0.136,0.244,0.305,0.244,96.414
126714,145905,9715,-0.149,0.989,0.141,0.183,0.427,0.732,96.417
126714,145789,11312,-0.15,0.992,0.137,0.183,0.427,0.732,96.424
126718,145905,9715,-0.151,1.002,0.13,1.951,0.854,0.854,96.427
126718,145725,11306,-0.151,1.006,0.124,1.951,0.854,0.854,96.434
126683,145905,9715,-0.152,1.015,0.118,3.537,1.159,0.915,96.437
126683,145714,11300,-0.146,1.019,0.125,3.537,1.159,0.915,96.443
126700,145905,9715,-0.141,1.012,0.13,3.659,0.732,1.098,96.447
126700,145731,11298,-0.145,1.012,0.115,3.659,0.732,1.098,96.453
126694,145905,9715,-0.151,1.018,0.102,3.232,1.28,0.854,96.457
126694,145712,11291,-0.154,1.028,0.095,3.232,1.28,0.854,96.463
126666,145905,9715,-0.154,1.046,0.089,0.793,1.22,0.305,96.467
126666,145691,11298,-0.148,1.051,0.096,0.793,1.22,0.305,96.473
126691,145905,9715,-0.147,1.04,0.109,-4.268,-0.61,0.671,96.477
126691,145724,11290,-0.145,1.018,0.118,-4.268,-0.61,0.671,96.483
126681,145905,9715,-0.149,1.002,0.122,-6.768,-0.854,1.098,96.487
126681,145707,11309,-0.15,1.002,0.132,-6.768,-0.854,1.098,96.493
126534,145649,9715,-0.146,0.998,0.141,-6.037,-0.488,0.488,96.497
126534,145506,11296,-0.143,0.983,0.156,-6.037,-0.488,0.488,96.503
126424,145649,9715,-0.143,0.969,0.15,-1.524,0,0.244,96.507
126424,145429,11269,-0.147,0.979,0.136,-1.524,0,0.244,96.513
126422,145393,9715,-0.15,1.01,0.124,3.354,1.22,0,96.516
126422,145401,11294,-0.152,1.032,0.115,3.354,1.22,0,96.523
126365,145393,9715,-0.153,1.028,0.114,3.78,1.89,-0.671,96.526
126365,145310,11281,-0.152,1.02,0.114,3.78,1.89,-0.671,96.533
126264,145393,9715,-0.152,1.019,0.115,1.28,0.915,-0.183,96.536
126264,145209,11292,-0.155,1.023,0.112,1.28,0.915,-0.183,96.542
126182,145137,9715,-0.149,1.014,0.124,-2.134,0.305,0.366,96.546
126182,145096,11250,-0.15,0.994,0.139,-2.134,0.305,0.366,96.552
126128,145137,9715,-0.149,0.979,0.141,-1.768,0.061,0.793,96.556
126128,145014,11253,-0.153,0.986,0.136,-1.768,0.061,0.793,96.562
126062,145137,9715,-0.15,1.013,0.121,1.098,0.427,0.915,96.566
126062,144967,11259,-0.149,1.035,0.109,1.098,0.427,0.915,96.572
126003,144881,9715,-0.151,1.031,0.104,1.829,0.732,0,96.576
126003,144872,11255,-0.152,1.023,0.11,1.829,0.732,0,96.582
125926,144881,9715,-0.152,1.019,0.113,-0.366,0.305,0,96.586
125926,144791,11242,-0.149,1.005,0.117,-0.366,0.305,0,96.592
125879,144881,9715,-0.147,0.994,0.126,-2.256,-0.244,0.732,96.596
125879,144701,11251,-0.148,0.996,0.126,-2.256,-0.244,0.732,96.602
125825,144881,9715,-0.155,1.008,0.12,-2.622,-0.061,0.915,96.606
125825,144659,11224,-0.155,1.011,0.125,-2.622,-0.061,0.915,96.612
125763,144625,9715,-0.154,1.001,0.134,-1.524,0.122,1.159,96.615
125763,144596,11239,-0.153,1.004,0.13,-1.524,0.122,1.159,96.622
125745,144625,9715,-0.146,1.01,0.131,0.122,-0.061,1.402,96.625
125745,144551,11224,-0.147,1.005,0.13,0.122,-0.061,1.402,96.632
125708,144625,9715,-0.151,1.002,0.126,1.524,0.488,0.915,96.635
125708,144513,11236,-0.151,1.004,0.12,1.524,0.488,0.915,96.641
125710,144625,9715,-0.152,1.023,0.107,2.256,0.854,0.671,96.645
125710,144525,11225,-0.153,1.035,0.101,2.256,0.854,0.671,96.651
125599,144625,9715,-0.153,1.035,0.101,2.256,0.854,0.671,96.655
125599,144394,11229,-0.151,1.034,0.099,-0.061,0.183,0.854,96.661
125593,144369,9715,-0.151,1.034,0.099,-0.061,0.183,0.854,96.665
125593,144380,11202,-0.153,1.011,0.124,-3.902,-0.671,1.159,96.671
125483,144369,9715,-0.153,1.011,0.124,-3.902,-0.671,1.159,96.675
125483,144246,11214,-0.148,0.988,0.148,-5.671,-1.159,1.098,96.681
125434,144369,9715,-0.148,0.988,0.148,-5.671,-1.159,1.098,96.685
125434,144190,11201,-0.137,0.969,0.169,-3.537,-1.159,0.854,96.691
125492,144369,9715,-0.137,0.969,0.169,-3.537,-1.159,0.854,96.695
125492,144260,11207,-0.146,1.008,0.129,2.256,-0.122,1.341,96.701
125513,144369,9715,-0.146,1.008,0.129,2.256,-0.122,1.341,96.705
125513,144280,11200,-0.149,1.032,0.111,6.341,1.646,0.732,96.711
125522,144369,9715,-0.149,1.032,0.111,6.341,1.646,0.732,96.714
125522,144289,11204,-0.148,1.018,0.108,5.488,1.585,0,96.721
125613,144369,9715,-0.148,1.018,0.108,5.488,1.585,0,96.724
125613,144379,11211,-0.15,1.041,0.108,2.134,0.732,0.793,96.731
125649,144625,9715,-0.15,1.041,0.108,2.134,0.732,0.793,96.734
125649,144443,11220,-0.149,1.006,0.118,-2.073,0.183,0.915,96.74
125608,144625,9715,-0.149,1.006,0.118,-2.073,0.183,0.915,96.744
125608,144391,11211,-0.149,1,0.135,-3.598,-0.305,0.793,96.75
125614,144625,9715,-0.149,1,0.135,-3.598,-0.305,0.793,96.754
125614,144397,11218,-0.145,0.991,0.15,-2.5,-0.183,0.427,96.76
125637,144625,9715,-0.145,0.991,0.15,-2.5,-0.183,0.427,96.764
125637,144393,11211,-0.147,1.007,0.119,2.927,0.366,0.061,96.77
125611,144369,9715,-0.147,1.007,0.119,2.927,0.366,0.061,96.774
125611,144362,11198,-0.154,1.032,0.107,5.854,1.829,-0.305,96.78
125705,144625,9715,-0.154,1.032,0.107,5.854,1.829,-0.305,96.784
125705,144490,11223,-0.147,1.022,0.114,3.415,1.646,-0.244,96.79
125697,144625,9715,-0.147,1.022,0.114,3.415,1.646,-0.244,96.794
125697,144443,11202,-0.148,1.005,0.123,-0.305,0.366,0.488,96.8
125657,144625,9715,-0.151,0.998,0.119,-0.305,0.366,0.488,96.804
125657,144429,11207,-0.151,1.004,0.114,-1.707,0.427,0.915,96.81
125666,144625,9715,-0.153,1.026,0.115,-1.707,0.427,0.915,96.813
125666,144438,11207,-0.147,1.033,0.124,-2.805,0.183,0.976,96.82
125645,144625,9715,-0.142,1.021,0.122,-2.805,0.183,0.976,96.823
125645,144396,11213,-0.141,1.018,0.12,-1.951,-0.61,0.793,96.83
125722,144625,9715,-0.145,1.025,0.113,-1.951,-0.61,0.793,96.833
125722,144497,11206,-0.147,1.021,0.124,-2.012,0.549,-0.244,96.839
125702,144625,9715,-0.145,0.994,0.134,-2.012,0.549,-0.244,96.843
125702,144469,11197,-0.147,0.982,0.13,-0.61,0.488,-0.122,96.849
125639,144625,9715,-0.151,0.993,0.121,-0.61,0.488,-0.122,96.853
125639,144395,11208,-0.155,1.004,0.118,0.122,0.732,0.061,96.859
125671,144625,9715,-0.154,1.01,0.118,0.122,0.732,0.061,96.863
125671,144464,11195,-0.15,0.999,0.132,-0.732,0.488,0.122,96.869
125682,144625,9715,-0.151,0.989,0.142,-0.732,0.488,0.122,96.873
125682,144448,11201,-0.147,0.995,0.134,0,0.061,1.037,96.879
125655,144625,9715,-0.144,1.021,0.119,0,0.061,1.037,96.883
125655,144412,11205,-0.145,1.042,0.121,1.037,0.61,1.037,96.889
125596,144369,9715,-0.144,1.029,0.13,1.037,0.61,1.037,96.893
125596,144334,11204,-0.141,0.996,0.134,1.28,0.671,0.366,96.899
125562,144369,9715,-0.145,0.989,0.123,1.28,0.671,0.366,96.903
125562,144334,11196,-0.15,1.016,0.105,1.768,0.976,0.061,96.909
125600,144369,9715,-0.152,1.05,0.092,1.768,0.976,0.061,96.912
125600,144327,11187,-0.152,1.056,0.089,-1.22,0.915,-0.366,96.919
125543,144369,9715,-0.147,1.039,0.105,-1.22,0.915,-0.366,96.922
125543,144281,11204,-0.148,1.012,0.122,-5.122,-0.793,-0.061,96.929
125449,144369,9715,-0.148,0.989,0.139,-5.122,-0.793,-0.061,96.932
125449,144134,11168,-0.147,0.969,0.152,-5.793,-0.61,0.244,96.938
125308,144113,9715,-0.151,0.96,0.156,-5.793,-0.61,0.244,96.942
125308,144008,11173,-0.15,0.97,0.154,0.122,0.427,0.305,96.948
125286,144113,9715,-0.143,0.991,0.147,0.122,0.427,0.305,96.952
125286,143945,11169,-0.143,1.006,0.134,6.646,1.402,0.122,96.958
125257,144113,9715,-0.145,1.025,0.113,6.646,1.402,0.122,96.962
125257,143958,11165,-0.151,1.046,0.1,7.622,2.012,-0.671,96.968
125308,144113,9715,-0.153,1.043,0.092,7.622,2.012,-0.671,96.972
125308,144003,11167,-0.158,1.029,0.095,2.988,1.524,-0.976,96.978
125251,144113,9715,-0.153,1.023,0.104,2.988,1.524,-0.976,96.982
125251,143952,11157,-0.151,1.023,0.111,-2.5,-0.122,0.305,96.988
125266,144113,9715,-0.151,1.019,0.117,-2.5,-0.122,0.305,96.992
125266,143946,11160,-0.147,1.013,0.12,-5.244,-0.854,1.037,96.998
125274,144113,9715,-0.148,1.011,0.125,-5.244,-0.854,1.037,97.002
125274,143959,11178,-0.149,1.011,0.133,-4.451,-0.732,0.671,97.008
125260,144113,9715,-0.144,0.998,0.141,-4.451,-0.732,0.671,97.011
125260,143932,11158,-0.146,0.985,0.132,-1.646,-0.122,-0.122,97.018
125261,144113,9715,-0.147,0.99,0.123,-1.646,-0.122,-0.122,97.021
125261,143937,11167,-0.148,1.007,0.124,1.159,0.732,-0.488,97.028
125282,144113,9715,-0.148,1.011,0.123,1.159,0.732,-0.488,97.031
125282,143953,11170,-0.148,1.01,0.122,1.89,0.732,-0.488,97.037
125309,144113,9715,-0.148,1.014,0.12,1.89,0.732,-0.488,97.041
125309,143970,11167,-0.154,1.017,0.117,1.402,0.61,-0.183,97.047
125261,144113,9715,-0.153,1.017,0.114,1.402,0.61,-0.183,97.051
125261,143937,11167,-0.153,1.026,0.115,-0.732,0.366,0.122,97.057
125222,144113,9715,-0.151,1.029,0.122,-0.732,0.366,0.122,97.061
125222,143894,11175,-0.147,1.019,0.13,-3.11,-0.427,0.305,97.067
125323,144113,9715,-0.145,1.002,0.138,-3.11,-0.427,0.305,97.071
125323,144041,11181,-0.146,0.992,0.138,-2.378,-0.305,0.244,97.077
125376,144113,9715,-0.147,0.993,0.141,-2.378,-0.305,0.244,97.081
125376,144067,11184,-0.145,0.994,0.137,0.976,0.671,-0.183,97.087
125293,144113,9715,-0.148,1,0.13,0.976,0.671,-0.183,97.091
125293,143998,11162,-0.148,1.008,0.118,4.268,1.159,-0.305,97.097
125260,144113,9715,-0.152,1.015,0.121,4.268,1.159,-0.305,97.101
125260,143949,11166,-0.153,1.011,0.119,4.39,1.585,-0.305,97.107
125209,144113,9715,-0.148,1.005,0.121,4.39,1.585,-0.305,97.111
125209,143885,11166,-0.151,1.004,0.118,3.537,1.159,0.061,97.117
125276,144113,9715,-0.157,1.005,0.116,3.537,1.159,0.061,97.12
125276,143940,11176,-0.152,1.016,0.112,2.317,1.463,0.488,97.127
125252,144113,9715,-0.15,1.037,0.109,2.317,1.463,0.488,97.13
125252,143916,11168,-0.146,1.048,0.104,0.366,0.488,0.671,97.136
125173,143857,9715,-0.144,1.042,0.107,0.366,0.488,0.671,97.14
125173,143849,11160,-0.144,1.031,0.111,-2.073,-0.183,0.427,97.146
125279,144113,9715,-0.149,1.018,0.117,-2.073,-0.183,0.427,97.15
125279,143975,11163,-0.152,1.005,0.129,-3.415,0.244,-0.183,97.156
125247,144113,9715,-0.147,0.983,0.143,-3.415,0.244,-0.183,97.16
125247,143931,11180,-0.144,0.971,0.149,-0.671,0.244,-0.061,97.166
125318,144113,9715,-0.143,0.98,0.142,-0.671,0.244,-0.061,97.17
125318,144049,11166,-0.148,0.994,0.124,3.72,1.28,0,97.176
125415,144369,9715,-0.151,1.023,0.097,3.72,1.28,0,97.18
125415,144133,11186,-0.156,1.05,0.09,3.598,2.134,-1.402,97.186
125313,144113,9715,-0.154,1.045,0.097,3.598,2.134,-1.402,97.19
125313,144005,11167,-0.156,1.019,0.107,-0.488,0.854,-1.524,97.196
125189,144113,9715,-0.157,0.995,0.114,-0.488,0.854,-1.524,97.2
125189,143883,11175,-0.154,0.996,0.121,-4.329,-0.305,0.122,97.206
125200,144113,9715,-0.155,1.012,0.119,-4.329,-0.305,0.122,97.21
125200,143892,11174,-0.154,1.02,0.12,-5.915,-0.61,0.793,97.216
125259,144113,9715,-0.15,1.016,0.134,-5.915,-0.61,0.793,97.219
125259,143951,11161,-0.15,1.006,0.144,-4.756,-0.793,1.22,97.226
125318,144113,9715,-0.145,0.985,0.145,-4.756,-0.793,1.22,97.229
125318,144044,11181,-0.145,0.979,0.139,-1.098,-0.305,1.037,97.235
125327,144113,9715,-0.152,0.999,0.129,-1.098,-0.305,1.037,97.239
125327,144002,11173,-0.15,1.016,0.126,2.256,1.28,-0.183,97.245
125317,144113,9715,-0.15,1.016,0.126,2.256,1.28,-0.183,97.249
125317,144009,11184,-0.148,1.009,0.115,3.476,0.793,-0.244,97.255
125351,144113,9715,-0.148,1.009,0.115,3.476,0.793,-0.244,97.259
125351,144086,11185,-0.152,1.031,0.109,1.28,0.854,0.122,97.265
125366,144113,9715,-0.152,1.031,0.109,1.28,0.854,0.122,97.269
125366,144111,11179,-0.149,0.992,0.135,-0.61,0.366,0.549,97.275
125322,144113,9715,-0.149,0.992,0.135,-0.61,0.366,0.549,97.279
125322,144055,11181,-0.153,1.009,0.122,0.244,0.305,0.793,97.285
125298,144113,9715,-0.153,1.009,0.122,0.244,0.305,0.793,97.289
125298,144020,11188,-0.149,1.01,0.128,1.159,0.732,0.183,97.295
125277,144113,9715,-0.149,1.01,0.128,1.159,0.732,0.183,97.299
125277,143957,11165,-0.143,0.981,0.145,3.78,0.305,0.183,97.305
125255,144113,9715,-0.143,0.981,0.145,3.78,0.305,0.183,97.309
125255,143952,11167,-0.156,1.028,0.088,5.488,1.585,-0.244,97.315
125267,144113,9715,-0.156,1.028,0.088,5.488,1.585,-0.244,97.318
125267,143996,11180,-0.157,1.044,0.096,2.439,1.707,-0.793,97.325
125269,144113,9715,-0.157,1.044,0.096,2.439,1.707,-0.793,97.328
125269,143975,11168,-0.151,1.013,0.106,-1.829,-0.488,0.305,97.335
125211,144113,9715,-0.151,1.013,0.106,-1.829,-0.488,0.305,97.338
125211,143963,11176,-0.154,1.004,0.121,-4.451,-0.427,0.976,97.344
125223,144113,9715,-0.154,1.004,0.121,-4.451,-0.427,0.976,97.348
125223,143973,11176,-0.149,1.002,0.135,-3.902,-0.366,1.402,97.354
125271,144113,9715,-0.149,1.002,0.135,-3.902,-0.366,1.402,97.358
125271,144009,11174,-0.146,1.002,0.127,-1.28,-0.427,1.402,97.364
125309,144113,9715,-0.146,1.002,0.127,-1.28,-0.427,1.402,97.368
125309,144034,11177,-0.148,1.013,0.125,0.427,0.488,0.366,97.374
125335,144113,9715,-0.148,1.013,0.125,0.427,0.488,0.366,97.378
125335,144112,11180,-0.15,1.019,0.11,0.915,0.549,0.061,97.384
125426,144369,9715,-0.15,1.019,0.11,0.915,0.549,0.061,97.388
125426,144248,11190,-0.147,1.031,0.109,-0.549,0.244,0.183,97.394
125588,144625,9715,-0.147,1.031,0.109,-0.549,0.244,0.183,97.398
125588,144395,11209,-0.15,1.02,0.115,-0.549,0.244,0.183,97.404
125635,144625,9715,-0.154,1.001,0.126,-2.683,0.183,0.244,97.408
125635,144442,11211,-0.153,0.99,0.135,-2.683,0.183,0.244,97.414
125626,144625,9715,-0.149,0.998,0.133,-2.378,0,0.488,97.417
125626,144449,11203,-0.147,1.016,0.13,-2.378,0,0.488,97.424
125632,144625,9715,-0.149,1.015,0.128,-0.183,-0.122,0.244,97.427
125632,144444,11223,-0.15,1.003,0.126,-0.183,-0.122,0.244,97.434
125685,144625,9715,-0.153,1.002,0.118,1.89,0.549,-0.488,97.437
125685,144497,11201,-0.153,1.02,0.114,1.89,0.549,-0.488,97.443
125803,144881,9715,-0.15,1.021,0.128,1.524,0.854,-0.549,97.447
125803,144672,11219,-0.146,1.001,0.136,1.524,0.854,-0.549,97.453
125780,144625,9715,-0.148,0.994,0.126,2.927,0.61,0,97.457
125780,144609,11206,-0.15,1.008,0.107,2.927,0.61,0,97.463
125715,144625,9715,-0.155,1.021,0.103,2.744,1.402,0.122,97.467
125715,144577,11205,-0.156,1.018,0.112,2.744,1.402,0.122,97.473
125772,144625,9715,-0.155,1.011,0.115,0.366,0.671,0.061,97.477
125772,144622,11230,-0.154,1.007,0.122,0.366,0.671,0.061,97.483
125760,144625,9715,-0.153,1.004,0.123,-1.524,-0.305,0.915,97.487
125760,144585,11208,-0.147,1.01,0.129,-1.524,-0.305,0.915,97.493
125588,144369,9715,-0.145,1.013,0.134,-0.915,0.183,0.976,97.497
125588,144383,11189,-0.145,1.007,0.131,-0.915,0.183,0.976,97.503
125603,144625,9715,-0.147,1.016,0.119,1.768,0.671,0.915,97.507
125603,144434,11190,-0.147,1.027,0.109,1.768,0.671,0.915,97.513
125552,144369,9715,-0.147,1.03,0.101,2.866,1.037,0.305,97.516
125552,144352,11177,-0.15,1.024,0.107,2.866,1.037,0.305,97.523
125498,144369,9715,-0.15,1.014,0.11,0.732,0.732,-0.183,97.526
125498,144338,11192,-0.153,1.007,0.109,0.732,0.732,-0.183,97.533
125471,144369,9715,-0.153,1.009,0.113,-2.134,0.183,0.122,97.536
125471,144268,11164,-0.154,1.018,0.119,-2.134,0.183,0.122,97.542
125439,144369,9715,-0.151,1.007,0.132,-4.329,-0.244,0.732,97.546
125439,144238,11180,-0.144,0.984,0.147,-4.329,-0.244,0.732,97.552
125553,144369,9715,-0.151,0.983,0.134,-2.134,-0.61,1.341,97.556
125553,144352,11196,-0.152,1.012,0.125,-2.134,-0.61,1.341,97.562
125489,144369,9715,-0.148,1.028,0.123,1.159,0.793,0.305,97.566
125489,144287,11191,-0.148,1.013,0.126,1.159,0.793,0.305,97.572
125506,144369,9715,-0.148,1.003,0.12,3.476,0.671,-0.305,97.576
125506,144333,11188,-0.152,1.015,0.104,3.476,0.671,-0.305,97.582
125605,144625,9715,-0.153,1.029,0.095,1.768,1.037,-0.183,97.586
125605,144430,11212,-0.155,1.033,0.098,1.768,1.037,-0.183,97.592
125474,144369,9715,-0.155,1.03,0.099,-2.5,0.122,-0.366,97.596
125474,144277,11189,-0.155,1.021,0.111,-2.5,0.122,-0.366,97.602
125452,144369,9715,-0.154,1.01,0.112,-6.402,-1.037,0.305,97.606
125452,144286,11188,-0.156,1.005,0.127,-6.402,-1.037,0.305,97.612
125491,144369,9715,-0.15,0.994,0.148,-6.829,-1.098,0.854,97.615
125491,144287,11205,-0.146,0.974,0.161,-6.829,-1.098,0.854,97.622
125464,144369,9715,-0.147,0.969,0.154,-2.561,-0.61,1.341,97.625
125464,144285,11195,-0.151,0.991,0.135,-2.561,-0.61,1.341,97.632
125495,144369,9715,-0.151,1.013,0.12,3.171,1.159,0.671,97.635
125495,144300,11195,-0.154,1.032,0.106,3.171,1.159,0.671,97.641
125446,144369,9715,-0.15,1.041,0.101,4.268,1.22,-0.305,97.645
125446,144259,11184,-0.149,1.031,0.108,4.268,1.22,-0.305,97.651
125466,144369,9715,-0.15,1.017,0.109,0.305,0.427,0.122,97.655
125466,144286,11191,-0.152,1.016,0.114,0.305,0.427,0.122,97.661
125466,144369,9715,-0.153,1.022,0.113,-3.171,-0.122,0.671,97.665
125466,144265,11192,-0.151,1.028,0.111,-3.171,-0.122,0.671,97.671
125406,144369,9715,-0.153,1.022,0.112,-5.366,-0.549,0.732,97.675
125406,144243,11197,-0.15,1.015,0.124,-5.366,-0.549,0.732,97.681
125497,144369,9715,-0.149,1.002,0.144,-5.732,-1.098,0.671,97.685
125497,144293,11187,-0.147,0.986,0.146,-5.732,-1.098,0.671,97.691
125501,144369,9715,-0.146,0.979,0.147,-3.232,-0.854,0.366,97.695
125501,144353,11187,-0.148,0.989,0.138,-3.232,-0.854,0.366,97.701
125464,144369,9715,-0.15,1.005,0.13,0.671,0.366,-0.305,97.705
125464,144286,11181,-0.151,1.015,0.124,0.671,0.366,-0.305,97.711
125433,144369,9715,-0.152,1.013,0.125,2.561,1.037,-0.488,97.715
125433,144266,11193,-0.151,1.006,0.124,2.561,1.037,-0.488,97.721
125454,144369,9715,-0.152,1.011,0.117,2.378,0.854,0.122,97.724
125454,144279,11192,-0.153,1.032,0.11,2.378,0.854,0.122,97.731
125486,144369,9715,-0.149,1.029,0.124,0.122,0.549,0.244,97.734
125486,144295,11207,-0.151,1.006,0.14,0.122,0.549,0.244,97.74
125454,144369,9715,-0.152,0.99,0.136,-0.244,0.427,0.793,97.744
125454,144262,11195,-0.154,0.998,0.13,-0.244,0.427,0.793,97.75
125442,144369,9715,-0.153,1.02,0.12,1.098,0.976,1.037,97.754
125442,144254,11187,-0.147,1.024,0.124,1.098,0.976,1.037,97.76
125438,144369,9715,-0.146,1.006,0.133,2.5,0.61,0.427,97.764
125438,144273,11203,-0.15,0.995,0.124,2.5,0.61,0.427,97.77
125460,144369,9715,-0.153,1.012,0.105,3.841,0.976,0.183,97.774
125460,144290,11189,-0.156,1.035,0.089,3.841,0.976,0.183,97.78
125499,144369,9715,-0.152,1.047,0.093,1.28,1.037,-0.671,97.784
125499,144337,11202,-0.15,1.037,0.099,1.28,1.037,-0.671,97.79
125473,144369,9715,-0.154,1.018,0.107,-4.512,-0.549,-0.122,97.794
125473,144318,11209,-0.153,1.003,0.118,-4.512,-0.549,-0.122,97.8
125526,144369,9715,-0.154,0.992,0.128,-7.805,-0.976,0.732,97.804
125526,144348,11195,-0.151,0.988,0.149,-7.805,-0.976,0.732,97.81
125503,144369,9715,-0.15,0.981,0.161,-5.793,-0.488,1.037,97.813
125503,144316,11192,-0.148,0.978,0.156,-5.793,-0.488,1.037,97.82
125490,144369,9715,-0.143,0.989,0.147,0.61,0.549,1.098,97.823
125490,144330,11197,-0.141,1.008,0.144,0.61,0.549,1.098,97.83
125538,144369,9715,-0.149,1.022,0.122,5.732,1.707,-0.183,97.833
125538,144358,11200,-0.148,1.024,0.114,5.732,1.707,-0.183,97.839
125461,144369,9715,-0.152,1.023,0.107,5.915,2.195,-1.037,97.843
125461,144268,11185,-0.157,1.022,0.102,5.915,2.195,-1.037,97.849
125451,144369,9715,-0.157,1.022,0.102,5.915,2.195,-1.037,97.853
125451,144268,11194,-0.153,1.025,0.105,2.195,1.341,-0.488,97.859
125405,144369,9715,-0.153,1.025,0.105,2.195,1.341,-0.488,97.863
125405,144178,11181,-0.153,1.019,0.116,-2.622,-0.061,0.488,97.869
125273,144113,9715,-0.153,1.019,0.116,-2.622,-0.061,0.488,97.873
125273,144078,11181,-0.146,0.991,0.146,-5.976,-0.976,0.793,97.879
125179,144113,9715,-0.146,0.991,0.146,-5.976,-0.976,0.793,97.883
125179,143932,11166,-0.149,0.975,0.147,-3.72,-0.915,0.549,97.889
125138,144113,9715,-0.149,0.975,0.147,-3.72,-0.915,0.549,97.893
125138,143920,11164,-0.151,1.031,0.107,1.951,0.854,0.183,97.899
125225,144113,9715,-0.151,1.031,0.107,1.951,0.854,0.183,97.903
125225,143975,11157,-0.151,1.032,0.111,3.963,1.341,-0.549,97.909
125153,144113,9715,-0.151,1.032,0.111,3.963,1.341,-0.549,97.912
125153,143888,11170,-0.155,1.005,0.12,1.22,0.61,-0.488,97.919
125085,143857,9715,-0.155,1.005,0.12,1.22,0.61,-0.488,97.922
125085,143842,11149,-0.153,1.021,0.117,-1.22,0.427,0.366,97.929
125119,144113,9715,-0.153,1.021,0.117,-1.22,0.427,0.366,97.932
125119,143898,11152,-0.149,1.004,0.137,-2.988,-0.183,0.671,97.938
125092,143857,9715,-0.149,1.004,0.137,-2.988,-0.183,0.671,97.942
125092,143799,11159,-0.15,0.983,0.14,-2.805,-0.244,0.671,97.948
124955,143857,9715,-0.15,0.983,0.14,-2.805,-0.244,0.671,97.952
124955,143685,11124,-0.146,1.009,0.131,0.122,0.305,0.488,97.958
124951,143857,9715,-0.146,1.009,0.131,0.122,0.305,0.488,97.962
124951,143679,11145,-0.153,1.014,0.113,3.354,1.037,0.122,97.968
125011,143857,9715,-0.153,1.014,0.113,3.354,1.037,0.122,97.972
125011,143739,11140,-0.154,1.017,0.115,3.537,1.22,0.061,97.978
124985,143857,9715,-0.154,1.017,0.115,3.537,1.22,0.061,97.982
124985,143723,11154,-0.155,1.005,0.121,0.671,0.427,0.305,97.988
125028,143857,9715,-0.155,1.005,0.121,0.671,0.427,0.305,97.992
125028,143789,11139,-0.155,1.01,0.12,-1.524,0.122,1.098,97.998
125085,143857,9715,-0.155,1.012,0.123,-1.524,0.122,1.098,98.002
125085,143870,11154,-0.151,1.011,0.131,-2.317,-0.122,1.402,98.008
125128,144113,9715,-0.147,1.011,0.134,-2.317,-0.122,1.402,98.012
125128,143948,11179,-0.146,1.012,0.127,-1.098,-0.244,1.159,98.018
125315,144113,9715,-0.145,1.014,0.125,-1.098,-0.244,1.159,98.021
125315,144121,11196,-0.148,1.011,0.123,1.037,0.488,0.366,98.028
125361,144369,9715,-0.149,1.014,0.115,1.037,0.488,0.366,98.031
125361,144142,11178,-0.152,1.032,0.101,1.646,1.22,-0.305,98.037
125387,144369,9715,-0.15,1.033,0.108,1.646,1.22,-0.305,98.041
125387,144204,11195,-0.145,1.017,0.115,-0.549,0.122,-0.488,98.047
125402,144369,9715,-0.149,1.006,0.127,-0.549,0.122,-0.488,98.051
125402,144202,11177,-0.153,0.995,0.136,-2.439,0.122,-0.366,98.057
125292,144113,9715,-0.154,0.991,0.131,-2.439,0.122,-0.366,98.061
125292,144074,11166,-0.156,1,0.127,-2.256,0.305,-0.122,98.067
125237,144113,9715,-0.149,1.012,0.125,-2.256,0.305,-0.122,98.071
125237,144025,11193,-0.147,1.008,0.133,-1.098,-0.122,-0.061,98.077
125188,144113,9715,-0.147,1.003,0.138,-1.098,-0.122,-0.061,98.081
125188,143926,11163,-0.15,1.005,0.135,0.244,0.366,0.061,98.087
125193,144113,9715,-0.152,1.009,0.128,0.244,0.366,0.061,98.091
125193,143942,11168,-0.152,1.019,0.119,1.768,0.915,0.061,98.097
125200,144113,9715,-0.151,1.024,0.114,1.768,0.915,0.061,98.101
125200,143947,11166,-0.153,1.015,0.121,1.22,0.732,0.122,98.107
125209,144113,9715,-0.155,1.004,0.128,1.22,0.732,0.122,98.111
125209,144004,11156,-0.154,0.999,0.128,0.366,0.488,0.732,98.117
125241,144113,9715,-0.155,1.004,0.12,0.366,0.488,0.732,98.12
125241,144005,11169,-0.154,1.023,0.112,0.427,0.366,0.854,98.127
125261,144113,9715,-0.147,1.029,0.118,0.427,0.366,0.854,98.13
125261,144066,11171,-0.147,1.013,0.135,-0.244,0.244,0.61,98.137
125236,144113,9715,-0.148,0.987,0.141,-0.244,0.244,0.61,98.14
125236,143991,11162,-0.149,0.981,0.132,1.768,0.732,0.732,98.146
125171,144113,9715,-0.152,1.006,0.116,1.768,0.732,0.732,98.15
125171,143953,11150,-0.151,1.037,0.111,3.354,1.28,0.122,98.156
125214,144113,9715,-0.149,1.04,0.114,3.354,1.28,0.122,98.16
125214,143989,11159,-0.149,1.012,0.127,2.744,0.732,-0.183,98.166
125249,144113,9715,-0.153,0.993,0.12,2.744,0.732,-0.183,98.17
125249,143981,11169,-0.153,1.012,0.106,2.317,0.854,0.244,98.176
125115,143857,9715,-0.155,1.037,0.102,2.317,0.854,0.244,98.18
125115,143862,11153,-0.155,1.04,0.108,-0.366,0.671,-0.366,98.186
125143,144113,9715,-0.15,1.017,0.12,-0.366,0.671,-0.366,98.19
125143,143943,11159,-0.154,0.989,0.131,-2.5,-0.488,0.244,98.196
125179,144113,9715,-0.153,0.981,0.133,-2.5,-0.488,0.244,98.2
125179,143930,11156,-0.155,1.003,0.125,-2.195,0.061,0.854,98.206
125070,143857,9715,-0.153,1.023,0.125,-2.195,0.061,0.854,98.21
125070,143821,11128,-0.146,1.008,0.14,-0.61,0.183,0.427,98.216
125070,143857,9715,-0.146,0.975,0.149,-0.61,0.183,0.427,98.219
125070,143864,11149,-0.151,0.976,0.132,3.293,0.61,0.61,98.226
125128,144113,9715,-0.155,1.005,0.119,3.293,0.61,0.61,98.229
125128,143891,11151,-0.154,1.019,0.122,5.183,2.134,0,98.235
125135,144113,9715,-0.151,1.004,0.13,5.183,2.134,0,98.239
125135,143914,11143,-0.153,0.998,0.117,5.732,1.341,0.366,98.245
125167,144113,9715,-0.152,1.009,0.105,5.732,1.341,0.366,98.249
125167,143951,11152,-0.157,1.023,0.104,4.329,1.22,0.915,98.255
125204,144113,9715,-0.155,1.035,0.097,4.329,1.22,0.915,98.259
125204,143992,11158,-0.152,1.048,0.094,1.524,0.488,0.549,98.265
125272,144113,9715,-0.15,1.047,0.099,1.524,0.488,0.549,98.269
125272,144076,11172,-0.147,1.023,0.115,-2.256,-0.793,0.793,98.275
125284,144113,9715,-0.151,0.995,0.129,-2.256,-0.793,0.793,98.279
125284,144107,11171,-0.153,0.987,0.132,-3.11,-0.244,0.671,98.285
125309,144113,9715,-0.149,0.993,0.125,-3.11,-0.244,0.671,98.289
125309,144109,11158,-0.149,1.009,0.118,-1.037,0.122,0.366,98.295
125322,144113,9715,-0.151,1.021,0.115,-1.037,0.122,0.366,98.299
125322,144118,11165,-0.153,1.019,0.11,0.366,0.549,0.305,98.305
125235,144113,9715,-0.156,1.015,0.108,0.366,0.549,0.305,98.309
125235,144055,11169,-0.155,1.017,0.114,-0.854,0.061,0,98.315
125221,144113,9715,-0.151,1.022,0.116,-0.854,0.061,0,98.318
125221,144027,11156,-0.153,1.01,0.124,-2.988,-0.244,0.061,98.325
125221,144113,9715,-0.152,0.992,0.137,-2.988,-0.244,0.061,98.328
125221,144060,11164,-0.153,0.985,0.131,-1.707,0.244,0.854,98.335
125277,144113,9715,-0.155,1.008,0.118,-1.707,0.244,0.854,98.338
125277,144105,11170,-0.15,1.047,0.101,-0.732,0.427,0.732,98.344
125248,144113,9715,-0.146,1.054,0.104,-0.732,0.427,0.732,98.348
125248,144092,11162,-0.146,1.023,0.119,-2.744,-0.244,0.122,98.354
125322,144369,9715,-0.151,0.988,0.135,-2.744,-0.244,0.122,98.358
125322,144177,11183,-0.151,0.976,0.132,-3.476,-0.122,0.427,98.364
125355,144369,9715,-0.151,0.994,0.123,-3.476,-0.122,0.427,98.368
125355,144205,11178,-0.15,1.019,0.125,-2.195,0.244,0.366,98.374
125319,144369,9715,-0.145,1.021,0.131,-2.195,0.244,0.366,98.378
125319,144183,11175,-0.142,0.997,0.136,-0.366,-0.122,0.183,98.384
125414,144369,9715,-0.15,0.984,0.131,-0.366,-0.122,0.183,98.388
125414,144266,11169,-0.154,1,0.124,1.646,0.61,-0.122,98.394
125372,144369,9715,-0.153,1.016,0.117,1.646,0.61,-0.122,98.398
125372,144215,11182,-0.152,1.027,0.113,2.012,1.037,-0.549,98.404
125323,144369,9715,-0.151,1.026,0.119,2.012,1.037,-0.549,98.408
125323,144169,11173,-0.15,1.011,0.125,1.524,0.427,0.061,98.414
125396,144369,9715,-0.154,0.993,0.13,1.524,0.427,0.061,98.417
125396,144287,11181,-0.156,0.988,0.13,1.646,0.915,0.366,98.424
125411,144369,9715,-0.156,0.997,0.124,1.646,0.915,0.366,98.427
125411,144272,11187,-0.154,1.014,0.116,2.439,1.28,0.61,98.434
125412,144369,9715,-0.151,1.029,0.106,2.439,1.28,0.61,98.437
125412,144290,11182,-0.152,1.033,0.107,2.622,0.732,0.854,98.443
125523,144625,9715,-0.152,1.033,0.107,2.622,0.732,0.854,98.447
125523,144428,11193,-0.153,1.014,0.109,1.159,0.61,0.915,98.453
125450,144369,9715,-0.153,1.014,0.109,1.159,0.61,0.915,98.457
125450,144292,11170,-0.151,1.022,0.108,-0.915,0.61,0.671,98.463
125423,144369,9715,-0.151,1.022,0.108,-0.915,0.61,0.671,98.467
125423,144281,11183,-0.148,1.018,0.113,-2.561,0,0.488,98.473
125476,144369,9715,-0.148,1.018,0.113,-2.561,0,0.488,98.477
125476,144337,11178,-0.149,1.012,0.117,-3.232,-0.061,0.61,98.483
125394,144369,9715,-0.149,1.012,0.117,-3.232,-0.061,0.61,98.487
125394,144250,11178,-0.145,1.001,0.139,-2.927,-0.183,0.366,98.493
125508,144369,9715,-0.145,1.001,0.139,-2.927,-0.183,0.366,98.497
125508,144374,11193,-0.149,0.982,0.135,0,0.244,0.305,98.503
125524,144625,9715,-0.149,0.982,0.135,0,0.244,0.305,98.507
125524,144438,11206,-0.154,1.018,0.123,2.5,1.341,-0.183,98.513
125535,144625,9715,-0.154,1.018,0.123,2.5,1.341,-0.183,98.516
125535,144446,11190,-0.15,1.02,0.111,2.927,0.976,-0.183,98.523
125516,144369,9715,-0.15,1.02,0.111,2.927,0.976,-0.183,98.526
125516,144380,11190,-0.155,1.009,0.122,1.037,0.671,0.305,98.533
125403,144369,9715,-0.155,1.009,0.122,1.037,0.671,0.305,98.536
125403,144250,11176,-0.15,0.99,0.132,0.976,0.549,1.037,98.542
125258,144113,9715,-0.15,0.99,0.132,0.976,0.549,1.037,98.546
125258,144077,11174,-0.155,1.041,0.1,2.073,0.549,1.22,98.552
125266,144113,9715,-0.155,1.041,0.1,2.073,0.549,1.22,98.556
