129818,153585,9715,-0.17,1.005,0.186,1.707,1.524,-1.28,428.217
129818,153377,11335,-0.172,1.004,0.184,1.707,1.524,-1.28,428.223
129806,153585,9715,-0.177,0.999,0.185,0.732,1.463,-0.976,428.227
129806,153402,11354,-0.174,0.999,0.189,0.732,1.463,-0.976,428.233
129830,153585,9715,-0.174,0.996,0.189,-0.122,1.037,-0.427,428.237
129830,153383,11329,-0.175,0.998,0.19,-0.122,1.037,-0.427,428.243
129822,153585,9715,-0.173,1,0.188,-0.427,0.61,-0.305,428.247
129822,153401,11337,-0.174,1.002,0.19,-0.427,0.61,-0.305,428.253
129856,153585,9715,-0.173,1.001,0.187,-0.061,0.549,-0.061,428.257
129856,153383,11331,-0.17,0.999,0.187,-0.061,0.549,-0.061,428.263
129840,153585,9715,-0.169,1.002,0.189,0.549,0.671,0.244,428.267
129840,153394,11350,-0.167,1.001,0.191,0.549,0.671,0.244,428.273
129828,153585,9715,-0.168,0.995,0.186,0.732,0.854,0.305,428.277
129828,153392,11350,-0.169,0.994,0.187,0.732,0.854,0.305,428.283
129825,153585,9715,-0.171,0.996,0.186,0.793,1.037,0.305,428.286
129825,153372,11354,-0.168,0.997,0.184,0.793,1.037,0.305,428.293
129807,153329,9715,-0.169,0.995,0.185,0.488,0.915,0.305,428.296
129807,153341,11366,-0.168,0.993,0.188,0.488,0.915,0.305,428.303
129821,153585,9715,-0.167,0.998,0.189,0.122,0.671,0.427,428.306
129821,153355,11353,-0.17,0.997,0.19,0.122,0.671,0.427,428.312
129802,153585,9715,-0.171,0.997,0.186,0.061,0.671,0.305,428.316
129802,153344,11340,-0.169,0.999,0.188,0.061,0.671,0.305,428.322
129780,153329,9715,-0.17,1.002,0.185,-0.061,0.549,0.183,428.326
129780,153329,11340,-0.172,1.004,0.185,-0.061,0.549,0.183,428.332
129811,153329,9715,-0.171,1.002,0.187,-0.305,0.549,0.488,428.336
129811,153317,11349,-0.172,0.999,0.185,-0.305,0.549,0.488,428.342
129771,153329,9715,-0.17,1.002,0.186,-0.366,0.366,0.854,428.346
129771,153301,11353,-0.175,1.005,0.185,-0.366,0.366,0.854,428.352
129801,153329,9715,-0.173,1.001,0.186,-0.427,0.183,0.854,428.356
129801,153336,11345,-0.17,1.001,0.183,-0.427,0.183,0.854,428.362
129808,153329,9715,-0.171,1.002,0.187,-0.366,0.061,0.915,428.366
129808,153324,11334,-0.169,1.003,0.188,-0.366,0.061,0.915,428.372
129812,153585,9715,-0.166,1.005,0.188,-0.549,-0.061,0.915,428.376
129812,153375,11369,-0.166,1.005,0.186,-0.549,-0.061,0.915,428.382
129822,153585,9715,-0.17,0.997,0.188,-0.366,0.122,0.61,428.385
129822,153383,11344,-0.169,0.996,0.188,-0.366,0.122,0.61,428.392
129821,153585,9715,-0.17,0.994,0.187,-0.061,0.549,0.244,428.395
129821,153358,11343,-0.168,0.991,0.187,-0.061,0.549,0.244,428.402
129799,153585,9715,-0.17,0.996,0.186,-0.061,0.305,0.427,428.405
129799,153353,11343,-0.17,0.999,0.186,-0.061,0.305,0.427,428.411
129821,153585,9715,-0.169,1.001,0.188,-0.793,-0.061,0.61,428.415
129821,153370,11353,-0.169,1.006,0.188,-0.793,-0.061,0.61,428.421
129842,153585,9715,-0.166,1.004,0.191,-0.976,0.061,0.549,428.425
129842,153389,11335,-0.167,0.996,0.197,-0.976,0.061,0.549,428.431
129814,153585,9715,-0.166,0.995,0.195,-0.061,0.488,0.244,428.435
129814,153350,11346,-0.168,1.002,0.189,-0.061,0.488,0.244,428.441
129820,153329,9715,-0.169,1.006,0.192,0.427,0.915,0,428.445
129820,153338,11345,-0.167,0.999,0.188,0.427,0.915,0,428.451
129799,153585,9715,-0.17,0.995,0.19,0.915,1.28,-0.061,428.455
129799,153355,11348,-0.166,0.996,0.194,0.915,1.28,-0.061,428.461
129813,153585,9715,-0.167,0.996,0.191,1.463,1.524,-0.061,428.465
129813,153351,11339,-0.166,1.004,0.194,1.463,1.524,-0.061,428.471
129824,153329,9715,-0.168,1.004,0.188,1.768,1.768,-0.427,428.475
129824,153342,11332,-0.172,0.996,0.185,1.768,1.768,-0.427,428.481
129816,153585,9715,-0.172,0.991,0.187,1.707,1.768,-0.488,428.485
129816,153344,11350,-0.17,0.995,0.188,1.707,1.768,-0.488,428.491
129807,153329,9715,-0.168,0.995,0.188,1.22,1.768,-0.183,428.494
129807,153327,11339,-0.173,0.994,0.184,1.22,1.768,-0.183,428.501
129801,153329,9715,-0.173,0.995,0.178,1.159,1.646,-0.061,428.504
129801,153333,11331,-0.174,0.996,0.183,1.159,1.646,-0.061,428.51
129825,153585,9715,-0.173,0.999,0.181,1.22,1.341,0.061,428.514
129825,153370,11348,-0.173,1.002,0.178,1.22,1.341,0.061,428.52
129838,153585,9715,-0.171,1.004,0.178,0.427,0.976,0.305,428.524
129838,153387,11338,-0.174,1.009,0.176,0.427,0.976,0.305,428.53
129815,153585,9715,-0.172,1.009,0.179,-0.366,0.488,0.488,428.534
129815,153394,11358,-0.169,1.002,0.181,-0.366,0.488,0.488,428.54
129841,153585,9715,-0.172,1,0.181,-0.854,0.183,0.549,428.544
129841,153403,11346,-0.173,1.003,0.183,-0.854,0.183,0.549,428.55
129845,153585,9715,-0.17,1.009,0.187,-1.098,0,0.671,428.554
129845,153404,11347,-0.168,1.003,0.19,-1.098,0,0.671,428.56
129847,153585,9715,-0.171,0.997,0.188,-0.915,-0.122,0.549,428.564
129847,153438,11344,-0.169,0.998,0.18,-0.915,-0.122,0.549,428.57
129847,153585,9715,-0.171,1,0.181,-0.488,0.244,0.244,428.574
129847,153419,11349,-0.171,0.999,0.185,-0.488,0.244,0.244,428.58
129842,153585,9715,-0.169,0.998,0.185,-0.488,0.061,0.183,428.584
129842,153438,11345,-0.165,0.997,0.183,-0.488,0.061,0.183,428.59
129859,153585,9715,-0.169,0.994,0.189,-0.732,0.122,0.244,428.593
129859,153489,11337,-0.169,0.993,0.189,-0.732,0.122,0.244,428.6
129868,153585,9715,-0.168,0.994,0.186,-0.488,0.366,0.305,428.603
129868,153496,11343,-0.169,1.001,0.187,-0.488,0.366,0.305,428.61
129880,153585,9715,-0.17,1,0.184,-0.427,0.366,0.305,428.613
129880,153519,11344,-0.169,0.99,0.185,-0.427,0.366,0.305,428.619
129889,153585,9715,-0.172,0.993,0.188,-1.22,0.549,0.305,428.623
129889,153502,11330,-0.174,1.001,0.188,-1.22,0.549,0.305,428.629
129890,153585,9715,-0.174,1.001,0.188,-1.22,0.549,0.305,428.633
129890,153490,11345,-0.17,0.997,0.185,-1.463,0.366,0.671,428.639
129877,153585,9715,-0.17,0.997,0.185,-1.463,0.366,0.671,428.643
129877,153489,11340,-0.174,1.009,0.182,-1.159,-0.061,0.915,428.649
129896,153585,9715,-0.174,1.009,0.182,-1.159,-0.061,0.915,428.653
129896,153497,11329,-0.17,1.006,0.184,-1.22,-0.061,0.793,428.659
129858,153585,9715,-0.17,1.006,0.184,-1.22,-0.061,0.793,428.663
129858,153496,11351,-0.165,1.005,0.185,-1.341,-0.244,0.854,428.669
129864,153585,9715,-0.165,1.005,0.185,-1.341,-0.244,0.854,428.673
129864,153492,11354,-0.168,0.995,0.188,-1.524,-0.366,0.793,428.679
129865,153585,9715,-0.168,0.995,0.188,-1.524,-0.366,0.793,428.683
129865,153457,11347,-0.166,0.991,0.186,-1.159,-0.244,0.488,428.689
129853,153585,9715,-0.166,0.991,0.186,-1.159,-0.244,0.488,428.692
129853,153453,11350,-0.165,0.998,0.193,-0.854,-0.122,0.427,428.699
129843,153585,9715,-0.165,0.998,0.193,-0.854,-0.122,0.427,428.702
129843,153440,11340,-0.169,0.994,0.193,-0.793,-0.183,0.305,428.708
129837,153585,9715,-0.169,0.994,0.193,-0.793,-0.183,0.305,428.712
129837,153413,11346,-0.17,0.996,0.188,-0.488,0,0.122,428.718
129870,153585,9715,-0.17,0.996,0.188,-0.488,0,0.122,428.722
129870,153459,11334,-0.17,0.998,0.191,-0.427,0.549,0,428.728
129851,153585,9715,-0.17,0.998,0.191,-0.427,0.549,0,428.732
129851,153438,11367,-0.17,1.003,0.19,0.183,0.915,0.061,428.738
129860,153585,9715,-0.17,1.003,0.19,0.183,0.915,0.061,428.742
129860,153460,11356,-0.172,1.003,0.188,0.854,1.159,0.122,428.748
129903,153585,9715,-0.172,1.003,0.188,0.854,1.159,0.122,428.752
129903,153489,11347,-0.171,1,0.182,1.098,1.22,0.061,428.758
129892,153585,9715,-0.171,1,0.182,1.098,1.22,0.061,428.762
129892,153515,11358,-0.173,1,0.189,0.61,1.22,0.183,428.768
129901,153585,9715,-0.173,1,0.189,0.61,1.22,0.183,428.772
129901,153527,11361,-0.17,0.997,0.187,0.244,1.037,0.427,428.778
129916,153585,9715,-0.17,1.002,0.187,0.244,1.037,0.427,428.782
129916,153563,11360,-0.168,0.998,0.185,0.366,0.732,0.366,428.788
129907,153585,9715,-0.17,0.996,0.184,0.366,0.732,0.366,428.791
129907,153564,11353,-0.167,1,0.188,0.244,0.549,0.305,428.798
129916,153585,9715,-0.165,0.999,0.189,0.244,0.549,0.305,428.801
129916,153563,11338,-0.166,0.996,0.186,0.122,0.671,0.488,428.808
129922,153585,9715,-0.169,1,0.187,0.122,0.671,0.488,428.811
129922,153558,11353,-0.17,1.005,0.19,0.427,0.854,0.183,428.817
129895,153585,9715,-0.166,1.002,0.187,0.427,0.854,0.183,428.821
129895,153547,11363,-0.163,0.995,0.185,0.793,0.976,0.061,428.827
129909,153585,9715,-0.17,1,0.182,0.793,0.976,0.061,428.831
129909,153554,11347,-0.169,1,0.182,0.366,0.976,-0.061,428.837
129924,153585,9715,-0.173,0.997,0.186,0.366,0.976,-0.061,428.841
129924,153556,11350,-0.174,1.001,0.184,-0.244,0.793,-0.061,428.847
129907,153585,9715,-0.175,0.998,0.182,-0.244,0.793,-0.061,428.851
129907,153525,11350,-0.174,1,0.177,-0.488,0.366,0.183,428.857
129891,153585,9715,-0.171,1.004,0.184,-0.488,0.366,0.183,428.861
129891,153577,11357,-0.172,1.004,0.184,-0.976,-0.122,0.244,428.867
129913,153585,9715,-0.17,1.002,0.189,-0.976,-0.122,0.244,428.871
129913,153560,11363,-0.168,1.001,0.189,-1.28,-0.244,0.427,428.877
129904,153585,9715,-0.169,0.997,0.192,-1.28,-0.244,0.427,428.881
129904,153531,11355,-0.17,0.996,0.188,-1.098,-0.061,0.305,428.887
129903,153585,9715,-0.174,0.995,0.187,-1.098,-0.061,0.305,428.89
129903,153529,11345,-0.173,1,0.187,-0.732,0.244,0.366,428.897
129893,153585,9715,-0.171,1.001,0.187,-0.732,0.244,0.366,428.9
129893,153522,11349,-0.171,0.997,0.188,-0.671,0.183,0.549,428.907
129907,153585,9715,-0.169,0.994,0.185,-0.671,0.183,0.549,428.91
129907,153540,11353,-0.172,0.997,0.186,-0.549,0.183,0.61,428.916
129910,153585,9715,-0.172,0.998,0.186,-0.549,0.183,0.61,428.92
129910,153521,11363,-0.17,1,0.185,-0.549,0.061,0.549,428.926
129894,153585,9715,-0.171,1.009,0.185,-0.549,0.061,0.549,428.93
129894,153497,11354,-0.169,1.005,0.185,-0.915,-0.122,0.549,428.936
129887,153585,9715,-0.173,1,0.188,-0.915,-0.122,0.549,428.94
129887,153489,11356,-0.17,0.998,0.187,-1.098,-0.122,0.488,428.946
129903,153585,9715,-0.169,0.998,0.189,-1.098,-0.122,0.488,428.95
129903,153489,11363,-0.171,1.004,0.185,-1.037,-0.305,0.488,428.956
129877,153585,9715,-0.17,1.003,0.186,-1.037,-0.305,0.488,428.96
129877,153463,11343,-0.168,1.003,0.19,-0.854,-0.305,0.61,428.966
129877,153585,9715,-0.169,0.993,0.192,-0.854,-0.305,0.61,428.97
129877,153494,11355,-0.169,0.989,0.188,-0.61,0,0.671,428.976
129889,153585,9715,-0.17,0.991,0.184,-0.61,0,0.671,428.98
129889,153495,11360,-0.172,0.995,0.187,-0.488,0,0.61,428.986
129878,153585,9715,-0.172,1.001,0.185,-0.488,0,0.61,428.99
129878,153453,11352,-0.17,1.005,0.186,-0.671,-0.122,0.549,428.996
129868,153585,9715,-0.17,1.001,0.188,-0.671,-0.122,0.549,428.999
129868,153500,11358,-0.173,0.997,0.193,-0.793,-0.061,0.793,429.006
129905,153585,9715,-0.171,0.998,0.19,-0.793,-0.061,0.793,429.009
129905,153540,11357,-0.169,1.004,0.192,-1.22,-0.122,0.854,429.015
129935,153585,9715,-0.169,1.004,0.191,-1.22,-0.122,0.854,429.019
129935,153562,11351,-0.167,0.999,0.191,-1.159,0,0.732,429.025
129920,153585,9715,-0.167,0.992,0.193,-1.159,0,0.732,429.029
129920,153590,11357,-0.169,0.994,0.192,-0.366,0.183,0.61,429.035
129943,153841,9715,-0.167,1,0.189,-0.366,0.183,0.61,429.039
129943,153604,11358,-0.167,1.004,0.192,-0.427,0.061,0.244,429.045
129947,153841,9715,-0.168,1.002,0.188,-0.427,0.061,0.244,429.049
129947,153609,11366,-0.168,0.999,0.188,-0.183,0.305,0.183,429.055
129941,153841,9715,-0.167,0.996,0.192,-0.183,0.305,0.183,429.059
129941,153613,11359,-0.169,0.999,0.188,0.183,0.427,0.122,429.065
129955,153585,9715,-0.167,1.004,0.189,0.183,0.427,0.122,429.069
129955,153588,11363,-0.17,1.002,0.19,-0.061,0.366,0.061,429.075
129938,153585,9715,-0.17,0.999,0.19,-0.061,0.366,0.061,429.079
129938,153589,11359,-0.174,0.999,0.189,0.061,0.488,0.061,429.085
129959,153585,9715,-0.171,0.998,0.192,0.061,0.488,0.061,429.088
129959,153556,11359,-0.17,0.999,0.193,0.549,0.488,0.183,429.095
129917,153585,9715,-0.167,1,0.192,0.549,0.488,0.183,429.098
129917,153553,11345,-0.173,1,0.187,0.793,0.61,0.244,429.105
129923,153585,9715,-0.171,0.997,0.189,0.793,0.61,0.244,429.108
129923,153525,11352,-0.172,0.997,0.192,0.915,1.037,0.305,429.114
129910,153585,9715,-0.169,0.994,0.195,0.915,1.037,0.305,429.118
129910,153514,11357,-0.168,0.993,0.193,0.793,1.098,0.366,429.124
129898,153585,9715,-0.169,0.998,0.193,0.793,1.098,0.366,429.128
129898,153505,11354,-0.171,0.999,0.188,0.671,1.159,0.244,429.134
129887,153585,9715,-0.167,0.997,0.187,0.671,1.159,0.244,429.138
129887,153484,11364,-0.174,0.997,0.19,0.793,1.28,0.122,429.144
129896,153585,9715,-0.172,0.997,0.19,0.793,1.28,0.122,429.148
129896,153504,11349,-0.167,1.003,0.186,0.915,0.976,0.244,429.154
129910,153585,9715,-0.165,1.001,0.187,0.915,0.976,0.244,429.158
129910,153517,11348,-0.172,1.003,0.182,0.61,0.854,0.122,429.164
129888,153585,9715,-0.174,1.004,0.18,0.61,0.854,0.122,429.168
129888,153495,11341,-0.173,1.005,0.189,0.305,0.671,0.061,429.174
129897,153585,9715,-0.17,1.006,0.184,0.305,0.671,0.061,429.178
129897,153521,11335,-0.17,1.004,0.183,-0.366,0.366,0.244,429.184
129900,153585,9715,-0.171,1.003,0.188,-0.366,0.366,0.244,429.188
129900,153489,11347,-0.173,1.002,0.182,-0.244,0.488,0.244,429.194
129882,153585,9715,-0.171,1,0.183,-0.244,0.488,0.244,429.197
129882,153509,11333,-0.171,1.002,0.187,-0.488,0.305,0.122,429.204
129884,153585,9715,-0.171,0.998,0.188,-0.488,0.305,0.122,429.207
129884,153504,11339,-0.172,0.997,0.187,-0.549,0.183,0.366,429.213
129866,153585,9715,-0.171,0.994,0.191,-0.549,0.183,0.366,429.217
129866,153490,11357,-0.172,0.994,0.187,-0.244,0.244,0.488,429.223
129860,153585,9715,-0.172,0.994,0.187,-0.244,0.244,0.488,429.227
129860,153473,11341,-0.174,0.996,0.183,0.061,0.366,0.427,429.233
129837,153585,9715,-0.174,0.996,0.183,0.061,0.366,0.427,429.237
129837,153441,11348,-0.169,1.001,0.188,-0.732,0.244,0.671,429.243
129851,153585,9715,-0.169,1.001,0.188,-0.732,0.244,0.671,429.247
129851,153478,11345,-0.168,0.999,0.188,-1.28,0.122,0.793,429.253
129850,153585,9715,-0.168,0.999,0.188,-1.28,0.122,0.793,429.257
129850,153431,11343,-0.172,1.002,0.188,-0.915,0.183,0.61,429.263
129860,153585,9715,-0.172,1.002,0.188,-0.915,0.183,0.61,429.267
129860,153447,11342,-0.167,1.007,0.189,-0.671,0,0.549,429.273
129871,153585,9715,-0.167,1.007,0.189,-0.671,0,0.549,429.277
129871,153458,11347,-0.171,1.005,0.188,-0.244,0.366,0.549,429.283
129852,153585,9715,-0.171,1.005,0.188,-0.244,0.366,0.549,429.287
129852,153445,11356,-0.17,1.002,0.189,0.305,0.488,0.122,429.293
129905,153585,9715,-0.17,1.002,0.189,0.305,0.488,0.122,429.296
129905,153477,11348,-0.177,1.003,0.184,0.366,0.549,-0.183,429.303
129855,153585,9715,-0.177,1.003,0.184,0.366,0.549,-0.183,429.306
129855,153456,11341,-0.172,0.996,0.187,-0.244,0.305,0.122,429.312
129878,153585,9715,-0.172,0.996,0.187,-0.244,0.305,0.122,429.316
129878,153440,11343,-0.171,0.993,0.191,-0.671,0,0.366,429.322
129858,153585,9715,-0.171,0.993,0.191,-0.671,0,0.366,429.326
129858,153452,11354,-0.171,0.99,0.187,-0.732,0,0.305,429.332
129863,153585,9715,-0.171,0.99,0.187,-0.732,0,0.305,429.336
129863,153438,11359,-0.167,1.001,0.188,-0.366,0.061,0.366,429.342
129872,153585,9715,-0.167,1.001,0.188,-0.366,0.061,0.366,429.346
129872,153420,11339,-0.167,0.998,0.194,-0.366,0.183,0.244,429.352
129853,153585,9715,-0.167,0.998,0.194,-0.366,0.183,0.244,429.356
129853,153418,11345,-0.168,0.997,0.19,-0.305,0.61,0.122,429.362
129827,153585,9715,-0.168,0.997,0.19,-0.305,0.61,0.122,429.366
129827,153357,11344,-0.17,1.006,0.189,0.488,0.793,0,429.372
129806,153585,9715,-0.17,1.006,0.189,0.488,0.793,0,429.376
129806,153352,11351,-0.17,1.006,0.191,0.488,0.793,0,429.382
129801,153329,9715,-0.17,1.003,0.185,0.793,0.732,-0.305,429.385
129801,153319,11364,-0.172,1.005,0.185,0.793,0.732,-0.305,429.392
129808,153329,9715,-0.175,1.001,0.186,0.793,1.159,-0.122,429.395
129808,153294,11343,-0.173,0.995,0.187,0.793,1.159,-0.122,429.402
129783,153329,9715,-0.168,0.997,0.19,0.915,1.037,0.183,429.405
129783,153312,11355,-0.168,0.997,0.187,0.915,1.037,0.183,429.411
129819,153585,9715,-0.172,0.993,0.186,1.159,0.976,0.366,429.415
129819,153370,11362,-0.173,0.996,0.187,1.159,0.976,0.366,429.421
129827,153585,9715,-0.173,0.994,0.189,1.28,1.037,0.305,429.425
129827,153378,11329,-0.172,0.997,0.186,1.28,1.037,0.305,429.431
129827,153585,9715,-0.174,1,0.188,1.159,1.098,0.366,429.435
129827,153423,11363,-0.174,1.004,0.187,1.159,1.098,0.366,429.441
129859,153585,9715,-0.172,1.004,0.187,0.732,1.037,0.305,429.445
129859,153431,11354,-0.172,1.001,0.186,0.732,1.037,0.305,429.451
129890,153585,9715,-0.172,0.998,0.183,0.366,0.854,0.427,429.455
129890,153452,11359,-0.172,0.999,0.181,0.366,0.854,0.427,429.461
129880,153585,9715,-0.171,1.003,0.18,0.122,0.549,0.427,429.465
129880,153476,11368,-0.169,1.007,0.186,0.122,0.549,0.427,429.471
129910,153585,9715,-0.167,1.003,0.183,-0.244,0.183,0.305,429.475
129910,153503,11354,-0.171,0.996,0.179,-0.244,0.183,0.305,429.481
129897,153585,9715,-0.174,0.999,0.178,-0.488,0.244,0.305,429.485
129897,153488,11350,-0.173,1.003,0.179,-0.488,0.244,0.305,429.491
129882,153585,9715,-0.172,1.006,0.179,-0.61,-0.122,0.244,429.494
129882,153468,11368,-0.169,1.01,0.181,-0.61,-0.122,0.244,429.501
129917,153585,9715,-0.171,1.011,0.185,-1.402,-0.427,0.366,429.504
129917,153475,11355,-0.171,1.002,0.187,-1.402,-0.427,0.366,429.51
129887,153585,9715,-0.171,0.998,0.193,-1.585,-0.366,0.427,429.514
129887,153468,11358,-0.171,0.994,0.198,-1.585,-0.366,0.427,429.52
129889,153585,9715,-0.171,0.992,0.193,-1.159,0.061,0.305,429.524
129889,153485,11359,-0.171,0.991,0.198,-1.159,0.061,0.305,429.53
129893,153585,9715,-0.17,0.99,0.197,0,0.671,0.366,429.534
129893,153498,11370,-0.17,0.989,0.196,0,0.671,0.366,429.54
129903,153585,9715,-0.171,0.995,0.19,0.854,1.037,0.183,429.544
129903,153529,11365,-0.171,0.996,0.186,0.854,1.037,0.183,429.55
129909,153585,9715,-0.172,1.002,0.183,0.854,1.037,-0.122,429.554
129909,153509,11356,-0.174,1.005,0.181,0.854,1.037,-0.122,429.56
129880,153585,9715,-0.174,1.003,0.182,-0.183,0.549,0,429.564
129880,153505,11354,-0.176,1.001,0.181,-0.183,0.549,0,429.57
129900,153585,9715,-0.175,0.999,0.18,-1.28,0.122,0.427,429.574
129900,153519,11356,-0.175,0.994,0.186,-1.28,0.122,0.427,429.58
129904,153585,9715,-0.174,0.991,0.19,-1.89,-0.122,0.793,429.583
129904,153504,11365,-0.174,0.993,0.19,-1.89,-0.122,0.793,429.59
129904,153585,9715,-0.169,0.996,0.19,-1.524,-0.366,1.22,429.593
129904,153505,11363,-0.172,0.997,0.19,-1.524,-0.366,1.22,429.6
129907,153585,9715,-0.17,1,0.188,-0.549,-0.305,1.159,429.603
129907,153494,11361,-0.173,1,0.187,-0.549,-0.305,1.159,429.609
129887,153585,9715,-0.176,1.004,0.184,0.244,0.183,1.159,429.613
129887,153472,11373,-0.174,1.008,0.182,0.244,0.183,1.159,429.619
129887,153585,9715,-0.169,1.008,0.186,-0.061,0.061,1.463,429.623
129887,153486,11360,-0.167,1,0.187,-0.061,0.061,1.463,429.629
129906,153585,9715,-0.169,0.996,0.189,-0.61,-0.061,1.463,429.633
129906,153501,11361,-0.17,0.996,0.186,-0.61,-0.061,1.463,429.639
129914,153585,9715,-0.173,0.993,0.185,-0.793,-0.061,1.28,429.643
129914,153511,11372,-0.172,0.995,0.185,-0.793,-0.061,1.28,429.649
129916,153585,9715,-0.169,1.001,0.189,-0.976,-0.488,1.22,429.653
129916,153525,11365,-0.168,1.004,0.185,-0.976,-0.488,1.22,429.659
129902,153585,9715,-0.167,1.001,0.187,-1.341,-0.732,1.037,429.663
129902,153494,11370,-0.167,1.002,0.193,-1.341,-0.732,1.037,429.669
129915,153585,9715,-0.167,1.002,0.194,-1.159,-0.549,0.854,429.673
129915,153532,11363,-0.171,1.002,0.192,-1.159,-0.549,0.854,429.679
129896,153585,9715,-0.171,1.007,0.187,-0.976,-0.183,0.671,429.683
129896,153533,11368,-0.17,1.006,0.188,-0.976,-0.183,0.671,429.689
129926,153585,9715,-0.17,1.005,0.187,-0.549,-0.183,0.549,429.692
129926,153525,11359,-0.17,1.005,0.189,-0.549,-0.183,0.549,429.699
129907,153585,9715,-0.17,1,0.19,-0.61,-0.061,0.427,429.702
129907,153535,11363,-0.171,0.995,0.187,-0.61,-0.061,0.427,429.708
129897,153585,9715,-0.169,0.991,0.188,-0.549,0,0.427,429.712
129897,153509,11356,-0.169,0.995,0.187,-0.549,0,0.427,429.718
129921,153585,9715,-0.169,0.995,0.185,-0.366,-0.122,0.305,429.722
129921,153511,11335,-0.169,0.994,0.184,-0.366,-0.122,0.305,429.728
129902,153585,9715,-0.165,0.995,0.193,-0.61,-0.183,0.488,429.732
129902,153496,11361,-0.168,0.999,0.196,-0.61,-0.183,0.488,429.738
129883,153585,9715,-0.166,0.996,0.198,-1.037,-0.122,0.671,429.742
129883,153518,11370,-0.166,0.99,0.2,-1.037,-0.122,0.671,429.748
129901,153585,9715,-0.169,0.989,0.196,-0.183,0.244,0.488,429.752
129901,153490,11364,-0.167,0.995,0.196,-0.183,0.244,0.488,429.758
129871,153585,9715,-0.167,0.998,0.191,1.037,0.854,0.244,429.762
129871,153485,11351,-0.172,1.002,0.19,1.037,0.854,0.244,429.768
129868,153585,9715,-0.172,1.007,0.186,1.707,1.098,0.183,429.772
129868,153457,11354,-0.171,1.008,0.187,1.707,1.098,0.183,429.778
129840,153585,9715,-0.17,1.009,0.187,1.28,1.159,0.244,429.782
129840,153383,11365,-0.168,1.005,0.189,1.28,1.159,0.244,429.788
129829,153585,9715,-0.171,1,0.185,1.098,1.159,0.366,429.791
129829,153356,11354,-0.172,0.995,0.187,1.098,1.159,0.366,429.798
129813,153329,9715,-0.171,0.993,0.189,1.037,0.976,0.427,429.801
129813,153333,11360,-0.173,0.995,0.187,1.037,0.976,0.427,429.808
129802,153329,9715,-0.168,0.994,0.185,0.915,0.671,0.488,429.811
129802,153340,11358,-0.17,0.997,0.187,0.915,0.671,0.488,429.817
129801,153329,9715,-0.17,0.997,0.187,0.915,0.671,0.488,429.821
129801,153328,11360,-0.171,0.998,0.182,0.366,0.427,0.61,429.827
129811,153329,9715,-0.171,0.998,0.182,0.366,0.427,0.61,429.831
129811,153327,11352,-0.167,1.001,0.185,-0.061,0.244,0.671,429.837
129814,153585,9715,-0.167,1.001,0.185,-0.061,0.244,0.671,429.841
129814,153360,11356,-0.169,1.003,0.189,-0.61,0.122,0.549,429.847
129849,153585,9715,-0.169,1.003,0.189,-0.61,0.122,0.549,429.851
129849,153383,11343,-0.172,1.001,0.188,-0.732,0.061,0.488,429.857
129838,153585,9715,-0.172,1.001,0.188,-0.732,0.061,0.488,429.861
129838,153404,11362,-0.174,1.004,0.186,-0.61,-0.183,0.488,429.867
129855,153585,9715,-0.174,1.004,0.186,-0.61,-0.183,0.488,429.871
129855,153437,11358,-0.172,1.007,0.187,-0.793,-0.366,0.671,429.877
129869,153585,9715,-0.172,1.007,0.187,-0.793,-0.366,0.671,429.881
129869,153430,11334,-0.168,1,0.194,-0.915,-0.366,0.732,429.887
129841,153585,9715,-0.168,1,0.194,-0.915,-0.366,0.732,429.89
129841,153425,11356,-0.168,0.994,0.195,-0.61,-0.122,0.671,429.897
129848,153585,9715,-0.168,0.994,0.195,-0.61,-0.122,0.671,429.9
129848,153397,11354,-0.165,0.992,0.189,0,0.183,0.61,429.906
129839,153585,9715,-0.165,0.992,0.189,0,0.183,0.61,429.91
129839,153383,11348,-0.168,0.998,0.186,0.854,0.549,0.488,429.916
129806,153585,9715,-0.168,0.998,0.186,0.854,0.549,0.488,429.92
129806,153378,11350,-0.166,0.996,0.188,1.159,0.793,0.488,429.926
129806,153585,9715,-0.166,0.996,0.188,1.159,0.793,0.488,429.93
129806,153347,11346,-0.17,0.997,0.189,1.098,0.793,0.61,429.936
129799,153329,9715,-0.17,0.997,0.189,1.098,0.793,0.61,429.94
129799,153312,11353,-0.167,1.003,0.188,0.488,0.671,0.732,429.946
129790,153329,9715,-0.167,1.003,0.188,0.488,0.671,0.732,429.95
129790,153298,11358,-0.17,1.003,0.187,0.305,0.61,0.549,429.956
129782,153329,9715,-0.17,1.003,0.187,0.305,0.61,0.549,429.96
129782,153290,11358,-0.17,1.002,0.185,0.305,0.671,0.305,429.966
129797,153329,9715,-0.171,1.002,0.183,0.305,0.671,0.305,429.97
129797,153278,11349,-0.17,1.008,0.182,0.366,0.366,0.244,429.976
129765,153329,9715,-0.168,1.007,0.185,0.366,0.366,0.244,429.98
129765,153266,11363,-0.169,1.003,0.187,0.122,0.366,0.366,429.986
129768,153329,9715,-0.171,0.998,0.191,0.122,0.366,0.366,429.989
129768,153245,11364,-0.169,0.999,0.189,0.183,0.549,0.366,429.996
129774,153329,9715,-0.168,1,0.182,0.183,0.549,0.366,429.999
129774,153237,11350,-0.168,0.997,0.189,0.366,0.488,0.366,430.006
129744,153329,9715,-0.166,0.993,0.19,0.366,0.488,0.366,430.009
129744,153195,11344,-0.167,0.99,0.19,0.427,0.549,0.366,430.015
129748,153329,9715,-0.171,0.991,0.186,0.427,0.549,0.366,430.019
129748,153218,11354,-0.167,0.998,0.193,0.61,0.61,0.427,430.025
129728,153329,9715,-0.167,0.997,0.188,0.61,0.61,0.427,430.029
129728,153185,11363,-0.167,0.995,0.185,0.549,0.549,0.549,430.035
129746,153329,9715,-0.168,0.996,0.183,0.549,0.549,0.549,430.039
129746,153186,11351,-0.168,0.999,0.185,0.183,0.671,0.671,430.045
129729,153329,9715,-0.168,1.002,0.188,0.183,0.671,0.671,430.049
129729,153232,11358,-0.168,0.999,0.185,0.061,0.488,0.732,430.055
129755,153329,9715,-0.171,1.002,0.185,0.061,0.488,0.732,430.059
129755,153242,11353,-0.172,1.005,0.183,0.183,0.427,0.671,430.065
129739,153329,9715,-0.17,1.009,0.184,0.183,0.427,0.671,430.069
129739,153242,11361,-0.167,1.011,0.186,0,0.244,0.671,430.075
129774,153329,9715,-0.164,1.012,0.18,0,0.244,0.671,430.079
129774,153233,11348,-0.169,1.008,0.181,-0.488,0.061,0.549,430.085
129766,153329,9715,-0.167,1.002,0.186,-0.488,0.061,0.549,430.088
129766,153217,11351,-0.166,0.997,0.184,-0.732,-0.122,0.183,430.095
129773,153329,9715,-0.166,0.993,0.185,-0.732,-0.122,0.183,430.098
129773,153238,11344,-0.166,0.996,0.186,-0.793,-0.244,0.061,430.104
129748,153329,9715,-0.165,0.998,0.188,-0.793,-0.244,0.061,430.108
129748,153207,11367,-0.168,0.991,0.189,-0.854,-0.305,0.061,430.114
129741,153329,9715,-0.168,0.985,0.196,-0.854,-0.305,0.061,430.118
129741,153196,11343,-0.17,0.989,0.196,-0.671,0.061,0.061,430.124
129746,153329,9715,-0.172,0.991,0.193,-0.671,0.061,0.061,430.128
129746,153188,11350,-0.169,0.992,0.201,-0.183,0.549,0.183,430.134
129737,153329,9715,-0.17,0.993,0.195,-0.183,0.549,0.183,430.138
129737,153193,11349,-0.173,0.994,0.19,0.915,1.098,0.183,430.144
129722,153329,9715,-0.174,0.999,0.19,0.915,1.098,0.183,430.148
129722,153181,11337,-0.174,1.003,0.188,1.707,1.463,0.427,430.154
129708,153329,9715,-0.173,1.004,0.185,1.707,1.463,0.427,430.158
129708,153161,11351,-0.172,1.002,0.183,1.28,1.098,0.793,430.164
129733,153329,9715,-0.173,1.003,0.181,1.28,1.098,0.793,430.168
129733,153158,11360,-0.173,1.005,0.185,0.671,0.854,0.976,430.174
129724,153329,9715,-0.167,1.007,0.183,0.671,0.854,0.976,430.178
129724,153150,11355,-0.167,1.007,0.18,0.488,0.488,1.159,430.184
129717,153329,9715,-0.169,1.007,0.177,0.488,0.488,1.159,430.187
129717,153141,11359,-0.169,1.01,0.177,0.366,0.305,1.037,430.194
129729,153329,9715,-0.169,1.009,0.174,0.366,0.305,1.037,430.197
129729,153178,11353,-0.167,1.006,0.18,-0.122,0.183,0.854,430.204
129709,153329,9715,-0.164,1.005,0.184,-0.122,0.183,0.854,430.207
129709,153157,11355,-0.164,0.998,0.186,-0.671,0.122,0.732,430.213
129713,153329,9715,-0.163,0.996,0.186,-0.671,0.122,0.732,430.217
129713,153164,11346,-0.162,0.997,0.187,-0.671,0.244,0.427,430.223
129706,153329,9715,-0.164,0.997,0.184,-0.671,0.244,0.427,430.227
129706,153134,11373,-0.165,0.999,0.186,-0.488,0.183,-0.122,430.233
129732,153329,9715,-0.164,0.998,0.189,-0.488,0.183,-0.122,430.237
129732,153167,11356,-0.165,0.995,0.189,-0.366,0.366,-0.305,430.243
129699,153329,9715,-0.169,0.997,0.188,-0.366,0.366,-0.305,430.247
129699,153128,11352,-0.17,0.998,0.191,0.061,0.732,-0.427,430.253
129714,153329,9715,-0.171,0.996,0.191,0.061,0.732,-0.427,430.257
129714,153124,11352,-0.17,0.995,0.193,0.549,1.037,-0.183,430.263
129723,153329,9715,-0.171,0.995,0.187,0.549,1.037,-0.183,430.267
129723,153119,11342,-0.174,0.994,0.188,0.854,1.159,0.122,430.273
129704,153329,9715,-0.171,0.995,0.188,0.854,1.159,0.122,430.277
129704,153121,11376,-0.172,0.998,0.188,0.915,0.976,0.366,430.283
129708,153329,9715,-0.174,1.004,0.185,0.915,0.976,0.366,430.286
129708,153121,11363,-0.169,1.008,0.181,0.732,0.976,0.732,430.293
129700,153329,9715,-0.168,1.006,0.18,0.732,0.976,0.732,430.296
129700,153121,11362,-0.169,1.007,0.181,0.61,0.732,0.793,430.303
129715,153329,9715,-0.172,1.007,0.18,0.61,0.732,0.793,430.306
129715,153122,11360,-0.17,1.003,0.18,0.061,0.549,0.732,430.312
129694,153329,9715,-0.17,1.001,0.178,0.061,0.549,0.732,430.316
129694,153116,11366,-0.167,1.003,0.178,-0.305,0.183,0.671,430.322
129701,153329,9715,-0.166,1.004,0.179,-0.305,0.183,0.671,430.326
129701,153132,11365,-0.169,1.004,0.18,-1.341,-0.183,0.732,430.332
129711,153329,9715,-0.168,1.004,0.18,-1.341,-0.183,0.732,430.336
129711,153098,11346,-0.168,1.005,0.176,-1.707,-0.488,0.61,430.342
129677,153329,9715,-0.168,0.999,0.179,-1.707,-0.488,0.61,430.346
129677,153096,11361,-0.167,0.996,0.19,-2.134,-0.61,0.244,430.352
129702,153329,9715,-0.168,0.992,0.188,-2.134,-0.61,0.244,430.356
129702,153093,11351,-0.172,0.991,0.188,-2.439,-0.488,0.366,430.362
129669,153073,9715,-0.173,0.994,0.186,-2.439,-0.488,0.366,430.366
129669,153042,11360,-0.171,0.993,0.188,-2.134,-0.549,0.61,430.372
129633,153073,9715,-0.17,0.993,0.192,-2.134,-0.549,0.61,430.376
129633,153024,11368,-0.167,0.992,0.196,-1.646,-0.61,0.915,430.382
129646,153073,9715,-0.169,0.994,0.192,-1.646,-0.61,0.915,430.385
129646,152985,11361,-0.171,0.996,0.185,-1.037,-0.427,0.915,430.392
129621,153073,9715,-0.171,0.999,0.184,-1.037,-0.427,0.915,430.395
129621,152956,11363,-0.171,1.003,0.188,-0.976,-0.366,0.793,430.402
129625,153073,9715,-0.17,1.001,0.186,-0.976,-0.366,0.793,430.405
129625,152997,11362,-0.171,1,0.186,-1.28,-0.305,0.854,430.411
129652,153073,9715,-0.171,1,0.186,-1.28,-0.305,0.854,430.415
129652,153000,11363,-0.167,1.002,0.186,-1.341,-0.366,0.854,430.421
129676,153073,9715,-0.167,1.002,0.186,-1.341,-0.366,0.854,430.425
129676,153070,11364,-0.166,1.003,0.188,-1.341,-0.427,0.732,430.431
129691,153329,9715,-0.166,1.003,0.188,-1.341,-0.427,0.732,430.435
129691,153089,11361,-0.165,1.003,0.187,-1.159,-0.366,0.61,430.441
129710,153329,9715,-0.165,1.003,0.187,-1.159,-0.366,0.61,430.445
129710,153120,11364,-0.163,1,0.194,-0.976,-0.122,0.549,430.451
129730,153329,9715,-0.163,1,0.194,-0.976,-0.122,0.549,430.455
129730,153145,11367,-0.162,0.998,0.196,-0.366,0.244,0.427,430.461
129744,153329,9715,-0.162,0.998,0.196,-0.366,0.244,0.427,430.465
129744,153155,11366,-0.165,0.998,0.193,0.671,0.854,0.244,430.471
129729,153329,9715,-0.165,0.998,0.193,0.671,0.854,0.244,430.475
129729,153166,11361,-0.164,0.999,0.186,1.341,1.28,-0.183,430.481
129726,153329,9715,-0.164,0.999,0.186,1.341,1.28,-0.183,430.484
129726,153118,11347,-0.168,0.999,0.193,1.463,1.585,-0.244,430.491
129697,153329,9715,-0.168,0.999,0.193,1.463,1.585,-0.244,430.494
129697,153100,11352,-0.167,0.993,0.187,1.768,1.768,-0.244,430.501
129674,153073,9715,-0.167,0.993,0.187,1.768,1.768,-0.244,430.504
129674,153067,11363,-0.168,0.997,0.193,2.195,1.829,-0.305,430.51
129683,153073,9715,-0.168,0.997,0.193,2.195,1.829,-0.305,430.514
129683,153057,11353,-0.167,1,0.19,2.073,2.073,-0.366,430.52
129687,153073,9715,-0.167,1,0.19,2.073,2.073,-0.366,430.524
129687,153071,11354,-0.167,1,0.182,2.073,2.134,-0.427,430.53
129690,153073,9715,-0.167,1,0.182,2.073,2.134,-0.427,430.534
129690,153074,11352,-0.172,1.005,0.18,1.768,1.89,-0.488,430.54
129681,153329,9715,-0.172,1.005,0.18,1.768,1.89,-0.488,430.544
129681,153094,11362,-0.172,1.006,0.18,1.037,1.646,-0.305,430.55
129686,153329,9715,-0.172,1.006,0.18,1.037,1.646,-0.305,430.554
129686,153141,11383,-0.17,1.007,0.178,1.037,1.646,-0.305,430.56
129715,153329,9715,-0.169,1.004,0.179,0.427,1.28,-0.305,430.564
129715,153138,11334,-0.171,1.001,0.179,0.427,1.28,-0.305,430.57
129705,153329,9715,-0.171,1,0.184,0.305,1.037,-0.183,430.574
129705,153113,11356,-0.168,1,0.185,0.305,1.037,-0.183,430.58
129701,153329,9715,-0.171,1,0.185,0.427,1.037,0,430.583
129701,153140,11351,-0.171,1.002,0.178,0.427,1.037,0,430.59
129687,153329,9715,-0.17,0.998,0.184,0.366,0.976,-0.122,430.593
129687,153139,11350,-0.174,1,0.184,0.366,0.976,-0.122,430.6
129702,153329,9715,-0.168,0.998,0.185,-0.122,0.854,0,430.603
129702,153134,11351,-0.17,0.999,0.185,-0.122,0.854,0,430.609
129685,153329,9715,-0.169,0.993,0.186,0,0.854,0.183,430.613
129685,153097,11352,-0.17,0.993,0.185,0,0.854,0.183,430.619
129668,153329,9715,-0.166,0.999,0.19,0.122,0.793,0.122,430.623
129668,153096,11351,-0.17,1.004,0.187,0.122,0.793,0.122,430.629
129670,153073,9715,-0.165,1.003,0.182,0.244,0.915,0.122,430.633
129670,153058,11348,-0.167,0.997,0.185,0.244,0.915,0.122,430.639
129658,153073,9715,-0.17,1,0.184,0.366,0.854,0.061,430.643
129658,153048,11358,-0.17,1.004,0.181,0.366,0.854,0.061,430.649
129629,153073,9715,-0.168,1.004,0.183,-0.366,0.732,0.061,430.653
129629,153021,11352,-0.168,1.001,0.188,-0.366,0.732,0.061,430.659
129653,153073,9715,-0.171,0.998,0.187,-0.671,0.61,-0.061,430.663
129653,153024,11357,-0.172,0.998,0.182,-0.671,0.61,-0.061,430.669
129633,153073,9715,-0.174,1,0.183,-0.549,0.549,-0.183,430.673
129633,152994,11342,-0.17,0.995,0.187,-0.549,0.549,-0.183,430.679
129631,153073,9715,-0.169,1,0.186,0,0.427,-0.122,430.683
129631,152993,11358,-0.172,1.006,0.183,0,0.427,-0.122,430.689
129631,153073,9715,-0.17,1.005,0.183,0.305,0.549,0.061,430.692
129631,153009,11328,-0.171,1.004,0.184,0.305,0.549,0.061,430.699
129611,153073,9715,-0.171,0.997,0.185,0.305,0.61,0.122,430.702
129611,152997,11357,-0.171,0.994,0.185,0.305,0.61,0.122,430.708
129609,153073,9715,-0.171,0.997,0.185,0.183,0.61,0.366,430.712
129609,153026,11348,-0.172,0.998,0.182,0.183,0.61,0.366,430.718
129629,153073,9715,-0.172,0.997,0.185,-0.061,0.61,0.488,430.722
129629,152985,11344,-0.169,0.995,0.183,-0.061,0.61,0.488,430.728
129622,153073,9715,-0.167,0.995,0.182,-0.122,0.488,0.671,430.732
129622,153025,11357,-0.169,0.997,0.181,-0.122,0.488,0.671,430.738
129622,153073,9715,-0.168,0.997,0.184,-0.122,0.305,0.61,430.742
129622,152978,11360,-0.167,1.001,0.181,-0.122,0.305,0.61,430.748
129595,153073,9715,-0.17,1.006,0.183,-0.427,0.305,0.549,430.752
129595,152981,11368,-0.17,1.003,0.187,-0.427,0.305,0.549,430.758
129634,153073,9715,-0.169,1,0.185,-0.549,0.244,0.549,430.762
129634,152999,11360,-0.167,1.001,0.182,-0.549,0.244,0.549,430.768
129649,153073,9715,-0.17,1.006,0.182,-0.549,0.244,0.427,430.772
129649,153012,11347,-0.17,1.01,0.182,-0.549,0.244,0.427,430.778
129645,153073,9715,-0.166,1.011,0.183,-0.366,0.305,0.061,430.781
129645,153067,11356,-0.166,1.008,0.184,-0.366,0.305,0.061,430.788
129679,153073,9715,-0.166,0.997,0.186,-0.244,0.427,-0.244,430.791
129679,153087,11367,-0.169,0.996,0.185,-0.244,0.427,-0.244,430.798
129696,153329,9715,-0.168,0.993,0.184,-0.061,0.305,-0.488,430.801
129696,153142,11360,-0.168,0.994,0.188,-0.061,0.305,-0.488,430.807
129693,153329,9715,-0.171,0.998,0.191,-0.122,0.305,-0.427,430.811
129693,153168,11361,-0.168,0.995,0.191,-0.122,0.305,-0.427,430.817
129740,153329,9715,-0.168,0.994,0.19,0,0.549,-0.122,430.821
129740,153190,11362,-0.172,0.991,0.187,0,0.549,-0.122,430.827
129721,153329,9715,-0.175,0.989,0.188,0.366,0.854,0.061,430.831
129721,153191,11366,-0.175,0.999,0.187,0.366,0.854,0.061,430.837
129736,153329,9715,-0.174,1,0.186,0.366,0.854,0.244,430.841
129736,153215,11361,-0.171,0.997,0.188,0.366,0.854,0.244,430.847
129753,153329,9715,-0.17,0.998,0.187,0.183,0.793,0.549,430.851
129753,153226,11354,-0.171,1,0.187,0.183,0.793,0.549,430.857
129758,153329,9715,-0.173,1.001,0.184,0.366,0.976,0.671,430.861
129758,153224,11368,-0.173,1.007,0.178,0.366,0.976,0.671,430.867
129751,153329,9715,-0.172,1.011,0.176,0.732,0.854,0.488,430.871
129751,153255,11377,-0.172,1.01,0.175,0.732,0.854,0.488,430.877
129768,153329,9715,-0.169,1.012,0.178,0.549,0.732,0.427,430.881
129768,153239,11366,-0.172,1.005,0.18,0.549,0.732,0.427,430.887
129743,153329,9715,-0.171,1.004,0.179,0,0.549,0.488,430.89
129743,153261,11368,-0.167,1.001,0.179,0,0.549,0.488,430.897
129761,153329,9715,-0.17,1.003,0.179,-0.488,0.427,0.427,430.9
129761,153290,11364,-0.168,1,0.182,-0.488,0.427,0.427,430.906
129751,153329,9715,-0.166,0.997,0.181,-0.61,0.366,0.305,430.91
129751,153275,11374,-0.164,0.997,0.182,-0.61,0.366,0.305,430.916
129732,153329,9715,-0.164,0.996,0.185,-0.61,0.366,0,430.92
129732,153236,11365,-0.166,0.994,0.183,-0.61,0.366,0,430.926
129738,153329,9715,-0.168,0.994,0.184,0,0.671,-0.183,430.93
129738,153243,11365,-0.168,1.003,0.183,0,0.671,-0.183,430.936
129774,153329,9715,-0.164,1.005,0.187,0.305,0.732,-0.427,430.94
129774,153263,11365,-0.169,1,0.183,0.305,0.732,-0.427,430.946
129765,153329,9715,-0.172,0.996,0.188,-0.061,0.915,-0.305,430.95
129765,153244,11362,-0.175,0.993,0.186,-0.061,0.915,-0.305,430.956
129771,153329,9715,-0.175,0.993,0.185,-0.183,0.915,0.061,430.96
129771,153299,11364,-0.175,0.998,0.185,-0.183,0.915,0.061,430.966
129774,153329,9715,-0.176,0.997,0.183,-0.122,0.488,0.244,430.97
129774,153320,11364,-0.174,0.998,0.182,-0.122,0.488,0.244,430.976
129782,153329,9715,-0.171,0.999,0.187,-0.366,0.427,0.366,430.98
129782,153308,11360,-0.171,0.998,0.192,-0.366,0.427,0.366,430.986
129778,153329,9715,-0.174,1,0.188,-0.671,0.549,0.488,430.989
129778,153300,11362,-0.171,1.001,0.182,-0.671,0.549,0.488,430.996
129768,153329,9715,-0.173,1.001,0.177,-0.305,0.488,0.305,430.999
129768,153303,11377,-0.172,1.006,0.176,-0.305,0.488,0.305,431.006
129778,153329,9715,-0.172,1.006,0.176,-0.305,0.488,0.305,431.009
129778,153298,11361,-0.175,1.002,0.174,0.183,0.427,0.244,431.015
129758,153329,9715,-0.175,1.002,0.174,0.183,0.427,0.244,431.019
129758,153286,11374,-0.173,1.007,0.175,-0.366,0.305,0.427,431.025
129744,153329,9715,-0.173,1.007,0.175,-0.366,0.305,0.427,431.029
129744,153270,11362,-0.167,0.999,0.183,-1.28,-0.244,0.488,431.035
129746,153329,9715,-0.167,0.999,0.183,-1.28,-0.244,0.488,431.039
129746,153279,11373,-0.17,0.993,0.186,-1.585,-0.61,0.549,431.045
129744,153329,9715,-0.17,0.993,0.186,-1.585,-0.61,0.549,431.049
129744,153247,11374,-0.168,1.003,0.187,-1.402,-0.549,0.549,431.055
129764,153329,9715,-0.168,1.003,0.187,-1.402,-0.549,0.549,431.059
129764,153261,11361,-0.17,0.991,0.19,-1.402,-0.366,0.488,431.065
129749,153329,9715,-0.17,0.991,0.19,-1.402,-0.366,0.488,431.069
129749,153237,11368,-0.171,0.992,0.188,-1.402,0,0.488,431.075
129753,153329,9715,-0.171,0.992,0.188,-1.402,0,0.488,431.079
129753,153270,11369,-0.171,0.997,0.185,-1.037,0.244,0.549,431.085
129782,153329,9715,-0.171,0.997,0.185,-1.037,0.244,0.549,431.088
129782,153297,11370,-0.172,1.003,0.182,-0.366,0.122,0.732,431.095
129776,153329,9715,-0.172,1.003,0.182,-0.366,0.122,0.732,431.098
129776,153340,11369,-0.173,1,0.181,-0.671,0.061,0.976,431.104
129812,153585,9715,-0.173,1,0.181,-0.671,0.061,0.976,431.108
129812,153360,11357,-0.167,1.005,0.187,-0.61,0.122,1.098,431.114
129795,153585,9715,-0.167,1.005,0.187,-0.61,0.122,1.098,431.118
129795,153381,11381,-0.169,1.006,0.183,-0.427,0.061,0.976,431.124
129819,153585,9715,-0.169,1.006,0.183,-0.427,0.061,0.976,431.128
129819,153375,11370,-0.168,1,0.19,0.061,0.183,0.854,431.134
129813,153585,9715,-0.168,1,0.19,0.061,0.183,0.854,431.138
129813,153363,11364,-0.166,1,0.188,0.061,0.366,0.61,431.144
129806,153329,9715,-0.166,1,0.188,0.061,0.366,0.61,431.148
129806,153332,11385,-0.167,0.996,0.185,0.061,0.427,0.305,431.154
129807,153329,9715,-0.167,0.996,0.185,0.061,0.427,0.305,431.158
129807,153323,11374,-0.165,0.996,0.188,0,0.488,0.122,431.164
129789,153329,9715,-0.164,1,0.186,0,0.488,0.122,431.168
129789,153287,11369,-0.168,0.999,0.184,-0.488,0.61,-0.061,431.174
129769,153329,9715,-0.173,0.999,0.183,-0.488,0.61,-0.061,431.178
129769,153302,11370,-0.172,0.997,0.184,-0.488,0.61,-0.366,431.184
129771,153329,9715,-0.17,0.999,0.185,-0.488,0.61,-0.366,431.187
129771,153306,11373,-0.168,1.003,0.188,-0.488,0.549,-0.244,431.194
129755,153329,9715,-0.174,0.999,0.185,-0.488,0.549,-0.244,431.197
129755,153305,11380,-0.172,0.999,0.184,-0.671,0.549,0.061,431.204
129774,153329,9715,-0.171,0.995,0.188,-0.671,0.549,0.061,431.207
129774,153272,11352,-0.172,0.996,0.187,-0.488,0.61,0.122,431.213
129751,153329,9715,-0.174,0.998,0.187,-0.488,0.61,0.122,431.217
129751,153286,11376,-0.172,0.999,0.186,-0.122,0.488,0.122,431.223
129767,153329,9715,-0.168,1,0.188,-0.122,0.488,0.122,431.227
129767,153285,11351,-0.171,1,0.188,0,0.427,0.305,431.233
129744,153329,9715,-0.174,0.995,0.187,0,0.427,0.305,431.237
129744,153254,11375,-0.172,0.995,0.189,0.244,0.549,0.427,431.243
129750,153329,9715,-0.168,0.998,0.186,0.244,0.549,0.427,431.247
129750,153260,11363,-0.169,1,0.187,0.061,0.549,0.549,431.253
129732,153329,9715,-0.168,0.999,0.19,0.061,0.549,0.549,431.257
129732,153234,11367,-0.171,1.001,0.187,0.061,0.732,0.366,431.263
129738,153329,9715,-0.172,0.997,0.185,0.061,0.732,0.366,431.267
129738,153262,11375,-0.169,0.998,0.183,0.122,0.854,0.183,431.273
129745,153329,9715,-0.17,1.004,0.183,0.122,0.854,0.183,431.277
129745,153262,11349,-0.17,1.006,0.186,-0.244,0.549,0.183,431.283
129723,153329,9715,-0.169,1.004,0.185,-0.244,0.549,0.183,431.286
129723,153262,11347,-0.171,1.001,0.185,-0.671,0.427,0.061,431.293
129721,153329,9715,-0.17,1,0.186,-0.671,0.427,0.061,431.296
129721,153267,11359,-0.171,1,0.185,-1.646,0.183,-0.061,431.303
129739,153329,9715,-0.172,1.005,0.183,-1.646,0.183,-0.061,431.306
129739,153263,11359,-0.173,1.005,0.187,-2.439,0.122,-0.244,431.312
129727,153329,9715,-0.17,1.007,0.188,-2.439,0.122,-0.244,431.316
129727,153249,11350,-0.17,1.012,0.183,-2.256,-0.122,-0.488,431.322
129745,153329,9715,-0.171,1.011,0.183,-2.256,-0.122,-0.488,431.326
129745,153237,11353,-0.173,1.006,0.186,-2.256,-0.122,-0.671,431.332
129734,153329,9715,-0.174,1.005,0.186,-2.256,-0.122,-0.671,431.336
129734,153251,11371,-0.171,0.998,0.188,-2.439,0.244,-0.366,431.342
129754,153329,9715,-0.169,0.987,0.19,-2.439,0.244,-0.366,431.346
129754,153260,11355,-0.166,0.993,0.191,-1.829,0.183,-0.122,431.352
129742,153329,9715,-0.167,0.998,0.188,-1.829,0.183,-0.122,431.356
129742,153282,11353,-0.172,1,0.184,-1.402,0.244,-0.244,431.362
129729,153329,9715,-0.173,0.991,0.193,-1.402,0.244,-0.244,431.366
129729,153272,11366,-0.172,0.986,0.189,-1.22,0.183,0,431.372
129740,153329,9715,-0.175,0.99,0.184,-1.22,0.183,0,431.376
129740,153257,11365,-0.174,0.997,0.189,-1.341,-0.122,0.549,431.382
129746,153329,9715,-0.169,0.994,0.19,-1.341,-0.122,0.549,431.385
129746,153256,11357,-0.168,0.994,0.188,-1.463,-0.244,0.549,431.392
129720,153329,9715,-0.173,0.996,0.194,-1.463,-0.244,0.549,431.395
129720,153227,11364,-0.176,0.996,0.195,-1.402,0.061,0.549,431.402
129683,153329,9715,-0.178,0.996,0.191,-1.402,0.061,0.549,431.405
129683,153175,11363,-0.175,1.006,0.185,-0.793,0.366,0.61,431.411
129699,153329,9715,-0.175,1.009,0.187,-0.793,0.366,0.61,431.415
129699,153167,11350,-0.175,1.008,0.186,-0.305,0.183,0.427,431.421
129683,153329,9715,-0.173,1.004,0.194,-0.305,0.183,0.427,431.425
129683,153165,11362,-0.169,0.998,0.196,-0.061,0.244,0.671,431.431
129719,153329,9715,-0.167,0.997,0.193,-0.061,0.244,0.671,431.435
129719,153196,11345,-0.167,1,0.199,0,0.427,0.61,431.441
129697,153329,9715,-0.167,1.004,0.189,0,0.427,0.61,431.445
129697,153192,11356,-0.169,1.003,0.183,0.488,0.732,0.061,431.451
129708,153329,9715,-0.171,0.998,0.184,0.488,0.732,0.061,431.455
129708,153219,11373,-0.17,0.991,0.186,0.122,0.793,-0.183,431.461
129709,153329,9715,-0.172,0.989,0.187,0.122,0.793,-0.183,431.465
129709,153210,11365,-0.173,0.988,0.187,-0.549,0.549,0.183,431.471
129723,153329,9715,-0.173,0.99,0.188,-0.549,0.549,0.183,431.475
129723,153236,11356,-0.175,0.993,0.186,-0.854,0.244,0.366,431.481
129720,153329,9715,-0.177,0.999,0.184,-0.854,0.244,0.366,431.484
129720,153214,11358,-0.172,1.004,0.189,-1.037,-0.122,0.427,431.491
129713,153329,9715,-0.175,1.005,0.187,-1.037,-0.122,0.427,431.494
129713,153230,11366,-0.173,1.005,0.188,-1.463,-0.305,0.793,431.501
129742,153329,9715,-0.172,1.003,0.188,-1.463,-0.305,0.793,431.504
129742,153225,11370,-0.173,1,0.192,-1.463,-0.366,0.793,431.51
129714,153329,9715,-0.172,1.002,0.192,-1.463,-0.366,0.793,431.514
129714,153194,11355,-0.171,1.002,0.19,-1.098,-0.427,0.671,431.52
129698,153329,9715,-0.171,1.002,0.193,-1.098,-0.427,0.671,431.524
129698,153212,11358,-0.169,1.001,0.193,-0.976,-0.366,0.366,431.53
129698,153329,9715,-0.166,0.995,0.195,-0.976,-0.366,0.366,431.534
129698,153209,11373,-0.168,0.993,0.194,-0.732,0.061,0.122,431.54
129721,153329,9715,-0.172,0.991,0.195,-0.732,0.061,0.122,431.544
129721,153221,11361,-0.171,0.988,0.193,-0.122,0.183,0.183,431.55
129717,153329,9715,-0.168,0.994,0.189,-0.122,0.183,0.183,431.554
129717,153264,11371,-0.171,0.998,0.194,0.427,0.488,0.305,431.56
129731,153329,9715,-0.172,0.99,0.196,0.427,0.488,0.305,431.564
129731,153270,11362,-0.171,0.993,0.19,0.732,0.854,0.488,431.57
129768,153329,9715,-0.172,0.995,0.185,0.732,0.854,0.488,431.574
129768,153322,11357,-0.173,1,0.185,0.976,0.915,0.671,431.58
129793,153585,9715,-0.172,1.001,0.186,0.976,0.915,0.671,431.583
129793,153382,11372,-0.176,1.004,0.187,0.732,0.671,0.732,431.59
129833,153585,9715,-0.175,1.001,0.187,0.732,0.671,0.732,431.593
129833,153473,11372,-0.173,1.001,0.188,0.61,0.61,0.915,431.6
129851,153585,9715,-0.174,1.007,0.188,0.61,0.61,0.915,431.603
129851,153489,11374,-0.173,1.01,0.186,0.244,0.427,0.793,431.609
129907,153585,9715,-0.173,1.01,0.186,0.244,0.427,0.793,431.613
129907,153547,11364,-0.17,1,0.191,0,0.305,0.732,431.619
129907,153841,9715,-0.17,1,0.191,0,0.305,0.732,431.623
129907,153602,11380,-0.171,1.002,0.184,-0.122,0.366,0.549,431.629
129915,153841,9715,-0.171,1.002,0.184,-0.122,0.366,0.549,431.633
129915,153607,11372,-0.165,1.003,0.19,0,0.122,0.244,431.639
129925,153841,9715,-0.165,1.003,0.19,0,0.122,0.244,431.643
129925,153617,11357,-0.166,0.995,0.189,-0.488,0.183,-0.061,431.649
129899,153841,9715,-0.166,0.995,0.189,-0.488,0.183,-0.061,431.653
129899,153605,11363,-0.171,0.995,0.191,-0.427,0.549,-0.244,431.659
129899,153585,9715,-0.171,0.995,0.191,-0.427,0.549,-0.244,431.663
129899,153579,11369,-0.172,0.998,0.193,-0.366,0.305,-0.305,431.669
129885,153585,9715,-0.172,0.998,0.193,-0.366,0.305,-0.305,431.673
129885,153590,11382,-0.169,0.997,0.192,-0.366,0.366,-0.305,431.679
129902,153585,9715,-0.169,0.997,0.192,-0.366,0.366,-0.305,431.683
129902,153575,11368,-0.167,0.997,0.194,-0.183,0.549,0.061,431.689
129889,153585,9715,-0.167,0.997,0.194,-0.183,0.549,0.061,431.692
129889,153552,11384,-0.175,0.993,0.197,0.244,0.793,0.305,431.699
129905,153585,9715,-0.175,0.993,0.197,0.244,0.793,0.305,431.702
129905,153554,11388,-0.171,0.989,0.196,0.732,1.159,0.183,431.708
129872,153585,9715,-0.171,0.989,0.196,0.732,1.159,0.183,431.712
129872,153546,11377,-0.174,1.001,0.188,1.159,1.159,0.366,431.718
129882,153585,9715,-0.174,1.001,0.188,1.159,1.159,0.366,431.722
129882,153519,11379,-0.175,1,0.186,0.854,1.037,0.366,431.728
129862,153585,9715,-0.175,1,0.186,0.854,1.037,0.366,431.732
129862,153516,11386,-0.179,0.998,0.183,0.427,0.915,0.671,431.738
129875,153585,9715,-0.179,0.998,0.183,0.427,0.915,0.671,431.742
129875,153516,11381,-0.174,1.005,0.187,-0.244,0.366,1.037,431.748
129861,153585,9715,-0.174,1.005,0.187,-0.244,0.366,1.037,431.752
129861,153524,11389,-0.174,1.004,0.19,-0.244,0.366,1.037,431.758
129883,153585,9715,-0.173,0.998,0.188,-0.427,0.061,1.402,431.762
129883,153508,11375,-0.172,1,0.184,-0.427,0.061,1.402,431.768
129870,153585,9715,-0.173,1,0.186,-0.366,0.183,1.463,431.772
129870,153500,11382,-0.172,1.001,0.185,-0.366,0.183,1.463,431.778
129845,153585,9715,-0.168,0.999,0.186,-0.305,0,1.402,431.782
129845,153519,11379,-0.17,1.003,0.189,-0.305,0,1.402,431.788
129845,153585,9715,-0.172,1.005,0.183,-0.671,-0.061,1.402,431.791
129845,153463,11388,-0.168,1.003,0.189,-0.671,-0.061,1.402,431.798
129845,153585,9715,-0.168,1,0.189,-1.098,-0.305,1.341,431.801
129845,153483,11374,-0.17,0.995,0.188,-1.098,-0.305,1.341,431.808
129847,153585,9715,-0.171,0.995,0.191,-0.854,-0.427,1.28,431.811
129847,153453,11387,-0.169,0.996,0.19,-0.854,-0.427,1.28,431.817
129859,153585,9715,-0.167,1,0.194,-0.244,-0.427,1.037,431.821
129859,153481,11387,-0.165,0.996,0.199,-0.244,-0.427,1.037,431.827
129860,153585,9715,-0.166,0.994,0.196,-0.122,-0.122,0.793,431.831
129860,153440,11368,-0.17,0.994,0.193,-0.122,-0.122,0.793,431.837
129831,153585,9715,-0.168,0.999,0.192,0.427,0.366,0.793,431.841
129831,153467,11380,-0.166,0.999,0.193,0.427,0.366,0.793,431.847
129842,153585,9715,-0.171,1.006,0.189,0.915,0.366,0.549,431.851
129842,153414,11373,-0.172,1.008,0.185,0.915,0.366,0.549,431.857
129860,153585,9715,-0.173,1.006,0.188,0.732,0.427,0.305,431.861
129860,153434,11386,-0.173,0.999,0.181,0.732,0.427,0.305,431.867
129835,153585,9715,-0.171,1.007,0.183,-0.061,0.244,0.732,431.871
129835,153444,11379,-0.17,1.009,0.185,-0.061,0.244,0.732,431.877
129850,153585,9715,-0.17,1.004,0.182,-0.915,-0.305,0.732,431.881
129850,153416,11372,-0.172,0.999,0.187,-0.915,-0.305,0.732,431.887
129815,153585,9715,-0.173,0.998,0.19,-1.22,-0.549,0.671,431.89
129815,153402,11380,-0.169,0.996,0.193,-1.22,-0.549,0.671,431.897
129827,153585,9715,-0.17,0.993,0.191,-1.159,-0.427,0.915,431.9
129827,153382,11390,-0.165,0.991,0.188,-1.159,-0.427,0.915,431.906
129783,153585,9715,-0.165,0.995,0.193,-0.549,-0.183,0.976,431.91
129783,153369,11375,-0.166,0.998,0.195,-0.549,-0.183,0.976,431.916
129795,153585,9715,-0.168,0.997,0.194,0.183,0.122,0.793,431.92
129795,153344,11376,-0.166,1,0.195,0.183,0.122,0.793,431.926
129791,153329,9715,-0.167,1.002,0.191,0.305,0.61,0.61,431.93
129791,153326,11373,-0.168,1.005,0.188,0.305,0.61,0.61,431.936
129781,153329,9715,-0.168,1.008,0.19,0.488,0.793,0.244,431.94
129781,153312,11376,-0.169,1.006,0.188,0.488,0.793,0.244,431.946
129784,153329,9715,-0.168,1.003,0.19,0.793,0.793,0.061,431.95
129784,153316,11363,-0.172,1,0.19,0.793,0.793,0.061,431.956
129770,153585,9715,-0.172,1.002,0.185,0.915,0.793,0,431.96
129770,153349,11379,-0.169,1.003,0.191,0.915,0.793,0,431.966
129783,153585,9715,-0.168,1.003,0.19,0.854,0.61,0.061,431.97
129783,153363,11357,-0.167,0.998,0.188,0.854,0.61,0.061,431.976
129789,153585,9715,-0.168,0.992,0.184,0.61,0.61,0.061,431.98
129789,153350,11372,-0.172,0.989,0.185,0.61,0.61,0.061,431.986
129797,153585,9715,-0.173,0.989,0.183,0.305,0.549,0.122,431.989
129797,153371,11368,-0.172,0.996,0.186,0.305,0.549,0.122,431.996
129761,153329,9715,-0.175,0.997,0.184,-0.366,0.122,0.549,431.999
129761,153342,11383,-0.173,0.998,0.184,-0.366,0.122,0.549,432.006
129760,153329,9715,-0.17,1.001,0.182,-1.098,-0.427,1.098,432.009
129760,153336,11366,-0.169,1.006,0.187,-1.098,-0.427,1.098,432.015
129773,153329,9715,-0.17,1.002,0.188,-1.89,-0.488,1.159,432.019
129773,153343,11360,-0.168,1.002,0.191,-1.89,-0.488,1.159,432.025
129775,153585,9715,-0.169,1.001,0.189,-1.951,-0.366,0.976,432.029
129775,153364,11370,-0.169,1.003,0.191,-1.951,-0.366,0.976,432.035
129782,153585,9715,-0.167,1.008,0.19,-1.463,-0.366,0.732,432.039
129782,153362,11355,-0.164,1.005,0.192,-1.463,-0.366,0.732,432.045
129767,153329,9715,-0.166,1.004,0.195,-0.732,-0.183,0.366,432.049
129767,153336,11359,-0.17,1,0.193,-0.732,-0.183,0.366,432.055
129761,153585,9715,-0.171,1.001,0.189,-0.122,0.244,0.366,432.059
129761,153346,11362,-0.168,1.001,0.19,-0.122,0.244,0.366,432.065
129758,153329,9715,-0.167,0.996,0.193,0.061,0.122,0.122,432.069
129758,153336,11360,-0.167,0.993,0.192,0.061,0.122,0.122,432.075
129742,153329,9715,-0.169,0.991,0.191,0.183,0.183,0.122,432.079
129742,153325,11369,-0.169,0.993,0.195,0.183,0.183,0.122,432.085
129729,153329,9715,-0.167,0.993,0.191,-0.183,0.305,0.366,432.088
129729,153281,11377,-0.167,0.987,0.19,-0.183,0.305,0.366,432.095
129722,153329,9715,-0.172,0.989,0.19,-0.366,0.244,0.366,432.098
129722,153246,11348,-0.172,0.996,0.188,-0.366,0.244,0.366,432.105
129713,153329,9715,-0.171,1.002,0.192,-0.61,0.122,0.305,432.108
129713,153244,11372,-0.168,1,0.193,-0.61,0.122,0.305,432.114
129760,153329,9715,-0.168,1.004,0.191,-0.61,-0.061,0.549,432.118
129760,153268,11356,-0.174,1.003,0.191,-0.61,-0.061,0.549,432.124
129728,153329,9715,-0.171,1,0.187,-0.427,0.183,0.61,432.128
129728,153290,11359,-0.171,1.002,0.188,-0.427,0.183,0.61,432.134
129752,153329,9715,-0.17,1.003,0.186,-0.427,-0.061,0.671,432.138
129752,153278,11366,-0.172,1.004,0.187,-0.427,-0.061,0.671,432.144
129738,153329,9715,-0.169,1.003,0.187,-0.671,-0.244,0.793,432.148
129738,153303,11374,-0.169,1.004,0.187,-0.671,-0.244,0.793,432.154
129740,153329,9715,-0.171,1.006,0.189,-0.915,-0.305,0.854,432.158
129740,153286,11361,-0.163,1.003,0.186,-0.915,-0.305,0.854,432.164
129707,153329,9715,-0.166,0.997,0.191,-1.28,-0.366,0.793,432.168
129707,153254,11364,-0.169,0.991,0.193,-1.28,-0.366,0.793,432.174
129714,153329,9715,-0.171,0.994,0.195,-1.098,-0.305,0.732,432.178
129714,153215,11356,-0.169,0.999,0.194,-1.098,-0.305,0.732,432.184
129683,153329,9715,-0.163,1.003,0.192,-0.549,-0.366,0.671,432.187
129683,153189,11368,-0.164,1.001,0.194,-0.549,-0.366,0.671,432.194
129689,153329,9715,-0.17,0.999,0.192,-0.427,-0.244,0.488,432.197
129689,153169,11352,-0.169,0.996,0.19,-0.427,-0.244,0.488,432.204
129703,153329,9715,-0.169,0.996,0.19,-0.427,-0.244,0.488,432.207
129703,153168,11378,-0.171,0.995,0.195,-0.427,0,0.488,432.213
129707,153329,9715,-0.171,0.995,0.195,-0.427,0,0.488,432.217
129707,153189,11347,-0.169,0.995,0.196,-0.488,-0.122,0.61,432.223
129718,153329,9715,-0.169,0.995,0.196,-0.488,-0.122,0.61,432.227
129718,153251,11362,-0.166,1,0.189,-0.305,-0.183,0.976,432.233
129708,153329,9715,-0.166,1,0.189,-0.305,-0.183,0.976,432.237
129708,153230,11359,-0.164,0.996,0.197,-0.305,-0.183,0.976,432.243
129709,153329,9715,-0.164,0.996,0.197,-0.305,-0.183,0.976,432.247
129709,153210,11372,-0.162,1,0.192,-0.427,0.061,1.037,432.253
129705,153329,9715,-0.162,1,0.192,-0.427,0.061,1.037,432.257
129705,153234,11355,-0.164,1.005,0.189,0.122,0.305,0.915,432.263
129697,153329,9715,-0.164,1.005,0.189,0.122,0.305,0.915,432.267
129697,153212,11378,-0.167,1.007,0.191,0.305,0.122,0.366,432.273
129673,153329,9715,-0.167,1.007,0.191,0.305,0.122,0.366,432.277
129673,153181,11360,-0.165,0.992,0.196,0.122,0.366,0.244,432.283
129681,153329,9715,-0.165,0.992,0.196,0.122,0.366,0.244,432.286
129681,153168,11351,-0.167,0.994,0.194,0.305,0.671,0.366,432.293
129674,153329,9715,-0.167,0.994,0.194,0.305,0.671,0.366,432.296
129674,153137,11367,-0.169,1.003,0.19,0.976,0.915,0.183,432.303
129666,153329,9715,-0.169,1.003,0.19,0.976,0.915,0.183,432.306
129666,153135,11368,-0.175,0.999,0.181,1.341,0.976,0.122,432.312
129671,153329,9715,-0.175,0.999,0.181,1.341,0.976,0.122,432.316
129671,153114,11366,-0.17,1.002,0.188,0.976,0.732,0.549,432.322
129676,153329,9715,-0.17,1.002,0.188,0.976,0.732,0.549,432.326
129676,153095,11346,-0.168,1.001,0.191,0.244,0.305,1.037,432.332
129645,153329,9715,-0.168,1.001,0.191,0.244,0.305,1.037,432.336
129645,153117,11378,-0.169,1.001,0.187,0.183,0.122,1.28,432.342
129670,153329,9715,-0.169,1.001,0.187,0.183,0.122,1.28,432.346
129670,153103,11360,-0.17,1.006,0.187,-0.183,-0.061,1.22,432.352
129637,153329,9715,-0.169,1.011,0.186,-0.183,-0.061,1.22,432.356
129637,153110,11363,-0.167,1.009,0.187,-0.976,-0.366,1.098,432.362
129675,153329,9715,-0.166,1.01,0.186,-0.976,-0.366,1.098,432.366
129675,153105,11362,-0.167,1.006,0.19,-1.402,-0.122,0.549,432.372
129647,153329,9715,-0.165,0.996,0.187,-1.402,-0.122,0.549,432.376
129647,153113,11370,-0.164,0.994,0.191,-0.854,0,0,432.382
129664,153329,9715,-0.159,0.998,0.193,-0.854,0,0,432.385
129664,153137,11358,-0.161,0.996,0.192,-0.732,-0.122,-0.061,432.392
129670,153329,9715,-0.163,0.993,0.192,-0.732,-0.122,-0.061,432.395
129670,153117,11360,-0.161,0.988,0.197,-0.854,0.244,0.061,432.402
129655,153329,9715,-0.164,0.984,0.199,-0.854,0.244,0.061,432.405
129655,153111,11359,-0.166,0.985,0.197,-0.244,0.671,0.061,432.411
129656,153329,9715,-0.167,0.992,0.198,-0.244,0.671,0.061,432.415
129656,153144,11369,-0.17,0.995,0.202,0.793,0.915,-0.061,432.421
129660,153329,9715,-0.172,1.002,0.194,0.793,0.915,-0.061,432.425
129660,153126,11362,-0.173,1.003,0.189,1.22,1.159,0.061,432.431
129650,153073,9715,-0.172,1.002,0.194,1.22,1.159,0.061,432.435
129650,153071,11374,-0.174,1,0.19,1.28,1.098,0.244,432.441
129637,153073,9715,-0.173,1.007,0.19,1.28,1.098,0.244,432.445
129637,153065,11362,-0.171,1.011,0.186,0.549,0.732,0.61,432.451
129640,153073,9715,-0.17,1.004,0.184,0.549,0.732,0.61,432.455
129640,153057,11354,-0.168,0.998,0.193,0,0.427,0.915,432.461
129626,153073,9715,-0.169,0.997,0.193,0,0.427,0.915,432.465
129626,153052,11368,-0.168,0.998,0.189,-0.183,0.366,0.915,432.471
129618,153073,9715,-0.166,0.999,0.189,-0.183,0.366,0.915,432.475
129618,153018,11376,-0.166,1.001,0.186,-0.427,0.305,0.427,432.481
129601,153073,9715,-0.168,1.004,0.185,-0.427,0.305,0.427,432.484
129601,153004,11370,-0.167,1.004,0.188,-0.671,0.244,0.427,432.491
129585,153073,9715,-0.163,1.004,0.189,-0.671,0.244,0.427,432.494
129585,153004,11351,-0.168,0.996,0.189,-0.915,0,0.305,432.501
129581,153073,9715,-0.166,0.999,0.187,-0.915,0,0.305,432.504
129581,152980,11381,-0.167,1.004,0.19,-1.037,0,0.305,432.51
129589,153073,9715,-0.167,1.003,0.188,-1.037,0,0.305,432.514
129589,152982,11366,-0.169,1,0.188,-1.159,-0.061,0.183,432.52
129577,153073,9715,-0.17,1.002,0.189,-1.159,-0.061,0.183,432.524
129577,152996,11369,-0.168,1.002,0.187,-1.22,-0.122,0.305,432.53
129584,153073,9715,-0.169,0.997,0.192,-1.22,-0.122,0.305,432.534
129584,152991,11369,-0.169,0.994,0.194,-1.28,-0.305,0.549,432.54
129592,153073,9715,-0.165,0.998,0.194,-1.28,-0.305,0.549,432.544
129592,152971,11360,-0.165,0.995,0.195,-1.22,-0.183,0.671,432.55
129587,153073,9715,-0.169,0.995,0.194,-1.22,-0.183,0.671,432.554
129587,152988,11373,-0.169,0.995,0.192,-0.61,0,0.732,432.56
129593,153073,9715,-0.168,0.997,0.194,-0.61,0,0.732,432.564
129593,152979,11365,-0.167,0.994,0.195,-0.366,0.061,0.732,432.57
129582,153073,9715,-0.167,0.994,0.196,-0.366,0.061,0.732,432.574
129582,153008,11375,-0.167,0.993,0.195,0.122,0.366,0.854,432.58
129606,153073,9715,-0.168,0.998,0.193,0.122,0.366,0.854,432.583
129606,152991,11377,-0.163,1.005,0.191,0.549,0.427,0.793,432.59
129574,153073,9715,-0.161,1.008,0.195,0.549,0.427,0.793,432.593
129574,152969,11380,-0.162,1.004,0.193,0.244,0.305,0.549,432.6
129584,153073,9715,-0.165,1,0.189,0.244,0.305,0.549,432.603
129584,152954,11373,-0.168,1.001,0.19,0.183,0.61,0.488,432.609
129575,153073,9715,-0.165,1.008,0.189,0.183,0.61,0.488,432.613
129575,152930,11364,-0.162,1.004,0.192,0.244,0.488,0.305,432.619
129563,153073,9715,-0.163,1.001,0.193,0.244,0.488,0.305,432.623
129563,152906,11368,-0.168,0.999,0.19,0.427,0.793,0.061,432.629
129558,153073,9715,-0.167,0.996,0.193,0.427,0.793,0.061,432.633
129558,152884,11362,-0.163,0.992,0.192,0.549,0.976,-0.305,432.639
129530,153073,9715,-0.164,0.997,0.194,0.549,0.976,-0.305,432.643
129530,152889,11366,-0.166,0.999,0.195,1.098,1.22,-0.427,432.649
129536,153073,9715,-0.166,0.997,0.193,1.098,1.22,-0.427,432.653
129536,152901,11371,-0.168,0.993,0.195,1.951,1.585,-0.549,432.659
129527,153073,9715,-0.168,0.996,0.193,1.951,1.585,-0.549,432.663
129527,152887,11369,-0.167,1.003,0.194,2.317,1.951,-0.549,432.669
129487,153073,9715,-0.167,1.004,0.192,2.317,1.951,-0.549,432.673
129487,152867,11363,-0.17,0.997,0.191,2.439,2.195,-0.366,432.679
129521,153073,9715,-0.172,0.994,0.193,2.439,2.195,-0.366,432.682
129521,152840,11368,-0.173,0.993,0.193,2.622,2.195,-0.244,432.689
129520,153073,9715,-0.171,0.995,0.19,2.622,2.195,-0.244,432.692
129520,152840,11349,-0.171,1,0.184,2.317,2.134,0.122,432.699
129504,153073,9715,-0.17,1.006,0.186,2.317,2.134,0.122,432.702
129504,152870,11367,-0.17,1.006,0.186,2.012,1.89,0.305,432.708
129524,153073,9715,-0.169,1.004,0.187,2.012,1.89,0.305,432.712
129524,152842,11368,-0.17,1.005,0.183,1.585,1.585,0.183,432.718
129520,153073,9715,-0.172,1.002,0.184,1.585,1.585,0.183,432.722
129520,152871,11364,-0.171,1.006,0.183,1.768,1.463,0.122,432.728
129489,153073,9715,-0.168,1.009,0.18,1.768,1.463,0.122,432.732
129489,152846,11353,-0.167,1.01,0.183,1.341,1.22,0,432.738
129521,153073,9715,-0.166,1.007,0.186,1.341,1.22,0,432.742
129521,152849,11348,-0.166,1.004,0.182,0.488,0.976,-0.244,432.748
129499,153073,9715,-0.168,1.004,0.18,0.488,0.976,-0.244,432.752
129499,152872,11369,-0.167,1.004,0.181,-0.061,0.915,-0.488,432.758
129515,153073,9715,-0.166,1.006,0.184,-0.061,0.915,-0.488,432.762
129515,152884,11347,-0.169,1.004,0.18,-0.61,0.671,-0.671,432.768
129510,153073,9715,-0.17,0.994,0.181,-0.61,0.671,-0.671,432.772
129510,152894,11364,-0.174,0.99,0.182,-1.341,0.427,-0.549,432.778
129533,153073,9715,-0.173,0.989,0.181,-1.341,0.427,-0.549,432.781
129533,152886,11356,-0.171,0.994,0.184,-2.134,0,-0.122,432.788
129548,153073,9715,-0.172,0.993,0.187,-2.134,0,-0.122,432.791
129548,152910,11357,-0.169,0.992,0.192,-2.378,-0.305,0.122,432.798
129534,153073,9715,-0.169,0.992,0.192,-2.378,-0.305,0.122,432.801
129534,152893,11353,-0.17,0.997,0.194,-1.829,-0.244,0.244,432.807
129515,153073,9715,-0.17,0.997,0.194,-1.829,-0.244,0.244,432.811
129515,152846,11349,-0.172,1.002,0.192,-0.793,0.061,0.305,432.817
129492,153073,9715,-0.172,1.002,0.192,-0.793,0.061,0.305,432.821
129492,152855,11349,-0.169,1.003,0.187,-0.061,0.305,0.427,432.827
129507,152817,9715,-0.169,1.003,0.187,-0.061,0.305,0.427,432.831
129507,152827,11361,-0.171,1.008,0.183,0.244,0.427,0.61,432.837
129490,152817,9715,-0.171,1.008,0.183,0.244,0.427,0.61,432.841
129490,152831,11353,-0.168,1.001,0.185,-0.061,0.122,0.61,432.847
129493,152817,9715,-0.168,1.001,0.185,-0.061,0.122,0.61,432.851
129493,152824,11359,-0.173,0.997,0.187,0.244,0,0.671,432.857
129509,152817,9715,-0.173,0.997,0.187,0.244,0,0.671,432.861
129509,152806,11342,-0.167,1.004,0.183,0.061,-0.305,0.671,432.867
129483,153073,9715,-0.167,1.004,0.183,0.061,-0.305,0.671,432.871
129483,152849,11365,-0.169,0.994,0.185,-0.366,-0.488,0.61,432.877
129508,153073,9715,-0.169,0.994,0.185,-0.366,-0.488,0.61,432.881
129508,152854,11348,-0.173,0.99,0.188,-1.037,-0.366,0.732,432.887
129514,153073,9715,-0.173,0.99,0.188,-1.037,-0.366,0.732,432.89
129514,152891,11358,-0.17,0.989,0.193,-1.402,-0.549,0.915,432.897
129537,153073,9715,-0.17,0.989,0.193,-1.402,-0.549,0.915,432.9
129537,152884,11356,-0.165,1.004,0.192,-1.524,-0.549,0.854,432.906
129541,153073,9715,-0.165,1.004,0.192,-1.524,-0.549,0.854,432.91
129541,152944,11370,-0.168,1.001,0.193,-1.463,-0.244,0.671,432.916
129546,153073,9715,-0.168,1.001,0.193,-1.463,-0.244,0.671,432.92
129546,152944,11362,-0.164,1.004,0.194,-0.671,0.122,0.366,432.926
129582,153073,9715,-0.164,1.004,0.194,-0.671,0.122,0.366,432.93
129582,152967,11359,-0.164,1.005,0.197,-0.305,0.366,0,432.936
129594,153073,9715,-0.164,1.005,0.197,-0.305,0.366,0,432.94
129594,153000,11364,-0.166,1.001,0.195,-0.305,0.366,0,432.946
129597,153073,9715,-0.165,0.996,0.195,-0.122,0.61,-0.366,432.95
129597,153021,11364,-0.166,0.991,0.194,-0.122,0.61,-0.366,432.956
129603,153073,9715,-0.167,0.99,0.194,0.122,0.854,-0.427,432.96
129603,153030,11375,-0.169,0.991,0.192,0.122,0.854,-0.427,432.966
129625,153073,9715,-0.169,0.992,0.198,0.427,1.098,-0.427,432.97
129625,153026,11370,-0.169,0.988,0.195,0.427,1.098,-0.427,432.976
129611,153073,9715,-0.173,0.992,0.193,1.22,1.402,-0.305,432.979
129611,153066,11372,-0.171,1.003,0.188,1.22,1.402,-0.305,432.986
129618,153073,9715,-0.168,1.005,0.19,1.707,1.524,-0.061,432.989
129618,153086,11374,-0.166,1.001,0.19,1.707,1.524,-0.061,432.996
129642,153329,9715,-0.172,1.002,0.187,2.317,1.646,-0.122,432.999
129642,153091,11366,-0.175,1.004,0.181,2.317,1.646,-0.122,433.005
129628,153329,9715,-0.174,1.005,0.18,2.256,1.89,-0.183,433.009
129628,153120,11371,-0.174,1.007,0.181,2.256,1.89,-0.183,433.015
129657,153329,9715,-0.174,1.007,0.181,1.768,1.707,0.183,433.019
129657,153175,11371,-0.174,1.001,0.181,1.768,1.707,0.183,433.025
129669,153329,9715,-0.173,0.999,0.177,1.524,1.341,0.488,433.029
129669,153206,11370,-0.172,0.998,0.18,1.524,1.341,0.488,433.035
129680,153329,9715,-0.169,1,0.183,0.854,0.915,0.427,433.039
129680,153217,11379,-0.165,1.003,0.184,0.854,0.915,0.427,433.045
129683,153329,9715,-0.165,0.999,0.185,-0.244,0.854,0.488,433.049
129683,153208,11356,-0.168,0.987,0.185,-0.244,0.854,0.488,433.055
129688,153329,9715,-0.168,0.984,0.189,-0.244,0.915,0.366,433.059
129688,153168,11364,-0.168,0.996,0.188,-0.244,0.915,0.366,433.065
129654,153329,9715,-0.164,1.006,0.184,0.061,0.915,0.122,433.069
129654,153150,11380,-0.166,1.009,0.185,0.061,0.915,0.122,433.075
129669,153329,9715,-0.165,1.008,0.181,-0.122,0.61,-0.122,433.079
129669,153140,11367,-0.171,1.004,0.184,-0.122,0.61,-0.122,433.085
129652,153329,9715,-0.171,1.001,0.182,-0.61,0.61,-0.305,433.088
129652,153138,11369,-0.173,0.998,0.187,-0.61,0.61,-0.305,433.095
129636,153329,9715,-0.173,0.996,0.185,-0.732,0.549,-0.183,433.098
129636,153100,11362,-0.17,0.997,0.183,-0.732,0.549,-0.183,433.104
129632,153073,9715,-0.172,0.995,0.185,-0.793,0.244,-0.061,433.108
129632,153074,11370,-0.173,0.997,0.186,-0.793,0.244,-0.061,433.114
129574,153073,9715,-0.172,0.996,0.19,-0.976,0.122,0.122,433.118
129574,153052,11367,-0.173,0.996,0.188,-0.976,0.122,0.122,433.124
129563,153073,9715,-0.171,0.994,0.191,-0.793,0.061,0.305,433.128
129563,152959,11360,-0.174,0.998,0.186,-0.793,0.061,0.305,433.134
129553,153073,9715,-0.173,1.003,0.184,-1.037,0,0.366,433.138
129553,152924,11361,-0.173,1.002,0.185,-1.037,0,0.366,433.144
129527,153073,9715,-0.173,1.004,0.185,-1.037,0.122,0.488,433.148
129527,152895,11364,-0.173,1.003,0.185,-1.037,0.122,0.488,433.154
129485,152817,9715,-0.172,1.001,0.182,-1.28,-0.183,0.488,433.158
129485,152802,11365,-0.171,1.001,0.181,-1.28,-0.183,0.488,433.164
