127636,146417,9715,-0.226,0.95,-0.054,-0.854,1.402,0.549,339.29
127636,146419,11164,-0.222,0.977,-0.056,-0.854,1.402,0.549,339.296
127544,146417,9715,-0.215,1.007,-0.05,7.622,1.768,0.732,339.3
127544,146289,11155,-0.214,1.05,-0.07,7.622,1.768,0.732,339.306
127530,146417,9715,-0.217,1.089,-0.085,6.89,2.317,0.915,339.31
127530,146279,11174,-0.219,1.09,-0.06,6.89,2.317,0.915,339.316
127561,146417,9715,-0.213,1.048,-0.03,-0.183,0.793,0.366,339.32
127561,146345,11158,-0.205,0.998,-0.024,-0.183,0.793,0.366,339.326
127665,146673,9715,-0.199,0.96,-0.03,-5.915,-0.976,0.183,339.329
127665,146485,11182,-0.192,0.945,-0.048,-5.915,-0.976,0.183,339.336
127707,146673,9715,-0.191,0.963,-0.094,-6.159,0.183,0.549,339.339
127707,146524,11154,-0.199,0.991,-0.104,-6.159,0.183,0.549,339.346
127677,146673,9715,-0.213,1.007,-0.05,0.976,1.463,-0.122,339.349
127677,146461,11187,-0.225,1.018,0.01,0.976,1.463,-0.122,339.355
127460,146161,9715,-0.227,1.022,0.033,7.256,0.915,0,339.359
127460,146160,11153,-0.218,1.022,-0.01,7.256,0.915,0,339.365
127386,146161,9715,-0.212,1.018,-0.068,1.89,1.28,-0.366,339.369
127386,146069,11148,-0.211,1.014,-0.085,1.89,1.28,-0.366,339.375
127326,146161,9715,-0.218,1.011,-0.099,-2.744,1.829,-0.427,339.379
127326,145994,11144,-0.218,1.002,-0.11,-2.744,1.829,-0.427,339.385
127390,146161,9715,-0.22,0.993,-0.095,-2.866,0.549,0,339.389
127390,146119,11156,-0.226,0.987,-0.051,-2.866,0.549,0,339.395
127402,146161,9715,-0.228,0.993,-0.013,-1.89,-0.549,0.61,339.399
127402,146147,11140,-0.215,0.997,-0.002,-1.89,-0.549,0.61,339.405
127459,146417,9715,-0.206,0.996,0.009,-1.098,-0.122,0.793,339.409
127459,146221,11171,-0.196,0.987,0.001,-1.098,-0.122,0.793,339.415
127391,146161,9715,-0.2,0.983,-0.038,0.183,1.402,0.915,339.419
127391,146065,11143,-0.21,1,-0.078,0.183,1.402,0.915,339.425
127256,145905,9715,-0.218,1.003,-0.051,-0.122,2.439,0.915,339.428
127256,145906,11136,-0.219,0.989,0.015,-0.122,2.439,0.915,339.435
127200,145905,9715,-0.211,0.993,0.015,4.085,1.098,0.61,339.438
127200,145840,11149,-0.202,1.024,-0.045,4.085,1.098,0.61,339.445
127152,145905,9715,-0.204,1.055,-0.103,3.11,2.378,0.549,339.448
127152,145784,11121,-0.218,1.051,-0.116,3.11,2.378,0.549,339.454
127190,145905,9715,-0.233,1.03,-0.135,-0.549,3.598,0.488,339.458
127190,145825,11139,-0.241,1.023,-0.149,-0.549,3.598,0.488,339.464
127362,146161,9715,-0.234,1.003,-0.103,-3.171,-0.122,0.366,339.468
127362,146117,11149,-0.221,0.976,-0.053,-3.171,-0.122,0.366,339.474
127504,146417,9715,-0.207,0.97,-0.042,-1.159,-3.354,0.305,339.478
127504,146230,11144,-0.2,0.972,-0.02,-1.159,-3.354,0.305,339.484
127486,146417,9715,-0.205,0.982,0.007,1.951,-1.524,0.915,339.488
127486,146244,11146,-0.212,0.992,-0.01,1.951,-1.524,0.915,339.494
127304,146161,9715,-0.211,1.018,-0.065,2.622,0.732,0.366,339.498
127304,146005,11141,-0.219,1.026,-0.081,2.622,0.732,0.366,339.504
127256,145905,9715,-0.233,1.013,-0.075,0.488,1.159,-0.183,339.508
127256,145870,11137,-0.239,1.007,-0.097,0.488,1.159,-0.183,339.514
127174,145905,9715,-0.232,0.994,-0.1,-0.427,-0.549,0.732,339.518
127174,145772,11142,-0.228,0.973,-0.054,-0.427,-0.549,0.732,339.524
127166,145905,9715,-0.225,0.971,-0.029,0.061,-1.829,1.28,339.527
127166,145785,11136,-0.213,0.995,-0.029,0.061,-1.829,1.28,339.534
127083,145649,9715,-0.199,1.006,0.006,0.549,-1.585,2.317,339.537
127083,145619,11114,-0.184,1.015,0.026,0.549,-1.585,2.317,339.544
126989,145649,9715,-0.178,1.036,-0.01,-2.012,-0.793,2.134,339.547
126989,145536,11126,-0.189,1.044,-0.054,-2.012,-0.793,2.134,339.553
126996,145649,9715,-0.198,1.032,-0.075,-6.22,1.463,1.037,339.557
126996,145496,11116,-0.217,1.016,-0.095,-6.22,1.463,1.037,339.563
127035,145649,9715,-0.228,0.993,-0.102,-5.427,1.585,-0.366,339.567
127035,145565,11125,-0.229,0.979,-0.088,-5.427,1.585,-0.366,339.573
126973,145649,9715,-0.223,0.979,-0.061,0,-0.366,-0.915,339.577
126973,145534,11128,-0.222,0.991,-0.031,0,-0.366,-0.915,339.583
126777,145393,9715,-0.217,1.019,-0.014,4.39,-0.793,-0.366,339.587
126777,145283,11089,-0.213,1.046,0.007,4.39,-0.793,-0.366,339.593
126674,145137,9715,-0.195,1.036,0.011,4.39,-0.366,-0.549,339.597
126674,145094,11106,-0.189,1.03,-0.043,4.39,-0.366,-0.549,339.603
126541,145137,9715,-0.201,1.037,-0.085,0.061,0.732,-1.22,339.607
126541,144909,11073,-0.219,1.014,-0.067,0.061,0.732,-1.22,339.613
126336,144881,9715,-0.217,0.977,-0.066,-2.805,2.012,-0.915,339.617
126336,144676,11051,-0.218,0.975,-0.087,-2.805,2.012,-0.915,339.623
126157,144625,9715,-0.223,0.979,-0.089,-4.512,0.305,-0.488,339.626
126157,144439,11046,-0.218,0.95,-0.046,-4.512,0.305,-0.488,339.633
126147,144625,9715,-0.209,0.935,-0.033,-1.707,-0.488,0.549,339.636
126147,144443,11050,-0.208,0.967,-0.07,-1.707,-0.488,0.549,339.643
126076,144369,9715,-0.209,0.989,-0.052,0.061,0.061,1.646,339.646
126076,144323,11017,-0.212,0.987,-0.002,0.061,0.061,1.646,339.652
126073,144625,9715,-0.211,1.006,-0.023,3.293,0.61,2.317,339.656
126073,144398,11032,-0.206,1.035,-0.068,3.293,0.61,2.317,339.662
126102,144625,9715,-0.209,1.037,-0.053,1.829,0.915,2.012,339.666
126102,144393,11032,-0.214,1.019,-0.029,1.829,0.915,2.012,339.672
126160,144625,9715,-0.216,1.014,-0.042,0.122,0.793,1.28,339.676
126160,144446,11039,-0.218,1.013,-0.07,0.122,0.793,1.28,339.682
126111,144625,9715,-0.218,1.01,-0.073,-1.159,0.122,0.976,339.686
126111,144399,11017,-0.22,1.009,-0.066,-1.159,0.122,0.976,339.692
126037,144369,9715,-0.223,1.022,-0.055,1.524,0.732,0.732,339.696
126037,144280,11033,-0.227,1.035,-0.053,1.524,0.732,0.732,339.702
125943,144369,9715,-0.223,1.034,-0.039,2.195,0.488,0.61,339.706
125943,144227,11017,-0.217,1.026,-0.014,2.195,0.488,0.61,339.712
126046,144369,9715,-0.209,1.019,0.006,1.159,-0.488,-0.061,339.716
126046,144310,11029,-0.195,1.002,0.017,1.159,-0.488,-0.061,339.722
125966,144369,9715,-0.195,1.002,0.017,1.159,-0.488,-0.061,339.725
125966,144243,11026,-0.189,0.99,-0.035,-0.854,-0.244,-0.61,339.732
125905,144369,9715,-0.189,0.99,-0.035,-0.854,-0.244,-0.61,339.735
125905,144142,11033,-0.207,0.982,-0.105,-2.256,2.134,-0.732,339.742
125947,144369,9715,-0.207,0.982,-0.105,-2.256,2.134,-0.732,339.745
125947,144221,11039,-0.229,0.974,-0.099,-1.585,3.598,-1.159,339.751
126096,144369,9715,-0.229,0.974,-0.099,-1.585,3.598,-1.159,339.755
126096,144374,11044,-0.231,1.008,-0.101,1.402,1.951,-0.366,339.761
126165,144625,9715,-0.231,1.008,-0.101,1.402,1.951,-0.366,339.765
126165,144456,11056,-0.223,0.991,-0.001,1.89,0.122,0.915,339.771
126108,144369,9715,-0.223,0.991,-0.001,1.89,0.122,0.915,339.775
126108,144372,11044,-0.205,1.016,-0.044,2.5,-0.854,1.829,339.781
126106,144369,9715,-0.205,1.016,-0.044,2.5,-0.854,1.829,339.785
126106,144344,11035,-0.202,1.004,0.016,0.366,-0.488,2.012,339.791
126083,144369,9715,-0.202,1.004,0.016,0.366,-0.488,2.012,339.795
126083,144356,11048,-0.202,1.023,-0.093,-0.122,0,1.28,339.801
126189,144625,9715,-0.202,1.023,-0.093,-0.122,0,1.28,339.805
126189,144483,11045,-0.224,1,-0.081,-3.232,1.89,0.732,339.811
126206,144625,9715,-0.224,1,-0.081,-3.232,1.89,0.732,339.815
126206,144497,11053,-0.216,0.993,-0.072,-0.671,1.829,1.341,339.821
126114,144369,9715,-0.216,0.993,-0.072,-0.671,1.829,1.341,339.824
126114,144337,11040,-0.22,1.022,-0.05,1.768,-0.061,1.037,339.831
125846,144113,9715,-0.22,1.022,-0.05,1.768,-0.061,1.037,339.834
125846,143988,11010,-0.209,1.018,-0.045,2.439,0.427,1.159,339.841
125643,143857,9715,-0.209,1.018,-0.045,2.439,0.427,1.159,339.844
125643,143696,11004,-0.205,1.026,-0.076,0.122,-0.183,0.732,339.85
125557,143601,9715,-0.205,1.026,-0.076,0.122,-0.183,0.732,339.854
125557,143613,11007,-0.208,0.998,-0.03,-2.439,-0.549,0.122,339.86
125566,143857,9715,-0.208,0.998,-0.03,-2.439,-0.549,0.122,339.864
125566,143616,10996,-0.208,1.005,-0.06,-1.951,-0.854,0.244,339.87
125612,143857,9715,-0.209,0.995,-0.055,-1.951,-0.854,0.244,339.874
125612,143691,10996,-0.215,0.993,-0.05,-0.61,0.366,-0.244,339.88
125451,143601,9715,-0.224,0.998,-0.046,-0.61,0.366,-0.244,339.884
125451,143453,10974,-0.223,0.994,-0.03,0.61,0.854,0.122,339.89
125294,143345,9715,-0.215,0.994,-0.043,0.61,0.854,0.122,339.894
125294,143285,10974,-0.208,1,-0.065,-0.427,0.122,0.427,339.9
125183,143345,9715,-0.207,0.995,-0.05,-0.427,0.122,0.427,339.904
125183,143157,10942,-0.206,0.978,-0.016,0.366,0.488,1.098,339.91
125266,143345,9715,-0.198,0.976,-0.032,0.366,0.488,1.098,339.914
125266,143233,10961,-0.197,1.001,-0.073,0.976,0.244,1.524,339.92
125202,143345,9715,-0.202,1.022,-0.082,0.976,0.244,1.524,339.923
125202,143151,10950,-0.208,1.029,-0.062,0,1.159,1.159,339.93
125303,143345,9715,-0.221,1.029,-0.056,0,1.159,1.159,339.933
125303,143296,10970,-0.227,1.031,-0.062,0.427,1.28,1.098,339.94
125240,143345,9715,-0.221,1.028,-0.055,0.427,1.28,1.098,339.943
125240,143270,10952,-0.218,1.013,-0.029,-0.183,0.122,0.366,339.949
125374,143601,9715,-0.217,1.002,-0.002,-0.183,0.122,0.366,339.953
125374,143438,10971,-0.211,0.993,-0.002,0.244,-0.305,0.366,339.959
125450,143601,9715,-0.201,1.009,-0.028,0.244,-0.305,0.366,339.963
125450,143507,10979,-0.195,1.022,-0.039,-0.305,0.793,-0.061,339.969
125477,143601,9715,-0.203,1.015,-0.037,-0.305,0.793,-0.061,339.973
125477,143560,10977,-0.212,1.003,-0.048,-1.22,1.768,-0.732,339.979
125511,143601,9715,-0.214,0.992,-0.084,-1.22,1.768,-0.732,339.983
125511,143585,10995,-0.216,0.983,-0.117,-1.829,1.707,-0.488,339.989
125507,143601,9715,-0.222,0.982,-0.134,-1.829,1.707,-0.488,339.993
125507,143607,10978,-0.23,0.989,-0.131,-1.341,1.28,-0.183,339.999
125535,143857,9715,-0.234,0.997,-0.11,-1.341,1.28,-0.183,340.003
125535,143643,11002,-0.226,0.994,-0.087,-0.244,-1.098,1.159,340.009
125448,143601,9715,-0.219,1.002,-0.042,-0.244,-1.098,1.159,340.013
125448,143473,10976,-0.211,0.996,0.019,0.61,-3.049,2.012,340.019
125183,143345,9715,-0.193,0.982,0.043,0.61,-3.049,2.012,340.022
125183,143160,10950,-0.182,0.995,0.021,0.61,-2.5,2.073,340.029
125101,143089,9715,-0.185,1.017,0.002,0.61,-2.5,2.073,340.032
125101,143076,10952,-0.187,1.012,-0.015,-0.61,0.366,1.585,340.039
125102,143089,9715,-0.192,1.018,-0.062,-0.61,0.366,1.585,340.042
125102,143083,10943,-0.211,1.04,-0.098,-0.183,2.622,0.183,340.048
125296,143345,9715,-0.225,1.026,-0.078,-0.183,2.622,0.183,340.052
125296,143317,10974,-0.232,0.998,-0.063,1.463,2.378,-0.427,340.058
125272,143345,9715,-0.228,1.007,-0.111,1.463,2.378,-0.427,340.062
125272,143350,10976,-0.231,1.018,-0.126,1.463,1.098,-0.244,340.068
125353,143601,9715,-0.23,1.011,-0.081,1.463,1.098,-0.244,340.072
125353,143395,10983,-0.223,1.005,-0.047,1.707,0.061,0.183,340.078
125204,143345,9715,-0.214,1.011,-0.044,1.707,0.061,0.183,340.082
125204,143179,10959,-0.201,1.014,-0.015,0.488,-1.89,0.671,340.088
125169,143345,9715,-0.196,0.992,0.027,0.488,-1.89,0.671,340.092
125169,143153,10958,-0.188,0.985,-0.005,0.305,-1.463,0.671,340.098
125164,143345,9715,-0.193,0.999,-0.069,0.305,-1.463,0.671,340.102
125164,143121,10959,-0.208,0.995,-0.069,-2.256,0.793,0.366,340.108
125072,143089,9715,-0.214,0.976,-0.052,-2.256,0.793,0.366,340.112
125072,143040,10956,-0.216,0.975,-0.071,-1.28,0.549,0.305,340.118
124981,143089,9715,-0.217,0.972,-0.077,-1.28,0.549,0.305,340.121
124981,142891,10927,-0.216,0.968,-0.061,0.244,-0.183,0.976,340.128
124885,142833,9715,-0.217,0.977,-0.062,0.244,-0.183,0.976,340.131
124885,142785,10939,-0.217,1.004,-0.071,2.073,0.427,2.134,340.138
124872,142833,9715,-0.211,1.031,-0.065,2.073,0.427,2.134,340.141
124872,142752,10934,-0.209,1.042,-0.042,1.646,-0.183,2.439,340.147
124878,142833,9715,-0.205,1.037,-0.026,1.646,-0.183,2.439,340.151
124878,142738,10914,-0.203,1.031,-0.03,0.488,-1.098,1.89,340.157
124889,142833,9715,-0.206,1.024,-0.01,0.488,-1.098,1.89,340.161
124889,142803,10945,-0.205,1.009,0.02,-0.488,-0.305,1.037,340.167
124950,142833,9715,-0.205,1,0.015,-0.488,-0.305,1.037,340.171
124950,142834,10944,-0.201,1.017,-0.028,1.159,1.098,0.244,340.177
124976,143089,9715,-0.204,1.036,-0.07,1.159,1.098,0.244,340.181
124976,142948,10963,-0.219,1.039,-0.089,0.976,3.049,-1.28,340.187
125095,143089,9715,-0.23,1.026,-0.093,0.976,3.049,-1.28,340.191
125095,143021,10961,-0.234,1.005,-0.099,0.183,2.5,-1.707,340.197
125057,143089,9715,-0.233,0.988,-0.111,0.183,2.5,-1.707,340.201
125057,143000,10952,-0.226,0.973,-0.106,-1.098,0.244,-0.915,340.207
125064,143089,9715,-0.218,0.965,-0.09,-1.098,0.244,-0.915,340.211
125064,143009,10956,-0.213,0.973,-0.065,0.366,-0.915,0.122,340.217
125087,143089,9715,-0.203,0.989,-0.034,0.366,-0.915,0.122,340.221
125087,143033,10956,-0.2,0.999,0.02,2.317,-1.524,0.976,340.227
125196,143345,9715,-0.186,0.987,0.042,2.317,-1.524,0.976,340.23
125196,143178,10978,-0.176,1.002,-0.025,3.171,-0.671,1.341,340.237
125205,143345,9715,-0.188,1.038,-0.103,3.171,-0.671,1.341,340.24
125205,143170,10969,-0.205,1.042,-0.109,-1.829,2.561,0.854,340.246
125203,143345,9715,-0.222,1.018,-0.076,-1.829,2.561,0.854,340.25
125203,143188,10963,-0.223,0.998,-0.075,-2.195,1.098,0.427,340.256
125196,143345,9715,-0.217,0.975,-0.08,-2.195,1.098,0.427,340.26
125196,143132,10960,-0.216,0.963,-0.07,-1.098,-0.732,0.61,340.266
125059,143089,9715,-0.214,0.988,-0.066,-1.098,-0.732,0.61,340.27
125059,143009,10955,-0.213,1.021,-0.068,1.037,0.61,1.341,340.276
125082,143089,9715,-0.213,1.038,-0.054,1.037,0.61,1.341,340.28
125082,143033,10977,-0.209,1.043,-0.023,2.866,-0.122,0.671,340.286
125179,143345,9715,-0.209,1.035,0.009,2.866,-0.122,0.671,340.29
125179,143181,10979,-0.205,1.017,0.002,2.439,-0.549,-0.183,340.296
125336,143601,9715,-0.202,1.011,-0.039,2.439,-0.549,-0.183,340.3
125336,143365,10971,-0.209,1.016,-0.075,-1.707,0.976,-0.61,340.306
125296,143345,9715,-0.209,1.016,-0.075,-1.707,0.976,-0.61,340.31
125296,143347,10984,-0.218,0.983,-0.057,-2.317,1.402,-0.915,340.316
125218,143345,9715,-0.218,0.983,-0.057,-2.317,1.402,-0.915,340.319
125218,143184,10965,-0.218,0.976,-0.066,0.244,0.488,-0.549,340.326
125133,143345,9715,-0.218,0.976,-0.066,0.244,0.488,-0.549,340.329
125133,143122,10974,-0.218,0.996,-0.064,1.829,0.976,0,340.336
125133,143089,9715,-0.218,0.996,-0.064,1.829,0.976,0,340.339
125133,143078,10956,-0.212,1.022,-0.082,0.549,0.366,0.549,340.345
125150,143345,9715,-0.212,1.022,-0.082,0.549,0.366,0.549,340.349
125150,143142,10967,-0.21,0.991,-0.031,-0.915,-1.037,0.427,340.355
125231,143345,9715,-0.21,0.991,-0.031,-0.915,-1.037,0.427,340.359
125231,143254,10987,-0.2,0.984,-0.011,-0.793,-1.22,0.549,340.365
125349,143601,9715,-0.2,0.984,-0.011,-0.793,-1.22,0.549,340.369
125349,143417,10991,-0.199,1.02,-0.073,-0.488,0.366,0.549,340.375
125281,143345,9715,-0.199,1.02,-0.073,-0.488,0.366,0.549,340.379
125281,143289,10975,-0.223,1.025,-0.078,0.854,1.646,0.183,340.385
125227,143345,9715,-0.223,1.025,-0.078,0.854,1.646,0.183,340.389
125227,143266,10983,-0.222,0.999,-0.046,0.305,0.122,0.305,340.395
125217,143345,9715,-0.222,0.999,-0.046,0.305,0.122,0.305,340.399
125217,143250,10975,-0.214,0.997,-0.083,-1.341,-0.305,0.671,340.405
125264,143345,9715,-0.214,0.997,-0.083,-1.341,-0.305,0.671,340.409
125264,143317,10987,-0.208,0.979,0.02,0.122,-0.549,0.854,340.415
125277,143345,9715,-0.208,0.979,0.02,0.122,-0.549,0.854,340.419
125277,143344,10997,-0.188,1.011,0.017,3.11,-1.037,0.488,340.425
125372,143601,9715,-0.188,1.011,0.017,3.11,-1.037,0.488,340.428
125372,143479,11010,-0.19,1.031,-0.047,2.317,2.317,-0.793,340.435
125451,143601,9715,-0.19,1.031,-0.047,2.317,2.317,-0.793,340.438
125451,143568,10998,-0.232,1.039,-0.135,-2.561,4.329,-0.915,340.444
125581,143857,9715,-0.232,1.039,-0.135,-2.561,4.329,-0.915,340.448
125581,143716,11014,-0.235,0.998,-0.115,-2.561,4.329,-0.915,340.454
125565,143857,9715,-0.228,0.976,-0.131,-2.805,1.098,-0.915,340.458
125565,143644,11002,-0.227,0.983,-0.148,-2.805,1.098,-0.915,340.464
125499,143601,9715,-0.227,0.984,-0.119,-2.744,-1.28,0,340.468
125499,143604,10995,-0.223,0.982,-0.078,-2.744,-1.28,0,340.474
125529,143857,9715,-0.214,0.99,-0.044,0.366,-2.256,1.402,340.478
125529,143627,11015,-0.209,1,-0.005,0.366,-2.256,1.402,340.484
125607,143857,9715,-0.192,1.001,0.029,1.89,-3.049,1.28,340.488
125607,143714,11015,-0.188,1.003,0.029,1.89,-3.049,1.28,340.494
125675,143857,9715,-0.188,1.012,-0.016,1.28,-1.159,0.976,340.498
125675,143812,11020,-0.192,1.025,-0.069,1.28,-1.159,0.976,340.504
125809,144113,9715,-0.206,1.023,-0.077,-1.646,1.402,0.305,340.508
125809,144005,11016,-0.221,1.007,-0.064,-1.646,1.402,0.305,340.514
125654,143857,9715,-0.229,0.99,-0.054,-0.915,1.098,-0.122,340.517
125654,143782,11023,-0.228,0.985,-0.056,-0.915,1.098,-0.122,340.524
125573,143857,9715,-0.222,0.993,-0.061,-0.366,0.183,0.427,340.527
125573,143683,11005,-0.215,1.006,-0.062,-0.366,0.183,0.427,340.534
125609,143857,9715,-0.209,1.013,-0.052,-0.061,0.061,0.854,340.537
125609,143700,11022,-0.206,1.024,-0.043,-0.061,0.061,0.854,340.543
125620,143857,9715,-0.208,1.021,-0.04,-0.915,-0.305,0.732,340.547
125620,143700,11017,-0.21,1.009,-0.018,-0.915,-0.305,0.732,340.553
125569,143857,9715,-0.206,0.99,-0.008,-1.402,-0.305,0.305,340.557
125569,143665,11001,-0.203,0.981,-0.021,-1.402,-0.305,0.305,340.563
125626,143857,9715,-0.201,0.988,-0.03,-0.549,0.549,0.305,340.567
125626,143772,11017,-0.2,0.996,-0.033,-0.549,0.549,0.305,340.573
125657,143857,9715,-0.203,1.013,-0.029,2.073,1.524,0.183,340.577
125657,143771,11012,-0.205,1.026,-0.032,2.073,1.524,0.183,340.583
125577,143857,9715,-0.208,1.028,-0.044,1.524,2.012,-0.061,340.587
125577,143698,11005,-0.21,1.015,-0.072,1.524,2.012,-0.061,340.593
125612,143857,9715,-0.214,1.012,-0.096,-2.256,2.134,0,340.597
125612,143721,11017,-0.216,1.002,-0.096,-2.256,2.134,0,340.603
125609,143857,9715,-0.213,0.986,-0.097,-4.268,1.098,0.244,340.607
125609,143712,11003,-0.211,0.992,-0.109,-4.268,1.098,0.244,340.613
125595,143857,9715,-0.214,1.011,-0.103,-2.073,0.244,0.244,340.616
125595,143673,11011,-0.215,1.01,-0.061,-2.073,0.244,0.244,340.623
125587,143857,9715,-0.218,1.001,-0.019,1.037,0.488,0.244,340.626
125587,143671,11010,-0.219,1.009,-0.023,1.037,0.488,0.244,340.633
125641,143857,9715,-0.216,1.019,-0.026,-0.183,0.427,0.488,340.636
125641,143742,11025,-0.211,1.011,-0.005,-0.183,0.427,0.488,340.642
125672,143857,9715,-0.199,1.003,0.001,-1.463,0.122,-0.183,340.646
125672,143760,11012,-0.198,1.006,-0.031,-1.463,0.122,-0.183,340.652
125537,143857,9715,-0.206,1.013,-0.051,-3.293,0.61,-0.671,340.656
125537,143619,11018,-0.213,1.002,-0.04,-3.293,0.61,-0.671,340.662
125510,143601,9715,-0.22,0.985,-0.026,-2.988,1.89,-0.244,340.666
125510,143598,10999,-0.213,0.977,-0.033,-2.988,1.89,-0.244,340.672
125562,143857,9715,-0.207,1,-0.061,-2.5,1.89,0,340.676
125562,143641,11019,-0.21,1.022,-0.103,-2.5,1.89,0,340.682
125545,143857,9715,-0.215,1.013,-0.1,-3.902,2.805,0.061,340.686
125545,143658,10999,-0.219,0.988,-0.091,-3.902,2.805,0.061,340.692
125722,144113,9715,-0.229,0.988,-0.105,-2.866,2.134,0.549,340.696
125722,143883,11034,-0.233,1.003,-0.099,-2.866,2.134,0.549,340.702
125783,144113,9715,-0.224,0.989,-0.059,-2.744,-0.122,0.915,340.706
125783,143931,11026,-0.209,0.977,-0.05,-2.744,-0.122,0.915,340.712
125639,143857,9715,-0.208,0.99,-0.083,0.122,-1.037,0.976,340.715
125639,143727,11020,-0.216,0.995,-0.088,0.122,-1.037,0.976,340.722
125503,143601,9715,-0.226,0.992,-0.046,-0.854,-0.122,2.073,340.725
125503,143538,10998,-0.225,0.998,-0.002,-0.854,-0.122,2.073,340.732
125477,143601,9715,-0.208,0.991,0.018,0,-1.707,1.951,340.735
125477,143492,10993,-0.185,0.994,-0.027,0,-1.707,1.951,340.741
125495,143601,9715,-0.189,1.031,-0.094,0.183,-1.402,1.463,340.745
125495,143528,11013,-0.205,1.052,-0.085,0.183,-1.402,1.463,340.751
125605,143857,9715,-0.221,1.037,-0.042,1.22,1.463,1.646,340.755
125605,143679,11008,-0.222,1.029,-0.063,1.22,1.463,1.646,340.761
125735,143857,9715,-0.218,1.042,-0.091,0.183,-0.061,0.915,340.765
125735,143836,11041,-0.216,1.034,-0.072,0.183,-0.061,0.915,340.771
125718,143857,9715,-0.213,1.011,-0.056,-2.622,-1.159,0.61,340.775
125718,143844,11029,-0.21,1,-0.058,-2.622,-1.159,0.61,340.781
125645,143857,9715,-0.207,0.988,-0.053,-2.439,-1.524,0.61,340.785
125645,143765,11022,-0.206,0.986,-0.038,-2.439,-1.524,0.61,340.791
125693,143857,9715,-0.203,0.987,-0.021,-0.488,-1.402,0.061,340.795
125693,143818,11019,-0.202,0.986,-0.011,-0.488,-1.402,0.061,340.801
125682,143857,9715,-0.203,0.99,-0.01,1.402,-0.61,0.122,340.805
125682,143834,11019,-0.205,0.998,-0.005,1.402,-0.61,0.122,340.811
125700,144113,9715,-0.208,1,-0.001,0.915,0,0.122,340.814
125700,143879,11022,-0.208,0.988,-0.005,0.915,0,0.122,340.821
125748,144113,9715,-0.206,0.983,-0.043,0.488,0.732,-0.061,340.824
125748,143951,11015,-0.21,1,-0.091,0.488,0.732,-0.061,340.831
125833,144113,9715,-0.225,1.011,-0.098,-1.646,1.585,0.549,340.834
125833,144033,11031,-0.228,1.007,-0.096,-1.646,1.585,0.549,340.84
125862,144113,9715,-0.223,1.017,-0.115,-1.28,0.549,1.098,340.844
125862,144060,11034,-0.222,1.033,-0.105,-1.28,0.549,1.098,340.85
125862,144113,9715,-0.223,1.023,-0.043,-0.61,-1.341,1.159,340.854
125862,144062,11038,-0.217,1.008,0.009,-0.61,-1.341,1.159,340.86
125803,144113,9715,-0.199,1.01,-0.002,1.28,-2.5,1.28,340.864
125803,144034,11037,-0.19,1.031,-0.047,1.28,-2.5,1.28,340.87
125713,143857,9715,-0.195,1.039,-0.048,-1.524,-0.671,0.366,340.874
125713,143864,11025,-0.204,1.028,-0.024,-1.524,-0.671,0.366,340.88
125631,143857,9715,-0.207,1.007,-0.016,-0.488,0.671,-0.061,340.884
125631,143787,11026,-0.202,0.996,-0.029,-0.488,0.671,-0.061,340.89
125546,143857,9715,-0.201,0.991,-0.043,-0.244,0.122,-0.671,340.894
125546,143658,11002,-0.204,0.984,-0.049,-0.244,0.122,-0.671,340.9
125576,143857,9715,-0.204,0.984,-0.049,-0.244,0.122,-0.671,340.904
125576,143719,11012,-0.214,0.986,-0.088,-0.732,1.159,-0.915,340.91
125566,143857,9715,-0.214,0.986,-0.088,-0.732,1.159,-0.915,340.913
125566,143707,11019,-0.216,0.979,-0.062,0.183,1.159,-0.366,340.92
125657,143857,9715,-0.216,0.979,-0.062,0.183,1.159,-0.366,340.923
125657,143790,11017,-0.209,1.007,-0.031,2.988,0.122,0.427,340.93
125665,143857,9715,-0.209,1.007,-0.031,2.988,0.122,0.427,340.933
125665,143807,11015,-0.204,1.046,-0.059,3.354,-0.183,0.915,340.939
125759,144113,9715,-0.204,1.046,-0.059,3.354,-0.183,0.915,340.943
125759,143961,11028,-0.21,1.005,-0.002,-0.061,0.244,0.732,340.949
125795,144113,9715,-0.21,1.005,-0.002,-0.061,0.244,0.732,340.953
125795,144000,11025,-0.204,0.977,-0.046,-2.317,-0.366,0.488,340.959
125736,144113,9715,-0.204,0.977,-0.046,-2.317,-0.366,0.488,340.963
125736,143923,11020,-0.211,1.015,-0.061,-2.378,0.488,0.366,340.969
125686,143857,9715,-0.211,1.015,-0.061,-2.378,0.488,0.366,340.973
125686,143870,11010,-0.224,1.029,-0.04,1.402,2.012,0.183,340.979
125711,144113,9715,-0.224,1.029,-0.04,1.402,2.012,0.183,340.983
125711,143896,11028,-0.221,1.024,-0.07,1.89,1.341,-0.305,340.989
125697,143857,9715,-0.221,1.024,-0.07,1.89,1.341,-0.305,340.993
125697,143866,11036,-0.216,0.996,-0.066,-1.28,0.61,-0.549,340.999
125629,143857,9715,-0.216,0.996,-0.066,-1.28,0.61,-0.549,341.003
125629,143841,11017,-0.211,0.987,-0.052,-2.378,-0.122,-0.488,341.009
125764,144113,9715,-0.211,0.987,-0.052,-2.378,-0.122,-0.488,341.012
125764,143985,11018,-0.214,0.989,-0.041,-1.098,-0.854,-0.244,341.019
125725,144113,9715,-0.214,0.989,-0.041,-1.098,-0.854,-0.244,341.022
125725,143908,11028,-0.216,1.016,-0.07,0.122,0,0.305,341.029
125755,144113,9715,-0.216,1.016,-0.07,0.122,0,0.305,341.032
125755,143960,11028,-0.202,0.977,-0.032,-0.61,-0.061,0.793,341.038
125722,144113,9715,-0.202,0.977,-0.032,-0.61,-0.061,0.793,341.042
125722,143940,11036,-0.201,0.995,-0.057,-0.915,-0.915,0.976,341.048
125792,144113,9715,-0.206,1,-0.039,-0.915,-0.915,0.976,341.052
125792,144000,11023,-0.208,0.986,-0.018,-1.22,-0.122,1.22,341.058
125836,144113,9715,-0.203,0.992,-0.028,-1.22,-0.122,1.22,341.062
125836,144072,11046,-0.206,1.018,-0.079,0.366,0.671,1.28,341.068
125871,144113,9715,-0.211,1.043,-0.093,0.366,0.671,1.28,341.072
125871,144103,11050,-0.225,1.044,-0.072,-0.671,1.28,0.915,341.078
125861,144113,9715,-0.237,1.028,-0.049,-0.671,1.28,0.915,341.082
125861,144099,11059,-0.23,1.011,-0.055,-2.5,-0.061,0.793,341.088
125866,144113,9715,-0.219,1.005,-0.055,-2.5,-0.061,0.793,341.092
125866,144085,11031,-0.212,0.996,-0.038,-5.854,-2.012,0.854,341.098
125854,144113,9715,-0.203,0.984,-0.022,-5.854,-2.012,0.854,341.102
125854,144068,11047,-0.2,0.993,-0.033,-4.817,-1.707,0.793,341.108
125760,144113,9715,-0.196,1.014,-0.055,-4.817,-1.707,0.793,341.111
125760,143968,11039,-0.197,1.017,-0.049,-2.439,-0.671,0.488,341.118
125775,144113,9715,-0.209,1.016,-0.042,-2.439,-0.671,0.488,341.121
125775,143974,11036,-0.219,1.029,-0.054,-0.061,0.305,0.488,341.128
125826,144113,9715,-0.226,1.02,-0.037,-0.061,0.305,0.488,341.131
125826,144057,11045,-0.219,0.983,0.005,-1.524,-0.305,0.549,341.137
126019,144369,9715,-0.198,0.982,-0.003,-1.524,-0.305,0.549,341.141
126019,144288,11065,-0.19,1.012,-0.037,-5.366,-1.22,0.488,341.147
125983,144369,9715,-0.195,1.016,-0.048,-5.366,-1.22,0.488,341.151
125983,144258,11058,-0.198,0.997,-0.037,-6.829,0.305,0.671,341.157
126016,144369,9715,-0.207,0.987,-0.03,-6.829,0.305,0.671,341.161
126016,144333,11059,-0.208,0.99,-0.031,-3.171,0.732,0.305,341.167
126044,144369,9715,-0.206,1.002,-0.046,-3.171,0.732,0.305,341.171
126044,144349,11049,-0.212,1.017,-0.072,-1.098,1.159,0.244,341.177
126016,144369,9715,-0.216,1.028,-0.095,-1.098,1.159,0.244,341.181
126016,144302,11049,-0.229,1.031,-0.089,-2.134,1.524,0.488,341.187
125973,144369,9715,-0.231,1.017,-0.037,-2.134,1.524,0.488,341.191
125973,144243,11054,-0.221,1,0.001,-4.451,-1.159,1.159,341.197
126003,144369,9715,-0.201,0.997,-0.001,-4.451,-1.159,1.159,341.201
126003,144306,11060,-0.189,0.993,-0.008,-5.671,-2.805,1.159,341.207
126005,144369,9715,-0.186,0.985,-0.017,-5.671,-2.805,1.159,341.21
126005,144266,11047,-0.196,0.999,-0.036,-4.634,0.244,1.22,341.217
125904,144369,9715,-0.206,1.005,-0.039,-4.634,0.244,1.22,341.22
125904,144176,11048,-0.207,0.987,-0.023,-2.012,1.89,0.976,341.227
125976,144369,9715,-0.207,0.984,-0.018,-2.012,1.89,0.976,341.23
125976,144217,11051,-0.21,1.001,-0.036,-0.061,1.22,0.671,341.236
125926,144369,9715,-0.21,1.007,-0.053,-0.061,1.22,0.671,341.24
125926,144152,11058,-0.212,1.007,-0.051,-1.585,1.768,1.28,341.246
125838,144113,9715,-0.214,1,-0.059,-1.585,1.768,1.28,341.25
125838,144057,11039,-0.215,1.001,-0.089,-2.744,1.22,1.646,341.256
125779,144113,9715,-0.219,1.02,-0.106,-2.744,1.22,1.646,341.26
125779,144010,11034,-0.224,1.022,-0.092,-4.939,0.244,1.768,341.266
125737,144113,9715,-0.221,1.005,-0.048,-4.939,0.244,1.768,341.27
125737,143965,11031,-0.22,1.001,-0.017,-3.841,-2.195,2.561,341.276
125784,144113,9715,-0.215,1.011,-0,-3.841,-2.195,2.561,341.28
125784,143984,11049,-0.208,1,0.034,-2.927,-3.049,2.5,341.286
125811,144113,9715,-0.198,0.989,0.049,-2.927,-3.049,2.5,341.29
125811,144059,11042,-0.191,1.021,0.025,-1.89,-1.037,2.012,341.296
125801,144113,9715,-0.19,1.039,-0.013,-1.89,-1.037,2.012,341.3
125801,144015,11026,-0.189,1.034,-0.07,-2.805,1.28,1.037,341.306
125735,144113,9715,-0.204,1.03,-0.116,-2.805,1.28,1.037,341.309
125735,143952,11040,-0.223,1.017,-0.105,-3.72,2.5,0.61,341.316
125720,144113,9715,-0.23,0.984,-0.078,-3.72,2.5,0.61,341.319
125720,143910,11013,-0.226,0.961,-0.064,-3.598,0.305,0.793,341.326
125720,144113,9715,-0.22,0.966,-0.059,-3.598,0.305,0.793,341.329
125720,143906,11032,-0.211,0.977,-0.044,-3.537,-1.829,1.463,341.335
125714,144113,9715,-0.201,0.987,-0.015,-3.537,-1.829,1.463,341.339
125714,143873,11021,-0.196,1.001,0.016,-0.61,-1.768,2.073,341.345
125577,143857,9715,-0.189,1.022,0.008,-0.61,-1.768,2.073,341.349
125577,143740,11011,-0.188,1.04,-0.021,-0.427,-1.402,1.768,341.355
125601,143857,9715,-0.196,1.041,-0.03,-0.427,-1.402,1.768,341.359
125601,143739,11020,-0.206,1.021,-0.004,-4.024,0.366,0.854,341.365
125557,143857,9715,-0.21,1.004,-0.009,-4.024,0.366,0.854,341.369
125557,143693,11013,-0.21,0.993,-0.056,-5.122,-0.305,0.976,341.375
125600,143857,9715,-0.212,0.997,-0.078,-5.122,-0.305,0.976,341.379
125600,143766,11005,-0.216,1.001,-0.069,-5.122,-0.305,1.098,341.385
125577,143857,9715,-0.223,0.997,-0.063,-5.122,-0.305,1.098,341.389
125577,143699,11009,-0.225,0.989,-0.061,-1.159,-0.732,1.829,341.395
125545,143857,9715,-0.218,0.993,-0.067,-1.159,-0.732,1.829,341.399
125545,143675,11002,-0.21,1.012,-0.076,1.159,-2.012,2.073,341.405
125508,143857,9715,-0.207,1.04,-0.057,1.159,-2.012,2.073,341.408
125508,143631,11009,-0.204,1.045,-0.012,-0.549,-2.622,2.134,341.415
125520,143857,9715,-0.196,1.006,0.018,-0.549,-2.622,2.134,341.418
125520,143623,11000,-0.193,0.98,0.007,-2.744,-3.049,1.646,341.425
125462,143601,9715,-0.197,0.98,-0.035,-2.744,-3.049,1.646,341.428
125462,143566,11005,-0.204,0.993,-0.069,-8.415,-1.585,1.707,341.434
125447,143601,9715,-0.207,1.003,-0.07,-8.415,-1.585,1.707,341.438
125447,143538,10994,-0.203,1.002,-0.042,-6.524,-1.402,1.524,341.444
125396,143601,9715,-0.205,0.989,-0.016,-6.524,-1.402,1.524,341.448
125396,143501,10998,-0.207,0.992,-0.024,0.488,-2.988,1.585,341.454
125241,143345,9715,-0.214,1.008,-0.022,0.488,-2.988,1.585,341.458
125241,143325,10963,-0.213,1.016,0.016,2.561,-1.829,1.829,341.464
125231,143345,9715,-0.206,1.031,0.036,2.561,-1.829,1.829,341.468
125231,143334,10974,-0.198,1.054,0.01,2.805,-1.707,1.402,341.474
125360,143601,9715,-0.195,1.042,-0.011,2.805,-1.707,1.402,341.478
125360,143497,10973,-0.2,1.023,-0.027,1.037,-0.854,0.732,341.484
125370,143601,9715,-0.2,1.023,-0.027,1.037,-0.854,0.732,341.488
125370,143501,10984,-0.216,1.015,-0.053,-2.073,0.366,0.61,341.494
125310,143601,9715,-0.216,1.015,-0.053,-2.073,0.366,0.61,341.498
125310,143439,10977,-0.208,0.988,-0.054,-4.878,-1.585,0.244,341.504
125283,143601,9715,-0.208,0.988,-0.054,-4.878,-1.585,0.244,341.507
125283,143381,10967,-0.205,1.011,-0.075,-5.366,-2.439,0.61,341.514
125122,143345,9715,-0.205,1.011,-0.075,-5.366,-2.439,0.61,341.517
125122,143200,10967,-0.214,1.004,0.02,-1.341,-2.317,0.854,341.524
125034,143089,9715,-0.214,1.004,0.02,-1.341,-2.317,0.854,341.527
125034,143047,10942,-0.193,0.995,0.043,1.463,-2.866,0.793,341.533
124860,143089,9715,-0.193,0.995,0.043,1.463,-2.866,0.793,341.537
124860,142857,10925,-0.184,1.028,-0.018,-2.439,-0.549,0.488,341.543
124859,143089,9715,-0.184,1.028,-0.018,-2.439,-0.549,0.488,341.547
124859,142862,10931,-0.192,0.98,-0.004,-3.11,0.549,0.366,341.553
124895,143089,9715,-0.192,0.98,-0.004,-3.11,0.549,0.366,341.557
124895,142955,10924,-0.198,0.991,-0.06,-2.195,0.183,0.61,341.563
124986,143089,9715,-0.198,0.991,-0.06,-2.195,0.183,0.61,341.567
124986,143042,10953,-0.206,1.02,-0.071,0.854,0.427,0.793,341.573
124919,143089,9715,-0.206,1.02,-0.071,0.854,0.427,0.793,341.577
124919,142956,10940,-0.224,1.032,-0.074,2.622,0.183,1.159,341.583
124720,142833,9715,-0.224,1.032,-0.074,2.622,0.183,1.159,341.587
124720,142706,10910,-0.227,1.01,-0.039,1.524,-1.037,1.341,341.593
124707,142833,9715,-0.227,1.01,-0.039,1.524,-1.037,1.341,341.597
124707,142705,10905,-0.209,0.976,0.057,-1.098,-2.744,1.585,341.603
124718,142833,9715,-0.209,0.976,0.057,-1.098,-2.744,1.585,341.606
124718,142646,10901,-0.184,0.997,-0.019,-2.622,-2.195,1.829,341.613
124654,142833,9715,-0.184,0.997,-0.019,-2.622,-2.195,1.829,341.616
124654,142634,10916,-0.2,1.017,-0.09,-3.171,1.22,1.28,341.623
124636,142577,9715,-0.2,1.017,-0.09,-3.171,1.22,1.28,341.626
124636,142591,10899,-0.218,1.004,-0.077,-3.171,1.22,1.28,341.632
124464,142577,9715,-0.232,0.998,-0.05,-0.305,0.793,1.463,341.636
124464,142399,10903,-0.229,0.984,-0.033,-0.305,0.793,1.463,341.642
124454,142577,9715,-0.217,0.983,-0.032,1.646,-2.378,1.951,341.646
124454,142388,10902,-0.211,1.002,-0.032,1.646,-2.378,1.951,341.652
124303,142321,9715,-0.2,1.013,-0.037,3.049,-2.378,2.134,341.656
124303,142171,10888,-0.193,1.025,-0.037,3.049,-2.378,2.134,341.662
124254,142321,9715,-0.197,1.028,-0.03,3.598,-1.829,1.951,341.666
124254,142125,10883,-0.197,1.028,-0.018,3.598,-1.829,1.951,341.672
124222,142065,9715,-0.197,1.033,-0.012,1.402,-2.195,1.646,341.676
124222,142058,10872,-0.202,1.026,-0.028,1.402,-2.195,1.646,341.682
124094,142065,9715,-0.202,1.009,-0.034,-2.073,-1.951,0.854,341.686
124094,141973,10868,-0.203,0.993,-0.032,-2.073,-1.951,0.854,341.692
124174,142065,9715,-0.203,0.985,-0.027,-1.341,-2.317,1.037,341.696
124174,142039,10883,-0.201,0.979,-0.015,-1.341,-2.317,1.037,341.702
124092,142065,9715,-0.197,0.982,-0.013,3.354,-3.293,1.341,341.705
124092,141876,10851,-0.194,1.002,-0.007,3.354,-3.293,1.341,341.712
123904,141809,9715,-0.199,1.011,0.006,8.11,-2.012,1.037,341.715
123904,141645,10850,-0.199,1.011,0.015,8.11,-2.012,1.037,341.722
123909,141809,9715,-0.197,1.022,-0.013,9.512,-0.732,1.037,341.725
123909,141653,10858,-0.2,1.038,-0.045,9.512,-0.732,1.037,341.731
123881,141809,9715,-0.203,1.037,-0.051,3.841,-0.427,0.915,341.735
123881,141626,10850,-0.206,1.016,-0.029,3.841,-0.427,0.915,341.741
123954,141809,9715,-0.208,0.992,-0.023,0.854,-1.22,1.159,341.745
123954,141713,10868,-0.205,0.989,-0.049,0.854,-1.22,1.159,341.751
123937,141809,9715,-0.2,1.001,-0.075,-0.732,-1.707,1.402,341.755
123937,141686,10847,-0.199,1.004,-0.071,-0.732,-1.707,1.402,341.761
123785,141553,9715,-0.204,0.993,-0.054,0.122,-1.707,1.524,341.765
123785,141492,10842,-0.208,0.994,-0.032,0.122,-1.707,1.524,341.771
123710,141553,9715,-0.211,1.001,-0.005,3.049,-2.439,2.195,341.775
123710,141397,10842,-0.208,1.003,0.032,3.049,-2.439,2.195,341.781
123733,141553,9715,-0.203,0.996,0.045,4.39,-2.195,2.012,341.785
123733,141427,10838,-0.194,1,0.014,4.39,-2.195,2.012,341.791
123757,141553,9715,-0.187,1.021,-0.039,3.354,-0.854,1.646,341.795
123757,141467,10849,-0.184,1.028,-0.053,3.354,-0.854,1.646,341.801
123981,141809,9715,-0.19,1.012,-0.032,1.951,0.732,1.22,341.804
123981,141716,10855,-0.197,1.01,-0.037,1.951,0.732,1.22,341.811
124027,141809,9715,-0.208,1.016,-0.066,1.159,0.488,1.89,341.814
124027,141761,10849,-0.212,1.007,-0.059,1.159,0.488,1.89,341.821
123959,141809,9715,-0.211,0.994,-0.028,-0.244,0.183,1.646,341.824
123959,141704,10845,-0.211,1.002,-0.016,-0.244,0.183,1.646,341.83
124045,141809,9715,-0.206,1.018,-0.013,-0.305,-1.159,1.646,341.834
124045,141745,10864,-0.194,1.018,0.009,-0.305,-1.159,1.646,341.84
124092,141809,9715,-0.179,1.009,0.017,1.098,-1.707,0.915,341.844
124092,141823,10861,-0.176,1.017,-0.016,1.098,-1.707,0.915,341.85
124153,142065,9715,-0.181,1.028,-0.04,2.744,0.671,0.671,341.854
124153,141893,10863,-0.187,1.033,-0.044,2.744,0.671,0.671,341.86
124252,142065,9715,-0.199,1.03,-0.053,1.951,2.378,0.366,341.864
124252,142056,10874,-0.204,1.026,-0.063,1.951,2.378,0.366,341.87
124405,142321,9715,-0.21,1.018,-0.055,-0.427,1.341,0,341.874
124405,142256,10884,-0.21,1.006,-0.035,-0.427,1.341,0,341.88
124645,142577,9715,-0.21,0.998,-0.009,-1.159,-0.061,0.122,341.884
124645,142528,10912,-0.198,0.981,0.013,-1.159,-0.061,0.122,341.89
124560,142577,9715,-0.19,0.975,0.011,0.122,-0.244,0.427,341.894
124560,142399,10891,-0.186,0.991,-0.001,0.122,-0.244,0.427,341.9
124340,142321,9715,-0.184,1.008,-0.01,0.427,1.037,0.488,341.903
124340,142126,10892,-0.185,1.012,-0.012,0.427,1.037,0.488,341.91
124337,142321,9715,-0.195,1.01,0.01,2.134,2.256,0.122,341.913
124337,142172,10891,-0.198,1.01,0.011,2.134,2.256,0.122,341.92
124423,142321,9715,-0.197,1.01,-0.026,1.89,2.744,-0.244,341.923
124423,142236,10893,-0.199,1.015,-0.066,1.89,2.744,-0.244,341.929
124453,142321,9715,-0.203,1.012,-0.072,-0.793,3.354,-0.183,341.933
124453,142301,10887,-0.205,1.006,-0.069,-0.793,3.354,-0.183,341.939
124439,142321,9715,-0.209,1.011,-0.078,-0.671,2.622,0.488,341.943
124439,142270,10895,-0.207,1.022,-0.074,-0.671,2.622,0.488,341.949
124423,142321,9715,-0.203,1.015,-0.04,-0.671,1.22,0.488,341.953
124423,142256,10885,-0.202,1.005,-0.012,-0.671,1.22,0.488,341.959
124394,142321,9715,-0.203,0.997,0.013,0.915,0.793,0.488,341.963
124394,142210,10898,-0.194,0.997,0.011,0.915,0.793,0.488,341.969
124502,142321,9715,-0.188,1.006,-0.004,1.89,1.098,0.427,341.973
124502,142313,10892,-0.183,1.017,-0.015,1.89,1.098,0.427,341.979
124613,142577,9715,-0.181,1.016,-0.031,2.5,2.134,-0.61,341.983
124613,142421,10892,-0.193,1.018,-0.067,2.5,2.134,-0.61,341.989
124666,142577,9715,-0.204,1.02,-0.082,0.915,3.293,-0.427,341.993
124666,142545,10931,-0.208,1.007,-0.066,0.915,3.293,-0.427,341.999
124664,142577,9715,-0.212,0.988,-0.045,0.244,2.256,-0.366,342.002
124664,142517,10916,-0.215,0.975,-0.04,0.244,2.256,-0.366,342.009
124609,142577,9715,-0.211,0.973,-0.041,1.28,0.915,0.122,342.012
124609,142465,10922,-0.205,0.982,-0.037,1.28,0.915,0.122,342.019
124685,142577,9715,-0.202,0.993,-0.027,3.476,1.646,0.854,342.022
124685,142514,10924,-0.195,1.015,-0.016,3.476,1.646,0.854,342.028
124655,142577,9715,-0.191,1.032,-0.011,5.122,1.707,1.22,342.032
124655,142425,10917,-0.186,1.03,-0.006,5.122,1.707,1.22,342.038
124644,142577,9715,-0.19,1.023,-0.018,4.085,1.707,0.671,342.042
124644,142501,10928,-0.196,1.019,-0.037,4.085,1.707,0.671,342.048
124750,142577,9715,-0.201,1.011,-0.036,0.793,2.683,0.427,342.052
124750,142560,10927,-0.203,1.006,-0.041,0.793,2.683,0.427,342.058
124821,142833,9715,-0.201,1.02,-0.058,-0.183,2.256,0.061,342.062
124821,142700,10949,-0.2,1.015,-0.058,-0.183,2.256,0.061,342.068
124723,142577,9715,-0.2,1.015,-0.058,-0.183,2.256,0.061,342.072
124723,142535,10920,-0.199,0.994,-0.051,0.549,1.463,-0.122,342.078
124673,142577,9715,-0.199,0.994,-0.051,0.549,1.463,-0.122,342.082
124673,142516,10927,-0.207,1.018,-0.064,1.524,1.768,0.366,342.088
124641,142577,9715,-0.207,1.018,-0.064,1.524,1.768,0.366,342.092
124641,142454,10939,-0.205,1,0.006,0.61,1.646,0.427,342.098
124677,142577,9715,-0.205,1,0.006,0.61,1.646,0.427,342.101
124677,142459,10934,-0.195,0.997,0.01,1.524,0.671,0.427,342.108
124689,142577,9715,-0.195,0.997,0.01,1.524,0.671,0.427,342.111
124689,142500,10932,-0.188,1.016,-0.05,0.976,1.098,0.305,342.117
124739,142577,9715,-0.188,1.016,-0.05,0.976,1.098,0.305,342.121
124739,142547,10931,-0.202,1.015,-0.084,0.366,3.232,-0.366,342.127
124631,142577,9715,-0.202,1.015,-0.084,0.366,3.232,-0.366,342.131
124631,142411,10934,-0.216,0.999,-0.084,0.793,3.415,0.183,342.137
124513,142321,9715,-0.216,0.999,-0.084,0.793,3.415,0.183,342.141
124513,142267,10910,-0.222,0.998,-0.022,0.61,1.646,0.305,342.147
124456,142321,9715,-0.222,0.998,-0.022,0.61,1.646,0.305,342.151
124456,142191,10913,-0.19,1.014,-0.009,1.829,0.305,0.549,342.157
124514,142321,9715,-0.19,1.014,-0.009,1.829,0.305,0.549,342.161
124514,142253,10912,-0.184,1.053,-0.089,1.037,0.183,0.488,342.167
124562,142321,9715,-0.184,1.053,-0.089,1.037,0.183,0.488,342.171
124562,142313,10916,-0.207,0.994,-0.034,-1.28,1.646,-0.061,342.177
124537,142321,9715,-0.207,0.994,-0.034,-1.28,1.646,-0.061,342.181
124537,142290,10926,-0.202,0.978,-0.067,-0.854,0.488,0.183,342.187
124491,142321,9715,-0.202,0.978,-0.067,-0.854,0.488,0.183,342.191
124491,142277,10905,-0.193,1.004,-0.07,-0.793,-0.061,0.183,342.197
124493,142321,9715,-0.193,1.004,-0.07,-0.793,-0.061,0.183,342.2
124493,142241,10905,-0.202,1.025,-0.066,1.951,0.793,0.427,342.207
124351,142321,9715,-0.202,1.025,-0.066,1.951,0.793,0.427,342.21
124351,142081,10901,-0.203,1.025,-0.052,2.195,0,0.854,342.216
124316,142065,9715,-0.208,1.006,0.003,2.195,0,0.854,342.22
124316,142043,10904,-0.197,0.988,0.033,1.768,-0.854,0.854,342.226
124337,142065,9715,-0.188,0.987,0.005,1.768,-0.854,0.854,342.23
124337,142071,10908,-0.182,1.008,-0.045,-1.037,-0.122,0.549,342.236
124448,142321,9715,-0.185,1.012,-0.067,-1.037,-0.122,0.549,342.24
124448,142227,10916,-0.194,1.005,-0.058,-1.28,1.646,0.244,342.246
124488,142321,9715,-0.203,1.002,-0.047,-1.28,1.646,0.244,342.25
124488,142224,10901,-0.211,1.011,-0.042,1.646,1.28,0.488,342.256
124432,142321,9715,-0.215,1.015,-0.037,1.646,1.28,0.488,342.26
124432,142209,10914,-0.214,1.015,-0.045,1.585,0.915,0.122,342.266
124321,142065,9715,-0.21,1.02,-0.051,1.585,0.915,0.122,342.27
124321,142047,10901,-0.208,1.022,-0.056,0.427,0.915,0.183,342.276
124341,142321,9715,-0.209,1.016,-0.039,0.427,0.915,0.183,342.28
124341,142108,10902,-0.203,1,-0.014,0.122,-0.183,0.366,342.286
124438,142321,9715,-0.195,0.985,-0.005,0.122,-0.183,0.366,342.29
124438,142175,10912,-0.188,0.996,-0.026,1.524,-0.427,0.488,342.296
124451,142321,9715,-0.189,1.015,-0.043,1.524,-0.427,0.488,342.299
124451,142248,10903,-0.189,1.013,-0.031,1.768,1.037,0.244,342.306
124473,142321,9715,-0.191,1.012,-0.044,1.768,1.037,0.244,342.309
124473,142288,10938,-0.196,1.017,-0.074,1.951,1.341,0.061,342.316
124488,142321,9715,-0.2,1.015,-0.071,1.951,1.341,0.061,342.319
124488,142262,10916,-0.203,1,-0.06,-0.183,0.793,0.244,342.325
124436,142321,9715,-0.205,0.988,-0.064,-0.183,0.793,0.244,342.329
124436,142238,10913,-0.208,0.989,-0.069,-1.341,0.305,0.793,342.335
124445,142321,9715,-0.203,0.988,-0.058,-1.341,0.305,0.793,342.339
124445,142206,10918,-0.202,0.994,-0.035,-1.098,-0.732,1.28,342.345
124458,142321,9715,-0.199,1,-0.021,-1.098,-0.732,1.28,342.349
124458,142243,10922,-0.191,1.003,-0.018,1.22,-1.402,1.585,342.355
124487,142321,9715,-0.191,1.012,-0.02,1.22,-1.402,1.585,342.359
124487,142270,10916,-0.191,1.021,-0.017,1.829,-0.366,1.159,342.365
124476,142577,9715,-0.194,1.022,-0.024,1.829,-0.366,1.159,342.369
124476,142338,10932,-0.198,1.019,-0.038,1.28,0.488,0.793,342.375
124644,142577,9715,-0.198,1.019,-0.044,1.28,0.488,0.793,342.379
124644,142530,10924,-0.202,1.013,-0.045,-0.488,0.732,0.305,342.385
124707,142577,9715,-0.204,1.003,-0.059,-0.488,0.732,0.305,342.389
124707,142563,10944,-0.21,1,-0.076,-1.585,0.61,0.427,342.395
124612,142577,9715,-0.209,1.005,-0.087,-1.585,0.61,0.427,342.398
124612,142457,10931,-0.207,1.004,-0.077,-0.183,0.366,0.427,342.405
124550,142577,9715,-0.205,0.998,-0.05,-0.183,0.366,0.427,342.408
124550,142368,10924,-0.203,1.005,-0.037,2.988,-0.671,0.61,342.414
124549,142577,9715,-0.203,1.02,-0.038,2.988,-0.671,0.61,342.418
124549,142396,10923,-0.198,1.023,-0.033,2.622,-0.61,0.976,342.424
124683,142577,9715,-0.196,1.017,-0.015,2.622,-0.61,0.976,342.428
124683,142570,10942,-0.194,1.002,0.003,0.671,-0.244,0.732,342.434
124737,142833,9715,-0.189,0.992,-0.011,0.671,-0.244,0.732,342.438
124737,142614,10943,-0.182,0.993,-0.044,-2.012,-0.244,0.976,342.444
124625,142577,9715,-0.188,0.997,-0.059,-2.012,-0.244,0.976,342.448
124625,142525,10937,-0.192,0.994,-0.061,-3.354,0.915,0.671,342.454
124748,142833,9715,-0.195,0.983,-0.048,-3.354,0.915,0.671,342.458
124748,142680,10949,-0.205,0.989,-0.048,-0.671,1.22,0.915,342.464
124810,142833,9715,-0.204,1.005,-0.054,-0.671,1.22,0.915,342.468
124810,142684,10957,-0.203,1.019,-0.044,1.28,0.854,1.098,342.474
124759,142833,9715,-0.201,1.033,-0.031,1.28,0.854,1.098,342.478
124759,142644,10945,-0.198,1.041,-0.023,1.829,0.488,0.854,342.484
124753,142833,9715,-0.196,1.046,-0.029,1.829,0.488,0.854,342.487
124753,142665,10945,-0.196,1.037,-0.019,-0.122,0.366,0.305,342.494
124906,142833,9715,-0.196,1.021,-0.017,-0.122,0.366,0.305,342.497
124906,142833,10971,-0.199,1.014,-0.045,-1.89,0.854,-0.488,342.504
124916,142833,9715,-0.199,1.01,-0.058,-1.89,0.854,-0.488,342.507
124916,142804,10952,-0.204,0.996,-0.044,-2.683,1.402,-0.854,342.513
124755,142833,9715,-0.203,0.976,-0.028,-2.683,1.402,-0.854,342.517
124755,142631,10946,-0.197,0.981,-0.046,0.305,0.671,-0.549,342.523
124753,142833,9715,-0.192,1.004,-0.081,0.305,0.671,-0.549,342.527
124753,142640,10941,-0.196,1.014,-0.094,0.122,0.915,-0.488,342.533
124771,142833,9715,-0.204,1.01,-0.071,0.122,0.915,-0.488,342.537
124771,142645,10952,-0.214,0.995,-0.03,0.061,1.098,0.061,342.543
124760,142833,9715,-0.207,0.974,-0.006,0.061,1.098,0.061,342.547
124760,142610,10938,-0.195,0.968,-0.015,-0.183,-0.671,0.793,342.553
124773,142833,9715,-0.192,0.988,-0.051,-0.183,-0.671,0.793,342.557
124773,142696,10942,-0.189,1.022,-0.063,-0.061,0.183,1.28,342.563
124884,142833,9715,-0.188,1.042,-0.046,-0.061,0.183,1.28,342.567
124884,142779,10970,-0.192,1.042,-0.03,1.159,0.793,1.037,342.573
124849,142833,9715,-0.198,1.034,-0.036,1.159,0.793,1.037,342.577
124849,142728,10941,-0.206,1.027,-0.051,-0.366,0.427,0.366,342.583
124826,142833,9715,-0.21,1.011,-0.06,-0.366,0.427,0.366,342.587
124826,142697,10938,-0.214,0.997,-0.065,-2.866,1.098,0,342.593
124789,142833,9715,-0.212,0.992,-0.058,-2.866,1.098,0,342.596
124789,142704,10946,-0.202,0.987,-0.03,-1.768,-0.244,0.244,342.603
124817,142833,9715,-0.192,0.993,-0.016,-1.768,-0.244,0.244,342.606
124817,142710,10968,-0.189,1.014,-0.019,1.524,-1.037,0.061,342.612
124855,142833,9715,-0.189,1.026,-0.023,1.524,-1.037,0.061,342.616
124855,142773,10952,-0.195,1.032,-0.018,2.195,0.854,-0.244,342.622
124966,143089,9715,-0.201,1.03,-0.009,2.195,0.854,-0.244,342.626
124966,142936,10976,-0.196,1.016,-0.017,0.732,0.915,-0.427,342.632
125056,143089,9715,-0.195,0.997,-0.038,0.732,0.915,-0.427,342.636
125056,143044,10966,-0.195,0.987,-0.064,-1.89,0.427,-0.732,342.642
125112,143345,9715,-0.196,0.988,-0.082,-1.89,0.427,-0.732,342.646
125112,143111,10989,-0.197,0.991,-0.076,-2.988,1.402,-0.488,342.652
125146,143345,9715,-0.197,0.991,-0.076,-2.988,1.402,-0.488,342.656
125146,143155,10982,-0.208,1.002,-0.058,-0.793,0.549,0.244,342.662
125200,143345,9715,-0.208,1.002,-0.058,-0.793,0.549,0.244,342.666
125200,143235,10970,-0.202,1.024,-0.055,1.037,0.305,0.061,342.672
125193,143345,9715,-0.202,1.024,-0.055,1.037,0.305,0.061,342.676
125193,143208,10980,-0.203,1.019,-0.032,-0.122,0.427,-0.183,342.682
125287,143345,9715,-0.203,1.019,-0.032,-0.122,0.427,-0.183,342.685
125287,143303,10981,-0.199,0.988,-0.032,-1.159,-0.366,0.061,342.692
125300,143345,9715,-0.199,0.988,-0.032,-1.159,-0.366,0.061,342.695
125300,143342,10998,-0.194,0.998,-0.051,-1.524,0.061,-0.244,342.702
125294,143345,9715,-0.194,0.998,-0.051,-1.524,0.061,-0.244,342.705
125294,143347,10992,-0.193,1.011,-0.042,1.098,-0.122,0.183,342.711
125331,143345,9715,-0.193,1.011,-0.042,1.098,-0.122,0.183,342.715
125331,143349,11005,-0.197,1.034,-0.038,1.159,-0.183,-0.183,342.721
125238,143345,9715,-0.197,1.034,-0.038,1.159,-0.183,-0.183,342.725
125238,143243,10978,-0.207,1.019,-0.045,-2.195,0.244,-0.427,342.731
125225,143345,9715,-0.207,1.019,-0.045,-2.195,0.244,-0.427,342.735
125225,143234,11003,-0.203,0.992,-0.056,-3.293,-0.183,-0.122,342.741
125236,143345,9715,-0.203,0.992,-0.056,-3.293,-0.183,-0.122,342.745
125236,143237,10983,-0.198,0.993,-0.027,-0.244,-0.61,-0.183,342.751
125239,143345,9715,-0.198,0.993,-0.027,-0.244,-0.61,-0.183,342.755
125239,143259,10999,-0.202,1.001,0.004,1.768,0.183,0,342.761
125249,143345,9715,-0.202,1.001,0.004,1.768,0.183,0,342.765
125249,143320,10987,-0.201,1.014,-0.023,0,1.22,-0.122,342.771
125298,143345,9715,-0.201,1.014,-0.023,0,1.22,-0.122,342.775
125298,143326,11004,-0.207,1.003,-0.072,-4.268,1.707,-0.183,342.781
125249,143345,9715,-0.207,1.003,-0.072,-4.268,1.707,-0.183,342.784
125249,143304,10996,-0.203,0.971,-0.055,-2.988,0.549,0.427,342.791
125312,143345,9715,-0.203,0.971,-0.055,-2.988,0.549,0.427,342.794
125312,143336,10989,-0.202,0.975,-0.051,-2.988,0.549,0.427,342.801
125250,143345,9715,-0.2,0.997,-0.053,0.183,0.305,0.732,342.804
125250,143262,10986,-0.206,1.019,-0.055,0.183,0.305,0.732,342.81
125176,143345,9715,-0.208,1.043,-0.067,1.159,1.28,0.976,342.814
125176,143207,10981,-0.209,1.043,-0.06,1.159,1.28,0.976,342.82
125268,143345,9715,-0.207,1.029,-0.053,-0.549,0.305,1.037,342.824
125268,143295,10980,-0.201,1.009,-0.042,-0.549,0.305,1.037,342.83
125226,143345,9715,-0.193,1.004,-0.044,-1.707,-1.463,0.915,342.834
125226,143203,10980,-0.189,1.005,-0.055,-1.707,-1.463,0.915,342.84
125073,143089,9715,-0.19,1.007,-0.048,-1.951,-1.402,0.488,342.844
125073,143058,10973,-0.192,1.007,-0.04,-1.951,-1.402,0.488,342.85
125044,143089,9715,-0.196,1.001,-0.04,-0.427,-0.488,0.122,342.854
125044,143026,10967,-0.198,0.999,-0.034,-0.427,-0.488,0.122,342.86
125030,143089,9715,-0.202,0.998,-0.018,0,-0.366,0.183,342.864
125030,142959,10957,-0.202,1.001,-0.021,0,-0.366,0.183,342.87
124997,143089,9715,-0.196,0.995,-0.031,0.793,-0.366,0.183,342.874
124997,142943,10949,-0.195,1.003,-0.045,0.793,-0.366,0.183,342.88
125098,143089,9715,-0.202,1.017,-0.04,0,0.183,0.244,342.883
125098,143051,10964,-0.204,1.012,-0.031,0,0.183,0.244,342.89
125128,143345,9715,-0.203,1.001,-0.026,-0.305,-0.244,0.549,342.893
125128,143117,10982,-0.201,0.997,-0.03,-0.305,-0.244,0.549,342.9
125147,143345,9715,-0.199,0.995,-0.033,-0.305,-0.427,0.61,342.903
125147,143130,10984,-0.203,1.002,-0.044,-0.305,-0.427,0.61,342.909
125160,143345,9715,-0.202,1.015,-0.058,-0.122,0.305,0.976,342.913
125160,143136,10980,-0.203,1.019,-0.05,-0.122,0.305,0.976,342.919
125033,143089,9715,-0.206,1.009,-0.029,-0.183,0.061,0.915,342.923
125033,142997,10963,-0.21,1.001,-0.015,-0.183,0.061,0.915,342.929
124967,143089,9715,-0.207,1.003,-0.025,-0.244,-0.366,0.976,342.933
124967,142893,10958,-0.2,1.008,-0.035,-0.244,-0.366,0.976,342.939
124931,143089,9715,-0.198,1.005,-0.03,-0.183,-0.244,0.549,342.943
124931,142865,10972,-0.195,0.996,-0.014,-0.183,-0.244,0.549,342.949
124891,142833,9715,-0.197,1.004,-0.017,1.159,-0.305,0.671,342.953
124891,142798,10956,-0.198,1.016,-0.023,1.159,-0.305,0.671,342.959
124899,143089,9715,-0.193,1.018,-0.031,0.61,0.305,0.61,342.963
124899,142855,10968,-0.192,1.023,-0.052,0.61,0.305,0.61,342.969
124877,142833,9715,-0.197,1.025,-0.06,-0.244,1.037,0,342.973
124877,142802,10963,-0.198,1.009,-0.055,-0.244,1.037,0,342.979
124855,142833,9715,-0.203,0.999,-0.07,0.122,0.671,0.183,342.982
124855,142739,10946,-0.21,1.008,-0.085,0.122,0.671,0.183,342.989
124812,142833,9715,-0.205,1.008,-0.071,0.183,0.061,0.183,342.992
124812,142721,10945,-0.204,1.004,-0.049,0.183,0.061,0.183,342.999
124777,142833,9715,-0.204,0.999,-0.039,1.098,-0.488,0.366,343.002
124777,142698,10943,-0.204,0.998,-0.02,1.098,-0.488,0.366,343.008
124802,142833,9715,-0.202,0.984,0.009,0.793,-0.671,0.793,343.012
124802,142739,10955,-0.195,0.984,0.003,0.793,-0.671,0.793,343.018
124822,142833,9715,-0.188,1.007,-0.056,0.549,-0.061,0.732,343.022
124822,142740,10951,-0.191,1.021,-0.087,0.549,-0.061,0.732,343.028
124856,142833,9715,-0.204,1.014,-0.062,-0.671,1.098,0.732,343.032
124856,142808,10953,-0.209,1,-0.037,-0.671,1.098,0.732,343.038
124896,143089,9715,-0.21,1.005,-0.041,0.549,-0.549,1.707,343.042
124896,142859,10966,-0.201,1.014,-0.047,0.549,-0.549,1.707,343.048
124813,142833,9715,-0.195,1.016,-0.053,0.244,-0.854,1.037,343.052
124813,142701,10942,-0.195,1.019,-0.063,0.244,-0.854,1.037,343.058
124718,142833,9715,-0.199,1.026,-0.057,1.402,0.366,1.098,343.062
124718,142615,10935,-0.202,1.027,-0.044,1.402,0.366,1.098,343.068
124783,142833,9715,-0.202,1.013,-0.024,0.183,-0.671,1.098,343.072
124783,142642,10948,-0.194,0.988,-0.015,0.183,-0.671,1.098,343.078
124775,142833,9715,-0.191,0.99,-0.031,-0.671,-1.585,0.854,343.081
124775,142641,10936,-0.188,1.011,-0.053,-0.671,-1.585,0.854,343.088
124733,142833,9715,-0.186,1.019,-0.057,-0.427,-0.305,0.732,343.091
124733,142609,10923,-0.191,1.013,-0.04,-0.427,-0.305,0.732,343.098
124782,142833,9715,-0.205,1.015,-0.011,1.646,0.244,0.183,343.101
124782,142676,10933,-0.212,1.009,0.017,1.646,0.244,0.183,343.107
124842,142833,9715,-0.208,1,0.011,2.134,-0.122,0.122,343.111
124842,142789,10944,-0.196,1.011,-0.015,2.134,-0.122,0.122,343.117
124872,142833,9715,-0.188,1.02,-0.032,1.463,0.732,-0.61,343.121
124872,142830,10950,-0.187,1.017,-0.035,1.463,0.732,-0.61,343.127
124907,143089,9715,-0.191,1.008,-0.04,1.098,1.341,-0.427,343.131
124907,142866,10951,-0.197,1.001,-0.05,1.098,1.341,-0.427,343.137
124976,143089,9715,-0.2,0.983,-0.057,0.061,0.732,0.305,343.141
124976,142922,10958,-0.201,0.971,-0.049,0.061,0.732,0.305,343.147
125020,143089,9715,-0.202,0.977,-0.023,0.244,0.366,0.854,343.151
125020,142937,10938,-0.2,0.99,-0.014,0.244,0.366,0.854,343.157
125021,143089,9715,-0.19,1.014,-0.043,2.073,0.366,1.341,343.161
125021,142994,10945,-0.187,1.042,-0.074,2.073,0.366,1.341,343.167
125116,143345,9715,-0.194,1.047,-0.05,2.866,1.037,1.037,343.171
125116,143104,10964,-0.204,1.034,-0.007,2.866,1.037,1.037,343.177
125142,143345,9715,-0.206,1.025,-0.006,1.585,0.61,0.854,343.18
125142,143141,10966,-0.203,1.026,-0.053,1.585,0.61,0.854,343.187
125118,143089,9715,-0.197,1.012,-0.087,-3.049,0.244,-0.061,343.19
125118,143092,10962,-0.205,0.989,-0.089,-3.049,0.244,-0.061,343.197
125130,143345,9715,-0.211,0.979,-0.079,-1.951,0.854,-0.366,343.2
125130,143113,10978,-0.213,0.978,-0.08,-1.951,0.854,-0.366,343.206
125144,143345,9715,-0.21,0.988,-0.071,1.89,0.244,0.244,343.21
125144,143116,10971,-0.211,1,-0.064,1.89,0.244,0.244,343.216
125142,143345,9715,-0.21,1.008,-0.056,2.805,-0.244,0.732,343.22
125142,143138,10968,-0.208,0.996,-0.028,2.805,-0.244,0.732,343.226
125200,143345,9715,-0.201,0.985,-0.036,2.256,-0.61,1.646,343.23
125200,143234,10963,-0.198,0.995,-0.052,2.256,-0.61,1.646,343.236
125195,143345,9715,-0.198,0.995,-0.052,2.256,-0.61,1.646,343.24
125195,143210,10967,-0.187,1.004,-0.024,-1.28,-0.976,1.768,343.246
125148,143345,9715,-0.187,1.004,-0.024,-1.28,-0.976,1.768,343.25
125148,143150,10983,-0.191,1.024,-0.036,-1.28,-0.793,1.646,343.256
125175,143345,9715,-0.191,1.024,-0.036,-1.28,-0.793,1.646,343.26
125175,143158,10967,-0.195,1.028,-0.049,-0.061,0.305,1.402,343.266
125146,143345,9715,-0.195,1.028,-0.049,-0.061,0.305,1.402,343.27
125146,143169,10975,-0.205,1.025,-0.047,0.488,0.671,0.61,343.276
125166,143345,9715,-0.205,1.025,-0.047,0.488,0.671,0.61,343.279
125166,143201,10977,-0.2,1,-0.047,-0.305,0.244,0.305,343.286
125236,143345,9715,-0.2,1,-0.047,-0.305,0.244,0.305,343.289
125236,143270,10966,-0.193,0.997,-0.062,-0.671,-0.183,0.061,343.296
125150,143345,9715,-0.193,0.997,-0.062,-0.671,-0.183,0.061,343.299
125150,143109,10964,-0.201,0.991,-0.036,0.61,-0.122,0,343.305
124997,143089,9715,-0.201,0.991,-0.036,0.61,-0.122,0,343.309
124997,142963,10948,-0.196,1.001,-0.02,2.622,-0.427,0.549,343.315
125035,143089,9715,-0.196,1.001,-0.02,2.622,-0.427,0.549,343.319
125035,143006,10963,-0.192,1.007,-0.035,2.561,-0.976,0.793,343.325
125065,143089,9715,-0.192,1.007,-0.035,2.561,-0.976,0.793,343.329
125065,143017,10967,-0.197,1.008,-0.029,1.22,-0.061,1.098,343.335
125027,143089,9715,-0.197,1.008,-0.029,1.22,-0.061,1.098,343.339
125027,143014,10976,-0.194,1,-0.028,0.305,-0.183,1.22,343.345
125098,143345,9715,-0.194,1,-0.028,0.305,-0.183,1.22,343.349
125098,143109,10966,-0.196,0.999,-0.045,1.341,0.061,0.976,343.355
125152,143345,9715,-0.196,0.999,-0.045,1.341,0.061,0.976,343.359
125152,143132,10977,-0.195,1.039,-0.05,1.037,0.793,1.341,343.365
125088,143089,9715,-0.195,1.039,-0.05,1.037,0.793,1.341,343.369
125088,143069,10954,-0.195,1.018,-0.025,0.305,0.488,0.732,343.375
125104,143089,9715,-0.195,1.018,-0.025,0.305,0.488,0.732,343.378
125104,143094,10974,-0.202,1.029,-0.053,0.427,0.61,0.427,343.385
125221,143345,9715,-0.206,1.024,-0.078,0.427,0.61,0.427,343.388
125221,143213,10976,-0.207,1.021,-0.08,-1.037,1.402,-0.244,343.395
125208,143345,9715,-0.21,1.01,-0.073,-1.037,1.402,-0.244,343.398
125208,143161,10977,-0.21,0.989,-0.054,-0.549,0.427,-0.061,343.404
125253,143345,9715,-0.209,0.979,-0.044,-0.549,0.427,-0.061,343.408
125253,143235,10982,-0.209,0.987,-0.047,-0.488,-0.305,0.488,343.414
125342,143601,9715,-0.205,0.994,-0.04,-0.488,-0.305,0.488,343.418
125342,143388,10999,-0.205,0.989,-0.024,-0.671,0.305,0.305,343.424
125497,143601,9715,-0.197,0.982,-0.022,-0.671,0.305,0.305,343.428
125497,143587,11003,-0.193,0.991,-0.033,-0.366,0.244,0.854,343.434
125628,143857,9715,-0.19,1.003,-0.042,-0.366,0.244,0.854,343.438
125628,143732,11014,-0.188,1.007,-0.04,-0.549,0.61,1.22,343.444
125642,143857,9715,-0.187,1.002,-0.045,-0.549,0.61,1.22,343.448
125642,143802,11021,-0.186,1.005,-0.052,2.561,1.159,1.341,343.454
125801,144113,9715,-0.189,1.025,-0.073,2.561,1.159,1.341,343.458
125801,143979,11034,-0.197,1.038,-0.08,3.11,1.402,1.22,343.464
125854,144113,9715,-0.199,1.04,-0.063,3.11,1.402,1.22,343.468
125854,144012,11044,-0.203,1.035,-0.049,1.402,0.366,1.037,343.474
125930,144369,9715,-0.198,1.029,-0.051,1.402,0.366,1.037,343.478
125930,144131,11048,-0.193,1.017,-0.037,-0.305,-0.854,0.793,343.484
126081,144369,9715,-0.191,0.998,-0.014,-0.305,-0.854,0.793,343.487
126081,144317,11066,-0.19,0.997,-0.01,1.037,-0.793,0.488,343.494
126214,144625,9715,-0.184,1.006,-0.024,1.037,-0.793,0.488,343.497
126214,144494,11087,-0.183,1.01,-0.026,2.195,0.549,-0.305,343.503
126361,144881,9715,-0.189,1.017,-0.029,2.195,0.549,-0.305,343.507
126361,144679,11094,-0.193,1.021,-0.048,1.463,1.89,-0.793,343.513
126355,144881,9715,-0.202,1.012,-0.077,1.463,1.89,-0.793,343.517
126355,144687,11089,-0.209,0.99,-0.097,-2.195,1.829,-0.854,343.523
126364,144881,9715,-0.216,0.967,-0.095,-2.195,1.829,-0.854,343.527
126364,144686,11089,-0.218,0.953,-0.092,-3.476,0.793,-0.244,343.533
126347,144881,9715,-0.217,0.964,-0.084,-3.476,0.793,-0.244,343.537
126347,144665,11083,-0.204,0.981,-0.047,-0.488,-0.732,1.22,343.543
126351,144881,9715,-0.193,0.999,-0.006,-0.488,-0.732,1.22,343.547
126351,144693,11078,-0.188,1.017,0.01,3.659,-1.341,2.012,343.553
126374,144881,9715,-0.192,1.036,0.013,3.659,-1.341,2.012,343.557
126374,144781,11078,-0.192,1.032,0.033,1.707,0.305,1.707,343.563
126438,144881,9715,-0.189,1.021,0.022,1.707,0.305,1.707,343.567
126438,144852,11106,-0.188,1.028,-0.039,-2.195,1.646,0.915,343.573
126493,145137,9715,-0.189,1.034,-0.091,-2.195,1.646,0.915,343.577
126493,144920,11110,-0.192,1.013,-0.093,-3.537,2.317,-0.061,343.583
126641,145137,9715,-0.198,0.998,-0.084,-3.537,2.317,-0.061,343.586
126641,145119,11118,-0.208,1.014,-0.095,0.427,1.707,0.061,343.593
126747,145393,9715,-0.215,1.032,-0.092,0.427,1.707,0.061,343.596
126747,145246,11132,-0.213,1.023,-0.069,1.159,0.61,0.122,343.602
126749,145393,9715,-0.204,1.011,-0.052,1.159,0.61,0.122,343.606
126749,145262,11123,-0.204,1.008,-0.043,0.488,-0.488,0.305,343.612
126810,145393,9715,-0.199,1.005,-0.029,0.488,-0.488,0.305,343.616
126810,145344,11140,-0.187,0.982,-0.006,-1.402,-1.463,0.671,343.622
126886,145649,9715,-0.179,0.961,-0.008,-1.402,-1.463,0.671,343.626
126886,145455,11140,-0.179,0.968,-0.03,-0.61,-0.732,0.427,343.632
126876,145649,9715,-0.187,0.985,-0.041,-0.61,-0.732,0.427,343.636
126876,145449,11146,-0.197,0.996,-0.031,0.122,1.463,0.549,343.642
126912,145649,9715,-0.203,1.011,-0.03,0.122,1.463,0.549,343.646
126912,145496,11137,-0.206,1.022,-0.047,2.317,1.463,0.427,343.652
126968,145649,9715,-0.208,1.021,-0.07,2.317,1.463,0.427,343.656
126968,145535,11144,-0.203,1.01,-0.077,1.585,1.341,0.427,343.662
126889,145649,9715,-0.207,1.012,-0.088,1.585,1.341,0.427,343.666
126889,145456,11137,-0.212,1.024,-0.114,-1.28,0.854,1.037,343.672
126930,145649,9715,-0.209,1.027,-0.103,-1.28,0.854,1.037,343.675
126930,145529,11147,-0.205,1.012,-0.048,-1.28,-1.098,0.915,343.682
126969,145649,9715,-0.202,1.008,0.012,-1.28,-1.098,0.915,343.685
126969,145544,11161,-0.197,1.012,0.041,2.256,-2.195,0.793,343.692
126969,145649,9715,-0.182,1.025,0.045,2.256,-2.195,0.793,343.695
126969,145579,11150,-0.173,1.033,0.039,1.89,-0.671,0.305,343.701
127004,145649,9715,-0.173,1.036,0.017,1.89,-0.671,0.305,343.705
127004,145563,11155,-0.173,1.027,-0.015,-0.244,1.829,-1.159,343.711
126975,145649,9715,-0.181,1.011,-0.056,-0.244,1.829,-1.159,343.715
126975,145569,11157,-0.189,1.004,-0.092,-1.89,2.988,-1.89,343.721
126966,145649,9715,-0.2,0.999,-0.12,-1.89,2.988,-1.89,343.725
126966,145516,11151,-0.207,0.982,-0.117,-1.524,2.622,-1.829,343.731
126949,145649,9715,-0.212,0.982,-0.107,-1.524,2.622,-1.829,343.735
126949,145530,11155,-0.216,0.987,-0.091,0.122,0.854,-0.61,343.741
126997,145649,9715,-0.214,0.993,-0.06,0.122,0.854,-0.61,343.745
126997,145585,11167,-0.204,1,-0.042,0.854,-0.732,0.488,343.751
127062,145905,9715,-0.199,1.009,-0.02,0.854,-0.732,0.488,343.755
127062,145710,11160,-0.193,1.003,0.005,0.671,-1.037,1.098,343.761
127165,145905,9715,-0.181,1.002,0.008,0.671,-1.037,1.098,343.765
127165,145821,11150,-0.175,1.011,-0.007,0.061,-0.488,0.854,343.771
127173,145905,9715,-0.183,1.018,-0.027,0.061,-0.488,0.854,343.775
127173,145795,11171,-0.187,1.008,-0.026,-0.915,1.28,0.305,343.781
127113,145905,9715,-0.192,1.005,-0.039,-0.915,1.28,0.305,343.784
127113,145710,11150,-0.2,1.017,-0.082,0.915,2.073,-0.366,343.791
126997,145649,9715,-0.208,1.023,-0.101,0.915,2.073,-0.366,343.794
126997,145552,11156,-0.211,1.024,-0.099,0.671,2.439,-0.915,343.8
126964,145649,9715,-0.214,1.016,-0.096,0.671,2.439,-0.915,343.804
126964,145515,11140,-0.218,1.01,-0.083,0.549,0.976,-0.61,343.81
126989,145649,9715,-0.214,1.007,-0.063,0.549,0.976,-0.61,343.814
126989,145561,11158,-0.207,1,-0.027,0.244,-0.976,-0.488,343.82
127078,145905,9715,-0.197,0.992,-0.013,0.244,-0.976,-0.488,343.824
127078,145682,11161,-0.187,0.992,-0.019,1.22,-0.793,-0.305,343.83
127077,145905,9715,-0.187,0.992,-0.019,1.22,-0.793,-0.305,343.834
127077,145703,11166,-0.182,1.005,0.034,1.341,0.427,-0.305,343.84
127077,145905,9715,-0.182,1.005,0.034,1.341,0.427,-0.305,343.844
127077,145685,11163,-0.184,1.018,-0.066,-1.159,1.463,-1.037,343.85
126953,145649,9715,-0.184,1.018,-0.066,-1.159,1.463,-1.037,343.854
126953,145503,11146,-0.209,0.969,-0.047,-1.22,3.171,-1.098,343.86
126916,145649,9715,-0.209,0.969,-0.047,-1.22,3.171,-1.098,343.864
126916,145460,11151,-0.212,1.023,-0.129,-2.134,2.317,-0.305,343.87
126956,145649,9715,-0.212,1.023,-0.129,-2.134,2.317,-0.305,343.873
126956,145536,11142,-0.215,1.013,-0.056,-0.671,0.976,-0.488,343.88
127048,145905,9715,-0.215,1.013,-0.056,-0.671,0.976,-0.488,343.883
127048,145673,11156,-0.21,1.009,-0.033,-0.244,0.244,0.61,343.89
127124,145905,9715,-0.21,1.009,-0.033,-0.244,0.244,0.61,343.893
127124,145779,11174,-0.188,1.017,-0.016,-0.854,0.122,-0.183,343.899
127204,145905,9715,-0.188,1.017,-0.016,-0.854,0.122,-0.183,343.903
127204,145876,11155,-0.185,1.004,0.023,0.122,0.732,-0.488,343.909
127157,145905,9715,-0.185,1.004,0.023,0.122,0.732,-0.488,343.913
127157,145827,11171,-0.184,1.035,-0.077,-1.28,1.829,-1.341,343.919
127159,145905,9715,-0.184,1.035,-0.077,-1.28,1.829,-1.341,343.923
127159,145816,11170,-0.209,0.999,-0.107,-3.049,3.659,-2.378,343.929
127161,145905,9715,-0.209,0.999,-0.107,-3.049,3.659,-2.378,343.933
127161,145830,11176,-0.228,0.983,-0.127,-2.134,2.012,-1.159,343.939
127227,145905,9715,-0.228,0.983,-0.127,-2.134,2.012,-1.159,343.943
127227,145893,11187,-0.215,0.976,-0.061,-0.854,-1.037,-0.549,343.949
127308,146161,9715,-0.215,0.976,-0.061,-0.854,-1.037,-0.549,343.953
127308,146030,11177,-0.203,1.004,0.01,1.463,-1.89,0.61,343.959
127536,146417,9715,-0.203,1.004,0.01,1.463,-1.89,0.61,343.963
127536,146366,11221,-0.189,1.014,0.044,-0.183,-1.098,1.159,343.969
127729,146673,9715,-0.189,1.014,0.044,-0.183,-1.098,1.159,343.973
127729,146613,11214,-0.182,1.024,-0.011,-0.183,-1.098,1.159,343.979
127758,146673,9715,-0.188,1.03,-0.071,-5.305,0.549,0.793,343.982
127758,146665,11239,-0.196,1.019,-0.095,-5.305,0.549,0.793,343.989
127733,146673,9715,-0.199,0.998,-0.095,-7.012,0.732,0.488,343.992
127733,146609,11221,-0.206,0.981,-0.089,-7.012,0.732,0.488,343.998
127630,146673,9715,-0.212,0.966,-0.081,-4.207,-1.646,0.488,344.002
127630,146467,11208,-0.212,0.967,-0.089,-4.207,-1.646,0.488,344.008
127656,146673,9715,-0.211,0.992,-0.103,-0.915,-2.195,1.28,344.012
127656,146493,11204,-0.212,1.026,-0.089,-0.915,-2.195,1.28,344.018
127710,146673,9715,-0.209,1.052,-0.04,2.073,-2.317,1.098,344.022
127710,146618,11220,-0.204,1.057,0.002,2.073,-2.317,1.098,344.028
127780,146929,9715,-0.195,1.046,0.021,2.073,-3.78,0.793,344.032
127780,146706,11237,-0.193,1.027,0.028,2.073,-3.78,0.793,344.038
127865,146929,9715,-0.185,1.003,0.028,-2.439,-3.049,0.671,344.042
127865,146805,11217,-0.18,0.98,0.007,-2.439,-3.049,0.671,344.048
127806,146929,9715,-0.18,0.979,-0.018,-3.354,-0.366,0.122,344.052
127806,146737,11224,-0.178,0.996,-0.035,-3.354,-0.366,0.122,344.058
127786,146929,9715,-0.186,1.011,-0.037,-1.646,1.463,-0.488,344.062
127786,146691,11217,-0.201,1.024,-0.029,-1.646,1.463,-0.488,344.068
127671,146673,9715,-0.21,1.013,-0.02,-1.402,2.012,-0.671,344.071
127671,146602,11215,-0.215,0.986,-0.025,-1.402,2.012,-0.671,344.078
127676,146673,9715,-0.21,0.974,-0.036,-0.61,1.951,-0.183,344.081
127676,146594,11230,-0.205,0.984,-0.048,-0.61,1.951,-0.183,344.088
127787,146929,9715,-0.195,1.005,-0.067,0.793,2.012,0,344.091
127787,146744,11238,-0.196,1.03,-0.069,0.793,2.012,0,344.097
127936,147185,9715,-0.197,1.04,-0.029,2.439,1.28,0.061,344.101
127936,146956,11241,-0.194,1.022,0.006,2.439,1.28,0.061,344.107
127946,147185,9715,-0.193,1.022,-0.024,2.988,0.488,0,344.111
127946,147016,11251,-0.193,1.036,-0.079,2.988,0.488,0,344.117
128002,147185,9715,-0.197,1.02,-0.089,-3.476,1.89,-0.427,344.121
128002,147051,11245,-0.2,0.975,-0.063,-3.476,1.89,-0.427,344.127
127898,146929,9715,-0.203,0.959,-0.08,-2.744,1.707,0.061,344.131
127898,146941,11237,-0.205,0.972,-0.105,-2.744,1.707,0.061,344.137
127907,146929,9715,-0.203,0.976,-0.089,-0.915,0.732,0.488,344.141
127907,146914,11233,-0.204,0.977,-0.048,-0.915,0.732,0.488,344.147
127848,146929,9715,-0.207,0.996,-0.031,3.415,0.793,1.159,344.151
127848,146888,11225,-0.207,1.026,-0.013,3.415,0.793,1.159,344.157
127947,147185,9715,-0.201,1.021,0.032,3.537,0.244,1.829,344.161
127947,147046,11241,-0.192,0.991,0.08,3.537,0.244,1.829,344.167
127980,147185,9715,-0.179,0.999,0.053,4.085,0.427,1.341,344.171
127980,147063,11256,-0.176,1.049,-0.033,4.085,0.427,1.341,344.177
127919,147185,9715,-0.18,1.071,-0.058,-2.988,3.049,0.305,344.18
127919,146999,11244,-0.19,1.036,-0.04,-2.988,3.049,0.305,344.187
127913,147185,9715,-0.203,1.008,-0.061,-1.768,4.451,-0.549,344.19
127913,146977,11239,-0.211,1.024,-0.127,-1.768,4.451,-0.549,344.196
127719,146673,9715,-0.213,1.032,-0.155,-1.951,3.476,-1.22,344.2
127719,146680,11209,-0.222,1.015,-0.124,-1.951,3.476,-1.22,344.206
127566,146673,9715,-0.233,1.003,-0.096,0.305,2.195,-0.915,344.21
127566,146445,11205,-0.231,1.009,-0.087,0.305,2.195,-0.915,344.216
127451,146417,9715,-0.222,1.009,-0.054,0.549,-0.671,0.61,344.22
127451,146342,11203,-0.21,0.987,0.012,0.549,-0.671,0.61,344.226
127467,146417,9715,-0.194,0.965,0.036,0.366,-2.134,0.427,344.23
127467,146390,11199,-0.18,0.967,-0.008,0.366,-2.134,0.427,344.236
