134732,155121,9715,-0.201,1.002,0.138,0.61,0.976,0.183,275.355
134732,154995,11930,-0.198,0.998,0.146,0.366,0.732,0.427,275.361
134777,155121,9715,-0.193,0.993,0.142,0.366,0.732,0.427,275.365
134777,154969,11929,-0.198,0.994,0.136,-0.183,0.793,0.549,275.371
134737,155121,9715,-0.203,0.998,0.133,-0.183,0.793,0.549,275.375
134737,154978,11951,-0.198,0.995,0.137,0.549,0.854,0.549,275.381
134747,155121,9715,-0.195,1,0.137,0.549,0.854,0.549,275.385
134747,154958,11943,-0.195,1.012,0.134,1.768,0.488,0.366,275.391
134718,155121,9715,-0.197,1.019,0.132,1.768,0.488,0.366,275.395
134718,154929,11938,-0.201,1.018,0.137,1.28,0.61,0.122,275.401
134712,155121,9715,-0.203,1.013,0.144,1.28,0.61,0.122,275.405
134712,154927,11935,-0.203,1.006,0.147,0.976,0.61,0.244,275.411
134710,155121,9715,-0.199,1.002,0.145,0.976,0.61,0.244,275.415
134710,154883,11945,-0.198,1,0.142,0.427,0.305,0,275.421
134699,155121,9715,-0.193,1.002,0.141,0.427,0.305,0,275.424
134699,154892,11943,-0.193,1,0.145,0.061,0.366,-0.183,275.431
134703,155121,9715,-0.193,0.995,0.143,0.061,0.366,-0.183,275.434
134703,154901,11939,-0.195,0.995,0.141,0.976,0.854,-0.183,275.441
134708,154865,9715,-0.198,0.99,0.136,0.976,0.854,-0.183,275.444
134708,154872,11952,-0.202,0.993,0.132,1.646,0.976,-0.183,275.45
134699,155121,9715,-0.2,1,0.132,1.646,0.976,-0.183,275.454
134699,154887,11928,-0.198,1.005,0.136,1.707,0.549,0.122,275.46
134707,154865,9715,-0.198,1.006,0.137,1.707,0.549,0.122,275.464
134707,154851,11945,-0.198,1,0.139,1.463,0.61,0.183,275.47
134694,154865,9715,-0.203,0.999,0.142,1.463,0.61,0.183,275.474
134694,154831,11932,-0.205,1.002,0.142,0.732,1.159,0.183,275.48
134659,154865,9715,-0.206,1.003,0.14,0.732,1.159,0.183,275.484
134659,154830,11943,-0.199,0.999,0.137,1.037,0.854,0.244,275.49
134680,154865,9715,-0.196,1.004,0.136,1.037,0.854,0.244,275.494
134680,154782,11924,-0.199,1.01,0.131,1.585,0.732,0.061,275.5
134641,154865,9715,-0.202,1.012,0.129,1.585,0.732,0.061,275.504
134641,154753,11936,-0.202,1.01,0.128,1.463,1.037,0.061,275.51
134620,154865,9715,-0.2,1.009,0.132,1.463,1.037,0.061,275.514
134620,154652,11941,-0.199,1.001,0.136,0.976,0.976,0.183,275.52
134582,154609,9715,-0.197,1,0.133,0.976,0.976,0.183,275.523
134582,154616,11933,-0.196,1,0.13,-0.244,0.61,0.244,275.53
134578,154609,9715,-0.196,1,0.13,-0.244,0.61,0.244,275.533
134578,154531,11924,-0.195,0.998,0.134,-1.037,0.427,0.244,275.54
134560,154609,9715,-0.195,0.998,0.134,-1.037,0.427,0.244,275.543
134560,154517,11920,-0.197,0.996,0.127,-0.305,0.427,0.366,275.549
134536,154609,9715,-0.197,0.996,0.127,-0.305,0.427,0.366,275.553
134536,154481,11929,-0.197,0.998,0.132,0.732,0.183,0.305,275.559
134545,154609,9715,-0.197,0.998,0.132,0.732,0.183,0.305,275.563
134545,154483,11903,-0.199,1.013,0.131,0.793,0.061,0.366,275.569
134521,154609,9715,-0.199,1.013,0.131,0.793,0.061,0.366,275.573
134521,154504,11933,-0.205,1.005,0.141,-0.183,-0.061,0.244,275.579
134522,154609,9715,-0.205,1.005,0.141,-0.183,-0.061,0.244,275.583
134522,154473,11919,-0.2,0.991,0.132,-1.037,-0.061,0.366,275.589
134524,154609,9715,-0.2,0.991,0.132,-1.037,-0.061,0.366,275.593
134524,154512,11922,-0.2,0.992,0.135,-1.037,-0.122,0.549,275.599
134530,154609,9715,-0.2,0.992,0.135,-1.037,-0.122,0.549,275.603
134530,154526,11917,-0.2,1.006,0.138,-0.244,0.061,0.549,275.609
134555,154609,9715,-0.2,1.006,0.138,-0.244,0.061,0.549,275.613
134555,154569,11931,-0.203,1.004,0.139,0.366,0.122,0.488,275.619
134564,154609,9715,-0.203,1.004,0.139,0.366,0.122,0.488,275.622
134564,154598,11921,-0.205,1.005,0.14,0,0.122,0.549,275.629
134545,154609,9715,-0.205,1.005,0.14,0,0.122,0.549,275.632
134545,154586,11923,-0.195,1,0.139,-0.549,0.061,0.549,275.639
134569,154609,9715,-0.195,1,0.139,-0.549,0.061,0.549,275.642
134569,154622,11920,-0.196,0.994,0.143,-0.366,0,0.366,275.648
134597,154609,9715,-0.196,0.994,0.143,-0.366,0,0.366,275.652
134597,154604,11935,-0.195,0.994,0.135,-0.122,0.061,0.427,275.658
134582,154865,9715,-0.195,0.994,0.135,-0.122,0.061,0.427,275.662
134582,154632,11925,-0.195,0.993,0.138,0.305,0.244,0.61,275.668
134571,154609,9715,-0.195,0.993,0.138,0.305,0.244,0.61,275.672
134571,154606,11927,-0.197,0.993,0.133,0.305,0.244,0.61,275.678
134560,154609,9715,-0.199,1,0.133,0.427,0.244,0.732,275.682
134560,154623,11914,-0.2,1.001,0.131,0.427,0.244,0.732,275.688
134582,154865,9715,-0.201,1.001,0.131,0.549,0.61,0.854,275.692
134582,154647,11932,-0.201,0.998,0.144,0.549,0.61,0.854,275.698
134602,154865,9715,-0.2,1.003,0.139,0.671,0.61,1.098,275.702
134602,154663,11926,-0.196,1.009,0.134,0.671,0.61,1.098,275.708
134609,154865,9715,-0.195,1.012,0.137,0.122,0.122,0.854,275.712
134609,154711,11907,-0.2,1.01,0.135,0.122,0.122,0.854,275.718
134622,154865,9715,-0.205,0.998,0.139,-0.061,0.427,0.854,275.721
134622,154687,11920,-0.204,0.996,0.133,-0.061,0.427,0.854,275.728
134610,154865,9715,-0.201,0.996,0.133,0.183,0.732,0.915,275.731
134610,154716,11908,-0.2,0.997,0.135,0.183,0.732,0.915,275.738
134625,154865,9715,-0.195,0.999,0.134,0.305,0.183,0.732,275.741
134625,154696,11913,-0.194,1.004,0.132,0.305,0.183,0.732,275.747
134633,154865,9715,-0.196,1.003,0.13,0.488,0.244,0.793,275.751
134633,154745,11922,-0.198,1.008,0.132,0.488,0.244,0.793,275.757
134647,154865,9715,-0.197,1.012,0.126,0.488,0.366,0.549,275.761
134647,154744,11917,-0.197,1.01,0.133,0.488,0.366,0.549,275.767
134664,154865,9715,-0.19,1.005,0.131,0.183,0.061,0.488,275.771
134664,154730,11899,-0.193,1.006,0.131,0.183,0.061,0.488,275.777
134658,154865,9715,-0.198,1.005,0.125,-0.244,-0.061,0.61,275.781
134658,154732,11905,-0.198,1.004,0.125,-0.244,-0.061,0.61,275.787
134634,154865,9715,-0.195,1.004,0.123,-0.122,-0.366,0.61,275.791
134634,154740,11906,-0.193,1.004,0.127,-0.122,-0.366,0.61,275.797
134657,154865,9715,-0.194,1.001,0.127,0.488,-0.793,0.671,275.801
134657,154735,11907,-0.195,0.997,0.13,0.488,-0.793,0.671,275.807
134657,154865,9715,-0.195,0.99,0.13,1.159,-0.61,0.732,275.811
134657,154723,11911,-0.198,0.997,0.125,1.159,-0.61,0.732,275.817
134696,154865,9715,-0.201,1.006,0.129,0.915,-0.427,0.488,275.82
134696,154726,11907,-0.201,1.009,0.132,0.915,-0.427,0.488,275.827
134674,154865,9715,-0.2,1.007,0.136,0.793,-0.61,0.671,275.83
134674,154704,11896,-0.202,1.006,0.138,0.793,-0.61,0.671,275.837
134676,154865,9715,-0.198,1.005,0.136,-0.244,-0.61,0.793,275.84
134676,154722,11904,-0.196,1.001,0.134,-0.244,-0.61,0.793,275.846
134647,154865,9715,-0.195,0.994,0.135,-0.915,-0.915,0.793,275.85
134647,154729,11904,-0.193,0.991,0.133,-0.915,-0.915,0.793,275.856
134697,154865,9715,-0.195,0.987,0.133,-0.915,-0.732,0.976,275.86
134697,154730,11903,-0.196,0.989,0.13,-0.915,-0.732,0.976,275.866
134693,154865,9715,-0.196,0.995,0.126,-0.488,-0.427,1.159,275.87
134693,154750,11899,-0.196,1.002,0.126,-0.488,-0.427,1.159,275.876
134696,154865,9715,-0.196,1.01,0.131,0.244,-0.61,1.28,275.88
134696,154748,11899,-0.195,1.013,0.129,0.244,-0.61,1.28,275.886
134734,154865,9715,-0.194,1.014,0.132,-0.183,-0.976,1.159,275.89
134734,154779,11897,-0.194,1.012,0.135,-0.183,-0.976,1.159,275.896
134714,154865,9715,-0.2,1.007,0.135,-0.976,-0.854,1.22,275.9
134714,154791,11913,-0.197,1.006,0.132,-0.976,-0.854,1.22,275.906
134732,154865,9715,-0.196,1.005,0.135,-1.341,-0.976,1.037,275.91
134732,154806,11905,-0.196,1.003,0.137,-1.341,-0.976,1.037,275.916
134731,154865,9715,-0.197,1.005,0.136,-1.098,-1.037,0.793,275.919
134731,154788,11899,-0.197,1.005,0.134,-1.098,-1.037,0.793,275.926
134756,154865,9715,-0.195,0.998,0.137,-0.915,-0.976,0.732,275.929
134756,154811,11911,-0.194,0.998,0.139,-0.915,-0.976,0.732,275.936
134734,154865,9715,-0.193,0.999,0.144,-0.488,-0.854,0.488,275.939
134734,154817,11900,-0.192,1.002,0.145,-0.488,-0.854,0.488,275.945
134760,154865,9715,-0.195,1.003,0.138,-0.488,-0.549,0.549,275.949
134760,154819,11898,-0.195,1,0.141,-0.488,-0.549,0.549,275.955
134775,154865,9715,-0.196,1,0.145,-0.61,-0.122,0.549,275.959
134775,154829,11908,-0.196,0.998,0.144,-0.61,-0.122,0.549,275.965
134774,154865,9715,-0.198,1.001,0.142,-0.732,-0.061,0.549,275.969
134774,154843,11896,-0.197,0.998,0.14,-0.732,-0.061,0.549,275.975
134772,154865,9715,-0.197,0.996,0.139,-1.098,-0.122,0.793,275.979
134772,154856,11908,-0.196,0.99,0.143,-1.098,-0.122,0.793,275.985
134780,154865,9715,-0.192,0.993,0.141,-1.098,-0.183,0.976,275.989
134780,154848,11896,-0.195,1,0.143,-1.098,-0.183,0.976,275.995
134778,154865,9715,-0.194,1.004,0.143,-1.159,0.061,1.098,275.999
134778,154865,11909,-0.193,1.002,0.145,-1.159,0.061,1.098,276.005
134791,154865,9715,-0.195,1.001,0.142,-1.22,0.183,0.976,276.009
134791,154853,11903,-0.194,1.001,0.145,-1.22,0.183,0.976,276.015
134805,154865,9715,-0.197,1.002,0.143,-1.159,0.122,1.037,276.018
134805,154851,11910,-0.193,1.001,0.141,-1.159,0.122,1.037,276.025
134813,154865,9715,-0.195,1.001,0.143,-1.463,0.244,0.976,276.028
134813,154871,11906,-0.194,0.996,0.143,-1.463,0.244,0.976,276.035
134761,154865,9715,-0.192,1.002,0.139,-1.707,0.183,0.671,276.038
134761,154859,11916,-0.193,1.004,0.138,-1.707,0.183,0.671,276.044
134814,154865,9715,-0.194,1.001,0.142,-1.28,0.183,0.671,276.048
134814,154860,11919,-0.193,1,0.133,-1.28,0.183,0.671,276.054
134783,154865,9715,-0.193,1.008,0.131,-0.488,0.244,0.488,276.058
134783,154874,11901,-0.197,1.007,0.131,-0.488,0.244,0.488,276.064
134797,154865,9715,-0.202,1.007,0.134,0.427,0.488,0.488,276.068
134797,154855,11899,-0.2,1.007,0.135,0.427,0.488,0.488,276.074
134798,154865,9715,-0.198,1.005,0.128,0.305,0.183,0.488,276.078
134798,154867,11913,-0.198,1.002,0.131,0.305,0.183,0.488,276.084
134785,154865,9715,-0.198,0.996,0.138,-0.549,-0.244,0.549,276.088
134785,154835,11911,-0.191,0.993,0.141,-0.549,-0.244,0.549,276.094
134783,154865,9715,-0.194,0.992,0.139,-0.915,-0.244,0.854,276.098
134783,154847,11900,-0.193,0.99,0.144,-0.915,-0.244,0.854,276.104
134811,154865,9715,-0.192,0.989,0.142,-0.671,-0.061,0.915,276.108
134811,154875,11902,-0.198,0.999,0.147,-0.671,-0.061,0.915,276.114
134822,154865,9715,-0.198,0.999,0.147,-0.671,-0.061,0.915,276.117
134822,154842,11903,-0.199,1,0.147,-0.427,0.244,1.037,276.124
134807,154865,9715,-0.199,1,0.147,-0.427,0.244,1.037,276.127
134807,154847,11908,-0.194,1.004,0.144,-0.183,0.427,1.037,276.134
134819,154865,9715,-0.194,1.004,0.144,-0.183,0.427,1.037,276.137
134819,154828,11911,-0.198,1.008,0.14,-0.244,0.488,0.976,276.143
134829,154865,9715,-0.198,1.008,0.14,-0.244,0.488,0.976,276.147
134829,154832,11915,-0.195,1.012,0.131,-0.061,0.793,0.732,276.153
134833,154865,9715,-0.195,1.012,0.131,-0.061,0.793,0.732,276.157
134833,154830,11909,-0.194,1.008,0.133,0,0.549,0.366,276.163
134818,154865,9715,-0.194,1.008,0.133,0,0.549,0.366,276.167
134818,154850,11911,-0.192,1.006,0.138,-0.244,0.305,0.305,276.173
134815,154865,9715,-0.192,1.006,0.138,-0.244,0.305,0.305,276.177
134815,154827,11917,-0.188,1.005,0.14,-0.244,0.366,0.122,276.183
134824,154865,9715,-0.188,1.005,0.14,-0.244,0.366,0.122,276.187
134824,154858,11918,-0.188,0.999,0.141,-0.183,0.305,0.244,276.193
134836,154865,9715,-0.188,0.999,0.141,-0.183,0.305,0.244,276.197
134836,154856,11907,-0.187,1,0.146,-0.061,0.244,0.183,276.203
134819,154865,9715,-0.187,1,0.146,-0.061,0.244,0.183,276.207
134819,154858,11904,-0.192,1.001,0.141,0.427,0.549,-0.061,276.213
134840,154865,9715,-0.192,1.001,0.141,0.427,0.549,-0.061,276.216
134840,154845,11920,-0.197,1.004,0.138,0.671,1.159,-0.061,276.223
134849,154865,9715,-0.197,1.004,0.138,0.671,1.159,-0.061,276.226
134849,154868,11915,-0.197,0.999,0.138,0.549,1.22,0.061,276.233
134834,154865,9715,-0.197,0.999,0.138,0.549,1.22,0.061,276.236
134834,154850,11931,-0.202,1.001,0.135,0.122,1.098,0,276.242
134863,154865,9715,-0.202,1.001,0.135,0.122,1.098,0,276.246
134863,154846,11912,-0.198,0.999,0.129,-0.122,1.159,0.183,276.252
134873,154865,9715,-0.198,0.999,0.129,-0.122,1.159,0.183,276.256
134873,154879,11911,-0.197,1,0.142,0.183,0.915,0.427,276.262
134871,154865,9715,-0.197,1,0.142,0.183,0.915,0.427,276.266
134871,154858,11917,-0.197,1.003,0.132,0.793,0.854,0.549,276.272
134863,155121,9715,-0.199,1.007,0.134,0.793,0.854,0.549,276.276
134863,154895,11918,-0.199,1.011,0.14,0.915,0.915,0.427,276.282
134883,155121,9715,-0.193,1.009,0.147,0.915,0.915,0.427,276.286
134883,154909,11929,-0.193,1.007,0.14,0.976,0.671,0.366,276.292
134864,155121,9715,-0.191,1,0.136,0.976,0.671,0.366,276.296
134864,154892,11926,-0.189,0.996,0.132,0.61,0.427,0.122,276.302
134886,155121,9715,-0.19,0.999,0.134,0.61,0.427,0.122,276.306
134886,154922,11923,-0.191,1.001,0.139,-0.305,0.305,0.183,276.312
134874,155121,9715,-0.193,0.995,0.139,-0.305,0.305,0.183,276.315
134874,154916,11925,-0.192,0.995,0.128,-0.61,0.244,0.122,276.322
134908,155121,9715,-0.194,0.997,0.125,-0.61,0.244,0.122,276.325
134908,154931,11924,-0.196,0.998,0.125,-0.854,0.305,0.244,276.332
134894,155121,9715,-0.2,0.999,0.128,-0.854,0.305,0.244,276.335
134894,154948,11912,-0.199,1,0.128,-0.305,0.122,0.488,276.341
134896,155121,9715,-0.197,1.005,0.129,-0.305,0.122,0.488,276.345
134896,154940,11924,-0.199,1.005,0.129,-0.122,0.122,0.61,276.351
134885,155121,9715,-0.2,1.004,0.129,-0.122,0.122,0.61,276.355
134885,154933,11915,-0.204,1.006,0.128,-0.244,0.061,0.61,276.361
134888,155121,9715,-0.203,1.008,0.129,-0.244,0.061,0.61,276.365
134888,154923,11921,-0.203,1.009,0.136,-0.244,-0.122,0.488,276.371
134908,155121,9715,-0.201,1.007,0.139,-0.244,-0.122,0.488,276.375
134908,154942,11926,-0.196,1.004,0.142,-0.427,-0.122,0.488,276.381
134895,155121,9715,-0.198,1.004,0.145,-0.427,-0.122,0.488,276.385
134895,154949,11937,-0.195,1.003,0.141,-1.098,-0.244,0.549,276.391
134919,155121,9715,-0.189,1.001,0.145,-1.098,-0.244,0.549,276.395
134919,154944,11924,-0.186,0.992,0.148,-1.341,-0.305,0.61,276.401
134900,155121,9715,-0.184,0.993,0.146,-1.341,-0.305,0.61,276.405
134900,154919,11926,-0.185,0.997,0.142,-0.488,0,0.549,276.411
134926,155121,9715,-0.183,1.002,0.142,-0.488,0,0.549,276.414
134926,154963,11914,-0.183,1.008,0.143,0.366,0.488,0.244,276.421
134924,155121,9715,-0.183,1.01,0.14,0.366,0.488,0.244,276.424
134924,154934,11907,-0.187,1.01,0.142,0.122,0.549,0.061,276.431
134936,155121,9715,-0.191,1.005,0.133,0.122,0.549,0.061,276.434
134936,154946,11917,-0.197,1.001,0.129,-0.976,0.488,0.122,276.44
134941,155121,9715,-0.197,1,0.128,-0.976,0.488,0.122,276.444
134941,154929,11918,-0.195,1,0.128,-1.159,0.305,0.122,276.45
134921,155121,9715,-0.194,1.002,0.132,-1.159,0.305,0.122,276.454
134921,154918,11913,-0.192,1,0.134,0.061,-0.061,0.061,276.46
134927,155121,9715,-0.195,1.004,0.139,0.061,-0.061,0.061,276.464
134927,154910,11903,-0.2,1.007,0.139,1.037,0.427,0.061,276.47
134918,155121,9715,-0.202,1.009,0.141,1.037,0.427,0.061,276.474
134918,154905,11904,-0.201,1.009,0.139,0.671,0.671,-0.183,276.48
134935,154865,9715,-0.198,1.008,0.141,0.671,0.671,-0.183,276.484
134935,154878,11901,-0.194,1.002,0.143,-0.061,0.122,-0.427,276.49
134929,154865,9715,-0.188,1,0.14,-0.061,0.122,-0.427,276.494
134929,154866,11902,-0.191,0.999,0.139,-0.915,0.305,-0.183,276.5
134933,155121,9715,-0.188,0.995,0.142,-0.915,0.305,-0.183,276.504
134933,154883,11901,-0.188,0.995,0.141,-0.61,0.854,-0.122,276.51
134937,154865,9715,-0.191,0.995,0.14,-0.61,0.854,-0.122,276.513
134937,154871,11916,-0.193,0.998,0.14,0.183,1.098,-0.183,276.52
134946,155121,9715,-0.197,0.998,0.137,0.183,1.098,-0.183,276.523
134946,154912,11896,-0.193,1.001,0.134,0.183,1.159,0,276.53
134944,155121,9715,-0.193,1,0.131,0.183,1.159,0,276.533
134944,154882,11901,-0.195,1.004,0.133,0.244,0.732,-0.061,276.539
134950,155121,9715,-0.195,1.006,0.131,0.244,0.732,-0.061,276.543
134950,154907,11900,-0.197,1.005,0.131,0.427,0.488,0,276.549
134979,155121,9715,-0.196,1.003,0.127,0.427,0.488,0,276.553
134979,154899,11883,-0.198,0.994,0.126,-0.427,0.305,0.122,276.559
134987,155121,9715,-0.199,0.99,0.128,-0.427,0.305,0.122,276.563
134987,154924,11903,-0.202,0.991,0.134,-1.159,0.061,0.366,276.569
134983,155121,9715,-0.202,0.998,0.126,-1.159,0.061,0.366,276.573
134983,154945,11902,-0.204,1.002,0.133,-1.22,0,0.549,276.579
134997,155121,9715,-0.2,1.003,0.143,-1.22,0,0.549,276.583
134997,154951,11902,-0.2,1.002,0.143,-0.915,-0.305,0.488,276.589
135003,155121,9715,-0.199,1.005,0.141,-0.915,-0.305,0.488,276.593
135003,154980,11905,-0.196,1.005,0.135,-0.915,-0.366,0.488,276.599
134992,155121,9715,-0.198,1.006,0.139,-0.915,-0.366,0.488,276.603
134992,154964,11914,-0.194,1.002,0.141,-0.427,-0.122,0.366,276.609
135010,155121,9715,-0.196,1.005,0.138,-0.427,-0.122,0.366,276.612
135010,154944,11905,-0.196,1.008,0.135,-0.244,-0.183,0.061,276.619
135006,155121,9715,-0.194,1.005,0.136,-0.244,-0.183,0.061,276.622
135006,154965,11900,-0.195,0.994,0.138,-0.854,-0.183,0.061,276.629
135008,155121,9715,-0.193,0.991,0.135,-0.854,-0.183,0.061,276.632
135008,154942,11914,-0.192,0.992,0.134,-1.341,-0.122,0.549,276.638
135021,155121,9715,-0.192,0.992,0.137,-1.341,-0.122,0.549,276.642
135021,154936,11908,-0.193,0.991,0.144,-1.463,-0.122,0.793,276.648
135006,155121,9715,-0.194,0.993,0.141,-1.463,-0.122,0.793,276.652
135006,154967,11914,-0.197,0.998,0.136,-0.854,0,0.915,276.658
135033,155121,9715,-0.197,1.003,0.136,-0.854,0,0.915,276.662
135033,154951,11908,-0.196,1.005,0.137,-0.732,-0.305,0.915,276.668
135038,155121,9715,-0.197,1.01,0.135,-0.732,-0.305,0.915,276.672
135038,154971,11915,-0.195,1.001,0.139,-1.402,-0.549,1.159,276.678
135033,155121,9715,-0.194,0.994,0.143,-1.402,-0.549,1.159,276.682
135033,154960,11903,-0.194,0.998,0.141,-1.829,-0.549,1.28,276.688
135054,155121,9715,-0.188,1.003,0.145,-1.829,-0.549,1.28,276.692
135054,154950,11907,-0.187,1.005,0.151,-1.402,-0.427,1.037,276.698
135042,155121,9715,-0.187,1.002,0.146,-1.402,-0.427,1.037,276.702
135042,154979,11901,-0.194,1.003,0.14,-0.122,-0.061,0.976,276.708
135032,155121,9715,-0.194,1.003,0.14,-0.122,-0.061,0.976,276.712
135032,154999,11904,-0.195,1.01,0.139,0,0.183,0.793,276.718
135054,155121,9715,-0.195,1.01,0.139,0,0.183,0.793,276.721
135054,154946,11914,-0.192,1.008,0.139,0.122,-0.122,0.549,276.728
135036,155121,9715,-0.192,1.008,0.139,0.122,-0.122,0.549,276.731
135036,154973,11918,-0.192,1.009,0.145,-0.671,0.122,0.244,276.737
135051,155121,9715,-0.192,1.009,0.145,-0.671,0.122,0.244,276.741
135051,154964,11924,-0.19,0.996,0.152,-1.402,0.244,0.244,276.747
135039,155121,9715,-0.19,0.996,0.152,-1.402,0.244,0.244,276.751
135039,154972,11928,-0.195,0.99,0.143,-1.585,0.366,0.488,276.757
135055,155121,9715,-0.195,0.99,0.143,-1.585,0.366,0.488,276.761
135055,154959,11922,-0.192,0.991,0.141,-1.098,0.427,0.61,276.767
135058,155121,9715,-0.192,0.991,0.141,-1.098,0.427,0.61,276.771
135058,155021,11914,-0.193,1,0.143,-0.671,0.671,0.793,276.777
135056,155121,9715,-0.193,1,0.143,-0.671,0.671,0.793,276.781
135056,154993,11918,-0.197,1.002,0.145,-0.549,1.098,0.915,276.787
135071,155121,9715,-0.197,1.002,0.145,-0.549,1.098,0.915,276.791
135071,154997,11903,-0.198,1.002,0.137,-0.366,1.037,0.671,276.797
135059,155121,9715,-0.198,1.002,0.137,-0.366,1.037,0.671,276.801
135059,154985,11917,-0.198,1.015,0.136,-0.488,0.915,0.488,276.807
135067,155121,9715,-0.198,1.015,0.136,-0.488,0.915,0.488,276.811
135067,155033,11897,-0.193,1.006,0.138,-0.244,0.732,0.305,276.817
135075,155121,9715,-0.193,1.006,0.138,-0.244,0.732,0.305,276.82
135075,155031,11925,-0.196,1.005,0.128,-0.549,0.549,0.061,276.827
135074,155121,9715,-0.196,1.005,0.128,-0.549,0.549,0.061,276.83
135074,155010,11912,-0.194,1.001,0.146,-0.183,0.427,-0.061,276.836
135051,155121,9715,-0.194,1.001,0.146,-0.183,0.427,-0.061,276.84
135051,154991,11917,-0.185,1.004,0.138,-0.427,0.183,0.122,276.846
135096,155121,9715,-0.185,1.004,0.138,-0.427,0.183,0.122,276.85
135096,155000,11907,-0.183,0.999,0.142,-0.427,0.183,0.122,276.856
135063,155121,9715,-0.185,0.994,0.144,-0.305,0.366,0.122,276.86
135063,155015,11919,-0.192,0.992,0.141,-0.305,0.366,0.122,276.866
135088,155121,9715,-0.194,0.995,0.143,-0.366,0.854,0.244,276.87
135088,155053,11896,-0.193,0.994,0.144,-0.366,0.854,0.244,276.876
135076,155121,9715,-0.195,0.997,0.144,-0.61,0.793,0.305,276.88
135076,155054,11919,-0.195,0.998,0.146,-0.61,0.793,0.305,276.886
135092,155121,9715,-0.195,1,0.139,-0.366,0.488,0.427,276.89
135092,155020,11902,-0.198,1.001,0.131,-0.366,0.488,0.427,276.896
135076,155121,9715,-0.199,1.005,0.133,-0.488,0.549,0.488,276.9
135076,155044,11922,-0.203,1.003,0.132,-0.488,0.549,0.488,276.906
135100,155121,9715,-0.206,1.005,0.133,-0.671,0.244,0.671,276.91
135100,155020,11917,-0.203,1.003,0.13,-0.671,0.244,0.671,276.916
135104,155121,9715,-0.2,1.002,0.13,-1.037,-0.305,0.793,276.919
135104,155039,11930,-0.198,1.001,0.133,-1.037,-0.305,0.793,276.926
135115,155121,9715,-0.197,1,0.135,-0.976,-0.488,0.976,276.929
135115,155026,11926,-0.196,1.001,0.139,-0.976,-0.488,0.976,276.935
135092,155121,9715,-0.196,1.001,0.145,-0.854,-0.427,0.976,276.939
135092,155034,11912,-0.194,1,0.148,-0.854,-0.427,0.976,276.945
135093,155121,9715,-0.193,1.004,0.146,-0.488,-0.793,0.732,276.949
135093,155030,11934,-0.19,1.006,0.146,-0.488,-0.793,0.732,276.955
135126,155121,9715,-0.186,1.007,0.148,-0.183,-0.854,0.427,276.959
135126,155050,11921,-0.187,1.005,0.15,-0.183,-0.854,0.427,276.965
135105,155121,9715,-0.189,1.002,0.149,-0.488,-0.488,0.366,276.969
135105,155022,11923,-0.192,1.002,0.143,-0.488,-0.488,0.366,276.975
135106,155121,9715,-0.194,0.996,0.141,-1.037,-0.061,0.427,276.979
135106,155058,11927,-0.19,0.993,0.141,-1.037,-0.061,0.427,276.985
135124,155121,9715,-0.19,0.996,0.146,-0.488,-0.061,0.427,276.989
135124,155025,11930,-0.19,1.002,0.145,-0.488,-0.061,0.427,276.995
135105,155121,9715,-0.19,1,0.143,-0.122,0.061,0.488,276.999
135105,155024,11940,-0.192,1.003,0.144,-0.122,0.061,0.488,277.005
135104,155121,9715,-0.193,1.002,0.149,-0.427,0.183,0.427,277.009
135104,155045,11927,-0.193,0.998,0.145,-0.427,0.183,0.427,277.015
135102,155121,9715,-0.19,1.001,0.143,-1.037,0.244,0.671,277.018
135102,155044,11933,-0.195,1.001,0.147,-1.037,0.244,0.671,277.025
135121,155121,9715,-0.194,0.996,0.154,-1.341,0.244,0.671,277.028
135121,155033,11911,-0.193,0.993,0.149,-1.341,0.244,0.671,277.035
135111,155121,9715,-0.193,1.001,0.148,-0.549,0.244,0.732,277.038
135111,155012,11925,-0.19,1.011,0.142,-0.549,0.244,0.732,277.044
135136,155121,9715,-0.192,1.014,0.136,0.488,0.427,0.366,277.048
135136,155022,11916,-0.193,1.012,0.141,0.488,0.427,0.366,277.054
135113,155121,9715,-0.196,1.007,0.136,0.61,0.305,0.305,277.058
135113,155038,11921,-0.2,1.007,0.128,0.61,0.305,0.305,277.064
135149,155121,9715,-0.197,1.006,0.129,-0.244,0.427,0.366,277.068
135149,155045,11916,-0.193,1.003,0.14,-0.244,0.427,0.366,277.074
135138,155121,9715,-0.193,1.001,0.143,-0.366,0.122,0.244,277.078
135138,155021,11910,-0.194,0.998,0.145,-0.366,0.122,0.244,277.084
135122,155121,9715,-0.194,0.994,0.147,-0.244,0.061,0.305,277.088
135122,155044,11903,-0.193,0.991,0.146,-0.244,0.061,0.305,277.094
135140,155121,9715,-0.193,0.997,0.141,0.061,0.305,0.305,277.098
135140,155022,11909,-0.193,1.001,0.139,0.061,0.305,0.305,277.104
135116,155121,9715,-0.191,0.998,0.145,0.122,0.305,0.305,277.108
135116,154991,11919,-0.188,0.993,0.148,0.122,0.305,0.305,277.114
135140,155121,9715,-0.19,0.992,0.143,-0.732,0.183,0.671,277.117
135140,154984,11906,-0.193,0.997,0.141,-0.732,0.183,0.671,277.124
135124,155121,9715,-0.192,0.999,0.147,-1.159,0.549,0.671,277.127
135124,154966,11915,-0.193,0.998,0.146,-1.159,0.549,0.671,277.134
135139,155121,9715,-0.196,0.998,0.139,-0.488,0.671,0.488,277.137
135139,154977,11897,-0.196,1.006,0.136,-0.488,0.671,0.488,277.143
135123,155121,9715,-0.196,1.015,0.139,-0.488,0.427,0.549,277.147
135123,154992,11901,-0.195,1.012,0.142,-0.488,0.427,0.549,277.153
135131,155121,9715,-0.191,1.009,0.152,-0.305,0.305,0.305,277.157
135131,154973,11905,-0.191,1.007,0.15,-0.305,0.305,0.305,277.163
135161,155121,9715,-0.194,1.009,0.145,-0.122,0.549,0,277.167
135161,154986,11898,-0.196,1.006,0.141,-0.122,0.549,0,277.173
135133,155121,9715,-0.194,1.004,0.143,-0.122,0.427,-0.366,277.177
135133,154972,11907,-0.194,0.999,0.142,-0.122,0.427,-0.366,277.183
135149,155121,9715,-0.193,1.001,0.143,-0.488,0.183,-0.244,277.187
135149,155004,11899,-0.193,0.997,0.145,-0.488,0.183,-0.244,277.193
135154,155121,9715,-0.196,0.989,0.146,-0.488,0.427,-0.061,277.197
135154,154991,11909,-0.196,0.988,0.141,-0.488,0.427,-0.061,277.203
135139,155121,9715,-0.197,0.993,0.141,-0.366,0.427,0.061,277.207
135139,154959,11900,-0.194,0.989,0.144,-0.366,0.427,0.061,277.213
135162,155121,9715,-0.193,0.99,0.143,0.427,0.183,0.305,277.216
135162,154977,11895,-0.191,1,0.142,0.427,0.183,0.305,277.223
135156,155121,9715,-0.193,1.008,0.142,1.098,0.183,0.366,277.226
135156,154959,11893,-0.193,1.008,0.144,1.098,0.183,0.366,277.233
135178,155121,9715,-0.197,1.006,0.139,0.183,0.305,0.488,277.236
135178,155004,11892,-0.196,1,0.136,0.183,0.305,0.488,277.242
135153,155121,9715,-0.197,1,0.139,-1.341,0.122,0.732,277.246
135153,154979,11915,-0.193,0.997,0.146,-1.341,0.122,0.732,277.252
135159,155121,9715,-0.193,1.002,0.144,-1.707,0.061,0.671,277.256
135159,155001,11911,-0.192,1.003,0.142,-1.707,0.061,0.671,277.262
135162,155121,9715,-0.19,1.007,0.142,-0.793,0.122,0.488,277.266
135162,154988,11898,-0.189,1.004,0.151,-0.793,0.122,0.488,277.272
135170,155121,9715,-0.193,1.002,0.156,0.488,0.366,0.244,277.276
135170,154983,11907,-0.191,1.008,0.144,0.488,0.366,0.244,277.282
135195,155121,9715,-0.197,1.015,0.141,1.402,0.671,-0.122,277.286
135195,155000,11906,-0.197,1.013,0.143,1.402,0.671,-0.122,277.292
135176,155121,9715,-0.192,1.008,0.144,1.28,0.549,-0.549,277.296
135176,155020,11913,-0.194,1.001,0.135,1.28,0.549,-0.549,277.302
135211,155121,9715,-0.194,1.001,0.135,1.28,0.549,-0.549,277.306
135211,154999,11907,-0.192,0.994,0.134,0.183,0.305,-0.244,277.312
135213,155121,9715,-0.192,0.994,0.134,0.183,0.305,-0.244,277.315
135213,155015,11919,-0.19,0.99,0.142,-0.427,0.122,-0.061,277.322
135180,155121,9715,-0.19,0.99,0.142,-0.427,0.122,-0.061,277.325
135180,155035,11913,-0.192,0.995,0.142,-0.305,0.183,0.366,277.332
135194,155121,9715,-0.192,0.995,0.142,-0.305,0.183,0.366,277.335
135194,155015,11911,-0.194,1,0.149,-0.366,0.183,0.61,277.341
135194,155121,9715,-0.194,1,0.149,-0.366,0.183,0.61,277.345
135194,155010,11908,-0.193,0.999,0.149,-0.305,0.366,0.732,277.351
135201,155121,9715,-0.193,0.999,0.149,-0.305,0.366,0.732,277.355
135201,155002,11898,-0.193,1.008,0.146,-0.183,0.61,0.793,277.361
135210,155121,9715,-0.193,1.008,0.146,-0.183,0.61,0.793,277.365
135210,154996,11898,-0.194,1.006,0.141,-0.244,0.671,0.427,277.371
135217,155121,9715,-0.194,1.006,0.141,-0.244,0.671,0.427,277.375
135217,154982,11905,-0.194,1.001,0.138,-0.244,0.488,0.305,277.381
135192,155121,9715,-0.194,1.001,0.138,-0.244,0.488,0.305,277.385
135192,154961,11909,-0.198,1.004,0.136,-0.488,0.305,0.366,277.391
135213,155121,9715,-0.198,1.004,0.136,-0.488,0.305,0.366,277.395
135213,154983,11907,-0.192,0.995,0.142,-0.366,0.183,0.305,277.401
135208,155121,9715,-0.192,0.995,0.142,-0.366,0.183,0.305,277.405
135208,154989,11917,-0.193,1,0.143,-0.061,0,0.488,277.411
135239,155121,9715,-0.193,1,0.143,-0.061,0,0.488,277.414
135239,154994,11904,-0.19,1.007,0.14,0.061,-0.122,0.488,277.421
135214,155121,9715,-0.19,1.007,0.14,0.061,-0.122,0.488,277.424
135214,154986,11911,-0.188,1.004,0.143,-0.122,-0.427,0.244,277.431
135228,155121,9715,-0.188,1.004,0.143,-0.122,-0.427,0.244,277.434
135228,154974,11890,-0.196,0.995,0.144,-0.671,-0.244,0.305,277.44
135216,155121,9715,-0.196,0.995,0.144,-0.671,-0.244,0.305,277.444
135216,154978,11912,-0.195,1,0.143,-0.671,0.244,0.427,277.45
135232,155121,9715,-0.195,1,0.143,-0.671,0.244,0.427,277.454
135232,155012,11915,-0.193,1.001,0.145,-0.061,0.061,0.549,277.46
135231,155121,9715,-0.189,1,0.147,-0.061,0.061,0.549,277.464
135231,154970,11913,-0.191,1.001,0.151,0.671,0.061,0.427,277.47
135230,155121,9715,-0.193,1.003,0.146,0.671,0.061,0.427,277.474
135230,155000,11906,-0.197,1.008,0.146,0.915,0.671,0.305,277.48
135240,155121,9715,-0.198,1.009,0.148,0.915,0.671,0.305,277.484
135240,154997,11915,-0.197,1.004,0.146,0.427,0.671,0.061,277.49
135225,155121,9715,-0.196,1,0.143,0.427,0.671,0.061,277.494
135225,155028,11915,-0.192,0.996,0.139,-0.183,0.305,0.183,277.5
135247,155121,9715,-0.193,0.991,0.139,-0.183,0.305,0.183,277.504
135247,155027,11903,-0.193,0.992,0.134,-0.61,0.549,0.305,277.51
135249,155121,9715,-0.192,0.998,0.136,-0.61,0.549,0.305,277.513
135249,155028,11911,-0.189,1.001,0.148,-0.244,0.671,0.366,277.52
135232,155121,9715,-0.188,1.006,0.153,-0.244,0.671,0.366,277.523
135232,155017,11916,-0.186,1.005,0.153,0.61,0.61,0.488,277.53
135254,155121,9715,-0.189,0.999,0.154,0.61,0.61,0.488,277.533
135254,155013,11919,-0.19,0.999,0.148,0.122,0.793,0.366,277.539
135255,155121,9715,-0.194,1.005,0.148,0.122,0.793,0.366,277.543
135255,155041,11912,-0.19,1.008,0.142,-0.122,0.732,0.305,277.549
135250,155121,9715,-0.19,1.008,0.14,-0.122,0.732,0.305,277.553
135250,155023,11909,-0.19,1.006,0.141,0.183,0.854,-0.183,277.559
135257,155121,9715,-0.194,1.002,0.143,0.183,0.854,-0.183,277.563
135257,155017,11928,-0.2,1.001,0.138,0.366,1.037,0.061,277.569
135253,155121,9715,-0.198,1.004,0.14,0.366,1.037,0.061,277.573
135253,155043,11927,-0.194,1,0.14,-0.183,0.793,0.061,277.579
135244,155121,9715,-0.194,1,0.144,-0.183,0.793,0.061,277.583
135244,155004,11915,-0.192,0.998,0.144,-0.122,0.427,0.122,277.589
135237,155121,9715,-0.195,0.998,0.139,-0.122,0.427,0.122,277.593
135237,155019,11924,-0.197,0.994,0.136,0.183,0.549,0.366,277.599
135239,155121,9715,-0.197,0.997,0.136,0.183,0.549,0.366,277.603
135239,155014,11923,-0.198,0.999,0.143,0.183,0.488,0.244,277.609
135247,155121,9715,-0.198,1.002,0.144,0.183,0.488,0.244,277.613
135247,154987,11914,-0.198,1.002,0.143,0.183,0.427,0.549,277.619
135237,155121,9715,-0.196,0.999,0.144,0.183,0.427,0.549,277.622
135237,154998,11918,-0.197,0.997,0.146,-0.427,0.244,0.488,277.629
135254,155121,9715,-0.195,1.001,0.143,-0.427,0.244,0.488,277.632
135254,155004,11924,-0.192,1.004,0.136,-1.098,-0.122,0.427,277.638
135238,155121,9715,-0.191,1.001,0.134,-1.098,-0.122,0.427,277.642
135238,154999,11930,-0.194,0.998,0.137,-0.427,-0.183,0.305,277.648
135257,155121,9715,-0.199,1.002,0.139,-0.427,-0.183,0.305,277.652
135257,154999,11913,-0.198,1.007,0.139,0.366,0,0.488,277.658
135267,155121,9715,-0.194,1.008,0.141,0.366,0,0.488,277.662
135267,155004,11919,-0.191,1.012,0.148,0.305,0,0.366,277.668
135251,155121,9715,-0.188,1.01,0.155,0.305,0,0.366,277.672
135251,155028,11920,-0.191,1.004,0.153,-0.183,0.244,0.305,277.678
135265,155121,9715,-0.191,1,0.152,-0.183,0.244,0.305,277.682
135265,155017,11931,-0.194,0.992,0.146,-0.854,0.305,0.183,277.688
135261,155121,9715,-0.194,0.99,0.144,-0.854,0.305,0.183,277.692
135261,155027,11936,-0.191,0.991,0.14,-0.305,0.244,0.244,277.698
135268,155121,9715,-0.189,0.992,0.138,-0.305,0.244,0.244,277.702
135268,155021,11924,-0.192,0.996,0.14,0.671,0.244,0.366,277.708
135246,155121,9715,-0.197,1.007,0.141,0.671,0.244,0.366,277.712
135246,155021,11930,-0.197,1.014,0.146,0.061,0.549,0.427,277.718
135266,155121,9715,-0.197,1.011,0.146,0.061,0.549,0.427,277.721
135266,155000,11914,-0.196,1.005,0.143,-0.793,0.122,0.366,277.728
135256,155121,9715,-0.196,1.003,0.139,-0.793,0.122,0.366,277.731
135256,155019,11932,-0.193,1,0.138,-1.585,-0.244,0.244,277.738
135301,155121,9715,-0.193,1.001,0.139,-1.585,-0.244,0.244,277.741
135301,155025,11922,-0.195,0.997,0.144,-1.707,-0.122,0.427,277.747
135256,155121,9715,-0.193,0.998,0.146,-1.707,-0.122,0.427,277.751
135256,154988,11928,-0.193,0.999,0.147,-0.976,-0.183,0.305,277.757
135263,155121,9715,-0.194,0.996,0.146,-0.976,-0.183,0.305,277.761
135263,155002,11928,-0.193,0.998,0.144,-0.122,0.061,0.366,277.767
135273,155121,9715,-0.193,1.002,0.144,-0.122,0.061,0.366,277.771
135273,154963,11922,-0.196,0.999,0.141,0,0.244,0.488,277.777
135246,155121,9715,-0.194,0.997,0.147,0,0.244,0.488,277.781
135246,154936,11913,-0.194,0.998,0.148,0,0.244,0.427,277.787
135258,155121,9715,-0.193,1.004,0.146,0,0.244,0.427,277.791
135258,154903,11921,-0.193,1.005,0.154,0.061,0.549,0.427,277.797
135262,155121,9715,-0.192,1.008,0.154,0.061,0.549,0.427,277.801
135262,154938,11900,-0.189,1.005,0.153,0.244,0.732,0.366,277.807
135278,155121,9715,-0.192,1,0.151,0.244,0.732,0.366,277.811
135278,154939,11918,-0.192,1.001,0.146,0,0.793,0.183,277.817
135269,155121,9715,-0.19,1.004,0.144,0,0.793,0.183,277.82
135269,154954,11913,-0.191,1,0.145,-0.061,0.915,0,277.827
135267,155121,9715,-0.19,1.002,0.145,-0.061,0.915,0,277.83
135267,154952,11921,-0.19,1,0.142,0.671,0.976,0,277.836
135280,155121,9715,-0.193,0.997,0.142,0.671,0.976,0,277.84
135280,154922,11898,-0.192,0.996,0.141,0.915,1.098,0.122,277.846
135269,155121,9715,-0.195,0.996,0.135,0.915,1.098,0.122,277.85
135269,154937,11891,-0.193,1.002,0.141,0.488,0.793,0.183,277.856
135283,155121,9715,-0.19,1.001,0.144,0.488,0.793,0.183,277.86
135283,154940,11907,-0.194,1,0.142,0.488,0.854,0.427,277.866
135272,155121,9715,-0.195,1.002,0.144,0.488,0.854,0.427,277.87
135272,154943,11910,-0.196,1.004,0.139,0.244,1.037,0.366,277.876
135275,155121,9715,-0.2,1.004,0.138,0.244,1.037,0.366,277.88
135275,154954,11905,-0.195,1.006,0.135,-0.244,0.793,0.244,277.886
135284,155121,9715,-0.195,1.004,0.139,-0.244,0.793,0.244,277.89
135284,154946,11907,-0.198,1.002,0.137,-0.488,0.549,0.305,277.896
135291,155121,9715,-0.198,1.001,0.137,-0.488,0.549,0.305,277.9
135291,154952,11901,-0.197,1,0.141,-0.732,0.61,0.305,277.906
135296,155121,9715,-0.197,1,0.141,-0.732,0.61,0.305,277.91
135296,154974,11898,-0.193,1.001,0.141,-0.305,0.183,0.305,277.916
135287,155121,9715,-0.193,1.001,0.141,-0.305,0.183,0.305,277.919
135287,155003,11906,-0.196,1,0.135,-0.122,0.183,0.488,277.926
135301,155121,9715,-0.196,1,0.135,-0.122,0.183,0.488,277.929
135301,154984,11911,-0.19,1,0.144,0.183,0.488,0.366,277.936
135272,155121,9715,-0.19,1,0.144,0.183,0.488,0.366,277.939
135272,154996,11919,-0.193,1.004,0.148,0.244,0.427,0.488,277.945
135291,155121,9715,-0.193,1.004,0.148,0.244,0.427,0.488,277.949
135291,155003,11891,-0.195,1.003,0.142,-0.183,0.61,0.305,277.955
135321,155121,9715,-0.195,1.003,0.142,-0.183,0.61,0.305,277.959
135321,154981,11902,-0.191,1.003,0.146,-0.244,0.793,0.305,277.965
135315,155121,9715,-0.191,1.003,0.146,-0.244,0.793,0.305,277.969
135315,154971,11903,-0.194,1.001,0.132,-0.183,0.366,0.305,277.975
135315,155121,9715,-0.194,1.001,0.132,-0.183,0.366,0.305,277.979
135315,154982,11913,-0.191,0.997,0.143,-0.61,0.122,0.305,277.985
135330,155121,9715,-0.191,0.997,0.143,-0.61,0.122,0.305,277.989
135330,154974,11911,-0.198,0.999,0.128,-0.549,0.122,0.488,277.995
135318,155121,9715,-0.198,0.999,0.128,-0.549,0.122,0.488,277.999
135318,154997,11912,-0.196,1.002,0.141,-0.61,0.122,0.61,278.005
135334,155121,9715,-0.196,1.002,0.141,-0.61,0.122,0.61,278.009
135334,154971,11919,-0.19,1.002,0.146,0.183,-0.061,0.61,278.015
135333,155121,9715,-0.19,1.002,0.146,0.183,-0.061,0.61,278.018
135333,154991,11909,-0.198,1.009,0.15,0.305,0.305,0.549,278.025
135315,155121,9715,-0.198,1.009,0.15,0.305,0.305,0.549,278.028
135315,154980,11918,-0.191,1.007,0.151,0.183,0.366,0.305,278.035
135339,155121,9715,-0.191,1.007,0.151,0.183,0.366,0.305,278.038
135339,154972,11919,-0.193,1.002,0.143,0.061,0.122,0.122,278.044
135331,155121,9715,-0.193,1.002,0.143,0.061,0.122,0.122,278.048
135331,154934,11919,-0.193,1,0.141,0.061,0.122,0.122,278.054
135336,155121,9715,-0.196,1,0.136,-0.305,0.183,0.183,278.058
135336,154924,11929,-0.193,0.997,0.142,-0.305,0.183,0.183,278.064
135330,155121,9715,-0.191,0.996,0.139,-0.366,0.305,0.244,278.068
135330,154923,11926,-0.195,0.996,0.135,-0.366,0.305,0.244,278.074
135318,155121,9715,-0.196,0.994,0.14,-0.244,0.305,0.488,278.078
135318,154932,11908,-0.194,0.997,0.141,-0.244,0.305,0.488,278.084
135341,155121,9715,-0.194,1.001,0.138,-0.122,0.183,0.732,278.088
135341,154916,11924,-0.192,1,0.144,-0.122,0.183,0.732,278.094
135345,155121,9715,-0.196,1.001,0.146,-0.183,0.122,0.793,278.098
135345,154951,11930,-0.197,1,0.144,-0.183,0.122,0.793,278.104
135338,155121,9715,-0.194,1.002,0.146,-0.366,0.122,0.854,278.108
135338,154921,11927,-0.195,1.004,0.141,-0.366,0.122,0.854,278.114
135335,155121,9715,-0.19,1.005,0.143,-0.915,-0.122,0.854,278.117
135335,154946,11914,-0.19,1.001,0.146,-0.915,-0.122,0.854,278.124
135339,155121,9715,-0.191,0.997,0.147,-0.549,-0.305,0.793,278.127
135339,154981,11913,-0.192,1.001,0.143,-0.549,-0.305,0.793,278.134
135327,155121,9715,-0.192,1.006,0.143,-0.061,0.183,0.732,278.137
135327,154951,11914,-0.192,1.005,0.146,-0.061,0.183,0.732,278.143
135340,155121,9715,-0.193,1.002,0.148,0.061,0.244,0.488,278.147
135340,154977,11919,-0.193,1.001,0.146,0.061,0.244,0.488,278.153
135328,155121,9715,-0.194,1.001,0.144,0,0.244,0.549,278.157
135328,154971,11924,-0.191,1.002,0.145,0,0.244,0.549,278.163
135321,155121,9715,-0.189,1,0.152,0.061,0.305,0.427,278.167
135321,154973,11931,-0.191,1,0.157,0.061,0.305,0.427,278.173
135338,155121,9715,-0.192,1.003,0.153,0.244,0.488,0.366,278.177
135338,154960,11939,-0.192,1.003,0.14,0.244,0.488,0.366,278.183
135333,155121,9715,-0.192,1.003,0.139,0.122,0.549,0.244,278.187
135333,154972,11924,-0.191,1,0.146,0.122,0.549,0.244,278.193
135343,155121,9715,-0.195,0.998,0.146,0.122,0.488,0.366,278.197
135343,154968,11921,-0.195,0.996,0.146,0.122,0.488,0.366,278.203
135333,155121,9715,-0.192,0.998,0.143,0.183,0.732,0.732,278.207
135333,154981,11930,-0.193,1.002,0.142,0.183,0.732,0.732,278.213
135357,155121,9715,-0.197,1.005,0.141,0.183,0.793,0.427,278.217
135357,155001,11916,-0.197,1.004,0.14,0.183,0.793,0.427,278.223
135328,155121,9715,-0.196,1.006,0.143,0.305,0.671,0.61,278.226
135328,155005,11929,-0.194,1.005,0.147,0.305,0.671,0.61,278.233
135366,155121,9715,-0.194,1.003,0.144,0.183,0.793,0.427,278.236
135366,155005,11932,-0.193,1.001,0.148,0.183,0.793,0.427,278.242
135350,155121,9715,-0.191,1,0.147,0.549,1.037,0.366,278.246
135350,155016,11945,-0.192,1.007,0.142,0.549,1.037,0.366,278.252
135377,155121,9715,-0.191,1.012,0.144,1.037,1.098,0.061,278.256
135377,154985,11943,-0.192,1.01,0.143,1.037,1.098,0.061,278.262
135370,155121,9715,-0.194,1.007,0.141,1.098,1.037,-0.305,278.266
135370,155018,11920,-0.193,1.002,0.14,1.098,1.037,-0.305,278.272
135354,155121,9715,-0.194,0.999,0.139,-0.183,0.915,-0.122,278.276
135354,154985,11935,-0.191,0.994,0.138,-0.183,0.915,-0.122,278.282
135350,155121,9715,-0.189,0.987,0.141,-0.183,0.671,-0.061,278.286
135350,154999,11920,-0.189,0.992,0.142,-0.183,0.671,-0.061,278.292
135358,155121,9715,-0.194,0.997,0.14,0.549,0.732,0.183,278.296
135358,154995,11935,-0.193,0.997,0.14,0.549,0.732,0.183,278.302
135372,155121,9715,-0.191,0.998,0.14,0.854,0.854,0.244,278.306
135372,154984,11926,-0.195,0.997,0.142,0.854,0.854,0.244,278.312
135350,155121,9715,-0.198,1.001,0.137,0.122,0.61,0.488,278.316
135350,155016,11939,-0.201,1.005,0.144,0.122,0.61,0.488,278.322
135380,155121,9715,-0.197,1.006,0.143,-0.549,0.488,0.488,278.325
135380,155025,11933,-0.195,1.006,0.138,-0.549,0.488,0.488,278.332
135369,155121,9715,-0.197,1.008,0.135,-1.037,0.244,0.305,278.335
135369,155001,11947,-0.2,1.003,0.139,-1.037,0.244,0.305,278.342
135380,155121,9715,-0.201,0.993,0.139,-1.22,0.183,0.549,278.345
135380,154994,11924,-0.2,0.99,0.136,-1.22,0.183,0.549,278.351
135372,155121,9715,-0.198,0.995,0.134,-0.732,0,0.61,278.355
135372,155010,11941,-0.194,0.997,0.133,-0.732,0,0.61,278.361
135373,155121,9715,-0.194,1,0.139,0.244,-0.122,0.61,278.365
135373,154979,11924,-0.198,1.003,0.135,0.244,-0.122,0.61,278.371
135380,155121,9715,-0.199,1.007,0.14,0.976,-0.061,0.671,278.375
135380,155019,11947,-0.196,1.01,0.141,0.976,-0.061,0.671,278.381
135375,155121,9715,-0.195,1.01,0.143,0.671,-0.061,0.366,278.385
135375,154982,11933,-0.194,1.011,0.147,0.671,-0.061,0.366,278.391
135353,155121,9715,-0.191,1.007,0.149,0.183,-0.305,0.305,278.395
135353,155021,11943,-0.189,1.001,0.145,0.183,-0.305,0.305,278.401
135382,155121,9715,-0.192,0.997,0.15,-0.61,-0.061,0.244,278.405
135382,155007,11941,-0.192,0.989,0.151,-0.61,-0.061,0.244,278.411
135373,155121,9715,-0.189,0.992,0.148,-0.793,0.244,0.244,278.415
135373,155017,11952,-0.188,0.999,0.147,-0.793,0.244,0.244,278.421
135369,155121,9715,-0.187,0.999,0.147,0.305,0.366,0.244,278.424
135369,155019,11952,-0.186,0.998,0.146,0.305,0.366,0.244,278.431
135369,155121,9715,-0.188,1.004,0.141,1.037,0.488,0.366,278.434
135369,155035,11957,-0.19,1.007,0.139,1.037,0.488,0.366,278.441
135392,155121,9715,-0.192,1.003,0.145,0.488,0.793,0.549,278.444
135392,155035,11958,-0.197,1.002,0.146,0.488,0.793,0.549,278.45
135413,155121,9715,-0.199,1.007,0.14,-0.122,0.854,0.61,278.454
135413,155027,11939,-0.2,1.006,0.138,-0.122,0.854,0.61,278.46
135402,155121,9715,-0.193,1.001,0.139,-0.671,0.488,0.488,278.464
135402,155005,11952,-0.192,1.001,0.142,-0.671,0.488,0.488,278.47
135406,155121,9715,-0.192,0.999,0.138,-0.549,0.427,0.61,278.474
135406,155017,11954,-0.196,0.997,0.136,-0.549,0.427,0.61,278.48
135382,155121,9715,-0.195,1.003,0.137,0.122,0.549,0.549,278.484
135382,154988,11937,-0.196,1.005,0.137,0.122,0.549,0.549,278.49
135386,155121,9715,-0.195,1.01,0.14,0.793,0.244,0.305,278.494
135386,154972,11945,-0.195,1.009,0.137,0.793,0.244,0.305,278.5
135378,155121,9715,-0.195,1.009,0.137,0.793,0.244,0.305,278.504
135378,154967,11945,-0.193,1.006,0.141,0.793,0.305,0.244,278.51
135385,155121,9715,-0.193,1.006,0.141,0.793,0.305,0.244,278.514
135385,154960,11943,-0.19,0.998,0.147,0.305,0.305,0.244,278.52
135380,155121,9715,-0.19,0.998,0.147,0.305,0.305,0.244,278.523
135380,154946,11946,-0.19,0.993,0.144,-0.061,0.183,0.366,278.53
135367,155121,9715,-0.19,0.993,0.144,-0.061,0.183,0.366,278.533
135367,154957,11910,-0.191,0.988,0.141,-0.122,0.305,0.488,278.54
135363,155121,9715,-0.191,0.988,0.141,-0.122,0.305,0.488,278.543
135363,154921,11929,-0.191,0.995,0.145,0.122,0.488,0.61,278.549
135359,155121,9715,-0.191,0.995,0.145,0.122,0.488,0.61,278.553
135359,154910,11922,-0.193,1.007,0.141,0.366,0.549,0.671,278.559
135361,155121,9715,-0.193,1.007,0.141,0.366,0.549,0.671,278.563
135361,154914,11920,-0.192,1.006,0.143,0.854,0.671,0.732,278.569
135376,155121,9715,-0.192,1.006,0.143,0.854,0.671,0.732,278.573
135376,154943,11927,-0.196,1.001,0.14,0.976,0.854,0.61,278.579
135385,155121,9715,-0.196,1.001,0.14,0.976,0.854,0.61,278.583
135385,154923,11919,-0.196,1.005,0.138,0.793,0.854,0.488,278.589
135378,155121,9715,-0.196,1.005,0.138,0.793,0.854,0.488,278.593
135378,154937,11925,-0.191,1.003,0.139,1.341,0.732,0.366,278.599
135386,155121,9715,-0.191,1.003,0.139,1.341,0.732,0.366,278.603
135386,154926,11922,-0.193,1.005,0.134,2.012,0.732,0.305,278.609
135382,155121,9715,-0.193,1.005,0.134,2.012,0.732,0.305,278.613
135382,154950,11937,-0.195,1,0.132,2.256,0.793,0.183,278.619
135381,155121,9715,-0.195,1,0.132,2.256,0.793,0.183,278.622
135381,154937,11932,-0.192,1.002,0.135,1.768,0.488,0.183,278.629
135379,155121,9715,-0.192,1.002,0.135,1.768,0.488,0.183,278.632
135379,154954,11924,-0.195,0.997,0.136,0.244,0.183,0.305,278.639
135398,155121,9715,-0.195,0.997,0.136,0.244,0.183,0.305,278.642
135398,154937,11918,-0.19,0.991,0.136,-0.976,0,0.488,278.648
135405,155121,9715,-0.19,0.991,0.136,-0.976,0,0.488,278.652
135405,154923,11925,-0.19,0.993,0.137,-0.793,-0.183,0.549,278.658
135408,155121,9715,-0.193,0.998,0.137,-0.793,-0.183,0.549,278.662
135408,154941,11939,-0.195,1.005,0.138,-0.122,0.183,0.732,278.668
135414,155121,9715,-0.192,1.008,0.141,-0.122,0.183,0.732,278.672
135414,154961,11950,-0.194,1.013,0.146,0.122,0.427,0.488,278.678
135399,155121,9715,-0.195,1.011,0.148,0.122,0.427,0.488,278.682
135399,154956,11946,-0.195,1.005,0.148,-0.366,0.244,0.305,278.688
135424,155121,9715,-0.195,1.004,0.143,-0.366,0.244,0.305,278.692
135424,154928,11938,-0.193,1.006,0.14,-0.732,0.122,0.183,278.698
135390,155121,9715,-0.193,0.999,0.133,-0.732,0.122,0.183,278.702
135390,154975,11937,-0.197,1.001,0.139,-0.061,0.244,0.061,278.708
135431,155121,9715,-0.193,1.003,0.141,-0.061,0.244,0.061,278.712
135431,154976,11932,-0.192,1.001,0.135,0.793,0.244,-0.061,278.718
135417,155121,9715,-0.192,1.001,0.132,0.793,0.244,-0.061,278.721
135417,155000,11931,-0.191,1.001,0.137,0.671,0.244,0.061,278.728
135430,155121,9715,-0.192,0.995,0.138,0.671,0.244,0.061,278.731
135430,154970,11943,-0.19,0.995,0.136,0.244,0.183,0.366,278.738
135406,155121,9715,-0.191,0.991,0.136,0.244,0.183,0.366,278.741
135406,154972,11936,-0.191,0.991,0.138,-0.183,0.183,0.549,278.747
135415,155121,9715,-0.19,0.997,0.138,-0.183,0.183,0.549,278.751
135415,154977,11931,-0.189,0.998,0.144,-0.244,0.122,0.854,278.757
135408,155121,9715,-0.19,0.997,0.146,-0.244,0.122,0.854,278.761
135408,154974,11939,-0.19,0.999,0.142,-0.061,0.122,0.854,278.767
135424,155121,9715,-0.193,1.005,0.14,-0.061,0.122,0.854,278.771
135424,154941,11925,-0.194,1.015,0.139,-0.183,0.366,0.854,278.777
135414,155121,9715,-0.194,1.009,0.143,-0.183,0.366,0.854,278.781
135414,154950,11936,-0.193,1.006,0.146,-0.366,0.366,0.671,278.787
135400,155121,9715,-0.192,1.008,0.142,-0.366,0.366,0.671,278.791
135400,154933,11939,-0.195,1.006,0.139,-0.061,0.366,0.488,278.797
135419,155121,9715,-0.197,1.002,0.136,-0.061,0.366,0.488,278.801
135419,154926,11940,-0.195,0.999,0.136,0.183,0.488,0.366,278.807
135397,155121,9715,-0.191,1,0.139,0.183,0.488,0.366,278.811
135397,154927,11941,-0.186,1,0.143,0.366,0,0.183,278.817
135415,155121,9715,-0.188,1.005,0.141,0.366,0,0.183,278.82
135415,154917,11934,-0.193,1.003,0.134,0.366,0.061,0,278.827
135431,155121,9715,-0.192,0.998,0.132,0.366,0.061,0,278.83
135431,154923,11946,-0.195,0.996,0.133,-0.305,0.061,0,278.837
135401,155121,9715,-0.194,0.995,0.13,-0.305,0.061,0,278.84
135401,154930,11943,-0.191,0.995,0.133,-0.732,-0.122,0.427,278.846
135414,155121,9715,-0.189,0.997,0.136,-0.732,-0.122,0.427,278.85
135414,154916,11936,-0.192,1.004,0.145,-0.183,0.122,0.549,278.856
135399,155121,9715,-0.19,1.006,0.146,-0.183,0.122,0.549,278.86
135399,154911,11943,-0.192,1.006,0.143,0.061,0.244,0.488,278.866
135401,155121,9715,-0.193,1.006,0.141,0.061,0.244,0.488,278.87
135401,154882,11934,-0.192,1.002,0.138,-0.427,0.122,0.488,278.876
135386,155121,9715,-0.19,0.997,0.138,-0.427,0.122,0.488,278.88
135386,154882,11952,-0.192,0.995,0.139,-0.732,-0.122,0.732,278.886
135395,155121,9715,-0.19,0.994,0.143,-0.732,-0.122,0.732,278.89
135395,154882,11939,-0.193,0.997,0.147,-0.488,0,0.61,278.896
135392,154865,9715,-0.194,1.001,0.145,-0.488,0,0.61,278.9
135392,154873,11959,-0.192,1.006,0.148,0.122,0.427,0.488,278.906
135397,155121,9715,-0.194,1.005,0.148,0.122,0.427,0.488,278.91
135397,154882,11942,-0.192,1.003,0.146,0.366,0.366,0.305,278.916
135377,155121,9715,-0.19,1.005,0.147,0.366,0.366,0.305,278.919
135377,154898,11951,-0.192,1.008,0.144,0.061,0.549,0.305,278.926
135392,155121,9715,-0.194,1.006,0.148,0.061,0.549,0.305,278.929
135392,154894,11952,-0.194,1,0.149,-0.305,0.732,0.122,278.936
135395,155121,9715,-0.197,1.004,0.144,-0.305,0.732,0.122,278.939
135395,154905,11940,-0.197,1.002,0.143,-0.122,1.037,0.061,278.945
135396,155121,9715,-0.195,0.996,0.141,-0.122,1.037,0.061,278.949
135396,154909,11954,-0.192,0.996,0.135,0.366,0.915,0.061,278.955
135396,155121,9715,-0.19,0.998,0.135,0.366,0.915,0.061,278.959
135396,154892,11949,-0.192,1.004,0.134,0.427,0.793,-0.122,278.965
135419,155121,9715,-0.19,1.007,0.137,0.427,0.793,-0.122,278.969
135419,154904,11946,-0.19,1.006,0.136,0.244,0.793,-0.122,278.975
135425,155121,9715,-0.194,1.007,0.134,0.244,0.793,-0.122,278.979
135425,154925,11964,-0.191,1.009,0.133,-0.244,0.732,-0.183,278.985
135397,155121,9715,-0.19,1.007,0.134,-0.244,0.732,-0.183,278.989
135397,154897,11953,-0.189,1,0.132,-0.61,0.549,0.122,278.995
135410,155121,9715,-0.189,0.998,0.136,-0.61,0.549,0.122,278.999
135410,154942,11956,-0.19,1.002,0.134,-0.183,0.671,0.366,279.005
135423,155121,9715,-0.188,1.003,0.142,-0.183,0.671,0.366,279.009
135423,154926,11954,-0.186,1,0.141,0.427,0.793,0.244,279.015
135412,155121,9715,-0.188,0.999,0.145,0.427,0.793,0.244,279.019
135412,154906,11963,-0.192,1.001,0.137,0.976,0.976,0.305,279.025
135431,155121,9715,-0.194,0.999,0.138,0.976,0.976,0.305,279.028
135431,154933,11958,-0.195,0.997,0.144,0.671,1.098,0.244,279.035
135428,155121,9715,-0.192,0.999,0.139,0.671,1.098,0.244,279.038
135428,154969,11978,-0.191,1.004,0.139,0.549,1.159,0.122,279.044
135429,155121,9715,-0.191,1.006,0.139,0.549,1.159,0.122,279.048
135429,154905,11961,-0.197,1.007,0.138,0.244,1.402,0.183,279.054
135436,155121,9715,-0.198,1.011,0.136,0.244,1.402,0.183,279.058
135436,154927,11957,-0.197,1.005,0.138,-0.061,1.098,0.183,279.064
135415,155121,9715,-0.199,1.001,0.136,-0.061,1.098,0.183,279.068
135415,154922,11972,-0.197,1.002,0.128,0.305,0.915,0,279.074
135429,155121,9715,-0.2,1.006,0.128,0.305,0.915,0,279.078
135429,154931,11960,-0.201,1.005,0.129,0.244,0.549,0,279.084
135426,155121,9715,-0.199,1.002,0.131,0.244,0.549,0,279.088
135426,154955,11977,-0.197,0.999,0.132,0,0.061,0.122,279.094
135422,155121,9715,-0.196,0.995,0.136,0,0.061,0.122,279.098
135422,154945,11965,-0.199,0.994,0.135,-0.488,-0.122,0.305,279.104
135416,155121,9715,-0.199,0.994,0.135,-0.488,-0.122,0.305,279.108
135416,154913,11970,-0.195,0.996,0.134,-0.61,-0.244,0.366,279.114
135430,155121,9715,-0.195,0.996,0.134,-0.61,-0.244,0.366,279.117
135430,154922,11967,-0.195,0.999,0.134,-0.671,-0.122,0.671,279.124
135427,155121,9715,-0.195,0.999,0.134,-0.671,-0.122,0.671,279.127
135427,154936,11964,-0.191,1.001,0.143,-0.854,-0.183,0.854,279.134
135446,155121,9715,-0.191,1.001,0.143,-0.854,-0.183,0.854,279.137
135446,154955,11980,-0.193,1.001,0.15,-0.976,-0.061,0.854,279.143
135428,155121,9715,-0.193,1.001,0.15,-0.976,-0.061,0.854,279.147
135428,154950,11969,-0.184,1.005,0.139,-1.22,0.061,0.732,279.153
135415,155121,9715,-0.184,1.005,0.139,-1.22,0.061,0.732,279.157
135415,154928,11977,-0.193,1,0.139,-0.549,0.305,0.671,279.163
135425,155121,9715,-0.193,1,0.139,-0.549,0.305,0.671,279.167
135425,154958,11967,-0.202,1.011,0.141,0.427,0.915,0.427,279.173
135424,155121,9715,-0.202,1.011,0.141,0.427,0.915,0.427,279.177
135424,154939,11973,-0.195,1.013,0.141,0.122,0.671,-0.061,279.183
135405,155121,9715,-0.195,1.013,0.141,0.122,0.671,-0.061,279.187
135405,154929,11983,-0.195,1.003,0.142,-0.671,0.244,0.183,279.193
135442,155121,9715,-0.195,1.003,0.142,-0.671,0.244,0.183,279.197
135442,154925,11977,-0.192,0.988,0.137,-1.159,0.122,0.305,279.203
135434,155121,9715,-0.192,0.988,0.137,-1.159,0.122,0.305,279.207
135434,154952,11985,-0.193,0.994,0.14,-0.122,0.122,0.183,279.213
135424,155121,9715,-0.193,0.994,0.14,-0.122,0.122,0.183,279.217
135424,154939,11980,-0.195,1.005,0.141,0.61,0.122,0.305,279.223
135424,155121,9715,-0.195,1.005,0.141,0.61,0.122,0.305,279.226
135424,154933,11988,-0.192,1.006,0.142,0.122,0.244,0.305,279.233
135442,155121,9715,-0.192,1.006,0.142,0.122,0.244,0.305,279.236
135442,154933,11975,-0.188,1,0.143,-0.854,0.305,0.427,279.242
135425,155121,9715,-0.188,1,0.143,-0.854,0.305,0.427,279.246
135425,154919,11969,-0.188,0.999,0.138,-0.854,0.305,0.427,279.252
135426,155121,9715,-0.188,1.001,0.139,-1.341,0.366,0.488,279.256
135426,154944,11967,-0.189,1,0.138,-1.341,0.366,0.488,279.262
135409,155121,9715,-0.19,1.005,0.139,-0.61,0.366,0.244,279.266
135409,154895,11968,-0.191,1.005,0.137,-0.61,0.366,0.244,279.272
135425,155121,9715,-0.198,1.002,0.137,0,0.732,0.183,279.276
135425,154898,11962,-0.199,0.997,0.139,0,0.732,0.183,279.282
135409,154865,9715,-0.199,0.998,0.136,-0.244,0.671,0.305,279.286
135409,154877,11957,-0.194,1,0.134,-0.244,0.671,0.305,279.292
135432,155121,9715,-0.192,1.002,0.135,-0.305,0.183,0.183,279.296
135432,154880,11970,-0.193,1.005,0.143,-0.305,0.183,0.183,279.302
135415,154865,9715,-0.194,1.004,0.142,-0.061,0.305,0.183,279.306
135415,154870,11963,-0.198,1,0.144,-0.061,0.305,0.183,279.312
135443,155121,9715,-0.196,0.998,0.144,-0.244,0.671,0.244,279.316
135443,154887,11964,-0.191,1,0.145,-0.244,0.671,0.244,279.322
135433,155121,9715,-0.193,1.003,0.142,-0.366,0.488,0.244,279.325
135433,154888,11958,-0.191,1.001,0.141,-0.366,0.488,0.244,279.332
135438,155121,9715,-0.192,1.003,0.141,-0.122,0.427,0.061,279.335
135438,154899,11959,-0.191,1.005,0.138,-0.122,0.427,0.061,279.342
135431,154865,9715,-0.194,0.998,0.139,-0.244,0.488,0.183,279.345
135431,154878,11962,-0.194,0.998,0.139,-0.244,0.488,0.183,279.351
135441,155121,9715,-0.195,1,0.135,-0.732,0.549,0.305,279.355
135441,154884,11974,-0.194,0.999,0.134,-0.732,0.549,0.305,279.361
135414,155121,9715,-0.191,1,0.14,-0.732,0.427,0.183,279.365
135414,154882,11964,-0.191,1.003,0.14,-0.732,0.427,0.183,279.371
135457,154865,9715,-0.193,1,0.143,-0.183,0.549,0.305,279.375
135457,154860,11939,-0.195,0.995,0.14,-0.183,0.549,0.305,279.381
135424,154865,9715,-0.197,1.001,0.136,-0.061,0.671,0.305,279.385
135424,154858,11970,-0.195,1.005,0.141,-0.061,0.671,0.305,279.391
135440,155121,9715,-0.196,1.006,0.143,0.427,0.488,0.183,279.395
135440,154885,11966,-0.195,1.006,0.141,0.427,0.488,0.183,279.401
135446,155121,9715,-0.196,1.005,0.139,0.549,0.427,0.061,279.405
135446,154888,11957,-0.198,1.007,0.136,0.549,0.427,0.061,279.411
135453,155121,9715,-0.196,1.003,0.137,-0.305,0.366,0,279.415
135453,154929,11964,-0.193,0.999,0.138,-0.305,0.366,0,279.421
135441,155121,9715,-0.194,0.997,0.136,-0.793,0.122,0.122,279.424
135441,154921,11943,-0.195,0.998,0.138,-0.793,0.122,0.122,279.431
135464,155121,9715,-0.192,0.999,0.137,-0.671,0.061,0.244,279.434
135464,154933,11957,-0.192,1,0.136,-0.671,0.061,0.244,279.441
135466,155121,9715,-0.19,1.004,0.143,-0.244,0.122,0.305,279.444
135466,154932,11970,-0.191,1,0.15,-0.244,0.122,0.305,279.45
135456,155121,9715,-0.195,1.001,0.143,-0.244,0.305,0.427,279.454
135456,154913,11958,-0.193,1.004,0.137,-0.244,0.305,0.427,279.46
135438,155121,9715,-0.194,1.004,0.143,-0.732,0.183,0.366,279.464
135438,154939,11967,-0.19,1,0.152,-0.732,0.183,0.366,279.47
135460,155121,9715,-0.19,1,0.15,-0.427,0.122,0.427,279.474
135460,154934,11971,-0.193,1.003,0.143,-0.427,0.122,0.427,279.48
135467,155121,9715,-0.195,1,0.144,-0.427,0.61,0.488,279.484
135467,154917,11984,-0.19,0.997,0.143,-0.427,0.61,0.488,279.49
135483,155121,9715,-0.19,1.004,0.141,-0.061,0.549,0.244,279.494
135483,154921,11969,-0.191,1.007,0.142,-0.061,0.549,0.244,279.5
135475,155121,9715,-0.194,1.006,0.144,0.427,0.549,0.244,279.504
135475,154926,11976,-0.194,1.01,0.141,0.427,0.549,0.244,279.51
135475,155121,9715,-0.195,1.007,0.146,0.305,0.854,0.061,279.514
135475,154926,11979,-0.195,0.999,0.147,0.305,0.854,0.061,279.52
135488,155121,9715,-0.196,0.994,0.145,-0.305,0.854,0.122,279.523
135488,154964,11970,-0.197,0.997,0.138,-0.305,0.854,0.122,279.53
135459,155121,9715,-0.196,0.994,0.135,-0.915,0.61,0.122,279.533
135459,154952,11979,-0.193,0.99,0.136,-0.915,0.61,0.122,279.54
135508,155121,9715,-0.196,0.995,0.132,-0.488,0.366,0.244,279.543
135508,154952,11968,-0.194,0.999,0.129,-0.488,0.366,0.244,279.549
135494,155121,9715,-0.196,0.998,0.135,-0.061,0.549,0.366,279.553
135494,154934,11975,-0.195,1.001,0.138,-0.061,0.549,0.366,279.559
135488,155121,9715,-0.198,1.005,0.136,0.366,0.549,0.549,279.563
135488,154943,11967,-0.197,1.008,0.137,0.366,0.549,0.549,279.569
135484,155121,9715,-0.196,1.005,0.143,0.244,0.244,0.488,279.573
135484,154957,11966,-0.195,1.005,0.143,0.244,0.244,0.488,279.579
135479,155121,9715,-0.195,1.005,0.14,-0.366,0.122,0.366,279.583
135479,154935,11980,-0.193,1.003,0.136,-0.366,0.122,0.366,279.589
135471,155121,9715,-0.191,1.002,0.141,-0.915,-0.122,0.427,279.593
135471,154916,11981,-0.193,1,0.146,-0.915,-0.122,0.427,279.599
135492,155121,9715,-0.188,0.998,0.142,-0.427,-0.122,0.244,279.603
135492,154934,11983,-0.195,1.002,0.137,-0.427,-0.122,0.244,279.609
135497,155121,9715,-0.196,1.004,0.137,-0.122,0.183,0.122,279.613
135497,154949,11991,-0.195,1.002,0.143,-0.122,0.183,0.122,279.619
135484,155121,9715,-0.195,1,0.147,0.244,0.122,0.366,279.622
135484,154939,11973,-0.194,1.004,0.146,0.244,0.122,0.366,279.629
135485,155121,9715,-0.195,1.001,0.137,-0.183,0.122,0.244,279.632
135485,154964,11974,-0.195,0.997,0.138,-0.183,0.122,0.244,279.639
135498,155121,9715,-0.195,0.995,0.144,-0.61,0.366,0.366,279.642
135498,154955,11979,-0.195,0.992,0.141,-0.61,0.366,0.366,279.648
135495,155121,9715,-0.193,0.993,0.137,0.061,0.549,0.732,279.652
135495,154953,11992,-0.196,1.001,0.139,0.061,0.549,0.732,279.658
135507,155121,9715,-0.193,1.002,0.142,0.305,0.671,0.427,279.662
135507,154966,11982,-0.192,1.006,0.145,0.305,0.671,0.427,279.668
135488,155121,9715,-0.194,1.003,0.144,0.061,0.671,0.305,279.672
135488,154970,11983,-0.196,0.999,0.138,0.061,0.671,0.305,279.678
135455,155121,9715,-0.195,1,0.131,-0.488,0.671,0.427,279.682
135455,154957,11987,-0.194,1.004,0.139,-0.488,0.671,0.427,279.688
135484,155121,9715,-0.193,1.007,0.141,-0.183,0.732,0.305,279.692
135484,154969,11987,-0.193,1.009,0.143,-0.183,0.732,0.305,279.698
135486,155121,9715,-0.193,1.009,0.143,-0.183,0.732,0.305,279.702
135486,154963,11998,-0.193,1.005,0.137,0.244,0.793,0.122,279.708
135494,155121,9715,-0.193,1.005,0.137,0.244,0.793,0.122,279.712
135494,154973,11991,-0.186,1.001,0.144,0,0.793,0,279.718
135488,155121,9715,-0.186,1.001,0.144,0,0.793,0,279.721
135488,154953,11995,-0.192,1,0.138,-0.488,0.427,-0.061,279.728
135492,155121,9715,-0.192,1,0.138,-0.488,0.427,-0.061,279.731
135492,154965,11976,-0.194,0.994,0.137,-0.549,0.549,0.061,279.738
135488,155121,9715,-0.194,0.994,0.137,-0.549,0.549,0.061,279.741
135488,154964,11982,-0.198,1.003,0.136,0.183,0.732,0.244,279.747
135506,155121,9715,-0.198,1.003,0.136,0.183,0.732,0.244,279.751
135506,154984,11980,-0.194,1.004,0.147,0.549,0.61,0.244,279.757
135492,155121,9715,-0.194,1.004,0.147,0.549,0.61,0.244,279.761
135492,154986,11990,-0.197,0.996,0.139,0.244,0.427,0.183,279.767
135504,155121,9715,-0.197,0.996,0.139,0.244,0.427,0.183,279.771
135504,154971,11987,-0.195,0.996,0.136,-0.488,0.549,0.366,279.777
135487,155121,9715,-0.195,0.996,0.136,-0.488,0.549,0.366,279.781
135487,155014,11981,-0.196,0.996,0.137,-0.671,0.305,0.366,279.787
135490,155121,9715,-0.196,0.996,0.137,-0.671,0.305,0.366,279.791
135490,154974,11998,-0.194,0.999,0.139,-0.122,0.183,0.549,279.797
135498,155121,9715,-0.194,0.999,0.139,-0.122,0.183,0.549,279.801
135498,155013,11991,-0.201,1.01,0.136,0.305,0.549,0.61,279.807
135470,155121,9715,-0.201,1.01,0.136,0.305,0.549,0.61,279.811
135470,154991,11991,-0.193,1.004,0.144,-0.305,0.305,0.549,279.817
135486,155121,9715,-0.193,1.004,0.144,-0.305,0.305,0.549,279.82
135486,154997,11990,-0.196,1.005,0.135,-0.427,0.061,0.549,279.827
135514,155121,9715,-0.196,1.005,0.135,-0.427,0.061,0.549,279.83
135514,154982,11975,-0.192,1.002,0.143,-0.427,-0.183,0.305,279.837
135497,155121,9715,-0.192,1.002,0.143,-0.427,-0.183,0.305,279.84
135497,154987,11989,-0.191,1.001,0.145,-0.061,-0.122,0.122,279.846
135503,155121,9715,-0.194,1.002,0.14,-0.061,-0.122,0.122,279.85
135503,154977,12014,-0.195,1.004,0.14,0,0.122,0.244,279.856
135502,155121,9715,-0.191,0.999,0.147,0,0.122,0.244,279.86
135502,155006,11998,-0.191,0.996,0.147,-0.366,0.061,0.244,279.866
135507,155121,9715,-0.189,0.994,0.146,-0.366,0.061,0.244,279.87
135507,154983,11999,-0.188,0.999,0.14,-0.671,0.061,0.427,279.876
135503,155121,9715,-0.191,0.998,0.139,-0.671,0.061,0.427,279.88
135503,155023,12002,-0.194,0.998,0.145,-0.122,0.366,0.488,279.886
135497,155121,9715,-0.192,0.997,0.148,-0.122,0.366,0.488,279.89
135497,155009,11998,-0.194,1.001,0.144,0.427,0.549,0.549,279.896
135501,155121,9715,-0.197,1.003,0.143,0.427,0.549,0.549,279.9
135501,155016,12018,-0.194,1.003,0.137,-0.427,0.427,0.549,279.906
135526,155121,9715,-0.195,1.001,0.141,-0.427,0.427,0.549,279.91
135526,155007,11999,-0.194,0.996,0.141,-0.915,0.366,0.549,279.916
135485,155121,9715,-0.195,0.995,0.138,-0.915,0.366,0.549,279.919
135485,155015,11994,-0.195,0.999,0.136,-0.488,0.488,0.549,279.926
135499,155121,9715,-0.195,1.005,0.14,-0.488,0.488,0.549,279.929
135499,155021,12013,-0.194,1.011,0.141,-0.061,0.549,0.305,279.936
135495,155121,9715,-0.192,1.016,0.14,-0.061,0.549,0.305,279.939
135495,155009,12007,-0.193,1.014,0.14,0.549,0.305,0.061,279.945
135504,155121,9715,-0.197,1.009,0.138,0.549,0.305,0.061,279.949
135504,154987,11994,-0.198,1.002,0.138,0,0.366,-0.061,279.955
135489,155121,9715,-0.195,1.001,0.142,0,0.366,-0.061,279.959
135489,154973,12003,-0.192,0.995,0.14,-0.549,0.427,-0.061,279.965
135502,155121,9715,-0.192,0.992,0.141,-0.549,0.427,-0.061,279.969
135502,154950,11992,-0.192,0.993,0.141,-0.122,0.366,0.061,279.975
135509,155121,9715,-0.192,0.992,0.144,-0.122,0.366,0.061,279.979
135509,154973,12007,-0.191,0.996,0.147,0.488,0.61,0.061,279.985
135527,155121,9715,-0.197,0.995,0.146,0.488,0.61,0.061,279.989
135527,155005,11990,-0.194,0.998,0.146,0.793,0.793,0.183,279.995
135518,155121,9715,-0.192,1.001,0.138,0.793,0.793,0.183,279.999
135518,154980,11993,-0.193,1.003,0.14,0.366,0.61,0.305,280.005
135505,155121,9715,-0.194,1,0.139,0.366,0.61,0.305,280.009
135505,154993,11989,-0.195,1.003,0.144,-0.305,0.732,0.366,280.015
135508,155121,9715,-0.197,1,0.141,-0.305,0.732,0.366,280.018
135508,154978,11996,-0.195,1,0.141,-0.61,0.793,0.488,280.025
135505,155121,9715,-0.193,0.999,0.138,-0.61,0.793,0.488,280.028
135505,154974,11987,-0.193,1,0.142,-0.122,0.61,0.427,280.035
135524,155121,9715,-0.194,1.002,0.145,-0.122,0.61,0.427,280.038
135524,154962,11970,-0.195,1.003,0.144,0.366,0.854,0.366,280.044
135518,155121,9715,-0.196,1.007,0.142,0.366,0.854,0.366,280.048
135518,154974,11984,-0.197,1.007,0.143,0.732,1.22,0.244,280.054
135532,155121,9715,-0.198,1.008,0.141,0.732,1.22,0.244,280.058
135532,154975,11984,-0.197,1.006,0.14,0.366,1.037,0.061,280.064
135515,155121,9715,-0.192,1.002,0.148,0.366,1.037,0.061,280.068
135515,154966,11991,-0.195,0.998,0.142,-0.366,0.793,0.061,280.074
135518,155121,9715,-0.196,0.996,0.135,-0.366,0.793,0.061,280.078
135518,154973,12000,-0.194,0.999,0.134,-0.732,0.793,0,280.084
135517,155121,9715,-0.19,0.993,0.134,-0.732,0.793,0,280.088
135517,154967,12001,-0.193,0.991,0.132,-0.183,0.671,0.061,280.094
135532,155121,9715,-0.195,0.998,0.127,-0.183,0.671,0.061,280.098
135532,154997,11993,-0.197,1.004,0.132,0.305,0.61,0.366,280.104
135515,155121,9715,-0.195,1.003,0.135,0.305,0.61,0.366,280.108
135515,154961,11996,-0.193,1.006,0.138,0.366,0.366,0.305,280.114
135542,155121,9715,-0.194,1.006,0.136,0.366,0.366,0.305,280.117
135542,155000,11995,-0.198,1.002,0.143,-0.244,0.122,0.305,280.124
135542,155121,9715,-0.196,0.998,0.143,-0.244,0.122,0.305,280.127
135542,154988,12003,-0.193,0.996,0.141,-0.61,-0.061,0.427,280.134
135538,155121,9715,-0.194,1,0.144,-0.61,-0.061,0.427,280.137
135538,155032,11987,-0.191,1.001,0.142,-0.732,0.122,0.427,280.143
135547,155121,9715,-0.192,0.999,0.145,-0.732,0.122,0.427,280.147
135547,155014,12009,-0.198,1,0.139,-0.244,0.427,0.183,280.153
135551,155121,9715,-0.199,0.999,0.141,-0.244,0.427,0.183,280.157
135551,155028,11995,-0.198,1.001,0.141,0.061,0.671,0.305,280.163
135555,155121,9715,-0.198,1.006,0.143,0.061,0.671,0.305,280.167
135555,155034,12009,-0.193,1.006,0.141,0.244,0.549,0.244,280.173
135547,155121,9715,-0.197,1,0.141,0.244,0.549,0.244,280.177
135547,155028,12011,-0.197,1.001,0.14,0.305,0.549,0.366,280.183
135556,155121,9715,-0.195,1,0.14,0.305,0.549,0.366,280.187
135556,155030,12001,-0.191,0.992,0.141,0.122,0.488,0.305,280.193
135536,155121,9715,-0.19,0.995,0.147,0.122,0.488,0.305,280.197
135536,155037,12015,-0.189,0.995,0.143,0.244,0.366,0.366,280.203
135543,155121,9715,-0.19,1.001,0.136,0.244,0.366,0.366,280.207
135543,155011,12018,-0.192,1.004,0.136,0.305,0.488,0.183,280.213
135544,155121,9715,-0.193,1.004,0.137,0.305,0.488,0.183,280.217
135544,155030,12015,-0.194,1.003,0.141,0.183,0.427,0.244,280.223
135558,155121,9715,-0.194,1.004,0.139,0.183,0.427,0.244,280.226
135558,155024,11997,-0.192,1.003,0.136,-0.61,0.305,0.488,280.233
135554,155121,9715,-0.192,1.002,0.138,-0.61,0.305,0.488,280.236
135554,155043,12009,-0.193,0.999,0.14,-0.915,0.183,0.366,280.242
135558,155121,9715,-0.194,0.995,0.141,-0.915,0.183,0.366,280.246
135558,155049,12012,-0.198,0.997,0.135,-0.061,0.183,0.61,280.252
135565,155121,9715,-0.199,1.003,0.136,-0.061,0.183,0.61,280.256
135565,155021,12002,-0.193,1.005,0.139,0.549,0.488,0.488,280.262
135567,155121,9715,-0.195,1.004,0.139,0.549,0.488,0.488,280.266
135567,155043,11999,-0.196,1.007,0.141,0.61,0.244,0.366,280.272
135568,155121,9715,-0.191,1.007,0.146,0.61,0.244,0.366,280.276
135568,155033,11999,-0.192,1.003,0.149,-0.122,0.122,0.305,280.282
135563,155121,9715,-0.188,0.999,0.147,-0.122,0.122,0.305,280.286
135563,155039,12015,-0.19,1,0.144,-0.488,0.366,0.061,280.292
135548,155121,9715,-0.19,1,0.144,-0.488,0.366,0.061,280.296
135548,155024,12009,-0.193,0.995,0.142,-0.183,0.366,0,280.302
