131665,154118,11730,-0.22,1.001,0.08,-0.549,0.305,0.549,98.007
131674,154353,9715,-0.224,1.001,0.078,-0.549,0.305,0.549,98.011
131674,154144,11724,-0.219,1.002,0.078,-0.427,0.305,0.549,98.017
131657,154353,9715,-0.218,1.001,0.081,-0.427,0.305,0.549,98.021
131657,154148,11749,-0.217,1.002,0.086,0.183,0.183,0.488,98.027
131662,154353,9715,-0.219,1.007,0.08,0.183,0.183,0.488,98.031
131662,154120,11732,-0.222,1.008,0.083,0.366,0.549,0.305,98.037
131650,154353,9715,-0.223,1.008,0.084,0.366,0.549,0.305,98.041
131650,154118,11734,-0.222,1.007,0.087,0.854,0.732,0,98.047
131654,154353,9715,-0.217,1.007,0.082,0.854,0.732,0,98.05
131654,154126,11719,-0.22,1.01,0.082,0.61,0.427,-0.061,98.057
131645,154097,9715,-0.217,1.006,0.079,0.61,0.427,-0.061,98.06
131645,154105,11746,-0.215,1.006,0.083,-0.366,0.427,-0.061,98.067
131664,154097,9715,-0.215,0.999,0.083,-0.366,0.427,-0.061,98.07
131664,154064,11728,-0.214,0.993,0.082,-0.61,0.793,0.122,98.076
131639,154353,9715,-0.212,0.992,0.083,-0.61,0.793,0.122,98.08
131639,154127,11732,-0.214,0.995,0.081,-0.061,0.793,0.122,98.086
131657,154353,9715,-0.215,0.997,0.078,-0.061,0.793,0.122,98.09
131657,154122,11731,-0.217,1.003,0.075,0,0.854,0.244,98.096
131650,154353,9715,-0.218,1.009,0.077,0,0.854,0.244,98.1
131650,154114,11745,-0.222,1.007,0.079,-0.244,1.037,0.366,98.106
131651,154353,9715,-0.223,1.005,0.079,-0.244,1.037,0.366,98.11
131651,154148,11735,-0.223,1.003,0.08,-0.244,0.976,0.061,98.116
131659,154353,9715,-0.224,1.003,0.086,-0.244,0.976,0.061,98.12
131659,154159,11757,-0.222,1.002,0.084,0,0.915,0.183,98.126
131650,154353,9715,-0.224,1,0.078,0,0.915,0.183,98.13
131650,154150,11740,-0.225,1.003,0.079,0.183,0.793,0.183,98.136
131626,154353,9715,-0.221,1.003,0.077,0.183,0.793,0.183,98.14
131626,154139,11738,-0.223,1.007,0.081,0.488,0.793,0,98.146
131639,154353,9715,-0.226,1.007,0.079,0.488,0.793,0,98.149
131639,154133,11742,-0.225,1.007,0.076,0.122,0.671,0.122,98.156
131624,154353,9715,-0.221,1,0.078,0.122,0.671,0.122,98.159
131624,154116,11732,-0.222,0.997,0.076,-0.488,0.549,0.183,98.166
131608,154097,9715,-0.221,0.999,0.067,-0.488,0.549,0.183,98.169
131608,154083,11735,-0.22,0.999,0.066,-0.549,0.549,0.366,98.175
131585,154097,9715,-0.22,0.995,0.074,-0.549,0.549,0.366,98.179
131585,154081,11721,-0.22,0.996,0.076,0,0.305,0.488,98.185
131593,154097,9715,-0.218,0.999,0.08,0,0.305,0.488,98.189
131593,154093,11734,-0.216,1.005,0.083,-0.183,0,0.671,98.195
131603,154097,9715,-0.217,1.004,0.085,-0.183,0,0.671,98.199
131603,154101,11740,-0.216,1.003,0.081,-0.488,-0.061,0.61,98.205
131607,154097,9715,-0.216,1.002,0.079,-0.488,-0.061,0.61,98.209
131607,154094,11741,-0.217,1,0.08,-0.732,0.061,0.671,98.215
131626,154353,9715,-0.221,0.998,0.076,-0.732,0.061,0.671,98.219
131626,154117,11734,-0.225,0.999,0.072,-0.61,0.061,0.732,98.225
131630,154353,9715,-0.224,1.003,0.079,-0.61,0.061,0.732,98.229
131630,154141,11730,-0.22,1.005,0.081,-0.305,-0.061,0.793,98.235
131640,154353,9715,-0.22,1.007,0.083,-0.305,-0.061,0.793,98.239
131640,154134,11729,-0.22,1.005,0.084,0.427,0.061,0.671,98.245
131633,154353,9715,-0.223,1.002,0.086,0.427,0.061,0.671,98.248
131633,154141,11736,-0.224,1.002,0.083,0.854,0.366,0.549,98.255
131626,154353,9715,-0.225,1.002,0.083,0.854,0.366,0.549,98.258
131626,154132,11734,-0.221,1.004,0.088,0.732,0.244,0.488,98.265
131620,154353,9715,-0.217,1.007,0.089,0.732,0.244,0.488,98.268
131620,154122,11739,-0.215,1.004,0.087,0.488,0.244,0.488,98.274
131624,154353,9715,-0.219,0.997,0.086,0.488,0.244,0.488,98.278
131624,154121,11737,-0.222,0.996,0.08,0.183,0.854,0.671,98.284
131629,154353,9715,-0.22,1.002,0.079,0.183,0.854,0.671,98.288
131629,154147,11741,-0.216,1.004,0.08,-0.976,0.854,0.793,98.294
131649,154353,9715,-0.213,0.997,0.082,-0.976,0.854,0.793,98.298
131649,154144,11729,-0.214,0.997,0.078,-0.976,0.427,0.976,98.304
131646,154353,9715,-0.214,0.997,0.076,-0.976,0.427,0.976,98.308
131646,154126,11743,-0.218,1.001,0.077,-1.341,0.61,0.976,98.314
131643,154353,9715,-0.215,1.004,0.081,-1.341,0.61,0.976,98.318
131643,154119,11740,-0.219,1.006,0.081,-0.732,0.732,1.098,98.324
131634,154353,9715,-0.219,1.004,0.075,-0.732,0.732,1.098,98.328
131634,154118,11734,-0.218,1.009,0.073,0.122,0.427,0.671,98.334
131638,154097,9715,-0.219,1.015,0.071,0.122,0.427,0.671,98.338
131638,154090,11734,-0.218,1.018,0.083,0,0.366,0.305,98.344
131643,154097,9715,-0.219,1.016,0.085,0,0.366,0.305,98.347
131643,154093,11743,-0.223,1.007,0.078,-0.305,0.427,0.183,98.354
131631,154097,9715,-0.225,1.005,0.079,-0.305,0.427,0.183,98.357
131631,154069,11744,-0.223,1.002,0.079,-0.671,0.61,0.061,98.364
131624,154097,9715,-0.223,1.002,0.079,-0.671,0.61,0.061,98.367
131624,154087,11741,-0.221,1.002,0.081,-0.427,0.366,-0.061,98.373
131630,154097,9715,-0.221,1.002,0.081,-0.427,0.366,-0.061,98.377
131630,154063,11732,-0.215,0.999,0.076,0,0.183,0,98.383
131602,154097,9715,-0.215,0.999,0.076,0,0.183,0,98.387
131602,154039,11737,-0.221,0.995,0.086,0.61,0.732,0.061,98.393
131630,154097,9715,-0.221,0.995,0.086,0.61,0.732,0.061,98.397
131630,154050,11735,-0.22,0.997,0.089,0.183,0.976,0.366,98.403
131599,154097,9715,-0.22,0.997,0.089,0.183,0.976,0.366,98.407
131599,154045,11741,-0.216,1.005,0.082,-0.366,0.732,0.366,98.413
131596,154097,9715,-0.216,1.005,0.082,-0.366,0.732,0.366,98.417
131596,154054,11739,-0.215,1,0.084,-0.305,0.915,0.671,98.423
131608,154097,9715,-0.215,1,0.084,-0.305,0.915,0.671,98.427
131608,154058,11734,-0.217,1.01,0.085,-0.366,1.098,0.549,98.433
131601,154097,9715,-0.217,1.01,0.085,-0.366,1.098,0.549,98.437
131601,154063,11740,-0.218,1.004,0.094,0.427,1.22,0.427,98.443
131585,154097,9715,-0.218,1.004,0.094,0.427,1.22,0.427,98.446
131585,154043,11723,-0.22,1.009,0.077,0.61,1.22,0.183,98.453
131576,154097,9715,-0.22,1.009,0.077,0.61,1.22,0.183,98.456
131576,154029,11719,-0.218,1.01,0.077,0.366,0.915,0.061,98.463
131579,154097,9715,-0.218,1.01,0.077,0.366,0.915,0.061,98.466
131579,154041,11730,-0.224,1.01,0.068,-0.488,0.793,-0.305,98.472
131588,154097,9715,-0.224,1.01,0.068,-0.488,0.793,-0.305,98.476
131588,154035,11722,-0.224,1.002,0.066,-1.037,0.793,-0.366,98.482
131600,154097,9715,-0.224,1.002,0.066,-1.037,0.793,-0.366,98.486
131600,154043,11715,-0.219,0.996,0.065,-1.098,0.244,-0.122,98.492
131587,154097,9715,-0.219,0.996,0.065,-1.098,0.244,-0.122,98.496
131587,154012,11726,-0.218,0.994,0.07,-1.098,0.061,0.061,98.502
131569,154097,9715,-0.218,0.994,0.07,-1.098,0.061,0.061,98.506
131569,154004,11723,-0.221,0.996,0.081,-1.098,0.061,0.061,98.512
131569,154097,9715,-0.221,0.999,0.084,-0.488,0.488,0.488,98.516
131569,154032,11719,-0.22,1.001,0.084,-0.488,0.488,0.488,98.522
131563,154097,9715,-0.22,1.003,0.077,-0.122,0.244,0.488,98.526
131563,154024,11740,-0.218,1.005,0.076,-0.122,0.244,0.488,98.532
131568,154097,9715,-0.221,1.004,0.08,-0.61,-0.122,0.488,98.536
131568,153975,11718,-0.221,1,0.082,-0.61,-0.122,0.488,98.542
131565,154097,9715,-0.222,0.997,0.082,-1.22,-0.122,0.854,98.545
131565,153971,11742,-0.224,0.998,0.079,-1.22,-0.122,0.854,98.552
131547,154097,9715,-0.221,0.998,0.078,-1.098,-0.122,0.854,98.555
131547,153968,11725,-0.221,0.996,0.077,-1.098,-0.122,0.854,98.562
131555,154097,9715,-0.218,1.003,0.083,-1.22,-0.366,0.854,98.565
131555,153919,11730,-0.218,1.007,0.088,-1.22,-0.366,0.854,98.571
131540,154097,9715,-0.216,1.007,0.088,-1.341,-0.366,1.037,98.575
131540,153959,11726,-0.214,1.003,0.083,-1.341,-0.366,1.037,98.581
131540,154097,9715,-0.217,1.004,0.086,-1.159,-0.183,0.854,98.585
131540,153949,11736,-0.219,1.009,0.089,-1.159,-0.183,0.854,98.591
131552,154097,9715,-0.222,1.015,0.084,-0.976,0,0.671,98.595
131552,153937,11735,-0.221,1.015,0.078,-0.976,0,0.671,98.601
131533,154097,9715,-0.221,1.009,0.078,-0.915,-0.061,0.366,98.605
131533,153931,11711,-0.219,1.009,0.076,-0.915,-0.061,0.366,98.611
131529,154097,9715,-0.219,1.007,0.073,-0.854,-0.305,0.122,98.615
131529,153913,11727,-0.221,1.005,0.083,-0.854,-0.305,0.122,98.621
131534,154097,9715,-0.219,1,0.085,-0.854,-0.122,0.305,98.625
131534,153922,11720,-0.218,0.994,0.088,-0.854,-0.122,0.305,98.631
131540,154097,9715,-0.219,0.996,0.086,-0.61,0.122,0.244,98.635
131540,153918,11711,-0.22,0.996,0.088,-0.61,0.122,0.244,98.641
131528,154097,9715,-0.219,1,0.09,0,0.183,0.427,98.644
131528,153901,11733,-0.218,1.003,0.086,0,0.183,0.427,98.651
131534,154097,9715,-0.216,1.001,0.085,0.305,0,0.488,98.654
131534,153895,11715,-0.215,1.001,0.082,0.305,0,0.488,98.661
131517,154097,9715,-0.218,1,0.082,0.122,0.427,0.61,98.664
131517,153898,11728,-0.221,0.999,0.085,0.122,0.427,0.61,98.67
131525,154097,9715,-0.216,1.004,0.088,-0.122,0.732,0.671,98.674
131525,153895,11736,-0.216,1.006,0.091,-0.122,0.732,0.671,98.68
131505,154097,9715,-0.218,1.012,0.089,-0.61,0.732,0.488,98.684
131505,153892,11728,-0.218,1.009,0.085,-0.61,0.732,0.488,98.69
131545,154097,9715,-0.219,1.002,0.083,-0.854,0.793,0.244,98.694
131545,153917,11715,-0.221,0.999,0.08,-0.854,0.793,0.244,98.7
131536,154097,9715,-0.223,0.999,0.079,-0.305,0.671,0.061,98.704
131536,153912,11732,-0.22,1.004,0.079,-0.305,0.671,0.061,98.71
131555,154097,9715,-0.217,1.01,0.078,0.427,0.793,0,98.714
131555,153930,11708,-0.218,1.012,0.078,0.427,0.793,0,98.72
131531,154097,9715,-0.22,1.008,0.084,1.341,0.976,-0.183,98.724
131531,153926,11719,-0.224,1.009,0.081,1.341,0.976,-0.183,98.73
131527,154097,9715,-0.221,1.011,0.077,1.037,0.61,-0.549,98.734
131527,153909,11733,-0.222,1.009,0.077,1.037,0.61,-0.549,98.74
131527,154097,9715,-0.221,1.003,0.081,-0.488,0.427,-0.488,98.743
131527,153927,11722,-0.22,0.996,0.076,-0.488,0.427,-0.488,98.75
131532,154097,9715,-0.217,0.992,0.072,-1.22,0.305,-0.122,98.753
131532,153923,11710,-0.218,0.991,0.074,-1.22,0.305,-0.122,98.76
131515,154097,9715,-0.222,0.99,0.079,-1.098,0.305,-0.061,98.763
131515,153899,11714,-0.223,0.99,0.08,-1.098,0.305,-0.061,98.769
131533,154097,9715,-0.22,0.996,0.08,-0.244,0.427,0.244,98.773
131533,153919,11716,-0.222,0.996,0.083,-0.244,0.427,0.244,98.779
131530,154097,9715,-0.222,0.994,0.087,0.366,0.427,0.671,98.783
131530,153911,11716,-0.221,0.999,0.087,0.366,0.427,0.671,98.789
131529,154097,9715,-0.22,1.004,0.083,0.61,0.305,0.61,98.793
131529,153930,11731,-0.22,1.009,0.084,0.61,0.305,0.61,98.799
131528,154097,9715,-0.22,1.01,0.084,0.183,0.305,0.61,98.803
131528,153947,11711,-0.221,1.01,0.086,0.183,0.305,0.61,98.809
131537,154097,9715,-0.223,1.006,0.089,-0.122,0.549,0.488,98.813
131537,153935,11722,-0.223,1.003,0.084,-0.122,0.549,0.488,98.819
131542,154097,9715,-0.22,1.006,0.086,0.061,0.549,0.244,98.823
131542,153938,11723,-0.22,1.005,0.087,0.061,0.549,0.244,98.829
131525,154097,9715,-0.22,1.008,0.08,0.122,0.427,-0.061,98.833
131525,153952,11732,-0.217,1.006,0.081,0.122,0.427,-0.061,98.839
131534,154097,9715,-0.216,1.001,0.083,-0.183,0.488,-0.061,98.842
131534,153980,11720,-0.218,0.997,0.083,-0.183,0.488,-0.061,98.849
131541,154097,9715,-0.221,0.997,0.081,-0.305,0.427,-0.183,98.852
131541,153955,11735,-0.221,0.998,0.08,-0.305,0.427,-0.183,98.859
131563,154097,9715,-0.219,0.998,0.077,0.305,0.427,-0.122,98.862
131563,153971,11721,-0.219,1.002,0.077,0.305,0.427,-0.122,98.868
131565,154097,9715,-0.219,1.003,0.08,0.427,0.305,0,98.872
131565,153985,11721,-0.215,0.999,0.079,0.427,0.305,0,98.878
131550,154097,9715,-0.22,0.994,0.076,-0.122,0.305,0.183,98.882
131550,153957,11710,-0.222,0.994,0.08,-0.122,0.305,0.183,98.888
131551,154097,9715,-0.22,0.996,0.081,-0.915,0.305,0.549,98.892
131551,153963,11726,-0.22,0.997,0.082,-0.915,0.305,0.549,98.898
131552,154097,9715,-0.22,0.999,0.083,-0.793,0.183,0.732,98.902
131552,153962,11721,-0.218,1.003,0.084,-0.793,0.183,0.732,98.908
131552,154097,9715,-0.221,0.998,0.088,0.122,0.61,0.793,98.912
131552,153945,11738,-0.222,1.001,0.09,0.122,0.61,0.793,98.918
131566,154097,9715,-0.221,1.009,0.084,1.159,0.671,0.61,98.922
131566,153976,11728,-0.219,1.017,0.085,1.159,0.671,0.61,98.928
131541,154097,9715,-0.221,1.017,0.083,0.976,0.549,0.183,98.932
131541,153957,11724,-0.221,1.014,0.085,0.976,0.549,0.183,98.938
131541,154097,9715,-0.222,1.01,0.08,0.427,0.549,0.061,98.941
131541,153946,11728,-0.22,1.006,0.083,0.427,0.549,0.061,98.948
131539,154097,9715,-0.22,1.006,0.083,0.427,0.549,0.061,98.951
131539,153940,11718,-0.215,1.001,0.08,-0.732,0.366,-0.244,98.958
131533,154097,9715,-0.215,1.001,0.08,-0.732,0.366,-0.244,98.961
131533,153931,11717,-0.215,1.002,0.081,-1.28,0.183,-0.366,98.967
131534,154097,9715,-0.215,1.002,0.081,-1.28,0.183,-0.366,98.971
131534,153920,11730,-0.216,0.991,0.081,-0.671,0.305,-0.183,98.977
131522,154097,9715,-0.216,0.991,0.081,-0.671,0.305,-0.183,98.981
131522,153903,11710,-0.221,1.002,0.082,0.488,0.549,-0.244,98.987
131545,154097,9715,-0.221,1.002,0.082,0.488,0.549,-0.244,98.991
131545,153921,11714,-0.222,0.995,0.08,0.793,0.671,-0.122,98.997
131527,154097,9715,-0.222,0.995,0.08,0.793,0.671,-0.122,99.001
131527,153916,11728,-0.22,1.007,0.081,0.915,0.488,0,99.007
131536,154097,9715,-0.22,1.007,0.081,0.915,0.488,0,99.011
131536,153888,11710,-0.223,1.001,0.082,0.183,0.549,0.122,99.017
131551,154097,9715,-0.223,1.001,0.082,0.183,0.549,0.122,99.021
131551,153901,11718,-0.221,1,0.084,-0.244,0.427,0.061,99.027
131536,154097,9715,-0.221,1,0.084,-0.244,0.427,0.061,99.031
131536,153892,11722,-0.224,0.99,0.078,-0.549,0.427,0.122,99.037
131541,154097,9715,-0.224,0.99,0.078,-0.549,0.427,0.122,99.04
131541,153874,11715,-0.223,1.002,0.077,-0.427,0.488,0.305,99.047
131528,154097,9715,-0.223,1.002,0.077,-0.427,0.488,0.305,99.05
131528,153884,11723,-0.219,1.004,0.08,-0.427,0.305,0.305,99.057
131522,154097,9715,-0.219,1.004,0.08,-0.427,0.305,0.305,99.06
131522,153917,11721,-0.22,1.002,0.089,0.244,0.549,0.244,99.066
131550,154097,9715,-0.22,1.002,0.089,0.244,0.549,0.244,99.07
131550,153900,11725,-0.219,1.004,0.081,0.61,0.854,0.244,99.076
131538,154097,9715,-0.219,1.004,0.081,0.61,0.854,0.244,99.08
131538,153925,11704,-0.22,1.013,0.082,0.732,0.488,-0.122,99.086
131531,154097,9715,-0.22,1.013,0.082,0.732,0.488,-0.122,99.09
131531,153880,11708,-0.22,1.005,0.082,0.61,0.427,-0.061,99.096
131517,154097,9715,-0.221,1.001,0.076,0.61,0.427,-0.061,99.1
131517,153899,11712,-0.224,0.996,0.075,-0.244,0.61,0.061,99.106
131547,154097,9715,-0.22,0.997,0.074,-0.244,0.61,0.061,99.11
131547,153879,11711,-0.22,0.998,0.071,-1.341,0.305,0,99.116
131515,154097,9715,-0.217,0.997,0.079,-1.341,0.305,0,99.12
131515,153883,11715,-0.22,0.994,0.079,-1.22,0.183,0.305,99.126
131535,154097,9715,-0.223,0.996,0.08,-1.22,0.183,0.305,99.13
131535,153876,11720,-0.221,0.994,0.088,-0.061,0.305,0.366,99.136
131523,154097,9715,-0.22,0.998,0.083,-0.061,0.305,0.366,99.139
131523,153885,11711,-0.224,1.009,0.079,0.854,0.427,0.366,99.146
131518,154097,9715,-0.225,1.011,0.083,0.854,0.427,0.366,99.149
131518,153897,11714,-0.222,1.015,0.09,1.341,0.732,0.244,99.156
131539,154097,9715,-0.225,1.014,0.087,1.341,0.732,0.244,99.159
131539,153877,11709,-0.221,1.016,0.083,0.854,0.671,0.183,99.165
131534,154097,9715,-0.221,1.011,0.084,0.854,0.671,0.183,99.169
131534,153897,11712,-0.22,1.002,0.084,-0.488,0.366,-0.122,99.175
131543,154097,9715,-0.22,1.001,0.079,-0.488,0.366,-0.122,99.179
131543,153895,11703,-0.223,1,0.078,-1.037,0.244,-0.183,99.185
131526,154097,9715,-0.221,0.996,0.076,-1.037,0.244,-0.183,99.189
131526,153908,11713,-0.222,0.991,0.073,-0.671,0.427,-0.305,99.195
131538,154097,9715,-0.222,0.994,0.07,-0.671,0.427,-0.305,99.199
131538,153893,11715,-0.223,0.998,0.07,0.061,0.366,0.061,99.205
131531,154097,9715,-0.219,0.997,0.071,0.061,0.366,0.061,99.209
131531,153920,11697,-0.217,1,0.074,0.305,0.183,0.427,99.215
131515,154097,9715,-0.219,1.002,0.076,0.305,0.183,0.427,99.219
131515,153914,11730,-0.221,1.007,0.076,0.061,0.122,0.549,99.225
131533,154097,9715,-0.222,1.006,0.08,0.061,0.122,0.549,99.229
131533,153915,11710,-0.221,0.999,0.083,-0.671,0,0.549,99.235
131534,154097,9715,-0.223,0.999,0.079,-0.671,0,0.549,99.239
131534,153922,11715,-0.225,1,0.076,-0.854,-0.061,0.671,99.245
131539,154097,9715,-0.222,1.006,0.078,-0.854,-0.061,0.671,99.248
131539,153909,11709,-0.217,1.005,0.083,0.061,-0.183,0.366,99.255
131536,154097,9715,-0.221,1.008,0.081,0.061,-0.183,0.366,99.258
131536,153911,11709,-0.225,1.006,0.083,0.183,0,0.305,99.264
131542,154097,9715,-0.223,1.009,0.082,0.183,0,0.305,99.268
131542,153900,11704,-0.223,1.007,0.084,-0.122,0.061,0.244,99.274
131522,154097,9715,-0.22,1.004,0.088,-0.122,0.061,0.244,99.278
131522,153907,11718,-0.219,1.002,0.089,-0.183,0.061,0.244,99.284
131544,154097,9715,-0.219,1.004,0.086,-0.183,0.061,0.244,99.288
131544,153901,11704,-0.221,0.999,0.087,-0.305,0.305,0.305,99.294
131531,154097,9715,-0.218,0.998,0.091,-0.305,0.305,0.305,99.298
131531,153907,11717,-0.217,1,0.091,0.244,0.488,0.244,99.304
131527,154097,9715,-0.216,0.999,0.094,0.244,0.488,0.244,99.308
131527,153885,11713,-0.219,1.003,0.093,0.854,0.793,0.305,99.314
131533,154097,9715,-0.223,1.007,0.092,0.854,0.793,0.305,99.318
131533,153928,11721,-0.222,1.009,0.093,0.976,1.341,0.122,99.324
131541,154097,9715,-0.22,1.011,0.086,0.976,1.341,0.122,99.328
131541,153909,11731,-0.221,1.013,0.077,0.488,1.098,-0.244,99.334
131546,154097,9715,-0.22,1.007,0.07,0.488,1.098,-0.244,99.337
131546,153936,11713,-0.22,1.006,0.076,-0.732,0.61,-0.305,99.344
131526,154097,9715,-0.219,1.005,0.075,-0.732,0.61,-0.305,99.347
131526,153937,11722,-0.217,0.995,0.073,-1.341,0.793,-0.122,99.354
131547,154097,9715,-0.217,0.99,0.066,-1.341,0.793,-0.122,99.357
131547,153930,11711,-0.22,0.995,0.064,-0.366,0.854,-0.122,99.363
131542,154097,9715,-0.223,1,0.072,-0.366,0.854,-0.122,99.367
131542,153968,11728,-0.22,1,0.075,0.915,0.549,-0.061,99.373
131545,154097,9715,-0.22,1.003,0.078,0.915,0.549,-0.061,99.377
131545,153910,11713,-0.219,1.005,0.08,1.646,0.671,0,99.383
131519,154097,9715,-0.223,1.005,0.081,1.646,0.671,0,99.387
131519,153923,11724,-0.222,1.003,0.084,0.122,0.915,0.061,99.393
131508,154097,9715,-0.222,0.995,0.09,0.122,0.915,0.061,99.397
131508,153943,11720,-0.226,0.986,0.085,-1.28,0.854,0.366,99.403
131545,154097,9715,-0.227,0.988,0.083,-1.28,0.854,0.366,99.407
131545,153933,11712,-0.223,0.993,0.083,-0.915,0.854,0.305,99.413
131547,154097,9715,-0.223,0.994,0.077,-0.915,0.854,0.305,99.417
131547,153913,11721,-0.225,1.001,0.076,0.427,0.671,0.427,99.423
131531,154097,9715,-0.228,1.007,0.078,0.427,0.671,0.427,99.427
131531,153966,11719,-0.227,1.011,0.078,1.098,0.915,0.427,99.433
131549,154097,9715,-0.227,1.014,0.076,1.098,0.915,0.427,99.437
131549,153944,11736,-0.226,1.011,0.079,0.366,0.915,0.305,99.443
131536,154097,9715,-0.221,1.008,0.085,0.366,0.915,0.305,99.446
131536,153948,11719,-0.22,1.002,0.087,-0.549,0.305,0.305,99.453
131539,154097,9715,-0.221,0.993,0.084,-0.549,0.305,0.305,99.456
131539,153965,11720,-0.219,0.988,0.079,-0.793,0.183,0.427,99.462
131565,154097,9715,-0.217,0.989,0.076,-0.793,0.183,0.427,99.466
131565,153979,11712,-0.218,0.995,0.075,0.122,0.183,0.305,99.472
131547,154097,9715,-0.219,1.001,0.075,0.122,0.183,0.305,99.476
131547,153972,11725,-0.22,1.005,0.08,0.793,0.183,0.183,99.482
131550,154097,9715,-0.225,1.005,0.08,0.793,0.183,0.183,99.486
131550,153947,11727,-0.229,1.001,0.08,0.427,0.488,0.488,99.492
131537,154097,9715,-0.226,1.001,0.075,0.427,0.488,0.488,99.496
131537,153956,11734,-0.226,1.002,0.076,0.061,0.183,0.488,99.502
131552,154097,9715,-0.223,1,0.078,0.061,0.183,0.488,99.506
131552,153947,11728,-0.224,0.998,0.073,-0.549,-0.244,0.732,99.512
131567,154097,9715,-0.224,1,0.075,-0.549,-0.244,0.732,99.516
131567,153956,11719,-0.222,0.997,0.081,-1.037,-0.061,0.915,99.522
131552,154097,9715,-0.222,0.995,0.08,-1.037,-0.061,0.915,99.526
131552,153941,11727,-0.221,0.996,0.08,-0.671,-0.061,0.915,99.532
131550,154097,9715,-0.222,1.004,0.085,-0.671,-0.061,0.915,99.536
131550,153964,11726,-0.223,1.006,0.079,0,0,1.037,99.542
131541,154097,9715,-0.223,1.006,0.079,0,0,1.037,99.545
131541,153948,11721,-0.22,1.007,0.082,0.244,0.061,0.671,99.552
131568,154097,9715,-0.22,1.007,0.082,0.244,0.061,0.671,99.555
131568,153982,11741,-0.222,1.005,0.083,0.122,-0.061,0.488,99.562
131555,154097,9715,-0.222,1.005,0.083,0.122,-0.061,0.488,99.565
131555,153975,11729,-0.22,1.002,0.08,-0.488,0,0.488,99.571
131559,154097,9715,-0.22,1.002,0.08,-0.488,0,0.488,99.575
131559,153999,11727,-0.22,0.995,0.08,0,0.244,0.61,99.581
131558,154097,9715,-0.22,0.995,0.08,0,0.244,0.61,99.585
131558,153998,11734,-0.224,1,0.073,0.732,0.305,0.61,99.591
131565,154097,9715,-0.224,1,0.073,0.732,0.305,0.61,99.595
131565,154016,11722,-0.22,1.007,0.082,0.671,0.183,0.732,99.601
131575,154097,9715,-0.22,1.007,0.082,0.671,0.183,0.732,99.605
131575,153991,11714,-0.219,1.007,0.082,0,0,0.854,99.611
131547,154097,9715,-0.219,1.007,0.082,0,0,0.854,99.615
131547,153950,11739,-0.218,1,0.081,-0.732,0.183,0.793,99.621
131546,154097,9715,-0.218,1,0.081,-0.732,0.183,0.793,99.625
131546,153964,11717,-0.217,0.998,0.085,-0.671,0.305,0.915,99.631
131534,154097,9715,-0.217,0.998,0.085,-0.671,0.305,0.915,99.635
131534,153922,11724,-0.216,1.007,0.08,-0.244,0.244,0.732,99.641
131545,154097,9715,-0.216,1.007,0.08,-0.244,0.244,0.732,99.644
131545,153913,11714,-0.219,1.007,0.083,0.183,0.61,0.671,99.651
131524,154097,9715,-0.219,1.007,0.083,0.183,0.61,0.671,99.654
131524,153918,11722,-0.222,1.006,0.082,0.366,0.976,0.488,99.66
131530,154097,9715,-0.222,1.006,0.082,0.366,0.976,0.488,99.664
131530,153887,11709,-0.224,1.008,0.078,0.305,0.915,0.244,99.67
131513,154097,9715,-0.224,1.008,0.078,0.305,0.915,0.244,99.674
131513,153904,11725,-0.223,1.001,0.082,0.183,0.671,0.122,99.68
131522,154097,9715,-0.223,1.001,0.082,0.183,0.671,0.122,99.684
131522,153887,11715,-0.221,0.999,0.072,0.183,0.671,0.122,99.69
131526,154097,9715,-0.219,0.999,0.071,-0.305,0.488,0.061,99.694
131526,153892,11713,-0.222,0.999,0.079,-0.305,0.488,0.061,99.7
131522,154097,9715,-0.223,0.993,0.08,0.061,0.732,0.244,99.704
131522,153930,11707,-0.223,0.996,0.078,0.061,0.732,0.244,99.71
131526,154097,9715,-0.222,0.996,0.079,0.488,0.671,0.305,99.714
131526,153896,11714,-0.221,0.994,0.077,0.488,0.671,0.305,99.72
131552,154097,9715,-0.218,1,0.077,0.671,0.366,0.427,99.724
131552,153957,11717,-0.215,1.003,0.079,0.671,0.366,0.427,99.73
131523,154097,9715,-0.218,1.006,0.083,0.366,0.366,0.671,99.734
131523,153956,11715,-0.219,1.005,0.083,0.366,0.366,0.671,99.74
131521,154097,9715,-0.224,1.004,0.075,-0.244,0.793,0.671,99.743
131521,153921,11726,-0.224,1.003,0.081,-0.244,0.793,0.671,99.75
131518,154097,9715,-0.221,1.001,0.087,-0.671,0.732,0.671,99.753
131518,153963,11718,-0.22,1.002,0.082,-0.671,0.732,0.671,99.759
131532,154097,9715,-0.22,1.006,0.079,-0.732,0.671,0.915,99.763
131532,153953,11712,-0.222,1.009,0.079,-0.732,0.671,0.915,99.769
131543,154097,9715,-0.22,1.007,0.081,-0.488,0.915,0.427,99.773
131543,153949,11702,-0.226,1.003,0.078,-0.488,0.915,0.427,99.779
131522,154097,9715,-0.23,1.002,0.075,-0.366,1.037,0.427,99.783
131522,153959,11717,-0.226,1.003,0.076,-0.366,1.037,0.427,99.789
131512,154097,9715,-0.221,0.998,0.079,0.183,0.854,0.549,99.793
131512,153946,11717,-0.221,0.997,0.079,0.183,0.854,0.549,99.799
131528,154097,9715,-0.219,1.001,0.078,1.28,0.671,0.427,99.803
131528,153943,11718,-0.219,1.005,0.082,1.28,0.671,0.427,99.809
131543,154097,9715,-0.22,1.011,0.078,1.829,0.732,0.305,99.813
131543,153932,11711,-0.219,1.014,0.08,1.829,0.732,0.305,99.819
131534,154097,9715,-0.222,1.015,0.08,1.098,0.732,0.244,99.823
131534,153949,11706,-0.222,1.01,0.075,1.098,0.732,0.244,99.829
131533,154097,9715,-0.222,1.001,0.078,-0.183,0.61,0.183,99.833
131533,153934,11713,-0.22,0.992,0.077,-0.183,0.61,0.183,99.839
131526,154097,9715,-0.218,0.99,0.073,-0.854,0.366,0.183,99.842
131526,153932,11717,-0.22,0.994,0.068,-0.854,0.366,0.183,99.849
131535,154097,9715,-0.222,0.994,0.067,-0.915,-0.061,0.366,99.852
131535,153896,11722,-0.22,0.991,0.073,-0.915,-0.061,0.366,99.858
131522,154097,9715,-0.22,0.991,0.079,-0.244,-0.061,0.854,99.862
131522,153896,11712,-0.219,0.993,0.079,-0.244,-0.061,0.854,99.868
131510,154097,9715,-0.223,1,0.078,0.122,0.366,1.28,99.872
131510,153908,11722,-0.22,1.005,0.082,0.122,0.366,1.28,99.878
131523,154097,9715,-0.221,1.009,0.083,0.366,0.122,1.22,99.882
131523,153889,11714,-0.22,1.013,0.084,0.366,0.122,1.22,99.888
131532,154097,9715,-0.221,1.016,0.088,0.427,0.061,0.976,99.892
131532,153919,11718,-0.222,1.012,0.087,0.427,0.061,0.976,99.898
131546,154097,9715,-0.219,1.008,0.084,0.122,0.305,0.671,99.902
131546,153931,11711,-0.222,1.007,0.084,0.122,0.305,0.671,99.908
131544,154097,9715,-0.218,1.007,0.083,0.122,0.183,0.183,99.912
131544,153962,11717,-0.216,1.007,0.08,0.122,0.183,0.183,99.918
131539,154097,9715,-0.219,1.007,0.077,0.183,0.183,-0.061,99.922
131539,153925,11705,-0.218,1.008,0.079,0.183,0.183,-0.061,99.928
131548,154097,9715,-0.22,1.001,0.078,0.183,0.427,0.122,99.932
131548,153921,11705,-0.223,1,0.083,0.183,0.427,0.122,99.938
131519,154097,9715,-0.221,0.999,0.079,0.183,0.61,0.122,99.941
131519,153891,11711,-0.22,0.999,0.082,0.183,0.61,0.122,99.948
131547,154097,9715,-0.22,0.997,0.082,-0.183,0.61,0.366,99.951
131547,153915,11719,-0.22,0.991,0.082,-0.183,0.61,0.366,99.958
131527,154097,9715,-0.222,0.99,0.078,0,0.549,0.488,99.961
131527,153888,11720,-0.222,0.993,0.074,0,0.549,0.488,99.967
131515,154097,9715,-0.224,0.993,0.069,0,0.488,0.488,99.971
131515,153905,11714,-0.224,0.998,0.073,0,0.488,0.488,99.977
131498,154097,9715,-0.221,1.009,0.078,0.122,0.61,0.61,99.981
131498,153878,11742,-0.221,1.007,0.074,0.122,0.61,0.61,99.987
131527,154097,9715,-0.221,1.007,0.073,0.244,0.549,0.61,99.991
131527,153888,11709,-0.218,1.008,0.08,0.244,0.549,0.61,99.997
131521,154097,9715,-0.218,1.01,0.082,0,0.427,0.488,100.001
131521,153896,11723,-0.218,1.007,0.083,0,0.427,0.488,100.007
131530,154097,9715,-0.218,1.006,0.081,0.671,0.549,0.366,100.011
131530,153912,11720,-0.218,1.011,0.076,0.671,0.549,0.366,100.017
131523,154097,9715,-0.22,1.008,0.079,1.037,0.671,0,100.021
131523,153903,11729,-0.218,1.008,0.075,1.037,0.671,0,100.027
131547,154097,9715,-0.216,1.01,0.073,0.915,0.61,-0.061,100.031
131547,153929,11723,-0.216,1.009,0.073,0.915,0.61,-0.061,100.037
131538,154097,9715,-0.219,1.001,0.079,0.366,0.671,-0.183,100.04
131538,153898,11727,-0.223,0.995,0.083,0.366,0.671,-0.183,100.047
131535,154097,9715,-0.222,0.991,0.079,0.549,0.854,-0.122,100.05
131535,153929,11714,-0.224,0.995,0.071,0.549,0.854,-0.122,100.057
131525,154097,9715,-0.226,0.991,0.073,0.488,0.793,0,100.06
131525,153883,11707,-0.224,0.993,0.079,0.488,0.793,0,100.066
131527,154097,9715,-0.223,0.999,0.081,0.732,0.488,0.305,100.07
131527,153887,11718,-0.218,1,0.078,0.732,0.488,0.305,100.076
131536,154097,9715,-0.217,0.996,0.082,0.61,0.61,0.427,100.08
131536,153885,11716,-0.223,1.001,0.078,0.61,0.61,0.427,100.086
131528,154097,9715,-0.224,1.009,0.076,0.915,0.732,0.427,100.09
131528,153895,11717,-0.222,1.013,0.077,0.915,0.732,0.427,100.096
131526,154097,9715,-0.222,1.01,0.078,0.488,0.488,0.305,100.1
131526,153895,11712,-0.223,1.011,0.073,0.488,0.488,0.305,100.106
131516,154097,9715,-0.221,1.007,0.068,-0.793,0.244,0.549,100.11
131516,153877,11727,-0.221,0.999,0.066,-0.793,0.244,0.549,100.116
131519,154097,9715,-0.22,0.995,0.069,-1.22,0.183,0.488,100.12
131519,153861,11710,-0.22,0.994,0.072,-1.22,0.183,0.488,100.126
131516,154097,9715,-0.22,0.999,0.072,-0.61,0.122,0.549,100.13
131516,153864,11711,-0.219,1.002,0.073,-0.61,0.122,0.549,100.136
131513,154097,9715,-0.219,1.002,0.073,-0.61,0.122,0.549,100.139
131513,153857,11722,-0.22,1.002,0.074,0.671,0.061,0.549,100.146
131492,153841,9715,-0.22,1.002,0.074,0.671,0.061,0.549,100.149
131492,153854,11726,-0.225,1.012,0.083,1.159,0.122,0.366,100.156
131525,154097,9715,-0.225,1.012,0.083,1.159,0.122,0.366,100.159
131525,153875,11712,-0.221,1.007,0.081,0.549,0.122,0.305,100.165
131502,154097,9715,-0.221,1.007,0.081,0.549,0.122,0.305,100.169
131502,153888,11737,-0.221,1,0.079,-0.061,0,0.183,100.175
131526,154097,9715,-0.221,1,0.079,-0.061,0,0.183,100.179
131526,153905,11727,-0.219,0.995,0.078,-0.061,0,0.427,100.185
131518,154097,9715,-0.219,0.995,0.078,-0.061,0,0.427,100.189
131518,153883,11738,-0.219,1,0.084,0,0.244,0.61,100.195
131535,154097,9715,-0.219,1,0.084,0,0.244,0.61,100.199
131535,153904,11715,-0.22,1,0.079,0.549,0.671,0.61,100.205
131523,154097,9715,-0.22,1,0.079,0.549,0.671,0.61,100.209
131523,153900,11723,-0.218,1.007,0.076,0.732,0.61,0.549,100.215
131523,154097,9715,-0.218,1.007,0.076,0.732,0.61,0.549,100.219
131523,153868,11724,-0.219,1.01,0.075,0.122,0.244,0.549,100.225
131516,154097,9715,-0.219,1.01,0.075,0.122,0.244,0.549,100.229
131516,153876,11719,-0.219,1.003,0.078,-0.305,0.366,0.488,100.235
131529,154097,9715,-0.219,1.003,0.078,-0.305,0.366,0.488,100.238
131529,153887,11735,-0.217,1.01,0.074,-0.061,0.549,0.427,100.245
131522,154097,9715,-0.217,1.01,0.074,-0.061,0.549,0.427,100.248
131522,153887,11720,-0.218,1.004,0.075,-0.671,0.183,0.366,100.255
131515,154097,9715,-0.218,1.004,0.075,-0.671,0.183,0.366,100.258
131515,153875,11709,-0.223,1,0.073,-0.549,0.183,0.183,100.264
131488,154097,9715,-0.223,1,0.073,-0.549,0.183,0.183,100.268
131488,153877,11722,-0.219,1.004,0.076,-0.183,0.366,0.122,100.274
131495,154097,9715,-0.219,1.004,0.076,-0.183,0.366,0.122,100.278
131495,153887,11712,-0.215,1.001,0.078,0.061,0.305,0.183,100.284
131525,154097,9715,-0.218,1.001,0.079,0.061,0.305,0.183,100.288
131525,153866,11727,-0.22,1.006,0.077,0.366,0.61,0.244,100.294
131501,153841,9715,-0.222,1.009,0.077,0.366,0.61,0.244,100.298
131501,153852,11733,-0.219,1.008,0.079,0.366,0.793,0.122,100.304
131495,153841,9715,-0.22,1.006,0.081,0.366,0.793,0.122,100.308
131495,153839,11720,-0.222,0.999,0.079,-0.183,0.488,0.061,100.314
131483,153841,9715,-0.221,0.997,0.075,-0.183,0.488,0.061,100.318
131483,153837,11708,-0.221,0.997,0.067,-0.549,0.427,0.183,100.324
131448,153841,9715,-0.223,0.996,0.072,-0.549,0.427,0.183,100.328
131448,153822,11716,-0.218,0.998,0.074,-0.183,0.305,0.244,100.334
131486,153841,9715,-0.219,1.004,0.077,-0.183,0.305,0.244,100.337
131486,153822,11722,-0.222,1.007,0.073,0.122,0.244,0.244,100.344
131490,153841,9715,-0.225,1.007,0.076,0.122,0.244,0.244,100.347
131490,153840,11723,-0.222,1.005,0.078,-0.122,0.488,0.366,100.354
131498,153841,9715,-0.222,1.004,0.082,-0.122,0.488,0.366,100.357
131498,153845,11715,-0.222,1.004,0.082,-0.732,0.366,0.61,100.363
131497,153841,9715,-0.216,1.006,0.085,-0.732,0.366,0.61,100.367
131497,153840,11711,-0.216,1.001,0.083,-1.22,0.244,0.549,100.373
131498,153841,9715,-0.216,1,0.08,-1.22,0.244,0.549,100.377
131498,153822,11704,-0.22,1.003,0.079,-1.402,0.549,0.488,100.383
131488,153841,9715,-0.221,1,0.078,-1.402,0.549,0.488,100.387
131488,153835,11719,-0.22,0.999,0.077,-1.159,0.671,0.488,100.393
131482,153841,9715,-0.218,1.002,0.081,-1.159,0.671,0.488,100.397
131482,153825,11716,-0.222,1.001,0.072,-0.549,0.671,0.427,100.403
131499,153841,9715,-0.223,1.006,0.072,-0.549,0.671,0.427,100.407
131499,153831,11705,-0.222,1.01,0.069,-0.549,0.671,0.305,100.413
131480,153841,9715,-0.221,1.008,0.073,-0.549,0.671,0.305,100.417
131480,153802,11713,-0.225,1.008,0.073,-0.976,0.427,0.366,100.423
131468,153841,9715,-0.225,1.003,0.073,-0.976,0.427,0.366,100.427
131468,153810,11710,-0.221,0.993,0.071,-1.098,0.244,0.427,100.433
131486,153841,9715,-0.223,0.995,0.072,-1.098,0.244,0.427,100.436
131486,153806,11722,-0.221,1.002,0.074,-0.61,-0.122,0.427,100.443
131499,153841,9715,-0.219,1.003,0.079,-0.61,-0.122,0.427,100.446
131499,153806,11699,-0.221,1.005,0.082,0.122,-0.061,0.427,100.453
131492,153841,9715,-0.222,1.007,0.077,0.122,-0.061,0.427,100.456
131492,153802,11720,-0.221,1.009,0.075,-0.122,0.305,0.488,100.462
131484,153841,9715,-0.223,1.01,0.076,-0.122,0.305,0.488,100.466
131484,153789,11729,-0.224,1.002,0.082,-0.854,0.366,0.549,100.472
131490,153841,9715,-0.221,1.001,0.079,-0.854,0.366,0.549,100.476
131490,153829,11699,-0.219,0.997,0.078,-0.732,0,0.427,100.482
131485,153841,9715,-0.217,1.002,0.074,-0.732,0,0.427,100.486
131485,153812,11719,-0.218,1,0.074,-0.732,-0.122,0.427,100.492
131494,153841,9715,-0.22,0.999,0.069,-0.732,-0.122,0.427,100.496
131494,153807,11714,-0.222,0.998,0.076,-0.549,0.061,0.732,100.502
131463,153841,9715,-0.218,0.998,0.074,-0.549,0.061,0.732,100.506
131463,153800,11712,-0.22,0.999,0.073,-0.366,0,1.037,100.512
131476,153841,9715,-0.216,1.001,0.076,-0.366,0,1.037,100.516
131476,153783,11718,-0.218,1.008,0.08,-0.488,-0.305,1.159,100.522
131477,153841,9715,-0.218,1.007,0.083,-0.488,-0.305,1.159,100.526
131477,153788,11712,-0.222,1.001,0.088,-0.793,-0.244,0.976,100.532
131471,153841,9715,-0.22,1.004,0.082,-0.793,-0.244,0.976,100.535
131471,153789,11711,-0.222,1.005,0.082,-1.098,-0.183,0.732,100.542
131488,153841,9715,-0.22,1.003,0.083,-1.098,-0.183,0.732,100.545
131488,153797,11709,-0.222,1.007,0.083,-0.915,-0.305,0.671,100.552
131478,153841,9715,-0.219,1.008,0.08,-0.915,-0.305,0.671,100.555
131478,153775,11710,-0.218,1.005,0.078,-1.037,-0.183,0.549,100.561
131498,153841,9715,-0.223,1.006,0.083,-1.037,-0.183,0.549,100.565
131498,153791,11709,-0.223,1.004,0.082,-0.671,0.183,0.61,100.571
131457,153841,9715,-0.222,1.003,0.083,-0.671,0.183,0.61,100.575
131457,153802,11715,-0.22,1.002,0.08,-0.915,0.244,0.61,100.581
131473,153841,9715,-0.218,1.002,0.078,-0.915,0.244,0.61,100.585
131473,153777,11713,-0.216,1,0.084,-1.098,0.061,0.61,100.591
131468,153841,9715,-0.218,0.997,0.081,-1.098,0.061,0.61,100.595
131468,153780,11716,-0.219,0.997,0.077,-0.915,0.244,0.61,100.601
131466,153841,9715,-0.219,1,0.078,-0.915,0.244,0.61,100.605
131466,153779,11712,-0.222,1,0.08,-0.671,0.549,0.732,100.611
131465,153841,9715,-0.224,1.002,0.082,-0.671,0.549,0.732,100.615
131465,153783,11701,-0.22,0.998,0.086,-0.427,0.61,0.61,100.621
131461,153841,9715,-0.218,1.004,0.086,-0.427,0.61,0.61,100.625
131461,153783,11720,-0.215,1.012,0.081,-0.061,0.61,0.427,100.631
131492,153841,9715,-0.216,1.015,0.081,-0.061,0.61,0.427,100.634
131492,153800,11723,-0.215,1.014,0.086,-0.183,0.488,0.366,100.641
131493,153841,9715,-0.215,1.009,0.081,-0.183,0.488,0.366,100.644
131493,153791,11714,-0.221,1.01,0.074,-0.488,0.488,0.183,100.651
131494,153841,9715,-0.219,1.011,0.072,-0.488,0.488,0.183,100.654
131494,153817,11702,-0.218,1.006,0.076,-0.976,0.488,0,100.66
131481,153841,9715,-0.214,1.001,0.083,-0.976,0.488,0,100.664
131481,153823,11728,-0.215,0.996,0.082,-1.098,0.366,0.122,100.67
131487,153841,9715,-0.215,0.992,0.077,-1.098,0.366,0.122,100.674
131487,153827,11713,-0.218,0.99,0.076,-1.037,0.61,0.305,100.68
131469,153841,9715,-0.219,0.996,0.081,-1.037,0.61,0.305,100.684
131469,153824,11716,-0.221,0.998,0.081,-0.427,0.854,0.366,100.69
131488,153841,9715,-0.221,1.001,0.077,-0.427,0.854,0.366,100.694
131488,153799,11715,-0.223,1.002,0.075,-0.183,0.488,0.305,100.7
131466,153841,9715,-0.223,1.002,0.076,-0.183,0.488,0.305,100.704
131466,153791,11701,-0.223,1.003,0.076,-0.122,0.549,0.427,100.71
131468,153841,9715,-0.227,1.008,0.076,-0.122,0.549,0.427,100.714
131468,153767,11713,-0.224,1.005,0.078,-1.159,0.427,0.549,100.72
131458,153841,9715,-0.224,1.005,0.078,-1.159,0.427,0.549,100.724
131458,153799,11713,-0.221,1.001,0.081,-2.012,0,0.488,100.73
131478,153841,9715,-0.221,1.001,0.081,-2.012,0,0.488,100.733
131478,153797,11705,-0.219,0.998,0.079,-1.829,-0.061,0.732,100.74
131461,153841,9715,-0.219,0.998,0.079,-1.829,-0.061,0.732,100.743
131461,153790,11714,-0.22,0.997,0.08,-0.793,-0.122,0.793,100.75
131467,153841,9715,-0.22,0.997,0.08,-0.793,-0.122,0.793,100.753
131467,153801,11707,-0.216,1.006,0.081,0,-0.061,0.793,100.759
131462,153841,9715,-0.216,1.006,0.081,0,-0.061,0.793,100.763
131462,153772,11703,-0.221,1.014,0.082,0.549,0.244,0.488,100.769
131458,153841,9715,-0.221,1.014,0.082,0.549,0.244,0.488,100.773
131458,153770,11710,-0.22,1.006,0.089,0,0.183,0.305,100.779
131451,153841,9715,-0.22,1.006,0.089,0,0.183,0.305,100.783
131451,153751,11707,-0.218,1.005,0.076,-1.341,-0.244,0.244,100.789
131451,153841,9715,-0.218,1.005,0.076,-1.341,-0.244,0.244,100.793
131451,153758,11723,-0.216,0.993,0.088,-1.22,-0.305,0.244,100.799
131461,153841,9715,-0.216,0.993,0.088,-1.22,-0.305,0.244,100.803
131461,153756,11701,-0.22,1,0.082,-0.976,0.122,0.366,100.809
131455,153841,9715,-0.22,1,0.082,-0.976,0.122,0.366,100.813
131455,153772,11708,-0.221,1.006,0.082,-0.366,0.183,0.549,100.819
131483,153841,9715,-0.221,1.006,0.082,-0.366,0.183,0.549,100.823
131483,153771,11707,-0.219,0.998,0.09,0.183,0.061,0.488,100.829
131451,153841,9715,-0.219,0.998,0.09,0.183,0.061,0.488,100.832
131451,153791,11714,-0.222,1.006,0.076,0,0.366,0.549,100.839
131452,153841,9715,-0.222,1.006,0.076,0,0.366,0.549,100.842
131452,153781,11714,-0.221,1.007,0.084,-0.488,0.122,0.366,100.849
131465,153841,9715,-0.221,1.007,0.084,-0.488,0.122,0.366,100.852
131465,153786,11703,-0.219,1.001,0.076,-0.671,-0.183,0.427,100.858
131461,153841,9715,-0.219,1.001,0.076,-0.671,-0.183,0.427,100.862
131461,153786,11709,-0.219,0.995,0.079,-0.854,0,0.488,100.868
131469,153841,9715,-0.219,0.995,0.079,-0.854,0,0.488,100.872
131469,153777,11712,-0.216,0.996,0.08,-0.854,0,0.488,100.878
131464,153841,9715,-0.216,1.001,0.084,-0.305,-0.061,0.488,100.882
131464,153788,11702,-0.217,1.004,0.085,-0.305,-0.061,0.488,100.888
131461,153841,9715,-0.219,1.006,0.091,0,0,0.427,100.892
131461,153784,11713,-0.217,1.006,0.096,0,0,0.427,100.898
131454,153841,9715,-0.216,1.009,0.09,0.549,0.122,0.183,100.902
131454,153775,11708,-0.218,1.012,0.082,0.549,0.122,0.183,100.908
131459,153841,9715,-0.218,1.012,0.087,0.183,0.183,-0.305,100.912
131459,153774,11716,-0.218,1.005,0.084,0.183,0.183,-0.305,100.918
131475,153841,9715,-0.217,1.004,0.083,-0.549,0.183,-0.305,100.922
131475,153768,11694,-0.218,1.002,0.08,-0.549,0.183,-0.305,100.928
131454,153841,9715,-0.218,1.004,0.078,-0.976,0.305,-0.183,100.931
131454,153764,11709,-0.223,0.999,0.077,-0.976,0.305,-0.183,100.938
131450,153841,9715,-0.22,0.995,0.077,-0.488,0.427,-0.305,100.941
131450,153778,11708,-0.223,0.995,0.075,-0.488,0.427,-0.305,100.948
131460,153841,9715,-0.223,0.996,0.077,-0.549,0.488,0,100.951
131460,153743,11689,-0.219,0.999,0.078,-0.549,0.488,0,100.957
131438,153841,9715,-0.219,1.001,0.082,-0.671,0.244,0.366,100.961
131438,153734,11720,-0.221,0.999,0.081,-0.671,0.244,0.366,100.967
131448,153841,9715,-0.219,1,0.085,-0.305,0.305,0.305,100.971
131448,153716,11706,-0.219,1.002,0.086,-0.305,0.305,0.305,100.977
131445,153841,9715,-0.22,1.003,0.093,0.244,0.61,0.244,100.981
131445,153722,11697,-0.222,1.005,0.097,0.244,0.61,0.244,100.987
131415,153841,9715,-0.223,1.005,0.092,0.671,0.793,0.305,100.991
131415,153712,11706,-0.221,1.007,0.087,0.671,0.793,0.305,100.997
131424,153841,9715,-0.22,1.007,0.084,0.488,0.61,0,101.001
131424,153713,11691,-0.216,1.007,0.075,0.488,0.61,0,101.007
131426,153841,9715,-0.22,1.009,0.072,-0.305,0.488,-0.061,101.011
131426,153713,11698,-0.222,1.007,0.073,-0.305,0.488,-0.061,101.017
131428,153841,9715,-0.222,0.999,0.076,-1.037,0.61,0.122,101.021
131428,153718,11690,-0.225,0.995,0.073,-1.037,0.61,0.122,101.027
131436,153841,9715,-0.224,0.996,0.071,-0.732,0.244,0.061,101.03
131436,153729,11700,-0.22,0.994,0.07,-0.732,0.244,0.061,101.037
131443,153841,9715,-0.219,0.991,0.074,-0.793,-0.061,0.244,101.04
131443,153768,11699,-0.217,0.991,0.079,-0.793,-0.061,0.244,101.047
131441,153841,9715,-0.221,1.001,0.077,-0.427,0,0.488,101.05
131441,153759,11709,-0.222,1.011,0.083,-0.427,0,0.488,101.056
131428,153841,9715,-0.221,1.01,0.09,0.244,0.183,0.183,101.06
131428,153753,11691,-0.221,1.005,0.093,0.244,0.183,0.183,101.066
131450,153841,9715,-0.22,1.008,0.082,0.61,0,0.244,101.07
131450,153771,11692,-0.222,1.012,0.077,0.61,0,0.244,101.076
131453,153841,9715,-0.22,1.01,0.083,-0.122,-0.061,0.122,101.08
131453,153781,11710,-0.217,1.003,0.086,-0.122,-0.061,0.122,101.086
131463,153841,9715,-0.218,1.004,0.085,-0.549,0,0,101.09
131463,153784,11694,-0.221,1.005,0.083,-0.549,0,0,101.096
131442,153841,9715,-0.221,1.001,0.081,-0.854,0.061,0.122,101.1
131442,153773,11694,-0.221,0.995,0.088,-0.854,0.061,0.122,101.106
131455,153841,9715,-0.22,0.996,0.087,0,0.061,0.061,101.11
131455,153802,11705,-0.219,0.998,0.082,0,0.061,0.061,101.116
131455,153841,9715,-0.22,1.002,0.084,0.061,0,0.122,101.12
131455,153779,11693,-0.222,1.001,0.084,0.061,0,0.122,101.126
131455,153841,9715,-0.219,1.002,0.082,0.122,0.183,0.183,101.129
131455,153790,11727,-0.219,1.002,0.082,0.122,0.183,0.183,101.136
131438,153841,9715,-0.221,1,0.082,0,0.366,0.122,101.139
131438,153737,11701,-0.221,0.999,0.083,0,0.366,0.122,101.146
131442,153841,9715,-0.221,1,0.082,-0.244,0.061,0.244,101.149
131442,153772,11703,-0.221,1.002,0.074,-0.244,0.061,0.244,101.155
131449,153841,9715,-0.218,1.005,0.082,-0.244,0,0.366,101.159
131449,153741,11702,-0.22,1.003,0.082,-0.244,0,0.366,101.165
131446,153841,9715,-0.221,1.004,0.082,0.305,0.183,0.427,101.169
131446,153761,11690,-0.219,1.005,0.083,0.305,0.183,0.427,101.175
131451,153841,9715,-0.223,0.999,0.084,0.061,0.244,0.366,101.179
131451,153798,11701,-0.224,1.005,0.085,0.061,0.244,0.366,101.185
131488,153841,9715,-0.22,1.005,0.085,-0.061,0,0.244,101.189
131488,153793,11699,-0.218,1.005,0.079,-0.061,0,0.244,101.195
131444,153841,9715,-0.216,1.003,0.079,-0.305,-0.244,0.122,101.199
131444,153773,11696,-0.218,0.999,0.083,-0.305,-0.244,0.122,101.205
131476,153841,9715,-0.22,1,0.084,-0.427,0.122,0.366,101.209
131476,153758,11685,-0.221,1.003,0.075,-0.427,0.122,0.366,101.215
131456,153841,9715,-0.223,1.001,0.077,-0.244,0.427,0.305,101.219
131456,153743,11703,-0.22,1.001,0.092,-0.244,0.427,0.305,101.225
131450,153841,9715,-0.215,1.001,0.096,0.854,0.488,0.244,101.228
131450,153753,11695,-0.218,1.009,0.089,0.854,0.488,0.244,101.235
131417,153841,9715,-0.22,1.014,0.085,0.915,0.61,0.122,101.238
131417,153750,11694,-0.223,1.014,0.085,0.915,0.61,0.122,101.245
131453,153841,9715,-0.224,1.01,0.093,0.671,0.915,-0.183,101.248
131453,153770,11711,-0.222,1.003,0.087,0.671,0.915,-0.183,101.254
131448,153841,9715,-0.221,0.999,0.083,0.183,0.976,-0.366,101.258
131448,153761,11706,-0.221,1,0.082,0.183,0.976,-0.366,101.264
131450,153841,9715,-0.221,0.999,0.079,-0.549,0.732,-0.305,101.268
131450,153771,11703,-0.221,0.998,0.085,-0.549,0.732,-0.305,101.274
131467,153841,9715,-0.218,0.994,0.085,-0.61,0.854,-0.122,101.278
131467,153777,11705,-0.219,0.995,0.082,-0.61,0.854,-0.122,101.284
131449,153841,9715,-0.222,0.995,0.083,0,1.28,0,101.288
131449,153752,11713,-0.221,0.996,0.082,0,1.28,0,101.294
131438,153841,9715,-0.219,1.002,0.079,0.854,1.159,0.183,101.298
131438,153757,11700,-0.217,1.01,0.08,0.854,1.159,0.183,101.304
131427,153841,9715,-0.214,1.009,0.083,0.305,0.915,0.183,101.308
131427,153751,11726,-0.218,1.005,0.086,0.305,0.915,0.183,101.314
131447,153841,9715,-0.218,1.005,0.086,0.305,0.915,0.183,101.318
131447,153789,11715,-0.224,0.995,0.081,0,1.037,0.183,101.324
131450,153841,9715,-0.224,0.995,0.081,0,1.037,0.183,101.327
131450,153763,11699,-0.222,0.997,0.075,-0.366,1.159,0.244,101.334
131455,153841,9715,-0.222,0.997,0.075,-0.366,1.159,0.244,101.337
131455,153774,11697,-0.222,1.008,0.075,-0.122,0.854,0.122,101.344
131457,153841,9715,-0.222,1.008,0.075,-0.122,0.854,0.122,101.347
131457,153755,11698,-0.225,1.006,0.076,0.427,0.732,0.061,101.353
131450,153841,9715,-0.225,1.006,0.076,0.427,0.732,0.061,101.357
131450,153767,11708,-0.229,1.013,0.071,0.61,0.915,0.061,101.363
131457,153841,9715,-0.229,1.013,0.071,0.61,0.915,0.061,101.367
131457,153807,11705,-0.226,1.003,0.08,-0.244,0.549,-0.061,101.373
131447,153841,9715,-0.226,1.003,0.08,-0.244,0.549,-0.061,101.377
131447,153779,11688,-0.222,0.991,0.076,-0.488,0.122,0.122,101.383
131449,153841,9715,-0.222,0.991,0.076,-0.488,0.122,0.122,101.387
131449,153760,11711,-0.22,0.999,0.079,-0.305,0.061,0.183,101.393
131441,153841,9715,-0.22,0.999,0.079,-0.305,0.061,0.183,101.397
131441,153753,11710,-0.224,1.003,0.082,0.427,0.122,0.366,101.403
131445,153841,9715,-0.224,1.003,0.082,0.427,0.122,0.366,101.407
131445,153782,11698,-0.226,1.005,0.079,0.488,0.122,0.427,101.413
131438,153841,9715,-0.226,1.005,0.079,0.488,0.122,0.427,101.417
131438,153773,11708,-0.219,1.002,0.083,-0.183,-0.061,0.244,101.423
131442,153841,9715,-0.219,1.002,0.083,-0.183,-0.061,0.244,101.426
131442,153782,11703,-0.221,0.998,0.077,-0.976,-0.427,0.488,101.433
131451,153841,9715,-0.221,0.998,0.077,-0.976,-0.427,0.488,101.436
131451,153753,11705,-0.219,1,0.08,-1.098,-0.244,0.732,101.443
131444,153841,9715,-0.219,1,0.08,-1.098,-0.244,0.732,101.446
131444,153766,11700,-0.217,1.01,0.083,-0.244,-0.183,0.732,101.452
131438,153841,9715,-0.217,1.01,0.083,-0.244,-0.183,0.732,101.456
131438,153753,11705,-0.222,1.011,0.081,0.244,-0.183,0.671,101.462
131449,153841,9715,-0.222,1.008,0.081,0.244,-0.183,0.671,101.466
131449,153738,11702,-0.223,1.005,0.081,-0.061,0,0.61,101.472
131424,153841,9715,-0.224,1.003,0.081,-0.061,0,0.61,101.476
131424,153697,11717,-0.222,1.001,0.083,-0.671,-0.183,0.732,101.482
131435,153841,9715,-0.222,0.999,0.083,-0.671,-0.183,0.732,101.486
131435,153696,11703,-0.221,1.002,0.083,-0.488,-0.244,0.793,101.492
131424,153841,9715,-0.219,1.003,0.081,-0.488,-0.244,0.793,101.496
131424,153673,11698,-0.222,1.004,0.081,-0.061,-0.244,0.488,101.502
131437,153841,9715,-0.221,1.003,0.082,-0.061,-0.244,0.488,101.506
131437,153686,11725,-0.221,1.003,0.087,0.183,-0.244,0.61,101.512
131441,153841,9715,-0.217,1.008,0.086,0.183,-0.244,0.61,101.516
131441,153711,11713,-0.215,1.008,0.082,-0.366,-0.244,0.61,101.522
131421,153841,9715,-0.215,1.004,0.084,-0.366,-0.244,0.61,101.525
131421,153716,11714,-0.219,1.003,0.085,-0.793,-0.183,0.366,101.532
131432,153841,9715,-0.218,1.003,0.084,-0.793,-0.183,0.366,101.535
131432,153667,11698,-0.216,1,0.083,-0.854,0.122,0.427,101.542
131417,153841,9715,-0.218,0.995,0.082,-0.854,0.122,0.427,101.545
131417,153661,11706,-0.219,0.998,0.089,-0.976,0.244,0.488,101.551
131422,153841,9715,-0.215,1.001,0.087,-0.976,0.244,0.488,101.555
131422,153680,11699,-0.219,1.001,0.087,-0.366,0.366,0.366,101.561
131423,153841,9715,-0.225,1.005,0.092,-0.366,0.366,0.366,101.565
131423,153630,11703,-0.225,1.004,0.09,0.488,0.915,0.244,101.571
131429,153841,9715,-0.225,1.002,0.092,0.488,0.915,0.244,101.575
131429,153672,11697,-0.225,1,0.093,1.037,1.037,0.061,101.581
131400,153841,9715,-0.223,1.009,0.089,1.037,1.037,0.061,101.585
131400,153685,11732,-0.22,1.011,0.089,0.366,0.793,-0.183,101.591
131424,153841,9715,-0.22,1.001,0.094,0.366,0.793,-0.183,101.595
131424,153653,11709,-0.218,0.997,0.088,0.061,0.854,-0.122,101.601
131413,153841,9715,-0.224,0.998,0.075,0.061,0.854,-0.122,101.605
131413,153700,11713,-0.224,1,0.073,-0.671,1.037,0,101.611
131432,153841,9715,-0.219,0.993,0.079,-0.671,1.037,0,101.615
131432,153666,11703,-0.217,0.994,0.082,-0.183,0.854,0.122,101.621
131395,153841,9715,-0.221,0.996,0.078,-0.183,0.854,0.122,101.625
131395,153666,11704,-0.22,0.998,0.075,0.366,1.037,0.427,101.631
131418,153841,9715,-0.221,1.002,0.079,0.366,1.037,0.427,101.634
131418,153640,11690,-0.223,1.002,0.086,0.427,1.22,0.488,101.641
131395,153841,9715,-0.224,1.002,0.077,0.427,1.22,0.488,101.644
131395,153626,11710,-0.223,1.007,0.073,0.122,0.854,0.488,101.65
131423,153841,9715,-0.224,1.011,0.077,0.122,0.854,0.488,101.654
131423,153673,11708,-0.224,1.011,0.074,0,0.732,0.366,101.66
131396,153841,9715,-0.224,1.005,0.075,0,0.732,0.366,101.664
131396,153679,11709,-0.224,1.005,0.075,0.488,0.549,0.122,101.67
131408,153841,9715,-0.228,1.011,0.065,0.488,0.549,0.122,101.674
131408,153660,11709,-0.23,1.015,0.07,0.122,0.366,0.061,101.68
131415,153841,9715,-0.227,1.013,0.079,0.122,0.366,0.061,101.684
131415,153656,11703,-0.223,1.003,0.082,-0.183,0.183,0.122,101.69
131434,153841,9715,-0.223,0.995,0.078,-0.183,0.183,0.122,101.694
131434,153672,11693,-0.223,0.991,0.08,-0.488,-0.122,0.183,101.7
131420,153841,9715,-0.221,0.993,0.087,-0.488,-0.122,0.183,101.704
131420,153692,11710,-0.221,0.992,0.09,-0.427,-0.061,0.183,101.71
131438,153841,9715,-0.219,0.995,0.088,-0.427,-0.061,0.183,101.714
131438,153688,11697,-0.219,0.995,0.08,0.244,-0.061,0.122,101.72
131406,153841,9715,-0.216,1.001,0.078,0.244,-0.061,0.122,101.724
131406,153735,11711,-0.219,1.004,0.083,0.61,0.305,0.183,101.73
131413,153841,9715,-0.224,1.01,0.083,0.61,0.305,0.183,101.733
131413,153711,11713,-0.223,1.008,0.083,0.244,0.183,0.427,101.74
131417,153841,9715,-0.223,1.005,0.084,0.244,0.183,0.427,101.743
131417,153725,11686,-0.221,1.002,0.084,-0.488,0.122,0.366,101.749
131424,153841,9715,-0.221,1.003,0.08,-0.488,0.122,0.366,101.753
131424,153696,11701,-0.221,1,0.081,-0.488,0.183,0.366,101.759
131415,153841,9715,-0.219,0.998,0.082,-0.488,0.183,0.366,101.763
131415,153704,11697,-0.22,0.999,0.083,-0.488,0.183,0.549,101.769
131413,153841,9715,-0.223,1,0.084,-0.488,0.183,0.549,101.773
131413,153667,11708,-0.222,0.998,0.084,-0.305,0.366,0.671,101.779
131418,153841,9715,-0.223,0.995,0.083,-0.305,0.366,0.671,101.783
131418,153705,11712,-0.223,1.001,0.084,0.305,0.427,0.793,101.789
131409,153841,9715,-0.219,1.008,0.081,0.305,0.427,0.793,101.793
131409,153697,11719,-0.221,1.013,0.081,-0.183,0.122,0.61,101.799
131417,153841,9715,-0.222,1.009,0.08,-0.183,0.122,0.61,101.803
131417,153684,11718,-0.223,1.004,0.077,-0.671,0.305,0.427,101.809
131427,153841,9715,-0.224,1.002,0.073,-0.671,0.305,0.427,101.813
131427,153704,11716,-0.221,1,0.072,-0.854,0.488,0.427,101.819
131408,153841,9715,-0.221,0.998,0.075,-0.854,0.488,0.427,101.823
131408,153679,11709,-0.219,1.001,0.079,-0.305,0,0.61,101.829
131419,153841,9715,-0.222,1.004,0.08,-0.305,0,0.61,101.832
131419,153690,11711,-0.22,1.003,0.078,0.305,0.183,0.793,101.839
131424,153841,9715,-0.219,1.002,0.082,0.305,0.183,0.793,101.842
131424,153701,11710,-0.217,1.006,0.091,0.732,0.244,0.671,101.848
131437,153841,9715,-0.22,1.01,0.089,0.732,0.244,0.671,101.852
131437,153677,11707,-0.22,1.009,0.09,0.549,0,0.488,101.858
131433,153841,9715,-0.22,1.007,0.081,0.549,0,0.488,101.862
131433,153708,11702,-0.221,1.007,0.081,-0.366,-0.061,0.305,101.868
131435,153841,9715,-0.222,1.003,0.085,-0.366,-0.061,0.305,101.872
131435,153720,11717,-0.219,0.999,0.088,-0.915,-0.183,0.366,101.878
131416,153841,9715,-0.216,0.992,0.085,-0.915,-0.183,0.366,101.882
131416,153724,11689,-0.22,0.992,0.079,-0.671,-0.061,0.671,101.888
131441,153841,9715,-0.223,0.997,0.079,-0.671,-0.061,0.671,101.892
131441,153713,11715,-0.223,0.998,0.083,-0.366,0.427,0.793,101.898
131440,153841,9715,-0.224,0.999,0.085,-0.366,0.427,0.793,101.902
131440,153724,11713,-0.219,0.998,0.083,0.122,0.427,0.976,101.908
131435,153841,9715,-0.219,0.998,0.083,0.122,0.427,0.976,101.912
131435,153704,11713,-0.22,1.007,0.08,0.305,0.488,0.915,101.918
131430,153841,9715,-0.22,1.007,0.08,0.305,0.488,0.915,101.922
131430,153719,11705,-0.222,1.008,0.086,0.915,0.915,0.671,101.928
131431,153841,9715,-0.222,1.008,0.086,0.915,0.915,0.671,101.931
131431,153723,11703,-0.226,1.011,0.082,0.915,1.159,0.427,101.938
131418,153841,9715,-0.226,1.011,0.082,0.915,1.159,0.427,101.941
131418,153712,11713,-0.218,1.004,0.09,0.61,1.159,0.244,101.947
131431,153841,9715,-0.218,1.004,0.09,0.61,1.159,0.244,101.951
131431,153699,11706,-0.218,1.007,0.083,0.427,1.037,0,101.957
131429,153841,9715,-0.218,1.007,0.083,0.427,1.037,0,101.961
131429,153731,11704,-0.214,1.004,0.082,0.427,0.976,-0.305,101.967
131416,153841,9715,-0.214,1.004,0.082,0.427,0.976,-0.305,101.971
131416,153720,11716,-0.219,0.999,0.078,0.183,1.22,-0.183,101.977
131420,153841,9715,-0.219,0.999,0.078,0.183,1.22,-0.183,101.981
131420,153728,11707,-0.22,0.993,0.072,-0.244,1.22,0.061,101.987
131429,153841,9715,-0.22,0.993,0.072,-0.244,1.22,0.061,101.991
131429,153732,11713,-0.22,0.995,0.078,0.122,0.915,0.244,101.997
131439,153841,9715,-0.22,0.995,0.078,0.122,0.915,0.244,102.001
131439,153694,11718,-0.224,0.999,0.069,0.122,0.976,0.61,102.007
131432,153841,9715,-0.224,0.999,0.069,0.122,0.976,0.61,102.011
131432,153726,11719,-0.225,0.996,0.083,0.427,0.915,0.671,102.017
131427,153841,9715,-0.225,0.996,0.083,0.427,0.915,0.671,102.021
131427,153699,11707,-0.227,1.011,0.084,0.671,0.671,0.793,102.027
131429,153841,9715,-0.227,1.011,0.084,0.671,0.671,0.793,102.03
131429,153699,11707,-0.225,1.013,0.079,0.549,0.488,0.427,102.037
131433,153841,9715,-0.225,1.013,0.079,0.549,0.488,0.427,102.04
131433,153707,11726,-0.224,1.01,0.074,-0.183,0.183,0.305,102.047
131421,153841,9715,-0.224,1.01,0.074,-0.183,0.183,0.305,102.05
131421,153711,11700,-0.224,1.004,0.077,-0.183,0.183,0.305,102.056
131418,153841,9715,-0.222,0.994,0.075,-0.793,0.244,0.244,102.06
131418,153721,11706,-0.219,0.99,0.073,-0.793,0.244,0.244,102.066
131436,153841,9715,-0.22,0.994,0.072,-0.488,0.366,0.244,102.07
131436,153718,11722,-0.222,0.996,0.073,-0.488,0.366,0.244,102.076
131435,153841,9715,-0.22,0.997,0.076,0,0.305,0.366,102.08
131435,153711,11710,-0.22,0.996,0.073,0,0.305,0.366,102.086
131412,153841,9715,-0.222,1,0.072,0.061,0.122,0.488,102.09
131412,153709,11724,-0.22,1.002,0.078,0.061,0.122,0.488,102.096
131425,153841,9715,-0.221,1.004,0.083,-0.061,-0.122,0.854,102.1
131425,153692,11694,-0.223,1.001,0.079,-0.061,-0.122,0.854,102.106
131433,153841,9715,-0.222,0.999,0.082,-0.061,-0.183,0.915,102.11
131433,153715,11714,-0.219,0.998,0.088,-0.061,-0.183,0.915,102.116
131430,153841,9715,-0.219,1.002,0.093,-0.854,-0.061,0.976,102.12
131430,153728,11733,-0.22,1.003,0.09,-0.854,-0.061,0.976,102.126
131435,153841,9715,-0.216,1.004,0.086,-1.402,0.183,1.22,102.129
131435,153767,11730,-0.219,1.002,0.081,-1.402,0.183,1.22,102.136
131434,153841,9715,-0.22,1.004,0.08,-1.098,0.488,1.159,102.139
131434,153736,11717,-0.218,1.006,0.076,-1.098,0.488,1.159,102.146
131419,153841,9715,-0.222,1.012,0.08,-0.427,0.305,0.854,102.149
131419,153745,11724,-0.222,1.014,0.08,-0.427,0.305,0.854,102.155
131430,153841,9715,-0.221,1.011,0.078,-0.061,0.122,0.549,102.159
131430,153731,11733,-0.222,1.01,0.074,-0.061,0.122,0.549,102.165
131429,153841,9715,-0.222,1.009,0.077,-0.671,-0.061,0.366,102.169
131429,153731,11731,-0.22,1,0.08,-0.671,-0.061,0.366,102.175
131437,153841,9715,-0.218,0.995,0.084,-1.098,-0.122,0.427,102.179
131437,153699,11709,-0.218,0.995,0.083,-1.098,-0.122,0.427,102.185
131433,153841,9715,-0.218,0.992,0.083,-0.427,0,0.427,102.189
131433,153719,11721,-0.217,0.99,0.084,-0.427,0,0.427,102.195
131433,153841,9715,-0.22,0.996,0.087,0.732,0.427,0.427,102.199
131433,153694,11730,-0.222,1.002,0.085,0.732,0.427,0.427,102.205
131420,153841,9715,-0.218,1.01,0.084,1.037,0.549,0.671,102.209
131420,153715,11720,-0.217,1.016,0.086,1.037,0.549,0.671,102.215
131434,153841,9715,-0.217,1.014,0.084,1.037,0.549,0.427,102.219
131434,153690,11724,-0.217,1.009,0.079,1.037,0.549,0.427,102.225
131431,153841,9715,-0.221,1.008,0.08,0.366,0.854,0.427,102.228
131431,153712,11723,-0.219,1,0.079,0.366,0.854,0.427,102.235
131417,153841,9715,-0.218,1,0.079,-0.854,0.793,0.366,102.238
131417,153701,11722,-0.218,0.999,0.084,-0.854,0.793,0.366,102.244
131425,153841,9715,-0.215,0.991,0.083,-0.915,0.671,0.305,102.248
131425,153696,11706,-0.219,0.999,0.08,-0.915,0.671,0.305,102.254
131403,153841,9715,-0.218,1.005,0.082,-0.061,0.671,0.305,102.258
131403,153680,11713,-0.221,1.005,0.081,-0.061,0.671,0.305,102.264
131414,153841,9715,-0.222,1.003,0.082,0.854,0.915,0.305,102.268
131414,153662,11716,-0.223,1.006,0.08,0.854,0.915,0.305,102.274
131405,153841,9715,-0.222,1.01,0.081,1.159,0.976,0.183,102.278
131405,153692,11713,-0.223,1.012,0.082,1.159,0.976,0.183,102.284
131419,153841,9715,-0.224,1.012,0.087,1.28,1.098,0,102.288
131419,153646,11711,-0.224,1.008,0.087,1.28,1.098,0,102.294
131394,153841,9715,-0.222,1,0.09,0.854,1.098,0,102.298
131394,153675,11712,-0.221,0.995,0.086,0.854,1.098,0,102.304
131422,153841,9715,-0.22,0.995,0.08,0.549,0.976,0,102.308
131422,153674,11711,-0.217,0.996,0.074,0.549,0.976,0,102.314
131413,153841,9715,-0.219,0.997,0.077,0.61,0.793,0.061,102.318
131413,153688,11722,-0.217,0.997,0.076,0.61,0.793,0.061,102.324
131415,153841,9715,-0.217,0.998,0.078,0.427,0.854,0.183,102.327
131415,153670,11711,-0.219,0.999,0.077,0.427,0.854,0.183,102.334
131424,153841,9715,-0.219,1.004,0.074,-0.122,0.915,0.427,102.337
131424,153687,11717,-0.22,1.002,0.076,-0.122,0.915,0.427,102.344
131401,153841,9715,-0.218,1.002,0.072,0,0.549,0.366,102.347
131401,153691,11712,-0.221,1.007,0.066,0,0.549,0.366,102.353
131404,153841,9715,-0.221,1.007,0.068,-0.427,0.366,0.427,102.357
131404,153705,11714,-0.22,1.007,0.07,-0.427,0.366,0.427,102.363
131392,153841,9715,-0.221,1.005,0.074,-0.305,0.427,0.61,102.367
131392,153685,11712,-0.224,1.005,0.078,-0.305,0.427,0.61,102.373
131410,153841,9715,-0.222,1.007,0.081,0,0.366,0.488,102.377
131410,153689,11713,-0.222,1.005,0.079,0,0.366,0.488,102.383
131413,153841,9715,-0.224,1.003,0.082,0.366,0.366,0.305,102.387
131413,153688,11709,-0.224,1.005,0.083,0.366,0.366,0.305,102.393
131416,153841,9715,-0.219,1.004,0.088,0.549,0.427,0.305,102.397
131416,153712,11709,-0.218,1.004,0.085,0.549,0.427,0.305,102.403
131433,153841,9715,-0.218,1.005,0.083,1.037,0.366,0.183,102.407
131433,153683,11703,-0.219,1.003,0.082,1.037,0.366,0.183,102.413
131418,153841,9715,-0.222,1.001,0.081,0.793,0.488,0,102.417
131418,153733,11710,-0.22,0.998,0.079,0.793,0.488,0,102.423
131415,153841,9715,-0.219,0.999,0.076,-0.244,0.61,0,102.426
131415,153694,11720,-0.221,0.996,0.076,-0.244,0.61,0,102.433
131417,153841,9715,-0.218,0.994,0.072,-0.793,0.427,0.366,102.436
131417,153690,11706,-0.216,0.992,0.075,-0.793,0.427,0.366,102.443
131395,153841,9715,-0.217,0.994,0.075,-0.244,0.122,0.488,102.446
131395,153656,11712,-0.222,0.999,0.079,-0.244,0.122,0.488,102.452
131401,153841,9715,-0.221,1.005,0.073,0.305,0.244,0.732,102.456
131401,153645,11707,-0.223,1.01,0.073,0.305,0.244,0.732,102.462
131401,153841,9715,-0.221,1.007,0.082,0.671,0.366,0.732,102.466
131401,153657,11707,-0.221,1.008,0.083,0.671,0.366,0.732,102.472
131401,153841,9715,-0.222,1.009,0.081,0.061,0.366,0.793,102.476
131401,153655,11711,-0.223,1.005,0.08,0.061,0.366,0.793,102.482
131410,153841,9715,-0.221,1.004,0.082,-0.427,0.427,0.732,102.486
131410,153675,11718,-0.222,1.003,0.089,-0.427,0.427,0.732,102.492
131410,153841,9715,-0.22,1.001,0.079,0.305,0.488,0.427,102.496
131410,153713,11710,-0.222,1.008,0.071,0.305,0.488,0.427,102.502
131407,153841,9715,-0.222,1.008,0.071,0.305,0.488,0.427,102.506
131407,153718,11713,-0.223,1.009,0.085,0.671,0.61,0.183,102.512
131430,153841,9715,-0.223,1.009,0.085,0.671,0.61,0.183,102.516
131430,153716,11710,-0.22,1.004,0.069,0.732,0.366,0,102.522
131395,153841,9715,-0.22,1.004,0.069,0.732,0.366,0,102.525
131395,153720,11722,-0.22,1.001,0.079,0.305,0.305,0.061,102.532
131422,153841,9715,-0.22,1.001,0.079,0.305,0.305,0.061,102.535
131422,153719,11711,-0.218,0.993,0.071,0.122,0.244,0.305,102.542
131428,153841,9715,-0.218,0.993,0.071,0.122,0.244,0.305,102.545
131428,153715,11717,-0.218,0.993,0.077,0.244,0.122,0.549,102.551
131404,153841,9715,-0.218,0.993,0.077,0.244,0.122,0.549,102.555
131404,153714,11719,-0.217,1.004,0.079,0.122,0.122,0.61,102.561
131415,153841,9715,-0.217,1.004,0.079,0.122,0.122,0.61,102.565
131415,153733,11709,-0.218,1.012,0.08,-0.305,0.061,0.854,102.571
131419,153841,9715,-0.218,1.012,0.08,-0.305,0.061,0.854,102.575
131419,153725,11696,-0.22,1.004,0.086,-0.244,0.183,0.549,102.581
131420,153841,9715,-0.22,1.004,0.086,-0.244,0.183,0.549,102.585
131420,153726,11718,-0.222,1.006,0.078,0.061,0.427,0.488,102.591
131413,153841,9715,-0.222,1.006,0.078,0.061,0.427,0.488,102.595
131413,153698,11711,-0.222,1.002,0.085,-0.061,0.671,0.488,102.601
131409,153841,9715,-0.222,1.002,0.085,-0.061,0.671,0.488,102.605
131409,153691,11705,-0.223,1.005,0.077,0.427,0.671,0.549,102.611
131403,153841,9715,-0.223,1.005,0.077,0.427,0.671,0.549,102.615
131403,153708,11730,-0.222,1.007,0.078,0.549,0.854,0.305,102.621
131409,153841,9715,-0.222,1.007,0.078,0.549,0.854,0.305,102.624
131409,153719,11719,-0.22,1.005,0.073,0.793,0.793,0.061,102.631
131436,153841,9715,-0.22,1.005,0.073,0.793,0.793,0.061,102.634
131436,153721,11709,-0.22,1.004,0.074,0.61,0.732,-0.061,102.641
131422,153841,9715,-0.22,1.004,0.074,0.61,0.732,-0.061,102.644
131422,153714,11720,-0.219,1.001,0.074,0.366,0.915,-0.061,102.65
131436,153841,9715,-0.219,1.006,0.069,0.366,0.915,-0.061,102.654
131436,153729,11707,-0.215,1.008,0.071,0.061,0.732,-0.061,102.66
131428,153841,9715,-0.215,1.003,0.078,0.061,0.732,-0.061,102.664
131428,153727,11723,-0.213,1.004,0.074,-0.122,0.427,-0.061,102.67
131447,153841,9715,-0.209,1.006,0.074,-0.122,0.427,-0.061,102.674
131447,153738,11716,-0.215,1.001,0.074,-0.305,0.61,0.244,102.68
131425,153841,9715,-0.214,1.003,0.078,-0.305,0.61,0.244,102.684
131425,153748,11721,-0.212,1.005,0.073,-0.244,0.488,0.061,102.69
131433,153841,9715,-0.216,1.005,0.077,-0.244,0.488,0.061,102.694
131433,153740,11717,-0.216,1.001,0.083,0.122,0.671,0,102.7
131433,153841,9715,-0.217,1.001,0.081,0.122,0.671,0,102.704
131433,153737,11710,-0.221,0.997,0.078,0.671,0.915,0.061,102.71
131428,153841,9715,-0.224,1,0.079,0.671,0.915,0.061,102.714
131428,153707,11717,-0.224,1.005,0.084,0.976,0.854,0,102.72
131422,153841,9715,-0.224,1.005,0.084,0.976,0.854,0,102.724
131422,153717,11699,-0.227,1.006,0.08,0.793,0.732,0.061,102.73
131433,153841,9715,-0.226,1.009,0.079,0.793,0.732,0.061,102.733
131433,153697,11719,-0.223,1.007,0.082,0,0.854,-0.061,102.74
131421,153841,9715,-0.223,0.998,0.087,0,0.854,-0.061,102.743
131421,153699,11715,-0.225,0.996,0.083,-0.488,0.793,-0.061,102.749
131419,153841,9715,-0.222,0.996,0.074,-0.488,0.793,-0.061,102.753
131419,153706,11719,-0.217,0.998,0.07,-0.854,0.366,0.122,102.759
131404,153841,9715,-0.218,1,0.066,-0.854,0.366,0.122,102.763
131404,153701,11721,-0.226,1.003,0.062,-0.671,0.427,0.122,102.769
131424,153841,9715,-0.224,1.003,0.057,-0.671,0.427,0.122,102.773
131424,153702,11719,-0.219,1.001,0.06,-0.427,0.305,0.244,102.779
131419,153841,9715,-0.219,1,0.06,-0.427,0.305,0.244,102.783
131419,153706,11724,-0.22,1.004,0.066,-0.915,-0.183,0.671,102.789
131416,153841,9715,-0.219,1.001,0.072,-0.915,-0.183,0.671,102.793
131416,153731,11719,-0.22,1,0.074,-0.976,-0.488,0.61,102.799
131399,153841,9715,-0.221,0.998,0.075,-0.976,-0.488,0.61,102.803
131399,153712,11717,-0.222,1.005,0.073,-0.427,-0.488,0.61,102.809
131393,153841,9715,-0.222,1.006,0.078,-0.427,-0.488,0.61,102.813
131393,153702,11729,-0.222,1.003,0.084,0.366,-0.366,0.732,102.819
131385,153841,9715,-0.221,1.002,0.088,0.366,-0.366,0.732,102.822
131385,153678,11711,-0.222,1.011,0.086,1.22,-0.366,0.671,102.829
131398,153841,9715,-0.221,1.017,0.092,1.22,-0.366,0.671,102.832
131398,153660,11709,-0.219,1.015,0.096,0.488,-0.427,0.244,102.839
131385,153841,9715,-0.217,1.009,0.092,0.488,-0.427,0.244,102.842
131385,153678,11728,-0.22,1.005,0.086,-0.793,-0.061,0.183,102.848
131397,153841,9715,-0.22,0.999,0.085,-0.793,-0.061,0.183,102.852
131397,153682,11730,-0.218,0.99,0.087,-1.829,0.427,0.122,102.858
131409,153841,9715,-0.218,0.985,0.086,-1.829,0.427,0.122,102.862
131409,153682,11718,-0.222,0.987,0.08,-1.402,0.549,0.488,102.868
131396,153841,9715,-0.222,0.99,0.077,-1.402,0.549,0.488,102.872
131396,153672,11721,-0.222,0.992,0.078,-0.488,0.854,0.793,102.878
131398,153841,9715,-0.218,1,0.078,-0.488,0.854,0.793,102.882
131398,153702,11708,-0.216,1.004,0.083,0.427,0.854,0.732,102.888
131402,153841,9715,-0.219,1.01,0.08,0.427,0.854,0.732,102.892
131402,153693,11723,-0.222,1.017,0.076,0.427,0.854,0.732,102.898
131410,153841,9715,-0.223,1.015,0.074,0.427,0.854,0.732,102.902
131410,153703,11728,-0.222,1.015,0.072,-0.488,0.61,0.61,102.908
131390,153841,9715,-0.219,1.013,0.07,-0.488,0.61,0.61,102.912
131390,153684,11722,-0.219,1.007,0.068,-1.463,0.061,0.671,102.918
131384,153841,9715,-0.216,1.004,0.071,-1.463,0.061,0.671,102.922
131384,153680,11719,-0.216,1,0.078,-1.585,0.122,0.427,102.928
131386,153841,9715,-0.216,0.996,0.082,-1.585,0.122,0.427,102.931
131386,153679,11727,-0.219,0.997,0.078,-0.793,0.305,0.366,102.938
131406,153841,9715,-0.22,0.998,0.072,-0.793,0.305,0.366,102.941
131406,153684,11715,-0.221,1.002,0.08,-0.061,0.366,0.366,102.947
131401,153841,9715,-0.22,1.003,0.081,-0.061,0.366,0.366,102.951
