133252,152817,9715,-0.156,0.96,0.281,-0.488,0.244,0.061,325.049
133252,152713,12216,-0.142,0.969,0.269,0.122,-0.793,-0.488,325.055
133229,152817,9715,-0.142,0.969,0.269,0.122,-0.793,-0.488,325.059
133229,152738,12239,-0.149,0.972,0.259,1.707,0.549,-0.488,325.065
133234,152817,9715,-0.149,0.972,0.259,1.707,0.549,-0.488,325.068
133234,152732,12226,-0.149,0.96,0.241,2.073,1.037,-0.183,325.075
133233,152817,9715,-0.149,0.96,0.241,2.073,1.037,-0.183,325.078
133233,152752,12225,-0.14,0.985,0.247,0.854,-0.366,0.366,325.085
133257,152817,9715,-0.14,0.985,0.247,0.854,-0.366,0.366,325.088
133257,152716,12221,-0.152,0.988,0.257,-0.671,-0.305,1.037,325.094
133222,152817,9715,-0.152,0.988,0.257,-0.671,-0.305,1.037,325.098
133222,152694,12229,-0.162,0.997,0.283,-0.183,-0.183,1.159,325.104
133243,152817,9715,-0.162,0.997,0.283,-0.183,-0.183,1.159,325.108
133243,152654,12235,-0.168,1.007,0.309,0.427,-0.061,0.854,325.114
133221,152817,9715,-0.168,1.007,0.309,0.427,-0.061,0.854,325.118
133221,152634,12236,-0.162,0.996,0.311,0.366,0.61,0.366,325.124
133211,152817,9715,-0.162,0.996,0.311,0.366,0.61,0.366,325.128
133211,152609,12235,-0.15,0.967,0.281,-0.549,0.122,-0.244,325.134
133214,152817,9715,-0.15,0.967,0.281,-0.549,0.122,-0.244,325.138
133214,152585,12233,-0.143,0.963,0.259,0.122,-0.854,-0.732,325.144
133179,152561,9715,-0.143,0.963,0.259,0.122,-0.854,-0.732,325.148
133179,152536,12256,-0.146,0.97,0.264,1.829,0.671,-0.854,325.154
133167,152561,9715,-0.15,0.97,0.259,1.829,0.671,-0.854,325.158
133167,152539,12236,-0.156,0.969,0.259,2.805,2.012,-0.488,325.164
133167,152561,9715,-0.157,0.98,0.257,2.805,2.012,-0.488,325.167
133167,152524,12252,-0.149,0.99,0.258,1.951,0.915,-0.061,325.174
133170,152561,9715,-0.148,0.991,0.254,1.951,0.915,-0.061,325.177
133170,152495,12242,-0.153,0.992,0.257,-0.244,-0.183,0.488,325.184
133169,152561,9715,-0.154,0.998,0.269,-0.244,-0.183,0.488,325.187
133169,152473,12247,-0.156,0.997,0.274,-2.256,-0.366,0.976,325.193
133165,152561,9715,-0.16,0.996,0.28,-2.256,-0.366,0.976,325.197
133165,152439,12236,-0.161,0.992,0.289,-2.5,-0.183,0.915,325.203
133145,152561,9715,-0.164,0.98,0.289,-2.5,-0.183,0.915,325.207
133145,152419,12252,-0.161,0.976,0.283,-0.976,-0.122,0.427,325.213
133154,152561,9715,-0.156,0.981,0.28,-0.976,-0.122,0.427,325.217
133154,152404,12239,-0.148,0.987,0.274,0,-0.122,-0.061,325.223
133124,152561,9715,-0.149,0.988,0.278,0,-0.122,-0.061,325.227
133124,152393,12254,-0.154,0.982,0.281,0.427,0.915,-0.488,325.233
133127,152561,9715,-0.161,0.968,0.281,0.427,0.915,-0.488,325.237
133127,152372,12227,-0.166,0.958,0.275,0.244,1.341,0.122,325.243
133106,152305,9715,-0.155,0.96,0.267,0.244,1.341,0.122,325.247
133106,152318,12264,-0.144,0.967,0.261,0,0.366,0.305,325.253
133111,152305,9715,-0.139,0.968,0.261,0,0.366,0.305,325.257
133111,152296,12268,-0.146,0.971,0.26,0.427,0.61,0.671,325.263
133133,152305,9715,-0.153,0.974,0.265,0.427,0.61,0.671,325.266
133133,152294,12268,-0.158,0.982,0.273,0.854,0.915,0.915,325.273
133099,152305,9715,-0.157,0.992,0.285,0.854,0.915,0.915,325.276
133099,152306,12267,-0.157,1,0.302,0.427,0.915,0.671,325.283
133114,152305,9715,-0.161,1.004,0.301,0.427,0.915,0.671,325.286
133114,152294,12245,-0.163,1.002,0.287,0.915,0.732,0.305,325.292
133124,152305,9715,-0.151,1.007,0.276,0.915,0.732,0.305,325.296
133124,152311,12264,-0.143,1.01,0.265,0.244,-0.427,-0.427,325.302
133132,152305,9715,-0.15,0.993,0.248,0.244,-0.427,-0.427,325.306
133132,152308,12264,-0.156,0.975,0.25,-0.549,-0.61,-0.305,325.312
133131,152305,9715,-0.158,0.968,0.26,-0.549,-0.61,-0.305,325.316
133131,152312,12267,-0.161,0.961,0.263,-0.427,0.305,0,325.322
133144,152305,9715,-0.159,0.967,0.263,-0.427,0.305,0,325.326
133144,152276,12263,-0.151,0.972,0.27,1.037,0.671,0,325.332
133116,152305,9715,-0.148,0.979,0.266,1.037,0.671,0,325.336
133116,152254,12275,-0.154,0.978,0.265,1.585,1.159,0.305,325.342
133107,152305,9715,-0.159,0.976,0.278,1.585,1.159,0.305,325.346
133107,152212,12273,-0.157,0.974,0.283,0.671,1.037,0.732,325.352
133096,152305,9715,-0.154,0.977,0.288,0.671,1.037,0.732,325.356
133096,152157,12276,-0.153,0.976,0.279,0.366,0.61,0.671,325.362
133097,152305,9715,-0.15,0.985,0.28,0.366,0.61,0.671,325.365
133097,152147,12267,-0.152,0.997,0.28,0.793,0.915,0.61,325.372
133099,152305,9715,-0.153,0.997,0.279,0.793,0.915,0.61,325.375
133099,152162,12282,-0.155,0.994,0.273,1.098,0.854,0.244,325.382
133114,152305,9715,-0.153,0.991,0.263,1.098,0.854,0.244,325.385
133114,152166,12269,-0.151,0.991,0.258,0.671,0.183,-0.122,325.391
133086,152305,9715,-0.151,0.989,0.256,0.671,0.183,-0.122,325.395
133086,152192,12271,-0.153,0.98,0.254,-0.427,-0.061,0.122,325.401
133092,152305,9715,-0.158,0.971,0.256,-0.427,-0.061,0.122,325.405
133092,152177,12271,-0.16,0.966,0.258,-0.671,-0.305,0.244,325.411
133081,152305,9715,-0.155,0.973,0.264,-0.671,-0.305,0.244,325.415
133081,152157,12283,-0.15,0.987,0.27,-0.122,-0.122,0.427,325.421
133083,152305,9715,-0.151,0.986,0.269,-0.122,-0.122,0.427,325.425
133083,152099,12272,-0.155,0.989,0.271,0.488,0.488,0.305,325.431
133046,152305,9715,-0.161,0.988,0.275,0.488,0.488,0.305,325.435
133046,152108,12272,-0.162,0.989,0.287,-0.305,0.244,0.549,325.441
133045,152049,9715,-0.162,0.984,0.291,-0.305,0.244,0.549,325.445
133045,152063,12260,-0.153,0.979,0.287,-1.159,-0.061,0.793,325.451
133037,152305,9715,-0.15,0.986,0.294,-1.159,-0.061,0.793,325.455
133037,152081,12275,-0.152,0.99,0.299,-1.28,0.366,0.549,325.461
133028,152305,9715,-0.15,0.987,0.301,-1.28,0.366,0.549,325.464
133028,152066,12271,-0.149,0.98,0.294,-1.402,0.854,-0.122,325.471
133021,152049,9715,-0.149,0.977,0.28,-1.402,0.854,-0.122,325.474
133021,152048,12276,-0.152,0.972,0.262,-1.402,0.732,-0.305,325.481
133024,152049,9715,-0.149,0.972,0.25,-1.402,0.732,-0.305,325.484
133024,152039,12265,-0.142,0.975,0.248,-1.463,0,-0.183,325.49
133010,152049,9715,-0.144,0.974,0.243,-1.463,0,-0.183,325.494
133010,152033,12295,-0.152,0.979,0.24,-0.854,-0.061,-0.122,325.5
133020,152049,9715,-0.161,0.982,0.246,-0.854,-0.061,-0.122,325.504
133020,152007,12270,-0.162,0.987,0.252,-0.183,0.488,-0.061,325.51
132994,152049,9715,-0.168,0.988,0.254,-0.183,0.488,-0.061,325.514
132994,151966,12285,-0.166,0.989,0.258,-0.793,-0.061,0.244,325.52
132998,152049,9715,-0.158,0.986,0.269,-0.793,-0.061,0.244,325.524
132998,151985,12309,-0.161,0.984,0.279,-1.707,-0.793,0.366,325.53
133007,152049,9715,-0.161,0.979,0.297,-1.707,-0.793,0.366,325.534
133007,151978,12272,-0.161,0.982,0.31,-1.646,0.061,0.61,325.54
133003,152049,9715,-0.165,0.982,0.312,-1.646,0.061,0.61,325.544
133003,151971,12291,-0.168,0.982,0.305,-0.305,1.159,0.122,325.55
132999,152049,9715,-0.158,0.983,0.282,-0.305,1.159,0.122,325.554
132999,151974,12284,-0.145,0.981,0.266,0.061,-0.122,-0.427,325.56
133009,152049,9715,-0.14,0.979,0.259,0.061,-0.122,-0.427,325.563
133009,151998,12282,-0.137,0.975,0.252,-0.549,-0.366,-0.122,325.57
132984,152049,9715,-0.144,0.969,0.253,-0.549,-0.366,-0.122,325.573
132984,151970,12287,-0.151,0.966,0.25,-0.61,0.61,0.427,325.58
132981,152049,9715,-0.151,0.97,0.252,-0.61,0.61,0.427,325.583
132981,151914,12296,-0.145,0.985,0.26,-0.122,0.061,0.366,325.589
132980,152049,9715,-0.145,0.985,0.26,-0.122,0.061,0.366,325.593
132980,151904,12298,-0.15,1.003,0.273,0.061,0.061,0.183,325.599
132968,152049,9715,-0.15,1.003,0.273,0.061,0.061,0.183,325.603
132968,151899,12283,-0.17,0.984,0.292,-0.244,0.732,0.427,325.609
132974,152049,9715,-0.17,0.984,0.292,-0.244,0.732,0.427,325.613
132974,151899,12290,-0.168,0.973,0.292,-0.854,-0.183,0.61,325.619
132968,152049,9715,-0.168,0.973,0.292,-0.854,-0.183,0.61,325.623
132968,151914,12294,-0.155,0.979,0.288,-0.61,-0.122,0.305,325.629
132974,152049,9715,-0.155,0.979,0.288,-0.61,-0.122,0.305,325.633
132974,151913,12288,-0.16,0.973,0.274,0.488,1.341,0.305,325.639
132978,152049,9715,-0.16,0.973,0.274,0.488,1.341,0.305,325.643
132978,151947,12284,-0.153,0.977,0.263,0.488,1.463,0.305,325.649
132979,152049,9715,-0.153,0.977,0.263,0.488,1.463,0.305,325.653
132979,151949,12286,-0.156,0.97,0.254,0.305,0.793,0.488,325.659
132958,152049,9715,-0.156,0.97,0.254,0.305,0.793,0.488,325.662
132958,151917,12288,-0.152,0.985,0.272,0.122,0.732,1.159,325.669
132964,152049,9715,-0.152,0.985,0.272,0.122,0.732,1.159,325.672
132964,151932,12288,-0.159,0.988,0.274,0.854,0.854,0.671,325.679
132951,152049,9715,-0.159,0.988,0.274,0.854,0.854,0.671,325.682
132951,151897,12292,-0.152,0.999,0.271,0.854,0.061,0.305,325.688
132949,152049,9715,-0.152,0.999,0.271,0.854,0.061,0.305,325.692
132949,151905,12294,-0.15,0.995,0.278,-0.244,-0.366,0.122,325.698
132984,152049,9715,-0.15,0.995,0.278,-0.244,-0.366,0.122,325.702
132984,151896,12287,-0.159,0.981,0.281,-0.183,0.122,0.305,325.708
132957,152049,9715,-0.159,0.981,0.281,-0.183,0.122,0.305,325.712
132957,151899,12303,-0.152,0.978,0.272,0.305,0.122,-0.061,325.718
132968,152049,9715,-0.152,0.978,0.272,0.305,0.122,-0.061,325.722
132968,151915,12289,-0.149,0.976,0.271,0.915,0.732,-0.122,325.728
132986,152049,9715,-0.149,0.976,0.271,0.915,0.732,-0.122,325.732
132986,151956,12290,-0.154,0.972,0.266,0.915,0.732,-0.122,325.738
133004,152049,9715,-0.155,0.973,0.267,1.159,1.341,0.244,325.742
133004,151929,12295,-0.154,0.97,0.266,1.159,1.341,0.244,325.748
133010,152049,9715,-0.151,0.976,0.266,0.366,0.976,0.488,325.752
133010,151956,12298,-0.152,0.982,0.265,0.366,0.976,0.488,325.758
133006,152049,9715,-0.153,0.982,0.272,0,1.037,0.793,325.761
133006,151948,12300,-0.16,0.983,0.278,0,1.037,0.793,325.768
133027,152049,9715,-0.162,0.985,0.284,-0.427,1.22,1.159,325.771
133027,151917,12287,-0.16,0.985,0.294,-0.427,1.22,1.159,325.778
133009,152049,9715,-0.161,0.987,0.295,-0.122,0.976,0.793,325.781
133009,151940,12310,-0.155,0.99,0.282,-0.122,0.976,0.793,325.787
133018,152049,9715,-0.148,0.997,0.271,0.732,0.549,0,325.791
133018,151900,12296,-0.149,1,0.269,0.732,0.549,0,325.797
132998,152049,9715,-0.156,0.992,0.268,0.244,1.037,-0.122,325.801
132998,151936,12287,-0.164,0.976,0.261,0.244,1.037,-0.122,325.807
133014,152049,9715,-0.164,0.972,0.255,-0.244,0.915,-0.122,325.811
133014,151959,12307,-0.153,0.971,0.251,-0.244,0.915,-0.122,325.817
133038,152049,9715,-0.148,0.974,0.248,-0.793,0,-0.061,325.821
133038,151974,12278,-0.149,0.979,0.251,-0.793,0,-0.061,325.827
133045,152049,9715,-0.155,0.976,0.257,-0.549,0.427,0.305,325.831
133045,151992,12284,-0.16,0.976,0.269,-0.549,0.427,0.305,325.837
133025,152049,9715,-0.159,0.984,0.274,-0.183,0.793,0.671,325.841
133025,151952,12288,-0.161,0.987,0.276,-0.183,0.793,0.671,325.847
133021,152049,9715,-0.159,0.986,0.285,-0.671,0.488,0.244,325.851
133021,151982,12296,-0.157,0.99,0.301,-0.671,0.488,0.244,325.857
133026,152049,9715,-0.162,0.988,0.304,-0.427,0.854,0.244,325.86
133026,151982,12308,-0.161,0.981,0.301,-0.427,0.854,0.244,325.867
133045,152049,9715,-0.158,0.981,0.291,-0.122,0.671,-0.061,325.87
133045,151985,12284,-0.152,0.975,0.27,-0.122,0.671,-0.061,325.877
133041,152049,9715,-0.148,0.973,0.266,-0.427,-0.244,-0.671,325.88
133041,152002,12285,-0.151,0.969,0.271,-0.427,-0.244,-0.671,325.886
133041,152049,9715,-0.155,0.966,0.267,0.122,0.61,-0.244,325.89
133041,152015,12309,-0.16,0.968,0.271,0.122,0.61,-0.244,325.896
133036,152049,9715,-0.155,0.977,0.27,0.488,1.524,0.061,325.9
133036,152005,12286,-0.153,0.984,0.265,0.488,1.524,0.061,325.906
133068,152049,9715,-0.152,0.984,0.253,0.305,0.854,0,325.91
133068,152040,12296,-0.153,0.981,0.256,0.305,0.854,0,325.916
133049,152049,9715,-0.154,0.984,0.263,0,0.305,0.183,325.92
133049,152002,12304,-0.158,0.985,0.266,0,0.305,0.183,325.926
133041,152049,9715,-0.158,0.982,0.264,-0.305,0.61,0.183,325.93
133041,151990,12287,-0.156,0.979,0.264,-0.305,0.61,0.183,325.936
133045,152049,9715,-0.161,0.981,0.27,0.427,0.305,-0.122,325.94
133045,151985,12305,-0.164,0.983,0.275,0.427,0.305,-0.122,325.946
133051,152049,9715,-0.163,0.984,0.274,1.585,0.488,0.061,325.95
133051,152036,12291,-0.154,0.988,0.266,1.585,0.488,0.061,325.956
133057,152049,9715,-0.151,0.994,0.267,2.073,0.732,-0.488,325.96
133057,152033,12284,-0.154,0.998,0.268,2.073,0.732,-0.488,325.966
133047,152049,9715,-0.156,0.995,0.266,1.159,0.793,-0.549,325.969
133047,152033,12303,-0.16,0.982,0.272,1.159,0.793,-0.549,325.976
133079,152049,9715,-0.159,0.973,0.274,-0.122,0.183,-0.183,325.979
133079,152034,12287,-0.153,0.974,0.271,-0.122,0.183,-0.183,325.985
133070,152049,9715,-0.15,0.981,0.265,-0.122,-0.305,-0.122,325.989
133070,152011,12293,-0.148,0.983,0.253,-0.122,-0.305,-0.122,325.995
133052,152049,9715,-0.149,0.985,0.248,0.61,-0.732,0,325.999
133052,152013,12298,-0.149,0.992,0.26,0.61,-0.732,0,326.005
133053,152049,9715,-0.155,0.993,0.268,-0.122,-0.671,0.793,326.009
133053,152008,12290,-0.167,0.978,0.273,-0.122,-0.671,0.793,326.015
133046,152049,9715,-0.169,0.97,0.271,-1.159,-0.244,1.524,326.019
133046,152039,12290,-0.164,0.972,0.281,-1.159,-0.244,1.524,326.025
133075,152049,9715,-0.153,0.977,0.288,-0.366,-0.549,1.098,326.029
133075,152026,12297,-0.151,0.985,0.295,-0.366,-0.549,1.098,326.035
133059,152305,9715,-0.155,0.993,0.291,1.524,0.366,0.915,326.039
133059,152065,12292,-0.156,0.995,0.288,1.524,0.366,0.915,326.045
133078,152305,9715,-0.154,0.992,0.294,0.976,1.28,0.61,326.049
133078,152084,12290,-0.152,0.985,0.293,0.976,1.28,0.61,326.055
133085,152305,9715,-0.154,0.969,0.282,-0.305,1.159,0.366,326.058
133085,152093,12295,-0.151,0.965,0.274,-0.305,1.159,0.366,326.065
133067,152305,9715,-0.143,0.969,0.261,0.366,0.854,0.549,326.068
133067,152094,12290,-0.138,0.971,0.258,0.366,0.854,0.549,326.075
133067,152305,9715,-0.146,0.978,0.255,1.402,1.402,0.061,326.078
133067,152080,12292,-0.156,0.991,0.255,1.402,1.402,0.061,326.084
133078,152305,9715,-0.162,0.993,0.254,1.28,1.585,-0.122,326.088
133078,152078,12284,-0.163,0.985,0.257,1.28,1.585,-0.122,326.094
133085,152305,9715,-0.161,0.983,0.256,-0.061,0.366,0.366,326.098
133085,152082,12297,-0.158,0.987,0.266,-0.061,0.366,0.366,326.104
133083,152305,9715,-0.162,0.986,0.272,-1.037,-0.244,0.854,326.108
133083,152104,12296,-0.16,0.985,0.272,-1.037,-0.244,0.854,326.114
133103,152305,9715,-0.164,0.981,0.275,-0.305,0.244,0.549,326.118
133103,152133,12281,-0.167,0.982,0.275,-0.305,0.244,0.549,326.124
133094,152305,9715,-0.161,0.986,0.278,0.244,0.671,0.427,326.128
133094,152152,12296,-0.156,0.989,0.287,0.244,0.671,0.427,326.134
133077,152305,9715,-0.156,0.985,0.291,-0.061,0.976,0.305,326.138
133077,152151,12286,-0.157,0.98,0.284,-0.061,0.976,0.305,326.144
133093,152305,9715,-0.155,0.979,0.269,-0.244,0.61,0.488,326.148
133093,152165,12292,-0.147,0.978,0.258,-0.244,0.61,0.488,326.154
133107,152305,9715,-0.146,0.972,0.253,-0.915,0,0.732,326.158
133107,152120,12296,-0.149,0.972,0.255,-0.915,0,0.732,326.164
133099,152305,9715,-0.151,0.976,0.26,-0.793,0.244,0.671,326.167
133099,152130,12282,-0.152,0.986,0.262,-0.793,0.244,0.671,326.174
133104,152305,9715,-0.154,0.997,0.265,-0.427,0.61,0.854,326.177
133104,152132,12300,-0.151,0.997,0.273,-0.427,0.61,0.854,326.183
133106,152305,9715,-0.151,0.997,0.273,-0.427,0.61,0.854,326.187
133106,152142,12295,-0.158,0.992,0.277,-0.854,0.488,0.732,326.193
133089,152305,9715,-0.158,0.992,0.277,-0.854,0.488,0.732,326.197
133089,152176,12292,-0.163,0.976,0.283,-1.463,0.122,0.427,326.203
133078,152305,9715,-0.163,0.976,0.283,-1.463,0.122,0.427,326.207
133078,152178,12279,-0.155,0.978,0.279,-1.22,-0.183,0,326.213
133078,152305,9715,-0.155,0.978,0.279,-1.22,-0.183,0,326.217
133078,152157,12284,-0.156,0.975,0.283,-0.549,0.366,-0.427,326.223
133066,152305,9715,-0.156,0.975,0.283,-0.549,0.366,-0.427,326.227
133066,152231,12287,-0.156,0.967,0.257,-0.244,0.915,-0.244,326.233
133065,152305,9715,-0.156,0.967,0.257,-0.244,0.915,-0.244,326.237
133065,152185,12281,-0.148,0.971,0.242,-0.671,0.061,0.061,326.243
133053,152305,9715,-0.148,0.971,0.242,-0.671,0.061,0.061,326.247
133053,152203,12286,-0.149,0.991,0.255,-0.61,-0.244,0.427,326.253
133048,152305,9715,-0.149,0.991,0.255,-0.61,-0.244,0.427,326.256
133048,152208,12283,-0.155,0.995,0.271,-0.488,0.732,0.549,326.263
133054,152305,9715,-0.155,0.995,0.271,-0.488,0.732,0.549,326.266
133054,152187,12285,-0.159,0.995,0.289,-0.549,0.427,0.671,326.273
133062,152305,9715,-0.159,0.995,0.289,-0.549,0.427,0.671,326.276
133062,152145,12281,-0.153,0.998,0.288,-0.061,0.061,0.427,326.282
133042,152305,9715,-0.153,0.998,0.288,-0.061,0.061,0.427,326.286
133042,152106,12286,-0.159,0.985,0.283,0.793,0.549,-0.61,326.292
133041,152305,9715,-0.159,0.985,0.283,0.793,0.549,-0.61,326.296
133041,152108,12290,-0.155,0.967,0.271,0.915,0.793,-0.976,326.302
133062,152305,9715,-0.155,0.967,0.271,0.915,0.793,-0.976,326.306
133062,152068,12277,-0.152,0.951,0.256,0.549,0.183,-0.732,326.312
133041,152049,9715,-0.152,0.951,0.256,0.549,0.183,-0.732,326.316
133041,152031,12298,-0.151,0.967,0.258,1.22,0.305,-0.305,326.322
133036,152049,9715,-0.151,0.967,0.258,1.22,0.305,-0.305,326.326
133036,152027,12288,-0.151,0.98,0.263,2.012,1.037,0.244,326.332
133044,152049,9715,-0.157,0.995,0.262,2.012,1.037,0.244,326.336
133044,152032,12293,-0.16,1.002,0.266,1.341,0.854,0.549,326.342
133037,152049,9715,-0.158,1.005,0.269,1.341,0.854,0.549,326.346
133037,152019,12282,-0.163,1.002,0.277,-0.305,0.183,1.28,326.352
133031,152049,9715,-0.165,0.999,0.286,-0.305,0.183,1.28,326.355
133031,152006,12296,-0.161,0.987,0.293,-1.707,-0.183,1.707,326.362
133019,152049,9715,-0.154,0.977,0.292,-1.707,-0.183,1.707,326.365
133019,151988,12304,-0.149,0.974,0.287,-0.61,-0.488,0.732,326.372
133012,152049,9715,-0.146,0.983,0.286,-0.61,-0.488,0.732,326.375
133012,151978,12308,-0.153,0.989,0.291,1.707,0.976,0.305,326.381
133053,152049,9715,-0.157,0.986,0.289,1.707,0.976,0.305,326.385
133053,152023,12282,-0.155,0.975,0.278,2.866,1.89,-0.061,326.391
133031,152049,9715,-0.154,0.975,0.269,2.866,1.89,-0.061,326.395
133031,151996,12298,-0.151,0.973,0.252,2.195,1.037,-0.366,326.401
133009,152049,9715,-0.149,0.967,0.244,2.195,1.037,-0.366,326.405
133009,152014,12288,-0.146,0.96,0.244,1.098,0.671,0.366,326.411
133033,152049,9715,-0.15,0.97,0.245,1.098,0.671,0.366,326.415
133033,152023,12288,-0.152,0.978,0.247,0.427,0.854,0.915,326.421
133032,152049,9715,-0.153,0.99,0.252,0.427,0.854,0.915,326.425
133032,152012,12298,-0.154,0.996,0.254,0.488,0.915,0.915,326.431
133045,152049,9715,-0.154,1.005,0.269,0.488,0.915,0.915,326.435
133045,152042,12296,-0.159,1.01,0.279,0.183,0.732,0.793,326.441
133064,152049,9715,-0.162,1.009,0.284,0.183,0.732,0.793,326.445
133064,152006,12277,-0.165,1.001,0.292,-0.244,0.732,0.427,326.451
133043,152049,9715,-0.164,0.992,0.295,-0.244,0.732,0.427,326.454
133043,152007,12279,-0.162,0.989,0.294,0.305,0.732,-0.122,326.461
133059,152049,9715,-0.157,0.982,0.278,0.305,0.732,-0.122,326.464
133059,152035,12288,-0.157,0.968,0.265,0.61,0.427,-0.61,326.471
133047,152049,9715,-0.153,0.963,0.265,0.61,0.427,-0.61,326.474
133047,152056,12289,-0.154,0.957,0.263,1.28,0.671,-0.671,326.48
133042,152305,9715,-0.157,0.951,0.261,1.28,0.671,-0.671,326.484
133042,152066,12287,-0.156,0.95,0.259,2.195,1.402,0.061,326.49
133037,152049,9715,-0.155,0.958,0.249,2.195,1.402,0.061,326.494
133037,152049,12312,-0.153,0.975,0.246,2.073,1.037,0.732,326.5
133041,152049,9715,-0.146,0.991,0.257,2.073,1.037,0.732,326.504
133041,152033,12287,-0.152,0.997,0.255,0.366,0.732,1.28,326.51
133023,152049,9715,-0.158,0.996,0.264,0.366,0.732,1.28,326.514
133023,152013,12295,-0.154,1,0.269,-0.61,0.305,1.585,326.52
133013,152049,9715,-0.154,1.002,0.275,-0.61,0.305,1.585,326.524
133013,151998,12288,-0.157,1.009,0.28,-0.854,0.366,1.768,326.53
132990,152049,9715,-0.162,1.009,0.284,-0.854,0.366,1.768,326.534
132990,152032,12287,-0.157,1.006,0.283,-0.366,0.427,0.854,326.54
133018,152049,9715,-0.156,1.001,0.275,-0.366,0.427,0.854,326.544
133018,152054,12280,-0.16,0.991,0.273,0.061,0.061,-0.183,326.55
132992,152305,9715,-0.161,0.983,0.27,0.061,0.061,-0.183,326.553
132992,152076,12278,-0.158,0.97,0.263,0.122,0.244,-0.427,326.56
132982,152305,9715,-0.153,0.96,0.263,0.122,0.244,-0.427,326.563
132982,152095,12279,-0.151,0.959,0.264,1.098,0.488,-0.793,326.57
132982,152305,9715,-0.156,0.96,0.268,1.098,0.488,-0.793,326.573
132982,152106,12271,-0.161,0.959,0.259,1.89,1.159,-0.305,326.579
132985,152305,9715,-0.162,0.958,0.257,1.89,1.159,-0.305,326.583
132985,152151,12276,-0.156,0.96,0.251,1.22,0.61,0.366,326.589
132982,152305,9715,-0.152,0.968,0.255,1.22,0.61,0.366,326.593
132982,152161,12281,-0.152,0.979,0.257,-0.122,0,1.037,326.599
132975,152305,9715,-0.153,0.984,0.264,-0.122,0,1.037,326.603
132975,152161,12290,-0.157,0.988,0.268,-0.549,0.122,1.341,326.609
132965,152305,9715,-0.158,1.003,0.277,-0.549,0.122,1.341,326.613
132965,152148,12252,-0.157,1.01,0.283,-0.793,0.488,1.037,326.619
132966,152305,9715,-0.157,1.007,0.29,-0.793,0.488,1.037,326.623
132966,152142,12268,-0.161,0.997,0.288,-0.549,0.488,0.366,326.629
132957,152305,9715,-0.153,0.99,0.282,-0.549,0.488,0.366,326.633
132957,152163,12275,-0.147,0.986,0.279,0.122,0.244,-0.305,326.639
132969,152305,9715,-0.146,0.981,0.277,0.122,0.244,-0.305,326.643
132969,152144,12264,-0.154,0.973,0.262,0.854,1.159,-0.793,326.649
132954,152305,9715,-0.158,0.974,0.255,0.854,1.159,-0.793,326.653
132954,152176,12256,-0.153,0.974,0.256,1.646,1.524,-0.732,326.659
132950,152305,9715,-0.151,0.973,0.249,1.646,1.524,-0.732,326.662
132950,152135,12264,-0.158,0.967,0.251,1.28,1.159,-0.427,326.669
132936,152305,9715,-0.159,0.968,0.247,1.28,1.159,-0.427,326.672
132936,152110,12267,-0.161,0.976,0.249,0.671,0.915,0.305,326.678
132940,152305,9715,-0.161,0.979,0.257,0.671,0.915,0.305,326.682
132940,152097,12275,-0.158,0.986,0.26,0.488,0.61,0.61,326.688
132943,152305,9715,-0.157,0.993,0.268,0.488,0.61,0.61,326.692
132943,152082,12276,-0.161,0.993,0.277,0.427,0.793,0.671,326.698
132930,152305,9715,-0.167,0.994,0.281,0.427,0.793,0.671,326.702
132930,152095,12267,-0.171,0.991,0.286,0.366,0.915,0.61,326.708
132925,152305,9715,-0.167,0.993,0.273,0.366,0.915,0.61,326.712
132925,152087,12257,-0.16,0.993,0.265,0.427,-0.061,0.122,326.718
132928,152305,9715,-0.149,0.992,0.269,0.427,-0.061,0.122,326.722
132928,152093,12262,-0.145,0.996,0.265,0.61,-0.488,-0.305,326.728
132944,152305,9715,-0.151,0.987,0.262,0.61,-0.488,-0.305,326.732
132944,152132,12258,-0.16,0.977,0.265,0,0.305,-0.183,326.738
132921,152305,9715,-0.159,0.968,0.268,0,0.305,-0.183,326.742
132921,152107,12265,-0.154,0.967,0.268,-0.61,0.122,0.244,326.748
132944,152305,9715,-0.151,0.968,0.265,-0.61,0.122,0.244,326.751
132944,152113,12259,-0.151,0.975,0.255,-0.122,0,0.305,326.758
132925,152305,9715,-0.149,0.985,0.252,-0.122,0,0.305,326.761
132925,152076,12279,-0.151,0.992,0.258,0.671,-0.061,0.366,326.768
132915,152049,9715,-0.153,0.989,0.26,0.671,-0.061,0.366,326.771
132915,152062,12270,-0.159,0.988,0.26,0.061,-0.061,0.732,326.777
132899,152305,9715,-0.159,0.988,0.26,0.061,-0.061,0.732,326.781
132899,152068,12272,-0.159,0.991,0.282,-0.549,0.061,0.732,326.787
132888,152305,9715,-0.159,0.991,0.282,-0.549,0.061,0.732,326.791
132888,152075,12268,-0.156,0.987,0.275,0.122,0.305,0.427,326.797
132912,152305,9715,-0.156,0.987,0.275,0.122,0.305,0.427,326.801
132912,152093,12252,-0.155,0.989,0.279,0.732,0.976,0.061,326.807
132906,152305,9715,-0.155,0.989,0.279,0.732,0.976,0.061,326.811
132906,152094,12256,-0.159,0.977,0.272,-0.488,1.402,-0.122,326.817
132924,152049,9715,-0.159,0.977,0.272,-0.488,1.402,-0.122,326.821
132924,152059,12260,-0.153,0.958,0.259,-0.671,0.61,0.305,326.827
132910,152049,9715,-0.153,0.958,0.259,-0.671,0.61,0.305,326.831
132910,152058,12260,-0.149,0.967,0.254,-0.305,0.366,0.61,326.837
132929,152049,9715,-0.149,0.967,0.254,-0.305,0.366,0.61,326.841
132929,152047,12272,-0.155,0.994,0.258,0.488,1.037,0.732,326.847
132913,152049,9715,-0.155,0.994,0.258,0.488,1.037,0.732,326.851
132913,152025,12269,-0.164,0.998,0.266,0.305,1.098,0.61,326.857
132928,152049,9715,-0.164,0.998,0.266,0.305,1.098,0.61,326.86
132928,152055,12264,-0.161,0.998,0.265,-0.915,0.244,0.732,326.867
132902,152049,9715,-0.161,0.998,0.265,-0.915,0.244,0.732,326.87
132902,152061,12266,-0.158,0.978,0.265,-1.707,0.122,0.671,326.876
132918,152305,9715,-0.158,0.978,0.265,-1.707,0.122,0.671,326.88
132918,152094,12259,-0.165,0.978,0.267,-1.951,0.793,1.037,326.886
132902,152305,9715,-0.165,0.978,0.267,-1.951,0.793,1.037,326.89
132902,152126,12267,-0.153,0.978,0.267,-1.89,0.854,1.402,326.896
132908,152305,9715,-0.153,0.978,0.267,-1.89,0.854,1.402,326.9
132908,152149,12254,-0.153,0.985,0.275,-1.707,1.707,1.098,326.906
132930,152305,9715,-0.153,0.985,0.275,-1.707,1.707,1.098,326.91
132930,152148,12271,-0.156,0.975,0.26,-0.854,1.463,0.915,326.916
132929,152305,9715,-0.156,0.975,0.26,-0.854,1.463,0.915,326.92
132929,152165,12252,-0.147,0.979,0.254,-0.854,1.463,0.915,326.926
132914,152305,9715,-0.146,0.981,0.251,-0.61,0.366,0.854,326.93
132914,152158,12263,-0.147,0.983,0.254,-0.61,0.366,0.854,326.936
132917,152305,9715,-0.153,0.989,0.261,0.061,0.732,0.793,326.94
132917,152189,12264,-0.155,0.994,0.263,0.061,0.732,0.793,326.946
132919,152305,9715,-0.153,0.998,0.267,0.61,0.549,0.305,326.949
132919,152210,12238,-0.155,1,0.275,0.61,0.549,0.305,326.956
132906,152305,9715,-0.155,1.005,0.278,-0.244,0.122,-0.061,326.959
132906,152256,12244,-0.156,0.997,0.28,-0.244,0.122,-0.061,326.966
132907,152305,9715,-0.16,0.981,0.275,-0.976,0.061,0.122,326.969
132907,152281,12252,-0.157,0.973,0.276,-0.976,0.061,0.122,326.976
132925,152561,9715,-0.152,0.973,0.273,-0.61,0.061,-0.183,326.979
132925,152327,12251,-0.156,0.975,0.276,-0.61,0.061,-0.183,326.985
132923,152561,9715,-0.159,0.969,0.276,-0.244,0.915,-0.061,326.989
132923,152337,12250,-0.164,0.965,0.282,-0.244,0.915,-0.061,326.995
132904,152561,9715,-0.164,0.965,0.287,0.061,1.768,0.244,326.999
132904,152330,12240,-0.159,0.967,0.281,0.061,1.768,0.244,327.005
132933,152561,9715,-0.159,0.97,0.277,0.366,1.768,0.244,327.009
132933,152331,12244,-0.163,0.971,0.261,0.366,1.768,0.244,327.015
132907,152561,9715,-0.164,0.977,0.249,0.732,1.463,0.488,327.019
132907,152333,12259,-0.154,0.985,0.249,0.732,1.463,0.488,327.025
132931,152561,9715,-0.149,0.992,0.244,0,0.366,0.488,327.029
132931,152364,12246,-0.149,0.991,0.242,0,0.366,0.488,327.035
132927,152561,9715,-0.154,0.99,0.244,-0.976,0.183,0.671,327.039
132927,152337,12242,-0.16,0.999,0.249,-0.976,0.183,0.671,327.045
132925,152561,9715,-0.158,0.999,0.261,-1.402,0.305,1.098,327.049
132925,152353,12234,-0.158,1,0.267,-1.402,0.305,1.098,327.055
132924,152561,9715,-0.153,1.002,0.271,-1.463,-0.366,0.61,327.058
132924,152342,12256,-0.154,0.997,0.284,-1.463,-0.366,0.61,327.065
132932,152561,9715,-0.156,0.988,0.288,-0.976,0.122,0.183,327.068
132932,152376,12238,-0.162,0.984,0.291,-0.976,0.122,0.183,327.074
132947,152561,9715,-0.16,0.975,0.295,0.305,0.732,-0.305,327.078
132947,152385,12261,-0.154,0.97,0.286,0.305,0.732,-0.305,327.084
132930,152561,9715,-0.144,0.977,0.267,1.89,0.366,-1.159,327.088
132930,152405,12249,-0.142,0.976,0.259,1.89,0.366,-1.159,327.094
132955,152561,9715,-0.147,0.969,0.254,2.134,1.098,-0.854,327.098
132955,152419,12228,-0.157,0.958,0.252,2.134,1.098,-0.854,327.104
132952,152561,9715,-0.157,0.956,0.254,1.585,1.524,0,327.108
132952,152388,12240,-0.155,0.961,0.25,1.585,1.524,0,327.114
132960,152561,9715,-0.155,0.968,0.249,0.244,0.976,0.732,327.118
132960,152394,12235,-0.152,0.986,0.253,0.244,0.976,0.732,327.124
132958,152561,9715,-0.153,0.999,0.263,-0.366,0.915,1.159,327.128
132958,152402,12244,-0.16,1.004,0.279,-0.366,0.915,1.159,327.134
132945,152561,9715,-0.164,1.009,0.287,-0.793,1.402,1.098,327.138
132945,152401,12236,-0.167,1.006,0.286,-0.793,1.402,1.098,327.144
132961,152561,9715,-0.166,0.999,0.285,-1.037,0.915,0.671,327.148
132961,152411,12252,-0.163,0.991,0.281,-1.037,0.915,0.671,327.154
132951,152561,9715,-0.16,0.985,0.283,-0.671,0.244,0.183,327.157
132951,152441,12261,-0.158,0.983,0.286,-0.671,0.244,0.183,327.164
132962,152561,9715,-0.157,0.985,0.273,0.671,1.159,-0.366,327.167
132962,152479,12247,-0.157,0.979,0.264,0.671,1.159,-0.366,327.174
132956,152561,9715,-0.153,0.976,0.258,1.646,1.585,-0.976,327.177
132956,152498,12244,-0.156,0.979,0.249,1.646,1.585,-0.976,327.183
132984,152561,9715,-0.154,0.976,0.24,0.732,1.098,-0.671,327.187
132984,152516,12230,-0.151,0.967,0.244,0.732,1.098,-0.671,327.193
132977,152561,9715,-0.153,0.965,0.244,-0.671,0.427,0,327.197
132977,152517,12236,-0.152,0.975,0.238,-0.671,0.427,0,327.203
132969,152561,9715,-0.151,0.989,0.247,-1.037,0.244,0.427,327.207
132969,152533,12250,-0.15,0.997,0.258,-1.037,0.244,0.427,327.213
132951,152561,9715,-0.157,1.005,0.263,-1.159,0.671,0.488,327.217
132951,152561,12231,-0.167,1.002,0.272,-1.159,0.671,0.488,327.223
132959,152817,9715,-0.168,0.999,0.281,-1.89,0.61,0.366,327.227
132959,152576,12224,-0.166,0.991,0.286,-1.89,0.61,0.366,327.233
132963,152817,9715,-0.169,0.981,0.282,-2.256,0.122,-0.122,327.237
132963,152592,12230,-0.164,0.973,0.283,-2.256,0.122,-0.122,327.243
132945,152817,9715,-0.157,0.97,0.278,-1.402,-0.061,-0.183,327.247
132945,152602,12221,-0.154,0.965,0.27,-1.402,-0.061,-0.183,327.253
132954,152817,9715,-0.155,0.963,0.264,-0.061,0.183,-0.244,327.256
132954,152587,12229,-0.156,0.966,0.255,-0.061,0.183,-0.244,327.263
132970,152817,9715,-0.157,0.97,0.25,1.159,0.549,-0.183,327.266
132970,152584,12221,-0.156,0.973,0.249,1.159,0.549,-0.183,327.272
132965,152817,9715,-0.157,0.981,0.249,1.22,0.732,0.366,327.276
132965,152589,12223,-0.155,0.994,0.252,1.22,0.732,0.366,327.282
132957,152817,9715,-0.155,0.992,0.256,0.183,0.122,0.793,327.286
132957,152615,12234,-0.157,0.987,0.258,0.183,0.122,0.793,327.292
132959,152817,9715,-0.162,0.993,0.26,-0.122,-0.61,0.854,327.296
132959,152583,12224,-0.163,0.997,0.269,-0.122,-0.61,0.854,327.302
132935,152561,9715,-0.157,0.995,0.278,-0.427,-0.549,0.732,327.306
132935,152554,12217,-0.157,0.991,0.284,-0.427,-0.549,0.732,327.312
132933,152561,9715,-0.159,0.983,0.282,-0.793,-0.61,0.549,327.316
132933,152572,12219,-0.157,0.98,0.283,-0.793,-0.61,0.549,327.322
132938,152561,9715,-0.154,0.974,0.284,-0.854,-0.427,0.244,327.326
132938,152565,12214,-0.155,0.976,0.284,-0.854,-0.427,0.244,327.332
132907,152817,9715,-0.151,0.975,0.278,-0.244,0.183,0.061,327.336
132907,152588,12226,-0.151,0.971,0.271,-0.244,0.183,0.061,327.342
132931,152817,9715,-0.152,0.97,0.26,0.122,0.366,0.183,327.346
132931,152577,12224,-0.152,0.975,0.254,0.122,0.366,0.183,327.352
132939,152817,9715,-0.149,0.976,0.254,-0.122,0.427,0.366,327.355
132939,152613,12233,-0.153,0.98,0.26,-0.122,0.427,0.366,327.362
132929,152561,9715,-0.153,0.98,0.26,-0.122,0.427,0.366,327.365
132929,152575,12222,-0.161,1.006,0.26,0,1.037,0.915,327.372
132921,152817,9715,-0.161,1.006,0.26,0,1.037,0.915,327.375
132921,152577,12203,-0.158,1.004,0.265,0.305,0.793,0.427,327.381
132919,152561,9715,-0.158,1.004,0.265,0.305,0.793,0.427,327.385
132919,152566,12217,-0.167,0.985,0.271,0,0.305,0.122,327.391
132920,152561,9715,-0.167,0.985,0.271,0,0.305,0.122,327.395
132920,152560,12220,-0.161,0.974,0.274,-0.671,0.122,0.366,327.401
132920,152561,9715,-0.161,0.974,0.274,-0.671,0.122,0.366,327.405
132920,152571,12208,-0.156,0.968,0.271,0,0.244,0,327.411
132928,152817,9715,-0.156,0.968,0.271,0,0.244,0,327.415
132928,152614,12223,-0.162,0.964,0.269,1.159,0.854,0,327.421
132940,152817,9715,-0.162,0.964,0.269,1.159,0.854,0,327.425
132940,152615,12215,-0.15,0.957,0.266,0.427,0.671,0.549,327.431
132932,152817,9715,-0.15,0.957,0.266,0.427,0.671,0.549,327.435
132932,152652,12214,-0.148,0.977,0.259,0.061,0.244,1.037,327.441
132948,152817,9715,-0.148,0.977,0.259,0.061,0.244,1.037,327.445
132948,152637,12217,-0.15,1.01,0.258,0.854,0.61,0.915,327.451
132915,152817,9715,-0.15,1.01,0.258,0.854,0.61,0.915,327.454
132915,152621,12218,-0.157,1.012,0.261,0.61,0.732,0.488,327.461
132916,152817,9715,-0.157,1.012,0.261,0.61,0.732,0.488,327.464
132916,152621,12230,-0.164,0.99,0.264,-1.585,0.305,0.671,327.471
132912,152817,9715,-0.164,0.99,0.264,-1.585,0.305,0.671,327.474
132912,152630,12202,-0.156,0.98,0.269,-2.561,-0.671,0.61,327.48
132907,152817,9715,-0.156,0.98,0.269,-2.561,-0.671,0.61,327.484
132907,152641,12202,-0.155,0.975,0.275,-1.037,-0.549,0.061,327.49
132914,152817,9715,-0.155,0.975,0.275,-1.037,-0.549,0.061,327.494
132914,152670,12222,-0.161,0.984,0.283,0.976,0.61,-0.244,327.5
132931,152817,9715,-0.161,0.984,0.283,0.976,0.61,-0.244,327.504
132931,152690,12207,-0.156,0.973,0.28,1.037,0.915,-0.244,327.51
132920,152817,9715,-0.156,0.973,0.28,1.037,0.915,-0.244,327.514
132920,152716,12206,-0.154,0.965,0.279,0.183,0.488,0,327.52
132935,152817,9715,-0.157,0.961,0.274,0.183,0.488,0,327.524
132935,152739,12200,-0.163,0.957,0.26,0.061,0.976,0.61,327.53
132942,152817,9715,-0.156,0.958,0.248,0.061,0.976,0.61,327.534
132942,152734,12198,-0.151,0.969,0.244,0.061,0.61,0.854,327.54
132930,152817,9715,-0.148,0.982,0.245,0.061,0.61,0.854,327.544
132930,152741,12209,-0.156,0.993,0.249,-0.793,0.488,1.28,327.55
132922,152817,9715,-0.156,0.999,0.254,-0.793,0.488,1.28,327.553
132922,152741,12204,-0.163,0.997,0.259,-1.28,0.488,1.463,327.56
132936,152817,9715,-0.164,0.994,0.26,-1.28,0.488,1.463,327.563
132936,152776,12197,-0.158,0.992,0.255,-1.402,-0.549,1.341,327.57
132919,152817,9715,-0.162,0.997,0.251,-1.402,-0.549,1.341,327.573
132919,152766,12212,-0.159,1.001,0.254,-1.768,-1.037,1.341,327.579
132934,152817,9715,-0.158,1.003,0.265,-1.768,-1.037,1.341,327.583
132934,152785,12194,-0.158,1.003,0.28,-1.829,-0.61,0.732,327.589
132955,152817,9715,-0.16,0.99,0.287,-1.829,-0.61,0.732,327.593
132955,152789,12207,-0.162,0.974,0.287,-0.854,-0.244,0.488,327.599
132958,152817,9715,-0.156,0.974,0.292,-0.854,-0.244,0.488,327.603
132958,152805,12211,-0.148,0.987,0.299,0.183,-0.122,0.366,327.609
132971,152817,9715,-0.143,0.985,0.293,0.183,-0.122,0.366,327.613
132971,152764,12217,-0.15,0.965,0.274,0.793,0.976,-0.488,327.619
132966,152817,9715,-0.152,0.958,0.264,0.793,0.976,-0.488,327.623
132966,152776,12209,-0.15,0.968,0.252,1.707,0.915,-0.061,327.629
132945,152817,9715,-0.148,0.97,0.24,1.707,0.915,-0.061,327.633
132945,152739,12215,-0.151,0.971,0.238,1.037,0.732,0.061,327.639
132971,152817,9715,-0.152,0.985,0.248,1.037,0.732,0.061,327.643
132971,152769,12209,-0.159,0.995,0.26,0.183,1.159,0.732,327.649
132945,152817,9715,-0.169,0.993,0.264,0.183,1.159,0.732,327.652
132945,152756,12224,-0.172,0.996,0.266,0.061,0.793,0.976,327.659
132942,152817,9715,-0.165,1.003,0.271,0.061,0.793,0.976,327.662
132942,152786,12207,-0.166,1,0.274,-0.732,-0.183,0.671,327.669
132940,152817,9715,-0.17,0.994,0.274,-0.732,-0.183,0.671,327.672
132940,152778,12224,-0.168,0.985,0.275,-1.22,-0.488,0.61,327.678
132963,152817,9715,-0.159,0.984,0.283,-1.22,-0.488,0.61,327.682
132963,152781,12198,-0.157,0.979,0.286,-1.22,-0.183,0.488,327.688
132961,152817,9715,-0.159,0.972,0.277,-1.22,-0.183,0.488,327.692
132961,152783,12215,-0.155,0.97,0.266,-0.183,-0.061,0.183,327.698
132965,152817,9715,-0.148,0.971,0.262,-0.183,-0.061,0.183,327.702
132965,152784,12217,-0.144,0.975,0.255,0.549,-0.183,0.366,327.708
132980,152817,9715,-0.144,0.981,0.256,0.549,-0.183,0.366,327.712
132980,152792,12224,-0.146,0.986,0.252,0.549,0.366,0.488,327.718
132963,152817,9715,-0.15,0.99,0.26,0.549,0.366,0.488,327.722
132963,152776,12209,-0.154,0.986,0.264,0.366,0.427,0.488,327.728
132968,152817,9715,-0.157,0.982,0.258,0.366,0.427,0.488,327.732
132968,152782,12204,-0.156,0.986,0.263,0.122,-0.183,0.671,327.738
132981,152817,9715,-0.155,0.998,0.267,0.122,-0.183,0.671,327.742
132981,152770,12219,-0.156,0.996,0.269,-0.671,-0.305,0.549,327.748
132997,152817,9715,-0.156,0.983,0.273,-0.671,-0.305,0.549,327.751
132997,152806,12207,-0.163,0.978,0.279,-0.305,-0.183,0.305,327.758
132979,152817,9715,-0.165,0.977,0.28,-0.305,-0.183,0.305,327.761
132979,152823,12219,-0.162,0.982,0.286,-0.061,0.122,0.427,327.768
132982,153073,9715,-0.16,0.979,0.288,-0.061,0.122,0.427,327.771
132982,152835,12204,-0.158,0.977,0.289,0.61,0.671,0.122,327.777
132975,152817,9715,-0.152,0.979,0.288,0.61,0.671,0.122,327.781
132975,152810,12220,-0.154,0.977,0.287,0.366,1.037,0.244,327.787
132979,152817,9715,-0.158,0.971,0.273,0.366,1.037,0.244,327.791
132979,152817,12221,-0.155,0.968,0.26,0.61,0.854,0.183,327.797
132997,153073,9715,-0.147,0.979,0.249,0.61,0.854,0.183,327.801
132997,152844,12210,-0.147,0.987,0.238,0.549,0.427,0.061,327.807
133001,153073,9715,-0.15,0.984,0.235,0.549,0.427,0.061,327.811
133001,152834,12211,-0.158,0.985,0.235,0,0.488,0.305,327.817
132993,153073,9715,-0.161,0.994,0.245,0,0.488,0.305,327.821
132993,152857,12212,-0.159,1.002,0.251,-1.22,0.183,0.732,327.827
133005,153073,9715,-0.158,1.001,0.264,-1.22,0.183,0.732,327.831
133005,152836,12218,-0.159,0.994,0.275,-2.439,-0.427,0.854,327.837
133033,153073,9715,-0.162,0.987,0.278,-2.439,-0.427,0.854,327.841
133033,152874,12212,-0.159,0.979,0.28,-1.768,-0.549,0.793,327.847
132992,153073,9715,-0.16,0.98,0.285,-1.768,-0.549,0.793,327.85
132992,152893,12217,-0.155,0.982,0.294,-0.305,0,0.488,327.857
133018,153073,9715,-0.154,0.981,0.295,-0.305,0,0.488,327.86
133018,152928,12212,-0.157,0.972,0.287,0.549,1.159,0.122,327.867
133009,153073,9715,-0.156,0.972,0.274,0.549,1.159,0.122,327.87
133009,152975,12199,-0.153,0.974,0.262,0.976,1.341,-0.305,327.876
133044,153073,9715,-0.152,0.974,0.258,0.976,1.341,-0.305,327.88
133044,153006,12220,-0.153,0.976,0.251,-0.366,0.793,0,327.886
133040,153073,9715,-0.152,0.966,0.253,-0.366,0.793,0,327.89
133040,153029,12195,-0.16,0.963,0.243,-0.915,0.915,0.549,327.896
133017,153073,9715,-0.159,0.972,0.242,-0.915,0.915,0.549,327.9
133017,152996,12194,-0.152,0.989,0.245,-0.366,0.183,0.854,327.906
133011,153073,9715,-0.154,1,0.254,-0.366,0.183,0.854,327.91
133011,152977,12212,-0.161,0.996,0.26,-0.549,0,0.732,327.916
133001,153073,9715,-0.168,0.995,0.271,-0.549,0,0.732,327.92
133001,152980,12187,-0.172,0.994,0.275,-0.854,0.061,1.037,327.926
133000,153073,9715,-0.165,0.988,0.279,-0.854,0.061,1.037,327.93
133000,153006,12186,-0.155,0.982,0.283,-1.22,-0.732,1.28,327.936
133011,153073,9715,-0.154,0.98,0.288,-1.22,-0.732,1.28,327.94
133011,152980,12204,-0.154,0.989,0.293,0,-0.366,0.915,327.946
132996,153073,9715,-0.153,0.992,0.294,0,-0.366,0.915,327.949
132996,153004,12201,-0.154,0.992,0.289,1.22,0.976,0.183,327.956
133031,153073,9715,-0.154,0.992,0.289,1.22,0.976,0.183,327.959
133031,153009,12214,-0.149,0.984,0.257,1.159,0.427,-0.671,327.966
133003,153073,9715,-0.149,0.984,0.257,1.159,0.427,-0.671,327.969
133003,153009,12201,-0.143,0.984,0.244,-0.427,-0.183,-0.427,327.975
133025,153073,9715,-0.143,0.984,0.244,-0.427,-0.183,-0.427,327.979
133025,152996,12200,-0.154,0.967,0.253,-1.037,-0.061,0.244,327.985
133006,153073,9715,-0.154,0.967,0.253,-1.037,-0.061,0.244,327.989
133006,152972,12195,-0.153,0.988,0.265,-0.427,0.305,0.305,327.995
133003,153073,9715,-0.153,0.988,0.265,-0.427,0.305,0.305,327.999
133003,152978,12205,-0.159,0.989,0.267,-0.488,0.122,0.305,328.005
132988,153073,9715,-0.159,0.989,0.267,-0.488,0.122,0.305,328.009
132988,153005,12201,-0.16,0.976,0.277,-0.976,-0.305,0.793,328.015
132989,153073,9715,-0.16,0.976,0.277,-0.976,-0.305,0.793,328.019
132989,152969,12197,-0.159,0.974,0.285,-0.61,-0.427,0.793,328.025
132983,153073,9715,-0.159,0.974,0.285,-0.61,-0.427,0.793,328.029
132983,153001,12193,-0.154,0.99,0.289,1.28,0.488,0.427,328.035
132997,153073,9715,-0.154,0.99,0.289,1.28,0.488,0.427,328.039
132997,152994,12195,-0.154,0.986,0.267,2.683,1.159,-0.183,328.045
133004,153073,9715,-0.154,0.986,0.267,2.683,1.159,-0.183,328.048
133004,153014,12181,-0.155,0.982,0.26,1.159,0.915,0.183,328.055
133017,153073,9715,-0.155,0.982,0.26,1.159,0.915,0.183,328.058
133017,153034,12184,-0.152,0.971,0.254,-0.61,0.183,0.61,328.065
132990,153073,9715,-0.152,0.971,0.254,-0.61,0.183,0.61,328.068
132990,153024,12183,-0.15,0.983,0.256,-0.854,0.061,0.915,328.074
132986,153073,9715,-0.15,0.983,0.256,-0.854,0.061,0.915,328.078
132986,152961,12211,-0.155,0.998,0.264,-0.427,0.488,0.61,328.084
132993,153073,9715,-0.155,0.998,0.264,-0.427,0.488,0.61,328.088
132993,152986,12196,-0.165,1.002,0.274,-1.037,0.366,0.305,328.094
132989,153073,9715,-0.165,1.002,0.274,-1.037,0.366,0.305,328.098
132989,152950,12191,-0.163,0.993,0.278,-1.037,0.366,0.305,328.104
132984,153073,9715,-0.163,0.983,0.277,-1.28,-0.427,0.366,328.108
132984,152978,12201,-0.156,0.977,0.272,-1.28,-0.427,0.366,328.114
133009,153073,9715,-0.154,0.983,0.279,-0.488,-0.549,0.122,328.118
133009,153028,12203,-0.156,0.987,0.287,-0.488,-0.549,0.122,328.124
133021,153073,9715,-0.158,0.984,0.29,0.183,0.732,-0.305,328.128
133021,153044,12191,-0.162,0.971,0.28,0.183,0.732,-0.305,328.134
133042,153073,9715,-0.155,0.971,0.272,0.854,0.549,-0.366,328.138
133042,153068,12201,-0.154,0.97,0.26,0.854,0.549,-0.366,328.144
133038,153073,9715,-0.15,0.964,0.252,0.244,-0.122,0.122,328.147
133038,153063,12192,-0.148,0.963,0.244,0.244,-0.122,0.122,328.154
133042,153073,9715,-0.151,0.963,0.237,-0.183,-0.122,0.732,328.157
133042,153050,12195,-0.149,0.976,0.243,-0.183,-0.122,0.732,328.164
133038,153073,9715,-0.15,0.995,0.257,-0.488,0,0.976,328.167
133038,153055,12211,-0.156,1.001,0.265,-0.488,0,0.976,328.173
133038,153073,9715,-0.164,1.004,0.271,-0.366,0.427,0.793,328.177
133038,153034,12209,-0.169,1.008,0.275,-0.366,0.427,0.793,328.183
133051,153073,9715,-0.164,1.005,0.276,-1.037,-0.244,0.854,328.187
133051,153037,12192,-0.158,0.989,0.278,-1.037,-0.244,0.854,328.193
133032,153073,9715,-0.153,0.985,0.283,-1.28,-0.915,0.427,328.197
133032,153071,12207,-0.15,0.982,0.29,-1.28,-0.915,0.427,328.203
133045,153329,9715,-0.156,0.979,0.293,-0.244,0.244,0.183,328.207
133045,153090,12196,-0.16,0.976,0.291,-0.244,0.244,0.183,328.213
133041,153329,9715,-0.158,0.973,0.275,0.854,1.037,-0.366,328.217
133041,153105,12180,-0.153,0.965,0.259,0.854,1.037,-0.366,328.223
133074,153329,9715,-0.151,0.96,0.242,0.915,0.305,-0.366,328.227
133074,153127,12196,-0.148,0.958,0.233,0.915,0.305,-0.366,328.233
133053,153329,9715,-0.146,0.973,0.238,0.122,-0.305,0.488,328.237
133053,153135,12200,-0.15,0.987,0.242,0.122,-0.305,0.488,328.243
133052,153329,9715,-0.156,0.99,0.251,-0.671,0.122,0.732,328.246
133052,153140,12193,-0.159,0.996,0.261,-0.671,0.122,0.732,328.253
133041,153329,9715,-0.161,1.006,0.271,-0.976,-0.061,1.098,328.256
133041,153091,12203,-0.158,1.005,0.278,-0.976,-0.061,1.098,328.263
133057,153329,9715,-0.16,0.994,0.28,-2.073,-0.854,1.098,328.266
133057,153109,12200,-0.16,0.993,0.285,-2.073,-0.854,1.098,328.272
133066,153329,9715,-0.155,0.995,0.293,-2.317,-1.22,0.61,328.276
133066,153090,12190,-0.151,0.985,0.302,-2.317,-1.22,0.61,328.282
133061,153329,9715,-0.149,0.974,0.295,-1.098,-0.244,-0.244,328.286
133061,153111,12196,-0.151,0.974,0.284,-1.098,-0.244,-0.244,328.292
133070,153329,9715,-0.152,0.972,0.271,0.61,0.61,-0.549,328.296
133070,153127,12199,-0.147,0.964,0.257,0.61,0.61,-0.549,328.302
133045,153329,9715,-0.146,0.961,0.244,0.976,0.122,-0.671,328.306
133045,153168,12203,-0.146,0.961,0.243,0.976,0.122,-0.671,328.312
133081,153329,9715,-0.149,0.972,0.248,0.549,0.061,0.183,328.316
133081,153135,12192,-0.158,0.978,0.251,0.549,0.061,0.183,328.322
133076,153329,9715,-0.161,0.983,0.256,0.671,0.549,0.671,328.326
133076,153133,12199,-0.161,0.992,0.268,0.671,0.549,0.671,328.332
133071,153329,9715,-0.158,1.003,0.275,0.305,0.427,0.793,328.336
133071,153109,12202,-0.165,0.997,0.28,0.305,0.427,0.793,328.342
133067,153329,9715,-0.168,0.992,0.284,-0.427,0.061,0.915,328.345
133067,153124,12200,-0.166,0.986,0.28,-0.427,0.061,0.915,328.352
133077,153329,9715,-0.163,0.982,0.279,-1.22,-0.61,0.732,328.355
133077,153123,12209,-0.161,0.979,0.279,-1.22,-0.61,0.732,328.362
133077,153329,9715,-0.159,0.979,0.275,-0.427,-0.183,0.427,328.365
133077,153137,12200,-0.155,0.985,0.272,-0.427,-0.183,0.427,328.371
133067,153329,9715,-0.15,0.986,0.265,1.159,0.549,-0.122,328.375
133067,153124,12198,-0.151,0.984,0.263,1.159,0.549,-0.122,328.381
133078,153329,9715,-0.155,0.976,0.262,0.671,0.549,0.122,328.385
133078,153118,12199,-0.149,0.974,0.26,0.671,0.549,0.122,328.391
133081,153329,9715,-0.144,0.972,0.258,-0.61,-0.183,0.732,328.395
133081,153147,12196,-0.142,0.975,0.258,-0.61,-0.183,0.732,328.401
133074,153329,9715,-0.145,0.978,0.265,-0.732,-0.061,0.732,328.405
133074,153117,12195,-0.15,0.981,0.262,-0.732,-0.061,0.732,328.411
133075,153329,9715,-0.15,0.987,0.261,-0.183,0.305,0.854,328.415
133075,153129,12197,-0.152,0.993,0.267,-0.183,0.305,0.854,328.421
133084,153329,9715,-0.152,0.996,0.277,-0.976,0.305,0.793,328.425
133084,153091,12207,-0.153,0.994,0.294,-0.976,0.305,0.793,328.431
133075,153329,9715,-0.16,0.988,0.297,-1.707,1.037,0.915,328.435
133075,153096,12195,-0.165,0.979,0.287,-1.707,1.037,0.915,328.441
133058,153073,9715,-0.161,0.982,0.288,-0.61,1.463,0.427,328.444
133058,153073,12179,-0.155,0.986,0.28,-0.61,1.463,0.427,328.451
133072,153073,9715,-0.151,0.983,0.268,0.183,1.341,-0.061,328.454
133072,153065,12193,-0.151,0.977,0.265,0.183,1.341,-0.061,328.461
133051,153073,9715,-0.153,0.971,0.266,0.061,1.463,0,328.464
133051,153058,12216,-0.151,0.962,0.262,0.061,1.463,0,328.47
133075,153073,9715,-0.154,0.958,0.263,0.122,1.585,0.427,328.474
133075,153077,12208,-0.155,0.967,0.262,0.122,1.585,0.427,328.48
133057,153073,9715,-0.155,0.977,0.253,1.098,1.707,0.549,328.484
133057,153084,12197,-0.157,0.984,0.247,1.098,1.707,0.549,328.49
133061,153073,9715,-0.159,0.994,0.248,1.28,1.951,0.671,328.494
133061,153071,12204,-0.156,1.008,0.258,1.28,1.951,0.671,328.5
133073,153073,9715,-0.156,1.005,0.258,-0.732,1.037,0.854,328.504
133073,153034,12214,-0.159,0.993,0.262,-0.732,1.037,0.854,328.51
133058,153073,9715,-0.159,0.989,0.276,-1.524,0,0.732,328.514
133058,153043,12206,-0.161,0.994,0.29,-1.524,0,0.732,328.52
133054,153073,9715,-0.164,0.996,0.285,-0.61,0.549,0.549,328.524
133054,153034,12195,-0.16,0.992,0.274,-0.61,0.549,0.549,328.53
133082,153073,9715,-0.151,0.984,0.267,0.61,0.549,-0.244,328.534
133082,153070,12206,-0.151,0.987,0.267,0.61,0.549,-0.244,328.54
133084,153329,9715,-0.153,0.979,0.268,0.183,0.427,-0.366,328.543
133084,153088,12206,-0.155,0.969,0.267,0.183,0.427,-0.366,328.55
133093,153329,9715,-0.155,0.969,0.267,0.183,0.427,-0.366,328.553
133093,153096,12208,-0.16,0.954,0.251,-0.366,0.671,0.122,328.56
133102,153329,9715,-0.16,0.954,0.251,-0.366,0.671,0.122,328.563
133102,153091,12211,-0.154,0.974,0.244,0.305,0.488,0.366,328.569
133093,153329,9715,-0.154,0.974,0.244,0.305,0.488,0.366,328.573
133093,153090,12207,-0.152,1.003,0.259,0.671,-0.061,0.915,328.579
133094,153073,9715,-0.152,1.003,0.259,0.671,-0.061,0.915,328.583
133094,153048,12211,-0.16,0.998,0.284,-0.366,0.061,1.037,328.589
133095,153073,9715,-0.16,0.998,0.284,-0.366,0.061,1.037,328.593
133095,153042,12216,-0.165,0.989,0.285,-1.037,0.122,0.976,328.599
133084,153073,9715,-0.165,0.989,0.285,-1.037,0.122,0.976,328.603
133084,153040,12221,-0.148,0.981,0.281,-1.098,-0.488,0.732,328.609
133075,153073,9715,-0.148,0.981,0.281,-1.098,-0.488,0.732,328.613
133075,153057,12209,-0.153,0.98,0.278,0,-0.122,0.305,328.619
133090,153073,9715,-0.153,0.98,0.278,0,-0.122,0.305,328.623
133090,153084,12199,-0.152,0.974,0.274,0.671,0.671,0.061,328.629
133097,153073,9715,-0.152,0.974,0.274,0.671,0.671,0.061,328.633
133097,153069,12210,-0.147,0.974,0.261,0.366,0.488,0,328.639
133107,153073,9715,-0.147,0.974,0.261,0.366,0.488,0,328.642
133107,153074,12209,-0.149,0.97,0.257,0,0.061,0.366,328.649
133079,153073,9715,-0.149,0.97,0.257,0,0.061,0.366,328.652
133079,153067,12206,-0.156,0.986,0.257,0.427,0.183,0.671,328.659
133078,153073,9715,-0.156,0.986,0.257,0.427,0.183,0.671,328.662
133078,153025,12205,-0.16,0.997,0.264,0.488,0.366,0.61,328.668
133099,153073,9715,-0.16,0.997,0.264,0.488,0.366,0.61,328.672
133099,153018,12202,-0.163,0.988,0.261,0.183,0.244,0.427,328.678
133090,153073,9715,-0.163,0.988,0.261,0.183,0.244,0.427,328.682
133090,153035,12216,-0.156,1.002,0.281,-0.305,-0.183,0.549,328.688
133071,153073,9715,-0.156,1.002,0.281,-0.305,-0.183,0.549,328.692
133071,153007,12201,-0.157,1.001,0.283,-1.402,0.061,0.671,328.698
133075,153073,9715,-0.156,0.99,0.285,-1.402,0.061,0.671,328.702
133075,153028,12219,-0.157,0.981,0.286,-1.524,0.488,0.366,328.708
133074,153073,9715,-0.153,0.975,0.289,-1.524,0.488,0.366,328.712
133074,153081,12213,-0.151,0.976,0.285,-0.793,0.427,0.122,328.718
133051,153329,9715,-0.149,0.967,0.282,-0.793,0.427,0.122,328.722
133051,153098,12219,-0.154,0.958,0.273,0.793,0.61,-0.061,328.728
133084,153329,9715,-0.149,0.967,0.26,0.793,0.61,-0.061,328.732
133084,153099,12185,-0.147,0.984,0.257,1.951,0.671,-0.244,328.738
133062,153329,9715,-0.146,0.986,0.258,1.951,0.671,-0.244,328.741
133062,153106,12199,-0.153,0.976,0.257,0.61,1.098,0.244,328.748
133060,153329,9715,-0.162,0.969,0.249,0.61,1.098,0.244,328.751
133060,153123,12199,-0.163,0.977,0.24,-0.183,0.305,0.793,328.758
133064,153329,9715,-0.158,0.994,0.241,-0.183,0.305,0.793,328.761
133064,153122,12197,-0.149,1.005,0.255,-0.732,-0.671,0.671,328.767
133029,153329,9715,-0.154,1.006,0.264,-0.732,-0.671,0.671,328.771
133029,153113,12193,-0.167,1,0.27,-0.671,0.122,0.549,328.777
133026,153329,9715,-0.173,0.993,0.279,-0.671,0.122,0.549,328.781
133026,153141,12175,-0.161,0.987,0.289,-0.549,-0.061,0.671,328.787
133022,153329,9715,-0.154,0.986,0.29,-0.549,-0.061,0.671,328.791
133022,153140,12185,-0.151,0.982,0.29,-0.305,-0.488,0.61,328.797
133031,153329,9715,-0.147,0.974,0.282,-0.305,-0.488,0.61,328.801
133031,153186,12185,-0.148,0.976,0.276,1.22,0.305,0.122,328.807
133051,153329,9715,-0.151,0.978,0.276,1.22,0.305,0.122,328.811
133051,153167,12189,-0.149,0.972,0.275,1.22,0.854,0.122,328.817
133024,153329,9715,-0.149,0.964,0.268,1.22,0.854,0.122,328.821
133024,153179,12194,-0.149,0.961,0.263,1.159,0.61,0.366,328.827
133049,153329,9715,-0.148,0.965,0.259,1.159,0.61,0.366,328.831
133049,153175,12177,-0.149,0.975,0.249,1.28,0.61,0.549,328.837
133032,153329,9715,-0.15,0.985,0.247,1.28,0.61,0.549,328.84
133032,153187,12189,-0.151,0.993,0.251,0.671,0.366,0.61,328.847
133043,153329,9715,-0.152,1.001,0.256,0.671,0.366,0.61,328.85
133043,153165,12185,-0.157,1.002,0.265,-0.671,0.244,0.549,328.857
133048,153329,9715,-0.161,0.996,0.271,-0.671,0.244,0.549,328.86
133048,153166,12179,-0.16,0.992,0.277,-1.341,0.122,0.915,328.866
133023,153329,9715,-0.155,0.993,0.282,-1.341,0.122,0.915,328.87
133023,153185,12183,-0.154,0.987,0.281,-0.854,0.305,0.549,328.876
133039,153329,9715,-0.154,0.987,0.282,-0.854,0.305,0.549,328.88
133039,153186,12186,-0.152,0.988,0.285,0.366,0.671,-0.061,328.886
133020,153329,9715,-0.152,0.99,0.297,0.366,0.671,-0.061,328.89
133020,153183,12180,-0.147,0.996,0.305,-0.183,1.524,-0.122,328.896
133011,153329,9715,-0.148,0.989,0.306,-0.183,1.524,-0.122,328.9
133011,153160,12185,-0.152,0.976,0.299,-2.5,2.622,0.366,328.906
133038,153329,9715,-0.153,0.963,0.291,-2.5,2.622,0.366,328.91
133038,153170,12177,-0.156,0.955,0.265,-3.963,2.622,1.098,328.916
133027,153329,9715,-0.152,0.954,0.234,-3.963,2.622,1.098,328.92
133027,153147,12185,-0.14,0.964,0.219,-3.171,1.341,0.793,328.926
133006,153329,9715,-0.139,0.976,0.214,-3.171,1.341,0.793,328.93
133006,153162,12174,-0.154,0.988,0.219,-1.707,1.768,0.366,328.936
133010,153329,9715,-0.161,1.004,0.235,-1.707,1.768,0.366,328.939
133010,153141,12178,-0.175,1.01,0.251,-1.585,2.744,0.732,328.946
132991,153329,9715,-0.182,1,0.262,-1.585,2.744,0.732,328.949
132991,153173,12175,-0.179,0.991,0.266,-1.89,1.341,1.098,328.956
133005,153329,9715,-0.169,0.993,0.27,-1.89,1.341,1.098,328.959
133005,153164,12184,-0.162,0.989,0.272,-1.707,-1.098,0.854,328.965
133023,153329,9715,-0.156,0.977,0.275,-1.707,-1.098,0.854,328.969
133023,153176,12155,-0.158,0.973,0.279,-0.427,-0.854,0.366,328.975
133028,153329,9715,-0.159,0.968,0.284,-0.427,-0.854,0.366,328.979
133028,153184,12172,-0.158,0.967,0.282,1.585,0.366,0.305,328.985
133032,153329,9715,-0.15,0.975,0.272,1.585,0.366,0.305,328.989
133032,153216,12194,-0.139,0.981,0.263,1.829,0.061,-0.061,328.995
133065,153329,9715,-0.134,0.981,0.264,1.829,0.061,-0.061,328.999
133065,153191,12192,-0.142,0.979,0.267,0.854,0.427,0.366,329.005
133024,153329,9715,-0.151,0.974,0.264,0.854,0.427,0.366,329.009
133024,153183,12179,-0.153,0.967,0.263,-0.122,0.427,0.976,329.015
133026,153329,9715,-0.15,0.967,0.266,-0.122,0.427,0.976,329.019
133026,153166,12174,-0.148,0.985,0.272,-0.244,-0.427,0.915,329.025
133025,153329,9715,-0.147,0.991,0.268,-0.244,-0.427,0.915,329.029
133025,153152,12191,-0.157,0.992,0.275,0.244,0.427,1.098,329.035
133013,153329,9715,-0.163,1,0.284,0.244,0.427,1.098,329.038
133013,153150,12185,-0.166,0.997,0.285,-0.183,0.793,0.915,329.045
133031,153329,9715,-0.169,0.985,0.284,-0.183,0.793,0.915,329.048
133031,153164,12183,-0.168,0.981,0.278,-0.61,0,0.488,329.055
133028,153329,9715,-0.159,0.983,0.274,-0.61,0,0.488,329.058
133028,153187,12182,-0.153,0.983,0.272,0.061,-0.244,0.305,329.064
133042,153329,9715,-0.152,0.984,0.273,0.061,-0.244,0.305,329.068
133042,153196,12187,-0.151,0.986,0.272,1.28,0.915,0,329.074
133041,153329,9715,-0.155,0.986,0.272,1.28,0.915,0,329.078
133041,153190,12182,-0.155,0.984,0.264,1.037,1.402,-0.122,329.084
133065,153329,9715,-0.148,0.978,0.261,1.037,1.402,-0.122,329.088
133065,153199,12176,-0.143,0.969,0.257,-0.305,0.305,0.122,329.094
133053,153329,9715,-0.142,0.967,0.254,-0.305,0.305,0.122,329.098
133053,153201,12174,-0.142,0.97,0.252,-0.793,0.305,0.549,329.104
133054,153329,9715,-0.148,0.98,0.253,-0.793,0.305,0.549,329.108
133054,153208,12200,-0.151,0.983,0.258,-0.61,0.61,0.915,329.114
133064,153329,9715,-0.151,0.988,0.266,-0.61,0.61,0.915,329.118
133064,153204,12181,-0.155,1,0.274,-0.976,0.732,0.732,329.124
133040,153329,9715,-0.159,0.999,0.281,-0.976,0.732,0.732,329.128
133040,153209,12194,-0.162,0.989,0.286,-1.22,0.427,0.61,329.134
133055,153329,9715,-0.162,0.989,0.286,-1.22,0.427,0.61,329.137
133055,153219,12179,-0.159,0.991,0.29,-0.244,0.061,0.305,329.144
133050,153329,9715,-0.159,0.991,0.29,-0.244,0.061,0.305,329.147
133050,153248,12195,-0.158,0.983,0.273,1.22,0.549,-0.427,329.154
133084,153329,9715,-0.158,0.983,0.273,1.22,0.549,-0.427,329.157
133084,153232,12180,-0.153,0.982,0.269,1.28,0.976,-0.671,329.163
133062,153329,9715,-0.153,0.982,0.269,1.28,0.976,-0.671,329.167
133062,153264,12206,-0.153,0.967,0.267,0.366,0.61,-0.427,329.173
133107,153329,9715,-0.153,0.967,0.267,0.366,0.61,-0.427,329.177
133107,153285,12183,-0.151,0.969,0.27,0.244,0.976,0.122,329.183
133128,153585,9715,-0.151,0.969,0.27,0.244,0.976,0.122,329.187
133128,153357,12199,-0.151,0.983,0.26,0.305,1.341,0.244,329.193
133137,153585,9715,-0.151,0.983,0.26,0.305,1.341,0.244,329.197
133137,153408,12197,-0.153,0.984,0.248,-0.427,0.61,0.305,329.203
133157,153585,9715,-0.153,0.984,0.248,-0.427,0.61,0.305,329.207
133157,153419,12183,-0.157,0.988,0.27,-1.037,0.244,0.732,329.213
133145,153585,9715,-0.157,0.988,0.27,-1.037,0.244,0.732,329.217
133145,153484,12175,-0.158,0.993,0.284,-0.854,0.915,0.61,329.223
133171,153585,9715,-0.158,0.993,0.284,-0.854,0.915,0.61,329.227
133171,153502,12186,-0.159,0.99,0.271,0.305,0.549,0.183,329.233
133159,153585,9715,-0.159,0.99,0.271,0.305,0.549,0.183,329.236
133159,153546,12173,-0.147,0.979,0.27,0.366,0,0,329.243
133173,153585,9715,-0.147,0.979,0.27,0.366,0,0,329.246
133173,153554,12173,-0.153,0.978,0.275,0.183,0.976,-0.061,329.253
133216,153585,9715,-0.153,0.978,0.275,0.183,0.976,-0.061,329.256
133216,153573,12168,-0.161,0.973,0.267,0.183,1.524,0.122,329.262
133181,153585,9715,-0.161,0.973,0.267,0.183,1.524,0.122,329.266
133181,153509,12178,-0.153,0.978,0.257,0,0.671,0.366,329.272
133198,153585,9715,-0.153,0.978,0.257,0,0.671,0.366,329.276
133198,153503,12181,-0.15,0.983,0.263,0,0.671,0.366,329.282
133180,153585,9715,-0.156,0.985,0.258,-0.366,0.549,0.427,329.286
133180,153491,12176,-0.159,0.98,0.26,-0.366,0.549,0.427,329.292
133188,153585,9715,-0.16,0.981,0.262,-0.244,0.366,0.488,329.296
133188,153475,12186,-0.159,0.984,0.268,-0.244,0.366,0.488,329.302
133177,153585,9715,-0.158,0.981,0.265,-0.671,-0.122,0.793,329.306
133177,153479,12176,-0.156,0.98,0.263,-0.671,-0.122,0.793,329.312
133169,153585,9715,-0.152,0.989,0.272,-0.793,-0.183,1.037,329.316
133169,153502,12174,-0.151,0.998,0.282,-0.793,-0.183,1.037,329.322
133156,153585,9715,-0.157,0.995,0.282,-0.671,0.488,0.976,329.326
133156,153495,12177,-0.156,0.99,0.276,-0.671,0.488,0.976,329.332
133146,153585,9715,-0.149,0.991,0.277,0,0.183,0.61,329.335
133146,153495,12167,-0.147,0.982,0.269,0,0.183,0.61,329.342
133148,153585,9715,-0.153,0.972,0.267,-0.671,0,0.427,329.345
133148,153516,12155,-0.149,0.969,0.269,-0.671,0,0.427,329.352
133133,153585,9715,-0.147,0.97,0.27,-0.854,0.427,0.366,329.355
133133,153495,12175,-0.151,0.977,0.273,-0.854,0.427,0.366,329.361
133163,153585,9715,-0.148,0.988,0.278,-0.305,1.037,0.305,329.365
133163,153484,12169,-0.146,0.993,0.279,-0.305,1.037,0.305,329.371
133150,153585,9715,-0.15,0.99,0.277,-1.159,1.707,0.793,329.375
133150,153494,12182,-0.16,0.983,0.271,-1.159,1.707,0.793,329.381
133140,153585,9715,-0.161,0.982,0.278,-3.049,2.073,1.524,329.385
133140,153463,12187,-0.157,0.986,0.281,-3.049,2.073,1.524,329.391
133126,153585,9715,-0.155,0.981,0.274,-3.72,2.012,1.524,329.395
133126,153499,12174,-0.15,0.983,0.264,-3.72,2.012,1.524,329.401
133125,153585,9715,-0.151,0.993,0.269,-2.134,1.646,0.915,329.405
133125,153511,12157,-0.153,0.995,0.272,-2.134,1.646,0.915,329.411
133146,153585,9715,-0.162,0.985,0.272,-1.707,2.622,0.61,329.415
133146,153533,12145,-0.167,0.977,0.267,-1.707,2.622,0.61,329.421
133137,153585,9715,-0.166,0.972,0.257,-1.89,1.585,0.366,329.425
133137,153498,12164,-0.156,0.963,0.251,-1.89,1.585,0.366,329.431
133141,153585,9715,-0.153,0.971,0.249,-1.524,-0.061,0.488,329.434
133141,153493,12187,-0.153,0.978,0.251,-1.524,-0.061,0.488,329.441
133128,153585,9715,-0.152,0.978,0.256,-0.427,0,0.305,329.444
133128,153485,12165,-0.156,0.98,0.261,-0.427,0,0.305,329.451
133133,153585,9715,-0.159,0.984,0.267,0.488,0.305,0.305,329.454
133133,153486,12170,-0.161,0.985,0.276,0.488,0.305,0.305,329.46
133137,153585,9715,-0.16,0.982,0.286,0,0.427,0.793,329.464
133137,153466,12174,-0.158,0.981,0.287,0,0.427,0.793,329.47
133134,153585,9715,-0.149,0.982,0.285,-0.427,-0.061,0.915,329.474
133134,153457,12142,-0.141,0.984,0.284,-0.427,-0.061,0.915,329.48
133140,153585,9715,-0.144,0.985,0.283,-0.305,0,0.305,329.484
133140,153433,12184,-0.15,0.982,0.278,-0.305,0,0.305,329.49
133136,153585,9715,-0.153,0.975,0.275,-0.122,0.61,0.183,329.494
133136,153473,12176,-0.154,0.975,0.272,-0.122,0.61,0.183,329.5
133134,153585,9715,-0.152,0.98,0.267,-0.244,0.549,0.244,329.504
133134,153436,12174,-0.148,0.984,0.271,-0.244,0.549,0.244,329.51
133134,153585,9715,-0.144,0.978,0.271,-0.976,0.183,0.427,329.514
133134,153457,12177,-0.15,0.978,0.269,-0.976,0.183,0.427,329.52
133111,153585,9715,-0.152,0.984,0.273,-0.549,0.671,0.488,329.524
133111,153423,12168,-0.158,0.993,0.271,-0.549,0.671,0.488,329.53
133128,153585,9715,-0.162,0.995,0.266,-0.427,1.28,0.61,329.533
133128,153419,12160,-0.156,0.989,0.276,-0.427,1.28,0.61,329.54
133120,153585,9715,-0.156,0.99,0.278,-0.732,0.854,0.488,329.543
133120,153416,12181,-0.161,0.989,0.275,-0.732,0.854,0.488,329.55
133122,153585,9715,-0.16,0.985,0.27,-0.671,0.732,0.488,329.553
133122,153413,12164,-0.153,0.977,0.274,-0.671,0.732,0.488,329.559
133115,153585,9715,-0.156,0.969,0.274,-0.488,0.732,0.305,329.563
133115,153422,12176,-0.158,0.967,0.268,-0.488,0.732,0.305,329.569
133112,153585,9715,-0.154,0.967,0.262,0,0.427,0.305,329.573
133112,153428,12169,-0.152,0.966,0.256,0,0.427,0.305,329.579
133110,153585,9715,-0.152,0.974,0.257,0,-0.122,0.305,329.583
133110,153431,12169,-0.149,0.982,0.264,0,-0.122,0.305,329.589
133120,153585,9715,-0.151,0.989,0.263,-0.183,-0.183,0.61,329.593
133120,153434,12169,-0.153,0.983,0.266,-0.183,-0.183,0.61,329.599
133120,153585,9715,-0.157,0.985,0.271,-0.244,-0.244,0.671,329.603
133120,153489,12173,-0.158,0.995,0.278,-0.244,-0.244,0.671,329.609
133110,153585,9715,-0.157,0.995,0.28,-0.549,0,0.61,329.613
133110,153447,12173,-0.158,0.99,0.28,-0.549,0,0.61,329.619
133119,153585,9715,-0.151,0.991,0.277,-0.366,-0.671,0.366,329.623
133119,153480,12174,-0.143,0.992,0.275,-0.366,-0.671,0.366,329.629
133134,153585,9715,-0.148,0.985,0.273,-0.061,-0.671,0.061,329.632
133134,153466,12167,-0.152,0.98,0.276,-0.061,-0.671,0.061,329.639
133121,153585,9715,-0.151,0.975,0.274,0.305,-0.122,0.061,329.642
133121,153476,12161,-0.15,0.971,0.28,0.305,-0.122,0.061,329.649
133140,153585,9715,-0.149,0.967,0.279,0.488,0.061,0.244,329.652
133140,153503,12163,-0.151,0.971,0.281,0.488,0.061,0.244,329.658
133141,153585,9715,-0.15,0.977,0.278,0.61,0.366,0.366,329.662
133141,153595,12151,-0.148,0.974,0.281,0.61,0.366,0.366,329.668
133148,153841,9715,-0.157,0.97,0.28,0.427,0.549,0.61,329.672
133148,153616,12157,-0.154,0.977,0.268,0.427,0.549,0.61,329.678
133168,153841,9715,-0.148,0.983,0.263,0.366,0.061,0.671,329.682
133168,153674,12167,-0.149,0.986,0.262,0.366,0.061,0.671,329.688
133181,153841,9715,-0.153,0.993,0.262,0.122,0.366,0.61,329.692
133181,153707,12147,-0.158,1,0.269,0.122,0.366,0.61,329.698
133169,153841,9715,-0.16,0.994,0.273,0,0.915,0.732,329.702
133169,153727,12162,-0.165,0.988,0.275,0,0.915,0.732,329.708
133230,153841,9715,-0.16,0.988,0.274,-0.122,0.427,0.488,329.712
133230,153723,12149,-0.158,0.988,0.272,-0.122,0.427,0.488,329.718
133209,153841,9715,-0.156,0.982,0.268,0,-0.061,0.183,329.722
133209,153709,12161,-0.154,0.978,0.276,0,-0.061,0.183,329.728
133196,153841,9715,-0.154,0.978,0.276,0,-0.061,0.183,329.732
133196,153733,12147,-0.154,0.97,0.277,-0.061,0.244,0.366,329.738
133217,153841,9715,-0.154,0.97,0.277,-0.061,0.244,0.366,329.741
133217,153738,12149,-0.149,0.972,0.266,0.183,0.244,0.488,329.748
133216,153841,9715,-0.149,0.972,0.266,0.183,0.244,0.488,329.751
133216,153745,12160,-0.143,0.979,0.257,0.488,-0.244,0.366,329.757
133222,153841,9715,-0.143,0.979,0.257,0.488,-0.244,0.366,329.761
133222,153733,12150,-0.151,0.995,0.27,0.183,0.061,0.671,329.767
133217,153841,9715,-0.151,0.995,0.27,0.183,0.061,0.671,329.771
133217,153723,12169,-0.15,0.992,0.283,-0.183,0.61,0.915,329.777
133197,153841,9715,-0.15,0.992,0.283,-0.183,0.61,0.915,329.781
133197,153745,12151,-0.153,0.996,0.278,-1.22,0.671,1.22,329.787
133191,153841,9715,-0.153,0.996,0.278,-1.22,0.671,1.22,329.791
133191,153735,12155,-0.147,0.997,0.286,-2.073,0.915,1.341,329.797
133193,153841,9715,-0.147,0.997,0.286,-2.073,0.915,1.341,329.801
133193,153741,12144,-0.159,0.982,0.279,-2.378,1.646,0.976,329.807
133181,153841,9715,-0.159,0.982,0.279,-2.378,1.646,0.976,329.811
133181,153761,12135,-0.155,0.974,0.27,-2.5,2.317,1.28,329.817
133153,153841,9715,-0.155,0.974,0.27,-2.5,2.317,1.28,329.821
133153,153783,12158,-0.147,0.974,0.263,-2.256,1.89,0.549,329.827
133206,153841,9715,-0.147,0.974,0.263,-2.256,1.89,0.549,329.831
133206,153808,12139,-0.157,0.968,0.258,-1.707,1.402,0.366,329.837
133180,153841,9715,-0.157,0.968,0.258,-1.707,1.402,0.366,329.84
133180,153791,12144,-0.157,0.984,0.267,-1.28,1.524,0.732,329.847
133184,153841,9715,-0.157,0.984,0.267,-1.28,1.524,0.732,329.85
133184,153785,12143,-0.16,0.979,0.268,-1.585,1.159,0.671,329.856
133199,153841,9715,-0.16,0.979,0.268,-1.585,1.159,0.671,329.86
133199,153823,12151,-0.155,0.976,0.282,-1.585,0.183,0.549,329.866
133202,153841,9715,-0.155,0.976,0.282,-1.585,0.183,0.549,329.87
133202,153789,12143,-0.152,0.975,0.279,-1.098,-0.427,0.427,329.876
133185,153841,9715,-0.155,0.974,0.28,-1.098,-0.427,0.427,329.88
133185,153798,12149,-0.155,0.983,0.279,0.366,0.183,0.183,329.886
133188,153841,9715,-0.158,0.987,0.283,0.366,0.183,0.183,329.89
133188,153795,12132,-0.154,0.986,0.282,1.159,0.183,-0.061,329.896
133190,153841,9715,-0.148,0.985,0.278,1.159,0.183,-0.061,329.9
133190,153789,12149,-0.148,0.987,0.283,0.549,0.305,0.061,329.906
133201,153841,9715,-0.156,0.988,0.278,0.549,0.305,0.061,329.91
133201,153767,12140,-0.157,0.986,0.272,-0.244,0.915,0.427,329.916
133200,153841,9715,-0.151,0.978,0.268,-0.244,0.915,0.427,329.92
133200,153746,12156,-0.148,0.977,0.263,-0.671,0.305,0.305,329.926
133195,153841,9715,-0.15,0.976,0.264,-0.671,0.305,0.305,329.93
133195,153758,12169,-0.153,0.982,0.264,-0.854,0,0.549,329.936
133204,153841,9715,-0.154,0.981,0.264,-0.854,0,0.549,329.939
133204,153755,12161,-0.155,0.98,0.268,-0.305,0.061,0.366,329.946
133196,153841,9715,-0.152,0.989,0.269,-0.305,0.061,0.366,329.949
133196,153740,12165,-0.151,0.992,0.271,-0.366,-0.122,0.427,329.955
133206,153841,9715,-0.156,0.985,0.275,-0.366,-0.122,0.427,329.959
133206,153752,12153,-0.156,0.976,0.277,-1.037,-0.366,0.488,329.965
133188,153841,9715,-0.151,0.98,0.286,-1.037,-0.366,0.488,329.969
133188,153730,12164,-0.147,0.984,0.29,-0.732,-0.122,0.549,329.975
133181,153841,9715,-0.148,0.988,0.289,-0.732,-0.122,0.549,329.979
133181,153718,12151,-0.154,0.99,0.289,0.183,1.098,0.305,329.985
133201,153841,9715,-0.151,0.984,0.285,0.183,1.098,0.305,329.989
133201,153732,12162,-0.151,0.977,0.276,0.122,0.915,0,329.995
