131974,152054,11898,-0.14,0.99,0.252,-0.488,-0.854,0.183,339.133
131989,152049,9715,-0.138,0.989,0.262,-1.28,-1.524,0.305,339.137
131989,152062,11895,-0.138,0.985,0.266,-1.28,-1.524,0.305,339.143
132006,152049,9715,-0.137,0.98,0.269,-1.524,-1.159,0,339.147
132006,152053,11892,-0.14,0.978,0.269,-1.524,-1.159,0,339.153
132008,152305,9715,-0.141,0.979,0.267,-0.793,-0.549,-0.244,339.157
132008,152097,11888,-0.139,0.984,0.268,-0.793,-0.549,-0.244,339.163
132018,152305,9715,-0.136,0.986,0.267,-0.061,0.183,-0.427,339.167
132018,152109,11894,-0.142,0.987,0.254,-0.061,0.183,-0.427,339.173
132027,152305,9715,-0.148,0.979,0.258,0.366,0.549,-0.61,339.177
132027,152106,11891,-0.145,0.971,0.261,0.366,0.549,-0.61,339.183
132033,152305,9715,-0.145,0.967,0.263,0.793,0.671,-0.244,339.187
132033,152093,11912,-0.147,0.975,0.259,0.793,0.671,-0.244,339.193
132038,152305,9715,-0.147,0.981,0.255,1.524,0.915,0.061,339.196
132038,152115,11897,-0.145,0.988,0.262,1.524,0.915,0.061,339.203
132031,152305,9715,-0.145,0.988,0.262,1.524,0.915,0.061,339.206
132031,152105,11908,-0.145,0.993,0.263,0.915,0.732,0.244,339.213
132038,152305,9715,-0.145,0.993,0.263,0.915,0.732,0.244,339.216
132038,152095,11891,-0.141,0.995,0.258,-0.305,0.427,0.61,339.222
132054,152305,9715,-0.141,0.995,0.258,-0.305,0.427,0.61,339.226
132054,152124,11910,-0.138,0.995,0.262,-0.549,0.305,0.183,339.232
132037,152305,9715,-0.138,0.995,0.262,-0.549,0.305,0.183,339.236
132037,152112,11884,-0.143,0.979,0.255,-0.732,0.183,0,339.242
132028,152305,9715,-0.143,0.979,0.255,-0.732,0.183,0,339.246
132028,152150,11899,-0.136,0.993,0.258,-0.793,0.061,0,339.252
132062,152305,9715,-0.136,0.993,0.258,-0.793,0.061,0,339.256
132062,152121,11906,-0.145,0.986,0.267,-0.427,0.061,-0.305,339.262
132045,152305,9715,-0.145,0.986,0.267,-0.427,0.061,-0.305,339.266
132045,152132,11892,-0.149,0.969,0.264,-0.915,0.671,-0.061,339.272
132058,152305,9715,-0.149,0.969,0.264,-0.915,0.671,-0.061,339.276
132058,152122,11886,-0.142,0.973,0.272,-0.854,0.976,0.061,339.282
132047,152305,9715,-0.142,0.973,0.272,-0.854,0.976,0.061,339.286
132047,152134,11890,-0.148,0.967,0.252,0.793,1.402,0,339.292
132076,152305,9715,-0.148,0.967,0.252,0.793,1.402,0,339.295
132076,152141,11895,-0.144,1.004,0.256,2.622,1.707,0.061,339.302
132071,152305,9715,-0.144,1.004,0.256,2.622,1.707,0.061,339.305
132071,152137,11902,-0.147,1,0.251,1.89,1.524,0.061,339.311
132072,152305,9715,-0.147,1,0.251,1.89,1.524,0.061,339.315
132072,152121,11891,-0.148,0.992,0.249,0.183,0.732,0.366,339.321
132081,152305,9715,-0.148,0.992,0.249,0.183,0.732,0.366,339.325
132081,152132,11916,-0.137,0.995,0.256,-1.159,-0.122,0.732,339.331
132085,152305,9715,-0.137,0.995,0.256,-1.159,-0.122,0.732,339.335
132085,152115,11911,-0.15,0.983,0.257,-1.341,-0.366,0.366,339.341
132064,152305,9715,-0.15,0.983,0.257,-1.341,-0.366,0.366,339.345
132064,152143,11899,-0.143,0.982,0.255,-1.22,-0.793,-0.061,339.351
132077,152305,9715,-0.139,0.987,0.264,-1.22,-0.793,-0.061,339.355
132077,152141,11903,-0.139,0.985,0.271,-0.793,-0.427,0.061,339.361
132058,152305,9715,-0.141,0.982,0.278,-0.793,-0.427,0.061,339.365
132058,152117,11898,-0.144,0.976,0.28,-0.061,0.793,0.305,339.371
132042,152305,9715,-0.144,0.974,0.273,-0.061,0.793,0.305,339.375
132042,152122,11896,-0.145,0.971,0.267,0.366,1.402,0.183,339.381
132066,152305,9715,-0.146,0.967,0.249,0.366,1.402,0.183,339.385
132066,152113,11884,-0.144,0.966,0.245,0.854,1.098,0.122,339.391
132067,152305,9715,-0.145,0.978,0.242,0.854,1.098,0.122,339.394
132067,152113,11902,-0.145,0.99,0.24,0.488,0.488,0.366,339.401
132084,152305,9715,-0.147,0.999,0.246,0.488,0.488,0.366,339.404
132084,152106,11888,-0.149,1.003,0.251,-1.037,-0.732,0.427,339.41
132089,152305,9715,-0.145,1.004,0.259,-1.037,-0.732,0.427,339.414
132089,152122,11904,-0.143,0.999,0.266,-2.256,-1.524,0.732,339.42
132093,152305,9715,-0.143,0.994,0.272,-2.256,-1.524,0.732,339.424
132093,152124,11893,-0.138,0.997,0.278,-1.524,-1.037,0.732,339.43
132111,152305,9715,-0.133,0.996,0.278,-1.524,-1.037,0.732,339.434
132111,152135,11898,-0.134,0.997,0.276,-0.305,0.122,0.244,339.44
132088,152305,9715,-0.138,0.997,0.272,-0.305,0.122,0.244,339.444
132088,152108,11889,-0.143,0.977,0.271,-0.183,1.463,-0.183,339.45
132090,152305,9715,-0.145,0.955,0.27,-0.183,1.463,-0.183,339.454
132090,152106,11897,-0.143,0.949,0.256,0.366,1.768,-0.305,339.46
132096,152305,9715,-0.141,0.961,0.25,0.366,1.768,-0.305,339.464
132096,152101,11896,-0.136,0.975,0.252,1.89,1.707,-0.183,339.47
132090,152305,9715,-0.145,0.988,0.252,1.89,1.707,-0.183,339.474
132090,152105,11891,-0.149,0.99,0.247,1.707,1.646,0,339.48
132100,152305,9715,-0.152,0.987,0.244,1.707,1.646,0,339.484
132100,152114,11884,-0.153,0.989,0.247,0.427,0.732,0.366,339.49
132090,152305,9715,-0.146,1,0.251,0.427,0.732,0.366,339.493
132090,152097,11892,-0.14,1.011,0.261,-0.854,-0.244,0.732,339.5
132102,152305,9715,-0.144,1.009,0.266,-0.854,-0.244,0.732,339.503
132102,152099,11899,-0.146,0.997,0.27,-1.159,0.061,0.671,339.509
132090,152305,9715,-0.147,0.989,0.268,-1.159,0.061,0.671,339.513
132090,152101,11900,-0.147,0.99,0.274,-0.488,0.732,0.793,339.519
132108,152305,9715,-0.147,0.992,0.28,-0.488,0.732,0.793,339.523
132108,152108,11890,-0.143,0.982,0.267,0,1.28,0.427,339.529
132116,152305,9715,-0.139,0.981,0.254,0,1.28,0.427,339.533
132116,152150,11893,-0.139,0.985,0.249,0.549,1.037,-0.671,339.539
132118,152305,9715,-0.138,0.977,0.245,0.549,1.037,-0.671,339.543
132118,152170,11898,-0.14,0.971,0.241,0.061,0.427,-0.549,339.549
132130,152305,9715,-0.148,0.968,0.243,0.061,0.427,-0.549,339.553
132130,152156,11884,-0.147,0.979,0.246,-0.427,0,0,339.559
132140,152305,9715,-0.142,0.99,0.248,-0.427,0,0,339.563
132140,152195,11900,-0.145,0.995,0.25,-0.854,-0.488,0.183,339.569
132146,152305,9715,-0.15,1,0.25,-0.854,-0.488,0.183,339.573
132146,152133,11888,-0.151,0.996,0.253,-2.073,-1.159,0.549,339.579
132124,152305,9715,-0.15,0.986,0.259,-2.073,-1.159,0.549,339.583
132124,152167,11897,-0.146,0.986,0.27,-2.866,-1.463,0.732,339.589
132141,152305,9715,-0.144,0.989,0.275,-2.866,-1.463,0.732,339.592
132141,152145,11895,-0.137,0.989,0.283,-1.829,-0.488,1.098,339.599
132137,152305,9715,-0.139,0.98,0.289,-1.829,-0.488,1.098,339.602
132137,152159,11905,-0.145,0.97,0.291,-0.427,1.341,1.341,339.609
132147,152305,9715,-0.146,0.963,0.283,-0.427,1.341,1.341,339.612
132147,152160,11884,-0.142,0.967,0.273,1.341,2.5,1.037,339.618
132173,152305,9715,-0.132,0.982,0.267,1.341,2.5,1.037,339.622
132173,152169,11891,-0.132,0.987,0.258,2.683,2.805,0.244,339.628
132164,152305,9715,-0.14,0.982,0.251,2.683,2.805,0.244,339.632
132164,152202,11908,-0.141,0.984,0.252,2.012,2.378,0.183,339.638
132190,152305,9715,-0.14,0.986,0.245,2.012,2.378,0.183,339.642
132190,152243,11903,-0.144,0.987,0.236,0.488,1.463,0.427,339.648
132184,152305,9715,-0.142,0.998,0.238,0.488,1.463,0.427,339.652
132184,152242,11925,-0.143,1.01,0.249,-0.61,0.427,0.61,339.658
132189,152305,9715,-0.15,1.009,0.242,-0.61,0.427,0.61,339.662
132189,152215,11884,-0.151,1.005,0.246,-1.585,-0.427,0.366,339.668
132188,152305,9715,-0.147,1.004,0.256,-1.585,-0.427,0.366,339.672
132188,152222,11904,-0.147,1,0.265,-2.012,-0.854,0.427,339.678
132182,152305,9715,-0.153,0.984,0.275,-2.012,-0.854,0.427,339.682
132182,152200,11908,-0.152,0.976,0.277,-1.768,-0.061,0.793,339.688
132211,152305,9715,-0.144,0.978,0.269,-1.768,-0.061,0.793,339.691
132211,152256,11915,-0.142,0.974,0.269,-0.122,0.793,0.366,339.698
132238,152305,9715,-0.148,0.974,0.268,-0.122,0.793,0.366,339.701
132238,152265,11902,-0.15,0.969,0.264,0.915,1.646,0,339.707
132218,152305,9715,-0.145,0.961,0.258,0.915,1.646,0,339.711
132218,152246,11915,-0.141,0.966,0.257,1.463,1.341,0.183,339.717
132226,152305,9715,-0.14,0.98,0.252,1.463,1.341,0.183,339.721
132226,152238,11909,-0.142,0.987,0.243,1.341,0.854,0.61,339.727
132238,152305,9715,-0.143,0.987,0.235,1.341,0.854,0.61,339.731
132238,152226,11896,-0.151,0.996,0.233,0.549,-0.061,0.671,339.737
132197,152305,9715,-0.15,1.005,0.238,0.549,-0.061,0.671,339.741
132197,152228,11916,-0.137,1.022,0.248,-1.585,-1.646,0.915,339.747
132216,152305,9715,-0.139,1.016,0.26,-1.585,-1.646,0.915,339.751
132216,152226,11907,-0.147,0.999,0.274,-4.024,-2.134,1.402,339.757
132192,152305,9715,-0.147,0.986,0.287,-4.024,-2.134,1.402,339.761
132192,152204,11907,-0.139,0.979,0.291,-3.476,-1.646,1.22,339.767
132197,152305,9715,-0.128,0.981,0.288,-3.476,-1.646,1.22,339.771
132197,152226,11909,-0.129,0.977,0.288,-0.305,-0.122,0.244,339.777
132192,152305,9715,-0.141,0.978,0.279,-0.305,-0.122,0.244,339.781
132192,152213,11906,-0.145,0.98,0.267,2.134,2.012,-0.366,339.787
132229,152305,9715,-0.145,0.98,0.267,2.134,2.012,-0.366,339.79
132229,152263,11916,-0.143,0.967,0.254,1.707,1.89,-0.61,339.797
132244,152305,9715,-0.143,0.967,0.254,1.707,1.89,-0.61,339.8
132244,152270,11901,-0.144,0.966,0.244,1.463,1.524,0,339.807
132228,152305,9715,-0.144,0.966,0.244,1.463,1.524,0,339.81
132228,152262,11912,-0.145,1.003,0.244,0.976,0.976,0.427,339.816
132225,152305,9715,-0.145,1.003,0.244,0.976,0.976,0.427,339.82
132225,152268,11927,-0.147,1.011,0.257,-1.402,-0.305,0.244,339.826
132225,152305,9715,-0.147,1.011,0.257,-1.402,-0.305,0.244,339.83
132225,152242,11910,-0.145,1.004,0.266,-2.927,-0.976,0.671,339.836
132238,152305,9715,-0.145,1.004,0.266,-2.927,-0.976,0.671,339.84
132238,152235,11906,-0.142,0.984,0.274,-2.317,-0.732,0.427,339.846
132242,152305,9715,-0.142,0.984,0.274,-2.317,-0.732,0.427,339.85
132242,152223,11909,-0.144,0.968,0.277,-0.427,0,0.183,339.856
132245,152305,9715,-0.144,0.968,0.277,-0.427,0,0.183,339.86
132245,152224,11921,-0.135,0.982,0.266,1.951,0.854,-0.305,339.866
132248,152305,9715,-0.135,0.982,0.266,1.951,0.854,-0.305,339.87
132248,152242,11932,-0.143,0.976,0.27,1.707,1.768,-0.488,339.876
132279,152305,9715,-0.143,0.976,0.27,1.707,1.768,-0.488,339.88
132279,152264,11904,-0.142,0.96,0.271,0.671,1.585,0.061,339.886
132275,152305,9715,-0.142,0.96,0.271,0.671,1.585,0.061,339.889
132275,152311,11916,-0.135,0.978,0.251,0.854,1.098,0.122,339.896
132289,152305,9715,-0.135,0.978,0.251,0.854,1.098,0.122,339.899
132289,152319,11899,-0.147,0.992,0.234,1.646,1.098,-0.183,339.905
132284,152305,9715,-0.147,0.992,0.234,1.646,1.098,-0.183,339.909
132284,152298,11921,-0.15,1.024,0.239,0.427,0.305,-0.244,339.915
132250,152305,9715,-0.15,1.024,0.239,0.427,0.305,-0.244,339.919
132250,152292,11923,-0.154,1.004,0.251,-1.646,-1.037,0.061,339.925
132273,152305,9715,-0.154,1.004,0.251,-1.646,-1.037,0.061,339.929
132273,152285,11916,-0.161,0.978,0.256,-2.317,-1.463,0.427,339.935
132253,152305,9715,-0.161,0.978,0.256,-2.317,-1.463,0.427,339.939
132253,152287,11913,-0.152,0.979,0.263,-2.317,-1.463,0.427,339.945
132253,152305,9715,-0.142,0.988,0.273,-1.159,-1.463,0.122,339.949
132253,152280,11922,-0.146,0.993,0.282,-1.159,-1.463,0.122,339.955
132279,152561,9715,-0.151,0.981,0.285,0,0.366,0.732,339.959
132279,152320,11917,-0.148,0.964,0.278,0,0.366,0.732,339.965
132289,152561,9715,-0.146,0.965,0.27,1.037,1.768,1.341,339.969
132289,152336,11926,-0.134,0.979,0.264,1.037,1.768,1.341,339.975
132284,152561,9715,-0.133,0.984,0.249,1.463,2.073,0.61,339.979
132284,152341,11902,-0.137,0.981,0.244,1.463,2.073,0.61,339.985
132262,152305,9715,-0.141,0.977,0.249,1.341,1.585,0.61,339.988
132262,152311,11924,-0.144,0.982,0.248,1.341,1.585,0.61,339.995
132291,152561,9715,-0.139,0.99,0.251,0.488,0.427,0.671,339.998
132291,152329,11912,-0.136,1.004,0.254,0.488,0.427,0.671,340.005
132280,152561,9715,-0.141,1.002,0.251,-0.244,-0.488,0.366,340.008
132280,152342,11923,-0.143,1.003,0.253,-0.244,-0.488,0.366,340.014
132293,152561,9715,-0.142,1.005,0.262,-0.976,-1.037,0.061,340.018
132293,152344,11901,-0.143,0.997,0.267,-0.976,-1.037,0.061,340.024
132278,152561,9715,-0.146,0.983,0.27,-1.524,-0.915,0.305,340.028
132278,152338,11922,-0.147,0.979,0.272,-1.524,-0.915,0.305,340.034
132297,152561,9715,-0.142,0.979,0.274,-0.793,-0.427,0.061,340.038
132297,152385,11924,-0.143,0.974,0.277,-0.793,-0.427,0.061,340.044
132329,152561,9715,-0.144,0.967,0.279,0.793,0.549,-0.183,340.048
132329,152387,11927,-0.151,0.964,0.266,0.793,0.549,-0.183,340.054
132323,152561,9715,-0.144,0.975,0.255,2.744,1.28,0,340.058
132323,152391,11905,-0.138,0.991,0.249,2.744,1.28,0,340.064
132285,152561,9715,-0.144,0.992,0.242,3.049,1.22,-0.305,340.068
132285,152365,11911,-0.15,0.992,0.242,3.049,1.22,-0.305,340.074
132304,152561,9715,-0.146,0.989,0.246,1.22,0.305,-0.061,340.078
132304,152337,11906,-0.145,0.985,0.245,1.22,0.305,-0.061,340.084
132292,152561,9715,-0.146,0.992,0.249,-0.671,-0.976,0.488,340.087
132292,152349,11923,-0.141,0.999,0.255,-0.671,-0.976,0.488,340.094
132295,152561,9715,-0.139,0.995,0.264,-1.463,-1.463,0.671,340.097
132295,152333,11909,-0.141,0.992,0.264,-1.463,-1.463,0.671,340.104
132297,152561,9715,-0.144,0.987,0.268,-1.28,-0.976,0.427,340.107
132297,152350,11918,-0.145,0.99,0.276,-1.28,-0.976,0.427,340.113
132314,152561,9715,-0.14,0.987,0.279,-0.488,-0.061,0.427,340.117
132314,152342,11918,-0.14,0.978,0.269,-0.488,-0.061,0.427,340.123
132325,152561,9715,-0.14,0.979,0.262,0.793,0.793,0.305,340.127
132325,152351,11928,-0.14,0.985,0.267,0.793,0.793,0.305,340.133
132323,152561,9715,-0.14,0.986,0.264,1.341,1.646,0.122,340.137
132323,152367,11908,-0.143,0.982,0.265,1.341,1.646,0.122,340.143
132310,152561,9715,-0.146,0.976,0.26,0.854,1.829,0.244,340.147
132310,152336,11928,-0.147,0.974,0.258,0.854,1.829,0.244,340.153
132323,152561,9715,-0.147,0.987,0.256,1.28,1.585,0.549,340.157
132323,152336,11926,-0.142,0.995,0.256,1.28,1.585,0.549,340.163
132317,152561,9715,-0.142,0.993,0.246,1.524,1.22,0.244,340.167
132317,152338,11922,-0.149,0.996,0.249,1.524,1.22,0.244,340.173
132313,152305,9715,-0.15,1.001,0.261,0.915,0.61,-0.061,340.177
132313,152292,11912,-0.145,0.999,0.258,0.915,0.61,-0.061,340.183
132298,152305,9715,-0.142,0.983,0.256,-0.183,0.122,0.305,340.186
132298,152268,11924,-0.146,0.975,0.259,-0.183,0.122,0.305,340.193
132304,152305,9715,-0.145,0.979,0.261,0.122,0.061,0.366,340.196
132304,152249,11928,-0.145,0.986,0.264,0.122,0.061,0.366,340.203
132308,152305,9715,-0.142,0.985,0.264,0.671,0.366,-0.122,340.206
132308,152267,11937,-0.148,0.976,0.26,0.671,0.366,-0.122,340.212
132335,152305,9715,-0.146,0.975,0.252,1.22,0.61,-0.061,340.216
132335,152282,11928,-0.142,0.979,0.247,1.22,0.61,-0.061,340.222
132346,152305,9715,-0.142,0.983,0.245,1.098,0.305,0.183,340.226
132346,152294,11929,-0.147,0.991,0.248,1.098,0.305,0.183,340.232
132364,152561,9715,-0.15,0.992,0.251,0,0.122,0.183,340.236
132364,152329,11934,-0.154,0.991,0.252,0,0.122,0.183,340.242
132345,152561,9715,-0.152,1.002,0.251,-0.793,-0.427,0.427,340.246
132345,152343,11936,-0.149,1.016,0.249,-0.793,-0.427,0.427,340.252
132349,152561,9715,-0.145,1.015,0.248,-1.463,-0.976,0.793,340.256
132349,152342,11942,-0.147,1.002,0.25,-1.463,-0.976,0.793,340.262
132357,152561,9715,-0.151,0.982,0.252,-2.378,-1.402,0.854,340.266
132357,152366,11940,-0.148,0.98,0.261,-2.378,-1.402,0.854,340.272
132377,152561,9715,-0.137,0.986,0.272,-2.378,-1.89,0.671,340.276
132377,152360,11926,-0.131,0.989,0.275,-2.378,-1.89,0.671,340.282
132356,152561,9715,-0.13,0.983,0.277,-0.244,-1.037,0.305,340.285
132356,152375,11948,-0.134,0.973,0.281,-0.244,-1.037,0.305,340.292
132376,152305,9715,-0.137,0.966,0.278,0.732,0,-0.183,340.295
132376,152316,11937,-0.133,0.965,0.276,0.732,0,-0.183,340.302
132375,152561,9715,-0.133,0.963,0.274,1.646,0.671,-0.549,340.305
132375,152338,11935,-0.135,0.969,0.259,1.646,0.671,-0.549,340.311
132394,152561,9715,-0.141,0.971,0.249,3.11,1.28,-0.549,340.315
132394,152349,11932,-0.149,0.974,0.242,3.11,1.28,-0.549,340.321
132378,152561,9715,-0.151,0.986,0.239,2.317,0.732,-0.793,340.325
132378,152349,11961,-0.151,0.999,0.237,2.317,0.732,-0.793,340.331
132363,152305,9715,-0.155,1.003,0.237,0.549,-0.549,-0.061,340.335
132363,152279,11943,-0.157,1.007,0.24,0.549,-0.549,-0.061,340.341
132339,152305,9715,-0.154,1.012,0.246,-1.524,-1.28,1.159,340.345
132339,152232,11953,-0.152,1.005,0.25,-1.524,-1.28,1.159,340.351
132328,152305,9715,-0.15,1,0.252,-2.805,-1.951,1.463,340.355
132328,152212,11954,-0.148,0.993,0.262,-2.805,-1.951,1.463,340.361
132360,152305,9715,-0.146,0.992,0.269,-2.134,-1.646,1.402,340.365
132360,152199,11949,-0.143,0.982,0.273,-2.134,-1.646,1.402,340.371
132379,152305,9715,-0.144,0.975,0.275,0.122,-0.549,1.098,340.375
132379,152221,11950,-0.138,0.985,0.285,0.122,-0.549,1.098,340.381
132370,152305,9715,-0.138,0.985,0.285,0.122,-0.549,1.098,340.384
132370,152248,11969,-0.136,0.976,0.297,1.585,1.22,0.854,340.391
132398,152305,9715,-0.136,0.976,0.297,1.585,1.22,0.854,340.394
132398,152276,11951,-0.138,0.955,0.262,2.378,3.354,0.732,340.401
132385,152305,9715,-0.138,0.955,0.262,2.378,3.354,0.732,340.404
132385,152294,11963,-0.129,0.981,0.22,3.476,3.171,-0.061,340.41
132395,152305,9715,-0.129,0.981,0.22,3.476,3.171,-0.061,340.414
132395,152267,11972,-0.149,1.013,0.223,3.049,2.195,-0.244,340.42
132385,152305,9715,-0.149,1.013,0.223,3.049,2.195,-0.244,340.424
132385,152277,11966,-0.151,1.014,0.238,0.427,1.037,0.183,340.43
132414,152305,9715,-0.151,1.014,0.238,0.427,1.037,0.183,340.434
132414,152249,11933,-0.143,1.002,0.263,-3.232,-1.646,0.549,340.44
132377,152305,9715,-0.143,1.002,0.263,-3.232,-1.646,0.549,340.444
132377,152239,11948,-0.132,1.005,0.266,-4.39,-2.439,0.793,340.45
132392,152305,9715,-0.132,1.005,0.266,-4.39,-2.439,0.793,340.454
132392,152238,11952,-0.152,0.972,0.281,-3.11,-0.366,0.244,340.46
132393,152305,9715,-0.152,0.972,0.281,-3.11,-0.366,0.244,340.464
132393,152268,11965,-0.137,0.955,0.279,-1.89,1.89,0.061,340.47
132413,152305,9715,-0.137,0.955,0.279,-1.89,1.89,0.061,340.474
132413,152294,11968,-0.14,0.959,0.266,-0.549,2.866,0.305,340.48
132416,152305,9715,-0.14,0.959,0.266,-0.549,2.866,0.305,340.483
132416,152273,11963,-0.147,0.97,0.235,1.707,3.963,0.427,340.49
132374,152305,9715,-0.147,0.97,0.235,1.707,3.963,0.427,340.493
132374,152229,11947,-0.151,0.998,0.221,2.439,3.293,-0.122,340.5
132386,152305,9715,-0.151,0.998,0.221,2.439,3.293,-0.122,340.503
132386,152212,11977,-0.156,1.012,0.226,0.549,1.463,0.488,340.509
132380,152305,9715,-0.156,1.012,0.226,0.549,1.463,0.488,340.513
132380,152194,11962,-0.151,1.01,0.252,-2.683,-1.402,1.159,340.519
132397,152305,9715,-0.151,1.01,0.252,-2.683,-1.402,1.159,340.523
132397,152198,11983,-0.147,0.996,0.266,-4.756,-3.232,1.463,340.529
132398,152305,9715,-0.143,0.989,0.278,-4.756,-3.232,1.463,340.533
132398,152218,11967,-0.133,0.993,0.286,-3.476,-2.805,1.159,340.539
132412,152305,9715,-0.129,0.996,0.291,-3.476,-2.805,1.159,340.543
132412,152181,11978,-0.137,0.99,0.293,-1.28,-0.366,0.61,340.549
132422,152305,9715,-0.145,0.971,0.287,-1.28,-0.366,0.61,340.553
132422,152199,11985,-0.147,0.956,0.271,0.732,1.524,0.183,340.559
132421,152305,9715,-0.141,0.951,0.255,0.732,1.524,0.183,340.563
132421,152175,11973,-0.135,0.961,0.245,1.768,1.463,-0.366,340.569
132404,152305,9715,-0.136,0.979,0.241,1.768,1.463,-0.366,340.573
132404,152189,11997,-0.147,0.987,0.24,2.073,1.707,-0.122,340.579
132402,152305,9715,-0.154,0.983,0.241,2.073,1.707,-0.122,340.582
132402,152152,11984,-0.15,0.988,0.242,0.366,0.366,0.244,340.589
132404,152305,9715,-0.145,1.002,0.239,0.366,0.366,0.244,340.592
132404,152107,11994,-0.143,1.01,0.244,-2.134,-1.829,0.732,340.599
132393,152305,9715,-0.143,1.009,0.254,-2.134,-1.829,0.732,340.602
132393,152086,11978,-0.147,1.003,0.26,-3.293,-2.195,1.037,340.608
132388,152049,9715,-0.148,0.991,0.259,-3.293,-2.195,1.037,340.612
132388,152044,11981,-0.145,0.988,0.268,-3.049,-2.134,0.854,340.618
132375,152049,9715,-0.14,0.988,0.285,-3.049,-2.134,0.854,340.622
132375,152049,11984,-0.142,0.985,0.299,-1.159,-0.854,0.793,340.628
132399,152305,9715,-0.137,0.977,0.302,-1.159,-0.854,0.793,340.632
132399,152067,11994,-0.139,0.974,0.292,1.524,1.28,0.366,340.638
132441,152305,9715,-0.138,0.976,0.28,1.524,1.28,0.366,340.642
132441,152078,11982,-0.137,0.971,0.264,2.805,2.317,-0.305,340.648
132437,152305,9715,-0.138,0.967,0.254,2.805,2.317,-0.305,340.652
132437,152112,11991,-0.138,0.962,0.242,2.805,2.256,-0.427,340.658
132460,152305,9715,-0.137,0.967,0.238,2.805,2.256,-0.427,340.662
132460,152088,11983,-0.141,0.975,0.241,2.378,1.707,0,340.668
132441,152305,9715,-0.148,0.987,0.235,2.378,1.707,0,340.672
132441,152099,11979,-0.149,1.002,0.234,1.402,0.549,0.244,340.678
132411,152049,9715,-0.148,1.019,0.243,1.402,0.549,0.244,340.681
132411,152055,11985,-0.145,1.026,0.246,-0.732,-1.098,0.488,340.688
132395,152049,9715,-0.148,1.014,0.249,-0.732,-1.098,0.488,340.691
132395,151982,11982,-0.152,0.998,0.256,-2.561,-1.89,0.732,340.698
132381,152049,9715,-0.151,0.986,0.272,-2.561,-1.89,0.732,340.701
132381,151950,11978,-0.145,0.991,0.281,-2.5,-1.646,0.671,340.707
132396,152049,9715,-0.141,0.991,0.283,-2.5,-1.646,0.671,340.711
132396,151995,11984,-0.139,0.977,0.283,0.061,-0.183,0.244,340.717
132420,152049,9715,-0.145,0.968,0.28,0.061,-0.183,0.244,340.721
132420,152023,11992,-0.15,0.956,0.269,2.378,1.646,-0.122,340.727
132442,152305,9715,-0.149,0.96,0.258,2.378,1.646,-0.122,340.731
132442,152103,11985,-0.134,0.978,0.253,3.415,1.89,-0.061,340.737
132486,152305,9715,-0.131,0.979,0.253,3.415,1.89,-0.061,340.741
132486,152181,11974,-0.143,0.968,0.245,2.134,1.951,0.488,340.747
132501,152305,9715,-0.15,0.965,0.25,2.134,1.951,0.488,340.751
132501,152230,11984,-0.145,0.981,0.252,1.098,1.463,0.793,340.757
132508,152305,9715,-0.137,1,0.244,1.098,1.463,0.793,340.761
132508,152276,11971,-0.141,1.014,0.236,0.976,0.183,0.488,340.767
132522,152305,9715,-0.147,1.021,0.237,0.976,0.183,0.488,340.771
132522,152293,11970,-0.152,1.022,0.241,0.183,-0.732,0.183,340.777
132528,152305,9715,-0.148,1.014,0.246,0.183,-0.732,0.183,340.78
132528,152317,11964,-0.146,1.005,0.252,-2.134,-2.012,0.305,340.787
132525,152305,9715,-0.145,0.997,0.259,-2.134,-2.012,0.305,340.79
132525,152292,11968,-0.14,0.984,0.269,-2.988,-2.317,0.549,340.797
132561,152561,9715,-0.141,0.974,0.278,-2.988,-2.317,0.549,340.8
132561,152369,11971,-0.136,0.971,0.281,-1.89,-1.159,0.183,340.806
132587,152561,9715,-0.131,0.969,0.281,-1.89,-1.159,0.183,340.81
132587,152408,11964,-0.138,0.97,0.284,0.183,0.976,0.061,340.816
132613,152561,9715,-0.143,0.964,0.277,0.183,0.976,0.061,340.82
132613,152450,11978,-0.148,0.968,0.267,1.89,2.988,0.366,340.826
132612,152561,9715,-0.144,0.974,0.261,1.89,2.988,0.366,340.83
132612,152493,11967,-0.138,0.977,0.26,2.195,2.988,0,340.836
132612,152561,9715,-0.143,0.978,0.256,2.195,2.988,0,340.84
132612,152501,11968,-0.149,0.98,0.244,2.134,2.805,0.427,340.846
132581,152561,9715,-0.15,0.996,0.238,2.134,2.805,0.427,340.85
132581,152480,11972,-0.147,1.011,0.225,1.098,1.707,0.854,340.856
132622,152561,9715,-0.145,1.022,0.231,1.098,1.707,0.854,340.86
132622,152488,11965,-0.146,1.027,0.241,-0.976,-0.244,0.305,340.866
132602,152561,9715,-0.141,1.023,0.252,-0.976,-0.244,0.305,340.87
132602,152516,11979,-0.144,1.004,0.259,-3.049,-1.463,0,340.876
132618,152561,9715,-0.143,0.983,0.257,-3.049,-1.463,0,340.879
132618,152491,11972,-0.142,0.965,0.26,-3.293,-1.707,-0.061,340.886
132652,152561,9715,-0.142,0.963,0.268,-3.293,-1.707,-0.061,340.889
132652,152493,11989,-0.139,0.963,0.272,-1.22,-0.976,-0.427,340.896
132676,152561,9715,-0.139,0.966,0.274,-1.22,-0.976,-0.427,340.899
132676,152513,11981,-0.132,0.98,0.285,1.159,0.366,-0.61,340.905
132656,152561,9715,-0.134,0.982,0.297,1.159,0.366,-0.61,340.909
132656,152517,11985,-0.145,0.971,0.296,1.646,3.049,0.305,340.915
132654,152561,9715,-0.152,0.961,0.285,1.646,3.049,0.305,340.919
132654,152504,11976,-0.147,0.962,0.266,2.805,4.329,0.915,340.925
132640,152561,9715,-0.135,0.983,0.246,2.805,4.329,0.915,340.929
132640,152473,11988,-0.135,0.993,0.233,2.866,3.171,0.183,340.935
132603,152561,9715,-0.139,0.989,0.227,2.866,3.171,0.183,340.939
132603,152464,11982,-0.149,0.998,0.224,1.341,2.195,0.549,340.945
132598,152561,9715,-0.152,1.008,0.223,1.341,2.195,0.549,340.949
132598,152431,11968,-0.147,1.016,0.235,-0.793,0.732,1.098,340.955
132615,152561,9715,-0.144,1.023,0.245,-0.793,0.732,1.098,340.959
132615,152436,11980,-0.143,1.018,0.253,-2.622,-0.793,0.793,340.965
132616,152561,9715,-0.143,1.018,0.253,-2.622,-0.793,0.793,340.969
132616,152434,11992,-0.152,0.98,0.272,-2.744,-0.854,0.488,340.975
132634,152561,9715,-0.152,0.98,0.272,-2.744,-0.854,0.488,340.978
132634,152422,11982,-0.143,0.98,0.272,0,-0.061,0.183,340.985
132653,152561,9715,-0.143,0.98,0.272,0,-0.061,0.183,340.988
132653,152416,11984,-0.149,0.986,0.276,2.256,1.768,-0.061,340.995
132634,152561,9715,-0.149,0.986,0.276,2.256,1.768,-0.061,340.998
132634,152439,11995,-0.152,0.964,0.259,2.073,2.5,-0.122,341.004
132615,152561,9715,-0.152,0.964,0.259,2.073,2.5,-0.122,341.008
132615,152368,11988,-0.14,0.961,0.24,1.037,1.524,0.183,341.014
132595,152561,9715,-0.14,0.961,0.24,1.037,1.524,0.183,341.018
132595,152349,11979,-0.136,0.979,0.231,0.244,0.244,0.732,341.024
132592,152305,9715,-0.136,0.979,0.231,0.244,0.244,0.732,341.028
132592,152312,11984,-0.148,1.015,0.227,-0.671,-0.305,0.854,341.034
132578,152305,9715,-0.148,1.015,0.227,-0.671,-0.305,0.854,341.038
132578,152318,11993,-0.147,1.035,0.252,-3.171,-1.768,0.976,341.044
132594,152305,9715,-0.147,1.035,0.252,-3.171,-1.768,0.976,341.048
132594,152285,11998,-0.147,0.993,0.266,-5.366,-2.744,1.28,341.054
132585,152305,9715,-0.147,0.993,0.266,-5.366,-2.744,1.28,341.058
132585,152301,11986,-0.134,0.976,0.284,-3.171,-2.134,0.732,341.064
132596,152305,9715,-0.134,0.976,0.284,-3.171,-2.134,0.732,341.068
132596,152271,11998,-0.14,0.975,0.295,0.793,0.366,-0.122,341.074
132606,152305,9715,-0.14,0.975,0.295,0.793,0.366,-0.122,341.077
132606,152290,11995,-0.137,0.971,0.274,3.171,2.622,-0.488,341.084
132625,152305,9715,-0.137,0.971,0.274,3.171,2.622,-0.488,341.087
132625,152288,11997,-0.141,0.967,0.256,3.415,3.354,-0.366,341.093
132620,152561,9715,-0.141,0.967,0.256,3.415,3.354,-0.366,341.097
132620,152339,12000,-0.143,0.974,0.248,2.256,2.988,0.061,341.103
132610,152305,9715,-0.143,0.974,0.248,2.256,2.988,0.061,341.107
132610,152318,11984,-0.143,0.976,0.249,2.256,2.988,0.061,341.113
132591,152305,9715,-0.145,0.979,0.242,1.341,2.256,0.793,341.117
132591,152319,11997,-0.153,0.984,0.225,1.341,2.256,0.793,341.123
132579,152305,9715,-0.153,1.008,0.218,0.854,0.976,0.915,341.127
132579,152288,11993,-0.148,1.039,0.236,0.854,0.976,0.915,341.133
132580,152305,9715,-0.142,1.043,0.249,-1.768,-0.854,0.427,341.137
132580,152243,11992,-0.151,1.016,0.252,-1.768,-0.854,0.427,341.143
132560,152305,9715,-0.155,0.992,0.257,-3.659,-1.768,0,341.147
132560,152243,12004,-0.15,0.981,0.255,-3.659,-1.768,0,341.153
132575,152305,9715,-0.146,0.974,0.265,-2.622,-1.524,0.122,341.157
132575,152236,11993,-0.142,0.969,0.269,-2.622,-1.524,0.122,341.163
132583,152305,9715,-0.145,0.968,0.268,-0.244,-0.305,0.244,341.167
132583,152247,11998,-0.145,0.965,0.269,-0.244,-0.305,0.244,341.173
132597,152305,9715,-0.139,0.97,0.263,1.22,0.61,0.122,341.176
132597,152205,11988,-0.142,0.975,0.259,1.22,0.61,0.122,341.183
132581,152305,9715,-0.143,0.977,0.256,1.524,1.28,0.488,341.186
132581,152237,12017,-0.144,0.982,0.256,1.524,1.28,0.488,341.193
132582,152305,9715,-0.144,0.986,0.255,1.341,1.22,0.793,341.196
132582,152257,11990,-0.138,0.994,0.249,1.341,1.22,0.793,341.202
132556,152305,9715,-0.137,1.003,0.246,0.732,0.488,0.793,341.206
132556,152200,11997,-0.141,1.016,0.247,0.732,0.488,0.793,341.212
132517,152305,9715,-0.144,1.009,0.245,-0.732,-0.427,0.305,341.216
132517,152201,12005,-0.145,0.996,0.237,-0.732,-0.427,0.305,341.222
132532,152305,9715,-0.147,0.992,0.242,-1.951,-1.707,-0.244,341.226
132532,152158,11989,-0.14,0.999,0.261,-1.951,-1.707,-0.244,341.232
132526,152305,9715,-0.135,1.005,0.274,-2.744,-1.768,-0.244,341.236
132526,152181,11978,-0.144,0.99,0.27,-2.744,-1.768,-0.244,341.242
132544,152305,9715,-0.151,0.972,0.266,-1.585,-0.549,-0.061,341.246
132544,152191,11982,-0.149,0.963,0.268,-1.585,-0.549,-0.061,341.252
132560,152305,9715,-0.149,0.968,0.27,-0.122,0.122,0,341.256
132560,152215,11987,-0.144,0.97,0.264,-0.122,0.122,0,341.262
132561,152305,9715,-0.144,0.972,0.264,1.463,0.549,-0.122,341.266
132561,152233,11992,-0.144,0.976,0.264,1.463,0.549,-0.122,341.272
132556,152305,9715,-0.143,0.984,0.261,2.561,1.463,0.183,341.275
132556,152242,11987,-0.142,0.983,0.257,2.561,1.463,0.183,341.282
132545,152305,9715,-0.135,0.975,0.252,1.524,1.463,0.488,341.285
132545,152233,11968,-0.142,0.977,0.244,1.524,1.463,0.488,341.291
132518,152305,9715,-0.142,0.984,0.248,0.854,0.854,0.61,341.295
132518,152196,12003,-0.135,0.994,0.253,0.854,0.854,0.61,341.301
132533,152305,9715,-0.138,0.997,0.248,0.122,0.244,0.549,341.305
132533,152191,11986,-0.145,0.996,0.247,0.122,0.244,0.549,341.311
132514,152305,9715,-0.146,1.001,0.248,-0.732,-0.61,0.366,341.315
132514,152181,11982,-0.145,1.013,0.252,-0.732,-0.61,0.366,341.321
132545,152305,9715,-0.143,1.016,0.253,-1.28,-1.098,0.183,341.325
132545,152172,11984,-0.146,1.004,0.254,-1.28,-1.098,0.183,341.331
132566,152305,9715,-0.149,0.989,0.266,-1.829,-1.159,0.061,341.335
132566,152222,11991,-0.146,0.976,0.27,-1.829,-1.159,0.061,341.341
132564,152305,9715,-0.143,0.97,0.272,-1.463,-0.366,0.305,341.345
132564,152236,11986,-0.14,0.969,0.274,-1.463,-0.366,0.305,341.351
132592,152305,9715,-0.142,0.968,0.269,0.488,0.671,0.244,341.355
132592,152227,11976,-0.142,0.968,0.27,0.488,0.671,0.244,341.361
132558,152305,9715,-0.142,0.969,0.269,1.951,1.829,0.366,341.365
132558,152232,11988,-0.142,0.974,0.261,1.951,1.829,0.366,341.371
132538,152305,9715,-0.145,0.981,0.257,2.866,2.744,0.549,341.374
132538,152196,11983,-0.145,0.976,0.259,2.866,2.744,0.549,341.381
132542,152305,9715,-0.148,0.978,0.246,2.805,2.622,0.671,341.384
132542,152223,11986,-0.146,0.989,0.239,2.805,2.622,0.671,341.391
132532,152305,9715,-0.143,0.999,0.236,1.951,1.524,0.488,341.394
132532,152229,11978,-0.148,1.008,0.233,1.951,1.524,0.488,341.4
132522,152305,9715,-0.152,1.012,0.235,0.427,0.549,0.183,341.404
132522,152204,11966,-0.151,1.015,0.239,0.427,0.549,0.183,341.41
132572,152305,9715,-0.148,1.013,0.239,-1.951,-1.22,0.183,341.414
132572,152234,11980,-0.147,1.01,0.246,-1.951,-1.22,0.183,341.42
132562,152305,9715,-0.143,1.003,0.256,-3.78,-2.439,0.488,341.424
132562,152272,11977,-0.142,0.988,0.263,-3.78,-2.439,0.488,341.43
132577,152305,9715,-0.148,0.976,0.266,-3.415,-1.951,0.488,341.434
132577,152260,11993,-0.147,0.975,0.274,-3.415,-1.951,0.488,341.44
132586,152305,9715,-0.138,0.975,0.278,-1.402,-0.854,0.244,341.444
132586,152273,11976,-0.133,0.974,0.276,-1.402,-0.854,0.244,341.45
132557,152305,9715,-0.134,0.973,0.269,0.671,0.671,0.122,341.454
132557,152270,11980,-0.143,0.97,0.269,0.671,0.671,0.122,341.46
132583,152305,9715,-0.141,0.966,0.266,1.22,2.012,0.244,341.464
132583,152283,11975,-0.141,0.97,0.264,1.22,2.012,0.244,341.47
132566,152305,9715,-0.142,0.978,0.266,1.463,2.378,0.183,341.473
132566,152262,11977,-0.141,0.981,0.259,1.463,2.378,0.183,341.48
132541,152305,9715,-0.146,0.98,0.245,1.585,2.439,0.122,341.483
132541,152219,11994,-0.148,0.991,0.238,1.585,2.439,0.122,341.49
132574,152305,9715,-0.147,1.006,0.24,0.915,1.707,0.244,341.493
132574,152195,11995,-0.15,1.012,0.246,0.915,1.707,0.244,341.499
132535,152305,9715,-0.15,1.005,0.25,-0.366,0.427,0.244,341.503
132535,152163,11999,-0.149,0.999,0.248,-0.366,0.427,0.244,341.509
132566,152305,9715,-0.148,0.994,0.255,-1.402,-0.793,0.366,341.513
132566,152196,11992,-0.147,0.991,0.262,-1.402,-0.793,0.366,341.519
132542,152305,9715,-0.142,0.986,0.27,-1.159,-0.854,0.427,341.523
132542,152173,11990,-0.136,0.984,0.267,-1.159,-0.854,0.427,341.529
132556,152305,9715,-0.135,0.985,0.267,0.549,0.061,0.305,341.533
132556,152157,11988,-0.137,0.986,0.264,0.549,0.061,0.305,341.539
132530,152305,9715,-0.145,0.977,0.261,1.28,1.402,-0.061,341.543
132530,152091,11991,-0.147,0.971,0.261,1.28,1.402,-0.061,341.549
132529,152305,9715,-0.147,0.971,0.261,1.28,1.402,-0.061,341.553
132529,152077,11992,-0.143,0.972,0.25,0.61,1.829,0.061,341.559
132518,152305,9715,-0.143,0.972,0.25,0.61,1.829,0.061,341.562
132518,152069,12003,-0.143,0.986,0.245,0.732,1.098,0.061,341.569
132509,152305,9715,-0.143,0.986,0.245,0.732,1.098,0.061,341.572
132509,152065,11998,-0.152,0.99,0.242,0.671,1.037,0.061,341.579
132482,152049,9715,-0.152,0.99,0.242,0.671,1.037,0.061,341.582
132482,152053,11995,-0.148,0.997,0.252,0,0.549,0.183,341.588
132505,152049,9715,-0.148,0.997,0.252,0,0.549,0.183,341.592
132505,152017,11999,-0.151,0.999,0.255,-0.488,-0.427,0.549,341.598
132502,152049,9715,-0.151,0.999,0.255,-0.488,-0.427,0.549,341.602
132502,152028,11997,-0.151,0.996,0.264,-0.549,-0.61,0.549,341.608
132506,152049,9715,-0.151,0.996,0.264,-0.549,-0.61,0.549,341.612
132506,152013,11998,-0.141,0.988,0.261,-0.671,-0.244,0.793,341.618
132493,152049,9715,-0.141,0.988,0.261,-0.671,-0.244,0.793,341.622
132493,152011,12017,-0.146,0.986,0.26,-0.183,0.244,0.854,341.628
132501,152049,9715,-0.146,0.986,0.26,-0.183,0.244,0.854,341.632
132501,152008,12008,-0.142,0.976,0.254,0.244,0.854,0.488,341.638
132506,152049,9715,-0.142,0.976,0.254,0.244,0.854,0.488,341.642
132506,151974,11989,-0.141,0.982,0.254,0.366,0.488,0.305,341.648
132471,152049,9715,-0.141,0.982,0.254,0.366,0.488,0.305,341.652
132471,151969,11987,-0.143,0.981,0.26,0.427,0.183,0.488,341.658
132454,152049,9715,-0.143,0.981,0.26,0.427,0.183,0.488,341.662
132454,151959,11998,-0.144,0.99,0.25,0.549,0.244,0.305,341.668
132443,152049,9715,-0.144,0.99,0.25,0.549,0.244,0.305,341.671
132443,151914,11987,-0.149,0.989,0.251,0.671,0.305,0.061,341.678
132437,152049,9715,-0.149,0.989,0.251,0.671,0.305,0.061,341.681
132437,151931,12005,-0.143,0.998,0.26,0.061,-0.244,0.305,341.688
132449,152049,9715,-0.143,0.998,0.26,0.061,-0.244,0.305,341.691
132449,151946,11995,-0.143,0.992,0.261,-0.427,-0.488,0.366,341.697
132466,152049,9715,-0.143,0.987,0.267,-0.427,-0.488,0.366,341.701
132466,151927,12024,-0.142,0.98,0.266,0.427,0.183,0.366,341.707
132505,152049,9715,-0.141,0.974,0.264,0.427,0.183,0.366,341.711
132505,151976,11995,-0.145,0.981,0.262,1.829,0.793,0.366,341.717
132493,152049,9715,-0.142,0.996,0.257,1.829,0.793,0.366,341.721
132493,151982,12014,-0.138,0.998,0.256,1.707,1.159,0,341.727
132502,152049,9715,-0.142,0.991,0.259,1.707,1.159,0,341.731
132502,151984,11996,-0.146,0.979,0.262,0.793,1.524,0.305,341.737
132483,152049,9715,-0.147,0.976,0.253,0.793,1.524,0.305,341.741
132483,151971,11987,-0.145,0.988,0.244,1.159,1.159,0.488,341.747
132492,152049,9715,-0.139,0.999,0.246,1.159,1.159,0.488,341.751
132492,151964,12018,-0.145,0.996,0.249,1.28,0.793,-0.122,341.757
132453,152049,9715,-0.149,0.99,0.246,1.28,0.793,-0.122,341.76
132453,151943,12009,-0.151,0.985,0.245,0.671,0.488,-0.183,341.767
132426,152049,9715,-0.151,0.986,0.25,0.671,0.488,-0.183,341.77
132426,151890,12003,-0.15,0.986,0.253,-0.305,-0.183,0.305,341.777
132434,152049,9715,-0.145,0.989,0.252,-0.305,-0.183,0.305,341.78
132434,151897,12004,-0.145,0.988,0.257,-0.793,-0.671,0.488,341.786
132438,152049,9715,-0.144,0.984,0.262,-0.793,-0.671,0.488,341.79
132438,151871,11994,-0.141,0.981,0.263,-0.305,-0.244,0.549,341.796
132463,152049,9715,-0.143,0.987,0.255,-0.305,-0.244,0.549,341.8
132463,151896,11991,-0.138,0.997,0.251,0.549,0.122,0.244,341.806
132451,152049,9715,-0.143,1.002,0.255,0.549,0.122,0.244,341.81
132451,151857,12015,-0.144,0.993,0.254,0.671,0.427,-0.183,341.816
132433,152049,9715,-0.145,0.982,0.249,0.671,0.427,-0.183,341.82
132433,151879,12009,-0.145,0.983,0.249,0.122,0.488,0.122,341.826
132419,152049,9715,-0.148,0.988,0.249,0.122,0.488,0.122,341.83
132419,151847,12010,-0.147,0.991,0.246,-0.427,0.122,0.366,341.836
132411,152049,9715,-0.147,0.993,0.245,-0.427,0.122,0.366,341.84
132411,151839,12014,-0.149,0.994,0.253,-1.28,-0.488,0.305,341.846
132388,152049,9715,-0.147,0.986,0.255,-1.28,-0.488,0.305,341.85
132388,151813,12017,-0.151,0.98,0.252,-1.829,-0.61,0.854,341.856
132391,151793,9715,-0.142,0.984,0.249,-1.829,-0.61,0.854,341.859
132391,151802,12015,-0.138,0.991,0.254,-1.463,-0.976,0.793,341.866
132386,151793,9715,-0.14,0.993,0.259,-1.463,-0.976,0.793,341.869
132386,151788,12012,-0.146,0.986,0.261,-0.915,-0.549,0.488,341.876
132411,151793,9715,-0.147,0.981,0.259,-0.915,-0.549,0.488,341.879
132411,151797,12011,-0.146,0.981,0.257,-0.305,-0.183,0.61,341.885
132415,151793,9715,-0.139,0.983,0.262,-0.305,-0.183,0.61,341.889
132415,151790,12007,-0.143,0.982,0.259,-0.549,-0.061,0.732,341.895
132406,151793,9715,-0.144,0.976,0.253,-0.549,-0.061,0.732,341.899
132406,151787,12025,-0.143,0.975,0.259,-0.183,0.183,0.61,341.905
132401,151793,9715,-0.14,0.983,0.26,-0.183,0.183,0.61,341.909
132401,151756,12012,-0.14,0.986,0.258,0.122,0.366,0.549,341.915
132398,151793,9715,-0.142,0.99,0.26,0.122,0.366,0.549,341.919
132398,151725,11999,-0.147,0.988,0.253,0.732,0.61,0.549,341.925
132392,151793,9715,-0.145,0.987,0.25,0.732,0.61,0.549,341.929
132392,151715,12024,-0.141,0.997,0.25,0.793,0.366,0.427,341.935
132380,151793,9715,-0.141,1.005,0.249,0.793,0.366,0.427,341.939
132380,151711,12012,-0.144,0.998,0.247,-0.122,-0.061,0.244,341.945
132372,151793,9715,-0.149,0.989,0.252,-0.122,-0.061,0.244,341.949
132372,151702,12012,-0.15,0.986,0.256,-0.732,-0.366,0.244,341.955
132387,151793,9715,-0.145,0.986,0.261,-0.732,-0.366,0.244,341.958
132387,151709,12024,-0.144,0.983,0.261,-0.488,-0.488,0.305,341.965
132357,151793,9715,-0.141,0.984,0.261,-0.488,-0.488,0.305,341.968
132357,151728,12017,-0.139,0.989,0.267,0.671,0.183,0.183,341.975
132372,151793,9715,-0.135,0.983,0.27,0.671,0.183,0.183,341.978
132372,151701,12016,-0.141,0.978,0.267,1.829,1.646,0.427,341.984
132371,151793,9715,-0.146,0.982,0.256,1.829,1.646,0.427,341.988
132371,151710,12018,-0.141,0.986,0.249,2.988,2.805,0.488,341.994
132372,151793,9715,-0.146,0.989,0.245,2.988,2.805,0.488,341.998
132372,151664,12017,-0.145,0.994,0.24,2.378,2.317,0.061,342.004
132339,151793,9715,-0.144,0.994,0.242,2.378,2.317,0.061,342.008
132339,151666,12007,-0.147,0.994,0.244,0.671,1.159,0.061,342.014
132307,151793,9715,-0.148,0.995,0.246,0.671,1.159,0.061,342.018
132307,151624,12014,-0.144,0.995,0.247,-0.549,0.183,0.61,342.024
132312,151793,9715,-0.145,0.993,0.249,-0.549,0.183,0.61,342.028
132312,151607,12011,-0.143,0.991,0.248,-1.402,-0.854,0.366,342.034
132296,151793,9715,-0.145,0.988,0.252,-1.402,-0.854,0.366,342.038
132296,151577,11994,-0.147,0.984,0.255,-1.829,-1.159,0.244,342.044
132274,151793,9715,-0.148,0.981,0.265,-1.829,-1.159,0.244,342.048
132274,151569,12007,-0.139,0.985,0.268,-1.402,-0.976,0.488,342.054
132293,151793,9715,-0.136,0.986,0.264,-1.402,-0.976,0.488,342.057
132293,151566,12001,-0.137,0.986,0.261,0.122,-0.061,0.488,342.064
132273,151793,9715,-0.141,0.984,0.254,0.122,-0.061,0.488,342.067
132273,151558,12016,-0.143,0.986,0.254,1.341,0.976,0.244,342.074
132293,151537,9715,-0.145,0.984,0.26,1.341,0.976,0.244,342.077
132293,151521,12013,-0.145,0.981,0.257,1.098,1.402,0.061,342.083
132268,151537,9715,-0.14,0.983,0.25,1.098,1.402,0.061,342.087
132268,151487,12005,-0.142,0.993,0.246,0.915,1.159,0.122,342.093
132248,151537,9715,-0.145,0.992,0.241,0.915,1.159,0.122,342.097
132248,151482,12016,-0.151,0.993,0.239,0.427,0.732,0,342.103
132272,151537,9715,-0.149,0.999,0.245,0.427,0.732,0,342.107
132272,151508,12029,-0.15,0.999,0.245,-1.28,-0.366,-0.183,342.113
132260,151537,9715,-0.151,0.994,0.247,-1.28,-0.366,-0.183,342.117
132260,151512,12007,-0.149,0.986,0.254,-2.5,-1.28,0.366,342.123
132292,151537,9715,-0.148,0.975,0.265,-2.5,-1.28,0.366,342.127
132292,151514,12010,-0.145,0.968,0.266,-1.768,-1.28,0.671,342.133
132292,151537,9715,-0.144,0.97,0.271,-1.768,-1.28,0.671,342.137
132292,151503,12011,-0.139,0.979,0.273,0.549,-0.366,0.427,342.143
132288,151537,9715,-0.139,0.979,0.273,0.549,-0.366,0.427,342.147
132288,151503,12007,-0.135,0.979,0.272,2.073,1.098,0.183,342.153
132272,151537,9715,-0.135,0.979,0.272,2.073,1.098,0.183,342.156
132272,151450,12017,-0.147,0.971,0.249,3.171,2.317,0.366,342.163
132261,151537,9715,-0.147,0.971,0.249,3.171,2.317,0.366,342.166
132261,151448,12013,-0.139,1.009,0.244,2.988,1.768,-0.122,342.173
132262,151537,9715,-0.139,1.009,0.244,2.988,1.768,-0.122,342.176
132262,151446,12035,-0.148,1.009,0.244,1.22,1.098,-0.305,342.182
132264,151537,9715,-0.148,1.009,0.244,1.22,1.098,-0.305,342.186
132264,151466,12026,-0.146,1,0.242,-0.976,0.183,-0.122,342.192
132263,151537,9715,-0.146,1,0.242,-0.976,0.183,-0.122,342.196
132263,151474,12018,-0.145,0.994,0.25,-1.463,-0.671,-0.183,342.202
132256,151537,9715,-0.145,0.994,0.25,-1.463,-0.671,-0.183,342.206
132256,151429,12030,-0.144,0.979,0.252,-0.793,-0.671,-0.366,342.212
132264,151537,9715,-0.144,0.979,0.252,-0.793,-0.671,-0.366,342.216
132264,151436,12013,-0.146,0.972,0.259,0.427,-0.061,-0.122,342.222
132240,151537,9715,-0.146,0.972,0.259,0.427,-0.061,-0.122,342.226
132240,151428,12043,-0.142,0.982,0.265,2.256,1.28,0.122,342.232
132273,151537,9715,-0.142,0.982,0.265,2.256,1.28,0.122,342.236
132273,151412,12021,-0.152,0.98,0.263,3.232,2.622,0.488,342.242
132252,151537,9715,-0.152,0.98,0.263,3.232,2.622,0.488,342.246
132252,151408,12035,-0.151,0.98,0.242,2.317,2.683,0.671,342.252
132254,151537,9715,-0.151,0.98,0.242,2.317,2.683,0.671,342.255
132254,151429,12017,-0.14,0.994,0.236,1.037,1.463,0.61,342.262
132226,151537,9715,-0.14,0.994,0.236,1.037,1.463,0.61,342.265
132226,151382,12024,-0.146,0.994,0.229,-0.61,0.183,0.732,342.272
132193,151537,9715,-0.146,0.994,0.229,-0.61,0.183,0.732,342.275
132193,151301,12030,-0.144,1.016,0.247,-1.646,-1.098,0.427,342.281
132197,151281,9715,-0.144,1.016,0.247,-1.646,-1.098,0.427,342.285
132197,151268,12031,-0.141,1.019,0.254,-1.646,-1.098,0.427,342.291
132166,151281,9715,-0.142,1.006,0.252,-2.744,-1.951,0.122,342.295
132166,151281,12045,-0.144,0.988,0.256,-2.744,-1.951,0.122,342.301
132178,151281,9715,-0.144,0.979,0.257,-2.561,-1.951,0.183,342.305
132178,151291,12035,-0.141,0.976,0.26,-2.561,-1.951,0.183,342.311
132197,151281,9715,-0.138,0.975,0.262,-1.524,-1.22,-0.122,342.315
132197,151290,12034,-0.138,0.973,0.253,-1.524,-1.22,-0.122,342.321
132205,151537,9715,-0.144,0.972,0.252,0.305,-0.122,-0.305,342.325
132205,151316,12043,-0.144,0.979,0.256,0.305,-0.122,-0.305,342.331
132199,151281,9715,-0.139,0.985,0.257,0.549,0.61,-0.122,342.335
132199,151291,12042,-0.144,0.981,0.249,0.549,0.61,-0.122,342.341
132185,151281,9715,-0.148,0.979,0.25,0.061,1.037,0.244,342.345
132185,151263,12047,-0.149,0.981,0.243,0.061,1.037,0.244,342.351
132197,151281,9715,-0.149,0.986,0.247,-0.122,0.671,0.305,342.354
132197,151254,12043,-0.144,0.986,0.258,-0.122,0.671,0.305,342.361
132178,151281,9715,-0.145,0.986,0.258,0.122,-0.244,0.305,342.364
132178,151220,12044,-0.148,0.99,0.254,0.122,-0.244,0.305,342.371
132176,151281,9715,-0.146,1.004,0.256,0.427,0,0.671,342.374
132176,151210,12037,-0.142,1.019,0.259,0.427,0,0.671,342.38
132162,151281,9715,-0.138,1.013,0.26,-0.244,0.061,0.366,342.384
132162,151208,12037,-0.144,0.989,0.251,-0.244,0.061,0.366,342.39
132154,151281,9715,-0.149,0.971,0.253,-0.366,0.427,0.488,342.394
132154,151210,12040,-0.145,0.974,0.255,-0.366,0.427,0.488,342.4
132187,151281,9715,-0.138,0.982,0.26,-0.427,0.488,0.549,342.404
132187,151215,12043,-0.132,0.985,0.259,-0.427,0.488,0.549,342.41
132180,151281,9715,-0.132,0.981,0.264,0.122,0.732,0.244,342.414
132180,151223,12041,-0.144,0.974,0.263,0.122,0.732,0.244,342.42
132182,151281,9715,-0.143,0.972,0.257,0.976,1.707,0.183,342.424
132182,151214,12042,-0.142,0.974,0.261,0.976,1.707,0.183,342.43
132199,151281,9715,-0.14,0.981,0.254,1.768,2.073,0.061,342.434
132199,151209,12048,-0.142,0.987,0.239,1.768,2.073,0.061,342.44
132146,151281,9715,-0.149,0.997,0.233,2.439,2.256,-0.183,342.444
132146,151148,12045,-0.152,1.012,0.23,2.439,2.256,-0.183,342.45
132116,151281,9715,-0.154,1.01,0.226,0.854,1.159,-0.244,342.453
132116,151115,12053,-0.158,1.004,0.231,0.854,1.159,-0.244,342.46
132117,151281,9715,-0.158,1.005,0.237,-1.768,-0.793,0.122,342.463
132117,151088,12047,-0.147,1.005,0.246,-1.768,-0.793,0.122,342.47
132097,151281,9715,-0.143,0.995,0.254,-3.537,-2.256,0.488,342.473
132097,151071,12051,-0.144,0.986,0.257,-3.537,-2.256,0.488,342.479
132117,151281,9715,-0.145,0.977,0.26,-2.744,-2.073,0.427,342.483
132117,151063,12038,-0.144,0.973,0.265,-2.744,-2.073,0.427,342.489
132095,151281,9715,-0.144,0.968,0.265,-1.524,-1.037,0.366,342.493
132095,151083,12055,-0.141,0.977,0.27,-1.524,-1.037,0.366,342.499
132102,151281,9715,-0.133,0.979,0.269,-0.183,-0.122,0.488,342.503
132102,151069,12056,-0.134,0.974,0.267,-0.183,-0.122,0.488,342.509
132128,151281,9715,-0.143,0.968,0.262,0.915,1.159,0.549,342.513
132128,151084,12049,-0.148,0.972,0.249,0.915,1.159,0.549,342.519
132106,151281,9715,-0.147,0.988,0.241,1.768,1.585,0.244,342.523
132106,151040,12056,-0.141,1.006,0.24,1.768,1.585,0.244,342.529
132084,151025,9715,-0.147,1.011,0.236,1.159,0.854,0.122,342.533
132084,151006,12045,-0.151,1.003,0.233,1.159,0.854,0.122,342.539
132061,151025,9715,-0.157,1.001,0.233,-0.427,-0.488,0.122,342.543
132061,151006,12056,-0.15,1.011,0.236,-0.427,-0.488,0.122,342.549
132076,151025,9715,-0.144,1.015,0.24,-2.561,-1.768,0.305,342.552
132076,150987,12056,-0.144,1.003,0.249,-2.561,-1.768,0.305,342.559
132055,151025,9715,-0.146,0.991,0.256,-3.293,-2.073,0.427,342.562
132055,150990,12058,-0.145,0.98,0.264,-3.293,-2.073,0.427,342.569
132071,151025,9715,-0.144,0.966,0.266,-3.11,-1.341,0.61,342.572
132071,151002,12061,-0.144,0.959,0.272,-3.11,-1.341,0.61,342.578
132076,151025,9715,-0.141,0.959,0.266,-0.732,-0.427,0.549,342.582
132076,151015,12052,-0.141,0.969,0.263,-0.732,-0.427,0.549,342.588
132076,151025,9715,-0.141,0.982,0.262,1.524,0.671,0.366,342.592
132076,151006,12047,-0.138,0.986,0.266,1.524,0.671,0.366,342.598
132088,151025,9715,-0.141,0.981,0.259,2.134,1.646,0.61,342.602
132088,150971,12065,-0.149,0.978,0.253,2.134,1.646,0.61,342.608
132071,151025,9715,-0.149,0.983,0.248,1.89,1.951,1.037,342.612
132071,151008,12049,-0.144,0.991,0.242,1.89,1.951,1.037,342.618
132070,151025,9715,-0.145,0.994,0.238,0.793,0.976,0.732,342.622
132070,150945,12051,-0.148,1.001,0.236,0.793,0.976,0.732,342.628
132075,151025,9715,-0.149,1.007,0.237,-0.427,-0.244,0.427,342.632
132075,150980,12070,-0.144,1.005,0.241,-0.427,-0.244,0.427,342.638
132065,151025,9715,-0.142,1.005,0.254,-2.195,-1.341,0.549,342.642
132065,150983,12072,-0.139,1.002,0.255,-2.195,-1.341,0.549,342.648
132051,151025,9715,-0.14,0.996,0.261,-2.5,-1.463,0.305,342.651
132051,150959,12069,-0.145,0.989,0.271,-2.5,-1.463,0.305,342.658
132052,151025,9715,-0.145,0.976,0.275,-0.915,-0.366,0.183,342.661
132052,150920,12066,-0.143,0.963,0.262,-0.915,-0.366,0.183,342.668
132039,151025,9715,-0.143,0.971,0.253,1.402,0.671,0.305,342.671
132039,150901,12075,-0.143,0.988,0.251,1.402,0.671,0.305,342.677
132019,151025,9715,-0.144,0.991,0.245,2.134,1.28,-0.183,342.681
132019,150877,12066,-0.146,0.988,0.244,2.134,1.28,-0.183,342.687
132011,151025,9715,-0.149,0.985,0.245,0.793,0.854,-0.061,342.691
132011,150886,12078,-0.148,0.984,0.247,0.793,0.854,-0.061,342.697
132001,151025,9715,-0.146,0.982,0.245,-1.037,-0.305,0.793,342.701
132001,150842,12065,-0.143,0.988,0.251,-1.037,-0.305,0.793,342.707
131996,151025,9715,-0.14,0.999,0.254,-1.646,-0.976,0.915,342.711
131996,150822,12083,-0.142,1.001,0.252,-1.646,-0.976,0.915,342.717
131957,150769,9715,-0.146,0.999,0.248,-1.159,-1.098,0.122,342.721
131957,150767,12076,-0.143,1.006,0.258,-1.159,-1.098,0.122,342.727
131942,150769,9715,-0.143,1.006,0.258,-1.159,-1.098,0.122,342.731
131942,150734,12066,-0.142,1,0.26,-0.915,-0.976,-0.549,342.737
131929,150769,9715,-0.142,1,0.26,-0.915,-0.976,-0.549,342.741
131929,150711,12084,-0.147,0.968,0.255,-0.976,-0.427,-0.366,342.747
131961,150769,9715,-0.147,0.968,0.255,-0.976,-0.427,-0.366,342.75
131961,150727,12077,-0.146,0.967,0.248,-0.61,-0.427,-0.183,342.757
131956,150769,9715,-0.146,0.967,0.248,-0.61,-0.427,-0.183,342.76
131956,150750,12068,-0.145,0.976,0.25,-0.183,-0.549,-0.488,342.767
131950,150769,9715,-0.145,0.976,0.25,-0.183,-0.549,-0.488,342.77
131950,150731,12087,-0.146,0.988,0.253,0,-0.61,-0.122,342.776
131953,150769,9715,-0.146,0.988,0.253,0,-0.61,-0.122,342.78
131953,150734,12076,-0.146,0.998,0.264,-0.366,-0.305,0.732,342.786
131957,150769,9715,-0.146,0.998,0.264,-0.366,-0.305,0.732,342.79
131957,150737,12076,-0.145,0.993,0.265,-1.037,0.244,1.28,342.796
131921,150769,9715,-0.145,0.993,0.265,-1.037,0.244,1.28,342.8
131921,150698,12081,-0.133,0.989,0.268,-0.976,0.488,1.524,342.806
131927,150769,9715,-0.133,0.989,0.268,-0.976,0.488,1.524,342.81
131927,150702,12082,-0.132,0.998,0.271,0.61,0.976,0.976,342.816
131907,150769,9715,-0.132,0.998,0.271,0.61,0.976,0.976,342.82
131907,150687,12100,-0.14,0.979,0.253,1.829,2.195,-0.122,342.826
131922,150769,9715,-0.14,0.979,0.253,1.829,2.195,-0.122,342.83
131922,150698,12082,-0.143,0.978,0.245,2.561,2.805,-0.732,342.836
131916,150769,9715,-0.143,0.978,0.245,2.561,2.805,-0.732,342.84
131916,150690,12086,-0.148,0.979,0.242,2.012,2.378,-0.671,342.846
131934,150769,9715,-0.148,0.979,0.242,2.012,2.378,-0.671,342.849
131934,150760,12103,-0.156,0.983,0.241,1.463,1.646,-0.427,342.856
131953,150769,9715,-0.156,0.983,0.241,1.463,1.646,-0.427,342.859
131953,150740,12076,-0.156,0.991,0.235,0.61,1.037,-0.122,342.866
131943,150769,9715,-0.156,0.991,0.235,0.61,1.037,-0.122,342.869
131943,150744,12103,-0.157,0.998,0.234,-0.488,-0.061,0.305,342.875
131935,150769,9715,-0.156,1.002,0.24,-0.488,-0.061,0.305,342.879
131935,150730,12096,-0.152,1.005,0.254,-1.585,-0.915,1.037,342.885
131916,150769,9715,-0.148,1,0.259,-1.585,-0.915,1.037,342.889
131916,150710,12075,-0.144,0.99,0.269,-1.463,-0.976,1.585,342.895
131915,150769,9715,-0.141,0.982,0.271,-1.463,-0.976,1.585,342.899
131915,150685,12086,-0.138,0.978,0.269,0.183,0.122,1.646,342.905
131892,150769,9715,-0.141,0.98,0.258,0.183,0.122,1.646,342.909
131892,150665,12093,-0.139,0.987,0.255,2.195,1.463,0.671,342.915
131915,150769,9715,-0.141,0.992,0.245,2.195,1.463,0.671,342.919
131915,150693,12102,-0.146,0.99,0.243,2.378,1.463,0.183,342.925
131942,150769,9715,-0.14,0.981,0.24,2.378,1.463,0.183,342.929
131942,150732,12091,-0.137,0.978,0.242,1.28,0.366,0.488,342.935
131956,150769,9715,-0.145,0.989,0.243,1.28,0.366,0.488,342.939
131956,150743,12090,-0.146,0.998,0.244,-0.549,-0.488,0.244,342.945
131943,150769,9715,-0.145,0.998,0.243,-0.549,-0.488,0.244,342.948
131943,150740,12094,-0.146,0.995,0.246,-1.707,-1.22,0,342.955
131924,150769,9715,-0.146,0.987,0.251,-1.707,-1.22,0,342.958
131924,150745,12101,-0.147,0.989,0.255,-1.89,-1.646,0.488,342.965
131943,150769,9715,-0.142,0.988,0.262,-1.89,-1.646,0.488,342.968
131943,150706,12106,-0.141,0.989,0.262,-1.585,-1.159,0.488,342.974
131952,150769,9715,-0.142,0.991,0.263,-1.585,-1.159,0.488,342.978
131952,150737,12104,-0.141,0.991,0.256,-0.305,-0.183,0.244,342.984
131948,150769,9715,-0.141,0.989,0.255,-0.305,-0.183,0.244,342.988
131948,150742,12085,-0.147,0.982,0.256,0.61,0.671,0.122,342.994
131964,150769,9715,-0.148,0.977,0.251,0.61,0.671,0.122,342.998
131964,150731,12118,-0.146,0.985,0.251,1.037,0.915,0,343.004
131968,150769,9715,-0.141,0.987,0.259,1.037,0.915,0,343.008
131968,150719,12093,-0.141,0.984,0.258,0.793,0.793,0.122,343.014
131951,150769,9715,-0.142,0.979,0.258,0.793,0.793,0.122,343.018
131951,150712,12117,-0.146,0.976,0.252,0.61,1.22,0.488,343.024
131936,150769,9715,-0.146,0.982,0.251,0.61,1.22,0.488,343.028
131936,150699,12107,-0.147,0.983,0.25,0.488,1.22,0.244,343.034
131927,150769,9715,-0.146,0.989,0.245,0.488,1.22,0.244,343.038
131927,150662,12100,-0.146,0.995,0.25,0.122,0.427,0.122,343.044
131925,150769,9715,-0.146,0.995,0.246,0.122,0.427,0.122,343.047
131925,150660,12106,-0.145,0.996,0.252,-0.854,0.122,0.61,343.054
131905,150769,9715,-0.146,0.996,0.254,-0.854,0.122,0.61,343.057
131905,150659,12110,-0.148,0.99,0.251,-1.037,0,0.732,343.064
131919,150769,9715,-0.148,0.993,0.247,-1.037,0,0.732,343.067
131919,150646,12101,-0.146,1.004,0.253,-0.549,-0.366,0.427,343.073
131940,150769,9715,-0.142,1,0.25,-0.549,-0.366,0.427,343.077
131940,150661,12106,-0.143,0.987,0.249,-1.037,-0.488,0.305,343.083
131941,150769,9715,-0.146,0.978,0.249,-1.037,-0.488,0.305,343.087
131941,150667,12104,-0.15,0.975,0.253,-0.976,-0.549,0.366,343.093
131917,150769,9715,-0.142,0.982,0.249,-0.976,-0.549,0.366,343.097
131917,150663,12125,-0.137,0.989,0.256,-0.183,-0.549,0.366,343.103
131928,150769,9715,-0.139,0.991,0.258,-0.183,-0.549,0.366,343.107
131928,150661,12107,-0.146,0.984,0.259,0.244,0.366,0.366,343.113
131895,150769,9715,-0.146,0.983,0.26,0.244,0.366,0.366,343.117
131895,150673,12119,-0.138,0.978,0.268,-0.183,0.732,0.549,343.123
131901,150769,9715,-0.14,0.976,0.266,-0.183,0.732,0.549,343.127
131901,150658,12112,-0.146,0.982,0.26,0.549,1.402,0.732,343.133
131879,150769,9715,-0.145,0.988,0.261,0.549,1.402,0.732,343.137
131879,150678,12114,-0.141,0.99,0.256,1.768,2.073,0.488,343.143
131908,150769,9715,-0.143,0.99,0.25,1.768,2.073,0.488,343.146
131908,150657,12118,-0.145,0.995,0.241,1.829,1.829,0.061,343.153
131903,150769,9715,-0.146,1,0.236,1.829,1.829,0.061,343.156
131903,150699,12115,-0.149,1.006,0.239,0.915,0.976,0.061,343.163
131918,150769,9715,-0.146,1.001,0.242,0.915,0.976,0.061,343.166
131918,150696,12122,-0.147,0.991,0.241,-0.671,-0.366,0.244,343.172
131946,150769,9715,-0.148,0.987,0.25,-0.671,-0.366,0.244,343.176
131946,150702,12122,-0.144,0.989,0.25,-1.707,-1.098,0.366,343.182
131930,150769,9715,-0.146,0.984,0.246,-1.707,-1.098,0.366,343.186
131930,150675,12112,-0.147,0.979,0.25,-1.22,-1.098,0.244,343.192
131917,150769,9715,-0.149,0.979,0.254,-1.22,-1.098,0.244,343.196
131917,150648,12113,-0.144,0.978,0.25,-0.61,-0.854,0.244,343.202
131926,150769,9715,-0.141,0.978,0.254,-0.61,-0.854,0.244,343.206
131926,150647,12108,-0.141,0.989,0.256,-0.183,-0.488,0.549,343.212
131892,150769,9715,-0.136,0.989,0.262,-0.183,-0.488,0.549,343.216
131892,150675,12100,-0.136,0.977,0.263,0.061,0.183,0.671,343.222
131905,150769,9715,-0.145,0.97,0.254,0.061,0.183,0.671,343.226
131905,150682,12116,-0.149,0.979,0.25,1.463,1.22,0.732,343.232
131925,150769,9715,-0.143,0.991,0.247,1.463,1.22,0.732,343.236
131925,150672,12120,-0.142,0.995,0.251,1.707,1.098,0.366,343.242
131944,150769,9715,-0.146,0.991,0.241,1.707,1.098,0.366,343.245
131944,150691,12110,-0.152,0.991,0.238,0.793,0.244,0.427,343.252
131948,150769,9715,-0.148,1.004,0.242,0.793,0.244,0.427,343.255
131948,150679,12110,-0.142,1.007,0.245,-0.61,-0.793,0.671,343.262
131953,150769,9715,-0.143,1.003,0.243,-0.61,-0.793,0.671,343.265
131953,150686,12108,-0.144,1.004,0.248,-1.951,-1.463,0.549,343.271
131936,150769,9715,-0.144,1.006,0.257,-1.951,-1.463,0.549,343.275
131936,150691,12105,-0.141,1,0.254,-2.439,-0.976,0.427,343.281
131916,150769,9715,-0.142,0.994,0.252,-2.439,-0.976,0.427,343.285
131916,150641,12123,-0.145,0.986,0.249,-1.646,-0.671,0.183,343.291
131914,150769,9715,-0.141,0.973,0.257,-1.646,-0.671,0.183,343.295
131914,150632,12115,-0.141,0.973,0.263,-1.098,-0.122,-0.061,343.301
131916,150769,9715,-0.136,0.974,0.271,-1.098,-0.122,-0.061,343.305
131916,150627,12114,-0.136,0.973,0.273,-0.061,0.488,-0.122,343.311
131915,150769,9715,-0.136,0.973,0.273,-0.061,0.488,-0.122,343.315
131915,150649,12108,-0.136,0.968,0.265,1.524,1.402,0.122,343.321
131918,150769,9715,-0.136,0.968,0.265,1.524,1.402,0.122,343.325
131918,150667,12118,-0.141,0.969,0.257,2.256,2.439,0,343.331
131937,150769,9715,-0.141,0.969,0.257,2.256,2.439,0,343.335
131937,150670,12112,-0.149,0.979,0.241,2.927,2.378,0.183,343.341
131931,150769,9715,-0.149,0.979,0.241,2.927,2.378,0.183,343.344
131931,150654,12104,-0.145,1.023,0.231,1.707,1.037,0.244,343.351
131909,150769,9715,-0.145,1.023,0.231,1.707,1.037,0.244,343.354
131909,150655,12127,-0.147,1.022,0.243,-0.793,-0.244,0.061,343.361
131929,150769,9715,-0.147,1.022,0.243,-0.793,-0.244,0.061,343.364
131929,150673,12117,-0.148,0.998,0.251,-2.683,-0.793,0.488,343.37
131906,150769,9715,-0.148,0.998,0.251,-2.683,-0.793,0.488,343.374
131906,150670,12118,-0.145,0.997,0.25,-2.622,-1.037,0.549,343.38
131924,150769,9715,-0.145,0.997,0.25,-2.622,-1.037,0.549,343.384
131924,150671,12120,-0.142,0.975,0.258,-1.829,-0.915,0.061,343.39
131923,150769,9715,-0.142,0.975,0.258,-1.829,-0.915,0.061,343.394
131923,150663,12116,-0.144,0.957,0.263,-0.915,-0.183,0.183,343.4
131942,150769,9715,-0.144,0.957,0.263,-0.915,-0.183,0.183,343.404
131942,150695,12117,-0.139,0.976,0.255,0.366,0.366,0.305,343.41
131941,150769,9715,-0.139,0.976,0.255,0.366,0.366,0.305,343.414
131941,150680,12107,-0.141,0.982,0.259,1.159,1.037,0.183,343.42
131906,150769,9715,-0.141,0.982,0.259,1.159,1.037,0.183,343.424
131906,150673,12113,-0.151,0.985,0.239,1.098,1.037,0.244,343.43
131885,150769,9715,-0.151,0.985,0.239,1.098,1.037,0.244,343.434
131885,150612,12131,-0.139,1.016,0.242,0.366,0,0.427,343.44
131892,150769,9715,-0.139,1.016,0.242,0.366,0,0.427,343.443
131892,150583,12105,-0.146,0.993,0.251,-1.646,-0.915,0.366,343.45
131877,150769,9715,-0.146,0.993,0.251,-1.646,-0.915,0.366,343.453
131877,150619,12113,-0.149,0.99,0.253,-1.646,-0.915,0.366,343.46
131895,150769,9715,-0.139,1,0.257,-2.439,-1.22,0.366,343.463
131895,150599,12103,-0.133,1.001,0.269,-2.439,-1.22,0.366,343.469
131908,150769,9715,-0.135,0.995,0.268,-1.951,-0.732,0.244,343.473
131908,150637,12123,-0.138,0.979,0.266,-1.951,-0.732,0.244,343.479
131915,150769,9715,-0.141,0.969,0.271,-0.427,0.61,0,343.483
131915,150631,12122,-0.139,0.966,0.274,-0.427,0.61,0,343.489
131900,150769,9715,-0.14,0.962,0.272,1.341,2.195,-0.061,343.493
131900,150643,12125,-0.147,0.964,0.258,1.341,2.195,-0.061,343.499
131899,150769,9715,-0.15,0.972,0.253,3.902,3.171,-0.061,343.503
131899,150632,12125,-0.151,0.978,0.247,3.902,3.171,-0.061,343.509
131891,150769,9715,-0.153,0.987,0.234,4.146,2.866,0,343.513
131891,150601,12109,-0.149,0.995,0.231,4.146,2.866,0,343.519
131897,150769,9715,-0.151,0.999,0.231,1.89,1.524,0.366,343.523
131897,150588,12134,-0.153,1.005,0.237,1.89,1.524,0.366,343.529
131872,150769,9715,-0.149,1.002,0.242,-0.732,0.305,1.098,343.533
131872,150584,12125,-0.145,1.003,0.243,-0.732,0.305,1.098,343.539
131881,150769,9715,-0.145,0.997,0.246,-2.073,-0.61,1.28,343.542
131881,150574,12116,-0.145,1.002,0.255,-2.073,-0.61,1.28,343.549
131895,150769,9715,-0.139,1.01,0.262,-2.073,-0.976,0.976,343.552
131895,150564,12128,-0.137,1.003,0.266,-2.073,-0.976,0.976,343.559
131898,150769,9715,-0.136,0.982,0.268,-1.402,-0.305,0.732,343.562
131898,150572,12109,-0.136,0.97,0.263,-1.402,-0.305,0.732,343.568
131883,150769,9715,-0.14,0.969,0.262,0.732,1.28,0.549,343.572
131883,150580,12127,-0.143,0.973,0.252,0.732,1.28,0.549,343.578
131895,150769,9715,-0.143,0.982,0.247,2.561,1.951,-0.427,343.582
131895,150583,12127,-0.141,0.989,0.254,2.561,1.951,-0.427,343.588
131896,150769,9715,-0.144,0.984,0.254,2.195,1.951,-0.427,343.592
131896,150601,12136,-0.146,0.975,0.249,2.195,1.951,-0.427,343.598
131904,150769,9715,-0.145,0.978,0.24,0.732,1.524,0.305,343.602
131904,150583,12119,-0.142,0.983,0.238,0.732,1.524,0.305,343.608
131874,150769,9715,-0.151,0.994,0.233,0.427,0.854,0.183,343.612
131874,150589,12122,-0.151,1.002,0.238,0.427,0.854,0.183,343.618
131866,150769,9715,-0.146,1.014,0.248,-1.037,-0.488,0,343.622
131866,150546,12107,-0.144,1.014,0.256,-1.037,-0.488,0,343.628
131828,150513,9715,-0.144,1.001,0.259,-2.866,-0.854,0.61,343.632
131828,150495,12115,-0.145,0.981,0.268,-2.866,-0.854,0.61,343.638
131828,150513,9715,-0.144,0.974,0.268,-1.707,-0.122,0.671,343.641
131828,150490,12126,-0.142,0.981,0.258,-1.707,-0.122,0.671,343.648
131827,150513,9715,-0.143,0.99,0.253,1.159,1.159,0.244,343.651
131827,150500,12130,-0.145,0.998,0.249,1.159,1.159,0.244,343.658
131845,150513,9715,-0.146,0.995,0.248,2.073,1.89,-0.305,343.661
131845,150472,12117,-0.145,0.984,0.252,2.073,1.89,-0.305,343.667
131825,150513,9715,-0.147,0.975,0.25,0.671,1.28,0.244,343.671
131825,150489,12118,-0.144,0.965,0.244,0.671,1.28,0.244,343.677
131854,150513,9715,-0.14,0.967,0.242,-0.122,0.488,0.854,343.681
131854,150492,12131,-0.141,0.982,0.246,-0.122,0.488,0.854,343.687
131828,150513,9715,-0.14,0.999,0.252,-0.122,0.549,0.183,343.691
131828,150459,12130,-0.143,0.994,0.248,-0.122,0.549,0.183,343.697
131837,150513,9715,-0.154,0.982,0.241,-0.244,0.549,0.061,343.701
131837,150495,12125,-0.155,0.997,0.244,-0.244,0.549,0.061,343.707
131804,150513,9715,-0.14,1.017,0.25,-1.463,-0.122,0.793,343.711
131804,150462,12114,-0.136,1.012,0.258,-1.463,-0.122,0.793,343.717
131820,150513,9715,-0.144,0.986,0.266,-2.866,-0.183,0.854,343.721
131820,150455,12134,-0.149,0.965,0.268,-2.866,-0.183,0.854,343.727
131814,150513,9715,-0.148,0.963,0.261,-0.793,0.976,0.915,343.731
131814,150467,12114,-0.145,0.975,0.258,-0.793,0.976,0.915,343.737
131829,150513,9715,-0.141,0.988,0.249,2.073,1.829,0.549,343.74
131829,150470,12119,-0.142,0.991,0.242,2.073,1.829,0.549,343.747
131839,150513,9715,-0.147,0.993,0.241,2.683,1.707,-0.122,343.75
131839,150494,12125,-0.151,0.989,0.246,2.683,1.707,-0.122,343.757
131831,150513,9715,-0.149,0.986,0.24,0.427,0.854,0.488,343.76
131831,150523,12130,-0.147,0.99,0.24,0.427,0.854,0.488,343.766
131836,150513,9715,-0.143,0.999,0.244,-1.463,-0.366,0.854,343.77
131836,150498,12124,-0.143,1.001,0.248,-1.463,-0.366,0.854,343.776
131846,150513,9715,-0.141,1,0.252,-2.378,-1.037,0.488,343.78
131846,150461,12121,-0.146,0.998,0.251,-2.378,-1.037,0.488,343.786
131798,150513,9715,-0.145,0.994,0.251,-2.866,-1.22,0.427,343.79
131798,150414,12130,-0.142,0.996,0.254,-2.866,-1.22,0.427,343.796
131784,150513,9715,-0.139,0.996,0.259,-2.744,-0.976,0.549,343.8
131784,150408,12127,-0.135,0.992,0.274,-2.744,-0.976,0.549,343.806
131787,150513,9715,-0.135,0.975,0.273,-2.073,0.122,0.427,343.81
131787,150402,12111,-0.137,0.961,0.274,-2.073,0.122,0.427,343.816
131781,150513,9715,-0.14,0.957,0.269,0.732,2.134,0.427,343.82
131781,150416,12127,-0.144,0.968,0.262,0.732,2.134,0.427,343.826
131798,150513,9715,-0.145,0.984,0.253,3.598,3.476,-0.183,343.83
131798,150456,12119,-0.143,0.995,0.245,3.598,3.476,-0.183,343.836
131844,150513,9715,-0.146,0.997,0.244,3.659,3.293,-0.61,343.839
131844,150453,12125,-0.15,0.999,0.246,3.659,3.293,-0.61,343.846
131805,150513,9715,-0.145,1,0.25,2.073,2.622,0.122,343.849
131805,150466,12125,-0.144,1.001,0.247,2.073,2.622,0.122,343.856
131797,150513,9715,-0.146,0.993,0.238,0.915,1.89,0.305,343.859
131797,150419,12118,-0.148,0.99,0.234,0.915,1.89,0.305,343.865
131780,150513,9715,-0.147,0.996,0.238,0.671,1.463,0,343.869
131780,150417,12119,-0.146,0.996,0.251,0.671,1.463,0,343.875
131777,150513,9715,-0.149,0.986,0.264,-0.427,1.22,-0.122,343.879
131777,150378,12110,-0.153,0.974,0.261,-0.427,1.22,-0.122,343.885
131740,150513,9715,-0.148,0.962,0.256,-0.488,0.793,0.366,343.889
131740,150376,12112,-0.138,0.967,0.249,-0.488,0.793,0.366,343.895
131748,150513,9715,-0.135,0.981,0.248,1.159,0.61,0.122,343.899
131748,150359,12108,-0.139,0.99,0.246,1.159,0.61,0.122,343.905
131761,150513,9715,-0.139,0.99,0.246,1.159,0.61,0.122,343.909
131761,150402,12131,-0.15,0.987,0.248,1.951,1.585,0,343.915
131775,150513,9715,-0.15,0.987,0.248,1.951,1.585,0,343.919
131775,150386,12116,-0.142,1.004,0.244,1.646,1.646,0.366,343.925
131769,150513,9715,-0.142,1.004,0.244,1.646,1.646,0.366,343.929
131769,150389,12106,-0.149,0.993,0.243,0.305,0.854,0.549,343.935
131766,150513,9715,-0.149,0.993,0.243,0.305,0.854,0.549,343.938
131766,150358,12117,-0.15,0.99,0.23,0.244,0.61,0.366,343.945
131763,150513,9715,-0.15,0.99,0.23,0.244,0.61,0.366,343.948
131763,150369,12108,-0.146,1.009,0.241,-0.244,0,0.122,343.955
131796,150513,9715,-0.146,1.009,0.241,-0.244,0,0.122,343.958
131796,150369,12115,-0.153,0.98,0.252,-1.829,-0.976,0.183,343.964
131799,150513,9715,-0.153,0.98,0.252,-1.829,-0.976,0.183,343.968
131799,150380,12114,-0.135,0.979,0.263,-2.317,-1.28,0.915,343.974
131819,150513,9715,-0.135,0.979,0.263,-2.317,-1.28,0.915,343.978
131819,150395,12106,-0.134,0.988,0.275,-1.22,-0.61,0.915,343.984
131804,150513,9715,-0.134,0.988,0.275,-1.22,-0.61,0.915,343.988
131804,150424,12109,-0.142,0.969,0.254,0.732,1.159,0.488,343.994
131852,150513,9715,-0.142,0.969,0.254,0.732,1.159,0.488,343.998
131852,150454,12105,-0.141,0.997,0.238,2.866,2.683,0.061,344.004
131855,150513,9715,-0.141,0.997,0.238,2.866,2.683,0.061,344.008
131855,150475,12115,-0.15,0.995,0.234,2.378,2.317,-0.61,344.014
131877,150513,9715,-0.15,0.995,0.234,2.378,2.317,-0.61,344.018
131877,150464,12114,-0.15,0.989,0.243,0.122,0.793,-0.061,344.024
131833,150513,9715,-0.15,0.989,0.243,0.122,0.793,-0.061,344.028
131833,150432,12105,-0.15,0.995,0.237,-1.585,-0.488,0.671,344.034
131814,150513,9715,-0.15,0.995,0.237,-1.585,-0.488,0.671,344.037
131814,150438,12125,-0.151,1.013,0.243,-1.646,-1.463,0.488,344.044
131844,150513,9715,-0.151,1.013,0.243,-1.646,-1.463,0.488,344.047
131844,150426,12096,-0.152,1.016,0.253,-2.256,-1.89,0.183,344.054
131815,150513,9715,-0.147,1.007,0.265,-2.256,-1.89,0.183,344.057
131815,150415,12117,-0.142,0.986,0.276,-3.049,-1.463,0.61,344.063
131827,150513,9715,-0.138,0.965,0.275,-3.049,-1.463,0.61,344.067
131827,150423,12117,-0.14,0.961,0.264,-0.732,0.061,1.159,344.073
131832,150513,9715,-0.139,0.971,0.26,-0.732,0.061,1.159,344.077
