133437,157768,12169,-0.176,1.01,0.136,-0.793,-0.427,0.915,445.579
133427,157937,9715,-0.18,1.007,0.135,-0.793,-0.427,0.915,445.583
133427,157774,12188,-0.181,1.01,0.135,-0.549,-0.244,0.915,445.589
133419,157937,9715,-0.183,1.014,0.138,-0.549,-0.244,0.915,445.593
133419,157734,12172,-0.186,1.012,0.135,-0.793,-0.122,0.61,445.599
133422,157937,9715,-0.183,1.011,0.133,-0.793,-0.122,0.61,445.603
133422,157787,12177,-0.177,1.008,0.132,-0.61,-0.671,0.671,445.609
133400,157937,9715,-0.175,1.005,0.135,-0.61,-0.671,0.671,445.612
133400,157754,12189,-0.177,1.006,0.142,-0.549,-0.488,0.61,445.619
133426,157937,9715,-0.178,1.006,0.144,-0.549,-0.488,0.61,445.622
133426,157769,12182,-0.174,1.001,0.143,-0.793,-0.122,0.366,445.628
133407,157937,9715,-0.175,0.993,0.144,-0.793,-0.122,0.366,445.632
133407,157775,12175,-0.176,0.994,0.144,-0.488,0,0.305,445.638
133429,157937,9715,-0.177,0.998,0.142,-0.488,0,0.305,445.642
133429,157761,12175,-0.178,0.998,0.146,-0.061,0.061,0.366,445.648
133442,157937,9715,-0.179,1.001,0.148,-0.061,0.061,0.366,445.652
133442,157772,12194,-0.18,1.004,0.146,0.183,0.488,0.305,445.658
133460,157937,9715,-0.179,1.006,0.139,0.183,0.488,0.305,445.662
133460,157796,12174,-0.177,1.003,0.131,-0.122,0.549,0.366,445.668
133413,157937,9715,-0.176,1.008,0.13,-0.122,0.549,0.366,445.672
133413,157771,12182,-0.179,1.01,0.137,-0.976,0.183,0.549,445.678
133424,157937,9715,-0.183,1.001,0.14,-0.976,0.183,0.549,445.682
133424,157784,12179,-0.182,0.995,0.142,-1.341,0.488,0.732,445.688
133408,157937,9715,-0.181,0.995,0.13,-1.341,0.488,0.732,445.692
133408,157768,12167,-0.179,1.005,0.127,-0.671,0.183,0.793,445.698
133417,157937,9715,-0.175,1.013,0.13,-0.671,0.183,0.793,445.702
133417,157797,12183,-0.177,1.016,0.131,-0.183,-0.244,0.732,445.708
133410,157937,9715,-0.183,1.01,0.132,-0.183,-0.244,0.732,445.711
133410,157781,12169,-0.183,1.005,0.133,-0.061,0.183,0.427,445.718
133399,157937,9715,-0.183,1,0.138,-0.061,0.183,0.427,445.721
133399,157776,12173,-0.177,1.001,0.141,0.122,0.061,0.549,445.728
133409,157937,9715,-0.175,1.008,0.138,0.122,0.061,0.549,445.731
133409,157792,12181,-0.173,1.013,0.143,0.244,-0.061,0.488,445.737
133427,157937,9715,-0.177,1.009,0.147,0.244,-0.061,0.488,445.741
133427,157801,12182,-0.18,1.007,0.149,-0.061,0.366,0.122,445.747
133429,157937,9715,-0.181,1.003,0.149,-0.061,0.366,0.122,445.751
133429,157789,12179,-0.178,0.996,0.142,-0.549,0.427,0.183,445.757
133433,157937,9715,-0.174,0.998,0.143,-0.549,0.427,0.183,445.761
133433,157793,12175,-0.173,1,0.142,-0.427,0.427,0.183,445.767
133402,157937,9715,-0.177,0.997,0.141,-0.427,0.427,0.183,445.771
133402,157812,12183,-0.181,0.996,0.14,0.122,0.915,0,445.777
133439,157937,9715,-0.182,1.001,0.138,0.122,0.915,0,445.781
133439,157784,12172,-0.178,1.006,0.138,0.122,0.793,0.183,445.787
133403,157937,9715,-0.179,1.005,0.134,0.122,0.793,0.183,445.791
133403,157785,12189,-0.181,1.007,0.131,-0.427,0.61,0.427,445.797
133401,157937,9715,-0.181,1.007,0.131,-0.427,0.61,0.427,445.801
133401,157786,12179,-0.181,0.995,0.134,-0.549,0.793,0.61,445.807
133384,157937,9715,-0.181,0.995,0.134,-0.549,0.793,0.61,445.81
133384,157766,12179,-0.183,1.005,0.132,-0.427,0.488,0.732,445.817
133389,157937,9715,-0.183,1.005,0.132,-0.427,0.488,0.732,445.82
133389,157768,12170,-0.181,1.011,0.131,-0.366,0.427,0.671,445.827
133383,157937,9715,-0.181,1.011,0.131,-0.366,0.427,0.671,445.83
133383,157766,12168,-0.178,1.011,0.141,-0.061,0.732,0.366,445.836
133395,157937,9715,-0.178,1.011,0.141,-0.061,0.732,0.366,445.84
133395,157758,12188,-0.179,1.007,0.137,0.183,0.549,0.122,445.846
133370,157937,9715,-0.179,1.007,0.137,0.183,0.549,0.122,445.85
133370,157765,12183,-0.177,1.007,0.135,0.671,0.671,-0.183,445.856
133393,157937,9715,-0.177,1.007,0.135,0.671,0.671,-0.183,445.86
133393,157770,12180,-0.177,0.998,0.137,0.854,0.854,-0.488,445.866
133392,157937,9715,-0.177,0.998,0.137,0.854,0.854,-0.488,445.87
133392,157780,12190,-0.179,1,0.133,0.61,0.671,-0.305,445.876
133389,157937,9715,-0.179,1,0.133,0.61,0.671,-0.305,445.88
133389,157786,12189,-0.178,1.003,0.137,0.488,0.366,-0.061,445.886
133410,157937,9715,-0.178,1.003,0.137,0.488,0.366,-0.061,445.89
133410,157793,12188,-0.188,1.002,0.13,-0.122,0.366,0.244,445.896
133418,157937,9715,-0.188,1.002,0.13,-0.122,0.366,0.244,445.9
133418,157771,12190,-0.18,0.996,0.141,-0.793,0,0.366,445.906
133406,157937,9715,-0.18,0.996,0.141,-0.793,0,0.366,445.909
133406,157804,12191,-0.183,0.999,0.142,-0.671,0.244,0.732,445.916
133406,157937,9715,-0.183,0.999,0.142,-0.671,0.244,0.732,445.919
133406,157805,12177,-0.179,1.008,0.143,-1.098,0.183,0.732,445.925
133402,157937,9715,-0.179,1.008,0.143,-1.098,0.183,0.732,445.929
133402,157818,12193,-0.179,0.999,0.141,-0.61,0.305,0.732,445.935
133387,157937,9715,-0.179,0.999,0.141,-0.61,0.305,0.732,445.939
133387,157815,12185,-0.181,1.004,0.139,-0.61,0.305,0.732,445.945
133410,157937,9715,-0.182,1.008,0.135,0.061,0.427,0.488,445.949
133410,157797,12192,-0.18,1.014,0.137,0.061,0.427,0.488,445.955
133406,157937,9715,-0.178,1.011,0.132,0.305,0.366,0.366,445.959
133406,157772,12189,-0.178,1.009,0.135,0.305,0.366,0.366,445.965
133397,157937,9715,-0.18,1.003,0.141,0.183,0.305,0.244,445.969
133397,157781,12199,-0.18,1,0.132,0.183,0.305,0.244,445.975
133410,157937,9715,-0.182,0.999,0.125,0.305,0.183,0.244,445.979
133410,157797,12187,-0.181,1.005,0.123,0.305,0.183,0.244,445.985
133423,157937,9715,-0.179,1.01,0.128,0.183,-0.366,0.305,445.989
133423,157788,12193,-0.179,1.008,0.128,0.183,-0.366,0.305,445.995
133428,157937,9715,-0.18,1.006,0.133,-0.305,-0.305,0.366,445.999
133428,157819,12202,-0.182,1.002,0.141,-0.305,-0.305,0.366,446.005
133427,157937,9715,-0.181,1,0.142,-1.22,-0.061,0.488,446.008
133427,157837,12183,-0.18,0.997,0.144,-1.22,-0.061,0.488,446.015
133418,157937,9715,-0.176,0.998,0.148,-1.037,-0.183,0.732,446.018
133418,157808,12197,-0.18,1.002,0.148,-1.037,-0.183,0.732,446.025
133427,157937,9715,-0.18,1.006,0.147,0,-0.061,0.61,446.028
133427,157842,12194,-0.179,1.006,0.144,0,-0.061,0.61,446.034
133413,157937,9715,-0.181,1.004,0.148,0.305,0.366,0.366,446.038
133413,157777,12193,-0.181,1.003,0.144,0.305,0.366,0.366,446.044
133372,157937,9715,-0.178,1.002,0.141,0,0.427,0.427,446.048
133372,157792,12189,-0.176,1.007,0.142,0,0.427,0.427,446.054
133368,157937,9715,-0.179,1.007,0.144,-0.549,0.549,0.427,446.058
133368,157762,12198,-0.18,1.002,0.142,-0.549,0.549,0.427,446.064
133402,157937,9715,-0.177,0.998,0.135,-0.366,0.854,0.366,446.068
133402,157776,12198,-0.181,1,0.13,-0.366,0.854,0.366,446.074
133386,157937,9715,-0.177,1.005,0.133,-0.122,0.61,0.488,446.078
133386,157795,12198,-0.176,1.005,0.13,-0.122,0.61,0.488,446.084
133390,157937,9715,-0.178,1.01,0.135,0.244,0.366,0.61,446.088
133390,157776,12200,-0.177,1.014,0.14,0.244,0.366,0.61,446.094
133395,157937,9715,-0.181,1.013,0.145,0.183,0.61,0.244,446.098
133395,157783,12184,-0.182,1.012,0.142,0.183,0.61,0.244,446.104
133411,157937,9715,-0.181,1.004,0.138,-0.793,0.671,0.183,446.107
133411,157812,12179,-0.181,0.997,0.135,-0.793,0.671,0.183,446.114
133418,157937,9715,-0.178,0.999,0.141,-1.037,0.427,0.183,446.117
133418,157771,12194,-0.179,1.003,0.14,-1.037,0.427,0.183,446.123
133391,157937,9715,-0.179,1.003,0.138,-0.122,0.732,-0.183,446.127
133391,157791,12198,-0.182,1.004,0.137,-0.122,0.732,-0.183,446.133
133403,157937,9715,-0.185,1.002,0.136,0,0.854,-0.305,446.137
133403,157790,12199,-0.182,1.002,0.137,0,0.854,-0.305,446.143
133385,157937,9715,-0.177,0.999,0.134,-0.305,0.61,-0.061,446.147
133385,157774,12195,-0.178,0.995,0.134,-0.305,0.61,-0.061,446.153
133401,157937,9715,-0.183,1,0.133,-0.122,0.793,0.183,446.157
133401,157764,12182,-0.182,1.004,0.13,-0.122,0.793,0.183,446.163
133383,157937,9715,-0.178,1.007,0.133,-0.244,0.549,0.122,446.167
133383,157788,12167,-0.183,1.009,0.134,-0.244,0.549,0.122,446.173
133415,157937,9715,-0.184,1.007,0.134,-0.366,0.427,0.366,446.177
133415,157744,12180,-0.177,1,0.134,-0.366,0.427,0.366,446.183
133421,157937,9715,-0.178,0.999,0.137,-0.244,0.305,0.244,446.187
133421,157764,12200,-0.177,1,0.141,-0.244,0.305,0.244,446.193
133428,157937,9715,-0.181,1.002,0.141,-0.122,0.244,0.305,446.197
133428,157793,12189,-0.182,1.006,0.141,-0.122,0.244,0.305,446.203
133401,157937,9715,-0.179,1.004,0.142,0.061,0.427,0.366,446.206
133401,157750,12204,-0.179,1.003,0.147,0.061,0.427,0.366,446.213
133418,157937,9715,-0.177,1.005,0.147,0.061,0.366,0.427,446.216
133418,157782,12189,-0.179,1.002,0.146,0.061,0.366,0.427,446.222
133407,157937,9715,-0.184,1.003,0.145,0.427,0.732,0.122,446.226
133407,157798,12189,-0.182,1.006,0.142,0.427,0.732,0.122,446.232
133387,157937,9715,-0.181,1.009,0.136,0.183,0.671,-0.061,446.236
133387,157768,12182,-0.183,1.005,0.13,0.183,0.671,-0.061,446.242
133413,157937,9715,-0.183,1.004,0.127,0,0.549,0.122,446.246
133413,157759,12176,-0.183,1.005,0.125,0,0.549,0.122,446.252
133387,157937,9715,-0.185,1.004,0.126,0.122,0.427,0.061,446.256
133387,157764,12197,-0.182,0.998,0.122,0.122,0.427,0.061,446.262
133401,157937,9715,-0.183,1.002,0.122,0.061,0,0.305,446.266
133401,157766,12175,-0.182,1.007,0.128,0.061,0,0.305,446.272
133383,157937,9715,-0.182,1.001,0.137,-0.305,-0.183,0.427,446.276
133383,157772,12173,-0.182,1.003,0.137,-0.305,-0.183,0.427,446.282
133398,157937,9715,-0.184,1,0.138,-0.488,-0.061,0.793,446.286
133398,157793,12182,-0.179,1.001,0.134,-0.488,-0.061,0.793,446.292
133396,157937,9715,-0.174,1.001,0.137,-0.793,-0.549,0.915,446.296
133396,157790,12189,-0.175,1,0.15,-0.793,-0.549,0.915,446.302
133391,157937,9715,-0.183,1,0.155,-0.854,-0.122,0.854,446.305
133391,157755,12184,-0.183,1,0.145,-0.854,-0.122,0.854,446.312
133401,157937,9715,-0.177,1.005,0.148,-1.098,0.427,0.61,446.315
133401,157812,12194,-0.176,1.003,0.144,-1.098,0.427,0.61,446.321
133386,157937,9715,-0.177,1.001,0.146,-0.671,0.183,0.488,446.325
133386,157778,12178,-0.178,1,0.142,-0.671,0.183,0.488,446.331
133388,157937,9715,-0.182,1.011,0.141,0.305,0.549,0.549,446.335
133388,157780,12181,-0.178,1.015,0.135,0.305,0.549,0.549,446.341
133413,157937,9715,-0.181,1.013,0.136,0.671,0.671,0.122,446.345
133413,157768,12189,-0.181,1.01,0.135,0.671,0.671,0.122,446.351
133374,157937,9715,-0.18,1.004,0.136,0.122,0.366,0.122,446.355
133374,157788,12185,-0.183,1.005,0.127,0.122,0.366,0.122,446.361
133416,157937,9715,-0.181,1.002,0.125,-0.427,0.061,0.366,446.365
133416,157801,12190,-0.176,1,0.128,-0.427,0.061,0.366,446.371
133412,157937,9715,-0.177,0.999,0.132,-0.366,-0.122,0.366,446.375
133412,157783,12185,-0.182,0.994,0.138,-0.366,-0.122,0.366,446.381
133389,157937,9715,-0.187,0.997,0.14,-0.305,0.183,0.427,446.385
133389,157792,12178,-0.181,1,0.14,-0.305,0.183,0.427,446.391
133397,157937,9715,-0.181,1,0.14,-0.305,0.183,0.427,446.395
133397,157775,12188,-0.178,0.998,0.144,-0.305,0.183,0.549,446.401
133406,157937,9715,-0.178,0.998,0.144,-0.305,0.183,0.549,446.404
133406,157762,12184,-0.183,1.008,0.141,-0.061,0.122,0.854,446.411
133366,157937,9715,-0.183,1.008,0.141,-0.061,0.122,0.854,446.414
133366,157760,12188,-0.179,1.003,0.149,-0.061,0.427,0.671,446.421
133374,157937,9715,-0.179,1.003,0.149,-0.061,0.427,0.671,446.424
133374,157746,12176,-0.18,1.005,0.143,0.488,0.61,0.549,446.43
133358,157937,9715,-0.18,1.005,0.143,0.488,0.61,0.549,446.434
133358,157787,12174,-0.175,1.015,0.137,0.549,0.732,0.366,446.44
133363,157937,9715,-0.175,1.015,0.137,0.549,0.732,0.366,446.444
133363,157750,12171,-0.179,1.008,0.131,0.427,0.549,0.244,446.45
133364,157937,9715,-0.179,1.008,0.131,0.427,0.549,0.244,446.454
133364,157757,12194,-0.177,1.011,0.128,0.122,0.244,0.061,446.46
133380,157937,9715,-0.177,1.011,0.128,0.122,0.244,0.061,446.464
133380,157777,12187,-0.176,1.009,0.142,0.122,0,-0.122,446.47
133358,157937,9715,-0.176,1.009,0.142,0.122,0,-0.122,446.474
133358,157761,12190,-0.185,0.998,0.137,-0.061,0.427,-0.122,446.48
133373,157937,9715,-0.185,0.998,0.137,-0.061,0.427,-0.122,446.484
133373,157766,12181,-0.175,1.002,0.144,-0.549,0.244,-0.122,446.49
133359,157937,9715,-0.175,1.002,0.144,-0.549,0.244,-0.122,446.493
133359,157776,12185,-0.184,0.979,0.135,-0.549,0.122,0.122,446.5
133398,157937,9715,-0.184,0.979,0.135,-0.549,0.122,0.122,446.503
133398,157769,12187,-0.182,0.995,0.141,-0.488,0.671,0.366,446.51
133361,157937,9715,-0.182,0.995,0.141,-0.488,0.671,0.366,446.513
133361,157763,12195,-0.181,1.007,0.145,0,0.732,0.488,446.52
133382,157937,9715,-0.181,1.007,0.145,0,0.732,0.488,446.523
133382,157786,12188,-0.181,1.007,0.142,0.244,0.915,0.854,446.529
133363,157937,9715,-0.181,1.007,0.142,0.244,0.915,0.854,446.533
133363,157747,12190,-0.178,1.003,0.143,-0.488,1.037,0.976,446.539
133374,157937,9715,-0.178,1.004,0.138,-0.488,1.037,0.976,446.543
133374,157769,12193,-0.177,1.013,0.132,-0.61,0.976,0.976,446.549
133353,157937,9715,-0.176,1.021,0.132,-0.61,0.976,0.976,446.553
133353,157746,12190,-0.173,1.02,0.134,0.61,0.854,0.305,446.559
133376,157937,9715,-0.177,1.015,0.132,0.61,0.854,0.305,446.563
133376,157747,12188,-0.179,1.009,0.133,0.793,0.793,-0.244,446.569
133356,157937,9715,-0.179,1.003,0.131,0.793,0.793,-0.244,446.573
133356,157767,12193,-0.177,1.006,0.133,-0.183,0.61,-0.183,446.579
133378,157937,9715,-0.175,1.004,0.133,-0.183,0.61,-0.183,446.583
133378,157783,12188,-0.178,1.001,0.131,0.183,0.366,-0.366,446.589
133388,157937,9715,-0.181,1.001,0.139,0.183,0.366,-0.366,446.593
133388,157766,12185,-0.185,1.002,0.143,0.427,0.61,-0.427,446.599
133387,157937,9715,-0.184,1.002,0.144,0.427,0.61,-0.427,446.602
133387,157784,12185,-0.186,1.001,0.145,0,0.854,-0.183,446.609
133372,157937,9715,-0.181,0.998,0.147,0,0.854,-0.183,446.612
133372,157776,12202,-0.181,0.999,0.146,-0.122,0.854,0.183,446.618
133391,157937,9715,-0.179,0.994,0.149,-0.122,0.854,0.183,446.622
133391,157786,12180,-0.181,0.991,0.142,-0.305,1.22,0.305,446.628
133361,157937,9715,-0.185,0.994,0.139,-0.305,1.22,0.305,446.632
133361,157761,12191,-0.179,1,0.139,0,1.22,0.244,446.638
133381,157937,9715,-0.182,1.005,0.139,0,1.22,0.244,446.642
133381,157809,12181,-0.181,1.009,0.133,1.098,1.159,0.427,446.648
133383,157937,9715,-0.179,1.009,0.129,1.098,1.159,0.427,446.652
133383,157793,12187,-0.182,1.011,0.134,1.341,1.22,0.244,446.658
133422,157937,9715,-0.181,1.011,0.134,1.341,1.22,0.244,446.662
133422,157813,12186,-0.179,1.012,0.131,0.854,0.793,0.305,446.668
133396,157937,9715,-0.182,1.011,0.129,0.854,0.793,0.305,446.672
133396,157809,12184,-0.179,1.01,0.126,0.427,0.366,0.427,446.678
133406,157937,9715,-0.175,1.013,0.127,0.427,0.366,0.427,446.682
133406,157804,12201,-0.177,1.004,0.133,0.305,0.122,0.244,446.688
133424,157937,9715,-0.181,1,0.136,0.305,0.122,0.244,446.692
133424,157843,12185,-0.18,1.001,0.134,0.244,0.549,-0.122,446.698
133428,157937,9715,-0.179,1.004,0.138,0.244,0.549,-0.122,446.701
133428,157824,12194,-0.181,1.01,0.142,-0.122,0.61,-0.244,446.708
133420,157937,9715,-0.181,1.01,0.139,-0.122,0.61,-0.244,446.711
133420,157834,12203,-0.178,1.004,0.139,-1.037,0.549,-0.183,446.717
133431,157937,9715,-0.181,0.993,0.141,-1.037,0.549,-0.183,446.721
133431,157822,12194,-0.185,0.985,0.14,-0.732,0.854,-0.061,446.727
133441,157937,9715,-0.181,0.987,0.138,-0.732,0.854,-0.061,446.731
133441,157832,12197,-0.179,0.993,0.133,0.427,0.793,0.122,446.737
133444,157937,9715,-0.177,1.003,0.125,0.427,0.793,0.122,446.741
133444,157833,12216,-0.184,1.014,0.13,0.793,0.488,0.122,446.747
133438,157937,9715,-0.187,1.019,0.133,0.793,0.488,0.122,446.751
133438,157838,12206,-0.186,1.012,0.138,0.61,0.732,0.366,446.757
133428,157937,9715,-0.185,1.004,0.141,0.61,0.732,0.366,446.761
133428,157806,12221,-0.185,1,0.135,-0.183,0.732,0.61,446.767
133436,157937,9715,-0.183,1.004,0.13,-0.183,0.732,0.61,446.771
133436,157838,12213,-0.18,1.01,0.133,0.061,0.305,0.671,446.777
133451,157937,9715,-0.184,1.015,0.133,0.061,0.305,0.671,446.781
133451,157800,12201,-0.187,1.014,0.131,0.915,0.366,0.366,446.787
133447,157937,9715,-0.184,1.009,0.133,0.915,0.366,0.366,446.791
133447,157817,12211,-0.184,1,0.14,0.488,0.305,0.183,446.797
133451,157937,9715,-0.18,0.995,0.145,0.488,0.305,0.183,446.8
133451,157820,12213,-0.178,0.995,0.144,-0.183,0.366,0.427,446.807
133431,157937,9715,-0.182,0.997,0.142,-0.183,0.366,0.427,446.81
133431,157830,12202,-0.179,1.004,0.14,0.305,0.61,0.183,446.816
133427,157937,9715,-0.179,1.004,0.145,0.305,0.61,0.183,446.82
133427,157779,12202,-0.181,0.999,0.137,1.22,0.793,-0.061,446.826
133419,157937,9715,-0.184,0.997,0.134,1.22,0.793,-0.061,446.83
133419,157818,12206,-0.179,1.009,0.14,1.159,0.671,0.183,446.836
133414,157937,9715,-0.175,1.023,0.133,1.159,0.671,0.183,446.84
133414,157824,12198,-0.176,1.017,0.13,0.183,0.061,0.183,446.846
133432,157937,9715,-0.18,0.999,0.129,0.183,0.061,0.183,446.85
133432,157793,12209,-0.185,0.992,0.13,-0.671,0.183,0,446.856
133426,157937,9715,-0.186,0.994,0.132,-0.671,0.183,0,446.86
133426,157825,12206,-0.181,0.998,0.136,-1.098,0.427,0.305,446.866
133421,157937,9715,-0.177,1.001,0.142,-1.098,0.427,0.305,446.87
133421,157795,12190,-0.178,1.005,0.147,0.183,0.671,0.244,446.876
133432,157937,9715,-0.183,1.011,0.148,0.183,0.671,0.244,446.88
133432,157796,12191,-0.181,1.011,0.143,0.61,0.915,0.244,446.886
133433,157937,9715,-0.179,1.007,0.146,0.61,0.915,0.244,446.89
133433,157797,12186,-0.177,1.005,0.143,0.915,1.159,0.305,446.896
133444,157937,9715,-0.181,1.009,0.141,0.915,1.159,0.305,446.899
133444,157784,12188,-0.185,1.02,0.14,1.646,1.524,-0.305,446.906
133421,157937,9715,-0.183,1.025,0.127,1.646,1.524,-0.305,446.909
133421,157777,12210,-0.183,1.016,0.127,0.671,0.976,-0.549,446.915
133402,157937,9715,-0.181,1.004,0.122,0.671,0.976,-0.549,446.919
133402,157774,12179,-0.186,0.996,0.12,-0.366,0.854,-0.244,446.925
133389,157937,9715,-0.186,0.99,0.119,-0.366,0.854,-0.244,446.929
133389,157769,12192,-0.18,0.99,0.113,-0.183,0.488,-0.122,446.935
133387,157937,9715,-0.182,0.995,0.109,-0.183,0.488,-0.122,446.939
133387,157786,12192,-0.182,1,0.124,0.122,-0.305,0.122,446.945
133390,157937,9715,-0.185,0.997,0.133,0.122,-0.305,0.122,446.949
133390,157778,12185,-0.186,0.992,0.14,-0.427,-0.183,0.244,446.955
133370,157937,9715,-0.186,0.99,0.137,-0.427,-0.183,0.244,446.959
133370,157802,12186,-0.182,0.993,0.147,-0.671,-0.183,0.854,446.965
133389,157937,9715,-0.177,1.002,0.149,-0.671,-0.183,0.854,446.969
133389,157762,12196,-0.177,1.01,0.151,0.671,-0.061,0.915,446.975
133378,157937,9715,-0.177,1.01,0.151,0.671,-0.061,0.915,446.979
133378,157759,12181,-0.185,1.014,0.154,1.159,0.732,0.122,446.985
133358,157937,9715,-0.185,1.014,0.154,1.159,0.732,0.122,446.989
133358,157746,12194,-0.176,1.011,0.142,0.488,0.854,-0.061,446.995
133340,157937,9715,-0.176,1.011,0.142,0.488,0.854,-0.061,446.998
133340,157740,12187,-0.177,1.002,0.145,0.488,0.976,-0.305,447.005
133345,157937,9715,-0.177,1.002,0.145,0.488,0.976,-0.305,447.008
133345,157722,12173,-0.181,1,0.135,0.976,1.646,-0.671,447.015
133317,157937,9715,-0.181,1,0.135,0.976,1.646,-0.671,447.018
133317,157699,12186,-0.18,1.007,0.132,1.098,1.28,-0.671,447.024
133326,157937,9715,-0.18,1.007,0.132,1.098,1.28,-0.671,447.028
133326,157716,12187,-0.183,1,0.122,0.427,1.159,-0.366,447.034
133320,157937,9715,-0.183,1,0.122,0.427,1.159,-0.366,447.038
133320,157726,12173,-0.18,0.996,0.115,-0.854,0.549,-0.122,447.044
133311,157937,9715,-0.18,0.996,0.115,-0.854,0.549,-0.122,447.048
133311,157730,12170,-0.183,0.996,0.127,-1.524,0.061,0.488,447.054
133301,157937,9715,-0.183,0.996,0.127,-1.524,0.061,0.488,447.058
133301,157715,12182,-0.186,1.002,0.133,-1.159,0.427,0.732,447.064
133325,157937,9715,-0.186,1.002,0.133,-1.159,0.427,0.732,447.068
133325,157743,12172,-0.18,1.005,0.144,-0.183,0.183,0.732,447.074
133303,157937,9715,-0.18,1.005,0.144,-0.183,0.183,0.732,447.078
133303,157743,12171,-0.185,1.013,0.145,0.366,0.427,0.61,447.084
133317,157937,9715,-0.185,1.013,0.145,0.366,0.427,0.61,447.088
133317,157726,12186,-0.183,1.016,0.134,0.366,0.549,0.061,447.094
133333,157937,9715,-0.183,1.016,0.134,0.366,0.549,0.061,447.097
133333,157764,12169,-0.186,0.998,0.124,0.305,0.427,-0.366,447.104
133358,157937,9715,-0.186,0.998,0.124,0.305,0.427,-0.366,447.107
133358,157746,12177,-0.184,1.004,0.118,0.122,0.061,0.061,447.113
133360,157937,9715,-0.184,1.004,0.118,0.122,0.061,0.061,447.117
133360,157766,12192,-0.185,1,0.125,0.122,0.061,0.061,447.123
133393,157937,9715,-0.185,0.995,0.121,0.366,0.061,0.427,447.127
133393,157765,12174,-0.186,0.999,0.125,0.366,0.061,0.427,447.133
133380,157937,9715,-0.181,0.999,0.133,0.183,-0.244,0.61,447.137
133380,157787,12191,-0.184,1.003,0.136,0.183,-0.244,0.61,447.143
133388,157937,9715,-0.182,1.01,0.137,0.244,-0.244,0.854,447.147
133388,157760,12181,-0.181,1.01,0.14,0.244,-0.244,0.854,447.153
133363,157937,9715,-0.184,1,0.142,0.122,-0.122,0.61,447.157
133363,157745,12181,-0.184,0.998,0.146,0.122,-0.122,0.61,447.163
133336,157937,9715,-0.18,1.005,0.143,0,-0.183,0.732,447.167
133336,157724,12168,-0.179,1.004,0.143,0,-0.183,0.732,447.173
133328,157937,9715,-0.185,0.999,0.146,0.061,0.488,0.366,447.177
133328,157710,12177,-0.187,0.996,0.139,0.061,0.488,0.366,447.183
133295,157681,9715,-0.179,0.993,0.137,0.549,0.549,0.305,447.187
133295,157693,12172,-0.176,0.998,0.137,0.549,0.549,0.305,447.193
133255,157681,9715,-0.18,1.009,0.127,0.915,0.366,0.732,447.196
133255,157679,12187,-0.183,1.01,0.127,0.915,0.366,0.732,447.203
133259,157681,9715,-0.185,1.004,0.124,0.488,0.427,0.549,447.206
133259,157660,12163,-0.185,1.005,0.116,0.488,0.427,0.549,447.213
133249,157937,9715,-0.184,1.005,0.12,-0.122,-0.122,0.549,447.216
133249,157699,12161,-0.18,1.005,0.124,-0.122,-0.122,0.549,447.222
133258,157681,9715,-0.184,1.007,0.128,-0.793,-0.061,0.915,447.226
133258,157667,12157,-0.184,1.007,0.126,-0.793,-0.061,0.915,447.232
133238,157681,9715,-0.184,1.008,0.13,-0.549,0.122,0.854,447.236
133238,157685,12170,-0.184,1.009,0.134,-0.549,0.122,0.854,447.242
133259,157681,9715,-0.185,1.008,0.14,-0.366,0.122,0.793,447.246
133259,157660,12167,-0.185,1.006,0.147,-0.366,0.122,0.793,447.252
133228,157681,9715,-0.182,1.007,0.15,-0.061,0.427,0.732,447.256
133228,157666,12171,-0.175,1.006,0.154,-0.061,0.427,0.732,447.262
133280,157681,9715,-0.181,1.005,0.151,0.305,0.671,0.183,447.266
133280,157657,12164,-0.18,1.006,0.141,0.305,0.671,0.183,447.272
133239,157681,9715,-0.175,1.008,0.138,0.732,0.793,-0.366,447.276
133239,157670,12175,-0.176,1.002,0.142,0.732,0.793,-0.366,447.282
133277,157937,9715,-0.181,0.994,0.13,0.976,0.976,-0.488,447.286
133277,157703,12166,-0.183,0.996,0.114,0.976,0.976,-0.488,447.292
133250,157937,9715,-0.18,1.002,0.109,0.549,0.549,-0.305,447.295
133250,157697,12163,-0.181,1.009,0.108,0.549,0.549,-0.305,447.302
133257,157681,9715,-0.183,1.011,0.099,0.122,-0.427,-0.122,447.305
133257,157655,12174,-0.187,1.015,0.097,0.122,-0.427,-0.122,447.311
133235,157937,9715,-0.187,1.013,0.108,-0.732,-0.732,0.122,447.315
133235,157698,12173,-0.188,1.006,0.127,-0.732,-0.732,0.122,447.321
133242,157681,9715,-0.192,0.999,0.136,-1.646,-0.549,0.488,447.325
133242,157674,12177,-0.191,1,0.135,-1.646,-0.549,0.488,447.331
133246,157681,9715,-0.185,0.996,0.147,-1.524,-0.732,0.854,447.335
133246,157677,12180,-0.18,0.997,0.151,-1.524,-0.732,0.854,447.341
133262,157681,9715,-0.184,0.999,0.156,-0.061,-0.488,0.732,447.345
133262,157676,12171,-0.183,1.002,0.169,-0.061,-0.488,0.732,447.351
133237,157937,9715,-0.18,1.003,0.169,0.61,0.244,0.061,447.355
133237,157704,12180,-0.177,1,0.169,0.61,0.244,0.061,447.361
133263,157937,9715,-0.176,1.001,0.171,1.341,0.854,-0.122,447.365
133263,157717,12178,-0.174,1.013,0.161,1.341,0.854,-0.122,447.371
133257,157937,9715,-0.179,1.031,0.137,2.317,1.28,-0.427,447.375
133257,157714,12179,-0.178,1.036,0.12,2.317,1.28,-0.427,447.381
133290,157937,9715,-0.183,1.034,0.099,1.28,0.549,-1.341,447.385
133290,157712,12179,-0.189,1.026,0.088,1.28,0.549,-1.341,447.391
133320,157937,9715,-0.186,1.004,0.087,-1.89,-0.488,-0.732,447.394
133320,157724,12189,-0.19,0.988,0.08,-1.89,-0.488,-0.732,447.401
133351,157937,9715,-0.187,0.997,0.078,-3.659,-1.22,0.305,447.404
133351,157728,12183,-0.181,1.005,0.094,-3.659,-1.22,0.305,447.411
133348,157937,9715,-0.186,1.002,0.117,-3.902,-1.524,0.732,447.414
133348,157734,12178,-0.189,0.996,0.13,-3.902,-1.524,0.732,447.42
133317,157937,9715,-0.185,0.99,0.144,-3.171,-0.976,0.671,447.424
133317,157730,12181,-0.185,0.987,0.163,-3.171,-0.976,0.671,447.43
133290,157937,9715,-0.183,0.992,0.169,-3.049,-0.854,0.793,447.434
133290,157713,12176,-0.18,0.99,0.172,-3.049,-0.854,0.793,447.44
133292,157937,9715,-0.176,0.988,0.176,-1.585,-0.366,0.488,447.444
133292,157712,12201,-0.174,0.988,0.18,-1.585,-0.366,0.488,447.45
133289,157937,9715,-0.177,0.987,0.178,0.488,0.549,-0.061,447.454
133289,157715,12181,-0.181,0.992,0.171,0.488,0.549,-0.061,447.46
133289,157937,9715,-0.181,0.996,0.156,1.402,0.915,-0.122,447.464
133289,157711,12201,-0.175,1.003,0.136,1.402,0.915,-0.122,447.47
133280,157937,9715,-0.173,1.009,0.128,0.793,0.488,0.061,447.474
133280,157741,12187,-0.179,1.009,0.125,0.793,0.488,0.061,447.48
133264,157681,9715,-0.186,1.006,0.117,-0.488,0.793,0.549,447.484
133264,157680,12181,-0.187,1.005,0.101,-0.488,0.793,0.549,447.49
133251,157681,9715,-0.186,1.01,0.092,-1.524,0,0.732,447.493
133251,157671,12174,-0.182,1.02,0.094,-1.524,0,0.732,447.5
133235,157681,9715,-0.179,1.019,0.121,-2.5,-1.28,1.22,447.503
133235,157651,12191,-0.183,1.005,0.143,-2.5,-1.28,1.22,447.509
133250,157681,9715,-0.192,0.998,0.143,-2.378,-0.183,0.976,447.513
133250,157668,12168,-0.186,0.995,0.15,-2.378,-0.183,0.976,447.519
133211,157681,9715,-0.174,0.992,0.164,-1.037,0.061,0.732,447.523
133211,157651,12172,-0.175,1.001,0.163,-1.037,0.061,0.732,447.529
133212,157681,9715,-0.178,1.009,0.157,0.976,0.244,0.488,447.533
133212,157595,12178,-0.181,1.018,0.152,0.976,0.244,0.488,447.539
133176,157681,9715,-0.181,1.02,0.151,1.463,0.915,-0.549,447.543
133176,157628,12173,-0.185,1.012,0.144,1.463,0.915,-0.549,447.549
133170,157681,9715,-0.183,1,0.147,0.305,1.402,-0.793,447.553
133170,157622,12167,-0.184,0.989,0.145,0.305,1.402,-0.793,447.559
133183,157681,9715,-0.184,0.988,0.135,-0.488,1.524,-0.427,447.563
133183,157642,12181,-0.177,0.996,0.133,-0.488,1.524,-0.427,447.569
133210,157681,9715,-0.177,0.996,0.133,-0.488,1.524,-0.427,447.573
133210,157631,12170,-0.184,0.995,0.119,-0.061,1.341,-0.244,447.579
133238,157681,9715,-0.184,0.995,0.119,-0.061,1.341,-0.244,447.583
133238,157657,12172,-0.184,1.009,0.106,0.488,1.159,0,447.589
133254,157681,9715,-0.184,1.009,0.106,0.488,1.159,0,447.592
133254,157667,12181,-0.185,1.014,0.113,-0.183,0.183,0.305,447.599
133275,157681,9715,-0.185,1.014,0.113,-0.183,0.183,0.305,447.602
133275,157659,12182,-0.183,1.007,0.136,-1.707,-0.427,0.915,447.609
133275,157681,9715,-0.183,1.007,0.136,-1.707,-0.427,0.915,447.612
133275,157667,12180,-0.185,0.989,0.151,-3.232,-0.183,1.098,447.618
133288,157681,9715,-0.185,0.989,0.151,-3.232,-0.183,1.098,447.622
133288,157693,12178,-0.179,0.993,0.159,-2.439,-0.061,1.037,447.628
133321,157681,9715,-0.179,0.993,0.159,-2.439,-0.061,1.037,447.632
133321,157683,12194,-0.186,1.011,0.166,-0.61,0.305,0.854,447.638
133334,157937,9715,-0.186,1.011,0.166,-0.61,0.305,0.854,447.642
133334,157701,12175,-0.183,1.017,0.151,0.915,1.22,0.244,447.648
133340,157937,9715,-0.183,1.017,0.151,0.915,1.22,0.244,447.652
133340,157718,12183,-0.186,1,0.133,1.037,1.463,-0.244,447.658
133342,157937,9715,-0.186,1,0.133,1.037,1.463,-0.244,447.662
133342,157701,12180,-0.182,1.014,0.109,0.854,1.646,0,447.668
133338,157937,9715,-0.182,1.014,0.109,0.854,1.646,0,447.672
133338,157696,12167,-0.185,1.019,0.102,0.549,1.037,-0.244,447.678
133326,157681,9715,-0.185,1.019,0.102,0.549,1.037,-0.244,447.682
133326,157693,12185,-0.189,1.019,0.099,-0.488,0.366,-0.061,447.688
133306,157681,9715,-0.189,1.019,0.099,-0.488,0.366,-0.061,447.691
133306,157687,12164,-0.183,1.009,0.148,-3.232,-0.244,0.427,447.698
133286,157681,9715,-0.183,1.009,0.148,-3.232,-0.244,0.427,447.701
133286,157668,12183,-0.183,1.006,0.156,-4.573,0.183,0.976,447.708
133246,157681,9715,-0.183,1.006,0.156,-4.573,0.183,0.976,447.711
133246,157635,12156,-0.179,0.994,0.153,-4.573,-0.061,0.366,447.717
133219,157681,9715,-0.175,0.987,0.154,-4.573,-0.061,0.366,447.721
133219,157609,12170,-0.176,0.98,0.152,-2.927,-0.488,0.183,447.727
133195,157681,9715,-0.182,0.98,0.156,-2.927,-0.488,0.183,447.731
133195,157604,12154,-0.182,0.99,0.149,-0.671,0.366,-0.244,447.737
133185,157681,9715,-0.18,0.997,0.142,-0.671,0.366,-0.244,447.741
133185,157599,12170,-0.182,1.007,0.137,0.854,0.732,-0.854,447.747
133214,157681,9715,-0.182,1.009,0.134,0.854,0.732,-0.854,447.751
133214,157600,12172,-0.185,0.997,0.124,0.427,0.488,-0.244,447.757
133213,157681,9715,-0.188,0.987,0.119,0.427,0.488,-0.244,447.761
133213,157603,12163,-0.188,0.988,0.114,-0.976,0.061,0.671,447.767
133247,157681,9715,-0.187,0.99,0.114,-0.976,0.061,0.671,447.771
133247,157651,12172,-0.185,0.993,0.116,-1.463,-0.366,1.22,447.777
133274,157681,9715,-0.184,1.004,0.125,-1.463,-0.366,1.22,447.781
133274,157628,12162,-0.183,1.012,0.133,-1.341,-0.671,1.463,447.787
133263,157681,9715,-0.183,1.014,0.144,-1.341,-0.671,1.463,447.79
133263,157674,12173,-0.185,1.008,0.15,-2.012,-0.671,1.463,447.797
133255,157681,9715,-0.184,1.004,0.158,-2.012,-0.671,1.463,447.8
133255,157619,12161,-0.18,1.002,0.166,-2.256,-0.61,1.646,447.807
133255,157681,9715,-0.175,1.009,0.167,-2.256,-0.61,1.646,447.81
133255,157631,12156,-0.174,1.013,0.168,-1.585,-0.488,1.22,447.816
133260,157681,9715,-0.178,1.01,0.162,-1.585,-0.488,1.22,447.82
133260,157638,12152,-0.181,1.008,0.157,-0.427,0.366,0.244,447.826
133264,157681,9715,-0.184,1.011,0.147,-0.427,0.366,0.244,447.83
133264,157644,12163,-0.184,1.012,0.136,0.732,0.976,-0.366,447.836
133272,157681,9715,-0.181,1.008,0.136,0.732,0.976,-0.366,447.84
133272,157630,12176,-0.179,1.005,0.138,1.28,0.915,-0.61,447.846
133264,157681,9715,-0.182,1.006,0.127,1.28,0.915,-0.61,447.85
133264,157652,12182,-0.182,1,0.121,0.549,0.732,-0.366,447.856
133259,157681,9715,-0.182,1.001,0.117,0.549,0.732,-0.366,447.86
133259,157631,12162,-0.181,1.007,0.124,-0.915,0.061,-0.061,447.866
133254,157681,9715,-0.18,1.001,0.132,-0.915,0.061,-0.061,447.87
133254,157638,12183,-0.179,0.992,0.15,-1.585,0.061,0.427,447.876
133262,157681,9715,-0.18,0.987,0.159,-1.585,0.061,0.427,447.88
133262,157650,12196,-0.181,0.984,0.167,-1.707,0.427,0.549,447.886
133261,157681,9715,-0.182,0.992,0.168,-1.707,0.427,0.549,447.889
133261,157639,12177,-0.179,1.002,0.161,-1.463,0.366,0.549,447.896
133257,157681,9715,-0.179,1.007,0.158,-1.463,0.366,0.549,447.899
133257,157631,12171,-0.179,1.005,0.156,-0.488,0.915,0.061,447.906
133241,157681,9715,-0.184,1.004,0.15,-0.488,0.915,0.061,447.909
133241,157614,12178,-0.187,1.006,0.146,0.061,1.524,-0.366,447.915
133258,157681,9715,-0.185,1.01,0.146,0.061,1.524,-0.366,447.919
133258,157632,12174,-0.187,1.011,0.138,0,1.707,-0.305,447.925
133221,157681,9715,-0.187,1.003,0.122,0,1.707,-0.305,447.929
133221,157623,12173,-0.189,0.996,0.118,-0.183,1.463,-0.183,447.935
133223,157681,9715,-0.187,0.999,0.111,-0.183,1.463,-0.183,447.939
133223,157626,12163,-0.188,1.003,0.112,0.244,0.854,0.244,447.945
133207,157681,9715,-0.186,1.008,0.115,0.244,0.854,0.244,447.949
133207,157600,12168,-0.185,1.008,0.122,0.061,0.366,0.549,447.955
133156,157681,9715,-0.185,1.01,0.133,0.061,0.366,0.549,447.959
133156,157591,12159,-0.187,1.005,0.145,-0.61,0.549,0.671,447.965
133118,157681,9715,-0.183,1,0.153,-0.61,0.549,0.671,447.969
133118,157561,12151,-0.179,1,0.161,-1.098,0.488,0.854,447.975
133077,157681,9715,-0.176,0.998,0.169,-1.098,0.488,0.854,447.979
133077,157529,12139,-0.178,0.998,0.169,-0.732,0.671,0.671,447.985
133012,157681,9715,-0.18,1.002,0.158,-0.732,0.671,0.671,447.988
133012,157480,12139,-0.176,1.011,0.144,0.671,0.61,-0.122,447.995
132998,157681,9715,-0.179,1.012,0.132,0.671,0.61,-0.122,447.998
132998,157505,12120,-0.192,1.008,0.126,0.793,0.488,-0.793,448.005
132977,157681,9715,-0.195,1.007,0.114,0.793,0.488,-0.793,448.008
132977,157472,12132,-0.187,1.011,0.113,0,0.488,-0.427,448.014
132996,157681,9715,-0.183,1.011,0.118,0,0.488,-0.427,448.018
132996,157504,12147,-0.187,1.008,0.122,-1.402,0,0.183,448.024
133004,157681,9715,-0.188,1.002,0.128,-1.402,0,0.183,448.028
133004,157481,12140,-0.189,0.997,0.127,-1.159,-0.183,0.488,448.034
132992,157681,9715,-0.186,1.001,0.129,-1.159,-0.183,0.488,448.038
132992,157500,12143,-0.183,1.011,0.141,-0.427,-0.61,0.366,448.044
132995,157681,9715,-0.182,1.01,0.152,-0.427,-0.61,0.366,448.048
132995,157493,12134,-0.182,1.004,0.154,0.122,-0.61,0.183,448.054
133002,157681,9715,-0.181,1.002,0.154,0.122,-0.61,0.183,448.058
133002,157514,12122,-0.18,1,0.162,-0.305,-0.549,0,448.064
132993,157681,9715,-0.182,0.999,0.167,-0.305,-0.549,0,448.068
132993,157485,12138,-0.18,0.999,0.168,-0.854,-0.549,0,448.074
132983,157681,9715,-0.18,0.997,0.158,-0.854,-0.549,0,448.078
132983,157497,12135,-0.184,1.003,0.142,-0.183,-0.305,0,448.084
132996,157681,9715,-0.182,0.991,0.131,-0.183,-0.305,0,448.087
132996,157509,12140,-0.183,0.986,0.124,0.244,-0.61,-0.183,448.094
132990,157681,9715,-0.184,0.993,0.111,0.244,-0.61,-0.183,448.097
132990,157493,12145,-0.185,1.005,0.105,0.488,-0.976,0.488,448.104
133009,157681,9715,-0.184,1.015,0.111,0.488,-0.976,0.488,448.107
133009,157475,12141,-0.186,1.011,0.117,-0.183,-1.037,0.61,448.113
132967,157681,9715,-0.191,1.006,0.126,-0.183,-1.037,0.61,448.117
132967,157476,12142,-0.187,1.006,0.126,-1.037,-1.28,1.159,448.123
132961,157681,9715,-0.181,1.012,0.134,-1.037,-1.28,1.159,448.127
132961,157485,12134,-0.178,1.01,0.151,-1.768,-1.707,1.341,448.133
132970,157681,9715,-0.18,1.007,0.163,-1.768,-1.707,1.341,448.137
132970,157482,12149,-0.185,1.005,0.167,-0.915,-0.854,0.915,448.143
132991,157681,9715,-0.188,1.004,0.162,-0.915,-0.854,0.915,448.147
132991,157505,12143,-0.18,1.002,0.164,-0.793,-0.366,0.366,448.153
132978,157681,9715,-0.18,1.002,0.164,-0.793,-0.366,0.366,448.157
132978,157488,12151,-0.179,1.003,0.166,-0.122,0.122,0.183,448.163
132966,157681,9715,-0.179,1.003,0.166,-0.122,0.122,0.183,448.167
132966,157499,12147,-0.177,1.001,0.152,0.366,0.488,-0.061,448.173
132953,157681,9715,-0.177,1.001,0.152,0.366,0.488,-0.061,448.177
132953,157473,12146,-0.179,0.996,0.143,0.122,0.793,-0.061,448.183
132939,157681,9715,-0.179,0.996,0.143,0.122,0.793,-0.061,448.186
132939,157455,12147,-0.178,0.986,0.134,-0.732,0.854,0.549,448.193
132928,157681,9715,-0.178,0.986,0.134,-0.732,0.854,0.549,448.196
132928,157472,12147,-0.181,0.991,0.137,-1.037,0.732,1.159,448.202
132932,157681,9715,-0.181,0.991,0.137,-1.037,0.732,1.159,448.206
132932,157457,12140,-0.176,1.009,0.137,-0.427,0.427,1.037,448.212
132922,157681,9715,-0.176,1.009,0.137,-0.427,0.427,1.037,448.216
132922,157458,12149,-0.182,1.011,0.144,-0.61,0.183,1.037,448.222
132930,157681,9715,-0.182,1.011,0.144,-0.61,0.183,1.037,448.226
132930,157473,12146,-0.181,1.005,0.152,-1.341,0.305,0.915,448.232
132945,157681,9715,-0.181,1.005,0.152,-1.341,0.305,0.915,448.236
132945,157498,12144,-0.186,1.007,0.156,-1.402,0.61,0.671,448.242
132934,157681,9715,-0.186,1.007,0.156,-1.402,0.61,0.671,448.246
132934,157459,12120,-0.184,1.007,0.162,-0.549,1.098,0.366,448.252
132903,157425,9715,-0.184,1.007,0.162,-0.549,1.098,0.366,448.256
132903,157432,12146,-0.184,1.014,0.144,0.122,1.402,0.183,448.262
132901,157681,9715,-0.184,1.014,0.144,0.122,1.402,0.183,448.266
132901,157443,12145,-0.183,1.013,0.139,-0.427,1.159,-0.244,448.272
132927,157681,9715,-0.183,1.013,0.139,-0.427,1.159,-0.244,448.276
132927,157464,12144,-0.185,0.996,0.126,-0.854,1.098,-0.122,448.282
132928,157681,9715,-0.185,0.996,0.126,-0.854,1.098,-0.122,448.285
132928,157452,12132,-0.182,0.993,0.13,-0.854,0.671,0.122,448.292
132934,157681,9715,-0.182,0.993,0.13,-0.854,0.671,0.122,448.295
132934,157483,12143,-0.182,0.997,0.122,-0.854,0.671,0.122,448.302
132938,157681,9715,-0.183,0.998,0.127,-0.488,0.244,0.244,448.305
132938,157475,12137,-0.184,1.001,0.136,-0.488,0.244,0.244,448.311
132942,157681,9715,-0.184,0.998,0.138,-0.366,-0.061,0.305,448.315
132942,157477,12134,-0.186,0.998,0.144,-0.366,-0.061,0.305,448.321
132946,157681,9715,-0.184,0.997,0.149,-0.488,0,0.732,448.325
132946,157482,12122,-0.182,0.996,0.155,-0.488,0,0.732,448.331
132934,157681,9715,-0.184,0.994,0.16,-0.427,0.366,0.976,448.335
132934,157465,12142,-0.183,1.005,0.159,-0.427,0.366,0.976,448.341
132905,157681,9715,-0.182,1.01,0.159,-0.488,0.488,0.793,448.345
132905,157450,12147,-0.182,1.005,0.16,-0.488,0.488,0.793,448.351
132899,157681,9715,-0.183,1.002,0.148,-0.305,0.671,0.488,448.355
132899,157451,12128,-0.187,1.004,0.139,-0.305,0.671,0.488,448.361
132904,157681,9715,-0.181,1.007,0.134,-0.366,0.122,0.61,448.365
132904,157464,12127,-0.179,1.016,0.134,-0.366,0.122,0.61,448.371
132922,157681,9715,-0.185,1.011,0.135,-0.671,0.244,0.732,448.375
132922,157476,12128,-0.185,1.001,0.133,-0.671,0.244,0.732,448.381
132949,157681,9715,-0.184,1.005,0.139,-0.427,0.549,0.671,448.384
132949,157486,12143,-0.183,1.011,0.141,-0.427,0.549,0.671,448.391
132978,157681,9715,-0.178,1.013,0.136,-0.244,0.183,0.61,448.394
132978,157496,12133,-0.178,1.011,0.135,-0.244,0.183,0.61,448.4
132982,157681,9715,-0.184,1.005,0.138,-0.244,-0.427,0.488,448.404
132982,157504,12153,-0.184,0.999,0.142,-0.244,-0.427,0.488,448.41
132977,157681,9715,-0.177,1,0.147,0,-0.427,0.366,448.414
132977,157487,12140,-0.179,0.997,0.151,0,-0.427,0.366,448.42
132988,157681,9715,-0.182,0.998,0.154,0.305,0.183,0.183,448.424
132988,157483,12145,-0.178,0.997,0.158,0.305,0.183,0.183,448.43
132974,157681,9715,-0.178,0.999,0.164,0.366,0.549,0.061,448.434
132974,157473,12136,-0.181,1,0.162,0.366,0.549,0.061,448.44
132970,157681,9715,-0.184,1.001,0.152,-0.122,0.732,-0.122,448.444
132970,157486,12140,-0.179,0.998,0.147,-0.122,0.732,-0.122,448.45
132930,157681,9715,-0.18,0.992,0.143,-0.122,0.732,-0.061,448.454
132930,157453,12133,-0.18,0.992,0.136,-0.122,0.732,-0.061,448.46
132965,157681,9715,-0.18,0.99,0.13,-0.061,0.61,0.183,448.464
132965,157459,12119,-0.183,0.993,0.128,-0.061,0.61,0.183,448.47
132931,157681,9715,-0.183,0.999,0.128,-0.244,0.488,0.488,448.474
132931,157492,12132,-0.186,1.002,0.127,-0.244,0.488,0.488,448.48
132973,157681,9715,-0.186,1.006,0.127,-0.427,0.183,1.037,448.483
132973,157503,12132,-0.186,1.014,0.13,-0.427,0.183,1.037,448.49
132996,157681,9715,-0.185,1.013,0.138,-0.549,-0.427,1.098,448.493
132996,157498,12150,-0.183,1.011,0.142,-0.549,-0.427,1.098,448.499
132982,157681,9715,-0.184,1.007,0.146,-1.159,-0.488,1.22,448.503
132982,157500,12146,-0.181,1.003,0.148,-1.159,-0.488,1.22,448.509
133000,157681,9715,-0.18,1.009,0.15,-1.037,-0.366,0.976,448.513
133000,157500,12148,-0.181,1.015,0.155,-1.037,-0.366,0.976,448.519
132982,157681,9715,-0.179,1.011,0.162,0,0.061,0.244,448.523
132982,157499,12137,-0.182,1.01,0.158,0,0.061,0.244,448.529
132982,157681,9715,-0.177,1.006,0.153,0.244,0.305,0,448.533
132982,157485,12140,-0.18,1.003,0.15,0.244,0.305,0,448.539
132976,157681,9715,-0.181,1,0.149,-0.122,0.305,-0.183,448.543
132976,157490,12140,-0.181,0.998,0.148,-0.122,0.305,-0.183,448.549
132956,157681,9715,-0.183,0.996,0.147,0.061,0.854,-0.061,448.553
132956,157476,12143,-0.186,1.001,0.142,0.061,0.854,-0.061,448.559
132948,157681,9715,-0.183,1.009,0.133,0.061,0.793,0.061,448.563
132948,157463,12146,-0.178,1.005,0.132,0.061,0.793,0.061,448.569
132915,157681,9715,-0.182,0.995,0.137,-0.366,0.366,0.244,448.573
132915,157484,12122,-0.184,0.995,0.141,-0.366,0.366,0.244,448.579
132903,157425,9715,-0.185,0.994,0.148,-0.976,0.671,0.671,448.582
132903,157432,12123,-0.183,0.994,0.153,-0.976,0.671,0.671,448.589
132849,157425,9715,-0.183,0.995,0.153,-1.159,0.671,0.732,448.592
132849,157416,12146,-0.181,0.989,0.147,-1.159,0.671,0.732,448.599
132845,157425,9715,-0.184,0.991,0.143,-0.793,0.549,0.793,448.602
132845,157384,12121,-0.182,0.997,0.143,-0.793,0.549,0.793,448.608
132821,157425,9715,-0.183,1.005,0.143,-0.122,0.61,0.671,448.612
132821,157409,12131,-0.181,1.011,0.14,-0.122,0.61,0.671,448.618
132812,157425,9715,-0.182,1.016,0.143,0.61,0.793,0.305,448.622
132812,157396,12130,-0.184,1.016,0.136,0.61,0.793,0.305,448.628
132799,157425,9715,-0.185,1.013,0.136,-0.122,0.366,0.183,448.632
132799,157401,12126,-0.184,1.011,0.132,-0.122,0.366,0.183,448.638
132823,157425,9715,-0.18,1.005,0.133,-1.402,0.183,0.549,448.642
132823,157404,12118,-0.178,1.003,0.141,-1.402,0.183,0.549,448.648
132833,157425,9715,-0.178,1.006,0.146,-1.22,0.488,0.488,448.652
132833,157424,12130,-0.178,1.011,0.147,-1.22,0.488,0.488,448.658
132838,157425,9715,-0.176,1.017,0.14,-0.488,0.244,0,448.662
132838,157406,12102,-0.178,1.015,0.144,-0.488,0.244,0,448.668
132824,157425,9715,-0.18,1.002,0.148,-0.244,0.183,-0.305,448.672
132824,157435,12125,-0.184,0.994,0.145,-0.244,0.183,-0.305,448.678
132845,157425,9715,-0.183,0.998,0.146,-0.061,0.427,-0.122,448.681
132845,157414,12132,-0.181,1.002,0.154,-0.061,0.427,-0.122,448.688
132856,157425,9715,-0.179,1.002,0.156,0.549,0.732,-0.122,448.691
132856,157408,12125,-0.183,0.999,0.161,0.549,0.732,-0.122,448.697
132839,157425,9715,-0.186,0.997,0.163,0.671,1.28,-0.244,448.701
132839,157423,12120,-0.184,0.996,0.163,0.671,1.28,-0.244,448.707
132831,157425,9715,-0.182,0.989,0.156,0.427,1.585,0.122,448.711
132831,157434,12129,-0.178,0.985,0.15,0.427,1.585,0.122,448.717
132842,157425,9715,-0.177,0.989,0.15,0.488,1.585,0.305,448.721
132842,157416,12106,-0.182,0.997,0.144,0.488,1.585,0.305,448.727
132807,157425,9715,-0.183,1.002,0.145,0.732,1.829,0.305,448.731
132807,157399,12129,-0.184,1.005,0.142,0.732,1.829,0.305,448.737
132849,157425,9715,-0.184,1.005,0.142,0.732,1.829,0.305,448.741
132849,157398,12129,-0.182,1.01,0.139,1.159,1.768,0.366,448.747
132824,157425,9715,-0.182,1.01,0.139,1.159,1.768,0.366,448.751
132824,157404,12132,-0.18,0.998,0.127,0.244,1.341,0.61,448.757
132835,157425,9715,-0.18,0.998,0.127,0.244,1.341,0.61,448.761
132835,157410,12137,-0.184,1.012,0.123,-0.244,0.915,0.61,448.767
132851,157425,9715,-0.184,1.012,0.123,-0.244,0.915,0.61,448.771
132851,157432,12147,-0.188,1.012,0.132,-0.061,0.488,0.366,448.777
132874,157681,9715,-0.188,1.012,0.132,-0.061,0.488,0.366,448.78
132874,157455,12133,-0.185,1.01,0.136,-0.549,0.427,0.427,448.787
132866,157681,9715,-0.185,1.01,0.136,-0.549,0.427,0.427,448.79
132866,157454,12143,-0.185,0.998,0.151,-1.037,0.061,0.366,448.797
132865,157681,9715,-0.185,0.998,0.151,-1.037,0.061,0.366,448.8
132865,157451,12137,-0.184,1,0.15,-0.671,0.122,0.366,448.806
132853,157681,9715,-0.184,1,0.15,-0.671,0.122,0.366,448.81
132853,157444,12136,-0.183,1.009,0.146,0.305,0.366,0.183,448.816
132867,157681,9715,-0.183,1.009,0.146,0.305,0.366,0.183,448.82
132867,157451,12127,-0.181,1.002,0.137,0.732,0.305,0.122,448.826
132853,157425,9715,-0.181,1.002,0.137,0.732,0.305,0.122,448.83
132853,157437,12145,-0.181,0.996,0.144,-0.183,0.366,0,448.836
132857,157681,9715,-0.181,0.996,0.144,-0.183,0.366,0,448.84
132857,157445,12126,-0.182,0.995,0.138,-0.671,0.366,0.305,448.846
132829,157681,9715,-0.182,0.995,0.138,-0.671,0.366,0.305,448.85
132829,157444,12133,-0.178,0.997,0.145,-0.366,0.244,0.61,448.856
132808,157425,9715,-0.178,0.997,0.145,-0.366,0.244,0.61,448.86
132808,157411,12128,-0.183,1.006,0.148,-0.244,0.183,0.793,448.866
132789,157425,9715,-0.183,1.006,0.148,-0.244,0.183,0.793,448.87
132789,157410,12122,-0.183,1.006,0.142,-0.671,0.244,0.793,448.876
132781,157425,9715,-0.183,1.006,0.142,-0.671,0.244,0.793,448.879
132781,157387,12124,-0.18,1.005,0.144,-0.854,-0.061,0.732,448.886
132720,157425,9715,-0.182,1.005,0.152,-0.854,-0.061,0.732,448.889
132720,157336,12128,-0.181,1.002,0.151,-0.854,0.244,0.732,448.895
132684,157425,9715,-0.181,0.999,0.149,-0.854,0.244,0.732,448.899
132684,157339,12116,-0.182,1.003,0.147,-0.061,0.366,0.427,448.905
132638,157425,9715,-0.181,1.012,0.149,-0.061,0.366,0.427,448.909
132638,157294,12118,-0.182,1.012,0.153,0,0.305,0.305,448.915
132622,157425,9715,-0.184,1.007,0.152,0,0.305,0.305,448.919
132622,157306,12104,-0.184,1.001,0.149,-0.122,0.671,0.183,448.925
132600,157425,9715,-0.181,0.999,0.144,-0.122,0.671,0.183,448.929
132600,157286,12098,-0.182,0.999,0.146,0.793,0.915,0,448.935
132603,157425,9715,-0.183,1.005,0.141,0.793,0.915,0,448.939
132603,157280,12104,-0.181,1.012,0.138,1.159,0.793,-0.122,448.945
132621,157425,9715,-0.182,1.014,0.138,1.159,0.793,-0.122,448.949
132621,157274,12103,-0.182,1.012,0.137,0.854,0.915,-0.183,448.955
132626,157425,9715,-0.182,1.01,0.141,0.854,0.915,-0.183,448.959
132626,157292,12100,-0.178,1.003,0.147,0,0.732,0,448.965
132638,157425,9715,-0.182,0.997,0.151,0,0.732,0,448.969
132638,157279,12103,-0.185,0.994,0.148,-0.915,1.098,0.183,448.975
132627,157425,9715,-0.185,0.998,0.148,-0.915,1.098,0.183,448.978
132627,157291,12095,-0.183,0.999,0.147,-0.854,1.037,0.061,448.985
132636,157425,9715,-0.183,1,0.146,-0.854,1.037,0.061,448.988
132636,157297,12111,-0.184,0.999,0.142,0.305,0.732,0.061,448.995
132641,157425,9715,-0.188,0.996,0.142,0.305,0.732,0.061,448.998
132641,157272,12094,-0.189,0.994,0.136,0.305,0.854,0.061,449.004
132635,157425,9715,-0.185,0.993,0.135,0.305,0.854,0.061,449.008
132635,157328,12099,-0.185,0.998,0.133,0.183,0.671,0.427,449.014
132645,157425,9715,-0.184,1.002,0.129,0.183,0.671,0.427,449.018
132645,157305,12105,-0.188,1,0.13,0.366,0.244,0.671,449.024
132652,157425,9715,-0.188,1.005,0.133,0.366,0.244,0.671,449.028
132652,157336,12100,-0.187,1.01,0.137,0.305,0.244,0.793,449.034
132685,157425,9715,-0.185,1.007,0.142,0.305,0.244,0.793,449.038
132685,157328,12109,-0.183,1.008,0.147,0,-0.061,1.098,449.044
132697,157425,9715,-0.182,1.007,0.146,0,-0.061,1.098,449.048
132697,157361,12082,-0.181,1.009,0.142,-0.244,-0.305,1.037,449.054
132694,157425,9715,-0.181,1.007,0.137,-0.244,-0.305,1.037,449.058
132694,157349,12116,-0.184,1.005,0.136,0.305,-0.366,0.549,449.064
132698,157425,9715,-0.183,1.003,0.144,0.305,-0.366,0.549,449.068
132698,157338,12117,-0.183,1.007,0.146,0.854,-0.061,0.427,449.074
132673,157425,9715,-0.184,1.006,0.144,0.854,-0.061,0.427,449.077
132673,157335,12112,-0.185,1.005,0.143,0.366,0.061,0.366,449.084
132659,157425,9715,-0.185,1.001,0.147,0.366,0.061,0.366,449.087
132659,157348,12093,-0.185,0.995,0.146,-0.427,0.061,0.427,449.093
132635,157425,9715,-0.183,1,0.139,-0.427,0.061,0.427,449.097
132635,157294,12100,-0.184,1.001,0.131,-0.61,-0.366,0.732,449.103
132617,157425,9715,-0.184,1.005,0.139,-0.61,-0.366,0.732,449.107
132617,157282,12091,-0.179,1.005,0.143,0.183,-0.732,0.732,449.113
132581,157425,9715,-0.182,1.001,0.143,0.183,-0.732,0.732,449.117
132581,157268,12088,-0.184,1.001,0.139,0.122,-0.427,0.793,449.123
132559,157425,9715,-0.181,1.006,0.137,0.122,-0.427,0.793,449.127
132559,157254,12106,-0.18,1.007,0.141,-0.305,-0.61,0.854,449.133
132517,157425,9715,-0.179,1.008,0.147,-0.305,-0.61,0.854,449.137
132517,157242,12087,-0.179,1.005,0.154,-0.305,-0.61,0.854,449.143
132493,157425,9715,-0.182,1.007,0.152,-0.305,-0.61,0.854,449.147
132493,157214,12080,-0.181,1.002,0.145,-0.549,-0.305,0.732,449.153
132474,157425,9715,-0.178,1.003,0.142,-0.549,-0.305,0.732,449.157
132474,157194,12082,-0.181,1.002,0.149,-0.488,-0.671,0.732,449.163
132461,157425,9715,-0.184,1.004,0.149,-0.488,-0.671,0.732,449.167
132461,157207,12100,-0.185,1.003,0.148,-0.061,-0.122,0.732,449.173
132450,157425,9715,-0.181,1.005,0.144,-0.061,-0.122,0.732,449.176
132450,157198,12075,-0.178,1.005,0.146,0.61,-0.061,0.427,449.183
132451,157425,9715,-0.178,1.01,0.146,0.61,-0.061,0.427,449.186
132451,157201,12072,-0.179,1.011,0.15,0.183,-0.183,0.366,449.193
132447,157425,9715,-0.178,1.003,0.155,0.183,-0.183,0.366,449.196
132447,157188,12058,-0.179,1.002,0.156,-0.61,0.549,0.305,449.202
132462,157169,9715,-0.18,1.002,0.151,-0.61,0.549,0.305,449.206
132462,157169,12068,-0.177,1,0.146,-0.976,0.427,0.122,449.212
132444,157169,9715,-0.175,0.999,0.146,-0.976,0.427,0.122,449.216
132444,157183,12059,-0.175,1.001,0.15,-0.671,0.305,0,449.222
132449,157425,9715,-0.177,0.998,0.153,-0.671,0.305,0,449.226
132449,157214,12082,-0.183,0.998,0.151,-0.244,1.098,-0.122,449.232
132456,157425,9715,-0.178,1.002,0.148,-0.244,1.098,-0.122,449.236
132456,157209,12070,-0.176,1.005,0.157,0,1.22,-0.305,449.242
132462,157425,9715,-0.181,1.005,0.155,0,1.22,-0.305,449.246
132462,157191,12064,-0.183,1.005,0.147,0,1.402,-0.183,449.252
132472,157425,9715,-0.184,1.005,0.145,0,1.402,-0.183,449.256
132472,157247,12070,-0.183,1.002,0.143,-0.244,1.524,-0.183,449.262
132481,157425,9715,-0.184,0.997,0.135,-0.244,1.524,-0.183,449.266
132481,157202,12069,-0.184,0.999,0.13,-0.61,1.22,0.061,449.272
132467,157425,9715,-0.182,0.999,0.131,-0.61,1.22,0.061,449.275
132467,157246,12086,-0.185,1.001,0.131,-0.061,0.915,0.061,449.282
132500,157425,9715,-0.191,1.004,0.137,-0.061,0.915,0.061,449.285
132500,157251,12086,-0.19,1.003,0.141,0.305,0.976,0.305,449.292
132515,157425,9715,-0.186,1.003,0.142,0.305,0.976,0.305,449.295
132515,157242,12084,-0.186,1.002,0.143,0.183,0.854,0.549,449.301
132509,157425,9715,-0.182,1.003,0.145,0.183,0.854,0.549,449.305
132509,157261,12081,-0.181,1.002,0.147,-0.183,0.671,0.854,449.311
132526,157425,9715,-0.181,0.996,0.148,-0.183,0.671,0.854,449.315
132526,157256,12068,-0.183,0.998,0.145,-0.122,0.549,0.793,449.321
132525,157425,9715,-0.179,1.001,0.145,-0.122,0.549,0.793,449.325
132525,157260,12091,-0.177,0.998,0.142,0.244,0.427,0.549,449.331
132548,157425,9715,-0.177,0.998,0.142,0.244,0.427,0.549,449.335
132548,157267,12097,-0.182,1.008,0.144,0.366,0.671,0.549,449.341
132547,157425,9715,-0.182,1.008,0.144,0.366,0.671,0.549,449.345
132547,157274,12077,-0.18,1.002,0.137,0.183,0.488,0.61,449.351
132549,157425,9715,-0.18,1.002,0.137,0.183,0.488,0.61,449.355
132549,157267,12096,-0.181,1,0.138,0.244,0.244,0.61,449.361
132547,157425,9715,-0.181,1,0.138,0.244,0.244,0.61,449.365
132547,157282,12086,-0.184,1.007,0.13,0.549,0.183,0.61,449.371
132527,157425,9715,-0.184,1.007,0.13,0.549,0.183,0.61,449.374
132527,157260,12079,-0.175,1.009,0.136,0.488,-0.305,0.61,449.381
132548,157425,9715,-0.175,1.009,0.136,0.488,-0.305,0.61,449.384
132548,157283,12081,-0.182,0.998,0.143,-0.244,-0.244,0.671,449.391
132537,157425,9715,-0.182,0.998,0.143,-0.244,-0.244,0.671,449.394
132537,157271,12105,-0.18,0.992,0.154,-0.61,0.305,0.732,449.4
132545,157425,9715,-0.18,0.992,0.154,-0.61,0.305,0.732,449.404
132545,157268,12081,-0.178,0.992,0.157,0.366,0.732,0.732,449.41
132531,157425,9715,-0.178,0.992,0.157,0.366,0.732,0.732,449.414
132531,157250,12089,-0.183,0.99,0.157,1.037,1.22,0.793,449.42
132538,157425,9715,-0.183,0.99,0.157,1.037,1.22,0.793,449.424
132538,157267,12082,-0.187,1.002,0.15,1.159,1.585,0.793,449.43
132517,157425,9715,-0.187,1.002,0.15,1.159,1.585,0.793,449.434
132517,157296,12093,-0.187,1.011,0.136,1.28,1.28,0.732,449.44
132538,157425,9715,-0.187,1.011,0.136,1.28,1.28,0.732,449.444
132538,157302,12080,-0.185,1.014,0.135,0.549,0.671,0.915,449.45
132547,157425,9715,-0.185,1.014,0.135,0.549,0.671,0.915,449.454
132547,157285,12091,-0.182,0.999,0.127,-0.427,0.183,1.28,449.46
132562,157425,9715,-0.182,0.999,0.127,-0.427,0.183,1.28,449.464
132562,157316,12106,-0.18,1.008,0.13,-1.098,-0.427,1.524,449.47
132569,157425,9715,-0.18,1.008,0.13,-1.098,-0.427,1.524,449.473
132569,157296,12099,-0.18,1.009,0.138,-1.098,-0.427,1.524,449.48
132571,157425,9715,-0.18,1.01,0.142,-0.854,-0.488,1.402,449.483
132571,157296,12094,-0.18,1.012,0.141,-0.854,-0.488,1.402,449.49
132535,157425,9715,-0.179,1.009,0.147,-0.671,-0.427,1.098,449.493
132535,157303,12092,-0.178,1,0.156,-0.671,-0.427,1.098,449.499
132573,157425,9715,-0.177,1.002,0.166,0.671,-0.183,0.976,449.503
132573,157296,12105,-0.174,0.996,0.166,0.671,-0.183,0.976,449.509
132567,157425,9715,-0.176,1.008,0.152,2.195,0.61,0.244,449.513
132567,157286,12102,-0.176,1.023,0.146,2.195,0.61,0.244,449.519
132545,157425,9715,-0.183,1.028,0.138,1.829,0.427,-0.854,449.523
132545,157292,12089,-0.186,1.023,0.135,1.829,0.427,-0.854,449.529
132555,157425,9715,-0.19,1.009,0.13,0.915,0.549,-1.037,449.533
132555,157277,12115,-0.192,0.994,0.124,0.915,0.549,-1.037,449.539
132568,157425,9715,-0.186,0.993,0.119,0.488,0.549,-0.366,449.543
132568,157308,12073,-0.179,0.998,0.12,0.488,0.549,-0.366,449.549
132569,157425,9715,-0.181,1.005,0.121,0.732,-0.244,0.122,449.553
132569,157280,12107,-0.181,1.009,0.12,0.732,-0.244,0.122,449.559
132573,157425,9715,-0.184,1.011,0.13,-0.122,-0.61,0.244,449.562
132573,157294,12087,-0.188,1.012,0.14,-0.122,-0.61,0.244,449.569
132579,157425,9715,-0.182,1.001,0.143,-1.463,-0.671,0.671,449.572
132579,157310,12110,-0.18,0.991,0.145,-1.463,-0.671,0.671,449.579
132590,157425,9715,-0.177,0.99,0.156,-1.768,-0.915,1.037,449.582
132590,157319,12077,-0.176,0.995,0.162,-1.768,-0.915,1.037,449.588
132592,157425,9715,-0.176,1.002,0.173,-0.488,-0.183,0.671,449.592
132592,157313,12111,-0.178,1.009,0.178,-0.488,-0.183,0.671,449.598
132621,157425,9715,-0.177,1.007,0.176,0.366,0.671,0,449.602
132621,157312,12095,-0.175,1.008,0.168,0.366,0.671,0,449.608
132595,157425,9715,-0.174,1.006,0.157,0.61,0.854,-0.366,449.612
132595,157296,12094,-0.175,1.006,0.147,0.61,0.854,-0.366,449.618
132626,157425,9715,-0.176,1.004,0.143,1.341,1.341,-0.915,449.622
132626,157298,12096,-0.182,1.004,0.139,1.341,1.341,-0.915,449.628
132606,157425,9715,-0.179,1.006,0.136,1.524,1.768,-1.159,449.632
132606,157299,12087,-0.181,1.005,0.132,1.524,1.768,-1.159,449.638
132622,157425,9715,-0.184,1,0.124,0.61,1.585,-0.793,449.642
132622,157308,12110,-0.184,0.999,0.118,0.61,1.585,-0.793,449.648
132627,157425,9715,-0.183,0.998,0.114,-0.427,0.732,-0.305,449.652
132627,157306,12104,-0.182,1.001,0.12,-0.427,0.732,-0.305,449.658
132643,157425,9715,-0.182,1.004,0.129,-0.793,0.305,0.305,449.662
132643,157341,12095,-0.187,1.004,0.137,-0.793,0.305,0.305,449.668
132658,157425,9715,-0.187,0.999,0.145,-0.854,0.488,0.488,449.671
132658,157324,12111,-0.186,1.003,0.152,-0.854,0.488,0.488,449.678
132650,157425,9715,-0.185,1.003,0.157,-1.22,0.61,0.671,449.681
132650,157323,12112,-0.179,0.996,0.16,-1.22,0.61,0.671,449.688
132640,157425,9715,-0.184,0.993,0.161,-1.098,1.159,0.793,449.691
132640,157313,12102,-0.189,0.995,0.155,-1.098,1.159,0.793,449.697
132641,157425,9715,-0.182,1.005,0.152,-0.122,1.646,0.549,449.701
132641,157293,12097,-0.177,1.014,0.146,-0.122,1.646,0.549,449.707
132623,157425,9715,-0.178,1.013,0.139,1.524,1.463,-0.061,449.711
132623,157326,12093,-0.185,1.011,0.13,1.524,1.463,-0.061,449.717
132608,157425,9715,-0.188,1.008,0.125,1.463,1.585,-0.305,449.721
132608,157306,12106,-0.182,1.008,0.12,1.463,1.585,-0.305,449.727
132640,157425,9715,-0.186,1.005,0.112,-0.793,0.915,-0.061,449.731
132640,157328,12099,-0.184,1,0.116,-0.793,0.915,-0.061,449.737
132655,157425,9715,-0.183,1.003,0.122,-1.463,0.122,0.549,449.741
132655,157334,12107,-0.181,1.003,0.128,-1.463,0.122,0.549,449.747
132658,157425,9715,-0.181,1,0.134,-0.854,-0.305,0.549,449.751
132658,157347,12103,-0.187,1.003,0.146,-0.854,-0.305,0.549,449.757
132655,157425,9715,-0.184,1.004,0.151,-0.915,-0.183,0.549,449.76
132655,157323,12106,-0.179,0.997,0.154,-0.915,-0.183,0.549,449.767
132658,157425,9715,-0.18,0.997,0.157,-0.732,0,0.549,449.77
132658,157332,12100,-0.179,1.001,0.161,-0.732,0,0.549,449.777
132601,157425,9715,-0.178,1.002,0.159,0.061,0.183,0.427,449.78
132601,157301,12099,-0.181,1.004,0.159,0.061,0.183,0.427,449.786
132609,157425,9715,-0.182,1.007,0.153,0.305,0.488,0.122,449.79
132609,157294,12079,-0.18,1.008,0.147,0.305,0.488,0.122,449.796
132573,157425,9715,-0.182,1.001,0.142,-0.122,0.854,0.183,449.8
132573,157269,12097,-0.182,0.998,0.136,-0.122,0.854,0.183,449.806
132560,157425,9715,-0.183,0.999,0.131,-0.793,0.976,0.427,449.81
132560,157264,12078,-0.182,1.001,0.134,-0.793,0.976,0.427,449.816
132588,157425,9715,-0.182,1,0.128,-1.159,0.732,0.732,449.82
132588,157300,12100,-0.181,1.001,0.129,-1.159,0.732,0.732,449.826
132611,157425,9715,-0.179,1.005,0.13,-0.61,0.305,0.793,449.83
132611,157292,12091,-0.179,1.009,0.139,-0.61,0.305,0.793,449.836
132631,157425,9715,-0.176,1.015,0.149,-0.793,0.244,0.793,449.84
132631,157340,12096,-0.177,1.01,0.158,-0.793,0.244,0.793,449.846
132665,157425,9715,-0.183,1.013,0.155,-1.098,0.549,0.488,449.85
132665,157320,12102,-0.181,1.01,0.151,-1.098,0.549,0.488,449.856
132670,157425,9715,-0.175,1.003,0.159,-1.28,0.427,0,449.86
132670,157347,12116,-0.177,0.996,0.162,-1.28,0.427,0,449.866
132670,157425,9715,-0.182,0.997,0.163,-0.427,1.22,-0.244,449.869
132670,157326,12093,-0.182,1.001,0.161,-0.427,1.22,-0.244,449.876
132674,157425,9715,-0.179,1.007,0.156,0.61,1.829,-0.671,449.879
132674,157339,12111,-0.182,1.007,0.145,0.61,1.829,-0.671,449.885
132674,157425,9715,-0.183,1,0.145,0.915,1.829,-0.793,449.889
132674,157338,12111,-0.182,0.994,0.14,0.915,1.829,-0.793,449.895
132669,157425,9715,-0.185,0.997,0.139,0.61,1.951,-0.549,449.899
132669,157335,12125,-0.181,1,0.141,0.61,1.951,-0.549,449.905
132678,157425,9715,-0.185,0.997,0.14,0.366,1.951,-0.244,449.909
132678,157338,12091,-0.189,0.997,0.123,0.366,1.951,-0.244,449.915
132668,157425,9715,-0.189,0.997,0.123,0.366,1.951,-0.244,449.919
132668,157354,12105,-0.186,1.009,0.125,-0.122,1.159,-0.061,449.925
132687,157425,9715,-0.186,1.009,0.125,-0.122,1.159,-0.061,449.929
132687,157379,12109,-0.192,1.011,0.125,-0.732,0.915,0.183,449.935
132675,157425,9715,-0.192,1.011,0.125,-0.732,0.915,0.183,449.939
132675,157381,12129,-0.188,1.008,0.122,-1.646,0.854,0.488,449.945
132694,157425,9715,-0.188,1.008,0.122,-1.646,0.854,0.488,449.949
132694,157366,12102,-0.187,1.002,0.125,-1.89,0.061,0.671,449.955
132693,157425,9715,-0.187,1.002,0.125,-1.89,0.061,0.671,449.958
132693,157370,12100,-0.188,0.995,0.143,-1.524,-0.244,0.732,449.965
132674,157425,9715,-0.188,0.995,0.143,-1.524,-0.244,0.732,449.968
132674,157354,12115,-0.182,0.999,0.149,-0.488,0,0.793,449.975
132647,157425,9715,-0.182,0.999,0.149,-0.488,0,0.793,449.978
132647,157322,12118,-0.183,1.002,0.153,-0.244,0.122,0.854,449.984
132637,157425,9715,-0.183,1.002,0.153,-0.244,0.122,0.854,449.988
132637,157303,12103,-0.18,1,0.146,-0.244,0.061,0.671,449.994
132600,157425,9715,-0.18,1,0.146,-0.244,0.061,0.671,449.998
132600,157316,12108,-0.18,1.013,0.141,0.366,0,0.488,450.004
132603,157425,9715,-0.18,1.013,0.141,0.366,0,0.488,450.008
132603,157337,12085,-0.18,1.013,0.134,0.61,-0.061,0.183,450.014
132576,157425,9715,-0.18,1.013,0.134,0.61,-0.061,0.183,450.018
132576,157313,12118,-0.182,0.999,0.144,-0.183,-0.366,0.061,450.024
132564,157425,9715,-0.182,0.999,0.144,-0.183,-0.366,0.061,450.028
132564,157333,12105,-0.185,0.999,0.132,-1.341,-0.488,-0.061,450.034
132574,157425,9715,-0.185,0.999,0.132,-1.341,-0.488,-0.061,450.038
132574,157311,12098,-0.181,0.998,0.131,-1.463,-1.098,0.122,450.044
132563,157425,9715,-0.181,0.998,0.131,-1.463,-1.098,0.122,450.048
132563,157285,12088,-0.191,0.997,0.142,-0.549,-1.037,0.366,450.054
132554,157425,9715,-0.191,0.997,0.142,-0.549,-1.037,0.366,450.058
132554,157309,12082,-0.19,0.999,0.148,-0.854,-0.732,0.61,450.064
132539,157425,9715,-0.186,0.995,0.15,-0.854,-0.732,0.61,450.067
132539,157287,12111,-0.184,0.987,0.152,-1.524,-0.976,0.976,450.074
132533,157425,9715,-0.185,0.985,0.148,-1.524,-0.976,0.976,450.077
132533,157285,12091,-0.187,0.991,0.146,-0.793,-0.915,1.402,450.083
132514,157425,9715,-0.181,1.002,0.147,-0.793,-0.915,1.402,450.087
132514,157273,12105,-0.179,1.003,0.151,0,-0.732,1.22,450.093
132504,157425,9715,-0.183,1.001,0.147,0,-0.732,1.22,450.097
132504,157250,12097,-0.186,1.011,0.141,-0.122,-0.61,1.341,450.103
132477,157425,9715,-0.183,1.017,0.13,-0.122,-0.61,1.341,450.107
132477,157265,12088,-0.182,1.02,0.13,-1.22,-1.341,1.402,450.113
132477,157425,9715,-0.181,1.014,0.135,-1.22,-1.341,1.402,450.117
132477,157239,12084,-0.179,1.009,0.143,-1.463,-1.28,1.463,450.123
132489,157425,9715,-0.178,1.003,0.15,-1.463,-1.28,1.463,450.127
132489,157245,12093,-0.181,1.003,0.156,-1.646,-0.671,1.341,450.133
132487,157425,9715,-0.176,1.005,0.159,-1.646,-0.671,1.341,450.137
132487,157267,12086,-0.169,1.007,0.165,-1.098,-0.549,0.976,450.143
132492,157425,9715,-0.173,1.016,0.157,-1.098,-0.549,0.976,450.147
132492,157259,12094,-0.176,1.019,0.158,-0.305,-0.488,0.488,450.153
132486,157425,9715,-0.177,1.023,0.161,-0.305,-0.488,0.488,450.157
132486,157262,12103,-0.179,1.016,0.168,-0.366,-0.122,-0.305,450.163
132478,157425,9715,-0.18,1.007,0.17,-0.366,-0.122,-0.305,450.166
132478,157277,12089,-0.18,1,0.168,-0.671,0.976,-0.488,450.173
132488,157425,9715,-0.179,1.001,0.157,-0.671,0.976,-0.488,450.176
132488,157296,12098,-0.175,1.001,0.148,-1.463,1.28,-0.549,450.183
132512,157425,9715,-0.175,0.994,0.134,-1.463,1.28,-0.549,450.186
132512,157276,12089,-0.184,0.988,0.125,-1.159,0.976,-0.61,450.192
132509,157425,9715,-0.189,0.989,0.123,-1.159,0.976,-0.61,450.196
132509,157290,12108,-0.183,0.991,0.117,-0.671,0.915,-0.366,450.202
132497,157425,9715,-0.18,0.993,0.121,-0.671,0.915,-0.366,450.206
132497,157277,12087,-0.184,0.997,0.124,0.366,0.488,0.122,450.212
132507,157425,9715,-0.187,1.01,0.131,0.366,0.488,0.122,450.216
132507,157293,12094,-0.188,1.008,0.131,-0.122,0.366,0.488,450.222
132537,157425,9715,-0.186,1.007,0.144,-0.122,0.366,0.488,450.226
132537,157298,12104,-0.182,1.005,0.152,-1.585,0.122,0.671,450.232
132510,157425,9715,-0.182,1.002,0.16,-1.585,0.122,0.671,450.236
132510,157287,12104,-0.179,0.997,0.162,-1.768,0,1.037,450.242
132567,157425,9715,-0.178,0.995,0.154,-1.768,0,1.037,450.246
132567,157290,12109,-0.181,1,0.152,-1.037,0.183,0.549,450.252
132549,157425,9715,-0.183,1.006,0.152,-1.037,0.183,0.549,450.256
132549,157277,12105,-0.184,1.005,0.151,-0.244,0.732,0.183,450.262
132539,157425,9715,-0.183,1.005,0.152,-0.244,0.732,0.183,450.265
132539,157300,12099,-0.183,1.006,0.156,0.488,0.854,0.183,450.272
132567,157425,9715,-0.177,1.008,0.154,0.488,0.854,0.183,450.275
132567,157297,12107,-0.176,1.002,0.154,-0.061,0.793,0.427,450.281
132571,157425,9715,-0.182,1,0.155,-0.061,0.793,0.427,450.285
132571,157305,12097,-0.183,1.004,0.149,-0.061,1.159,0.122,450.291
132574,157425,9715,-0.182,1.008,0.135,-0.061,1.159,0.122,450.295
132574,157334,12112,-0.179,1.009,0.134,0.244,0.732,-0.183,450.301
132579,157425,9715,-0.182,1.011,0.137,0.244,0.732,-0.183,450.305
132579,157323,12095,-0.184,1.011,0.137,0.183,0.427,-0.183,450.311
132580,157425,9715,-0.184,1.006,0.139,0.183,0.427,-0.183,450.315
132580,157309,12104,-0.184,0.998,0.149,-0.793,0.427,-0.122,450.321
132582,157425,9715,-0.181,0.99,0.149,-0.793,0.427,-0.122,450.325
132582,157299,12090,-0.181,0.983,0.15,-1.341,0.305,0.305,450.331
132549,157425,9715,-0.184,0.98,0.15,-1.341,0.305,0.305,450.335
132549,157278,12100,-0.181,0.985,0.151,-0.427,0.488,0.61,450.341
132570,157425,9715,-0.181,0.991,0.151,-0.427,0.488,0.61,450.345
132570,157286,12108,-0.184,1.003,0.153,0.549,0.671,0.549,450.351
132571,157425,9715,-0.183,1.009,0.155,0.549,0.671,0.549,450.355
132571,157285,12098,-0.185,1.011,0.152,0.305,0.732,0.488,450.361
132555,157425,9715,-0.182,1.007,0.148,0.305,0.732,0.488,450.364
132555,157302,12089,-0.177,1.004,0.146,-0.427,0.427,0.732,450.371
132545,157425,9715,-0.181,1,0.14,-0.427,0.427,0.732,450.374
132545,157303,12087,-0.185,1,0.133,-0.732,0.244,0.854,450.381
132543,157425,9715,-0.184,1.008,0.121,-0.732,0.244,0.854,450.384
132543,157311,12090,-0.181,1.016,0.125,-0.549,-0.305,0.732,450.39
132581,157425,9715,-0.179,1.017,0.139,-0.549,-0.305,0.732,450.394
132581,157300,12106,-0.183,1.008,0.149,-0.305,-0.061,0.793,450.4
132600,157425,9715,-0.186,1.003,0.146,-0.305,-0.061,0.793,450.404
132600,157324,12094,-0.182,0.998,0.147,-0.915,0.122,0.671,450.41
132579,157425,9715,-0.178,0.999,0.152,-0.915,0.122,0.671,450.414
132579,157273,12100,-0.175,1.002,0.156,-0.427,-0.427,0.488,450.42
132563,157425,9715,-0.176,1.006,0.155,-0.427,-0.427,0.488,450.424
132563,157301,12093,-0.178,1.01,0.154,0.122,-0.061,0.122,450.43
132542,157425,9715,-0.179,1.009,0.158,0.122,-0.061,0.122,450.434
132542,157281,12102,-0.183,1.001,0.163,-0.244,0.305,-0.305,450.44
132538,157425,9715,-0.183,0.997,0.159,-0.244,0.305,-0.305,450.444
132538,157279,12090,-0.181,0.994,0.155,-0.488,0.549,0.244,450.45
132501,157425,9715,-0.177,0.988,0.153,-0.488,0.549,0.244,450.454
132501,157259,12099,-0.181,0.99,0.147,-0.122,0.61,0.122,450.46
132483,157425,9715,-0.183,0.993,0.138,-0.122,0.61,0.122,450.463
132483,157270,12094,-0.183,0.998,0.131,0.549,0.793,0.061,450.47
132470,157425,9715,-0.184,1.006,0.134,0.549,0.793,0.061,450.473
132470,157240,12082,-0.185,1.01,0.132,0.427,0.549,0.305,450.48
132461,157425,9715,-0.185,1.014,0.135,0.427,0.549,0.305,450.483
132461,157225,12077,-0.184,1.009,0.135,-0.549,0.122,0.671,450.489
132425,157425,9715,-0.182,0.995,0.139,-0.549,0.122,0.671,450.493
132425,157187,12069,-0.183,0.997,0.137,-0.549,0,0.793,450.499
132412,157425,9715,-0.183,1.012,0.145,-0.549,0,0.793,450.503
132412,157195,12063,-0.183,1.021,0.155,-0.366,0.061,0.793,450.509
132373,157169,9715,-0.183,1.021,0.155,-0.366,0.061,0.793,450.513
132373,157177,12081,-0.18,1.009,0.16,0.122,0.366,0.549,450.519
132379,157169,9715,-0.18,1.009,0.16,0.122,0.366,0.549,450.523
