132288,151604,12189,-0.193,0.99,0.178,-1.22,0.427,0.427,491.289
132276,151793,9715,-0.193,0.99,0.178,-1.22,0.427,0.427,491.292
132276,151597,12200,-0.192,0.997,0.196,-1.28,-0.183,0.671,491.299
132289,151793,9715,-0.192,0.997,0.196,-1.28,-0.183,0.671,491.302
132289,151601,12197,-0.196,0.99,0.2,-0.793,-0.305,0.976,491.309
132282,151793,9715,-0.196,0.99,0.2,-0.793,-0.305,0.976,491.312
132282,151582,12190,-0.181,1,0.223,-0.915,-0.732,0.976,491.318
132296,151793,9715,-0.181,1,0.223,-0.915,-0.732,0.976,491.322
132296,151613,12196,-0.188,0.992,0.218,-0.671,0.122,0.793,491.328
132297,151793,9715,-0.188,0.992,0.218,-0.671,0.122,0.793,491.332
132297,151577,12204,-0.17,1.001,0.192,0.427,0.427,0.549,491.338
132302,151793,9715,-0.17,1.001,0.192,0.427,0.427,0.549,491.342
132302,151607,12200,-0.173,1.003,0.183,0.549,0.183,0.061,491.348
132278,151793,9715,-0.173,1.003,0.183,0.549,0.183,0.061,491.352
132278,151587,12208,-0.193,0.983,0.176,-0.427,1.159,0.122,491.358
132291,151793,9715,-0.193,0.983,0.176,-0.427,1.159,0.122,491.362
132291,151581,12193,-0.17,0.994,0.177,-1.037,0.122,0.549,491.368
132288,151537,9715,-0.17,0.994,0.177,-1.037,0.122,0.549,491.372
132288,151543,12211,-0.189,1.002,0.195,-0.854,-0.366,0.427,491.378
132295,151793,9715,-0.189,1.002,0.195,-0.854,-0.366,0.427,491.382
132295,151581,12215,-0.192,1.003,0.206,-0.183,0.854,0.671,491.388
132321,151793,9715,-0.192,1.003,0.206,-0.183,0.854,0.671,491.391
132321,151595,12203,-0.183,0.99,0.21,-1.28,-0.305,0.488,491.398
132301,151793,9715,-0.183,0.99,0.21,-1.28,-0.305,0.488,491.401
132301,151578,12203,-0.187,0.991,0.205,-1.22,-0.549,0.244,491.407
132288,151793,9715,-0.187,0.991,0.205,-1.22,-0.549,0.244,491.411
132288,151565,12215,-0.186,0.995,0.205,-0.122,0.671,0.244,491.417
132313,151793,9715,-0.183,0.993,0.201,-0.122,0.671,0.244,491.421
132313,151579,12217,-0.181,0.989,0.2,-0.122,0.61,-0.061,491.427
132326,151793,9715,-0.182,0.98,0.197,-0.122,0.61,-0.061,491.431
132326,151576,12224,-0.186,0.974,0.192,0.061,0.732,0.305,491.437
132326,151793,9715,-0.179,0.984,0.184,0.061,0.732,0.305,491.441
132326,151606,12213,-0.168,0.994,0.173,0.854,0.549,0.732,491.447
132306,151537,9715,-0.173,0.996,0.173,0.854,0.549,0.732,491.451
132306,151547,12223,-0.184,0.997,0.174,0.061,0.366,0.732,491.457
132280,151537,9715,-0.187,1.001,0.184,0.061,0.366,0.732,491.461
132280,151474,12219,-0.186,1.004,0.198,-1.22,0.183,1.159,491.467
132267,151537,9715,-0.186,1.006,0.202,-1.22,0.183,1.159,491.471
132267,151424,12216,-0.184,1.007,0.207,-1.341,0.061,1.22,491.477
132208,151537,9715,-0.185,1.006,0.212,-1.341,0.061,1.22,491.481
132208,151391,12228,-0.185,1.002,0.214,-1.22,0.488,0.732,491.487
132205,151537,9715,-0.186,1.002,0.216,-1.22,0.488,0.732,491.49
132205,151336,12199,-0.183,1.002,0.214,-0.915,0.488,0.183,491.497
132173,151537,9715,-0.183,0.993,0.211,-0.915,0.488,0.183,491.5
132173,151358,12229,-0.183,0.99,0.205,0.061,0.549,-0.305,491.507
132194,151537,9715,-0.182,0.988,0.197,0.061,0.549,-0.305,491.51
132194,151359,12218,-0.181,0.985,0.189,0.732,0.854,-0.366,491.516
132202,151537,9715,-0.18,0.983,0.18,0.732,0.854,-0.366,491.52
132202,151363,12214,-0.177,0.981,0.177,0.488,0.732,-0.427,491.526
132194,151537,9715,-0.179,0.984,0.167,0.488,0.732,-0.427,491.53
132194,151381,12219,-0.181,0.985,0.163,0,0.183,0.244,491.536
132190,151537,9715,-0.176,0.993,0.173,0,0.183,0.244,491.54
132190,151347,12213,-0.173,1,0.191,-0.488,0.305,0.732,491.546
132174,151537,9715,-0.182,0.995,0.202,-0.488,0.305,0.732,491.55
132174,151328,12227,-0.194,0.99,0.211,-0.732,0.793,0.976,491.556
132174,151537,9715,-0.192,0.993,0.216,-0.732,0.793,0.976,491.56
132174,151309,12209,-0.182,1.002,0.216,-0.61,0.488,1.037,491.566
132152,151281,9715,-0.178,1.011,0.219,-0.61,0.488,1.037,491.57
132152,151272,12205,-0.181,1.007,0.22,-0.61,0.976,0.488,491.576
132162,151281,9715,-0.186,0.997,0.216,-0.61,0.976,0.488,491.579
132162,151287,12207,-0.187,0.99,0.207,-0.671,1.585,0.366,491.586
132174,151537,9715,-0.184,0.994,0.201,-0.671,1.585,0.366,491.589
132174,151319,12212,-0.176,1.001,0.199,-0.366,1.22,-0.061,491.596
132171,151537,9715,-0.176,0.996,0.183,-0.366,1.22,-0.061,491.599
132171,151345,12209,-0.182,0.985,0.172,0.305,1.768,-0.427,491.605
132178,151537,9715,-0.184,0.983,0.175,0.305,1.768,-0.427,491.609
132178,151326,12209,-0.183,0.991,0.173,-0.122,1.159,0.183,491.615
132166,151537,9715,-0.179,0.993,0.173,-0.122,1.159,0.183,491.619
132166,151306,12203,-0.185,0.989,0.172,-0.854,0.122,0.244,491.625
132153,151281,9715,-0.187,0.983,0.174,-0.854,0.122,0.244,491.629
132153,151267,12226,-0.19,0.985,0.184,-0.244,0.244,0.488,491.635
132148,151281,9715,-0.193,0.986,0.194,-0.244,0.244,0.488,491.639
132148,151261,12211,-0.191,0.992,0.201,-0.122,0.122,0.671,491.645
132148,151281,9715,-0.188,0.999,0.206,-0.122,0.122,0.671,491.649
132148,151222,12204,-0.187,1.006,0.209,0.183,0.122,0.305,491.655
132132,151281,9715,-0.189,1.007,0.215,0.183,0.122,0.305,491.659
132132,151229,12207,-0.19,1.008,0.214,0.366,0.915,0.305,491.665
132134,151281,9715,-0.184,0.999,0.207,0.366,0.915,0.305,491.669
132134,151249,12208,-0.183,0.989,0.201,-0.61,0.61,0.366,491.675
132138,151281,9715,-0.176,0.984,0.193,-0.61,0.61,0.366,491.679
132138,151253,12212,-0.176,0.98,0.183,-1.037,-0.122,0.488,491.685
132124,151281,9715,-0.177,0.984,0.179,-1.037,-0.122,0.488,491.688
132124,151255,12208,-0.178,0.987,0.177,-0.61,0,0.61,491.695
132129,151281,9715,-0.179,0.99,0.181,-0.61,0,0.61,491.698
132129,151237,12221,-0.181,0.988,0.187,-0.061,0.488,1.098,491.704
132135,151281,9715,-0.184,0.991,0.195,-0.061,0.488,1.098,491.708
132135,151228,12223,-0.184,1.004,0.195,0.427,0.488,1.037,491.714
132112,151281,9715,-0.185,1.013,0.199,0.427,0.488,1.037,491.718
132112,151224,12213,-0.187,1.014,0.21,-0.244,0.366,0.366,491.724
132089,151281,9715,-0.187,1.011,0.212,-0.244,0.366,0.366,491.728
132089,151143,12214,-0.19,1.006,0.211,-1.28,0.305,0.488,491.734
132089,151281,9715,-0.187,0.997,0.207,-1.28,0.305,0.488,491.738
132089,151167,12210,-0.181,0.996,0.2,-1.402,0,0.366,491.744
132083,151281,9715,-0.174,0.993,0.194,-1.402,0,0.366,491.748
132083,151158,12207,-0.178,0.991,0.191,-0.915,0.244,-0.305,491.754
132088,151281,9715,-0.183,0.985,0.186,-0.915,0.244,-0.305,491.758
132088,151172,12209,-0.182,0.984,0.187,-0.427,0.671,-0.183,491.764
132100,151281,9715,-0.179,0.983,0.189,-0.427,0.671,-0.183,491.768
132100,151159,12206,-0.18,0.984,0.187,0,0.427,0,491.774
132095,151281,9715,-0.18,0.979,0.186,0,0.427,0,491.777
132095,151182,12214,-0.184,0.981,0.185,0.427,0.244,0.366,491.784
132110,151281,9715,-0.183,0.983,0.189,0.427,0.244,0.366,491.787
132110,151164,12197,-0.181,0.995,0.195,0.671,0.061,0.854,491.794
132087,151281,9715,-0.18,1.004,0.203,0.671,0.061,0.854,491.797
132087,151158,12202,-0.18,1.004,0.206,0.488,0.122,0.976,491.803
132084,151281,9715,-0.184,1.003,0.209,0.488,0.122,0.976,491.807
132084,151154,12214,-0.19,1.002,0.214,-0.244,0.549,1.037,491.813
132075,151281,9715,-0.19,1.007,0.214,-0.244,0.549,1.037,491.817
132075,151137,12229,-0.177,1.006,0.21,-1.707,0.305,1.28,491.823
132098,151281,9715,-0.171,0.998,0.211,-1.707,0.305,1.28,491.827
132098,151146,12209,-0.18,0.99,0.204,-2.073,0.61,0.793,491.833
132107,151281,9715,-0.185,0.981,0.203,-2.073,0.61,0.793,491.837
132107,151185,12218,-0.184,0.976,0.198,-1.037,1.22,0.671,491.843
132121,151281,9715,-0.18,0.98,0.197,-1.037,1.22,0.671,491.847
132121,151179,12218,-0.178,0.991,0.188,0.366,1.341,0.61,491.853
132136,151281,9715,-0.178,0.991,0.188,0.366,1.341,0.61,491.857
132136,151187,12207,-0.188,1.003,0.185,1.22,1.646,0.244,491.863
132130,151281,9715,-0.188,1.003,0.185,1.22,1.646,0.244,491.867
132130,151193,12203,-0.186,1.006,0.194,0.427,1.28,0.244,491.873
132103,151281,9715,-0.186,1.006,0.194,0.427,1.28,0.244,491.877
132103,151141,12224,-0.183,1.01,0.193,-1.159,0.793,0.427,491.883
132079,151281,9715,-0.183,1.01,0.193,-1.159,0.793,0.427,491.886
132079,151125,12212,-0.185,0.996,0.193,-2.134,0.793,0.305,491.893
132094,151281,9715,-0.185,0.996,0.193,-2.134,0.793,0.305,491.896
132094,151103,12207,-0.178,0.993,0.188,-1.22,0.305,0.305,491.902
132091,151281,9715,-0.178,0.993,0.188,-1.22,0.305,0.305,491.906
132091,151122,12218,-0.182,1.003,0.186,0.061,0.61,-0.366,491.912
132089,151281,9715,-0.182,1.003,0.186,0.061,0.61,-0.366,491.916
132089,151126,12207,-0.187,0.995,0.185,0.427,0.427,-0.488,491.922
132097,151281,9715,-0.187,0.995,0.185,0.427,0.427,-0.488,491.926
132097,151152,12198,-0.179,0.989,0.196,-0.427,-0.366,0,491.932
132103,151281,9715,-0.179,0.989,0.196,-0.427,-0.366,0,491.936
132103,151157,12218,-0.186,0.98,0.219,-1.037,0.671,0.366,491.942
132111,151281,9715,-0.186,0.98,0.219,-1.037,0.671,0.366,491.946
132111,151152,12208,-0.181,0.99,0.203,-0.488,0.793,0.61,491.952
132076,151281,9715,-0.181,0.99,0.203,-0.488,0.793,0.61,491.956
132076,151126,12212,-0.173,0.996,0.201,-0.61,0.732,0.183,491.962
132086,151281,9715,-0.173,0.996,0.201,-0.61,0.732,0.183,491.966
132086,151121,12213,-0.191,0.98,0.199,-0.854,1.098,0.549,491.972
132042,151281,9715,-0.191,0.98,0.199,-0.854,1.098,0.549,491.975
132042,151108,12211,-0.182,0.983,0.193,-0.488,0.244,0.549,491.982
132071,151281,9715,-0.182,0.983,0.193,-0.488,0.244,0.549,491.985
132071,151129,12194,-0.185,0.995,0.184,0.671,0.61,0.305,491.992
132057,151281,9715,-0.185,0.995,0.184,0.671,0.61,0.305,491.995
132057,151107,12199,-0.188,0.999,0.183,0.671,0.61,0.305,492.001
132081,151281,9715,-0.183,1.005,0.187,1.037,0.549,0.488,492.005
132081,151109,12202,-0.18,1.007,0.187,1.037,0.549,0.488,492.011
132057,151281,9715,-0.184,0.992,0.185,0.122,-0.244,0.305,492.015
132057,151103,12229,-0.188,0.99,0.185,0.122,-0.244,0.305,492.021
132051,151281,9715,-0.186,0.998,0.186,-0.244,-0.427,0.61,492.025
132051,151106,12215,-0.179,1.004,0.195,-0.244,-0.427,0.61,492.031
132052,151281,9715,-0.183,1.008,0.196,-0.122,0.183,0.183,492.035
132052,151103,12220,-0.184,1.006,0.203,-0.122,0.183,0.183,492.041
132048,151281,9715,-0.191,1,0.205,-0.122,0.549,0.244,492.045
132048,151091,12229,-0.193,0.999,0.204,-0.122,0.549,0.244,492.051
132050,151281,9715,-0.184,0.998,0.2,-1.098,-0.305,0.427,492.055
132050,151102,12227,-0.176,0.995,0.197,-1.098,-0.305,0.427,492.061
132048,151281,9715,-0.178,0.987,0.201,-1.524,-0.854,0,492.065
132048,151088,12227,-0.182,0.982,0.201,-1.524,-0.854,0,492.071
132061,151281,9715,-0.186,0.978,0.198,-1.341,-0.122,0.305,492.074
132061,151103,12222,-0.185,0.976,0.198,-1.341,-0.122,0.305,492.081
132079,151281,9715,-0.179,0.982,0.201,-0.732,-0.183,0.549,492.084
132079,151140,12225,-0.172,0.991,0.209,-0.732,-0.183,0.549,492.091
132071,151281,9715,-0.176,0.993,0.211,-0.122,0.305,0.671,492.094
132071,151116,12220,-0.183,0.998,0.209,-0.122,0.305,0.671,492.1
132077,151281,9715,-0.183,0.997,0.211,-0.122,0.793,0.732,492.104
132077,151145,12225,-0.184,0.996,0.214,-0.122,0.793,0.732,492.11
132084,151281,9715,-0.186,0.999,0.203,-0.793,0.549,0.732,492.114
132084,151149,12216,-0.18,0.988,0.198,-0.793,0.549,0.732,492.12
132102,151281,9715,-0.177,0.987,0.198,-0.915,0.061,0.732,492.124
132102,151144,12233,-0.178,0.994,0.205,-0.915,0.061,0.732,492.13
132107,151281,9715,-0.179,0.997,0.211,0.061,1.037,0.549,492.134
132107,151164,12215,-0.183,0.996,0.206,0.061,1.037,0.549,492.14
132098,151281,9715,-0.184,1.005,0.203,0.976,1.829,0.183,492.144
132098,151124,12218,-0.181,1.011,0.195,0.976,1.829,0.183,492.15
132079,151281,9715,-0.18,1.005,0.183,1.28,1.341,0.061,492.154
132079,151098,12219,-0.181,1.001,0.178,1.28,1.341,0.061,492.16
132116,151281,9715,-0.183,1.005,0.172,0.427,0.793,-0.122,492.164
132116,151111,12217,-0.185,1.006,0.177,0.427,0.793,-0.122,492.17
132105,151281,9715,-0.191,1.004,0.178,-0.976,0.244,-0.061,492.174
132105,151147,12223,-0.193,0.996,0.189,-0.976,0.244,-0.061,492.18
132096,151281,9715,-0.189,0.987,0.193,-1.463,-0.122,0,492.183
132096,151121,12223,-0.188,0.983,0.195,-1.463,-0.122,0,492.19
132113,151281,9715,-0.18,0.991,0.201,-1.28,-0.366,0.305,492.193
132113,151097,12221,-0.176,0.993,0.209,-1.28,-0.366,0.305,492.199
132099,151281,9715,-0.179,0.989,0.21,-0.366,0.183,0.122,492.203
132099,151096,12215,-0.187,0.988,0.211,-0.366,0.183,0.122,492.209
132103,151281,9715,-0.187,0.99,0.217,0.61,0.915,-0.061,492.213
132103,151108,12209,-0.181,0.996,0.217,0.61,0.915,-0.061,492.219
132097,151281,9715,-0.183,0.996,0.209,0.732,1.22,-0.244,492.223
132097,151109,12233,-0.181,0.994,0.201,0.732,1.22,-0.244,492.229
132094,151281,9715,-0.18,0.992,0.197,-0.122,0.854,-0.305,492.233
132094,151141,12210,-0.176,0.991,0.191,-0.122,0.854,-0.305,492.239
132085,151281,9715,-0.173,0.985,0.187,-1.341,0.183,0.061,492.243
132085,151132,12227,-0.18,0.973,0.188,-1.341,0.183,0.061,492.249
132084,151281,9715,-0.187,0.977,0.187,-1.037,0.305,0.427,492.253
132084,151125,12216,-0.183,0.982,0.19,-1.037,0.305,0.427,492.259
132082,151281,9715,-0.182,0.99,0.191,0,0.549,0.488,492.263
132082,151155,12216,-0.181,0.999,0.196,0,0.549,0.488,492.269
132101,151281,9715,-0.183,1.009,0.209,0.61,0.854,0.549,492.272
132101,151105,12211,-0.185,1.006,0.22,0.61,0.854,0.549,492.279
132081,151281,9715,-0.193,1,0.217,-0.183,1.22,0.61,492.282
132081,151089,12207,-0.192,1.001,0.21,-0.183,1.22,0.61,492.289
132071,151281,9715,-0.182,1.008,0.204,-0.427,0.976,0.305,492.292
132071,151123,12216,-0.178,1.009,0.199,-0.427,0.976,0.305,492.298
132059,151281,9715,-0.183,0.994,0.191,-0.061,1.341,-0.366,492.302
132059,151112,12230,-0.19,0.988,0.183,-0.061,1.341,-0.366,492.308
132083,151281,9715,-0.189,0.99,0.173,0.122,0.915,-0.671,492.312
132083,151130,12220,-0.184,0.989,0.174,0.122,0.915,-0.671,492.318
132096,151281,9715,-0.185,0.986,0.183,0.244,0.122,-0.61,492.322
132096,151146,12213,-0.186,0.986,0.183,0.244,0.122,-0.61,492.328
132081,151281,9715,-0.185,0.989,0.186,0.549,0.061,-0.183,492.332
132081,151131,12222,-0.184,0.993,0.185,0.549,0.061,-0.183,492.338
132109,151281,9715,-0.184,0.992,0.189,0.305,-0.366,-0.122,492.342
132109,151137,12220,-0.183,0.998,0.189,0.305,-0.366,-0.122,492.348
132087,151281,9715,-0.181,1.002,0.2,-0.366,-0.732,0.244,492.352
132087,151141,12222,-0.182,0.996,0.211,-0.366,-0.732,0.244,492.358
132100,151281,9715,-0.181,0.987,0.222,-1.463,-0.488,0.549,492.362
132100,151127,12218,-0.187,0.977,0.219,-1.463,-0.488,0.549,492.368
132093,151281,9715,-0.186,0.979,0.216,-1.402,0.183,0.61,492.372
132093,151115,12224,-0.173,0.988,0.211,-1.402,0.183,0.61,492.378
132105,151281,9715,-0.165,0.99,0.205,-0.549,0.305,0.366,492.381
132105,151130,12234,-0.174,0.984,0.195,-0.549,0.305,0.366,492.388
132114,151281,9715,-0.189,0.981,0.191,-0.732,0.671,0.366,492.391
132114,151123,12234,-0.192,0.987,0.188,-0.732,0.671,0.366,492.397
132094,151281,9715,-0.179,0.998,0.189,-0.732,0.305,0.915,492.401
132094,151132,12231,-0.172,1,0.188,-0.732,0.305,0.915,492.407
132102,151281,9715,-0.179,0.999,0.191,-0.671,0.305,0.915,492.411
132102,151135,12220,-0.193,0.997,0.196,-0.671,0.305,0.915,492.417
132092,151281,9715,-0.193,0.996,0.2,-0.427,0.671,1.037,492.421
132092,151084,12214,-0.189,1.003,0.197,-0.427,0.671,1.037,492.427
132058,151281,9715,-0.184,1.004,0.199,-0.122,-0.061,0.61,492.431
132058,151060,12237,-0.184,1.001,0.207,-0.122,-0.061,0.61,492.437
132021,151025,9715,-0.19,1.004,0.214,0.366,0.305,0.183,492.441
132021,151010,12238,-0.192,1.003,0.214,0.366,0.305,0.183,492.447
132027,151025,9715,-0.192,1.003,0.214,0.366,0.305,0.183,492.451
132027,151008,12232,-0.183,1.003,0.209,0.366,0.732,0.061,492.457
132028,151025,9715,-0.183,1.003,0.209,0.366,0.732,0.061,492.461
132028,150991,12239,-0.177,1.004,0.191,0.427,0.305,-0.427,492.467
132039,151025,9715,-0.177,1.004,0.191,0.427,0.305,-0.427,492.47
132039,150987,12231,-0.18,0.987,0.189,-0.305,0.061,-0.549,492.477
132028,151025,9715,-0.18,0.987,0.189,-0.305,0.061,-0.549,492.48
132028,150981,12230,-0.187,0.972,0.188,-1.037,0.122,-0.061,492.487
132039,151025,9715,-0.187,0.972,0.188,-1.037,0.122,-0.061,492.49
132039,150977,12224,-0.177,0.997,0.19,-0.732,0.427,0,492.496
132008,151025,9715,-0.177,0.997,0.19,-0.732,0.427,0,492.5
132008,150958,12240,-0.184,0.997,0.197,0.488,0.793,0.366,492.506
132011,151025,9715,-0.184,0.997,0.197,0.488,0.793,0.366,492.51
132011,150978,12231,-0.191,0.993,0.214,0.122,0.61,0.549,492.516
132005,151025,9715,-0.191,0.993,0.214,0.122,0.61,0.549,492.52
132005,150949,12226,-0.188,0.993,0.21,-0.854,0.488,0.671,492.526
132001,151025,9715,-0.188,0.993,0.21,-0.854,0.488,0.671,492.53
132001,150955,12236,-0.181,0.995,0.197,-0.305,0.366,0.488,492.536
131999,151025,9715,-0.181,0.995,0.197,-0.305,0.366,0.488,492.54
131999,150982,12227,-0.182,0.997,0.193,0.305,0.549,-0.122,492.546
132005,151025,9715,-0.182,0.997,0.193,0.305,0.549,-0.122,492.55
132005,150959,12238,-0.183,1.001,0.188,0.488,0.671,-0.183,492.556
132034,151025,9715,-0.183,1.001,0.188,0.488,0.671,-0.183,492.56
132034,150964,12227,-0.184,0.984,0.191,0.183,0.671,-0.061,492.566
132020,151025,9715,-0.184,0.984,0.191,0.183,0.671,-0.061,492.57
132020,150973,12229,-0.181,0.999,0.192,0.061,0.366,0.122,492.576
132008,151025,9715,-0.181,0.999,0.192,0.061,0.366,0.122,492.579
132008,150949,12232,-0.183,0.993,0.205,-0.183,0.183,0.061,492.586
132023,151025,9715,-0.183,0.993,0.205,-0.183,0.183,0.061,492.589
132023,150927,12229,-0.186,0.992,0.217,-0.061,0.488,0.244,492.595
131998,151025,9715,-0.19,0.991,0.221,-0.061,0.488,0.244,492.599
131998,150896,12238,-0.188,0.994,0.215,-0.061,0.854,0.61,492.605
132001,151025,9715,-0.181,1.001,0.213,-0.061,0.854,0.61,492.609
132001,150928,12235,-0.175,1.005,0.208,0.671,0.732,-0.122,492.615
132001,151025,9715,-0.182,0.997,0.205,0.671,0.732,-0.122,492.619
132001,150907,12240,-0.186,0.994,0.199,0.671,1.098,-0.244,492.625
132019,151025,9715,-0.187,0.992,0.194,0.671,1.098,-0.244,492.629
132019,150931,12238,-0.183,0.986,0.185,-0.305,0.854,-0.244,492.635
132015,151025,9715,-0.18,0.978,0.177,-0.305,0.854,-0.244,492.639
132015,150942,12238,-0.183,0.976,0.168,-0.427,-0.244,-0.183,492.645
132046,151025,9715,-0.184,0.978,0.165,-0.427,-0.244,-0.183,492.649
132046,150962,12258,-0.185,0.987,0.17,0.61,-0.244,0.305,492.655
132051,151025,9715,-0.186,0.996,0.18,0.61,-0.244,0.305,492.659
132051,150899,12253,-0.189,1,0.188,0.976,0.366,0.488,492.665
131992,151025,9715,-0.192,0.998,0.194,0.976,0.366,0.488,492.669
131992,150844,12236,-0.196,0.998,0.208,0.061,0.122,0.915,492.675
131954,150769,9715,-0.191,1,0.211,0.061,0.122,0.915,492.678
131954,150762,12254,-0.182,1.002,0.221,-0.854,-0.366,1.098,492.685
131941,150769,9715,-0.181,0.997,0.222,-0.854,-0.366,1.098,492.688
131941,150719,12247,-0.183,0.993,0.217,-0.427,0.122,0.793,492.694
132016,151025,9715,-0.178,1,0.215,-0.427,0.122,0.793,492.698
132016,150790,12260,-0.177,1.007,0.206,-0.122,0.488,0.488,492.704
132007,151025,9715,-0.179,0.997,0.205,-0.122,0.488,0.488,492.708
132007,150800,12260,-0.186,0.984,0.202,-0.366,1.159,0.366,492.714
132047,151025,9715,-0.187,0.979,0.194,-0.366,1.159,0.366,492.718
132047,150804,12267,-0.178,0.981,0.18,-0.305,0.427,0.427,492.724
132058,151025,9715,-0.172,0.989,0.173,-0.305,0.427,0.427,492.728
132058,150822,12266,-0.18,0.988,0.174,-0.061,-0.122,-0.061,492.734
132049,151025,9715,-0.188,0.985,0.17,-0.061,-0.122,-0.061,492.738
132049,150803,12250,-0.19,0.993,0.173,0,0.244,0.549,492.744
132034,151025,9715,-0.188,1.007,0.183,0,0.244,0.549,492.748
132034,150823,12259,-0.187,1.014,0.194,-0.854,-0.244,0.915,492.754
132064,151025,9715,-0.193,1.009,0.212,-0.854,-0.244,0.915,492.758
132064,150787,12264,-0.199,1.001,0.233,-1.707,0,0.854,492.764
132051,151025,9715,-0.197,0.999,0.24,-1.707,0,0.854,492.768
132051,150820,12274,-0.192,0.991,0.229,-1.341,-0.122,0.793,492.774
132090,151025,9715,-0.177,0.993,0.218,-1.341,-0.122,0.793,492.777
132090,150807,12251,-0.168,1.002,0.211,0.305,0.061,-0.122,492.784
132044,151025,9715,-0.168,0.999,0.209,0.305,0.061,-0.122,492.787
132044,150792,12266,-0.181,0.986,0.196,0.671,1.524,-0.366,492.793
132064,151025,9715,-0.189,0.974,0.186,0.671,1.524,-0.366,492.797
132064,150814,12260,-0.181,0.98,0.182,0.671,0.915,-0.061,492.803
132072,151025,9715,-0.174,0.986,0.177,0.671,0.915,-0.061,492.807
132072,150818,12255,-0.177,0.986,0.172,0.793,0.244,0.183,492.813
132072,151025,9715,-0.181,0.995,0.179,0.793,0.244,0.183,492.817
132072,150834,12257,-0.186,1.008,0.182,0.976,0.549,0.366,492.823
132072,151025,9715,-0.189,1.013,0.185,0.976,0.549,0.366,492.827
132072,150813,12248,-0.19,1.004,0.194,-1.098,-0.305,0.427,492.833
132053,151025,9715,-0.192,0.995,0.201,-1.098,-0.305,0.427,492.837
132053,150799,12264,-0.193,0.987,0.208,-2.317,-1.159,0.854,492.843
132056,151025,9715,-0.188,0.986,0.218,-2.317,-1.159,0.854,492.847
132056,150803,12261,-0.184,0.989,0.223,-1.768,-0.61,0.793,492.853
132060,151025,9715,-0.181,0.988,0.222,-1.768,-0.61,0.793,492.857
132060,150801,12238,-0.181,0.997,0.225,0.366,0.671,0.183,492.863
132073,151025,9715,-0.181,1.005,0.224,0.366,0.671,0.183,492.866
132073,150810,12250,-0.183,1.007,0.224,1.463,2.134,-0.061,492.873
132090,151025,9715,-0.186,0.996,0.221,1.463,2.134,-0.061,492.876
132090,150798,12247,-0.179,0.994,0.203,1.22,2.012,-0.366,492.883
132055,151025,9715,-0.174,0.994,0.179,1.22,2.012,-0.366,492.886
132055,150839,12241,-0.172,0.991,0.164,0.549,0.488,-0.244,492.892
132058,150769,9715,-0.173,0.989,0.157,0.549,0.488,-0.244,492.896
132058,150751,12234,-0.178,0.99,0.164,-0.244,0.061,-0.244,492.902
132029,150769,9715,-0.189,0.986,0.176,-0.244,0.061,-0.244,492.906
132029,150761,12249,-0.194,0.984,0.186,-0.61,0.427,0.244,492.912
132053,150769,9715,-0.189,0.993,0.211,-0.61,0.427,0.244,492.916
132053,150712,12237,-0.188,1,0.229,-0.427,0.671,0.549,492.922
132023,150769,9715,-0.19,1.007,0.237,-0.427,0.671,0.549,492.926
132023,150710,12240,-0.184,1.016,0.247,0.61,1.402,0.122,492.932
131993,150769,9715,-0.186,1.011,0.241,0.61,1.402,0.122,492.936
131993,150676,12238,-0.187,1.004,0.227,2.012,1.829,-0.61,492.942
132024,150769,9715,-0.185,1.004,0.21,2.012,1.829,-0.61,492.946
132024,150712,12228,-0.18,0.99,0.189,1.28,0.915,-0.854,492.952
132017,150769,9715,-0.183,0.974,0.162,1.28,0.915,-0.854,492.956
132017,150717,12238,-0.184,0.966,0.151,0.122,0,-0.671,492.962
132032,150769,9715,-0.182,0.968,0.143,0.122,0,-0.671,492.966
132032,150764,12238,-0.182,0.972,0.136,0.244,-0.122,-0.122,492.972
132031,150769,9715,-0.187,0.981,0.138,0.244,-0.122,-0.122,492.975
132031,150740,12241,-0.19,0.987,0.152,0.427,-0.305,0.488,492.982
132000,150769,9715,-0.193,1,0.17,0.427,-0.305,0.488,492.985
132000,150713,12254,-0.193,1.009,0.199,-0.976,-0.793,1.037,492.991
131994,150769,9715,-0.193,1.013,0.23,-0.976,-0.793,1.037,492.995
131994,150710,12233,-0.194,1.005,0.245,-1.524,-0.305,1.22,493.001
131959,150769,9715,-0.194,1.002,0.25,-1.524,-0.305,1.22,493.005
131959,150668,12249,-0.187,1.006,0.243,-0.427,0.061,0.854,493.011
131965,150769,9715,-0.174,1.009,0.233,-0.427,0.061,0.854,493.015
131965,150685,12233,-0.169,1.003,0.223,-0.61,0.122,0,493.021
131955,150769,9715,-0.178,0.986,0.209,-0.61,0.122,0,493.025
131955,150696,12234,-0.186,0.97,0.195,-0.122,0.854,-0.244,493.031
131980,150769,9715,-0.186,0.97,0.195,-0.122,0.854,-0.244,493.035
131980,150704,12233,-0.177,0.977,0.179,0.915,0.61,0.061,493.041
132013,150769,9715,-0.177,0.977,0.179,0.915,0.61,0.061,493.045
132013,150743,12250,-0.178,0.989,0.172,1.585,0.793,0.122,493.051
132018,150769,9715,-0.178,0.989,0.172,1.585,0.793,0.122,493.055
132018,150745,12227,-0.188,1.007,0.187,1.402,1.159,0.305,493.061
132001,150769,9715,-0.188,1.007,0.187,1.402,1.159,0.305,493.065
132001,150737,12237,-0.188,1.005,0.192,-0.305,0,0.61,493.071
132002,150769,9715,-0.188,1.005,0.192,-0.305,0,0.61,493.074
132002,150727,12242,-0.182,1.004,0.203,-1.89,-0.976,0.793,493.081
131982,150769,9715,-0.182,1.004,0.203,-1.89,-0.976,0.793,493.084
131982,150706,12243,-0.188,0.995,0.217,-1.951,-0.488,0.671,493.09
132001,150769,9715,-0.188,0.995,0.217,-1.951,-0.488,0.671,493.094
132001,150675,12251,-0.189,1,0.212,-1.098,0.244,0.366,493.1
131947,150769,9715,-0.189,1,0.212,-1.098,0.244,0.366,493.104
131947,150653,12231,-0.18,0.997,0.203,-0.366,0.732,-0.122,493.11
131949,150769,9715,-0.18,0.997,0.203,-0.366,0.732,-0.122,493.114
131949,150684,12242,-0.181,0.984,0.187,0.183,0.793,-0.061,493.12
131971,150769,9715,-0.181,0.984,0.187,0.183,0.793,-0.061,493.124
131971,150690,12248,-0.18,0.989,0.176,0.366,0.366,-0.244,493.13
131995,150769,9715,-0.18,0.989,0.176,0.366,0.366,-0.244,493.134
131995,150690,12240,-0.189,0.979,0.177,-0.366,0.061,-0.061,493.14
131987,150769,9715,-0.189,0.979,0.177,-0.366,0.061,-0.061,493.144
131987,150675,12232,-0.182,0.995,0.188,-0.488,-0.671,0.61,493.15
131962,150769,9715,-0.182,0.995,0.188,-0.488,-0.671,0.61,493.154
131962,150686,12263,-0.181,1.001,0.216,-0.854,-0.122,0.732,493.16
131979,150769,9715,-0.181,1.001,0.216,-0.854,-0.122,0.732,493.164
131979,150641,12243,-0.193,0.989,0.235,-1.098,0.549,0.915,493.17
131919,150769,9715,-0.193,0.989,0.235,-1.098,0.549,0.915,493.173
131919,150609,12231,-0.188,0.992,0.23,-1.098,0.549,0.915,493.18
131929,150769,9715,-0.176,1.003,0.222,-0.122,0.305,0.549,493.183
131929,150566,12257,-0.172,1.008,0.219,-0.122,0.305,0.549,493.189
131931,150769,9715,-0.182,0.995,0.215,0.366,1.463,0.122,493.193
131931,150619,12242,-0.193,0.978,0.209,0.366,1.463,0.122,493.199
131942,150769,9715,-0.194,0.974,0.197,1.037,1.646,0.183,493.203
131942,150643,12241,-0.177,0.974,0.187,1.037,1.646,0.183,493.209
132000,150769,9715,-0.171,0.978,0.175,2.683,0.61,0.061,493.213
132000,150709,12231,-0.175,0.986,0.169,2.683,0.61,0.061,493.219
131958,150769,9715,-0.181,0.987,0.167,3.78,1.098,0.183,493.223
131958,150662,12236,-0.187,0.992,0.167,3.78,1.098,0.183,493.229
131958,150769,9715,-0.184,0.997,0.169,3.354,0.732,0.671,493.233
131958,150636,12229,-0.185,1.002,0.177,3.354,0.732,0.671,493.239
131943,150769,9715,-0.185,1.002,0.2,1.463,0,0.976,493.243
131943,150622,12260,-0.189,0.994,0.213,1.463,0,0.976,493.249
131928,150769,9715,-0.194,0.991,0.218,0.732,0.183,1.524,493.253
131928,150576,12235,-0.185,1,0.216,0.732,0.183,1.524,493.259
131915,150769,9715,-0.176,1.004,0.219,0.732,-0.122,0.732,493.263
131915,150556,12247,-0.181,1.007,0.214,0.732,-0.122,0.732,493.269
131932,150769,9715,-0.191,1.006,0.204,1.28,0.915,0.061,493.272
131932,150596,12250,-0.191,1.01,0.201,1.28,0.915,0.061,493.279
131983,150769,9715,-0.186,1,0.195,1.768,1.28,-0.366,493.282
131983,150628,12231,-0.184,0.996,0.188,1.768,1.28,-0.366,493.288
131978,150769,9715,-0.183,0.992,0.183,0.549,0.427,-0.366,493.292
131978,150609,12248,-0.179,0.987,0.18,0.549,0.427,-0.366,493.298
131963,150769,9715,-0.179,0.986,0.174,-0.122,0.305,0.122,493.302
131963,150585,12246,-0.182,0.991,0.177,-0.122,0.305,0.122,493.308
131934,150769,9715,-0.183,0.999,0.179,-0.915,0.122,-0.061,493.312
131934,150559,12253,-0.187,0.997,0.182,-0.915,0.122,-0.061,493.318
131924,150769,9715,-0.188,0.993,0.182,-1.402,-0.305,0.244,493.322
131924,150552,12242,-0.185,0.994,0.189,-1.402,-0.305,0.244,493.328
131912,150769,9715,-0.183,0.99,0.197,-1.524,-0.183,0.732,493.332
131912,150528,12249,-0.188,0.997,0.205,-1.524,-0.183,0.732,493.338
131919,150769,9715,-0.188,1.015,0.216,-0.732,0.427,0.549,493.342
131919,150551,12238,-0.184,1.017,0.219,-0.732,0.427,0.549,493.348
131923,150769,9715,-0.189,1.008,0.22,-0.122,0.793,-0.061,493.352
131923,150568,12244,-0.196,1,0.21,-0.122,0.793,-0.061,493.358
131940,150769,9715,-0.194,0.99,0.198,-1.037,0.183,-0.366,493.362
131940,150590,12260,-0.185,0.99,0.193,-1.037,0.183,-0.366,493.368
131952,150769,9715,-0.172,0.985,0.194,-1.22,-0.61,-0.366,493.371
131952,150587,12239,-0.176,0.983,0.194,-1.22,-0.61,-0.366,493.378
131940,150769,9715,-0.183,0.982,0.188,0,0.366,-0.305,493.381
131940,150569,12252,-0.185,0.977,0.18,0,0.366,-0.305,493.388
131939,150769,9715,-0.183,0.98,0.178,0.366,0.549,-0.122,493.391
131939,150588,12248,-0.179,0.987,0.18,0.366,0.549,-0.122,493.397
131920,150769,9715,-0.178,0.986,0.187,-0.671,-0.244,0.488,493.401
131920,150551,12255,-0.186,0.978,0.194,-0.671,-0.244,0.488,493.407
131913,150513,9715,-0.192,0.977,0.202,-0.854,0.122,1.159,493.411
131913,150522,12240,-0.188,0.988,0.208,-0.854,0.122,1.159,493.417
131902,150513,9715,-0.182,0.996,0.219,-0.427,0.244,1.28,493.421
131902,150489,12249,-0.183,1.005,0.221,-0.427,0.244,1.28,493.427
131899,150513,9715,-0.187,1.005,0.221,0.244,0.915,1.098,493.431
131899,150491,12249,-0.19,1.006,0.209,0.244,0.915,1.098,493.437
131933,150513,9715,-0.189,1.013,0.203,0.61,1.037,0.61,493.441
131933,150502,12256,-0.182,1.017,0.204,0.61,1.037,0.61,493.447
131937,150513,9715,-0.183,1.009,0.203,-0.183,0.915,0.183,493.451
131937,150513,12250,-0.186,0.995,0.199,-0.183,0.915,0.183,493.457
131929,150513,9715,-0.186,0.978,0.188,-0.427,0.976,-0.061,493.461
131929,150521,12249,-0.182,0.98,0.177,-0.427,0.976,-0.061,493.467
131929,150513,9715,-0.173,0.993,0.172,0.366,0.488,0.061,493.47
131929,150511,12246,-0.176,1,0.172,0.366,0.488,0.061,493.477
131907,150513,9715,-0.185,0.995,0.177,0.061,0.793,-0.061,493.48
131907,150511,12248,-0.191,0.992,0.184,0.061,0.793,-0.061,493.486
131920,150513,9715,-0.196,0.99,0.191,-0.488,0.427,0.305,493.49
131920,150500,12251,-0.19,0.991,0.199,-0.488,0.427,0.305,493.496
131916,150513,9715,-0.181,0.999,0.214,-0.915,-0.183,0.488,493.5
131916,150504,12230,-0.186,1.001,0.227,-0.915,-0.183,0.488,493.506
131919,150513,9715,-0.191,0.996,0.23,-0.915,0.793,0.366,493.51
131919,150489,12251,-0.189,0.995,0.228,-0.915,0.793,0.366,493.516
131944,150769,9715,-0.184,0.998,0.224,0,0.732,-0.061,493.52
131944,150537,12253,-0.183,0.995,0.209,0,0.732,-0.061,493.526
131954,150769,9715,-0.183,0.982,0.189,-0.244,0.183,-0.732,493.53
131954,150546,12241,-0.185,0.979,0.181,-0.244,0.183,-0.732,493.536
131931,150769,9715,-0.182,0.978,0.18,-1.22,-0.183,-0.549,493.54
131931,150556,12258,-0.182,0.981,0.179,-1.22,-0.183,-0.549,493.546
131938,150769,9715,-0.186,0.98,0.18,-1.159,0.183,0,493.55
131938,150539,12249,-0.185,0.975,0.182,-1.159,0.183,0,493.556
131900,150513,9715,-0.183,0.984,0.181,0.793,0.732,0.427,493.56
131900,150484,12256,-0.184,0.999,0.175,0.793,0.732,0.427,493.566
131905,150513,9715,-0.184,1.005,0.172,1.098,0.427,0.671,493.569
131905,150481,12243,-0.185,1.009,0.174,1.098,0.427,0.671,493.576
131856,150513,9715,-0.189,1.011,0.185,-0.61,-0.122,0.61,493.579
131856,150433,12262,-0.189,1.003,0.198,-0.61,-0.122,0.61,493.586
131855,150513,9715,-0.195,0.99,0.213,-2.256,0.366,1.22,493.589
131855,150409,12247,-0.192,0.993,0.214,-2.256,0.366,1.22,493.595
131833,150513,9715,-0.186,0.994,0.212,-1.89,0.793,1.159,493.599
131833,150373,12256,-0.182,0.998,0.218,-1.89,0.793,1.159,493.605
131848,150513,9715,-0.182,0.998,0.215,-1.098,0.549,0.671,493.609
131848,150390,12243,-0.189,0.996,0.208,-1.098,0.549,0.671,493.615
131829,150513,9715,-0.191,1.001,0.197,-0.183,0.671,0.366,493.619
131829,150411,12237,-0.19,1.008,0.187,-0.183,0.671,0.366,493.625
131857,150513,9715,-0.19,1.008,0.187,-0.183,0.671,0.366,493.629
131857,150397,12231,-0.181,1.002,0.182,0.488,0.854,-0.305,493.635
131846,150513,9715,-0.181,1.002,0.182,0.488,0.854,-0.305,493.639
131846,150392,12253,-0.185,0.975,0.17,-0.671,0.488,-0.061,493.645
131845,150513,9715,-0.185,0.975,0.17,-0.671,0.488,-0.061,493.649
131845,150383,12241,-0.179,0.99,0.185,-2.134,-0.915,0.549,493.655
131839,150513,9715,-0.179,0.99,0.185,-2.134,-0.915,0.549,493.659
131839,150389,12238,-0.183,0.997,0.196,-1.951,-0.122,0.671,493.665
131836,150513,9715,-0.183,0.997,0.196,-1.951,-0.122,0.671,493.668
131836,150372,12231,-0.186,1.009,0.208,-0.793,0.854,0.732,493.675
131810,150513,9715,-0.186,1.009,0.208,-0.793,0.854,0.732,493.678
131810,150355,12228,-0.191,0.994,0.217,-2.317,0.183,0.793,493.684
131799,150513,9715,-0.191,0.994,0.217,-2.317,0.183,0.793,493.688
131799,150326,12238,-0.189,0.976,0.215,-3.293,-0.061,0.671,493.694
131826,150513,9715,-0.189,0.976,0.215,-3.293,-0.061,0.671,493.698
131826,150349,12233,-0.176,0.985,0.206,-1.341,-0.061,0.671,493.704
131817,150513,9715,-0.176,0.985,0.206,-1.341,-0.061,0.671,493.708
131817,150347,12238,-0.183,0.989,0.196,0.854,0.488,0.122,493.714
131796,150513,9715,-0.183,0.989,0.196,0.854,0.488,0.122,493.718
131796,150341,12238,-0.185,0.995,0.187,2.439,1.463,0.122,493.724
131822,150513,9715,-0.185,0.995,0.187,2.439,1.463,0.122,493.728
131822,150322,12235,-0.175,1,0.182,1.159,0.793,0.427,493.734
131822,150513,9715,-0.175,1,0.182,1.159,0.793,0.427,493.738
131822,150352,12241,-0.182,0.986,0.188,-1.463,-0.61,1.098,493.744
131817,150513,9715,-0.182,0.986,0.188,-1.463,-0.61,1.098,493.748
131817,150313,12232,-0.192,0.994,0.202,-1.463,-0.366,1.22,493.754
131805,150513,9715,-0.192,0.994,0.202,-1.463,-0.366,1.22,493.758
131805,150336,12237,-0.194,1.008,0.221,-0.854,0.488,0.915,493.764
131795,150513,9715,-0.194,1.008,0.221,-0.854,0.488,0.915,493.767
131795,150346,12239,-0.189,1.008,0.22,-0.244,0.915,0.671,493.774
131803,150513,9715,-0.188,1.007,0.219,-0.244,0.915,0.671,493.777
131803,150328,12219,-0.182,1,0.219,-1.037,0.488,0.61,493.784
131825,150513,9715,-0.175,0.99,0.208,-1.037,0.488,0.61,493.787
131825,150382,12229,-0.178,0.982,0.194,-1.341,0.366,0.549,493.793
131842,150513,9715,-0.185,0.976,0.187,-1.341,0.366,0.549,493.797
131842,150355,12235,-0.18,0.979,0.182,-0.793,0.671,0.549,493.803
131797,150513,9715,-0.178,0.987,0.175,-0.793,0.671,0.549,493.807
131797,150314,12234,-0.178,0.99,0.172,-1.037,0.427,0.671,493.813
131813,150513,9715,-0.183,0.988,0.182,-1.037,0.427,0.671,493.817
131813,150286,12233,-0.188,0.991,0.185,-2.012,-0.061,1.098,493.823
131813,150513,9715,-0.185,0.997,0.197,-2.012,-0.061,1.098,493.827
131813,150332,12230,-0.182,1.005,0.203,-3.293,-0.305,1.037,493.833
131837,150513,9715,-0.184,1.009,0.212,-3.293,-0.305,1.037,493.837
131837,150309,12238,-0.185,1.006,0.215,-3.902,0.244,0.732,493.843
131820,150513,9715,-0.193,1.005,0.219,-3.902,0.244,0.732,493.847
131820,150329,12242,-0.197,1.005,0.215,-5.61,0.488,0.854,493.853
131846,150513,9715,-0.194,1.001,0.214,-5.61,0.488,0.854,493.857
131846,150343,12225,-0.184,0.982,0.217,-6.341,-0.549,0.976,493.863
131877,150513,9715,-0.178,0.972,0.211,-6.341,-0.549,0.976,493.866
131877,150421,12247,-0.181,0.971,0.21,-3.72,-0.183,1.098,493.873
131900,150513,9715,-0.18,0.982,0.212,-3.72,-0.183,1.098,493.876
131900,150424,12246,-0.179,0.994,0.208,0.183,1.402,0.488,493.882
131885,150513,9715,-0.181,1.002,0.202,0.183,1.402,0.488,493.886
131885,150418,12246,-0.188,1.003,0.197,1.951,1.951,-0.122,493.892
131873,150513,9715,-0.188,1.002,0.191,1.951,1.951,-0.122,493.896
131873,150412,12256,-0.185,1.002,0.187,0.976,0.61,0.366,493.902
131849,150513,9715,-0.179,0.996,0.19,0.976,0.61,0.366,493.906
131849,150359,12244,-0.175,0.999,0.196,-0.549,-0.183,0.305,493.912
131842,150513,9715,-0.177,0.999,0.198,-0.549,-0.183,0.305,493.916
131842,150330,12239,-0.184,0.998,0.204,-0.427,0.793,0.366,493.922
131849,150513,9715,-0.187,0.996,0.203,-0.427,0.793,0.366,493.926
131849,150303,12237,-0.181,1.007,0.211,0.061,0.549,0.061,493.932
131828,150513,9715,-0.174,1.012,0.221,0.061,0.549,0.061,493.936
131828,150302,12240,-0.18,0.998,0.228,-0.366,0.854,-0.427,493.942
131814,150513,9715,-0.19,0.989,0.225,-0.366,0.854,-0.427,493.946
131814,150320,12233,-0.192,0.989,0.215,0.366,1.707,-0.183,493.952
131831,150513,9715,-0.182,0.985,0.205,0.366,1.707,-0.183,493.956
131831,150307,12228,-0.178,0.981,0.199,0.366,0.854,-0.427,493.962
131823,150513,9715,-0.183,0.976,0.19,0.366,0.854,-0.427,493.965
131823,150319,12257,-0.188,0.962,0.187,0.366,0.61,-0.244,493.972
131842,150513,9715,-0.189,0.958,0.186,0.366,0.61,-0.244,493.975
131842,150323,12242,-0.191,0.976,0.188,1.098,0.671,0.488,493.982
131825,150513,9715,-0.18,0.992,0.186,1.098,0.671,0.488,493.985
131825,150327,12238,-0.178,1.001,0.19,1.22,0.488,0.549,493.991
131804,150513,9715,-0.184,1.004,0.2,1.22,0.488,0.549,493.995
131804,150283,12251,-0.193,1.003,0.216,0.244,0.671,0.976,494.001
131792,150257,9715,-0.191,0.994,0.224,0.244,0.671,0.976,494.005
131792,150250,12234,-0.187,0.994,0.224,-0.976,0.488,1.159,494.011
131788,150257,9715,-0.183,1.002,0.22,-0.976,0.488,1.159,494.015
131788,150237,12245,-0.184,1.009,0.216,-0.549,0.671,0.488,494.021
131772,150257,9715,-0.182,1.005,0.207,-0.549,0.671,0.488,494.025
131772,150231,12233,-0.182,0.993,0.201,0.366,0.854,0.244,494.031
131796,150257,9715,-0.183,0.983,0.19,0.366,0.854,0.244,494.035
131796,150241,12246,-0.187,0.978,0.183,0.488,0.366,0.244,494.041
131811,150257,9715,-0.185,0.986,0.175,0.488,0.366,0.244,494.045
131811,150255,12250,-0.18,0.998,0.18,1.28,0.427,0.305,494.051
131812,150257,9715,-0.179,1.004,0.18,1.28,0.427,0.305,494.055
131812,150260,12228,-0.188,1.002,0.181,1.22,0.427,0.061,494.061
131804,150513,9715,-0.197,0.996,0.188,1.22,0.427,0.061,494.064
131804,150281,12250,-0.191,0.994,0.195,0.244,-0.244,0.549,494.071
131799,150257,9715,-0.187,0.998,0.203,0.244,-0.244,0.549,494.074
131799,150244,12244,-0.186,0.99,0.212,-1.159,-0.366,0.854,494.081
131782,150257,9715,-0.186,0.986,0.219,-1.159,-0.366,0.854,494.084
131782,150219,12248,-0.185,0.986,0.22,-0.915,-0.244,0.549,494.09
131798,150257,9715,-0.182,0.989,0.223,-0.915,-0.244,0.549,494.094
131798,150223,12243,-0.179,0.992,0.223,0.305,-0.061,0.488,494.1
131789,150513,9715,-0.178,0.99,0.22,0.305,-0.061,0.488,494.104
131789,150280,12248,-0.182,0.989,0.218,0.915,0.976,0.366,494.11
131810,150257,9715,-0.183,0.991,0.205,0.915,0.976,0.366,494.114
131810,150271,12241,-0.182,0.992,0.199,1.341,1.098,0.305,494.12
131821,150513,9715,-0.177,0.991,0.194,1.341,1.098,0.305,494.124
131821,150301,12255,-0.181,0.985,0.184,0.488,0.427,0.366,494.13
131807,150513,9715,-0.184,0.982,0.186,0.488,0.427,0.366,494.134
131807,150309,12260,-0.183,0.987,0.191,-0.549,0.122,0.915,494.14
131849,150513,9715,-0.182,0.989,0.196,-0.549,0.122,0.915,494.144
131849,150296,12262,-0.181,0.994,0.204,-0.122,0.244,0.915,494.15
131837,150513,9715,-0.184,1.007,0.207,-0.122,0.244,0.915,494.154
131837,150294,12259,-0.182,1.011,0.206,0.732,0.793,0.854,494.16
131830,150513,9715,-0.183,1.012,0.214,0.732,0.793,0.854,494.163
131830,150287,12250,-0.186,1.004,0.224,0.244,0.915,0.549,494.17
131823,150257,9715,-0.19,0.995,0.22,0.244,0.915,0.549,494.173
131823,150271,12250,-0.188,0.993,0.211,-0.122,0.427,0.488,494.18
131808,150513,9715,-0.175,0.998,0.208,-0.122,0.427,0.488,494.183
131808,150290,12251,-0.171,0.998,0.206,0.671,0.549,0.122,494.189
131840,150513,9715,-0.178,0.985,0.202,0.671,0.549,0.122,494.193
131840,150303,12249,-0.192,0.974,0.198,1.463,1.646,-0.061,494.199
131825,150513,9715,-0.189,0.974,0.195,1.463,1.646,-0.061,494.203
131825,150334,12247,-0.18,0.979,0.192,2.012,1.098,0.122,494.209
131839,150513,9715,-0.18,0.979,0.192,2.012,1.098,0.122,494.213
131839,150306,12236,-0.18,0.99,0.193,1.89,0.854,0.305,494.219
131840,150513,9715,-0.18,0.99,0.193,1.89,0.854,0.305,494.223
131840,150346,12247,-0.19,0.993,0.198,0.732,1.646,1.22,494.229
131831,150513,9715,-0.19,0.993,0.198,0.732,1.646,1.22,494.233
131831,150319,12259,-0.186,0.989,0.205,-0.793,1.159,1.585,494.239
131820,150513,9715,-0.186,0.989,0.205,-0.793,1.159,1.585,494.243
131820,150308,12245,-0.182,0.992,0.187,-0.793,0.366,1.159,494.249
131814,150513,9715,-0.182,0.992,0.187,-0.793,0.366,1.159,494.253
131814,150294,12245,-0.182,1.01,0.194,-1.098,0.549,0.976,494.259
131800,150513,9715,-0.182,1.01,0.194,-1.098,0.549,0.976,494.262
131800,150283,12247,-0.197,1,0.195,-1.28,0.671,0.793,494.269
131802,150513,9715,-0.197,1,0.195,-1.28,0.671,0.793,494.272
131802,150298,12252,-0.186,1.009,0.201,-0.366,-0.183,0.366,494.279
131828,150513,9715,-0.186,1.009,0.201,-0.366,-0.183,0.366,494.282
131828,150333,12248,-0.184,1.013,0.199,1.098,-0.061,-0.305,494.288
131834,150513,9715,-0.184,1.013,0.199,1.098,-0.061,-0.305,494.292
131834,150320,12247,-0.189,1.008,0.209,1.159,0.549,-0.61,494.298
131839,150513,9715,-0.189,1.008,0.209,1.159,0.549,-0.61,494.302
131839,150347,12241,-0.185,0.989,0.209,0.244,0.366,-0.61,494.308
131805,150513,9715,-0.185,0.989,0.209,0.244,0.366,-0.61,494.312
131805,150330,12243,-0.169,0.983,0.2,0.183,-0.122,-0.488,494.318
131804,150513,9715,-0.169,0.983,0.2,0.183,-0.122,-0.488,494.322
131804,150287,12230,-0.175,0.971,0.199,0.061,0.366,-0.488,494.328
131765,150257,9715,-0.175,0.971,0.199,0.061,0.366,-0.488,494.332
131765,150257,12237,-0.182,0.969,0.202,-0.366,0.732,-0.061,494.338
131769,150257,9715,-0.182,0.969,0.202,-0.366,0.732,-0.061,494.342
131769,150263,12250,-0.182,0.985,0.21,-0.183,0.732,0.549,494.348
131773,150513,9715,-0.182,0.985,0.21,-0.183,0.732,0.549,494.352
131773,150292,12251,-0.18,0.996,0.202,0.244,0.61,0.549,494.358
131787,150513,9715,-0.18,0.996,0.202,0.244,0.61,0.549,494.361
131787,150295,12253,-0.187,1.003,0.207,0.244,0.61,0.549,494.368
131797,150513,9715,-0.192,0.999,0.212,-0.671,0.915,0.549,494.371
131797,150326,12246,-0.193,0.995,0.209,-0.671,0.915,0.549,494.378
131806,150513,9715,-0.192,1,0.199,-1.159,0.671,1.037,494.381
131806,150311,12251,-0.18,1.008,0.193,-1.159,0.671,1.037,494.387
131778,150513,9715,-0.172,1.012,0.194,-1.28,0.122,0.549,494.391
131778,150325,12243,-0.176,1.004,0.205,-1.28,0.122,0.549,494.397
131776,150257,9715,-0.189,0.994,0.21,-1.22,1.159,0.427,494.401
131776,150269,12244,-0.194,0.996,0.207,-1.22,1.159,0.427,494.407
131755,150257,9715,-0.183,1.004,0.2,-0.427,1.22,0.427,494.411
131755,150255,12252,-0.175,1.008,0.194,-0.427,1.22,0.427,494.417
131769,150257,9715,-0.175,1.003,0.186,0.122,0.549,-0.427,494.421
131769,150257,12233,-0.187,0.987,0.187,0.122,0.549,-0.427,494.427
131782,150513,9715,-0.196,0.979,0.186,-0.366,0.427,-0.061,494.431
131782,150279,12240,-0.193,0.982,0.189,-0.366,0.427,-0.061,494.437
131776,150513,9715,-0.184,0.981,0.19,-0.976,-0.183,0,494.441
131776,150278,12244,-0.183,0.981,0.192,-0.976,-0.183,0,494.447
131796,150513,9715,-0.187,0.98,0.199,0,-0.122,-0.122,494.451
131796,150286,12234,-0.187,0.982,0.202,0,-0.122,-0.122,494.457
131772,150513,9715,-0.185,0.991,0.21,0.915,0.427,0.61,494.46
131772,150274,12247,-0.181,0.995,0.212,0.915,0.427,0.61,494.467
131774,150257,9715,-0.178,1.003,0.217,0.122,0.488,0.61,494.47
131774,150248,12248,-0.18,1.003,0.216,0.122,0.488,0.61,494.477
131755,150257,9715,-0.184,0.995,0.215,-0.854,0.61,0.671,494.48
131755,150233,12232,-0.183,0.987,0.209,-0.854,0.61,0.671,494.486
131736,150257,9715,-0.178,0.988,0.202,-0.915,0.183,0.671,494.49
131736,150210,12230,-0.178,0.988,0.195,-0.915,0.183,0.671,494.496
131730,150257,9715,-0.18,0.983,0.19,-0.366,-0.061,0.305,494.5
131730,150242,12239,-0.184,0.988,0.19,-0.366,-0.061,0.305,494.506
131732,150257,9715,-0.186,1,0.191,-0.305,0.732,0.366,494.51
131732,150252,12248,-0.184,1.002,0.188,-0.305,0.732,0.366,494.516
131751,150513,9715,-0.185,0.995,0.186,-1.646,-0.122,0.427,494.52
131751,150281,12238,-0.187,0.994,0.188,-1.646,-0.122,0.427,494.526
131759,150257,9715,-0.183,0.992,0.197,-2.5,-1.159,0.976,494.53
131759,150252,12226,-0.187,0.995,0.204,-2.5,-1.159,0.976,494.536
131766,150513,9715,-0.185,1.002,0.209,-1.89,-0.549,1.098,494.54
131766,150303,12254,-0.187,1.012,0.206,-1.89,-0.549,1.098,494.546
131791,150513,9715,-0.187,1.01,0.211,-0.732,0.183,0.793,494.55
131791,150303,12244,-0.188,1.005,0.217,-0.732,0.183,0.793,494.556
131807,150513,9715,-0.192,1,0.214,-1.159,0.488,0.549,494.559
131807,150320,12247,-0.182,0.999,0.215,-1.159,0.488,0.549,494.566
131795,150513,9715,-0.176,0.994,0.213,-1.951,0.122,0.122,494.569
131795,150317,12243,-0.176,0.985,0.213,-1.951,0.122,0.122,494.576
131797,150513,9715,-0.177,0.983,0.212,-0.671,0.549,-0.244,494.579
131797,150343,12249,-0.18,0.985,0.214,-0.671,0.549,-0.244,494.585
131805,150513,9715,-0.18,0.984,0.202,1.098,1.585,-0.244,494.589
131805,150318,12247,-0.182,0.983,0.198,1.098,1.585,-0.244,494.595
131783,150513,9715,-0.177,0.994,0.198,1.768,1.037,-0.427,494.599
131783,150305,12253,-0.175,1.005,0.19,1.768,1.037,-0.427,494.605
131770,150513,9715,-0.18,1.01,0.197,1.22,0.671,-0.488,494.609
131770,150278,12261,-0.186,1.005,0.201,1.22,0.671,-0.488,494.615
131788,150513,9715,-0.192,0.994,0.205,-0.183,0.61,-0.244,494.619
131788,150301,12241,-0.191,0.985,0.199,-0.183,0.61,-0.244,494.625
131788,150513,9715,-0.184,0.984,0.198,-1.341,-0.488,0.305,494.629
131788,150292,12249,-0.171,0.986,0.202,-1.341,-0.488,0.305,494.635
131790,150513,9715,-0.174,0.99,0.205,-1.768,0.183,0.183,494.639
131790,150303,12240,-0.181,0.984,0.206,-1.768,0.183,0.183,494.645
131791,150513,9715,-0.193,0.979,0.203,-0.732,1.524,0.244,494.649
131791,150289,12246,-0.186,0.982,0.209,-0.732,1.524,0.244,494.655
131793,150513,9715,-0.184,0.988,0.209,-0.244,1.098,0.305,494.658
131793,150291,12256,-0.187,0.985,0.2,-0.244,1.098,0.305,494.665
131796,150513,9715,-0.188,0.984,0.203,-0.305,1.098,0.366,494.668
131796,150285,12236,-0.186,0.993,0.203,-0.305,1.098,0.366,494.675
131801,150513,9715,-0.187,0.995,0.204,-0.366,1.341,0.671,494.678
131801,150301,12255,-0.184,0.994,0.199,-0.366,1.341,0.671,494.684
131784,150513,9715,-0.186,0.999,0.192,-0.427,0.793,0.488,494.688
131784,150293,12244,-0.191,0.993,0.189,-0.427,0.793,0.488,494.694
131779,150257,9715,-0.192,0.987,0.181,-0.61,0.244,0.427,494.698
131779,150254,12232,-0.188,0.987,0.179,-0.61,0.244,0.427,494.704
131762,150257,9715,-0.181,0.991,0.183,-1.341,-0.732,0.793,494.708
131762,150245,12248,-0.184,0.99,0.188,-1.341,-0.732,0.793,494.714
131781,150257,9715,-0.187,0.99,0.189,-1.768,-0.732,0.854,494.718
131781,150247,12236,-0.192,0.99,0.19,-1.768,-0.732,0.854,494.724
131779,150257,9715,-0.193,0.999,0.19,-1.341,-0.854,0.915,494.728
131779,150252,12240,-0.19,1.003,0.198,-1.341,-0.854,0.915,494.734
131780,150257,9715,-0.188,1.001,0.206,-1.951,-1.341,1.037,494.738
131780,150248,12253,-0.184,1.001,0.214,-1.951,-1.341,1.037,494.744
131793,150257,9715,-0.18,1,0.223,-2.683,-0.793,0.976,494.748
131793,150263,12268,-0.182,1.003,0.226,-2.683,-0.793,0.976,494.754
131795,150513,9715,-0.185,1.002,0.224,-2.561,0.122,0.671,494.758
131795,150274,12259,-0.179,1.003,0.218,-2.561,0.122,0.671,494.764
131786,150513,9715,-0.171,1.002,0.219,-2.195,0.122,0,494.767
131786,150279,12247,-0.172,1,0.228,-2.195,0.122,0,494.774
131790,150257,9715,-0.176,1,0.224,-3.171,0.427,-0.183,494.777
131790,150252,12239,-0.182,0.996,0.209,-3.171,0.427,-0.183,494.783
131775,150513,9715,-0.182,0.979,0.204,-4.573,0.793,-0.244,494.787
131775,150276,12255,-0.18,0.973,0.201,-4.573,0.793,-0.244,494.793
131793,150513,9715,-0.178,0.967,0.194,-4.207,-0.427,0.183,494.797
131793,150292,12251,-0.175,0.962,0.193,-4.207,-0.427,0.183,494.803
131823,150513,9715,-0.175,0.962,0.193,-4.207,-0.427,0.183,494.807
131823,150340,12253,-0.18,0.97,0.206,-2.012,-0.427,0.671,494.813
131851,150513,9715,-0.18,0.97,0.206,-2.012,-0.427,0.671,494.817
131851,150323,12256,-0.189,0.996,0.224,1.646,0.549,0.61,494.823
131838,150513,9715,-0.189,0.996,0.224,1.646,0.549,0.61,494.827
131838,150369,12246,-0.188,1.018,0.223,3.841,1.28,0.427,494.833
131827,150513,9715,-0.188,1.018,0.223,3.841,1.28,0.427,494.837
131827,150338,12251,-0.185,1.025,0.217,4.146,1.402,-0.061,494.843
131846,150513,9715,-0.185,1.025,0.217,4.146,1.402,-0.061,494.847
131846,150361,12264,-0.186,0.997,0.204,1.829,1.341,-0.244,494.853
131847,150513,9715,-0.186,0.997,0.204,1.829,1.341,-0.244,494.856
131847,150366,12256,-0.179,0.98,0.182,-0.366,0.732,-0.183,494.863
131826,150513,9715,-0.179,0.98,0.182,-0.366,0.732,-0.183,494.866
131826,150360,12251,-0.186,0.976,0.18,-0.183,0.488,-0.488,494.873
131839,150513,9715,-0.186,0.976,0.18,-0.183,0.488,-0.488,494.876
131839,150357,12249,-0.187,0.983,0.189,0.61,0.793,-0.366,494.882
131820,150513,9715,-0.187,0.983,0.189,0.61,0.793,-0.366,494.886
131820,150325,12244,-0.188,0.992,0.208,-0.122,0.366,0.305,494.892
131816,150513,9715,-0.188,0.992,0.208,-0.122,0.366,0.305,494.896
131816,150330,12260,-0.185,1,0.214,-1.037,0,0.854,494.902
131796,150513,9715,-0.185,1,0.214,-1.037,0,0.854,494.906
131796,150339,12262,-0.18,0.996,0.232,-1.768,-0.122,0.732,494.912
131806,150513,9715,-0.18,0.996,0.232,-1.768,-0.122,0.732,494.916
131806,150325,12260,-0.194,0.989,0.223,-1.707,0.915,0.549,494.922
131815,150513,9715,-0.194,0.989,0.223,-1.707,0.915,0.549,494.926
131815,150341,12258,-0.166,1.003,0.203,-0.122,0.976,0.244,494.932
131788,150513,9715,-0.166,1.003,0.203,-0.122,0.976,0.244,494.936
131788,150311,12255,-0.193,0.986,0.195,0.671,0.976,-0.671,494.942
131793,150513,9715,-0.193,0.986,0.195,0.671,0.976,-0.671,494.946
131793,150336,12255,-0.197,0.977,0.194,0.61,1.585,-0.244,494.952
131800,150513,9715,-0.191,0.977,0.192,0.61,1.585,-0.244,494.956
131800,150332,12254,-0.181,0.98,0.184,0.427,0.305,0.061,494.962
131783,150513,9715,-0.172,0.98,0.185,0.427,0.305,0.061,494.965
131783,150332,12246,-0.176,0.979,0.177,0.732,-0.305,0.122,494.972
131788,150513,9715,-0.184,0.989,0.183,0.732,-0.305,0.122,494.975
131788,150339,12262,-0.188,0.997,0.193,0.549,0.305,0.61,494.981
131771,150513,9715,-0.188,1.006,0.21,0.549,0.305,0.61,494.985
131771,150334,12241,-0.189,1.007,0.223,-0.793,0.427,0.854,494.991
131786,150513,9715,-0.189,0.998,0.225,-0.793,0.427,0.854,494.995
131786,150340,12238,-0.192,0.988,0.224,-1.22,0.549,0.854,495.001
131781,150513,9715,-0.188,0.988,0.216,-1.22,0.549,0.854,495.005
131781,150368,12236,-0.181,0.992,0.213,-1.159,0.183,0.793,495.011
131774,150513,9715,-0.182,0.987,0.208,-1.159,0.183,0.793,495.015
131774,150337,12246,-0.181,0.978,0.206,-0.915,-0.061,0.488,495.021
131801,150513,9715,-0.186,0.976,0.212,-0.915,-0.061,0.488,495.025
131801,150373,12250,-0.185,0.981,0.208,0,0.854,0.732,495.031
131798,150513,9715,-0.184,0.984,0.207,0,0.854,0.732,495.035
131798,150362,12258,-0.181,0.982,0.198,0.122,0.854,0.976,495.041
131797,150513,9715,-0.178,0.981,0.19,0.122,0.854,0.976,495.045
131797,150390,12249,-0.176,0.984,0.192,-0.549,0.305,1.402,495.051
131787,150513,9715,-0.177,0.998,0.198,-0.549,0.305,1.402,495.054
131787,150367,12246,-0.179,1.009,0.201,-1.28,0.61,1.402,495.061
131795,150513,9715,-0.181,1.019,0.21,-1.28,0.61,1.402,495.064
131795,150386,12257,-0.187,1.029,0.225,-1.098,1.341,0.854,495.071
131769,150513,9715,-0.189,1.022,0.234,-1.098,1.341,0.854,495.074
131769,150364,12261,-0.193,1.007,0.23,-0.732,1.524,0.488,495.08
131776,150513,9715,-0.19,1.007,0.221,-0.732,1.524,0.488,495.084
131776,150355,12252,-0.178,1.015,0.208,0.183,0.976,-0.244,495.09
131769,150513,9715,-0.178,1.013,0.191,0.183,0.976,-0.244,495.094
131769,150364,12254,-0.186,1.005,0.185,-0.122,0.488,-1.28,495.1
131807,150513,9715,-0.19,0.99,0.183,-0.122,0.488,-1.28,495.104
131807,150385,12261,-0.196,0.976,0.186,-1.037,-0.183,-1.22,495.11
131796,150513,9715,-0.195,0.969,0.185,-1.037,-0.183,-1.22,495.114
131796,150385,12247,-0.188,0.964,0.19,-0.793,-0.488,-0.732,495.12
131787,150513,9715,-0.184,0.971,0.195,-0.793,-0.488,-0.732,495.124
131787,150388,12263,-0.179,0.981,0.192,0.671,0.244,-0.427,495.13
131789,150513,9715,-0.18,0.987,0.191,0.671,0.244,-0.427,495.134
131789,150411,12255,-0.182,0.986,0.2,0.793,0.061,-0.061,495.14
131800,150513,9715,-0.183,0.986,0.208,0.793,0.061,-0.061,495.144
131800,150391,12257,-0.188,0.978,0.219,-1.159,-0.305,0.854,495.15
131761,150513,9715,-0.189,0.971,0.224,-1.159,-0.305,0.854,495.154
131761,150344,12274,-0.183,0.975,0.223,-1.098,-0.488,1.402,495.16
131776,150513,9715,-0.171,0.991,0.221,-1.098,-0.488,1.402,495.163
131776,150391,12254,-0.173,1.005,0.22,0.427,0.183,1.098,495.17
131771,150513,9715,-0.181,1.006,0.212,0.427,0.183,1.098,495.173
131771,150380,12274,-0.19,1.001,0.207,0.488,0.793,1.037,495.179
131788,150513,9715,-0.192,1.006,0.204,0.488,0.793,1.037,495.183
131788,150403,12249,-0.18,1.006,0.204,-1.341,-0.427,0.732,495.189
131796,150513,9715,-0.177,1.003,0.208,-1.341,-0.427,0.732,495.193
131796,150427,12266,-0.182,0.99,0.212,-2.195,-0.427,0.549,495.199
131810,150513,9715,-0.187,0.986,0.209,-2.195,-0.427,0.549,495.203
131810,150423,12243,-0.186,0.998,0.209,-0.976,0.244,0.549,495.209
131749,150513,9715,-0.18,1.005,0.203,-0.976,0.244,0.549,495.213
131749,150397,12255,-0.181,0.999,0.193,-0.61,0.122,-0.061,495.219
131772,150513,9715,-0.189,0.995,0.193,-0.61,0.122,-0.061,495.223
131772,150360,12253,-0.19,0.988,0.209,-0.915,-0.183,0.305,495.229
131771,150513,9715,-0.189,0.987,0.215,-0.915,-0.183,0.305,495.233
131771,150376,12275,-0.18,0.987,0.222,-1.524,-0.122,0.549,495.239
131782,150513,9715,-0.179,0.991,0.221,-1.524,-0.122,0.549,495.243
131782,150364,12246,-0.177,0.995,0.215,-0.305,0.366,0.061,495.249
131766,150513,9715,-0.179,0.987,0.218,-0.305,0.366,0.061,495.252
131766,150352,12262,-0.186,0.988,0.213,0.488,0.976,0.061,495.259
131778,150513,9715,-0.186,0.991,0.202,0.488,0.976,0.061,495.262
131778,150367,12247,-0.183,0.992,0.203,-0.122,0.915,-0.183,495.269
131773,150513,9715,-0.183,0.993,0.208,-0.122,0.915,-0.183,495.272
131773,150387,12260,-0.183,0.989,0.208,-0.488,0.732,0,495.279
131808,150513,9715,-0.181,0.985,0.213,-0.488,0.732,0,495.282
131808,150395,12248,-0.18,0.984,0.212,-0.488,0.549,0.244,495.288
131810,150513,9715,-0.183,0.985,0.207,-0.488,0.549,0.244,495.292
131810,150417,12251,-0.18,0.988,0.208,0.061,0.61,0.061,495.298
131800,150513,9715,-0.182,0.991,0.21,0.061,0.61,0.061,495.302
131800,150415,12257,-0.185,0.995,0.21,0.366,0.793,0.061,495.308
131810,150513,9715,-0.182,0.998,0.215,0.366,0.793,0.061,495.312
131810,150405,12267,-0.187,0.996,0.214,-0.244,0.976,0.183,495.318
131811,150513,9715,-0.187,0.988,0.213,-0.244,0.976,0.183,495.322
131811,150425,12266,-0.186,0.988,0.212,0.061,1.159,0.244,495.328
131810,150513,9715,-0.183,0.995,0.207,0.061,1.159,0.244,495.332
131810,150447,12254,-0.182,0.998,0.204,0.488,1.402,0.183,495.338
131827,150513,9715,-0.188,0.998,0.201,0.488,1.402,0.183,495.342
131827,150444,12258,-0.19,0.987,0.199,-0.183,0.976,0.122,495.348
131858,150513,9715,-0.189,0.978,0.19,-0.183,0.976,0.122,495.352
131858,150507,12259,-0.185,0.984,0.19,-0.671,0.244,0.427,495.358
131865,150769,9715,-0.184,0.986,0.195,-0.671,0.244,0.427,495.361
131865,150528,12247,-0.187,0.985,0.193,-0.732,0.122,0.549,495.368
131843,150513,9715,-0.185,0.988,0.191,-0.732,0.122,0.549,495.371
131843,150455,12262,-0.186,0.991,0.197,-0.427,-0.061,0.61,495.377
131822,150513,9715,-0.191,0.992,0.203,-0.427,-0.061,0.61,495.381
131822,150443,12267,-0.188,0.99,0.205,-0.366,-0.244,0.854,495.387
131805,150513,9715,-0.188,0.998,0.216,-0.366,-0.244,0.854,495.391
131805,150437,12270,-0.188,1.003,0.219,-0.976,-0.244,0.671,495.397
131839,150513,9715,-0.188,1.003,0.219,-0.976,-0.244,0.671,495.401
131839,150457,12272,-0.183,0.996,0.208,-0.671,-0.244,0.61,495.407
131807,150513,9715,-0.183,0.996,0.208,-0.671,-0.244,0.61,495.411
131807,150429,12259,-0.184,1,0.214,-0.854,-0.427,0.549,495.417
131826,150513,9715,-0.184,1,0.214,-0.854,-0.427,0.549,495.421
131826,150453,12244,-0.185,0.992,0.224,-1.829,0.122,0.366,495.427
131832,150513,9715,-0.185,0.992,0.224,-1.829,0.122,0.366,495.431
131832,150475,12265,-0.18,0.978,0.211,-1.098,0.122,0.305,495.437
131848,150513,9715,-0.18,0.978,0.211,-1.098,0.122,0.305,495.441
131848,150452,12257,-0.173,0.991,0.196,0.366,-0.305,0.366,495.447
131808,150513,9715,-0.173,0.991,0.196,0.366,-0.305,0.366,495.451
131808,150432,12261,-0.179,1.005,0.198,0.976,0.061,-0.061,495.457
131772,150513,9715,-0.179,1.005,0.198,0.976,0.061,-0.061,495.46
131772,150419,12277,-0.19,0.993,0.205,0.549,0.427,0,495.467
131799,150513,9715,-0.19,0.993,0.205,0.549,0.427,0,495.47
131799,150405,12254,-0.189,0.988,0.217,-0.366,-0.122,0.427,495.477
131828,150513,9715,-0.189,0.988,0.217,-0.366,-0.122,0.427,495.48
131828,150436,12263,-0.181,0.988,0.216,0,0.305,0.549,495.486
131817,150513,9715,-0.181,0.988,0.216,0,0.305,0.549,495.49
131817,150477,12256,-0.181,0.991,0.219,0.122,0.915,0.244,495.496
131840,150513,9715,-0.181,0.991,0.219,0.122,0.915,0.244,495.5
131840,150462,12267,-0.184,0.977,0.223,0.305,1.463,0.427,495.506
131853,150513,9715,-0.184,0.977,0.223,0.305,1.463,0.427,495.51
131853,150481,12267,-0.175,0.991,0.224,0.61,1.829,0.366,495.516
131881,150513,9715,-0.175,0.991,0.224,0.61,1.829,0.366,495.52
131881,150497,12261,-0.18,0.983,0.203,0.732,2.195,0.305,495.526
131877,150513,9715,-0.18,0.983,0.203,0.732,2.195,0.305,495.53
131877,150483,12262,-0.182,0.988,0.187,0.122,1.707,0.793,495.536
131830,150513,9715,-0.182,0.988,0.187,0.122,1.707,0.793,495.54
131830,150473,12264,-0.179,0.993,0.18,0.122,1.707,0.793,495.546
131854,150513,9715,-0.18,1,0.182,-1.037,0.793,0.915,495.549
131854,150484,12262,-0.181,1.003,0.192,-1.037,0.793,0.915,495.556
131842,150513,9715,-0.189,0.997,0.198,-1.829,1.159,1.402,495.559
131842,150470,12270,-0.203,0.997,0.206,-1.829,1.159,1.402,495.566
131849,150513,9715,-0.198,1,0.212,-2.256,1.037,1.585,495.569
131849,150512,12252,-0.187,1.003,0.22,-2.256,1.037,1.585,495.575
131835,150513,9715,-0.187,1.006,0.217,-1.707,0.244,0.915,495.579
131835,150507,12268,-0.186,1.005,0.213,-1.707,0.244,0.915,495.585
131833,150513,9715,-0.189,1.009,0.214,-0.427,0.549,0.366,495.589
131833,150494,12270,-0.188,1.013,0.224,-0.427,0.549,0.366,495.595
131825,150513,9715,-0.184,1.011,0.224,-0.915,1.463,-0.244,495.599
131825,150516,12252,-0.184,1.001,0.219,-0.915,1.463,-0.244,495.605
131833,150513,9715,-0.187,0.988,0.219,-1.829,1.829,0,495.609
131833,150521,12271,-0.179,0.982,0.212,-1.829,1.829,0,495.615
131822,150513,9715,-0.171,0.984,0.2,-2.561,0.793,-0.183,495.619
131822,150503,12249,-0.167,0.981,0.195,-2.561,0.793,-0.183,495.625
131795,150513,9715,-0.176,0.973,0.186,-2.805,0.183,-0.488,495.629
131795,150486,12256,-0.184,0.965,0.192,-2.805,0.183,-0.488,495.635
131808,150513,9715,-0.186,0.973,0.198,-0.854,0.671,0.183,495.639
131808,150494,12266,-0.181,0.987,0.199,-0.854,0.671,0.183,495.645
131813,150513,9715,-0.179,0.99,0.206,0.183,0.61,0.183,495.649
131813,150500,12260,-0.181,0.995,0.217,0.183,0.61,0.183,495.655
131810,150513,9715,-0.189,0.998,0.226,0.427,1.098,0.61,495.658
131810,150507,12272,-0.194,0.998,0.23,0.427,1.098,0.61,495.665
131807,150513,9715,-0.197,0.993,0.225,0.061,1.341,0.671,495.668
131807,150503,12258,-0.185,0.99,0.22,0.061,1.341,0.671,495.674
131840,150513,9715,-0.177,0.99,0.218,-0.122,0.305,0.183,495.678
131840,150510,12259,-0.184,0.995,0.218,-0.122,0.305,0.183,495.684
131815,150513,9715,-0.185,0.993,0.217,0.305,1.098,0.305,495.688
131815,150521,12260,-0.186,0.991,0.212,0.305,1.098,0.305,495.694
131810,150513,9715,-0.183,0.99,0.202,0.61,1.707,0.122,495.698
131810,150508,12250,-0.182,0.993,0.191,0.61,1.707,0.122,495.704
131800,150769,9715,-0.182,0.997,0.178,0.061,0.549,0.183,495.708
131800,150529,12254,-0.181,0.992,0.175,0.061,0.549,0.183,495.714
131843,150513,9715,-0.181,0.984,0.181,-1.159,-0.427,0.427,495.718
131843,150512,12260,-0.188,0.987,0.189,-1.159,-0.427,0.427,495.724
131805,150513,9715,-0.193,0.99,0.194,-1.89,-0.427,0.549,495.728
131805,150496,12271,-0.192,0.988,0.202,-1.89,-0.427,0.549,495.734
131790,150513,9715,-0.188,0.995,0.217,-1.463,-0.366,0.732,495.738
131790,150474,12246,-0.185,1.004,0.237,-1.463,-0.366,0.732,495.744
131802,150513,9715,-0.189,0.999,0.25,-1.402,0.427,0.915,495.747
131802,150456,12271,-0.193,0.991,0.249,-1.402,0.427,0.915,495.754
131820,150513,9715,-0.188,0.988,0.239,-0.671,0.549,0.854,495.757
131820,150506,12264,-0.173,0.996,0.232,-0.671,0.549,0.854,495.764
131807,150769,9715,-0.167,0.998,0.222,-0.549,0.122,0.183,495.767
131807,150544,12258,-0.176,0.986,0.212,-0.549,0.122,0.183,495.773
131831,150769,9715,-0.188,0.972,0.204,-0.427,0.915,0.122,495.777
131831,150541,12272,-0.192,0.966,0.195,-0.427,0.915,0.122,495.783
131858,150769,9715,-0.18,0.965,0.186,0,0.732,0.549,495.787
131858,150601,12258,-0.179,0.971,0.181,0,0.732,0.549,495.793
131874,150769,9715,-0.178,0.984,0.18,0.366,0.061,0.915,495.797
131874,150615,12263,-0.176,0.991,0.18,0.366,0.061,0.915,495.803
131857,150769,9715,-0.18,0.999,0.187,-0.122,0,1.28,495.807
131857,150603,12258,-0.185,1.005,0.195,-0.122,0,1.28,495.813
131837,150769,9715,-0.188,1.005,0.203,-1.585,-0.366,1.159,495.817
131837,150617,12270,-0.192,1.002,0.218,-1.585,-0.366,1.159,495.823
131832,150769,9715,-0.189,1,0.232,-2.744,-0.854,1.524,495.827
131832,150601,12244,-0.185,0.995,0.24,-2.744,-0.854,1.524,495.833
131831,150769,9715,-0.18,1.001,0.244,-1.402,-0.305,1.341,495.837
131831,150585,12251,-0.178,1.012,0.243,-1.402,-0.305,1.341,495.843
131834,150769,9715,-0.181,1.014,0.232,0.732,1.28,0.427,495.847
131834,150610,12246,-0.188,1.01,0.229,0.732,1.28,0.427,495.853
131825,150769,9715,-0.186,1.003,0.219,1.28,1.646,-0.366,495.856
131825,150595,12270,-0.184,0.992,0.202,1.28,1.646,-0.366,495.863
131826,150769,9715,-0.175,0.985,0.191,0.122,0.183,-0.61,495.866
131826,150609,12253,-0.176,0.975,0.185,0.122,0.183,-0.61,495.872
131849,150769,9715,-0.178,0.969,0.186,-0.305,0.061,-0.122,495.876
131849,150602,12253,-0.18,0.972,0.188,-0.305,0.061,-0.122,495.882
131830,150769,9715,-0.182,0.984,0.19,-0.244,0.061,0.061,495.886
131830,150598,12263,-0.181,0.988,0.201,-0.244,0.061,0.061,495.892
131819,150769,9715,-0.183,0.998,0.208,0.061,-0.061,0.183,495.896
131819,150593,12255,-0.191,0.997,0.22,0.061,-0.061,0.183,495.902
131824,150769,9715,-0.193,0.992,0.23,-0.671,0.183,0.976,495.906
131824,150621,12263,-0.186,0.993,0.244,-0.671,0.183,0.976,495.912
131802,150769,9715,-0.181,0.992,0.246,-1.89,0.244,1.22,495.916
131802,150600,12262,-0.184,0.987,0.245,-1.89,0.244,1.22,495.922
131821,150769,9715,-0.185,0.986,0.229,-0.366,0.915,1.037,495.926
131821,150624,12266,-0.181,0.991,0.214,-0.366,0.915,1.037,495.932
131850,150769,9715,-0.177,0.997,0.203,0.61,1.28,0.427,495.936
131850,150665,12248,-0.179,0.989,0.198,0.61,1.28,0.427,495.942
131872,150769,9715,-0.189,0.978,0.195,-0.305,1.22,0.549,495.945
131872,150704,12243,-0.192,0.976,0.196,-0.305,1.22,0.549,495.952
131878,150769,9715,-0.186,0.982,0.197,-0.244,1.22,1.22,495.955
131878,150706,12264,-0.177,0.995,0.194,-0.244,1.22,1.22,495.962
131882,150769,9715,-0.169,1.006,0.194,0.549,0.671,0.732,495.965
131882,150699,12244,-0.176,1.008,0.198,0.549,0.671,0.732,495.971
131869,150769,9715,-0.188,1.008,0.205,0.854,0.793,0.549,495.975
131869,150652,12265,-0.191,1,0.205,0.854,0.793,0.549,495.981
131833,150769,9715,-0.187,0.993,0.213,0.061,-0.061,0.61,495.985
131833,150633,12272,-0.18,0.998,0.224,0.061,-0.061,0.61,495.991
131816,150769,9715,-0.18,0.998,0.224,0.061,-0.061,0.61,495.995
131816,150581,12263,-0.187,0.996,0.232,-0.183,0.122,0.549,496.001
131818,150769,9715,-0.187,0.996,0.232,-0.183,0.122,0.549,496.005
131818,150583,12263,-0.187,0.998,0.218,1.707,1.28,0.305,496.011
131803,150769,9715,-0.187,0.998,0.218,1.707,1.28,0.305,496.015
131803,150607,12255,-0.183,0.99,0.211,1.585,0.854,-0.244,496.021
131821,150769,9715,-0.183,0.99,0.211,1.585,0.854,-0.244,496.025
131821,150635,12249,-0.182,0.976,0.199,0.549,0.427,-0.305,496.031
131828,150769,9715,-0.182,0.976,0.199,0.549,0.427,-0.305,496.035
131828,150619,12263,-0.177,0.983,0.194,0.793,0.488,0.183,496.041
131820,150769,9715,-0.177,0.983,0.194,0.793,0.488,0.183,496.045
131820,150591,12266,-0.183,0.984,0.188,0.549,0.61,0.122,496.051
131802,150769,9715,-0.183,0.984,0.188,0.549,0.61,0.122,496.054
131802,150538,12267,-0.185,0.985,0.191,-0.244,-0.122,0.427,496.061
131789,150513,9715,-0.185,0.985,0.191,-0.244,-0.122,0.427,496.064
131789,150513,12249,-0.188,0.987,0.202,-1.28,-0.854,0.976,496.07
131756,150513,9715,-0.188,0.987,0.202,-1.28,-0.854,0.976,496.074
131756,150465,12272,-0.186,1.004,0.229,-0.854,-0.488,1.22,496.08
131736,150513,9715,-0.186,1.004,0.229,-0.854,-0.488,1.22,496.084
131736,150462,12257,-0.191,0.998,0.233,-0.671,-0.061,1.159,496.09
131755,150513,9715,-0.191,0.998,0.233,-0.671,-0.061,1.159,496.094
131755,150496,12270,-0.177,0.997,0.228,-0.427,-0.183,0.915,496.1
131782,150513,9715,-0.177,0.997,0.228,-0.427,-0.183,0.915,496.104
131782,150510,12254,-0.177,0.999,0.218,-0.183,-0.305,0.549,496.11
131791,150769,9715,-0.177,0.999,0.218,-0.183,-0.305,0.549,496.114
131791,150570,12262,-0.182,0.983,0.204,0.366,0.366,0.183,496.12
131796,150769,9715,-0.182,0.983,0.204,0.366,0.366,0.183,496.124
131796,150555,12262,-0.173,0.989,0.2,0.915,0.671,0.244,496.13
131792,150769,9715,-0.173,0.989,0.2,0.915,0.671,0.244,496.134
131792,150534,12263,-0.175,0.989,0.196,0.732,0.488,0.305,496.14
131769,150769,9715,-0.174,0.984,0.202,0.732,0.488,0.305,496.144
131769,150528,12253,-0.18,0.986,0.202,0.671,0.366,0.427,496.15
131777,150513,9715,-0.187,0.99,0.198,0.671,0.366,0.427,496.153
131777,150510,12248,-0.187,1.004,0.213,0.671,0.427,0.549,496.16
131764,150513,9715,-0.18,1.01,0.226,0.671,0.427,0.549,496.163
131764,150505,12247,-0.18,1.003,0.236,0.183,1.037,0.488,496.17
131743,150513,9715,-0.187,0.996,0.235,0.183,1.037,0.488,496.173
131743,150521,12286,-0.199,0.981,0.232,-1.402,1.585,1.22,496.179
131779,150769,9715,-0.197,0.978,0.218,-1.402,1.585,1.22,496.183
131779,150548,12259,-0.18,0.971,0.204,-2.195,-0.183,1.22,496.189
131791,150769,9715,-0.168,0.973,0.2,-2.195,-0.183,1.22,496.193
131791,150570,12265,-0.172,0.995,0.203,0.183,0.488,0.671,496.199
131818,150769,9715,-0.181,1.006,0.205,0.183,0.488,0.671,496.203
131818,150572,12249,-0.188,1.003,0.205,1.89,2.622,0.549,496.209
131770,150769,9715,-0.193,1.001,0.206,1.89,2.622,0.549,496.213
131770,150539,12258,-0.188,1.003,0.212,0.854,1.463,0.366,496.219
131767,150769,9715,-0.18,1.001,0.209,0.854,1.463,0.366,496.223
131767,150534,12253,-0.173,1,0.207,-0.122,-0.122,0.305,496.229
131750,150513,9715,-0.172,1.003,0.206,-0.122,-0.122,0.305,496.233
