133943,154353,9715,-0.19,0.971,0.242,-1.768,-0.244,0.427,97.646
133943,154354,12335,-0.186,0.975,0.248,-1.768,-0.244,0.427,97.652
133955,154353,9715,-0.187,0.975,0.247,-0.549,0,0.427,97.656
133955,154348,12327,-0.189,0.983,0.249,-0.549,0,0.427,97.662
133951,154353,9715,-0.189,0.993,0.249,0.793,0.61,0.183,97.666
133951,154344,12320,-0.192,0.995,0.247,0.793,0.61,0.183,97.672
133956,154353,9715,-0.197,0.994,0.243,0.305,0.976,-0.061,97.676
133956,154358,12310,-0.198,0.987,0.244,0.305,0.976,-0.061,97.682
133946,154353,9715,-0.198,0.977,0.233,-0.854,0.671,0.061,97.685
133946,154315,12326,-0.197,0.973,0.224,-0.854,0.671,0.061,97.692
133922,154353,9715,-0.193,0.972,0.227,-1.341,-0.061,0.183,97.695
133922,154311,12304,-0.19,0.976,0.224,-1.341,-0.061,0.183,97.702
133924,154353,9715,-0.193,0.978,0.228,-0.427,0.244,0.305,97.705
133924,154256,12325,-0.199,0.979,0.229,-0.427,0.244,0.305,97.711
133931,154353,9715,-0.203,0.991,0.229,1.524,0.976,0.366,97.715
133931,154224,12329,-0.197,1.004,0.226,1.524,0.976,0.366,97.721
133903,154353,9715,-0.188,1.007,0.231,0.915,0.61,0.305,97.725
133903,154234,12325,-0.191,1.001,0.239,0.915,0.61,0.305,97.731
133895,154353,9715,-0.195,0.984,0.235,-1.159,0.244,0.61,97.735
133895,154150,12325,-0.195,0.975,0.227,-1.159,0.244,0.61,97.741
133871,154353,9715,-0.193,0.972,0.231,-2.073,-0.305,0.732,97.745
133871,154114,12326,-0.184,0.98,0.236,-2.073,-0.305,0.732,97.751
133887,154097,9715,-0.183,0.986,0.243,-1.037,-0.244,0.671,97.755
133887,154083,12314,-0.185,0.988,0.248,-1.037,-0.244,0.671,97.761
133860,154097,9715,-0.194,0.99,0.247,0.183,0.854,0.244,97.765
133860,154089,12339,-0.197,0.99,0.246,0.183,0.854,0.244,97.771
133861,154097,9715,-0.193,0.988,0.247,-0.122,0.915,-0.366,97.775
133861,154079,12311,-0.191,0.981,0.249,-0.122,0.915,-0.366,97.781
133863,154097,9715,-0.189,0.982,0.237,0.183,0.671,-0.183,97.784
133863,154065,12326,-0.19,0.986,0.235,0.183,0.671,-0.183,97.791
133858,154097,9715,-0.187,0.98,0.233,0.427,0.915,-0.366,97.794
133858,154074,12331,-0.19,0.979,0.231,0.427,0.915,-0.366,97.801
133855,154097,9715,-0.196,0.981,0.226,0.305,0.854,-0.549,97.804
133855,154081,12315,-0.195,0.98,0.226,0.305,0.854,-0.549,97.81
133838,154097,9715,-0.193,0.983,0.227,-0.305,0.366,-0.122,97.814
133838,154060,12320,-0.196,0.98,0.223,-0.305,0.366,-0.122,97.82
133853,154097,9715,-0.198,0.976,0.221,-0.61,0.366,0.061,97.824
133853,154064,12326,-0.199,0.986,0.226,-0.61,0.366,0.061,97.83
133849,154097,9715,-0.196,0.984,0.234,-0.366,0.122,0.244,97.834
133849,154083,12327,-0.199,0.979,0.239,-0.366,0.122,0.244,97.84
133846,154097,9715,-0.201,0.984,0.238,0.122,0.244,0.488,97.844
133846,154041,12309,-0.199,0.985,0.237,0.122,0.244,0.488,97.85
133837,154097,9715,-0.192,0.986,0.239,0.061,0.061,0.366,97.854
133837,154046,12340,-0.192,0.993,0.238,0.061,0.061,0.366,97.86
133837,154097,9715,-0.195,0.996,0.235,0.061,0.122,0.488,97.864
133837,154042,12304,-0.188,0.995,0.236,0.061,0.122,0.488,97.87
133828,154097,9715,-0.19,0.99,0.243,-0.732,0.488,0.366,97.874
133828,154030,12339,-0.198,0.979,0.245,-0.732,0.488,0.366,97.88
133842,154097,9715,-0.197,0.97,0.24,-1.768,0.671,0.305,97.883
133842,154026,12321,-0.19,0.968,0.237,-1.768,0.671,0.305,97.89
133832,154097,9715,-0.182,0.973,0.237,-0.732,0.549,0.244,97.893
133832,154037,12330,-0.184,0.979,0.235,-0.732,0.549,0.244,97.9
133819,154097,9715,-0.19,0.986,0.235,1.22,1.037,0.122,97.903
133819,154029,12325,-0.192,0.994,0.229,1.22,1.037,0.122,97.909
133811,154097,9715,-0.194,0.994,0.23,1.341,1.22,-0.366,97.913
133811,154032,12334,-0.196,0.991,0.232,1.341,1.22,-0.366,97.919
133852,154097,9715,-0.196,0.986,0.235,-0.061,0.61,0,97.923
133852,154024,12317,-0.196,0.983,0.237,-0.061,0.61,0,97.929
133844,154097,9715,-0.196,0.983,0.237,-0.061,0.61,0,97.933
133844,154039,12323,-0.194,0.968,0.226,-1.22,0.183,0.183,97.939
133846,154097,9715,-0.194,0.968,0.226,-1.22,0.183,0.183,97.943
133846,154058,12339,-0.195,0.975,0.231,-0.427,0.183,0.183,97.949
133848,154097,9715,-0.195,0.975,0.231,-0.427,0.183,0.183,97.953
133848,154037,12335,-0.197,0.988,0.245,0.854,0.61,0.488,97.959
133855,154097,9715,-0.197,0.988,0.245,0.854,0.61,0.488,97.963
133855,154031,12318,-0.206,0.996,0.232,1.524,1.22,0.305,97.969
133846,154097,9715,-0.206,0.996,0.232,1.524,1.22,0.305,97.973
133846,154055,12314,-0.186,0.992,0.227,0.305,0.244,0.305,97.979
133838,154097,9715,-0.186,0.992,0.227,0.305,0.244,0.305,97.982
133838,154048,12318,-0.19,0.973,0.229,-1.829,-0.671,0.61,97.989
133836,154097,9715,-0.19,0.973,0.229,-1.829,-0.671,0.61,97.992
133836,154049,12326,-0.193,0.977,0.235,-1.646,-0.061,0.732,97.999
133825,154097,9715,-0.193,0.977,0.235,-1.646,-0.061,0.732,98.002
133825,154065,12342,-0.189,0.997,0.24,-0.366,0.183,0.549,98.008
133844,154097,9715,-0.189,0.997,0.24,-0.366,0.183,0.549,98.012
133844,154052,12321,-0.194,0.992,0.245,0.854,0.671,0.366,98.018
133858,154097,9715,-0.194,0.992,0.245,0.854,0.671,0.366,98.022
133858,154063,12330,-0.193,1.001,0.245,0.854,0.732,0.183,98.028
133845,154097,9715,-0.193,1.001,0.245,0.854,0.732,0.183,98.032
133845,154052,12329,-0.196,0.982,0.254,-0.488,0.305,0.244,98.038
133855,154097,9715,-0.196,0.982,0.254,-0.488,0.305,0.244,98.042
133855,154059,12310,-0.197,0.974,0.242,-1.037,0.549,0,98.048
133826,154097,9715,-0.197,0.974,0.242,-1.037,0.549,0,98.052
133826,154030,12316,-0.182,0.982,0.236,-0.366,0.549,-0.244,98.058
133849,154097,9715,-0.182,0.982,0.236,-0.366,0.549,-0.244,98.062
133849,154037,12313,-0.196,0.976,0.231,0.915,0.915,-0.61,98.068
133839,154097,9715,-0.196,0.976,0.231,0.915,0.915,-0.61,98.072
133839,154023,12315,-0.199,0.976,0.225,1.28,1.524,-0.549,98.078
133841,154097,9715,-0.199,0.979,0.221,1.28,1.524,-0.549,98.081
133841,154041,12299,-0.193,0.981,0.219,0.488,0.915,-0.366,98.088
133827,154097,9715,-0.193,0.978,0.221,0.488,0.915,-0.366,98.091
133827,154036,12334,-0.198,0.979,0.225,0.061,0.488,0.305,98.098
133835,154097,9715,-0.197,0.976,0.229,0.061,0.488,0.305,98.101
133835,154049,12317,-0.196,0.978,0.234,-0.061,0.671,0.61,98.107
133838,154097,9715,-0.194,0.982,0.233,-0.061,0.671,0.61,98.111
133838,154034,12331,-0.196,0.985,0.231,0,0.549,0.61,98.117
133823,154097,9715,-0.194,0.987,0.238,0,0.549,0.61,98.121
133823,154047,12317,-0.193,0.983,0.236,-0.305,0.366,0.793,98.127
133833,154097,9715,-0.197,0.983,0.23,-0.305,0.366,0.793,98.131
133833,154042,12313,-0.2,0.981,0.235,-0.183,0.549,0.793,98.137
133829,154097,9715,-0.198,0.986,0.234,-0.183,0.549,0.793,98.141
133829,154017,12321,-0.195,0.99,0.231,0.366,0.732,0.549,98.147
133822,154097,9715,-0.196,0.996,0.235,0.366,0.732,0.549,98.151
133822,154000,12326,-0.194,0.996,0.236,0.61,0.61,0.244,98.157
133829,154097,9715,-0.197,0.991,0.228,0.61,0.61,0.244,98.161
133829,154019,12324,-0.194,0.987,0.222,-0.122,0.122,0.183,98.167
133844,154097,9715,-0.192,0.986,0.228,-0.122,0.122,0.183,98.171
133844,154032,12330,-0.191,0.982,0.233,-0.61,-0.183,0.366,98.177
133837,154097,9715,-0.192,0.978,0.23,-0.61,-0.183,0.366,98.18
133837,154007,12321,-0.195,0.981,0.241,0.244,0.427,0.244,98.187
133809,154097,9715,-0.196,0.988,0.246,0.244,0.427,0.244,98.19
133809,154049,12329,-0.194,0.993,0.25,1.22,0.915,0.244,98.197
133848,154097,9715,-0.188,0.997,0.248,1.22,0.915,0.244,98.2
133848,154048,12321,-0.188,0.993,0.241,0.793,0.671,0.122,98.206
133828,154097,9715,-0.193,0.985,0.228,0.793,0.671,0.122,98.21
133828,154020,12324,-0.195,0.977,0.224,-0.427,0.244,0.122,98.216
133826,154097,9715,-0.196,0.972,0.229,-0.427,0.244,0.122,98.22
133826,154039,12318,-0.193,0.97,0.23,-1.28,-0.183,0.183,98.226
133822,154097,9715,-0.196,0.977,0.223,-1.28,-0.183,0.183,98.23
133822,154025,12328,-0.2,0.983,0.225,-0.732,0,0.305,98.236
133826,154097,9715,-0.199,0.981,0.229,-0.732,0,0.305,98.24
133826,154026,12330,-0.196,0.982,0.235,-0.122,0.061,0.366,98.246
133834,154097,9715,-0.194,0.987,0.235,-0.122,0.061,0.366,98.25
133834,154013,12321,-0.197,0.987,0.232,0.183,0.183,0.732,98.256
133830,154097,9715,-0.196,0.998,0.235,0.183,0.183,0.732,98.26
133830,154021,12319,-0.191,1.005,0.243,0.183,0.305,0.549,98.266
133838,154097,9715,-0.195,1.007,0.251,0.183,0.305,0.549,98.27
133838,154032,12324,-0.195,1.003,0.253,-0.183,0.305,0.305,98.276
133818,154097,9715,-0.192,0.994,0.248,-0.183,0.305,0.305,98.279
133818,154027,12338,-0.192,0.99,0.247,-0.915,0.244,-0.122,98.286
133831,154097,9715,-0.192,0.985,0.246,-0.915,0.244,-0.122,98.289
133831,154041,12314,-0.187,0.985,0.241,-0.61,0.427,-0.488,98.296
133830,154097,9715,-0.187,0.983,0.236,-0.61,0.427,-0.488,98.299
133830,154036,12331,-0.189,0.973,0.232,-0.122,0.549,-0.793,98.305
133819,154097,9715,-0.193,0.97,0.229,-0.122,0.549,-0.793,98.309
133819,154010,12312,-0.199,0.969,0.227,0.183,0.854,-0.793,98.315
133805,154097,9715,-0.195,0.974,0.226,0.183,0.854,-0.793,98.319
133805,153987,12320,-0.191,0.984,0.219,0.488,0.732,-0.366,98.325
133819,154097,9715,-0.191,0.979,0.218,0.488,0.732,-0.366,98.329
133819,153985,12323,-0.192,0.98,0.223,0.183,0.488,-0.061,98.335
133816,154097,9715,-0.203,0.98,0.221,0.183,0.488,-0.061,98.339
133816,153968,12313,-0.208,0.977,0.219,-0.671,0.488,0.427,98.345
133809,154097,9715,-0.208,0.98,0.221,-0.671,0.488,0.427,98.349
133809,153954,12335,-0.203,0.981,0.233,-0.976,-0.122,0.793,98.355
133818,154097,9715,-0.2,0.984,0.246,-0.976,-0.122,0.793,98.359
133818,153973,12313,-0.2,0.992,0.254,-0.61,0.427,1.159,98.365
133796,154097,9715,-0.201,0.996,0.253,-0.61,0.427,1.159,98.369
133796,153960,12329,-0.2,0.994,0.25,-0.061,0.671,0.671,98.375
133801,154097,9715,-0.194,0.989,0.247,-0.061,0.671,0.671,98.378
133801,153956,12319,-0.19,0.992,0.237,-0.061,0.244,0.061,98.385
133803,154097,9715,-0.187,0.991,0.234,-0.061,0.244,0.061,98.388
133803,153942,12336,-0.186,0.983,0.232,-0.427,0.549,-0.305,98.395
133797,154097,9715,-0.189,0.976,0.226,-0.427,0.549,-0.305,98.398
133797,153964,12328,-0.196,0.97,0.227,-0.061,0.793,-0.366,98.404
133799,154097,9715,-0.19,0.968,0.224,-0.061,0.793,-0.366,98.408
133799,153946,12328,-0.193,0.973,0.217,0.61,0.671,-0.366,98.414
133822,154097,9715,-0.19,0.984,0.222,0.61,0.671,-0.366,98.418
133822,153994,12336,-0.189,0.997,0.229,0.976,0.61,-0.061,98.424
133823,154097,9715,-0.194,1.001,0.238,0.976,0.61,-0.061,98.428
133823,153981,12318,-0.196,0.991,0.248,0.732,0.854,0.183,98.434
133810,154097,9715,-0.204,0.985,0.251,0.732,0.854,0.183,98.438
133810,153988,12317,-0.202,0.987,0.246,-0.183,0.488,0.244,98.444
133799,154097,9715,-0.196,0.983,0.239,-0.183,0.488,0.244,98.448
133799,154011,12343,-0.192,0.983,0.238,-0.488,-0.183,0.061,98.454
133810,154097,9715,-0.193,0.983,0.231,-0.488,-0.183,0.061,98.458
133810,153996,12336,-0.196,0.979,0.227,-0.244,0.305,0,98.464
133831,154097,9715,-0.197,0.974,0.23,-0.244,0.305,0,98.468
133831,154026,12333,-0.199,0.969,0.23,-0.305,0.549,-0.122,98.474
133822,154097,9715,-0.201,0.972,0.235,-0.305,0.549,-0.122,98.477
133822,154048,12326,-0.2,0.968,0.239,0.122,0.61,0.305,98.484
133814,154097,9715,-0.195,0.973,0.245,0.122,0.61,0.305,98.487
133814,154037,12340,-0.196,0.979,0.246,1.098,1.28,0.549,98.494
133817,154097,9715,-0.201,0.987,0.25,1.098,1.28,0.549,98.497
133817,154067,12327,-0.195,0.993,0.256,1.098,1.646,0.427,98.503
133803,154097,9715,-0.195,0.989,0.25,1.098,1.646,0.427,98.507
133803,154041,12335,-0.195,0.985,0.237,0.305,1.037,0.488,98.513
133817,154097,9715,-0.195,0.985,0.237,0.305,1.037,0.488,98.517
133817,154018,12334,-0.191,0.978,0.22,0,0.305,0.488,98.523
133826,154097,9715,-0.191,0.978,0.22,0,0.305,0.488,98.527
133826,154025,12325,-0.189,0.993,0.217,0.427,0.732,0.427,98.533
133802,154097,9715,-0.189,0.993,0.217,0.427,0.732,0.427,98.537
133802,154020,12327,-0.193,1.002,0.215,0.61,0.915,0.305,98.543
133804,154097,9715,-0.193,1.002,0.215,0.61,0.915,0.305,98.547
133804,154016,12318,-0.204,0.993,0.225,0,0.671,0.244,98.553
133801,154097,9715,-0.204,0.993,0.225,0,0.671,0.244,98.557
133801,154023,12328,-0.201,0.981,0.225,-1.037,-0.183,0.549,98.563
133807,154097,9715,-0.201,0.981,0.225,-1.037,-0.183,0.549,98.567
133807,154015,12321,-0.195,0.982,0.227,-0.244,-0.488,0.427,98.573
133804,154097,9715,-0.195,0.982,0.227,-0.244,-0.488,0.427,98.576
133804,154030,12334,-0.202,0.986,0.241,0.793,0.488,0.366,98.583
133809,154097,9715,-0.202,0.986,0.241,0.793,0.488,0.366,98.586
133809,153970,12347,-0.204,0.98,0.242,0.549,0.427,0.488,98.593
133818,154097,9715,-0.204,0.98,0.242,0.549,0.427,0.488,98.596
133818,154003,12338,-0.191,0.978,0.246,-0.122,0,0.61,98.602
133801,154097,9715,-0.191,0.978,0.246,-0.122,0,0.61,98.606
133801,153965,12327,-0.194,0.978,0.237,-0.122,0.366,0.549,98.612
133810,154097,9715,-0.194,0.978,0.237,-0.122,0.366,0.549,98.616
133810,154003,12343,-0.189,0.981,0.231,0.244,0.427,0.366,98.622
133795,154097,9715,-0.189,0.981,0.231,0.244,0.427,0.366,98.626
133795,153965,12337,-0.189,0.985,0.233,0.366,0.61,0.488,98.632
133807,154097,9715,-0.189,0.985,0.233,0.366,0.61,0.488,98.636
133807,154004,12324,-0.19,0.984,0.231,0.427,0.61,0.366,98.642
133824,154097,9715,-0.19,0.984,0.231,0.427,0.61,0.366,98.646
133824,153997,12334,-0.187,1.001,0.229,0.549,0.122,0.366,98.652
133825,154097,9715,-0.187,1.001,0.229,0.549,0.122,0.366,98.656
133825,153997,12342,-0.188,1,0.234,0.549,0.122,0.366,98.662
133825,154097,9715,-0.195,0.994,0.233,0.427,0.61,0.366,98.666
133825,153986,12329,-0.203,0.988,0.231,0.427,0.61,0.366,98.672
133822,154097,9715,-0.202,0.983,0.233,0,0.61,0.061,98.675
133822,154000,12338,-0.2,0.983,0.233,0,0.61,0.061,98.682
133807,154097,9715,-0.198,0.984,0.231,-0.305,0.061,0.183,98.685
133807,154004,12319,-0.195,0.984,0.234,-0.305,0.061,0.183,98.692
133827,154097,9715,-0.195,0.981,0.237,-0.061,0.427,0.183,98.695
133827,154004,12327,-0.198,0.977,0.239,-0.061,0.427,0.183,98.701
133809,154097,9715,-0.199,0.975,0.235,0.244,0.793,0.183,98.705
133809,154006,12340,-0.196,0.977,0.232,0.244,0.793,0.183,98.711
133832,154097,9715,-0.192,0.983,0.23,0.732,0.305,0.366,98.715
133832,154038,12320,-0.19,0.988,0.231,0.732,0.305,0.366,98.721
133812,154097,9715,-0.192,0.989,0.234,0.671,0.549,0.366,98.725
133812,154009,12339,-0.196,0.991,0.234,0.671,0.549,0.366,98.731
133816,154097,9715,-0.201,0.985,0.231,-0.183,1.037,0.488,98.735
133816,153991,12333,-0.197,0.98,0.229,-0.183,1.037,0.488,98.741
133818,154097,9715,-0.194,0.976,0.225,-1.159,0.122,0.732,98.745
133818,153991,12316,-0.19,0.974,0.224,-1.159,0.122,0.732,98.751
133813,154097,9715,-0.19,0.98,0.228,-0.366,0.122,0.732,98.755
133813,153993,12331,-0.194,0.987,0.233,-0.366,0.122,0.732,98.761
133791,154097,9715,-0.198,0.994,0.237,1.524,1.159,0.549,98.765
133791,154022,12330,-0.202,0.999,0.233,1.524,1.159,0.549,98.771
133806,154097,9715,-0.204,0.998,0.236,1.28,0.854,0.305,98.774
133806,154020,12324,-0.197,0.998,0.238,1.28,0.854,0.305,98.781
133811,154097,9715,-0.196,0.993,0.232,0,-0.122,0.305,98.784
133811,154023,12339,-0.198,0.99,0.225,0,-0.122,0.305,98.791
133809,154097,9715,-0.196,0.993,0.22,-0.732,-0.549,0.305,98.794
133809,154009,12323,-0.196,0.988,0.228,-0.732,-0.549,0.305,98.8
133782,154097,9715,-0.199,0.98,0.227,-1.159,-0.122,0.305,98.804
133782,153983,12327,-0.202,0.976,0.224,-1.159,-0.122,0.305,98.81
133776,154097,9715,-0.196,0.978,0.229,-1.037,-0.244,0.488,98.814
133776,153988,12313,-0.19,0.98,0.228,-1.037,-0.244,0.488,98.82
133744,154097,9715,-0.191,0.982,0.233,-0.549,-0.366,0.427,98.824
133744,153939,12328,-0.192,0.983,0.235,-0.549,-0.366,0.427,98.83
133776,154097,9715,-0.197,0.983,0.235,0.427,0.183,0.488,98.834
133776,153944,12320,-0.195,0.982,0.232,0.427,0.183,0.488,98.84
133756,154097,9715,-0.19,0.985,0.236,0.671,0.061,0.427,98.844
133756,153926,12322,-0.191,0.991,0.236,0.671,0.061,0.427,98.85
133764,154097,9715,-0.197,0.993,0.233,0.427,0.061,0.305,98.854
133764,153911,12317,-0.197,0.993,0.234,0.427,0.061,0.305,98.86
133768,154097,9715,-0.195,0.987,0.236,-0.671,-0.061,0.244,98.864
133768,153947,12318,-0.202,0.977,0.235,-0.671,-0.061,0.244,98.87
133741,154097,9715,-0.205,0.972,0.24,-1.89,-0.183,0.61,98.873
133741,153933,12332,-0.199,0.967,0.239,-1.89,-0.183,0.61,98.88
133760,154097,9715,-0.198,0.967,0.238,-1.402,-0.305,0.732,98.883
133760,153917,12336,-0.196,0.973,0.23,-1.402,-0.305,0.732,98.89
133744,154097,9715,-0.191,0.981,0.233,0,0.122,0.732,98.893
133744,153927,12324,-0.194,0.985,0.237,0,0.122,0.732,98.899
133743,154097,9715,-0.198,0.988,0.231,0.61,0.427,0.671,98.903
133743,153902,12328,-0.196,0.99,0.227,0.61,0.427,0.671,98.909
133744,154097,9715,-0.19,0.988,0.231,0.488,0.183,0.793,98.913
133744,153927,12325,-0.193,0.989,0.236,0.488,0.183,0.793,98.919
133738,154097,9715,-0.191,0.993,0.229,0.122,0,0.732,98.923
133738,153875,12310,-0.189,0.995,0.226,0.122,0,0.732,98.929
133758,154097,9715,-0.187,0.99,0.225,-0.244,-0.305,0.488,98.933
133758,153872,12325,-0.186,0.987,0.232,-0.244,-0.305,0.488,98.939
133736,154097,9715,-0.189,0.984,0.235,-0.549,-0.366,0.61,98.943
133736,153869,12320,-0.191,0.986,0.234,-0.549,-0.366,0.61,98.949
133727,154097,9715,-0.192,0.985,0.239,-0.183,-0.061,0.366,98.953
133727,153869,12320,-0.198,0.983,0.241,-0.183,-0.061,0.366,98.959
133715,153841,9715,-0.203,0.981,0.24,0.244,0.549,0.122,98.963
133715,153847,12327,-0.203,0.981,0.237,0.244,0.549,0.122,98.969
133726,153841,9715,-0.202,0.981,0.235,0.366,0.488,0.122,98.972
133726,153847,12329,-0.199,0.981,0.236,0.366,0.488,0.122,98.979
133739,153841,9715,-0.197,0.983,0.235,0.427,0.366,0.305,98.982
133739,153818,12330,-0.197,0.984,0.236,0.427,0.366,0.305,98.989
133695,153841,9715,-0.198,0.983,0.233,0.549,0.549,0.305,98.992
133695,153800,12316,-0.2,0.983,0.234,0.549,0.549,0.305,98.998
133698,153841,9715,-0.198,0.985,0.234,0.244,0.488,0.183,99.002
133698,153785,12314,-0.195,0.979,0.234,0.244,0.488,0.183,99.008
133697,153841,9715,-0.192,0.981,0.229,-0.122,0.61,0.366,99.012
133697,153753,12325,-0.19,0.984,0.23,-0.122,0.61,0.366,99.018
133696,153841,9715,-0.191,0.979,0.228,-0.061,0.732,0.549,99.022
133696,153773,12313,-0.196,0.977,0.23,-0.061,0.732,0.549,99.028
133690,153841,9715,-0.194,0.976,0.224,-0.122,0.366,0.549,99.032
133690,153725,12302,-0.189,0.98,0.22,-0.122,0.366,0.549,99.038
133650,153841,9715,-0.185,0.991,0.217,0.915,0.305,0.366,99.042
133650,153736,12330,-0.187,1,0.233,0.915,0.305,0.366,99.048
133644,153841,9715,-0.197,1.002,0.24,1.159,1.22,0.366,99.052
133644,153718,12329,-0.203,1.006,0.24,1.159,1.22,0.366,99.058
133644,153841,9715,-0.199,1.002,0.237,-0.183,0.976,0.122,99.062
133644,153684,12305,-0.192,0.995,0.237,-0.183,0.976,0.122,99.068
133630,153841,9715,-0.189,0.985,0.233,-1.463,-0.061,0.061,99.072
133630,153646,12325,-0.195,0.979,0.233,-1.463,-0.061,0.061,99.078
133610,153841,9715,-0.194,0.974,0.231,-0.976,0.427,-0.061,99.081
133610,153660,12312,-0.192,0.972,0.233,-0.976,0.427,-0.061,99.088
133606,153841,9715,-0.191,0.98,0.234,0.671,1.22,-0.488,99.091
133606,153600,12317,-0.198,0.985,0.239,0.671,1.22,-0.488,99.097
133597,153841,9715,-0.2,0.982,0.239,1.28,1.585,-0.427,99.101
133597,153634,12311,-0.201,0.982,0.236,1.28,1.585,-0.427,99.107
133607,153585,9715,-0.201,0.982,0.236,1.28,1.585,-0.427,99.111
133607,153578,12322,-0.196,0.978,0.223,0.488,0.915,-0.305,99.117
133592,153841,9715,-0.196,0.978,0.223,0.488,0.915,-0.305,99.121
133592,153613,12312,-0.198,0.973,0.225,-0.549,0.061,0.305,99.127
133598,153585,9715,-0.198,0.973,0.225,-0.549,0.061,0.305,99.131
133598,153592,12308,-0.207,0.971,0.221,-0.61,0.427,0.671,99.137
133577,153585,9715,-0.207,0.971,0.221,-0.61,0.427,0.671,99.141
133577,153591,12312,-0.193,0.99,0.23,0.061,0.427,0.854,99.147
133584,153841,9715,-0.193,0.99,0.23,0.061,0.427,0.854,99.151
133584,153620,12322,-0.195,0.994,0.237,0.305,0.305,1.037,99.157
133587,153585,9715,-0.195,0.994,0.237,0.305,0.305,1.037,99.161
133587,153576,12302,-0.2,0.982,0.234,-0.427,0.488,0.915,99.167
133584,153585,9715,-0.2,0.982,0.234,-0.427,0.488,0.915,99.17
133584,153599,12312,-0.19,0.985,0.235,-0.671,0,0.732,99.177
133585,153585,9715,-0.19,0.985,0.235,-0.671,0,0.732,99.18
133585,153579,12311,-0.193,0.98,0.224,-0.305,-0.183,0.732,99.187
133592,153585,9715,-0.193,0.98,0.224,-0.305,-0.183,0.732,99.19
133592,153576,12295,-0.198,0.99,0.229,0.305,0.305,0.366,99.196
133564,153585,9715,-0.198,0.99,0.229,0.305,0.305,0.366,99.2
133564,153581,12325,-0.193,0.978,0.227,0.183,0.183,0.61,99.206
133549,153585,9715,-0.193,0.978,0.227,0.183,0.183,0.61,99.21
133549,153565,12325,-0.192,0.984,0.225,0.122,-0.122,0.732,99.216
133564,153585,9715,-0.192,0.984,0.225,0.122,-0.122,0.732,99.22
133564,153534,12313,-0.195,0.986,0.235,0.305,0.061,0.793,99.226
133553,153585,9715,-0.195,0.986,0.235,0.305,0.061,0.793,99.23
133553,153550,12314,-0.199,0.988,0.241,0.427,0.122,0.854,99.236
133565,153585,9715,-0.199,0.988,0.241,0.427,0.122,0.854,99.24
133565,153559,12317,-0.196,0.981,0.244,-0.122,-0.061,1.037,99.246
133574,153585,9715,-0.196,0.981,0.244,-0.122,-0.061,1.037,99.25
133574,153594,12305,-0.196,0.988,0.241,0,0,1.098,99.256
133575,153585,9715,-0.19,0.994,0.244,0,0,1.098,99.26
133575,153546,12317,-0.187,0.993,0.241,-0.244,0,0.549,99.266
133581,153585,9715,-0.19,0.988,0.239,-0.244,0,0.549,99.27
133581,153589,12303,-0.195,0.984,0.232,-0.671,0.244,0.427,99.276
133569,153585,9715,-0.192,0.978,0.23,-0.671,0.244,0.427,99.279
133569,153564,12315,-0.188,0.974,0.228,-0.732,-0.061,0.427,99.286
133560,153841,9715,-0.185,0.983,0.223,-0.732,-0.061,0.427,99.289
133560,153600,12298,-0.187,0.988,0.225,-0.244,0,0.305,99.295
133577,153841,9715,-0.193,0.99,0.227,-0.244,0,0.305,99.299
133577,153605,12316,-0.199,0.99,0.232,0.183,0.793,0.061,99.305
133592,153585,9715,-0.198,0.989,0.233,0.183,0.793,0.061,99.309
133592,153580,12307,-0.197,0.989,0.23,0.061,0.549,0.122,99.315
133564,153841,9715,-0.196,0.982,0.231,0.061,0.549,0.122,99.319
133564,153605,12311,-0.196,0.979,0.228,-0.244,0,0.305,99.325
133587,153841,9715,-0.196,0.98,0.232,-0.244,0,0.305,99.329
133587,153628,12311,-0.198,0.98,0.232,-0.061,0.244,0.244,99.335
133569,153841,9715,-0.198,0.983,0.231,-0.061,0.244,0.244,99.339
133569,153621,12314,-0.198,0.98,0.229,0.122,0.549,0.244,99.345
133586,153841,9715,-0.197,0.983,0.23,0.122,0.549,0.244,99.349
133586,153647,12304,-0.192,0.988,0.232,-0.122,0.427,0.488,99.355
133579,153841,9715,-0.193,0.985,0.228,-0.122,0.427,0.488,99.359
133579,153645,12299,-0.193,0.982,0.229,-0.122,0.427,0.488,99.365
133585,153841,9715,-0.196,0.981,0.233,-0.122,0.427,0.488,99.369
133585,153657,12320,-0.199,0.983,0.23,-0.183,0.61,0.549,99.375
133604,153841,9715,-0.196,0.987,0.23,-0.183,0.61,0.549,99.378
133604,153674,12316,-0.19,0.989,0.231,0.061,0.793,0.671,99.385
133575,153841,9715,-0.193,0.989,0.232,0.061,0.793,0.671,99.388
133575,153680,12297,-0.191,0.993,0.231,0.427,0.854,0.549,99.395
133590,153841,9715,-0.193,0.995,0.233,0.427,0.854,0.549,99.398
133590,153671,12290,-0.197,0.995,0.232,0.122,0.671,0.244,99.404
133586,153841,9715,-0.199,0.994,0.233,0.122,0.671,0.244,99.408
133586,153640,12297,-0.195,0.993,0.233,-0.183,0.305,0,99.414
133574,153841,9715,-0.195,0.991,0.227,-0.183,0.305,0,99.418
133574,153643,12321,-0.195,0.988,0.225,-0.305,0,-0.366,99.424
133591,153841,9715,-0.198,0.985,0.226,-0.305,0,-0.366,99.428
133591,153629,12306,-0.196,0.984,0.225,-0.061,0.061,-0.305,99.434
133570,153841,9715,-0.192,0.979,0.225,-0.061,0.061,-0.305,99.438
133570,153646,12314,-0.193,0.978,0.225,-0.061,0.183,-0.244,99.444
133562,153841,9715,-0.196,0.976,0.227,-0.061,0.183,-0.244,99.448
133562,153624,12314,-0.197,0.977,0.23,-0.122,0.244,0,99.454
133583,153841,9715,-0.194,0.974,0.235,-0.122,0.244,0,99.458
133583,153642,12304,-0.193,0.983,0.233,-0.183,0.305,0.244,99.464
133579,153841,9715,-0.195,0.987,0.234,-0.183,0.305,0.244,99.468
133579,153641,12315,-0.196,0.982,0.237,0.061,0.427,0.61,99.474
133558,153841,9715,-0.195,0.979,0.237,0.061,0.427,0.61,99.477
133558,153635,12301,-0.192,0.984,0.24,-0.305,0.488,0.671,99.484
133578,153841,9715,-0.194,0.984,0.239,-0.305,0.488,0.671,99.487
133578,153625,12285,-0.194,0.981,0.239,-0.732,0.427,0.427,99.493
133569,153841,9715,-0.193,0.98,0.236,-0.732,0.427,0.427,99.497
133569,153634,12304,-0.194,0.986,0.231,-0.488,0.366,0.549,99.503
133601,153841,9715,-0.192,0.984,0.237,-0.488,0.366,0.549,99.507
133601,153631,12298,-0.196,0.984,0.237,-0.366,0.61,0.488,99.513
133568,153841,9715,-0.198,0.984,0.227,-0.366,0.61,0.488,99.517
133568,153625,12311,-0.193,0.986,0.22,0.122,0.305,0.122,99.523
133567,153841,9715,-0.193,0.993,0.221,0.122,0.305,0.122,99.527
133567,153634,12306,-0.192,0.996,0.226,-0.183,0.122,0.366,99.533
133576,153841,9715,-0.192,0.989,0.226,-0.183,0.122,0.366,99.537
133576,153605,12303,-0.195,0.988,0.223,-0.427,0.305,0.549,99.543
133532,153585,9715,-0.196,0.981,0.223,-0.427,0.305,0.549,99.547
133532,153584,12308,-0.193,0.98,0.224,-0.427,-0.061,0.549,99.553
133548,153585,9715,-0.189,0.987,0.229,-0.427,-0.061,0.549,99.557
133548,153562,12290,-0.185,0.987,0.232,-0.061,0.122,0.61,99.563
133546,153585,9715,-0.192,0.983,0.241,-0.061,0.122,0.61,99.567
133546,153536,12317,-0.197,0.984,0.243,0,0.671,0.427,99.573
133543,153585,9715,-0.195,0.987,0.243,0,0.671,0.427,99.576
133543,153581,12305,-0.187,0.983,0.245,-0.366,0.183,0.305,99.583
133527,153585,9715,-0.189,0.98,0.245,-0.366,0.183,0.305,99.586
133527,153573,12319,-0.192,0.98,0.246,-0.793,0.305,0.61,99.592
133512,153585,9715,-0.192,0.979,0.243,-0.793,0.305,0.61,99.596
133512,153557,12298,-0.192,0.979,0.245,-0.549,0.732,0.488,99.602
133531,153585,9715,-0.196,0.984,0.249,-0.549,0.732,0.488,99.606
133531,153533,12296,-0.198,0.984,0.249,-0.061,1.098,0.122,99.612
133518,153585,9715,-0.202,0.988,0.235,-0.061,1.098,0.122,99.616
133518,153530,12305,-0.194,0.992,0.235,0.122,0.976,0,99.622
133519,153585,9715,-0.19,0.998,0.229,0.122,0.976,0,99.626
133519,153520,12300,-0.196,0.994,0.22,-0.183,0.549,0.061,99.632
133501,153585,9715,-0.198,0.982,0.226,-0.183,0.549,0.061,99.636
133501,153475,12294,-0.202,0.981,0.227,-0.122,0.671,0.061,99.642
133509,153585,9715,-0.197,0.984,0.221,-0.122,0.671,0.061,99.646
133509,153481,12285,-0.2,0.983,0.22,-0.122,0.732,0.061,99.652
133504,153585,9715,-0.197,0.981,0.226,-0.122,0.732,0.061,99.656
133504,153491,12300,-0.192,0.982,0.229,0.122,0.671,0.305,99.662
133501,153585,9715,-0.193,0.985,0.226,0.122,0.671,0.305,99.666
133501,153496,12310,-0.192,0.989,0.225,0,0.732,0.366,99.672
133496,153585,9715,-0.189,0.989,0.231,0,0.732,0.366,99.675
133496,153489,12292,-0.188,0.983,0.234,-0.122,0.915,0.366,99.682
133491,153585,9715,-0.195,0.98,0.234,-0.122,0.915,0.366,99.685
133491,153475,12307,-0.191,0.981,0.23,-0.427,0.793,0.305,99.691
133494,153585,9715,-0.186,0.986,0.229,-0.427,0.793,0.305,99.695
133494,153451,12315,-0.187,0.982,0.235,-0.244,0.854,0.244,99.701
133489,153585,9715,-0.187,0.982,0.235,-0.244,0.854,0.244,99.705
133489,153432,12293,-0.193,0.98,0.245,0.793,1.524,0.244,99.711
133474,153585,9715,-0.193,0.98,0.245,0.793,1.524,0.244,99.715
133474,153418,12294,-0.195,0.989,0.248,0.732,1.707,0,99.721
133459,153585,9715,-0.195,0.989,0.248,0.732,1.707,0,99.725
133459,153437,12310,-0.196,0.984,0.24,0.305,1.28,-0.061,99.731
133460,153585,9715,-0.196,0.984,0.24,0.305,1.28,-0.061,99.735
133460,153427,12306,-0.193,0.982,0.233,-0.183,0.793,0.061,99.741
133459,153585,9715,-0.193,0.982,0.233,-0.183,0.793,0.061,99.745
133459,153433,12303,-0.202,0.982,0.218,-0.732,0.671,0.183,99.751
133473,153585,9715,-0.202,0.982,0.218,-0.732,0.671,0.183,99.755
133473,153411,12314,-0.199,0.984,0.223,0.305,0.61,0,99.761
133484,153585,9715,-0.199,0.984,0.223,0.305,0.61,0,99.765
133484,153415,12296,-0.2,0.995,0.226,0.793,0.854,0.244,99.771
133445,153585,9715,-0.2,0.995,0.226,0.793,0.854,0.244,99.774
133445,153420,12305,-0.202,0.986,0.22,-0.183,0.671,0.305,99.781
133458,153585,9715,-0.202,0.986,0.22,-0.183,0.671,0.305,99.784
133458,153445,12313,-0.193,0.981,0.228,-0.793,-0.244,0.366,99.791
133467,153585,9715,-0.193,0.981,0.228,-0.793,-0.244,0.366,99.794
133467,153413,12308,-0.191,0.987,0.226,-0.915,0,0.305,99.8
133450,153585,9715,-0.191,0.987,0.226,-0.915,0,0.305,99.804
133450,153407,12318,-0.198,0.977,0.233,-0.183,0.427,0.366,99.81
133471,153585,9715,-0.198,0.977,0.233,-0.183,0.427,0.366,99.814
133471,153407,12313,-0.192,0.993,0.228,-0.305,0.183,0.366,99.82
133455,153585,9715,-0.192,0.993,0.228,-0.305,0.183,0.366,99.824
133455,153404,12308,-0.197,0.99,0.227,-0.671,-0.427,0.366,99.83
133470,153585,9715,-0.197,0.99,0.227,-0.671,-0.427,0.366,99.834
133470,153449,12300,-0.189,0.985,0.23,-0.976,-0.671,0.488,99.84
133475,153585,9715,-0.189,0.985,0.23,-0.976,-0.671,0.488,99.844
133475,153468,12299,-0.198,0.982,0.235,-0.976,-0.671,0.488,99.85
133467,153585,9715,-0.201,0.978,0.233,-0.976,-0.183,0.549,99.854
133467,153445,12324,-0.202,0.974,0.236,-0.976,-0.183,0.549,99.86
133491,153585,9715,-0.196,0.972,0.238,-0.671,0.061,0.61,99.864
133491,153434,12298,-0.195,0.971,0.244,-0.671,0.061,0.61,99.87
133463,153585,9715,-0.197,0.975,0.251,0.244,0.122,0.671,99.873
133463,153474,12313,-0.193,0.978,0.256,0.244,0.122,0.671,99.88
133491,153585,9715,-0.198,0.984,0.253,1.159,0.732,0.61,99.883
133491,153479,12308,-0.197,0.993,0.249,1.159,0.732,0.61,99.889
133497,153585,9715,-0.191,1,0.245,1.28,0.671,0.183,99.893
133497,153460,12314,-0.187,0.998,0.234,1.28,0.671,0.183,99.899
133490,153585,9715,-0.187,0.99,0.224,0,0.305,-0.061,99.903
133490,153493,12313,-0.188,0.984,0.221,0,0.305,-0.061,99.909
133488,153585,9715,-0.189,0.977,0.218,-1.22,0.244,0.244,99.913
133488,153462,12309,-0.189,0.971,0.214,-1.22,0.244,0.244,99.919
133483,153585,9715,-0.19,0.973,0.214,-0.915,0.244,0.305,99.923
133483,153484,12300,-0.19,0.98,0.22,-0.915,0.244,0.305,99.929
133490,153585,9715,-0.189,0.988,0.224,0.183,0.427,0.427,99.933
133490,153532,12315,-0.194,0.994,0.23,0.183,0.427,0.427,99.939
133474,153585,9715,-0.197,0.995,0.237,0.61,0.61,0.366,99.943
133474,153531,12315,-0.2,0.995,0.238,0.61,0.61,0.366,99.949
133493,153585,9715,-0.2,0.993,0.235,-0.122,0.366,0.488,99.953
133493,153545,12290,-0.199,0.985,0.24,-0.122,0.366,0.488,99.959
133498,153585,9715,-0.198,0.981,0.238,-0.976,-0.061,0.488,99.963
133498,153582,12304,-0.196,0.981,0.241,-0.976,-0.061,0.488,99.969
133511,153585,9715,-0.193,0.981,0.241,-0.854,0.244,0.488,99.972
133511,153594,12305,-0.195,0.979,0.239,-0.854,0.244,0.488,99.979
133513,153585,9715,-0.196,0.978,0.244,-0.366,0.915,0.183,99.982
133513,153598,12311,-0.198,0.98,0.246,-0.366,0.915,0.183,99.989
133542,153841,9715,-0.197,0.98,0.241,0.122,1.098,0.061,99.992
133542,153624,12301,-0.197,0.981,0.231,0.122,1.098,0.061,99.998
133529,153841,9715,-0.192,0.985,0.23,0.793,0.976,-0.305,100.002
133529,153658,12319,-0.19,0.99,0.224,0.793,0.976,-0.305,100.008
133553,153841,9715,-0.193,0.989,0.219,0.183,0.793,-0.366,100.012
133553,153681,12292,-0.197,0.981,0.22,0.183,0.793,-0.366,100.018
133520,153841,9715,-0.199,0.978,0.224,-0.488,0.488,0.061,100.022
133520,153676,12319,-0.196,0.98,0.218,-0.488,0.488,0.061,100.028
133550,153841,9715,-0.193,0.98,0.224,-0.793,0,0.244,100.032
133550,153655,12315,-0.194,0.984,0.228,-0.793,0,0.244,100.038
133539,153841,9715,-0.199,0.986,0.229,-0.122,0.244,0.427,100.042
133539,153655,12300,-0.198,0.988,0.229,-0.122,0.244,0.427,100.048
133540,153841,9715,-0.198,0.989,0.231,-0.061,0.427,0.549,100.052
133540,153635,12303,-0.203,0.987,0.238,-0.061,0.427,0.549,100.058
133543,153841,9715,-0.206,0.98,0.239,-0.732,0.549,0.549,100.062
133543,153656,12296,-0.203,0.974,0.234,-0.732,0.549,0.549,100.068
133521,153841,9715,-0.196,0.97,0.235,-0.732,0.305,0.732,100.071
133521,153646,12297,-0.19,0.978,0.237,-0.732,0.305,0.732,100.078
133529,153841,9715,-0.189,0.98,0.236,0.305,0.549,0.61,100.081
133529,153641,12315,-0.192,0.99,0.237,0.305,0.549,0.61,100.087
133515,153841,9715,-0.193,0.995,0.239,0.915,1.22,0.183,100.091
133515,153621,12300,-0.197,0.995,0.239,0.915,1.22,0.183,100.097
133541,153841,9715,-0.195,0.989,0.231,0.061,0.61,0.122,100.101
133541,153629,12322,-0.194,0.982,0.229,0.061,0.61,0.122,100.107
133514,153585,9715,-0.187,0.98,0.225,-0.793,-0.305,0.305,100.111
133514,153597,12316,-0.188,0.984,0.224,-0.793,-0.305,0.305,100.117
133515,153585,9715,-0.194,0.99,0.222,-0.61,-0.061,0.122,100.121
133515,153562,12298,-0.193,0.989,0.228,-0.61,-0.061,0.122,100.127
133543,153585,9715,-0.195,0.994,0.227,-0.122,0.366,-0.061,100.131
133543,153586,12311,-0.2,0.989,0.234,-0.122,0.366,-0.061,100.137
133536,153585,9715,-0.2,0.984,0.233,-0.793,0.122,-0.061,100.141
133536,153581,12318,-0.198,0.976,0.238,-0.793,0.122,-0.061,100.147
133532,153841,9715,-0.2,0.971,0.241,-1.22,0.244,-0.061,100.151
133532,153618,12300,-0.199,0.966,0.244,-1.22,0.244,-0.061,100.157
133532,153841,9715,-0.198,0.965,0.245,-0.732,0.427,-0.183,100.161
133532,153628,12299,-0.197,0.969,0.242,-0.732,0.427,-0.183,100.167
133524,153585,9715,-0.194,0.976,0.24,0.671,0.732,-0.244,100.17
133524,153597,12297,-0.192,0.98,0.229,0.671,0.732,-0.244,100.177
133505,153585,9715,-0.196,0.984,0.224,1.463,1.037,-0.061,100.18
133505,153568,12316,-0.194,0.99,0.229,1.463,1.037,-0.061,100.187
133494,153585,9715,-0.193,0.995,0.223,2.012,1.159,-0.061,100.19
133494,153545,12312,-0.194,1.003,0.217,2.012,1.159,-0.061,100.196
133498,153585,9715,-0.193,1.009,0.217,1.28,0.732,-0.122,100.2
133498,153545,12307,-0.193,1.004,0.226,1.28,0.732,-0.122,100.206
133500,153585,9715,-0.198,0.996,0.223,-0.671,0.305,0.183,100.21
133500,153539,12301,-0.197,0.983,0.222,-0.671,0.305,0.183,100.216
133487,153585,9715,-0.197,0.976,0.225,-1.585,-0.305,0.427,100.22
133487,153558,12297,-0.194,0.972,0.233,-1.585,-0.305,0.427,100.226
133500,153585,9715,-0.193,0.974,0.243,-1.098,-0.122,0.488,100.23
133500,153543,12302,-0.195,0.976,0.249,-1.098,-0.122,0.488,100.236
133472,153585,9715,-0.199,0.982,0.248,0.488,0.671,0.488,100.24
133472,153539,12301,-0.198,0.989,0.244,0.488,0.671,0.488,100.246
133500,153585,9715,-0.198,0.989,0.244,0.976,0.915,0.305,100.25
133500,153531,12295,-0.198,0.986,0.234,0.976,0.915,0.305,100.256
133518,153585,9715,-0.195,0.984,0.23,0.305,0.427,0.366,100.26
133518,153550,12297,-0.197,0.979,0.223,0.305,0.427,0.366,100.266
133506,153585,9715,-0.199,0.976,0.224,-0.183,0.488,0.427,100.269
133506,153561,12313,-0.2,0.977,0.227,-0.183,0.488,0.427,100.276
133486,153585,9715,-0.199,0.98,0.229,0.366,1.098,0.488,100.279
133486,153553,12316,-0.198,0.986,0.231,0.366,1.098,0.488,100.285
133496,153585,9715,-0.198,0.986,0.231,0.366,1.098,0.488,100.289
133496,153531,12296,-0.195,0.994,0.224,1.159,1.037,0.183,100.295
133461,153585,9715,-0.195,0.994,0.224,1.159,1.037,0.183,100.299
133461,153531,12314,-0.195,0.993,0.23,0.854,0.427,0.305,100.305
133480,153585,9715,-0.195,0.993,0.23,0.854,0.427,0.305,100.309
133480,153507,12297,-0.194,0.985,0.233,0.183,0.305,0.183,100.315
133473,153585,9715,-0.194,0.985,0.233,0.183,0.305,0.183,100.319
133473,153517,12302,-0.192,0.994,0.231,0.427,0.244,0.061,100.325
133475,153585,9715,-0.192,0.994,0.231,0.427,0.244,0.061,100.329
133475,153480,12292,-0.191,0.991,0.226,0.549,0.305,-0.122,100.335
133478,153585,9715,-0.191,0.991,0.226,0.549,0.305,-0.122,100.339
133478,153498,12312,-0.193,0.984,0.234,0.122,0.427,-0.183,100.345
133470,153585,9715,-0.193,0.984,0.234,0.122,0.427,-0.183,100.349
133470,153513,12300,-0.197,0.972,0.228,-0.183,0.671,-0.122,100.355
133469,153585,9715,-0.197,0.972,0.228,-0.183,0.671,-0.122,100.359
133469,153547,12307,-0.192,0.976,0.227,0.183,0.671,0,100.365
133481,153585,9715,-0.192,0.976,0.227,0.183,0.671,0,100.368
133481,153523,12306,-0.199,0.99,0.232,0.732,0.732,0.122,100.375
133493,153585,9715,-0.199,0.99,0.232,0.732,0.732,0.122,100.378
133493,153548,12296,-0.2,0.987,0.234,0.915,0.915,0.122,100.385
133476,153585,9715,-0.2,0.987,0.234,0.915,0.915,0.122,100.388
133476,153519,12311,-0.2,0.995,0.234,0.305,0.61,0.366,100.394
133483,153585,9715,-0.2,0.995,0.234,0.305,0.61,0.366,100.398
133483,153535,12303,-0.199,0.991,0.235,-0.732,0.366,0.122,100.404
133472,153585,9715,-0.199,0.991,0.235,-0.732,0.366,0.122,100.408
133472,153527,12298,-0.201,0.975,0.234,-1.037,0.427,-0.061,100.414
133474,153585,9715,-0.201,0.975,0.234,-1.037,0.427,-0.061,100.418
133474,153541,12310,-0.2,0.971,0.233,-0.793,0.244,-0.122,100.424
133460,153585,9715,-0.2,0.971,0.233,-0.793,0.244,-0.122,100.428
133460,153560,12305,-0.195,0.973,0.233,0.183,0.549,-0.122,100.434
133483,153585,9715,-0.195,0.979,0.233,0.183,0.549,-0.122,100.438
133483,153562,12300,-0.198,0.982,0.234,1.341,1.098,-0.183,100.444
133476,153585,9715,-0.198,0.985,0.238,1.341,1.098,-0.183,100.448
133476,153551,12308,-0.194,0.988,0.238,1.341,1.22,-0.061,100.454
133480,153585,9715,-0.196,0.985,0.229,1.341,1.22,-0.061,100.458
133480,153595,12303,-0.195,0.984,0.222,0.366,0.671,0,100.464
133487,153841,9715,-0.192,0.984,0.22,0.366,0.671,0,100.467
133487,153606,12311,-0.194,0.981,0.216,-0.549,0.488,0.122,100.474
133464,153585,9715,-0.198,0.981,0.217,-0.549,0.488,0.122,100.477
133464,153593,12300,-0.195,0.985,0.219,-0.732,0.488,0.488,100.483
133484,153585,9715,-0.193,0.987,0.229,-0.732,0.488,0.488,100.487
133484,153597,12298,-0.198,0.986,0.227,-0.183,0.61,0.549,100.493
133483,153841,9715,-0.2,0.987,0.228,-0.183,0.61,0.549,100.497
133483,153600,12315,-0.202,0.992,0.231,0.427,0.549,0.549,100.503
133479,153841,9715,-0.203,0.997,0.235,0.427,0.549,0.549,100.507
133479,153631,12297,-0.2,0.996,0.238,0.183,0.427,0.305,100.513
133493,153841,9715,-0.204,0.988,0.241,0.183,0.427,0.305,100.517
133493,153608,12301,-0.204,0.985,0.241,-0.122,0.244,0.183,100.523
133484,153841,9715,-0.202,0.986,0.237,-0.122,0.244,0.183,100.527
133484,153608,12295,-0.199,0.982,0.229,-0.488,0.122,0.183,100.533
133473,153841,9715,-0.198,0.977,0.228,-0.488,0.122,0.183,100.537
133473,153603,12301,-0.193,0.979,0.222,-0.122,0.183,0.183,100.543
133474,153841,9715,-0.192,0.979,0.22,-0.122,0.183,0.183,100.547
133474,153623,12297,-0.192,0.981,0.223,0.427,0.427,-0.061,100.553
133455,153585,9715,-0.194,0.987,0.226,0.427,0.427,-0.061,100.557
133455,153598,12312,-0.199,0.986,0.229,0.122,0.732,0.122,100.563
133477,153585,9715,-0.198,0.984,0.23,0.122,0.732,0.122,100.566
133477,153597,12299,-0.195,0.983,0.229,-0.244,0.366,0.549,100.573
133475,153841,9715,-0.194,0.981,0.224,-0.244,0.366,0.549,100.576
133475,153609,12303,-0.191,0.981,0.227,-0.61,-0.122,0.61,100.583
133462,153585,9715,-0.193,0.984,0.235,-0.61,-0.122,0.61,100.586
133462,153598,12301,-0.191,0.983,0.24,-0.427,0.305,0.488,100.592
133481,153841,9715,-0.196,0.985,0.242,-0.427,0.305,0.488,100.596
133481,153613,12308,-0.199,0.985,0.247,0.427,0.793,0.366,100.602
133448,153841,9715,-0.2,0.984,0.246,0.427,0.793,0.366,100.606
133448,153600,12298,-0.197,0.987,0.241,0.671,0.976,0.183,100.612
133476,153841,9715,-0.2,0.99,0.236,0.671,0.976,0.183,100.616
133476,153612,12306,-0.196,0.99,0.232,0.366,0.915,-0.061,100.622
133464,153585,9715,-0.198,0.986,0.233,0.366,0.915,-0.061,100.626
133464,153594,12303,-0.203,0.983,0.22,-0.061,0.915,-0.061,100.632
133473,153841,9715,-0.201,0.976,0.213,-0.061,0.915,-0.061,100.636
133473,153605,12308,-0.197,0.981,0.221,-0.366,0.427,0.061,100.642
133493,153841,9715,-0.197,0.983,0.224,-0.366,0.427,0.061,100.646
133493,153612,12284,-0.2,0.982,0.223,-0.122,0.488,0.366,100.652
133454,153841,9715,-0.203,0.983,0.223,-0.122,0.488,0.366,100.656
133454,153605,12318,-0.201,0.988,0.227,0.305,0.793,0.488,100.662
133461,153585,9715,-0.197,0.992,0.231,0.305,0.793,0.488,100.665
133461,153568,12277,-0.2,0.993,0.232,0.183,0.732,0.427,100.672
133468,153585,9715,-0.202,0.99,0.231,0.183,0.732,0.427,100.675
133468,153597,12301,-0.195,0.983,0.236,-0.61,0.61,0.427,100.682
133458,153585,9715,-0.194,0.98,0.237,-0.61,0.61,0.427,100.685
133458,153543,12296,-0.198,0.978,0.236,-1.037,0.549,0.366,100.691
133454,153585,9715,-0.198,0.976,0.233,-1.037,0.549,0.366,100.695
133454,153574,12303,-0.196,0.983,0.223,0.122,0.854,0.305,100.701
133466,153585,9715,-0.195,0.985,0.23,0.122,0.854,0.305,100.705
133466,153588,12283,-0.196,0.987,0.234,0.793,1.098,-0.122,100.711
133467,153585,9715,-0.2,0.984,0.232,0.793,1.098,-0.122,100.715
133467,153584,12308,-0.207,0.985,0.223,0.671,1.22,0.061,100.721
133468,153841,9715,-0.2,0.991,0.223,0.671,1.22,0.061,100.725
133468,153617,12293,-0.195,0.986,0.228,0.122,0.549,0.122,100.731
133449,153841,9715,-0.198,0.985,0.225,0.122,0.549,0.122,100.735
133449,153610,12294,-0.2,0.984,0.225,0.122,0.244,0.305,100.741
133458,153841,9715,-0.198,0.992,0.222,0.122,0.244,0.305,100.745
133458,153614,12280,-0.197,0.994,0.226,-0.061,0.366,0.061,100.751
133454,153841,9715,-0.194,0.987,0.236,-0.061,0.366,0.061,100.755
133454,153629,12291,-0.198,0.982,0.24,0.366,0.488,0,100.761
133477,153841,9715,-0.205,0.985,0.233,0.366,0.488,0,100.764
133477,153652,12291,-0.204,0.987,0.228,-0.366,0.488,0.122,100.771
133467,153841,9715,-0.197,0.979,0.225,-0.366,0.488,0.122,100.774
133467,153621,12303,-0.199,0.976,0.223,-0.366,0.122,0.122,100.78
133469,153841,9715,-0.198,0.981,0.22,-0.366,0.122,0.122,100.784
133469,153629,12290,-0.198,0.991,0.222,0.549,0.549,0.183,100.79
133470,153585,9715,-0.201,0.993,0.226,0.549,0.549,0.183,100.794
133470,153598,12304,-0.203,0.992,0.227,0.427,1.098,0.061,100.8
133452,153585,9715,-0.206,0.99,0.23,0.427,1.098,0.061,100.804
133452,153592,12275,-0.203,0.98,0.229,-0.732,0.244,0.305,100.81
133458,153585,9715,-0.2,0.969,0.225,-0.732,0.244,0.305,100.814
133458,153595,12296,-0.193,0.965,0.225,-1.646,-0.61,0.61,100.82
133460,153841,9715,-0.191,0.968,0.227,-1.646,-0.61,0.61,100.824
133460,153611,12288,-0.197,0.973,0.225,-0.671,-0.061,0.549,100.83
133451,153841,9715,-0.2,0.974,0.23,-0.671,-0.061,0.549,100.834
133451,153615,12304,-0.201,0.976,0.238,0.305,0.488,0.61,100.84
133450,153841,9715,-0.203,0.985,0.24,0.305,0.488,0.61,100.844
133450,153610,12283,-0.202,0.98,0.233,0,0.183,1.098,100.85
133467,153841,9715,-0.197,0.979,0.23,0,0.183,1.098,100.854
133467,153618,12300,-0.192,0.987,0.226,-0.122,-0.305,1.585,100.86
133452,153841,9715,-0.188,0.994,0.224,-0.122,-0.305,1.585,100.863
133452,153608,12285,-0.191,0.996,0.225,0,0.122,1.28,100.87
133465,153841,9715,-0.195,0.998,0.227,0,0.122,1.28,100.873
133465,153603,12291,-0.199,0.995,0.23,0.488,0.488,0.915,100.88
133468,153841,9715,-0.199,0.995,0.23,0.488,0.488,0.915,100.883
133468,153632,12304,-0.194,1,0.233,-0.061,0,0.61,100.889
133453,153841,9715,-0.194,1,0.233,-0.061,0,0.61,100.893
133453,153612,12283,-0.195,0.988,0.24,-0.488,0.183,0.488,100.899
133449,153841,9715,-0.195,0.988,0.24,-0.488,0.183,0.488,100.903
133449,153632,12295,-0.198,0.992,0.251,-0.305,0.793,0.183,100.909
133461,153841,9715,-0.198,0.992,0.251,-0.305,0.793,0.183,100.913
133461,153600,12279,-0.196,0.987,0.25,-0.244,0.732,-0.244,100.919
133456,153841,9715,-0.196,0.987,0.25,-0.244,0.732,-0.244,100.923
133456,153616,12300,-0.191,0.983,0.226,0.122,0.366,-0.549,100.929
133461,153841,9715,-0.191,0.983,0.226,0.122,0.366,-0.549,100.933
133461,153623,12288,-0.197,0.977,0.221,-0.183,0.854,-0.549,100.939
133452,153841,9715,-0.197,0.977,0.221,-0.183,0.854,-0.549,100.943
133452,153622,12284,-0.206,0.967,0.211,0.061,0.793,-0.366,100.949
133463,153841,9715,-0.206,0.967,0.211,0.061,0.793,-0.366,100.953
133463,153652,12276,-0.206,0.973,0.216,0.305,0.732,0.183,100.959
133459,153841,9715,-0.206,0.973,0.216,0.305,0.732,0.183,100.962
133459,153656,12283,-0.203,0.978,0.228,0.671,0.61,0.671,100.969
133469,153841,9715,-0.203,0.978,0.228,0.671,0.61,0.671,100.972
133469,153630,12301,-0.2,0.985,0.233,0.732,0.366,0.732,100.978
133462,153841,9715,-0.2,0.985,0.233,0.732,0.366,0.732,100.982
133462,153669,12291,-0.2,0.994,0.24,0.305,0.488,0.793,100.988
133450,153841,9715,-0.2,0.994,0.24,0.305,0.488,0.793,100.992
133450,153650,12287,-0.192,0.993,0.226,-0.061,0.366,0.671,100.998
133471,153841,9715,-0.192,0.993,0.226,-0.061,0.366,0.671,101.002
133471,153665,12289,-0.189,0.99,0.241,-0.793,0.183,0.61,101.008
133441,153841,9715,-0.189,0.99,0.241,-0.793,0.183,0.61,101.012
133441,153688,12296,-0.199,0.991,0.217,-0.793,0.488,0.488,101.018
133484,153841,9715,-0.199,0.991,0.217,-0.793,0.488,0.488,101.022
133484,153667,12283,-0.187,0.993,0.222,-0.793,0.488,0.488,101.028
133453,153841,9715,-0.188,0.992,0.224,-0.488,0.183,-0.183,101.032
133453,153677,12287,-0.2,0.989,0.22,-0.488,0.183,-0.183,101.038
133459,153841,9715,-0.205,0.982,0.218,-0.366,0.61,-0.122,101.042
133459,153651,12289,-0.204,0.979,0.222,-0.366,0.61,-0.122,101.048
133439,153841,9715,-0.199,0.976,0.227,-0.305,0.427,0,101.052
133439,153642,12281,-0.196,0.976,0.228,-0.305,0.427,0,101.058
133441,153841,9715,-0.196,0.983,0.23,0.183,0.183,0.488,101.061
133441,153622,12278,-0.199,0.984,0.229,0.183,0.183,0.488,101.068
133426,153841,9715,-0.203,0.982,0.237,0.671,0.732,0.061,101.071
133426,153621,12282,-0.205,0.984,0.239,0.671,0.732,0.061,101.078
133435,153841,9715,-0.204,0.986,0.245,0.366,0.488,-0.061,101.081
133435,153614,12286,-0.203,0.979,0.242,0.366,0.488,-0.061,101.087
133444,153841,9715,-0.198,0.982,0.23,-0.305,0.061,0.183,101.091
133444,153610,12304,-0.194,0.978,0.229,-0.305,0.061,0.183,101.097
133456,153841,9715,-0.192,0.969,0.226,-0.976,0,0.244,101.101
133456,153625,12281,-0.202,0.964,0.223,-0.976,0,0.244,101.107
133443,153841,9715,-0.204,0.966,0.221,-0.183,0.366,0.549,101.111
133443,153628,12288,-0.202,0.973,0.215,-0.183,0.366,0.549,101.117
133439,153841,9715,-0.197,0.986,0.213,0.732,0.427,0.671,101.121
133439,153626,12277,-0.195,0.99,0.219,0.732,0.427,0.671,101.127
133444,153841,9715,-0.194,0.993,0.222,0.793,0.244,0.915,101.131
133444,153618,12285,-0.199,0.995,0.227,0.793,0.244,0.915,101.137
133460,153841,9715,-0.203,0.995,0.228,-0.183,-0.183,1.22,101.141
133460,153652,12283,-0.201,0.99,0.229,-0.183,-0.183,1.22,101.147
133444,153841,9715,-0.197,0.987,0.231,-0.915,-0.549,1.22,101.151
133444,153656,12282,-0.196,0.988,0.24,-0.915,-0.549,1.22,101.157
133458,153841,9715,-0.196,0.988,0.246,-0.854,-0.427,1.159,101.16
133458,153636,12276,-0.197,0.985,0.242,-0.854,-0.427,1.159,101.167
133462,153841,9715,-0.198,0.991,0.235,-0.061,0.122,0.671,101.17
133462,153641,12297,-0.197,0.991,0.232,-0.061,0.122,0.671,101.177
133464,153841,9715,-0.191,0.982,0.235,0.061,0,0.244,101.18
133464,153663,12290,-0.196,0.979,0.233,0.061,0,0.244,101.186
133463,153841,9715,-0.2,0.975,0.228,-0.366,0.122,0.305,101.19
133463,153643,12305,-0.202,0.975,0.227,-0.366,0.122,0.305,101.196
133480,153841,9715,-0.199,0.976,0.227,-0.488,0.244,0.61,101.2
133480,153632,12290,-0.195,0.978,0.226,-0.488,0.244,0.61,101.206
133437,153585,9715,-0.193,0.977,0.226,0.061,0.061,0.732,101.21
133437,153597,12293,-0.197,0.981,0.22,0.061,0.061,0.732,101.216
133431,153585,9715,-0.195,0.992,0.231,0.61,0.183,0.976,101.22
133431,153567,12285,-0.195,0.993,0.241,0.61,0.183,0.976,101.226
133446,153585,9715,-0.196,0.992,0.234,0.244,0.488,0.976,101.23
133446,153581,12283,-0.199,0.992,0.235,0.244,0.488,0.976,101.236
133431,153841,9715,-0.194,0.99,0.239,-0.244,0.122,0.854,101.24
133431,153606,12285,-0.192,0.99,0.243,-0.244,0.122,0.854,101.246
133450,153585,9715,-0.188,0.991,0.243,-0.122,0,0.671,101.25
133450,153584,12285,-0.188,0.993,0.243,-0.122,0,0.671,101.256
133431,153841,9715,-0.193,0.99,0.242,0.244,0.61,0.305,101.259
133431,153628,12290,-0.195,0.99,0.234,0.244,0.61,0.305,101.266
133444,153841,9715,-0.193,0.985,0.238,0.122,0.61,-0.183,101.269
133444,153600,12296,-0.191,0.983,0.235,0.122,0.61,-0.183,101.276
133435,153585,9715,-0.194,0.984,0.223,-0.061,0.61,-0.305,101.279
133435,153581,12291,-0.195,0.981,0.223,-0.061,0.61,-0.305,101.285
133441,153585,9715,-0.196,0.98,0.218,0.549,0.732,-0.244,101.289
133441,153575,12268,-0.196,0.99,0.218,0.549,0.732,-0.244,101.295
133410,153585,9715,-0.203,0.988,0.222,0.427,0.854,-0.244,101.299
133410,153544,12295,-0.207,0.986,0.22,0.427,0.854,-0.244,101.305
133438,153585,9715,-0.207,0.984,0.22,-0.061,0.854,-0.061,101.309
133438,153552,12288,-0.204,0.985,0.222,-0.061,0.854,-0.061,101.315
133428,153585,9715,-0.201,0.982,0.223,-1.037,0.061,0.244,101.319
133428,153511,12278,-0.198,0.977,0.227,-1.037,0.061,0.244,101.325
133413,153585,9715,-0.198,0.977,0.232,-1.22,-0.061,0.61,101.329
133413,153543,12293,-0.201,0.981,0.235,-1.22,-0.061,0.61,101.335
133415,153585,9715,-0.199,0.983,0.242,-0.488,0.122,0.488,101.339
133415,153554,12279,-0.198,0.986,0.242,-0.488,0.122,0.488,101.345
133408,153585,9715,-0.198,0.987,0.236,0.183,0.488,0.244,101.349
133408,153584,12292,-0.195,0.997,0.227,0.183,0.488,0.244,101.355
133436,153585,9715,-0.193,1.005,0.217,0.244,0.305,0.122,101.358
133436,153563,12279,-0.19,0.994,0.222,0.244,0.305,0.122,101.365
133402,153585,9715,-0.195,0.983,0.229,-0.305,0.183,0,101.368
133402,153553,12286,-0.201,0.977,0.227,-0.305,0.183,0,101.375
133404,153585,9715,-0.201,0.969,0.223,-0.671,0.671,0.305,101.378
133404,153559,12280,-0.197,0.972,0.226,-0.671,0.671,0.305,101.384
133424,153585,9715,-0.19,0.981,0.223,0.732,0.427,0.122,101.388
133424,153549,12259,-0.191,0.987,0.221,0.732,0.427,0.122,101.394
133408,153585,9715,-0.196,0.988,0.226,1.768,0.549,0.122,101.398
133408,153551,12287,-0.202,0.99,0.224,1.768,0.549,0.122,101.404
133430,153585,9715,-0.204,0.99,0.228,0.854,0.671,0.244,101.408
133430,153552,12268,-0.204,0.983,0.229,0.854,0.671,0.244,101.414
133428,153585,9715,-0.202,0.982,0.232,-0.427,-0.122,0.549,101.418
133428,153544,12287,-0.201,0.982,0.234,-0.427,-0.122,0.549,101.424
133410,153585,9715,-0.2,0.982,0.23,-0.915,-0.488,0.915,101.428
133410,153560,12282,-0.195,0.98,0.232,-0.915,-0.488,0.915,101.434
133423,153585,9715,-0.197,0.986,0.233,-0.915,-0.244,0.793,101.438
133423,153571,12267,-0.197,0.985,0.235,-0.915,-0.244,0.793,101.444
133436,153585,9715,-0.199,0.981,0.235,-0.366,0.366,0.915,101.448
133436,153553,12280,-0.197,0.987,0.234,-0.366,0.366,0.915,101.454
133429,153585,9715,-0.193,0.99,0.236,-0.183,0.488,0.671,101.457
133429,153597,12283,-0.195,0.985,0.233,-0.183,0.488,0.671,101.464
133425,153585,9715,-0.195,0.985,0.233,-0.183,0.488,0.671,101.467
133425,153573,12279,-0.199,0.976,0.234,-0.366,0.732,0.549,101.474
133411,153841,9715,-0.199,0.976,0.234,-0.366,0.732,0.549,101.477
133411,153613,12278,-0.194,0.981,0.227,-0.366,0.549,0.549,101.483
133416,153585,9715,-0.194,0.981,0.227,-0.366,0.549,0.549,101.487
133416,153568,12274,-0.193,0.991,0.226,0.488,0.549,0.427,101.493
133416,153585,9715,-0.193,0.991,0.226,0.488,0.549,0.427,101.497
133416,153588,12277,-0.197,0.992,0.222,0.976,0.793,0.366,101.503
133425,153585,9715,-0.197,0.992,0.222,0.976,0.793,0.366,101.507
133425,153590,12277,-0.196,0.99,0.227,0.427,0.61,0.366,101.513
133442,153585,9715,-0.196,0.99,0.227,0.427,0.61,0.366,101.517
133442,153571,12266,-0.196,0.983,0.237,-0.122,0.122,0.488,101.523
133419,153585,9715,-0.196,0.983,0.237,-0.122,0.122,0.488,101.527
133419,153546,12277,-0.193,0.988,0.231,-0.122,0.122,0.549,101.533
133408,153585,9715,-0.193,0.988,0.231,-0.122,0.122,0.549,101.537
133408,153486,12282,-0.199,0.985,0.232,0,0.305,0.305,101.543
133380,153585,9715,-0.199,0.985,0.232,0,0.305,0.305,101.547
133380,153460,12273,-0.206,0.978,0.231,-0.305,0.488,0.244,101.553
133365,153585,9715,-0.206,0.978,0.231,-0.305,0.488,0.244,101.556
133365,153441,12272,-0.199,0.98,0.224,-0.61,0.305,0.366,101.563
133336,153585,9715,-0.199,0.98,0.224,-0.61,0.305,0.366,101.566
133336,153407,12268,-0.194,0.987,0.219,-0.305,0.122,0.61,101.573
133348,153585,9715,-0.194,0.987,0.219,-0.305,0.122,0.61,101.576
133348,153386,12270,-0.19,0.987,0.221,0.061,0.305,0.732,101.582
133321,153585,9715,-0.19,0.987,0.221,0.061,0.305,0.732,101.586
133321,153365,12274,-0.199,0.992,0.222,0.427,0.366,0.793,101.592
133314,153585,9715,-0.199,0.992,0.222,0.427,0.366,0.793,101.596
133314,153356,12282,-0.187,0.993,0.229,0.122,0.061,0.488,101.602
133325,153585,9715,-0.187,0.993,0.229,0.122,0.061,0.488,101.606
133325,153389,12268,-0.197,0.989,0.235,-0.244,-0.061,0.305,101.612
133334,153585,9715,-0.197,0.989,0.235,-0.244,-0.061,0.305,101.616
133334,153352,12271,-0.197,0.985,0.235,-0.915,0,0.427,101.622
133283,153585,9715,-0.194,0.981,0.24,-0.915,0,0.427,101.626
133283,153344,12272,-0.195,0.977,0.24,-0.793,-0.061,0.427,101.632
133308,153329,9715,-0.199,0.973,0.239,-0.793,-0.061,0.427,101.636
133308,153300,12276,-0.205,0.979,0.236,0.366,0.488,0.366,101.642
133298,153329,9715,-0.202,0.986,0.233,0.366,0.488,0.366,101.646
133298,153272,12259,-0.203,0.985,0.235,0.915,0.854,0.122,101.652
133303,153329,9715,-0.205,0.986,0.232,0.915,0.854,0.122,101.655
133303,153307,12266,-0.207,0.985,0.235,0.976,1.098,0.427,101.662
133290,153329,9715,-0.208,0.988,0.235,0.976,1.098,0.427,101.665
133290,153324,12274,-0.205,0.991,0.232,0.366,0.915,0.61,101.672
133305,153329,9715,-0.199,0.994,0.232,0.366,0.915,0.61,101.675
133305,153332,12267,-0.194,1,0.228,-0.061,0.061,0.366,101.681
133290,153329,9715,-0.195,1.001,0.218,-0.061,0.061,0.366,101.685
133290,153338,12268,-0.192,0.998,0.219,-0.793,-0.183,-0.061,101.691
133299,153329,9715,-0.195,0.985,0.225,-0.793,-0.183,-0.061,101.695
133299,153332,12276,-0.198,0.98,0.221,-0.854,0.244,0.122,101.701
133286,153329,9715,-0.194,0.98,0.222,-0.854,0.244,0.122,101.705
133286,153301,12274,-0.19,0.98,0.223,-0.549,0.305,0.122,101.711
133280,153329,9715,-0.186,0.983,0.222,-0.549,0.305,0.122,101.715
133280,153292,12278,-0.187,0.985,0.223,0.427,0.61,-0.122,101.721
133259,153329,9715,-0.19,0.989,0.222,0.427,0.61,-0.122,101.725
133259,153273,12262,-0.197,0.985,0.227,0.427,0.976,0,101.731
133284,153329,9715,-0.198,0.979,0.233,0.427,0.976,0,101.735
133284,153275,12274,-0.197,0.978,0.236,-0.366,0.671,0,101.741
133273,153329,9715,-0.198,0.983,0.243,-0.366,0.671,0,101.745
133273,153274,12271,-0.197,0.985,0.245,-0.427,0.671,0.061,101.751
133279,153329,9715,-0.194,0.984,0.24,-0.427,0.671,0.061,101.754
133279,153280,12271,-0.195,0.979,0.235,0.549,0.915,-0.061,101.761
133270,153329,9715,-0.195,0.987,0.23,0.549,0.915,-0.061,101.764
133270,153303,12274,-0.196,0.987,0.231,-0.122,0.732,-0.061,101.771
133264,153329,9715,-0.196,0.982,0.225,-0.122,0.732,-0.061,101.774
133264,153305,12271,-0.201,0.975,0.228,-0.488,0.671,-0.061,101.78
133276,153329,9715,-0.203,0.973,0.229,-0.488,0.671,-0.061,101.784
133276,153308,12274,-0.204,0.979,0.232,-0.305,1.037,0.183,101.79
133273,153329,9715,-0.202,0.985,0.225,-0.305,1.037,0.183,101.794
133273,153313,12270,-0.198,0.984,0.229,-0.427,0.854,0.366,101.8
133279,153329,9715,-0.196,0.986,0.227,-0.427,0.854,0.366,101.804
133279,153323,12275,-0.199,0.986,0.227,-0.183,0.793,0.488,101.81
133292,153329,9715,-0.2,0.987,0.228,-0.183,0.793,0.488,101.814
133292,153293,12275,-0.197,0.991,0.229,0.061,0.915,0.488,101.82
133257,153329,9715,-0.196,0.996,0.233,0.061,0.915,0.488,101.824
133257,153315,12276,-0.2,0.99,0.232,0.061,1.037,0.305,101.83
133277,153329,9715,-0.203,0.99,0.229,0.061,1.037,0.305,101.834
133277,153268,12280,-0.201,0.992,0.225,0.244,0.976,0.183,101.84
133265,153329,9715,-0.195,0.987,0.226,0.244,0.976,0.183,101.844
133265,153292,12284,-0.195,0.986,0.224,-0.122,0.244,-0.183,101.85
133249,153329,9715,-0.198,0.988,0.217,-0.122,0.244,-0.183,101.853
133249,153257,12274,-0.202,0.982,0.219,-0.122,0.488,-0.305,101.86
133278,153329,9715,-0.2,0.982,0.22,-0.122,0.488,-0.305,101.863
133278,153275,12265,-0.2,0.978,0.216,-0.366,0.366,-0.183,101.87
133251,153329,9715,-0.195,0.973,0.212,-0.366,0.366,-0.183,101.873
133251,153298,12277,-0.192,0.971,0.219,-0.671,-0.244,0.366,101.879
133257,153329,9715,-0.193,0.976,0.225,-0.671,-0.244,0.366,101.883
133257,153251,12277,-0.193,0.981,0.227,-0.305,0.061,0.671,101.889
133276,153329,9715,-0.196,0.984,0.233,-0.305,0.061,0.671,101.893
133276,153306,12265,-0.199,0.983,0.237,0.305,0.427,0.671,101.899
133283,153329,9715,-0.203,0.992,0.236,0.305,0.427,0.671,101.903
133283,153303,12277,-0.198,0.995,0.241,0.305,0.305,0.61,101.909
133266,153329,9715,-0.194,0.99,0.246,0.305,0.305,0.61,101.913
133266,153282,12276,-0.198,0.985,0.245,-0.366,0.488,0.549,101.919
133267,153329,9715,-0.204,0.981,0.238,-0.366,0.488,0.549,101.923
133267,153302,12265,-0.201,0.985,0.238,-0.427,0.427,0.61,101.929
133266,153329,9715,-0.193,0.993,0.231,-0.427,0.427,0.61,101.933
133266,153283,12266,-0.189,0.99,0.232,-0.061,0.366,0.061,101.939
133286,153329,9715,-0.195,0.989,0.233,-0.061,0.366,0.061,101.943
133286,153313,12275,-0.204,0.99,0.23,0.061,1.037,0.122,101.949
133252,153329,9715,-0.2,0.994,0.231,0.061,1.037,0.122,101.953
133252,153273,12275,-0.189,0.991,0.227,0.061,0.976,0.061,101.959
133259,153329,9715,-0.189,0.986,0.226,0.061,0.976,0.061,101.962
133259,153279,12272,-0.196,0.978,0.215,0.61,0.61,0,101.969
133256,153329,9715,-0.193,0.984,0.212,0.61,0.61,0,101.972
133256,153236,12274,-0.19,1.001,0.219,1.098,0.488,-0.427,101.978
133253,153329,9715,-0.194,1.008,0.22,1.098,0.488,-0.427,101.982
133253,153274,12275,-0.203,0.997,0.229,0.366,1.037,-0.366,101.988
133263,153329,9715,-0.21,0.978,0.226,0.366,1.037,-0.366,101.992
133263,153259,12277,-0.212,0.969,0.221,-1.159,0.61,0.061,101.998
133255,153329,9715,-0.199,0.965,0.228,-1.159,0.61,0.061,102.002
133255,153288,12263,-0.191,0.962,0.23,-1.89,-0.366,0.549,102.008
133296,153329,9715,-0.197,0.968,0.22,-1.89,-0.366,0.549,102.012
133296,153275,12270,-0.201,0.97,0.225,0.061,0.427,0.427,102.018
133270,153329,9715,-0.203,0.979,0.233,0.061,0.427,0.427,102.022
133270,153299,12273,-0.208,0.982,0.241,1.037,1.402,0.244,102.028
133281,153329,9715,-0.211,0.982,0.238,1.037,1.402,0.244,102.032
133281,153297,12257,-0.207,0.981,0.23,0.183,0.732,0.732,102.038
133286,153329,9715,-0.197,0.983,0.228,0.183,0.732,0.732,102.042
133286,153312,12284,-0.191,0.985,0.227,-1.098,-0.183,1.037,102.048
133313,153329,9715,-0.192,0.987,0.219,-1.098,-0.183,1.037,102.051
133313,153260,12246,-0.192,0.982,0.217,-1.585,-0.061,0.976,102.058
133277,153329,9715,-0.192,0.982,0.217,-1.585,-0.061,0.976,102.061
133277,153314,12272,-0.196,0.99,0.223,-0.793,0.122,0.732,102.068
133291,153329,9715,-0.196,0.99,0.223,-0.793,0.122,0.732,102.071
133291,153316,12267,-0.205,0.996,0.226,-0.122,0.366,0.854,102.077
133294,153329,9715,-0.205,0.996,0.226,-0.122,0.366,0.854,102.081
133294,153336,12275,-0.198,0.998,0.227,-0.244,0.061,0.854,102.087
133313,153585,9715,-0.198,0.998,0.227,-0.244,0.061,0.854,102.091
133313,153356,12270,-0.192,0.993,0.225,-0.183,-0.305,0.671,102.097
133301,153585,9715,-0.192,0.993,0.225,-0.183,-0.305,0.671,102.101
133301,153347,12277,-0.202,0.99,0.226,0.305,0.305,0.366,102.107
133295,153329,9715,-0.202,0.99,0.226,0.305,0.305,0.366,102.111
133295,153343,12275,-0.2,0.99,0.231,0.122,0.305,-0.061,102.117
133289,153329,9715,-0.2,0.99,0.231,0.122,0.305,-0.061,102.121
133289,153311,12260,-0.196,0.983,0.23,-0.244,0.061,0.183,102.127
133291,153329,9715,-0.196,0.983,0.23,-0.244,0.061,0.183,102.131
133291,153292,12269,-0.19,0.977,0.233,-0.366,0,0.244,102.137
133279,153329,9715,-0.19,0.977,0.233,-0.366,0,0.244,102.141
133279,153310,12259,-0.194,0.976,0.239,-0.244,0.244,0.183,102.147
133294,153329,9715,-0.194,0.976,0.239,-0.244,0.244,0.183,102.151
133294,153318,12272,-0.194,0.976,0.235,0.183,0.427,0.183,102.157
133282,153329,9715,-0.194,0.976,0.235,0.183,0.427,0.183,102.16
133282,153326,12280,-0.198,0.978,0.24,-0.244,0.427,0.427,102.167
133293,153585,9715,-0.198,0.978,0.24,-0.244,0.427,0.427,102.17
133293,153349,12281,-0.2,0.982,0.23,-0.732,0.183,0.793,102.176
133295,153329,9715,-0.2,0.982,0.23,-0.732,0.183,0.793,102.18
133295,153343,12263,-0.197,0.983,0.23,-0.854,0.061,0.915,102.186
133310,153585,9715,-0.197,0.983,0.23,-0.854,0.061,0.915,102.19
133310,153358,12260,-0.197,0.985,0.231,-0.183,0.488,0.915,102.196
133292,153585,9715,-0.197,0.985,0.231,-0.183,0.488,0.915,102.2
133292,153347,12280,-0.197,0.994,0.229,-0.183,0.488,0.915,102.206
133307,153329,9715,-0.197,0.998,0.235,0.427,0.793,0.549,102.21
133307,153341,12270,-0.199,0.992,0.235,0.427,0.793,0.549,102.216
133270,153329,9715,-0.201,0.989,0.235,0.854,0.915,0.427,102.22
133270,153302,12270,-0.201,0.991,0.234,0.854,0.915,0.427,102.226
133249,153329,9715,-0.202,1.001,0.226,0.61,0.854,0.244,102.23
133249,153295,12271,-0.196,1.006,0.223,0.61,0.854,0.244,102.236
133243,153329,9715,-0.197,0.996,0.22,-0.366,0.488,-0.244,102.24
133243,153271,12278,-0.199,0.98,0.221,-0.366,0.488,-0.244,102.246
133242,153329,9715,-0.202,0.975,0.221,-0.549,0.427,0.061,102.249
133242,153215,12256,-0.202,0.975,0.216,-0.549,0.427,0.061,102.256
133248,153329,9715,-0.195,0.982,0.216,-0.366,0.183,0.366,102.259
133248,153218,12266,-0.193,0.986,0.22,-0.366,0.183,0.366,102.266
133214,153329,9715,-0.194,0.989,0.221,0.183,0.061,0.305,102.269
133214,153172,12274,-0.198,0.993,0.223,0.183,0.061,0.305,102.275
133221,153329,9715,-0.2,0.985,0.224,-0.122,0,0.366,102.279
133221,153204,12267,-0.198,0.984,0.228,-0.122,0,0.366,102.285
133221,153329,9715,-0.196,0.982,0.235,-0.61,-0.305,0.427,102.289
133221,153222,12277,-0.195,0.98,0.241,-0.61,-0.305,0.427,102.295
133238,153329,9715,-0.2,0.983,0.241,-0.183,0.061,0.61,102.299
133238,153216,12266,-0.195,0.987,0.24,-0.183,0.061,0.61,102.305
133234,153329,9715,-0.196,0.984,0.244,-0.061,0.671,0.183,102.309
133234,153263,12283,-0.199,0.979,0.247,-0.061,0.671,0.183,102.315
133260,153329,9715,-0.202,0.978,0.244,0.122,0.854,0.244,102.319
133260,153257,12269,-0.195,0.98,0.233,0.122,0.854,0.244,102.325
133250,153329,9715,-0.192,0.985,0.231,0.244,0.793,0,102.329
133250,153267,12287,-0.193,0.983,0.226,0.244,0.793,0,102.335
133260,153329,9715,-0.197,0.979,0.225,0.122,0.793,-0.122,102.339
133260,153255,12275,-0.202,0.977,0.227,0.122,0.793,-0.122,102.345
133232,153329,9715,-0.204,0.982,0.217,-0.244,0.915,0.183,102.349
133232,153252,12274,-0.201,0.98,0.212,-0.244,0.915,0.183,102.355
133259,153329,9715,-0.195,0.982,0.221,-0.549,0.366,0.366,102.358
133259,153235,12266,-0.196,0.986,0.222,-0.549,0.366,0.366,102.365
133243,153329,9715,-0.198,0.988,0.225,0.305,0.427,0.671,102.368
133243,153265,12271,-0.201,0.994,0.229,0.305,0.427,0.671,102.374
133233,153329,9715,-0.199,0.999,0.226,1.037,0.671,0.305,102.378
133233,153259,12260,-0.197,1.003,0.223,1.037,0.671,0.305,102.384
133233,153329,9715,-0.196,0.999,0.228,0.183,0.244,0.122,102.388
133233,153223,12274,-0.201,0.993,0.236,0.183,0.244,0.122,102.394
133244,153329,9715,-0.203,0.987,0.236,-1.159,0.366,0.244,102.398
133244,153250,12279,-0.201,0.98,0.235,-1.159,0.366,0.244,102.404
133249,153329,9715,-0.196,0.984,0.23,-1.037,0.122,0.122,102.408
133249,153232,12262,-0.191,0.982,0.23,-1.037,0.122,0.122,102.414
133246,153329,9715,-0.191,0.98,0.233,-0.183,0.427,-0.305,102.418
133246,153259,12273,-0.198,0.981,0.23,-0.183,0.427,-0.305,102.424
133246,153329,9715,-0.198,0.98,0.229,0.61,1.28,-0.488,102.428
133246,153255,12272,-0.199,0.978,0.229,0.61,1.28,-0.488,102.434
133230,153329,9715,-0.197,0.98,0.231,0.427,0.915,-0.366,102.438
133230,153252,12275,-0.195,0.98,0.229,0.427,0.915,-0.366,102.444
133250,153329,9715,-0.195,0.982,0.229,-0.061,0.549,-0.061,102.448
133250,153253,12272,-0.196,0.981,0.228,-0.061,0.549,-0.061,102.454
133224,153329,9715,-0.198,0.985,0.226,-0.244,0.671,-0.061,102.457
133224,153264,12280,-0.198,0.987,0.225,-0.244,0.671,-0.061,102.464
133251,153329,9715,-0.198,0.986,0.229,-0.427,0.366,0,102.467
133251,153239,12273,-0.198,0.983,0.232,-0.427,0.366,0,102.474
133243,153329,9715,-0.202,0.979,0.234,-0.671,0.488,0.305,102.477
133243,153288,12284,-0.201,0.977,0.238,-0.671,0.488,0.305,102.483
133250,153329,9715,-0.205,0.976,0.232,-0.427,0.61,0.427,102.487
133250,153277,12266,-0.202,0.985,0.229,-0.427,0.61,0.427,102.493
133224,153329,9715,-0.196,0.989,0.235,0.244,0.671,0.244,102.497
133224,153239,12265,-0.2,0.989,0.233,0.244,0.671,0.244,102.503
133245,153329,9715,-0.204,0.988,0.228,0.61,0.793,0.183,102.507
133245,153248,12284,-0.203,0.985,0.225,0.61,0.793,0.183,102.513
133216,153329,9715,-0.2,0.988,0.216,-0.183,0.427,0.122,102.517
133216,153238,12287,-0.198,0.989,0.215,-0.183,0.427,0.122,102.523
133235,153329,9715,-0.193,0.986,0.22,-0.793,-0.061,0.305,102.527
133235,153234,12277,-0.194,0.986,0.218,-0.793,-0.061,0.305,102.533
133225,153329,9715,-0.194,0.984,0.22,-0.671,0.061,0.244,102.537
133225,153218,12277,-0.197,0.98,0.222,-0.671,0.061,0.244,102.543
133215,153329,9715,-0.197,0.982,0.224,0,0.305,0.305,102.547
133215,153228,12281,-0.198,0.986,0.225,0,0.305,0.305,102.553
133226,153329,9715,-0.197,0.992,0.228,0.488,0.305,0.183,102.556
133226,153216,12283,-0.2,0.992,0.232,0.488,0.305,0.183,102.563
133248,153329,9715,-0.2,0.994,0.233,0.244,0.305,0.244,102.566
133248,153258,12268,-0.2,0.988,0.231,0.244,0.305,0.244,102.572
133223,153329,9715,-0.202,0.976,0.234,-0.61,0.122,0.366,102.576
133223,153267,12270,-0.203,0.978,0.241,-0.61,0.122,0.366,102.582
133272,153329,9715,-0.202,0.977,0.245,-0.793,0.488,0.427,102.586
133272,153263,12266,-0.202,0.974,0.243,-0.793,0.488,0.427,102.592
