119234,134641,9715,-0.159,1.013,0.038,1.28,1.22,0.305,630.89
119234,134635,11177,-0.159,1.017,0.039,1.28,1.22,0.305,630.896
119269,134641,9715,-0.156,1.016,0.039,0.244,0.671,0.305,630.9
119269,134643,11187,-0.157,1.019,0.041,0.244,0.671,0.305,630.906
119298,134897,9715,-0.156,1.016,0.043,0.305,0.488,0.305,630.91
119298,134707,11185,-0.157,1.014,0.039,0.305,0.488,0.305,630.916
119347,134897,9715,-0.162,1.014,0.041,0.427,0.915,0.061,630.92
119347,134741,11169,-0.16,1.016,0.043,0.427,0.915,0.061,630.926
119410,134897,9715,-0.16,1.015,0.043,0.549,1.098,0.122,630.93
119410,134805,11185,-0.161,1.013,0.044,0.549,1.098,0.122,630.936
119461,134897,9715,-0.161,1.012,0.042,1.768,0.915,0.244,630.94
119461,134850,11198,-0.159,1.011,0.039,1.768,0.915,0.244,630.946
119510,134897,9715,-0.158,1.015,0.042,1.951,0.671,0.305,630.95
119510,134896,11181,-0.16,1.016,0.04,1.951,0.671,0.305,630.956
119511,134897,9715,-0.16,1.013,0.042,1.098,0.793,0.427,630.959
119511,134879,11193,-0.161,1.012,0.035,1.098,0.793,0.427,630.966
119437,134897,9715,-0.162,1.012,0.038,0.732,0.549,0.549,630.969
119437,134858,11171,-0.161,1.011,0.042,0.732,0.549,0.549,630.976
119482,134897,9715,-0.162,1.017,0.041,0.244,0.183,0.671,630.979
119482,134849,11197,-0.156,1.019,0.04,0.244,0.183,0.671,630.985
119464,134897,9715,-0.159,1.015,0.042,-0.183,0.244,0.732,630.989
119464,134842,11197,-0.16,1.014,0.038,-0.183,0.244,0.732,630.995
119463,134897,9715,-0.157,1.017,0.039,-0.183,0.122,0.671,630.999
119463,134826,11185,-0.156,1.017,0.04,-0.183,0.122,0.671,631.005
119423,134897,9715,-0.158,1.014,0.04,-0.488,-0.061,0.61,631.009
119423,134811,11176,-0.158,1.014,0.041,-0.488,-0.061,0.61,631.015
119407,134897,9715,-0.159,1.016,0.042,-0.793,0.244,0.549,631.019
119407,134810,11191,-0.159,1.015,0.042,-0.793,0.244,0.549,631.025
119401,134897,9715,-0.159,1.014,0.037,-0.122,0.244,0.488,631.029
119401,134803,11178,-0.161,1.016,0.038,-0.122,0.244,0.488,631.035
119380,134897,9715,-0.161,1.016,0.038,-0.122,0.244,0.488,631.039
119380,134782,11176,-0.163,1.017,0.037,0.061,0,0.305,631.045
119381,134897,9715,-0.163,1.017,0.037,0.061,0,0.305,631.049
119381,134748,11194,-0.16,1.016,0.043,-0.427,-0.305,0.366,631.055
119355,134897,9715,-0.16,1.016,0.043,-0.427,-0.305,0.366,631.058
119355,134753,11172,-0.162,1.012,0.042,-1.159,-0.244,0.671,631.065
119324,134897,9715,-0.162,1.012,0.042,-1.159,-0.244,0.671,631.068
119324,134692,11168,-0.157,1.012,0.046,-1.341,-0.305,0.549,631.075
119315,134897,9715,-0.157,1.012,0.046,-1.341,-0.305,0.549,631.078
119315,134682,11163,-0.158,1.009,0.044,-0.854,-0.183,0.549,631.084
119317,134897,9715,-0.158,1.009,0.044,-0.854,-0.183,0.549,631.088
119317,134707,11184,-0.156,1.011,0.044,-0.305,0.183,0.793,631.094
119329,134897,9715,-0.156,1.011,0.044,-0.305,0.183,0.793,631.098
119329,134704,11172,-0.158,1.014,0.044,0.122,0.244,0.671,631.104
119318,134897,9715,-0.158,1.014,0.044,0.122,0.244,0.671,631.108
119318,134701,11181,-0.161,1.014,0.041,0.183,0.549,0.427,631.114
119360,134897,9715,-0.161,1.014,0.041,0.183,0.549,0.427,631.118
119360,134742,11168,-0.155,1.018,0.041,0.488,0.549,0.488,631.124
119413,134897,9715,-0.155,1.018,0.041,0.488,0.549,0.488,631.128
119413,134787,11190,-0.158,1.012,0.039,0.732,0.305,0.549,631.134
119437,134897,9715,-0.158,1.012,0.039,0.732,0.305,0.549,631.138
119437,134824,11188,-0.158,1.018,0.04,0.488,0.488,0.61,631.144
119448,134897,9715,-0.158,1.018,0.04,0.488,0.488,0.61,631.148
119448,134824,11187,-0.16,1.015,0.041,0.427,0.61,0.549,631.154
119461,134897,9715,-0.16,1.015,0.041,0.427,0.61,0.549,631.157
119461,134852,11192,-0.157,1.006,0.041,0.671,0.549,0.305,631.164
119487,134897,9715,-0.157,1.006,0.041,0.671,0.549,0.305,631.167
119487,134865,11173,-0.155,1.01,0.04,0.854,0.732,0.488,631.174
119485,134897,9715,-0.155,1.01,0.04,0.854,0.732,0.488,631.177
119485,134863,11197,-0.155,1.013,0.044,1.159,0.732,0.366,631.183
119479,134897,9715,-0.157,1.016,0.042,1.159,0.732,0.366,631.187
119479,134852,11198,-0.156,1.02,0.041,1.22,0.915,0.244,631.193
119486,134897,9715,-0.157,1.02,0.038,1.22,0.915,0.244,631.197
119486,134864,11198,-0.161,1.02,0.037,0.915,1.28,0.244,631.203
119519,134897,9715,-0.161,1.018,0.035,0.915,1.28,0.244,631.207
119519,134891,11191,-0.162,1.013,0.039,0.854,1.28,0.427,631.213
119530,135153,9715,-0.16,1.012,0.039,0.854,1.28,0.427,631.217
119530,134932,11205,-0.156,1.007,0.042,0.732,1.037,0.427,631.223
119548,135153,9715,-0.157,1.01,0.041,0.732,1.037,0.427,631.227
119548,134936,11192,-0.162,1.016,0.039,0.671,1.28,0.549,631.233
119542,135153,9715,-0.158,1.014,0.036,0.671,1.28,0.549,631.237
119542,134931,11197,-0.16,1.013,0.033,1.402,1.22,0.427,631.243
119538,134897,9715,-0.16,1.014,0.037,1.402,1.22,0.427,631.247
119538,134892,11195,-0.157,1.015,0.036,1.585,1.098,0.305,631.253
119509,134897,9715,-0.155,1.018,0.038,1.585,1.098,0.305,631.256
119509,134881,11188,-0.156,1.014,0.034,1.159,0.976,0.366,631.263
119483,134897,9715,-0.159,1.015,0.036,1.159,0.976,0.366,631.266
119483,134841,11205,-0.156,1.014,0.04,0.671,1.098,0.122,631.273
119435,134897,9715,-0.154,1.013,0.038,0.671,1.098,0.122,631.276
119435,134827,11196,-0.153,1.011,0.042,0.488,1.402,-0.183,631.282
119397,134897,9715,-0.156,1.012,0.044,0.488,1.402,-0.183,631.286
119397,134778,11174,-0.157,1.009,0.039,0.976,1.585,-0.427,631.292
119407,134897,9715,-0.162,1.01,0.037,0.976,1.585,-0.427,631.296
119407,134796,11199,-0.159,1.009,0.042,1.951,1.524,-0.732,631.302
119410,134897,9715,-0.159,1.018,0.037,1.951,1.524,-0.732,631.306
119410,134760,11179,-0.161,1.022,0.036,1.707,1.646,-0.488,631.312
119374,134897,9715,-0.163,1.017,0.034,1.707,1.646,-0.488,631.316
119374,134744,11189,-0.164,1.008,0.03,1.585,1.646,-0.183,631.322
119327,134897,9715,-0.163,1.007,0.03,1.585,1.646,-0.183,631.326
119327,134684,11176,-0.164,1.009,0.028,1.463,0.732,0.244,631.332
119299,134897,9715,-0.161,1.013,0.031,1.463,0.732,0.244,631.336
119299,134689,11186,-0.16,1.018,0.036,0.122,0.183,0.732,631.342
119292,134641,9715,-0.16,1.015,0.036,0.122,0.183,0.732,631.346
119292,134632,11183,-0.161,1.013,0.034,-0.305,-0.061,0.915,631.352
119231,134641,9715,-0.161,1.014,0.035,-0.305,-0.061,0.915,631.355
119231,134612,11178,-0.16,1.017,0.038,-0.244,-0.061,0.976,631.362
119223,134641,9715,-0.158,1.014,0.04,-0.244,-0.061,0.976,631.365
119223,134573,11178,-0.156,1.01,0.039,-0.061,0.183,0.732,631.372
119209,134641,9715,-0.16,1.012,0.04,-0.061,0.183,0.732,631.375
119209,134579,11166,-0.158,1.017,0.039,0.061,0.244,0.61,631.381
119196,134641,9715,-0.156,1.016,0.038,0.061,0.244,0.61,631.385
119196,134572,11172,-0.158,1.016,0.04,0.061,0.122,0.427,631.391
119176,134641,9715,-0.157,1.014,0.04,0.061,0.122,0.427,631.395
119176,134552,11178,-0.157,1.013,0.038,0.366,0.244,0.488,631.401
119151,134641,9715,-0.156,1.012,0.043,0.366,0.244,0.488,631.405
119151,134565,11173,-0.154,1.011,0.042,0.244,0.366,0.671,631.411
119162,134641,9715,-0.157,1.012,0.038,0.244,0.366,0.671,631.415
119162,134520,11188,-0.16,1.009,0.037,0.366,0.488,0.549,631.421
119149,134641,9715,-0.161,1.006,0.036,0.366,0.488,0.549,631.425
119149,134552,11176,-0.156,1.011,0.036,0.549,0.183,0.671,631.431
119156,134641,9715,-0.157,1.016,0.033,0.549,0.183,0.671,631.435
119156,134525,11168,-0.159,1.018,0.033,-0.122,-0.183,0.915,631.441
119166,134641,9715,-0.155,1.02,0.037,-0.122,-0.183,0.915,631.445
119166,134562,11171,-0.156,1.021,0.034,-0.61,0.061,0.915,631.451
119236,134641,9715,-0.158,1.013,0.039,-0.61,0.061,0.915,631.454
119236,134613,11186,-0.158,1.013,0.039,-0.427,0.427,0.854,631.461
119236,134641,9715,-0.16,1.012,0.035,-0.427,0.427,0.854,631.464
119236,134649,11174,-0.157,1.016,0.037,0.061,0.427,0.671,631.471
119297,134897,9715,-0.157,1.017,0.04,0.061,0.427,0.671,631.474
119297,134661,11189,-0.157,1.019,0.041,1.037,0.366,0.366,631.48
119324,134897,9715,-0.157,1.02,0.04,1.037,0.366,0.366,631.484
119324,134682,11184,-0.156,1.019,0.04,1.524,0.915,0.122,631.49
119365,134897,9715,-0.158,1.017,0.036,1.524,0.915,0.122,631.494
119365,134707,11181,-0.159,1.011,0.034,1.707,1.28,-0.061,631.5
119373,134897,9715,-0.159,1.009,0.031,1.707,1.28,-0.061,631.504
119373,134754,11198,-0.159,1.008,0.031,1.463,0.976,0,631.51
119416,134897,9715,-0.158,1.014,0.033,1.463,0.976,0,631.514
119416,134766,11191,-0.158,1.01,0.035,0.671,0.793,0.244,631.52
119431,134897,9715,-0.157,1.01,0.036,0.671,0.793,0.244,631.524
119431,134786,11194,-0.159,1.012,0.04,0.366,0.976,0.427,631.53
119436,134897,9715,-0.157,1.01,0.039,0.366,0.976,0.427,631.534
119436,134798,11193,-0.156,1.015,0.038,0.732,1.037,0.183,631.54
119431,134897,9715,-0.158,1.017,0.032,0.732,1.037,0.183,631.544
119431,134774,11189,-0.16,1.02,0.036,1.098,1.159,0.061,631.55
119414,134897,9715,-0.16,1.02,0.033,1.098,1.159,0.061,631.553
119414,134782,11187,-0.16,1.018,0.032,1.341,1.28,0,631.56
119454,134897,9715,-0.16,1.015,0.035,1.341,1.28,0,631.563
119454,134813,11186,-0.16,1.016,0.034,1.463,1.037,-0.061,631.569
119464,134897,9715,-0.157,1.017,0.031,1.463,1.037,-0.061,631.573
119464,134861,11189,-0.161,1.016,0.03,0.976,0.793,0,631.579
119504,134897,9715,-0.163,1.014,0.031,0.976,0.793,0,631.583
119504,134872,11188,-0.163,1.013,0.031,0.366,0.549,0.122,631.589
119561,135153,9715,-0.163,1.01,0.03,0.366,0.549,0.122,631.593
119561,134929,11206,-0.162,1.01,0.032,-0.366,0,0.488,631.599
119567,135153,9715,-0.161,1.012,0.034,-0.366,0,0.488,631.603
119567,134939,11204,-0.164,1.013,0.034,-1.159,0,0.671,631.609
119548,134897,9715,-0.161,1.013,0.032,-1.159,0,0.671,631.613
119548,134910,11195,-0.157,1.014,0.035,-0.854,-0.122,0.732,631.619
119540,134897,9715,-0.157,1.014,0.035,-0.854,-0.122,0.732,631.623
119540,134901,11199,-0.157,1.016,0.038,-0.549,-0.122,0.732,631.629
119505,134897,9715,-0.157,1.016,0.038,-0.549,-0.122,0.732,631.633
119505,134837,11201,-0.158,1.011,0.033,0.244,0.305,0.61,631.639
119481,134897,9715,-0.158,1.011,0.033,0.244,0.305,0.61,631.643
119481,134851,11196,-0.159,1.019,0.034,0.549,0.183,0.488,631.649
119459,134897,9715,-0.159,1.019,0.034,0.549,0.183,0.488,631.652
119459,134840,11197,-0.157,1.02,0.034,-0.244,0.122,0.427,631.659
119471,134897,9715,-0.157,1.02,0.034,-0.244,0.122,0.427,631.662
119471,134814,11188,-0.16,1.009,0.033,-0.244,0.061,0.427,631.669
119425,134897,9715,-0.16,1.009,0.033,-0.244,0.061,0.427,631.672
119425,134835,11186,-0.154,1.013,0.035,-1.098,-0.183,0.549,631.678
119431,134897,9715,-0.154,1.013,0.035,-1.098,-0.183,0.549,631.682
119431,134772,11184,-0.155,1.013,0.033,-1.707,-0.244,0.427,631.688
119447,134897,9715,-0.155,1.013,0.033,-1.707,-0.244,0.427,631.692
119447,134801,11181,-0.159,1.013,0.036,-1.402,0.061,0.427,631.698
119423,134897,9715,-0.159,1.013,0.036,-1.402,0.061,0.427,631.702
119423,134791,11183,-0.159,1.01,0.036,-1.159,0.183,0.549,631.708
119398,134897,9715,-0.159,1.01,0.036,-1.159,0.183,0.549,631.712
119398,134766,11199,-0.159,1.012,0.035,-1.098,0.061,0.488,631.718
119388,134897,9715,-0.159,1.012,0.035,-1.098,0.061,0.488,631.722
119388,134727,11184,-0.16,1.016,0.032,-1.098,-0.061,0.671,631.728
119380,134897,9715,-0.16,1.016,0.032,-1.098,-0.061,0.671,631.732
119380,134721,11175,-0.16,1.019,0.032,-0.793,-0.549,0.854,631.738
119375,134897,9715,-0.16,1.019,0.032,-0.793,-0.549,0.854,631.742
119375,134715,11184,-0.157,1.016,0.038,-1.341,-0.793,0.732,631.748
119371,134897,9715,-0.157,1.016,0.038,-1.341,-0.793,0.732,631.751
119371,134675,11183,-0.159,1.02,0.035,-2.195,-0.488,0.549,631.758
119366,134897,9715,-0.159,1.02,0.035,-2.195,-0.488,0.549,631.761
119366,134700,11191,-0.16,1.015,0.033,-2.195,-0.488,0.549,631.768
119383,134897,9715,-0.159,1.011,0.036,-2.073,-0.305,0.427,631.771
119383,134701,11192,-0.159,1.01,0.039,-2.073,-0.305,0.427,631.777
119424,134897,9715,-0.158,1.007,0.036,-1.768,-0.427,0.427,631.781
119424,134772,11190,-0.157,1.009,0.037,-1.768,-0.427,0.427,631.787
119438,134897,9715,-0.159,1.012,0.036,-2.073,-0.61,0.366,631.791
119438,134762,11199,-0.16,1.013,0.041,-2.073,-0.61,0.366,631.797
119433,134897,9715,-0.157,1.012,0.042,-2.073,-0.305,0.488,631.801
119433,134770,11180,-0.156,1.013,0.04,-2.073,-0.305,0.488,631.807
119461,134897,9715,-0.156,1.011,0.044,-1.463,0.122,0.671,631.811
119461,134805,11177,-0.156,1.013,0.041,-1.463,0.122,0.671,631.817
119473,134897,9715,-0.155,1.012,0.038,-0.793,0.61,0.61,631.821
119473,134826,11187,-0.154,1.012,0.04,-0.793,0.61,0.61,631.827
119502,134897,9715,-0.157,1.015,0.042,0.061,0.915,0.671,631.831
119502,134843,11205,-0.156,1.019,0.042,0.061,0.915,0.671,631.837
119528,134897,9715,-0.155,1.023,0.037,0.732,0.976,0.427,631.841
119528,134880,11192,-0.155,1.02,0.037,0.732,0.976,0.427,631.847
119557,134897,9715,-0.159,1.013,0.039,1.402,1.28,0,631.85
119557,134878,11198,-0.159,1.014,0.037,1.402,1.28,0,631.857
119537,134897,9715,-0.157,1.015,0.037,1.524,1.341,-0.061,631.86
119537,134875,11197,-0.161,1.016,0.032,1.524,1.341,-0.061,631.867
119527,134897,9715,-0.164,1.013,0.031,1.098,1.22,0,631.87
119527,134834,11192,-0.161,1.009,0.037,1.098,1.22,0,631.876
119478,134897,9715,-0.158,1.01,0.036,0.793,0.976,0.183,631.88
119478,134835,11202,-0.158,1.011,0.036,0.793,0.976,0.183,631.886
119472,134897,9715,-0.156,1.013,0.036,-0.122,0.854,0.488,631.89
119472,134813,11206,-0.156,1.01,0.034,-0.122,0.854,0.488,631.896
119459,134897,9715,-0.158,1.007,0.035,-0.244,0.854,0.488,631.9
119459,134787,11188,-0.156,1.004,0.036,-0.244,0.854,0.488,631.906
119430,134897,9715,-0.159,1.008,0.042,-0.427,0.915,0.549,631.91
119430,134777,11185,-0.157,1.014,0.037,-0.427,0.915,0.549,631.916
119430,134897,9715,-0.161,1.019,0.034,-0.122,1.037,0.549,631.92
119430,134747,11188,-0.162,1.021,0.038,-0.122,1.037,0.549,631.926
119436,134897,9715,-0.16,1.019,0.035,0.427,0.793,0.366,631.93
119436,134766,11212,-0.158,1.025,0.035,0.427,0.793,0.366,631.936
119419,134897,9715,-0.157,1.022,0.034,-0.305,0.427,0.244,631.94
119419,134748,11186,-0.161,1.018,0.033,-0.305,0.427,0.244,631.946
119390,134897,9715,-0.161,1.013,0.03,-0.793,0.305,0.488,631.949
119390,134736,11191,-0.159,1.011,0.037,-0.793,0.305,0.488,631.956
119388,134897,9715,-0.157,1.014,0.038,-0.793,-0.061,0.549,631.959
119388,134684,11176,-0.157,1.016,0.037,-0.793,-0.061,0.549,631.966
119354,134897,9715,-0.157,1.015,0.035,-0.976,-0.366,0.305,631.969
119354,134685,11183,-0.157,1.016,0.037,-0.976,-0.366,0.305,631.975
119370,134897,9715,-0.157,1.014,0.038,-1.28,-0.549,0.366,631.979
119370,134688,11187,-0.157,1.014,0.039,-1.28,-0.549,0.366,631.985
119364,134897,9715,-0.157,1.013,0.038,-1.829,-0.366,0.549,631.989
119364,134697,11207,-0.158,1.009,0.033,-1.829,-0.366,0.549,631.995
119386,134897,9715,-0.158,1.011,0.037,-1.951,-0.305,0.549,631.999
119386,134736,11192,-0.162,1.009,0.037,-1.951,-0.305,0.549,632.005
119386,134897,9715,-0.159,1.006,0.039,-2.134,-0.488,0.793,632.009
119386,134701,11193,-0.161,1.011,0.039,-2.134,-0.488,0.793,632.015
119363,134897,9715,-0.157,1.011,0.039,-2.134,-0.854,1.098,632.019
119363,134681,11186,-0.155,1.014,0.042,-2.134,-0.854,1.098,632.025
119334,134897,9715,-0.154,1.016,0.039,-2.012,-0.854,0.976,632.029
119334,134666,11202,-0.155,1.018,0.044,-2.012,-0.854,0.976,632.035
119292,134641,9715,-0.158,1.018,0.042,-1.89,-0.183,1.037,632.039
119292,134616,11191,-0.158,1.017,0.04,-1.89,-0.183,1.037,632.045
119262,134641,9715,-0.158,1.012,0.045,-0.61,0.183,0.976,632.048
119262,134561,11179,-0.156,1.008,0.043,-0.61,0.183,0.976,632.055
119228,134641,9715,-0.157,1.007,0.039,0.61,0.061,0.854,632.058
119228,134532,11183,-0.156,1.015,0.036,0.61,0.061,0.854,632.065
119218,134641,9715,-0.157,1.024,0.037,0.427,0.244,0.793,632.068
119218,134518,11179,-0.154,1.021,0.038,0.427,0.244,0.793,632.074
119213,134641,9715,-0.151,1.018,0.039,0.366,0.061,0.549,632.078
119213,134530,11173,-0.153,1.013,0.042,0.366,0.061,0.549,632.084
119226,134641,9715,-0.154,1.014,0.042,-0.61,-0.061,0.366,632.088
119226,134556,11186,-0.16,1.018,0.037,-0.61,-0.061,0.366,632.094
119281,134641,9715,-0.161,1.017,0.035,-1.768,0.366,0.183,632.098
119281,134608,11190,-0.163,1.012,0.037,-1.768,0.366,0.183,632.104
119352,134897,9715,-0.162,1.01,0.038,-1.646,-0.305,0.305,632.108
119352,134657,11181,-0.159,1.012,0.037,-1.646,-0.305,0.305,632.114
119387,134897,9715,-0.158,1.01,0.04,-2.317,-0.976,0.671,632.118
119387,134706,11203,-0.16,1.011,0.044,-2.317,-0.976,0.671,632.124
119411,134897,9715,-0.158,1.01,0.045,-2.866,-0.732,1.037,632.128
119411,134731,11195,-0.156,1.006,0.045,-2.866,-0.732,1.037,632.134
119472,134897,9715,-0.155,1.012,0.045,-2.317,-0.366,1.098,632.138
119472,134761,11219,-0.156,1.012,0.05,-2.317,-0.366,1.098,632.144
119494,134897,9715,-0.157,1.013,0.048,-1.463,0.183,0.793,632.147
119494,134767,11212,-0.157,1.015,0.04,-1.463,0.183,0.793,632.154
119476,134897,9715,-0.155,1.018,0.042,-0.122,0.061,0.671,632.157
119476,134795,11209,-0.155,1.018,0.042,-0.122,0.061,0.671,632.164
119471,134897,9715,-0.151,1.019,0.042,-0.244,-0.122,0.366,632.167
119471,134773,11204,-0.152,1.024,0.042,-0.244,-0.122,0.366,632.173
119471,134897,9715,-0.155,1.02,0.043,-0.915,0.488,-0.061,632.177
119471,134778,11202,-0.158,1.013,0.041,-0.915,0.488,-0.061,632.183
119490,134897,9715,-0.158,1.009,0.044,-0.305,0.732,0,632.187
119490,134796,11204,-0.159,1.008,0.044,-0.305,0.732,0,632.193
119514,134897,9715,-0.155,1.01,0.043,0.183,0.427,0.122,632.197
119514,134830,11196,-0.156,1.012,0.042,0.183,0.427,0.122,632.203
119540,134897,9715,-0.159,1.014,0.045,0.305,0.366,0,632.207
119540,134849,11199,-0.157,1.012,0.04,0.305,0.366,0,632.213
119548,134897,9715,-0.157,1.012,0.04,0.305,0.366,0,632.217
119548,134864,11217,-0.158,1.01,0.043,0.244,0.427,0.183,632.223
119537,134897,9715,-0.158,1.01,0.043,0.244,0.427,0.183,632.227
119537,134857,11212,-0.159,1.012,0.041,-0.305,0.793,0.427,632.233
119528,134897,9715,-0.159,1.012,0.041,-0.305,0.793,0.427,632.237
119528,134813,11205,-0.158,1.014,0.037,-0.488,0.732,0.244,632.243
119543,134897,9715,-0.158,1.014,0.037,-0.488,0.732,0.244,632.246
119543,134817,11198,-0.158,1.016,0.04,-0.488,0.305,0.366,632.253
119457,134897,9715,-0.158,1.016,0.04,-0.488,0.305,0.366,632.256
119457,134771,11192,-0.16,1.016,0.04,-0.915,0,0.549,632.263
119414,134897,9715,-0.16,1.016,0.04,-0.915,0,0.549,632.266
119414,134732,11198,-0.156,1.014,0.046,-1.646,-0.061,0.732,632.272
119409,134897,9715,-0.156,1.014,0.046,-1.646,-0.061,0.732,632.276
119409,134706,11198,-0.158,1.011,0.042,-1.28,0,0.671,632.282
119385,134897,9715,-0.158,1.011,0.042,-1.28,0,0.671,632.286
119385,134679,11188,-0.159,1.016,0.037,-0.61,-0.122,0.305,632.292
119362,134641,9715,-0.159,1.016,0.037,-0.61,-0.122,0.305,632.296
119362,134651,11178,-0.155,1.018,0.042,-0.915,-0.549,0.183,632.302
119326,134641,9715,-0.155,1.018,0.042,-0.915,-0.549,0.183,632.306
119326,134621,11191,-0.155,1.012,0.045,-1.585,-0.61,0.366,632.312
119365,134641,9715,-0.155,1.012,0.045,-1.585,-0.61,0.366,632.316
119365,134641,11181,-0.157,1.007,0.048,-2.073,-0.366,0.488,632.322
119382,134897,9715,-0.157,1.007,0.048,-2.073,-0.366,0.488,632.326
119382,134684,11204,-0.158,1.006,0.05,-1.707,-0.183,0.549,632.332
119430,134897,9715,-0.158,1.006,0.05,-1.707,-0.183,0.549,632.336
119430,134719,11198,-0.156,1.011,0.044,-1.098,-0.122,0.61,632.342
119481,134897,9715,-0.156,1.011,0.044,-1.098,-0.122,0.61,632.345
119481,134797,11207,-0.157,1.018,0.044,-0.488,-0.061,0.732,632.352
119479,134897,9715,-0.157,1.018,0.044,-0.488,-0.061,0.732,632.355
119479,134778,11183,-0.155,1.022,0.043,-0.122,0.244,0.671,632.362
119476,134897,9715,-0.157,1.023,0.041,-0.122,0.244,0.671,632.365
119476,134759,11213,-0.154,1.02,0.042,-0.122,0.122,0.549,632.371
119467,134897,9715,-0.155,1.019,0.04,-0.122,0.122,0.549,632.375
119467,134743,11191,-0.156,1.019,0.041,-0.549,-0.122,0.244,632.381
119389,134641,9715,-0.16,1.019,0.041,-0.549,-0.122,0.244,632.385
119389,134655,11184,-0.155,1.012,0.044,-1.341,-0.061,0.183,632.391
119304,134641,9715,-0.156,1.009,0.043,-1.341,-0.061,0.183,632.395
119304,134548,11161,-0.163,1.012,0.041,-1.524,-0.305,0.183,632.401
119214,134641,9715,-0.159,1.012,0.046,-1.524,-0.305,0.183,632.405
119214,134446,11166,-0.155,1.015,0.045,-1.585,-0.61,0.366,632.411
119173,134641,9715,-0.155,1.014,0.049,-1.585,-0.61,0.366,632.415
119173,134405,11164,-0.155,1.01,0.049,-0.915,-0.305,0.488,632.421
119159,134641,9715,-0.154,1.01,0.048,-0.915,-0.305,0.488,632.425
119159,134407,11162,-0.156,1.008,0.047,-0.122,0.305,0.366,632.431
119167,134641,9715,-0.156,1.008,0.048,-0.122,0.305,0.366,632.435
119167,134410,11164,-0.156,1.01,0.05,0.122,0.793,0.183,632.441
119156,134641,9715,-0.158,1.015,0.047,0.122,0.793,0.183,632.444
119156,134404,11166,-0.155,1.02,0.043,0.305,1.098,0.366,632.451
119184,134641,9715,-0.155,1.02,0.046,0.305,1.098,0.366,632.454
119184,134434,11183,-0.156,1.021,0.042,0.671,0.854,0.061,632.461
119238,134641,9715,-0.156,1.016,0.047,0.671,0.854,0.061,632.464
119238,134471,11183,-0.156,1.015,0.048,0.488,0.915,-0.061,632.47
119264,134641,9715,-0.156,1.017,0.047,0.488,0.915,-0.061,632.474
119264,134510,11159,-0.156,1.013,0.044,0.671,1.341,0.061,632.48
119278,134641,9715,-0.158,1.011,0.043,0.671,1.341,0.061,632.484
119278,134524,11179,-0.161,1.012,0.041,1.707,1.402,-0.061,632.49
119260,134641,9715,-0.158,1.016,0.044,1.707,1.402,-0.061,632.494
119260,134509,11165,-0.157,1.019,0.046,1.524,1.159,-0.122,632.5
119302,134641,9715,-0.157,1.022,0.041,1.524,1.159,-0.122,632.504
119302,134533,11183,-0.158,1.017,0.035,0.854,1.341,-0.183,632.51
119316,134641,9715,-0.158,1.009,0.045,0.854,1.341,-0.183,632.514
119316,134562,11189,-0.157,1.005,0.048,0.488,1.585,0.061,632.52
119326,134641,9715,-0.158,1.006,0.044,0.488,1.585,0.061,632.524
119326,134538,11185,-0.161,1.012,0.041,0.61,1.28,0.061,632.53
119290,134641,9715,-0.156,1.019,0.041,0.61,1.28,0.061,632.534
119290,134537,11188,-0.159,1.021,0.04,0.732,0.976,-0.244,632.54
119319,134641,9715,-0.161,1.019,0.041,0.732,0.976,-0.244,632.543
119319,134563,11182,-0.161,1.016,0.043,0.732,1.098,-0.305,632.55
119332,134641,9715,-0.16,1.014,0.044,0.732,1.098,-0.305,632.553
119332,134554,11185,-0.159,1.014,0.039,0.488,0.671,0.061,632.56
119323,134641,9715,-0.156,1.018,0.041,0.488,0.671,0.061,632.563
119323,134564,11198,-0.158,1.019,0.045,-0.427,0.366,-0.061,632.569
119304,134641,9715,-0.157,1.014,0.039,-0.427,0.366,-0.061,632.573
119304,134527,11182,-0.159,1.011,0.038,-0.793,0.488,-0.183,632.579
119259,134641,9715,-0.158,1.008,0.041,-0.793,0.488,-0.183,632.583
119259,134512,11187,-0.156,1.008,0.045,-0.854,0.427,0.061,632.589
119248,134641,9715,-0.157,1.011,0.045,-0.854,0.427,0.061,632.593
119248,134466,11176,-0.154,1.01,0.044,-0.976,0.183,0.061,632.599
119218,134641,9715,-0.16,1.015,0.043,-0.976,0.183,0.061,632.603
119218,134460,11181,-0.162,1.013,0.045,-0.366,0.366,0.122,632.609
119207,134641,9715,-0.159,1.016,0.047,-0.366,0.366,0.122,632.613
119207,134447,11189,-0.16,1.016,0.042,0.183,0.244,0.366,632.619
119176,134641,9715,-0.16,1.016,0.042,0.183,0.244,0.366,632.623
119176,134435,11174,-0.158,1.013,0.042,-0.244,0.305,0.61,632.629
119188,134641,9715,-0.16,1.013,0.042,-0.244,0.305,0.61,632.633
119188,134423,11173,-0.161,1.012,0.046,-0.244,0.366,0.732,632.639
119188,134641,9715,-0.157,1.017,0.045,-0.244,0.366,0.732,632.642
119188,134440,11187,-0.155,1.019,0.04,-0.366,0.061,0.854,632.649
119183,134641,9715,-0.157,1.015,0.042,-0.366,0.061,0.854,632.652
119183,134428,11183,-0.156,1.011,0.046,-0.244,0,0.793,632.659
119167,134641,9715,-0.157,1.01,0.042,-0.244,0,0.793,632.662
119167,134412,11180,-0.156,1.013,0.046,-0.305,0.366,0.793,632.668
119126,134385,9715,-0.156,1.017,0.045,-0.305,0.366,0.793,632.672
119126,134377,11171,-0.154,1.015,0.043,0.427,0.244,0.671,632.678
119090,134385,9715,-0.151,1.015,0.044,0.427,0.244,0.671,632.682
119090,134335,11169,-0.151,1.014,0.044,0.671,0.183,0.183,632.688
119080,134385,9715,-0.154,1.015,0.044,0.671,0.183,0.183,632.692
119080,134329,11179,-0.156,1.015,0.045,0.122,0.854,-0.122,632.698
119080,134385,9715,-0.159,1.01,0.046,0.122,0.854,-0.122,632.702
119080,134335,11159,-0.159,1.007,0.045,0.305,1.098,-0.061,632.708
119109,134385,9715,-0.157,1.013,0.045,0.305,1.098,-0.061,632.712
119109,134357,11177,-0.156,1.017,0.045,0.61,0.854,0,632.718
119187,134641,9715,-0.159,1.016,0.047,0.61,0.854,0,632.722
119187,134427,11175,-0.159,1.016,0.043,1.159,0.732,-0.122,632.728
119210,134641,9715,-0.157,1.017,0.045,1.159,0.732,-0.122,632.732
119210,134437,11187,-0.159,1.016,0.039,1.037,1.037,-0.061,632.738
119235,134641,9715,-0.162,1.016,0.04,1.037,1.037,-0.061,632.741
119235,134450,11179,-0.159,1.008,0.042,0.671,0.976,0.183,632.748
119244,134641,9715,-0.155,1.009,0.039,0.671,0.976,0.183,632.751
119244,134488,11186,-0.157,1.014,0.04,-0.122,0.61,0.244,632.758
119283,134641,9715,-0.158,1.012,0.045,-0.122,0.61,0.244,632.761
119283,134533,11198,-0.155,1.015,0.046,-0.488,0.793,0.305,632.767
119309,134641,9715,-0.157,1.012,0.045,-0.488,0.793,0.305,632.771
119309,134553,11186,-0.157,1.014,0.044,0.732,0.915,0.061,632.777
119322,134641,9715,-0.16,1.016,0.041,0.732,0.915,0.061,632.781
119322,134544,11197,-0.16,1.017,0.039,0.976,0.793,-0.244,632.787
119370,134641,9715,-0.16,1.02,0.039,0.976,0.793,-0.244,632.791
119370,134586,11196,-0.161,1.019,0.041,0.732,0.732,-0.183,632.797
119385,134641,9715,-0.161,1.019,0.041,0.732,0.732,-0.183,632.801
119385,134634,11187,-0.157,1.012,0.037,0.549,0.61,0.122,632.807
119417,134897,9715,-0.157,1.012,0.037,0.549,0.61,0.122,632.811
119417,134680,11196,-0.16,1.01,0.039,0,0.671,0.183,632.817
119444,134897,9715,-0.16,1.01,0.039,0,0.671,0.183,632.821
119444,134691,11217,-0.158,1.008,0.041,-0.061,0.732,0.183,632.827
119439,134897,9715,-0.158,1.008,0.041,-0.061,0.732,0.183,632.831
119439,134688,11203,-0.159,1.016,0.037,0.244,0.549,0.305,632.837
119467,134897,9715,-0.159,1.016,0.037,0.244,0.549,0.305,632.84
119467,134731,11198,-0.16,1.013,0.04,0.122,0.427,0.244,632.847
119476,134897,9715,-0.16,1.013,0.04,0.122,0.427,0.244,632.85
119476,134720,11207,-0.16,1.01,0.047,0,0.61,0.488,632.857
119468,134897,9715,-0.16,1.01,0.047,0,0.61,0.488,632.86
119468,134717,11207,-0.16,1.014,0.038,0.305,0.549,0.671,632.866
119506,134897,9715,-0.16,1.014,0.038,0.305,0.549,0.671,632.87
119506,134731,11191,-0.158,1.016,0.037,0,-0.061,0.366,632.876
119539,134897,9715,-0.158,1.016,0.037,0,-0.061,0.366,632.88
119539,134793,11219,-0.158,1.021,0.038,-1.28,-0.366,0.366,632.886
119536,134897,9715,-0.158,1.021,0.038,-1.28,-0.366,0.366,632.89
119536,134781,11203,-0.16,1.017,0.039,-1.585,-0.061,0.549,632.896
119553,134897,9715,-0.16,1.017,0.039,-1.585,-0.061,0.549,632.9
119553,134789,11231,-0.156,1.005,0.045,-1.341,-0.061,0.366,632.906
119582,134897,9715,-0.156,1.005,0.045,-1.341,-0.061,0.366,632.91
119582,134824,11227,-0.158,1.009,0.047,-1.098,-0.061,0.305,632.916
119586,134897,9715,-0.158,1.009,0.047,-1.098,-0.061,0.305,632.92
119586,134827,11209,-0.159,1.019,0.038,-0.427,-0.061,0.366,632.926
119573,134897,9715,-0.159,1.019,0.038,-0.427,-0.061,0.366,632.93
119573,134806,11209,-0.158,1.015,0.044,-0.61,-0.305,0.122,632.936
119556,134897,9715,-0.158,1.015,0.044,-0.61,-0.305,0.122,632.939
119556,134782,11220,-0.159,1.01,0.041,-1.341,-0.061,0.488,632.946
119561,134897,9715,-0.159,1.01,0.041,-1.341,-0.061,0.488,632.949
119561,134831,11218,-0.161,1.014,0.042,-1.341,-0.061,0.488,632.956
119562,134897,9715,-0.158,1.015,0.045,-2.012,0,0.549,632.959
119562,134811,11218,-0.155,1.014,0.045,-2.012,0,0.549,632.965
119570,134897,9715,-0.159,1.01,0.046,-1.28,-0.183,0.305,632.969
119570,134810,11211,-0.156,1.006,0.047,-1.28,-0.183,0.305,632.975
119600,134897,9715,-0.157,1.005,0.048,-0.183,0.122,0.488,632.979
119600,134836,11223,-0.158,1.007,0.044,-0.183,0.122,0.488,632.985
119624,134897,9715,-0.158,1.01,0.042,0.488,0.366,0.549,632.989
119624,134833,11217,-0.158,1.016,0.041,0.488,0.366,0.549,632.995
119634,134897,9715,-0.158,1.019,0.039,0.793,0,0.244,632.999
119634,134851,11226,-0.157,1.018,0.039,0.793,0,0.244,633.005
119649,134897,9715,-0.158,1.018,0.042,-0.061,0.061,0.305,633.009
119649,134873,11239,-0.158,1.013,0.041,-0.061,0.061,0.305,633.015
119667,134897,9715,-0.157,1.012,0.044,-0.854,0.305,0.549,633.019
119667,134895,11231,-0.155,1.009,0.046,-0.854,0.305,0.549,633.025
119659,134897,9715,-0.157,1.009,0.049,-1.402,0.122,0.366,633.029
119659,134907,11242,-0.158,1.013,0.048,-1.402,0.122,0.366,633.035
119682,134897,9715,-0.16,1.01,0.048,-1.037,0.183,0.305,633.038
119682,134907,11236,-0.161,1.011,0.047,-1.037,0.183,0.305,633.045
119722,135153,9715,-0.158,1.016,0.041,0.122,0.305,0.305,633.048
119722,134922,11232,-0.156,1.014,0.044,0.122,0.305,0.305,633.055
119717,135153,9715,-0.156,1.014,0.044,0.671,0.427,0.183,633.058
119717,134928,11241,-0.159,1.015,0.044,0.671,0.427,0.183,633.064
119711,135153,9715,-0.157,1.017,0.039,0.488,0.732,0.061,633.068
119711,134959,11234,-0.156,1.018,0.043,0.488,0.732,0.061,633.074
119734,135153,9715,-0.157,1.014,0.042,0.061,0.793,0.183,633.078
119734,134944,11241,-0.16,1.011,0.041,0.061,0.793,0.183,633.084
119745,135153,9715,-0.159,1.011,0.046,-0.183,0.732,0.366,633.088
119745,134960,11241,-0.158,1.009,0.042,-0.183,0.732,0.366,633.094
119753,135153,9715,-0.158,1.013,0.042,-0.061,0.488,0.305,633.098
119753,134986,11241,-0.156,1.013,0.043,-0.061,0.488,0.305,633.104
119783,135153,9715,-0.157,1.014,0.044,0.183,0.671,0.305,633.108
119783,135007,11244,-0.156,1.017,0.043,0.183,0.671,0.305,633.114
119792,135153,9715,-0.157,1.013,0.043,0.976,1.098,0.244,633.118
119792,134992,11245,-0.157,1.009,0.043,0.976,1.098,0.244,633.124
119792,135153,9715,-0.155,1.01,0.044,1.159,1.28,0.061,633.128
119792,135001,11251,-0.157,1.009,0.046,1.159,1.28,0.061,633.134
119807,135153,9715,-0.16,1.012,0.04,0.793,1.585,0.122,633.138
119807,135020,11233,-0.158,1.015,0.041,0.793,1.585,0.122,633.144
119783,135153,9715,-0.157,1.016,0.039,0.793,1.463,-0.061,633.147
119783,134998,11243,-0.157,1.015,0.041,0.793,1.463,-0.061,633.154
119733,135153,9715,-0.156,1.015,0.045,0.976,1.28,-0.244,633.157
119733,134972,11239,-0.157,1.015,0.042,0.976,1.28,-0.244,633.163
119731,135153,9715,-0.161,1.012,0.042,0.915,1.463,-0.305,633.167
119731,134946,11239,-0.161,1.013,0.036,0.915,1.463,-0.305,633.173
119706,134897,9715,-0.163,1.015,0.037,1.098,1.098,-0.305,633.177
119706,134905,11247,-0.163,1.012,0.035,1.098,1.098,-0.305,633.183
119706,135153,9715,-0.163,1.011,0.039,0.488,0.732,-0.244,633.187
119706,134936,11251,-0.165,1.013,0.039,0.488,0.732,-0.244,633.193
119717,135153,9715,-0.165,1.012,0.037,-0.183,0.244,0.183,633.197
119717,134935,11243,-0.162,1.017,0.036,-0.183,0.244,0.183,633.203
119684,134897,9715,-0.163,1.016,0.037,-0.854,-0.366,0.671,633.207
119684,134899,11216,-0.163,1.017,0.033,-0.854,-0.366,0.671,633.213
119671,134897,9715,-0.159,1.017,0.039,-1.768,-0.732,0.793,633.217
119671,134895,11234,-0.158,1.011,0.042,-1.768,-0.732,0.793,633.223
119660,134897,9715,-0.161,1.01,0.043,-2.378,-0.732,0.976,633.227
119660,134879,11223,-0.158,1.008,0.042,-2.378,-0.732,0.976,633.233
119641,134897,9715,-0.156,1.009,0.044,-2.134,-0.61,1.159,633.236
119641,134847,11234,-0.16,1.014,0.043,-2.134,-0.61,1.159,633.243
119576,134897,9715,-0.158,1.015,0.045,-1.646,-0.671,0.915,633.246
119576,134803,11236,-0.156,1.016,0.046,-1.646,-0.671,0.915,633.253
119588,134897,9715,-0.157,1.014,0.043,-0.854,-0.671,0.671,633.256
119588,134809,11229,-0.156,1.01,0.051,-0.854,-0.671,0.671,633.262
119581,134897,9715,-0.153,1.015,0.049,-0.793,-0.366,0.854,633.266
119581,134819,11237,-0.155,1.013,0.045,-0.793,-0.366,0.854,633.272
119563,134897,9715,-0.158,1.013,0.047,-0.793,0.061,0.915,633.276
119563,134762,11239,-0.157,1.01,0.047,-0.793,0.061,0.915,633.282
119538,134897,9715,-0.157,1.008,0.047,-0.183,0,0.915,633.286
119538,134757,11239,-0.156,1.011,0.045,-0.183,0,0.915,633.292
119531,134897,9715,-0.154,1.014,0.046,-0.061,-0.122,0.976,633.296
119531,134734,11229,-0.155,1.014,0.049,-0.061,-0.122,0.976,633.302
119493,134897,9715,-0.159,1.015,0.043,-0.122,0.305,0.793,633.306
119493,134740,11254,-0.156,1.015,0.044,-0.122,0.305,0.793,633.312
119507,134897,9715,-0.156,1.013,0.042,0.488,0.488,0.61,633.316
119507,134730,11220,-0.158,1.014,0.041,0.488,0.488,0.61,633.322
119530,134897,9715,-0.156,1.015,0.045,0.61,0.366,0.488,633.326
119530,134781,11227,-0.155,1.017,0.045,0.61,0.366,0.488,633.332
119566,134897,9715,-0.161,1.016,0.043,0.488,0.549,0.61,633.335
119566,134786,11230,-0.16,1.017,0.04,0.488,0.549,0.61,633.342
119618,134897,9715,-0.157,1.015,0.043,0.732,0.793,0.427,633.345
119618,134824,11246,-0.158,1.007,0.046,0.732,0.793,0.427,633.352
119628,134897,9715,-0.158,1.007,0.048,0.854,0.793,0.549,633.355
119628,134842,11232,-0.156,1.013,0.046,0.854,0.793,0.549,633.361
119645,134897,9715,-0.157,1.016,0.041,1.28,0.854,0.671,633.365
119645,134864,11235,-0.157,1.016,0.044,1.28,0.854,0.671,633.371
119663,134897,9715,-0.154,1.017,0.044,1.829,0.976,0.427,633.375
119663,134852,11239,-0.154,1.016,0.042,1.829,0.976,0.427,633.381
119666,134897,9715,-0.156,1.016,0.044,1.829,1.098,0.244,633.385
119666,134875,11236,-0.158,1.017,0.048,1.829,1.098,0.244,633.391
119674,134897,9715,-0.158,1.017,0.048,1.829,1.098,0.244,633.395
119674,134871,11244,-0.157,1.013,0.041,1.585,1.402,0.122,633.401
119712,135153,9715,-0.157,1.013,0.041,1.585,1.402,0.122,633.405
119712,134923,11246,-0.158,1.014,0.039,1.89,1.159,0,633.411
119724,135153,9715,-0.158,1.014,0.039,1.89,1.159,0,633.415
119724,134965,11248,-0.157,1.015,0.044,1.098,0.854,0.061,633.421
119748,135153,9715,-0.157,1.015,0.044,1.098,0.854,0.061,633.425
119748,134955,11242,-0.157,1.011,0.046,0.61,1.28,0.183,633.431
119786,135153,9715,-0.157,1.011,0.046,0.61,1.28,0.183,633.434
119786,134994,11242,-0.16,1.009,0.038,1.524,1.402,0.183,633.441
119802,135153,9715,-0.16,1.009,0.038,1.524,1.402,0.183,633.444
119802,135021,11256,-0.162,1.022,0.036,1.707,1.463,-0.061,633.451
119791,135153,9715,-0.162,1.022,0.036,1.707,1.463,-0.061,633.454
119791,135019,11252,-0.16,1.016,0.039,1.402,1.28,0,633.46
119817,135153,9715,-0.16,1.016,0.039,1.402,1.28,0,633.464
119817,135039,11250,-0.162,1.013,0.036,1.524,1.037,0.366,633.47
119794,135153,9715,-0.162,1.013,0.036,1.524,1.037,0.366,633.474
119794,135022,11243,-0.164,1.015,0.033,1.159,1.037,0.488,633.48
119760,135153,9715,-0.164,1.015,0.033,1.159,1.037,0.488,633.484
119760,134967,11242,-0.154,1.015,0.035,0.61,0.427,0.305,633.49
119716,135153,9715,-0.154,1.015,0.035,0.61,0.427,0.305,633.494
119716,134931,11255,-0.158,1.016,0.04,-0.183,0,0.488,633.5
119678,134897,9715,-0.158,1.016,0.04,-0.183,0,0.488,633.504
119678,134906,11238,-0.157,1.011,0.045,-0.671,0.305,0.732,633.51
119639,134897,9715,-0.157,1.011,0.045,-0.671,0.305,0.732,633.514
119639,134850,11231,-0.159,1.011,0.038,-0.427,0.366,0.427,633.52
119578,134897,9715,-0.159,1.011,0.038,-0.427,0.366,0.427,633.524
119578,134797,11227,-0.158,1.011,0.042,-0.244,0.305,0.366,633.53
119546,134897,9715,-0.158,1.011,0.042,-0.244,0.305,0.366,633.533
119546,134780,11226,-0.157,1.012,0.038,-0.183,0.427,0.549,633.54
119525,134897,9715,-0.158,1.011,0.038,-0.183,0.427,0.549,633.543
119525,134729,11230,-0.156,1.011,0.042,0.305,0.366,0.61,633.549
119516,134897,9715,-0.157,1.014,0.041,0.305,0.366,0.61,633.553
119516,134713,11212,-0.157,1.018,0.037,0.244,0.366,0.549,633.559
119491,134897,9715,-0.156,1.017,0.041,0.244,0.366,0.549,633.563
119491,134689,11212,-0.16,1.015,0.038,0.183,0.427,0.488,633.569
119490,134897,9715,-0.158,1.011,0.039,0.183,0.427,0.488,633.573
119490,134707,11229,-0.157,1.008,0.042,0.671,0.732,0.488,633.579
119490,134897,9715,-0.157,1.012,0.039,0.671,0.732,0.488,633.583
119490,134687,11223,-0.158,1.014,0.036,0.793,0.976,0.427,633.589
119490,134897,9715,-0.159,1.016,0.039,0.793,0.976,0.427,633.593
119490,134714,11217,-0.156,1.012,0.037,1.159,0.793,0.244,633.599
119494,134897,9715,-0.155,1.012,0.037,1.159,0.793,0.244,633.603
119494,134674,11213,-0.153,1.013,0.04,1.098,0.671,0.183,633.609
119490,134897,9715,-0.155,1.011,0.039,1.098,0.671,0.183,633.613
119490,134702,11224,-0.158,1.012,0.04,1.037,0.854,0.183,633.619
119488,134897,9715,-0.157,1.013,0.039,1.037,0.854,0.183,633.623
119488,134693,11220,-0.158,1.009,0.039,1.22,1.098,0.122,633.629
119515,134897,9715,-0.158,1.014,0.04,1.22,1.098,0.122,633.632
119515,134710,11214,-0.158,1.01,0.037,1.707,1.159,0.183,633.639
119527,134897,9715,-0.16,1.009,0.035,1.707,1.159,0.183,633.642
119527,134740,11216,-0.159,1.01,0.033,2.012,0.854,0.183,633.649
119524,134897,9715,-0.157,1.017,0.032,2.012,0.854,0.183,633.652
119524,134716,11227,-0.157,1.021,0.03,1.037,0.549,0.244,633.658
119528,134897,9715,-0.161,1.021,0.032,1.037,0.549,0.244,633.662
119528,134720,11225,-0.158,1.016,0.034,0.244,0.488,0.366,633.668
119554,134897,9715,-0.157,1.012,0.033,0.244,0.488,0.366,633.672
119554,134739,11245,-0.156,1.011,0.033,-0.122,0.427,0.427,633.678
119556,134897,9715,-0.158,1.011,0.034,-0.122,0.427,0.427,633.682
119556,134768,11219,-0.157,1.012,0.04,-0.793,0.244,0.183,633.688
119559,134897,9715,-0.161,1.013,0.042,-0.793,0.244,0.183,633.692
119559,134758,11224,-0.156,1.011,0.042,-0.732,0.061,0.244,633.698
119601,134897,9715,-0.158,1.015,0.037,-0.732,0.061,0.244,633.702
119601,134836,11218,-0.159,1.011,0.04,-0.244,0.244,0.427,633.708
119640,134897,9715,-0.158,1.005,0.044,-0.244,0.244,0.427,633.712
119640,134862,11249,-0.159,1.007,0.042,0.305,0.61,0.305,633.718
119696,134897,9715,-0.155,1.014,0.038,0.305,0.61,0.305,633.722
119696,134902,11243,-0.157,1.015,0.037,0.671,1.037,0.427,633.728
119726,135153,9715,-0.159,1.013,0.036,0.671,1.037,0.427,633.731
119726,134940,11256,-0.159,1.017,0.036,1.341,1.037,0.366,633.738
119777,135153,9715,-0.158,1.017,0.036,1.341,1.037,0.366,633.741
119777,134982,11258,-0.157,1.018,0.036,1.037,1.098,0.366,633.748
119778,135153,9715,-0.158,1.019,0.037,1.037,1.098,0.366,633.751
119778,135010,11250,-0.159,1.012,0.035,0.915,1.098,0.427,633.757
119776,135153,9715,-0.159,1.015,0.036,0.915,1.098,0.427,633.761
119776,134979,11252,-0.157,1.016,0.039,0.549,1.098,0.183,633.767
119755,135153,9715,-0.156,1.015,0.043,0.549,1.098,0.183,633.771
119755,134971,11249,-0.158,1.014,0.041,0.61,1.402,0.061,633.777
119734,135153,9715,-0.16,1.007,0.035,0.61,1.402,0.061,633.781
119734,134930,11242,-0.158,1.008,0.034,1.829,1.22,0.061,633.787
119717,135153,9715,-0.155,1.013,0.034,1.829,1.22,0.061,633.791
119717,134948,11241,-0.154,1.017,0.035,1.768,0.976,0.061,633.797
119705,134897,9715,-0.155,1.02,0.042,1.768,0.976,0.061,633.801
119705,134906,11249,-0.156,1.019,0.04,0.976,1.28,-0.122,633.807
119700,135153,9715,-0.16,1.015,0.039,0.976,1.28,-0.122,633.811
119700,134923,11254,-0.158,1.011,0.033,1.037,1.524,-0.244,633.817
119711,135153,9715,-0.158,1.008,0.035,1.037,1.524,-0.244,633.821
119711,134924,11245,-0.161,1.007,0.039,0.854,1.341,-0.183,633.827
119681,135153,9715,-0.16,1.014,0.035,0.854,1.341,-0.183,633.83
119681,134926,11252,-0.163,1.015,0.036,0.427,1.402,0,633.837
119694,134897,9715,-0.162,1.017,0.033,0.427,1.402,0,633.84
119694,134899,11243,-0.16,1.016,0.033,1.098,1.037,0.061,633.847
119693,135153,9715,-0.162,1.013,0.035,1.098,1.037,0.061,633.85
119693,134943,11266,-0.158,1.016,0.033,0.915,0.732,0.183,633.856
119711,135153,9715,-0.157,1.018,0.032,0.915,0.732,0.183,633.86
119711,134940,11252,-0.163,1.017,0.025,0.183,0.793,0.244,633.866
119730,135153,9715,-0.167,1.011,0.029,0.183,0.793,0.244,633.87
119730,134960,11251,-0.161,1.009,0.033,0.244,0.305,0.244,633.876
119728,135153,9715,-0.159,1.011,0.034,0.244,0.305,0.244,633.88
119728,134939,11270,-0.159,1.017,0.035,-0.61,-0.305,0.61,633.886
119733,135153,9715,-0.158,1.018,0.036,-0.61,-0.305,0.61,633.89
119733,134951,11248,-0.159,1.015,0.033,-0.976,-0.183,0.854,633.896
119755,135153,9715,-0.161,1.012,0.035,-0.976,-0.183,0.854,633.9
119755,134963,11265,-0.161,1.007,0.035,-0.61,-0.061,0.793,633.906
119802,135153,9715,-0.159,1.007,0.036,-0.61,-0.061,0.793,633.91
119802,135052,11259,-0.16,1.011,0.034,-0.549,-0.122,0.854,633.916
119831,135153,9715,-0.155,1.012,0.035,-0.549,-0.122,0.854,633.92
119831,135055,11256,-0.158,1.017,0.037,-0.183,-0.122,0.793,633.926
119843,135153,9715,-0.16,1.022,0.032,-0.183,-0.122,0.793,633.93
119843,135066,11275,-0.156,1.02,0.03,-0.122,0,0.671,633.936
119843,135153,9715,-0.157,1.02,0.03,-0.122,0,0.671,633.939
119843,135050,11265,-0.156,1.014,0.034,-0.244,0.061,0.549,633.946
119840,135153,9715,-0.157,1.013,0.035,-0.244,0.061,0.549,633.949
119840,135052,11266,-0.161,1.012,0.04,-0.427,0.305,0.549,633.955
119821,135153,9715,-0.161,1.009,0.035,-0.427,0.305,0.549,633.959
119821,135039,11270,-0.158,1.008,0.031,-0.366,0.122,0.427,633.965
119785,135153,9715,-0.156,1.009,0.034,-0.366,0.122,0.427,633.969
119785,135009,11261,-0.155,1.01,0.038,-0.427,-0.061,0.549,633.975
119773,135153,9715,-0.156,1.014,0.036,-0.427,-0.061,0.549,633.979
119773,134993,11264,-0.158,1.011,0.036,-0.244,0.122,0.61,633.985
119782,135153,9715,-0.158,1.011,0.036,-0.244,0.122,0.61,633.989
119782,135013,11269,-0.155,1.019,0.036,0.366,0.427,0.488,633.995
119813,135153,9715,-0.155,1.019,0.036,0.366,0.427,0.488,633.999
119813,135083,11275,-0.158,1.012,0.036,0.793,0.793,0.366,634.005
119879,135153,9715,-0.158,1.012,0.036,0.793,0.793,0.366,634.009
119879,135095,11271,-0.16,1.01,0.034,0.976,0.793,0.427,634.015
119876,135153,9715,-0.16,1.01,0.034,0.976,0.793,0.427,634.019
119876,135120,11288,-0.157,1.015,0.028,0.793,0.427,0.488,634.025
119911,135153,9715,-0.157,1.015,0.028,0.793,0.427,0.488,634.029
119911,135117,11280,-0.155,1.021,0.029,-0.244,0.183,0.488,634.035
119905,135153,9715,-0.155,1.021,0.029,-0.244,0.183,0.488,634.038
119905,135126,11253,-0.158,1.011,0.036,-0.793,0.305,0.427,634.045
119927,135409,9715,-0.158,1.011,0.036,-0.793,0.305,0.427,634.048
119927,135171,11276,-0.155,1.011,0.035,-0.854,0.183,0.366,634.054
119946,135153,9715,-0.155,1.011,0.035,-0.854,0.183,0.366,634.058
119946,135139,11287,-0.155,1.015,0.039,-0.427,0.244,0.244,634.064
119947,135153,9715,-0.155,1.015,0.039,-0.427,0.244,0.244,634.068
119947,135159,11272,-0.16,1.011,0.036,0.671,0.549,0.061,634.074
119926,135153,9715,-0.16,1.011,0.036,0.671,0.549,0.061,634.078
119926,135140,11269,-0.157,1.012,0.036,1.22,0.488,0,634.084
119954,135153,9715,-0.157,1.012,0.036,1.22,0.488,0,634.088
119954,135165,11284,-0.158,1.015,0.031,0.854,0.305,0.061,634.094
119981,135409,9715,-0.158,1.015,0.031,0.854,0.305,0.061,634.098
119981,135184,11274,-0.159,1.012,0.03,0.122,0.183,0,634.104
119991,135409,9715,-0.159,1.012,0.03,0.122,0.183,0,634.108
119991,135211,11286,-0.161,1.014,0.031,-0.732,0.183,0.244,634.114
120007,135409,9715,-0.161,1.014,0.031,-0.732,0.183,0.244,634.118
120007,135225,11272,-0.163,1.012,0.032,-1.463,0,0.549,634.124
120003,135409,9715,-0.163,1.012,0.032,-1.463,0,0.549,634.128
120003,135257,11275,-0.157,1.011,0.035,-1.463,0,0.549,634.134
120041,135409,9715,-0.16,1.01,0.037,-1.402,-0.305,0.732,634.137
120041,135277,11282,-0.16,1.015,0.033,-1.402,-0.305,0.732,634.144
120014,135409,9715,-0.159,1.015,0.033,-1.463,-0.183,0.793,634.147
120014,135249,11289,-0.157,1.016,0.034,-1.463,-0.183,0.793,634.153
119995,135409,9715,-0.158,1.018,0.034,-1.524,-0.061,0.793,634.157
119995,135200,11271,-0.157,1.013,0.034,-1.524,-0.061,0.793,634.163
119966,135409,9715,-0.157,1.01,0.039,-1.402,-0.244,0.854,634.167
119966,135182,11270,-0.155,1.011,0.042,-1.402,-0.244,0.854,634.173
119924,135153,9715,-0.156,1.012,0.039,-1.28,-0.122,0.854,634.177
119924,135140,11281,-0.156,1.013,0.041,-1.28,-0.122,0.854,634.183
119922,135153,9715,-0.157,1.013,0.035,-0.671,0,0.549,634.187
119922,135147,11268,-0.158,1.018,0.03,-0.671,0,0.549,634.193
119889,135153,9715,-0.158,1.017,0.032,-0.427,-0.244,0.183,634.197
119889,135121,11267,-0.157,1.016,0.037,-0.427,-0.244,0.183,634.203
119881,135153,9715,-0.156,1.017,0.035,-0.915,-0.244,0.305,634.207
119881,135149,11254,-0.156,1.017,0.034,-0.915,-0.244,0.305,634.213
119892,135153,9715,-0.157,1.014,0.04,-1.22,0,0.366,634.217
119892,135119,11274,-0.157,1.01,0.038,-1.22,0,0.366,634.223
119877,135153,9715,-0.158,1.004,0.04,-1.098,0.244,0.244,634.227
119877,135101,11266,-0.16,1.005,0.037,-1.098,0.244,0.244,634.233
119874,135153,9715,-0.158,1.009,0.037,-0.671,0.366,0.488,634.236
119874,135105,11256,-0.16,1.013,0.038,-0.671,0.366,0.488,634.243
119847,135153,9715,-0.159,1.018,0.035,0.244,0.244,0.671,634.246
119847,135073,11269,-0.157,1.02,0.033,0.244,0.244,0.671,634.252
119854,135153,9715,-0.158,1.021,0.034,0.183,0.122,0.549,634.256
119854,135056,11261,-0.159,1.021,0.033,0.183,0.122,0.549,634.262
119815,135153,9715,-0.158,1.017,0.034,-0.793,0.305,0.488,634.266
119815,135039,11264,-0.156,1.014,0.033,-0.793,0.305,0.488,634.272
119850,135153,9715,-0.158,1.013,0.033,-1.585,0.122,0.671,634.276
119850,135063,11273,-0.158,1.014,0.031,-1.585,0.122,0.671,634.282
119906,135153,9715,-0.157,1.013,0.035,-2.195,-0.366,0.732,634.286
119906,135084,11269,-0.157,1.012,0.034,-2.195,-0.366,0.732,634.292
119932,135153,9715,-0.156,1.011,0.038,-2.317,-0.61,0.61,634.296
119932,135106,11268,-0.153,1.009,0.04,-2.317,-0.61,0.61,634.302
119903,135153,9715,-0.155,1.009,0.044,-2.073,-0.427,0.732,634.306
119903,135089,11263,-0.157,1.009,0.044,-2.073,-0.427,0.732,634.312
119898,135153,9715,-0.155,1.014,0.039,-1.098,-0.061,0.549,634.316
119898,135094,11272,-0.155,1.016,0.038,-1.098,-0.061,0.549,634.322
119873,135153,9715,-0.156,1.019,0.037,-0.427,-0.061,0.061,634.326
119873,135071,11267,-0.156,1.02,0.04,-0.427,-0.061,0.061,634.332
119847,135153,9715,-0.156,1.016,0.041,-0.793,0,0.061,634.335
119847,135065,11273,-0.159,1.014,0.039,-0.793,0,0.061,634.342
119845,135153,9715,-0.163,1.015,0.038,-1.159,0.122,0.244,634.345
119845,135068,11263,-0.163,1.013,0.035,-1.159,0.122,0.244,634.352
119828,135153,9715,-0.157,1.007,0.039,-1.524,0.122,0.305,634.355
119828,135046,11260,-0.159,1.005,0.039,-1.524,0.122,0.305,634.361
119812,135153,9715,-0.155,1.008,0.036,-1.402,0.061,0.427,634.365
119812,135045,11265,-0.156,1.012,0.043,-1.402,0.061,0.427,634.371
119793,135153,9715,-0.156,1.014,0.042,-1.402,0.244,0.61,634.375
119793,135004,11266,-0.158,1.017,0.038,-1.402,0.244,0.61,634.381
119789,135153,9715,-0.16,1.013,0.041,-0.976,0.549,0.549,634.385
119789,134990,11269,-0.158,1.01,0.04,-0.976,0.549,0.549,634.391
119789,135153,9715,-0.159,1.013,0.037,-0.305,0.732,0.671,634.395
119789,134974,11274,-0.159,1.018,0.035,-0.305,0.732,0.671,634.401
119741,135153,9715,-0.157,1.022,0.041,-0.122,0.427,0.671,634.405
119741,134946,11258,-0.155,1.025,0.038,-0.122,0.427,0.671,634.411
119717,134897,9715,-0.159,1.024,0.036,-0.183,0.244,0.183,634.415
119717,134902,11269,-0.157,1.019,0.038,-0.183,0.244,0.183,634.421
119711,134897,9715,-0.16,1.014,0.042,-0.366,0.671,0.122,634.424
119711,134909,11274,-0.156,1.007,0.042,-0.366,0.671,0.122,634.431
119711,134897,9715,-0.156,1.007,0.041,-0.427,0.671,0.244,634.434
119711,134909,11255,-0.156,1.01,0.041,-0.427,0.671,0.244,634.441
119673,134897,9715,-0.156,1.014,0.043,-0.366,0.488,0.122,634.444
119673,134889,11253,-0.154,1.015,0.04,-0.366,0.488,0.122,634.451
119666,134897,9715,-0.153,1.011,0.04,-0.183,0.671,-0.122,634.454
119666,134868,11257,-0.156,1.009,0.043,-0.183,0.671,-0.122,634.46
119652,134897,9715,-0.157,1.011,0.041,-0.244,1.037,-0.122,634.464
119652,134853,11257,-0.155,1.012,0.038,-0.244,1.037,-0.122,634.47
119634,134897,9715,-0.157,1.013,0.035,-0.244,0.854,0,634.474
119634,134822,11251,-0.159,1.014,0.04,-0.244,0.854,0,634.48
119595,134897,9715,-0.159,1.016,0.039,-0.122,0.488,0,634.484
119595,134795,11264,-0.158,1.016,0.037,-0.122,0.488,0,634.49
119607,134897,9715,-0.159,1.016,0.038,-0.183,0.427,0.122,634.494
119607,134785,11264,-0.161,1.014,0.039,-0.183,0.427,0.122,634.5
119585,134897,9715,-0.161,1.013,0.037,-0.366,0.244,0.244,634.504
119585,134802,11246,-0.162,1.016,0.035,-0.366,0.244,0.244,634.51
119615,134897,9715,-0.159,1.018,0.038,-0.915,-0.061,0.183,634.514
119615,134809,11238,-0.161,1.019,0.034,-0.915,-0.061,0.183,634.52
119623,134897,9715,-0.16,1.019,0.036,-1.402,-0.305,0.366,634.523
119623,134847,11260,-0.161,1.012,0.037,-1.402,-0.305,0.366,634.53
119652,134897,9715,-0.157,1.01,0.042,-1.585,-0.305,0.61,634.533
119652,134838,11251,-0.156,1.009,0.042,-1.585,-0.305,0.61,634.54
119635,134897,9715,-0.157,1.008,0.043,-1.829,-0.183,0.549,634.543
119635,134856,11279,-0.158,1.01,0.043,-1.829,-0.183,0.549,634.549
119665,134897,9715,-0.155,1.013,0.041,-1.22,-0.305,0.61,634.553
119665,134838,11260,-0.156,1.012,0.044,-1.22,-0.305,0.61,634.559
119612,134897,9715,-0.154,1.013,0.043,-0.671,-0.366,0.61,634.563
119612,134812,11263,-0.154,1.016,0.039,-0.671,-0.366,0.61,634.569
119558,134897,9715,-0.154,1.016,0.039,-0.671,-0.366,0.61,634.573
119558,134758,11256,-0.16,1.016,0.04,-0.793,-0.122,0.488,634.579
119538,134897,9715,-0.16,1.016,0.04,-0.793,-0.122,0.488,634.583
119538,134734,11266,-0.156,1.016,0.043,-1.28,-0.183,0.366,634.589
119530,134897,9715,-0.156,1.016,0.043,-1.28,-0.183,0.366,634.593
119530,134710,11259,-0.158,1.007,0.042,-1.341,-0.244,0.488,634.599
119508,134897,9715,-0.158,1.007,0.042,-1.341,-0.244,0.488,634.603
119508,134705,11264,-0.156,1.012,0.04,-1.22,-0.305,0.61,634.609
119498,134897,9715,-0.156,1.012,0.04,-1.22,-0.305,0.61,634.613
119498,134682,11243,-0.157,1.015,0.04,-1.037,0,0.427,634.619
119482,134897,9715,-0.157,1.015,0.04,-1.037,0,0.427,634.622
119482,134691,11234,-0.159,1.016,0.039,-0.183,0.122,0.183,634.629
119513,134897,9715,-0.159,1.016,0.039,-0.183,0.122,0.183,634.632
119513,134715,11243,-0.156,1.017,0.042,0.488,0.122,0.122,634.639
119505,134897,9715,-0.156,1.017,0.042,0.488,0.122,0.122,634.642
119505,134741,11248,-0.156,1.015,0.037,0.427,0.244,0,634.648
119558,134897,9715,-0.156,1.015,0.037,0.427,0.244,0,634.652
119558,134761,11252,-0.158,1.006,0.043,-0.244,0.854,-0.122,634.658
119598,134897,9715,-0.158,1.006,0.043,-0.244,0.854,-0.122,634.662
119598,134778,11267,-0.156,1.005,0.043,-0.427,0.976,0,634.668
119655,134897,9715,-0.156,1.005,0.043,-0.427,0.976,0,634.672
119655,134825,11271,-0.158,1.012,0.042,-0.183,0.793,0.061,634.678
119654,134897,9715,-0.158,1.012,0.042,-0.183,0.793,0.061,634.682
119654,134836,11267,-0.158,1.016,0.043,-0.061,0.732,-0.122,634.688
119646,134897,9715,-0.158,1.016,0.043,-0.061,0.732,-0.122,634.692
119646,134791,11263,-0.157,1.015,0.04,0.122,0.915,0.183,634.698
119643,134897,9715,-0.157,1.015,0.04,0.122,0.915,0.183,634.702
119643,134804,11258,-0.159,1.015,0.039,0.732,0.793,0.366,634.708
119658,134897,9715,-0.159,1.015,0.039,0.732,0.793,0.366,634.712
119658,134826,11270,-0.157,1.017,0.041,0.854,0.305,0.183,634.718
119612,134897,9715,-0.157,1.017,0.041,0.854,0.305,0.183,634.722
119612,134817,11260,-0.156,1.017,0.038,0.183,0.366,0.244,634.728
119621,134897,9715,-0.16,1.014,0.037,0.183,0.366,0.244,634.731
119621,134826,11247,-0.16,1.01,0.038,-0.061,0.488,0.366,634.738
119647,134897,9715,-0.159,1.009,0.043,-0.061,0.488,0.366,634.741
119647,134860,11264,-0.16,1.011,0.042,-0.183,0.366,0.366,634.747
119704,134897,9715,-0.157,1.011,0.041,-0.183,0.366,0.366,634.751
119704,134878,11263,-0.158,1.013,0.037,0.061,0.183,0.305,634.757
119683,134897,9715,-0.158,1.015,0.038,0.061,0.183,0.305,634.761
119683,134878,11258,-0.156,1.015,0.04,-0.244,0.183,0.183,634.767
119685,134897,9715,-0.156,1.014,0.04,-0.244,0.183,0.183,634.771
119685,134889,11257,-0.158,1.014,0.039,-0.488,0.488,0.244,634.777
119703,134897,9715,-0.16,1.01,0.041,-0.488,0.488,0.244,634.781
119703,134873,11277,-0.16,1.01,0.041,-0.549,0.732,0.366,634.787
119705,134897,9715,-0.159,1.008,0.04,-0.549,0.732,0.366,634.791
119705,134873,11271,-0.157,1.012,0.04,0,0.427,0.366,634.797
119674,134897,9715,-0.156,1.013,0.038,0,0.427,0.366,634.801
119674,134843,11259,-0.156,1.017,0.039,0.122,0.183,0.244,634.807
119653,134897,9715,-0.159,1.019,0.038,0.122,0.183,0.244,634.811
119653,134836,11259,-0.162,1.017,0.042,-0.427,0.305,0.427,634.817
119634,134897,9715,-0.159,1.01,0.043,-0.427,0.305,0.427,634.821
119634,134824,11255,-0.155,1.007,0.042,-0.61,0.183,0.671,634.827
119613,134897,9715,-0.158,1.008,0.041,-0.61,0.183,0.671,634.83
119613,134802,11246,-0.156,1.016,0.044,-1.22,-0.061,0.61,634.837
119580,134897,9715,-0.156,1.018,0.045,-1.22,-0.061,0.61,634.84
119580,134771,11258,-0.156,1.016,0.045,-0.793,-0.061,0.427,634.846
119554,134897,9715,-0.157,1.011,0.045,-0.793,-0.061,0.427,634.85
119554,134723,11257,-0.157,1.011,0.045,0.488,0.122,0.427,634.856
119536,134897,9715,-0.155,1.015,0.04,0.488,0.122,0.427,634.86
119536,134712,11244,-0.158,1.015,0.041,0.183,0.305,0.244,634.866
119497,134897,9715,-0.159,1.018,0.039,0.183,0.305,0.244,634.87
119497,134658,11241,-0.161,1.016,0.04,-0.366,0.305,0.061,634.876
119472,134641,9715,-0.159,1.012,0.044,-0.366,0.305,0.061,634.88
119472,134619,11248,-0.158,1.015,0.04,-0.427,-0.061,0.183,634.886
119449,134641,9715,-0.157,1.014,0.039,-0.427,-0.061,0.183,634.89
119449,134587,11241,-0.162,1.014,0.041,-0.976,-0.061,0.122,634.896
119420,134641,9715,-0.16,1.012,0.045,-0.976,-0.061,0.122,634.9
119420,134592,11222,-0.16,1.01,0.045,-1.22,-0.244,0.244,634.906
119411,134641,9715,-0.159,1.014,0.043,-1.22,-0.244,0.244,634.91
119411,134564,11225,-0.157,1.015,0.042,-1.098,-0.366,0.61,634.916
119423,134641,9715,-0.155,1.015,0.043,-1.098,-0.366,0.61,634.92
119423,134585,11255,-0.154,1.012,0.045,-0.732,0,0.488,634.926
119436,134641,9715,-0.156,1.012,0.045,-0.732,0,0.488,634.929
119436,134585,11245,-0.16,1.013,0.044,-0.488,0.366,0.366,634.936
119492,134897,9715,-0.161,1.012,0.041,-0.488,0.366,0.366,634.939
119492,134665,11258,-0.159,1.013,0.037,-0.183,0.305,0.427,634.945
119522,134897,9715,-0.157,1.011,0.037,-0.183,0.305,0.427,634.949
119522,134661,11247,-0.16,1.012,0.039,-0.61,-0.061,0.549,634.955
119528,134897,9715,-0.158,1.014,0.039,-0.61,-0.061,0.549,634.959
119528,134672,11263,-0.158,1.012,0.041,-1.28,-0.366,0.793,634.965
119583,134897,9715,-0.156,1.012,0.043,-1.28,-0.366,0.793,634.969
119583,134737,11243,-0.155,1.016,0.043,-1.646,-0.366,0.671,634.975
119588,134897,9715,-0.154,1.018,0.045,-1.646,-0.366,0.671,634.979
119588,134714,11248,-0.158,1.017,0.047,-1.28,-0.305,0.427,634.985
119595,134897,9715,-0.159,1.017,0.043,-1.28,-0.305,0.427,634.989
119595,134739,11263,-0.158,1.015,0.045,-0.793,-0.427,0.305,634.995
119583,134897,9715,-0.155,1.012,0.044,-0.793,-0.427,0.305,634.999
119583,134741,11263,-0.155,1.013,0.043,-0.61,-0.305,0.244,635.005
119583,134897,9715,-0.158,1.016,0.044,-0.61,-0.305,0.244,635.009
119583,134719,11249,-0.156,1.017,0.046,-0.854,-0.061,0.183,635.015
119567,134897,9715,-0.156,1.015,0.045,-0.854,-0.061,0.183,635.019
119567,134715,11251,-0.156,1.01,0.042,-0.427,0.061,0.183,635.025
119570,134897,9715,-0.16,1.008,0.044,-0.427,0.061,0.183,635.028
119570,134706,11257,-0.16,1.007,0.045,-0.244,0.183,0.305,635.035
119567,134897,9715,-0.159,1.01,0.046,-0.244,0.183,0.305,635.038
119567,134703,11259,-0.158,1.014,0.042,-0.488,0.427,0.61,635.045
119547,134897,9715,-0.167,1.012,0.035,-0.488,0.427,0.61,635.048
119547,134710,11255,-0.165,1.014,0.038,-0.427,0,0.549,635.054
119564,134897,9715,-0.158,1.021,0.045,-0.427,0,0.549,635.058
119564,134701,11255,-0.153,1.02,0.048,-1.402,-0.671,1.037,635.064
119561,134897,9715,-0.15,1.016,0.047,-1.402,-0.671,1.037,635.068
119561,134720,11277,-0.153,1.009,0.049,-1.646,-0.122,1.098,635.074
119583,134897,9715,-0.156,1.013,0.047,-1.646,-0.122,1.098,635.078
119583,134731,11258,-0.155,1.011,0.048,-1.28,0.976,0.366,635.084
119559,134897,9715,-0.156,1.011,0.046,-1.28,0.976,0.366,635.088
119559,134728,11257,-0.159,1.012,0.045,-0.122,0.976,-0.061,635.094
119533,134897,9715,-0.157,1.011,0.044,-0.122,0.976,-0.061,635.098
119533,134687,11245,-0.158,1.011,0.045,0.549,0.732,-0.061,635.104
119517,134897,9715,-0.155,1.017,0.045,0.549,0.732,-0.061,635.108
119517,134669,11260,-0.157,1.012,0.046,0.244,0.793,-0.122,635.114
119498,134897,9715,-0.159,1.009,0.045,0.244,0.793,-0.122,635.118
119498,134665,11254,-0.158,1.014,0.042,0.244,0.732,-0.488,635.124
119479,134641,9715,-0.159,1.013,0.042,0.244,0.732,-0.488,635.127
119479,134651,11262,-0.161,1.017,0.042,-0.366,0.366,-0.549,635.134
119491,134897,9715,-0.159,1.015,0.042,-0.366,0.366,-0.549,635.137
119491,134675,11257,-0.156,1.013,0.045,-0.549,0.183,-0.244,635.144
119481,134641,9715,-0.158,1.014,0.043,-0.549,0.183,-0.244,635.147
119481,134650,11249,-0.161,1.014,0.05,-0.183,0.549,0.122,635.153
119452,134641,9715,-0.16,1.01,0.05,-0.183,0.549,0.122,635.157
119452,134573,11244,-0.162,1.006,0.041,0.488,0.793,0.244,635.163
119402,134641,9715,-0.161,1.01,0.042,0.488,0.793,0.244,635.167
119402,134554,11258,-0.163,1.01,0.042,0.793,0.61,0.366,635.173
119361,134641,9715,-0.163,1.01,0.042,0.793,0.61,0.366,635.177
119361,134503,11240,-0.16,1.015,0.042,0.244,0.427,0.671,635.183
119305,134641,9715,-0.16,1.015,0.042,0.244,0.427,0.671,635.187
119305,134452,11241,-0.156,1.014,0.047,-0.244,0.488,0.854,635.193
119276,134641,9715,-0.156,1.014,0.047,-0.244,0.488,0.854,635.197
119276,134440,11240,-0.16,1.009,0.038,-0.244,0.488,0.915,635.203
119290,134641,9715,-0.16,1.009,0.038,-0.244,0.488,0.915,635.207
119290,134445,11231,-0.159,1.017,0.044,-0.61,-0.061,0.915,635.213
119292,134641,9715,-0.159,1.017,0.044,-0.61,-0.061,0.915,635.217
119292,134436,11251,-0.156,1.019,0.041,-0.854,-0.244,0.915,635.223
119277,134641,9715,-0.156,1.019,0.041,-0.854,-0.244,0.915,635.227
119277,134420,11226,-0.156,1.017,0.045,-0.427,-0.122,0.549,635.233
119235,134385,9715,-0.156,1.017,0.045,-0.427,-0.122,0.549,635.236
119235,134377,11230,-0.154,1.019,0.05,-0.305,0.122,0.183,635.243
119191,134385,9715,-0.154,1.019,0.05,-0.305,0.122,0.183,635.246
119191,134347,11219,-0.156,1.014,0.049,0.427,0.549,0,635.252
119138,134385,9715,-0.156,1.014,0.049,0.427,0.549,0,635.256
119138,134275,11237,-0.16,1.003,0.046,1.28,0.732,-0.122,635.262
119118,134385,9715,-0.16,1.003,0.046,1.28,0.732,-0.122,635.266
119118,134232,11218,-0.159,1.008,0.045,0.854,0.671,0.183,635.272
119086,134385,9715,-0.159,1.008,0.045,0.854,0.671,0.183,635.276
119086,134237,11251,-0.157,1.011,0.046,0.244,0.549,0.549,635.282
119109,134385,9715,-0.157,1.011,0.046,0.244,0.549,0.549,635.286
119109,134251,11227,-0.157,1.009,0.047,0.488,0.549,0.671,635.292
119115,134385,9715,-0.157,1.009,0.047,0.488,0.549,0.671,635.296
119115,134250,11239,-0.158,1.013,0.045,1.098,0.976,0.671,635.302
119136,134385,9715,-0.158,1.013,0.045,1.098,0.976,0.671,635.306
119136,134245,11229,-0.155,1.017,0.044,1.951,1.159,0.488,635.312
119144,134385,9715,-0.155,1.017,0.044,1.951,1.159,0.488,635.316
119144,134277,11226,-0.156,1.019,0.041,1.951,1.159,0.488,635.322
119133,134385,9715,-0.156,1.023,0.038,2.195,1.28,0.122,635.326
119133,134226,11231,-0.156,1.026,0.04,2.195,1.28,0.122,635.332
119044,134385,9715,-0.158,1.024,0.04,2.012,1.463,-0.183,635.335
119044,134167,11219,-0.157,1.015,0.043,2.012,1.463,-0.183,635.342
119060,134385,9715,-0.158,1.016,0.042,1.585,1.463,-0.427,635.345
119060,134174,11197,-0.156,1.016,0.045,1.585,1.463,-0.427,635.352
119032,134385,9715,-0.159,1.012,0.044,0.976,1.341,-0.61,635.355
119032,134176,11219,-0.161,1.008,0.046,0.976,1.341,-0.61,635.361
119076,134385,9715,-0.16,1.006,0.04,0.793,1.22,-0.488,635.365
119076,134184,11232,-0.164,1.006,0.039,0.793,1.22,-0.488,635.371
119070,134385,9715,-0.162,1.007,0.043,0.61,0.915,-0.183,635.375
119070,134194,11214,-0.16,1.009,0.041,0.61,0.915,-0.183,635.381
119068,134385,9715,-0.163,1.014,0.041,0.488,0.976,0.183,635.385
119068,134188,11226,-0.159,1.014,0.042,0.488,0.976,0.183,635.391
119079,134385,9715,-0.161,1.014,0.039,0.61,0.976,0.488,635.395
119079,134219,11201,-0.159,1.014,0.034,0.61,0.976,0.488,635.401
119074,134385,9715,-0.16,1.015,0.039,0.549,0.854,0.61,635.405
119074,134205,11224,-0.16,1.013,0.04,0.549,0.854,0.61,635.411
119079,134385,9715,-0.163,1.009,0.038,0.183,0.854,0.671,635.415
119079,134195,11203,-0.158,1.011,0.038,0.183,0.854,0.671,635.421
119054,134385,9715,-0.155,1.018,0.043,0.244,0.915,0.793,635.424
119054,134184,11217,-0.159,1.018,0.041,0.244,0.915,0.793,635.431
119082,134385,9715,-0.158,1.018,0.035,0.61,0.854,0.61,635.434
119082,134212,11219,-0.159,1.017,0.035,0.61,0.854,0.61,635.441
119110,134385,9715,-0.159,1.015,0.033,0.793,0.427,0.183,635.444
119110,134237,11229,-0.158,1.02,0.037,0.793,0.427,0.183,635.45
119118,134385,9715,-0.156,1.019,0.041,-0.061,0.122,0.061,635.454
119118,134254,11216,-0.158,1.014,0.044,-0.061,0.122,0.061,635.46
119140,134385,9715,-0.161,1.01,0.043,-0.671,0.061,0.305,635.464
119140,134260,11233,-0.158,1.008,0.04,-0.671,0.061,0.305,635.47
119147,134385,9715,-0.158,1.008,0.047,-0.854,0.061,0.305,635.474
119147,134270,11225,-0.16,1.01,0.046,-0.854,0.061,0.305,635.48
119122,134385,9715,-0.16,1.012,0.044,-0.793,0.061,0.427,635.484
119122,134244,11220,-0.159,1.008,0.045,-0.793,0.061,0.427,635.49
119106,134385,9715,-0.158,1.007,0.047,-0.061,0.244,0.671,635.494
119106,134242,11210,-0.156,1.012,0.041,-0.061,0.244,0.671,635.5
119086,134385,9715,-0.155,1.017,0.038,-0.061,0.366,0.793,635.504
119086,134214,11211,-0.155,1.017,0.042,-0.061,0.366,0.793,635.51
119069,134385,9715,-0.16,1.016,0.043,-0.183,0.61,0.854,635.514
119069,134206,11215,-0.162,1.015,0.04,-0.183,0.61,0.854,635.52
119104,134385,9715,-0.16,1.014,0.038,0.366,0.671,0.915,635.523
119104,134219,11208,-0.154,1.013,0.042,0.366,0.671,0.915,635.53
119107,134385,9715,-0.154,1.014,0.041,0.671,0.732,0.976,635.533
119107,134259,11219,-0.156,1.016,0.045,0.671,0.732,0.976,635.54
119148,134385,9715,-0.158,1.015,0.042,1.159,0.976,0.427,635.543
119148,134277,11228,-0.156,1.017,0.037,1.159,0.976,0.427,635.549
119157,134385,9715,-0.158,1.016,0.038,1.646,0.976,-0.061,635.553
119157,134263,11228,-0.157,1.02,0.038,1.646,0.976,-0.061,635.559
119159,134385,9715,-0.157,1.018,0.041,1.585,1.098,0.061,635.563
119159,134271,11221,-0.158,1.014,0.041,1.585,1.098,0.061,635.569
119162,134385,9715,-0.16,1.008,0.038,1.341,1.22,0.183,635.573
119162,134310,11240,-0.159,1.008,0.042,1.341,1.22,0.183,635.579
119217,134385,9715,-0.159,1.008,0.041,0.732,0.976,0.366,635.583
119217,134372,11242,-0.159,1.012,0.042,0.732,0.976,0.366,635.589
119251,134385,9715,-0.157,1.016,0.043,0.793,0.915,0.61,635.593
119251,134378,11229,-0.161,1.013,0.036,0.793,0.915,0.61,635.599
119290,134641,9715,-0.158,1.012,0.037,1.341,0.732,0.671,635.603
119290,134429,11241,-0.158,1.012,0.041,1.341,0.732,0.671,635.609
119335,134641,9715,-0.16,1.014,0.037,0.854,0.976,0.671,635.613
119335,134469,11235,-0.163,1.016,0.037,0.854,0.976,0.671,635.619
119377,134641,9715,-0.16,1.017,0.034,0.61,0.61,0.793,635.622
119377,134518,11245,-0.16,1.019,0.033,0.61,0.61,0.793,635.629
119375,134641,9715,-0.16,1.021,0.034,0.183,0.183,0.732,635.632
119375,134488,11234,-0.157,1.017,0.034,0.183,0.183,0.732,635.639
119398,134641,9715,-0.159,1.017,0.037,-0.244,0.122,0.793,635.642
119398,134523,11261,-0.158,1.013,0.036,-0.244,0.122,0.793,635.648
119412,134641,9715,-0.156,1.011,0.036,-0.244,-0.061,0.61,635.652
119412,134541,11246,-0.156,1.01,0.041,-0.244,-0.061,0.61,635.658
119440,134641,9715,-0.156,1.011,0.042,-0.366,0,0.366,635.662
119440,134581,11244,-0.16,1.014,0.037,-0.366,0,0.366,635.668
119461,134641,9715,-0.159,1.011,0.038,-0.366,0.183,0.183,635.672
119461,134595,11257,-0.162,1.009,0.039,-0.366,0.183,0.183,635.678
119487,134641,9715,-0.158,1.01,0.042,-0.183,0,0.183,635.682
119487,134633,11271,-0.159,1.012,0.039,-0.183,0,0.183,635.688
119526,134897,9715,-0.158,1.014,0.041,-0.427,0.122,0.366,635.692
119526,134659,11263,-0.16,1.012,0.041,-0.427,0.122,0.366,635.698
119545,134897,9715,-0.159,1.01,0.037,-0.366,0.488,0.549,635.702
119545,134690,11268,-0.156,1.012,0.041,-0.366,0.488,0.549,635.708
119538,134897,9715,-0.154,1.013,0.041,-0.061,0.549,0.61,635.712
119538,134701,11258,-0.159,1.016,0.037,-0.061,0.549,0.61,635.718
119557,134897,9715,-0.158,1.018,0.035,0.488,0.732,0.488,635.721
119557,134681,11268,-0.155,1.02,0.036,0.488,0.732,0.488,635.728
119518,134897,9715,-0.157,1.019,0.034,0.732,0.732,0.183,635.731
119518,134657,11273,-0.158,1.019,0.036,0.732,0.732,0.183,635.738
119501,134641,9715,-0.156,1.014,0.039,0.427,1.098,0.244,635.741
119501,134604,11257,-0.156,1.009,0.037,0.427,1.098,0.244,635.747
119468,134641,9715,-0.161,1.003,0.041,0.854,1.098,0.305,635.751
119468,134611,11249,-0.16,1.006,0.043,0.854,1.098,0.305,635.757
119471,134641,9715,-0.154,1.012,0.041,1.098,0.915,0.366,635.761
119471,134583,11253,-0.152,1.016,0.038,1.098,0.915,0.366,635.767
119429,134641,9715,-0.152,1.016,0.038,1.098,0.915,0.366,635.771
119429,134584,11252,-0.156,1.014,0.037,1.341,1.098,0.244,635.777
119458,134641,9715,-0.156,1.014,0.037,1.341,1.098,0.244,635.781
119458,134606,11264,-0.156,1.015,0.038,1.341,1.585,0,635.787
119459,134641,9715,-0.156,1.015,0.038,1.341,1.585,0,635.791
119459,134598,11275,-0.157,1.016,0.033,1.341,1.585,-0.122,635.797
119441,134641,9715,-0.157,1.016,0.033,1.341,1.585,-0.122,635.801
119441,134585,11256,-0.161,1.016,0.04,1.402,1.402,-0.305,635.807
119446,134641,9715,-0.161,1.016,0.04,1.402,1.402,-0.305,635.811
119446,134601,11268,-0.163,1.01,0.035,1.402,1.402,-0.488,635.817
119495,134641,9715,-0.163,1.01,0.035,1.402,1.402,-0.488,635.821
119495,134632,11267,-0.165,1.013,0.029,1.585,1.28,-0.366,635.827
119508,134897,9715,-0.165,1.013,0.029,1.585,1.28,-0.366,635.83
119508,134661,11262,-0.163,1.016,0.029,1.159,0.671,-0.061,635.837
