129166,145905,9715,-0.166,1.015,0.075,0.061,0.549,0.183,571.576
129166,145901,12049,-0.167,1.011,0.074,0.061,0.549,0.183,571.582
129177,146161,9715,-0.164,1.009,0.075,0.793,0.976,0.488,571.586
129177,145945,12059,-0.161,1.007,0.075,0.793,0.976,0.488,571.592
129176,146161,9715,-0.162,1.007,0.071,1.098,1.22,0.671,571.596
129176,145928,12042,-0.161,1.008,0.064,1.098,1.22,0.671,571.602
129172,146161,9715,-0.161,1.012,0.065,1.463,0.915,0.183,571.606
129172,145965,12043,-0.16,1.014,0.065,1.463,0.915,0.183,571.612
129199,146161,9715,-0.158,1.017,0.063,1.89,0.427,0,571.616
129199,145974,12039,-0.164,1.022,0.063,1.89,0.427,0,571.622
129217,146161,9715,-0.167,1.023,0.062,1.159,0.732,0.244,571.626
129217,145997,12048,-0.167,1.019,0.062,1.159,0.732,0.244,571.632
129233,146161,9715,-0.169,1.012,0.061,-0.061,0.854,0.122,571.635
129233,145971,12052,-0.168,1.009,0.063,-0.061,0.854,0.122,571.642
129220,146161,9715,-0.168,1.006,0.064,-1.037,0.244,0.183,571.645
129220,145991,12051,-0.169,1.005,0.066,-1.037,0.244,0.183,571.652
129244,146161,9715,-0.167,1.01,0.07,-1.646,-0.244,0.549,571.655
129244,145971,12056,-0.166,1.016,0.067,-1.646,-0.244,0.549,571.661
129240,146161,9715,-0.164,1.012,0.067,-1.22,-0.305,0.732,571.665
129240,145978,12049,-0.165,1.01,0.067,-1.22,-0.305,0.732,571.671
129234,146161,9715,-0.164,1.006,0.07,-0.488,-0.122,0.61,571.675
129234,145982,12045,-0.161,1.01,0.07,-0.488,-0.122,0.61,571.681
129186,146161,9715,-0.158,1.013,0.067,-0.061,-0.061,0.549,571.685
129186,145943,12049,-0.163,1.019,0.065,-0.061,-0.061,0.549,571.691
129206,146161,9715,-0.161,1.02,0.065,-0.061,-0.183,0.305,571.695
129206,145968,12042,-0.163,1.02,0.067,-0.061,-0.183,0.305,571.701
129250,146161,9715,-0.165,1.016,0.07,-0.366,-0.366,0,571.705
129250,145999,12040,-0.163,1.015,0.072,-0.366,-0.366,0,571.711
129269,146161,9715,-0.163,1.013,0.074,-1.341,-0.427,0.122,571.715
129269,146038,12057,-0.164,1.007,0.07,-1.341,-0.427,0.122,571.721
129304,146161,9715,-0.16,1.005,0.072,-1.402,-0.488,0.427,571.725
129304,146041,12045,-0.16,1.006,0.072,-1.402,-0.488,0.427,571.731
129300,146161,9715,-0.164,1.008,0.073,-0.976,-0.244,0.183,571.734
129300,146073,12052,-0.164,1.01,0.075,-0.976,-0.244,0.183,571.741
129300,146161,9715,-0.167,1.011,0.072,-0.427,0.305,0.122,571.744
129300,146044,12059,-0.167,1.01,0.064,-0.427,0.305,0.122,571.751
129301,146161,9715,-0.17,1.01,0.065,-0.305,0.549,0.366,571.754
129301,146029,12045,-0.17,1.012,0.063,-0.305,0.549,0.366,571.76
129219,146161,9715,-0.168,1.015,0.065,-0.549,0.244,0.793,571.764
129219,145976,12062,-0.168,1.017,0.063,-0.549,0.244,0.793,571.77
129165,145905,9715,-0.167,1.016,0.066,-0.732,0.061,0.976,571.774
129165,145905,12041,-0.165,1.02,0.066,-0.732,0.061,0.976,571.78
129096,145905,9715,-0.165,1.015,0.07,-0.976,0,0.854,571.784
129096,145850,12038,-0.167,1.013,0.07,-0.976,0,0.854,571.79
129058,145905,9715,-0.162,1.012,0.069,-1.524,-0.305,0.854,571.794
129058,145772,12046,-0.159,1.014,0.072,-1.524,-0.305,0.854,571.8
128994,145905,9715,-0.159,1.011,0.075,-1.646,-0.488,0.732,571.804
128994,145711,12015,-0.159,1.009,0.07,-1.646,-0.488,0.732,571.81
128967,145905,9715,-0.158,1.013,0.07,-1.098,-0.488,0.244,571.814
128967,145695,12040,-0.156,1.011,0.07,-1.098,-0.488,0.244,571.82
128982,145905,9715,-0.156,1.012,0.072,-1.341,-0.61,-0.061,571.824
128982,145705,12017,-0.155,1.014,0.078,-1.341,-0.61,-0.061,571.83
128995,145905,9715,-0.155,1.014,0.078,-1.341,-0.61,-0.061,571.833
128995,145696,12023,-0.164,1.012,0.078,-1.951,0.122,-0.061,571.84
128988,145905,9715,-0.164,1.012,0.078,-1.951,0.122,-0.061,571.843
128988,145703,12031,-0.166,1.003,0.08,-1.098,0.793,-0.366,571.85
129010,145905,9715,-0.166,1.003,0.08,-1.098,0.793,-0.366,571.853
129010,145725,12016,-0.169,1.006,0.068,0,0.915,-0.305,571.859
129007,145905,9715,-0.169,1.006,0.068,0,0.915,-0.305,571.863
129007,145733,12028,-0.169,1.012,0.069,0.366,0.915,0.183,571.869
129053,145905,9715,-0.169,1.012,0.069,0.366,0.915,0.183,571.873
129053,145740,12044,-0.168,1.018,0.064,0.671,0.793,0.427,571.879
129022,145905,9715,-0.168,1.018,0.064,0.671,0.793,0.427,571.883
129022,145720,12035,-0.17,1.013,0.063,0.183,0.732,0.671,571.889
129001,145905,9715,-0.17,1.013,0.063,0.183,0.732,0.671,571.893
129001,145690,12034,-0.167,1.01,0.068,-0.732,0.366,0.915,571.899
128970,145905,9715,-0.167,1.01,0.068,-0.732,0.366,0.915,571.903
128970,145686,12037,-0.161,1.012,0.069,-1.585,-0.183,1.22,571.909
128971,145905,9715,-0.161,1.012,0.069,-1.585,-0.183,1.22,571.913
128971,145691,12023,-0.162,1.012,0.066,-1.463,-0.488,1.037,571.919
128981,145905,9715,-0.162,1.012,0.066,-1.463,-0.488,1.037,571.923
128981,145706,12025,-0.162,1.014,0.068,-0.854,-0.427,0.793,571.929
129000,145905,9715,-0.162,1.014,0.068,-0.854,-0.427,0.793,571.932
129000,145711,12031,-0.161,1.015,0.073,-0.61,-0.671,0.488,571.939
128968,145905,9715,-0.161,1.015,0.073,-0.61,-0.671,0.488,571.942
128968,145697,12033,-0.159,1.016,0.077,-1.159,-0.488,0.488,571.949
128985,145905,9715,-0.159,1.016,0.077,-1.159,-0.488,0.488,571.952
128985,145711,12033,-0.165,1.007,0.072,-1.22,0.305,0.549,571.958
129002,145905,9715,-0.165,1.007,0.072,-1.22,0.305,0.549,571.962
129002,145708,12019,-0.159,1.008,0.076,-1.037,0.122,0.488,571.968
128993,145905,9715,-0.159,1.008,0.076,-1.037,0.122,0.488,571.972
128993,145686,12024,-0.162,1.008,0.076,-0.793,0,0.244,571.978
128939,145649,9715,-0.163,1.008,0.069,-0.793,0,0.244,571.982
128939,145642,12024,-0.166,1.014,0.063,-0.61,0.183,0.305,571.988
128915,145649,9715,-0.165,1.016,0.064,-0.61,0.183,0.305,571.992
128915,145598,12039,-0.166,1.014,0.071,-0.976,-0.061,0.366,571.998
128911,145649,9715,-0.166,1.01,0.069,-0.976,-0.061,0.366,572.002
128911,145593,12022,-0.163,1.01,0.074,-1.463,-0.183,0.549,572.008
128910,145649,9715,-0.165,1.01,0.073,-1.463,-0.183,0.549,572.012
128910,145612,12035,-0.165,1.016,0.073,-2.073,-0.061,0.732,572.018
128934,145649,9715,-0.163,1.015,0.07,-2.073,-0.061,0.732,572.022
128934,145641,12021,-0.163,1.01,0.073,-1.768,0,0.854,572.028
128967,145905,9715,-0.165,1.009,0.076,-1.768,0,0.854,572.031
128967,145699,12033,-0.166,1.008,0.08,-1.402,0.183,0.915,572.038
129016,145905,9715,-0.167,1.011,0.077,-1.402,0.183,0.915,572.041
129016,145732,12032,-0.163,1.01,0.079,-1.159,0.122,1.098,572.048
129002,145905,9715,-0.16,1.012,0.079,-1.159,0.122,1.098,572.051
129002,145733,12034,-0.16,1.013,0.08,-0.305,0,0.854,572.057
129001,145905,9715,-0.16,1.013,0.075,-0.305,0,0.854,572.061
129001,145710,12035,-0.162,1.011,0.072,0.183,0.183,0.671,572.067
128970,145905,9715,-0.161,1.014,0.07,0.183,0.183,0.671,572.071
128970,145664,12029,-0.161,1.014,0.071,-0.122,0.183,0.732,572.077
128937,145649,9715,-0.163,1.016,0.071,-0.122,0.183,0.732,572.081
128937,145659,12031,-0.159,1.021,0.077,-0.793,-0.122,0.732,572.087
128910,145649,9715,-0.157,1.023,0.075,-0.793,-0.122,0.732,572.091
128910,145612,12008,-0.16,1.014,0.076,-0.61,-0.122,0.122,572.097
128833,145649,9715,-0.164,1.004,0.074,-0.61,-0.122,0.122,572.101
128833,145541,12022,-0.17,1.004,0.069,-0.183,0.244,-0.244,572.107
128838,145649,9715,-0.17,1.003,0.071,-0.183,0.244,-0.244,572.111
128838,145507,12022,-0.166,1.011,0.07,-0.915,-0.122,0.183,572.117
128804,145649,9715,-0.16,1.016,0.073,-0.915,-0.122,0.183,572.121
128804,145503,12025,-0.162,1.014,0.072,-1.829,-0.61,0.488,572.127
128811,145649,9715,-0.165,1.013,0.075,-1.829,-0.61,0.488,572.131
128811,145548,12022,-0.165,1.011,0.075,-1.768,-0.488,0.488,572.137
128852,145649,9715,-0.163,1.013,0.073,-1.768,-0.488,0.488,572.14
128852,145566,12011,-0.164,1.015,0.072,-1.89,-0.061,0.366,572.147
128864,145649,9715,-0.167,1.012,0.076,-1.89,-0.061,0.366,572.15
128864,145587,12030,-0.164,1.012,0.076,-1.524,0.183,0.488,572.156
128902,145649,9715,-0.165,1.013,0.069,-1.524,0.183,0.488,572.16
128902,145635,12008,-0.162,1.012,0.073,-0.976,-0.244,0.549,572.166
128902,145649,9715,-0.16,1.016,0.076,-0.976,-0.244,0.549,572.17
128902,145651,12029,-0.16,1.013,0.081,-0.854,0,0.549,572.176
128932,145905,9715,-0.161,1.01,0.081,-0.854,0,0.549,572.18
128932,145677,12012,-0.162,1.012,0.076,-1.037,0.244,0.366,572.186
128892,145649,9715,-0.159,1.012,0.077,-1.037,0.244,0.366,572.19
128892,145626,12021,-0.161,1.011,0.077,-0.671,-0.061,0.061,572.196
128864,145649,9715,-0.162,1.013,0.074,-0.671,-0.061,0.061,572.2
128864,145585,12007,-0.161,1.017,0.076,-0.427,-0.183,-0.061,572.206
128840,145649,9715,-0.164,1.012,0.076,-0.427,-0.183,-0.061,572.21
128840,145575,12013,-0.164,1.009,0.075,-0.61,-0.122,0.122,572.216
128810,145649,9715,-0.163,1.005,0.077,-0.61,-0.122,0.122,572.22
128810,145514,12013,-0.16,1.013,0.077,-0.976,0.122,0.305,572.226
128799,145649,9715,-0.165,1.015,0.077,-0.976,0.122,0.305,572.229
128799,145526,12003,-0.165,1.012,0.074,-0.854,0.183,0.183,572.236
128810,145649,9715,-0.167,1.011,0.073,-0.854,0.183,0.183,572.239
128810,145528,12003,-0.164,1.011,0.073,-0.61,0.122,0.244,572.246
128835,145649,9715,-0.163,1.013,0.08,-0.61,0.122,0.244,572.249
128835,145552,12009,-0.159,1.012,0.081,-0.793,0.061,0.549,572.255
128828,145649,9715,-0.161,1.014,0.077,-0.793,0.061,0.549,572.259
128828,145531,12005,-0.166,1.014,0.075,-0.549,0.122,0.427,572.265
128830,145649,9715,-0.162,1.013,0.075,-0.549,0.122,0.427,572.269
128830,145530,11998,-0.161,1.015,0.076,0.061,-0.061,0.183,572.275
128846,145649,9715,-0.159,1.015,0.076,0.061,-0.061,0.183,572.279
128846,145547,12025,-0.158,1.014,0.079,0,-0.183,0.122,572.285
128855,145649,9715,-0.16,1.011,0.077,0,-0.183,0.122,572.289
128855,145566,12017,-0.162,1.011,0.073,-0.427,-0.305,0.061,572.295
128897,145649,9715,-0.158,1.008,0.074,-0.427,-0.305,0.061,572.299
128897,145619,12019,-0.157,1.009,0.081,-0.976,-0.183,0.061,572.305
128918,145649,9715,-0.162,1.01,0.084,-0.976,-0.183,0.061,572.309
128918,145661,12026,-0.162,1.01,0.083,-0.915,0.305,0.061,572.315
128980,145905,9715,-0.162,1.012,0.084,-0.915,0.305,0.061,572.319
128980,145749,12023,-0.16,1.013,0.083,0.183,0.793,0.061,572.325
129032,145905,9715,-0.163,1.014,0.075,0.183,0.793,0.061,572.329
129032,145813,12033,-0.162,1.016,0.074,1.098,1.037,-0.122,572.335
129124,145905,9715,-0.163,1.019,0.075,1.098,1.037,-0.122,572.338
129124,145887,12035,-0.162,1.013,0.074,1.037,1.22,-0.183,572.345
129134,146161,9715,-0.159,1.01,0.075,1.037,1.22,-0.183,572.348
129134,145925,12048,-0.163,1.009,0.076,0.61,1.28,0.061,572.354
129158,145905,9715,-0.163,1.014,0.08,0.61,1.28,0.061,572.358
129158,145917,12047,-0.162,1.013,0.081,0.793,1.402,-0.061,572.364
129135,146161,9715,-0.164,1.01,0.077,0.793,1.402,-0.061,572.368
129135,145930,12053,-0.167,1.007,0.078,1.402,1.341,-0.183,572.374
129108,145905,9715,-0.166,1.012,0.073,1.402,1.341,-0.183,572.378
129108,145876,12047,-0.162,1.014,0.076,1.768,1.037,-0.244,572.384
129102,145905,9715,-0.162,1.013,0.071,1.768,1.037,-0.244,572.388
129102,145842,12040,-0.165,1.014,0.07,1.524,0.854,0.061,572.394
129029,145905,9715,-0.163,1.015,0.075,1.524,0.854,0.061,572.398
129029,145787,12029,-0.16,1.015,0.076,0.793,0.915,-0.122,572.404
128986,145905,9715,-0.159,1.014,0.075,0.793,0.915,-0.122,572.408
128986,145717,12029,-0.164,1.011,0.073,-0.061,1.037,-0.244,572.414
128936,145905,9715,-0.165,1.008,0.074,-0.061,1.037,-0.244,572.418
128936,145689,12041,-0.164,1.009,0.071,-0.305,0.671,0,572.424
128961,145905,9715,-0.164,1.009,0.071,-0.305,0.671,0,572.428
128961,145712,12035,-0.163,1.017,0.077,-0.061,0.427,-0.183,572.434
128941,145905,9715,-0.163,1.017,0.077,-0.061,0.427,-0.183,572.437
128941,145707,12024,-0.165,1.012,0.073,0.854,0.488,-0.549,572.444
128918,145905,9715,-0.165,1.012,0.073,0.854,0.488,-0.549,572.447
128918,145698,12043,-0.168,1.01,0.076,0.366,0.427,-0.244,572.454
128922,145905,9715,-0.168,1.01,0.076,0.366,0.427,-0.244,572.457
128922,145689,12024,-0.169,1.007,0.075,-0.671,0.61,0.122,572.463
128924,145905,9715,-0.169,1.007,0.075,-0.671,0.61,0.122,572.467
128924,145666,12035,-0.17,1.007,0.075,-0.427,0.549,0.061,572.473
128887,145649,9715,-0.17,1.007,0.075,-0.427,0.549,0.061,572.477
128887,145622,12017,-0.165,1.009,0.072,0.122,-0.061,0.305,572.483
128880,145649,9715,-0.165,1.009,0.072,0.122,-0.061,0.305,572.487
128880,145621,12024,-0.163,1.014,0.076,0.183,0.061,0.488,572.493
128863,145649,9715,-0.163,1.014,0.076,0.183,0.061,0.488,572.497
128863,145624,12037,-0.164,1.014,0.076,0.061,0.305,0.488,572.503
128888,145649,9715,-0.164,1.014,0.076,0.061,0.305,0.488,572.507
128888,145637,12019,-0.162,1.01,0.072,-0.244,0.061,0.549,572.513
128871,145649,9715,-0.162,1.01,0.072,-0.244,0.061,0.549,572.517
128871,145610,12030,-0.165,1.012,0.078,-0.427,0.244,0.488,572.523
128900,145649,9715,-0.165,1.012,0.078,-0.427,0.244,0.488,572.527
128900,145653,12028,-0.167,1.012,0.079,-0.061,0.854,0.244,572.533
128908,145649,9715,-0.167,1.012,0.079,-0.061,0.854,0.244,572.536
128908,145657,12054,-0.163,1.008,0.074,0.976,0.549,0.244,572.543
128938,145905,9715,-0.163,1.008,0.074,0.976,0.549,0.244,572.546
128938,145693,12018,-0.161,1.014,0.069,0.549,0.244,0.305,572.553
128919,145905,9715,-0.161,1.014,0.069,0.549,0.244,0.305,572.556
128919,145694,12031,-0.167,1.014,0.076,-0.244,0.732,0.305,572.562
128897,145649,9715,-0.167,1.014,0.076,-0.244,0.732,0.305,572.566
128897,145623,12038,-0.164,1.013,0.079,-0.244,0.732,0.305,572.572
128870,145649,9715,-0.164,1.009,0.075,-0.427,0.793,0.366,572.576
128870,145624,12032,-0.164,1.009,0.07,-0.427,0.793,0.366,572.582
128883,145649,9715,-0.166,1.01,0.068,-0.427,0.244,0.366,572.586
128883,145632,12008,-0.166,1.011,0.072,-0.427,0.244,0.366,572.592
128891,145649,9715,-0.167,1.017,0.07,-0.488,0.061,0.366,572.596
128891,145642,12048,-0.168,1.02,0.067,-0.488,0.061,0.366,572.602
128933,145905,9715,-0.167,1.02,0.07,-0.61,0,0.305,572.606
128933,145715,12049,-0.166,1.016,0.069,-0.61,0,0.305,572.612
128994,145905,9715,-0.167,1.015,0.072,-1.098,-0.122,0.427,572.616
128994,145783,12044,-0.164,1.012,0.073,-1.098,-0.122,0.427,572.622
129010,145905,9715,-0.16,1.009,0.075,-1.585,-0.244,0.61,572.626
129010,145783,12046,-0.158,1.007,0.079,-1.585,-0.244,0.61,572.632
129007,145905,9715,-0.163,1.011,0.08,-1.524,0.061,0.671,572.635
129007,145786,12050,-0.164,1.013,0.079,-1.524,0.061,0.671,572.642
129014,145905,9715,-0.162,1.013,0.08,-0.793,0.427,0.427,572.645
129014,145784,12040,-0.166,1.009,0.08,-0.793,0.427,0.427,572.652
128979,145905,9715,-0.162,1.008,0.08,-0.061,0.122,0.366,572.655
128979,145752,12032,-0.164,1.009,0.081,-0.061,0.122,0.366,572.661
128964,145905,9715,-0.163,1.015,0.078,0.244,0,0.427,572.665
128964,145754,12044,-0.16,1.01,0.079,0.244,0,0.427,572.671
128947,145905,9715,-0.161,1.004,0.08,0.976,0.183,0.122,572.675
128947,145715,12031,-0.162,1.011,0.078,0.976,0.183,0.122,572.681
128937,145905,9715,-0.161,1.016,0.074,0.732,0.061,0.061,572.685
128937,145721,12037,-0.161,1.016,0.073,0.732,0.061,0.061,572.691
128944,145905,9715,-0.165,1.011,0.075,0.244,0.305,-0.061,572.695
128944,145716,12047,-0.168,1.007,0.073,0.244,0.305,-0.061,572.701
128926,145905,9715,-0.168,1.013,0.07,0.366,0.061,0.122,572.705
128926,145739,12044,-0.165,1.016,0.066,0.366,0.061,0.122,572.711
128941,145905,9715,-0.163,1.016,0.069,0.061,-0.732,0.244,572.715
128941,145717,12025,-0.162,1.017,0.068,0.061,-0.732,0.244,572.721
128923,145905,9715,-0.164,1.02,0.07,-0.915,-0.366,0.244,572.725
128923,145734,12021,-0.167,1.017,0.07,-0.915,-0.366,0.244,572.731
128918,145905,9715,-0.17,1.008,0.074,-1.768,0.244,0.488,572.734
128918,145708,12009,-0.169,1.006,0.074,-1.768,0.244,0.488,572.741
128887,145905,9715,-0.165,1.009,0.074,-1.951,-0.061,0.976,572.744
128887,145684,12021,-0.161,1.007,0.079,-1.951,-0.061,0.976,572.751
128879,145649,9715,-0.158,1.006,0.079,-1.159,-0.305,0.854,572.754
128879,145662,12023,-0.159,1.007,0.083,-1.159,-0.305,0.854,572.76
128876,145649,9715,-0.163,1.01,0.08,0,0.244,0.671,572.764
128876,145654,12009,-0.162,1.016,0.081,0,0.244,0.671,572.77
128884,145649,9715,-0.161,1.018,0.08,0.488,0.61,0.488,572.774
128884,145659,12032,-0.162,1.011,0.077,0.488,0.61,0.488,572.78
128903,145905,9715,-0.165,1.009,0.078,0.427,0.427,0.366,572.784
128903,145693,12022,-0.162,1.01,0.079,0.427,0.427,0.366,572.79
128879,145905,9715,-0.161,1.014,0.076,-0.183,0.488,0.305,572.794
128879,145701,12038,-0.162,1.012,0.077,-0.183,0.488,0.305,572.8
128930,145905,9715,-0.162,1.015,0.075,-0.305,0.61,0.061,572.804
128930,145707,12028,-0.162,1.012,0.077,-0.305,0.61,0.061,572.81
128917,145905,9715,-0.163,1.01,0.076,0,0.488,0,572.814
128917,145729,12039,-0.167,1.009,0.073,0,0.488,0,572.82
128928,145905,9715,-0.163,1.012,0.073,0.366,0.488,0.122,572.824
128928,145706,12023,-0.166,1.01,0.077,0.366,0.488,0.122,572.83
128933,145905,9715,-0.169,1.011,0.076,0.671,0.305,0.061,572.833
128933,145691,12023,-0.166,1.01,0.071,0.671,0.305,0.061,572.84
128915,145905,9715,-0.168,1.01,0.068,0.366,0.122,0.183,572.843
128915,145712,12015,-0.168,1.013,0.07,0.366,0.122,0.183,572.85
128921,145905,9715,-0.165,1.01,0.072,-0.244,0.061,0.488,572.853
128921,145700,12025,-0.167,1.01,0.074,-0.244,0.061,0.488,572.859
128942,145905,9715,-0.167,1.016,0.071,-0.549,-0.183,0.61,572.863
128942,145724,12030,-0.164,1.015,0.071,-0.549,-0.183,0.61,572.869
128912,145905,9715,-0.163,1.014,0.073,-0.549,-0.305,0.732,572.873
128912,145706,12028,-0.161,1.015,0.076,-0.549,-0.305,0.732,572.879
128919,145905,9715,-0.161,1.014,0.073,-0.793,-0.122,0.793,572.883
128919,145708,12018,-0.16,1.01,0.076,-0.793,-0.122,0.793,572.889
128925,145905,9715,-0.162,1.011,0.08,-0.915,0,0.549,572.893
128925,145728,12019,-0.162,1.017,0.082,-0.915,0,0.549,572.899
128968,145905,9715,-0.16,1.016,0.081,-0.488,-0.061,0.305,572.903
128968,145761,12024,-0.161,1.014,0.077,-0.488,-0.061,0.305,572.909
128974,145905,9715,-0.162,1.015,0.078,-0.427,-0.122,0.122,572.913
128974,145760,12027,-0.162,1.015,0.075,-0.427,-0.122,0.122,572.919
128956,145905,9715,-0.163,1.014,0.075,-0.427,0.183,0.061,572.923
128956,145774,12020,-0.162,1.008,0.077,-0.427,0.183,0.061,572.929
128911,145905,9715,-0.164,1.006,0.078,-0.305,0.244,0.122,572.932
128911,145702,12023,-0.161,1.008,0.078,-0.305,0.244,0.122,572.939
128874,145905,9715,-0.163,1.01,0.079,-0.61,0.488,0.244,572.942
128874,145690,12020,-0.165,1.011,0.079,-0.61,0.488,0.244,572.949
128878,145905,9715,-0.166,1.007,0.077,-0.305,0.732,0.244,572.952
128878,145677,12029,-0.168,1.009,0.078,-0.305,0.732,0.244,572.958
128823,145649,9715,-0.168,1.016,0.073,0.244,0.549,0.366,572.962
128823,145631,12038,-0.165,1.016,0.075,0.244,0.549,0.366,572.968
128816,145649,9715,-0.163,1.014,0.072,0.488,0.671,0.305,572.972
128816,145634,12025,-0.164,1.015,0.077,0.488,0.671,0.305,572.978
128822,145649,9715,-0.164,1.019,0.083,0.183,1.037,0.366,572.982
128822,145631,12043,-0.161,1.013,0.08,0.183,1.037,0.366,572.988
128836,145649,9715,-0.159,1.008,0.079,-0.061,1.22,0.61,572.992
128836,145649,12016,-0.163,1.01,0.08,-0.061,1.22,0.61,572.998
128837,145905,9715,-0.161,1.009,0.075,0.488,1.037,0.427,573.002
128837,145683,12029,-0.157,1.008,0.076,0.488,1.037,0.427,573.008
128877,145905,9715,-0.157,1.012,0.075,0.732,0.793,0,573.012
128877,145686,12029,-0.16,1.011,0.078,0.732,0.793,0,573.018
128885,145905,9715,-0.16,1.011,0.078,0.732,0.793,0,573.022
128885,145688,12028,-0.164,1.008,0.075,0.915,0.732,-0.305,573.028
128887,145905,9715,-0.164,1.008,0.075,0.915,0.732,-0.305,573.031
128887,145692,12045,-0.164,1.012,0.075,0.366,0.549,-0.061,573.038
128896,145905,9715,-0.164,1.012,0.075,0.366,0.549,-0.061,573.041
128896,145709,12025,-0.168,1.009,0.077,-0.427,0.488,0.183,573.048
128905,145905,9715,-0.168,1.009,0.077,-0.427,0.488,0.183,573.051
128905,145735,12045,-0.165,1.005,0.072,-1.037,0.61,0.427,573.057
128970,145905,9715,-0.165,1.005,0.072,-1.037,0.61,0.427,573.061
128970,145786,12031,-0.168,1.01,0.074,-0.976,0.366,0.427,573.067
128949,145905,9715,-0.168,1.01,0.074,-0.976,0.366,0.427,573.071
128949,145786,12027,-0.167,1.021,0.076,-0.915,0.366,0.488,573.077
128967,145905,9715,-0.167,1.021,0.076,-0.915,0.366,0.488,573.081
128967,145804,12027,-0.162,1.02,0.078,-0.366,0.244,0.366,573.087
128982,145905,9715,-0.162,1.02,0.078,-0.366,0.244,0.366,573.091
128982,145786,12034,-0.165,1.013,0.074,-0.122,0.244,0.366,573.097
128968,145905,9715,-0.165,1.013,0.074,-0.122,0.244,0.366,573.101
128968,145803,12046,-0.166,1.001,0.07,-0.061,0.122,0.366,573.107
128952,145905,9715,-0.166,1.001,0.07,-0.061,0.122,0.366,573.111
128952,145789,12047,-0.165,1.008,0.075,0.061,-0.122,0.366,573.117
128935,145905,9715,-0.165,1.008,0.075,0.061,-0.122,0.366,573.121
128935,145786,12043,-0.157,1.012,0.081,-0.244,-0.671,0.305,573.127
128949,145905,9715,-0.157,1.012,0.081,-0.244,-0.671,0.305,573.131
128949,145753,12036,-0.164,1.01,0.082,-0.61,-0.488,0.183,573.137
128911,145905,9715,-0.164,1.01,0.082,-0.61,-0.488,0.183,573.14
128911,145759,12029,-0.163,1.01,0.081,-1.22,0.061,0.549,573.147
128933,145905,9715,-0.163,1.01,0.081,-1.22,0.061,0.549,573.15
128933,145740,12046,-0.163,1.003,0.082,-1.037,0.305,0.61,573.156
128918,145905,9715,-0.163,1.003,0.082,-1.037,0.305,0.61,573.16
128918,145759,12035,-0.165,1.01,0.073,0.183,0.549,0.61,573.166
128937,145905,9715,-0.162,1.014,0.074,0.183,0.549,0.61,573.17
128937,145810,12047,-0.162,1.015,0.075,0.488,0.732,0.427,573.176
128965,145905,9715,-0.164,1.018,0.075,0.488,0.732,0.427,573.18
128965,145801,12050,-0.167,1.02,0.07,0,0.854,0.366,573.186
128978,145905,9715,-0.165,1.022,0.071,0,0.854,0.366,573.19
128978,145807,12035,-0.165,1.019,0.074,-0.61,0.61,0.244,573.196
128999,145905,9715,-0.166,1.02,0.074,-0.61,0.61,0.244,573.2
128999,145856,12044,-0.168,1.02,0.074,-0.732,0.366,0.122,573.206
129016,145905,9715,-0.169,1.02,0.075,-0.732,0.366,0.122,573.21
129016,145847,12051,-0.167,1.016,0.075,-0.61,0.244,0,573.216
129047,145905,9715,-0.168,1.01,0.077,-0.61,0.244,0,573.22
129047,145897,12052,-0.163,1.004,0.077,-0.366,-0.061,0.061,573.226
129040,146161,9715,-0.165,1.003,0.077,-0.366,-0.061,0.061,573.23
129040,145920,12064,-0.166,1.002,0.078,-0.244,-0.183,0.122,573.236
129048,146161,9715,-0.16,1.003,0.075,-0.244,-0.183,0.122,573.239
129048,145939,12038,-0.159,1.003,0.079,0.122,-0.244,0.122,573.246
129054,146161,9715,-0.161,1.007,0.082,0.122,-0.244,0.122,573.249
129054,145937,12056,-0.161,1.009,0.083,-0.061,0.183,0.427,573.255
129092,146161,9715,-0.161,1.005,0.084,-0.061,0.183,0.427,573.259
129092,145933,12047,-0.165,1.007,0.079,-0.305,0.915,0.549,573.265
129081,146161,9715,-0.165,1.005,0.076,-0.305,0.915,0.549,573.269
129081,145971,12062,-0.164,1.01,0.073,0.122,0.915,0.61,573.275
129111,146161,9715,-0.162,1.016,0.075,0.122,0.915,0.61,573.279
129111,146019,12058,-0.164,1.017,0.071,0,0.793,0.427,573.285
129115,146161,9715,-0.165,1.018,0.075,0,0.793,0.427,573.289
129115,146011,12046,-0.17,1.02,0.073,0.122,1.037,0.366,573.295
129125,146161,9715,-0.169,1.023,0.074,0.122,1.037,0.366,573.299
129125,146024,12060,-0.167,1.023,0.076,0.427,0.793,0.305,573.305
129142,146161,9715,-0.166,1.017,0.075,0.427,0.793,0.305,573.309
129142,146039,12061,-0.169,1.013,0.076,0.61,0.244,0.183,573.315
129134,146161,9715,-0.163,1.01,0.078,0.61,0.244,0.183,573.319
129134,146054,12064,-0.163,1.012,0.067,0.427,0.183,0.061,573.325
129147,146161,9715,-0.163,1.012,0.071,0.427,0.183,0.061,573.329
129147,146056,12053,-0.164,1.01,0.074,0.244,0.366,0.061,573.335
129155,146161,9715,-0.163,1.008,0.074,0.244,0.366,0.061,573.338
129155,146080,12051,-0.162,1.005,0.077,0.122,0.244,0.244,573.345
129177,146161,9715,-0.161,1.003,0.077,0.122,0.244,0.244,573.348
129177,146106,12047,-0.162,1.001,0.076,-0.427,0.366,0.366,573.355
129172,146161,9715,-0.163,1.007,0.078,-0.427,0.366,0.366,573.358
129172,146081,12043,-0.161,1.014,0.08,-0.854,0.732,0.427,573.364
129127,146161,9715,-0.161,1.012,0.081,-0.854,0.732,0.427,573.368
129127,146033,12062,-0.165,1.012,0.079,0,0.732,0.305,573.374
129098,146161,9715,-0.161,1.013,0.076,0,0.732,0.305,573.378
129098,145990,12038,-0.16,1.015,0.082,0.427,0.488,0.427,573.384
129096,146161,9715,-0.162,1.016,0.079,0.427,0.488,0.427,573.388
129096,145961,12060,-0.166,1.015,0.078,0.366,1.037,0.549,573.394
129066,146161,9715,-0.166,1.015,0.079,0.366,1.037,0.549,573.398
129066,145956,12061,-0.165,1.015,0.074,0.671,1.159,0.366,573.404
129060,145905,9715,-0.166,1.013,0.072,0.671,1.159,0.366,573.408
129060,145897,12035,-0.164,1.011,0.071,0.732,0.244,0.244,573.414
129043,145905,9715,-0.164,1.015,0.068,0.732,0.244,0.244,573.418
129043,145912,12033,-0.161,1.017,0.072,-0.183,0.122,0.366,573.424
129047,146161,9715,-0.162,1.016,0.073,-0.183,0.122,0.366,573.428
129047,145958,12035,-0.166,1.016,0.073,-0.61,0.305,0.244,573.434
129124,146161,9715,-0.165,1.01,0.075,-0.61,0.305,0.244,573.437
129124,145996,12055,-0.162,1.006,0.078,-0.793,0,0.244,573.444
129134,146161,9715,-0.162,1.009,0.077,-0.793,0,0.244,573.447
129134,146027,12051,-0.162,1.009,0.078,-0.671,0.305,0.366,573.454
129130,146161,9715,-0.164,1.006,0.077,-0.671,0.305,0.366,573.457
129130,146014,12049,-0.167,1.004,0.075,0.061,0.488,0.244,573.463
129145,146161,9715,-0.166,1.005,0.07,0.061,0.488,0.244,573.467
129145,146029,12056,-0.167,1.008,0.07,0.183,0.061,0.366,573.473
129130,146161,9715,-0.169,1.013,0.073,0.183,0.061,0.366,573.477
129130,146019,12042,-0.166,1.02,0.073,-0.427,-0.061,0.61,573.483
129106,146161,9715,-0.164,1.021,0.075,-0.427,-0.061,0.61,573.487
129106,145987,12048,-0.162,1.017,0.075,-0.976,-0.305,0.732,573.493
129114,146161,9715,-0.165,1.014,0.078,-0.976,-0.305,0.732,573.497
129114,145983,12040,-0.162,1.01,0.078,-1.463,-0.305,0.732,573.503
129106,146161,9715,-0.163,1.007,0.077,-1.463,-0.305,0.732,573.507
129106,145942,12034,-0.162,1.007,0.077,-1.341,0,0.793,573.513
129063,146161,9715,-0.162,1.011,0.077,-1.341,0,0.793,573.517
129063,145924,12054,-0.163,1.016,0.08,-0.671,-0.183,0.549,573.523
129034,145905,9715,-0.159,1.013,0.08,-0.671,-0.183,0.549,573.527
129034,145852,12033,-0.162,1.009,0.079,-0.061,-0.183,0.244,573.533
128995,145905,9715,-0.161,1.01,0.081,-0.061,-0.183,0.244,573.536
128995,145860,12039,-0.164,1.012,0.081,-0.122,0.122,0.183,573.543
128998,145905,9715,-0.163,1.013,0.079,-0.122,0.122,0.183,573.546
128998,145839,12040,-0.16,1.012,0.079,-0.305,0.366,0,573.553
129003,145905,9715,-0.161,1.01,0.079,-0.305,0.366,0,573.556
129003,145846,12037,-0.166,1.011,0.08,-0.244,0.854,-0.122,573.562
129026,145905,9715,-0.166,1.012,0.079,-0.244,0.854,-0.122,573.566
129026,145863,12040,-0.165,1.01,0.079,0.061,1.28,0.122,573.572
129035,145905,9715,-0.163,1.009,0.077,0.061,1.28,0.122,573.576
129035,145892,12063,-0.164,1.012,0.078,0.427,0.976,0.244,573.582
129040,145905,9715,-0.164,1.014,0.076,0.427,0.976,0.244,573.586
129040,145909,12036,-0.161,1.015,0.076,0.427,0.854,0,573.592
129058,145905,9715,-0.167,1.011,0.079,0.427,0.854,0,573.596
129058,145898,12035,-0.168,1.011,0.074,0.732,1.341,0.122,573.602
129025,145905,9715,-0.164,1.012,0.079,0.732,1.341,0.122,573.606
129025,145882,12035,-0.164,1.009,0.078,0.793,1.28,0.427,573.612
128990,145905,9715,-0.164,1.009,0.078,0.793,1.28,0.427,573.616
128990,145818,12052,-0.164,1.003,0.074,0.854,1.098,0.549,573.622
128964,145905,9715,-0.164,1.003,0.074,0.854,1.098,0.549,573.626
128964,145800,12043,-0.159,1.012,0.073,1.098,1.098,0.183,573.632
128950,145905,9715,-0.159,1.012,0.073,1.098,1.098,0.183,573.635
128950,145816,12054,-0.164,1.018,0.078,0.549,1.341,0,573.642
128972,145905,9715,-0.164,1.018,0.078,0.549,1.341,0,573.645
128972,145813,12031,-0.167,1.017,0.075,0.122,1.402,0,573.652
128998,145905,9715,-0.167,1.017,0.075,0.122,1.402,0,573.655
128998,145824,12032,-0.163,1.01,0.069,-0.061,0.671,0.183,573.661
129010,145905,9715,-0.163,1.01,0.069,-0.061,0.671,0.183,573.665
129010,145834,12046,-0.167,1.008,0.075,-0.305,0,0.244,573.671
129044,145905,9715,-0.167,1.008,0.075,-0.305,0,0.244,573.675
129044,145899,12038,-0.168,1.011,0.071,-0.244,0.305,0.122,573.681
129043,145905,9715,-0.168,1.011,0.071,-0.244,0.305,0.122,573.685
129043,145899,12046,-0.166,1.009,0.078,-0.244,0.244,0.366,573.691
129054,145905,9715,-0.166,1.009,0.078,-0.244,0.244,0.366,573.695
129054,145879,12029,-0.161,1.005,0.077,-0.183,0.183,0.671,573.701
129023,145905,9715,-0.161,1.005,0.077,-0.183,0.183,0.671,573.705
129023,145851,12061,-0.164,1.009,0.079,-0.183,0.61,0.793,573.711
129018,145905,9715,-0.164,1.009,0.079,-0.183,0.61,0.793,573.715
129018,145843,12044,-0.167,1.014,0.073,0.183,0.732,0.732,573.721
129007,145905,9715,-0.167,1.014,0.073,0.183,0.732,0.732,573.725
129007,145860,12043,-0.166,1.016,0.071,0.549,0.305,0.61,573.731
129033,145905,9715,-0.166,1.016,0.071,0.549,0.305,0.61,573.734
129033,145896,12062,-0.166,1.013,0.073,0.244,0,0.915,573.741
129017,145905,9715,-0.166,1.013,0.073,0.244,0,0.915,573.744
129017,145874,12050,-0.164,1.012,0.074,-0.488,-0.183,0.793,573.751
129012,145905,9715,-0.164,1.012,0.074,-0.488,-0.183,0.793,573.754
129012,145874,12049,-0.163,1.013,0.074,-0.488,-0.183,0.793,573.76
129025,145905,9715,-0.163,1.013,0.072,-0.915,0,0.732,573.764
129025,145849,12031,-0.16,1.01,0.074,-0.915,0,0.732,573.77
128972,145905,9715,-0.161,1.008,0.08,-0.244,0,0.61,573.774
128972,145796,12044,-0.16,1.008,0.08,-0.244,0,0.61,573.78
128968,145905,9715,-0.161,1.013,0.076,0,0.244,0.549,573.784
128968,145801,12036,-0.161,1.013,0.081,0,0.244,0.549,573.79
128965,145905,9715,-0.162,1.01,0.078,0.244,0.854,0.488,573.794
128965,145783,12047,-0.164,1.009,0.077,0.244,0.854,0.488,573.8
128986,145905,9715,-0.165,1.007,0.072,0.854,0.671,0.427,573.804
128986,145795,12046,-0.162,1.005,0.072,0.854,0.671,0.427,573.81
128961,145905,9715,-0.164,1.006,0.072,0.732,0.427,0.549,573.814
128961,145777,12055,-0.161,1.012,0.073,0.732,0.427,0.549,573.82
128950,145905,9715,-0.162,1.012,0.076,-0.183,0.671,0.732,573.824
128950,145801,12048,-0.161,1.006,0.081,-0.183,0.671,0.732,573.83
128959,145905,9715,-0.165,1.012,0.082,-0.061,1.159,0.732,573.833
128959,145779,12040,-0.166,1.013,0.081,-0.061,1.159,0.732,573.84
128965,145905,9715,-0.161,1.017,0.076,0.915,1.22,0.732,573.843
128965,145778,12045,-0.162,1.016,0.075,0.915,1.22,0.732,573.85
128959,145905,9715,-0.163,1.015,0.075,1.829,0.671,0.366,573.853
128959,145794,12051,-0.165,1.016,0.074,1.829,0.671,0.366,573.859
128967,145905,9715,-0.165,1.016,0.076,1.524,0.915,0.244,573.863
128967,145791,12020,-0.166,1.018,0.074,1.524,0.915,0.244,573.869
128986,145905,9715,-0.166,1.016,0.07,0.793,1.098,0.305,573.873
128986,145837,12051,-0.166,1.01,0.064,0.793,1.098,0.305,573.879
129009,145905,9715,-0.164,1.008,0.069,0.244,0.427,0.183,573.883
129009,145834,12032,-0.162,1.002,0.075,0.244,0.427,0.183,573.889
129011,145905,9715,-0.161,1.003,0.076,-0.305,0.244,0.427,573.893
129011,145855,12042,-0.16,1.002,0.077,-0.305,0.244,0.427,573.899
129023,145905,9715,-0.165,1.007,0.078,-0.732,0.793,0.732,573.903
129023,145854,12033,-0.166,1.014,0.076,-0.732,0.793,0.732,573.909
129007,145905,9715,-0.164,1.013,0.072,0.244,1.037,0.549,573.913
129007,145837,12047,-0.163,1.009,0.074,0.244,1.037,0.549,573.919
129024,145905,9715,-0.163,1.012,0.077,0.976,0.915,0.427,573.923
129024,145834,12053,-0.164,1.015,0.074,0.976,0.915,0.427,573.929
129020,145905,9715,-0.165,1.018,0.075,0.976,1.22,0.427,573.932
129020,145833,12023,-0.167,1.017,0.074,0.976,1.22,0.427,573.939
129000,145905,9715,-0.166,1.016,0.072,1.098,1.28,0.427,573.942
129000,145829,12047,-0.164,1.015,0.075,1.098,1.28,0.427,573.949
129008,145905,9715,-0.162,1.015,0.073,0.671,0.732,0.244,573.952
129008,145816,12039,-0.165,1.015,0.071,0.671,0.732,0.244,573.958
129001,145905,9715,-0.168,1.016,0.07,0.244,0.793,0.183,573.962
129001,145808,12043,-0.167,1.009,0.07,0.244,0.793,0.183,573.968
129020,145905,9715,-0.163,1.004,0.07,0.366,0.671,0.427,573.972
129020,145849,12031,-0.163,1.009,0.069,0.366,0.671,0.427,573.978
129014,145905,9715,-0.158,1.012,0.072,0.061,0.366,0.61,573.982
129014,145839,12040,-0.158,1.012,0.075,0.061,0.366,0.61,573.988
129052,145905,9715,-0.159,1.012,0.074,-0.244,0.671,0.183,573.992
129052,145860,12030,-0.162,1.008,0.076,-0.244,0.671,0.183,573.998
129017,145905,9715,-0.164,1.009,0.079,-0.427,0.915,0.183,574.002
129017,145863,12039,-0.165,1.008,0.077,-0.427,0.915,0.183,574.008
129011,145905,9715,-0.167,1.009,0.074,-0.732,1.159,0.305,574.012
129011,145835,12045,-0.166,1.009,0.07,-0.732,1.159,0.305,574.018
128987,145905,9715,-0.162,1.011,0.075,0.305,1.037,0.305,574.022
128987,145811,12027,-0.162,1.014,0.071,0.305,1.037,0.305,574.028
128945,145905,9715,-0.164,1.017,0.069,1.037,0.732,0.244,574.032
128945,145784,12034,-0.165,1.012,0.068,1.037,0.732,0.244,574.038
128962,145905,9715,-0.165,1.008,0.07,0.671,0.549,0.305,574.041
128962,145759,12031,-0.168,1.011,0.068,0.671,0.549,0.305,574.048
128951,145905,9715,-0.163,1.013,0.072,0.366,0.427,0.732,574.051
128951,145777,12040,-0.162,1.013,0.071,0.366,0.427,0.732,574.057
128978,145905,9715,-0.158,1.014,0.072,0.793,0.427,0.549,574.061
128978,145785,12030,-0.16,1.016,0.077,0.793,0.427,0.549,574.067
128999,145905,9715,-0.163,1.018,0.071,0.793,0.732,0.366,574.071
128999,145833,12034,-0.166,1.019,0.073,0.793,0.732,0.366,574.077
129015,145905,9715,-0.164,1.017,0.067,1.037,0.915,0.244,574.081
129015,145815,12023,-0.164,1.012,0.071,1.037,0.915,0.244,574.087
129000,145905,9715,-0.161,1.008,0.073,0.732,0.61,0.122,574.091
129000,145840,12040,-0.161,1.009,0.07,0.732,0.61,0.122,574.097
129017,145905,9715,-0.164,1.006,0.069,0,0.61,0.366,574.101
129017,145847,12019,-0.164,1.01,0.075,0,0.61,0.366,574.107
129037,145905,9715,-0.164,1.011,0.07,0.366,1.037,0.244,574.111
129037,145847,12031,-0.166,1.013,0.068,0.366,1.037,0.244,574.117
129052,145905,9715,-0.166,1.011,0.072,0.854,0.732,0,574.121
129052,145897,12041,-0.164,1.011,0.07,0.854,0.732,0,574.127
129065,145905,9715,-0.163,1.012,0.073,0.61,0.366,0.183,574.131
129065,145879,12044,-0.163,1.015,0.076,0.61,0.366,0.183,574.137
129074,145905,9715,-0.162,1.013,0.073,0.061,0.793,0.549,574.14
129074,145901,12039,-0.163,1.008,0.07,0.061,0.793,0.549,574.147
129055,145905,9715,-0.162,1.004,0.069,0,0.854,0.488,574.15
129055,145868,12036,-0.166,1.01,0.068,0,0.854,0.488,574.156
129048,145905,9715,-0.17,1.01,0.067,-0.061,0.61,0.549,574.16
129048,145861,12039,-0.167,1.013,0.071,-0.061,0.61,0.549,574.166
129043,145905,9715,-0.164,1.016,0.072,-0.427,0.427,0.671,574.17
129043,145834,12039,-0.165,1.015,0.07,-0.427,0.427,0.671,574.176
129044,145905,9715,-0.168,1.014,0.069,-0.366,0.183,0.854,574.18
129044,145866,12034,-0.161,1.014,0.068,-0.366,0.183,0.854,574.186
129056,145905,9715,-0.161,1.015,0.068,-0.122,-0.244,0.732,574.19
129056,145863,12036,-0.159,1.014,0.065,-0.122,-0.244,0.732,574.196
129070,145905,9715,-0.157,1.015,0.069,-0.244,-0.305,0.549,574.2
129070,145899,12039,-0.159,1.013,0.073,-0.244,-0.305,0.549,574.206
129088,146161,9715,-0.159,1.013,0.073,-0.244,-0.305,0.549,574.21
129088,145928,12037,-0.162,1.012,0.071,-0.488,-0.122,0.366,574.216
129123,146161,9715,-0.162,1.012,0.071,-0.488,-0.122,0.366,574.22
129123,145940,12032,-0.163,1.01,0.077,-1.098,-0.122,0.244,574.226
129114,146161,9715,-0.163,1.01,0.077,-1.098,-0.122,0.244,574.23
129114,145957,12047,-0.16,1.005,0.079,-1.098,0.244,0.305,574.236
129098,146161,9715,-0.16,1.005,0.079,-1.098,0.244,0.305,574.239
129098,145924,12038,-0.162,1.011,0.08,-0.061,0.61,0.366,574.246
129096,146161,9715,-0.162,1.011,0.08,-0.061,0.61,0.366,574.249
129096,145957,12049,-0.16,1.01,0.075,0.793,1.159,0.427,574.255
129095,146161,9715,-0.16,1.01,0.075,0.793,1.159,0.427,574.259
129095,145977,12039,-0.165,1.014,0.068,1.707,1.646,0.305,574.265
129089,146161,9715,-0.165,1.014,0.068,1.707,1.646,0.305,574.269
129089,145926,12058,-0.165,1.014,0.065,1.829,1.829,0.183,574.275
129106,146161,9715,-0.165,1.014,0.065,1.829,1.829,0.183,574.279
129106,145940,12042,-0.166,1.013,0.065,1.402,1.524,0.305,574.285
129139,146161,9715,-0.166,1.013,0.065,1.402,1.524,0.305,574.289
129139,145981,12036,-0.168,1.011,0.069,0.915,1.28,0.488,574.295
129152,146161,9715,-0.168,1.011,0.069,0.915,1.28,0.488,574.299
129152,146001,12046,-0.164,1.014,0.067,0.61,1.037,0.549,574.305
129176,146161,9715,-0.164,1.014,0.067,0.61,1.037,0.549,574.309
129176,146015,12051,-0.161,1.014,0.073,0.549,1.037,0.366,574.315
129201,146161,9715,-0.161,1.014,0.073,0.549,1.037,0.366,574.319
129201,146054,12064,-0.161,1.009,0.072,0.793,1.159,0.366,574.325
129210,146161,9715,-0.161,1.009,0.072,0.793,1.159,0.366,574.329
129210,146053,12050,-0.155,1.007,0.071,0.854,1.098,0.122,574.335
129222,146161,9715,-0.155,1.007,0.071,0.854,1.098,0.122,574.339
129222,146075,12054,-0.162,1.012,0.072,1.341,1.098,-0.122,574.345
129223,146161,9715,-0.162,1.012,0.072,1.341,1.098,-0.122,574.348
129223,146068,12059,-0.164,1.017,0.071,1.585,1.22,-0.366,574.355
129218,146161,9715,-0.164,1.017,0.071,1.585,1.22,-0.366,574.358
129218,146081,12064,-0.171,1.015,0.073,1.037,1.098,-0.366,574.364
129194,146161,9715,-0.171,1.01,0.066,1.037,1.098,-0.366,574.368
129194,146040,12051,-0.167,1.009,0.063,0.61,0.549,0,574.374
129174,146161,9715,-0.166,1.01,0.064,0.61,0.549,0,574.378
129174,146021,12071,-0.166,1.011,0.064,0,0.366,0.244,574.384
129192,146161,9715,-0.167,1.006,0.067,0,0.366,0.244,574.388
129192,146007,12061,-0.171,1.006,0.069,-0.976,0.671,0.61,574.394
129157,146161,9715,-0.17,1.01,0.067,-0.976,0.671,0.61,574.398
129157,145991,12049,-0.167,1.011,0.066,-1.037,0.183,1.037,574.404
129146,146161,9715,-0.164,1.012,0.068,-1.037,0.183,1.037,574.408
129146,145976,12037,-0.163,1.011,0.069,-0.427,-0.427,0.976,574.414
129127,146161,9715,-0.163,1.011,0.069,-0.427,-0.427,0.976,574.418
129127,145979,12042,-0.16,1.013,0.069,-0.122,-0.183,0.793,574.424
129134,146161,9715,-0.163,1.016,0.066,-0.122,-0.183,0.793,574.428
129134,145977,12051,-0.161,1.016,0.069,-0.244,0.244,0.671,574.434
129147,146161,9715,-0.162,1.016,0.074,-0.244,0.244,0.671,574.438
129147,146022,12052,-0.164,1.015,0.073,0,0.122,0.427,574.444
129173,146161,9715,-0.16,1.014,0.069,0,0.122,0.427,574.447
129173,146058,12046,-0.162,1.014,0.07,-0.244,-0.183,0.305,574.454
129184,146161,9715,-0.164,1.008,0.066,-0.244,-0.183,0.305,574.457
129184,146058,12062,-0.165,1.009,0.072,-0.488,-0.305,0.305,574.463
129176,146161,9715,-0.163,1.015,0.073,-0.488,-0.305,0.305,574.467
129176,146036,12064,-0.16,1.011,0.073,-0.61,-0.366,0.244,574.473
129161,146161,9715,-0.16,1.007,0.072,-0.61,-0.366,0.244,574.477
129161,146021,12038,-0.162,1.01,0.068,-0.488,-0.122,0.366,574.483
129122,146161,9715,-0.165,1.009,0.069,-0.488,-0.122,0.366,574.487
129122,145970,12044,-0.164,1.008,0.068,-0.915,-0.122,0.549,574.493
129120,146161,9715,-0.164,1.008,0.073,-0.915,-0.122,0.549,574.497
129120,145964,12044,-0.163,1.01,0.072,-1.098,-0.244,0.732,574.503
129108,146161,9715,-0.166,1.015,0.071,-1.098,-0.244,0.732,574.507
129108,145953,12037,-0.165,1.015,0.071,-0.976,0.061,0.671,574.513
129112,146161,9715,-0.163,1.014,0.069,-0.976,0.061,0.671,574.517
129112,145965,12050,-0.164,1.01,0.07,-0.61,0.122,0.671,574.523
129154,146161,9715,-0.165,1.01,0.07,-0.61,0.122,0.671,574.527
129154,145993,12044,-0.164,1.006,0.071,-0.183,0.061,0.671,574.533
129186,146161,9715,-0.164,1.008,0.074,-0.183,0.061,0.671,574.536
129186,146018,12059,-0.164,1.017,0.068,0.366,0.244,0.671,574.543
129222,146161,9715,-0.162,1.02,0.07,0.366,0.244,0.671,574.546
129222,146072,12047,-0.16,1.019,0.072,0.854,0.183,0.244,574.553
129239,146161,9715,-0.16,1.015,0.071,0.854,0.183,0.244,574.556
129239,146098,12058,-0.162,1.013,0.069,0.427,0.305,0.183,574.562
129246,146161,9715,-0.161,1.014,0.068,0.427,0.305,0.183,574.566
129246,146115,12067,-0.16,1.014,0.07,-0.488,0.427,0.366,574.572
129271,146161,9715,-0.161,1.009,0.069,-0.488,0.427,0.366,574.576
129271,146111,12065,-0.163,1.009,0.073,-1.28,0.305,0.244,574.582
129253,146161,9715,-0.159,1.012,0.073,-1.28,0.305,0.244,574.586
129253,146121,12067,-0.161,1.011,0.073,-1.402,0.244,0.122,574.592
129274,146161,9715,-0.162,1.007,0.069,-1.402,0.244,0.122,574.596
129274,146149,12072,-0.163,1.004,0.072,-1.159,0.183,0.244,574.602
129298,146161,9715,-0.161,1.009,0.072,-1.159,0.183,0.244,574.606
129298,146171,12059,-0.164,1.012,0.072,-0.793,0.305,0.427,574.612
129280,146417,9715,-0.164,1.012,0.073,-0.793,0.305,0.427,574.616
129280,146181,12063,-0.165,1.012,0.074,0.061,0.366,0.366,574.622
129300,146161,9715,-0.168,1.014,0.069,0.061,0.366,0.366,574.626
129300,146163,12054,-0.165,1.018,0.069,0.549,0.244,0.305,574.632
129313,146417,9715,-0.161,1.015,0.068,0.549,0.244,0.305,574.636
129313,146196,12065,-0.165,1.012,0.065,0.427,0.183,0.366,574.642
129265,146161,9715,-0.169,1.012,0.072,0.427,0.183,0.366,574.645
129265,146159,12057,-0.167,1.01,0.068,0.061,0.122,0.427,574.652
129255,146161,9715,-0.165,1.01,0.065,0.061,0.122,0.427,574.655
129255,146144,12054,-0.163,1.014,0.07,-0.366,-0.122,0.488,574.661
129284,146161,9715,-0.165,1.012,0.073,-0.366,-0.122,0.488,574.665
129284,146175,12050,-0.165,1.01,0.07,-0.427,-0.244,0.61,574.671
129298,146417,9715,-0.164,1.007,0.075,-0.427,-0.244,0.61,574.675
129298,146179,12059,-0.164,1.007,0.074,-0.793,-0.244,0.732,574.681
129267,146161,9715,-0.164,1.011,0.066,-0.793,-0.244,0.732,574.685
129267,146165,12053,-0.163,1.013,0.066,-0.671,-0.122,0.732,574.691
129260,146161,9715,-0.162,1.012,0.068,-0.671,-0.122,0.732,574.695
129260,146159,12048,-0.162,1.015,0.067,-0.366,-0.183,0.671,574.701
129276,146161,9715,-0.159,1.015,0.07,-0.366,-0.183,0.671,574.705
129276,146162,12052,-0.161,1.014,0.075,-0.793,-0.183,0.671,574.711
129263,146161,9715,-0.16,1.014,0.076,-0.793,-0.183,0.671,574.715
129263,146143,12042,-0.163,1.015,0.073,-0.976,-0.122,0.549,574.721
129267,146161,9715,-0.163,1.014,0.069,-0.976,-0.122,0.549,574.725
129267,146124,12047,-0.162,1.012,0.068,-1.22,-0.244,0.244,574.731
129234,146161,9715,-0.161,1.014,0.066,-1.22,-0.244,0.244,574.734
129234,146082,12063,-0.163,1.014,0.07,-1.28,-0.183,0,574.741
129199,146161,9715,-0.167,1.012,0.069,-1.28,-0.183,0,574.744
129199,146095,12042,-0.166,1.011,0.072,-1.22,-0.061,0.061,574.751
129183,146161,9715,-0.165,1.01,0.075,-1.22,-0.061,0.061,574.754
129183,146047,12054,-0.163,1.009,0.08,-1.646,0.061,0.305,574.761
129173,146161,9715,-0.165,1.002,0.082,-1.646,0.061,0.305,574.764
129173,146051,12038,-0.164,1.002,0.081,-1.463,0.244,0.549,574.77
129180,146161,9715,-0.162,1.001,0.076,-1.463,0.244,0.549,574.774
129180,146043,12046,-0.157,0.998,0.073,-0.488,0,0.671,574.78
129172,146161,9715,-0.157,1.005,0.076,-0.488,0,0.671,574.784
129172,146054,12054,-0.159,1.014,0.07,0.305,0.122,0.549,574.79
129178,146161,9715,-0.159,1.018,0.072,0.305,0.122,0.549,574.794
129178,146042,12055,-0.161,1.02,0.073,0.61,0.305,0.183,574.8
129186,146161,9715,-0.164,1.02,0.067,0.61,0.305,0.183,574.804
129186,146059,12046,-0.167,1.02,0.062,0,0.244,0.244,574.81
129204,146161,9715,-0.167,1.02,0.062,0,0.244,0.244,574.814
129204,146079,12061,-0.166,1.015,0.072,-1.159,-0.183,0.488,574.82
129169,146161,9715,-0.166,1.015,0.072,-1.159,-0.183,0.488,574.824
129169,146074,12054,-0.167,1.013,0.066,-2.012,-0.732,0.671,574.83
129156,146161,9715,-0.167,1.013,0.066,-2.012,-0.732,0.671,574.834
129156,146012,12046,-0.162,1.008,0.069,-2.195,-1.22,0.549,574.84
129137,146161,9715,-0.162,1.008,0.069,-2.195,-1.22,0.549,574.843
129137,146028,12054,-0.157,1.015,0.075,-2.439,-0.854,0.61,574.85
129168,146161,9715,-0.157,1.015,0.075,-2.439,-0.854,0.61,574.853
129168,146012,12033,-0.161,1.016,0.071,-1.951,-0.061,0.366,574.859
129154,146161,9715,-0.161,1.016,0.071,-1.951,-0.061,0.366,574.863
129154,146044,12038,-0.163,1.01,0.075,-1.159,-0.122,0,574.869
129176,146161,9715,-0.163,1.01,0.075,-1.159,-0.122,0,574.873
129176,146029,12056,-0.165,1.013,0.079,-1.037,-0.366,0.061,574.879
129172,146161,9715,-0.165,1.013,0.079,-1.037,-0.366,0.061,574.883
129172,146042,12038,-0.166,1.012,0.074,-1.159,-0.366,0.244,574.889
129174,146161,9715,-0.166,1.012,0.074,-1.159,-0.366,0.244,574.893
129174,146042,12057,-0.162,1.017,0.075,-0.976,-0.61,0.183,574.899
129177,146161,9715,-0.162,1.017,0.075,-0.976,-0.61,0.183,574.903
129177,146031,12043,-0.161,1.016,0.078,-1.159,-0.854,0.122,574.909
129150,146161,9715,-0.161,1.016,0.078,-1.159,-0.854,0.122,574.913
129150,146018,12056,-0.165,1.012,0.075,-1.646,-0.244,0.305,574.919
129145,146161,9715,-0.165,1.012,0.075,-1.646,-0.244,0.305,574.923
129145,145999,12038,-0.163,1.012,0.071,-1.463,-0.061,0.366,574.929
129133,146161,9715,-0.163,1.012,0.071,-1.463,-0.061,0.366,574.933
129133,145983,12052,-0.161,1.005,0.078,-0.915,-0.244,0.244,574.939
129112,146161,9715,-0.161,1.005,0.078,-0.915,-0.244,0.244,574.942
129112,145937,12035,-0.161,1.002,0.081,-0.732,0.183,0.305,574.949
129050,145905,9715,-0.161,1.002,0.081,-0.732,0.183,0.305,574.952
129050,145914,12049,-0.16,1.003,0.082,-0.732,0.183,0.305,574.959
129010,145905,9715,-0.161,1.006,0.085,-0.549,0.732,0.305,574.962
129010,145837,12028,-0.161,1.007,0.079,-0.549,0.732,0.305,574.968
128989,145905,9715,-0.16,1.012,0.075,0.305,0.671,0.122,574.972
128989,145817,12041,-0.161,1.016,0.074,0.305,0.671,0.122,574.978
128932,145905,9715,-0.163,1.023,0.074,0.61,0.671,0,574.982
128932,145745,12023,-0.164,1.022,0.075,0.61,0.671,0,574.988
128870,145905,9715,-0.161,1.018,0.078,0.244,0.854,0.061,574.992
128870,145703,12036,-0.162,1.015,0.076,0.244,0.854,0.061,574.998
128875,145905,9715,-0.166,1.011,0.077,-0.122,0.854,0.183,575.002
128875,145676,12032,-0.166,1.011,0.078,-0.122,0.854,0.183,575.008
128884,145905,9715,-0.161,1.011,0.077,-0.061,0.549,0.183,575.012
128884,145688,12035,-0.159,1.014,0.076,-0.061,0.549,0.183,575.018
128904,145905,9715,-0.161,1.012,0.075,0.427,0.549,-0.061,575.022
128904,145730,12026,-0.162,1.007,0.074,0.427,0.549,-0.061,575.028
128910,145905,9715,-0.165,1.009,0.074,0.732,0.793,-0.122,575.032
128910,145755,12038,-0.163,1.009,0.075,0.732,0.793,-0.122,575.038
128919,145905,9715,-0.164,1.014,0.074,0,0.854,0.122,575.041
128919,145768,12029,-0.165,1.014,0.073,0,0.854,0.122,575.048
128902,145905,9715,-0.164,1.014,0.075,-0.549,0.915,0.183,575.051
128902,145721,12027,-0.163,1.007,0.079,-0.549,0.915,0.183,575.057
128886,145905,9715,-0.165,1.006,0.081,-0.549,0.976,0.427,575.061
128886,145708,12030,-0.167,1.01,0.076,-0.549,0.976,0.427,575.067
128856,145905,9715,-0.166,1.01,0.073,-0.183,0.915,0.549,575.071
128856,145674,12032,-0.165,1.014,0.074,-0.183,0.915,0.549,575.077
128836,145649,9715,-0.164,1.014,0.072,0.793,0.915,0.427,575.081
128836,145663,12023,-0.163,1.015,0.072,0.793,0.915,0.427,575.087
128795,145649,9715,-0.163,1.017,0.07,0.976,0.427,0.427,575.091
128795,145600,12024,-0.163,1.019,0.074,0.976,0.427,0.427,575.097
128792,145649,9715,-0.161,1.017,0.072,0.244,0.427,0.366,575.101
128792,145584,12037,-0.163,1.016,0.075,0.244,0.427,0.366,575.107
128767,145649,9715,-0.161,1.015,0.078,-0.976,1.037,0.122,575.111
128767,145546,12024,-0.163,1.011,0.078,-0.976,1.037,0.122,575.117
128735,145649,9715,-0.169,1.01,0.076,-1.646,1.341,0.061,575.121
128735,145518,12004,-0.166,1.01,0.079,-1.646,1.341,0.061,575.127
128713,145649,9715,-0.163,1.011,0.079,-1.22,1.098,0,575.131
128713,145528,12026,-0.165,1.01,0.083,-1.22,1.098,0,575.137
128715,145649,9715,-0.165,1.008,0.077,-0.061,0.732,-0.122,575.14
128715,145511,12019,-0.164,1.006,0.071,-0.061,0.732,-0.122,575.147
128710,145649,9715,-0.165,1.006,0.074,0.427,0.488,0,575.15
128710,145491,12015,-0.164,1.007,0.073,0.427,0.488,0,575.157
128674,145649,9715,-0.165,1.008,0.069,-0.061,0.244,0.183,575.16
128674,145490,12009,-0.167,1.01,0.073,-0.061,0.244,0.183,575.166
128648,145649,9715,-0.167,1.01,0.073,-0.549,0,0.305,575.17
128648,145456,12018,-0.166,1.016,0.071,-0.549,0,0.305,575.176
128632,145649,9715,-0.164,1.018,0.074,-0.793,-0.244,0.488,575.18
128632,145457,12017,-0.163,1.019,0.074,-0.793,-0.244,0.488,575.186
128637,145649,9715,-0.164,1.014,0.074,-1.098,-0.366,0.671,575.19
128637,145435,12016,-0.163,1.015,0.077,-1.098,-0.366,0.671,575.196
128615,145649,9715,-0.164,1.014,0.074,-1.159,0.122,0.732,575.2
128615,145424,12025,-0.167,1.011,0.074,-1.159,0.122,0.732,575.206
128626,145393,9715,-0.162,1.012,0.078,-0.915,0.488,0.549,575.21
128626,145388,12015,-0.16,1.01,0.08,-0.915,0.488,0.549,575.216
128602,145393,9715,-0.162,1.007,0.082,-0.305,0.549,0.366,575.22
128602,145369,12021,-0.164,1.007,0.084,-0.305,0.549,0.366,575.226
128613,145393,9715,-0.16,1.01,0.079,0.305,0.427,0.183,575.23
128613,145380,12014,-0.16,1.013,0.071,0.305,0.427,0.183,575.236
128626,145649,9715,-0.159,1.015,0.073,0.488,0.244,0.183,575.24
128626,145417,12022,-0.163,1.012,0.077,0.488,0.244,0.183,575.246
128646,145649,9715,-0.164,1.011,0.078,0.183,0.427,-0.061,575.249
128646,145411,12020,-0.164,1.009,0.079,0.183,0.427,-0.061,575.256
128636,145649,9715,-0.164,1.007,0.078,-0.305,0.671,0.244,575.259
128636,145413,12025,-0.162,1.011,0.077,-0.305,0.671,0.244,575.265
128613,145649,9715,-0.162,1.01,0.079,-0.427,0.488,0.244,575.269
128613,145417,12037,-0.164,1.007,0.08,-0.427,0.488,0.244,575.275
128616,145649,9715,-0.166,1.006,0.074,0.061,0.549,0.183,575.279
128616,145414,12021,-0.165,1.007,0.075,0.061,0.549,0.183,575.285
128648,145649,9715,-0.164,1.009,0.074,0.854,0.488,0.244,575.289
128648,145427,12009,-0.161,1.011,0.075,0.854,0.488,0.244,575.295
128630,145649,9715,-0.159,1.014,0.081,0.671,0.61,0.366,575.299
128630,145422,12019,-0.163,1.015,0.077,0.671,0.61,0.366,575.305
128650,145649,9715,-0.162,1.014,0.079,0.427,0.854,0.305,575.309
128650,145438,12012,-0.162,1.013,0.08,0.427,0.854,0.305,575.315
128648,145649,9715,-0.167,1.01,0.075,0.671,1.098,0.305,575.319
128648,145475,12016,-0.164,1.008,0.075,0.671,1.098,0.305,575.325
128695,145649,9715,-0.161,1.009,0.075,0.61,0.671,0.305,575.329
128695,145486,12010,-0.16,1.014,0.076,0.61,0.671,0.305,575.335
128705,145649,9715,-0.16,1.015,0.079,0.732,0.732,0.122,575.339
128705,145496,12013,-0.163,1.016,0.078,0.732,0.732,0.122,575.345
128716,145649,9715,-0.165,1.017,0.078,0.976,1.22,-0.061,575.348
128716,145501,12015,-0.166,1.015,0.077,0.976,1.22,-0.061,575.355
128772,145649,9715,-0.168,1.009,0.075,0.671,0.915,-0.061,575.358
128772,145553,12019,-0.163,1.009,0.076,0.671,0.915,-0.061,575.364
128767,145649,9715,-0.162,1.01,0.074,0.61,0.488,0.183,575.368
128767,145572,12017,-0.166,1.012,0.067,0.61,0.488,0.183,575.374
128789,145649,9715,-0.165,1.01,0.067,0.549,0.732,0.061,575.378
128789,145600,12021,-0.167,1.008,0.068,0.549,0.732,0.061,575.384
128862,145905,9715,-0.167,1.013,0.068,0.549,0.915,-0.061,575.388
128862,145666,12026,-0.17,1.018,0.073,0.549,0.915,-0.061,575.394
128943,145905,9715,-0.169,1.017,0.074,-0.427,0.61,0.183,575.398
128943,145777,12037,-0.164,1.011,0.073,-0.427,0.61,0.183,575.404
129012,145905,9715,-0.164,1.011,0.073,-0.427,0.61,0.183,575.408
129012,145861,12042,-0.165,1.01,0.079,-1.22,0.366,0.549,575.414
129075,146161,9715,-0.165,1.01,0.079,-1.22,0.366,0.549,575.418
129075,145922,12038,-0.166,1.005,0.077,-0.915,0.244,0.671,575.424
129106,146161,9715,-0.166,1.005,0.077,-0.915,0.244,0.671,575.428
129106,145967,12038,-0.165,1.011,0.076,0.061,0.183,0.549,575.434
129108,146161,9715,-0.165,1.011,0.076,0.061,0.183,0.549,575.438
129108,145994,12047,-0.16,1.02,0.071,0.488,0.061,0.488,575.444
129099,146161,9715,-0.16,1.02,0.071,0.488,0.061,0.488,575.447
129099,145972,12033,-0.165,1.027,0.07,0.061,0.061,0.305,575.454
129077,145905,9715,-0.165,1.027,0.07,0.061,0.061,0.305,575.457
129077,145904,12050,-0.163,1.012,0.075,-0.61,-0.061,-0.061,575.463
129066,145905,9715,-0.163,1.012,0.075,-0.61,-0.061,-0.061,575.467
129066,145890,12025,-0.165,1.01,0.072,-1.341,-0.366,0.122,575.473
129049,146161,9715,-0.165,1.01,0.072,-1.341,-0.366,0.122,575.477
129049,145924,12045,-0.16,1.007,0.078,-1.951,-0.122,0.366,575.483
129078,146161,9715,-0.16,1.007,0.078,-1.951,-0.122,0.366,575.487
129078,145960,12043,-0.164,1.004,0.08,-1.22,0.122,0.183,575.493
129118,146161,9715,-0.164,1.004,0.08,-1.22,0.122,0.183,575.497
129118,145994,12039,-0.163,1.006,0.072,-0.488,0.366,0.183,575.503
129152,146161,9715,-0.163,1.006,0.072,-0.488,0.366,0.183,575.507
129152,146036,12047,-0.163,1.007,0.078,-0.549,0.793,0.549,575.513
129155,146161,9715,-0.163,1.007,0.078,-0.549,0.793,0.549,575.517
129155,146025,12041,-0.165,1.012,0.075,-0.671,1.159,0.671,575.523
129170,146161,9715,-0.165,1.012,0.075,-0.671,1.159,0.671,575.527
129170,146075,12049,-0.164,1.018,0.072,-0.549,1.402,0.61,575.533
129199,146161,9715,-0.164,1.018,0.072,-0.549,1.402,0.61,575.536
129199,146043,12051,-0.164,1.021,0.072,-0.61,1.098,0.671,575.543
129169,146161,9715,-0.164,1.021,0.072,-0.61,1.098,0.671,575.546
129169,146033,12053,-0.162,1.017,0.074,-1.585,0.854,0.732,575.553
129194,146161,9715,-0.165,1.011,0.077,-1.585,0.854,0.732,575.556
129194,146054,12039,-0.163,1.007,0.076,-1.768,0.732,0.61,575.562
129172,146161,9715,-0.162,1.005,0.076,-1.768,0.732,0.61,575.566
129172,146071,12057,-0.161,1.007,0.078,-1.037,0,0.244,575.572
129180,146161,9715,-0.16,1.01,0.079,-1.037,0,0.244,575.576
129180,146076,12049,-0.159,1.013,0.082,-0.305,-0.244,0.061,575.582
129179,146161,9715,-0.16,1.017,0.081,-0.305,-0.244,0.061,575.586
129179,146064,12058,-0.161,1.019,0.083,0.427,0.488,-0.122,575.592
129192,146161,9715,-0.162,1.014,0.081,0.427,0.488,-0.122,575.596
129192,146053,12034,-0.165,1.006,0.08,0.732,1.098,-0.244,575.602
129172,146161,9715,-0.163,1.009,0.077,0.732,1.098,-0.244,575.606
129172,146065,12060,-0.161,1.009,0.069,0.61,0.976,0.122,575.612
129185,146161,9715,-0.163,1.013,0.072,0.61,0.976,0.122,575.616
129185,146061,12057,-0.165,1.014,0.077,0.305,0.915,0.061,575.622
129185,146161,9715,-0.168,1.011,0.077,0.305,0.915,0.061,575.626
129185,146108,12071,-0.168,1.008,0.075,0,1.159,0.122,575.632
129182,146161,9715,-0.169,1.012,0.073,0,1.159,0.122,575.635
129182,146049,12055,-0.17,1.013,0.075,-0.61,0.854,0.427,575.642
129137,146161,9715,-0.164,1.013,0.077,-0.61,0.854,0.427,575.645
129137,146057,12063,-0.161,1.015,0.08,-0.427,0.488,0.549,575.652
129165,146161,9715,-0.163,1.011,0.077,-0.427,0.488,0.549,575.655
129165,146035,12051,-0.165,1.009,0.077,0.122,0.732,0.427,575.661
129183,146161,9715,-0.164,1.009,0.075,0.122,0.732,0.427,575.665
129183,146063,12058,-0.162,1.011,0.075,0.122,0.671,0.427,575.671
129201,146161,9715,-0.163,1.012,0.076,0.122,0.671,0.427,575.675
129201,146061,12056,-0.161,1.014,0.075,0.549,0.427,0.305,575.681
129220,146161,9715,-0.163,1.017,0.077,0.549,0.427,0.305,575.685
129220,146092,12063,-0.162,1.019,0.075,0.915,0.732,0,575.691
129190,146161,9715,-0.164,1.017,0.077,0.915,0.732,0,575.695
129190,146122,12042,-0.166,1.013,0.072,0.305,0.61,-0.244,575.701
129205,146161,9715,-0.169,1.008,0.072,0.305,0.61,-0.244,575.705
129205,146112,12059,-0.172,1.005,0.07,-0.732,0.244,0.122,575.711
129179,146161,9715,-0.171,1.002,0.072,-0.732,0.244,0.122,575.715
129179,146070,12062,-0.17,1.005,0.073,-0.793,0.122,0.427,575.721
129172,146161,9715,-0.166,1.011,0.071,-0.793,0.122,0.427,575.725
129172,146040,12050,-0.166,1.013,0.076,-0.732,-0.183,0.427,575.731
129175,146161,9715,-0.165,1.01,0.074,-0.732,-0.183,0.427,575.734
129175,146035,12053,-0.168,1.008,0.078,-0.915,-0.122,0.671,575.741
129130,146161,9715,-0.169,1.008,0.078,-0.915,-0.122,0.671,575.744
129130,146006,12051,-0.166,1.009,0.074,-1.22,-0.061,0.976,575.751
129149,146161,9715,-0.165,1.013,0.073,-1.22,-0.061,0.976,575.754
129149,146015,12058,-0.16,1.017,0.07,-0.671,-0.305,0.854,575.76
129142,146161,9715,-0.161,1.016,0.072,-0.671,-0.305,0.854,575.764
129142,146052,12054,-0.167,1.016,0.076,-0.732,-0.244,0.488,575.77
129186,146161,9715,-0.165,1.017,0.075,-0.732,-0.244,0.488,575.774
129186,146068,12062,-0.162,1.02,0.08,-1.098,0.122,0.366,575.78
129247,146161,9715,-0.163,1.016,0.08,-1.098,0.122,0.366,575.784
129247,146130,12075,-0.163,1.012,0.079,-0.915,0.061,0.427,575.79
129309,146417,9715,-0.162,1.006,0.078,-0.915,0.061,0.427,575.794
129309,146237,12072,-0.161,1.002,0.082,0.122,-0.244,0.244,575.8
129385,146417,9715,-0.161,1.003,0.081,0.122,-0.244,0.244,575.804
129385,146320,12093,-0.16,1.01,0.08,0.732,-0.183,0.122,575.81
129452,146417,9715,-0.162,1.015,0.082,0.732,-0.183,0.122,575.814
129452,146405,12080,-0.163,1.016,0.08,0.915,0.366,-0.122,575.82
129519,146673,9715,-0.165,1.012,0.079,0.915,0.366,-0.122,575.824
129519,146482,12085,-0.166,1.011,0.081,0.732,0.671,0.122,575.83
129573,146673,9715,-0.165,1.009,0.076,0.732,0.671,0.122,575.833
129573,146541,12074,-0.161,1.007,0.076,-0.122,0.488,0.488,575.84
129571,146673,9715,-0.164,1.004,0.072,-0.122,0.488,0.488,575.843
129571,146571,12101,-0.164,1.005,0.074,-0.427,0.427,0.488,575.85
129593,146673,9715,-0.164,1.01,0.074,-0.427,0.427,0.488,575.853
129593,146545,12086,-0.163,1.014,0.075,-0.61,0.549,0.488,575.859
129566,146673,9715,-0.164,1.016,0.086,-0.61,0.549,0.488,575.863
129566,146566,12081,-0.167,1.015,0.082,-0.366,0.793,0.549,575.869
129577,146673,9715,-0.167,1.012,0.08,-0.366,0.793,0.549,575.873
129577,146537,12092,-0.164,1.01,0.077,0.854,0.732,0.61,575.879
129584,146673,9715,-0.166,1.009,0.071,0.854,0.732,0.61,575.883
129584,146551,12102,-0.161,1.012,0.073,1.463,0.366,0.305,575.889
129606,146673,9715,-0.162,1.013,0.076,1.463,0.366,0.305,575.893
129606,146554,12106,-0.163,1.016,0.077,1.341,0.671,0.183,575.899
129646,146673,9715,-0.16,1.018,0.077,1.341,0.671,0.183,575.903
129646,146608,12089,-0.162,1.016,0.076,0.915,1.402,0.122,575.909
129632,146673,9715,-0.165,1.012,0.075,0.915,1.402,0.122,575.913
129632,146586,12103,-0.162,1.01,0.076,0.366,1.098,0.061,575.919
129640,146673,9715,-0.165,1.009,0.074,0.366,1.098,0.061,575.923
129640,146600,12094,-0.165,1.007,0.073,0.183,0.488,0.183,575.929
129597,146673,9715,-0.164,1.008,0.071,0.183,0.488,0.183,575.932
129597,146601,12096,-0.165,1.012,0.069,-0.122,0.61,0.122,575.939
129595,146673,9715,-0.167,1.013,0.076,-0.122,0.61,0.122,575.942
129595,146554,12099,-0.168,1.01,0.079,-0.427,0.488,0.122,575.949
129572,146673,9715,-0.168,1.01,0.08,-0.427,0.488,0.122,575.952
129572,146548,12080,-0.161,1.009,0.079,-0.732,0.244,0.549,575.958
129562,146673,9715,-0.164,1.01,0.079,-0.732,0.244,0.549,575.962
129562,146525,12090,-0.166,1.009,0.079,0.061,0.427,0.732,575.968
129528,146673,9715,-0.166,1.006,0.078,0.061,0.427,0.732,575.972
129528,146509,12082,-0.165,1.011,0.073,1.28,0.549,0.427,575.978
129531,146673,9715,-0.166,1.013,0.073,1.28,0.549,0.427,575.982
129531,146510,12099,-0.164,1.016,0.074,1.402,0.671,0.366,575.988
129553,146673,9715,-0.161,1.017,0.076,1.402,0.671,0.366,575.992
129553,146545,12087,-0.159,1.018,0.074,0.793,0.915,0.488,575.998
129522,146673,9715,-0.159,1.018,0.074,0.793,0.915,0.488,576.002
129522,146504,12101,-0.162,1.012,0.079,-0.244,1.037,0.366,576.008
129514,146673,9715,-0.162,1.012,0.079,-0.244,1.037,0.366,576.012
129514,146493,12079,-0.164,1.008,0.079,-0.427,1.402,0.122,576.018
129541,146673,9715,-0.164,1.008,0.079,-0.427,1.402,0.122,576.022
129541,146541,12081,-0.166,1.007,0.074,0.061,1.037,0.061,576.028
129558,146673,9715,-0.166,1.007,0.074,0.061,1.037,0.061,576.032
129558,146528,12079,-0.164,1.011,0.072,0.549,0.305,0,576.038
129565,146673,9715,-0.164,1.011,0.072,0.549,0.305,0,576.041
129565,146510,12069,-0.166,1.016,0.072,0.366,0.366,0.061,576.048
129550,146673,9715,-0.166,1.016,0.072,0.366,0.366,0.061,576.051
129550,146493,12089,-0.169,1.016,0.075,-0.549,0.549,0.183,576.057
129547,146673,9715,-0.169,1.016,0.075,-0.549,0.549,0.183,576.061
129547,146498,12081,-0.165,1.012,0.073,-0.976,0.244,0.549,576.067
129516,146673,9715,-0.165,1.012,0.073,-0.976,0.244,0.549,576.071
129516,146468,12095,-0.164,1.007,0.073,-1.098,-0.061,0.793,576.077
129519,146673,9715,-0.164,1.007,0.073,-1.098,-0.061,0.793,576.081
129519,146466,12070,-0.166,1.011,0.069,-1.037,0,0.854,576.087
129512,146673,9715,-0.166,1.011,0.069,-1.037,0,0.854,576.091
129512,146466,12090,-0.16,1.016,0.078,-0.854,-0.122,0.793,576.097
129524,146673,9715,-0.16,1.016,0.078,-0.854,-0.122,0.793,576.101
129524,146476,12086,-0.164,1.011,0.075,-0.61,-0.122,0.915,576.107
129518,146673,9715,-0.164,1.011,0.075,-0.61,-0.122,0.915,576.111
129518,146466,12074,-0.164,1.01,0.073,-0.366,-0.244,0.732,576.117
129518,146673,9715,-0.164,1.01,0.073,-0.366,-0.244,0.732,576.121
129518,146486,12093,-0.163,1.013,0.073,-0.244,-0.427,0.61,576.127
129545,146673,9715,-0.163,1.013,0.073,-0.244,-0.427,0.61,576.13
129545,146487,12081,-0.159,1.011,0.074,-0.427,-0.244,0.549,576.137
129550,146673,9715,-0.159,1.011,0.074,-0.427,-0.244,0.549,576.14
129550,146500,12087,-0.164,1.014,0.073,-0.427,-0.244,0.549,576.147
129550,146673,9715,-0.166,1.016,0.075,-1.159,-0.061,0.366,576.15
129550,146483,12071,-0.163,1.014,0.073,-1.159,-0.061,0.366,576.156
129531,146673,9715,-0.165,1.007,0.08,-0.976,-0.061,0.305,576.16
129531,146477,12074,-0.163,1.004,0.082,-0.976,-0.061,0.305,576.166
129502,146673,9715,-0.163,1.008,0.085,-0.122,0.061,0.549,576.17
129502,146483,12083,-0.163,1.016,0.083,-0.122,0.061,0.549,576.176
129516,146673,9715,-0.163,1.013,0.08,0.366,0.549,0.427,576.18
129516,146464,12086,-0.164,1.008,0.081,0.366,0.549,0.427,576.186
129537,146673,9715,-0.165,1.008,0.084,1.341,0.732,0.427,576.19
129537,146495,12080,-0.165,1.007,0.077,1.341,0.732,0.427,576.196
129552,146673,9715,-0.167,1.005,0.071,1.341,0.488,0.61,576.2
129552,146505,12087,-0.168,1.01,0.071,1.341,0.488,0.61,576.206
129549,146673,9715,-0.165,1.017,0.075,0.549,0.366,0.671,576.21
129549,146536,12087,-0.164,1.019,0.071,0.549,0.366,0.671,576.216
129548,146673,9715,-0.162,1.015,0.074,0.183,0.427,0.732,576.22
129548,146495,12088,-0.161,1.01,0.077,0.183,0.427,0.732,576.226
129517,146673,9715,-0.162,1.01,0.073,-0.183,0.305,0.976,576.23
129517,146513,12085,-0.161,1.008,0.073,-0.183,0.305,0.976,576.236
129518,146673,9715,-0.158,1.008,0.076,-0.671,0.366,0.854,576.239
129518,146470,12077,-0.158,1.014,0.079,-0.671,0.366,0.854,576.246
129503,146673,9715,-0.16,1.018,0.078,-0.244,0.671,0.549,576.249
129503,146467,12088,-0.159,1.019,0.078,-0.244,0.671,0.549,576.255
129507,146673,9715,-0.161,1.014,0.079,0.427,0.671,0.183,576.259
129507,146482,12080,-0.16,1.013,0.079,0.427,0.671,0.183,576.265
129506,146673,9715,-0.164,1.014,0.078,0.61,0.915,0.061,576.269
129506,146465,12078,-0.166,1.016,0.077,0.61,0.915,0.061,576.275
129524,146673,9715,-0.163,1.014,0.075,0.671,0.976,0,576.279
129524,146479,12093,-0.163,1.007,0.077,0.671,0.976,0,576.285
129544,146673,9715,-0.163,1.006,0.074,0.793,0.671,0,576.289
129544,146498,12071,-0.163,1.005,0.071,0.793,0.671,0,576.295
129555,146673,9715,-0.161,1.009,0.075,0.366,0.549,0.183,576.299
129555,146508,12105,-0.161,1.009,0.076,0.366,0.549,0.183,576.305
129554,146673,9715,-0.164,1.005,0.074,-0.122,0.854,0.244,576.309
129554,146523,12085,-0.163,1.003,0.076,-0.122,0.854,0.244,576.315
129544,146673,9715,-0.163,1.009,0.079,-0.183,0.915,0.305,576.319
129544,146535,12096,-0.165,1.014,0.08,-0.183,0.915,0.305,576.325
129562,146673,9715,-0.165,1.015,0.08,0,1.341,0.488,576.329
129562,146532,12079,-0.165,1.013,0.071,0,1.341,0.488,576.335
129545,146673,9715,-0.169,1.01,0.074,0.854,1.585,0.61,576.338
129545,146527,12091,-0.166,1.009,0.076,0.854,1.585,0.61,576.345
129562,146673,9715,-0.16,1.013,0.076,1.585,1.463,0.671,576.348
129562,146534,12078,-0.163,1.018,0.077,1.585,1.463,0.671,576.355
129540,146673,9715,-0.16,1.017,0.072,2.073,1.28,0.427,576.358
129540,146532,12094,-0.157,1.018,0.071,2.073,1.28,0.427,576.364
129547,146673,9715,-0.158,1.016,0.074,1.768,1.098,0.061,576.368
129547,146509,12094,-0.162,1.008,0.073,1.768,1.098,0.061,576.374
129532,146673,9715,-0.16,1.006,0.069,0.915,1.098,0,576.378
129532,146467,12078,-0.162,1.011,0.07,0.915,1.098,0,576.384
129521,146673,9715,-0.161,1.011,0.073,0.366,1.037,0.061,576.388
129521,146491,12088,-0.163,1.011,0.071,0.366,1.037,0.061,576.394
129510,146673,9715,-0.166,1.009,0.073,0.549,0.854,-0.122,576.398
129510,146464,12082,-0.167,1.007,0.072,0.549,0.854,-0.122,576.404
129455,146673,9715,-0.166,1.011,0.07,0.549,0.793,0.183,576.408
129455,146437,12079,-0.166,1.013,0.069,0.549,0.793,0.183,576.414
129467,146417,9715,-0.168,1.012,0.069,0.366,0.915,0.366,576.418
129467,146420,12068,-0.164,1.011,0.073,0.366,0.915,0.366,576.424
129456,146417,9715,-0.167,1.009,0.074,0.61,0.793,0.488,576.428
129456,146424,12095,-0.167,1.01,0.07,0.61,0.793,0.488,576.434
129504,146417,9715,-0.164,1.016,0.072,0.488,0.549,0.549,576.437
129504,146424,12080,-0.164,1.015,0.068,0.488,0.549,0.549,576.444
129476,146417,9715,-0.165,1.016,0.069,0.183,0.305,0.427,576.447
129476,146429,12089,-0.162,1.013,0.069,0.183,0.305,0.427,576.453
129481,146417,9715,-0.164,1.011,0.071,0.122,0.122,0.427,576.457
129481,146420,12100,-0.161,1.011,0.074,0.122,0.122,0.427,576.463
129461,146417,9715,-0.163,1.01,0.074,-0.061,0.427,0.427,576.467
129461,146414,12082,-0.166,1.011,0.072,-0.061,0.427,0.427,576.473
129468,146417,9715,-0.164,1.008,0.073,0.488,0.488,0.427,576.477
129468,146428,12076,-0.164,1.009,0.072,0.488,0.488,0.427,576.483
129460,146417,9715,-0.163,1.01,0.073,0.671,0.122,0.244,576.487
129460,146392,12094,-0.161,1.01,0.076,0.671,0.122,0.244,576.493
129427,146417,9715,-0.163,1.011,0.079,0.305,0.183,0.549,576.497
129427,146374,12078,-0.165,1.013,0.077,0.305,0.183,0.549,576.503
129435,146417,9715,-0.161,1.012,0.077,0.122,0.549,0.61,576.507
129435,146364,12076,-0.164,1.011,0.077,0.122,0.549,0.61,576.513
129417,146417,9715,-0.163,1.009,0.079,0.427,0.854,0.488,576.517
129417,146373,12087,-0.165,1.01,0.079,0.427,0.854,0.488,576.523
