123893,141050,9274,-0.062,-0.985,0.023,-0.244,0.183,0.244,181.473
123893,140904,10662,-0.061,-0.983,0.021,-0.183,0.183,0.183,181.479
123892,141050,9274,-0.061,-0.983,0.021,-0.183,0.183,0.183,181.483
123892,140925,10655,-0.065,-0.983,0.023,-0.244,0.183,0.183,181.489
123869,141050,9274,-0.065,-0.983,0.023,-0.244,0.183,0.183,181.493
123869,140931,10663,-0.062,-0.981,0.018,-0.244,0.183,0.183,181.499
123867,141050,9274,-0.062,-0.983,0.022,-0.244,0.183,0.244,181.503
123867,140916,10668,-0.065,-0.985,0.025,-0.244,0.183,0.244,181.509
123865,141050,9274,-0.064,-0.983,0.024,-0.366,0.183,0.244,181.513
123865,140944,10666,-0.065,-0.983,0.02,-0.366,0.183,0.244,181.519
123886,141050,9274,-0.062,-0.985,0.023,-0.366,0.061,0.244,181.523
123886,140931,10660,-0.06,-0.987,0.023,-0.366,0.061,0.244,181.529
123865,141050,9274,-0.062,-0.985,0.021,-0.122,0,0.183,181.532
123865,140928,10658,-0.064,-0.987,0.023,-0.122,0,0.183,181.539
123874,141050,9274,-0.06,-0.983,0.026,0,0,0.122,181.542
123874,140917,10673,-0.057,-0.984,0.022,0,0,0.122,181.549
123878,141050,9274,-0.059,-0.981,0.022,0.061,0,0.122,181.552
123878,140929,10686,-0.06,-0.981,0.023,0.061,0,0.122,181.558
123875,141050,9274,-0.06,-0.981,0.023,0.061,0,0.122,181.562
123875,140934,10679,-0.058,-0.98,0.029,0.061,0,0.122,181.568
123851,141050,9274,-0.057,-0.983,0.026,0,0.061,0.122,181.572
123851,140933,10673,-0.058,-0.98,0.024,0,0.061,0.122,181.578
123885,141050,9274,-0.062,-0.982,0.024,0.061,0.122,0.122,181.582
123885,140928,10668,-0.061,-0.984,0.024,0.061,0.122,0.122,181.588
123863,141050,9274,-0.059,-0.983,0.023,0.122,0.183,0.244,181.592
123863,140943,10667,-0.061,-0.983,0.022,0.122,0.183,0.244,181.598
123879,141050,9274,-0.06,-0.982,0.022,0.122,0.244,0.305,181.602
123879,140924,10682,-0.061,-0.987,0.021,0.122,0.244,0.305,181.608
123872,141050,9274,-0.06,-0.987,0.019,0.122,0.183,0.244,181.612
123872,140940,10671,-0.062,-0.987,0.02,0.122,0.183,0.244,181.618
123881,141050,9274,-0.062,-0.985,0.025,0.183,0.244,0.244,181.622
123881,140918,10664,-0.06,-0.986,0.021,0.183,0.244,0.244,181.628
123867,141050,9274,-0.063,-0.987,0.022,0.183,0.244,0.244,181.631
123867,140936,10666,-0.064,-0.986,0.024,0.183,0.244,0.244,181.638
123864,141050,9274,-0.063,-0.985,0.026,0.183,0.244,0.183,181.641
123864,140936,10655,-0.061,-0.982,0.023,0.183,0.244,0.183,181.648
123869,141050,9274,-0.061,-0.981,0.023,0.183,0.244,0.061,181.651
123869,140909,10679,-0.062,-0.982,0.02,0.183,0.244,0.061,181.657
123880,141050,9274,-0.059,-0.984,0.022,0.366,0.244,0.061,181.661
123880,140918,10664,-0.06,-0.983,0.026,0.366,0.244,0.061,181.667
123880,141050,9274,-0.062,-0.981,0.027,0.244,0.183,0.061,181.671
123880,140914,10673,-0.061,-0.982,0.022,0.244,0.183,0.061,181.677
123877,141050,9274,-0.059,-0.984,0.025,0,0.183,0.122,181.681
123877,140932,10664,-0.058,-0.985,0.027,0,0.183,0.122,181.687
123878,141050,9274,-0.061,-0.985,0.026,0.183,0.244,0,181.691
123878,140931,10656,-0.059,-0.986,0.029,0.183,0.244,0,181.697
123874,141050,9274,-0.058,-0.985,0.028,0.305,0.305,-0.061,181.701
123874,140927,10660,-0.06,-0.985,0.027,0.305,0.305,-0.061,181.707
123896,141050,9274,-0.059,-0.984,0.025,0.244,0.305,0,181.711
123896,140926,10649,-0.058,-0.979,0.026,0.244,0.305,0,181.717
123883,141050,9274,-0.057,-0.982,0.026,0.366,0.244,-0.061,181.721
123883,140923,10692,-0.057,-0.979,0.026,0.366,0.244,-0.061,181.727
123895,141050,9274,-0.057,-0.979,0.026,0.305,0.244,-0.061,181.73
123895,140928,10665,-0.061,-0.98,0.026,0.305,0.244,-0.061,181.737
123878,141050,9274,-0.06,-0.981,0.026,0.183,0.244,-0.061,181.74
123878,140905,10674,-0.059,-0.98,0.031,0.183,0.244,-0.061,181.747
123870,141050,9274,-0.059,-0.981,0.029,0.122,0.183,0.061,181.75
123870,140940,10675,-0.059,-0.982,0.029,0.122,0.183,0.061,181.756
123884,141050,9274,-0.058,-0.983,0.033,0.427,0.122,0.061,181.76
123884,140919,10680,-0.062,-0.982,0.031,0.427,0.122,0.061,181.766
123881,141050,9274,-0.064,-0.984,0.029,0.366,0.061,0,181.77
123881,140919,10667,-0.063,-0.983,0.026,0.366,0.061,0,181.776
123876,141050,9274,-0.066,-0.981,0.023,0,0,-0.061,181.78
123876,140930,10668,-0.066,-0.981,0.022,0,0,-0.061,181.786
123892,141050,9274,-0.066,-0.983,0.026,-0.305,-0.244,-0.061,181.79
123892,140933,10652,-0.066,-0.983,0.026,-0.305,-0.244,-0.061,181.796
123874,141050,9274,-0.066,-0.983,0.024,-0.732,-0.488,-0.183,181.8
123874,140935,10671,-0.064,-0.984,0.026,-0.732,-0.488,-0.183,181.806
123878,141050,9274,-0.062,-0.985,0.026,-0.732,-0.61,-0.183,181.81
123878,140935,10697,-0.06,-0.986,0.028,-0.732,-0.61,-0.183,181.816
123897,141050,9274,-0.059,-0.985,0.026,-0.488,-0.793,-0.183,181.82
123897,140938,10678,-0.058,-0.983,0.026,-0.488,-0.793,-0.183,181.826
123889,141050,9274,-0.056,-0.981,0.026,-0.366,-0.732,-0.244,181.829
123889,140936,10675,-0.053,-0.981,0.022,-0.366,-0.732,-0.244,181.836
123866,141050,9274,-0.051,-0.982,0.025,-0.244,-0.671,-0.183,181.839
123866,140910,10675,-0.051,-0.981,0.027,-0.244,-0.671,-0.183,181.846
123899,141050,9274,-0.053,-0.979,0.026,-0.427,-0.61,-0.122,181.849
123899,140946,10665,-0.051,-0.982,0.029,-0.427,-0.61,-0.122,181.855
123876,141050,9274,-0.05,-0.982,0.025,-0.549,-0.61,-0.061,181.859
123876,140935,10674,-0.052,-0.979,0.023,-0.549,-0.61,-0.061,181.865
123889,141050,9274,-0.053,-0.982,0.025,-0.732,-0.671,0,181.869
123889,140947,10667,-0.051,-0.982,0.022,-0.732,-0.671,0,181.875
123894,141050,9274,-0.049,-0.979,0.023,-0.488,-0.488,0.122,181.879
123894,140915,10671,-0.053,-0.984,0.024,-0.488,-0.488,0.122,181.885
123877,141050,9274,-0.052,-0.987,0.025,-0.488,-0.305,0.122,181.889
123877,140912,10685,-0.052,-0.984,0.025,-0.488,-0.305,0.122,181.895
123897,141050,9274,-0.053,-0.983,0.024,-0.427,-0.305,0.061,181.899
123897,140942,10668,-0.052,-0.982,0.023,-0.427,-0.305,0.061,181.905
123866,141050,9274,-0.052,-0.981,0.025,-0.366,-0.061,0.244,181.909
123866,140919,10676,-0.054,-0.982,0.028,-0.366,-0.061,0.244,181.915
123894,141050,9274,-0.053,-0.982,0.027,-0.183,0,0.366,181.919
123894,140947,10675,-0.054,-0.98,0.026,-0.183,0,0.366,181.925
123871,141050,9274,-0.054,-0.981,0.023,-0.183,0.061,0.427,181.929
123871,140918,10668,-0.055,-0.982,0.024,-0.183,0.061,0.427,181.935
123868,141050,9274,-0.054,-0.985,0.022,-0.183,0.122,0.488,181.938
123868,140914,10674,-0.055,-0.986,0.022,-0.183,0.122,0.488,181.945
123868,141050,9274,-0.055,-0.986,0.022,-0.183,0.122,0.488,181.948
123868,140911,10665,-0.056,-0.987,0.021,-0.183,0.244,0.427,181.954
123862,141050,9274,-0.056,-0.987,0.021,-0.183,0.244,0.427,181.958
123862,140911,10656,-0.056,-0.984,0.025,-0.244,0.244,0.366,181.964
123861,141050,9274,-0.056,-0.984,0.025,-0.244,0.244,0.366,181.968
123861,140890,10668,-0.057,-0.982,0.026,-0.366,0.244,0.366,181.974
123845,141050,9274,-0.057,-0.982,0.026,-0.366,0.244,0.366,181.978
123845,140888,10652,-0.056,-0.983,0.022,-0.549,0.366,0.366,181.984
123838,141050,9274,-0.056,-0.983,0.022,-0.549,0.366,0.366,181.988
123838,140888,10656,-0.059,-0.986,0.019,-0.732,0.305,0.366,181.994
123844,141050,9274,-0.059,-0.986,0.019,-0.732,0.305,0.366,181.998
123844,140883,10674,-0.057,-0.982,0.022,-0.671,0.366,0.427,182.004
123840,141050,9274,-0.057,-0.982,0.022,-0.671,0.366,0.427,182.008
123840,140879,10661,-0.055,-0.983,0.023,-0.366,0.549,0.427,182.014
123823,141050,9274,-0.055,-0.983,0.023,-0.366,0.549,0.427,182.018
123823,140896,10669,-0.057,-0.981,0.026,-0.305,0.732,0.549,182.024
123843,141050,9274,-0.057,-0.981,0.026,-0.305,0.732,0.549,182.028
123843,140884,10661,-0.055,-0.984,0.019,-0.122,0.915,0.488,182.034
123822,141050,9274,-0.055,-0.984,0.019,-0.122,0.915,0.488,182.037
123822,140874,10654,-0.058,-0.982,0.022,-0.122,0.854,0.427,182.044
123825,141050,9274,-0.058,-0.982,0.022,-0.122,0.854,0.427,182.047
123825,140879,10655,-0.053,-0.983,0.024,-0.122,1.037,0.488,182.054
123821,141050,9274,-0.053,-0.983,0.024,-0.122,1.037,0.488,182.057
123821,140877,10654,-0.056,-0.984,0.022,-0.305,1.037,0.427,182.063
123824,141050,9274,-0.056,-0.984,0.022,-0.305,1.037,0.427,182.067
123824,140886,10666,-0.056,-0.984,0.024,-0.549,0.976,0.427,182.073
123834,141050,9274,-0.056,-0.984,0.024,-0.549,0.976,0.427,182.077
123834,140880,10652,-0.057,-0.986,0.023,-0.366,1.037,0.488,182.083
123820,141050,9274,-0.057,-0.986,0.023,-0.366,1.037,0.488,182.087
123820,140912,10649,-0.058,-0.982,0.023,-0.122,1.098,0.427,182.093
123826,141050,9274,-0.056,-0.987,0.023,-0.122,1.098,0.427,182.097
123826,140868,10654,-0.057,-0.984,0.026,0,1.22,0.488,182.103
123836,141050,9274,-0.056,-0.979,0.023,0,1.22,0.488,182.107
123836,140870,10668,-0.057,-0.978,0.023,0.183,1.402,0.61,182.113
123846,141050,9274,-0.058,-0.981,0.025,0.183,1.402,0.61,182.117
123846,140890,10656,-0.058,-0.982,0.025,0,1.341,0.61,182.123
123847,141050,9274,-0.06,-0.984,0.023,0,1.341,0.61,182.127
123847,140874,10647,-0.057,-0.983,0.023,-0.183,1.341,0.671,182.133
123818,141050,9274,-0.059,-0.983,0.027,-0.183,1.341,0.671,182.136
123818,140923,10654,-0.058,-0.987,0.024,-0.122,1.28,0.671,182.143
123847,141050,9274,-0.06,-0.985,0.02,-0.122,1.28,0.671,182.146
123847,140891,10656,-0.058,-0.988,0.023,0,1.28,0.671,182.153
123854,141050,9274,-0.061,-0.986,0.023,0,1.28,0.671,182.156
123854,140899,10655,-0.061,-0.985,0.022,0.122,1.341,0.61,182.162
123837,141050,9274,-0.058,-0.984,0.023,0.122,1.341,0.61,182.166
123837,140905,10645,-0.062,-0.985,0.026,0.122,1.28,0.61,182.172
123847,141050,9274,-0.06,-0.981,0.025,0.122,1.28,0.61,182.176
123847,140888,10661,-0.063,-0.982,0.026,0.061,1.159,0.549,182.182
123850,141050,9274,-0.063,-0.986,0.026,0.061,1.159,0.549,182.186
123850,140911,10639,-0.066,-0.983,0.026,-0.183,1.098,0.488,182.192
123849,141050,9274,-0.066,-0.982,0.028,-0.183,1.098,0.488,182.196
123849,140908,10655,-0.064,-0.984,0.026,-0.244,1.037,0.488,182.202
123852,141050,9274,-0.065,-0.987,0.025,-0.244,1.037,0.488,182.206
123852,140905,10661,-0.064,-0.984,0.027,0.061,0.976,0.366,182.212
123843,141050,9274,-0.063,-0.985,0.024,0.061,0.976,0.366,182.216
123843,140916,10637,-0.064,-0.985,0.024,0.305,0.793,0.427,182.222
123856,141050,9274,-0.067,-0.986,0.028,0.305,0.793,0.427,182.226
123856,140908,10661,-0.062,-0.984,0.027,0.366,0.732,0.366,182.232
123850,141050,9274,-0.063,-0.983,0.025,0.366,0.732,0.366,182.235
123850,140897,10654,-0.062,-0.983,0.03,0.305,0.61,0.366,182.242
123863,141050,9274,-0.061,-0.982,0.029,0.305,0.61,0.366,182.245
123863,140911,10652,-0.062,-0.985,0.023,0.305,0.61,0.305,182.252
123863,141050,9274,-0.062,-0.983,0.027,0.305,0.61,0.305,182.255
123863,140899,10664,-0.064,-0.983,0.028,0.122,0.549,0.366,182.261
123845,141050,9274,-0.063,-0.982,0.03,0.122,0.549,0.366,182.265
123845,140914,10658,-0.062,-0.984,0.029,0,0.244,0.305,182.271
123869,141050,9274,-0.062,-0.983,0.028,0,0.244,0.305,182.275
123869,140898,10662,-0.061,-0.983,0.023,-0.122,0.183,0.305,182.281
123856,141050,9274,-0.058,-0.984,0.025,-0.122,0.183,0.305,182.285
123856,140901,10666,-0.063,-0.985,0.028,-0.122,0.061,0.305,182.291
123863,141050,9274,-0.063,-0.987,0.028,-0.122,0.061,0.305,182.295
123863,140915,10667,-0.062,-0.985,0.028,-0.183,-0.183,0.183,182.301
123857,141050,9274,-0.062,-0.984,0.026,-0.183,-0.183,0.183,182.305
123857,140908,10666,-0.064,-0.983,0.026,-0.244,-0.366,0.122,182.311
123861,141050,9274,-0.058,-0.981,0.025,-0.244,-0.366,0.122,182.315
123861,140886,10655,-0.058,-0.981,0.025,-0.366,-0.366,0.122,182.321
123849,141050,9274,-0.059,-0.979,0.024,-0.366,-0.366,0.122,182.325
123849,140894,10664,-0.058,-0.979,0.026,-0.488,-0.488,0.183,182.331
123851,141050,9274,-0.059,-0.981,0.025,-0.488,-0.488,0.183,182.334
123851,140910,10662,-0.061,-0.982,0.025,-0.427,-0.427,0.244,182.341
123861,141050,9274,-0.06,-0.983,0.025,-0.427,-0.427,0.244,182.344
123861,140907,10664,-0.059,-0.982,0.024,-0.549,-0.305,0.183,182.351
123866,141050,9274,-0.058,-0.985,0.023,-0.549,-0.305,0.183,182.354
123866,140900,10659,-0.059,-0.984,0.024,-0.427,-0.305,0.183,182.36
123876,141050,9274,-0.058,-0.984,0.024,-0.427,-0.305,0.183,182.364
123876,140910,10673,-0.057,-0.984,0.024,-0.427,-0.244,0.183,182.37
123859,141050,9274,-0.058,-0.984,0.026,-0.427,-0.244,0.183,182.374
123859,140917,10671,-0.059,-0.984,0.026,-0.427,0,0.183,182.38
123853,141050,9274,-0.058,-0.984,0.027,-0.427,0,0.183,182.384
123853,140934,10666,-0.056,-0.981,0.024,-0.244,0.183,0.122,182.39
123856,141050,9274,-0.055,-0.98,0.024,-0.244,0.183,0.122,182.394
123856,140931,10664,-0.056,-0.984,0.02,0,0.183,0.183,182.4
123853,141050,9274,-0.053,-0.983,0.02,0,0.183,0.183,182.404
123853,140925,10671,-0.055,-0.981,0.023,0.061,0.122,0.183,182.41
123856,141050,9274,-0.056,-0.982,0.022,0.061,0.122,0.183,182.414
123856,140929,10669,-0.055,-0.984,0.02,-0.122,0.122,0.183,182.42
123864,141050,9274,-0.053,-0.983,0.023,-0.122,0.122,0.183,182.424
123864,140942,10671,-0.053,-0.982,0.022,-0.305,0.244,0.183,182.43
123887,141050,9274,-0.054,-0.982,0.022,-0.305,0.244,0.183,182.433
123887,140940,10660,-0.052,-0.983,0.023,-0.488,0.183,0.122,182.44
123886,141050,9274,-0.052,-0.984,0.023,-0.488,0.183,0.122,182.443
123886,140923,10678,-0.053,-0.987,0.026,-0.427,0.183,0.183,182.45
123873,141050,9274,-0.054,-0.983,0.025,-0.427,0.183,0.183,182.453
123873,140953,10679,-0.053,-0.982,0.025,-0.366,0.244,0.061,182.459
123877,141050,9274,-0.054,-0.984,0.024,-0.366,0.244,0.061,182.463
123877,140938,10662,-0.057,-0.982,0.025,-0.244,0.305,0.122,182.469
123877,141050,9274,-0.057,-0.982,0.026,-0.244,0.305,0.122,182.473
123877,140943,10673,-0.055,-0.982,0.021,-0.183,0.427,0.305,182.479
123896,141050,9274,-0.052,-0.981,0.023,-0.183,0.427,0.305,182.483
123896,140932,10652,-0.055,-0.979,0.023,-0.244,0.61,0.366,182.489
123875,141050,9274,-0.055,-0.978,0.023,-0.244,0.61,0.366,182.493
123875,140939,10667,-0.056,-0.98,0.023,-0.061,0.671,0.427,182.499
123891,141050,9274,-0.055,-0.982,0.028,-0.061,0.671,0.427,182.503
123891,140922,10659,-0.055,-0.983,0.026,0.061,0.793,0.549,182.509
123899,141050,9274,-0.057,-0.983,0.026,0.061,0.793,0.549,182.513
123899,140934,10662,-0.056,-0.985,0.026,0,0.854,0.488,182.519
123891,141050,9274,-0.058,-0.985,0.024,0,0.854,0.488,182.523
123891,140919,10668,-0.06,-0.985,0.027,0,0.915,0.488,182.529
123865,141050,9274,-0.059,-0.987,0.025,0,0.915,0.488,182.533
123865,140942,10677,-0.056,-0.987,0.023,0,0.854,0.549,182.539
123890,141050,9274,-0.056,-0.987,0.023,0,0.854,0.549,182.542
123890,140930,10669,-0.055,-0.986,0.025,-0.061,0.854,0.488,182.549
123874,141050,9274,-0.055,-0.986,0.025,-0.061,0.854,0.488,182.552
123874,140923,10661,-0.063,-0.987,0.024,0,0.793,0.427,182.558
123898,141050,9274,-0.063,-0.987,0.024,0,0.793,0.427,182.562
123898,140932,10662,-0.058,-0.985,0.026,-0.061,0.671,0.366,182.568
123874,141050,9274,-0.058,-0.985,0.026,-0.061,0.671,0.366,182.572
123874,140907,10677,-0.058,-0.983,0.027,-0.244,0.549,0.366,182.578
123887,141050,9274,-0.058,-0.983,0.027,-0.244,0.549,0.366,182.582
123887,140928,10683,-0.057,-0.982,0.026,-0.244,0.549,0.427,182.588
123896,141050,9274,-0.057,-0.982,0.026,-0.244,0.549,0.427,182.592
123896,140949,10662,-0.061,-0.984,0.024,-0.244,0.549,0.427,182.598
123879,141050,9274,-0.061,-0.984,0.024,-0.244,0.549,0.427,182.602
123879,140924,10690,-0.059,-0.986,0.026,-0.366,0.549,0.488,182.608
123897,141050,9274,-0.059,-0.986,0.026,-0.366,0.549,0.488,182.612
123897,140927,10662,-0.058,-0.983,0.024,-0.366,0.549,0.488,182.618
123885,141050,9274,-0.058,-0.983,0.024,-0.366,0.549,0.488,182.622
123885,140928,10666,-0.058,-0.983,0.023,-0.305,0.671,0.427,182.628
123906,141050,9274,-0.058,-0.983,0.023,-0.305,0.671,0.427,182.632
123906,140951,10673,-0.058,-0.983,0.021,-0.183,0.793,0.427,182.638
123895,141050,9274,-0.058,-0.983,0.021,-0.183,0.793,0.427,182.641
123895,140932,10675,-0.059,-0.986,0.023,0.061,0.793,0.366,182.648
123894,141050,9274,-0.059,-0.986,0.023,0.061,0.793,0.366,182.651
123894,140918,10670,-0.06,-0.983,0.024,0.244,0.915,0.366,182.658
123872,141050,9274,-0.06,-0.983,0.024,0.244,0.915,0.366,182.661
123872,140949,10657,-0.06,-0.984,0.023,0.366,0.854,0.427,182.667
123869,141050,9274,-0.06,-0.984,0.023,0.366,0.854,0.427,182.671
123869,140946,10680,-0.061,-0.982,0.026,0.305,0.915,0.427,182.677
123895,141050,9274,-0.061,-0.982,0.026,0.305,0.915,0.427,182.681
123895,140923,10664,-0.062,-0.984,0.026,0.305,0.915,0.427,182.687
123889,141050,9274,-0.061,-0.985,0.027,0.183,0.854,0.366,182.691
123889,140904,10681,-0.063,-0.982,0.026,0.183,0.854,0.366,182.697
123861,141050,9274,-0.063,-0.986,0.025,0.183,0.732,0.305,182.701
123861,140938,10659,-0.062,-0.984,0.024,0.183,0.732,0.305,182.707
123873,141050,9274,-0.062,-0.986,0.025,0.183,0.549,0.366,182.711
123873,140935,10665,-0.062,-0.985,0.03,0.183,0.549,0.366,182.717
123858,141050,9274,-0.06,-0.983,0.027,0.183,0.488,0.305,182.721
123858,140917,10703,-0.061,-0.985,0.028,0.183,0.488,0.305,182.727
123867,141050,9274,-0.06,-0.984,0.026,0.122,0.366,0.244,182.731
123867,140924,10663,-0.062,-0.982,0.024,0.122,0.366,0.244,182.737
123869,141050,9274,-0.06,-0.98,0.025,-0.061,0.244,0.305,182.74
123869,140916,10662,-0.057,-0.981,0.022,-0.061,0.244,0.305,182.747
123864,141050,9274,-0.058,-0.984,0.022,-0.183,0.122,0.183,182.75
123864,140929,10667,-0.06,-0.982,0.027,-0.183,0.122,0.183,182.756
123863,141050,9274,-0.059,-0.985,0.024,-0.183,0.183,0.305,182.76
123863,140911,10655,-0.06,-0.983,0.021,-0.183,0.183,0.305,182.766
123851,141050,9274,-0.058,-0.985,0.023,-0.305,0.122,0.183,182.77
123851,140909,10667,-0.061,-0.984,0.026,-0.305,0.122,0.183,182.776
123843,141050,9274,-0.061,-0.985,0.024,-0.244,0.183,0.183,182.78
123843,140916,10657,-0.06,-0.988,0.022,-0.244,0.183,0.183,182.786
123856,141050,9274,-0.058,-0.986,0.029,0,0.183,0.183,182.79
123856,140900,10664,-0.056,-0.984,0.026,0,0.183,0.183,182.796
123826,141050,9274,-0.059,-0.982,0.025,0.061,0.183,0.122,182.8
123826,140893,10671,-0.061,-0.982,0.027,0.061,0.183,0.122,182.806
123842,141050,9274,-0.058,-0.982,0.028,0.061,0.244,0.122,182.81
123842,140907,10652,-0.056,-0.983,0.027,0.061,0.244,0.122,182.816
123849,141050,9274,-0.059,-0.98,0.024,-0.061,0.305,0.183,182.82
123849,140897,10661,-0.06,-0.98,0.028,-0.061,0.305,0.183,182.826
123837,141050,9274,-0.057,-0.981,0.027,-0.183,0.244,0.183,182.83
123837,140931,10648,-0.059,-0.982,0.028,-0.183,0.244,0.183,182.836
123848,141050,9274,-0.058,-0.983,0.025,-0.305,0.244,0.244,182.839
123848,140929,10649,-0.057,-0.985,0.026,-0.305,0.244,0.244,182.846
123858,141050,9274,-0.057,-0.984,0.026,-0.366,0.183,0.305,182.849
123858,140912,10648,-0.057,-0.984,0.026,-0.366,0.183,0.305,182.856
123835,141050,9274,-0.056,-0.985,0.025,-0.061,0.122,0.305,182.859
123835,140918,10644,-0.057,-0.984,0.026,-0.061,0.122,0.305,182.865
123838,141050,9274,-0.059,-0.983,0.027,0.183,0.183,0.305,182.869
123838,140917,10672,-0.056,-0.982,0.027,0.183,0.183,0.305,182.875
123848,141050,9274,-0.056,-0.981,0.024,0.183,0.122,0.183,182.879
123848,140897,10664,-0.058,-0.984,0.025,0.183,0.122,0.183,182.885
123849,141050,9274,-0.055,-0.981,0.027,-0.122,0,0.244,182.889
123849,140905,10655,-0.055,-0.979,0.027,-0.122,0,0.244,182.895
123866,141050,9274,-0.058,-0.983,0.029,-0.427,-0.061,0.305,182.899
123866,140911,10639,-0.057,-0.984,0.024,-0.427,-0.061,0.305,182.905
123849,141050,9274,-0.056,-0.984,0.023,-0.488,-0.061,0.366,182.909
123849,140909,10660,-0.056,-0.985,0.029,-0.488,-0.061,0.366,182.915
123872,141050,9274,-0.055,-0.982,0.027,-0.366,0,0.366,182.919
123872,140919,10660,-0.055,-0.983,0.022,-0.366,0,0.366,182.925
123866,141050,9274,-0.058,-0.98,0.023,-0.183,0,0.305,182.929
123866,140931,10664,-0.058,-0.984,0.027,-0.183,0,0.305,182.935
123866,141050,9274,-0.055,-0.984,0.025,0,0.183,0.366,182.938
123866,140904,10650,-0.057,-0.984,0.027,0,0.183,0.366,182.945
123847,141050,9274,-0.059,-0.986,0.025,0.122,0.183,0.366,182.948
123847,140911,10662,-0.058,-0.987,0.026,0.122,0.183,0.366,182.955
123859,141050,9274,-0.056,-0.986,0.023,0,0.183,0.305,182.958
123859,140922,10648,-0.058,-0.984,0.027,0,0.183,0.305,182.964
123884,141050,9274,-0.056,-0.981,0.025,-0.305,0.244,0.305,182.968
123884,140908,10651,-0.059,-0.984,0.025,-0.305,0.244,0.305,182.974
123857,141050,9274,-0.057,-0.986,0.026,-0.183,0.305,0.305,182.978
123857,140888,10647,-0.056,-0.986,0.026,-0.183,0.305,0.305,182.984
123841,141050,9274,-0.057,-0.98,0.026,0,0.183,0.305,182.988
123841,140899,10671,-0.058,-0.981,0.026,0,0.183,0.305,182.994
123873,141050,9274,-0.058,-0.984,0.024,-0.122,0.122,0.366,182.998
123873,140895,10657,-0.055,-0.983,0.029,-0.122,0.122,0.366,183.004
123849,141050,9274,-0.056,-0.982,0.025,-0.061,0.244,0.305,183.008
123849,140899,10664,-0.057,-0.982,0.023,-0.061,0.244,0.305,183.014
123873,141050,9274,-0.056,-0.981,0.021,-0.061,0.366,0.427,183.018
123873,140904,10650,-0.056,-0.982,0.025,-0.061,0.366,0.427,183.024
123864,141050,9274,-0.054,-0.981,0.025,-0.183,0.366,0.427,183.028
123864,140893,10651,-0.053,-0.983,0.025,-0.183,0.366,0.427,183.034
123874,141050,9274,-0.055,-0.983,0.023,-0.305,0.427,0.305,183.037
123874,140889,10641,-0.053,-0.985,0.023,-0.305,0.427,0.305,183.044
123870,141050,9274,-0.055,-0.984,0.024,-0.305,0.488,0.366,183.047
123870,140894,10688,-0.056,-0.985,0.023,-0.305,0.488,0.366,183.054
123887,141050,9274,-0.056,-0.986,0.026,-0.183,0.488,0.305,183.057
123887,140919,10651,-0.056,-0.984,0.027,-0.183,0.488,0.305,183.063
123877,141050,9274,-0.054,-0.982,0.027,0.183,0.488,0.366,183.067
123877,140901,10663,-0.055,-0.983,0.03,0.183,0.488,0.366,183.073
123866,141050,9274,-0.057,-0.986,0.029,0.183,0.61,0.427,183.077
123866,140902,10669,-0.056,-0.984,0.026,0.183,0.61,0.427,183.083
123871,141050,9274,-0.057,-0.982,0.026,-0.061,0.732,0.366,183.087
123871,140911,10661,-0.057,-0.983,0.028,-0.061,0.732,0.366,183.093
123875,141050,9274,-0.057,-0.982,0.029,-0.305,0.793,0.488,183.097
123875,140908,10671,-0.057,-0.982,0.027,-0.305,0.793,0.488,183.103
123873,141050,9274,-0.055,-0.982,0.023,-0.671,0.671,0.427,183.107
123873,140916,10652,-0.054,-0.983,0.026,-0.671,0.671,0.427,183.113
123858,141050,9274,-0.053,-0.986,0.027,-0.915,0.549,0.488,183.117
123858,140924,10661,-0.055,-0.984,0.028,-0.915,0.549,0.488,183.123
123856,141050,9274,-0.058,-0.982,0.027,-0.854,0.549,0.488,183.127
123856,140918,10663,-0.057,-0.984,0.029,-0.854,0.549,0.488,183.133
123861,141050,9274,-0.057,-0.984,0.029,-0.854,0.549,0.488,183.136
123861,140880,10661,-0.057,-0.982,0.024,-0.549,0.671,0.427,183.143
123857,141050,9274,-0.057,-0.982,0.024,-0.549,0.671,0.427,183.146
123857,140917,10671,-0.063,-0.984,0.024,-0.244,0.671,0.488,183.153
123879,141050,9274,-0.063,-0.984,0.024,-0.244,0.671,0.488,183.156
123879,140903,10668,-0.059,-0.982,0.025,0.061,0.671,0.549,183.162
123858,141050,9274,-0.059,-0.982,0.025,0.061,0.671,0.549,183.166
123858,140913,10666,-0.056,-0.983,0.023,0,0.549,0.61,183.172
123887,141050,9274,-0.056,-0.983,0.023,0,0.549,0.61,183.176
123887,140909,10665,-0.057,-0.982,0.025,-0.366,0.61,0.549,183.182
123880,141050,9274,-0.057,-0.982,0.025,-0.366,0.61,0.549,183.186
123880,140925,10674,-0.058,-0.985,0.028,-0.671,0.488,0.488,183.192
123893,141050,9274,-0.058,-0.985,0.028,-0.671,0.488,0.488,183.196
123893,140940,10663,-0.056,-0.988,0.027,-0.732,0.366,0.488,183.202
123874,141050,9274,-0.056,-0.988,0.027,-0.732,0.366,0.488,183.206
123874,140921,10647,-0.059,-0.982,0.023,-0.549,0.488,0.427,183.212
123851,141050,9274,-0.059,-0.982,0.023,-0.549,0.488,0.427,183.216
123851,140913,10668,-0.059,-0.985,0.026,-0.366,0.549,0.427,183.222
123894,141050,9274,-0.059,-0.985,0.026,-0.366,0.549,0.427,183.226
123894,140944,10663,-0.057,-0.981,0.028,-0.244,0.549,0.366,183.232
123885,141050,9274,-0.057,-0.981,0.028,-0.244,0.549,0.366,183.235
123885,140930,10668,-0.058,-0.983,0.021,-0.305,0.61,0.427,183.242
123884,141050,9274,-0.058,-0.983,0.021,-0.305,0.61,0.427,183.245
123884,140931,10674,-0.056,-0.983,0.021,-0.183,0.671,0.549,183.252
123875,141050,9274,-0.056,-0.983,0.021,-0.183,0.671,0.549,183.255
123875,140920,10662,-0.058,-0.986,0.024,0.122,0.793,0.549,183.261
123905,141050,9274,-0.058,-0.986,0.024,0.122,0.793,0.549,183.265
123905,140929,10657,-0.063,-0.983,0.022,0.183,0.854,0.549,183.271
123906,141050,9274,-0.063,-0.983,0.022,0.183,0.854,0.549,183.275
123906,140918,10661,-0.06,-0.985,0.025,0.183,0.854,0.488,183.281
123886,141050,9274,-0.06,-0.984,0.021,0.183,0.854,0.488,183.285
123886,140933,10677,-0.059,-0.984,0.025,0.122,0.854,0.488,183.291
123895,141050,9274,-0.064,-0.986,0.027,0.122,0.854,0.488,183.295
123895,140929,10677,-0.062,-0.986,0.027,0.061,0.732,0.488,183.301
123896,141050,9274,-0.062,-0.984,0.022,0.061,0.732,0.488,183.305
123896,140936,10673,-0.066,-0.983,0.024,0,0.732,0.366,183.311
123901,141050,9274,-0.064,-0.983,0.027,0,0.732,0.366,183.315
123901,140924,10682,-0.062,-0.983,0.027,-0.061,0.61,0.305,183.321
123889,141050,9274,-0.063,-0.982,0.03,-0.061,0.61,0.305,183.325
123889,140930,10671,-0.063,-0.983,0.027,-0.122,0.427,0.305,183.331
123882,141050,9274,-0.064,-0.981,0.026,-0.122,0.427,0.305,183.334
123882,140938,10663,-0.065,-0.985,0.026,-0.122,0.305,0.305,183.341
123903,141050,9274,-0.064,-0.984,0.027,-0.122,0.305,0.305,183.344
123903,140952,10659,-0.062,-0.981,0.031,-0.244,0.305,0.305,183.351
123887,141050,9274,-0.06,-0.981,0.026,-0.244,0.305,0.305,183.354
123887,140959,10660,-0.064,-0.981,0.025,-0.183,0.183,0.305,183.36
123890,141050,9274,-0.061,-0.981,0.027,-0.183,0.183,0.305,183.364
123890,140931,10685,-0.057,-0.983,0.029,-0.244,0.183,0.305,183.37
123906,141050,9274,-0.059,-0.983,0.029,-0.244,0.183,0.305,183.374
123906,140948,10674,-0.061,-0.982,0.029,-0.305,0.183,0.244,183.38
123896,141050,9274,-0.058,-0.984,0.027,-0.305,0.183,0.244,183.384
123896,140971,10666,-0.059,-0.984,0.026,-0.305,0,0.244,183.39
123894,141050,9274,-0.057,-0.982,0.024,-0.305,0,0.244,183.394
123894,140954,10669,-0.057,-0.982,0.026,-0.122,0.061,0.244,183.4
123891,141050,9274,-0.058,-0.979,0.029,-0.122,0.061,0.244,183.404
123891,140935,10669,-0.057,-0.983,0.03,0.061,0.122,0.244,183.41
123887,141050,9274,-0.059,-0.982,0.027,0.061,0.122,0.244,183.414
123887,140950,10680,-0.059,-0.982,0.027,0.244,0.122,0.183,183.42
123902,141050,9274,-0.062,-0.983,0.031,0.244,0.122,0.183,183.424
123902,140948,10669,-0.061,-0.984,0.029,0.122,-0.122,0.305,183.43
123876,141050,9274,-0.06,-0.983,0.024,0.122,-0.122,0.305,183.433
123876,140929,10654,-0.062,-0.982,0.026,-0.122,-0.244,0.427,183.44
123883,141050,9274,-0.062,-0.984,0.025,-0.122,-0.244,0.427,183.443
123883,140930,10671,-0.063,-0.984,0.025,-0.305,-0.305,0.305,183.45
123872,141050,9274,-0.062,-0.984,0.025,-0.305,-0.305,0.305,183.453
123872,140926,10670,-0.06,-0.986,0.023,-0.427,-0.366,0.244,183.459
123872,141050,9274,-0.063,-0.987,0.024,-0.427,-0.366,0.244,183.463
123872,140924,10680,-0.059,-0.984,0.024,-0.427,-0.427,0.183,183.469
123881,141050,9274,-0.057,-0.983,0.022,-0.427,-0.427,0.183,183.473
123881,140944,10663,-0.058,-0.984,0.02,-0.305,-0.488,0.122,183.479
123866,141050,9274,-0.058,-0.981,0.022,-0.305,-0.488,0.122,183.483
123866,140926,10658,-0.056,-0.981,0.024,-0.122,-0.244,0.122,183.489
123864,141050,9274,-0.054,-0.979,0.024,-0.122,-0.244,0.122,183.493
123864,140903,10669,-0.054,-0.98,0.023,-0.122,-0.122,0.122,183.499
123873,141050,9274,-0.055,-0.984,0.025,-0.122,-0.122,0.122,183.503
123873,140893,10668,-0.057,-0.984,0.023,-0.305,0.061,0.122,183.509
123855,141050,9274,-0.054,-0.985,0.021,-0.305,0.061,0.122,183.513
123855,140882,10672,-0.054,-0.984,0.022,-0.244,0.183,0.183,183.519
123856,141050,9274,-0.056,-0.984,0.022,-0.244,0.183,0.183,183.523
123856,140895,10667,-0.055,-0.984,0.025,-0.061,0.305,0.183,183.529
123853,141050,9274,-0.052,-0.984,0.026,-0.061,0.305,0.183,183.533
123853,140880,10656,-0.052,-0.984,0.024,0.366,0.427,0.305,183.539
123839,141050,9274,-0.056,-0.981,0.027,0.366,0.427,0.305,183.542
123839,140879,10675,-0.056,-0.98,0.026,0.427,0.549,0.244,183.549
123845,141050,9274,-0.054,-0.984,0.026,0.427,0.549,0.244,183.552
123845,140923,10669,-0.055,-0.979,0.027,0.244,0.671,0.244,183.558
123851,141050,9274,-0.056,-0.98,0.028,0.244,0.671,0.244,183.562
123851,140904,10667,-0.056,-0.98,0.027,0.061,0.671,0.366,183.568
123836,141050,9274,-0.056,-0.981,0.03,0.061,0.671,0.366,183.572
123836,140893,10659,-0.056,-0.982,0.026,-0.244,0.61,0.244,183.578
123835,141050,9274,-0.057,-0.984,0.028,-0.244,0.61,0.244,183.582
123835,140897,10661,-0.056,-0.986,0.03,-0.122,0.549,0.305,183.588
123838,141050,9274,-0.055,-0.984,0.029,-0.122,0.549,0.305,183.592
123838,140892,10631,-0.057,-0.983,0.029,-0.183,0.549,0.305,183.598
123821,141050,9274,-0.056,-0.986,0.027,-0.183,0.549,0.305,183.602
123821,140886,10658,-0.059,-0.985,0.027,-0.061,0.549,0.366,183.608
123832,141050,9274,-0.058,-0.984,0.029,-0.061,0.549,0.366,183.612
123832,140893,10648,-0.06,-0.981,0.03,-0.122,0.488,0.366,183.618
123829,141050,9274,-0.06,-0.982,0.027,-0.122,0.488,0.366,183.622
123829,140879,10650,-0.059,-0.983,0.026,-0.183,0.427,0.366,183.628
123846,141050,9274,-0.059,-0.982,0.029,-0.183,0.427,0.366,183.632
123846,140887,10661,-0.056,-0.98,0.026,-0.366,0.305,0.366,183.638
123836,141050,9274,-0.054,-0.981,0.026,-0.366,0.305,0.366,183.641
123836,140880,10648,-0.053,-0.982,0.023,-0.671,0.244,0.305,183.648
123831,141050,9274,-0.056,-0.98,0.026,-0.671,0.244,0.305,183.651
123831,140892,10644,-0.056,-0.983,0.023,-0.732,0.183,0.305,183.658
123846,141050,9274,-0.055,-0.979,0.026,-0.732,0.183,0.305,183.661
123846,140886,10652,-0.055,-0.987,0.027,-0.61,0.244,0.305,183.667
123856,141050,9274,-0.057,-0.986,0.02,-0.61,0.244,0.305,183.671
123856,140908,10656,-0.055,-0.984,0.022,-0.366,0.305,0.488,183.677
123861,141050,9274,-0.057,-0.984,0.024,-0.366,0.305,0.488,183.681
123861,140909,10656,-0.057,-0.986,0.026,-0.183,0.427,0.488,183.687
123865,141050,9274,-0.057,-0.984,0.024,-0.183,0.427,0.488,183.691
123865,140889,10651,-0.058,-0.983,0.021,-0.366,0.366,0.427,183.697
123847,141050,9274,-0.053,-0.983,0.023,-0.366,0.366,0.427,183.701
123847,140887,10655,-0.053,-0.981,0.026,-0.488,0.305,0.549,183.707
123853,141050,9274,-0.053,-0.983,0.022,-0.488,0.305,0.549,183.711
123853,140898,10658,-0.055,-0.981,0.025,-0.427,0.366,0.549,183.717
123863,141050,9274,-0.054,-0.986,0.028,-0.427,0.366,0.549,183.721
123863,140917,10662,-0.055,-0.987,0.023,-0.488,0.488,0.427,183.727
123858,141050,9274,-0.055,-0.987,0.023,-0.488,0.488,0.427,183.731
123858,140923,10671,-0.056,-0.984,0.023,-0.366,0.549,0.488,183.737
123861,141050,9274,-0.056,-0.984,0.023,-0.366,0.549,0.488,183.74
123861,140928,10657,-0.052,-0.98,0.018,-0.122,0.61,0.61,183.747
123869,141050,9274,-0.052,-0.98,0.018,-0.122,0.61,0.61,183.75
123869,140914,10658,-0.057,-0.983,0.024,0,0.671,0.61,183.756
123886,141050,9274,-0.057,-0.983,0.024,0,0.671,0.61,183.76
123886,140926,10685,-0.059,-0.984,0.028,-0.122,0.732,0.61,183.766
123869,141050,9274,-0.059,-0.984,0.028,-0.122,0.732,0.61,183.77
123869,140920,10668,-0.061,-0.987,0.028,-0.244,0.732,0.671,183.776
123868,141050,9274,-0.061,-0.987,0.028,-0.244,0.732,0.671,183.78
123868,140933,10655,-0.063,-0.985,0.022,-0.061,0.671,0.61,183.786
123872,141050,9274,-0.063,-0.985,0.022,-0.061,0.671,0.61,183.79
123872,140917,10663,-0.061,-0.984,0.026,-0.061,0.549,0.549,183.796
123875,141050,9274,-0.061,-0.984,0.026,-0.061,0.549,0.549,183.8
123875,140909,10663,-0.06,-0.983,0.024,-0.366,0.488,0.488,183.806
123859,141050,9274,-0.06,-0.983,0.024,-0.366,0.488,0.488,183.81
123859,140893,10655,-0.058,-0.985,0.028,-0.427,0.488,0.549,183.816
123892,141050,9274,-0.058,-0.985,0.028,-0.427,0.488,0.549,183.82
123892,140890,10662,-0.057,-0.981,0.027,-0.305,0.549,0.61,183.826
123849,141050,9274,-0.057,-0.981,0.027,-0.305,0.549,0.61,183.83
123849,140890,10661,-0.059,-0.984,0.022,-0.244,0.671,0.549,183.836
123875,141050,9274,-0.059,-0.984,0.022,-0.244,0.671,0.549,183.839
123875,140901,10656,-0.059,-0.982,0.025,0,0.732,0.488,183.846
123867,141050,9274,-0.059,-0.982,0.025,0,0.732,0.488,183.849
123867,140888,10669,-0.062,-0.983,0.02,0.061,0.732,0.549,183.856
123845,141050,9274,-0.062,-0.983,0.02,0.061,0.732,0.549,183.859
123845,140912,10662,-0.063,-0.984,0.024,0.061,0.732,0.488,183.865
123869,141050,9274,-0.063,-0.984,0.024,0.061,0.732,0.488,183.869
123869,140901,10663,-0.06,-0.988,0.025,0.061,0.732,0.488,183.875
123867,141050,9274,-0.063,-0.987,0.03,0.061,0.793,0.61,183.879
123867,140873,10655,-0.064,-0.987,0.029,0.061,0.793,0.61,183.885
123869,141050,9274,-0.062,-0.988,0.03,0.183,0.732,0.488,183.889
123869,140903,10673,-0.065,-0.986,0.025,0.183,0.732,0.488,183.895
123862,141050,9274,-0.064,-0.985,0.025,0.122,0.549,0.305,183.899
123862,140907,10656,-0.064,-0.983,0.026,0.122,0.549,0.305,183.905
123865,141050,9274,-0.066,-0.981,0.03,-0.061,0.549,0.244,183.909
123865,140900,10663,-0.061,-0.981,0.028,-0.061,0.549,0.244,183.915
123873,141050,9274,-0.062,-0.984,0.025,-0.427,0.366,0.244,183.919
123873,140894,10668,-0.061,-0.981,0.026,-0.427,0.366,0.244,183.925
123877,141050,9274,-0.062,-0.982,0.028,-0.793,0.183,0.183,183.929
123877,140928,10663,-0.062,-0.984,0.027,-0.793,0.183,0.183,183.935
123889,141050,9274,-0.06,-0.982,0.028,-0.793,0.305,0.183,183.938
123889,140899,10680,-0.06,-0.985,0.03,-0.793,0.305,0.183,183.945
123885,141050,9274,-0.063,-0.984,0.028,-0.366,0.183,0.122,183.948
123885,140906,10652,-0.06,-0.983,0.026,-0.366,0.183,0.122,183.955
123882,141050,9274,-0.062,-0.982,0.028,-0.183,0.183,0.061,183.958
123882,140926,10671,-0.062,-0.978,0.028,-0.183,0.183,0.061,183.964
123879,141050,9274,-0.056,-0.978,0.026,-0.061,0.183,0,183.968
123879,140903,10643,-0.057,-0.979,0.028,-0.061,0.183,0,183.974
123875,141050,9274,-0.058,-0.98,0.027,-0.061,0.244,0,183.978
123875,140901,10668,-0.056,-0.982,0.027,-0.061,0.244,0,183.984
123888,141050,9274,-0.057,-0.98,0.028,-0.244,0.244,0.061,183.988
123888,140919,10659,-0.056,-0.98,0.029,-0.244,0.244,0.061,183.994
123885,141050,9274,-0.051,-0.984,0.029,-0.122,0.305,0.244,183.998
123885,140909,10657,-0.053,-0.981,0.026,-0.122,0.305,0.244,184.004
123882,141050,9274,-0.054,-0.982,0.024,0,0.427,0.366,184.008
123882,140904,10662,-0.056,-0.981,0.026,0,0.427,0.366,184.014
123894,141050,9274,-0.054,-0.984,0.028,0.122,0.488,0.427,184.018
123894,140920,10665,-0.056,-0.984,0.027,0.122,0.488,0.427,184.024
123886,141050,9274,-0.061,-0.983,0.024,0.122,0.488,0.366,184.028
123886,140909,10679,-0.061,-0.987,0.026,0.122,0.488,0.366,184.034
123882,141050,9274,-0.063,-0.986,0.023,0,0.305,0.366,184.037
123882,140924,10659,-0.065,-0.986,0.023,0,0.305,0.366,184.044
123892,141050,9274,-0.062,-0.989,0.021,-0.366,0.122,0.366,184.047
123892,140930,10656,-0.065,-0.988,0.023,-0.366,0.122,0.366,184.054
123885,141050,9274,-0.061,-0.986,0.025,-0.61,-0.183,0.305,184.057
123885,140912,10661,-0.062,-0.987,0.025,-0.61,-0.183,0.305,184.063
123853,141050,9274,-0.06,-0.986,0.026,-0.671,-0.305,0.183,184.067
123853,140906,10661,-0.06,-0.986,0.024,-0.671,-0.305,0.183,184.073
123861,141050,9274,-0.059,-0.986,0.024,-0.671,-0.427,0.122,184.077
123861,140903,10663,-0.057,-0.982,0.027,-0.671,-0.427,0.122,184.083
123881,141050,9274,-0.056,-0.982,0.024,-0.61,-0.305,0.183,184.087
123881,140907,10662,-0.053,-0.983,0.023,-0.61,-0.305,0.183,184.093
123883,141050,9274,-0.056,-0.983,0.024,-0.305,-0.183,0.183,184.097
123883,140911,10658,-0.056,-0.981,0.021,-0.305,-0.183,0.183,184.103
123891,141050,9274,-0.056,-0.983,0.021,-0.305,0.061,0.305,184.107
123891,140910,10671,-0.053,-0.983,0.021,-0.305,0.061,0.305,184.113
123881,141050,9274,-0.053,-0.982,0.022,-0.183,0.183,0.427,184.117
123881,140915,10651,-0.054,-0.983,0.025,-0.183,0.183,0.427,184.123
123876,141050,9274,-0.055,-0.985,0.023,-0.305,0.305,0.305,184.127
123876,140934,10662,-0.055,-0.985,0.024,-0.305,0.305,0.305,184.133
123863,141050,9274,-0.056,-0.983,0.022,-0.244,0.488,0.305,184.136
123863,140921,10661,-0.053,-0.986,0.023,-0.244,0.488,0.305,184.143
123881,141050,9274,-0.057,-0.984,0.025,0.061,0.732,0.305,184.146
123881,140899,10672,-0.058,-0.981,0.026,0.061,0.732,0.305,184.153
123869,141050,9274,-0.057,-0.979,0.029,0.427,0.854,0.366,184.156
123869,140898,10665,-0.057,-0.981,0.025,0.427,0.854,0.366,184.162
123856,141050,9274,-0.059,-0.979,0.027,0.488,0.854,0.305,184.166
123856,140898,10660,-0.061,-0.98,0.026,0.488,0.854,0.305,184.172
123847,141050,9274,-0.062,-0.98,0.027,0.427,0.854,0.366,184.176
123847,140900,10658,-0.059,-0.983,0.028,0.427,0.854,0.366,184.182
123851,141050,9274,-0.06,-0.983,0.03,0.244,0.671,0.427,184.186
123851,140880,10661,-0.057,-0.984,0.028,0.244,0.671,0.427,184.192
123835,141050,9274,-0.061,-0.984,0.031,0,0.427,0.427,184.196
123835,140868,10659,-0.062,-0.985,0.029,0,0.427,0.427,184.202
123813,141050,9274,-0.062,-0.986,0.026,0.061,0.366,0.427,184.206
123813,140863,10682,-0.062,-0.987,0.026,0.061,0.366,0.427,184.212
123835,141050,9274,-0.062,-0.983,0.026,0,0.366,0.244,184.216
123835,140871,10651,-0.06,-0.98,0.029,0,0.366,0.244,184.222
123810,141050,9274,-0.059,-0.981,0.028,-0.244,0.183,0.183,184.226
123810,140861,10656,-0.057,-0.984,0.023,-0.244,0.183,0.183,184.232
123825,141050,9274,-0.056,-0.984,0.023,-0.305,0,0.183,184.235
123825,140878,10656,-0.056,-0.985,0.023,-0.305,0,0.183,184.242
123830,141050,9274,-0.056,-0.985,0.027,-0.366,0,0.244,184.245
123830,140847,10638,-0.057,-0.983,0.027,-0.366,0,0.244,184.252
123787,141050,9274,-0.056,-0.984,0.025,-0.488,0.061,0.244,184.255
123787,140846,10650,-0.057,-0.979,0.023,-0.488,0.061,0.244,184.261
123811,141050,9274,-0.061,-0.981,0.023,-0.549,0.183,0.305,184.265
123811,140854,10650,-0.058,-0.981,0.027,-0.549,0.183,0.305,184.271
123806,141050,9274,-0.058,-0.985,0.026,-0.488,0.305,0.244,184.275
123806,140844,10655,-0.056,-0.989,0.023,-0.488,0.305,0.244,184.281
123820,141050,9274,-0.059,-0.983,0.024,-0.244,0.366,0.244,184.285
123820,140863,10657,-0.061,-0.984,0.022,-0.244,0.366,0.244,184.291
123815,141050,9274,-0.059,-0.984,0.026,-0.183,0.549,0.305,184.295
123815,140834,10649,-0.056,-0.983,0.022,-0.183,0.549,0.305,184.301
123810,141050,9274,-0.058,-0.981,0.022,0.061,0.61,0.305,184.305
123810,140846,10645,-0.059,-0.983,0.026,0.061,0.61,0.305,184.311
123806,141050,9274,-0.06,-0.983,0.024,0,0.793,0.122,184.315
123806,140867,10645,-0.057,-0.982,0.024,0,0.793,0.122,184.321
123813,141050,9274,-0.057,-0.982,0.024,0,0.793,0.122,184.325
123813,140892,10645,-0.054,-0.984,0.023,-0.244,0.732,0.183,184.331
123821,141050,9274,-0.054,-0.984,0.023,-0.244,0.732,0.183,184.334
123821,140857,10658,-0.055,-0.98,0.027,-0.183,0.732,0.244,184.341
123839,141050,9274,-0.055,-0.98,0.027,-0.183,0.732,0.244,184.344
123839,140886,10644,-0.055,-0.981,0.024,0,0.793,0.305,184.351
123813,141050,9274,-0.055,-0.981,0.024,0,0.793,0.305,184.354
123813,140862,10648,-0.054,-0.98,0.026,-0.122,0.976,0.366,184.36
123828,141050,9274,-0.054,-0.98,0.026,-0.122,0.976,0.366,184.364
123828,140875,10655,-0.055,-0.982,0.029,-0.061,1.098,0.366,184.37
123827,141050,9274,-0.055,-0.982,0.029,-0.061,1.098,0.366,184.374
123827,140880,10641,-0.055,-0.982,0.029,0.061,1.037,0.488,184.38
123832,141050,9274,-0.055,-0.982,0.029,0.061,1.037,0.488,184.384
123832,140870,10641,-0.054,-0.984,0.023,0,1.037,0.549,184.39
123828,141050,9274,-0.054,-0.984,0.023,0,1.037,0.549,184.394
123828,140885,10666,-0.057,-0.983,0.027,0,1.037,0.61,184.4
123847,141050,9274,-0.057,-0.983,0.027,0,1.037,0.61,184.404
123847,140876,10652,-0.06,-0.984,0.028,0.183,0.976,0.549,184.41
123829,141050,9274,-0.06,-0.984,0.028,0.183,0.976,0.549,184.414
123829,140855,10639,-0.063,-0.986,0.026,0.244,0.854,0.427,184.42
123818,141050,9274,-0.063,-0.986,0.026,0.244,0.854,0.427,184.424
123818,140883,10650,-0.062,-0.985,0.027,0.122,0.793,0.488,184.43
123814,141050,9274,-0.062,-0.985,0.027,0.122,0.793,0.488,184.433
123814,140871,10640,-0.063,-0.983,0.025,0.061,0.732,0.488,184.44
123816,141050,9274,-0.063,-0.983,0.025,0.061,0.732,0.488,184.443
123816,140846,10638,-0.064,-0.981,0.031,-0.122,0.61,0.488,184.45
123811,141050,9274,-0.064,-0.981,0.031,-0.122,0.61,0.488,184.453
123811,140846,10658,-0.061,-0.986,0.029,-0.244,0.549,0.488,184.459
123812,141050,9274,-0.061,-0.986,0.029,-0.244,0.549,0.488,184.463
123812,140856,10647,-0.061,-0.987,0.027,-0.366,0.488,0.305,184.469
123810,141050,9274,-0.061,-0.987,0.027,-0.366,0.488,0.305,184.473
123810,140876,10638,-0.062,-0.984,0.027,0,0.488,0.305,184.479
123814,141050,9274,-0.061,-0.984,0.027,0,0.488,0.305,184.483
123814,140859,10629,-0.059,-0.985,0.025,0.122,0.244,0.305,184.489
123805,141050,9274,-0.059,-0.984,0.026,0.122,0.244,0.305,184.493
123805,140879,10645,-0.058,-0.981,0.028,-0.244,0.122,0.244,184.499
123824,141050,9274,-0.055,-0.979,0.028,-0.244,0.122,0.244,184.503
123824,140868,10642,-0.054,-0.982,0.028,-0.366,0.122,0.244,184.509
123826,141050,9274,-0.053,-0.982,0.032,-0.366,0.122,0.244,184.513
123826,140859,10646,-0.055,-0.979,0.028,-0.366,0.244,0.244,184.519
123831,141050,9274,-0.057,-0.984,0.028,-0.366,0.244,0.244,184.523
123831,140868,10641,-0.057,-0.984,0.031,-0.366,0.366,0.366,184.529
123833,141050,9274,-0.056,-0.984,0.026,-0.366,0.366,0.366,184.532
123833,140875,10650,-0.059,-0.983,0.026,-0.244,0.366,0.427,184.539
123839,141050,9274,-0.059,-0.983,0.027,-0.244,0.366,0.427,184.542
123839,140877,10638,-0.057,-0.983,0.025,0,0.366,0.549,184.549
123838,141050,9274,-0.059,-0.984,0.025,0,0.366,0.549,184.552
123838,140887,10645,-0.061,-0.985,0.026,-0.122,0.305,0.488,184.558
123837,141050,9274,-0.06,-0.985,0.029,-0.122,0.305,0.488,184.562
123837,140877,10652,-0.057,-0.987,0.027,-0.183,0.305,0.488,184.568
123836,141050,9274,-0.06,-0.989,0.026,-0.183,0.305,0.488,184.572
123836,140867,10646,-0.061,-0.989,0.027,-0.183,0.305,0.488,184.578
123841,141050,9274,-0.06,-0.987,0.028,-0.183,0.305,0.488,184.582
123841,140872,10631,-0.059,-0.985,0.03,0,0.244,0.366,184.588
123831,141050,9274,-0.058,-0.985,0.025,0,0.244,0.366,184.592
123831,140860,10658,-0.058,-0.983,0.022,-0.061,0.183,0.366,184.598
123822,141050,9274,-0.061,-0.982,0.022,-0.061,0.183,0.366,184.602
123822,140859,10651,-0.058,-0.98,0.025,-0.244,0.122,0.305,184.608
123832,141050,9274,-0.059,-0.982,0.029,-0.244,0.122,0.305,184.612
123832,140877,10638,-0.063,-0.982,0.027,-0.549,0.061,0.305,184.618
123838,141050,9274,-0.06,-0.981,0.026,-0.549,0.061,0.305,184.622
123838,140854,10646,-0.06,-0.979,0.024,-0.976,0,0.305,184.628
123837,141050,9274,-0.057,-0.984,0.025,-0.976,0,0.305,184.631
123837,140874,10643,-0.055,-0.984,0.025,-0.915,0,0.305,184.638
123837,141050,9274,-0.058,-0.981,0.027,-0.915,0,0.305,184.641
123837,140866,10633,-0.054,-0.982,0.023,-0.549,0.183,0.183,184.648
123825,141050,9274,-0.052,-0.981,0.024,-0.549,0.183,0.183,184.651
123825,140859,10651,-0.056,-0.977,0.027,-0.061,0.366,0.122,184.657
123823,141050,9274,-0.053,-0.981,0.024,-0.061,0.366,0.122,184.661
123823,140881,10654,-0.054,-0.983,0.022,0.244,0.671,0.366,184.667
123841,141050,9274,-0.056,-0.983,0.022,0.244,0.671,0.366,184.671
123841,140875,10650,-0.057,-0.981,0.026,0.549,0.915,0.366,184.677
123817,141050,9274,-0.057,-0.98,0.027,0.549,0.915,0.366,184.681
123817,140890,10644,-0.056,-0.983,0.026,0.549,0.854,0.366,184.687
123835,141050,9274,-0.058,-0.984,0.027,0.549,0.854,0.366,184.691
123835,140845,10639,-0.059,-0.984,0.028,0.427,0.732,0.366,184.697
123822,141050,9274,-0.058,-0.985,0.027,0.427,0.732,0.366,184.701
123822,140873,10639,-0.056,-0.984,0.027,0.183,0.854,0.366,184.707
123820,141050,9274,-0.059,-0.985,0.025,0.183,0.854,0.366,184.711
123820,140871,10642,-0.06,-0.986,0.028,0.061,0.915,0.305,184.717
123845,141050,9274,-0.059,-0.987,0.025,0.061,0.915,0.305,184.721
123845,140884,10648,-0.059,-0.986,0.026,-0.061,0.793,0.366,184.727
123821,141050,9274,-0.061,-0.983,0.026,-0.061,0.793,0.366,184.731
123821,140854,10663,-0.057,-0.985,0.027,0,0.61,0.427,184.737
123840,141050,9274,-0.058,-0.984,0.022,0,0.61,0.427,184.74
123840,140890,10652,-0.059,-0.982,0.031,0,0.488,0.366,184.747
123854,141050,9274,-0.058,-0.985,0.027,0,0.488,0.366,184.75
123854,140894,10646,-0.059,-0.984,0.027,-0.183,0.427,0.366,184.756
123832,141050,9274,-0.061,-0.983,0.028,-0.183,0.427,0.366,184.76
123832,140878,10660,-0.058,-0.986,0.031,-0.366,0.305,0.366,184.766
123844,141050,9274,-0.058,-0.984,0.029,-0.366,0.305,0.366,184.77
123844,140873,10646,-0.056,-0.983,0.027,-0.366,0.244,0.366,184.776
123842,141050,9274,-0.057,-0.982,0.03,-0.366,0.244,0.366,184.78
123842,140878,10653,-0.058,-0.985,0.026,-0.183,0.244,0.366,184.786
123838,141050,9274,-0.059,-0.983,0.024,-0.183,0.244,0.366,184.79
123838,140889,10648,-0.056,-0.979,0.027,-0.061,0.427,0.427,184.796
123839,141050,9274,-0.055,-0.979,0.028,-0.061,0.427,0.427,184.8
123839,140885,10652,-0.058,-0.982,0.027,-0.061,0.488,0.427,184.806
123839,141050,9274,-0.056,-0.981,0.031,-0.061,0.488,0.427,184.81
123839,140905,10652,-0.055,-0.981,0.027,-0.244,0.488,0.488,184.816
123850,141050,9274,-0.057,-0.982,0.03,-0.244,0.488,0.488,184.82
123850,140883,10632,-0.058,-0.983,0.029,-0.183,0.549,0.427,184.826
123841,141050,9274,-0.057,-0.984,0.029,-0.183,0.549,0.427,184.83
123841,140893,10651,-0.058,-0.984,0.028,-0.122,0.671,0.427,184.836
123829,141050,9274,-0.055,-0.984,0.03,-0.122,0.671,0.427,184.839
123829,140910,10649,-0.058,-0.981,0.029,0,0.732,0.427,184.846
123836,141050,9274,-0.059,-0.982,0.026,0,0.732,0.427,184.849
123836,140875,10660,-0.058,-0.981,0.028,0,0.61,0.366,184.856
123832,141050,9274,-0.06,-0.983,0.029,0,0.61,0.366,184.859
123832,140875,10668,-0.062,-0.986,0.027,-0.244,0.488,0.427,184.865
123852,141050,9274,-0.058,-0.988,0.027,-0.244,0.488,0.427,184.869
123852,140844,10641,-0.06,-0.984,0.028,-0.305,0.305,0.427,184.875
123816,141050,9274,-0.063,-0.985,0.028,-0.305,0.305,0.427,184.879
123816,140856,10657,-0.06,-0.987,0.031,-0.488,0.122,0.427,184.885
123832,141050,9274,-0.059,-0.985,0.028,-0.488,0.122,0.427,184.889
123832,140841,10638,-0.06,-0.982,0.029,-0.61,0.122,0.366,184.895
123807,141050,9274,-0.058,-0.983,0.027,-0.61,0.122,0.366,184.899
123807,140849,10657,-0.058,-0.984,0.022,-0.671,0,0.305,184.905
123813,141050,9274,-0.062,-0.984,0.025,-0.671,0,0.305,184.909
123813,140855,10647,-0.063,-0.983,0.024,-0.732,0.061,0.305,184.915
123817,141050,9274,-0.055,-0.984,0.024,-0.732,0.061,0.305,184.919
123817,140843,10644,-0.058,-0.985,0.023,-0.488,0.061,0.305,184.925
123814,141050,9274,-0.058,-0.985,0.023,-0.488,0.061,0.305,184.929
123814,140863,10627,-0.059,-0.982,0.023,-0.305,0.183,0.305,184.935
123805,141050,9274,-0.059,-0.982,0.023,-0.305,0.183,0.305,184.938
123805,140845,10635,-0.055,-0.984,0.023,-0.183,0.305,0.305,184.945
123811,141050,9274,-0.055,-0.984,0.023,-0.183,0.305,0.305,184.948
123811,140843,10640,-0.058,-0.982,0.021,-0.122,0.305,0.366,184.955
123809,141050,9274,-0.058,-0.982,0.021,-0.122,0.305,0.366,184.958
123809,140824,10648,-0.059,-0.982,0.026,0,0.427,0.366,184.964
123805,141050,9274,-0.059,-0.982,0.026,0,0.427,0.366,184.968
123805,140853,10646,-0.058,-0.985,0.023,0.122,0.549,0.305,184.974
123806,141050,9274,-0.058,-0.985,0.023,0.122,0.549,0.305,184.978
123806,140843,10615,-0.057,-0.984,0.029,0.244,0.61,0.366,184.984
123802,141050,9274,-0.057,-0.984,0.029,0.244,0.61,0.366,184.988
123802,140819,10642,-0.06,-0.982,0.029,0.061,0.61,0.305,184.994
123802,141050,9274,-0.06,-0.982,0.029,0.061,0.61,0.305,184.998
123802,140849,10641,-0.057,-0.977,0.025,-0.122,0.549,0.244,185.004
123802,141050,9274,-0.057,-0.977,0.025,-0.122,0.549,0.244,185.008
123802,140835,10632,-0.055,-0.98,0.026,-0.366,0.61,0.366,185.014
123799,141050,9274,-0.055,-0.98,0.026,-0.366,0.61,0.366,185.018
123799,140836,10645,-0.059,-0.985,0.029,-0.488,0.549,0.427,185.024
123821,141050,9274,-0.059,-0.985,0.029,-0.488,0.549,0.427,185.028
123821,140831,10648,-0.059,-0.983,0.032,-0.488,0.305,0.427,185.034
123787,141050,9274,-0.059,-0.983,0.032,-0.488,0.305,0.427,185.037
123787,140847,10645,-0.057,-0.984,0.028,-0.305,0.244,0.366,185.044
123806,141050,9274,-0.057,-0.984,0.028,-0.305,0.244,0.366,185.047
123806,140839,10641,-0.058,-0.98,0.029,-0.122,0.244,0.427,185.054
123784,141050,9274,-0.058,-0.98,0.029,-0.122,0.244,0.427,185.057
123784,140843,10643,-0.059,-0.983,0.031,-0.183,0.244,0.366,185.063
123811,141050,9274,-0.059,-0.983,0.031,-0.183,0.244,0.366,185.067
123811,140839,10641,-0.056,-0.984,0.025,-0.183,0.244,0.366,185.073
123817,141050,9274,-0.061,-0.982,0.029,-0.427,0.122,0.427,185.077
123817,140841,10638,-0.06,-0.982,0.03,-0.427,0.122,0.427,185.083
123807,141050,9274,-0.061,-0.984,0.025,-0.549,0.183,0.427,185.087
123807,140857,10647,-0.063,-0.982,0.024,-0.549,0.183,0.427,185.093
123813,141050,9274,-0.062,-0.981,0.025,-0.549,0.244,0.366,185.097
123813,140848,10644,-0.061,-0.984,0.027,-0.549,0.244,0.366,185.103
123812,141050,9274,-0.058,-0.981,0.025,-0.488,0.183,0.366,185.107
123812,140873,10647,-0.059,-0.983,0.025,-0.488,0.183,0.366,185.113
123827,141050,9274,-0.061,-0.987,0.026,-0.366,0.183,0.305,185.117
123827,140848,10637,-0.063,-0.983,0.021,-0.366,0.183,0.305,185.123
123809,141050,9274,-0.063,-0.986,0.024,-0.061,0.244,0.305,185.127
123809,140841,10631,-0.062,-0.983,0.026,-0.061,0.244,0.305,185.133
123809,141050,9274,-0.059,-0.983,0.027,-0.122,0.183,0.244,185.136
123809,140850,10644,-0.059,-0.98,0.025,-0.122,0.183,0.244,185.143
123824,141050,9274,-0.061,-0.981,0.024,-0.366,0.122,0.244,185.146
123824,140850,10638,-0.058,-0.984,0.024,-0.366,0.122,0.244,185.153
123814,141050,9274,-0.058,-0.985,0.025,-0.366,0.183,0.305,185.156
123814,140850,10643,-0.058,-0.985,0.026,-0.366,0.183,0.305,185.162
123816,141050,9274,-0.058,-0.983,0.024,-0.366,0.122,0.305,185.166
123816,140856,10643,-0.057,-0.983,0.025,-0.366,0.122,0.305,185.172
123824,141050,9274,-0.058,-0.979,0.026,-0.366,0,0.244,185.176
123824,140866,10653,-0.057,-0.981,0.028,-0.366,0,0.244,185.182
123834,141050,9274,-0.056,-0.98,0.025,-0.305,0.122,0.366,185.186
123834,140851,10649,-0.054,-0.981,0.027,-0.305,0.122,0.366,185.192
123835,141050,9274,-0.054,-0.978,0.026,-0.183,0.305,0.366,185.196
123835,140883,10652,-0.055,-0.981,0.027,-0.183,0.305,0.366,185.202
123840,141050,9274,-0.055,-0.98,0.026,-0.305,0.366,0.366,185.206
123840,140895,10638,-0.054,-0.98,0.025,-0.305,0.366,0.366,185.212
123825,141050,9274,-0.054,-0.983,0.027,-0.366,0.488,0.427,185.216
123825,140885,10658,-0.054,-0.984,0.025,-0.366,0.488,0.427,185.222
123844,141050,9274,-0.057,-0.983,0.026,-0.366,0.549,0.488,185.226
123844,140890,10650,-0.058,-0.986,0.026,-0.366,0.549,0.488,185.232
123836,141050,9274,-0.059,-0.983,0.024,-0.244,0.549,0.61,185.235
123836,140887,10638,-0.058,-0.983,0.025,-0.244,0.549,0.61,185.242
123822,141050,9274,-0.058,-0.985,0.025,-0.061,0.549,0.61,185.245
123822,140894,10645,-0.057,-0.982,0.026,-0.061,0.549,0.61,185.252
123815,141050,9274,-0.059,-0.984,0.024,0,0.671,0.61,185.255
123815,140890,10644,-0.059,-0.984,0.026,0,0.671,0.61,185.261
123838,141050,9274,-0.058,-0.986,0.027,0.061,0.732,0.671,185.265
123838,140882,10649,-0.06,-0.989,0.025,0.061,0.732,0.671,185.271
123822,141050,9274,-0.06,-0.987,0.023,0.061,0.732,0.549,185.275
123822,140861,10632,-0.063,-0.984,0.025,0.061,0.732,0.549,185.281
123833,141050,9274,-0.062,-0.988,0.024,-0.061,0.61,0.366,185.285
123833,140863,10658,-0.061,-0.987,0.024,-0.061,0.61,0.366,185.291
123824,141050,9274,-0.06,-0.984,0.026,-0.244,0.671,0.366,185.295
123824,140847,10638,-0.06,-0.983,0.024,-0.244,0.671,0.366,185.301
123830,141050,9274,-0.061,-0.981,0.025,-0.366,0.671,0.305,185.305
123830,140862,10646,-0.062,-0.983,0.024,-0.366,0.671,0.305,185.311
123816,141050,9274,-0.059,-0.982,0.026,-0.366,0.671,0.305,185.315
123816,140877,10659,-0.059,-0.982,0.026,-0.366,0.671,0.305,185.321
123833,141050,9274,-0.057,-0.982,0.026,-0.427,0.671,0.244,185.325
123833,140855,10644,-0.06,-0.981,0.028,-0.427,0.671,0.244,185.331
123821,141050,9274,-0.056,-0.979,0.025,-0.183,0.671,0.305,185.335
123821,140861,10636,-0.057,-0.983,0.025,-0.183,0.671,0.305,185.341
123820,141050,9274,-0.059,-0.983,0.029,0,0.732,0.305,185.344
123820,140856,10666,-0.058,-0.983,0.028,0,0.732,0.305,185.351
123821,141050,9274,-0.055,-0.982,0.027,0.122,0.793,0.366,185.354
123821,140845,10650,-0.057,-0.983,0.03,0.122,0.793,0.366,185.36
123820,141050,9274,-0.058,-0.986,0.026,0.244,0.732,0.366,185.364
123820,140867,10643,-0.058,-0.982,0.03,0.244,0.732,0.366,185.37
123838,141050,9274,-0.057,-0.982,0.032,0.244,0.671,0.366,185.374
123838,140873,10643,-0.058,-0.981,0.029,0.244,0.671,0.366,185.38
123825,141050,9274,-0.061,-0.983,0.032,0.244,0.732,0.366,185.384
123825,140878,10655,-0.06,-0.983,0.033,0.244,0.732,0.366,185.39
123832,141050,9274,-0.058,-0.984,0.031,-0.061,0.61,0.427,185.394
123832,140863,10636,-0.06,-0.984,0.028,-0.061,0.61,0.427,185.4
123841,141050,9274,-0.06,-0.984,0.032,-0.549,0.488,0.427,185.404
123841,140861,10650,-0.06,-0.983,0.029,-0.549,0.488,0.427,185.41
123837,141050,9274,-0.061,-0.985,0.026,-0.671,0.366,0.366,185.414
123837,140842,10650,-0.061,-0.984,0.028,-0.671,0.366,0.366,185.42
123841,141050,9274,-0.062,-0.984,0.028,-0.61,0.122,0.427,185.424
123841,140874,10641,-0.06,-0.983,0.031,-0.61,0.122,0.427,185.43
123839,141050,9274,-0.059,-0.985,0.03,-0.549,0.061,0.366,185.434
123839,140855,10635,-0.062,-0.985,0.026,-0.549,0.061,0.366,185.44
123815,141050,9274,-0.061,-0.984,0.027,-0.427,0.061,0.305,185.443
123815,140856,10658,-0.062,-0.983,0.026,-0.427,0.061,0.305,185.45
123821,141050,9274,-0.064,-0.982,0.027,-0.305,0,0.305,185.453
123821,140867,10641,-0.06,-0.982,0.027,-0.305,0,0.305,185.46
123857,141050,9274,-0.06,-0.984,0.022,-0.488,-0.061,0.305,185.463
123857,140879,10626,-0.061,-0.986,0.026,-0.488,-0.061,0.305,185.469
123826,141050,9274,-0.059,-0.986,0.025,-0.793,0,0.244,185.473
123826,140856,10659,-0.059,-0.984,0.023,-0.793,0,0.244,185.479
123827,141050,9274,-0.057,-0.986,0.022,-0.61,0.061,0.244,185.483
123827,140888,10652,-0.055,-0.985,0.024,-0.61,0.061,0.244,185.489
123833,141050,9274,-0.058,-0.983,0.022,-0.61,0.183,0.305,185.493
123833,140870,10644,-0.055,-0.984,0.021,-0.61,0.183,0.305,185.499
123831,141050,9274,-0.055,-0.984,0.023,-0.549,0.366,0.244,185.503
123831,140873,10652,-0.055,-0.981,0.022,-0.549,0.366,0.244,185.509
123830,141050,9274,-0.058,-0.98,0.021,-0.427,0.549,0.305,185.513
123830,140883,10653,-0.058,-0.984,0.025,-0.427,0.549,0.305,185.519
123842,141050,9274,-0.058,-0.984,0.025,-0.427,0.549,0.305,185.523
123842,140865,10664,-0.052,-0.981,0.027,-0.244,0.671,0.366,185.529
123848,141050,9274,-0.052,-0.981,0.027,-0.244,0.671,0.366,185.533
123848,140909,10640,-0.055,-0.986,0.026,0.122,0.732,0.366,185.539
123850,141050,9274,-0.055,-0.986,0.026,0.122,0.732,0.366,185.542
123850,140883,10647,-0.058,-0.983,0.024,0.183,0.854,0.427,185.549
123835,141050,9274,-0.058,-0.983,0.024,0.183,0.854,0.427,185.552
123835,140879,10644,-0.057,-0.981,0.028,0.366,0.793,0.366,185.558
123843,141050,9274,-0.057,-0.981,0.028,0.366,0.793,0.366,185.562
123843,140881,10632,-0.056,-0.987,0.027,0.183,0.671,0.427,185.568
123828,141050,9274,-0.056,-0.987,0.027,0.183,0.671,0.427,185.572
123828,140862,10662,-0.059,-0.984,0.026,-0.122,0.671,0.366,185.578
123810,141050,9274,-0.059,-0.984,0.026,-0.122,0.671,0.366,185.582
123810,140861,10634,-0.059,-0.984,0.028,-0.366,0.549,0.366,185.588
123840,141050,9274,-0.059,-0.984,0.028,-0.366,0.549,0.366,185.592
123840,140874,10645,-0.06,-0.983,0.03,-0.488,0.488,0.244,185.598
123808,141050,9274,-0.06,-0.983,0.03,-0.488,0.488,0.244,185.602
123808,140855,10662,-0.059,-0.981,0.026,-0.488,0.488,0.305,185.608
123803,141050,9274,-0.059,-0.981,0.026,-0.488,0.488,0.305,185.612
123803,140856,10648,-0.06,-0.984,0.025,-0.549,0.488,0.305,185.618
123805,141050,9274,-0.06,-0.984,0.025,-0.549,0.488,0.305,185.622
123805,140850,10634,-0.06,-0.984,0.026,-0.488,0.488,0.305,185.628
123795,141050,9274,-0.06,-0.984,0.026,-0.488,0.488,0.305,185.632
123795,140836,10647,-0.059,-0.983,0.026,-0.366,0.549,0.366,185.638
123801,141050,9274,-0.059,-0.983,0.026,-0.366,0.549,0.366,185.641
123801,140843,10665,-0.059,-0.985,0.025,-0.305,0.488,0.305,185.648
123781,141050,9274,-0.059,-0.985,0.025,-0.305,0.488,0.305,185.651
123781,140807,10646,-0.056,-0.985,0.028,-0.305,0.549,0.366,185.658
123783,141050,9274,-0.056,-0.985,0.028,-0.305,0.549,0.366,185.661
123783,140827,10637,-0.057,-0.985,0.029,-0.183,0.61,0.305,185.667
123795,141050,9274,-0.055,-0.983,0.028,-0.183,0.61,0.305,185.671
123795,140843,10642,-0.056,-0.983,0.026,-0.305,0.61,0.305,185.677
123786,141050,9274,-0.059,-0.98,0.027,-0.305,0.61,0.305,185.681
123786,140842,10636,-0.058,-0.983,0.023,-0.366,0.61,0.366,185.687
123805,141050,9274,-0.059,-0.982,0.024,-0.366,0.61,0.366,185.691
123805,140832,10631,-0.058,-0.982,0.028,-0.427,0.61,0.366,185.697
123796,141050,9274,-0.057,-0.982,0.026,-0.427,0.61,0.366,185.701
123796,140855,10639,-0.058,-0.986,0.027,-0.671,0.488,0.305,185.707
123790,141050,9274,-0.055,-0.984,0.029,-0.671,0.488,0.305,185.711
123790,140840,10639,-0.056,-0.982,0.025,-0.61,0.427,0.427,185.717
123808,141050,9274,-0.058,-0.982,0.022,-0.61,0.427,0.427,185.721
123808,140880,10640,-0.055,-0.983,0.024,-0.366,0.61,0.488,185.727
123793,141050,9274,-0.055,-0.983,0.025,-0.366,0.61,0.488,185.731
123793,140860,10646,-0.057,-0.984,0.028,-0.305,0.61,0.488,185.737
123803,141050,9274,-0.057,-0.981,0.027,-0.305,0.61,0.488,185.74
123803,140855,10632,-0.057,-0.98,0.026,-0.488,0.488,0.427,185.747
123806,141050,9274,-0.06,-0.982,0.029,-0.488,0.488,0.427,185.75
123806,140858,10638,-0.058,-0.984,0.026,-0.61,0.488,0.488,185.757
123808,141050,9274,-0.057,-0.982,0.024,-0.61,0.488,0.488,185.76
123808,140867,10643,-0.058,-0.983,0.024,-0.732,0.488,0.488,185.766
123825,141050,9274,-0.06,-0.983,0.023,-0.732,0.488,0.488,185.77
123825,140861,10633,-0.059,-0.985,0.025,-0.61,0.427,0.427,185.776
123817,141050,9274,-0.058,-0.985,0.026,-0.61,0.427,0.427,185.78
123817,140875,10648,-0.057,-0.987,0.024,-0.488,0.366,0.488,185.786
123829,141050,9274,-0.057,-0.987,0.028,-0.488,0.366,0.488,185.79
123829,140870,10634,-0.06,-0.984,0.025,-0.427,0.427,0.488,185.796
123818,141050,9274,-0.059,-0.982,0.027,-0.427,0.427,0.488,185.8
123818,140838,10654,-0.057,-0.982,0.022,-0.427,0.488,0.549,185.806
123815,141050,9274,-0.059,-0.98,0.023,-0.427,0.488,0.549,185.81
123815,140877,10648,-0.061,-0.982,0.026,-0.305,0.549,0.488,185.816
123813,141050,9274,-0.057,-0.984,0.027,-0.305,0.549,0.488,185.82
123813,140856,10639,-0.061,-0.985,0.026,-0.305,0.488,0.488,185.826
123818,141050,9274,-0.061,-0.984,0.023,-0.305,0.488,0.488,185.83
123818,140840,10639,-0.06,-0.984,0.026,-0.183,0.549,0.61,185.836
123823,141050,9274,-0.061,-0.984,0.027,-0.183,0.549,0.61,185.839
123823,140858,10644,-0.06,-0.986,0.025,-0.122,0.549,0.61,185.846
123820,141050,9274,-0.06,-0.984,0.026,-0.122,0.549,0.61,185.849
123820,140860,10646,-0.058,-0.983,0.027,0.061,0.549,0.488,185.856
123821,141050,9274,-0.06,-0.984,0.025,0.061,0.549,0.488,185.859
123821,140846,10634,-0.061,-0.984,0.026,-0.122,0.488,0.488,185.865
123818,141050,9274,-0.06,-0.982,0.027,-0.122,0.488,0.488,185.869
123818,140861,10636,-0.058,-0.983,0.028,-0.488,0.488,0.549,185.875
123810,141050,9274,-0.06,-0.982,0.029,-0.488,0.488,0.549,185.879
123810,140843,10642,-0.058,-0.984,0.026,-0.61,0.427,0.488,185.885
123819,141050,9274,-0.062,-0.988,0.032,-0.61,0.427,0.488,185.889
123819,140838,10646,-0.061,-0.984,0.027,-0.488,0.488,0.488,185.895
123821,141050,9274,-0.062,-0.983,0.028,-0.488,0.488,0.488,185.899
123821,140855,10642,-0.061,-0.984,0.024,-0.366,0.305,0.427,185.905
123829,141050,9274,-0.061,-0.981,0.024,-0.366,0.305,0.427,185.909
123829,140843,10644,-0.059,-0.977,0.027,-0.427,0.244,0.427,185.915
123819,141050,9274,-0.056,-0.98,0.023,-0.427,0.244,0.427,185.919
123819,140872,10642,-0.058,-0.979,0.028,-0.427,0.366,0.488,185.925
123838,141050,9274,-0.058,-0.978,0.026,-0.427,0.366,0.488,185.929
123838,140839,10653,-0.058,-0.981,0.029,-0.427,0.488,0.549,185.935
123799,141050,9274,-0.062,-0.983,0.027,-0.427,0.488,0.549,185.938
123799,140872,10657,-0.062,-0.986,0.024,-0.366,0.488,0.549,185.945
123831,141050,9274,-0.061,-0.987,0.024,-0.366,0.488,0.549,185.948
123831,140856,10653,-0.06,-0.987,0.023,-0.427,0.488,0.549,185.955
123816,141050,9274,-0.059,-0.986,0.024,-0.427,0.488,0.549,185.958
123816,140853,10633,-0.057,-0.984,0.021,-0.366,0.366,0.488,185.964
123837,141050,9274,-0.063,-0.986,0.026,-0.366,0.366,0.488,185.968
123837,140870,10650,-0.063,-0.986,0.029,-0.366,0.427,0.488,185.974
123828,141050,9274,-0.061,-0.986,0.027,-0.366,0.427,0.488,185.978
123828,140851,10643,-0.063,-0.986,0.026,-0.427,0.549,0.366,185.984
123814,141050,9274,-0.062,-0.986,0.022,-0.427,0.549,0.366,185.988
123814,140871,10660,-0.061,-0.984,0.026,-0.549,0.488,0.305,185.994
123823,141050,9274,-0.061,-0.984,0.025,-0.549,0.488,0.305,185.998
123823,140868,10640,-0.061,-0.981,0.02,-0.549,0.366,0.305,186.004
123816,141050,9274,-0.06,-0.979,0.024,-0.549,0.366,0.305,186.008
123816,140854,10656,-0.061,-0.982,0.02,-0.549,0.427,0.305,186.014
123826,141050,9274,-0.061,-0.983,0.024,-0.549,0.427,0.305,186.018
123826,140878,10647,-0.06,-0.982,0.023,-0.427,0.427,0.427,186.024
123813,141050,9274,-0.058,-0.984,0.025,-0.427,0.427,0.427,186.028
123813,140868,10649,-0.058,-0.985,0.026,-0.488,0.427,0.366,186.034
123832,141050,9274,-0.06,-0.985,0.029,-0.488,0.427,0.366,186.037
123832,140863,10643,-0.059,-0.982,0.029,-0.488,0.488,0.244,186.044
123838,141050,9274,-0.059,-0.983,0.024,-0.488,0.488,0.244,186.047
123838,140868,10644,-0.057,-0.983,0.025,-0.488,0.427,0.183,186.054
123821,141050,9274,-0.054,-0.98,0.029,-0.488,0.427,0.183,186.057
123821,140870,10654,-0.057,-0.983,0.026,-0.427,0.488,0.183,186.063
123826,141050,9274,-0.058,-0.98,0.028,-0.427,0.488,0.183,186.067
123826,140872,10644,-0.057,-0.982,0.03,-0.366,0.549,0.244,186.073
123836,141050,9274,-0.06,-0.984,0.028,-0.366,0.549,0.244,186.077
123836,140883,10648,-0.062,-0.982,0.029,-0.427,0.549,0.244,186.083
123820,141050,9274,-0.056,-0.983,0.029,-0.427,0.549,0.244,186.087
123820,140869,10671,-0.058,-0.984,0.029,-0.488,0.549,0.244,186.093
123845,141050,9274,-0.056,-0.984,0.029,-0.488,0.549,0.244,186.097
123845,140876,10640,-0.058,-0.983,0.029,-0.366,0.549,0.305,186.103
123847,141050,9274,-0.059,-0.982,0.025,-0.366,0.549,0.305,186.107
123847,140860,10641,-0.06,-0.987,0.028,-0.366,0.488,0.244,186.113
123834,141050,9274,-0.06,-0.987,0.028,-0.366,0.488,0.244,186.117
123834,140879,10656,-0.058,-0.98,0.026,-0.488,0.427,0.305,186.123
123835,141050,9274,-0.058,-0.98,0.026,-0.488,0.427,0.305,186.127
123835,140900,10650,-0.061,-0.984,0.02,-0.671,0.366,0.488,186.133
123834,141050,9274,-0.061,-0.984,0.02,-0.671,0.366,0.488,186.136
123834,140892,10648,-0.064,-0.988,0.022,-0.793,0.366,0.427,186.143
123828,141050,9274,-0.064,-0.988,0.022,-0.793,0.366,0.427,186.146
123828,140886,10651,-0.062,-0.988,0.023,-0.732,0.244,0.305,186.153
123827,141050,9274,-0.062,-0.988,0.023,-0.732,0.244,0.305,186.156
123827,140915,10653,-0.06,-0.984,0.017,-0.549,0.183,0.305,186.162
123852,141050,9274,-0.06,-0.984,0.017,-0.549,0.183,0.305,186.166
123852,140897,10664,-0.06,-0.984,0.016,-0.305,0.183,0.305,186.172
123846,141050,9274,-0.06,-0.984,0.016,-0.305,0.183,0.305,186.176
123846,140881,10643,-0.06,-0.986,0.02,-0.305,0.244,0.244,186.182
123849,141050,9274,-0.06,-0.986,0.02,-0.305,0.244,0.244,186.186
123849,140902,10650,-0.062,-0.982,0.022,-0.488,0.305,0.183,186.192
123849,141050,9274,-0.062,-0.982,0.022,-0.488,0.305,0.183,186.196
123849,140885,10653,-0.059,-0.986,0.023,-0.427,0.305,0.244,186.202
123841,141050,9274,-0.059,-0.986,0.023,-0.427,0.305,0.244,186.206
123841,140912,10664,-0.058,-0.984,0.023,-0.244,0.366,0.244,186.212
123861,141050,9274,-0.058,-0.984,0.023,-0.244,0.366,0.244,186.216
123861,140896,10641,-0.057,-0.982,0.021,-0.122,0.549,0.244,186.222
123850,141050,9274,-0.057,-0.982,0.021,-0.122,0.549,0.244,186.226
123850,140883,10650,-0.058,-0.984,0.023,0.122,0.671,0.122,186.232
123853,141050,9274,-0.058,-0.984,0.023,0.122,0.671,0.122,186.235
123853,140884,10652,-0.059,-0.984,0.028,0.305,0.671,0.244,186.242
123845,141050,9274,-0.059,-0.984,0.028,0.305,0.671,0.244,186.245
123845,140883,10665,-0.058,-0.982,0.03,0.244,0.732,0.244,186.252
123857,141050,9274,-0.058,-0.982,0.03,0.244,0.732,0.244,186.255
123857,140895,10650,-0.054,-0.978,0.027,0.244,0.732,0.244,186.261
123836,141050,9274,-0.06,-0.983,0.026,-0.061,0.732,0.366,186.265
123836,140873,10640,-0.06,-0.985,0.029,-0.061,0.732,0.366,186.271
123825,141050,9274,-0.059,-0.983,0.025,-0.183,0.671,0.305,186.275
123825,140886,10656,-0.06,-0.984,0.027,-0.183,0.671,0.305,186.281
123830,141050,9274,-0.062,-0.985,0.025,-0.244,0.366,0.244,186.285
123830,140872,10664,-0.058,-0.985,0.026,-0.244,0.366,0.244,186.291
123822,141050,9274,-0.064,-0.985,0.03,-0.183,0.244,0.366,186.295
123822,140845,10639,-0.059,-0.982,0.027,-0.183,0.244,0.366,186.301
123818,141050,9274,-0.061,-0.984,0.027,-0.122,0.183,0.305,186.305
123818,140870,10664,-0.061,-0.984,0.029,-0.122,0.183,0.305,186.311
123832,141050,9274,-0.063,-0.982,0.029,-0.244,0,0.122,186.315
123832,140849,10656,-0.061,-0.98,0.03,-0.244,0,0.122,186.321
123800,141050,9274,-0.058,-0.982,0.026,-0.488,-0.122,0.183,186.325
123800,140857,10655,-0.06,-0.987,0.024,-0.488,-0.122,0.183,186.331
123804,141050,9274,-0.06,-0.983,0.026,-0.671,-0.183,0.244,186.335
123804,140850,10652,-0.058,-0.985,0.023,-0.671,-0.183,0.244,186.341
123813,141050,9274,-0.059,-0.985,0.024,-0.61,-0.183,0.183,186.344
123813,140850,10646,-0.059,-0.984,0.023,-0.61,-0.183,0.183,186.351
123798,141050,9274,-0.06,-0.984,0.026,-0.488,-0.305,0.244,186.354
123798,140832,10663,-0.057,-0.982,0.021,-0.488,-0.305,0.244,186.36
123786,141050,9274,-0.058,-0.984,0.021,-0.122,-0.183,0.183,186.364
123786,140853,10640,-0.06,-0.982,0.021,-0.122,-0.183,0.183,186.37
123796,141050,9274,-0.059,-0.98,0.023,-0.061,-0.183,0.244,186.374
123796,140859,10645,-0.058,-0.982,0.025,-0.061,-0.183,0.244,186.38
123800,141050,9274,-0.058,-0.983,0.026,-0.244,-0.061,0.244,186.384
123800,140846,10643,-0.058,-0.984,0.022,-0.244,-0.061,0.244,186.39
123785,141050,9274,-0.055,-0.983,0.024,-0.427,-0.122,0.183,186.394
123785,140851,10648,-0.056,-0.984,0.024,-0.427,-0.122,0.183,186.4
123794,141050,9274,-0.055,-0.984,0.018,-0.488,0.061,0.244,186.404
123794,140859,10645,-0.055,-0.984,0.021,-0.488,0.061,0.244,186.41
123809,141050,9274,-0.055,-0.985,0.026,-0.183,0.061,0.366,186.414
123809,140867,10638,-0.054,-0.986,0.021,-0.183,0.061,0.366,186.42
