124474,145967,11310,-0.016,-0.96,-0.136,1.341,1.463,1.341,471.469
124516,146058,24053,-0.012,-0.955,-0.129,1.341,1.463,1.341,471.473
124516,145970,11326,-0.012,-0.957,-0.14,1.28,0.976,0.915,471.479
124516,146058,24053,-0.014,-0.962,-0.139,1.28,0.976,0.915,471.483
124516,145976,11346,-0.016,-0.957,-0.13,1.463,0.854,0.854,471.489
124549,146058,24053,-0.014,-0.951,-0.137,1.463,0.854,0.854,471.492
124549,146004,11337,-0.015,-0.943,-0.143,-0.305,0.366,0.854,471.499
124581,146058,24053,-0.015,-0.944,-0.149,-0.305,0.366,0.854,471.502
124581,146036,11348,-0.013,-0.947,-0.157,0,0.183,1.098,471.509
124573,146058,24053,-0.01,-0.949,-0.157,0,0.183,1.098,471.512
124573,146007,11346,-0.011,-0.958,-0.147,0.915,0.305,1.341,471.518
124560,146058,24053,-0.012,-0.962,-0.152,0.915,0.305,1.341,471.522
124560,146041,11347,-0.013,-0.958,-0.154,1.463,0.61,1.768,471.528
124571,146058,24053,-0.012,-0.961,-0.156,1.463,0.61,1.768,471.532
124571,146029,11341,-0.016,-0.965,-0.156,1.524,0.854,1.402,471.538
124564,146058,24053,-0.016,-0.966,-0.145,1.524,0.854,1.402,471.542
124564,146010,11358,-0.02,-0.962,-0.126,0.61,0.915,1.098,471.548
124538,146058,24053,-0.02,-0.959,-0.131,0.61,0.915,1.098,471.552
124538,146017,11345,-0.02,-0.954,-0.141,-1.646,0.61,0.549,471.558
124572,146058,24053,-0.018,-0.961,-0.142,-1.646,0.61,0.549,471.562
124572,146004,11333,-0.014,-0.963,-0.139,-2.073,0.122,-0.244,471.568
124523,146058,24053,-0.016,-0.957,-0.133,-2.073,0.122,-0.244,471.572
124523,146010,11357,-0.021,-0.948,-0.128,-2.439,0.061,-0.366,471.578
124542,146058,24053,-0.019,-0.942,-0.135,-2.439,0.061,-0.366,471.582
124542,146016,11337,-0.014,-0.942,-0.145,-3.72,-0.244,-0.549,471.588
124532,146058,24053,-0.01,-0.952,-0.153,-3.72,-0.244,-0.549,471.591
124532,146017,11332,-0.009,-0.959,-0.153,-3.049,-0.793,-0.61,471.598
124530,146058,24053,-0.004,-0.957,-0.168,-3.049,-0.793,-0.61,471.601
124530,146004,11344,-0.002,-0.953,-0.195,-1.341,-0.366,-0.061,471.608
124514,146058,24053,-0.002,-0.962,-0.194,-1.341,-0.366,-0.061,471.611
124514,145962,11346,-0.007,-0.976,-0.168,1.89,0.671,0.244,471.617
124506,146058,24053,-0.01,-0.978,-0.153,1.89,0.671,0.244,471.621
124506,145973,11345,-0.014,-0.963,-0.154,3.78,1.585,0.366,471.627
124480,146058,24053,-0.01,-0.949,-0.156,3.78,1.585,0.366,471.631
124480,145965,11331,-0.007,-0.951,-0.146,2.195,1.402,0.183,471.637
124459,146058,24053,-0.003,-0.955,-0.135,2.195,1.402,0.183,471.641
124459,145943,11316,-0.006,-0.957,-0.129,1.463,1.037,0.244,471.647
124446,146058,24053,-0.015,-0.952,-0.123,1.463,1.037,0.244,471.651
124446,145942,11323,-0.018,-0.944,-0.121,-0.793,0.854,0.549,471.657
124454,146058,24053,-0.017,-0.943,-0.119,-0.793,0.854,0.549,471.661
124454,145926,11318,-0.014,-0.95,-0.126,-2.5,0.122,0.671,471.667
124440,146058,24053,-0.015,-0.958,-0.13,-2.5,0.122,0.671,471.671
124440,145945,11335,-0.012,-0.958,-0.136,-2.927,-0.549,0.732,471.677
124466,146058,24053,-0.014,-0.955,-0.151,-2.927,-0.549,0.732,471.681
124466,145961,11328,-0.016,-0.956,-0.163,-3.171,-0.671,0.793,471.687
124468,146058,24053,-0.009,-0.956,-0.181,-3.171,-0.671,0.793,471.69
124468,145945,11319,-0.006,-0.961,-0.186,-1.463,-0.366,0.793,471.697
124491,146058,24053,-0.009,-0.973,-0.173,-1.463,-0.366,0.793,471.7
124491,145950,11330,-0.015,-0.968,-0.159,1.585,0.488,0.732,471.707
124487,146058,24053,-0.016,-0.956,-0.16,1.585,0.488,0.732,471.71
124487,145985,11327,-0.013,-0.948,-0.167,2.256,1.28,0.549,471.716
124512,146058,24053,-0.014,-0.959,-0.155,2.256,1.28,0.549,471.72
124512,145980,11320,-0.013,-0.97,-0.131,2.134,1.341,0.244,471.726
124537,146058,24053,-0.016,-0.959,-0.129,2.134,1.341,0.244,471.73
124537,145989,11331,-0.014,-0.946,-0.139,-0.244,1.159,-0.183,471.736
124534,146058,24053,-0.015,-0.946,-0.12,-0.244,1.159,-0.183,471.74
124534,145986,11350,-0.016,-0.958,-0.101,-1.768,0.549,0,471.746
124532,146058,24053,-0.015,-0.957,-0.119,-1.768,0.549,0,471.75
124532,145966,11342,-0.014,-0.949,-0.136,-4.207,-0.244,-0.061,471.756
124499,146058,24053,-0.01,-0.954,-0.141,-4.207,-0.244,-0.061,471.76
124499,145973,11337,-0.009,-0.962,-0.155,-5.366,-1.22,0,471.766
124487,146058,24053,-0.016,-0.968,-0.171,-5.366,-1.22,0,471.77
124487,145957,11338,-0.012,-0.97,-0.179,-2.317,-0.976,0.427,471.776
124486,146058,24053,-0.005,-0.959,-0.194,-2.317,-0.976,0.427,471.78
124486,145942,11348,-0.006,-0.949,-0.178,1.402,0,0.427,471.786
124519,146058,24053,-0.007,-0.951,-0.153,1.402,0,0.427,471.789
124519,145968,11328,-0.01,-0.943,-0.157,4.085,0.854,0.793,471.796
124512,146058,24053,-0.01,-0.937,-0.17,4.085,0.854,0.793,471.799
124512,145985,11346,-0.013,-0.951,-0.154,3.049,1.463,0.915,471.806
124531,146058,24053,-0.014,-0.966,-0.141,3.049,1.463,0.915,471.809
124531,145992,11332,-0.014,-0.96,-0.146,2.195,1.22,0.976,471.815
124530,146058,24053,-0.018,-0.962,-0.135,2.195,1.22,0.976,471.819
124530,146005,11349,-0.017,-0.962,-0.124,0.122,0.915,0.427,471.825
124542,146058,24053,-0.02,-0.955,-0.126,0.122,0.915,0.427,471.829
124542,146021,11347,-0.015,-0.952,-0.134,-1.463,0.244,-0.366,471.835
124578,146058,24053,-0.013,-0.956,-0.134,-1.463,0.244,-0.366,471.839
124578,146039,11345,-0.01,-0.959,-0.136,-2.5,-0.305,-0.732,471.845
124557,146058,24053,-0.013,-0.957,-0.14,-2.5,-0.305,-0.732,471.849
124557,146031,11350,-0.008,-0.956,-0.153,-2.744,-0.976,-0.427,471.855
124574,146058,24053,-0.008,-0.956,-0.153,-2.744,-0.976,-0.427,471.859
124574,146022,11341,-0.002,-0.952,-0.165,-2.073,-1.159,0,471.865
124556,146058,24053,-0.002,-0.952,-0.165,-2.073,-1.159,0,471.869
124556,146022,11337,0,-0.951,-0.185,-0.122,-0.366,0.549,471.875
124565,146058,24053,0,-0.951,-0.185,-0.122,-0.366,0.549,471.879
124565,146041,11339,-0.006,-0.967,-0.158,2.5,0.793,1.341,471.885
124558,146058,24053,-0.006,-0.967,-0.158,2.5,0.793,1.341,471.888
124558,146024,11336,-0.013,-0.959,-0.166,2.378,1.646,1.402,471.895
124559,146058,24053,-0.013,-0.959,-0.166,2.378,1.646,1.402,471.898
124559,146039,11339,-0.013,-0.965,-0.136,1.951,1.768,1.098,471.905
124577,146058,24053,-0.013,-0.965,-0.136,1.951,1.768,1.098,471.908
124577,146025,11352,-0.014,-0.957,-0.136,1.098,1.707,0.671,471.914
124579,146058,24053,-0.014,-0.957,-0.136,1.098,1.707,0.671,471.918
124579,146045,11364,-0.024,-0.953,-0.119,0.549,1.28,0.488,471.924
124599,146058,24053,-0.024,-0.953,-0.119,0.549,1.28,0.488,471.928
124599,146082,11356,-0.018,-0.943,-0.135,-1.341,0.549,0.244,471.934
124591,146058,24053,-0.018,-0.943,-0.135,-1.341,0.549,0.244,471.938
124591,146065,11347,-0.013,-0.954,-0.135,-1.89,0,0.183,471.944
124585,146058,24053,-0.013,-0.954,-0.135,-1.89,0,0.183,471.948
124585,146068,11354,-0.01,-0.941,-0.183,-3.11,-0.183,0.427,471.954
124578,146058,24053,-0.01,-0.941,-0.183,-3.11,-0.183,0.427,471.958
124578,146057,11369,-0.007,-0.984,-0.18,-0.549,0.305,0.793,471.964
124599,146058,24053,-0.007,-0.984,-0.18,-0.549,0.305,0.793,471.968
124599,146054,11346,-0.016,-0.972,-0.159,2.195,1.098,0.976,471.974
124594,146058,24053,-0.016,-0.972,-0.159,2.195,1.098,0.976,471.978
124594,146066,11368,-0.016,-0.948,-0.157,1.463,1.341,0.732,471.984
124623,146058,24053,-0.016,-0.948,-0.157,1.463,1.341,0.732,471.987
124623,146057,11355,-0.015,-0.967,-0.131,1.768,0.976,0.366,471.994
124651,146058,24053,-0.015,-0.967,-0.131,1.768,0.976,0.366,471.997
124651,146093,11350,-0.021,-0.965,-0.13,1.768,0.976,0.366,472.004
124655,146058,24053,-0.022,-0.96,-0.128,-0.427,0.732,-0.061,472.007
124655,146118,11373,-0.023,-0.952,-0.12,-0.427,0.732,-0.061,472.013
124672,146058,24053,-0.018,-0.947,-0.126,-0.976,0.122,-0.549,472.017
124672,146140,11371,-0.015,-0.946,-0.129,-0.976,0.122,-0.549,472.023
124711,146058,24053,-0.013,-0.946,-0.13,-1.707,-0.488,-1.037,472.027
124711,146162,11370,-0.015,-0.948,-0.137,-1.707,-0.488,-1.037,472.033
124726,146058,24053,-0.013,-0.949,-0.149,-2.927,-0.915,-0.732,472.037
124726,146172,11392,-0.01,-0.955,-0.159,-2.927,-0.915,-0.732,472.043
124757,146314,24053,-0.01,-0.961,-0.172,-2.805,-0.854,-0.305,472.047
124757,146189,11385,-0.009,-0.962,-0.183,-2.805,-0.854,-0.305,472.053
124760,146314,24053,-0.007,-0.963,-0.19,-0.915,-0.244,-0.061,472.057
124760,146180,11378,-0.002,-0.965,-0.185,-0.915,-0.244,-0.061,472.063
124806,146314,24053,-0.005,-0.966,-0.171,2.317,0.732,0.061,472.067
124806,146200,11384,-0.009,-0.961,-0.158,2.317,0.732,0.061,472.073
124800,146314,24053,-0.013,-0.947,-0.157,3.171,1.463,0.549,472.077
124800,146210,11388,-0.009,-0.947,-0.156,3.171,1.463,0.549,472.083
124809,146314,24053,-0.005,-0.962,-0.137,2.134,1.341,0.61,472.086
124809,146188,11398,-0.008,-0.969,-0.121,2.134,1.341,0.61,472.093
124796,146314,24053,-0.013,-0.962,-0.128,1.707,1.037,0.61,472.096
124796,146201,11386,-0.017,-0.95,-0.131,1.707,1.037,0.61,472.103
124782,146314,24053,-0.015,-0.946,-0.116,-0.671,0.427,0.427,472.106
124782,146209,11388,-0.012,-0.947,-0.118,-0.671,0.427,0.427,472.112
124773,146314,24053,-0.009,-0.946,-0.133,-2.378,-0.183,0.305,472.116
124773,146180,11382,-0.009,-0.942,-0.145,-2.378,-0.183,0.305,472.122
124760,146058,24053,-0.01,-0.951,-0.14,-3.537,-0.61,0.366,472.126
124760,146170,11373,-0.009,-0.958,-0.148,-3.537,-0.61,0.366,472.132
124731,146058,24053,-0.01,-0.952,-0.168,-2.805,-0.61,0.671,472.136
124731,146159,11379,-0.009,-0.953,-0.182,-2.805,-0.61,0.671,472.142
124726,146058,24053,-0.005,-0.963,-0.175,-0.854,0.122,0.854,472.146
124726,146155,11383,-0.01,-0.97,-0.166,-0.854,0.122,0.854,472.152
124754,146058,24053,-0.009,-0.969,-0.165,1.585,0.976,1.098,472.156
124754,146140,11374,-0.01,-0.96,-0.163,1.585,0.976,1.098,472.162
124750,146058,24053,-0.01,-0.958,-0.157,2.134,1.341,1.22,472.166
124750,146163,11380,-0.01,-0.959,-0.145,2.134,1.341,1.22,472.172
124745,146058,24053,-0.013,-0.955,-0.145,2.195,1.28,1.22,472.176
124745,146175,11387,-0.01,-0.953,-0.146,2.195,1.28,1.22,472.182
124747,146314,24053,-0.01,-0.954,-0.141,1.463,1.28,1.159,472.185
124747,146179,11370,-0.015,-0.956,-0.134,1.463,1.28,1.159,472.192
124732,146058,24053,-0.016,-0.95,-0.133,0.488,1.037,1.22,472.195
124732,146156,11381,-0.017,-0.942,-0.136,0.488,1.037,1.22,472.202
124716,146058,24053,-0.015,-0.95,-0.126,-0.976,0.549,1.341,472.205
124716,146167,11379,-0.016,-0.958,-0.12,-0.976,0.549,1.341,472.211
124712,146058,24053,-0.021,-0.957,-0.131,-1.646,0.305,1.22,472.215
124712,146129,11371,-0.02,-0.953,-0.147,-1.646,0.305,1.22,472.221
124693,146058,24053,-0.017,-0.958,-0.16,-2.439,-0.183,0.854,472.225
124693,146124,11386,-0.015,-0.969,-0.162,-2.439,-0.183,0.854,472.231
124699,146058,24053,-0.013,-0.971,-0.165,-1.098,-0.122,0.488,472.235
124699,146144,11387,-0.017,-0.967,-0.177,-1.098,-0.122,0.488,472.241
124688,146058,24053,-0.012,-0.963,-0.168,-0.061,0.488,0.305,472.245
124688,146121,11378,-0.017,-0.968,-0.151,-0.061,0.488,0.305,472.251
124677,146058,24053,-0.017,-0.963,-0.144,1.768,0.976,-0.061,472.255
124677,146138,11379,-0.015,-0.949,-0.156,1.768,0.976,-0.061,472.261
124701,146058,24053,-0.013,-0.944,-0.155,1.22,0.976,-0.366,472.265
124701,146115,11378,-0.011,-0.951,-0.144,1.22,0.976,-0.366,472.271
124687,146058,24053,-0.011,-0.956,-0.13,0.793,0.732,-0.122,472.275
124687,146151,11370,-0.014,-0.954,-0.128,0.793,0.732,-0.122,472.281
124692,146058,24053,-0.017,-0.955,-0.123,-0.061,0.61,0.122,472.284
124692,146134,11380,-0.017,-0.955,-0.123,-0.061,0.61,0.122,472.291
124674,146058,24053,-0.014,-0.953,-0.138,-1.585,0,0.122,472.294
124674,146105,11361,-0.01,-0.955,-0.157,-1.585,0,0.122,472.301
124660,146058,24053,-0.01,-0.958,-0.155,-2.744,-0.671,0.305,472.304
124660,146125,11374,-0.008,-0.961,-0.157,-2.744,-0.671,0.305,472.31
124657,146058,24053,-0.013,-0.962,-0.16,-2.378,-0.427,0.427,472.314
124657,146097,11381,-0.014,-0.962,-0.156,-2.378,-0.427,0.427,472.32
124644,146058,24053,-0.014,-0.957,-0.16,-1.585,0,0.061,472.324
124644,146087,11372,-0.012,-0.952,-0.165,-1.585,0,0.061,472.33
124650,146058,24053,-0.009,-0.951,-0.161,-1.22,0.305,-0.061,472.334
124650,146097,11359,-0.009,-0.953,-0.158,-1.22,0.305,-0.061,472.34
124652,146058,24053,-0.012,-0.949,-0.145,-0.854,0.793,-0.061,472.344
124652,146093,11368,-0.018,-0.942,-0.145,-0.854,0.793,-0.061,472.35
124654,146058,24053,-0.016,-0.94,-0.168,-1.768,0.976,0.122,472.354
124654,146107,11379,-0.012,-0.957,-0.167,-1.768,0.976,0.122,472.36
124664,146058,24053,-0.012,-0.974,-0.14,0.549,1.098,0.061,472.364
124664,146132,11386,-0.012,-0.973,-0.135,0.549,1.098,0.061,472.37
124651,146058,24053,-0.015,-0.96,-0.142,2.256,0.976,0.061,472.374
124651,146099,11372,-0.016,-0.956,-0.129,2.256,0.976,0.061,472.38
124657,146058,24053,-0.015,-0.956,-0.121,0.976,0.244,0.061,472.383
124657,146099,11372,-0.017,-0.955,-0.137,0.976,0.244,0.061,472.39
124649,146058,24053,-0.014,-0.953,-0.151,-0.854,-0.61,-0.061,472.393
124649,146083,11382,-0.007,-0.96,-0.15,-0.854,-0.61,-0.061,472.4
124632,146058,24053,-0.007,-0.957,-0.158,-0.854,-0.854,-0.061,472.403
124632,146074,11363,-0.009,-0.942,-0.171,-0.854,-0.854,-0.061,472.409
124635,146058,24053,-0.005,-0.941,-0.179,-0.671,-0.488,0,472.413
124635,146090,11367,-0.006,-0.957,-0.17,-0.671,-0.488,0,472.419
124634,146058,24053,-0.004,-0.965,-0.153,1.159,0.305,0.244,472.423
124634,146099,11376,-0.011,-0.959,-0.162,1.159,0.305,0.244,472.429
124652,146058,24053,-0.016,-0.953,-0.169,0.549,1.037,0.671,472.433
124652,146098,11366,-0.015,-0.958,-0.143,0.549,1.037,0.671,472.439
124666,146058,24053,-0.015,-0.958,-0.143,0.549,1.037,0.671,472.443
124666,146107,11375,-0.012,-0.954,-0.132,-0.061,0.915,0.732,472.449
124691,146058,24053,-0.012,-0.954,-0.132,-0.061,0.915,0.732,472.453
124691,146117,11384,-0.012,-0.94,-0.143,-0.793,0.732,0.671,472.459
124676,146058,24053,-0.012,-0.94,-0.143,-0.793,0.732,0.671,472.463
124676,146135,11387,-0.016,-0.969,-0.149,-1.159,0.305,0.854,472.469
124683,146058,24053,-0.016,-0.969,-0.149,-1.159,0.305,0.854,472.473
124683,146132,11373,-0.016,-0.953,-0.16,-0.305,0.244,0.549,472.479
124671,146058,24053,-0.016,-0.953,-0.16,-0.305,0.244,0.549,472.482
124671,146146,11372,-0.01,-0.956,-0.154,1.037,0.366,0.305,472.489
124681,146058,24053,-0.01,-0.956,-0.154,1.037,0.366,0.305,472.492
124681,146141,11386,-0.011,-0.955,-0.155,3.476,0.61,0.488,472.499
124689,146058,24053,-0.011,-0.955,-0.155,3.476,0.61,0.488,472.502
124689,146124,11378,-0.016,-0.961,-0.156,2.866,0.915,0.549,472.508
124694,146058,24053,-0.016,-0.961,-0.156,2.866,0.915,0.549,472.512
124694,146134,11375,-0.012,-0.961,-0.136,2.256,0.854,0.366,472.518
124692,146058,24053,-0.012,-0.961,-0.136,2.256,0.854,0.366,472.522
124692,146157,11385,-0.008,-0.936,-0.142,1.463,0.793,0.244,472.528
124691,146058,24053,-0.008,-0.936,-0.142,1.463,0.793,0.244,472.532
124691,146120,11375,-0.011,-0.951,-0.139,-0.671,0.732,0.305,472.538
124723,146058,24053,-0.011,-0.951,-0.139,-0.671,0.732,0.305,472.542
124723,146135,11374,-0.011,-0.967,-0.145,-1.585,0.366,0.671,472.548
124708,146058,24053,-0.011,-0.967,-0.145,-1.585,0.366,0.671,472.552
124708,146150,11379,-0.013,-0.956,-0.146,-1.341,0.061,0.976,472.558
124697,146058,24053,-0.013,-0.956,-0.146,-1.341,0.061,0.976,472.562
124697,146109,11385,-0.016,-0.948,-0.15,0.122,0.061,1.22,472.568
124708,146058,24053,-0.016,-0.948,-0.15,0.122,0.061,1.22,472.572
124708,146146,11365,-0.012,-0.953,-0.157,0.732,0.122,1.463,472.578
124699,146058,24053,-0.012,-0.953,-0.157,0.732,0.122,1.463,472.581
124699,146155,11380,-0.012,-0.96,-0.159,0.61,0.305,1.341,472.588
124715,146058,24053,-0.012,-0.964,-0.159,0.61,0.305,1.341,472.591
124715,146146,11381,-0.016,-0.968,-0.149,1.524,0.793,1.098,472.598
124740,146058,24053,-0.016,-0.965,-0.148,1.524,0.793,1.098,472.601
124740,146170,11398,-0.018,-0.965,-0.16,1.402,1.098,0.732,472.607
124764,146314,24053,-0.017,-0.965,-0.151,1.402,1.098,0.732,472.611
124764,146201,11380,-0.018,-0.969,-0.139,1.098,1.159,0.244,472.617
124761,146058,24053,-0.019,-0.958,-0.139,1.098,1.159,0.244,472.621
124761,146162,11387,-0.016,-0.942,-0.145,0.305,1.159,-0.061,472.627
124767,146314,24053,-0.014,-0.938,-0.146,0.305,1.159,-0.061,472.631
124767,146193,11391,-0.012,-0.945,-0.136,0.122,0.976,-0.244,472.637
124716,146058,24053,-0.014,-0.95,-0.133,0.122,0.976,-0.244,472.641
124716,146146,11398,-0.014,-0.952,-0.145,0.61,0.671,0.061,472.647
124674,146058,24053,-0.014,-0.955,-0.147,0.61,0.671,0.061,472.651
124674,146133,11385,-0.012,-0.963,-0.141,-0.122,0.244,0.549,472.657
124627,146058,24053,-0.012,-0.961,-0.142,-0.122,0.244,0.549,472.661
124627,146076,11369,-0.015,-0.959,-0.146,0,-0.122,0.61,472.667
124592,146058,24053,-0.013,-0.963,-0.139,0,-0.122,0.61,472.671
124592,146062,11358,-0.014,-0.964,-0.137,-0.244,-0.244,0.427,472.677
124594,146058,24053,-0.015,-0.956,-0.149,-0.244,-0.244,0.427,472.68
124594,146070,11368,-0.012,-0.956,-0.158,-1.585,-0.244,0.305,472.687
124623,146058,24053,-0.016,-0.971,-0.146,-1.585,-0.244,0.305,472.69
124623,146085,11364,-0.021,-0.98,-0.141,-1.28,0.244,-0.244,472.696
124647,146058,24053,-0.021,-0.968,-0.146,-1.28,0.244,-0.244,472.7
124647,146108,11381,-0.016,-0.944,-0.154,-1.463,0.305,-1.098,472.706
124631,146058,24053,-0.013,-0.937,-0.156,-1.463,0.305,-1.098,472.71
124631,146082,11379,-0.01,-0.94,-0.143,-0.732,0.061,-1.098,472.716
124641,146058,24053,-0.008,-0.945,-0.144,-0.732,0.061,-1.098,472.72
124641,146115,11373,-0.011,-0.945,-0.153,-0.366,0.305,-1.098,472.726
124640,146058,24053,-0.012,-0.951,-0.156,-0.366,0.305,-1.098,472.73
124640,146105,11374,-0.009,-0.957,-0.146,-0.61,0.305,-0.488,472.736
124652,146058,24053,-0.008,-0.961,-0.141,-0.61,0.305,-0.488,472.74
124652,146065,11375,-0.008,-0.96,-0.137,0,0.122,0,472.746
124645,146058,24053,-0.006,-0.964,-0.119,0,0.122,0,472.75
124645,146092,11362,-0.015,-0.966,-0.116,-1.341,0.244,0,472.756
124606,146058,24053,-0.017,-0.953,-0.146,-1.341,0.244,0,472.76
124606,146101,11369,-0.009,-0.945,-0.171,-5.915,-0.427,-0.488,472.766
124622,146058,24053,0,-0.957,-0.179,-5.915,-0.427,-0.488,472.77
124622,146078,11364,-0.005,-0.977,-0.182,-4.878,-0.549,-0.61,472.776
124586,146058,24053,-0.011,-0.979,-0.158,-4.878,-0.549,-0.61,472.779
124586,146086,11367,-0.016,-0.958,-0.148,-1.22,0.671,-0.427,472.786
124610,146058,24053,-0.014,-0.938,-0.164,-1.22,0.671,-0.427,472.789
124610,146054,11378,-0.007,-0.939,-0.171,-0.183,0.427,-0.183,472.796
124621,146058,24053,-0.004,-0.949,-0.162,-0.183,0.427,-0.183,472.799
124621,146079,11354,-0.002,-0.948,-0.158,3.354,0.61,0.427,472.805
124616,146058,24053,-0.006,-0.947,-0.161,3.354,0.61,0.427,472.809
124616,146098,11378,-0.011,-0.955,-0.139,3.598,1.524,1.22,472.815
124606,146058,24053,-0.018,-0.963,-0.125,3.598,1.524,1.22,472.819
124606,146060,11368,-0.018,-0.961,-0.144,2.744,1.463,1.585,472.825
124589,146058,24053,-0.012,-0.959,-0.155,2.744,1.463,1.585,472.829
124589,146060,11364,-0.004,-0.961,-0.148,1.646,0.976,0.793,472.835
124569,146058,24053,-0.005,-0.961,-0.137,1.646,0.976,0.793,472.839
124569,146042,11364,-0.008,-0.959,-0.135,1.463,0.854,0.854,472.845
124573,146058,24053,-0.014,-0.949,-0.138,1.463,0.854,0.854,472.849
124573,146029,11374,-0.01,-0.947,-0.143,0,0.671,1.098,472.855
124568,146058,24053,-0.008,-0.952,-0.149,0,0.671,1.098,472.859
124568,146067,11365,-0.009,-0.954,-0.151,-0.488,0.122,1.22,472.865
124564,146058,24053,-0.013,-0.967,-0.154,-0.488,0.122,1.22,472.868
124564,146066,11373,-0.02,-0.972,-0.153,-0.244,0.427,1.28,472.875
124583,146058,24053,-0.019,-0.97,-0.151,-0.244,0.427,1.28,472.878
124583,146084,11362,-0.017,-0.966,-0.137,-0.244,0.488,0.793,472.885
124598,146058,24053,-0.018,-0.958,-0.127,-0.244,0.488,0.793,472.888
124598,146085,11379,-0.016,-0.944,-0.144,-0.549,0.427,0.305,472.894
124591,146058,24053,-0.012,-0.936,-0.156,-0.549,0.427,0.305,472.898
124591,146086,11382,-0.01,-0.946,-0.153,-0.976,0.244,-0.061,472.904
124619,146058,24053,-0.012,-0.959,-0.147,-0.976,0.244,-0.061,472.908
124619,146092,11387,-0.016,-0.956,-0.144,-1.159,0.549,0.427,472.914
124614,146058,24053,-0.017,-0.953,-0.151,-1.159,0.549,0.427,472.918
124614,146094,11372,-0.014,-0.956,-0.156,-1.402,0.732,0.366,472.924
124614,146058,24053,-0.01,-0.962,-0.155,-1.402,0.732,0.366,472.928
124614,146098,11376,-0.01,-0.951,-0.159,1.098,0.549,0.305,472.934
124650,146058,24053,-0.011,-0.951,-0.154,1.098,0.549,0.305,472.938
124650,146121,11400,-0.01,-0.955,-0.138,2.256,0.976,0.366,472.944
124657,146058,24053,-0.014,-0.962,-0.125,2.256,0.976,0.366,472.948
124657,146137,11386,-0.016,-0.961,-0.139,1.646,0.732,0.549,472.954
124677,146058,24053,-0.013,-0.96,-0.158,1.646,0.732,0.549,472.958
124677,146148,11392,-0.01,-0.972,-0.148,-0.488,0.061,0.061,472.964
124686,146058,24053,-0.013,-0.977,-0.123,-0.488,0.061,0.061,472.967
124686,146137,11385,-0.021,-0.964,-0.134,-0.427,-0.061,-0.244,472.974
124663,146058,24053,-0.018,-0.944,-0.154,-0.427,-0.061,-0.244,472.977
124663,146148,11375,-0.01,-0.938,-0.153,-2.012,-0.122,-0.732,472.984
124664,146058,24053,-0.006,-0.953,-0.139,-2.012,-0.122,-0.732,472.987
124664,146129,11384,-0.009,-0.961,-0.143,-0.305,-0.061,-0.61,472.993
124655,146058,24053,-0.016,-0.953,-0.149,-0.305,-0.061,-0.61,472.997
124655,146126,11376,-0.016,-0.945,-0.15,-0.854,0.427,-0.244,473.003
124646,146058,24053,-0.016,-0.943,-0.14,-0.854,0.427,-0.244,473.007
124646,146111,11384,-0.011,-0.949,-0.142,-0.549,0.366,0,473.013
124668,146058,24053,-0.008,-0.951,-0.149,-0.549,0.366,0,473.017
124668,146124,11395,-0.005,-0.956,-0.154,-0.549,0.366,0.183,473.023
124671,146058,24053,-0.005,-0.956,-0.154,-0.549,0.366,0.183,473.027
124671,146134,11378,-0.01,-0.961,-0.153,-1.159,0.549,0.549,473.033
124630,146058,24053,-0.01,-0.961,-0.153,-1.159,0.549,0.549,473.037
124630,146123,11378,-0.012,-0.971,-0.149,-1.341,0.427,0.549,473.043
124660,146058,24053,-0.012,-0.971,-0.149,-1.341,0.427,0.549,473.047
124660,146110,11379,-0.012,-0.961,-0.151,-0.183,0.305,0.122,473.053
124645,146058,24053,-0.012,-0.961,-0.151,-0.183,0.305,0.122,473.057
124645,146108,11377,-0.009,-0.948,-0.155,-0.244,0.305,-0.122,473.063
124641,146058,24053,-0.009,-0.948,-0.155,-0.244,0.305,-0.122,473.066
124641,146111,11384,-0.009,-0.957,-0.159,0,0.488,0.122,473.073
124650,146058,24053,-0.009,-0.957,-0.159,0,0.488,0.122,473.076
124650,146150,11389,-0.011,-0.957,-0.141,1.646,0.671,0.427,473.083
124677,146058,24053,-0.011,-0.957,-0.141,1.646,0.671,0.427,473.086
124677,146145,11382,-0.014,-0.947,-0.146,1.098,0.488,0.366,473.092
124688,146058,24053,-0.014,-0.947,-0.146,1.098,0.488,0.366,473.096
124688,146162,11387,-0.01,-0.949,-0.139,0.732,0.366,0.427,473.102
124706,146058,24053,-0.01,-0.949,-0.139,0.732,0.366,0.427,473.106
124706,146172,11394,-0.011,-0.956,-0.146,-0.427,0.488,0.671,473.112
124721,146058,24053,-0.011,-0.956,-0.146,-0.427,0.488,0.671,473.116
124721,146164,11385,-0.01,-0.96,-0.16,-0.488,0.732,0.793,473.122
124705,146058,24053,-0.01,-0.96,-0.16,-0.488,0.732,0.793,473.126
124705,146161,11385,-0.009,-0.966,-0.144,0.732,0.915,0.854,473.132
124721,146314,24053,-0.009,-0.966,-0.144,0.732,0.915,0.854,473.136
124721,146176,11391,-0.013,-0.957,-0.146,1.28,0.915,0.854,473.142
124739,146058,24053,-0.013,-0.957,-0.146,1.28,0.915,0.854,473.146
124739,146170,11396,-0.009,-0.956,-0.153,0,0.671,0.671,473.152
124751,146314,24053,-0.009,-0.956,-0.153,0,0.671,0.671,473.156
124751,146200,11391,-0.016,-0.967,-0.133,-0.427,0.671,0.671,473.162
124749,146314,24053,-0.016,-0.967,-0.133,-0.427,0.671,0.671,473.165
124749,146208,11408,-0.02,-0.963,-0.135,-0.427,0.671,0.671,473.172
124806,146314,24053,-0.018,-0.952,-0.142,-1.037,0.244,0.488,473.175
124806,146235,11397,-0.013,-0.949,-0.143,-1.037,0.244,0.488,473.182
124798,146314,24053,-0.015,-0.95,-0.144,-1.159,-0.366,0.305,473.185
124798,146251,11413,-0.014,-0.95,-0.148,-1.159,-0.366,0.305,473.191
124799,146314,24053,-0.013,-0.956,-0.153,-1.098,-0.122,0.366,473.195
124799,146218,11398,-0.012,-0.958,-0.156,-1.098,-0.122,0.366,473.201
124764,146314,24053,-0.012,-0.951,-0.162,-0.976,0,0.427,473.205
124764,146206,11411,-0.009,-0.947,-0.167,-0.976,0,0.427,473.211
124771,146314,24053,-0.003,-0.954,-0.16,0.061,0.427,0.488,473.215
124771,146214,11377,-0.007,-0.96,-0.14,0.061,0.427,0.488,473.221
124731,146314,24053,-0.011,-0.959,-0.129,0.854,1.098,0.732,473.225
124731,146176,11397,-0.013,-0.952,-0.148,0.854,1.098,0.732,473.231
124702,146058,24053,-0.013,-0.958,-0.161,-1.037,0.976,0.732,473.235
124702,146148,11394,-0.008,-0.973,-0.152,-1.037,0.976,0.732,473.241
124666,146058,24053,-0.008,-0.986,-0.119,-0.122,0.732,0.61,473.245
124666,146165,11379,-0.018,-0.976,-0.096,-0.122,0.732,0.61,473.251
124669,146058,24053,-0.025,-0.943,-0.11,-2.378,0.305,0.183,473.255
124669,146123,11382,-0.02,-0.922,-0.14,-2.378,0.305,0.183,473.261
124670,146058,24053,-0.016,-0.936,-0.147,-5.366,-0.976,-0.244,473.264
124670,146125,11377,-0.012,-0.964,-0.147,-5.366,-0.976,-0.244,473.271
124650,146058,24053,-0.014,-0.97,-0.152,-3.659,-1.341,-0.366,473.274
124650,146146,11392,-0.016,-0.951,-0.178,-3.659,-1.341,-0.366,473.281
124648,146058,24053,-0.015,-0.94,-0.207,-4.695,-0.976,-0.305,473.284
124648,146109,11367,-0.011,-0.954,-0.201,-4.695,-0.976,-0.305,473.29
124647,146058,24053,-0.008,-0.967,-0.179,0.61,-0.122,0,473.294
124647,146114,11388,-0.006,-0.954,-0.182,0.61,-0.122,0,473.3
124648,146058,24053,-0.006,-0.939,-0.191,3.537,1.098,0.305,473.304
124648,146103,11384,-0.01,-0.942,-0.179,3.537,1.098,0.305,473.31
124642,146058,24053,-0.009,-0.958,-0.153,3.659,1.829,0.976,473.314
124642,146109,11376,-0.009,-0.968,-0.139,3.659,1.829,0.976,473.32
124637,146058,24053,-0.013,-0.965,-0.134,3.354,2.134,0.854,473.324
124637,146124,11372,-0.016,-0.97,-0.124,3.354,2.134,0.854,473.33
124654,146058,24053,-0.017,-0.967,-0.117,1.829,1.524,0.61,473.334
124654,146140,11385,-0.014,-0.961,-0.112,1.829,1.524,0.61,473.34
124684,146058,24053,-0.013,-0.961,-0.112,0.854,0.61,0.183,473.344
124684,146117,11377,-0.019,-0.961,-0.118,0.854,0.61,0.183,473.35
124692,146058,24053,-0.02,-0.954,-0.122,-1.098,0.061,-0.427,473.354
124692,146132,11383,-0.013,-0.942,-0.143,-1.098,0.061,-0.427,473.36
124686,146058,24053,-0.008,-0.942,-0.175,-2.744,-0.732,-0.61,473.363
124686,146158,11399,-0.005,-0.956,-0.177,-2.744,-0.732,-0.61,473.37
124707,146058,24053,-0.004,-0.971,-0.159,0.244,-0.549,-0.244,473.373
124707,146163,11392,-0.009,-0.96,-0.154,0.244,-0.549,-0.244,473.38
124689,146058,24053,-0.012,-0.943,-0.175,2.256,0.488,0.244,473.383
124689,146146,11386,-0.008,-0.947,-0.174,2.256,0.488,0.244,473.389
124700,146314,24053,-0.009,-0.968,-0.155,3.415,0.976,0.671,473.393
124700,146176,11397,-0.013,-0.969,-0.149,3.415,0.976,0.671,473.399
124710,146058,24053,-0.014,-0.955,-0.154,2.5,1.585,0.549,473.403
124710,146171,11388,-0.011,-0.949,-0.141,2.5,1.585,0.549,473.409
124708,146314,24053,-0.011,-0.955,-0.13,0.61,1.341,0.427,473.413
124708,146177,11393,-0.006,-0.958,-0.137,0.61,1.341,0.427,473.419
124698,146314,24053,-0.008,-0.957,-0.134,0.793,0.793,0.427,473.423
124698,146183,11408,-0.01,-0.958,-0.122,0.793,0.793,0.427,473.429
124709,146314,24053,-0.012,-0.958,-0.122,-0.854,0.305,0.793,473.433
124709,146183,11392,-0.012,-0.948,-0.147,-0.854,0.305,0.793,473.439
124704,146314,24053,-0.005,-0.949,-0.154,-2.073,-0.183,0.915,473.443
124704,146188,11395,-0.002,-0.958,-0.149,-2.073,-0.183,0.915,473.449
124733,146314,24053,-0.004,-0.963,-0.151,-0.427,-0.61,1.341,473.453
124733,146198,11421,-0.009,-0.959,-0.149,-0.427,-0.61,1.341,473.459
124768,146314,24053,-0.01,-0.956,-0.16,0.183,-0.061,1.89,473.462
124768,146206,11400,-0.008,-0.954,-0.169,0.183,-0.061,1.89,473.469
124754,146314,24053,-0.008,-0.958,-0.174,1.037,0.488,1.768,473.472
124754,146200,11403,-0.006,-0.967,-0.158,1.037,0.488,1.768,473.479
124758,146314,24053,-0.01,-0.97,-0.143,1.707,0.915,1.646,473.482
124758,146218,11411,-0.019,-0.964,-0.142,1.707,0.915,1.646,473.488
124770,146314,24053,-0.021,-0.958,-0.146,0.427,1.402,1.585,473.492
124770,146225,11411,-0.018,-0.958,-0.138,0.427,1.402,1.585,473.498
124763,146314,24053,-0.019,-0.962,-0.124,1.098,1.341,1.22,473.502
124763,146227,11414,-0.021,-0.957,-0.121,1.098,1.341,1.22,473.508
124743,146314,24053,-0.024,-0.946,-0.126,0.793,1.22,0.671,473.512
124743,146220,11401,-0.023,-0.939,-0.134,0.793,1.22,0.671,473.518
124686,146058,24053,-0.02,-0.935,-0.133,-0.854,0.366,0.488,473.522
124686,146170,11401,-0.018,-0.945,-0.137,-0.854,0.366,0.488,473.528
124633,146058,24053,-0.016,-0.958,-0.132,-1.646,-0.183,0.427,473.532
124633,146119,11381,-0.019,-0.967,-0.132,-1.646,-0.183,0.427,473.538
124607,146058,24053,-0.016,-0.962,-0.159,-2.134,-0.427,0.366,473.542
124607,146109,11385,-0.011,-0.956,-0.183,-2.134,-0.427,0.366,473.548
124574,146058,24053,-0.01,-0.966,-0.179,-1.524,-0.366,0.244,473.552
124574,146109,11373,-0.008,-0.981,-0.165,-1.524,-0.366,0.244,473.558
124560,146058,24053,-0.011,-0.971,-0.172,1.341,0.488,0.122,473.561
124560,146066,11378,-0.011,-0.956,-0.176,1.341,0.488,0.122,473.568
124568,146058,24053,-0.012,-0.963,-0.147,1.646,1.341,0.183,473.571
124568,146059,11366,-0.016,-0.969,-0.123,1.646,1.341,0.183,473.578
124564,146058,24053,-0.02,-0.961,-0.128,1.524,1.585,-0.244,473.581
124564,146090,11377,-0.017,-0.953,-0.128,1.524,1.585,-0.244,473.587
124594,146058,24053,-0.015,-0.959,-0.118,-1.89,1.402,-0.793,473.591
124594,146079,11389,-0.017,-0.96,-0.131,-1.89,1.402,-0.793,473.597
124632,146058,24053,-0.018,-0.95,-0.139,-3.171,0.854,-0.793,473.601
124632,146106,11393,-0.013,-0.957,-0.136,-3.171,0.854,-0.793,473.607
124646,146058,24053,-0.012,-0.957,-0.125,-3.293,0.305,-0.915,473.611
124646,146148,11393,-0.014,-0.945,-0.127,-3.293,0.305,-0.915,473.617
124676,146058,24053,-0.014,-0.945,-0.127,-3.293,0.305,-0.915,473.621
124676,146122,11391,-0.015,-0.937,-0.164,-1.524,-0.366,-0.61,473.627
124659,146058,24053,-0.015,-0.937,-0.164,-1.524,-0.366,-0.61,473.631
124659,146125,11391,-0.009,-0.96,-0.152,0,-0.671,-0.183,473.637
124669,146058,24053,-0.009,-0.96,-0.152,0,-0.671,-0.183,473.641
124669,146153,11392,-0.013,-0.949,-0.159,0.244,-0.427,0,473.647
124686,146058,24053,-0.013,-0.949,-0.159,0.244,-0.427,0,473.651
124686,146155,11397,-0.011,-0.966,-0.148,-0.366,0,0.305,473.657
124707,146314,24053,-0.011,-0.966,-0.148,-0.366,0,0.305,473.66
124707,146187,11401,-0.006,-0.956,-0.164,-0.183,-0.122,0.183,473.667
124726,146314,24053,-0.006,-0.956,-0.164,-0.183,-0.122,0.183,473.67
124726,146184,11403,-0.011,-0.963,-0.135,-1.768,-0.061,0.122,473.677
124713,146314,24053,-0.011,-0.963,-0.135,-1.768,-0.061,0.122,473.68
124713,146219,11414,-0.006,-0.958,-0.152,-1.402,0.122,0.549,473.686
124726,146314,24053,-0.006,-0.958,-0.152,-1.402,0.122,0.549,473.69
124726,146191,11400,-0.004,-0.949,-0.15,-1.463,0,0.427,473.696
124725,146314,24053,-0.004,-0.949,-0.15,-1.463,0,0.427,473.7
124725,146205,11409,-0.01,-0.947,-0.154,-1.159,-0.122,0.732,473.706
124729,146314,24053,-0.01,-0.947,-0.154,-1.159,-0.122,0.732,473.71
124729,146201,11398,-0.01,-0.969,-0.158,-0.488,0.061,1.159,473.716
124764,146314,24053,-0.01,-0.969,-0.158,-0.488,0.061,1.159,473.72
124764,146229,11411,-0.013,-0.953,-0.143,1.159,0.427,1.22,473.726
124766,146314,24053,-0.013,-0.953,-0.143,1.159,0.427,1.22,473.73
124766,146229,11403,-0.014,-0.956,-0.151,1.22,0.671,1.341,473.736
124756,146314,24053,-0.014,-0.956,-0.151,1.22,0.671,1.341,473.74
124756,146210,11408,-0.014,-0.964,-0.145,1.402,0.732,1.341,473.746
124781,146314,24053,-0.014,-0.964,-0.145,1.402,0.732,1.341,473.75
124781,146243,11416,-0.021,-0.973,-0.133,0.549,0.976,1.159,473.756
124794,146314,24053,-0.021,-0.973,-0.133,0.549,0.976,1.159,473.759
124794,146218,11412,-0.021,-0.966,-0.139,0.061,1.098,0.732,473.766
124776,146314,24053,-0.018,-0.959,-0.155,0.061,1.098,0.732,473.769
124776,146208,11410,-0.019,-0.96,-0.137,0.366,0.61,0.061,473.776
124766,146314,24053,-0.015,-0.952,-0.13,0.366,0.61,0.061,473.779
124766,146193,11418,-0.016,-0.934,-0.154,-0.671,0.122,0,473.785
124728,146314,24053,-0.013,-0.935,-0.166,-0.671,0.122,0,473.789
124728,146190,11394,-0.01,-0.954,-0.148,-1.098,0.305,0.061,473.795
124721,146058,24053,-0.014,-0.964,-0.141,-1.098,0.305,0.061,473.799
124721,146174,11411,-0.009,-0.96,-0.152,0.549,0.488,0.427,473.805
124731,146314,24053,-0.008,-0.95,-0.157,0.549,0.488,0.427,473.809
124731,146176,11394,-0.009,-0.957,-0.148,0.366,0.488,0.915,473.815
124713,146058,24053,-0.013,-0.961,-0.142,0.366,0.488,0.915,473.819
124713,146163,11412,-0.014,-0.955,-0.145,1.159,0.427,1.22,473.825
124735,146058,24053,-0.013,-0.954,-0.144,1.159,0.427,1.22,473.829
124735,146165,11394,-0.013,-0.968,-0.125,0.427,0.305,1.098,473.835
124728,146314,24053,-0.019,-0.975,-0.118,0.427,0.305,1.098,473.839
124728,146206,11411,-0.02,-0.969,-0.137,-0.61,0.122,0.61,473.845
124762,146314,24053,-0.018,-0.961,-0.158,-0.61,0.122,0.61,473.849
124762,146223,11418,-0.012,-0.957,-0.159,-1.89,-0.488,-0.183,473.855
124766,146314,24053,-0.009,-0.955,-0.161,-1.89,-0.488,-0.183,473.858
124766,146220,11424,-0.016,-0.952,-0.166,-0.427,-0.061,-0.305,473.865
124791,146314,24053,-0.015,-0.956,-0.155,-0.427,-0.061,-0.305,473.868
124791,146245,11401,-0.013,-0.954,-0.149,0.305,0.671,-0.305,473.875
124779,146314,24053,-0.013,-0.945,-0.155,0.305,0.671,-0.305,473.878
124779,146247,11411,-0.008,-0.943,-0.155,0.183,0.671,-0.061,473.884
124753,146314,24053,-0.006,-0.945,-0.148,0.183,0.671,-0.061,473.888
124753,146200,11388,-0.005,-0.95,-0.151,-0.061,0.976,0.427,473.894
124672,146058,24053,-0.008,-0.951,-0.16,-0.061,0.976,0.427,473.898
124672,146175,11396,-0.01,-0.963,-0.155,-0.366,1.159,0.976,473.904
124669,146058,24053,-0.012,-0.976,-0.133,-0.366,1.159,0.976,473.908
124669,146142,11397,-0.02,-0.973,-0.123,0.061,1.159,1.402,473.914
124608,146058,24053,-0.019,-0.964,-0.141,0.061,1.159,1.402,473.918
124608,146120,11385,-0.015,-0.958,-0.151,-1.22,0.854,0.976,473.924
124559,146058,24053,-0.014,-0.959,-0.144,-1.22,0.854,0.976,473.928
124559,146064,11379,-0.013,-0.96,-0.138,-0.854,0.305,0.671,473.934
124554,146058,24053,-0.016,-0.955,-0.144,-0.854,0.305,0.671,473.938
124554,146035,11364,-0.015,-0.949,-0.157,-1.22,0.305,0.671,473.944
124544,146058,24053,-0.017,-0.95,-0.165,-1.22,0.305,0.671,473.948
124544,146030,11350,-0.017,-0.954,-0.158,-0.549,0.366,0.732,473.954
124538,146058,24053,-0.018,-0.957,-0.16,-0.549,0.366,0.732,473.957
124538,146037,11391,-0.017,-0.964,-0.16,1.098,0.671,0.488,473.964
124562,146058,24053,-0.02,-0.966,-0.15,1.098,0.671,0.488,473.967
124562,146078,11379,-0.021,-0.968,-0.142,1.585,0.732,0.244,473.974
124567,146058,24053,-0.019,-0.955,-0.147,1.585,0.732,0.244,473.977
124567,146073,11398,-0.014,-0.95,-0.155,-0.122,0.61,-0.244,473.983
124612,146058,24053,-0.012,-0.963,-0.153,-0.122,0.61,-0.244,473.987
124612,146088,11402,-0.014,-0.972,-0.146,0.366,0.488,-0.671,473.993
124618,146058,24053,-0.012,-0.966,-0.137,0.366,0.488,-0.671,473.997
124618,146107,11384,-0.011,-0.951,-0.133,0.976,0.488,-0.61,474.003
124590,146058,24053,-0.015,-0.939,-0.133,0.976,0.488,-0.61,474.007
124590,146106,11386,-0.012,-0.944,-0.131,-0.183,0.183,-0.488,474.013
124595,146058,24053,-0.012,-0.95,-0.127,-0.183,0.183,-0.488,474.017
124595,146113,11372,-0.013,-0.954,-0.131,-0.549,-0.305,-0.244,474.023
124588,146058,24053,-0.007,-0.954,-0.135,-0.549,-0.305,-0.244,474.027
124588,146093,11388,-0.011,-0.956,-0.134,-1.89,-0.61,-0.061,474.033
124603,146058,24053,-0.017,-0.953,-0.136,-1.89,-0.61,-0.061,474.037
124603,146096,11386,-0.017,-0.954,-0.158,-1.89,-0.549,0.122,474.043
124618,146058,24053,-0.011,-0.959,-0.168,-1.89,-0.549,0.122,474.047
124618,146117,11380,-0.011,-0.964,-0.17,-0.854,-0.488,0.183,474.053
124650,146058,24053,-0.008,-0.957,-0.169,-0.854,-0.488,0.183,474.056
124650,146138,11400,-0.009,-0.957,-0.172,-0.305,0.183,0.244,474.063
124676,146058,24053,-0.01,-0.959,-0.17,-0.305,0.183,0.244,474.066
124676,146174,11391,-0.013,-0.961,-0.157,0.854,1.159,0.244,474.073
124696,146058,24053,-0.013,-0.958,-0.148,0.854,1.159,0.244,474.076
124696,146170,11400,-0.012,-0.952,-0.162,1.524,1.28,0.366,474.082
124708,146314,24053,-0.011,-0.956,-0.165,1.524,1.28,0.366,474.086
124708,146190,11406,-0.008,-0.961,-0.15,1.646,1.098,0.366,474.092
124707,146314,24053,-0.01,-0.96,-0.142,1.646,1.098,0.366,474.096
124707,146180,11420,-0.01,-0.951,-0.14,2.561,1.159,0.366,474.102
124729,146314,24053,-0.014,-0.949,-0.123,2.561,1.159,0.366,474.106
124729,146196,11400,-0.011,-0.948,-0.125,1.768,1.098,0.732,474.112
124710,146314,24053,-0.015,-0.953,-0.133,1.768,1.098,0.732,474.116
124710,146186,11395,-0.014,-0.953,-0.136,0.732,0.427,0.976,474.122
124694,146058,24053,-0.011,-0.957,-0.132,0.732,0.427,0.976,474.126
124694,146167,11403,-0.014,-0.964,-0.13,-0.488,0.061,0.915,474.132
124687,146058,24053,-0.013,-0.96,-0.143,-0.488,0.061,0.915,474.136
124687,146174,11406,-0.013,-0.958,-0.152,-1.341,0.122,0.854,474.142
124711,146058,24053,-0.012,-0.964,-0.145,-1.341,0.122,0.854,474.146
124711,146159,11409,-0.012,-0.964,-0.146,-0.732,0.122,0.732,474.152
124710,146058,24053,-0.016,-0.958,-0.156,-0.732,0.122,0.732,474.155
124710,146166,11411,-0.012,-0.95,-0.165,-0.854,0.305,0.671,474.162
124705,146314,24053,-0.013,-0.95,-0.161,-0.854,0.305,0.671,474.165
124705,146196,11416,-0.01,-0.954,-0.165,0.122,0.671,0.671,474.172
124743,146314,24053,-0.014,-0.959,-0.161,0.122,0.671,0.671,474.175
124743,146194,11420,-0.014,-0.963,-0.155,1.768,0.976,0.732,474.181
124751,146314,24053,-0.014,-0.963,-0.143,1.768,0.976,0.732,474.185
124751,146228,11407,-0.014,-0.956,-0.142,1.89,1.037,0.976,474.191
124745,146314,24053,-0.017,-0.949,-0.149,1.89,1.037,0.976,474.195
124745,146232,11422,-0.015,-0.951,-0.145,1.159,0.732,0.854,474.201
124764,146314,24053,-0.015,-0.951,-0.145,1.159,0.732,0.854,474.205
124764,146252,11413,-0.018,-0.964,-0.129,0.854,0.61,0.793,474.211
124783,146314,24053,-0.018,-0.964,-0.129,0.854,0.61,0.793,474.215
124783,146239,11405,-0.018,-0.951,-0.139,-1.098,0.427,0.671,474.221
124782,146314,24053,-0.018,-0.951,-0.139,-1.098,0.427,0.671,474.225
124782,146225,11409,-0.011,-0.956,-0.149,-1.829,-0.061,0.244,474.231
124765,146314,24053,-0.011,-0.956,-0.149,-1.829,-0.061,0.244,474.235
124765,146230,11415,-0.011,-0.96,-0.164,-1.524,0.305,0.244,474.241
124791,146314,24053,-0.011,-0.96,-0.164,-1.524,0.305,0.244,474.245
124791,146243,11409,-0.013,-0.964,-0.161,-0.061,0.976,0.244,474.251
124779,146314,24053,-0.013,-0.964,-0.161,-0.061,0.976,0.244,474.254
124779,146249,11403,-0.013,-0.96,-0.156,2.195,1.341,0.061,474.261
124761,146314,24053,-0.013,-0.96,-0.156,2.195,1.341,0.061,474.264
124761,146226,11422,-0.011,-0.953,-0.137,2.256,1.402,0.183,474.271
124771,146314,24053,-0.011,-0.953,-0.137,2.256,1.402,0.183,474.274
124771,146209,11402,-0.011,-0.962,-0.132,2.439,1.402,0.549,474.28
124751,146314,24053,-0.011,-0.962,-0.132,2.439,1.402,0.549,474.284
124751,146199,11406,-0.018,-0.963,-0.116,1.28,1.098,0.549,474.29
124727,146314,24053,-0.018,-0.963,-0.116,1.28,1.098,0.549,474.294
124727,146202,11406,-0.016,-0.945,-0.13,-1.402,0.305,0.488,474.3
124725,146314,24053,-0.016,-0.945,-0.13,-1.402,0.305,0.488,474.304
124725,146195,11394,-0.013,-0.954,-0.129,-3.537,-0.366,0.122,474.31
124711,146314,24053,-0.013,-0.954,-0.129,-3.537,-0.366,0.122,474.314
124711,146201,11399,-0.015,-0.958,-0.159,-5.61,-0.61,-0.122,474.32
124706,146314,24053,-0.015,-0.958,-0.159,-5.61,-0.61,-0.122,474.324
124706,146179,11406,-0.012,-0.966,-0.17,-3.841,-0.793,0.061,474.33
124745,146314,24053,-0.012,-0.966,-0.17,-3.841,-0.793,0.061,474.334
124745,146202,11405,-0.016,-0.963,-0.155,-1.585,-0.61,0.122,474.34
124771,146314,24053,-0.016,-0.963,-0.155,-1.585,-0.61,0.122,474.344
124771,146217,11413,-0.016,-0.945,-0.163,-1.585,-0.61,0.122,474.35
124757,146314,24053,-0.012,-0.942,-0.176,-1.402,-0.244,0.183,474.353
124757,146210,11408,-0.011,-0.952,-0.172,-1.402,-0.244,0.183,474.36
124801,146314,24053,-0.013,-0.97,-0.152,0.61,0.549,0,474.363
124801,146244,11403,-0.015,-0.98,-0.126,0.61,0.549,0,474.37
124797,146314,24053,-0.019,-0.967,-0.115,0.549,0.915,0.061,474.373
124797,146232,11420,-0.021,-0.949,-0.108,0.549,0.915,0.061,474.379
124790,146314,24053,-0.024,-0.935,-0.113,-3.293,0.061,-0.488,474.383
124790,146229,11420,-0.017,-0.941,-0.114,-3.293,0.061,-0.488,474.389
124818,146314,24053,-0.013,-0.964,-0.113,-5.305,-1.341,-1.341,474.393
124818,146219,11408,-0.015,-0.967,-0.129,-5.305,-1.341,-1.341,474.399
124774,146314,24053,-0.016,-0.956,-0.147,-8.78,-2.622,-1.707,474.403
124774,146256,11410,-0.02,-0.957,-0.157,-8.78,-2.622,-1.707,474.409
124784,146314,24053,-0.02,-0.957,-0.182,-8.598,-3.415,-1.585,474.413
124784,146209,11405,-0.01,-0.945,-0.191,-8.598,-3.415,-1.585,474.419
124759,146314,24053,0.004,-0.939,-0.197,-3.659,-2.683,-1.22,474.423
124759,146180,11413,0.003,-0.928,-0.218,-3.659,-2.683,-1.22,474.429
124762,146314,24053,0.003,-0.93,-0.218,0.122,-0.732,-0.488,474.433
124762,146194,11411,0.002,-0.951,-0.197,0.122,-0.732,-0.488,474.439
124765,146314,24053,-0.006,-0.974,-0.181,3.598,1.463,1.22,474.443
124765,146224,11405,-0.012,-0.981,-0.173,3.598,1.463,1.22,474.449
124798,146314,24053,-0.016,-0.982,-0.158,6.22,2.744,1.402,474.452
124798,146246,11405,-0.014,-0.975,-0.133,6.22,2.744,1.402,474.459
124820,146314,24053,-0.011,-0.966,-0.116,5.976,2.134,0.854,474.462
124820,146277,11398,-0.009,-0.952,-0.11,5.976,2.134,0.854,474.469
124810,146314,24053,-0.016,-0.943,-0.109,0.305,1.28,0.305,474.472
124810,146271,11417,-0.02,-0.942,-0.112,0.305,1.28,0.305,474.478
124832,146314,24053,-0.019,-0.956,-0.122,-3.841,0.122,-0.061,474.482
124832,146296,11414,-0.016,-0.969,-0.141,-3.841,0.122,-0.061,474.488
124857,146314,24053,-0.012,-0.964,-0.154,-3.902,-1.28,-0.549,474.492
124857,146257,11415,-0.007,-0.949,-0.166,-3.902,-1.28,-0.549,474.498
124837,146314,24053,-0.009,-0.941,-0.185,-2.622,-1.22,-0.61,474.502
124837,146238,11396,-0.006,-0.942,-0.195,-2.622,-1.22,-0.61,474.508
124842,146314,24053,-0.001,-0.953,-0.19,1.951,0.122,0.305,474.512
124842,146242,11416,0,-0.959,-0.177,1.951,0.122,0.305,474.518
124835,146314,24053,-0.005,-0.954,-0.173,5.793,1.585,1.098,474.522
124835,146273,11403,-0.009,-0.946,-0.164,5.793,1.585,1.098,474.528
124853,146314,24053,-0.009,-0.953,-0.159,5.366,2.744,1.951,474.532
124853,146269,11418,-0.009,-0.965,-0.151,5.366,2.744,1.951,474.538
124872,146314,24053,-0.007,-0.967,-0.147,3.537,2.988,1.585,474.542
124872,146275,11424,-0.011,-0.971,-0.139,3.537,2.988,1.585,474.548
124869,146314,24053,-0.017,-0.968,-0.126,2.073,2.866,1.402,474.551
124869,146294,11414,-0.017,-0.963,-0.125,2.073,2.866,1.402,474.558
124895,146314,24053,-0.016,-0.959,-0.115,0.793,2.256,1.037,474.561
124895,146311,11423,-0.017,-0.955,-0.094,0.793,2.256,1.037,474.568
124889,146314,24053,-0.019,-0.947,-0.108,-0.366,0.976,0.488,474.571
124889,146289,11410,-0.017,-0.943,-0.131,-0.366,0.976,0.488,474.577
124894,146314,24053,-0.017,-0.948,-0.135,-2.195,-0.305,0.671,474.581
124894,146305,11423,-0.013,-0.951,-0.146,-2.195,-0.305,0.671,474.587
124883,146314,24053,-0.016,-0.955,-0.173,-2.988,-0.854,0.427,474.591
124883,146314,11426,-0.012,-0.958,-0.18,-2.988,-0.854,0.427,474.597
124859,146314,24053,-0.009,-0.964,-0.184,-0.793,-0.244,0.488,474.601
124859,146285,11430,-0.011,-0.965,-0.18,-0.793,-0.244,0.488,474.607
124836,146314,24053,-0.014,-0.966,-0.166,2.988,0.793,0.671,474.611
124836,146259,11408,-0.017,-0.966,-0.164,2.988,0.793,0.671,474.617
124792,146314,24053,-0.017,-0.958,-0.163,3.841,1.646,0.549,474.621
124792,146232,11410,-0.012,-0.951,-0.158,3.841,1.646,0.549,474.627
124770,146314,24053,-0.01,-0.948,-0.142,3.415,1.707,0.183,474.631
124770,146207,11401,-0.012,-0.953,-0.129,3.415,1.707,0.183,474.637
124746,146314,24053,-0.017,-0.957,-0.116,2.744,1.646,0.122,474.641
124746,146192,11412,-0.018,-0.955,-0.105,2.744,1.646,0.122,474.647
124741,146314,24053,-0.021,-0.95,-0.107,-0.183,0.915,0.122,474.65
124741,146182,11380,-0.019,-0.954,-0.124,-0.183,0.915,0.122,474.657
124720,146058,24053,-0.017,-0.961,-0.135,-1.768,-0.244,-0.488,474.66
124720,146170,11392,-0.014,-0.959,-0.137,-1.768,-0.244,-0.488,474.667
124708,146058,24053,-0.012,-0.957,-0.136,-2.012,-0.976,-0.915,474.67
124708,146161,11397,-0.015,-0.952,-0.142,-2.012,-0.976,-0.915,474.676
124685,146058,24053,-0.013,-0.949,-0.156,-2.5,-1.098,-0.854,474.68
124685,146138,11388,-0.008,-0.951,-0.173,-2.5,-1.098,-0.854,474.686
124677,146058,24053,-0.003,-0.958,-0.18,-0.915,-0.915,-0.671,474.69
124677,146144,11376,-0.003,-0.965,-0.182,-0.915,-0.915,-0.671,474.696
124690,146058,24053,-0.005,-0.968,-0.174,1.524,0,-0.366,474.7
124690,146157,11383,-0.008,-0.97,-0.167,1.524,0,-0.366,474.706
124725,146058,24053,-0.01,-0.957,-0.16,2.561,1.28,-0.305,474.71
124725,146157,11393,-0.013,-0.952,-0.158,2.561,1.28,-0.305,474.716
124722,146314,24053,-0.009,-0.951,-0.155,2.561,1.402,0.061,474.72
124722,146177,11401,-0.003,-0.954,-0.145,2.561,1.402,0.061,474.726
124744,146058,24053,-0.002,-0.953,-0.144,2.439,1.159,0.122,474.73
124744,146174,11404,-0.005,-0.949,-0.143,2.439,1.159,0.122,474.736
124778,146314,24053,-0.007,-0.951,-0.13,1.585,1.402,0.427,474.74
124778,146203,11397,-0.012,-0.952,-0.121,1.585,1.402,0.427,474.746
124759,146314,24053,-0.007,-0.951,-0.128,0.122,0.915,0.854,474.749
124759,146192,11402,-0.007,-0.949,-0.13,0.122,0.915,0.854,474.756
124791,146314,24053,-0.009,-0.954,-0.132,-0.671,0.061,1.159,474.759
124791,146195,11401,-0.006,-0.955,-0.139,-0.671,0.061,1.159,474.766
124769,146314,24053,-0.007,-0.953,-0.138,-1.707,-0.122,1.463,474.769
124769,146213,11393,-0.009,-0.958,-0.142,-1.707,-0.122,1.463,474.775
124775,146314,24053,-0.007,-0.958,-0.157,-2.073,-0.183,1.585,474.779
124775,146218,11403,-0.008,-0.959,-0.166,-2.073,-0.183,1.585,474.785
124784,146314,24053,-0.008,-0.959,-0.166,-2.073,-0.183,1.585,474.789
124784,146215,11404,-0.011,-0.973,-0.157,-0.854,0.183,1.524,474.795
124798,146314,24053,-0.011,-0.973,-0.157,-0.854,0.183,1.524,474.799
124798,146251,11413,-0.018,-0.956,-0.153,1.037,0.793,1.585,474.805
124825,146314,24053,-0.018,-0.956,-0.153,1.037,0.793,1.585,474.809
124825,146242,11399,-0.015,-0.959,-0.152,0.671,1.159,1.28,474.815
124827,146314,24053,-0.015,-0.959,-0.152,0.671,1.159,1.28,474.819
124827,146276,11402,-0.011,-0.953,-0.14,0.976,1.037,0.793,474.825
124819,146314,24053,-0.011,-0.953,-0.14,0.976,1.037,0.793,474.829
124819,146276,11421,-0.016,-0.953,-0.128,0.366,0.915,0.854,474.835
124840,146314,24053,-0.016,-0.953,-0.128,0.366,0.915,0.854,474.839
124840,146258,11403,-0.015,-0.952,-0.127,0.671,0.793,0.915,474.845
124815,146314,24053,-0.015,-0.952,-0.127,0.671,0.793,0.915,474.848
124815,146252,11414,-0.016,-0.954,-0.151,-0.427,0.061,0.915,474.855
124816,146314,24053,-0.016,-0.954,-0.151,-0.427,0.061,0.915,474.858
124816,146250,11392,-0.01,-0.97,-0.164,-2.256,-0.244,0.793,474.865
124807,146314,24053,-0.01,-0.97,-0.164,-2.256,-0.244,0.793,474.868
124807,146251,11408,-0.011,-0.959,-0.18,-0.671,0.305,0.61,474.874
124787,146314,24053,-0.011,-0.959,-0.18,-0.671,0.305,0.61,474.878
124787,146231,11405,-0.01,-0.962,-0.167,1.402,1.098,0.549,474.884
124767,146314,24053,-0.01,-0.962,-0.167,1.402,1.098,0.549,474.888
124767,146238,11418,-0.008,-0.958,-0.182,3.659,1.951,0.488,474.894
124793,146314,24053,-0.008,-0.958,-0.182,3.659,1.951,0.488,474.898
124793,146224,11413,-0.015,-0.979,-0.133,4.024,3.049,0.549,474.904
124782,146314,24053,-0.015,-0.979,-0.133,4.024,3.049,0.549,474.908
124782,146233,11412,-0.021,-0.949,-0.122,4.573,3.354,0.549,474.914
124790,146314,24053,-0.021,-0.949,-0.122,4.573,3.354,0.549,474.918
124790,146244,11396,-0.02,-0.951,-0.115,3.293,2.988,0.366,474.924
124781,146314,24053,-0.02,-0.951,-0.115,3.293,2.988,0.366,474.928
124781,146219,11409,-0.015,-0.954,-0.106,3.78,2.195,-0.244,474.934
124803,146314,24053,-0.018,-0.939,-0.111,3.78,2.195,-0.244,474.938
124803,146224,11403,-0.016,-0.939,-0.11,0.854,1.22,-0.549,474.944
124797,146314,24053,-0.014,-0.94,-0.116,0.854,1.22,-0.549,474.947
124797,146204,11406,-0.015,-0.946,-0.121,-0.61,0.183,-0.427,474.954
124784,146314,24053,-0.013,-0.945,-0.139,-0.61,0.183,-0.427,474.957
124784,146225,11398,-0.006,-0.947,-0.163,-2.073,-0.549,-0.305,474.964
124826,146314,24053,-0.003,-0.964,-0.168,-2.073,-0.549,-0.305,474.967
124826,146218,11414,-0.004,-0.984,-0.159,-1.402,-0.488,0.183,474.973
124816,146314,24053,-0.011,-0.984,-0.147,-1.402,-0.488,0.183,474.977
124816,146238,11417,-0.015,-0.977,-0.148,-0.061,0.305,0.488,474.983
124838,146314,24053,-0.012,-0.971,-0.162,-0.061,0.305,0.488,474.987
124838,146255,11401,-0.007,-0.965,-0.166,0.793,0.427,0.244,474.993
124862,146314,24053,-0.004,-0.963,-0.15,0.793,0.427,0.244,474.997
124862,146273,11414,-0.006,-0.954,-0.127,1.768,0.732,0.061,475.003
124876,146314,24053,-0.013,-0.948,-0.137,1.768,0.732,0.061,475.007
124876,146289,11423,-0.017,-0.946,-0.148,0,1.524,0.122,475.013
124884,146314,24053,-0.016,-0.955,-0.14,0,1.524,0.122,475.017
124884,146315,11410,-0.009,-0.961,-0.117,0.244,1.037,0.427,475.023
124901,146314,24053,-0.011,-0.951,-0.114,0.244,1.037,0.427,475.027
124901,146321,11412,-0.018,-0.936,-0.131,-0.305,0.244,0.793,475.033
124936,146314,24053,-0.015,-0.936,-0.129,-0.305,0.244,0.793,475.037
124936,146321,11421,-0.015,-0.948,-0.127,-0.549,-0.061,0.732,475.043
124929,146314,24053,-0.012,-0.957,-0.135,-0.549,-0.061,0.732,475.046
124929,146326,11415,-0.013,-0.959,-0.142,-0.183,-0.549,0.671,475.053
124926,146314,24053,-0.014,-0.957,-0.153,-0.183,-0.549,0.671,475.056
124926,146318,11419,-0.016,-0.962,-0.169,-1.159,-0.61,0.732,475.063
124947,146314,24053,-0.011,-0.973,-0.179,-1.159,-0.61,0.732,475.066
124947,146343,11443,-0.009,-0.986,-0.165,0.793,0.183,0.61,475.072
124978,146314,24053,-0.009,-0.99,-0.15,0.793,0.183,0.61,475.076
124978,146351,11422,-0.014,-0.976,-0.14,2.988,0.915,0.183,475.082
124985,146314,24053,-0.016,-0.954,-0.12,2.988,0.915,0.183,475.086
124985,146361,11432,-0.018,-0.936,-0.112,1.951,1.098,-0.061,475.092
124980,146314,24053,-0.016,-0.933,-0.128,1.951,1.098,-0.061,475.096
124980,146374,11436,-0.012,-0.941,-0.145,-0.61,0.366,-0.427,475.102
124966,146314,24053,-0.008,-0.957,-0.141,-0.61,0.366,-0.427,475.106
124966,146327,11437,-0.01,-0.968,-0.12,-1.707,-0.244,-0.488,475.112
124941,146314,24053,-0.013,-0.96,-0.114,-1.707,-0.244,-0.488,475.116
124941,146333,11431,-0.015,-0.939,-0.12,-2.561,-0.488,0.244,475.122
124925,146314,24053,-0.01,-0.934,-0.131,-2.561,-0.488,0.244,475.126
124925,146336,11420,-0.01,-0.943,-0.126,-2.866,-1.28,0.488,475.132
124923,146314,24053,-0.011,-0.948,-0.129,-2.866,-1.28,0.488,475.136
124923,146306,11421,-0.01,-0.945,-0.141,-3.659,-1.951,0.976,475.142
124938,146314,24053,-0.011,-0.954,-0.141,-3.659,-1.951,0.976,475.145
124938,146297,11420,-0.01,-0.965,-0.144,-5.061,-1.951,1.402,475.152
124927,146314,24053,-0.008,-0.966,-0.166,-5.061,-1.951,1.402,475.155
124927,146316,11418,-0.009,-0.966,-0.187,-3.659,-1.585,1.22,475.162
124966,146314,24053,-0.011,-0.984,-0.179,-3.659,-1.585,1.22,475.165
124966,146348,11409,-0.016,-0.992,-0.166,-1.768,-0.732,1.037,475.171
124991,146314,24053,-0.019,-0.984,-0.164,-1.768,-0.732,1.037,475.175
124991,146351,11425,-0.017,-0.97,-0.152,-0.976,0.122,0.488,475.181
124962,146314,24053,-0.015,-0.959,-0.139,-0.976,0.122,0.488,475.185
124962,146321,11404,-0.012,-0.946,-0.141,-0.732,0.305,-0.366,475.191
124933,146314,24053,-0.008,-0.938,-0.156,-0.732,0.305,-0.366,475.195
124933,146362,11417,-0.006,-0.945,-0.15,-0.671,0.366,-0.366,475.201
124912,146314,24053,-0.01,-0.955,-0.131,-0.671,0.366,-0.366,475.205
124912,146333,11412,-0.016,-0.95,-0.13,0.244,1.037,0.061,475.211
124917,146314,24053,-0.017,-0.939,-0.14,0.244,1.037,0.061,475.215
124917,146304,11406,-0.014,-0.941,-0.133,0.488,0.732,0.122,475.221
124909,146314,24053,-0.006,-0.944,-0.128,0.488,0.732,0.122,475.225
124909,146273,11414,-0.007,-0.953,-0.134,1.524,0.183,0.488,475.231
124922,146314,24053,-0.012,-0.958,-0.142,1.524,0.183,0.488,475.235
124922,146317,11414,-0.012,-0.962,-0.153,-0.61,0.122,0.976,475.241
124960,146314,24053,-0.016,-0.971,-0.16,-0.61,0.122,0.976,475.244
124960,146306,11426,-0.012,-0.975,-0.154,-0.61,0.244,0.854,475.251
124946,146314,24053,-0.009,-0.971,-0.161,-0.61,0.244,0.854,475.254
124946,146333,11425,-0.009,-0.959,-0.17,0.122,0.305,0.549,475.261
124982,146314,24053,-0.008,-0.961,-0.165,0.122,0.305,0.549,475.264
124982,146370,11426,-0.011,-0.97,-0.15,1.28,0.976,0.488,475.27
125021,146314,24053,-0.015,-0.964,-0.142,1.28,0.976,0.488,475.274
125021,146408,11436,-0.018,-0.953,-0.147,1.098,1.22,0.549,475.28
125057,146314,24053,-0.016,-0.951,-0.145,1.098,1.22,0.549,475.284
125057,146404,11418,-0.012,-0.955,-0.14,0.366,0.793,0.427,475.29
125071,146314,24053,-0.012,-0.953,-0.138,0.366,0.793,0.427,475.294
125071,146396,11429,-0.011,-0.95,-0.139,1.22,0.61,0.305,475.3
125044,146314,24053,-0.014,-0.95,-0.137,1.22,0.61,0.305,475.304
125044,146393,11417,-0.017,-0.953,-0.127,0.427,0.427,0.732,475.31
125035,146314,24053,-0.017,-0.96,-0.118,0.427,0.427,0.732,475.314
125035,146382,11434,-0.019,-0.96,-0.121,-0.061,0.122,0.793,475.32
125005,146314,24053,-0.02,-0.95,-0.134,-0.061,0.122,0.793,475.324
125005,146378,11437,-0.015,-0.947,-0.142,-1.341,-0.366,0.427,475.33
124996,146314,24053,-0.012,-0.954,-0.14,-1.341,-0.366,0.427,475.334
124996,146397,11411,-0.009,-0.962,-0.15,-0.854,-0.366,0.183,475.34
125004,146314,24053,-0.011,-0.965,-0.162,-0.854,-0.366,0.183,475.343
125004,146409,11417,-0.015,-0.971,-0.158,-0.732,0.366,0.244,475.35
124992,146314,24053,-0.018,-0.973,-0.154,-0.732,0.366,0.244,475.353
124992,146378,11413,-0.018,-0.964,-0.152,0.122,0.915,0,475.36
125001,146314,24053,-0.012,-0.955,-0.154,0.122,0.915,0,475.363
125001,146378,11417,-0.011,-0.952,-0.154,-0.183,1.037,-0.488,475.369
125054,146314,24053,-0.009,-0.957,-0.155,-0.183,1.037,-0.488,475.373
125054,146395,11436,-0.008,-0.957,-0.146,1.098,1.037,-0.244,475.379
125056,146314,24053,-0.008,-0.957,-0.146,1.098,1.037,-0.244,475.383
125056,146409,11427,-0.011,-0.944,-0.141,0.915,0.854,0.305,475.389
125037,146314,24053,-0.011,-0.944,-0.141,0.915,0.854,0.305,475.393
125037,146395,11429,-0.01,-0.959,-0.123,0.61,0.793,0.671,475.399
125032,146314,24053,-0.01,-0.959,-0.123,0.61,0.793,0.671,475.403
125032,146377,11424,-0.01,-0.955,-0.147,-0.122,0.549,0.732,475.409
125025,146314,24053,-0.01,-0.955,-0.147,-0.122,0.549,0.732,475.413
125025,146380,11444,-0.008,-0.964,-0.137,-0.915,0,0.976,475.419
125031,146314,24053,-0.008,-0.964,-0.137,-0.915,0,0.976,475.423
125031,146424,11438,-0.011,-0.948,-0.151,-0.671,-0.061,1.22,475.429
125067,146570,24053,-0.011,-0.948,-0.151,-0.671,-0.061,1.22,475.433
125067,146432,11430,-0.009,-0.96,-0.145,-1.22,0.061,1.28,475.439
125101,146570,24053,-0.009,-0.96,-0.145,-1.22,0.061,1.28,475.442
125101,146472,11427,-0.014,-0.964,-0.143,-0.366,0.671,1.585,475.449
125119,146570,24053,-0.014,-0.964,-0.143,-0.366,0.671,1.585,475.452
125119,146474,11460,-0.014,-0.958,-0.169,-1.829,0.671,1.22,475.459
125132,146570,24053,-0.014,-0.958,-0.169,-1.829,0.671,1.22,475.462
125132,146499,11459,-0.012,-0.97,-0.142,0.549,0.854,0.793,475.468
125161,146570,24053,-0.012,-0.97,-0.142,0.549,0.854,0.793,475.472
125161,146486,11452,-0.017,-0.954,-0.139,1.098,1.098,0.793,475.478
125149,146570,24053,-0.017,-0.954,-0.139,1.098,1.098,0.793,475.482
125149,146498,11451,-0.018,-0.942,-0.132,-0.122,1.037,1.037,475.488
125141,146570,24053,-0.018,-0.942,-0.132,-0.122,1.037,1.037,475.492
125141,146485,11431,-0.012,-0.956,-0.137,-0.244,0.244,0.915,475.498
125137,146570,24053,-0.012,-0.956,-0.137,-0.244,0.244,0.915,475.502
125137,146462,11433,-0.017,-0.96,-0.15,-1.341,0.061,1.159,475.508
125084,146570,24053,-0.017,-0.96,-0.15,-1.341,0.061,1.159,475.512
125084,146454,11455,-0.012,-0.96,-0.142,-1.098,0.427,1.037,475.518
125078,146314,24053,-0.012,-0.96,-0.142,-1.098,0.427,1.037,475.522
125078,146415,11427,-0.013,-0.955,-0.144,-1.098,0.427,1.037,475.528
125061,146314,24053,-0.011,-0.955,-0.148,-0.305,0.671,0.793,475.532
125061,146409,11442,-0.013,-0.956,-0.149,-0.305,0.671,0.793,475.538
125062,146314,24053,-0.013,-0.963,-0.147,-0.183,0.61,0.976,475.541
125062,146427,11453,-0.018,-0.962,-0.154,-0.183,0.61,0.976,475.548
125054,146314,24053,-0.021,-0.961,-0.157,-0.61,0.671,0.671,475.551
125054,146411,11438,-0.017,-0.958,-0.15,-0.61,0.671,0.671,475.558
125072,146314,24053,-0.012,-0.963,-0.137,0.976,0.793,0.244,475.561
125072,146418,11441,-0.011,-0.963,-0.129,0.976,0.793,0.244,475.567
125086,146570,24053,-0.017,-0.953,-0.134,1.463,0.793,0.244,475.571
125086,146433,11440,-0.015,-0.947,-0.136,1.463,0.793,0.244,475.577
125090,146314,24053,-0.02,-0.957,-0.126,-0.61,0.488,0.366,475.581
125090,146431,11429,-0.018,-0.966,-0.117,-0.61,0.488,0.366,475.587
125097,146314,24053,-0.014,-0.964,-0.126,-1.098,0,0.244,475.591
125097,146423,11437,-0.014,-0.949,-0.134,-1.098,0,0.244,475.597
125104,146570,24053,-0.013,-0.95,-0.14,-2.439,-0.671,0,475.601
125104,146439,11444,-0.011,-0.953,-0.142,-2.439,-0.671,0,475.607
125106,146570,24053,-0.015,-0.958,-0.14,-2.439,-0.915,0.244,475.611
125106,146437,11457,-0.014,-0.958,-0.146,-2.439,-0.915,0.244,475.617
125089,146570,24053,-0.013,-0.954,-0.166,-3.354,-0.671,0.244,475.621
125089,146445,11431,-0.01,-0.958,-0.171,-3.354,-0.671,0.244,475.627
125086,146570,24053,-0.009,-0.96,-0.166,-2.927,-0.244,0.061,475.631
125086,146435,11415,-0.011,-0.965,-0.16,-2.927,-0.244,0.061,475.637
125092,146570,24053,-0.018,-0.96,-0.168,-1.402,0.366,0.549,475.64
125092,146440,11412,-0.017,-0.956,-0.168,-1.402,0.366,0.549,475.647
125120,146570,24053,-0.016,-0.958,-0.159,-0.244,0.976,0.427,475.65
125120,146460,11423,-0.014,-0.96,-0.145,-0.244,0.976,0.427,475.657
125109,146570,24053,-0.014,-0.959,-0.129,0.854,0.976,0.122,475.66
125109,146473,11447,-0.014,-0.953,-0.127,0.854,0.976,0.122,475.666
125139,146570,24053,-0.017,-0.947,-0.133,-0.366,0.854,0.244,475.67
125139,146460,11446,-0.018,-0.948,-0.131,-0.366,0.854,0.244,475.676
125163,146570,24053,-0.015,-0.957,-0.134,-1.707,-0.061,0.366,475.68
125163,146477,11437,-0.013,-0.959,-0.143,-1.707,-0.061,0.366,475.686
125171,146570,24053,-0.015,-0.961,-0.14,-2.134,-0.366,0.488,475.69
125171,146499,11453,-0.015,-0.963,-0.145,-2.134,-0.366,0.488,475.696
125201,146570,24053,-0.016,-0.956,-0.159,-2.317,-0.183,0.427,475.7
125201,146501,11439,-0.013,-0.957,-0.154,-2.317,-0.183,0.427,475.706
125217,146570,24053,-0.011,-0.958,-0.153,-1.098,-0.183,0.366,475.71
125217,146543,11438,-0.011,-0.951,-0.164,-1.098,-0.183,0.366,475.716
125271,146570,24053,-0.009,-0.944,-0.172,-0.488,0.061,0.549,475.72
125271,146568,11441,-0.009,-0.947,-0.172,-0.488,0.061,0.549,475.726
125310,146570,24053,-0.013,-0.958,-0.155,0.854,0.854,0.793,475.73
125310,146570,11459,-0.014,-0.972,-0.14,0.854,0.854,0.793,475.736
125338,146570,24053,-0.016,-0.964,-0.138,1.463,1.341,0.854,475.739
125338,146615,11466,-0.018,-0.951,-0.144,1.463,1.341,0.854,475.746
125358,146570,24053,-0.015,-0.959,-0.134,-0.061,1.037,0.671,475.749
125358,146623,11470,-0.016,-0.973,-0.116,-0.061,1.037,0.671,475.756
125378,146570,24053,-0.021,-0.979,-0.097,-0.854,0.244,0.488,475.759
125378,146630,11453,-0.021,-0.972,-0.088,-0.854,0.244,0.488,475.765
125379,146570,24053,-0.023,-0.951,-0.09,-5.488,-0.854,-0.305,475.769
125379,146611,11483,-0.016,-0.931,-0.1,-5.488,-0.854,-0.305,475.775
125359,146570,24053,-0.014,-0.942,-0.136,-9.512,-2.805,-1.341,475.779
125359,146622,11469,-0.018,-0.964,-0.178,-9.512,-2.805,-1.341,475.785
125378,146570,24053,-0.016,-0.971,-0.177,-7.561,-3.293,-1.463,475.789
125378,146636,11473,-0.016,-0.957,-0.192,-7.561,-3.293,-1.463,475.795
125373,146570,24053,-0.014,-0.936,-0.224,-7.134,-2.805,-0.854,475.799
125373,146628,11469,-0.007,-0.949,-0.219,-7.134,-2.805,-0.854,475.805
125377,146570,24053,-0.001,-0.964,-0.208,-0.793,-0.732,-0.61,475.809
125377,146628,11461,-0.002,-0.952,-0.209,-0.793,-0.732,-0.61,475.815
125346,146570,24053,-0.006,-0.944,-0.211,4.573,1.585,0.122,475.819
125346,146618,11464,-0.014,-0.951,-0.195,4.573,1.585,0.122,475.825
125356,146570,24053,-0.01,-0.968,-0.159,6.402,3.11,1.524,475.829
125356,146638,11463,-0.011,-0.973,-0.142,6.402,3.11,1.524,475.835
125332,146570,24053,-0.016,-0.958,-0.137,7.073,3.72,1.341,475.838
125332,146609,11461,-0.019,-0.951,-0.117,7.073,3.72,1.341,475.845
125341,146570,24053,-0.021,-0.947,-0.118,4.329,2.988,0.976,475.848
125341,146602,11462,-0.019,-0.949,-0.117,4.329,2.988,0.976,475.855
125313,146570,24053,-0.015,-0.949,-0.11,1.768,1.829,0.427,475.858
125313,146577,11452,-0.016,-0.948,-0.107,1.768,1.829,0.427,475.864
125287,146570,24053,-0.018,-0.951,-0.117,-0.793,0.732,0.122,475.868
125287,146560,11439,-0.017,-0.948,-0.135,-0.793,0.732,0.122,475.874
125265,146570,24053,-0.009,-0.952,-0.16,-2.5,-0.183,0.061,475.878
125265,146537,11442,-0.005,-0.963,-0.167,-2.5,-0.183,0.061,475.884
125270,146570,24053,-0.003,-0.966,-0.175,-1.098,-0.366,0.305,475.888
125270,146532,11443,-0.003,-0.96,-0.18,-1.098,-0.366,0.305,475.894
125269,146570,24053,-0.005,-0.958,-0.167,1.646,0.732,0.854,475.898
125269,146530,11448,-0.01,-0.955,-0.147,1.646,0.732,0.854,475.904
125259,146570,24053,-0.014,-0.951,-0.145,3.476,1.707,1.341,475.908
125259,146531,11437,-0.012,-0.944,-0.149,3.476,1.707,1.341,475.914
125297,146570,24053,-0.014,-0.948,-0.148,2.378,1.585,1.28,475.918
125297,146537,11449,-0.013,-0.959,-0.139,2.378,1.585,1.28,475.924
125289,146570,24053,-0.016,-0.96,-0.139,1.646,1.585,1.341,475.928
125289,146563,11453,-0.018,-0.962,-0.14,1.646,1.585,1.341,475.934
125287,146570,24053,-0.018,-0.966,-0.134,1.28,1.524,1.098,475.937
125287,146552,11442,-0.018,-0.964,-0.13,1.28,1.524,1.098,475.944
125280,146570,24053,-0.02,-0.954,-0.129,1.829,0.915,1.098,475.947
125280,146541,11448,-0.016,-0.945,-0.138,1.829,0.915,1.098,475.954
125291,146570,24053,-0.016,-0.947,-0.141,0.732,0,0.671,475.957
125291,146545,11442,-0.014,-0.949,-0.144,0.732,0,0.671,475.963
125244,146570,24053,-0.014,-0.949,-0.144,0.732,0,0.671,475.967
125244,146527,11438,-0.014,-0.963,-0.149,-0.244,-0.427,0.549,475.973
125251,146570,24053,-0.014,-0.963,-0.149,-0.244,-0.427,0.549,475.977
125251,146517,11453,-0.015,-0.965,-0.156,-0.366,-0.427,0.732,475.983
125248,146570,24053,-0.015,-0.965,-0.156,-0.366,-0.427,0.732,475.987
125248,146490,11439,-0.017,-0.958,-0.152,0.183,-0.122,0.549,475.993
125249,146570,24053,-0.017,-0.958,-0.152,0.183,-0.122,0.549,475.997
125249,146513,11437,-0.019,-0.962,-0.161,0.183,0.366,0.427,476.003
125255,146570,24053,-0.019,-0.962,-0.161,0.183,0.366,0.427,476.007
125255,146530,11441,-0.014,-0.96,-0.146,0.244,0.793,0.061,476.013
125252,146570,24053,-0.014,-0.96,-0.146,0.244,0.793,0.061,476.017
125252,146519,11446,-0.018,-0.948,-0.132,0.976,0.854,-0.305,476.023
125263,146570,24053,-0.018,-0.948,-0.132,0.976,0.854,-0.305,476.027
125263,146546,11454,-0.019,-0.946,-0.139,1.707,1.098,-0.305,476.033
125277,146570,24053,-0.019,-0.946,-0.139,1.707,1.098,-0.305,476.036
125277,146501,11433,-0.014,-0.96,-0.137,0.854,0.976,-0.122,476.043
125228,146570,24053,-0.014,-0.96,-0.137,0.854,0.976,-0.122,476.046
125228,146510,11447,-0.012,-0.958,-0.141,-0.305,0.244,0.061,476.053
125178,146570,24053,-0.012,-0.958,-0.141,-0.305,0.244,0.061,476.056
125178,146487,11422,-0.012,-0.962,-0.147,-0.976,0,-0.122,476.062
125189,146570,24053,-0.012,-0.962,-0.147,-0.976,0,-0.122,476.066
125189,146478,11437,-0.01,-0.966,-0.157,-0.793,-0.122,-0.061,476.072
125229,146570,24053,-0.01,-0.966,-0.157,-0.793,-0.122,-0.061,476.076
125229,146495,11430,-0.009,-0.958,-0.163,-0.793,0,0.061,476.082
125204,146570,24053,-0.009,-0.958,-0.163,-0.793,0,0.061,476.086
125204,146480,11433,-0.016,-0.964,-0.155,0.549,0.61,0,476.092
125197,146570,24053,-0.016,-0.964,-0.155,0.549,0.61,0,476.096
125197,146490,11415,-0.011,-0.948,-0.154,1.89,1.037,0.122,476.102
125174,146570,24053,-0.011,-0.948,-0.154,1.89,1.037,0.122,476.106
125174,146442,11434,-0.011,-0.945,-0.154,1.768,0.915,0.488,476.112
125140,146570,24053,-0.009,-0.948,-0.142,1.768,0.915,0.488,476.116
125140,146432,11416,-0.009,-0.956,-0.135,2.988,1.341,0.854,476.122
125132,146570,24053,-0.012,-0.956,-0.133,2.988,1.341,0.854,476.126
125132,146432,11419,-0.016,-0.948,-0.132,2.317,1.524,1.037,476.132
125126,146314,24053,-0.016,-0.951,-0.12,2.317,1.524,1.037,476.135
125126,146414,11422,-0.017,-0.959,-0.107,0.61,0.976,1.28,476.142
125079,146314,24053,-0.02,-0.959,-0.115,0.61,0.976,1.28,476.145
125079,146398,11407,-0.019,-0.955,-0.137,-0.976,-0.061,1.463,476.152
125076,146314,24053,-0.017,-0.96,-0.138,-0.976,-0.061,1.463,476.155
125076,146375,11421,-0.013,-0.964,-0.136,-2.5,-0.732,1.037,476.161
125076,146314,24053,-0.015,-0.961,-0.159,-2.5,-0.732,1.037,476.165
125076,146383,11406,-0.012,-0.946,-0.177,-2.378,-0.427,0.854,476.171
125072,146314,24053,-0.01,-0.948,-0.178,-2.378,-0.427,0.854,476.175
125072,146380,11409,-0.01,-0.961,-0.169,-0.061,0.122,1.098,476.181
125077,146314,24053,-0.014,-0.969,-0.162,-0.061,0.122,1.098,476.185
125077,146418,11426,-0.021,-0.966,-0.155,2.195,1.341,1.585,476.191
125095,146314,24053,-0.024,-0.961,-0.145,2.195,1.341,1.585,476.195
125095,146400,11398,-0.022,-0.952,-0.14,1.22,1.585,1.28,476.201
125089,146314,24053,-0.018,-0.948,-0.14,1.22,1.585,1.28,476.205
125089,146397,11433,-0.018,-0.949,-0.137,0.244,0.976,0.671,476.211
125092,146314,24053,-0.017,-0.965,-0.134,0.244,0.976,0.671,476.215
125092,146390,11405,-0.021,-0.973,-0.13,-0.549,0.976,0.427,476.221
125102,146314,24053,-0.023,-0.967,-0.131,-0.549,0.976,0.427,476.225
125102,146419,11428,-0.018,-0.954,-0.141,-1.159,0.793,0.061,476.231
125092,146314,24053,-0.015,-0.951,-0.134,-1.159,0.793,0.061,476.234
125092,146369,11427,-0.015,-0.954,-0.111,-0.488,0.183,0,476.241
125066,146314,24053,-0.018,-0.951,-0.12,-0.488,0.183,0,476.244
125066,146363,11398,-0.018,-0.945,-0.143,-1.89,-0.366,0,476.251
125052,146314,24053,-0.014,-0.95,-0.154,-1.89,-0.366,0,476.254
125052,146368,11401,-0.015,-0.96,-0.146,-2.988,-0.732,0.061,476.26
125042,146314,24053,-0.012,-0.962,-0.151,-2.988,-0.732,0.061,476.264
125042,146376,11403,-0.012,-0.958,-0.161,-2.744,-0.732,0,476.27
125051,146314,24053,-0.011,-0.956,-0.173,-2.744,-0.732,0,476.274
125051,146360,11394,-0.01,-0.964,-0.173,-0.549,-0.122,0.244,476.28
125051,146314,24053,-0.01,-0.967,-0.16,-0.549,-0.122,0.244,476.284
125051,146388,11402,-0.01,-0.96,-0.161,1.585,0.488,0.488,476.29
125072,146314,24053,-0.012,-0.954,-0.155,1.585,0.488,0.488,476.294
125072,146374,11408,-0.015,-0.955,-0.15,1.524,1.22,0.488,476.3
125071,146314,24053,-0.016,-0.952,-0.144,1.524,1.22,0.488,476.304
125071,146371,11390,-0.014,-0.956,-0.137,1.707,1.159,0.427,476.31
125073,146314,24053,-0.016,-0.963,-0.119,1.707,1.159,0.427,476.314
125073,146361,11401,-0.017,-0.962,-0.114,1.402,0.793,0.488,476.32
125068,146314,24053,-0.023,-0.949,-0.133,1.402,0.793,0.488,476.324
125068,146397,11396,-0.02,-0.948,-0.14,-0.854,0.122,0.122,476.33
125063,146314,24053,-0.011,-0.956,-0.136,-0.854,0.122,0.122,476.333
125063,146384,11395,-0.009,-0.958,-0.137,-1.159,-0.549,-0.122,476.34
125068,146314,24053,-0.014,-0.958,-0.145,-1.159,-0.549,-0.122,476.343
125068,146379,11415,-0.016,-0.951,-0.152,-1.341,-0.549,0.366,476.35
125078,146314,24053,-0.015,-0.952,-0.163,-1.341,-0.549,0.366,476.353
125078,146389,11396,-0.012,-0.957,-0.174,-0.671,-0.366,0.793,476.359
125124,146314,24053,-0.01,-0.968,-0.167,-0.671,-0.366,0.793,476.363
125124,146404,11417,-0.014,-0.972,-0.155,1.89,0.183,0.915,476.369
125145,146314,24053,-0.017,-0.964,-0.147,1.89,0.183,0.915,476.373
125145,146407,11409,-0.018,-0.95,-0.148,3.354,0.793,0.854,476.379
125153,146570,24053,-0.017,-0.945,-0.148,3.354,0.793,0.854,476.383
125153,146457,11419,-0.014,-0.954,-0.137,2.622,0.854,0.793,476.389
125179,146570,24053,-0.013,-0.964,-0.136,2.622,0.854,0.793,476.393
125179,146462,11414,-0.014,-0.967,-0.145,2.012,1.098,0.732,476.399
125178,146570,24053,-0.016,-0.964,-0.126,2.012,1.098,0.732,476.403
125178,146467,11424,-0.022,-0.962,-0.105,1.341,1.098,0.366,476.409
125169,146570,24053,-0.023,-0.951,-0.116,1.341,1.098,0.366,476.413
