133167,147549,12849,-0.001,-0.936,0.203,1.28,0.183,-0.488,121.441
133204,147594,24053,-0.001,-0.936,0.203,1.28,0.183,-0.488,121.445
133204,147581,12828,0.002,-0.94,0.191,0.549,-0.915,-0.915,121.451
133216,147594,24053,0.002,-0.94,0.191,0.549,-0.915,-0.915,121.455
133216,147590,12837,-0.006,-0.936,0.2,-0.61,-1.341,-0.305,121.461
133225,147594,24053,-0.006,-0.936,0.2,-0.61,-1.341,-0.305,121.464
133225,147616,12838,-0.004,-0.932,0.164,-1.829,-0.915,0.427,121.471
133226,147594,24053,-0.004,-0.932,0.164,-1.829,-0.915,0.427,121.474
133226,147640,12839,-0,-0.96,0.165,-0.976,-0.427,0.671,121.481
133218,147594,24053,-0,-0.96,0.165,-0.976,-0.427,0.671,121.484
133218,147579,12833,0.001,-0.969,0.177,0.549,-0.183,0.915,121.49
133193,147594,24053,0.001,-0.969,0.177,0.549,-0.183,0.915,121.494
133193,147575,12817,-0.001,-0.962,0.162,-2.317,0.915,1.037,121.5
133183,147594,24053,-0.001,-0.962,0.162,-2.317,0.915,1.037,121.504
133183,147542,12834,0.003,-0.966,0.169,-3.537,1.829,1.28,121.51
133172,147594,24053,0.003,-0.966,0.169,-3.537,1.829,1.28,121.514
133172,147544,12834,0.007,-0.969,0.171,-2.561,1.707,1.341,121.52
133184,147594,24053,0.007,-0.976,0.182,-2.561,1.707,1.341,121.524
133184,147572,12819,0.004,-0.978,0.192,-1.098,1.646,0.915,121.53
133160,147594,24053,-0.001,-0.973,0.209,-1.098,1.646,0.915,121.534
133160,147569,12837,-0.002,-0.963,0.219,1.098,1.829,1.22,121.54
133220,147594,24053,-0.006,-0.951,0.21,1.098,1.829,1.22,121.544
133220,147590,12839,-0.007,-0.953,0.207,1.463,1.28,0.915,121.55
133231,147594,24053,-0.004,-0.965,0.219,1.463,1.28,0.915,121.554
133231,147626,12845,-0.004,-0.966,0.224,2.317,0.366,0.61,121.56
133238,147594,24053,-0.006,-0.961,0.221,2.317,0.366,0.61,121.563
133238,147624,12845,-0.008,-0.948,0.2,0.976,0.061,0.488,121.57
133228,147594,24053,-0.004,-0.943,0.171,0.976,0.061,0.488,121.573
133228,147626,12841,-0.003,-0.955,0.166,-1.098,-0.061,-0.305,121.58
133211,147594,24053,-0.003,-0.967,0.173,-1.098,-0.061,-0.305,121.583
133211,147624,12832,-0.002,-0.966,0.145,-0.488,-0.122,-0.488,121.589
133193,147594,24053,0.005,-0.961,0.122,-0.488,-0.122,-0.488,121.593
133193,147572,12832,0.012,-0.973,0.146,-1.098,0.488,-0.549,121.599
133210,147594,24053,0.006,-0.974,0.179,-1.098,0.488,-0.549,121.603
133210,147589,12858,-0.001,-0.958,0.183,0.244,1.707,0.366,121.609
133188,147594,24053,-0.009,-0.943,0.182,0.244,1.707,0.366,121.613
133188,147615,12832,-0.01,-0.933,0.202,0.976,2.195,1.159,121.619
133195,147594,24053,-0.011,-0.934,0.227,0.976,2.195,1.159,121.623
133195,147586,12837,-0.008,-0.934,0.239,1.524,1.159,0.488,121.629
133177,147594,24053,-0.009,-0.937,0.236,1.524,1.159,0.488,121.633
133177,147590,12855,-0.017,-0.95,0.241,-0.366,0.244,0.61,121.639
133210,147594,24053,-0.016,-0.963,0.247,-0.366,0.244,0.61,121.643
133210,147609,12844,-0.019,-0.967,0.232,-1.524,-0.671,0.854,121.649
133213,147594,24053,-0.021,-0.964,0.195,-1.524,-0.671,0.854,121.653
133213,147644,12857,-0.013,-0.962,0.173,-1.89,-1.28,0.061,121.659
133249,147594,24053,0.005,-0.956,0.157,-1.89,-1.28,0.061,121.662
133249,147631,12829,0.015,-0.956,0.153,-0.366,-1.951,-0.793,121.669
133230,147594,24053,0.011,-0.971,0.166,-0.366,-1.951,-0.793,121.672
133230,147654,12851,0.01,-0.969,0.161,0.549,-1.159,-0.366,121.679
133251,147594,24053,0.008,-0.955,0.146,0.549,-1.159,-0.366,121.682
133251,147631,12858,0.002,-0.945,0.137,-0.549,0.244,0.305,121.688
133251,147594,24053,0.003,-0.947,0.135,-0.549,0.244,0.305,121.692
133251,147600,12857,0.004,-0.949,0.145,-0.732,0.671,0.427,121.698
133213,147594,24053,0.004,-0.96,0.175,-0.732,0.671,0.427,121.702
133213,147602,12843,0,-0.968,0.207,-0.61,1.402,0.549,121.708
133195,147594,24053,-0.006,-0.962,0.215,-0.61,1.402,0.549,121.712
133195,147568,12834,-0.014,-0.959,0.218,-1.89,1.951,0.549,121.718
133183,147594,24053,-0.019,-0.96,0.222,-1.89,1.951,0.549,121.722
133183,147558,12836,-0.016,-0.968,0.232,-1.951,1.098,0.671,121.728
133181,147594,24053,-0.012,-0.978,0.234,-1.951,1.098,0.671,121.732
133181,147561,12839,-0.008,-0.975,0.218,-1.402,0,0.183,121.738
133193,147594,24053,-0.006,-0.966,0.196,-1.402,0,0.183,121.742
133193,147556,12834,-0.002,-0.961,0.186,-0.061,-0.793,-0.488,121.748
133226,147594,24053,0.006,-0.946,0.18,-0.061,-0.793,-0.488,121.752
133226,147596,12845,0.014,-0.93,0.156,0.793,-1.402,-0.671,121.758
133256,147594,24053,0.017,-0.93,0.127,0.793,-1.402,-0.671,121.762
133256,147620,12856,0.019,-0.94,0.132,1.098,-0.976,-0.122,121.768
133265,147594,24053,0.022,-0.948,0.138,1.098,-0.976,-0.122,121.771
133265,147615,12859,0.016,-0.945,0.128,0.915,0.305,0.61,121.778
133270,147594,24053,0.009,-0.955,0.138,0.915,0.305,0.61,121.781
133270,147637,12840,-0,-0.973,0.18,1.402,1.89,1.098,121.787
133247,147594,24053,-0.008,-0.983,0.207,1.402,1.89,1.098,121.791
133247,147644,12855,-0.014,-0.976,0.215,0.732,2.561,1.28,121.797
133237,147594,24053,-0.015,-0.974,0.225,0.732,2.561,1.28,121.801
133237,147603,12833,-0.014,-0.982,0.239,-0.915,2.622,0.732,121.807
133206,147594,24053,-0.012,-0.991,0.24,-0.915,2.622,0.732,121.811
133206,147603,12835,-0.014,-0.988,0.212,-0.488,1.951,-0.122,121.817
133193,147594,24053,-0.008,-0.981,0.201,-0.488,1.951,-0.122,121.821
133193,147592,12836,-0.002,-0.963,0.21,-0.183,0.793,-0.976,121.827
133182,147594,24053,0.002,-0.939,0.206,-0.183,0.793,-0.976,121.831
133182,147573,12828,0.003,-0.91,0.168,-0.244,-0.183,-0.732,121.837
133204,147594,24053,0.01,-0.901,0.132,-0.244,-0.183,-0.732,121.841
133204,147591,12833,0.02,-0.924,0.136,-0.061,-0.366,-0.305,121.847
133231,147594,24053,0.023,-0.956,0.164,-0.061,-0.366,-0.305,121.851
133231,147636,12861,0.016,-0.958,0.168,1.402,0.122,-0.122,121.857
133258,147594,24053,0.002,-0.943,0.162,1.402,0.122,-0.122,121.86
133258,147631,12847,-0.002,-0.931,0.164,-0.427,1.524,1.22,121.867
133253,147594,24053,-0.007,-0.933,0.169,-0.427,1.524,1.22,121.87
133253,147640,12858,-0.005,-0.95,0.196,-1.524,2.012,1.585,121.877
133246,147594,24053,-0.005,-0.976,0.229,-1.524,2.012,1.585,121.88
133246,147598,12855,-0.013,-0.99,0.226,-3.293,2.073,0.793,121.886
133248,147594,24053,-0.019,-0.99,0.212,-3.293,2.073,0.793,121.89
133248,147596,12854,-0.026,-0.991,0.21,-5.854,2.256,0.244,121.896
133221,147594,24053,-0.025,-0.99,0.225,-5.854,2.256,0.244,121.9
133221,147600,12831,-0.021,-0.99,0.231,-3.354,1.037,0.061,121.906
133186,147594,24053,-0.015,-0.98,0.233,-3.354,1.037,0.061,121.91
133186,147571,12839,-0.006,-0.958,0.224,-0.244,-0.854,-0.732,121.916
133205,147594,24053,-0,-0.933,0.204,-0.244,-0.854,-0.732,121.92
133205,147572,12844,0.005,-0.913,0.177,1.341,-1.646,-1.463,121.926
133183,147594,24053,0.005,-0.891,0.124,1.341,-1.646,-1.463,121.93
133183,147588,12845,0.018,-0.891,0.094,0.61,-1.768,-0.366,121.936
133233,147594,24053,0.03,-0.923,0.103,0.61,-1.768,-0.366,121.94
133233,147594,12847,0.02,-0.963,0.144,2.073,-0.61,0.671,121.946
133244,147594,24053,0.007,-0.975,0.171,2.073,-0.61,0.671,121.95
133244,147619,12843,-0.003,-0.961,0.16,0.366,1.524,1.646,121.956
133222,147594,24053,-0.003,-0.961,0.16,0.366,1.524,1.646,121.959
133222,147623,12835,-0.009,-0.979,0.206,-1.098,2.317,2.378,121.966
133191,147594,24053,-0.009,-0.979,0.206,-1.098,2.317,2.378,121.969
133191,147579,12846,-0.01,-0.98,0.221,-0.976,1.89,1.28,121.976
133197,147594,24053,-0.01,-0.98,0.221,-0.976,1.89,1.28,121.979
133197,147575,12827,-0.014,-0.992,0.218,-2.195,1.768,0,121.985
133140,147594,24053,-0.014,-0.992,0.218,-2.195,1.768,0,121.989
133140,147536,12835,-0.023,-0.996,0.215,-1.341,1.037,-0.061,121.995
133148,147594,24053,-0.023,-0.996,0.215,-1.341,1.037,-0.061,121.999
133148,147551,12831,-0.008,-0.959,0.19,0.305,-0.366,-1.159,122.005
133167,147594,24053,-0.008,-0.959,0.19,0.305,-0.366,-1.159,122.009
133167,147549,12827,0.017,-0.913,0.159,2.378,-1.402,-1.951,122.015
133205,147594,24053,0.017,-0.913,0.159,2.378,-1.402,-1.951,122.019
133205,147590,12844,0.021,-0.909,0.157,1.951,-1.159,-0.854,122.025
133225,147594,24053,0.021,-0.909,0.157,1.951,-1.159,-0.854,122.029
133225,147608,12839,0.01,-0.921,0.156,0.793,0.305,0.61,122.035
133269,147594,24053,0.01,-0.921,0.156,0.793,0.305,0.61,122.039
133269,147661,12846,-0.003,-0.93,0.196,-0.488,1.341,1.768,122.045
133287,147594,24053,-0.003,-0.93,0.196,-0.488,1.341,1.768,122.049
133287,147663,12850,-0.013,-0.95,0.211,-2.805,1.463,1.768,122.055
133272,147594,24053,-0.013,-0.95,0.211,-2.805,1.463,1.768,122.058
133272,147668,12841,-0.015,-0.993,0.184,-5.488,1.22,1.89,122.065
133250,147594,24053,-0.015,-0.993,0.184,-5.488,1.22,1.89,122.068
133250,147640,12849,-0.022,-1.018,0.197,-1.951,0.732,1.768,122.075
133227,147594,24053,-0.022,-1.018,0.197,-1.951,0.732,1.768,122.078
133227,147627,12822,-0.011,-0.984,0.206,0.549,0.061,0.793,122.084
133231,147594,24053,-0.011,-0.984,0.206,0.549,0.061,0.793,122.088
133231,147600,12854,-0.005,-0.969,0.176,1.768,-0.122,0.427,122.094
133225,147594,24053,-0.005,-0.969,0.176,1.768,-0.122,0.427,122.098
133225,147605,12846,0.008,-0.956,0.171,1.768,-0.122,0.427,122.104
133230,147594,24053,0.018,-0.94,0.142,2.744,-0.854,0.061,122.108
133230,147611,12857,0.02,-0.942,0.145,2.744,-0.854,0.061,122.114
133262,147594,24053,0.014,-0.957,0.185,2.927,-0.305,-0.244,122.118
133262,147646,12863,0.006,-0.948,0.185,2.927,-0.305,-0.244,122.124
133239,147594,24053,0.002,-0.92,0.165,1.28,0.976,0.244,122.128
133239,147617,12853,0.004,-0.917,0.17,1.28,0.976,0.244,122.134
133215,147594,24053,0.009,-0.931,0.2,-2.195,0.976,0.366,122.138
133215,147593,12847,0.006,-0.951,0.228,-2.195,0.976,0.366,122.144
133221,147594,24053,-0,-0.971,0.248,-3.354,0.915,0.183,122.148
133221,147600,12850,-0.009,-0.982,0.238,-3.354,0.915,0.183,122.154
133198,147594,24053,-0.018,-0.986,0.209,-5.549,0.976,0.061,122.157
133198,147597,12849,-0.023,-0.991,0.204,-5.549,0.976,0.061,122.164
133187,147594,24053,-0.024,-0.987,0.209,-3.72,-0.183,0.305,122.167
133187,147590,12834,-0.016,-0.966,0.201,-3.72,-0.183,0.305,122.174
133180,147594,24053,-0.003,-0.938,0.167,-0.671,-1.707,-0.122,122.177
133180,147582,12849,0.009,-0.92,0.123,-0.671,-1.707,-0.122,122.183
133196,147594,24053,0.013,-0.939,0.122,1.524,-1.646,-0.61,122.187
133196,147595,12844,0.004,-0.973,0.16,1.524,-1.646,-0.61,122.193
133174,147594,24053,0.003,-0.978,0.167,5.183,-0.61,0.183,122.197
133174,147606,12844,0.002,-0.952,0.146,5.183,-0.61,0.183,122.203
133229,147594,24053,-0.001,-0.933,0.14,1.89,0.488,0.854,122.207
133229,147635,12846,-0,-0.944,0.159,1.89,0.488,0.854,122.213
133256,147594,24053,0.005,-0.966,0.194,3.049,1.098,1.585,122.217
133256,147659,12860,0.006,-0.964,0.214,3.049,1.098,1.585,122.223
133216,147594,24053,0.006,-0.949,0.221,0.976,1.402,0.793,122.227
133216,147623,12857,-0.001,-0.935,0.212,0.976,1.402,0.793,122.233
133206,147594,24053,-0.014,-0.938,0.196,-5.305,2.073,0.061,122.237
133206,147620,12845,-0.014,-0.959,0.201,-5.305,2.073,0.061,122.243
133218,147594,24053,-0.008,-0.982,0.221,-5.671,1.098,0.732,122.247
133218,147594,12849,-0.005,-0.987,0.223,-5.671,1.098,0.732,122.253
133219,147594,24053,0.001,-0.974,0.197,-4.39,-0.244,0,122.256
133219,147608,12852,0.006,-0.958,0.162,-4.39,-0.244,0,122.263
133212,147594,24053,0.011,-0.947,0.152,-2.073,-0.61,-0.427,122.266
133212,147611,12850,0.012,-0.941,0.141,-2.073,-0.61,-0.427,122.273
133213,147594,24053,0.007,-0.941,0.13,2.073,-0.549,0.488,122.276
133213,147600,12853,0.013,-0.955,0.143,2.073,-0.549,0.488,122.282
133244,147594,24053,0.011,-0.969,0.168,4.085,0.244,0.915,122.286
133244,147635,12848,0,-0.969,0.175,4.085,0.244,0.915,122.292
133255,147594,24053,-0.009,-0.962,0.175,4.207,1.463,1.28,122.296
133255,147672,12870,-0.012,-0.95,0.184,4.207,1.463,1.28,122.302
133276,147594,24053,-0.005,-0.955,0.196,2.378,1.524,1.22,122.306
133276,147665,12870,-0.005,-0.966,0.212,2.378,1.524,1.22,122.312
133265,147594,24053,-0.012,-0.973,0.225,1.524,1.768,0.366,122.316
133265,147655,12860,-0.014,-0.97,0.211,1.524,1.768,0.366,122.322
133246,147594,24053,-0.016,-0.97,0.207,0.366,1.524,0.061,122.326
133246,147667,12866,-0.014,-0.971,0.218,0.366,1.524,0.061,122.332
133244,147594,24053,-0.017,-0.966,0.228,0.793,0.549,-0.122,122.336
133244,147650,12851,-0.014,-0.948,0.207,0.793,0.549,-0.122,122.342
133248,147594,24053,-0.007,-0.933,0.184,0.183,-0.427,-0.366,122.346
133248,147662,12854,0.002,-0.928,0.179,0.183,-0.427,-0.366,122.352
133252,147594,24053,0.007,-0.925,0.17,0,-1.22,-0.427,122.355
133252,147675,12863,0.01,-0.92,0.147,0,-1.22,-0.427,122.362
133281,147594,24053,0.012,-0.93,0.149,0.183,-1.402,0.61,122.365
133281,147659,12867,0.008,-0.951,0.168,0.183,-1.402,0.61,122.372
133296,147594,24053,0.004,-0.963,0.172,1.829,-0.732,1.159,122.375
133296,147663,12866,-0,-0.954,0.162,1.829,-0.732,1.159,122.381
133317,147594,24053,0,-0.95,0.172,0.366,0.488,1.463,122.385
133317,147710,12876,-0.006,-0.959,0.19,0.366,0.488,1.463,122.391
133297,147594,24053,-0.007,-0.965,0.188,-0.61,0.976,1.768,122.395
133297,147671,12863,-0.005,-0.978,0.197,-0.61,0.976,1.768,122.401
133294,147594,24053,-0.001,-0.992,0.22,-0.671,1.159,0.915,122.405
133294,147703,12870,-0.006,-0.996,0.216,-0.671,1.159,0.915,122.411
133292,147594,24053,-0.014,-0.988,0.198,-0.915,1.159,0.61,122.415
133292,147691,12864,-0.014,-0.982,0.198,-0.915,1.159,0.61,122.421
133250,147594,24053,-0.007,-0.97,0.209,0.427,0.671,0.366,122.425
133250,147683,12863,-0.005,-0.946,0.206,0.427,0.671,0.366,122.431
133254,147594,24053,0.002,-0.927,0.203,-0.488,-0.305,-0.671,122.435
133254,147656,12874,0.006,-0.925,0.194,-0.488,-0.305,-0.671,122.441
133250,147594,24053,0.006,-0.924,0.177,-1.951,-0.793,-0.549,122.445
133250,147658,12859,0.012,-0.93,0.152,-1.951,-0.793,-0.549,122.451
133281,147594,24053,0.013,-0.94,0.145,-2.5,-1.037,0.488,122.454
133281,147700,12881,0.016,-0.958,0.158,-2.5,-1.037,0.488,122.461
133319,147594,24053,0.006,-0.972,0.186,-0.305,-0.61,1.341,122.464
133319,147700,12861,-0.007,-0.968,0.193,-0.305,-0.61,1.341,122.471
133310,147594,24053,-0.011,-0.953,0.186,1.22,0.61,1.951,122.474
133310,147671,12868,-0.009,-0.939,0.181,1.22,0.61,1.951,122.48
133294,147594,24053,-0.009,-0.951,0.193,-0.061,0.793,1.951,122.484
133294,147675,12869,-0.014,-0.965,0.207,-0.061,0.793,1.951,122.49
133263,147594,24053,-0.013,-0.971,0.202,-0.244,0.671,1.402,122.494
133263,147654,12860,-0.012,-0.973,0.205,-0.244,0.671,1.402,122.5
133252,147594,24053,-0.01,-0.982,0.22,-1.707,0.427,0.549,122.504
133252,147645,12861,-0.015,-0.983,0.207,-1.707,0.427,0.549,122.51
133251,147594,24053,-0.016,-0.98,0.174,-1.951,0.305,0.366,122.514
133251,147634,12857,-0.013,-0.982,0.172,-1.951,0.305,0.366,122.52
133251,147594,24053,0,-0.981,0.185,0.305,-0.61,0.122,122.524
133251,147636,12858,0.005,-0.975,0.179,0.305,-0.61,0.122,122.53
133233,147594,24053,0.008,-0.956,0.159,3.049,-1.28,-0.183,122.534
133233,147639,12857,0.012,-0.939,0.149,3.049,-1.28,-0.183,122.54
133273,147594,24053,0.012,-0.939,0.149,3.049,-1.28,-0.183,122.544
133273,147657,12859,0.009,-0.93,0.157,3.476,-0.793,0.183,122.55
133303,147594,24053,0.009,-0.93,0.157,3.476,-0.793,0.183,122.553
133303,147689,12867,0,-0.956,0.165,3.598,0.244,0.305,122.56
133277,147594,24053,0,-0.956,0.165,3.598,0.244,0.305,122.563
133277,147680,12878,0.002,-0.988,0.175,2.439,1.768,0.549,122.57
133281,147594,24053,0.002,-0.988,0.175,2.439,1.768,0.549,122.573
133281,147674,12863,0.004,-1.01,0.201,0.915,2.866,1.098,122.579
133267,147594,24053,0.004,-1.01,0.201,0.915,2.866,1.098,122.583
133267,147683,12847,-0.007,-0.98,0.19,1.707,4.268,1.28,122.589
133252,147594,24053,-0.007,-0.98,0.19,1.707,4.268,1.28,122.593
133252,147651,12856,-0.014,-0.937,0.204,2.134,4.512,0.122,122.599
133254,147594,24053,-0.014,-0.937,0.204,2.134,4.512,0.122,122.603
133254,147669,12873,-0.007,-0.937,0.195,1.585,3.354,-0.366,122.609
133258,147594,24053,-0.007,-0.937,0.195,1.585,3.354,-0.366,122.613
133258,147657,12867,0,-0.953,0.197,1.463,1.524,-0.61,122.619
133297,147594,24053,0,-0.953,0.197,1.463,1.524,-0.61,122.623
133297,147699,12859,0.009,-0.924,0.172,0.61,0.61,-0.488,122.629
133316,147594,24053,0.009,-0.924,0.172,0.61,0.61,-0.488,122.633
133316,147701,12864,-0.007,-0.916,0.186,1.22,0.732,0.671,122.639
133335,147850,24053,-0.007,-0.916,0.186,1.22,0.732,0.671,122.643
133335,147725,12863,-0.013,-0.926,0.225,3.963,0.793,1.341,122.649
133339,147594,24053,-0.013,-0.926,0.225,3.963,0.793,1.341,122.652
133339,147702,12859,-0.017,-0.932,0.233,0.732,0.488,1.341,122.659
133346,147850,24053,-0.017,-0.932,0.233,0.732,0.488,1.341,122.662
133346,147726,12861,-0.021,-0.965,0.217,-3.476,0.122,2.012,122.669
133337,147850,24053,-0.021,-0.965,0.217,-3.476,0.122,2.012,122.672
133337,147732,12875,-0.012,-0.989,0.196,-5,-0.488,1.768,122.678
133309,147594,24053,-0.012,-0.989,0.196,-5,-0.488,1.768,122.682
133309,147706,12872,-0.002,-0.978,0.188,-3.963,-1.463,0.732,122.688
133297,147850,24053,0.004,-0.963,0.17,-3.963,-1.463,0.732,122.692
133297,147713,12870,0.011,-0.944,0.145,-3.11,-1.707,0.976,122.698
133329,147850,24053,0.017,-0.941,0.144,-3.11,-1.707,0.976,122.702
133329,147718,12875,0.02,-0.949,0.154,-2.744,-0.793,1.341,122.708
133331,147850,24053,0.01,-0.956,0.156,-2.744,-0.793,1.341,122.712
133331,147737,12878,0.005,-0.965,0.16,-1.585,0.427,1.28,122.718
133325,147850,24053,0.002,-0.972,0.169,-1.585,0.427,1.28,122.722
133325,147721,12879,-0,-0.976,0.177,-1.098,0.61,1.037,122.728
133353,147850,24053,-0.002,-0.979,0.189,-1.098,0.61,1.037,122.732
133353,147729,12882,-0.003,-0.976,0.195,-0.244,0.854,0.793,122.738
133341,147850,24053,-0.003,-0.976,0.207,-0.244,0.854,0.793,122.742
133341,147742,12881,-0.007,-0.967,0.21,-0.854,0.915,0.549,122.748
133339,147850,24053,-0.012,-0.961,0.201,-0.854,0.915,0.549,122.751
133339,147717,12882,-0.017,-0.969,0.206,-0.122,0.976,0.244,122.758
133354,147850,24053,-0.02,-0.971,0.22,-0.122,0.976,0.244,122.761
133354,147751,12882,-0.022,-0.967,0.214,0.61,0.061,-0.183,122.768
133367,147850,24053,-0.022,-0.96,0.203,0.61,0.061,-0.183,122.771
133367,147745,12862,-0.021,-0.956,0.184,-0.305,-0.61,-0.183,122.777
133353,147850,24053,-0.017,-0.956,0.167,-0.305,-0.61,-0.183,122.781
133353,147775,12876,-0.01,-0.948,0.149,0.61,-0.854,0,122.787
133342,147850,24053,-0.005,-0.939,0.141,0.61,-0.854,0,122.791
133342,147745,12872,-0.001,-0.943,0.148,2.927,-0.488,0.061,122.797
133333,147850,24053,-0.007,-0.959,0.175,2.927,-0.488,0.061,122.801
133333,147757,12874,-0.012,-0.957,0.179,5.854,0.305,0.366,122.807
133342,147850,24053,-0.015,-0.944,0.172,5.854,0.305,0.366,122.811
133342,147765,12885,-0.013,-0.943,0.168,3.902,1.22,0.976,122.817
133369,147850,24053,-0.011,-0.955,0.184,3.902,1.22,0.976,122.821
133369,147759,12880,-0.004,-0.968,0.207,3.659,1.037,0.976,122.827
133386,147850,24053,0.003,-0.975,0.223,3.659,1.037,0.976,122.831
133386,147784,12887,-0.002,-0.967,0.23,2.683,0.61,0.793,122.837
133405,147850,24053,-0.008,-0.962,0.233,2.683,0.61,0.793,122.841
133405,147789,12886,-0.013,-0.955,0.23,1.402,0.488,0.793,122.847
133438,147850,24053,-0.01,-0.948,0.229,1.402,0.488,0.793,122.85
133438,147802,12897,-0.007,-0.945,0.222,0.122,-0.61,0.427,122.857
133424,147850,24053,-0.003,-0.941,0.211,0.122,-0.61,0.427,122.86
133424,147807,12890,0.002,-0.935,0.192,-1.524,-1.707,-0.061,122.867
133415,147850,24053,0.01,-0.936,0.181,-1.524,-1.707,-0.061,122.87
133415,147813,12891,0.012,-0.951,0.178,-2.622,-1.89,-0.244,122.876
133358,147850,24053,0.011,-0.95,0.161,-2.622,-1.89,-0.244,122.88
133358,147770,12875,0.009,-0.948,0.144,-2.988,-1.22,0,122.886
133370,147850,24053,0.009,-0.962,0.162,-2.988,-1.22,0,122.89
133370,147760,12887,0.006,-0.973,0.178,-1.951,-0.61,0.61,122.896
133341,147850,24053,-0.002,-0.972,0.176,-1.951,-0.61,0.61,122.9
133341,147743,12873,-0.005,-0.967,0.177,-0.305,0.244,1.037,122.906
133291,147594,24053,-0.005,-0.968,0.199,-0.305,0.244,1.037,122.91
133291,147707,12885,-0.006,-0.971,0.217,-0.061,0.305,0.549,122.916
133303,147850,24053,-0.011,-0.966,0.22,-0.061,0.305,0.549,122.92
133303,147741,12863,-0.012,-0.962,0.207,-1.524,0.61,0.305,122.926
133284,147850,24053,-0.016,-0.959,0.204,-1.524,0.61,0.305,122.93
133284,147714,12878,-0.013,-0.961,0.215,-3.293,0.488,0.061,122.936
133318,147594,24053,-0.005,-0.954,0.226,-3.293,0.488,0.061,122.94
133318,147711,12876,0.001,-0.942,0.219,-5.244,0.061,-0.671,122.946
133315,147850,24053,-0,-0.928,0.19,-5.244,0.061,-0.671,122.949
133315,147740,12877,-0.001,-0.924,0.169,-7.927,0.061,-0.488,122.956
133345,147850,24053,0.003,-0.934,0.157,-7.927,0.061,-0.488,122.959
133345,147741,12895,0.012,-0.952,0.145,-8.171,-0.366,-0.122,122.966
133372,147850,24053,0.008,-0.969,0.134,-8.171,-0.366,-0.122,122.969
133372,147772,12879,0.008,-0.984,0.139,-5.366,-0.183,0.305,122.975
133369,147850,24053,0.006,-0.995,0.154,-5.366,-0.183,0.305,122.979
133369,147773,12888,0.01,-0.989,0.16,-1.524,0.732,0.61,122.985
133358,147850,24053,0.003,-0.972,0.165,-1.524,0.732,0.61,122.989
133358,147761,12900,-0.007,-0.962,0.176,1.524,2.195,1.22,122.995
133379,147850,24053,-0.01,-0.962,0.19,1.524,2.195,1.22,122.999
133379,147743,12884,-0.011,-0.968,0.207,4.207,2.256,1.159,123.005
133366,147850,24053,-0.01,-0.961,0.221,4.207,2.256,1.159,123.009
133366,147772,12884,-0.013,-0.948,0.227,2.5,1.646,0.183,123.015
133333,147850,24053,-0.013,-0.94,0.204,2.5,1.646,0.183,123.019
133333,147755,12882,-0.011,-0.944,0.191,-1.159,1.159,0.305,123.025
133329,147850,24053,-0.015,-0.957,0.194,-1.159,1.159,0.305,123.029
133329,147762,12888,-0.013,-0.961,0.215,-2.622,0.244,-0.061,123.035
133328,147850,24053,-0.006,-0.955,0.214,-2.622,0.244,-0.061,123.039
133328,147746,12882,-0.005,-0.947,0.194,-3.537,-0.732,-0.732,123.045
133348,147850,24053,-0.006,-0.937,0.169,-3.537,-0.732,-0.732,123.048
133348,147759,12884,-0.002,-0.931,0.159,-3.11,-1.037,0,123.055
133350,147850,24053,0.001,-0.934,0.162,-3.11,-1.037,0,123.058
133350,147786,12890,0.003,-0.938,0.16,-1.951,-0.976,0.671,123.065
133353,147850,24053,0.003,-0.947,0.161,-1.951,-0.976,0.671,123.068
133353,147797,12896,-0.006,-0.957,0.172,-1.463,0.122,0.732,123.074
133368,147850,24053,-0.011,-0.967,0.186,-1.463,0.122,0.732,123.078
133368,147768,12894,-0.011,-0.968,0.186,-2.317,0.976,1.28,123.084
133364,147850,24053,-0.013,-0.976,0.185,-2.317,0.976,1.28,123.088
133364,147756,12879,-0.013,-0.981,0.199,-2.317,0.854,1.585,123.094
133358,147850,24053,-0.013,-0.985,0.2,-2.317,0.854,1.585,123.098
133358,147741,12880,-0.009,-0.984,0.185,-0.976,0.366,0.549,123.104
133311,147850,24053,-0.004,-0.985,0.177,-0.976,0.366,0.549,123.108
133311,147724,12890,-0,-0.992,0.173,0.183,0.183,-0.427,123.114
133305,147850,24053,0.002,-0.985,0.176,0.183,0.183,-0.427,123.118
133305,147737,12888,0.003,-0.972,0.184,1.22,-0.122,-0.061,123.124
133303,147850,24053,0.003,-0.972,0.184,1.22,-0.122,-0.061,123.128
133303,147721,12892,0.007,-0.936,0.174,1.768,-0.183,-0.366,123.134
133327,147850,24053,0.007,-0.936,0.174,1.768,-0.183,-0.366,123.138
133327,147715,12877,0.008,-0.928,0.175,2.439,-0.305,-0.427,123.144
133349,147850,24053,0.008,-0.928,0.175,2.439,-0.305,-0.427,123.147
133349,147791,12900,0.004,-0.927,0.178,1.22,-0.122,0.305,123.154
133372,147850,24053,0.004,-0.927,0.178,1.22,-0.122,0.305,123.157
133372,147763,12903,-0.014,-0.941,0.184,-0.976,0.488,0.671,123.164
133357,147850,24053,-0.014,-0.941,0.184,-0.976,0.488,0.671,123.167
133357,147770,12884,-0.018,-0.96,0.186,-2.805,0.732,0.976,123.173
133333,147850,24053,-0.018,-0.96,0.186,-2.805,0.732,0.976,123.177
133333,147738,12890,-0.019,-0.987,0.199,-2.622,0.61,0.854,123.183
133360,147850,24053,-0.019,-0.987,0.199,-2.622,0.61,0.854,123.187
133360,147765,12899,-0.008,-0.98,0.191,-1.037,0.305,0.488,123.193
133346,147850,24053,-0.008,-0.98,0.191,-1.037,0.305,0.488,123.197
133346,147767,12899,-0.013,-0.971,0.179,0.427,0.305,0.366,123.203
133367,147850,24053,-0.013,-0.971,0.179,0.427,0.305,0.366,123.207
133367,147776,12898,-0.005,-0.965,0.181,2.012,-0.061,0.427,123.213
133350,147850,24053,-0.005,-0.965,0.181,2.012,-0.061,0.427,123.217
133350,147779,12895,0.003,-0.942,0.183,2.622,-0.366,0.427,123.223
133342,147850,24053,0.003,-0.942,0.183,2.622,-0.366,0.427,123.227
133342,147768,12908,0.006,-0.93,0.166,1.463,-0.305,0.488,123.233
133380,147850,24053,0.006,-0.93,0.166,1.463,-0.305,0.488,123.237
133380,147779,12901,0.004,-0.95,0.176,0.671,-0.061,0.854,123.243
133375,147850,24053,0.004,-0.95,0.176,0.671,-0.061,0.854,123.246
133375,147772,12898,0.004,-0.951,0.177,-0.366,0.305,1.098,123.253
133357,147850,24053,0.004,-0.951,0.177,-0.366,0.305,1.098,123.256
133357,147753,12913,-0.001,-0.95,0.185,-2.134,0.793,1.159,123.262
133336,147850,24053,-0.001,-0.95,0.185,-2.134,0.793,1.159,123.266
133336,147756,12884,-0.007,-0.959,0.189,-2.134,0.793,1.159,123.272
133339,147850,24053,-0.011,-0.979,0.208,-3.659,0.915,1.037,123.276
133339,147734,12880,-0.014,-0.998,0.214,-3.659,0.915,1.037,123.282
133303,147594,24053,-0.017,-1.002,0.193,-2.561,0.549,0.854,123.286
133303,147696,12870,-0.016,-0.998,0.178,-2.561,0.549,0.854,123.292
133296,147850,24053,-0.009,-0.99,0.173,-0.122,0.183,0.183,123.296
133296,147719,12888,-0.004,-0.976,0.178,-0.122,0.183,0.183,123.302
133299,147850,24053,-0.002,-0.959,0.165,3.049,0,-0.061,123.306
133299,147717,12897,-0.006,-0.948,0.151,3.049,0,-0.061,123.312
133313,147594,24053,0.002,-0.945,0.159,4.878,0.427,0.122,123.316
133313,147708,12874,0.003,-0.947,0.173,4.878,0.427,0.122,123.322
133303,147850,24053,0,-0.942,0.181,5.183,0.671,0.183,123.326
133303,147723,12890,0.003,-0.934,0.175,5.183,0.671,0.183,123.332
133300,147594,24053,0.003,-0.931,0.177,2.927,1.098,0.671,123.336
133300,147711,12888,0.002,-0.938,0.191,2.927,1.098,0.671,123.342
133314,147850,24053,-0.001,-0.952,0.211,1.402,1.28,0.915,123.345
133314,147744,12894,-0.004,-0.951,0.216,1.402,1.28,0.915,123.352
133301,147850,24053,-0.01,-0.951,0.202,-1.28,1.524,0.671,123.355
133301,147739,12895,-0.017,-0.957,0.2,-1.28,1.524,0.671,123.362
133298,147850,24053,-0.013,-0.967,0.203,-2.988,1.037,0.366,123.365
133298,147723,12880,-0.009,-0.975,0.201,-2.988,1.037,0.366,123.371
133307,147850,24053,-0.01,-0.983,0.194,-3.354,0.244,0.061,123.375
133307,147725,12892,-0.011,-0.987,0.182,-3.354,0.244,0.061,123.381
133307,147850,24053,-0.008,-0.982,0.174,-1.89,0.122,-0.305,123.385
133307,147725,12897,-0.006,-0.974,0.178,-1.89,0.122,-0.305,123.391
133340,147850,24053,-0.003,-0.963,0.177,0.976,-0.488,-0.427,123.395
133340,147752,12887,-0.001,-0.948,0.17,0.976,-0.488,-0.427,123.401
133315,147850,24053,0.001,-0.939,0.173,2.927,-0.549,0.244,123.405
133315,147720,12901,-0,-0.933,0.182,2.927,-0.549,0.244,123.411
133334,147850,24053,-0.002,-0.922,0.17,3.659,0,0.671,123.415
133334,147751,12883,-0.001,-0.915,0.17,3.659,0,0.671,123.421
133344,147850,24053,0.001,-0.924,0.19,2.012,0.305,0.915,123.425
133344,147751,12884,-0,-0.937,0.207,2.012,0.305,0.915,123.431
133331,147850,24053,-0.005,-0.942,0.209,-0.427,0.671,1.22,123.435
133331,147727,12891,-0.009,-0.948,0.206,-0.427,0.671,1.22,123.441
133344,147850,24053,-0.007,-0.958,0.198,-3.415,0.915,1.524,123.444
133344,147740,12879,-0.009,-0.965,0.199,-3.415,0.915,1.524,123.451
133329,147850,24053,-0.007,-0.977,0.2,-3.354,0.366,1.524,123.454
133329,147766,12885,-0.008,-0.985,0.202,-3.354,0.366,1.524,123.461
133331,147850,24053,-0.01,-0.984,0.203,-1.707,0,1.098,123.464
133331,147777,12885,-0.008,-0.971,0.197,-1.707,0,1.098,123.47
133343,147850,24053,-0.006,-0.958,0.178,-1.524,0.122,0.549,123.474
133343,147749,12882,-0.005,-0.955,0.162,-1.524,0.122,0.549,123.48
133334,147850,24053,-0.005,-0.955,0.132,-0.976,0,0.549,123.484
133334,147767,12886,-0.003,-0.96,0.133,-0.976,0,0.549,123.49
133332,147850,24053,0.002,-0.978,0.174,0.976,-0.122,0.427,123.494
133332,147794,12886,-0.003,-0.982,0.184,0.976,-0.122,0.427,123.5
133331,147850,24053,-0.008,-0.962,0.162,1.768,0.61,0.427,123.504
133331,147779,12892,-0.007,-0.948,0.149,1.768,0.61,0.427,123.51
133347,147850,24053,-0.005,-0.961,0.177,1.402,1.159,0.793,123.514
133347,147771,12885,0,-0.969,0.201,1.402,1.159,0.793,123.52
133341,147850,24053,-0.002,-0.962,0.208,2.134,1.22,0.61,123.524
133341,147787,12877,-0.002,-0.959,0.211,2.134,1.22,0.61,123.53
133329,147850,24053,-0.004,-0.957,0.219,0.671,1.28,0.183,123.534
133329,147758,12910,-0.016,-0.966,0.223,0.671,1.28,0.183,123.54
133316,147850,24053,-0.019,-0.974,0.219,-0.122,0.732,0.427,123.543
133316,147759,12896,-0.02,-0.976,0.219,-0.122,0.732,0.427,123.55
133300,147850,24053,-0.014,-0.971,0.219,-1.341,-0.427,-0.122,123.553
133300,147757,12897,-0.01,-0.956,0.197,-1.341,-0.427,-0.122,123.559
133322,147850,24053,0,-0.94,0.153,-1.28,-1.341,-0.854,123.563
133322,147744,12905,0.007,-0.936,0.119,-1.28,-1.341,-0.854,123.569
133337,147850,24053,0.009,-0.952,0.126,1.463,-0.976,-0.671,123.573
133337,147766,12895,0.006,-0.963,0.154,1.463,-0.976,-0.671,123.579
133302,147850,24053,-0,-0.961,0.155,3.72,0.305,-0.366,123.583
133302,147771,12896,-0.005,-0.946,0.148,3.72,0.305,-0.366,123.589
133351,147850,24053,-0.007,-0.944,0.149,2.073,1.646,0.122,123.593
133351,147791,12901,-0.006,-0.95,0.165,2.073,1.646,0.122,123.599
133333,147850,24053,-0.004,-0.952,0.184,1.829,1.829,0.61,123.603
133333,147772,12904,-0.002,-0.949,0.205,1.829,1.829,0.61,123.609
133328,147850,24053,0,-0.947,0.232,0.549,1.707,0.427,123.613
133328,147783,12901,-0.003,-0.95,0.247,0.549,1.707,0.427,123.619
133337,147850,24053,-0.014,-0.947,0.248,-2.195,1.28,0.427,123.623
133337,147777,12890,-0.026,-0.947,0.229,-2.195,1.28,0.427,123.629
133328,147850,24053,-0.028,-0.96,0.214,-5.061,0.61,0.671,123.632
133328,147770,12897,-0.017,-0.971,0.218,-5.061,0.61,0.671,123.639
133337,147850,24053,-0.01,-0.972,0.213,-3.902,-0.976,-0.183,123.642
133337,147777,12912,0,-0.954,0.179,-3.902,-0.976,-0.183,123.649
133313,147850,24053,0.013,-0.936,0.124,-2.622,-1.524,-0.427,123.652
133313,147767,12905,0.015,-0.933,0.1,-2.622,-1.524,-0.427,123.658
133338,147850,24053,0.013,-0.959,0.141,0.854,-1.037,0.305,123.662
133338,147763,12895,0.012,-0.977,0.168,0.854,-1.037,0.305,123.668
133346,147850,24053,0,-0.969,0.161,3.293,0.366,0.915,123.672
133346,147763,12895,-0.002,-0.954,0.147,3.293,0.366,0.915,123.678
133321,147850,24053,0.004,-0.952,0.133,1.463,2.012,0.915,123.682
133321,147767,12895,0.005,-0.965,0.146,1.463,2.012,0.915,123.688
133328,147850,24053,0.006,-0.982,0.186,2.073,2.622,0.671,123.692
133328,147773,12896,0.004,-0.984,0.212,2.073,2.622,0.671,123.698
133333,147850,24053,-0.001,-0.98,0.209,1.22,2.866,0.244,123.702
133333,147769,12897,-0.005,-0.982,0.221,1.22,2.866,0.244,123.708
133330,147850,24053,-0.005,-0.982,0.221,1.22,2.866,0.244,123.712
133330,147798,12889,-0.02,-0.967,0.23,-0.122,3.293,0,123.718
133317,147850,24053,-0.02,-0.967,0.23,-0.122,3.293,0,123.722
133317,147788,12895,-0.011,-0.956,0.209,-1.341,2.317,-0.366,123.728
133331,147850,24053,-0.011,-0.956,0.209,-1.341,2.317,-0.366,123.732
133331,147777,12904,0.005,-0.938,0.216,-0.61,0.61,-1.22,123.738
133346,147850,24053,0.005,-0.938,0.216,-0.61,0.61,-1.22,123.741
133346,147792,12903,-0.005,-0.924,0.163,0,-0.732,-0.793,123.748
133339,147850,24053,-0.005,-0.924,0.163,0,-0.732,-0.793,123.751
133339,147792,12916,-0.001,-0.926,0.135,0.244,-0.671,0.488,123.757
133361,147850,24053,-0.001,-0.926,0.135,0.244,-0.671,0.488,123.761
133361,147811,12903,-0.005,-0.954,0.172,2.439,-0.183,0.915,123.767
133353,147850,24053,-0.005,-0.954,0.172,2.439,-0.183,0.915,123.771
133353,147790,12918,-0.014,-0.955,0.169,2.256,0.976,1.22,123.777
133336,147850,24053,-0.014,-0.955,0.169,2.256,0.976,1.22,123.781
133336,147790,12915,-0.019,-0.985,0.206,0.244,2.317,1.768,123.787
133336,147850,24053,-0.019,-0.985,0.206,0.244,2.317,1.768,123.791
133336,147772,12907,-0.019,-0.985,0.232,0.793,1.89,1.768,123.797
133283,147850,24053,-0.019,-0.985,0.232,0.793,1.89,1.768,123.801
133283,147765,12900,-0.022,-0.97,0.23,0.793,1.28,0.671,123.807
133268,147850,24053,-0.022,-0.97,0.23,0.793,1.28,0.671,123.811
133268,147744,12902,-0.014,-0.953,0.217,-0.122,0.915,-0.366,123.817
133266,147850,24053,-0.014,-0.953,0.217,-0.122,0.915,-0.366,123.821
133266,147718,12905,-0.002,-0.945,0.202,-0.427,-0.427,-1.037,123.827
133254,147594,24053,-0.002,-0.945,0.202,-0.427,-0.427,-1.037,123.83
133254,147706,12904,0.017,-0.926,0.142,-1.159,-1.89,-1.159,123.837
133284,147850,24053,0.017,-0.926,0.142,-1.159,-1.89,-1.159,123.84
133284,147724,12906,0.019,-0.948,0.148,-1.951,-1.951,-0.732,123.847
133325,147850,24053,0.019,-0.948,0.148,-1.951,-1.951,-0.732,123.85
133325,147742,12912,0.014,-0.968,0.172,0.915,-0.915,0.488,123.856
133280,147850,24053,0.007,-0.961,0.163,0.915,-0.915,0.488,123.86
133280,147721,12919,-0.001,-0.948,0.152,0.488,0.793,1.341,123.866
133264,147594,24053,-0.003,-0.941,0.153,0.488,0.793,1.341,123.87
133264,147706,12909,-0.005,-0.949,0.173,1.28,1.463,1.707,123.876
133245,147594,24053,-0.003,-0.964,0.201,1.28,1.463,1.707,123.88
133245,147708,12881,-0.01,-0.979,0.219,1.585,1.524,1.22,123.886
133216,147594,24053,-0.019,-0.994,0.217,1.585,1.524,1.22,123.89
133216,147691,12884,-0.024,-1.001,0.216,-1.585,1.951,0.488,123.896
133220,147594,24053,-0.03,-1.001,0.219,-1.585,1.951,0.488,123.9
133220,147676,12899,-0.026,-1.001,0.207,-1.402,1.037,0.427,123.906
133202,147594,24053,-0.018,-0.993,0.196,-1.402,1.037,0.427,123.91
133202,147690,12892,-0.01,-0.98,0.208,2.256,-0.244,-0.915,123.916
133237,147594,24053,-0,-0.961,0.199,2.256,-0.244,-0.915,123.92
133237,147687,12891,0.003,-0.938,0.181,5.061,-1.037,-1.768,123.926
133250,147594,24053,0.005,-0.927,0.172,5.061,-1.037,-1.768,123.929
133250,147690,12901,0.007,-0.926,0.166,5.976,-1.037,-0.793,123.936
133290,147850,24053,0.009,-0.919,0.16,5.976,-1.037,-0.793,123.939
133290,147733,12903,0.016,-0.901,0.155,3.415,-0.305,-0.305,123.946
133286,147850,24053,0.016,-0.894,0.147,3.415,-0.305,-0.305,123.949
133286,147751,12918,0.007,-0.908,0.165,-0.549,0.793,0.305,123.955
133294,147850,24053,-0,-0.922,0.187,-0.549,0.793,0.305,123.959
133294,147763,12903,-0.005,-0.936,0.189,-3.598,1.646,1.402,123.965
133268,147850,24053,-0.012,-0.953,0.186,-3.598,1.646,1.402,123.969
133268,147762,12877,-0.013,-0.981,0.198,-5.549,1.646,1.768,123.975
133241,147850,24053,-0.013,-0.997,0.212,-5.549,1.646,1.768,123.979
133241,147717,12909,-0.017,-1.002,0.228,-4.451,1.341,1.951,123.985
133254,147594,24053,-0.018,-0.993,0.23,-4.451,1.341,1.951,123.989
133254,147703,12878,-0.02,-0.984,0.211,-3.963,1.402,1.22,123.995
133238,147594,24053,-0.022,-0.984,0.206,-3.963,1.402,1.22,123.999
133238,147695,12894,-0.021,-0.986,0.213,-1.585,0.732,0.61,124.005
133249,147594,24053,-0.014,-0.985,0.205,-1.585,0.732,0.61,124.009
133249,147700,12892,-0.002,-0.97,0.187,0.671,-0.854,0.061,124.015
133230,147850,24053,0.005,-0.96,0.162,0.671,-0.854,0.061,124.019
133230,147718,12875,0.014,-0.945,0.158,2.622,-1.098,-0.427,124.025
133260,147850,24053,0.012,-0.93,0.156,2.622,-1.098,-0.427,124.028
133260,147728,12889,0.01,-0.924,0.157,3.537,-0.305,-0.305,124.035
133274,147850,24053,0.009,-0.936,0.183,3.537,-0.305,-0.305,124.038
133274,147728,12894,0.005,-0.936,0.19,2.561,0.488,0.061,124.045
133278,147850,24053,-0.002,-0.923,0.177,2.561,0.488,0.061,124.048
133278,147714,12912,-0.002,-0.924,0.182,-2.195,1.341,0.061,124.054
133263,147594,24053,-0.005,-0.938,0.204,-2.195,1.341,0.061,124.058
133263,147700,12893,-0.008,-0.954,0.213,-5.366,0.915,0.488,124.064
133240,147594,24053,-0.011,-0.966,0.211,-5.366,0.915,0.488,124.068
133240,147686,12885,-0.01,-0.976,0.213,-7.5,0.427,0.854,124.074
133238,147594,24053,-0.013,-0.979,0.212,-7.5,0.427,0.854,124.078
133238,147690,12888,-0.016,-0.976,0.197,-6.22,0.122,0.915,124.084
133220,147594,24053,-0.018,-0.976,0.196,-6.22,0.122,0.915,124.088
133220,147673,12896,-0.012,-0.975,0.198,-2.622,-0.732,0.793,124.094
133249,147594,24053,-0.01,-0.965,0.181,-2.622,-0.732,0.793,124.098
133249,147682,12904,-0.007,-0.952,0.155,-0.305,-1.28,0.61,124.104
133241,147594,24053,-0.003,-0.96,0.155,-0.305,-1.28,0.61,124.108
133241,147700,12897,0.004,-0.972,0.167,2.012,-1.22,0.793,124.114
133289,147850,24053,0.002,-0.967,0.163,2.012,-1.22,0.793,124.118
133289,147753,12907,0,-0.954,0.153,3.171,-0.122,0.915,124.124
133294,147850,24053,0,-0.95,0.155,3.171,-0.122,0.915,124.127
133294,147745,12917,0.002,-0.955,0.162,2.866,0.427,0.671,124.134
133282,147850,24053,-0.004,-0.955,0.175,2.866,0.427,0.671,124.137
133282,147757,12914,-0.004,-0.956,0.196,1.768,1.037,0.61,124.144
133296,147850,24053,-0.001,-0.958,0.216,1.768,1.037,0.61,124.147
133296,147777,12913,-0,-0.959,0.224,-1.646,1.22,0,124.153
133272,147850,24053,-0.005,-0.955,0.206,-1.646,1.22,0,124.157
133272,147750,12912,-0.013,-0.962,0.19,-4.085,1.402,0.061,124.163
133262,147850,24053,-0.01,-0.979,0.206,-4.085,1.402,0.061,124.167
133262,147716,12904,-0.006,-0.979,0.204,-3.476,0.366,0.183,124.173
133244,147594,24053,-0.004,-0.977,0.182,-3.476,0.366,0.183,124.177
133244,147705,12899,-0.002,-0.971,0.172,-1.89,0.061,0,124.183
133243,147850,24053,0.003,-0.959,0.152,-1.89,0.061,0,124.187
133243,147721,12891,0.006,-0.954,0.151,1.159,-0.122,0.305,124.193
133247,147594,24053,0.003,-0.963,0.168,1.159,-0.122,0.305,124.197
133247,147711,12898,0.001,-0.962,0.155,4.695,0.488,0.732,124.203
133277,147850,24053,0,-0.957,0.153,4.695,0.488,0.732,124.207
133277,147750,12910,-0.003,-0.947,0.155,4.756,1.463,0.61,124.213
133282,147850,24053,-0.002,-0.941,0.156,4.756,1.463,0.61,124.217
133282,147756,12909,-0.007,-0.95,0.171,4.024,2.134,0.305,124.223
133306,147850,24053,-0.012,-0.964,0.2,4.024,2.134,0.305,124.226
133306,147748,12925,-0.011,-0.971,0.227,2.805,2.5,0.244,124.233
133276,147850,24053,-0.011,-0.975,0.247,2.805,2.5,0.244,124.236
133276,147755,12911,-0.016,-0.98,0.25,-0.549,2.5,0,124.243
133310,147850,24053,-0.028,-0.974,0.229,-0.549,2.5,0,124.246
133310,147745,12896,-0.03,-0.978,0.215,-1.646,2.378,0.366,124.252
133305,147850,24053,-0.021,-0.992,0.25,-1.646,2.378,0.366,124.256
133305,147775,12910,-0.014,-0.987,0.239,-0.671,1.22,-0.244,124.262
133293,147850,24053,-0.011,-0.976,0.165,-0.671,1.22,-0.244,124.266
133293,147754,12915,-0.011,-0.984,0.132,-0.915,0.61,-1.037,124.272
133270,147850,24053,0.002,-1.003,0.141,-0.915,0.61,-1.037,124.276
133270,147761,12904,0.016,-0.992,0.175,3.598,-0.915,-0.671,124.282
133274,147850,24053,0.016,-0.953,0.181,3.598,-0.915,-0.671,124.286
133274,147751,12907,0.01,-0.919,0.128,8.293,-0.122,-0.183,124.292
133302,147850,24053,0.01,-0.919,0.128,8.293,-0.122,-0.183,124.296
133302,147785,12911,0.004,-0.924,0.174,11.707,0.549,-0.244,124.302
133327,147850,24053,0.004,-0.924,0.174,11.707,0.549,-0.244,124.306
133327,147788,12923,-0.003,-0.895,0.188,7.561,0.549,-0.366,124.312
133286,147850,24053,-0.003,-0.895,0.188,7.561,0.549,-0.366,124.316
133286,147778,12920,-0.007,-0.903,0.209,0.549,0.854,0,124.322
133269,147850,24053,-0.007,-0.903,0.209,0.549,0.854,0,124.325
133269,147742,12913,0.002,-0.916,0.223,-4.634,0.549,-0.122,124.332
133244,147850,24053,0.002,-0.916,0.223,-4.634,0.549,-0.122,124.335
133244,147746,12899,-0.013,-0.947,0.245,-7.744,0.183,0.183,124.342
133250,147850,24053,-0.013,-0.947,0.245,-7.744,0.183,0.183,124.345
133250,147723,12900,-0.02,-0.957,0.197,-7.927,-0.122,1.098,124.351
133265,147850,24053,-0.02,-0.957,0.197,-7.927,-0.122,1.098,124.355
133265,147735,12921,0.008,-0.965,0.162,-5.244,-1.22,1.585,124.361
133285,147850,24053,0.008,-0.965,0.162,-5.244,-1.22,1.585,124.365
133285,147740,12902,0.008,-0.985,0.156,-1.585,-0.671,2.378,124.371
133290,147850,24053,0.008,-0.985,0.156,-1.585,-0.671,2.378,124.375
133290,147761,12918,0,-0.971,0.166,2.012,0.122,3.049,124.381
133318,147850,24053,0,-0.971,0.166,2.012,0.122,3.049,124.385
133318,147789,12917,-0.002,-0.948,0.151,2.927,0.61,2.5,124.391
133319,147850,24053,-0.002,-0.948,0.151,2.927,0.61,2.5,124.395
133319,147790,12920,-0.005,-0.967,0.219,3.537,0.671,1.951,124.401
133307,147850,24053,-0.005,-0.967,0.219,3.537,0.671,1.951,124.405
133307,147791,12926,-0.014,-0.967,0.212,-1.585,1.585,0.976,124.411
133335,147850,24053,-0.014,-0.967,0.212,-1.585,1.585,0.976,124.415
133335,147797,12921,-0.017,-0.987,0.213,-3.963,1.707,0.305,124.421
133297,147850,24053,-0.017,-0.987,0.213,-3.963,1.707,0.305,124.424
133297,147786,12917,-0.01,-0.984,0.196,-2.622,0.366,-0.305,124.431
133289,147850,24053,-0.01,-0.984,0.196,-2.622,0.366,-0.305,124.434
133289,147779,12905,-0.001,-0.981,0.212,-2.622,0.366,-0.305,124.441
133295,147850,24053,-0.001,-0.967,0.21,-0.183,-0.671,-0.854,124.444
133295,147747,12919,-0.004,-0.947,0.176,-0.183,-0.671,-0.854,124.45
133298,147850,24053,-0,-0.938,0.158,0.732,-0.793,-0.305,124.454
133298,147765,12927,0.005,-0.937,0.155,0.732,-0.793,-0.305,124.46
133301,147850,24053,0.011,-0.944,0.164,2.134,-1.159,0.244,124.464
133301,147781,12931,0.008,-0.946,0.162,2.134,-1.159,0.244,124.47
133317,147850,24053,0.002,-0.94,0.164,2.439,-0.305,0.61,124.474
133317,147772,12914,-0.001,-0.943,0.172,2.439,-0.305,0.61,124.48
133303,147850,24053,-0.005,-0.943,0.176,2.256,0.732,1.28,124.484
133303,147812,12935,-0.013,-0.947,0.192,2.256,0.732,1.28,124.49
133318,147850,24053,-0.015,-0.953,0.207,1.098,1.402,1.28,124.494
133318,147781,12930,-0.017,-0.956,0.211,1.098,1.402,1.28,124.5
133328,147850,24053,-0.018,-0.959,0.214,-1.28,1.524,1.037,124.504
133328,147782,12925,-0.022,-0.964,0.224,-1.28,1.524,1.037,124.51
133294,147850,24053,-0.021,-0.966,0.22,-3.659,0.976,0.854,124.514
133294,147794,12923,-0.014,-0.968,0.217,-3.659,0.976,0.854,124.52
133284,147850,24053,-0.013,-0.97,0.208,-4.39,0.549,0.488,124.523
133284,147773,12924,-0.01,-0.971,0.19,-4.39,0.549,0.488,124.53
133282,147850,24053,-0.005,-0.963,0.178,-3.476,-0.061,0.244,124.533
133282,147787,12929,0.001,-0.953,0.169,-3.476,-0.061,0.244,124.54
133250,147850,24053,0.006,-0.955,0.169,-0.793,-0.793,0.549,124.543
133250,147733,12907,0.012,-0.964,0.159,-0.793,-0.793,0.549,124.549
133224,147594,24053,0.004,-0.969,0.142,2.073,0.122,0.732,124.553
133224,147703,12926,0.001,-0.966,0.151,2.073,0.122,0.732,124.559
133153,147594,24053,-0.001,-0.966,0.171,2.988,1.098,0.61,124.563
133153,147671,12905,-0.007,-0.962,0.183,2.988,1.098,0.61,124.569
133145,147594,24053,-0.01,-0.961,0.198,2.561,1.463,0.488,124.573
133145,147662,12907,-0.009,-0.966,0.218,2.561,1.463,0.488,124.579
133121,147594,24053,-0.01,-0.974,0.241,1.22,1.524,0.244,124.583
133121,147620,12893,-0.013,-0.98,0.251,1.22,1.524,0.244,124.589
133080,147594,24053,-0.021,-0.98,0.233,-1.768,1.585,-0.732,124.593
133080,147612,12893,-0.023,-0.984,0.226,-1.768,1.585,-0.732,124.599
133092,147594,24053,-0.022,-0.986,0.218,-2.134,1.463,-1.159,124.603
133092,147581,12917,-0.018,-0.981,0.217,-2.134,1.463,-1.159,124.609
133115,147594,24053,-0.004,-0.953,0.197,-0.854,0.427,-1.646,124.613
133115,147590,12903,0.004,-0.923,0.144,-0.854,0.427,-1.646,124.619
133089,147594,24053,0.006,-0.912,0.123,-1.159,0.122,-1.463,124.622
133089,147603,12906,0.013,-0.926,0.131,-1.159,0.122,-1.463,124.629
133146,147594,24053,0.011,-0.942,0.146,1.402,0.183,-0.488,124.632
133146,147646,12910,0.002,-0.944,0.159,1.402,0.183,-0.488,124.639
133144,147594,24053,0,-0.922,0.166,0.732,1.159,0,124.642
133144,147658,12902,0.004,-0.907,0.176,0.732,1.159,0,124.648
133143,147594,24053,-0.003,-0.915,0.176,-2.744,1.341,0.61,124.652
133143,147638,12911,-0.013,-0.939,0.192,-2.744,1.341,0.61,124.658
133144,147594,24053,-0.011,-0.957,0.218,-3.354,1.341,1.341,124.662
133144,147650,12898,-0.011,-0.967,0.225,-3.354,1.341,1.341,124.668
133171,147594,24053,-0.011,-0.969,0.219,-4.634,0.61,0.671,124.672
133171,147675,12920,-0.014,-0.972,0.218,-4.634,0.61,0.671,124.678
133187,147594,24053,-0.02,-0.978,0.225,-4.512,0.244,0.305,124.682
133187,147689,12905,-0.025,-0.979,0.232,-4.512,0.244,0.305,124.688
133177,147594,24053,-0.023,-0.979,0.221,-3.171,-0.854,0.915,124.692
133177,147680,12917,-0.014,-0.979,0.203,-3.171,-0.854,0.915,124.698
133218,147594,24053,-0.002,-0.973,0.184,-1.646,-1.951,0.061,124.702
133218,147704,12901,0.01,-0.964,0.162,-1.646,-1.951,0.061,124.708
133208,147594,24053,0.017,-0.954,0.133,0.976,-2.195,-0.244,124.712
133208,147703,12914,0.016,-0.95,0.128,0.976,-2.195,-0.244,124.718
133195,147850,24053,0.02,-0.951,0.146,3.415,-0.854,0.305,124.721
133195,147730,12911,0.016,-0.949,0.154,3.415,-0.854,0.305,124.728
133238,147850,24053,0.003,-0.939,0.158,1.829,0.976,0.549,124.731
133238,147740,12913,-0.003,-0.942,0.165,1.829,0.976,0.549,124.738
133250,147850,24053,-0.006,-0.948,0.171,-0.732,1.707,0.976,124.741
133250,147737,12920,-0.003,-0.953,0.179,-0.732,1.707,0.976,124.747
133269,147850,24053,0.002,-0.958,0.196,-0.427,1.341,0.793,124.751
133269,147753,12918,0.001,-0.957,0.209,-0.427,1.341,0.793,124.757
133263,147850,24053,-0.002,-0.965,0.217,0.305,1.341,0.549,124.761
133263,147722,12932,-0.013,-0.969,0.239,0.305,1.341,0.549,124.767
133253,147850,24053,-0.021,-0.963,0.241,-0.244,1.524,1.159,124.771
133253,147718,12915,-0.024,-0.953,0.208,-0.244,1.524,1.159,124.777
133253,147850,24053,-0.02,-0.956,0.189,-2.5,0.61,0.671,124.781
133253,147748,12923,-0.013,-0.971,0.196,-2.5,0.61,0.671,124.787
133258,147850,24053,-0.001,-0.97,0.19,0.549,-0.915,0.305,124.791
133258,147723,12915,0.007,-0.946,0.153,0.549,-0.915,0.305,124.797
133269,147850,24053,0.011,-0.946,0.137,0.854,-0.854,0.549,124.801
133269,147741,12917,0.007,-0.972,0.172,0.854,-0.854,0.549,124.807
133258,147850,24053,-0.005,-0.983,0.199,3.232,0.305,0.549,124.811
133258,147752,12937,-0.014,-0.965,0.176,3.232,0.305,0.549,124.817
133290,147850,24053,-0.011,-0.943,0.146,1.22,1.037,0.732,124.82
133290,147748,12923,-0.009,-0.945,0.147,1.22,1.037,0.732,124.827
133270,147850,24053,-0.004,-0.959,0.176,1.402,0.976,0.671,124.83
133270,147770,12921,0.003,-0.961,0.198,1.402,0.976,0.671,124.837
133260,147850,24053,-0.001,-0.954,0.214,1.037,1.037,0.427,124.84
133260,147716,12910,-0.01,-0.946,0.224,1.037,1.037,0.427,124.846
133223,147594,24053,-0.017,-0.948,0.225,-2.256,1.768,0.61,124.85
133223,147700,12921,-0.02,-0.958,0.236,-2.256,1.768,0.61,124.856
133228,147594,24053,-0.02,-0.964,0.234,-3.354,0.915,0.61,124.86
133228,147701,12909,-0.016,-0.966,0.213,-3.354,0.915,0.61,124.866
133212,147850,24053,-0.005,-0.965,0.196,-2.988,-0.61,0.183,124.87
133212,147736,12915,-0.001,-0.962,0.184,-2.988,-0.61,0.183,124.876
133223,147594,24053,-0.001,-0.962,0.184,-2.988,-0.61,0.183,124.88
133223,147708,12904,0.002,-0.955,0.171,-0.305,-1.159,0.183,124.886
133206,147594,24053,0.002,-0.955,0.171,-0.305,-1.159,0.183,124.89
133206,147690,12907,-0.001,-0.947,0.144,1.402,-0.793,0.427,124.896
133187,147594,24053,-0.001,-0.947,0.144,1.402,-0.793,0.427,124.9
133187,147688,12909,-0.002,-0.96,0.149,1.829,-0.061,0.61,124.906
133169,147594,24053,-0.002,-0.96,0.149,1.829,-0.061,0.61,124.91
133169,147659,12891,-0.005,-0.961,0.181,2.5,0.61,0.732,124.916
133135,147594,24053,-0.005,-0.961,0.181,2.5,0.61,0.732,124.919
133135,147651,12904,-0.014,-0.97,0.216,1.159,1.463,0.427,124.926
133131,147594,24053,-0.014,-0.97,0.216,1.159,1.463,0.427,124.929
133131,147614,12907,-0.026,-0.963,0.215,-0.427,2.195,0.366,124.936
133113,147594,24053,-0.026,-0.963,0.215,-0.427,2.195,0.366,124.939
133113,147651,12900,-0.018,-0.978,0.222,-1.951,1.89,0,124.945
133124,147594,24053,-0.018,-0.978,0.222,-1.951,1.89,0,124.949
133124,147655,12918,-0.018,-0.963,0.215,-0.061,0.854,-0.305,124.955
133148,147594,24053,-0.018,-0.963,0.215,-0.061,0.854,-0.305,124.959
133148,147649,12906,-0.008,-0.951,0.177,-0.488,-0.366,-0.061,124.965
133170,147594,24053,-0.008,-0.951,0.177,-0.488,-0.366,-0.061,124.969
133170,147656,12912,0.006,-0.944,0.144,-0.854,-0.976,-0.183,124.975
133193,147594,24053,0.006,-0.944,0.144,-0.854,-0.976,-0.183,124.979
133193,147673,12904,0.018,-0.953,0.159,1.098,-1.22,-0.427,124.985
133213,147850,24053,0.018,-0.953,0.159,1.098,-1.22,-0.427,124.989
133213,147716,12915,0.003,-0.946,0.167,2.317,-0.366,-0.183,124.995
133264,147850,24053,0.003,-0.946,0.167,2.317,-0.366,-0.183,124.999
133264,147765,12935,0.004,-0.942,0.195,2.317,1.159,0.427,125.005
133227,147850,24053,0.004,-0.942,0.195,2.317,1.159,0.427,125.009
133227,147739,12912,-0.01,-0.964,0.195,-0.366,1.707,0.488,125.015
133205,147850,24053,-0.01,-0.964,0.195,-0.366,1.707,0.488,125.018
133205,147719,12913,-0.013,-0.986,0.202,-1.098,2.012,0.671,125.025
133210,147850,24053,-0.016,-0.992,0.208,-1.098,2.012,0.671,125.028
133210,147721,12933,-0.005,-0.98,0.211,-0.793,0.854,0.244,125.035
133212,147850,24053,-0.007,-0.959,0.213,-0.793,0.854,0.244,125.038
133212,147727,12906,-0.01,-0.946,0.206,-0.976,0.244,-0.244,125.044
133195,147850,24053,-0.01,-0.938,0.202,-0.976,0.244,-0.244,125.048
133195,147724,12910,-0.007,-0.937,0.184,-0.671,-0.183,0.122,125.054
133214,147850,24053,0.003,-0.933,0.157,-0.671,-0.183,0.122,125.058
133214,147741,12915,0.007,-0.94,0.149,-0.976,-0.915,-0.183,125.064
133244,147850,24053,0.009,-0.958,0.164,-0.976,-0.915,-0.183,125.068
133244,147747,12933,0.008,-0.954,0.161,0.183,-0.976,0.183,125.074
133270,147850,24053,0.006,-0.942,0.154,0.183,-0.976,0.183,125.078
133270,147800,12941,0.001,-0.945,0.165,-0.183,0,1.22,125.084
133279,147850,24053,-0.004,-0.956,0.194,-0.183,0,1.22,125.088
133279,147785,12924,-0.012,-0.962,0.213,0.732,0.854,1.28,125.094
133305,147850,24053,-0.016,-0.961,0.219,0.732,0.854,1.28,125.098
133305,147787,12939,-0.014,-0.962,0.201,-0.488,1.22,0.732,125.104
133273,147850,24053,-0.013,-0.969,0.195,-0.488,1.22,0.732,125.108
133273,147768,12925,-0.012,-0.979,0.204,-2.012,1.341,0.61,125.114
133261,147850,24053,-0.011,-0.984,0.201,-2.012,1.341,0.61,125.117
133261,147748,12929,-0.013,-0.978,0.189,-1.89,1.22,0.488,125.124
133236,147850,24053,-0.008,-0.971,0.189,-1.89,1.22,0.488,125.127
133236,147749,12931,0.001,-0.965,0.197,-1.646,0.61,-0.549,125.133
133209,147850,24053,0.002,-0.954,0.19,-1.646,0.61,-0.549,125.137
133209,147751,12929,0.004,-0.947,0.17,-0.732,0.183,-0.305,125.143
133228,147850,24053,0.003,-0.948,0.166,-0.732,0.183,-0.305,125.147
133228,147742,12929,0.01,-0.948,0.161,1.098,0.183,0.061,125.153
133261,147850,24053,0.009,-0.944,0.153,1.098,0.183,0.061,125.157
133261,147770,12939,0.005,-0.942,0.152,2.439,0.427,0.244,125.163
133266,147850,24053,-0.002,-0.947,0.166,2.439,0.427,0.244,125.167
133266,147792,12931,-0.005,-0.95,0.188,2.805,1.22,1.159,125.173
133315,147850,24053,-0.01,-0.946,0.193,2.805,1.22,1.159,125.177
133315,147803,12938,-0.008,-0.943,0.191,1.341,1.707,0.915,125.183
133298,147850,24053,-0.009,-0.946,0.193,1.341,1.707,0.915,125.187
133298,147794,12935,-0.01,-0.957,0.197,-1.707,2.012,0.427,125.193
133299,147850,24053,-0.009,-0.969,0.211,-1.707,2.012,0.427,125.197
133299,147790,12932,-0.014,-0.981,0.212,-2.561,1.768,0.793,125.203
133267,147850,24053,-0.015,-0.983,0.209,-2.561,1.768,0.793,125.207
133267,147754,12928,-0.016,-0.974,0.227,-2.5,1.28,0.671,125.213
133265,147850,24053,-0.016,-0.96,0.228,-2.5,1.28,0.671,125.216
133265,147768,12917,-0.02,-0.946,0.206,-2.744,0.488,0.427,125.223
133220,147850,24053,-0.018,-0.94,0.187,-2.744,0.488,0.427,125.226
133220,147753,12934,-0.007,-0.947,0.188,-1.402,-0.488,0.305,125.233
133240,147850,24053,-0,-0.954,0.178,-1.402,-0.488,0.305,125.236
133240,147728,12935,0.001,-0.957,0.162,0.305,-1.098,0.183,125.242
133245,147594,24053,0.004,-0.954,0.147,0.305,-1.098,0.183,125.246
133245,147703,12919,0.003,-0.962,0.158,0.854,-0.244,0.488,125.252
133233,147850,24053,-0.007,-0.966,0.179,0.854,-0.244,0.488,125.256
133233,147761,12939,-0.008,-0.967,0.178,0.793,0.915,0.549,125.262
133259,147850,24053,-0.005,-0.967,0.176,0.793,0.915,0.549,125.266
133259,147745,12944,-0.01,-0.971,0.188,-0.976,1.951,0.122,125.272
133226,147850,24053,-0.005,-0.979,0.207,-0.976,1.951,0.122,125.276
133226,147745,12948,-0.002,-0.988,0.224,-0.793,1.341,-0.122,125.282
133212,147594,24053,-0.01,-0.988,0.234,-0.793,1.341,-0.122,125.286
133212,147708,12931,-0.021,-0.977,0.22,-0.671,1.098,-0.671,125.292
133200,147594,24053,-0.023,-0.965,0.195,-0.671,1.098,-0.671,125.296
133200,147689,12925,-0.017,-0.958,0.184,-0.183,0.488,-1.341,125.302
133178,147850,24053,-0.008,-0.949,0.195,-0.183,0.488,-1.341,125.306
133178,147715,12928,-0.004,-0.933,0.189,2.012,-0.915,-1.524,125.312
133185,147594,24053,0.004,-0.918,0.152,2.012,-0.915,-1.524,125.315
133185,147702,12936,0.007,-0.919,0.131,1.098,-0.671,-0.549,125.322
133211,147850,24053,0.014,-0.927,0.134,1.098,-0.671,-0.549,125.325
133211,147714,12930,0.014,-0.925,0.138,2.012,-0.183,0.244,125.331
133192,147850,24053,0.011,-0.927,0.143,2.012,-0.183,0.244,125.335
133192,147722,12923,0.005,-0.939,0.162,1.707,0.976,1.28,125.341
133217,147850,24053,-0,-0.95,0.196,1.707,0.976,1.28,125.345
133217,147714,12933,-0.008,-0.962,0.215,0,2.073,1.768,125.351
133205,147594,24053,-0.007,-0.965,0.225,0,2.073,1.768,125.355
133205,147708,12943,-0.013,-0.966,0.232,-2.988,2.195,1.768,125.361
133185,147594,24053,-0.021,-0.973,0.233,-2.988,2.195,1.768,125.365
133185,147694,12929,-0.023,-0.986,0.232,-2.5,1.585,1.463,125.371
133194,147594,24053,-0.024,-0.994,0.226,-2.5,1.585,1.463,125.375
133194,147688,12927,-0.023,-0.993,0.216,-0.061,0.061,0.122,125.381
133189,147594,24053,-0.02,-0.974,0.216,-0.061,0.061,0.122,125.385
133189,147687,12930,-0.012,-0.947,0.205,0.122,-1.159,-0.671,125.391
133198,147594,24053,-0.005,-0.926,0.191,0.122,-1.159,-0.671,125.395
133198,147703,12924,-0,-0.913,0.154,-0.488,-1.646,-0.61,125.401
133198,147850,24053,0.008,-0.916,0.116,-0.488,-1.646,-0.61,125.405
133198,147722,12914,0.018,-0.94,0.113,0.61,-1.646,-0.122,125.411
133226,147850,24053,0.017,-0.975,0.152,0.61,-1.646,-0.122,125.414
133226,147729,12916,0.009,-0.983,0.186,2.561,-0.61,0.366,125.421
133239,147850,24053,0.003,-0.954,0.167,2.561,-0.61,0.366,125.424
133239,147741,12944,-0.007,-0.935,0.139,-1.28,1.89,1.28,125.431
133256,147850,24053,-0.009,-0.944,0.185,-1.28,1.89,1.28,125.434
133256,147750,12927,-0.005,-0.963,0.24,-1.768,2.317,1.402,125.44
133258,147850,24053,-0.003,-0.97,0.235,-1.768,2.317,1.402,125.444
133258,147767,12936,-0.011,-0.974,0.201,-4.329,1.951,0.305,125.45
133256,147850,24053,-0.018,-0.991,0.202,-4.329,1.951,0.305,125.454
133256,147740,12926,-0.019,-1.002,0.214,-4.39,1.585,0.122,125.46
133233,147850,24053,-0.019,-1.002,0.214,-4.39,1.585,0.122,125.464
133233,147743,12916,-0.02,-0.979,0.207,-1.707,0.305,0.122,125.47
133212,147850,24053,-0.02,-0.979,0.207,-1.707,0.305,0.122,125.474
133212,147730,12924,-0.007,-0.952,0.193,1.341,-0.61,-0.976,125.48
133213,147850,24053,-0.007,-0.952,0.193,1.341,-0.61,-0.976,125.484
133213,147730,12923,0.003,-0.925,0.175,2.805,-1.402,-0.671,125.49
133200,147850,24053,0.003,-0.925,0.175,2.805,-1.402,-0.671,125.494
133200,147712,12918,0.003,-0.913,0.15,1.89,-1.28,0.366,125.5
133206,147594,24053,0.003,-0.913,0.15,1.89,-1.28,0.366,125.504
133206,147711,12925,0.002,-0.951,0.162,1.098,-0.305,0.671,125.51
133229,147850,24053,0.002,-0.951,0.162,1.098,-0.305,0.671,125.513
133229,147734,12935,-0.006,-0.958,0.168,-0.061,0.854,1.098,125.52
133257,147850,24053,-0.006,-0.958,0.168,-0.061,0.854,1.098,125.523
133257,147755,12930,-0.001,-0.954,0.189,-2.5,1.524,1.402,125.529
133249,147850,24053,-0.001,-0.954,0.189,-2.5,1.524,1.402,125.533
133249,147741,12943,-0.003,-0.977,0.221,-2.134,2.134,1.646,125.539
133251,147850,24053,-0.003,-0.977,0.221,-2.134,2.134,1.646,125.543
133251,147721,12926,-0.016,-0.979,0.222,-2.378,1.89,0.854,125.549
133195,147594,24053,-0.016,-0.979,0.222,-2.378,1.89,0.854,125.553
133195,147696,12922,-0.022,-0.986,0.217,-1.768,0.793,0.427,125.559
133152,147594,24053,-0.022,-0.986,0.217,-1.768,0.793,0.427,125.563
133152,147663,12918,-0.013,-0.959,0.189,-0.183,-0.671,0.305,125.569
133149,147594,24053,-0.013,-0.959,0.189,-0.183,-0.671,0.305,125.573
133149,147650,12925,0.009,-0.945,0.174,1.585,-2.012,-0.366,125.579
133133,147594,24053,0.009,-0.945,0.174,1.585,-2.012,-0.366,125.583
133133,147645,12909,0.011,-0.942,0.147,2.378,-1.585,0.427,125.589
133134,147594,24053,0.011,-0.942,0.147,2.378,-1.585,0.427,125.593
133134,147655,12918,0.006,-0.934,0.153,2.378,-0.671,0.976,125.599
133139,147594,24053,0.006,-0.934,0.153,2.378,-0.671,0.976,125.603
133139,147637,12915,-0.016,-0.942,0.188,1.829,0.366,1.22,125.609
133134,147594,24053,-0.016,-0.942,0.188,1.829,0.366,1.22,125.612
133134,147642,12924,-0.014,-0.951,0.202,1.829,0.366,1.22,125.619
133118,147594,24053,-0.011,-0.958,0.215,-2.012,0.732,0.732,125.622
133118,147631,12917,-0.013,-0.967,0.202,-2.012,0.732,0.732,125.628
133088,147594,24053,-0.018,-0.978,0.194,-4.939,1.159,0.549,125.632
133088,147606,12906,-0.014,-0.995,0.206,-4.939,1.159,0.549,125.638
133082,147594,24053,-0.01,-0.996,0.217,-3.293,0.61,-0.061,125.642
133082,147591,12906,-0.007,-0.98,0.217,-3.293,0.61,-0.061,125.648
133088,147594,24053,-0.015,-0.966,0.202,-2.073,0.427,-0.61,125.652
133088,147620,12924,-0.015,-0.962,0.18,-2.073,0.427,-0.61,125.658
133104,147594,24053,-0.01,-0.957,0.173,-0.976,0.122,-0.427,125.662
133104,147623,12918,-0.005,-0.948,0.182,-0.976,0.122,-0.427,125.668
133100,147594,24053,0.002,-0.946,0.181,0.366,-0.915,-0.244,125.672
133100,147652,12910,0.007,-0.936,0.155,0.366,-0.915,-0.244,125.678
133152,147594,24053,0.004,-0.937,0.147,1.28,-0.793,0.427,125.682
133152,147682,12923,0.005,-0.944,0.164,1.28,-0.793,0.427,125.688
133217,147850,24053,-0,-0.938,0.17,2.805,-0.366,1.28,125.692
133217,147717,12931,-0.007,-0.929,0.155,2.805,-0.366,1.28,125.698
133209,147850,24053,-0.008,-0.934,0.157,2.012,0.427,1.829,125.702
133209,147718,12930,-0.006,-0.951,0.194,2.012,0.427,1.829,125.708
133204,147594,24053,-0.003,-0.962,0.215,0.305,0.671,1.707,125.711
133204,147704,12932,-0.004,-0.964,0.209,0.305,0.671,1.707,125.718
133201,147594,24053,-0.008,-0.971,0.185,-3.902,1.22,1.341,125.721
133201,147707,12918,-0.014,-0.991,0.177,-3.902,1.22,1.341,125.727
133188,147594,24053,-0.015,-1.012,0.194,-3.354,1.22,0.854,125.731
133188,147709,12922,-0.009,-1.012,0.195,-3.354,1.22,0.854,125.737
133191,147850,24053,-0.01,-0.995,0.185,-1.159,0.488,0.183,125.741
133191,147723,12931,-0.008,-0.979,0.188,-1.159,0.488,0.183,125.747
133204,147594,24053,-0,-0.967,0.201,0.488,0.061,-0.366,125.751
133204,147697,12927,-0.001,-0.958,0.193,0.488,0.061,-0.366,125.757
133212,147850,24053,-0.005,-0.945,0.184,2.195,-0.061,-0.366,125.761
133212,147760,12929,-0.001,-0.934,0.178,2.195,-0.061,-0.366,125.767
133230,147850,24053,0.002,-0.928,0.174,2.439,-0.61,-0.061,125.771
133230,147759,12933,-0.002,-0.927,0.17,2.439,-0.61,-0.061,125.777
133273,147850,24053,-0.008,-0.928,0.182,2.378,-0.427,0.488,125.781
133273,147781,12939,-0.007,-0.928,0.196,2.378,-0.427,0.488,125.787
133265,147850,24053,-0.007,-0.924,0.195,1.159,0.122,0.915,125.791
133265,147777,12937,-0.01,-0.935,0.198,1.159,0.122,0.915,125.797
133241,147850,24053,-0.016,-0.949,0.221,-1.22,0.488,0.976,125.8
133241,147760,12942,-0.014,-0.953,0.211,-1.22,0.488,0.976,125.807
133245,147850,24053,-0.017,-0.955,0.181,-4.634,0.427,0.793,125.81
133245,147758,12933,-0.016,-0.976,0.173,-4.634,0.427,0.793,125.817
133226,147850,24053,-0.017,-0.998,0.18,-5.244,0.244,0.183,125.82
133226,147721,12949,-0.012,-1.007,0.176,-5.244,0.244,0.183,125.826
133213,147850,24053,-0.006,-1,0.165,-2.683,-0.061,-0.305,125.83
133213,147719,12939,-0.003,-0.989,0.168,-2.683,-0.061,-0.305,125.836
133224,147850,24053,0.003,-0.987,0.17,0.366,-0.305,-0.488,125.84
133224,147723,12943,0.005,-0.976,0.15,0.366,-0.305,-0.488,125.846
133221,147850,24053,0.003,-0.969,0.149,4.451,0.366,-0.061,125.85
133221,147756,12946,0.006,-0.965,0.177,4.451,0.366,-0.061,125.856
133258,147850,24053,0.01,-0.953,0.202,6.646,0.671,0.244,125.86
133258,147777,12963,0.005,-0.938,0.198,6.646,0.671,0.244,125.866
133273,147850,24053,-0.006,-0.931,0.206,5.061,1.463,0.488,125.87
133273,147795,12951,-0.007,-0.934,0.224,5.061,1.463,0.488,125.876
133274,147850,24053,-0.003,-0.943,0.232,1.951,1.22,0.61,125.88
133274,147796,12946,-0.011,-0.952,0.221,1.951,1.22,0.61,125.886
133264,147850,24053,-0.016,-0.953,0.193,-2.744,0.976,0.061,125.89
133264,147774,12946,-0.009,-0.951,0.184,-2.744,0.976,0.061,125.896
133263,147850,24053,0.002,-0.941,0.188,-4.39,0.427,-0.061,125.9
133263,147785,12956,0,-0.93,0.169,-4.39,0.427,-0.061,125.906
133276,147850,24053,-0.006,-0.938,0.152,-4.268,0.61,-0.183,125.909
133276,147770,12952,-0.012,-0.962,0.153,-4.268,0.61,-0.183,125.916
133263,147850,24053,-0.009,-0.979,0.159,-0.976,0.732,-0.366,125.919
133263,147789,12957,-0.005,-0.976,0.157,-0.976,0.732,-0.366,125.925
133276,147850,24053,-0.002,-0.97,0.156,1.402,0.488,0.305,125.929
133276,147805,12970,-0.002,-0.961,0.153,1.402,0.488,0.305,125.935
133342,147850,24053,-0.003,-0.952,0.169,2.927,1.524,1.098,125.939
133342,147859,12966,-0.001,-0.945,0.193,2.927,1.524,1.098,125.945
133330,147850,24053,-0.005,-0.941,0.217,3.78,2.073,0.915,125.949
133330,147855,12960,-0.011,-0.941,0.233,3.78,2.073,0.915,125.955
133344,147850,24053,-0.016,-0.947,0.238,1.159,1.829,0.732,125.959
133344,147880,12951,-0.02,-0.961,0.246,1.159,1.829,0.732,125.965
133332,147850,24053,-0.021,-0.973,0.238,-2.073,0.854,0.915,125.969
133332,147875,12971,-0.024,-0.973,0.214,-2.073,0.854,0.915,125.975
133349,147850,24053,-0.019,-0.97,0.201,-2.561,-0.183,0.61,125.979
133349,147879,12974,-0.01,-0.965,0.2,-2.561,-0.183,0.61,125.985
133351,147850,24053,-0.004,-0.944,0.176,0.061,-1.341,0.244,125.989
133351,147834,12957,0.004,-0.92,0.128,0.061,-1.341,0.244,125.995
133341,147850,24053,0.008,-0.929,0.125,1.829,-1.22,0.183,125.999
133341,147835,12959,0.008,-0.958,0.168,1.829,-1.22,0.183,126.005
133341,147850,24053,0.002,-0.957,0.181,2.805,-0.549,0.732,126.008
133341,147823,12963,-0.005,-0.95,0.165,2.805,-0.549,0.732,126.015
133328,147850,24053,-0.008,-0.95,0.161,-0.732,1.037,0.793,126.018
133328,147819,12972,-0.012,-0.953,0.174,-0.732,1.037,0.793,126.024
133337,147850,24053,-0.01,-0.96,0.187,-1.829,1.341,0.732,126.028
133337,147807,12948,-0.003,-0.976,0.205,-1.829,1.341,0.732,126.034
133316,147850,24053,-0.006,-0.982,0.209,-2.805,1.159,0.366,126.038
133316,147827,12964,-0.013,-0.993,0.198,-2.805,1.159,0.366,126.044
133326,147850,24053,-0.015,-0.999,0.195,-1.89,1.524,-0.122,126.048
133326,147831,12970,-0.009,-0.992,0.203,-1.89,1.524,-0.122,126.054
133330,147850,24053,-0.009,-0.992,0.203,-1.89,1.524,-0.122,126.058
133330,147840,12969,-0.011,-0.97,0.215,0.061,0.793,-0.366,126.064
133359,147850,24053,-0.011,-0.97,0.215,0.061,0.793,-0.366,126.068
133359,147865,12962,-0.002,-0.949,0.203,1.89,0,-0.305,126.074
133343,147850,24053,-0.002,-0.949,0.203,1.89,0,-0.305,126.078
133343,147856,12982,0.003,-0.926,0.171,2.927,-0.915,-0.671,126.084
133389,147850,24053,0.003,-0.926,0.171,2.927,-0.915,-0.671,126.088
133389,147872,12988,0.009,-0.911,0.149,1.585,-1.22,-0.488,126.094
133391,147850,24053,0.009,-0.911,0.149,1.585,-1.22,-0.488,126.098
133391,147867,12978,-0.001,-0.927,0.16,0.732,-0.671,0.61,126.104
133384,147850,24053,-0.001,-0.927,0.16,0.732,-0.671,0.61,126.107
133384,147868,12970,-0.014,-0.942,0.175,0.854,0.61,1.28,126.114
133372,147850,24053,-0.014,-0.942,0.175,0.854,0.61,1.28,126.117
133372,147860,12964,-0.013,-0.967,0.204,-0.488,1.524,0.976,126.123
133339,147850,24053,-0.013,-0.967,0.204,-0.488,1.524,0.976,126.127
133339,147872,12979,-0.014,-0.972,0.196,-2.073,1.707,1.098,126.133
133312,147850,24053,-0.014,-0.972,0.196,-2.073,1.707,1.098,126.137
133312,147792,12950,-0.015,-0.995,0.207,-3.415,1.89,0.915,126.143
133273,147850,24053,-0.015,-0.995,0.207,-3.415,1.89,0.915,126.147
133273,147783,12963,-0.01,-0.983,0.206,-0.854,1.463,0.244,126.153
133255,147850,24053,-0.01,-0.983,0.206,-0.854,1.463,0.244,126.157
133255,147764,12969,-0.008,-0.956,0.185,0,0.488,0,126.163
133292,147850,24053,-0.008,-0.956,0.185,0,0.488,0,126.167
133292,147774,12935,0.006,-0.953,0.172,1.646,-0.305,0.305,126.173
133288,147850,24053,0.006,-0.953,0.172,1.646,-0.305,0.305,126.177
133288,147786,12954,0.008,-0.945,0.176,2.439,-0.488,0.488,126.183
133284,147850,24053,0.008,-0.945,0.176,2.439,-0.488,0.488,126.187
133284,147787,12952,-0.005,-0.921,0.171,2.439,-0.244,1.037,126.193
133298,147850,24053,-0.005,-0.921,0.171,2.439,-0.244,1.037,126.197
133298,147795,12959,-0.009,-0.928,0.193,1.524,0.549,1.524,126.203
133322,147850,24053,-0.016,-0.945,0.224,1.524,0.549,1.524,126.206
133322,147780,12960,-0.018,-0.954,0.224,-1.159,0.61,1.098,126.213
133282,147850,24053,-0.021,-0.961,0.199,-1.159,0.61,1.098,126.216
133282,147767,12967,-0.024,-0.973,0.191,-5.366,0.732,0.244,126.222
133253,147850,24053,-0.02,-0.983,0.195,-5.366,0.732,0.244,126.226
133253,147747,12960,-0.016,-0.988,0.2,-4.634,0.366,0,126.232
133205,147850,24053,-0.01,-0.984,0.194,-4.634,0.366,0,126.236
133205,147718,12953,-0.011,-0.974,0.189,-2.256,-0.122,-0.183,126.242
133210,147594,24053,-0.006,-0.961,0.179,-2.256,-0.122,-0.183,126.246
133210,147709,12934,-0.001,-0.948,0.17,-0.305,-0.366,-0.671,126.252
133210,147850,24053,0.003,-0.936,0.164,-0.305,-0.366,-0.671,126.256
133210,147718,12948,0.004,-0.938,0.18,0.793,-0.488,-0.122,126.262
133265,147850,24053,0.004,-0.944,0.196,0.793,-0.488,-0.122,126.266
133265,147752,12958,-0.003,-0.938,0.185,0.427,-0.244,0.793,126.272
133295,147850,24053,-0.005,-0.929,0.161,0.427,-0.244,0.793,126.276
133295,147792,12964,-0.003,-0.938,0.154,-1.037,0.244,0.976,126.282
133332,147850,24053,-0.004,-0.964,0.183,-1.037,0.244,0.976,126.286
133332,147846,12963,-0.002,-0.979,0.207,0.244,0.183,0.915,126.292
133333,147850,24053,-0.001,-0.978,0.216,0.244,0.183,0.915,126.296
133333,147817,12969,-0.002,-0.964,0.197,-1.22,0.671,0.915,126.302
133325,147850,24053,-0.005,-0.956,0.193,-1.22,0.671,0.915,126.305
133325,147845,12957,-0.011,-0.961,0.201,-3.415,0.854,0.915,126.312
133309,147850,24053,-0.019,-0.974,0.189,-3.415,0.854,0.915,126.315
133309,147822,12971,-0.016,-0.981,0.172,-3.171,0.793,0.488,126.322
133307,147850,24053,-0.007,-0.983,0.165,-3.171,0.793,0.488,126.325
133307,147843,12980,-0,-0.975,0.154,-3.659,0.549,-0.976,126.331
133283,147850,24053,-0,-0.978,0.163,-3.659,0.549,-0.976,126.335
133283,147820,12961,0.005,-0.981,0.182,-1.524,0.732,-0.122,126.341
133283,147850,24053,0.002,-0.969,0.18,-1.524,0.732,-0.122,126.345
133283,147803,12963,-0.006,-0.955,0.157,1.28,1.037,0.61,126.351
133268,147850,24053,-0.011,-0.945,0.164,1.28,1.037,0.61,126.355
133268,147820,12959,-0.007,-0.94,0.179,4.451,0.732,0.915,126.361
133293,147850,24053,-0.005,-0.928,0.183,4.451,0.732,0.915,126.365
133293,147812,12945,-0.004,-0.922,0.189,3.841,0.488,1.037,126.371
133299,147850,24053,-0.01,-0.925,0.197,3.841,0.488,1.037,126.375
133299,147814,12970,-0.008,-0.932,0.194,0.854,1.159,0.976,126.381
133317,147850,24053,-0.007,-0.962,0.212,0.854,1.159,0.976,126.385
