126251,145802,24053,0.033,-0.978,0.031,2.317,0.854,-0.549,306.631
126251,145723,11648,0.033,-0.971,0.025,2.317,0.854,-0.549,306.637
126260,145802,24053,0.031,-0.962,0.027,1.585,0.427,-0.488,306.641
126260,145748,11642,0.034,-0.958,0.028,1.585,0.427,-0.488,306.647
126260,145802,24053,0.037,-0.953,0.022,0.244,0.061,-0.488,306.651
126260,145756,11650,0.039,-0.952,0.02,0.244,0.061,-0.488,306.657
126271,145802,24053,0.038,-0.955,0.025,-0.488,-0.244,-0.488,306.661
126271,145771,11649,0.036,-0.951,0.023,-0.488,-0.244,-0.488,306.667
126265,145802,24053,0.042,-0.948,0.016,-0.366,-0.305,0.244,306.671
126265,145760,11643,0.045,-0.959,0.009,-0.366,-0.305,0.244,306.677
126263,145802,24053,0.04,-0.971,0.021,-0.427,0.183,0.671,306.681
126263,145768,11651,0.03,-0.973,0.021,-0.427,0.183,0.671,306.687
126257,145802,24053,0.032,-0.963,0.014,-1.585,0.366,0.732,306.691
126257,145769,11640,0.038,-0.959,0.011,-1.585,0.366,0.732,306.697
126277,145802,24053,0.043,-0.971,0.017,-2.256,0.183,0.854,306.701
126277,145764,11653,0.038,-0.987,0.028,-2.256,0.183,0.854,306.707
126284,145802,24053,0.034,-0.989,0.028,-0.671,0.671,0.793,306.711
126284,145747,11660,0.033,-0.993,0.019,-0.671,0.671,0.793,306.717
126282,145802,24053,0.031,-0.99,0.013,-1.463,0.671,0.122,306.72
126282,145749,11652,0.036,-0.982,0.009,-1.463,0.671,0.122,306.727
126279,145802,24053,0.037,-0.971,0.009,-1.646,-0.061,-0.183,306.73
126279,145748,11648,0.044,-0.971,0.01,-1.646,-0.061,-0.183,306.736
126257,145802,24053,0.047,-0.975,0.017,0.244,-0.366,-0.122,306.74
126257,145762,11655,0.041,-0.972,0.024,0.244,-0.366,-0.122,306.746
126262,145802,24053,0.035,-0.963,0.023,1.524,-0.061,0.244,306.75
126262,145759,11637,0.032,-0.957,0.017,1.524,-0.061,0.244,306.756
126271,145802,24053,0.037,-0.953,0.02,0.549,-0.244,0.366,306.76
126271,145773,11659,0.043,-0.949,0.021,0.549,-0.244,0.366,306.766
126279,145802,24053,0.043,-0.953,0.008,-1.341,-0.488,0.366,306.77
126279,145763,11659,0.042,-0.966,0.006,-1.341,-0.488,0.366,306.776
126280,145802,24053,0.035,-0.984,0.002,-1.341,0.549,0.549,306.78
126280,145753,11654,0.028,-0.993,0.009,-1.341,0.549,0.549,306.786
126279,145802,24053,0.029,-0.985,0.014,0.061,1.159,0.427,306.79
126279,145756,11660,0.031,-0.971,0.012,0.061,1.159,0.427,306.796
126271,145802,24053,0.037,-0.958,0.017,-0.793,0.549,0.305,306.8
126271,145730,11653,0.04,-0.958,0.018,-0.793,0.549,0.305,306.806
126275,145802,24053,0.039,-0.971,0.02,-0.427,0.854,-0.061,306.81
126275,145776,11657,0.033,-0.981,0.028,-0.427,0.854,-0.061,306.816
126289,145802,24053,0.032,-0.978,0.028,-0.671,0.854,-0.244,306.819
126289,145733,11663,0.032,-0.967,0.022,-0.671,0.854,-0.244,306.826
126284,145802,24053,0.037,-0.959,0.015,-1.341,0,-0.061,306.829
126284,145741,11656,0.041,-0.958,0.025,-1.341,0,-0.061,306.835
126297,145802,24053,0.039,-0.956,0.03,0.061,-0.244,0.183,306.839
126297,145777,11648,0.039,-0.951,0.031,0.061,-0.244,0.183,306.845
126298,145802,24053,0.039,-0.95,0.027,0.183,-0.183,0.366,306.849
126298,145762,11655,0.039,-0.952,0.017,0.183,-0.183,0.366,306.855
126313,145802,24053,0.041,-0.959,0.014,-1.28,-0.366,0.915,306.859
126313,145768,11648,0.041,-0.969,0.01,-1.28,-0.366,0.915,306.865
126312,145802,24053,0.036,-0.977,0.004,-1.402,0,1.037,306.869
126312,145761,11664,0.036,-0.988,0.002,-1.402,0,1.037,306.875
126318,145802,24053,0.036,-0.996,0.008,-0.732,0.305,1.037,306.879
126318,145793,11647,0.034,-0.996,0.012,-0.732,0.305,1.037,306.885
126321,145802,24053,0.032,-0.988,0.007,0,0.549,0.488,306.889
126321,145775,11670,0.035,-0.98,0.002,0,0.549,0.488,306.895
126326,145802,24053,0.04,-0.981,0.008,0.061,0.671,-0.427,306.899
126326,145773,11665,0.039,-0.984,0.012,0.061,0.671,-0.427,306.905
126332,145802,24053,0.035,-0.978,0.015,-0.061,0.488,-0.732,306.909
126332,145790,11664,0.036,-0.974,0.009,-0.061,0.488,-0.732,306.915
126327,145802,24053,0.038,-0.973,0.013,0.488,0.427,-0.854,306.918
126327,145784,11660,0.037,-0.964,0.019,0.488,0.427,-0.854,306.925
126355,145802,24053,0.037,-0.959,0.021,1.22,0.427,-0.976,306.928
126355,145789,11657,0.037,-0.955,0.021,1.22,0.427,-0.976,306.934
126329,145802,24053,0.037,-0.955,0.028,1.524,0.305,-0.549,306.938
126329,145796,11669,0.038,-0.954,0.037,1.524,0.305,-0.549,306.944
126334,145802,24053,0.032,-0.956,0.034,0.854,0.122,0,306.948
126334,145786,11659,0.031,-0.948,0.031,0.854,0.122,0,306.954
126351,145802,24053,0.031,-0.948,0.031,0.854,0.122,0,306.958
126351,145784,11670,0.042,-0.946,0.019,-0.732,-0.183,0.305,306.964
126338,145802,24053,0.042,-0.946,0.019,-0.732,-0.183,0.305,306.968
126338,145775,11678,0.043,-0.979,0.007,-1.646,-0.183,0.793,306.974
126359,145802,24053,0.043,-0.979,0.007,-1.646,-0.183,0.793,306.978
126359,145786,11654,0.035,-0.979,-0.001,-1.22,0.549,0.793,306.984
126334,145802,24053,0.035,-0.979,-0.001,-1.22,0.549,0.793,306.988
126334,145787,11661,0.037,-0.982,0.007,-0.793,0.305,0.732,306.994
126338,145802,24053,0.037,-0.982,0.007,-0.793,0.305,0.732,306.998
126338,145775,11662,0.042,-0.983,-0.002,0.671,0.305,0.854,307.004
126353,145802,24053,0.042,-0.983,-0.002,0.671,0.305,0.854,307.007
126353,145788,11669,0.037,-0.999,0.022,2.012,0.61,0.183,307.014
126334,145802,24053,0.037,-0.999,0.022,2.012,0.61,0.183,307.017
126334,145795,11664,0.035,-0.967,0.016,2.439,0.366,0,307.024
126325,145802,24053,0.035,-0.967,0.016,2.439,0.366,0,307.027
126325,145790,11672,0.04,-0.964,0.04,1.951,0.122,-0.061,307.033
126343,145802,24053,0.04,-0.964,0.04,1.951,0.122,-0.061,307.037
126343,145788,11655,0.041,-0.953,0.023,1.524,0.122,-0.671,307.043
126329,145802,24053,0.041,-0.953,0.023,1.524,0.122,-0.671,307.047
126329,145790,11667,0.042,-0.947,0.021,-0.915,-0.244,-0.549,307.053
126354,145802,24053,0.042,-0.947,0.021,-0.915,-0.244,-0.549,307.057
126354,145790,11665,0.04,-0.955,0.018,-1.159,-0.488,0.183,307.063
126346,145802,24053,0.04,-0.955,0.018,-1.159,-0.488,0.183,307.067
126346,145803,11666,0.043,-0.95,0.004,-0.671,0,0.488,307.073
126349,145802,24053,0.043,-0.95,0.004,-0.671,0,0.488,307.077
126349,145785,11678,0.038,-0.969,0.019,-1.037,0.488,0.854,307.083
126370,145802,24053,0.038,-0.969,0.019,-1.037,0.488,0.854,307.087
126370,145778,11660,0.029,-0.987,0.018,0.061,1.037,1.22,307.093
126348,145802,24053,0.029,-0.987,0.018,0.061,1.037,1.22,307.097
126348,145809,11675,0.031,-0.986,0.012,-0.122,1.22,0.915,307.103
126361,145802,24053,0.033,-0.987,0.008,-0.122,1.22,0.915,307.106
126361,145811,11664,0.031,-0.991,0.014,-0.305,1.159,0.427,307.113
126358,145802,24053,0.031,-0.988,0.027,-0.305,1.159,0.427,307.116
126358,145798,11664,0.032,-0.977,0.032,1.341,1.037,0.061,307.123
126332,145802,24053,0.033,-0.973,0.024,1.341,1.037,0.061,307.126
126332,145800,11671,0.035,-0.971,0.026,1.341,0.305,-0.366,307.132
126374,145802,24053,0.039,-0.97,0.026,1.341,0.305,-0.366,307.136
126374,145792,11667,0.041,-0.959,0.018,0,-0.061,-0.488,307.142
126330,145802,24053,0.039,-0.956,0.007,0,-0.061,-0.488,307.146
126330,145806,11675,0.045,-0.956,0.007,-1.463,-0.427,-0.732,307.152
126350,145802,24053,0.043,-0.962,0.017,-1.463,-0.427,-0.732,307.156
126350,145778,11674,0.042,-0.964,0.015,0,-0.488,-0.122,307.162
126319,145802,24053,0.041,-0.961,0.01,0,-0.488,-0.122,307.166
126319,145797,11673,0.041,-0.957,0.008,0.427,-0.244,0.244,307.172
126350,145802,24053,0.041,-0.959,0.012,0.427,-0.244,0.244,307.176
126350,145789,11667,0.043,-0.962,0.014,0.061,-0.244,0.427,307.182
126343,145802,24053,0.041,-0.969,0.018,0.061,-0.244,0.427,307.186
126343,145813,11668,0.037,-0.979,0.027,0.183,0.244,0.61,307.192
126360,145802,24053,0.032,-0.983,0.035,0.183,0.244,0.61,307.196
126360,145798,11679,0.031,-0.979,0.03,-0.915,0.488,0.427,307.202
126370,145802,24053,0.033,-0.971,0.023,-0.915,0.488,0.427,307.205
126370,145795,11661,0.033,-0.966,0.022,-2.5,0.122,0.305,307.212
126358,145802,24053,0.039,-0.972,0.017,-2.5,0.122,0.305,307.215
126358,145790,11657,0.039,-0.978,0.018,-2.195,-0.183,0.061,307.222
126356,145802,24053,0.039,-0.972,0.018,-2.195,-0.183,0.061,307.225
126356,145796,11666,0.039,-0.96,0.012,-1.402,-0.183,-0.122,307.231
126370,145802,24053,0.043,-0.958,0.007,-1.402,-0.183,-0.122,307.235
126370,145786,11673,0.041,-0.974,0.009,-0.427,-0.671,0.305,307.241
126370,145802,24053,0.041,-0.975,0.005,-0.427,-0.671,0.305,307.245
126370,145806,11674,0.04,-0.963,-0.006,-0.244,-0.549,0.671,307.251
126352,145802,24053,0.044,-0.958,-0.013,-0.244,-0.549,0.671,307.255
126352,145798,11654,0.047,-0.97,-0.002,0.732,0,0.488,307.261
126336,145802,24053,0.043,-0.979,0.009,0.732,0,0.488,307.265
126336,145810,11682,0.04,-0.978,0.012,2.378,0.549,0.793,307.271
126334,145802,24053,0.04,-0.973,0.012,2.378,0.549,0.793,307.275
126334,145790,11682,0.037,-0.973,0.018,1.951,1.037,0.915,307.281
126360,145802,24053,0.039,-0.967,0.017,1.951,1.037,0.915,307.285
126360,145794,11659,0.043,-0.964,0.008,0.854,1.22,0.732,307.291
126327,145802,24053,0.044,-0.977,0.017,0.854,1.22,0.732,307.295
126327,145789,11686,0.038,-0.986,0.029,0.671,1.159,0.549,307.301
126337,145802,24053,0.034,-0.978,0.032,0.671,1.159,0.549,307.304
126337,145776,11665,0.038,-0.965,0.026,0,1.037,0.427,307.311
126312,145802,24053,0.036,-0.957,0.014,0,1.037,0.427,307.314
126312,145787,11681,0.042,-0.959,0.012,-1.098,0.793,0.244,307.321
126294,145802,24053,0.045,-0.966,0.02,-1.098,0.793,0.244,307.324
126294,145758,11671,0.041,-0.968,0.024,-0.305,0.793,0.183,307.33
126301,145802,24053,0.038,-0.968,0.019,-0.305,0.793,0.183,307.334
126301,145766,11667,0.034,-0.966,0.019,0,0.854,0.549,307.34
126295,145802,24053,0.034,-0.963,0.02,0,0.854,0.549,307.344
126295,145772,11695,0.035,-0.961,0.019,0.305,0.732,0.793,307.35
126301,145802,24053,0.038,-0.963,0.024,0.305,0.732,0.793,307.354
126301,145785,11665,0.037,-0.967,0.029,0.061,0.671,0.793,307.36
126279,145802,24053,0.034,-0.967,0.033,0.061,0.671,0.793,307.364
126279,145760,11691,0.033,-0.976,0.025,-0.854,0.61,0.793,307.37
126310,145802,24053,0.033,-0.986,0.019,-0.854,0.61,0.793,307.374
126310,145770,11664,0.03,-0.986,0.019,-1.037,0.366,0.793,307.38
126292,145802,24053,0.03,-0.981,0.016,-1.037,0.366,0.793,307.384
126292,145772,11672,0.034,-0.979,0.016,-0.61,-0.061,0.549,307.39
126288,145802,24053,0.039,-0.975,0.013,-0.61,-0.061,0.549,307.394
126288,145741,11682,0.039,-0.97,0.013,-0.061,-0.183,0.122,307.4
126291,145802,24053,0.038,-0.97,0.014,-0.061,-0.183,0.122,307.403
126291,145737,11669,0.037,-0.968,0.012,0.427,-0.183,-0.061,307.41
126238,145802,24053,0.04,-0.965,0.004,0.427,-0.183,-0.061,307.413
126238,145724,11681,0.042,-0.962,-0.005,0.183,-0.122,-0.061,307.42
126259,145802,24053,0.04,-0.96,-0.003,0.183,-0.122,-0.061,307.423
126259,145693,11670,0.04,-0.964,0.007,0.793,0.427,-0.122,307.429
126241,145802,24053,0.037,-0.972,0.019,0.793,0.427,-0.122,307.433
126241,145730,11668,0.035,-0.967,0.033,1.951,0.854,0.244,307.439
126255,145802,24053,0.034,-0.955,0.039,1.951,0.854,0.244,307.443
126255,145703,11669,0.035,-0.954,0.033,0.793,0.915,0.488,307.449
126273,145802,24053,0.037,-0.958,0.029,0.793,0.915,0.488,307.453
126273,145715,11666,0.038,-0.97,0.03,-1.098,0.488,0.305,307.459
126255,145802,24053,0.034,-0.984,0.034,-1.098,0.488,0.305,307.463
126255,145731,11654,0.031,-0.989,0.032,-1.28,0.122,0.366,307.469
126252,145802,24053,0.03,-0.983,0.021,-1.28,0.122,0.366,307.473
126252,145714,11669,0.039,-0.97,0.009,-1.341,-0.61,0.183,307.479
126267,145802,24053,0.043,-0.965,0.002,-1.341,-0.61,0.183,307.483
126267,145733,11674,0.046,-0.961,0.003,-0.488,-0.732,0.061,307.489
126275,145802,24053,0.045,-0.965,-0,-0.488,-0.732,0.061,307.493
126275,145739,11676,0.044,-0.97,0.005,0.183,0.122,-0.122,307.499
126265,145802,24053,0.038,-0.973,0.007,0.183,0.122,-0.122,307.502
126265,145741,11675,0.034,-0.973,0.005,0.366,0.488,0.122,307.509
126277,145802,24053,0.037,-0.975,0.001,0.366,0.488,0.122,307.512
126277,145735,11660,0.04,-0.971,0.003,0.122,0.488,0.366,307.519
126266,145802,24053,0.042,-0.969,0.006,0.122,0.488,0.366,307.522
126266,145726,11662,0.039,-0.979,0.015,0.732,0.976,0.122,307.528
126262,145802,24053,0.036,-0.984,0.022,0.732,0.976,0.122,307.532
126262,145712,11660,0.036,-0.979,0.026,1.524,1.28,0.122,307.538
126272,145802,24053,0.036,-0.979,0.026,1.524,1.28,0.122,307.542
126272,145731,11660,0.035,-0.968,0.036,0.732,1.098,0.122,307.548
126252,145802,24053,0.035,-0.968,0.036,0.732,1.098,0.122,307.552
126252,145740,11663,0.041,-0.962,0.029,-0.549,0.488,-0.305,307.558
126284,145802,24053,0.041,-0.962,0.029,-0.549,0.488,-0.305,307.562
126284,145758,11675,0.038,-0.966,0.035,-0.61,0.183,-0.244,307.568
126291,145802,24053,0.038,-0.966,0.035,-0.61,0.183,-0.244,307.572
126291,145775,11671,0.035,-0.957,0.023,-1.402,-0.366,-0.122,307.578
126313,145802,24053,0.035,-0.957,0.023,-1.402,-0.366,-0.122,307.582
126313,145760,11681,0.041,-0.961,0.008,-1.951,-0.732,0.122,307.588
126334,145802,24053,0.041,-0.961,0.008,-1.951,-0.732,0.122,307.592
126334,145790,11675,0.043,-0.964,-0.007,-0.671,-0.244,0.366,307.598
126336,145802,24053,0.043,-0.964,-0.007,-0.671,-0.244,0.366,307.601
126336,145801,11678,0.039,-0.973,0.006,0.61,0.488,0.61,307.608
126366,145802,24053,0.039,-0.973,0.006,0.61,0.488,0.61,307.611
126366,145780,11690,0.036,-0.971,0.012,1.524,0.793,0.854,307.618
126363,145802,24053,0.036,-0.971,0.012,1.524,0.793,0.854,307.621
126363,145803,11689,0.038,-0.965,0.022,0.915,0.915,0.915,307.627
126389,145802,24053,0.038,-0.965,0.022,0.915,0.915,0.915,307.631
126389,145811,11654,0.034,-0.977,0.036,0.732,1.098,0.671,307.637
126342,145802,24053,0.034,-0.977,0.036,0.732,1.098,0.671,307.641
126342,145793,11688,0.032,-0.976,0.029,-0.976,0.732,0.488,307.647
126352,145802,24053,0.032,-0.976,0.029,-0.976,0.732,0.488,307.651
126352,145780,11683,0.036,-0.97,0.018,-1.585,0.061,0.305,307.657
126336,145802,24053,0.036,-0.97,0.018,-1.585,0.061,0.305,307.661
126336,145778,11701,0.047,-0.969,0.02,-0.915,0.061,0.061,307.667
126325,145802,24053,0.047,-0.969,0.02,-0.915,0.061,0.061,307.671
126325,145760,11685,0.044,-0.961,0.015,-1.037,0.244,0.122,307.677
126363,145802,24053,0.044,-0.961,0.015,-1.037,0.244,0.122,307.681
126363,145780,11676,0.042,-0.966,0.001,-1.037,0.244,0.122,307.687
126343,145802,24053,0.04,-0.97,0.002,-1.707,0.488,0.366,307.691
126343,145769,11686,0.04,-0.974,0.003,-1.707,0.488,0.366,307.697
126370,145802,24053,0.04,-0.974,0.005,-0.793,0.61,0.305,307.7
126370,145788,11679,0.039,-0.974,0.009,-0.793,0.61,0.305,307.707
126364,145802,24053,0.041,-0.973,0.014,1.341,0.854,0.488,307.71
126364,145800,11671,0.039,-0.971,0.022,1.341,0.854,0.488,307.716
126358,145802,24053,0.039,-0.962,0.026,2.927,0.976,0.671,307.72
126358,145786,11688,0.038,-0.95,0.028,2.927,0.976,0.671,307.726
126371,145802,24053,0.042,-0.953,0.028,1.402,0.976,0.854,307.73
126371,145786,11683,0.035,-0.963,0.033,1.402,0.976,0.854,307.736
126348,145802,24053,0.033,-0.976,0.035,-0.366,0.61,0.732,307.74
126348,145772,11693,0.029,-0.979,0.029,-0.366,0.61,0.732,307.746
126338,145802,24053,0.031,-0.98,0.025,-1.463,0.061,0.671,307.75
126338,145767,11666,0.03,-0.971,0.023,-1.463,0.061,0.671,307.756
126308,145802,24053,0.036,-0.965,0.015,-1.159,-0.305,0.61,307.76
126308,145778,11684,0.04,-0.966,0.006,-1.159,-0.305,0.61,307.766
126331,145802,24053,0.044,-0.974,0.003,-0.793,0,0.244,307.77
126331,145761,11672,0.04,-0.972,0.006,-0.793,0,0.244,307.776
126312,145802,24053,0.04,-0.966,0.006,-0.793,0.366,0,307.78
126312,145764,11672,0.04,-0.962,0.009,-0.793,0.366,0,307.786
126320,145802,24053,0.042,-0.968,0.01,-0.732,0.427,0.305,307.79
126320,145758,11680,0.042,-0.979,0.011,-0.732,0.427,0.305,307.796
126340,145802,24053,0.038,-0.984,0.012,0.854,0.976,0.305,307.799
126340,145777,11678,0.038,-0.978,0.019,0.854,0.976,0.305,307.806
126340,145802,24053,0.035,-0.965,0.018,0.915,1.037,0.061,307.809
126340,145784,11693,0.037,-0.96,0.021,0.915,1.037,0.061,307.816
126347,145802,24053,0.041,-0.961,0.032,0.305,0.671,0.366,307.819
126347,145766,11685,0.04,-0.965,0.039,0.305,0.671,0.366,307.825
126370,145802,24053,0.036,-0.968,0.033,0.61,0.549,0.305,307.829
126370,145775,11680,0.032,-0.967,0.029,0.61,0.549,0.305,307.835
126359,145802,24053,0.032,-0.963,0.033,-0.976,0.305,0.305,307.839
126359,145796,11683,0.035,-0.962,0.036,-0.976,0.305,0.305,307.845
126362,145802,24053,0.037,-0.96,0.027,-1.28,-0.427,0.488,307.849
126362,145795,11670,0.042,-0.949,0.015,-1.28,-0.427,0.488,307.855
126339,145802,24053,0.044,-0.951,0.009,-1.951,-0.305,0.732,307.859
126339,145784,11670,0.039,-0.972,0.009,-1.951,-0.305,0.732,307.865
126343,145802,24053,0.034,-0.989,0.008,-1.22,0.488,0.793,307.869
126343,145745,11688,0.029,-0.992,-0,-1.22,0.488,0.793,307.875
126360,145802,24053,0.032,-0.983,-0.001,-1.159,0.488,0.61,307.879
126360,145771,11681,0.034,-0.978,0.007,-1.159,0.488,0.61,307.885
126345,145802,24053,0.035,-0.978,0.012,-0.61,0.427,0.427,307.889
126345,145800,11684,0.037,-0.981,0.012,-0.61,0.427,0.427,307.895
126344,145802,24053,0.041,-0.98,0.016,0.671,0.61,0,307.898
126344,145810,11682,0.038,-0.976,0.018,0.671,0.61,0,307.905
126331,145802,24053,0.036,-0.972,0.02,0,0.427,-0.244,307.908
126331,145786,11674,0.04,-0.968,0.017,0,0.427,-0.244,307.915
126349,145802,24053,0.038,-0.965,0.023,-0.305,-0.122,-0.305,307.918
126349,145783,11691,0.038,-0.962,0.031,-0.305,-0.122,-0.305,307.924
126354,145802,24053,0.038,-0.959,0.03,0.061,-0.122,-0.244,307.928
126354,145797,11676,0.04,-0.959,0.023,0.061,-0.122,-0.244,307.934
126357,145802,24053,0.04,-0.958,0.018,-0.549,-0.366,-0.305,307.938
126357,145797,11699,0.042,-0.961,0.016,-0.549,-0.366,-0.305,307.944
126380,145802,24053,0.045,-0.958,0.016,-0.671,-0.732,0.061,307.948
126380,145823,11696,0.044,-0.948,0.002,-0.671,-0.732,0.061,307.954
126365,145802,24053,0.046,-0.949,-0.002,-0.488,-0.244,0.61,307.958
126365,145809,11694,0.045,-0.969,0.009,-0.488,-0.244,0.61,307.964
126370,145802,24053,0.038,-0.98,0.014,0.671,0.427,0.793,307.968
126370,145822,11713,0.034,-0.979,0.003,0.671,0.427,0.793,307.974
126384,145802,24053,0.037,-0.97,0.002,0.061,0.671,0.976,307.978
126384,145835,11688,0.042,-0.972,0.007,0.061,0.671,0.976,307.984
126373,145802,24053,0.041,-0.987,0.015,-0.244,0.915,0.732,307.988
126373,145801,11698,0.037,-0.997,0.026,-0.244,0.915,0.732,307.994
126369,145802,24053,0.032,-0.993,0.02,0.61,1.28,0.122,307.997
126369,145816,11689,0.034,-0.982,0.016,0.61,1.28,0.122,308.004
126389,145802,24053,0.037,-0.971,0.021,-0.305,0.793,-0.244,308.007
126389,145817,11715,0.041,-0.967,0.021,-0.305,0.793,-0.244,308.013
126375,145802,24053,0.043,-0.967,0.019,0.366,0.366,-0.427,308.017
126375,145847,11697,0.044,-0.969,0.025,0.366,0.366,-0.427,308.023
126389,145802,24053,0.04,-0.964,0.025,0.671,0.488,-0.366,308.027
126389,145832,11711,0.039,-0.952,0.02,0.671,0.488,-0.366,308.033
126404,145802,24053,0.045,-0.942,0.017,-0.122,-0.122,0.122,308.037
126404,145846,11718,0.046,-0.944,0.015,-0.122,-0.122,0.122,308.043
126402,145802,24053,0.047,-0.955,0.016,-0.244,-0.122,0.61,308.047
126402,145836,11703,0.044,-0.963,0.02,-0.244,-0.122,0.61,308.053
126420,145802,24053,0.039,-0.966,0.02,0,0.427,0.793,308.057
126420,145853,11715,0.035,-0.964,0.014,0,0.427,0.793,308.063
126402,145802,24053,0.038,-0.961,0.01,-0.915,0.366,1.22,308.067
126402,145867,11718,0.039,-0.972,0.015,-0.915,0.366,1.22,308.073
126424,145802,24053,0.036,-0.984,0.022,0.061,0.488,1.28,308.077
126424,145856,11707,0.032,-0.989,0.025,0.061,0.488,1.28,308.083
126428,145802,24053,0.03,-0.986,0.026,0.061,0.732,0.854,308.087
126428,145851,11697,0.032,-0.979,0.017,0.061,0.732,0.854,308.093
126401,145802,24053,0.035,-0.973,0.013,-0.854,0.488,0.488,308.096
126401,145857,11711,0.036,-0.97,0.017,-0.854,0.488,0.488,308.103
126402,145802,24053,0.04,-0.97,0.01,-0.122,0.122,0.244,308.106
126402,145825,11698,0.04,-0.973,0.008,-0.122,0.122,0.244,308.113
126400,145802,24053,0.039,-0.977,0.016,0.732,0.61,0.183,308.116
126400,145827,11709,0.033,-0.968,0.021,0.732,0.61,0.183,308.122
126377,145802,24053,0.033,-0.968,0.021,0.732,0.61,0.183,308.126
126377,145816,11717,0.039,-0.959,0.017,0.061,0.488,0,308.132
126382,145802,24053,0.039,-0.959,0.017,0.061,0.488,0,308.136
126382,145813,11712,0.042,-0.96,0.023,-0.061,0,0.305,308.142
126368,145802,24053,0.042,-0.96,0.023,-0.061,0,0.305,308.146
126368,145801,11697,0.036,-0.967,0.023,0.488,0.122,0.488,308.152
126356,145802,24053,0.036,-0.967,0.023,0.488,0.122,0.488,308.156
126356,145815,11730,0.034,-0.974,0.015,-0.488,0.427,0.549,308.162
126356,145802,24053,0.034,-0.974,0.015,-0.488,0.427,0.549,308.166
126356,145811,11699,0.036,-0.979,0.02,-1.159,0.183,0.366,308.172
126359,145802,24053,0.036,-0.979,0.02,-1.159,0.183,0.366,308.176
126359,145788,11719,0.034,-0.969,0.023,-0.793,-0.061,0.122,308.182
126380,145802,24053,0.034,-0.969,0.023,-0.793,-0.061,0.122,308.186
126380,145814,11700,0.038,-0.969,0.025,-0.366,-0.061,-0.061,308.192
126394,145802,24053,0.038,-0.969,0.025,-0.366,-0.061,-0.061,308.195
126394,145823,11707,0.036,-0.958,0.031,-0.305,-0.305,-0.305,308.202
126372,145802,24053,0.036,-0.958,0.031,-0.305,-0.305,-0.305,308.205
126372,145822,11711,0.038,-0.958,0.016,-1.159,-0.549,-0.305,308.211
126387,145802,24053,0.038,-0.958,0.016,-1.159,-0.549,-0.305,308.215
126387,145815,11719,0.042,-0.961,0.016,-1.22,-0.549,-0.061,308.221
126387,145802,24053,0.042,-0.961,0.016,-1.22,-0.549,-0.061,308.225
126387,145824,11721,0.044,-0.951,0.008,-1.098,-0.671,0.183,308.231
126390,145802,24053,0.044,-0.951,0.008,-1.098,-0.671,0.183,308.235
126390,145853,11718,0.047,-0.977,-0.012,-2.012,-0.244,0.61,308.241
126385,145802,24053,0.047,-0.977,-0.012,-2.012,-0.244,0.61,308.245
126385,145815,11712,0.032,-1.001,0.011,-0.549,0.549,0.915,308.251
126382,145802,24053,0.032,-1.001,0.011,-0.549,0.549,0.915,308.255
126382,145832,11710,0.04,-0.973,-0.005,0.915,0.732,0.854,308.261
126384,145802,24053,0.04,-0.973,-0.005,0.915,0.732,0.854,308.265
126384,145827,11703,0.049,-0.975,-0.003,0.976,0.915,0.488,308.271
126378,145802,24053,0.048,-0.986,0.008,0.976,0.915,0.488,308.275
126378,145811,11712,0.043,-0.991,0.015,2.317,1.159,0.061,308.281
126383,145802,24053,0.038,-0.983,0.015,2.317,1.159,0.061,308.284
126383,145827,11699,0.033,-0.974,0.014,2.134,1.463,-0.183,308.291
126384,145802,24053,0.035,-0.965,0.017,2.134,1.463,-0.183,308.294
126384,145824,11699,0.039,-0.965,0.028,1.707,1.22,-0.61,308.301
126422,145802,24053,0.039,-0.96,0.037,1.707,1.22,-0.61,308.304
126422,145838,11691,0.04,-0.956,0.039,0.976,0.732,-0.488,308.31
126409,145802,24053,0.037,-0.951,0.036,0.976,0.732,-0.488,308.314
126409,145841,11701,0.036,-0.949,0.021,-0.122,0.488,-0.244,308.32
126402,145802,24053,0.041,-0.948,0.016,-0.122,0.488,-0.244,308.324
126402,145827,11718,0.043,-0.951,0.016,-0.915,0.244,0.244,308.33
126423,145802,24053,0.04,-0.952,0.017,-0.915,0.244,0.244,308.334
126423,145820,11705,0.04,-0.959,0.017,0,0.305,0.915,308.34
126409,145802,24053,0.036,-0.963,0.022,0,0.305,0.915,308.344
126409,145824,11727,0.034,-0.964,0.023,0.915,0.61,1.402,308.35
126399,145802,24053,0.036,-0.966,0.019,0.915,0.61,1.402,308.354
126399,145819,11707,0.037,-0.97,0.016,0.366,0.488,1.463,308.36
126409,145802,24053,0.034,-0.971,0.02,0.366,0.488,1.463,308.364
126409,145845,11715,0.035,-0.98,0.024,0.61,0.244,1.402,308.37
126381,145802,24053,0.037,-0.981,0.022,0.61,0.244,1.402,308.374
126381,145843,11719,0.037,-0.979,0.024,0.488,0.305,1.159,308.38
126391,145802,24053,0.036,-0.976,0.028,0.488,0.305,1.159,308.384
126391,145833,11720,0.035,-0.972,0.032,-0.549,0.244,0.671,308.39
126385,145802,24053,0.038,-0.967,0.022,-0.549,0.244,0.671,308.393
126385,145850,11715,0.042,-0.969,0.015,-2.256,-0.183,0.305,308.4
126370,145802,24053,0.041,-0.973,0.012,-2.256,-0.183,0.305,308.403
126370,145810,11713,0.039,-0.977,0.01,-2.012,-0.061,0.244,308.409
126385,145802,24053,0.044,-0.973,0.001,-2.012,-0.061,0.244,308.413
126385,145803,11705,0.046,-0.97,-0.004,-1.524,0.183,0,308.419
126354,145802,24053,0.043,-0.972,0.007,-1.524,0.183,0,308.423
126354,145800,11719,0.038,-0.976,0.009,-0.793,0.549,0.061,308.429
126359,145802,24053,0.04,-0.972,0.01,-0.793,0.549,0.061,308.433
126359,145791,11710,0.042,-0.97,0.011,-0.122,0.732,0.122,308.439
126362,145802,24053,0.042,-0.971,0.017,-0.122,0.732,0.122,308.443
126362,145792,11713,0.037,-0.973,0.028,0.427,0.671,0.305,308.449
126350,145802,24053,0.037,-0.967,0.033,0.427,0.671,0.305,308.453
126350,145814,11707,0.039,-0.959,0.028,0.549,0.488,0.488,308.459
126357,145802,24053,0.039,-0.955,0.026,0.549,0.488,0.488,308.463
126357,145831,11713,0.038,-0.963,0.03,-0.61,0.366,0.488,308.469
126370,145802,24053,0.037,-0.975,0.029,-0.61,0.366,0.488,308.473
126370,145792,11724,0.036,-0.981,0.021,-0.366,-0.061,0.854,308.479
126381,145802,24053,0.036,-0.978,0.01,-0.366,-0.061,0.854,308.483
126381,145810,11718,0.038,-0.965,-0.004,-0.793,0.305,0.549,308.489
126387,145802,24053,0.043,-0.963,-0.009,-0.793,0.305,0.549,308.492
126387,145822,11709,0.044,-0.977,0.002,0.183,0.61,0.183,308.499
126375,145802,24053,0.043,-0.986,0.012,0.183,0.61,0.183,308.502
126375,145817,11704,0.038,-0.983,0.012,1.829,0.915,0.427,308.508
126412,145802,24053,0.033,-0.977,0.015,1.829,0.915,0.427,308.512
126412,145814,11703,0.036,-0.975,0.019,1.28,0.976,0.305,308.518
126389,145802,24053,0.036,-0.973,0.013,1.28,0.976,0.305,308.522
126389,145834,11704,0.037,-0.971,0.019,0.915,0.61,0,308.528
126397,145802,24053,0.039,-0.97,0.027,0.915,0.61,0,308.532
126397,145828,11714,0.038,-0.967,0.031,0.976,0.488,-0.183,308.538
126397,145802,24053,0.036,-0.965,0.033,0.976,0.488,-0.183,308.542
126397,145825,11726,0.033,-0.964,0.033,0,0.427,-0.305,308.548
126398,145802,24053,0.032,-0.962,0.034,0,0.427,-0.305,308.552
126398,145864,11731,0.036,-0.962,0.03,-0.366,-0.183,-0.244,308.558
126426,145802,24053,0.038,-0.959,0.036,-0.366,-0.183,-0.244,308.562
126426,145865,11727,0.038,-0.953,0.035,-0.488,-0.915,0.061,308.568
126448,145802,24053,0.046,-0.942,0.023,-0.488,-0.915,0.061,308.572
126448,145879,11721,0.046,-0.948,0.017,-1.768,-0.732,0.244,308.578
126440,145802,24053,0.043,-0.962,0.015,-1.768,-0.732,0.244,308.581
126440,145863,11728,0.041,-0.973,0.009,-1.707,-0.427,0.488,308.588
126456,145802,24053,0.04,-0.976,0.003,-1.707,-0.427,0.488,308.591
126456,145877,11749,0.039,-0.983,0.001,-1.037,0,0.793,308.598
126455,145802,24053,0.038,-0.984,0.004,-1.037,0,0.793,308.601
126455,145861,11731,0.039,-0.987,0.007,-0.122,0.671,0.671,308.607
126455,145802,24053,0.039,-0.98,0.012,-0.122,0.671,0.671,308.611
126455,145866,11729,0.04,-0.973,0.021,0,0.732,0.244,308.617
126466,145802,24053,0.04,-0.975,0.023,0,0.732,0.244,308.621
126466,145856,11739,0.039,-0.978,0.025,0.122,0.671,0.366,308.627
126437,145802,24053,0.032,-0.975,0.031,0.122,0.671,0.366,308.631
126437,145852,11740,0.033,-0.971,0.025,-0.427,0.61,0,308.637
126426,145802,24053,0.03,-0.971,0.016,-0.427,0.61,0,308.641
126426,145850,11739,0.033,-0.973,0.013,-1.524,0.305,-0.366,308.647
126422,145802,24053,0.037,-0.97,0.021,-1.524,0.305,-0.366,308.651
126422,145852,11715,0.036,-0.964,0.018,-0.854,-0.366,-0.305,308.657
126401,145802,24053,0.042,-0.946,0.003,-0.854,-0.366,-0.305,308.661
126401,145862,11738,0.049,-0.933,-0.011,-1.341,-0.488,-0.305,308.667
126419,145802,24053,0.054,-0.95,-0.005,-1.341,-0.488,-0.305,308.671
126419,145829,11710,0.046,-0.982,0.019,0.915,0.305,0.061,308.677
126412,145802,24053,0.032,-0.993,0.025,0.915,0.305,0.061,308.68
126412,145877,11719,0.024,-0.977,0.012,2.073,0.61,0.671,308.687
126417,145802,24053,0.032,-0.964,0.01,2.073,0.61,0.671,308.69
126417,145855,11730,0.043,-0.959,0.018,0.366,0.244,0.61,308.697
126442,145802,24053,0.046,-0.965,0.029,0.366,0.244,0.61,308.7
126442,145895,11719,0.048,-0.978,0.027,1.159,0.427,0.061,308.706
126432,145802,24053,0.048,-0.978,0.027,1.159,0.427,0.061,308.71
126432,145882,11724,0.036,-0.975,0.033,0.366,0.915,0.244,308.716
126429,145802,24053,0.036,-0.975,0.033,0.366,0.915,0.244,308.72
126429,145873,11731,0.035,-0.963,0.031,-1.159,0.488,0.183,308.726
126447,145802,24053,0.035,-0.963,0.031,-1.159,0.488,0.183,308.73
126447,145872,11747,0.046,-0.966,0.007,-0.915,0,0.183,308.736
126442,145802,24053,0.046,-0.966,0.007,-0.915,0,0.183,308.74
126442,145860,11718,0.04,-0.979,0.014,0.183,0.183,0.122,308.746
126417,145802,24053,0.04,-0.979,0.014,0.183,0.183,0.122,308.75
126417,145860,11720,0.037,-0.957,0.01,-0.305,0.061,0.427,308.756
126431,145802,24053,0.037,-0.957,0.01,-0.305,0.061,0.427,308.76
126431,145833,11708,0.042,-0.962,0.012,-0.244,-0.061,0.549,308.766
126422,145802,24053,0.042,-0.962,0.012,-0.244,-0.061,0.549,308.77
126422,145837,11716,0.04,-0.982,0.015,1.159,0.244,0.549,308.776
126410,145802,24053,0.04,-0.982,0.015,1.159,0.244,0.549,308.779
126410,145850,11733,0.033,-0.961,0.022,1.037,0.61,0.61,308.786
126420,145802,24053,0.033,-0.961,0.022,1.037,0.61,0.61,308.789
126420,145823,11739,0.041,-0.956,0.029,0.305,0.244,0.549,308.796
126429,145802,24053,0.041,-0.956,0.029,0.305,0.244,0.549,308.799
126429,145856,11709,0.045,-0.957,0.016,-1.098,0.122,0.732,308.805
126424,145802,24053,0.045,-0.957,0.016,-1.098,0.122,0.732,308.809
126424,145851,11729,0.043,-0.99,0.018,-1.22,0.671,0.915,308.815
126417,145802,24053,0.043,-0.99,0.018,-1.22,0.671,0.915,308.819
126417,145874,11732,0.033,-0.987,0.012,-0.122,1.159,0.61,308.825
126437,145802,24053,0.033,-0.987,0.012,-0.122,1.159,0.61,308.829
126437,145871,11732,0.046,-0.973,0.015,-0.61,0.793,0.305,308.835
126429,145802,24053,0.046,-0.973,0.015,-0.61,0.793,0.305,308.839
126429,145884,11735,0.046,-0.973,0.014,0.244,0.854,0.122,308.845
126412,145802,24053,0.046,-0.973,0.014,0.244,0.854,0.122,308.849
126412,145880,11733,0.042,-0.979,0.015,0.244,0.854,0.122,308.855
126420,145802,24053,0.04,-0.977,0.018,0.854,1.037,-0.061,308.859
126420,145873,11738,0.039,-0.965,0.012,0.854,1.037,-0.061,308.865
126400,145802,24053,0.038,-0.955,0.013,0.549,0.854,0.305,308.869
126400,145839,11739,0.039,-0.952,0.026,0.549,0.854,0.305,308.875
126387,145802,24053,0.04,-0.956,0.036,0.732,0.61,0.366,308.878
126387,145842,11718,0.037,-0.957,0.042,0.732,0.61,0.366,308.885
126384,145802,24053,0.035,-0.954,0.038,-0.732,0.488,0.61,308.888
126384,145824,11713,0.038,-0.951,0.026,-0.732,0.488,0.61,308.895
126407,145802,24053,0.036,-0.961,0.017,-3.232,0.183,0.854,308.898
126407,145823,11730,0.037,-0.982,0.023,-3.232,0.183,0.854,308.904
126378,145802,24053,0.03,-0.996,0.026,-2.012,0.183,0.915,308.908
126378,145857,11716,0.026,-0.989,0.022,-2.012,0.183,0.915,308.914
126390,145802,24053,0.029,-0.971,0.016,-1.646,0.183,0.61,308.918
126390,145817,11744,0.035,-0.965,0.009,-1.646,0.183,0.61,308.924
126386,145802,24053,0.043,-0.975,0.004,-1.585,-0.244,0.244,308.928
126386,145809,11727,0.043,-0.985,0.008,-1.585,-0.244,0.244,308.934
126381,145802,24053,0.04,-0.988,0.018,0,0.122,0,308.938
126381,145827,11731,0.035,-0.974,0.014,0,0.122,0,308.944
126401,145802,24053,0.036,-0.965,0.012,-0.183,0.244,-0.122,308.948
126401,145857,11744,0.041,-0.964,0.006,-0.183,0.244,-0.122,308.954
126395,145802,24053,0.041,-0.964,0.011,0.793,0.122,-0.061,308.958
126395,145835,11721,0.041,-0.959,0.019,0.793,0.122,-0.061,308.964
126391,145802,24053,0.04,-0.955,0.024,1.098,0.427,-0.366,308.968
126391,145838,11722,0.036,-0.954,0.026,1.098,0.427,-0.366,308.974
126391,145802,24053,0.039,-0.954,0.028,0.305,0.183,0.183,308.977
126391,145833,11730,0.043,-0.955,0.024,0.305,0.183,0.183,308.984
126377,145802,24053,0.044,-0.96,0.022,-0.671,0,0.61,308.987
126377,145826,11726,0.042,-0.967,0.019,-0.671,0,0.61,308.994
126372,145802,24053,0.039,-0.981,0.025,-1.098,0.122,0.488,308.997
126372,145809,11729,0.036,-0.988,0.022,-1.098,0.122,0.488,309.003
126371,145802,24053,0.032,-0.982,0.019,-1.463,0.549,0.549,309.007
126371,145813,11735,0.034,-0.981,0.004,-1.463,0.549,0.549,309.013
126370,145802,24053,0.04,-0.984,0.005,-2.134,0.183,0.061,309.017
126370,145818,11720,0.04,-0.989,0.009,-2.134,0.183,0.061,309.023
126363,145802,24053,0.041,-0.985,0.006,-0.732,0.122,-0.122,309.027
126363,145807,11734,0.04,-0.979,0.005,-0.732,0.122,-0.122,309.033
126383,145802,24053,0.039,-0.971,0.013,0.183,0.488,-0.61,309.037
126383,145818,11731,0.042,-0.963,0.013,0.183,0.488,-0.61,309.043
126398,145802,24053,0.041,-0.956,0.013,0.549,0.366,-0.61,309.047
126398,145831,11733,0.045,-0.955,0.016,0.549,0.366,-0.61,309.053
126397,145802,24053,0.044,-0.96,0.023,0.61,0.183,-0.122,309.057
126397,145832,11740,0.042,-0.958,0.021,0.61,0.183,-0.122,309.063
126401,145802,24053,0.042,-0.955,0.018,-0.183,0.366,0.366,309.067
126401,145847,11738,0.038,-0.954,0.016,-0.183,0.366,0.366,309.073
126402,145802,24053,0.038,-0.96,0.012,-0.915,0.366,0.793,309.076
126402,145848,11729,0.044,-0.973,0.011,-0.915,0.366,0.793,309.083
126410,145802,24053,0.042,-0.975,0.018,-0.61,0.549,0.976,309.086
126410,145842,11722,0.039,-0.979,0.016,-0.61,0.549,0.976,309.092
126390,145802,24053,0.037,-0.979,0.006,-0.671,0.854,0.671,309.096
126390,145817,11730,0.037,-0.979,0.004,-0.671,0.854,0.671,309.102
126395,145802,24053,0.04,-0.984,0.01,-0.244,0.732,0.549,309.106
126395,145832,11724,0.038,-0.983,0.013,-0.244,0.732,0.549,309.112
126391,145802,24053,0.041,-0.984,0.015,0.915,0.549,0.366,309.116
126391,145840,11758,0.044,-0.975,0.018,0.915,0.549,0.366,309.122
126418,145802,24053,0.036,-0.964,0.013,1.037,0.976,-0.244,309.126
126418,145836,11731,0.037,-0.966,0.017,1.037,0.976,-0.244,309.132
126410,145802,24053,0.04,-0.973,0.018,1.037,0.671,-0.427,309.136
126410,145837,11733,0.041,-0.969,0.023,1.037,0.671,-0.427,309.142
126433,145802,24053,0.038,-0.964,0.022,1.159,0.427,-0.305,309.146
126433,145860,11739,0.039,-0.954,0.023,1.159,0.427,-0.305,309.152
126412,145802,24053,0.04,-0.949,0.026,0.732,0.183,-0.061,309.156
126412,145856,11738,0.045,-0.949,0.026,0.732,0.183,-0.061,309.162
126417,145802,24053,0.046,-0.945,0.021,-0.061,0.122,0.305,309.165
126417,145859,11732,0.048,-0.948,0.015,-0.061,0.122,0.305,309.172
126432,145802,24053,0.045,-0.963,0.011,-1.037,0.427,0.915,309.175
126432,145836,11722,0.04,-0.978,0.015,-1.037,0.427,0.915,309.182
126401,145802,24053,0.04,-0.99,0.008,-0.122,1.22,1.402,309.185
126401,145839,11723,0.041,-0.991,0.007,-0.122,1.22,1.402,309.191
126414,145802,24053,0.033,-0.987,0.016,-1.463,1.159,1.159,309.195
126414,145835,11731,0.027,-0.982,0.011,-1.463,1.159,1.159,309.201
126408,145802,24053,0.033,-0.988,0.024,-1.159,0.915,0.976,309.205
126408,145848,11743,0.04,-0.991,0.035,-1.159,0.915,0.976,309.211
126421,145802,24053,0.041,-0.987,0.015,0.854,0.915,-0.122,309.215
126421,145834,11743,0.038,-0.983,0.009,0.854,0.915,-0.122,309.221
126419,145802,24053,0.036,-0.977,0.021,1.159,0.549,-0.732,309.225
126419,145822,11753,0.037,-0.964,0.021,1.159,0.549,-0.732,309.231
126433,145802,24053,0.039,-0.955,0.017,-0.122,-0.122,-0.549,309.235
126433,145871,11728,0.042,-0.956,0.019,-0.122,-0.122,-0.549,309.241
126425,145802,24053,0.042,-0.958,0.023,0.427,-0.488,-0.732,309.245
126425,145882,11755,0.041,-0.95,0.013,0.427,-0.488,-0.732,309.251
126418,145802,24053,0.046,-0.939,-0.003,-0.061,-0.427,-0.061,309.255
126418,145844,11733,0.05,-0.95,-0.007,-0.061,-0.427,-0.061,309.261
126420,145802,24053,0.046,-0.971,0.005,0.061,-0.122,0.427,309.265
126420,145833,11738,0.043,-0.984,0.008,0.061,-0.122,0.427,309.271
126408,145802,24053,0.039,-0.975,0.006,1.829,0.915,0.732,309.274
126408,145836,11738,0.034,-0.964,0.01,1.829,0.915,0.732,309.281
126404,145802,24053,0.034,-0.964,0.01,1.829,0.915,0.732,309.284
126404,145838,11733,0.042,-0.972,0.026,1.159,0.976,0.793,309.29
126392,145802,24053,0.042,-0.972,0.026,1.159,0.976,0.793,309.294
126392,145846,11733,0.036,-0.985,0.033,1.951,1.098,0.61,309.3
126385,145802,24053,0.036,-0.985,0.033,1.951,1.098,0.61,309.304
126385,145839,11747,0.032,-0.968,0.026,0.671,1.28,0.061,309.31
126419,145802,24053,0.032,-0.968,0.026,0.671,1.28,0.061,309.314
126419,145866,11726,0.04,-0.972,0.039,-0.793,0.732,0,309.32
126445,145802,24053,0.04,-0.972,0.039,-0.793,0.732,0,309.324
126445,145858,11744,0.039,-0.947,0.025,0.488,0.061,-0.122,309.33
126437,145802,24053,0.039,-0.947,0.025,0.488,0.061,-0.122,309.334
126437,145877,11741,0.042,-0.942,0.016,-0.854,0.122,-0.244,309.34
126453,145802,24053,0.042,-0.942,0.016,-0.854,0.122,-0.244,309.344
126453,145880,11732,0.049,-0.949,-0.001,-1.463,-0.122,0.122,309.35
126435,145802,24053,0.049,-0.949,-0.001,-1.463,-0.122,0.122,309.354
126435,145873,11748,0.036,-0.982,0.024,-0.854,0.122,0.854,309.36
126452,145802,24053,0.036,-0.982,0.024,-0.854,0.122,0.854,309.364
126452,145867,11730,0.031,-0.978,0.014,0.244,0.671,1.159,309.37
126457,145802,24053,0.031,-0.978,0.014,0.244,0.671,1.159,309.373
126457,145870,11752,0.041,-0.981,0.016,-1.829,0.122,1.098,309.38
126467,145802,24053,0.041,-0.981,0.016,-1.829,0.122,1.098,309.383
126467,145902,11737,0.037,-0.996,0.03,-1.098,-0.366,0.488,309.389
126472,145802,24053,0.037,-0.996,0.03,-1.098,-0.366,0.488,309.393
126472,145864,11745,0.036,-0.966,0.017,0,-0.305,0.122,309.399
126460,145802,24053,0.036,-0.966,0.017,0,-0.305,0.122,309.403
126460,145867,11740,0.046,-0.97,0.017,-1.707,-0.244,-0.122,309.409
126451,145802,24053,0.046,-0.97,0.017,-1.707,-0.244,-0.122,309.413
126451,145879,11734,0.042,-0.971,0.004,-0.488,-0.915,-0.122,309.419
126460,145802,24053,0.042,-0.971,0.004,-0.488,-0.915,-0.122,309.423
126460,145877,11755,0.044,-0.964,-0.006,-0.244,-0.427,0.122,309.429
126452,145802,24053,0.043,-0.964,0.002,-0.244,-0.427,0.122,309.433
126452,145898,11744,0.041,-0.969,0.002,0.549,-0.061,0.183,309.439
126452,145802,24053,0.045,-0.97,0.004,0.549,-0.061,0.183,309.443
126452,145898,11743,0.041,-0.975,0.013,2.134,0.244,0.488,309.449
126477,145802,24053,0.037,-0.977,0.021,2.134,0.244,0.488,309.453
126477,145906,11760,0.04,-0.966,0.015,1.707,0.732,0.549,309.459
126475,145802,24053,0.041,-0.966,0.015,1.707,0.732,0.549,309.462
126475,145890,11777,0.039,-0.974,0.022,0.366,0.854,0.183,309.469
126475,145802,24053,0.037,-0.985,0.021,0.366,0.854,0.183,309.472
126475,145889,11751,0.037,-0.99,0.018,0.732,0.427,0.122,309.479
126469,145802,24053,0.033,-0.984,0.02,0.732,0.427,0.122,309.482
126469,145911,11767,0.032,-0.971,0.03,1.524,0.366,-0.122,309.488
126487,145802,24053,0.037,-0.961,0.026,1.524,0.366,-0.122,309.492
126487,145895,11751,0.041,-0.955,0.02,1.28,-0.061,-0.366,309.498
126477,145802,24053,0.042,-0.957,0.026,1.28,-0.061,-0.366,309.502
126477,145909,11738,0.042,-0.955,0.028,0.732,-0.061,-0.244,309.508
126493,145802,24053,0.042,-0.945,0.019,0.732,-0.061,-0.244,309.512
126493,145875,11764,0.047,-0.94,-0.001,-0.549,0.061,0.122,309.518
126483,145802,24053,0.051,-0.945,0.004,-0.549,0.061,0.122,309.522
126483,145898,11751,0.048,-0.96,0.013,0,0.549,0.732,309.528
126457,145802,24053,0.041,-0.975,0.018,0,0.549,0.732,309.532
126457,145895,11752,0.042,-0.979,0.024,1.341,1.037,1.037,309.538
126463,145802,24053,0.041,-0.972,0.026,1.341,1.037,1.037,309.542
126463,145896,11754,0.04,-0.965,0.023,0.549,1.28,1.22,309.548
126441,145802,24053,0.044,-0.967,0.023,0.549,1.28,1.22,309.552
126441,145872,11755,0.043,-0.982,0.032,-0.366,0.915,1.159,309.558
126436,145802,24053,0.042,-0.993,0.028,-0.366,0.915,1.159,309.561
126436,145886,11771,0.036,-0.993,0.024,-0.366,0.976,0.671,309.568
126450,145802,24053,0.037,-0.986,0.026,-0.366,0.976,0.671,309.571
126450,145875,11756,0.037,-0.973,0.026,-0.549,0.671,0.305,309.578
126423,145802,24053,0.039,-0.962,0.029,-0.549,0.671,0.305,309.581
126423,145877,11759,0.043,-0.96,0.025,-0.61,0,0.122,309.587
126448,145802,24053,0.043,-0.961,0.019,-0.61,0,0.122,309.591
126448,145888,11752,0.042,-0.962,0.011,-0.488,-0.183,0.366,309.597
126459,145802,24053,0.046,-0.958,-0.002,-0.488,-0.183,0.366,309.601
126459,145896,11757,0.043,-0.97,-0,-0.61,-0.122,0.61,309.607
126466,145802,24053,0.038,-0.982,0.014,-0.61,-0.122,0.61,309.611
126466,145888,11766,0.038,-0.973,0.015,0.671,0.305,1.037,309.617
126476,145802,24053,0.038,-0.963,0.005,0.671,0.305,1.037,309.621
126476,145910,11756,0.04,-0.963,0.011,0.427,0.671,0.732,309.627
126460,146058,24053,0.039,-0.974,0.015,0.427,0.671,0.732,309.631
126460,145923,11761,0.037,-0.984,0.021,1.22,1.037,0.549,309.637
126449,145802,24053,0.033,-0.984,0.022,1.22,1.037,0.549,309.641
126449,145887,11762,0.031,-0.979,0.024,1.037,1.098,0.366,309.647
126437,145802,24053,0.029,-0.976,0.03,1.037,1.098,0.366,309.651
126437,145887,11750,0.031,-0.971,0.041,0.976,0.854,0.122,309.657
126429,145802,24053,0.033,-0.967,0.044,0.976,0.854,0.122,309.66
126429,145899,11755,0.036,-0.964,0.046,0.915,0.488,-0.244,309.667
126407,145802,24053,0.036,-0.959,0.036,0.915,0.488,-0.244,309.67
126407,145865,11744,0.038,-0.956,0.024,-1.159,0,-0.549,309.677
126411,145802,24053,0.042,-0.96,0.026,-1.159,0,-0.549,309.68
126411,145851,11746,0.045,-0.959,0.018,-1.829,-0.183,-0.427,309.686
126400,145802,24053,0.049,-0.957,0.007,-1.829,-0.183,-0.427,309.69
126400,145857,11749,0.047,-0.963,0.006,-1.159,0.122,0.122,309.696
126433,145802,24053,0.043,-0.97,0.01,-1.159,0.122,0.122,309.7
126433,145876,11746,0.041,-0.979,0.013,0.305,0.549,0.427,309.706
126441,145802,24053,0.041,-0.974,0.013,0.305,0.549,0.427,309.71
126441,145882,11777,0.041,-0.962,0.008,-0.244,0.61,0.488,309.716
126446,145802,24053,0.044,-0.963,0.014,-0.244,0.61,0.488,309.72
126446,145871,11767,0.043,-0.973,0.027,-0.183,0.488,0.427,309.726
126472,145802,24053,0.039,-0.98,0.03,-0.183,0.488,0.427,309.73
126472,145906,11757,0.039,-0.976,0.029,0.427,0.427,0.488,309.736
126474,145802,24053,0.035,-0.971,0.028,0.427,0.427,0.488,309.74
126474,145890,11755,0.036,-0.965,0.027,-0.549,0.183,0.305,309.746
126459,145802,24053,0.043,-0.964,0.022,-0.549,0.183,0.305,309.75
126459,145883,11762,0.044,-0.975,0.019,-1.341,-0.366,0.305,309.756
126469,145802,24053,0.043,-0.982,0.017,-1.341,-0.366,0.305,309.759
126469,145889,11776,0.041,-0.98,0.013,-0.976,0.061,0.061,309.766
126463,145802,24053,0.042,-0.976,0.01,-0.976,0.061,0.061,309.769
126463,145910,11772,0.042,-0.97,0.009,-1.402,0.122,-0.061,309.776
126472,146058,24053,0.043,-0.975,0.009,-1.402,0.122,-0.061,309.779
126472,145927,11770,0.044,-0.979,0.011,-0.61,0.305,0,309.785
126478,146058,24053,0.044,-0.972,0.009,-0.61,0.305,0,309.789
126478,145921,11753,0.043,-0.969,0.006,0.183,0.488,0,309.795
126490,146058,24053,0.043,-0.969,0.008,0.183,0.488,0,309.799
126490,145931,11777,0.042,-0.969,0.018,1.768,0.793,0.183,309.805
126508,146058,24053,0.043,-0.958,0.019,1.768,0.793,0.183,309.809
126508,145932,11760,0.042,-0.943,0.018,2.256,0.854,0.61,309.815
126502,146058,24053,0.044,-0.938,0.022,2.256,0.854,0.61,309.819
126502,145949,11774,0.044,-0.947,0.027,1.585,0.915,0.915,309.825
126538,146058,24053,0.04,-0.96,0.031,1.585,0.915,0.915,309.829
126538,145931,11772,0.035,-0.969,0.034,0.549,0.915,1.402,309.835
126527,146058,24053,0.031,-0.965,0.034,0.549,0.915,1.402,309.839
126527,145922,11772,0.033,-0.963,0.025,-0.915,0.732,1.524,309.845
126523,146058,24053,0.038,-0.969,0.022,-0.915,0.732,1.524,309.849
126523,145923,11772,0.042,-0.979,0.027,-1.098,0.122,1.28,309.855
126508,146058,24053,0.041,-0.992,0.031,-1.098,0.122,1.28,309.858
126508,145934,11771,0.034,-0.999,0.035,-0.488,0.427,0.854,309.865
126507,146058,24053,0.034,-0.999,0.035,-0.488,0.427,0.854,309.868
126507,145958,11772,0.036,-0.993,0.002,-1.829,0.183,0.183,309.875
126536,146058,24053,0.036,-0.993,0.002,-1.829,0.183,0.183,309.878
126536,145923,11757,0.041,-0.98,0.011,-1.22,-0.183,-0.183,309.884
126500,146058,24053,0.041,-0.98,0.011,-1.22,-0.183,-0.183,309.888
126500,145938,11774,0.042,-0.969,0.013,0.976,0.183,-0.671,309.894
126515,146058,24053,0.042,-0.969,0.013,0.976,0.183,-0.671,309.898
126515,145935,11766,0.04,-0.953,0.026,1.037,0.244,-0.671,309.904
126515,146058,24053,0.04,-0.953,0.026,1.037,0.244,-0.671,309.908
126515,145928,11780,0.039,-0.955,0.03,0.122,0.061,-0.244,309.914
126528,146058,24053,0.039,-0.955,0.03,0.122,0.061,-0.244,309.918
126528,145932,11763,0.043,-0.947,0.02,-1.037,0,0.122,309.924
126549,146058,24053,0.043,-0.947,0.02,-1.037,0,0.122,309.928
126549,145941,11766,0.038,-0.971,0.025,-1.951,0.183,0.549,309.934
126513,146058,24053,0.038,-0.971,0.025,-1.951,0.183,0.549,309.938
126513,145961,11777,0.035,-0.973,0.017,-1.646,0.366,0.61,309.944
126529,146058,24053,0.035,-0.973,0.017,-1.646,0.366,0.61,309.948
126529,145972,11772,0.043,-0.975,0.01,-2.012,0,0.488,309.954
126523,146058,24053,0.043,-0.975,0.01,-2.012,0,0.488,309.957
126523,145963,11785,0.039,-0.989,0.007,0.061,0.183,0.61,309.964
126558,146058,24053,0.039,-0.989,0.007,0.061,0.183,0.61,309.967
126558,145966,11794,0.036,-0.974,0.01,0.366,0.366,0.183,309.974
126546,146058,24053,0.036,-0.974,0.01,0.366,0.366,0.183,309.977
126546,145961,11782,0.039,-0.969,0.015,0.976,0.183,0.183,309.983
126557,146058,24053,0.039,-0.969,0.015,0.976,0.183,0.183,309.987
126557,145968,11773,0.04,-0.965,0.031,1.707,0.427,0.183,309.993
126521,146058,24053,0.04,-0.965,0.031,1.707,0.427,0.183,309.997
126521,145973,11783,0.036,-0.951,0.026,0.122,0.305,0,310.003
126515,146058,24053,0.036,-0.951,0.026,0.122,0.305,0,310.007
126515,145957,11776,0.036,-0.957,0.026,0.122,0.305,0,310.013
126509,146058,24053,0.037,-0.968,0.032,-0.854,-0.122,0.305,310.017
126509,145936,11767,0.042,-0.962,0.025,-0.854,-0.122,0.305,310.023
126508,146058,24053,0.042,-0.955,0.012,-1.524,0.122,0.427,310.027
126508,145931,11771,0.042,-0.964,0.012,-1.524,0.122,0.427,310.033
126501,146058,24053,0.039,-0.978,0.02,-1.402,0.305,0.427,310.037
126501,145936,11778,0.038,-0.986,0.015,-1.402,0.305,0.427,310.043
126539,146058,24053,0.037,-0.983,0.012,-0.793,0.061,0.427,310.047
126539,145952,11772,0.044,-0.973,0.012,-0.793,0.061,0.427,310.053
126505,146058,24053,0.046,-0.97,0.015,-0.915,-0.061,0.427,310.056
126505,145952,11785,0.043,-0.972,0.018,-0.915,-0.061,0.427,310.063
126517,146058,24053,0.045,-0.972,0.019,0.427,0.305,0.366,310.066
126517,145934,11765,0.043,-0.964,0.023,0.427,0.305,0.366,310.072
126526,146058,24053,0.039,-0.963,0.022,0.671,0.305,0.366,310.076
126526,145970,11810,0.039,-0.965,0.021,0.671,0.305,0.366,310.082
126554,146058,24053,0.042,-0.969,0.018,0.549,0.305,0.793,310.086
126554,145969,11783,0.043,-0.973,0.015,0.549,0.305,0.793,310.092
126595,146058,24053,0.037,-0.977,0.018,-0.244,0.793,0.549,310.096
126595,145967,11792,0.033,-0.977,0.016,-0.244,0.793,0.549,310.102
126599,146058,24053,0.033,-0.975,0.014,-0.793,0.854,0.122,310.106
126599,145996,11767,0.035,-0.971,0.015,-0.793,0.854,0.122,310.112
126571,146058,24053,0.038,-0.966,0.012,-0.061,0.427,0.366,310.116
126571,145990,11799,0.04,-0.962,0.009,-0.061,0.427,0.366,310.122
126580,146058,24053,0.046,-0.965,0.002,0.366,0.61,0.183,310.126
126580,145977,11783,0.041,-0.968,0.012,0.366,0.61,0.183,310.132
126553,146058,24053,0.035,-0.972,0.019,0.488,0.854,0.122,310.136
126553,145977,11801,0.035,-0.974,0.02,0.488,0.854,0.122,310.142
126554,146058,24053,0.034,-0.969,0.022,0.061,0.488,0.305,310.146
126554,145970,11763,0.039,-0.965,0.025,0.061,0.488,0.305,310.152
126521,146058,24053,0.041,-0.964,0.02,0.488,-0.061,0.366,310.155
126521,145946,11781,0.043,-0.972,0.02,0.488,-0.061,0.366,310.162
126546,146058,24053,0.04,-0.973,0.031,1.463,0.061,0.366,310.165
126546,145946,11784,0.036,-0.972,0.042,1.463,0.061,0.366,310.172
126549,146058,24053,0.032,-0.96,0.04,0.305,-0.061,0.183,310.175
126549,146000,11776,0.034,-0.956,0.034,0.305,-0.061,0.183,310.181
126526,146058,24053,0.041,-0.957,0.02,-1.707,-0.549,0.122,310.185
126526,145975,11785,0.042,-0.973,0.017,-1.707,-0.549,0.122,310.191
126543,146058,24053,0.042,-0.986,0.022,-0.793,-0.61,0.122,310.195
126543,145968,11796,0.039,-0.981,0.016,-0.793,-0.61,0.122,310.201
126572,146058,24053,0.041,-0.969,0.01,-0.427,-0.427,0.061,310.205
126572,145985,11774,0.043,-0.963,0.01,-0.427,-0.427,0.061,310.211
126533,146058,24053,0.044,-0.967,0.015,-0.671,-0.366,-0.061,310.215
126533,145967,11795,0.046,-0.972,0.014,-0.671,-0.366,-0.061,310.221
126528,146058,24053,0.045,-0.972,0.015,-0.366,-0.122,-0.183,310.225
126528,145952,11792,0.04,-0.969,0.016,-0.366,-0.122,-0.183,310.231
126527,146058,24053,0.041,-0.964,0.009,-1.098,0.122,-0.183,310.235
126527,145951,11787,0.041,-0.964,0.01,-1.098,0.122,-0.183,310.241
126523,146058,24053,0.043,-0.965,0.016,-0.305,0,0.061,310.245
126523,145950,11775,0.046,-0.964,0.016,-0.305,0,0.061,310.251
126519,146058,24053,0.045,-0.96,0.02,0.488,0.244,0.305,310.254
126519,145953,11774,0.041,-0.958,0.022,0.488,0.244,0.305,310.261
126514,146058,24053,0.041,-0.964,0.023,0.366,0.549,0.61,310.264
126514,145930,11800,0.043,-0.962,0.022,0.366,0.549,0.61,310.271
126528,146058,24053,0.042,-0.958,0.02,-0.61,0.305,0.793,310.274
126528,145968,11793,0.044,-0.958,0.011,-0.61,0.305,0.793,310.28
126525,146058,24053,0.047,-0.967,0.007,-1.463,0.244,0.976,310.284
126525,145966,11799,0.047,-0.973,0.016,-1.463,0.244,0.976,310.29
126528,146058,24053,0.044,-0.979,0.018,0.122,0.671,1.159,310.294
126528,145968,11794,0.04,-0.984,0.013,0.122,0.671,1.159,310.3
126516,146058,24053,0.038,-0.986,0.013,0.854,0.732,1.098,310.304
126516,145981,11799,0.039,-0.983,0.018,0.854,0.732,1.098,310.31
126509,146058,24053,0.04,-0.975,0.014,0.427,0.976,0.549,310.314
126509,145953,11774,0.042,-0.969,0.012,0.427,0.976,0.549,310.32
126525,146058,24053,0.044,-0.977,0.022,0.915,0.976,0.061,310.324
126525,145965,11789,0.041,-0.977,0.031,0.915,0.976,0.061,310.33
126534,146058,24053,0.038,-0.967,0.029,0.976,1.159,0.183,310.334
126534,145979,11798,0.037,-0.959,0.023,0.976,1.159,0.183,310.34
126570,146058,24053,0.038,-0.959,0.02,-0.732,0.854,0,310.344
126570,145986,11781,0.04,-0.962,0.022,-0.732,0.854,0,310.35
126533,146058,24053,0.042,-0.964,0.027,-0.61,0.305,0.183,310.353
126533,145974,11798,0.042,-0.962,0.027,-0.61,0.305,0.183,310.36
126528,146058,24053,0.038,-0.957,0.027,-0.244,0.366,0.61,310.363
126528,145956,11801,0.036,-0.953,0.028,-0.244,0.366,0.61,310.369
126516,146058,24053,0.041,-0.951,0.019,-1.037,0.244,0.793,310.373
126516,145940,11775,0.041,-0.952,0.008,-1.037,0.244,0.793,310.379
126495,146058,24053,0.045,-0.963,0.006,-1.707,0.122,1.098,310.383
126495,145950,11778,0.04,-0.971,0.008,-1.707,0.122,1.098,310.389
126470,146058,24053,0.038,-0.978,0.011,-0.732,0.488,1.22,310.393
126470,145939,11776,0.035,-0.981,0.013,-0.732,0.488,1.22,310.399
126478,146058,24053,0.035,-0.983,0.019,0.122,0.976,1.22,310.403
126478,145953,11783,0.03,-0.981,0.023,0.122,0.976,1.22,310.409
126477,146058,24053,0.034,-0.98,0.026,-0.122,0.976,0.61,310.413
126477,145936,11787,0.038,-0.981,0.031,-0.122,0.976,0.61,310.419
126463,146058,24053,0.037,-0.986,0.036,-0.61,0.671,0,310.423
126463,145952,11788,0.033,-0.978,0.028,-0.61,0.671,0,310.429
126484,146058,24053,0.036,-0.968,0.017,-1.28,0.488,-0.427,310.433
126484,145920,11783,0.04,-0.967,0.018,-1.28,0.488,-0.427,310.439
126464,146058,24053,0.042,-0.968,0.018,-0.793,0.244,-0.732,310.442
126464,145928,11782,0.04,-0.968,0.016,-0.793,0.244,-0.732,310.449
126479,145802,24053,0.04,-0.968,0.016,-0.793,0.244,-0.732,310.452
126479,145913,11797,0.042,-0.963,0.013,0,0.488,-0.793,310.459
126464,146058,24053,0.042,-0.963,0.013,0,0.488,-0.793,310.462
126464,145928,11791,0.041,-0.965,0.017,-0.854,0.488,-0.732,310.468
126460,145802,24053,0.041,-0.965,0.017,-0.854,0.488,-0.732,310.472
126460,145890,11780,0.041,-0.964,0.022,-1.28,0.488,-0.488,310.478
126465,145802,24053,0.041,-0.964,0.022,-1.28,0.488,-0.488,310.482
126465,145900,11806,0.041,-0.956,0.02,-0.488,0.366,-0.122,310.488
126472,145802,24053,0.041,-0.956,0.02,-0.488,0.366,-0.122,310.492
126472,145914,11776,0.045,-0.956,0.023,-0.427,0.183,0.427,310.498
126463,146058,24053,0.045,-0.956,0.023,-0.427,0.183,0.427,310.502
126463,145932,11785,0.038,-0.963,0.035,0.061,0.122,0.793,310.508
126455,145802,24053,0.038,-0.963,0.035,0.061,0.122,0.793,310.512
126455,145907,11790,0.044,-0.949,0.008,-1.098,-0.061,1.22,310.518
126493,146058,24053,0.044,-0.949,0.008,-1.098,-0.061,1.22,310.522
126493,145950,11796,0.04,-0.993,0.019,-1.646,-0.183,1.159,310.528
126492,146058,24053,0.04,-0.993,0.019,-1.646,-0.183,1.159,310.532
126492,145948,11773,0.039,-0.985,0.005,0.122,0.122,1.22,310.538
126507,146058,24053,0.039,-0.985,0.005,0.122,0.122,1.22,310.541
126507,145953,11787,0.041,-0.984,0.013,0.122,0.366,0.976,310.548
126518,146058,24053,0.041,-0.984,0.013,0.122,0.366,0.976,310.551
126518,145954,11806,0.045,-0.976,0.003,0.427,0.61,0.366,310.558
126518,146058,24053,0.045,-0.976,0.003,0.427,0.61,0.366,310.561
126518,145951,11800,0.045,-0.974,0.01,0.183,0.854,-0.244,310.567
126499,146058,24053,0.045,-0.974,0.01,0.183,0.854,-0.244,310.571
126499,145960,11803,0.037,-0.966,0.015,0.976,1.037,-0.122,310.577
126534,146058,24053,0.037,-0.966,0.015,0.976,1.037,-0.122,310.581
126534,145963,11804,0.041,-0.953,0.025,1.28,1.098,-0.061,310.587
126539,146058,24053,0.041,-0.953,0.025,1.28,1.098,-0.061,310.591
126539,145946,11784,0.041,-0.95,0.024,0.427,0.793,0,310.597
126524,146058,24053,0.039,-0.951,0.029,0.427,0.793,0,310.601
126524,145964,11803,0.04,-0.957,0.033,-0.061,0.549,0.549,310.607
126519,146058,24053,0.037,-0.957,0.029,-0.061,0.549,0.549,310.611
126519,145982,11795,0.041,-0.956,0.024,-0.488,0.549,0.915,310.617
126543,146058,24053,0.038,-0.956,0.023,-0.488,0.549,0.915,310.621
126543,145987,11812,0.037,-0.963,0.019,-0.915,0.671,1.28,310.627
126535,146058,24053,0.042,-0.966,0.014,-0.915,0.671,1.28,310.631
126535,145943,11810,0.038,-0.974,0.007,-0.183,0.61,1.463,310.637
126518,146058,24053,0.039,-0.986,0.009,-0.183,0.61,1.463,310.64
126518,145995,11808,0.038,-1.001,0.017,0.793,0.61,1.463,310.647
126528,146058,24053,0.032,-1.003,0.025,0.793,0.61,1.463,310.65
126528,145979,11783,0.032,-0.991,0.027,1.159,1.098,0.732,310.657
126539,146058,24053,0.036,-0.977,0.019,1.159,1.098,0.732,310.66
126539,145958,11799,0.038,-0.971,0.012,-0.61,0.793,-0.244,310.666
126534,146058,24053,0.045,-0.98,0.015,-0.61,0.793,-0.244,310.67
126534,145981,11798,0.044,-0.985,0.028,0.244,0.488,-0.427,310.676
126540,146058,24053,0.041,-0.974,0.033,0.244,0.488,-0.427,310.68
126540,145994,11817,0.039,-0.963,0.022,0.488,0.549,-0.549,310.686
126542,146058,24053,0.039,-0.953,0.022,0.488,0.549,-0.549,310.69
126542,145990,11800,0.042,-0.954,0.027,-0.244,0.061,-0.366,310.696
126561,146058,24053,0.042,-0.959,0.03,-0.244,0.061,-0.366,310.7
126561,145997,11808,0.04,-0.955,0.025,-0.183,-0.366,0.122,310.706
126550,146058,24053,0.04,-0.949,0.019,-0.183,-0.366,0.122,310.71
126550,146003,11807,0.042,-0.949,0.016,-0.854,-0.366,0.61,310.716
126552,146058,24053,0.043,-0.953,0.02,-0.854,-0.366,0.61,310.72
126552,145986,11797,0.04,-0.95,0.01,-0.793,-0.305,1.098,310.726
126541,146058,24053,0.039,-0.954,0.002,-0.793,-0.305,1.098,310.73
126541,146006,11800,0.041,-0.974,0.011,-0.854,0.183,1.28,310.736
126547,146058,24053,0.036,-0.989,0.026,-0.854,0.183,1.28,310.739
126547,145985,11796,0.031,-0.988,0.031,-0.488,0.61,1.341,310.746
126541,146058,24053,0.032,-0.979,0.02,-0.488,0.61,1.341,310.749
126541,145971,11813,0.037,-0.974,0.008,-2.073,0.488,0.976,310.756
126553,146058,24053,0.043,-0.986,0.013,-2.073,0.488,0.976,310.759
126553,145987,11798,0.041,-0.997,0.023,-0.61,0.488,0.366,310.765
126545,146058,24053,0.04,-0.99,0.02,-0.61,0.488,0.366,310.769
126545,145988,11803,0.04,-0.975,0.005,0.183,0.488,0.061,310.775
126546,146058,24053,0.045,-0.964,0.007,0.183,0.488,0.061,310.779
126546,145980,11805,0.046,-0.964,0.014,0.183,0.488,-0.183,310.785
126539,146058,24053,0.043,-0.973,0.022,0.183,0.488,-0.183,310.789
126539,145956,11807,0.041,-0.969,0.022,0.427,0.427,-0.427,310.795
126546,146058,24053,0.041,-0.958,0.013,0.427,0.427,-0.427,310.799
126546,145950,11806,0.042,-0.953,0.011,-0.549,0.549,-0.366,310.805
126524,146058,24053,0.042,-0.958,0.014,-0.549,0.549,-0.366,310.809
126524,145942,11796,0.042,-0.963,0.021,0.549,0.549,0.061,310.815
126519,146058,24053,0.044,-0.963,0.014,0.549,0.549,0.061,310.819
126519,145943,11808,0.04,-0.962,0.012,0.61,0.915,0.427,310.825
126534,146058,24053,0.038,-0.968,0.02,0.61,0.915,0.427,310.829
126534,145964,11808,0.036,-0.968,0.026,0.61,0.976,0.549,310.835
126525,146058,24053,0.038,-0.965,0.023,0.61,0.976,0.549,310.838
126525,145967,11813,0.04,-0.968,0.023,-0.183,0.793,0.793,310.845
126556,146058,24053,0.039,-0.975,0.027,-0.183,0.793,0.793,310.848
126556,145992,11802,0.037,-0.984,0.029,-0.793,0.732,0.671,310.855
126556,146058,24053,0.038,-0.984,0.025,-0.793,0.732,0.671,310.858
126556,145984,11812,0.036,-0.981,0.025,-0.854,0.366,0.366,310.864
126592,146058,24053,0.037,-0.975,0.02,-0.854,0.366,0.366,310.868
126592,146000,11791,0.041,-0.971,0.03,-0.854,-0.244,0.244,310.874
126559,146058,24053,0.042,-0.967,0.028,-0.854,-0.244,0.244,310.878
126559,146008,11825,0.041,-0.965,0.02,-0.732,-0.61,0.061,310.884
126574,146058,24053,0.046,-0.966,0.007,-0.732,-0.61,0.061,310.888
126574,146011,11799,0.046,-0.97,0.004,-0.976,-0.549,-0.061,310.894
126590,146058,24053,0.042,-0.974,0.003,-0.976,-0.549,-0.061,310.898
126590,146020,11792,0.041,-0.975,-0.002,-0.305,-0.305,0.061,310.904
126581,146058,24053,0.043,-0.971,-0.004,-0.305,-0.305,0.061,310.908
126581,146001,11794,0.045,-0.966,-0.003,1.098,0.183,0.183,310.914
126567,146058,24053,0.043,-0.97,0.01,1.098,0.183,0.183,310.918
126567,145995,11817,0.041,-0.972,0.02,2.195,0.976,0.183,310.924
126561,146058,24053,0.04,-0.969,0.016,2.195,0.976,0.183,310.928
126561,146003,11812,0.04,-0.969,0.023,1.341,1.159,0.061,310.934
126572,146058,24053,0.039,-0.97,0.032,1.341,1.159,0.061,310.937
126572,145995,11812,0.038,-0.972,0.033,0.488,0.976,0.183,310.944
126561,146058,24053,0.038,-0.966,0.028,0.488,0.976,0.183,310.947
126561,145989,11814,0.04,-0.964,0.024,-0.061,0.671,0.061,310.953
126575,146058,24053,0.037,-0.969,0.024,-0.061,0.671,0.061,310.957
126575,145994,11804,0.038,-0.965,0.025,0.183,0.244,0.122,310.963
126565,146058,24053,0.043,-0.959,0.021,0.183,0.244,0.122,310.967
126565,145996,11810,0.046,-0.948,0.016,-0.671,-0.061,0.366,310.973
126559,146058,24053,0.049,-0.952,0.011,-0.671,-0.061,0.366,310.977
126559,145983,11814,0.048,-0.962,0.01,-0.61,0.183,0.488,310.983
126570,146058,24053,0.042,-0.972,0.018,-0.61,0.183,0.488,310.987
126570,146000,11830,0.041,-0.974,0.015,0.305,0.61,0.793,310.993
126581,146058,24053,0.04,-0.973,0.005,0.305,0.61,0.793,310.997
126581,146012,11823,0.041,-0.974,0.008,0.061,0.671,0.976,311.003
126577,146058,24053,0.043,-0.977,0.014,0.061,0.671,0.976,311.007
126577,146007,11799,0.041,-0.978,0.021,0.732,0.976,0.854,311.013
126580,146058,24053,0.04,-0.979,0.026,0.732,0.976,0.854,311.017
126580,146006,11810,0.036,-0.98,0.032,0.61,1.22,0.61,311.023
126563,146058,24053,0.036,-0.98,0.032,0.61,1.22,0.61,311.027
126563,146001,11819,0.033,-0.969,0.024,0.061,1.159,0.549,311.033
126550,146058,24053,0.033,-0.969,0.024,0.061,1.159,0.549,311.036
126550,146008,11810,0.042,-0.966,0.03,-0.671,0.854,0.183,311.043
126530,146058,24053,0.042,-0.966,0.03,-0.671,0.854,0.183,311.046
126530,145998,11810,0.045,-0.963,0.016,-0.854,0.427,0.061,311.052
126540,146058,24053,0.045,-0.963,0.016,-0.854,0.427,0.061,311.056
126540,145997,11814,0.039,-0.966,0.02,-1.159,0.61,0.488,311.062
126550,146058,24053,0.039,-0.966,0.02,-1.159,0.61,0.488,311.066
126550,145994,11819,0.04,-0.966,0.015,-1.28,0.305,0.366,311.072
126534,146058,24053,0.04,-0.966,0.015,-1.28,0.305,0.366,311.076
126534,146006,11823,0.043,-0.968,0.009,-0.488,0.244,0.61,311.082
126564,146058,24053,0.043,-0.968,0.009,-0.488,0.244,0.61,311.086
126564,145999,11811,0.039,-0.975,0.016,0.671,0.427,0.61,311.092
126557,146058,24053,0.039,-0.975,0.016,0.671,0.427,0.61,311.096
126557,145984,11818,0.037,-0.966,0.013,0.305,0.366,0.61,311.102
126560,146058,24053,0.037,-0.966,0.013,0.305,0.366,0.61,311.106
126560,146007,11814,0.041,-0.974,0.034,0.427,0.427,0.732,311.112
126543,146058,24053,0.041,-0.974,0.034,0.427,0.427,0.732,311.116
126543,145993,11814,0.031,-0.974,0.029,0,0.366,0.305,311.122
126559,146058,24053,0.031,-0.974,0.029,0,0.366,0.305,311.125
126559,145976,11804,0.037,-0.964,0.018,-2.134,0,0.061,311.132
126532,146058,24053,0.037,-0.964,0.018,-2.134,0,0.061,311.135
126532,145980,11819,0.04,-0.974,0.022,-0.915,-0.366,0.183,311.142
126538,146058,24053,0.04,-0.974,0.022,-0.915,-0.366,0.183,311.145
126538,145957,11813,0.042,-0.966,0.002,-0.61,-0.183,0.061,311.151
126541,146058,24053,0.042,-0.966,0.002,-0.61,-0.183,0.061,311.155
126541,145973,11811,0.041,-0.98,0.014,0.305,0.122,-0.061,311.161
126528,146058,24053,0.041,-0.98,0.014,0.305,0.122,-0.061,311.165
126528,145968,11789,0.04,-0.975,0.011,0.305,0.122,-0.061,311.171
126518,146058,24053,0.041,-0.969,0.011,1.159,0.183,0.122,311.175
126518,145975,11814,0.042,-0.963,0.016,1.159,0.183,0.122,311.181
126528,146058,24053,0.045,-0.956,0.019,1.402,0.305,0.183,311.185
126528,145958,11805,0.044,-0.961,0.02,1.402,0.305,0.183,311.191
126524,146058,24053,0.043,-0.961,0.029,1.463,0.427,0.244,311.195
126524,145982,11819,0.043,-0.959,0.024,1.463,0.427,0.244,311.201
126535,146058,24053,0.045,-0.962,0.023,0.305,0.366,0.488,311.205
126535,145959,11808,0.047,-0.973,0.026,0.305,0.366,0.488,311.211
126537,146058,24053,0.042,-0.985,0.019,-0.366,0.732,0.549,311.215
126537,145980,11801,0.036,-0.988,0.016,-0.366,0.732,0.549,311.221
126527,146058,24053,0.037,-0.992,0.017,-0.976,0.61,0.305,311.224
126527,145983,11814,0.041,-0.989,0.023,-0.976,0.61,0.305,311.231
126528,146058,24053,0.043,-0.985,0.019,-1.159,-0.061,0.122,311.234
126528,145980,11818,0.045,-0.98,0.016,-1.159,-0.061,0.122,311.241
126545,146058,24053,0.044,-0.984,0.012,-0.366,0,-0.549,311.244
126545,145969,11822,0.04,-0.992,0.019,-0.366,0,-0.549,311.25
126562,146058,24053,0.037,-0.988,0.018,0.488,-0.305,-0.549,311.254
126562,145974,11818,0.038,-0.977,0.008,0.488,-0.305,-0.549,311.26
126537,146058,24053,0.038,-0.975,0.002,1.463,-0.732,-0.488,311.264
126537,145967,11811,0.044,-0.972,0.006,1.463,-0.732,-0.488,311.27
126545,146058,24053,0.041,-0.965,0.017,2.927,-0.427,-0.854,311.274
126545,145967,11824,0.041,-0.949,0.017,2.927,-0.427,-0.854,311.28
126565,146058,24053,0.04,-0.936,0.023,2.012,-0.061,-0.915,311.284
126565,145981,11801,0.042,-0.93,0.023,2.012,-0.061,-0.915,311.29
126553,146058,24053,0.044,-0.937,0.02,1.098,-0.061,-0.488,311.294
126553,145969,11817,0.041,-0.952,0.022,1.098,-0.061,-0.488,311.3
126564,146058,24053,0.038,-0.955,0.024,1.159,0.305,0.061,311.304
126564,145958,11807,0.037,-0.949,0.02,1.159,0.305,0.061,311.31
126538,146058,24053,0.041,-0.951,0.023,-0.244,0.488,0.122,311.314
126538,145970,11815,0.041,-0.965,0.029,-0.244,0.488,0.122,311.32
126540,146058,24053,0.037,-0.969,0.031,-0.244,0.915,0.61,311.323
126540,145941,11831,0.036,-0.973,0.03,-0.244,0.915,0.61,311.33
126542,146058,24053,0.039,-0.975,0.028,-0.793,0.854,0.488,311.333
126542,145952,11798,0.037,-0.983,0.03,-0.793,0.854,0.488,311.34
126518,146058,24053,0.039,-0.984,0.023,-0.244,0.244,0.488,311.343
126518,145944,11795,0.039,-0.972,0.016,-0.244,0.244,0.488,311.349
126520,146058,24053,0.048,-0.965,0.014,0.61,0.183,0.549,311.353
126520,145950,11806,0.049,-0.971,0.023,0.61,0.183,0.549,311.359
126515,146058,24053,0.045,-0.972,0.031,1.707,0.305,0.549,311.363
126515,145951,11799,0.042,-0.968,0.025,1.707,0.305,0.549,311.369
126509,146058,24053,0.041,-0.964,0.024,0.305,0.305,0.671,311.373
126509,145939,11817,0.044,-0.962,0.021,0.305,0.305,0.671,311.379
126518,146058,24053,0.048,-0.961,0.019,-1.28,0.122,0.244,311.383
126518,145988,11809,0.052,-0.967,0.007,-1.28,0.122,0.244,311.389
126517,146058,24053,0.048,-0.979,0.009,-0.915,0.305,0.427,311.393
126517,145967,11814,0.041,-0.98,0.016,-0.915,0.305,0.427,311.399
126533,146058,24053,0.041,-0.97,0.011,0.488,0.793,0.671,311.403
126533,145948,11813,0.044,-0.962,0.008,0.488,0.793,0.671,311.409
126511,146058,24053,0.047,-0.967,0.014,0.549,0.793,0.61,311.413
126511,145954,11816,0.043,-0.975,0.025,0.549,0.793,0.61,311.419
126527,146058,24053,0.043,-0.976,0.029,0.244,0.854,0.671,311.422
126527,145973,11795,0.038,-0.971,0.023,0.244,0.854,0.671,311.429
126513,146058,24053,0.037,-0.969,0.024,-1.037,0.793,0.549,311.432
126513,145972,11811,0.039,-0.966,0.028,-1.037,0.793,0.549,311.439
126494,146058,24053,0.036,-0.962,0.028,-0.732,0.244,0.61,311.442
126494,145931,11791,0.039,-0.96,0.031,-0.732,0.244,0.61,311.448
126476,146058,24053,0.04,-0.958,0.03,0.244,0.183,0.793,311.452
126476,145928,11810,0.036,-0.958,0.032,0.244,0.183,0.793,311.458
126479,145802,24053,0.038,-0.958,0.026,-0.366,0.122,0.915,311.462
126479,145908,11793,0.041,-0.96,0.025,-0.366,0.122,0.915,311.468
126467,145802,24053,0.041,-0.963,0.026,-1.646,-0.061,0.976,311.472
126467,145903,11806,0.041,-0.964,0.025,-1.646,-0.061,0.976,311.478
126463,145802,24053,0.042,-0.967,0.018,-1.463,0.061,0.976,311.482
126463,145900,11805,0.042,-0.973,0.007,-1.463,0.061,0.976,311.488
126446,146058,24053,0.039,-0.984,0.006,-0.61,0.549,1.037,311.492
126446,145921,11809,0.039,-0.993,0.017,-0.61,0.549,1.037,311.498
126471,145802,24053,0.036,-0.997,0.022,0.549,0.732,0.854,311.502
126471,145895,11796,0.033,-0.988,0.016,0.549,0.732,0.854,311.508
126484,146058,24053,0.037,-0.975,0.009,-0.183,0.854,0.366,311.512
126484,145927,11805,0.04,-0.971,0.01,-0.183,0.854,0.366,311.518
126449,145802,24053,0.043,-0.973,0.014,-0.183,0.915,-0.366,311.521
126449,145886,11799,0.047,-0.972,0.018,-0.183,0.915,-0.366,311.528
126427,145802,24053,0.042,-0.968,0.018,0.549,0.793,-0.366,311.531
126427,145890,11797,0.041,-0.963,0.017,0.549,0.793,-0.366,311.537
126406,145802,24053,0.039,-0.955,0.022,-0.244,0.549,-0.061,311.541
126406,145908,11788,0.041,-0.956,0.024,-0.244,0.549,-0.061,311.547
126399,145802,24053,0.041,-0.959,0.029,-0.671,0.244,-0.061,311.551
126399,145882,11777,0.041,-0.964,0.03,-0.671,0.244,-0.061,311.557
126393,145802,24053,0.039,-0.967,0.032,-0.488,0.183,0.427,311.561
126393,145866,11787,0.037,-0.965,0.032,-0.488,0.183,0.427,311.567
126397,145802,24053,0.035,-0.969,0.021,-1.585,-0.061,0.732,311.571
126397,145883,11794,0.041,-0.973,0.012,-1.585,-0.061,0.732,311.577
