125348,146409,12391,-0.022,-0.905,0.384,-1.646,0,0.244,280.666
125337,146570,24053,-0.022,-0.905,0.384,-1.646,0,0.244,280.67
125337,146439,12374,-0.015,-0.903,0.369,-1.707,-0.061,0.305,280.676
125347,146314,24053,-0.015,-0.903,0.369,-1.707,-0.061,0.305,280.68
125347,146413,12388,-0.014,-0.895,0.373,-1.341,-0.061,0.488,280.686
125356,146314,24053,-0.014,-0.895,0.373,-1.341,-0.061,0.488,280.69
125356,146422,12381,-0.006,-0.892,0.355,-0.854,0.244,0.915,280.696
125345,146314,24053,-0.006,-0.892,0.355,-0.854,0.244,0.915,280.699
125345,146408,12390,-0.017,-0.908,0.369,-0.061,1.159,1.463,280.706
125338,146314,24053,-0.017,-0.908,0.369,-0.061,1.159,1.463,280.709
125338,146420,12359,-0.02,-0.918,0.376,1.341,1.341,1.646,280.716
125344,146314,24053,-0.02,-0.918,0.376,1.341,1.341,1.646,280.719
125344,146405,12364,-0.025,-0.915,0.384,0.915,1.22,1.341,280.725
125335,146314,24053,-0.025,-0.915,0.384,0.915,1.22,1.341,280.729
125335,146417,12388,-0.023,-0.924,0.385,0.366,0.915,1.098,280.735
125330,146314,24053,-0.023,-0.924,0.385,0.366,0.915,1.098,280.739
125330,146416,12380,-0.023,-0.928,0.39,-0.244,0.549,0.61,280.745
125354,146314,24053,-0.023,-0.928,0.39,-0.244,0.549,0.61,280.749
125354,146412,12379,-0.026,-0.922,0.381,-0.488,0.732,-0.183,280.755
125364,146314,24053,-0.026,-0.922,0.381,-0.488,0.732,-0.183,280.759
125364,146422,12374,-0.025,-0.907,0.37,-0.427,0.61,-0.488,280.765
125338,146314,24053,-0.025,-0.907,0.37,-0.427,0.61,-0.488,280.769
125338,146405,12389,-0.025,-0.9,0.375,0.305,0.061,-0.183,280.775
125363,146314,24053,-0.024,-0.892,0.377,0.305,0.061,-0.183,280.779
125363,146408,12382,-0.02,-0.885,0.374,0.549,0,-0.183,280.785
125364,146314,24053,-0.021,-0.884,0.367,0.549,0,-0.183,280.789
125364,146417,12389,-0.022,-0.887,0.375,0.305,0.366,0.122,280.795
125387,146570,24053,-0.026,-0.891,0.376,0.305,0.366,0.122,280.798
125387,146436,12374,-0.023,-0.893,0.371,0,0.61,0.427,280.805
125376,146314,24053,-0.022,-0.893,0.377,0,0.61,0.427,280.808
125376,146404,12385,-0.026,-0.899,0.382,-0.854,0.61,0.732,280.815
125361,146314,24053,-0.027,-0.906,0.383,-0.854,0.61,0.732,280.818
125361,146405,12367,-0.028,-0.909,0.386,-0.488,0.854,0.854,280.824
125337,146314,24053,-0.026,-0.911,0.388,-0.488,0.854,0.854,280.828
125337,146409,12368,-0.028,-0.912,0.389,-0.732,0.61,0.549,280.834
125341,146314,24053,-0.029,-0.914,0.396,-0.732,0.61,0.549,280.838
125341,146376,12374,-0.026,-0.914,0.39,-1.707,0.427,0.305,280.844
125331,146314,24053,-0.026,-0.912,0.385,-1.707,0.427,0.305,280.848
125331,146388,12385,-0.025,-0.914,0.376,-1.768,0.244,0.183,280.854
125354,146314,24053,-0.024,-0.914,0.367,-1.768,0.244,0.183,280.858
125354,146387,12386,-0.019,-0.91,0.37,-0.915,-0.183,0.183,280.864
125319,146314,24053,-0.016,-0.909,0.363,-0.915,-0.183,0.183,280.868
125319,146407,12377,-0.014,-0.911,0.362,0.122,0,0.244,280.874
125326,146314,24053,-0.017,-0.913,0.367,0.122,0,0.244,280.878
125326,146383,12387,-0.02,-0.914,0.371,0.854,0.183,0.61,280.884
125322,146314,24053,-0.022,-0.911,0.373,0.854,0.183,0.61,280.888
125322,146377,12353,-0.024,-0.901,0.37,0.854,0.427,0.671,280.894
125326,146314,24053,-0.026,-0.898,0.371,0.854,0.427,0.671,280.897
125326,146372,12364,-0.024,-0.897,0.375,0.061,0.366,0.366,280.904
125337,146314,24053,-0.025,-0.9,0.385,0.061,0.366,0.366,280.907
125337,146405,12369,-0.021,-0.903,0.388,-1.098,0,0.122,280.914
125326,146314,24053,-0.023,-0.912,0.385,-1.098,0,0.122,280.917
125326,146389,12366,-0.025,-0.913,0.383,-2.012,-0.305,0.427,280.923
125336,146314,24053,-0.027,-0.911,0.383,-2.012,-0.305,0.427,280.927
125336,146417,12363,-0.022,-0.905,0.377,-1.707,-0.427,0.61,280.933
125354,146314,24053,-0.019,-0.896,0.365,-1.707,-0.427,0.61,280.937
125354,146395,12351,-0.018,-0.892,0.354,-0.793,-0.061,0.488,280.943
125347,146314,24053,-0.017,-0.901,0.362,-0.793,-0.061,0.488,280.947
125347,146417,12371,-0.017,-0.916,0.379,1.89,0.122,0.671,280.953
125365,146314,24053,-0.021,-0.922,0.38,1.89,0.122,0.671,280.957
125365,146406,12354,-0.022,-0.917,0.376,2.012,0.305,0.488,280.963
125345,146314,24053,-0.021,-0.91,0.373,2.012,0.305,0.488,280.967
125345,146396,12368,-0.024,-0.906,0.375,0.122,0.732,0.549,280.973
125361,146314,24053,-0.022,-0.906,0.377,0.122,0.732,0.549,280.977
125361,146389,12366,-0.023,-0.909,0.378,-0.061,0.671,0.61,280.983
125362,146314,24053,-0.024,-0.911,0.386,-0.061,0.671,0.61,280.987
125362,146386,12365,-0.028,-0.913,0.398,-0.122,0.732,0.183,280.993
125341,146314,24053,-0.031,-0.911,0.404,-0.122,0.732,0.183,280.996
125341,146386,12362,-0.028,-0.908,0.399,-0.183,0.427,-0.305,281.003
125327,146314,24053,-0.024,-0.9,0.383,-0.183,0.427,-0.305,281.006
125327,146379,12375,-0.021,-0.89,0.368,-0.61,0,-0.183,281.013
125338,146314,24053,-0.018,-0.887,0.367,-0.61,0,-0.183,281.016
125338,146365,12350,-0.021,-0.892,0.365,-0.915,0,0.793,281.022
125324,146314,24053,-0.021,-0.904,0.369,-0.915,0,0.793,281.026
125324,146392,12363,-0.016,-0.915,0.366,-0.732,0.122,0.488,281.032
125334,146314,24053,-0.014,-0.922,0.361,-0.732,0.122,0.488,281.036
125334,146365,12358,-0.016,-0.932,0.361,-1.768,0.244,-0.305,281.042
125336,146314,24053,-0.021,-0.938,0.367,-1.768,0.244,-0.305,281.046
125336,146387,12353,-0.02,-0.942,0.367,-1.098,0.122,-0.183,281.052
125343,146314,24053,-0.016,-0.934,0.364,-1.098,0.122,-0.183,281.056
125343,146396,12355,-0.014,-0.924,0.366,0.305,0.061,0.122,281.062
125371,146314,24053,-0.019,-0.917,0.37,0.305,0.061,0.122,281.066
125371,146420,12343,-0.025,-0.903,0.372,1.829,0.732,0,281.072
125350,146314,24053,-0.027,-0.894,0.38,1.829,0.732,0,281.076
125350,146428,12350,-0.025,-0.893,0.392,1.707,0.976,-0.427,281.082
125364,146314,24053,-0.024,-0.895,0.395,1.707,0.976,-0.427,281.086
125364,146398,12359,-0.032,-0.891,0.396,0.061,0.793,-0.549,281.092
125361,146314,24053,-0.03,-0.887,0.389,0.061,0.793,-0.549,281.095
125361,146395,12351,-0.027,-0.889,0.393,-1.28,0.549,-0.183,281.102
125363,146314,24053,-0.026,-0.891,0.39,-1.28,0.549,-0.183,281.105
125363,146396,12349,-0.024,-0.891,0.386,-0.549,-0.061,0.122,281.112
125352,146314,24053,-0.023,-0.894,0.38,-0.549,-0.061,0.122,281.115
125352,146399,12350,-0.024,-0.895,0.373,0.61,-0.183,0.793,281.121
125365,146314,24053,-0.023,-0.896,0.38,0.61,-0.183,0.793,281.125
125365,146412,12356,-0.02,-0.893,0.372,2.012,-0.122,1.341,281.131
125368,146314,24053,-0.015,-0.887,0.364,2.012,-0.122,1.341,281.135
125368,146398,12361,-0.013,-0.887,0.359,2.012,-0.122,1.707,281.141
125380,146314,24053,-0.017,-0.895,0.355,2.012,-0.122,1.707,281.145
125380,146396,12354,-0.021,-0.905,0.357,1.646,0.732,1.951,281.151
125337,146314,24053,-0.022,-0.915,0.363,1.646,0.732,1.951,281.155
125337,146379,12359,-0.022,-0.921,0.357,0,1.402,1.463,281.161
125361,146314,24053,-0.026,-0.93,0.357,0,1.402,1.463,281.165
125361,146390,12345,-0.025,-0.938,0.369,-0.549,1.707,1.159,281.171
125352,146314,24053,-0.025,-0.94,0.374,-0.549,1.707,1.159,281.175
125352,146414,12348,-0.023,-0.939,0.376,0.793,1.646,0.732,281.181
125333,146314,24053,-0.022,-0.931,0.38,0.793,1.646,0.732,281.185
125333,146398,12373,-0.023,-0.922,0.381,1.585,1.768,0.122,281.191
125327,146314,24053,-0.023,-0.917,0.387,1.585,1.768,0.122,281.194
125327,146407,12359,-0.025,-0.916,0.392,1.89,1.951,-0.305,281.201
125359,146314,24053,-0.029,-0.915,0.388,1.89,1.951,-0.305,281.204
125359,146384,12359,-0.027,-0.909,0.387,0.549,1.524,-0.61,281.211
125377,146314,24053,-0.027,-0.909,0.387,0.549,1.524,-0.61,281.214
125377,146410,12355,-0.025,-0.903,0.381,-0.915,0.793,-0.732,281.22
125372,146314,24053,-0.025,-0.903,0.381,-0.915,0.793,-0.732,281.224
125372,146389,12366,-0.019,-0.902,0.374,-0.793,0.549,-0.854,281.23
125361,146314,24053,-0.019,-0.902,0.374,-0.793,0.549,-0.854,281.234
125361,146409,12353,-0.013,-0.899,0.372,0,0.305,-0.854,281.24
125374,146314,24053,-0.013,-0.899,0.372,0,0.305,-0.854,281.244
125374,146398,12349,-0.015,-0.893,0.368,0.732,0.427,-0.427,281.25
125345,146314,24053,-0.015,-0.893,0.368,0.732,0.427,-0.427,281.254
125345,146392,12360,-0.018,-0.899,0.381,1.402,1.037,-0.122,281.26
125367,146314,24053,-0.018,-0.899,0.381,1.402,1.037,-0.122,281.264
125367,146380,12347,-0.026,-0.902,0.384,0.793,1.098,-0.366,281.27
125345,146314,24053,-0.026,-0.902,0.384,0.793,1.098,-0.366,281.274
125345,146385,12350,-0.025,-0.903,0.396,0,0.671,-0.305,281.28
125363,146314,24053,-0.025,-0.903,0.396,0,0.671,-0.305,281.284
125363,146375,12360,-0.024,-0.898,0.397,-0.671,0.183,0.244,281.29
125332,146314,24053,-0.024,-0.898,0.397,-0.671,0.183,0.244,281.293
125332,146383,12360,-0.026,-0.899,0.4,-1.037,0.305,0.427,281.3
125342,146314,24053,-0.026,-0.899,0.4,-1.037,0.305,0.427,281.303
125342,146409,12346,-0.029,-0.899,0.398,-1.159,0.183,0.122,281.31
125345,146314,24053,-0.029,-0.899,0.398,-1.159,0.183,0.122,281.313
125345,146423,12364,-0.024,-0.894,0.388,-1.707,-0.488,0.305,281.319
125353,146314,24053,-0.024,-0.894,0.388,-1.707,-0.488,0.305,281.323
125353,146370,12358,-0.017,-0.886,0.378,-1.646,-0.732,1.098,281.329
125343,146314,24053,-0.017,-0.886,0.378,-1.646,-0.732,1.098,281.333
125343,146392,12354,-0.016,-0.899,0.375,-0.854,-0.549,1.28,281.339
125338,146314,24053,-0.016,-0.899,0.375,-0.854,-0.549,1.28,281.343
125338,146378,12353,-0.013,-0.898,0.353,-1.463,-0.366,1.463,281.349
125341,146314,24053,-0.013,-0.898,0.353,-1.463,-0.366,1.463,281.353
125341,146404,12355,-0.013,-0.906,0.35,-1.463,-0.366,1.463,281.359
125345,146314,24053,-0.016,-0.919,0.361,-1.22,0.244,1.768,281.363
125345,146402,12350,-0.017,-0.924,0.363,-1.22,0.244,1.768,281.369
125361,146314,24053,-0.018,-0.935,0.369,-0.427,0.671,1.341,281.373
125361,146428,12359,-0.02,-0.936,0.37,-0.427,0.671,1.341,281.379
125358,146314,24053,-0.022,-0.933,0.373,-0.305,0.61,0.976,281.383
125358,146410,12358,-0.021,-0.934,0.377,-0.305,0.61,0.976,281.389
125368,146314,24053,-0.023,-0.931,0.379,-0.305,0.671,0.671,281.392
125368,146402,12355,-0.023,-0.928,0.386,-0.305,0.671,0.671,281.399
125363,146570,24053,-0.026,-0.915,0.392,0.366,0.915,0.183,281.402
125363,146432,12356,-0.029,-0.905,0.396,0.366,0.915,0.183,281.409
125351,146314,24053,-0.029,-0.903,0.396,0.305,0.854,-0.122,281.412
125351,146392,12349,-0.028,-0.902,0.391,0.305,0.854,-0.122,281.418
125350,146314,24053,-0.033,-0.897,0.389,0.244,0.427,-0.183,281.422
125350,146399,12357,-0.026,-0.894,0.387,0.244,0.427,-0.183,281.428
125353,146314,24053,-0.025,-0.89,0.38,0.061,0.122,-0.183,281.432
125353,146381,12347,-0.022,-0.882,0.37,0.061,0.122,-0.183,281.438
125320,146314,24053,-0.02,-0.881,0.359,-0.366,0.244,-0.061,281.442
125320,146356,12350,-0.021,-0.888,0.359,-0.366,0.244,-0.061,281.448
125298,146314,24053,-0.021,-0.9,0.365,0.061,0.061,0.61,281.452
125298,146368,12347,-0.022,-0.91,0.373,0.061,0.061,0.61,281.458
125278,146314,24053,-0.021,-0.911,0.374,0.671,0.061,0.793,281.462
125278,146328,12341,-0.022,-0.91,0.37,0.671,0.061,0.793,281.468
125264,146314,24053,-0.024,-0.911,0.375,0,0.488,0.915,281.472
125264,146332,12353,-0.024,-0.918,0.38,0,0.488,0.915,281.478
125258,146314,24053,-0.024,-0.921,0.39,-0.122,0.61,1.22,281.482
125258,146304,12335,-0.022,-0.916,0.398,-0.122,0.61,1.22,281.488
125270,146314,24053,-0.02,-0.913,0.385,-0.732,0.915,1.159,281.491
125270,146328,12349,-0.022,-0.907,0.378,-0.732,0.915,1.159,281.498
125261,146314,24053,-0.028,-0.906,0.379,-1.402,1.463,1.098,281.501
125261,146303,12329,-0.031,-0.907,0.379,-1.402,1.463,1.098,281.508
125260,146314,24053,-0.027,-0.903,0.383,0.122,0.549,1.22,281.511
125260,146324,12343,-0.018,-0.901,0.387,0.122,0.549,1.22,281.517
125285,146314,24053,-0.016,-0.897,0.38,0.549,0.305,0.549,281.521
125285,146343,12357,-0.018,-0.902,0.379,0.549,0.305,0.549,281.527
125311,146314,24053,-0.02,-0.901,0.379,0.732,0.732,0.488,281.531
125311,146332,12345,-0.017,-0.896,0.375,0.732,0.732,0.488,281.537
125297,146314,24053,-0.017,-0.899,0.367,0.244,0.488,1.037,281.541
125297,146352,12348,-0.016,-0.903,0.367,0.244,0.488,1.037,281.547
125323,146314,24053,-0.021,-0.905,0.367,0.732,0.671,1.037,281.551
125323,146363,12355,-0.021,-0.915,0.365,0.732,0.671,1.037,281.557
125339,146314,24053,-0.018,-0.921,0.37,0.793,0.549,0.244,281.561
125339,146389,12352,-0.02,-0.927,0.378,0.793,0.549,0.244,281.567
125328,146314,24053,-0.025,-0.925,0.381,-0.183,0.61,-0.122,281.571
125328,146402,12353,-0.028,-0.927,0.382,-0.183,0.61,-0.122,281.577
125346,146314,24053,-0.035,-0.928,0.381,-0.732,0.549,-0.488,281.581
125346,146403,12362,-0.035,-0.928,0.375,-0.732,0.549,-0.488,281.587
125367,146314,24053,-0.029,-0.925,0.368,-1.159,0.122,-1.646,281.59
125367,146412,12358,-0.026,-0.924,0.37,-1.159,0.122,-1.646,281.597
125391,146314,24053,-0.026,-0.922,0.376,-0.793,0.183,-2.317,281.6
125391,146410,12354,-0.026,-0.919,0.38,-0.793,0.183,-2.317,281.607
125389,146570,24053,-0.025,-0.908,0.378,0.488,0.244,-2.256,281.61
125389,146434,12346,-0.025,-0.892,0.373,0.488,0.244,-2.256,281.616
125413,146314,24053,-0.023,-0.88,0.375,1.159,-0.122,-1.89,281.62
125413,146423,12360,-0.02,-0.878,0.373,1.159,-0.122,-1.89,281.626
125415,146314,24053,-0.02,-0.872,0.373,2.073,0,-1.098,281.63
125415,146427,12353,-0.018,-0.868,0.376,2.073,0,-1.098,281.636
125416,146570,24053,-0.018,-0.873,0.379,1.951,0.061,-0.427,281.64
125416,146451,12359,-0.015,-0.876,0.376,1.951,0.061,-0.427,281.646
125427,146570,24053,-0.006,-0.872,0.357,1.098,0.305,0.427,281.65
125427,146445,12340,-0.003,-0.874,0.339,1.098,0.305,0.427,281.656
125394,146570,24053,-0.012,-0.893,0.356,1.585,1.341,1.768,281.66
125394,146456,12374,-0.022,-0.922,0.389,1.585,1.341,1.768,281.666
125406,146570,24053,-0.024,-0.934,0.393,3.415,1.646,2.439,281.67
125406,146451,12354,-0.027,-0.935,0.388,3.415,1.646,2.439,281.676
125427,146570,24053,-0.027,-0.929,0.386,1.768,1.341,1.951,281.68
125427,146447,12363,-0.026,-0.927,0.397,1.768,1.341,1.951,281.686
125443,146570,24053,-0.024,-0.92,0.412,0.671,1.037,1.402,281.689
125443,146469,12355,-0.024,-0.916,0.411,0.671,1.037,1.402,281.696
125444,146570,24053,-0.024,-0.915,0.408,-0.549,0.793,0.854,281.699
125444,146475,12355,-0.023,-0.916,0.403,-0.549,0.793,0.854,281.706
125447,146570,24053,-0.024,-0.917,0.399,-1.951,0.671,0,281.709
125447,146460,12349,-0.026,-0.914,0.389,-1.951,0.671,0,281.715
125441,146570,24053,-0.024,-0.904,0.383,-1.037,0.244,-0.488,281.719
125441,146456,12354,-0.026,-0.899,0.381,-1.037,0.244,-0.488,281.725
125409,146570,24053,-0.022,-0.892,0.379,0.183,-0.122,-0.244,281.729
125409,146456,12361,-0.019,-0.887,0.377,0.183,-0.122,-0.244,281.735
125388,146570,24053,-0.018,-0.879,0.374,0.366,-0.427,-0.061,281.739
125388,146442,12335,-0.016,-0.871,0.36,0.366,-0.427,-0.061,281.745
125374,146314,24053,-0.014,-0.877,0.358,-0.366,-0.427,0.244,281.749
125374,146431,12339,-0.018,-0.894,0.371,-0.366,-0.427,0.244,281.755
125385,146314,24053,-0.018,-0.906,0.367,0.488,0,0.915,281.759
125385,146422,12340,-0.022,-0.911,0.363,0.488,0,0.915,281.765
125370,146314,24053,-0.022,-0.92,0.371,0.305,0.366,1.28,281.769
125370,146406,12351,-0.022,-0.925,0.378,0.305,0.366,1.28,281.775
125352,146314,24053,-0.027,-0.924,0.38,0.732,0.732,1.159,281.779
125352,146371,12333,-0.027,-0.923,0.381,0.732,0.732,1.159,281.785
125335,146314,24053,-0.023,-0.922,0.385,0.305,0.732,0.671,281.788
125335,146342,12345,-0.027,-0.919,0.391,0.305,0.732,0.671,281.795
125304,146314,24053,-0.027,-0.919,0.391,0.305,0.732,0.671,281.798
125304,146332,12332,-0.026,-0.918,0.387,-0.549,0.793,0.427,281.804
125277,146314,24053,-0.026,-0.918,0.387,-0.549,0.793,0.427,281.808
125277,146348,12325,-0.031,-0.905,0.388,-0.122,0.732,0.366,281.814
125269,146314,24053,-0.031,-0.905,0.388,-0.122,0.732,0.366,281.818
125269,146299,12338,-0.023,-0.893,0.387,0.671,0.122,0,281.824
125280,146314,24053,-0.023,-0.893,0.387,0.671,0.122,0,281.828
125280,146298,12325,-0.025,-0.88,0.376,0.671,-0.061,-0.122,281.834
125257,146314,24053,-0.025,-0.88,0.376,0.671,-0.061,-0.122,281.838
125257,146274,12326,-0.019,-0.88,0.373,-0.488,-0.244,0.183,281.844
125230,146314,24053,-0.019,-0.88,0.373,-0.488,-0.244,0.183,281.848
125230,146276,12328,-0.018,-0.899,0.362,-0.854,0,0.427,281.854
125241,146314,24053,-0.018,-0.899,0.362,-0.854,0,0.427,281.858
125241,146269,12329,-0.025,-0.914,0.382,-0.427,0.488,0.793,281.864
125248,146314,24053,-0.025,-0.914,0.382,-0.427,0.488,0.793,281.868
125248,146292,12343,-0.024,-0.918,0.39,0.061,0.488,1.098,281.874
125237,146314,24053,-0.024,-0.918,0.39,0.061,0.488,1.098,281.878
125237,146317,12349,-0.025,-0.915,0.39,-0.183,0.305,0.976,281.884
125250,146314,24053,-0.025,-0.915,0.39,-0.183,0.305,0.976,281.887
125250,146297,12325,-0.023,-0.913,0.388,-0.305,0.305,0.671,281.894
125244,146314,24053,-0.023,-0.913,0.388,-0.305,0.305,0.671,281.897
125244,146290,12324,-0.024,-0.915,0.385,-0.122,0.61,0.549,281.904
125246,146314,24053,-0.024,-0.915,0.385,-0.122,0.61,0.549,281.907
125246,146308,12312,-0.022,-0.907,0.382,0.366,0.732,0.061,281.913
125251,146314,24053,-0.022,-0.907,0.382,0.366,0.732,0.061,281.917
125251,146275,12338,-0.02,-0.898,0.377,0.427,0.549,-0.183,281.923
125242,146314,24053,-0.02,-0.898,0.377,0.427,0.549,-0.183,281.927
125242,146279,12330,-0.022,-0.883,0.374,-0.244,0.244,0.183,281.933
125225,146314,24053,-0.022,-0.883,0.374,-0.244,0.244,0.183,281.937
125225,146262,12306,-0.014,-0.877,0.363,-1.646,0.244,0.549,281.943
125187,146314,24053,-0.009,-0.886,0.358,-1.646,0.244,0.549,281.947
125187,146248,12314,-0.014,-0.903,0.366,-1.22,0.305,0.793,281.953
125192,146314,24053,-0.02,-0.923,0.38,-1.22,0.305,0.793,281.957
125192,146224,12324,-0.023,-0.932,0.383,0.793,0.427,1.098,281.963
125190,146314,24053,-0.025,-0.926,0.38,0.793,0.427,1.098,281.967
125190,146223,12319,-0.028,-0.918,0.379,0.488,0.244,1.22,281.973
125164,146314,24053,-0.028,-0.908,0.38,0.488,0.244,1.22,281.977
125164,146240,12330,-0.026,-0.903,0.381,1.037,-0.122,1.159,281.983
125194,146314,24053,-0.023,-0.904,0.395,1.037,-0.122,1.159,281.986
125194,146265,12333,-0.023,-0.906,0.4,1.463,-0.427,0.671,281.993
125223,146314,24053,-0.023,-0.909,0.396,1.463,-0.427,0.671,281.996
125223,146272,12322,-0.023,-0.909,0.394,0.244,-0.061,0.244,282.002
125227,146314,24053,-0.024,-0.913,0.394,0.244,-0.061,0.244,282.006
125227,146265,12324,-0.026,-0.91,0.389,-1.037,0.061,-0.183,282.012
125257,146314,24053,-0.026,-0.907,0.387,-1.037,0.061,-0.183,282.016
125257,146295,12340,-0.023,-0.9,0.382,-1.585,-0.122,-0.244,282.022
125258,146314,24053,-0.022,-0.899,0.378,-1.585,-0.122,-0.244,282.026
125258,146294,12340,-0.019,-0.894,0.38,-1.28,-0.061,0.244,282.032
125264,146314,24053,-0.02,-0.89,0.38,-1.28,-0.061,0.244,282.036
125264,146301,12320,-0.022,-0.889,0.375,-0.854,0,0.549,282.042
125254,146314,24053,-0.023,-0.887,0.375,-0.854,0,0.549,282.046
125254,146305,12341,-0.019,-0.886,0.374,-0.976,0,0.61,282.052
125241,146314,24053,-0.02,-0.896,0.364,-0.976,0,0.61,282.056
125241,146324,12331,-0.023,-0.91,0.366,-0.488,0.854,1.098,282.062
125230,146314,24053,-0.026,-0.918,0.376,-0.488,0.854,1.098,282.066
125230,146292,12326,-0.03,-0.919,0.385,0.061,0.793,1.402,282.072
125238,146314,24053,-0.028,-0.914,0.38,0.061,0.793,1.402,282.076
125238,146296,12328,-0.026,-0.913,0.376,0,0.305,1.22,282.082
125217,146314,24053,-0.021,-0.913,0.379,0,0.305,1.22,282.085
125217,146281,12334,-0.02,-0.914,0.383,0.427,0.244,0.976,282.092
125236,146314,24053,-0.022,-0.915,0.382,0.427,0.244,0.976,282.095
125236,146276,12327,-0.02,-0.918,0.385,0,0.61,0.305,282.101
125243,146314,24053,-0.019,-0.918,0.385,0,0.61,0.305,282.105
125243,146314,12322,-0.021,-0.918,0.387,-0.244,0.549,-0.061,282.111
125239,146314,24053,-0.022,-0.915,0.381,-0.244,0.549,-0.061,282.115
125239,146309,12346,-0.018,-0.909,0.375,-0.854,0.366,-0.122,282.121
125260,146314,24053,-0.02,-0.904,0.375,-0.854,0.366,-0.122,282.125
125260,146313,12334,-0.021,-0.901,0.379,-0.366,0.427,-0.122,282.131
125262,146314,24053,-0.02,-0.897,0.379,-0.366,0.427,-0.122,282.135
125262,146298,12328,-0.018,-0.888,0.378,0.366,0.366,0.061,282.141
125269,146314,24053,-0.019,-0.886,0.374,0.366,0.366,0.061,282.145
125269,146306,12320,-0.018,-0.891,0.37,0.549,0.732,0.488,282.151
125250,146314,24053,-0.02,-0.896,0.377,0.549,0.732,0.488,282.155
125250,146299,12347,-0.027,-0.903,0.376,1.098,1.22,0.793,282.161
125263,146314,24053,-0.028,-0.911,0.374,1.098,1.22,0.793,282.165
125263,146291,12322,-0.029,-0.911,0.38,0.732,1.341,0.976,282.171
125234,146314,24053,-0.025,-0.907,0.383,0.732,1.341,0.976,282.174
125234,146295,12343,-0.026,-0.906,0.386,0.244,1.159,0.915,282.181
125257,146314,24053,-0.026,-0.911,0.389,0.244,1.159,0.915,282.184
125257,146304,12338,-0.027,-0.915,0.391,0.183,1.037,0.488,282.191
125252,146314,24053,-0.027,-0.917,0.389,0.183,1.037,0.488,282.194
125252,146327,12339,-0.028,-0.912,0.388,-0.305,0.732,0.427,282.2
125271,146314,24053,-0.026,-0.91,0.388,-0.305,0.732,0.427,282.204
125271,146313,12351,-0.027,-0.911,0.387,-0.549,0.427,0.305,282.21
125299,146314,24053,-0.026,-0.908,0.386,-0.549,0.427,0.305,282.214
125299,146348,12337,-0.027,-0.903,0.386,-0.671,0.244,-0.061,282.22
125260,146314,24053,-0.029,-0.901,0.39,-0.671,0.244,-0.061,282.224
125260,146334,12335,-0.025,-0.896,0.385,-0.854,-0.061,-0.061,282.23
125254,146314,24053,-0.027,-0.893,0.377,-0.854,-0.061,-0.061,282.234
125254,146309,12342,-0.025,-0.891,0.38,-1.22,-0.305,0.122,282.24
125258,146314,24053,-0.022,-0.893,0.384,-1.22,-0.305,0.122,282.244
125258,146287,12343,-0.022,-0.899,0.385,-0.854,-0.305,0.488,282.25
125244,146314,24053,-0.022,-0.898,0.382,-0.854,-0.305,0.488,282.254
125244,146313,12344,-0.02,-0.895,0.374,-0.732,-0.061,0.732,282.26
125255,146314,24053,-0.017,-0.893,0.368,-0.732,-0.061,0.732,282.264
125255,146289,12332,-0.017,-0.906,0.373,-0.305,0.366,1.098,282.27
125250,146314,24053,-0.017,-0.916,0.378,-0.305,0.366,1.098,282.273
125250,146289,12333,-0.024,-0.92,0.381,0.061,0.427,1.098,282.28
125247,146314,24053,-0.026,-0.923,0.382,0.061,0.427,1.098,282.283
125247,146301,12343,-0.028,-0.922,0.387,-0.854,0.366,0.732,282.29
125263,146314,24053,-0.026,-0.923,0.387,-0.854,0.366,0.732,282.293
125263,146322,12331,-0.027,-0.918,0.381,-1.037,0.122,0.488,282.299
125279,146314,24053,-0.024,-0.916,0.38,-1.037,0.122,0.488,282.303
125279,146332,12336,-0.022,-0.915,0.379,-0.793,0.122,0.244,282.309
125284,146314,24053,-0.02,-0.912,0.382,-0.793,0.122,0.244,282.313
125284,146352,12346,-0.026,-0.909,0.386,0.244,0.183,-0.122,282.319
125293,146314,24053,-0.025,-0.906,0.382,0.244,0.183,-0.122,282.323
125293,146338,12343,-0.023,-0.897,0.381,0.122,0.244,-0.244,282.329
125264,146314,24053,-0.027,-0.892,0.379,0.122,0.244,-0.244,282.333
125264,146330,12324,-0.027,-0.889,0.374,-0.122,0,0.122,282.339
125249,146314,24053,-0.026,-0.892,0.38,-0.122,0,0.122,282.343
125249,146314,12343,-0.022,-0.892,0.38,-0.427,-0.244,0.366,282.349
125257,146314,24053,-0.019,-0.887,0.374,-0.427,-0.244,0.366,282.353
125257,146291,12351,-0.017,-0.885,0.374,-1.22,-0.183,0.549,282.359
125249,146314,24053,-0.017,-0.891,0.367,-1.22,-0.183,0.549,282.363
125249,146296,12351,-0.024,-0.901,0.371,-0.61,0.305,1.037,282.369
125256,146314,24053,-0.025,-0.912,0.374,-0.61,0.305,1.037,282.372
125256,146288,12343,-0.025,-0.92,0.377,0.305,0.549,1.28,282.379
125271,146314,24053,-0.025,-0.92,0.377,0.305,0.549,1.28,282.382
125271,146307,12323,-0.025,-0.919,0.382,0.244,0.427,1.22,282.389
125256,146314,24053,-0.025,-0.919,0.382,0.244,0.427,1.22,282.392
125256,146303,12336,-0.024,-0.912,0.374,-0.183,0.488,0.976,282.398
125272,146314,24053,-0.024,-0.912,0.374,-0.183,0.488,0.976,282.402
125272,146300,12322,-0.016,-0.908,0.376,-0.976,0.671,0.488,282.408
125296,146314,24053,-0.016,-0.908,0.376,-0.976,0.671,0.488,282.412
125296,146345,12336,-0.022,-0.909,0.384,-0.671,0.732,0.427,282.418
125255,146314,24053,-0.022,-0.909,0.384,-0.671,0.732,0.427,282.422
125255,146332,12339,-0.024,-0.907,0.379,-0.671,0.427,0.549,282.428
125260,146314,24053,-0.024,-0.907,0.379,-0.671,0.427,0.549,282.432
125260,146330,12330,-0.02,-0.903,0.384,-0.366,0.366,0.488,282.438
125278,146314,24053,-0.02,-0.903,0.384,-0.366,0.366,0.488,282.442
125278,146297,12329,-0.018,-0.897,0.366,0.183,0.915,0.793,282.448
125250,146314,24053,-0.018,-0.897,0.366,0.183,0.915,0.793,282.452
125250,146290,12332,-0.026,-0.91,0.387,0.976,1.159,1.037,282.458
125254,146314,24053,-0.026,-0.91,0.387,0.976,1.159,1.037,282.462
125254,146295,12330,-0.029,-0.911,0.38,0.366,0.793,0.549,282.468
125247,146314,24053,-0.029,-0.911,0.38,0.366,0.793,0.549,282.471
125247,146314,12331,-0.029,-0.912,0.38,-0.305,0.732,0.183,282.478
125256,146314,24053,-0.029,-0.912,0.38,-0.305,0.732,0.183,282.481
125256,146301,12348,-0.027,-0.913,0.383,0.183,0.732,-0.061,282.488
125278,146314,24053,-0.027,-0.913,0.383,0.183,0.732,-0.061,282.491
125278,146303,12331,-0.02,-0.91,0.385,0,0.488,-0.244,282.497
125260,146314,24053,-0.02,-0.91,0.385,0,0.488,-0.244,282.501
125260,146304,12328,-0.027,-0.897,0.393,-0.244,0.488,-0.366,282.507
125272,146314,24053,-0.027,-0.897,0.393,-0.244,0.488,-0.366,282.511
125272,146279,12319,-0.029,-0.896,0.39,-1.159,0.427,-0.366,282.517
125273,146314,24053,-0.029,-0.896,0.39,-1.159,0.427,-0.366,282.521
125273,146324,12342,-0.029,-0.896,0.388,-1.159,0.427,-0.366,282.527
125268,146314,24053,-0.027,-0.898,0.385,-1.28,0.061,-0.183,282.531
125268,146297,12315,-0.025,-0.897,0.385,-1.28,0.061,-0.183,282.537
125250,146314,24053,-0.022,-0.892,0.381,-0.793,-0.671,0.061,282.541
125250,146301,12320,-0.019,-0.891,0.382,-0.793,-0.671,0.061,282.547
125256,146314,24053,-0.019,-0.89,0.382,-0.122,-0.732,0.488,282.551
125256,146294,12326,-0.018,-0.895,0.38,-0.122,-0.732,0.488,282.557
125238,146314,24053,-0.02,-0.895,0.376,-0.305,-0.549,1.098,282.561
125238,146298,12333,-0.021,-0.898,0.376,-0.305,-0.549,1.098,282.567
125249,146314,24053,-0.02,-0.906,0.375,-0.366,-0.183,1.585,282.57
125249,146273,12326,-0.02,-0.912,0.371,-0.366,-0.183,1.585,282.577
125229,146314,24053,-0.024,-0.919,0.372,-0.427,0.122,1.463,282.58
125229,146255,12317,-0.026,-0.921,0.37,-0.427,0.122,1.463,282.587
125220,146314,24053,-0.025,-0.92,0.373,-0.854,0.366,1.159,282.59
125220,146281,12332,-0.022,-0.915,0.373,-0.854,0.366,1.159,282.596
125239,146314,24053,-0.022,-0.921,0.378,-0.671,0.366,0.915,282.6
125239,146250,12332,-0.023,-0.921,0.38,-0.671,0.366,0.915,282.606
125236,146314,24053,-0.026,-0.922,0.384,0.061,0.122,0.61,282.61
125236,146277,12328,-0.025,-0.917,0.387,0.061,0.122,0.61,282.616
125251,146314,24053,-0.025,-0.913,0.386,0.122,0.366,0.122,282.62
125251,146289,12325,-0.027,-0.91,0.385,0.122,0.366,0.122,282.626
125253,146314,24053,-0.027,-0.905,0.383,0.061,0.854,-0.305,282.63
125253,146292,12318,-0.028,-0.905,0.377,0.061,0.854,-0.305,282.636
125237,146314,24053,-0.028,-0.897,0.381,0,0.488,-0.305,282.64
125237,146284,12324,-0.025,-0.893,0.381,0,0.488,-0.305,282.646
125236,146314,24053,-0.025,-0.891,0.372,0.061,0.061,-0.061,282.65
125236,146287,12337,-0.02,-0.885,0.374,0.061,0.061,-0.061,282.656
125247,146314,24053,-0.018,-0.886,0.375,0,0.305,0.122,282.66
125247,146302,12336,-0.017,-0.893,0.372,0,0.305,0.122,282.666
125248,146314,24053,-0.018,-0.897,0.367,0.061,0.976,0.671,282.669
125248,146285,12332,-0.022,-0.903,0.368,0.061,0.976,0.671,282.676
125268,146314,24053,-0.027,-0.91,0.369,0.366,1.22,1.463,282.679
125268,146303,12325,-0.025,-0.917,0.369,0.366,1.22,1.463,282.686
125242,146314,24053,-0.026,-0.919,0.373,0.793,1.341,1.524,282.689
125242,146282,12331,-0.024,-0.92,0.375,0.793,1.341,1.524,282.695
125250,146314,24053,-0.026,-0.922,0.379,0.671,0.976,1.22,282.699
125250,146289,12321,-0.022,-0.92,0.379,0.671,0.976,1.22,282.705
125237,146314,24053,-0.021,-0.919,0.381,0.183,0.854,1.098,282.709
125237,146301,12342,-0.025,-0.92,0.383,0.183,0.854,1.098,282.715
125251,146314,24053,-0.026,-0.923,0.389,0.366,0.732,0.793,282.719
125251,146296,12330,-0.026,-0.923,0.394,0.366,0.732,0.793,282.725
125242,146314,24053,-0.03,-0.917,0.401,1.28,0.671,0.061,282.729
125242,146280,12320,-0.031,-0.906,0.401,1.28,0.671,0.061,282.735
125222,146314,24053,-0.03,-0.899,0.395,0.427,0.244,-0.488,282.739
125222,146260,12321,-0.03,-0.895,0.387,0.427,0.244,-0.488,282.745
125221,146314,24053,-0.026,-0.89,0.372,-0.732,-0.305,-0.427,282.749
125221,146265,12326,-0.021,-0.889,0.371,-0.732,-0.305,-0.427,282.755
125239,146314,24053,-0.019,-0.893,0.375,-0.671,-0.305,-0.305,282.759
125239,146259,12343,-0.016,-0.896,0.372,-0.671,-0.305,-0.305,282.765
125217,146314,24053,-0.016,-0.906,0.378,0.427,0.061,-0.305,282.768
125217,146245,12340,-0.017,-0.909,0.376,0.427,0.061,-0.305,282.775
125255,146314,24053,-0.022,-0.909,0.368,1.037,0.793,-0.061,282.778
125255,146266,12324,-0.022,-0.907,0.367,1.037,0.793,-0.061,282.785
125240,146314,24053,-0.02,-0.906,0.365,1.22,1.28,0.244,282.788
125240,146269,12334,-0.02,-0.912,0.363,1.22,1.28,0.244,282.794
125246,146314,24053,-0.025,-0.918,0.369,2.256,1.585,0.549,282.798
125246,146286,12325,-0.027,-0.925,0.383,2.256,1.585,0.549,282.804
125258,146314,24053,-0.027,-0.926,0.39,2.561,1.098,0.244,282.808
125258,146307,12338,-0.033,-0.92,0.391,2.561,1.098,0.244,282.814
125269,146314,24053,-0.031,-0.909,0.394,0.61,0.793,-0.427,282.818
125269,146288,12324,-0.032,-0.906,0.395,0.61,0.793,-0.427,282.824
125270,146314,24053,-0.034,-0.902,0.39,-0.61,0.427,-0.671,282.828
125270,146275,12343,-0.032,-0.9,0.392,-0.61,0.427,-0.671,282.834
125259,146314,24053,-0.03,-0.897,0.397,-1.159,-0.122,-0.915,282.838
125259,146266,12316,-0.026,-0.896,0.401,-1.159,-0.122,-0.915,282.844
125235,146314,24053,-0.022,-0.89,0.385,-1.037,-0.427,-1.22,282.848
125235,146288,12330,-0.023,-0.885,0.375,-1.037,-0.427,-1.22,282.854
125231,146314,24053,-0.018,-0.885,0.378,-0.427,-0.366,-0.793,282.858
125231,146256,12323,-0.014,-0.884,0.378,-0.427,-0.366,-0.793,282.864
125232,146314,24053,-0.01,-0.879,0.362,0,0,0.122,282.867
125232,146282,12322,-0.007,-0.881,0.357,0,0,0.122,282.874
125222,146314,24053,-0.013,-0.895,0.371,1.159,1.098,1.037,282.877
125222,146244,12324,-0.021,-0.908,0.379,1.159,1.098,1.037,282.884
125228,146314,24053,-0.02,-0.914,0.386,2.378,1.037,1.098,282.887
125228,146248,12333,-0.022,-0.914,0.388,2.378,1.037,1.098,282.893
125216,146314,24053,-0.025,-0.911,0.387,0.732,0.793,0.976,282.897
125216,146270,12331,-0.028,-0.91,0.387,0.732,0.793,0.976,282.903
125226,146314,24053,-0.027,-0.912,0.391,-0.244,0.793,0.671,282.907
125226,146271,12336,-0.028,-0.911,0.394,-0.244,0.793,0.671,282.913
125231,146314,24053,-0.026,-0.91,0.392,-0.427,0.305,0.366,282.917
125231,146280,12344,-0.024,-0.914,0.389,-0.427,0.305,0.366,282.923
125242,146314,24053,-0.023,-0.917,0.388,-0.305,-0.122,-0.061,282.927
125242,146273,12343,-0.021,-0.915,0.382,-0.305,-0.122,-0.061,282.933
125230,146314,24053,-0.022,-0.907,0.38,-0.244,-0.244,-0.183,282.937
125230,146297,12338,-0.026,-0.9,0.379,-0.244,-0.244,-0.183,282.943
125231,146314,24053,-0.023,-0.896,0.38,-0.122,-0.183,0.061,282.947
125231,146241,12346,-0.018,-0.894,0.372,-0.122,-0.183,0.061,282.953
125254,146314,24053,-0.02,-0.894,0.367,-0.122,0,0.305,282.957
125254,146263,12331,-0.021,-0.896,0.375,-0.122,0,0.305,282.963
125213,146314,24053,-0.021,-0.896,0.375,-0.122,0,0.305,282.966
125213,146245,12336,-0.023,-0.906,0.383,0.427,0.183,0.793,282.973
125200,146314,24053,-0.023,-0.906,0.383,0.427,0.183,0.793,282.976
125200,146257,12330,-0.028,-0.91,0.386,0.427,0.366,0.854,282.983
125198,146314,24053,-0.028,-0.91,0.386,0.427,0.366,0.854,282.986
125198,146273,12337,-0.025,-0.904,0.393,-0.061,0.549,0.488,282.992
125180,146314,24053,-0.025,-0.904,0.393,-0.061,0.549,0.488,282.996
125180,146260,12333,-0.029,-0.901,0.39,-0.488,0.366,0.427,283.002
125196,146314,24053,-0.029,-0.901,0.39,-0.488,0.366,0.427,283.006
125196,146233,12338,-0.026,-0.909,0.388,-1.402,0.549,0.366,283.012
125145,146314,24053,-0.026,-0.909,0.388,-1.402,0.549,0.366,283.016
125145,146216,12347,-0.023,-0.917,0.39,-1.098,0.305,0.061,283.022
125212,146314,24053,-0.023,-0.917,0.39,-1.098,0.305,0.061,283.026
125212,146215,12326,-0.026,-0.912,0.381,-0.854,-0.122,-0.305,283.032
125190,146314,24053,-0.026,-0.912,0.381,-0.854,-0.122,-0.305,283.036
125190,146224,12331,-0.02,-0.901,0.376,-0.549,-0.549,-0.183,283.042
125205,146314,24053,-0.02,-0.901,0.376,-0.549,-0.549,-0.183,283.046
125205,146224,12324,-0.014,-0.896,0.372,0,-0.854,0.061,283.052
125186,146314,24053,-0.014,-0.896,0.372,0,-0.854,0.061,283.056
125186,146224,12332,-0.02,-0.898,0.376,0.183,-0.732,0.183,283.062
125183,146314,24053,-0.02,-0.898,0.376,0.183,-0.732,0.183,283.065
125183,146190,12324,-0.022,-0.9,0.375,0,-0.244,0.183,283.072
125144,146314,24053,-0.022,-0.9,0.375,0,-0.244,0.183,283.075
125144,146208,12317,-0.023,-0.902,0.369,-1.22,0.183,0.305,283.081
125153,146314,24053,-0.023,-0.902,0.369,-1.22,0.183,0.305,283.085
125153,146180,12314,-0.022,-0.913,0.379,-1.829,0.305,0.427,283.091
125111,146058,24053,-0.022,-0.913,0.379,-1.829,0.305,0.427,283.095
125111,146158,12315,-0.023,-0.915,0.385,-0.915,0.427,0.366,283.101
125132,146058,24053,-0.023,-0.915,0.385,-0.915,0.427,0.366,283.105
125132,146149,12322,-0.022,-0.911,0.375,-0.732,0.61,0.122,283.111
125154,146314,24053,-0.025,-0.908,0.38,-0.732,0.61,0.122,283.115
125154,146190,12307,-0.023,-0.908,0.385,-0.61,0.671,0.183,283.121
125145,146314,24053,-0.024,-0.91,0.387,-0.61,0.671,0.183,283.125
125145,146180,12310,-0.024,-0.911,0.384,0.061,0.61,0.427,283.131
125162,146314,24053,-0.025,-0.911,0.385,0.061,0.61,0.427,283.135
125162,146222,12318,-0.026,-0.911,0.387,0.244,0.427,0.61,283.141
125151,146314,24053,-0.022,-0.903,0.381,0.244,0.427,0.61,283.145
125151,146219,12322,-0.022,-0.899,0.383,0.976,0.183,0.549,283.151
125163,146314,24053,-0.023,-0.894,0.38,0.976,0.183,0.549,283.155
125163,146176,12323,-0.022,-0.897,0.373,1.037,0.366,0.488,283.161
125123,146058,24053,-0.022,-0.903,0.382,1.037,0.366,0.488,283.164
125123,146163,12312,-0.02,-0.908,0.38,1.037,0.061,0.793,283.171
125120,146058,24053,-0.021,-0.903,0.375,1.037,0.061,0.793,283.174
125120,146147,12315,-0.022,-0.902,0.376,0.366,0.183,0.732,283.181
125132,146314,24053,-0.022,-0.903,0.379,0.366,0.183,0.732,283.184
125132,146183,12306,-0.024,-0.903,0.381,-0.366,0.549,0.366,283.19
125125,146058,24053,-0.023,-0.906,0.384,-0.366,0.549,0.366,283.194
125125,146173,12311,-0.025,-0.908,0.39,-0.61,0.305,0.244,283.2
125139,146058,24053,-0.023,-0.909,0.389,-0.61,0.305,0.244,283.204
125139,146164,12316,-0.023,-0.903,0.387,-0.793,0.061,0.427,283.21
125144,146058,24053,-0.022,-0.902,0.388,-0.793,0.061,0.427,283.214
125144,146166,12302,-0.022,-0.901,0.387,-1.037,0,0.305,283.22
125141,146314,24053,-0.023,-0.903,0.386,-1.037,0,0.305,283.224
125141,146181,12313,-0.025,-0.905,0.394,-0.549,0,0.366,283.23
125141,146058,24053,-0.02,-0.901,0.389,-0.549,0,0.366,283.234
125141,146174,12317,-0.02,-0.902,0.386,-0.61,0.366,0.488,283.24
125133,146058,24053,-0.019,-0.9,0.381,-0.61,0.366,0.488,283.244
125133,146160,12302,-0.02,-0.898,0.377,-0.976,0.366,0.915,283.25
125121,146314,24053,-0.017,-0.891,0.368,-0.976,0.366,0.915,283.254
125121,146193,12310,-0.016,-0.89,0.368,-0.488,0.305,1.402,283.26
125142,146058,24053,-0.016,-0.897,0.371,-0.488,0.305,1.402,283.263
125142,146152,12305,-0.016,-0.903,0.371,0.61,0.61,1.341,283.27
125119,146314,24053,-0.021,-0.912,0.375,0.61,0.61,1.341,283.273
125119,146179,12315,-0.025,-0.924,0.38,0.427,0.671,1.159,283.279
125139,146314,24053,-0.029,-0.926,0.384,0.427,0.671,1.159,283.283
125139,146184,12328,-0.03,-0.924,0.385,-0.549,0.671,0.976,283.289
125120,146058,24053,-0.034,-0.925,0.384,-0.549,0.671,0.976,283.293
125120,146172,12311,-0.033,-0.919,0.386,-1.22,0.244,0.427,283.299
125133,146058,24053,-0.027,-0.915,0.381,-1.22,0.244,0.427,283.303
125133,146140,12312,-0.029,-0.908,0.38,-1.341,-0.427,-0.183,283.309
125140,146058,24053,-0.027,-0.908,0.384,-1.341,-0.427,-0.183,283.313
125140,146154,12297,-0.026,-0.906,0.384,-0.671,-0.427,-0.549,283.319
125132,146058,24053,-0.024,-0.902,0.387,-0.671,-0.427,-0.549,283.323
125132,146161,12309,-0.026,-0.898,0.391,-0.305,-0.427,-0.61,283.329
125145,146058,24053,-0.024,-0.891,0.385,-0.305,-0.427,-0.61,283.333
125145,146136,12304,-0.023,-0.888,0.381,-0.427,-0.183,-0.305,283.339
125135,146058,24053,-0.022,-0.895,0.374,-0.427,-0.183,-0.305,283.343
125135,146154,12302,-0.021,-0.894,0.375,-0.244,0.122,0.244,283.349
125158,146314,24053,-0.019,-0.891,0.371,-0.244,0.122,0.244,283.353
125158,146178,12309,-0.017,-0.888,0.368,-0.122,0,0.915,283.359
125156,146314,24053,-0.017,-0.897,0.372,-0.122,0,0.915,283.362
125156,146192,12318,-0.018,-0.91,0.379,1.28,0.549,1.341,283.369
125175,146314,24053,-0.019,-0.908,0.379,1.28,0.549,1.341,283.372
125175,146195,12316,-0.02,-0.906,0.378,1.524,1.098,1.463,283.378
125177,146314,24053,-0.022,-0.906,0.377,1.524,1.098,1.463,283.382
125177,146199,12299,-0.026,-0.908,0.38,0.122,0.976,1.402,283.388
125160,146314,24053,-0.023,-0.911,0.391,0.122,0.976,1.402,283.392
125160,146202,12313,-0.026,-0.915,0.39,-0.793,0.915,1.098,283.398
125180,146314,24053,-0.026,-0.918,0.391,-0.793,0.915,1.098,283.402
125180,146231,12310,-0.027,-0.923,0.392,-1.646,0.671,0.427,283.408
125190,146314,24053,-0.028,-0.923,0.39,-1.646,0.671,0.427,283.412
125190,146192,12307,-0.026,-0.923,0.389,-1.341,0.183,0.061,283.418
125160,146314,24053,-0.023,-0.921,0.388,-1.341,0.183,0.061,283.422
125160,146192,12301,-0.027,-0.916,0.381,-0.366,0.305,-0.061,283.428
125148,146314,24053,-0.029,-0.909,0.382,-0.366,0.305,-0.061,283.432
125148,146179,12312,-0.025,-0.901,0.382,0.671,0.427,-0.061,283.438
125147,146314,24053,-0.025,-0.894,0.375,0.671,0.427,-0.061,283.442
125147,146180,12307,-0.025,-0.89,0.369,1.098,0.366,0.244,283.448
125132,146058,24053,-0.022,-0.892,0.366,1.098,0.366,0.244,283.452
125132,146166,12301,-0.019,-0.895,0.365,1.159,0.427,0.488,283.458
125150,146058,24053,-0.022,-0.897,0.374,1.159,0.427,0.488,283.461
125150,146168,12311,-0.022,-0.898,0.374,0.793,0.427,0.793,283.468
125141,146314,24053,-0.021,-0.892,0.371,0.793,0.427,0.793,283.471
125141,146191,12324,-0.026,-0.891,0.37,-0.366,0.488,1.098,283.478
125137,146314,24053,-0.026,-0.897,0.386,-0.366,0.488,1.098,283.481
125137,146195,12322,-0.027,-0.906,0.407,-0.427,0.732,0.854,283.487
125142,146314,24053,-0.027,-0.913,0.406,-0.427,0.732,0.854,283.491
125142,146177,12323,-0.028,-0.914,0.399,-1.768,1.037,0.305,283.497
125158,146314,24053,-0.031,-0.914,0.389,-1.768,1.037,0.305,283.501
125158,146215,12321,-0.032,-0.913,0.386,-2.744,0.671,0.61,283.507
125156,146314,24053,-0.03,-0.908,0.39,-2.744,0.671,0.61,283.511
125156,146205,12342,-0.024,-0.9,0.387,-1.524,-0.183,0.671,283.517
125168,146314,24053,-0.022,-0.898,0.387,-1.524,-0.183,0.671,283.521
125168,146200,12316,-0.017,-0.903,0.387,-0.122,-0.366,0.122,283.527
125163,146314,24053,-0.017,-0.911,0.384,-0.122,-0.366,0.122,283.531
125163,146204,12336,-0.017,-0.906,0.381,0.427,-0.183,0.122,283.537
125175,146314,24053,-0.024,-0.905,0.378,0.427,-0.183,0.122,283.541
125175,146178,12305,-0.025,-0.899,0.368,-0.793,-0.061,0.671,283.547
125140,146314,24053,-0.025,-0.899,0.368,-0.793,-0.061,0.671,283.551
125140,146194,12330,-0.022,-0.899,0.371,-1.037,-0.183,0.915,283.557
125154,146058,24053,-0.022,-0.899,0.371,-1.037,-0.183,0.915,283.56
125154,146169,12326,-0.02,-0.905,0.383,-1.159,-0.488,0.61,283.567
125155,146314,24053,-0.02,-0.905,0.383,-1.159,-0.488,0.61,283.57
125155,146191,12328,-0.025,-0.904,0.389,-2.317,-0.488,0.854,283.576
125153,146058,24053,-0.025,-0.904,0.389,-2.317,-0.488,0.854,283.58
125153,146174,12321,-0.025,-0.897,0.384,-3.415,-0.366,0.915,283.586
125168,146314,24053,-0.025,-0.897,0.384,-3.415,-0.366,0.915,283.59
125168,146199,12328,-0.021,-0.888,0.362,-4.268,-0.122,0.976,283.596
125180,146314,24053,-0.021,-0.888,0.362,-4.268,-0.122,0.976,283.6
125180,146205,12330,-0.02,-0.901,0.363,-3.354,0.305,1.22,283.606
125183,146314,24053,-0.02,-0.901,0.363,-3.354,0.305,1.22,283.61
125183,146213,12318,-0.023,-0.924,0.373,-1.22,0.427,0.976,283.616
125180,146314,24053,-0.023,-0.924,0.373,-1.22,0.427,0.976,283.62
125180,146221,12327,-0.023,-0.924,0.371,-1.098,0.122,1.037,283.626
125183,146314,24053,-0.023,-0.924,0.371,-1.098,0.122,1.037,283.63
125183,146209,12328,-0.021,-0.918,0.368,-0.549,0.427,1.524,283.636
125181,146314,24053,-0.021,-0.918,0.368,-0.549,0.427,1.524,283.64
125181,146210,12320,-0.022,-0.91,0.378,0.915,0.793,1.22,283.646
125171,146314,24053,-0.022,-0.91,0.378,0.915,0.793,1.22,283.649
125171,146187,12339,-0.022,-0.91,0.387,1.22,0.793,0.671,283.656
125151,146314,24053,-0.022,-0.91,0.387,1.22,0.793,0.671,283.659
125151,146210,12327,-0.03,-0.906,0.383,0.061,0.732,0.488,283.666
125151,146314,24053,-0.03,-0.906,0.383,0.061,0.732,0.488,283.669
125151,146195,12334,-0.028,-0.903,0.385,-1.341,0.488,0.305,283.675
125147,146314,24053,-0.028,-0.903,0.385,-1.341,0.488,0.305,283.679
125147,146185,12330,-0.03,-0.907,0.381,-1.585,0.305,0.305,283.685
125148,146314,24053,-0.03,-0.907,0.381,-1.585,0.305,0.305,283.689
125148,146199,12333,-0.029,-0.904,0.38,-1.585,0.305,0.305,283.695
125151,146314,24053,-0.024,-0.903,0.38,-1.28,0,0.488,283.699
125151,146176,12344,-0.025,-0.901,0.378,-1.28,0,0.488,283.705
125177,146314,24053,-0.023,-0.901,0.371,-0.61,0.122,0.488,283.709
125177,146189,12327,-0.026,-0.9,0.371,-0.61,0.122,0.488,283.715
125167,146314,24053,-0.027,-0.902,0.367,-0.244,0.305,0.915,283.719
125167,146208,12326,-0.026,-0.903,0.369,-0.244,0.305,0.915,283.725
125140,146058,24053,-0.028,-0.908,0.376,0.305,0.427,1.098,283.729
125140,146173,12342,-0.031,-0.911,0.379,0.305,0.427,1.098,283.735
125152,146058,24053,-0.029,-0.908,0.372,-0.061,0.366,1.098,283.739
125152,146172,12327,-0.026,-0.904,0.37,-0.061,0.366,1.098,283.745
125151,146314,24053,-0.021,-0.905,0.372,-0.549,0.244,1.28,283.749
125151,146197,12329,-0.022,-0.911,0.377,-0.549,0.244,1.28,283.755
125130,146058,24053,-0.023,-0.916,0.382,0.305,0.366,1.341,283.758
125130,146165,12345,-0.022,-0.91,0.381,0.305,0.366,1.341,283.765
125134,146058,24053,-0.024,-0.902,0.382,-0.122,0.854,1.098,283.768
125134,146169,12321,-0.028,-0.902,0.388,-0.122,0.854,1.098,283.774
125156,146058,24053,-0.027,-0.907,0.385,-0.427,0.61,1.22,283.778
125156,146164,12319,-0.03,-0.905,0.385,-0.427,0.61,1.22,283.784
125157,146058,24053,-0.027,-0.905,0.375,-0.366,0.488,0.915,283.788
125157,146161,12365,-0.026,-0.906,0.369,-0.366,0.488,0.915,283.794
125135,146058,24053,-0.021,-0.917,0.371,-0.244,0.427,0.183,283.798
125135,146161,12333,-0.023,-0.929,0.372,-0.244,0.427,0.183,283.804
125136,146058,24053,-0.026,-0.931,0.376,0.366,0,0,283.808
125136,146151,12332,-0.028,-0.925,0.376,0.366,0,0,283.814
125118,146058,24053,-0.028,-0.917,0.379,0.488,-0.183,0.061,283.818
125118,146142,12329,-0.024,-0.911,0.377,0.488,-0.183,0.061,283.824
125114,146314,24053,-0.026,-0.904,0.374,0.854,0.061,-0.122,283.828
125114,146177,12325,-0.025,-0.902,0.383,0.854,0.061,-0.122,283.834
125110,146058,24053,-0.025,-0.901,0.393,0.61,0.244,-0.305,283.838
125110,146120,12317,-0.029,-0.906,0.392,0.61,0.244,-0.305,283.844
125105,146058,24053,-0.029,-0.91,0.384,0,0.488,-0.305,283.848
125105,146148,12315,-0.03,-0.914,0.39,0,0.488,-0.305,283.854
125093,146058,24053,-0.03,-0.916,0.39,-0.122,0.61,-0.122,283.857
125093,146131,12335,-0.03,-0.908,0.377,-0.122,0.61,-0.122,283.864
125105,146058,24053,-0.033,-0.897,0.371,-0.244,0.61,0.305,283.867
125105,146135,12316,-0.031,-0.897,0.373,-0.244,0.61,0.305,283.873
125099,146058,24053,-0.025,-0.902,0.372,0.549,0.244,0.427,283.877
125099,146141,12318,-0.021,-0.9,0.365,0.549,0.244,0.427,283.883
125114,146058,24053,-0.023,-0.897,0.361,1.402,0.183,0.305,283.887
125114,146139,12328,-0.021,-0.887,0.37,1.402,0.183,0.305,283.893
125138,146058,24053,-0.022,-0.888,0.369,1.402,0.244,0.183,283.897
125138,146144,12347,-0.024,-0.896,0.371,1.402,0.244,0.183,283.903
125134,146058,24053,-0.025,-0.907,0.379,1.524,-0.122,0.61,283.907
125134,146161,12326,-0.029,-0.912,0.381,1.524,-0.122,0.61,283.913
125154,146314,24053,-0.03,-0.914,0.375,0.793,0,0.244,283.917
125154,146188,12317,-0.028,-0.911,0.368,0.793,0,0.244,283.923
125142,146058,24053,-0.026,-0.915,0.374,-0.244,-0.183,-0.305,283.927
125142,146136,12316,-0.021,-0.92,0.373,-0.244,-0.183,-0.305,283.933
125138,146058,24053,-0.018,-0.916,0.373,0.61,0,-0.122,283.937
125138,146161,12330,-0.02,-0.909,0.369,0.61,0,-0.122,283.943
125143,146058,24053,-0.02,-0.905,0.369,1.341,0.488,0.122,283.946
125143,146152,12316,-0.021,-0.902,0.374,1.341,0.488,0.122,283.953
125113,146058,24053,-0.025,-0.902,0.379,2.317,0.854,0.244,283.956
125113,146161,12324,-0.025,-0.9,0.382,2.317,0.854,0.244,283.963
125131,146058,24053,-0.026,-0.898,0.386,2.012,0.732,0.305,283.966
125131,146136,12328,-0.028,-0.892,0.388,2.012,0.732,0.305,283.972
125148,146058,24053,-0.025,-0.892,0.387,0.488,0.427,0.244,283.976
125148,146157,12334,-0.022,-0.887,0.379,0.488,0.427,0.244,283.982
125149,146058,24053,-0.021,-0.89,0.384,-1.402,0.122,0.305,283.986
125149,146169,12334,-0.021,-0.893,0.387,-1.402,0.122,0.305,283.992
125153,146314,24053,-0.024,-0.898,0.384,-2.378,0.244,0.488,283.996
125153,146185,12309,-0.028,-0.906,0.379,-2.378,0.244,0.488,284.002
125140,146314,24053,-0.025,-0.909,0.378,-2.195,0.305,0.488,284.006
125140,146178,12352,-0.025,-0.919,0.38,-2.195,0.305,0.488,284.012
125169,146314,24053,-0.027,-0.927,0.385,-1.098,0.122,0.427,284.016
125169,146177,12335,-0.029,-0.928,0.383,-1.098,0.122,0.427,284.022
125165,146058,24053,-0.028,-0.924,0.377,-0.793,0.244,0.366,284.026
125165,146159,12328,-0.025,-0.917,0.377,-0.793,0.244,0.366,284.032
125146,146058,24053,-0.022,-0.909,0.376,-0.854,0.061,0.366,284.036
125146,146173,12353,-0.027,-0.907,0.378,-0.854,0.061,0.366,284.042
125154,146058,24053,-0.023,-0.907,0.38,0.183,0.183,0.305,284.045
125154,146153,12325,-0.022,-0.91,0.376,0.183,0.183,0.305,284.052
125122,146058,24053,-0.023,-0.91,0.38,0.305,0.366,-0.061,284.055
125122,146157,12334,-0.026,-0.907,0.374,0.305,0.366,-0.061,284.062
125136,146058,24053,-0.028,-0.904,0.377,0.183,0.427,0.061,284.065
125136,146155,12341,-0.027,-0.899,0.38,0.183,0.427,0.061,284.071
125107,146058,24053,-0.023,-0.896,0.382,0.305,0.061,0.427,284.075
125107,146138,12334,-0.026,-0.892,0.384,0.305,0.061,0.427,284.081
125130,146058,24053,-0.024,-0.889,0.38,-0.061,0.061,0.427,284.085
125130,146165,12340,-0.025,-0.894,0.374,-0.061,0.061,0.427,284.091
125104,146058,24053,-0.025,-0.897,0.377,-0.488,0.244,0.61,284.095
125104,146148,12323,-0.024,-0.898,0.38,-0.488,0.244,0.61,284.101
125113,146058,24053,-0.019,-0.897,0.379,-0.671,0,1.037,284.105
125113,146141,12322,-0.022,-0.901,0.379,-0.671,0,1.037,284.111
125102,146058,24053,-0.022,-0.906,0.378,-0.427,0.366,0.915,284.115
125102,146146,12322,-0.023,-0.916,0.381,-0.427,0.366,0.915,284.121
125139,146058,24053,-0.025,-0.92,0.385,-0.671,0.61,0.671,284.125
125139,146139,12321,-0.027,-0.921,0.383,-0.671,0.61,0.671,284.131
125117,146058,24053,-0.027,-0.921,0.383,-0.671,0.61,0.671,284.135
125117,146128,12341,-0.028,-0.923,0.386,-1.098,0.854,0.61,284.141
125108,146058,24053,-0.028,-0.923,0.386,-1.098,0.854,0.61,284.144
125108,146123,12331,-0.03,-0.911,0.378,-1.402,0.671,0.305,284.151
125147,146058,24053,-0.03,-0.911,0.378,-1.402,0.671,0.305,284.154
125147,146131,12333,-0.028,-0.91,0.38,-0.915,0.854,0,284.161
125134,146058,24053,-0.028,-0.91,0.38,-0.915,0.854,0,284.164
125134,146136,12329,-0.029,-0.901,0.37,0.244,0.854,-0.122,284.17
125114,146058,24053,-0.029,-0.901,0.37,0.244,0.854,-0.122,284.174
125114,146132,12326,-0.022,-0.895,0.37,0.244,0.305,-0.122,284.18
125101,146058,24053,-0.022,-0.895,0.37,0.244,0.305,-0.122,284.184
125101,146118,12323,-0.022,-0.9,0.376,0.305,0,0,284.19
125102,146058,24053,-0.022,-0.9,0.376,0.305,0,0,284.194
125102,146113,12320,-0.022,-0.893,0.379,-0.549,0.244,0.122,284.2
125098,146058,24053,-0.022,-0.893,0.379,-0.549,0.244,0.122,284.204
125098,146113,12333,-0.023,-0.897,0.372,-2.683,0.183,0.305,284.21
125087,146058,24053,-0.023,-0.897,0.372,-2.683,0.183,0.305,284.214
125087,146105,12336,-0.021,-0.917,0.38,-3.171,-0.061,0.427,284.22
125091,146058,24053,-0.021,-0.917,0.38,-3.171,-0.061,0.427,284.224
125091,146101,12323,-0.024,-0.92,0.38,-2.256,0.183,0.427,284.23
125086,146058,24053,-0.024,-0.92,0.38,-2.256,0.183,0.427,284.234
125086,146118,12318,-0.025,-0.91,0.387,-1.768,0.427,0.366,284.24
125090,146058,24053,-0.025,-0.91,0.387,-1.768,0.427,0.366,284.243
125090,146123,12319,-0.026,-0.902,0.39,-1.159,0.305,0.61,284.25
125104,146058,24053,-0.026,-0.902,0.39,-1.159,0.305,0.61,284.253
125104,146130,12332,-0.03,-0.898,0.386,-0.549,0.244,0.61,284.26
125091,146058,24053,-0.03,-0.898,0.386,-0.549,0.244,0.61,284.263
125091,146150,12331,-0.026,-0.901,0.369,-1.829,0.061,0.671,284.269
125091,146058,24053,-0.026,-0.901,0.369,-1.829,0.061,0.671,284.273
125091,146115,12336,-0.025,-0.903,0.362,-2.256,0.061,0.61,284.279
125130,146058,24053,-0.022,-0.906,0.366,-2.256,0.061,0.61,284.283
125130,146121,12328,-0.021,-0.906,0.368,-1.463,-0.244,0.793,284.289
125107,146058,24053,-0.021,-0.905,0.366,-1.463,-0.244,0.793,284.293
125107,146121,12346,-0.021,-0.901,0.363,-0.976,-0.122,1.159,284.299
125127,146058,24053,-0.023,-0.902,0.362,-0.976,-0.122,1.159,284.303
125127,146129,12338,-0.026,-0.913,0.368,-0.549,0.427,1.098,284.309
125096,146058,24053,-0.023,-0.914,0.368,-0.549,0.427,1.098,284.313
125096,146134,12328,-0.024,-0.919,0.364,-0.671,0.549,0.61,284.319
125113,146058,24053,-0.024,-0.926,0.37,-0.671,0.549,0.61,284.323
125113,146127,12339,-0.024,-0.925,0.373,-0.244,0.488,0.671,284.329
125134,146058,24053,-0.025,-0.92,0.372,-0.244,0.488,0.671,284.333
125134,146145,12312,-0.025,-0.92,0.378,0.915,0.671,0.671,284.339
125127,146314,24053,-0.022,-0.913,0.381,0.915,0.671,0.671,284.342
125127,146179,12325,-0.024,-0.907,0.377,1.402,0.732,0.427,284.349
125146,146314,24053,-0.023,-0.904,0.376,1.402,0.732,0.427,284.352
125146,146186,12342,-0.023,-0.905,0.375,1.22,1.037,0.305,284.359
125148,146058,24053,-0.026,-0.908,0.384,1.22,1.037,0.305,284.362
125148,146166,12353,-0.027,-0.911,0.381,1.463,1.159,0.183,284.368
125119,146058,24053,-0.024,-0.905,0.385,1.463,1.159,0.183,284.372
125119,146157,12361,-0.028,-0.899,0.391,1.341,0.915,0.305,284.378
125131,146058,24053,-0.029,-0.895,0.389,1.341,0.915,0.305,284.382
125131,146145,12335,-0.027,-0.893,0.381,0.549,0.61,0.366,284.388
125134,146058,24053,-0.023,-0.894,0.377,0.549,0.61,0.366,284.392
125134,146135,12347,-0.021,-0.893,0.378,-0.061,0.671,0.305,284.398
125139,146058,24053,-0.022,-0.897,0.38,-0.061,0.671,0.305,284.402
125139,146141,12347,-0.027,-0.904,0.376,0,1.098,0.732,284.408
125139,146058,24053,-0.027,-0.91,0.372,0,1.098,0.732,284.412
125139,146161,12342,-0.028,-0.913,0.374,-0.183,1.098,0.915,284.418
125152,146314,24053,-0.027,-0.911,0.377,-0.183,1.098,0.915,284.422
125152,146189,12321,-0.028,-0.908,0.378,-0.305,0.488,0.854,284.428
125142,146314,24053,-0.029,-0.902,0.375,-0.305,0.488,0.854,284.432
125142,146198,12345,-0.026,-0.9,0.376,-0.976,0.427,0.976,284.438
125143,146058,24053,-0.027,-0.901,0.375,-0.976,0.427,0.976,284.441
125143,146171,12353,-0.027,-0.904,0.383,-1.037,0.366,0.976,284.448
125156,146314,24053,-0.031,-0.904,0.387,-1.037,0.366,0.976,284.451
125156,146189,12353,-0.031,-0.904,0.385,-1.707,0,0.915,284.458
125134,146058,24053,-0.031,-0.901,0.384,-1.707,0,0.915,284.461
125134,146150,12357,-0.032,-0.901,0.384,-2.683,-0.366,1.159,284.467
125140,146058,24053,-0.03,-0.908,0.381,-2.683,-0.366,1.159,284.471
125140,146137,12338,-0.028,-0.909,0.38,-2.317,-0.732,1.098,284.477
125123,146058,24053,-0.024,-0.908,0.381,-2.317,-0.732,1.098,284.481
125123,146149,12356,-0.02,-0.903,0.375,-1.951,-0.61,1.037,284.487
125128,146058,24053,-0.015,-0.901,0.369,-1.951,-0.61,1.037,284.491
125128,146142,12344,-0.018,-0.906,0.375,-1.098,-0.061,1.341,284.497
125132,146058,24053,-0.025,-0.911,0.377,-1.098,-0.061,1.341,284.501
125132,146164,12358,-0.029,-0.917,0.379,-0.366,0.488,1.22,284.507
125126,146058,24053,-0.031,-0.916,0.377,-0.366,0.488,1.22,284.511
125126,146163,12338,-0.031,-0.916,0.369,-1.037,0.305,0.671,284.517
125136,146058,24053,-0.025,-0.915,0.363,-1.037,0.305,0.671,284.521
125136,146158,12332,-0.025,-0.919,0.365,-1.402,-0.244,0.671,284.527
125137,146058,24053,-0.022,-0.923,0.371,-1.402,-0.244,0.671,284.531
125137,146163,12349,-0.024,-0.919,0.369,-0.549,-0.305,0.732,284.537
125160,146058,24053,-0.027,-0.912,0.371,-0.549,-0.305,0.732,284.54
125160,146157,12338,-0.029,-0.914,0.377,0.366,0.244,0.488,284.547
125148,146058,24053,-0.029,-0.913,0.384,0.366,0.244,0.488,284.55
125148,146162,12355,-0.03,-0.912,0.387,-0.305,0.366,0.122,284.557
125114,146058,24053,-0.031,-0.912,0.386,-0.305,0.366,0.122,284.56
125114,146157,12356,-0.033,-0.913,0.383,-1.28,0.488,0.122,284.566
125141,146058,24053,-0.03,-0.91,0.378,-1.28,0.488,0.122,284.57
125141,146150,12342,-0.024,-0.896,0.37,-2.622,0.61,0.061,284.576
125135,146058,24053,-0.024,-0.891,0.368,-2.622,0.61,0.061,284.58
125135,146159,12351,-0.025,-0.891,0.367,-2.5,0.549,0.183,284.586
125136,146058,24053,-0.024,-0.893,0.356,-2.5,0.549,0.183,284.59
125136,146168,12355,-0.022,-0.894,0.358,-0.61,0.549,0.549,284.596
125151,146058,24053,-0.022,-0.894,0.371,-0.61,0.549,0.549,284.6
125151,146138,12341,-0.027,-0.903,0.369,-0.305,0.854,0.549,284.606
125141,146058,24053,-0.032,-0.909,0.367,-0.305,0.854,0.549,284.61
125141,146148,12349,-0.034,-0.917,0.369,-1.463,0.793,0.61,284.616
125149,146058,24053,-0.031,-0.922,0.37,-1.463,0.793,0.61,284.62
125149,146165,12334,-0.029,-0.923,0.365,-1.89,0.366,0.671,284.626
125132,146314,24053,-0.026,-0.922,0.363,-1.89,0.366,0.671,284.63
125132,146183,12346,-0.026,-0.915,0.367,-0.61,0.244,0.427,284.636
125150,146314,24053,-0.028,-0.912,0.367,-0.61,0.244,0.427,284.639
125150,146177,12349,-0.023,-0.911,0.374,1.037,0.244,0.488,284.646
125160,146314,24053,-0.023,-0.917,0.375,1.037,0.244,0.488,284.649
125160,146185,12340,-0.025,-0.919,0.371,1.098,0.183,0.488,284.656
125146,146314,24053,-0.024,-0.918,0.373,1.098,0.183,0.488,284.659
125146,146179,12356,-0.027,-0.914,0.376,0.793,0.061,0.488,284.665
125167,146314,24053,-0.023,-0.909,0.375,0.793,0.061,0.488,284.669
125167,146179,12340,-0.021,-0.903,0.374,0.915,0,0.244,284.675
125159,146058,24053,-0.024,-0.904,0.377,0.915,0,0.244,284.679
125159,146167,12345,-0.027,-0.906,0.382,0.732,0.427,0.183,284.685
125177,146058,24053,-0.031,-0.903,0.38,0.732,0.427,0.183,284.689
125177,146150,12329,-0.029,-0.902,0.378,-0.061,0.549,0.122,284.695
125149,146058,24053,-0.027,-0.9,0.377,-0.061,0.549,0.122,284.699
125149,146163,12350,-0.027,-0.899,0.378,-0.366,0.061,0.244,284.705
125145,146058,24053,-0.026,-0.898,0.375,-0.366,0.061,0.244,284.709
125145,146149,12341,-0.028,-0.9,0.37,0.854,0.61,0.549,284.715
125145,146058,24053,-0.028,-0.9,0.37,0.854,0.61,0.549,284.719
125145,146155,12339,-0.028,-0.915,0.384,1.951,0.305,0.976,284.725
125110,146058,24053,-0.028,-0.915,0.384,1.951,0.305,0.976,284.729
125110,146155,12339,-0.032,-0.904,0.383,1.768,-0.122,1.098,284.735
125121,146058,24053,-0.032,-0.904,0.383,1.768,-0.122,1.098,284.738
125121,146147,12340,-0.03,-0.899,0.381,1.28,-0.183,0.915,284.745
125123,146058,24053,-0.03,-0.899,0.381,1.28,-0.183,0.915,284.748
125123,146134,12335,-0.026,-0.903,0.379,0.366,-0.671,0.915,284.755
125106,146058,24053,-0.026,-0.903,0.379,0.366,-0.671,0.915,284.758
125106,146144,12349,-0.018,-0.907,0.37,-0.244,-0.244,0.976,284.764
125142,146058,24053,-0.018,-0.907,0.37,-0.244,-0.244,0.976,284.768
125142,146154,12332,-0.02,-0.902,0.359,-0.488,0.122,0.976,284.774
125160,146058,24053,-0.02,-0.902,0.359,-0.488,0.122,0.976,284.778
125160,146168,12329,-0.021,-0.908,0.363,-0.305,0.549,1.037,284.784
125152,146058,24053,-0.021,-0.908,0.363,-0.305,0.549,1.037,284.788
125152,146134,12338,-0.025,-0.914,0.369,0.549,0.976,1.037,284.794
125133,146058,24053,-0.025,-0.914,0.369,0.549,0.976,1.037,284.798
125133,146153,12336,-0.027,-0.928,0.373,-0.305,0.915,0.671,284.804
125138,146058,24053,-0.027,-0.928,0.373,-0.305,0.915,0.671,284.808
125138,146137,12342,-0.03,-0.923,0.373,-0.488,1.159,0.488,284.814
125139,146058,24053,-0.03,-0.923,0.373,-0.488,1.159,0.488,284.818
125139,146140,12331,-0.03,-0.906,0.375,0.305,0.976,0.427,284.824
125140,146058,24053,-0.03,-0.906,0.375,0.305,0.976,0.427,284.828
125140,146154,12329,-0.03,-0.902,0.384,0.793,0.793,0.061,284.834
125121,146058,24053,-0.03,-0.902,0.384,0.793,0.793,0.061,284.837
125121,146125,12323,-0.032,-0.905,0.382,0.366,0.61,-0.122,284.844
125145,146058,24053,-0.032,-0.905,0.382,0.366,0.61,-0.122,284.847
125145,146139,12339,-0.031,-0.903,0.378,-0.244,0.732,0.244,284.853
125133,146058,24053,-0.031,-0.903,0.378,-0.244,0.732,0.244,284.857
125133,146132,12343,-0.034,-0.904,0.378,-0.244,0.732,0.244,284.863
125157,146058,24053,-0.033,-0.903,0.379,-0.183,0.671,0.305,284.867
125157,146170,12344,-0.032,-0.899,0.377,-0.183,0.671,0.305,284.873
125156,146058,24053,-0.027,-0.895,0.379,-0.244,0.244,0.305,284.877
125156,146166,12359,-0.024,-0.902,0.375,-0.244,0.244,0.305,284.883
125172,146058,24053,-0.025,-0.906,0.38,-0.061,0.366,0.549,284.887
125172,146153,12340,-0.029,-0.906,0.378,-0.061,0.366,0.549,284.893
125157,146314,24053,-0.029,-0.903,0.373,-0.427,0.488,0.61,284.897
125157,146184,12348,-0.028,-0.903,0.372,-0.427,0.488,0.61,284.903
125191,146058,24053,-0.029,-0.908,0.375,-1.098,0.366,0.488,284.907
125191,146164,12341,-0.029,-0.913,0.376,-1.098,0.366,0.488,284.913
125179,146314,24053,-0.032,-0.917,0.379,-0.366,0.183,0.488,284.917
125179,146196,12332,-0.032,-0.918,0.381,-0.366,0.183,0.488,284.923
125140,146058,24053,-0.032,-0.913,0.384,-0.122,0.061,0.427,284.927
125140,146165,12335,-0.028,-0.911,0.385,-0.122,0.061,0.427,284.933
125163,146058,24053,-0.028,-0.908,0.384,0.305,0.183,0.305,284.936
125163,146155,12331,-0.029,-0.905,0.386,0.305,0.183,0.305,284.943
125153,146058,24053,-0.027,-0.902,0.378,0.61,-0.061,0.305,284.946
125153,146169,12353,-0.025,-0.903,0.379,0.61,-0.061,0.305,284.953
125157,146058,24053,-0.025,-0.907,0.381,0.488,-0.305,0.366,284.956
125157,146149,12359,-0.024,-0.907,0.388,0.488,-0.305,0.366,284.962
125182,146058,24053,-0.025,-0.9,0.377,-0.488,-0.183,0.366,284.966
125182,146140,12336,-0.023,-0.899,0.366,-0.488,-0.183,0.366,284.972
125179,146058,24053,-0.021,-0.902,0.362,-1.768,0.366,0.488,284.976
125179,146165,12343,-0.022,-0.909,0.365,-1.768,0.366,0.488,284.982
125188,146314,24053,-0.02,-0.92,0.365,-0.732,0.976,0.671,284.986
125188,146176,12340,-0.024,-0.93,0.363,-0.732,0.976,0.671,284.992
125154,146058,24053,-0.024,-0.936,0.363,0.549,1.829,0.549,284.996
125154,146166,12361,-0.027,-0.941,0.369,0.549,1.829,0.549,285.002
125142,146058,24053,-0.03,-0.938,0.374,1.28,1.829,0.183,285.006
125142,146162,12333,-0.037,-0.929,0.37,1.28,1.829,0.183,285.012
125130,146058,24053,-0.036,-0.917,0.367,1.402,1.585,-0.244,285.016
125130,146123,12339,-0.039,-0.912,0.37,1.402,1.585,-0.244,285.022
125134,146058,24053,-0.036,-0.905,0.375,1.829,0.671,-0.671,285.026
125134,146130,12329,-0.03,-0.903,0.385,1.829,0.671,-0.671,285.032
125121,146058,24053,-0.025,-0.901,0.384,2.073,0.244,-1.037,285.035
125121,146133,12339,-0.025,-0.903,0.385,2.073,0.244,-1.037,285.042
125140,146058,24053,-0.026,-0.902,0.374,1.89,0.366,-1.098,285.045
125140,146136,12332,-0.027,-0.901,0.378,1.89,0.366,-1.098,285.051
125131,146058,24053,-0.032,-0.905,0.388,1.646,0.305,-0.732,285.055
125131,146133,12348,-0.035,-0.902,0.389,1.646,0.305,-0.732,285.061
125126,146058,24053,-0.033,-0.893,0.382,1.89,-0.183,-0.488,285.065
125126,146147,12345,-0.03,-0.887,0.377,1.89,-0.183,-0.488,285.071
125125,146058,24053,-0.026,-0.885,0.384,1.707,-0.427,-0.671,285.075
125125,146162,12355,-0.02,-0.881,0.382,1.707,-0.427,-0.671,285.081
125146,146058,24053,-0.018,-0.887,0.373,0.488,0.122,-0.671,285.085
125146,146147,12340,-0.02,-0.9,0.375,0.488,0.122,-0.671,285.091
125161,146058,24053,-0.018,-0.909,0.377,-0.976,0.244,-0.122,285.095
125161,146162,12347,-0.02,-0.912,0.37,-0.976,0.244,-0.122,285.101
125141,146058,24053,-0.02,-0.913,0.361,-1.098,0,0.061,285.105
125141,146143,12329,-0.019,-0.912,0.368,-1.098,0,0.061,285.111
125128,146058,24053,-0.021,-0.912,0.377,1.341,0.183,0,285.115
125128,146148,12347,-0.021,-0.911,0.375,1.341,0.183,0,285.121
125149,146058,24053,-0.024,-0.908,0.368,2.012,0.61,0.061,285.125
125149,146155,12348,-0.026,-0.907,0.372,2.012,0.61,0.061,285.131
125126,146058,24053,-0.027,-0.909,0.377,1.037,0.427,0.366,285.134
125126,146156,12355,-0.029,-0.909,0.38,1.037,0.427,0.366,285.141
125135,146058,24053,-0.029,-0.905,0.38,-0.122,0.061,0.305,285.144
125135,146151,12349,-0.029,-0.9,0.379,-0.122,0.061,0.305,285.151
125139,146058,24053,-0.026,-0.898,0.381,-1.463,-0.244,-0.183,285.154
125139,146148,12354,-0.025,-0.895,0.382,-1.463,-0.244,-0.183,285.16
125133,146058,24053,-0.024,-0.894,0.369,-2.134,-0.122,-0.122,285.164
125133,146145,12359,-0.021,-0.897,0.366,-2.134,-0.122,-0.122,285.17
125139,146058,24053,-0.021,-0.906,0.372,-1.707,0.244,0.183,285.174
125139,146130,12345,-0.023,-0.917,0.376,-1.707,0.244,0.183,285.18
125138,146058,24053,-0.024,-0.922,0.38,-0.183,0.488,0.305,285.184
125138,146140,12353,-0.026,-0.922,0.378,-0.183,0.488,0.305,285.19
125160,146058,24053,-0.029,-0.919,0.374,0.366,1.28,0.427,285.194
125160,146125,12362,-0.03,-0.911,0.375,0.366,1.28,0.427,285.2
125158,146058,24053,-0.027,-0.907,0.37,0.427,1.22,0.61,285.204
125158,146141,12352,-0.024,-0.901,0.369,0.427,1.22,0.61,285.21
125126,146058,24053,-0.023,-0.902,0.371,1.646,0.732,0.61,285.214
125126,146172,12343,-0.019,-0.901,0.375,1.646,0.732,0.61,285.22
125133,146058,24053,-0.023,-0.9,0.379,2.134,0.793,0.488,285.224
125133,146142,12331,-0.023,-0.9,0.386,2.134,0.793,0.488,285.23
125121,146058,24053,-0.03,-0.901,0.387,1.463,1.341,0.305,285.233
125121,146126,12352,-0.029,-0.903,0.388,1.463,1.341,0.305,285.24
125122,146058,24053,-0.029,-0.906,0.386,-0.122,0.793,0.183,285.243
125122,146115,12353,-0.029,-0.905,0.387,-0.122,0.793,0.183,285.25
125129,146058,24053,-0.03,-0.908,0.392,-0.732,0.488,0.244,285.253
125129,146126,12345,-0.027,-0.906,0.39,-0.732,0.488,0.244,285.259
125128,146058,24053,-0.022,-0.9,0.381,-0.61,0.244,0.122,285.263
125128,146129,12361,-0.024,-0.902,0.382,-0.61,0.244,0.122,285.269
125095,146058,24053,-0.023,-0.913,0.385,0.549,0.488,0.427,285.273
125095,146098,12342,-0.029,-0.917,0.39,0.549,0.488,0.427,285.279
125089,146058,24053,-0.031,-0.912,0.391,1.341,0.61,0.732,285.283
125089,146077,12354,-0.032,-0.907,0.38,1.341,0.61,0.732,285.289
125068,146058,24053,-0.033,-0.898,0.378,0.122,0.549,0.305,285.293
125068,146090,12349,-0.03,-0.9,0.381,0.122,0.549,0.305,285.299
125084,146058,24053,-0.03,-0.9,0.381,0.122,0.549,0.305,285.303
125084,146098,12340,-0.026,-0.91,0.375,-0.305,0.122,-0.061,285.309
125078,146058,24053,-0.026,-0.91,0.375,-0.305,0.122,-0.061,285.313
125078,146100,12342,-0.027,-0.923,0.384,-0.549,-0.122,-0.305,285.319
125062,146058,24053,-0.027,-0.923,0.384,-0.549,-0.122,-0.305,285.323
125062,146071,12339,-0.026,-0.91,0.38,-0.305,-0.183,-0.427,285.329
125059,146058,24053,-0.026,-0.91,0.38,-0.305,-0.183,-0.427,285.332
125059,146058,12348,-0.026,-0.893,0.378,-0.244,-0.305,-0.366,285.339
125043,146058,24053,-0.026,-0.893,0.378,-0.244,-0.305,-0.366,285.342
125043,146060,12331,-0.025,-0.9,0.391,0.427,-0.244,-0.366,285.348
125065,146058,24053,-0.025,-0.9,0.391,0.427,-0.244,-0.366,285.352
125065,146069,12366,-0.026,-0.897,0.38,-0.488,-0.671,-0.488,285.358
125043,146058,24053,-0.026,-0.897,0.38,-0.488,-0.671,-0.488,285.362
125043,146058,12333,-0.022,-0.908,0.381,-1.524,-0.671,-0.549,285.368
125035,146058,24053,-0.022,-0.908,0.381,-1.524,-0.671,-0.549,285.372
125035,146053,12345,-0.019,-0.906,0.375,-1.341,-0.732,-0.488,285.378
125028,146058,24053,-0.019,-0.906,0.375,-1.341,-0.732,-0.488,285.382
125028,146044,12345,-0.02,-0.898,0.361,-1.768,-0.305,-0.183,285.388
125039,146058,24053,-0.02,-0.898,0.361,-1.768,-0.305,-0.183,285.392
125039,146029,12337,-0.023,-0.904,0.367,-0.976,0.183,0.183,285.398
125011,146058,24053,-0.023,-0.904,0.367,-0.976,0.183,0.183,285.402
125011,146027,12342,-0.025,-0.914,0.371,0,0.671,0.366,285.408
125024,146058,24053,-0.025,-0.914,0.371,0,0.671,0.366,285.412
125024,146025,12335,-0.022,-0.912,0.373,-0.427,0.61,0.427,285.418
125039,146058,24053,-0.022,-0.912,0.373,-0.427,0.61,0.427,285.422
125039,146026,12367,-0.024,-0.907,0.37,-0.366,0.549,0.549,285.428
125048,146058,24053,-0.024,-0.907,0.37,-0.366,0.549,0.549,285.431
125048,146024,12358,-0.023,-0.903,0.383,0.549,0.427,0.488,285.438
125055,146058,24053,-0.023,-0.903,0.383,0.549,0.427,0.488,285.441
125055,146057,12337,-0.023,-0.903,0.382,0.793,0.305,0.183,285.448
125043,146058,24053,-0.024,-0.908,0.373,0.793,0.305,0.183,285.451
125043,146041,12358,-0.026,-0.911,0.377,0.61,0.366,0.244,285.457
125066,146058,24053,-0.023,-0.906,0.38,0.61,0.366,0.244,285.461
125066,146043,12336,-0.023,-0.901,0.378,0.427,0.183,0.366,285.467
125064,146058,24053,-0.023,-0.899,0.38,0.427,0.183,0.366,285.471
125064,146078,12346,-0.022,-0.9,0.381,-0.061,0.244,0.366,285.477
125055,146058,24053,-0.022,-0.895,0.383,-0.061,0.244,0.366,285.481
125055,146051,12339,-0.022,-0.897,0.382,-0.244,0.549,0.427,285.487
125065,146058,24053,-0.024,-0.906,0.38,-0.244,0.549,0.427,285.491
125065,146069,12332,-0.024,-0.913,0.378,-0.427,0.976,0.61,285.497
125069,146058,24053,-0.023,-0.918,0.374,-0.427,0.976,0.61,285.501
125069,146068,12332,-0.026,-0.919,0.373,-0.305,0.915,0.61,285.507
125064,146058,24053,-0.026,-0.912,0.372,-0.305,0.915,0.61,285.511
125064,146064,12341,-0.023,-0.911,0.374,0.427,1.22,0.61,285.517
125040,146058,24053,-0.023,-0.908,0.377,0.427,1.22,0.61,285.521
125040,146046,12355,-0.026,-0.905,0.375,0.61,1.28,0.671,285.527
125053,146058,24053,-0.025,-0.91,0.376,0.61,1.28,0.671,285.53
125053,146077,12338,-0.024,-0.911,0.385,0,0.732,0.671,285.537
125047,146058,24053,-0.024,-0.91,0.381,0,0.732,0.671,285.54
125047,146076,12332,-0.029,-0.907,0.379,-0.671,0.671,0.488,285.546
125030,146058,24053,-0.03,-0.904,0.384,-0.671,0.671,0.488,285.55
125030,146051,12346,-0.029,-0.904,0.389,-0.427,0.366,0.183,285.556
125054,146058,24053,-0.03,-0.904,0.388,-0.427,0.366,0.183,285.56
125054,146063,12328,-0.03,-0.902,0.382,-0.061,-0.122,0.183,285.566
125050,146058,24053,-0.028,-0.898,0.383,-0.061,-0.122,0.183,285.57
125050,146062,12346,-0.026,-0.9,0.384,-0.305,-0.122,0.244,285.576
125044,146058,24053,-0.028,-0.905,0.387,-0.305,-0.122,0.244,285.58
125044,146056,12346,-0.029,-0.904,0.387,-0.671,-0.244,0.183,285.586
125047,146058,24053,-0.026,-0.903,0.385,-0.671,-0.244,0.183,285.59
125047,146028,12332,-0.025,-0.901,0.383,-1.22,-0.061,0.366,285.596
125047,146058,24053,-0.022,-0.898,0.369,-1.22,-0.061,0.366,285.6
125047,146070,12348,-0.024,-0.898,0.366,-1.524,0.427,0.488,285.606
125029,146058,24053,-0.024,-0.905,0.374,-1.524,0.427,0.488,285.61
