119044,142730,24053,-0.005,-0.949,-0.049,-7.805,0.61,0,73.883
119044,142747,10774,0.005,-0.958,-0.056,-7.805,0.61,0,73.889
118943,142730,24053,0.009,-0.976,-0.051,-7.195,-0.244,-0.549,73.892
118943,142641,10738,0.006,-0.981,-0.071,-7.195,-0.244,-0.549,73.899
118848,142474,24053,0.001,-0.982,-0.122,-4.573,0,0.671,73.902
118848,142577,10731,-0.007,-1.001,-0.14,-4.573,0,0.671,73.909
118765,142474,24053,0.001,-1.025,-0.09,0.793,0.427,1.28,73.912
118765,142510,10728,0.012,-1.006,-0.049,0.793,0.427,1.28,73.918
118712,142474,24053,0.002,-0.966,-0.06,4.939,0.366,1.159,73.922
118712,142438,10699,-0.003,-0.948,-0.068,4.939,0.366,1.159,73.928
118693,142474,24053,0.001,-0.961,-0.037,2.744,1.28,0.427,73.932
118693,142476,10709,-0,-0.974,-0.011,2.744,1.28,0.427,73.938
118850,142730,24053,-0.002,-0.971,-0.006,1.707,0.915,-0.183,73.942
118850,142594,10732,-0.003,-0.955,-0.017,1.707,0.915,-0.183,73.948
119017,142730,24053,0.001,-0.95,-0.03,-3.598,0.976,-1.22,73.952
119017,142756,10745,0.001,-0.961,-0.068,-3.598,0.976,-1.22,73.958
119091,142730,24053,0.002,-0.986,-0.09,-4.634,0.976,-1.463,73.962
119091,142821,10765,0.004,-1.01,-0.047,-4.634,0.976,-1.463,73.968
119112,142730,24053,0.001,-0.988,-0.012,0.061,0.122,-0.366,73.972
119112,142793,10752,-0.005,-0.933,-0.017,0.061,0.122,-0.366,73.978
119060,142730,24053,-0.006,-0.89,-0.044,-1.829,0.732,0.183,73.982
119060,142780,10756,-0.01,-0.896,-0.08,-1.829,0.732,0.183,73.988
118965,142730,24053,-0.007,-0.948,-0.094,-3.415,0,-0.427,73.991
118965,142668,10755,0.01,-1.001,-0.081,-3.415,0,-0.427,73.998
118852,142474,24053,0.01,-1.001,-0.081,-3.415,0,-0.427,74.001
118852,142547,10711,0.011,-0.993,-0.032,1.098,-2.195,-0.427,74.008
118810,142474,24053,0.011,-0.993,-0.032,1.098,-2.195,-0.427,74.011
118810,142520,10701,0,-0.953,-0.022,-0.427,-1.28,-0.305,74.017
118834,142474,24053,0,-0.953,-0.022,-0.427,-1.28,-0.305,74.021
118834,142566,10722,0.002,-0.974,-0.019,-4.634,0.244,-0.793,74.027
118915,142730,24053,0.002,-0.974,-0.019,-4.634,0.244,-0.793,74.031
118915,142632,10730,0.012,-0.973,-0.07,-10.183,0.122,-1.402,74.037
118985,142730,24053,0.012,-0.973,-0.07,-10.183,0.122,-1.402,74.041
118985,142708,10749,0.006,-0.992,-0.076,-10.61,0.366,-1.524,74.047
119025,142730,24053,0.006,-0.992,-0.076,-10.61,0.366,-1.524,74.051
119025,142767,10735,0.016,-0.99,-0.11,-6.951,0.549,-0.061,74.057
118973,142730,24053,0.016,-0.99,-0.11,-6.951,0.549,-0.061,74.061
118973,142704,10741,0.01,-0.927,-0.053,-2.256,0.305,0.915,74.067
118911,142730,24053,0.01,-0.927,-0.053,-2.256,0.305,0.915,74.071
118911,142629,10715,-0.003,-0.933,-0.119,0.915,0.793,1.402,74.077
118858,142474,24053,-0.003,-0.933,-0.119,0.915,0.793,1.402,74.081
118858,142581,10710,0.014,-1.027,-0.071,2.927,0.61,1.22,74.087
118790,142474,24053,0.014,-1.027,-0.071,2.927,0.61,1.22,74.09
118790,142503,10713,0.003,-0.981,-0.071,9.329,-1.098,1.707,74.097
118770,142474,24053,0.003,-0.981,-0.071,9.329,-1.098,1.707,74.1
118770,142505,10704,-0.009,-0.938,-0.005,7.012,0.549,1.341,74.107
118792,142474,24053,-0.009,-0.938,-0.005,7.012,0.549,1.341,74.11
118792,142542,10715,-0.005,-0.924,-0.004,4.695,0.671,0.427,74.116
118850,142730,24053,-0.005,-0.924,-0.004,4.695,0.671,0.427,74.12
118850,142622,10719,0.005,-0.964,-0.034,0.183,-0.488,-0.366,74.126
118933,142730,24053,0.005,-0.964,-0.034,0.183,-0.488,-0.366,74.13
118933,142674,10724,0.009,-1.004,-0.085,-3.11,-0.61,-0.427,74.136
118946,142730,24053,0.009,-1.004,-0.085,-3.11,-0.61,-0.427,74.14
118946,142665,10715,0.02,-1.009,-0.037,-1.159,-0.427,0.427,74.146
118914,142730,24053,0.016,-0.977,-0.036,-1.159,-0.427,0.427,74.15
118914,142640,10718,0.003,-0.937,-0.1,-1.402,0.305,1.402,74.156
118902,142730,24053,0.002,-0.943,-0.132,-1.402,0.305,1.402,74.16
118902,142622,10728,0.013,-0.987,-0.088,0.488,0.549,1.707,74.166
118854,142474,24053,0.016,-1.012,-0.065,0.488,0.549,1.707,74.17
118854,142568,10714,0.015,-1.005,-0.099,7.439,0.366,2.683,74.176
118803,142474,24053,0.002,-1.009,-0.112,7.439,0.366,2.683,74.18
118803,142537,10704,-0.002,-1.033,-0.08,9.207,2.195,2.683,74.186
118836,142474,24053,-0.003,-1.033,-0.036,9.207,2.195,2.683,74.189
118836,142576,10704,-0.008,-0.983,-0.011,10.366,2.683,2.073,74.196
118817,142474,24053,-0.011,-0.915,-0.004,10.366,2.683,2.073,74.199
118817,142552,10706,-0.008,-0.885,0.016,3.841,2.622,0.549,74.206
118824,142474,24053,-0.013,-0.888,0.035,3.841,2.622,0.549,74.209
118824,142558,10709,-0.015,-0.917,0.01,-0.305,1.768,-0.366,74.215
118828,142474,24053,-0.012,-0.957,-0.053,-0.305,1.768,-0.366,74.219
118828,142522,10705,-0.004,-0.992,-0.086,-3.78,0.122,-0.915,74.225
118788,142474,24053,0.008,-1.011,-0.053,-3.78,0.122,-0.915,74.229
118788,142502,10690,0.012,-0.983,-0.033,-2.073,-0.671,-0.793,74.235
118769,142474,24053,-0.004,-0.933,-0.042,-2.073,-0.671,-0.793,74.239
118769,142497,10695,-0.011,-0.909,-0.046,-2.195,1.28,-0.671,74.245
118738,142474,24053,-0.004,-0.911,-0.073,-2.195,1.28,-0.671,74.249
118738,142441,10698,0.008,-0.949,-0.117,-1.463,0.732,-0.488,74.255
118652,142474,24053,0.015,-1.009,-0.111,-1.463,0.732,-0.488,74.259
118652,142362,10677,0.019,-1.049,-0.078,5.61,-0.915,0.244,74.265
118627,142474,24053,0.017,-1.048,-0.081,5.61,-0.915,0.244,74.269
118627,142344,10661,0.009,-1.02,-0.093,9.085,0.793,0.854,74.275
118626,142474,24053,0.004,-0.986,-0.077,9.085,0.793,0.854,74.279
118626,142338,10668,0.007,-0.966,-0.059,9.39,2.927,0.549,74.285
118585,142218,24053,0.005,-0.964,-0.021,9.39,2.927,0.549,74.288
118585,142308,10656,0.003,-0.976,0.022,10.976,2.988,-0.122,74.295
118557,142218,24053,-0.005,-0.974,0.034,10.976,2.988,-0.122,74.298
118557,142288,10658,-0.018,-0.954,0.001,6.524,3.049,-0.183,74.305
118560,142218,24053,-0.012,-0.945,-0.012,6.524,3.049,-0.183,74.308
118560,142327,10661,0.001,-0.949,-0.015,0,2.256,-1.037,74.314
118576,142218,24053,0.006,-0.942,-0.045,0,2.256,-1.037,74.318
118576,142293,10653,0.012,-0.95,-0.08,-1.037,0.854,-0.915,74.324
118573,142218,24053,0.018,-0.968,-0.095,-1.037,0.854,-0.915,74.328
118573,142311,10651,0.018,-0.966,-0.104,1.585,0.732,-0.061,74.334
118578,142218,24053,0.019,-0.941,-0.119,1.585,0.732,-0.061,74.338
118578,142316,10658,0.021,-0.921,-0.107,5.854,0.671,1.28,74.344
118561,142218,24053,0.017,-0.93,-0.083,5.854,0.671,1.28,74.348
118561,142272,10624,0.011,-0.97,-0.066,12.378,0.61,2.378,74.354
118593,142218,24053,0.005,-1.005,-0.069,12.378,0.61,2.378,74.358
118593,142307,10667,-0.003,-1.033,-0.052,14.817,2.256,1.951,74.364
118634,142474,24053,-0.008,-1.058,0.005,14.817,2.256,1.951,74.368
118634,142341,10661,-0.023,-1.059,0.055,14.817,3.659,0.793,74.374
118669,142474,24053,-0.038,-1.032,0.029,14.817,3.659,0.793,74.378
118669,142367,10647,-0.038,-1.001,-0.022,9.634,4.939,-1.28,74.384
118651,142474,24053,-0.014,-0.991,-0.021,9.634,4.939,-1.28,74.388
118651,142346,10659,0.008,-0.999,0.007,6.037,3.78,-4.329,74.394
118640,142218,24053,0.01,-1.002,0.007,6.037,3.78,-4.329,74.397
118640,142334,10670,-0.003,-0.996,-0.056,9.085,4.573,-4.939,74.404
118626,142218,24053,-0.009,-1.004,-0.075,9.085,4.573,-4.939,74.407
118626,142320,10637,0.001,-1.003,-0.055,10.793,4.817,-4.085,74.413
118606,142218,24053,0.015,-0.969,-0.112,10.793,4.817,-4.085,74.417
118606,142315,10643,0.026,-0.941,-0.174,13.476,3.963,-3.598,74.423
118574,142218,24053,0.044,-0.953,-0.133,13.476,3.963,-3.598,74.427
118574,142256,10641,0.047,-0.944,-0.054,18.841,3.598,-2.805,74.433
118607,142218,24053,0.035,-0.879,-0.009,18.841,3.598,-2.805,74.437
118607,142304,10635,0.021,-0.817,0.02,20.488,4.512,-0.549,74.443
118671,142474,24053,0.006,-0.805,0.063,20.488,4.512,-0.549,74.447
118671,142422,10650,-0.01,-0.833,0.11,16.707,3.476,1.22,74.453
118774,142474,24053,-0.015,-0.876,0.154,16.707,3.476,1.22,74.457
118774,142465,10676,-0.017,-0.916,0.148,7.622,0.244,0.976,74.463
118819,142474,24053,-0.012,-0.941,0.09,7.622,0.244,0.976,74.467
118819,142499,10668,0.002,-0.954,-0.015,-6.768,-1.098,-0.305,74.473
118796,142474,24053,0.024,-0.996,-0.055,-6.768,-1.098,-0.305,74.477
118796,142476,10684,0.041,-1.044,-0.033,-9.756,-2.5,-0.244,74.483
118782,142474,24053,0.036,-1.059,-0.082,-9.756,-2.5,-0.244,74.486
118782,142464,10666,0.026,-1.074,-0.107,-1.585,-0.854,2.439,74.493
118770,142474,24053,0.017,-1.084,-0.064,-1.585,-0.854,2.439,74.496
118770,142443,10665,0.007,-1.047,-0.045,6.341,1.951,5,74.503
118734,142474,24053,-0.004,-0.985,-0.07,6.341,1.951,5,74.506
118734,142415,10662,-0.003,-0.952,-0.052,8.78,4.024,5.061,74.512
118647,142218,24053,-0.002,-0.956,0.007,8.78,4.024,5.061,74.516
118647,142331,10659,-0.008,-0.962,0.052,11.768,3.537,3.659,74.522
118652,142218,24053,-0.02,-0.958,0.083,11.768,3.537,3.659,74.526
118652,142320,10637,-0.028,-0.947,0.099,6.402,2.683,2.073,74.532
118701,142474,24053,-0.025,-0.933,0.091,6.402,2.683,2.073,74.536
118701,142378,10663,-0.03,-0.914,0.074,-6.463,2.5,-1.037,74.542
118767,142474,24053,-0.028,-0.905,0.059,-6.463,2.5,-1.037,74.546
118767,142463,10661,-0.012,-0.907,-0.031,-16.098,0.305,-3.78,74.552
118817,142474,24053,0.015,-0.943,-0.188,-16.098,0.305,-3.78,74.556
118817,142518,10671,0.039,-1.045,-0.209,-13.963,-2.256,-3.78,74.562
118866,142474,24053,0.056,-1.123,-0.075,-13.963,-2.256,-3.78,74.566
118866,142557,10683,0.048,-1.053,-0.027,3.963,-2.378,-0.122,74.572
118881,142474,24053,0.009,-0.93,-0.109,3.963,-2.378,-0.122,74.576
118881,142524,10672,-0.026,-0.907,-0.115,7.622,2.988,2.439,74.582
118808,142474,24053,-0.025,-0.956,-0.061,7.622,2.988,2.439,74.586
118808,142516,10653,-0.001,-0.982,-0.057,14.39,1.098,2.622,74.592
118761,142474,24053,-0.001,-0.982,-0.057,14.39,1.098,2.622,74.595
118761,142459,10660,0.035,-0.999,0.007,18.11,-1.037,0.793,74.602
118748,142474,24053,0.035,-0.999,0.007,18.11,-1.037,0.793,74.605
118748,142434,10656,-0.008,-0.972,0.105,18.354,2.439,0.61,74.611
118838,142474,24053,-0.008,-0.972,0.105,18.354,2.439,0.61,74.615
118838,142507,10654,-0.035,-0.887,0.138,8.72,3.963,-0.305,74.621
118946,142730,24053,-0.035,-0.887,0.138,8.72,3.963,-0.305,74.625
118946,142647,10686,-0.013,-0.94,0.045,-3.11,1.585,-3.476,74.631
119151,142730,24053,-0.013,-0.94,0.045,-3.11,1.585,-3.476,74.635
119151,142798,10692,0.027,-1.044,-0.048,-6.829,-1.098,-4.329,74.641
119230,142986,24053,0.027,-1.044,-0.048,-6.829,-1.098,-4.329,74.645
119230,142877,10725,0.034,-1.01,-0.146,-4.512,-0.183,-1.89,74.651
119256,142986,24053,0.034,-1.01,-0.146,-4.512,-0.183,-1.89,74.655
119256,142909,10731,0.034,-1.022,-0.085,3.902,2.317,0.61,74.661
119280,142986,24053,0.034,-1.022,-0.085,3.902,2.317,0.61,74.665
119280,142875,10740,0.008,-0.922,0.007,13.963,2.805,2.744,74.671
119169,142730,24053,0.008,-0.922,0.007,13.963,2.805,2.744,74.675
119169,142784,10694,-0.024,-0.946,0.038,10.488,2.805,2.195,74.681
119030,142730,24053,-0.024,-0.946,0.038,10.488,2.805,2.195,74.684
119030,142662,10675,0.008,-0.957,0.085,5.854,0.488,0.427,74.691
118944,142730,24053,0.008,-0.957,0.085,5.854,0.488,0.427,74.694
118944,142602,10656,0.007,-0.904,0.079,-2.378,0.671,-1.463,74.701
118949,142730,24053,0.007,-0.904,0.079,-2.378,0.671,-1.463,74.704
118949,142634,10677,-0.009,-0.918,0.052,-8.476,0.061,-0.915,74.71
119002,142730,24053,-0.009,-0.918,0.052,-8.476,0.061,-0.915,74.714
119002,142640,10675,0.017,-0.945,0.003,-11.524,-2.012,-0.427,74.72
119030,142730,24053,0.017,-0.945,0.003,-11.524,-2.012,-0.427,74.724
119030,142716,10687,0.029,-0.993,-0.134,-10.854,-2.439,0.122,74.73
119089,142730,24053,0.029,-0.993,-0.134,-10.854,-2.439,0.122,74.734
119089,142758,10698,0.04,-1.053,-0.048,-10.854,-2.439,0.122,74.74
119138,142730,24053,0.025,-1.041,0,-0.183,-1.829,2.805,74.744
119138,142790,10712,-0.002,-0.972,-0.041,-0.183,-1.829,2.805,74.75
119229,142986,24053,-0.017,-0.941,-0.055,-0.244,0.976,4.024,74.754
119229,142897,10725,-0.011,-0.964,-0.046,-0.244,0.976,4.024,74.76
119324,142986,24053,0.002,-1.006,-0.029,-0.305,0.427,2.5,74.764
119324,142941,10712,0.014,-1.035,0.021,-0.305,0.427,2.5,74.77
119359,142986,24053,0.012,-1.029,0.063,2.256,-0.244,0.976,74.774
119359,142985,10739,-0.011,-0.982,0.049,2.256,-0.244,0.976,74.78
119362,142986,24053,-0.02,-0.935,0.013,-4.085,2.134,-0.183,74.784
119362,142963,10725,-0.017,-0.921,-0.003,-4.085,2.134,-0.183,74.79
119303,142986,24053,-0.005,-0.948,-0.008,-7.073,1.463,-1.89,74.793
119303,142946,10725,0.006,-0.99,-0.04,-7.073,1.463,-1.89,74.8
119252,142986,24053,0.019,-1.018,-0.099,-2.805,-0.549,-2.439,74.803
119252,142855,10722,0.023,-1.038,-0.101,-2.805,-0.549,-2.439,74.809
119126,142730,24053,0.021,-1.027,-0.032,4.634,0.183,-1.159,74.813
119126,142739,10694,0.011,-0.969,-0.015,4.634,0.183,-1.159,74.819
118980,142730,24053,-0.005,-0.916,-0.065,8.293,1.829,0.732,74.823
118980,142612,10675,-0.009,-0.935,-0.06,8.293,1.829,0.732,74.829
118974,142730,24053,0.006,-0.994,-0,10.915,1.402,0.427,74.833
118974,142630,10684,0.018,-1.006,0.023,10.915,1.402,0.427,74.839
119061,142730,24053,0.023,-0.974,-0.001,11.707,-0.061,-0.061,74.843
119061,142688,10695,0.018,-0.949,-0,11.707,-0.061,-0.061,74.849
119057,142730,24053,0.013,-0.949,0.045,7.622,1.585,-0.732,74.853
119057,142723,10691,0.003,-0.956,0.092,7.622,1.585,-0.732,74.859
119143,142730,24053,-0.008,-0.961,0.089,5.183,2.195,-0.427,74.863
119143,142789,10708,-0.013,-0.957,0.064,5.183,2.195,-0.427,74.869
119327,142986,24053,-0.005,-0.951,0.038,-3.232,1.585,-1.037,74.873
119327,142963,10735,0.009,-0.936,-0.018,-3.232,1.585,-1.037,74.879
119435,142986,24053,0.025,-0.943,-0.059,-7.134,0.122,-1.341,74.882
119435,143040,10749,0.037,-0.984,-0.015,-7.134,0.122,-1.341,74.889
119396,142986,24053,0.031,-1.001,0.037,-0.854,-0.671,0.61,74.892
119396,143012,10722,0.006,-0.965,0.001,-0.854,-0.671,0.61,74.899
119281,142986,24053,-0.016,-0.922,-0.064,-1.22,1.22,2.866,74.902
119281,142932,10719,-0.014,-0.925,-0.076,-1.22,1.22,2.866,74.908
119213,142986,24053,0.005,-0.958,-0.031,0.061,0.549,2.195,74.912
119213,142877,10710,0.018,-0.976,0.012,0.061,0.549,2.195,74.918
119186,142730,24053,0.015,-0.969,0.028,5.427,-1.28,1.402,74.922
119186,142808,10694,-0,-0.956,0.042,5.427,-1.28,1.402,74.928
119179,142730,24053,-0.018,-0.953,0.048,1.585,-0.549,1.098,74.932
119179,142814,10695,-0.025,-0.96,0.048,1.585,-0.549,1.098,74.938
119189,142730,24053,-0.016,-0.963,0.051,-4.695,-1.22,-0.427,74.942
119189,142825,10715,-0.001,-0.966,0.04,-4.695,-1.22,-0.427,74.948
119215,142986,24053,0.007,-0.973,0.034,-9.634,-2.012,-2.866,74.952
119215,142857,10712,0.01,-0.975,0.035,-9.634,-2.012,-2.866,74.958
119275,142986,24053,0.011,-0.975,0.001,-12.622,-1.951,-2.805,74.962
119275,142905,10713,0.014,-0.98,-0.084,-12.622,-1.951,-2.805,74.968
119284,142986,24053,0.022,-1.012,-0.143,-12.683,-1.707,-1.463,74.972
119284,142928,10727,0.032,-1.059,-0.081,-12.683,-1.707,-1.463,74.978
119249,142986,24053,0.037,-1.044,-0.012,-1.707,-1.89,0.183,74.982
119249,142860,10705,0.022,-0.97,-0.042,-1.707,-1.89,0.183,74.988
119179,142730,24053,0.005,-0.925,-0.099,2.317,1.037,1.402,74.991
119179,142781,10694,0.004,-0.954,-0.083,2.317,1.037,1.402,74.998
119139,142730,24053,0.013,-0.992,-0.025,7.378,1.28,1.829,75.001
119139,142771,10687,0.021,-0.989,0.01,7.378,1.28,1.829,75.007
119148,142730,24053,0.024,-0.971,0.039,11.159,-0.061,2.012,75.011
119148,142761,10683,0.01,-0.959,0.087,11.159,-0.061,2.012,75.017
119107,142730,24053,-0.017,-0.947,0.104,5.61,2.134,1.707,75.021
119107,142727,10699,-0.036,-0.931,0.084,5.61,2.134,1.707,75.027
119110,142730,24053,-0.026,-0.917,0.047,-5.488,2.195,0.549,75.031
119110,142726,10695,-0.007,-0.926,0.036,-5.488,2.195,0.549,75.037
119193,142730,24053,0.007,-0.946,0.016,-12.073,-0.793,-1.829,75.041
119193,142791,10691,0.021,-0.968,-0.042,-12.073,-0.793,-1.829,75.047
119223,142730,24053,0.022,-0.996,-0.053,-12.439,-2.134,-1.524,75.051
119223,142819,10697,0.018,-1.01,-0.025,-12.439,-2.134,-1.524,75.057
119158,142730,24053,0.008,-0.992,-0.042,-8.11,-1.524,0.488,75.061
119158,142767,10692,0.007,-0.959,-0.1,-8.11,-1.524,0.488,75.067
119128,142730,24053,0.011,-0.954,-0.148,-6.463,-0.244,1.037,75.071
119128,142751,10679,0.02,-0.989,-0.119,-6.463,-0.244,1.037,75.077
119139,142730,24053,0.031,-1.02,-0.044,4.39,-0.854,1.341,75.08
119139,142750,10683,0.024,-1.006,-0.017,4.39,-0.854,1.341,75.087
119127,142730,24053,0.01,-0.971,-0.012,11.585,0.122,2.561,75.09
119127,142733,10678,-0.005,-0.947,0.025,11.585,0.122,2.561,75.097
119125,142730,24053,-0.012,-0.933,0.07,9.146,1.89,1.89,75.1
119125,142731,10678,-0.011,-0.924,0.099,9.146,1.89,1.89,75.107
119183,142730,24053,-0.01,-0.937,0.124,4.085,1.341,0.305,75.11
119183,142778,10700,-0.023,-0.962,0.118,4.085,1.341,0.305,75.116
119254,142986,24053,-0.025,-0.969,0.078,-6.951,0.122,-1.463,75.12
119254,142848,10695,-0.011,-0.961,0.042,-6.951,0.122,-1.463,75.126
119287,142986,24053,0.002,-0.972,0.016,-17.012,-0.976,-3.293,75.13
119287,142879,10685,0.007,-0.995,-0.049,-17.012,-0.976,-3.293,75.136
119275,142986,24053,0.019,-1.018,-0.154,-17.561,-1.951,-2.988,75.14
119275,142864,10711,0.041,-1.047,-0.17,-17.561,-1.951,-2.988,75.146
119279,142986,24053,0.057,-1.046,-0.096,-7.805,-1.768,-1.22,75.15
119279,142870,10691,0.046,-0.988,-0.082,-7.805,-1.768,-1.22,75.156
119275,142986,24053,0.018,-0.925,-0.109,2.5,1.585,1.22,75.16
119275,142868,10701,-0.006,-0.923,-0.081,2.5,1.585,1.22,75.166
119255,142730,24053,-0.011,-0.949,-0.035,8.354,2.317,2.378,75.17
119255,142824,10699,0.003,-0.973,-0.02,8.354,2.317,2.378,75.176
119248,142730,24053,0.015,-0.996,-0.002,12.622,-0.244,1.585,75.18
119248,142820,10703,0.016,-1.007,0.025,12.622,-0.244,1.585,75.186
119226,142730,24053,0.016,-1.007,0.025,12.622,-0.244,1.585,75.189
119226,142808,10703,-0.003,-0.944,0.094,10.732,0.488,0.305,75.196
119269,142986,24053,-0.003,-0.944,0.094,10.732,0.488,0.305,75.199
119269,142851,10697,-0.018,-0.897,0.094,4.329,2.195,-0.183,75.205
119253,142730,24053,-0.018,-0.897,0.094,4.329,2.195,-0.183,75.209
119253,142847,10695,-0.008,-0.968,-0.012,-5.671,1.524,-1.402,75.215
119251,142730,24053,-0.008,-0.968,-0.012,-5.671,1.524,-1.402,75.219
119251,142823,10683,0.035,-1.011,-0.049,-10.183,-1.707,-1.402,75.225
119227,142730,24053,0.035,-1.011,-0.049,-10.183,-1.707,-1.402,75.229
119227,142805,10688,0.031,-0.96,-0.083,-6.524,-2.317,-0.61,75.235
119210,142730,24053,0.031,-0.96,-0.083,-6.524,-2.317,-0.61,75.239
119210,142801,10683,0.004,-0.998,-0.052,-2.195,0.793,1.463,75.245
119212,142730,24053,0.004,-0.998,-0.052,-2.195,0.793,1.463,75.249
119212,142804,10685,0.013,-0.951,-0.032,3.598,0.549,2.927,75.255
119213,142730,24053,0.013,-0.951,-0.032,3.598,0.549,2.927,75.259
119213,142790,10686,0.012,-0.954,0.005,3.72,-0.122,2.195,75.265
119177,142730,24053,0.012,-0.954,0.005,3.72,-0.122,2.195,75.269
119177,142775,10691,-0.001,-0.978,0.067,3.78,0.183,1.524,75.275
119238,142730,24053,-0.001,-0.978,0.067,3.78,0.183,1.524,75.279
119238,142831,10695,-0.019,-0.959,0.069,0.976,0.61,1.341,75.285
119295,142986,24053,-0.019,-0.959,0.069,0.976,0.61,1.341,75.288
119295,142874,10690,-0.007,-0.989,-0.018,-8.11,0.732,-0.244,75.295
119266,142986,24053,-0.007,-0.989,-0.018,-8.11,0.732,-0.244,75.298
119266,142852,10690,0.023,-1.028,-0.078,-11.646,-0.244,-1.829,75.305
119215,142730,24053,0.023,-1.028,-0.078,-11.646,-0.244,-1.829,75.308
119215,142787,10692,0.027,-1.015,-0.181,-6.098,-0.549,-1.159,75.314
119201,142730,24053,0.027,-1.015,-0.181,-6.098,-0.549,-1.159,75.318
119201,142776,10691,0.031,-1.02,-0.054,5,0.854,0.915,75.324
119180,142730,24053,0.031,-1.02,-0.054,5,0.854,0.915,75.328
119180,142778,10685,0.01,-0.966,-0.043,17.622,2.5,2.561,75.334
119154,142730,24053,-0.006,-0.925,-0.055,17.622,2.5,2.561,75.338
119154,142726,10686,-0.008,-0.925,-0.036,19.817,3.78,2.561,75.344
119187,142730,24053,0.001,-0.948,-0.009,19.817,3.78,2.561,75.348
119187,142759,10682,0.012,-0.976,0.048,19.39,2.012,0.915,75.354
119258,142730,24053,0.01,-0.993,0.127,19.39,2.012,0.915,75.358
119258,142838,10696,-0.01,-0.976,0.145,14.085,2.134,-0.122,75.364
119322,142986,24053,-0.033,-0.933,0.076,14.085,2.134,-0.122,75.368
119322,142898,10709,-0.024,-0.909,0.044,-0.854,2.866,-1.524,75.374
119354,142986,24053,0.005,-0.907,0.075,-0.854,2.866,-1.524,75.378
119354,142914,10712,0.018,-0.916,0.021,-6.037,0.366,-3.293,75.384
119314,142986,24053,0.022,-0.969,-0.091,-6.037,0.366,-3.293,75.387
119314,142888,10703,0.03,-1.066,-0.098,-3.659,-0.854,-2.5,75.394
119242,142730,24053,0.034,-1.104,-0.035,-3.659,-0.854,-2.5,75.397
119242,142833,10693,0.021,-1.025,-0.029,6.28,0.183,0.671,75.403
119141,142730,24053,0.013,-0.909,-0.06,6.28,0.183,0.671,75.407
119141,142724,10679,0.004,-0.875,-0.042,7.622,2.5,1.585,75.413
119078,142730,24053,0,-0.918,-0.002,7.622,2.5,1.585,75.417
119078,142686,10671,0.001,-0.962,0.017,11.098,1.28,1.463,75.423
119091,142730,24053,0.009,-0.978,0.035,11.098,1.28,1.463,75.427
119091,142683,10666,0.013,-0.969,0.059,9.634,-0.488,1.098,75.433
119061,142730,24053,0.007,-0.949,0.077,9.634,-0.488,1.098,75.437
119061,142668,10656,-0.005,-0.925,0.08,2.683,0.854,0,75.443
119072,142730,24053,-0.009,-0.912,0.087,2.683,0.854,0,75.447
119072,142693,10672,-0.004,-0.922,0.094,-4.39,0.793,-1.463,75.453
119156,142730,24053,0.006,-0.945,0.056,-4.39,0.793,-1.463,75.457
119156,142766,10675,0.011,-0.984,-0.067,-10.488,-0.854,-1.585,75.463
119202,142730,24053,0.02,-1.052,-0.129,-10.488,-0.854,-1.585,75.467
119202,142774,10688,0.035,-1.099,-0.073,-6.341,-1.585,-0.488,75.473
119127,142730,24053,0.035,-1.064,-0.018,-6.341,-1.585,-0.488,75.477
119127,142699,10680,0.014,-0.981,-0.048,4.939,0.488,1.707,75.483
119063,142730,24053,-0.008,-0.95,-0.078,4.939,0.488,1.707,75.486
119063,142614,10648,-0.009,-0.976,-0.063,8.72,2.561,2.378,75.493
119000,142474,24053,0.001,-1.011,-0.04,8.72,2.561,2.378,75.496
119000,142587,10652,0.016,-1.004,-0.008,13.72,0.732,1.707,75.503
118953,142474,24053,0.023,-0.971,0.023,13.72,0.732,1.707,75.506
118953,142545,10657,0.012,-0.946,0.044,15.366,1.159,0.854,75.512
118887,142474,24053,-0.004,-0.942,0.059,15.366,1.159,0.854,75.516
118887,142478,10632,-0.014,-0.951,0.07,13.415,2.439,0.366,75.522
118866,142474,24053,-0.009,-0.965,0.066,13.415,2.439,0.366,75.526
118866,142446,10638,0.004,-0.963,0.005,9.329,1.28,-0.549,75.532
118891,142474,24053,0.019,-0.979,-0.096,9.329,1.28,-0.549,75.536
118891,142495,10641,0.037,-1.024,-0.127,6.951,0.549,-1.646,75.542
118959,142474,24053,0.05,-1.063,-0.052,6.951,0.549,-1.646,75.546
118959,142530,10670,0.043,-1.032,0.004,16.585,1.463,0.183,75.552
118958,142474,24053,0.023,-0.951,-0.039,16.585,1.463,0.183,75.556
118958,142552,10654,-0.003,-0.921,-0.035,19.939,4.573,2.866,75.562
118923,142474,24053,-0.011,-0.939,0.048,19.939,4.573,2.866,75.566
118923,142532,10648,-0.014,-0.945,0.084,21.768,3.963,2.866,75.572
118859,142474,24053,-0.016,-0.932,0.084,21.768,3.963,2.866,75.576
118859,142505,10631,-0.013,-0.932,0.141,17.866,2.195,1.341,75.582
118830,142474,24053,-0.008,-0.915,0.209,17.866,2.195,1.341,75.585
118830,142463,10624,-0.014,-0.879,0.221,10.061,1.402,0.061,75.592
118837,142474,24053,-0.028,-0.866,0.175,10.061,1.402,0.061,75.595
118837,142435,10639,-0.029,-0.905,0.112,-3.354,0.732,-1.707,75.601
118796,142474,24053,-0.009,-0.965,0.036,-3.354,0.732,-1.707,75.605
118796,142412,10626,0.027,-1.019,-0.024,-11.098,-2.988,-2.683,75.611
118795,142474,24053,0.052,-1.042,-0.069,-11.098,-2.988,-2.683,75.615
118795,142458,10642,0.05,-1.04,-0.122,-8.963,-3.293,-2.073,75.621
118897,142474,24053,0.038,-1.036,-0.118,-8.963,-3.293,-2.073,75.625
118897,142534,10660,0.023,-1.03,-0.054,-0.183,0.671,0.305,75.631
118948,142474,24053,0.004,-0.99,-0.012,-0.183,0.671,0.305,75.635
118948,142584,10643,-0.01,-0.938,-0.023,6.585,3.049,1.646,75.641
118980,142474,24053,-0.007,-0.921,-0.043,6.585,3.049,1.646,75.645
118980,142576,10655,0.012,-0.946,-0.017,7.561,2.195,0.366,75.651
118936,142474,24053,0.029,-0.99,0.034,7.561,2.195,0.366,75.655
118936,142556,10645,0.023,-1.017,0.076,11.524,0.488,-0.183,75.661
118990,142730,24053,0.005,-1.011,0.117,11.524,0.488,-0.183,75.665
118990,142607,10639,-0.018,-0.978,0.142,9.939,1.829,0.61,75.671
118990,142474,24053,-0.029,-0.928,0.133,9.939,1.829,0.61,75.675
118990,142591,10655,-0.014,-0.907,0.117,0.671,2.012,-0.793,75.681
118962,142474,24053,0.001,-0.917,0.058,0.671,2.012,-0.793,75.684
118962,142566,10656,0.02,-0.961,0.013,-4.695,-0.305,-2.561,75.691
118958,142474,24053,0.041,-1.009,0.026,-4.695,-0.305,-2.561,75.694
118958,142553,10644,0.038,-1.001,0.029,-1.463,-2.317,-0.732,75.701
118999,142474,24053,0.026,-0.946,0.016,-1.463,-2.317,-0.732,75.704
118999,142575,10662,0.015,-0.905,-0.005,0.488,-0.732,2.195,75.71
118977,142474,24053,0.007,-0.916,-0.022,0.488,-0.732,2.195,75.714
118977,142551,10646,0.003,-0.955,-0.037,1.646,0.305,2.744,75.72
118918,142474,24053,0.008,-0.995,-0.031,1.646,0.305,2.744,75.724
118918,142495,10631,0.022,-1.021,0.004,5.61,-0.366,2.134,75.73
118827,142474,24053,0.023,-1.012,0.021,5.61,-0.366,2.134,75.734
118827,142452,10636,0.013,-0.986,0.012,7.805,0.671,2.134,75.74
118886,142474,24053,0.001,-0.975,0.031,7.805,0.671,2.134,75.744
118886,142481,10641,-0.003,-0.969,0.082,8.049,2.134,1.89,75.75
118849,142474,24053,-0.01,-0.965,0.107,8.049,2.134,1.89,75.754
118849,142466,10636,-0.02,-0.978,0.095,8.598,2.134,0.915,75.76
118834,142474,24053,-0.022,-1.008,0.058,8.598,2.134,0.915,75.764
118834,142433,10616,-0.016,-1.029,0.028,5.122,0.305,-0.366,75.77
118834,142474,24053,-0.016,-1.029,0.028,5.122,0.305,-0.366,75.774
118834,142459,10621,0.016,-0.973,0.009,6.098,-1.28,-0.915,75.78
118819,142474,24053,0.016,-0.973,0.009,6.098,-1.28,-0.915,75.783
118819,142426,10629,0.022,-0.945,-0.074,11.341,-0.732,-0.793,75.79
118772,142474,24053,0.022,-0.945,-0.074,11.341,-0.732,-0.793,75.793
118772,142336,10586,0.035,-0.993,0.034,17.378,-0.244,0.122,75.799
118731,142218,24053,0.035,-0.993,0.034,17.378,-0.244,0.122,75.803
118731,142301,10598,0.004,-0.925,0.058,19.207,0.976,1.402,75.809
118763,142474,24053,0.004,-0.925,0.058,19.207,0.976,1.402,75.813
118763,142348,10604,-0.004,-0.942,0.122,15.915,1.037,1.402,75.819
118833,142474,24053,-0.004,-0.942,0.122,15.915,1.037,1.402,75.823
118833,142423,10613,0.007,-0.938,0.117,7.256,0,-0.061,75.829
118868,142474,24053,0.007,-0.938,0.117,7.256,0,-0.061,75.833
118868,142452,10623,0.003,-0.977,0.093,-1.098,-0.122,-1.28,75.839
118920,142474,24053,0.003,-0.977,0.093,-1.098,-0.122,-1.28,75.843
118920,142501,10647,0.02,-0.999,-0.051,-7.256,-0.183,-1.585,75.849
118983,142474,24053,0.02,-0.999,-0.051,-7.256,-0.183,-1.585,75.853
118983,142547,10634,0.027,-0.985,0.019,0.122,-0.549,-0.61,75.859
118925,142474,24053,0.027,-0.985,0.019,0.122,-0.549,-0.61,75.863
118925,142485,10629,0.011,-1.005,-0.021,6.22,1.159,0.488,75.869
118723,142218,24053,0.011,-1.005,-0.021,6.22,1.159,0.488,75.873
118723,142306,10585,0.005,-0.992,0.074,12.256,1.341,1.28,75.879
118584,142218,24053,0.005,-0.992,0.074,12.256,1.341,1.28,75.882
118584,142153,10570,-0.005,-0.924,0.108,10.183,1.829,0.915,75.889
118546,142218,24053,-0.005,-0.924,0.108,10.183,1.829,0.915,75.892
118546,142151,10574,0.002,-0.941,0.114,5.427,0.793,-0.488,75.899
118570,142218,24053,0.002,-0.941,0.114,5.427,0.793,-0.488,75.902
118570,142183,10578,0.017,-0.933,0.109,-1.159,-1.28,-1.463,75.908
118591,142218,24053,0.017,-0.933,0.109,-1.159,-1.28,-1.463,75.912
118591,142199,10576,0.02,-0.937,0.067,-6.585,-1.89,-1.524,75.918
118704,142218,24053,0.02,-0.937,0.067,-6.585,-1.89,-1.524,75.922
118704,142302,10607,0.02,-0.951,0.036,-6.585,-1.89,-1.524,75.928
118821,142474,24053,0.025,-0.969,-0.002,-8.78,-2.073,-0.549,75.932
118821,142409,10623,0.029,-0.984,-0.02,-8.78,-2.073,-0.549,75.938
118872,142474,24053,0.031,-0.997,0.022,-5.244,-2.012,0.915,75.942
118872,142438,10619,0.022,-0.985,0.049,-5.244,-2.012,0.915,75.948
118832,142474,24053,0.008,-0.963,0.014,-0.793,-0.427,2.561,75.952
118832,142401,10609,0.001,-0.965,-0.016,-0.793,-0.427,2.561,75.958
118717,142218,24053,0.01,-0.978,0.003,-0.549,0.427,3.049,75.962
118717,142310,10597,0.022,-0.981,0.039,-0.549,0.427,3.049,75.968
118646,142218,24053,0.018,-0.975,0.063,3.537,0.488,2.439,75.972
118646,142247,10586,0.003,-0.985,0.1,3.537,0.488,2.439,75.978
118535,142218,24053,-0.019,-0.993,0.129,4.817,1.341,2.439,75.981
118535,142139,10579,-0.032,-0.984,0.132,4.817,1.341,2.439,75.988
118442,142218,24053,-0.026,-0.97,0.108,0.183,1.159,1.585,75.991
118442,142084,10560,-0.011,-0.983,0.103,0.183,1.159,1.585,75.998
118450,141962,24053,-0.001,-0.997,0.115,-5.488,-0.427,-1.341,76.001
118450,142053,10550,0.002,-0.986,0.108,-5.488,-0.427,-1.341,76.007
118473,142218,24053,0.008,-0.955,0.057,-10.793,-1.585,-1.89,76.011
118473,142094,10558,0.013,-0.939,-0.027,-10.793,-1.585,-1.89,76.017
118489,142218,24053,0.019,-0.965,-0.088,-14.146,-1.28,-1.707,76.021
118489,142103,10581,0.029,-1.01,-0.045,-14.146,-1.28,-1.707,76.027
118413,142218,24053,0.035,-1.012,0.018,-3.72,-1.098,-0.793,76.031
118413,142083,10555,0.021,-0.955,0.002,-3.72,-1.098,-0.793,76.037
118321,141962,24053,0.004,-0.922,-0.031,1.951,0.915,0.61,76.041
118321,141959,10556,0,-0.946,-0.025,1.951,0.915,0.61,76.047
118273,141962,24053,0.008,-0.992,0.019,6.22,0.366,0.976,76.051
118273,141886,10547,0.021,-1.008,0.064,6.22,0.366,0.976,76.057
118219,141962,24053,0.019,-0.985,0.096,10.427,-0.427,0.427,76.061
118219,141852,10523,0.004,-0.967,0.124,10.427,-0.427,0.427,76.067
118246,141962,24053,-0.014,-0.966,0.147,7.195,1.22,0.061,76.071
118246,141877,10523,-0.021,-0.971,0.143,7.195,1.22,0.061,76.077
118240,141962,24053,-0.012,-0.974,0.12,-0.122,0.854,-0.732,76.08
118240,141854,10523,0.01,-0.969,0.108,-0.122,0.854,-0.732,76.087
118194,141962,24053,0.02,-0.96,0.084,-7.317,-0.915,-1.951,76.09
118194,141866,10530,0.026,-0.95,0.047,-7.317,-0.915,-1.951,76.097
118176,141706,24053,0.031,-0.945,0.003,-9.451,-0.732,-1.037,76.1
118176,141818,10540,0.031,-0.951,-0.04,-9.451,-0.732,-1.037,76.106
118185,141706,24053,0.026,-0.978,-0.034,-6.524,-0.122,0.549,76.11
118185,141817,10533,0.017,-0.998,0,-6.524,-0.122,0.549,76.116
118236,141962,24053,0.01,-0.981,-0.001,1.098,0.549,2.256,76.12
118236,141899,10525,0.009,-0.964,-0.022,1.098,0.549,2.256,76.126
118347,141962,24053,0.009,-0.976,0.001,4.512,1.28,1.89,76.13
118347,141983,10551,0.01,-1.005,0.033,4.512,1.28,1.89,76.136
118433,141962,24053,0.007,-1.02,0.04,8.354,1.22,1.22,76.14
118433,142064,10582,0.007,-1.014,0.056,8.354,1.22,1.22,76.146
118556,142218,24053,0.006,-0.984,0.11,9.024,1.707,0.488,76.15
118556,142165,10581,-0.003,-0.946,0.147,9.024,1.707,0.488,76.156
118633,142218,24053,-0.008,-0.928,0.144,6.159,2.561,-0.427,76.16
118633,142258,10591,-0.011,-0.935,0.132,6.159,2.561,-0.427,76.166
118633,142218,24053,-0.012,-0.958,0.106,-1.159,1.829,-1.402,76.17
118633,142253,10609,-0.005,-0.991,0.043,-1.159,1.829,-1.402,76.176
118639,142218,24053,0.007,-1.032,0,-4.39,0.183,-1.768,76.179
118639,142246,10588,0.022,-1.039,0.007,-4.39,0.183,-1.768,76.186
118600,142218,24053,0.034,-0.992,0.021,-0.854,-0.732,-0.976,76.189
118600,142216,10600,0.032,-0.926,0.017,-0.854,-0.732,-0.976,76.196
118588,142218,24053,0.021,-0.887,0.001,1.89,1.159,0,76.199
118588,142216,10603,0.017,-0.9,-0.017,1.89,1.159,0,76.205
118664,142218,24053,0.017,-0.948,-0.006,3.415,1.768,0.427,76.209
118664,142259,10614,0.02,-0.986,0.019,3.415,1.768,0.427,76.215
118751,142474,24053,0.021,-0.99,0.026,7.439,0.366,1.098,76.219
118751,142338,10623,0.022,-0.971,0.047,7.439,0.366,1.098,76.225
118869,142474,24053,0.015,-0.949,0.122,8.354,0.854,1.28,76.229
118869,142454,10641,0.003,-0.926,0.194,8.354,0.854,1.28,76.235
118987,142474,24053,-0.021,-0.913,0.203,4.451,1.707,0.915,76.239
118987,142554,10660,-0.041,-0.917,0.15,4.451,1.707,0.915,76.245
119079,142730,24053,-0.032,-0.946,0.105,-7.744,0.61,-0.61,76.249
119079,142636,10658,-0.003,-0.974,0.082,-7.744,0.61,-0.61,76.255
119114,142730,24053,0.027,-0.987,0.062,-13.354,-2.195,-2.988,76.259
119114,142660,10670,0.04,-1.004,0.006,-13.354,-2.195,-2.988,76.265
119096,142730,24053,0.037,-1.042,-0.089,-11.341,-2.073,-2.073,76.269
119096,142639,10659,0.032,-1.086,-0.083,-11.341,-2.073,-2.073,76.275
119014,142474,24053,0.029,-1.075,0.005,-0.854,-0.183,0.61,76.278
119014,142584,10651,0.02,-0.978,0.023,-0.854,-0.183,0.61,76.285
118978,142474,24053,0.006,-0.902,-0.025,4.817,2.256,1.28,76.288
118978,142549,10660,0.001,-0.92,-0.026,4.817,2.256,1.28,76.295
119029,142474,24053,0.016,-0.976,0.047,6.951,2.195,0.488,76.298
119029,142579,10668,0.025,-0.975,0.095,6.951,2.195,0.488,76.304
119005,142474,24053,0.019,-0.932,0.098,8.963,0.732,0.183,76.308
119005,142579,10652,0.004,-0.921,0.127,8.963,0.732,0.183,76.314
119056,142730,24053,-0.018,-0.938,0.161,2.683,1.037,-0.366,76.318
119056,142622,10663,-0.024,-0.948,0.182,2.683,1.037,-0.366,76.324
119164,142730,24053,-0.016,-0.955,0.18,-6.341,-0.427,-1.341,76.328
119164,142717,10674,-0.016,-0.96,0.13,-6.341,-0.427,-1.341,76.334
119239,142730,24053,-0.002,-0.969,0.048,-17.805,-2.195,-3.11,76.338
119239,142784,10689,0.021,-0.99,-0.019,-17.805,-2.195,-3.11,76.344
119212,142730,24053,0.042,-1.019,-0.016,-17.927,-2.622,-3.415,76.348
119212,142754,10692,0.048,-1.029,0.015,-17.927,-2.622,-3.415,76.354
119173,142730,24053,0.032,-0.997,0.014,-6.89,-2.012,-0.549,76.358
119173,142735,10668,0.016,-0.953,-0.048,-6.89,-2.012,-0.549,76.364
119126,142730,24053,0.016,-0.953,-0.048,-6.89,-2.012,-0.549,76.368
119126,142680,10670,0.018,-0.993,-0.037,-2.805,0,1.829,76.374
119061,142730,24053,0.018,-0.993,-0.037,-2.805,0,1.829,76.377
119061,142620,10676,0.024,-0.958,0.037,4.878,0,2.195,76.384
119104,142730,24053,0.024,-0.958,0.037,4.878,0,2.195,76.387
119104,142676,10666,0.009,-0.925,0.075,7.744,0.427,2.134,76.394
119074,142730,24053,0.009,-0.925,0.075,7.744,0.427,2.134,76.397
119074,142674,10669,0.006,-0.948,0.108,4.573,0.732,1.707,76.403
119143,142730,24053,0.006,-0.948,0.108,4.573,0.732,1.707,76.407
119143,142719,10666,0.001,-0.937,0.127,0.61,-0.122,0.732,76.413
119228,142730,24053,0.001,-0.937,0.127,0.61,-0.122,0.732,76.417
119228,142810,10684,0.007,-0.958,0.05,-3.902,-0.793,0.061,76.423
119236,142730,24053,0.007,-0.958,0.05,-3.902,-0.793,0.061,76.427
119236,142795,10699,0.022,-1.053,-0.014,-8.049,-1.402,0,76.433
119183,142730,24053,0.022,-1.053,-0.014,-8.049,-1.402,0,76.437
119183,142728,10679,0.021,-1.021,0.023,-2.256,-1.463,0.488,76.443
119091,142730,24053,0.021,-1.021,0.023,-2.256,-1.463,0.488,76.447
119091,142618,10670,0.001,-0.979,0.004,2.5,0.976,1.646,76.453
119029,142474,24053,0.001,-0.979,0.004,2.5,0.976,1.646,76.457
119029,142573,10641,0.016,-0.937,0.028,4.329,1.463,2.256,76.463
118939,142474,24053,0.016,-0.937,0.028,4.329,1.463,2.256,76.467
118939,142502,10643,0.022,-0.958,0.087,6.402,1.159,1.402,76.473
118901,142474,24053,0.022,-0.958,0.087,6.402,1.159,1.402,76.476
118901,142458,10642,-0.012,-0.941,0.141,7.073,1.341,1.159,76.483
118937,142474,24053,-0.012,-0.941,0.141,7.073,1.341,1.159,76.486
118937,142509,10632,-0.026,-0.948,0.109,1.341,1.341,1.22,76.493
119022,142730,24053,-0.026,-0.948,0.109,1.341,1.341,1.22,76.496
119022,142611,10664,0.013,-0.928,0.065,-7.439,0.122,-1.037,76.502
119116,142730,24053,0.013,-0.928,0.065,-7.439,0.122,-1.037,76.506
119116,142647,10645,0.025,-0.934,0.025,-11.22,-1.951,-2.561,76.512
119078,142730,24053,0.033,-0.977,0.005,-11.22,-1.951,-2.561,76.516
119078,142622,10660,0.03,-1.01,-0.014,-8.902,-2.378,-1.098,76.522
119085,142730,24053,0.027,-1.004,-0.036,-8.902,-2.378,-1.098,76.526
119085,142632,10661,0.024,-0.985,-0.016,-3.963,-1.098,1.037,76.532
119036,142730,24053,0.015,-0.98,0.014,-3.963,-1.098,1.037,76.536
119036,142608,10662,0,-0.983,-0.003,2.622,0.427,1.829,76.542
119004,142474,24053,0.002,-0.993,-0.04,2.622,0.427,1.829,76.546
119004,142558,10634,0.019,-1.017,-0.037,4.573,0.122,1.402,76.552
118958,142474,24053,0.031,-1.029,-0.003,4.573,0.122,1.402,76.556
118958,142507,10637,0.03,-1.025,0.05,10.488,0.549,0.549,76.562
118894,142474,24053,0.016,-1.012,0.114,10.488,0.549,0.549,76.566
118894,142484,10657,-0.011,-0.985,0.154,13.232,3.171,0.793,76.572
118961,142474,24053,-0.033,-0.949,0.16,13.232,3.171,0.793,76.575
118961,142534,10645,-0.029,-0.936,0.145,5.244,2.927,0.244,76.582
119014,142474,24053,-0.013,-0.952,0.099,5.244,2.927,0.244,76.585
119014,142577,10650,0.01,-0.976,0.05,-4.329,-0.122,-2.256,76.592
119017,142474,24053,0.038,-0.986,0.064,-4.329,-0.122,-2.256,76.595
119017,142559,10656,0.041,-0.953,0.076,-4.451,-0.976,-2.195,76.601
118960,142474,24053,0.03,-0.907,0.034,-4.451,-0.976,-2.195,76.605
118960,142525,10634,0.015,-0.908,-0.016,-4.329,0.183,-0.061,76.611
118906,142474,24053,0.011,-0.953,-0.014,-4.329,0.183,-0.061,76.615
118906,142497,10632,0.021,-0.972,-0.023,-2.134,-0.427,1.524,76.621
118892,142474,24053,0.029,-0.953,-0.058,-2.134,-0.427,1.524,76.625
118892,142445,10611,0.033,-0.961,-0.016,3.476,0,1.646,76.631
118797,142474,24053,0.026,-0.975,0.056,3.476,0,1.646,76.635
118797,142396,10614,0.009,-0.964,0.049,9.573,1.159,2.561,76.641
118775,142474,24053,-0.003,-0.965,0.043,9.573,1.159,2.561,76.645
118775,142391,10617,-0.008,-0.995,0.084,8.232,1.89,2.439,76.651
118801,142474,24053,-0.008,-1.013,0.135,8.232,1.89,2.439,76.655
118801,142363,10612,-0.015,-1.005,0.141,5.854,1.402,0.854,76.661
118808,142474,24053,-0.017,-0.981,0.126,5.854,1.402,0.854,76.665
118808,142398,10613,-0.001,-0.959,0.133,-1.098,0.854,-0.854,76.671
118861,142474,24053,0.01,-0.947,0.104,-1.098,0.854,-0.854,76.674
118861,142428,10622,0.013,-0.956,0.016,-6.89,0.183,-1.585,76.681
118909,142474,24053,0.026,-0.997,-0.003,-6.89,0.183,-1.585,76.684
118909,142465,10635,0.037,-1.013,0.038,-4.634,-0.549,-0.915,76.691
118876,142474,24053,0.031,-0.979,0.022,-4.634,-0.549,-0.915,76.694
118876,142471,10619,0.021,-0.943,-0.031,-0.122,0.366,0.854,76.7
118887,142474,24053,0.018,-0.95,-0.024,-0.122,0.366,0.854,76.704
118887,142465,10614,0.016,-0.973,0.035,3.963,1.037,1.829,76.71
118896,142474,24053,0.017,-0.953,0.042,3.963,1.037,1.829,76.714
118896,142440,10624,0.021,-0.925,0.032,6.707,0.976,1.707,76.72
118829,142474,24053,0.019,-0.927,0.059,6.707,0.976,1.707,76.724
118829,142419,10613,0.014,-0.947,0.096,5.366,0.854,1.463,76.73
118845,142474,24053,0.004,-0.953,0.125,5.366,0.854,1.463,76.734
118845,142399,10619,-0.007,-0.939,0.134,2.683,0.854,1.524,76.74
118851,142474,24053,-0.012,-0.924,0.123,2.683,0.854,1.524,76.744
118851,142431,10622,-0.011,-0.936,0.12,-4.207,0.061,0.61,76.75
118826,142474,24053,-0.007,-0.958,0.101,-4.207,0.061,0.61,76.754
118826,142417,10623,0,-0.974,0.081,-9.695,-1.89,-0.427,76.76
118784,142474,24053,0.014,-0.975,0.056,-9.695,-1.89,-0.427,76.764
118784,142353,10617,0.02,-0.971,0.037,-11.951,-2.927,-0.549,76.77
118734,142218,24053,0.019,-0.98,0.016,-11.951,-2.927,-0.549,76.773
118734,142305,10599,0.015,-1.006,-0.003,-9.329,-2.5,0.732,76.78
118666,142218,24053,0.014,-1.017,0.003,-9.329,-2.5,0.732,76.783
118666,142258,10581,0.013,-1.006,0.026,-4.146,-2.012,1.829,76.79
118639,142218,24053,0.004,-0.974,0.026,-4.146,-2.012,1.829,76.793
118639,142229,10608,0.001,-0.956,0.013,-2.195,-0.854,1.524,76.799
118645,142218,24053,0.009,-0.968,0.026,-2.195,-0.854,1.524,76.803
118645,142221,10597,0.013,-0.978,0.064,-1.037,-0.61,0.549,76.809
118632,142218,24053,0.012,-0.967,0.077,-1.037,-0.61,0.549,76.813
118632,142202,10586,0.006,-0.952,0.059,-1.707,-0.366,0.183,76.819
118705,142218,24053,0.002,-0.954,0.064,-1.707,-0.366,0.183,76.823
118705,142313,10607,0.004,-0.965,0.095,-4.146,-0.427,-0.366,76.829
118825,142474,24053,0.006,-0.952,0.092,-4.146,-0.427,-0.366,76.833
118825,142417,10612,0.011,-0.943,0.047,-7.683,-1.22,-0.732,76.839
118866,142474,24053,0.021,-0.964,0.027,-7.683,-1.22,-0.732,76.843
118866,142445,10643,0.025,-0.987,0.02,-8.598,-1.89,-0.427,76.849
118828,142474,24053,0.031,-0.992,-0.006,-8.598,-1.89,-0.427,76.853
118828,142411,10628,0.037,-0.999,-0.015,-4.512,-1.524,0.976,76.859
118804,142474,24053,0.033,-1.006,0.008,-4.512,-1.524,0.976,76.863
118804,142379,10626,0.021,-0.999,0.028,-0.061,-0.061,2.744,76.869
118759,142474,24053,0.006,-0.986,0.017,-0.061,-0.061,2.744,76.872
118759,142362,10613,-0.005,-0.992,-0.01,0.976,1.341,3.415,76.879
118698,142218,24053,-0.009,-1.01,0.004,0.976,1.341,3.415,76.882
118698,142276,10609,-0.002,-1.022,0.043,2.866,1.22,2.134,76.888
118708,142218,24053,0.006,-1.007,0.077,2.866,1.22,2.134,76.892
118708,142307,10612,-0.001,-0.985,0.073,3.963,1.159,0.488,76.898
118778,142218,24053,-0.014,-0.965,0.063,3.963,1.159,0.488,76.902
118778,142332,10629,-0.008,-0.941,0.071,0.427,1.402,-0.61,76.908
118816,142474,24053,0.004,-0.917,0.055,0.427,1.402,-0.61,76.912
118816,142395,10634,0.01,-0.926,0.015,-0.854,0.488,-1.524,76.918
118900,142474,24053,0.017,-0.977,0.009,-0.854,0.488,-1.524,76.922
118900,142498,10640,0.019,-1.003,0.04,2.683,-0.366,-1.28,76.928
118957,142474,24053,0.019,-0.971,0.055,2.683,-0.366,-1.28,76.932
118957,142514,10654,0.007,-0.931,0.058,6.037,0.488,-0.122,76.938
118946,142474,24053,-0.003,-0.929,0.06,6.037,0.488,-0.122,76.942
118946,142541,10641,-0.005,-0.961,0.06,4.512,0.549,0.061,76.948
118928,142474,24053,-0.005,-0.961,0.06,4.512,0.549,0.061,76.952
118928,142505,10645,0.021,-1.005,0.037,1.098,-0.366,-0.854,76.958
118907,142474,24053,0.021,-1.005,0.037,1.098,-0.366,-0.854,76.962
118907,142492,10654,0.03,-0.973,0.042,-2.256,0,-1.341,76.968
118842,142474,24053,0.03,-0.973,0.042,-2.256,0,-1.341,76.971
118842,142456,10636,0.017,-0.977,0.048,-2.012,1.098,-0.061,76.978
118851,142474,24053,0.017,-0.977,0.048,-2.012,1.098,-0.061,76.981
118851,142440,10622,0.005,-0.958,0.062,-2.317,0.854,0.671,76.988
118869,142474,24053,0.005,-0.958,0.062,-2.317,0.854,0.671,76.991
118869,142455,10641,0.011,-0.94,0.06,-3.659,0.305,0.183,76.997
118909,142474,24053,0.011,-0.94,0.06,-3.659,0.305,0.183,77.001
118909,142497,10655,0.008,-0.963,0.045,-3.78,-0.183,0.488,77.007
118938,142474,24053,0.008,-0.963,0.045,-3.78,-0.183,0.488,77.011
118938,142521,10646,0.013,-0.983,0.016,-3.11,-0.305,1.037,77.017
118917,142474,24053,0.013,-0.983,0.016,-3.11,-0.305,1.037,77.021
118917,142485,10636,0.014,-0.964,0.062,0.183,-0.244,1.341,77.027
118895,142474,24053,0.014,-0.964,0.062,0.183,-0.244,1.341,77.031
118895,142478,10642,0.002,-0.942,0.069,-0.122,0.488,1.22,77.037
118829,142474,24053,0.002,-0.942,0.069,-0.122,0.488,1.22,77.041
118829,142400,10638,0.009,-0.984,0.044,-2.927,0,0.549,77.047
118748,142474,24053,0.009,-0.984,0.044,-2.927,0,0.549,77.051
118748,142353,10621,0.025,-1.003,0.031,-3.963,-0.671,0.244,77.057
118702,142218,24053,0.025,-1.003,0.031,-3.963,-0.671,0.244,77.061
118702,142289,10606,0.015,-0.986,0.03,-4.39,0.183,0.427,77.067
118624,142218,24053,0.015,-0.986,0.03,-4.39,0.183,0.427,77.07
118624,142229,10607,0.001,-0.986,0.012,-1.402,1.22,0.854,77.077
118576,142218,24053,0.001,-0.986,0.012,-1.402,1.22,0.854,77.08
118576,142192,10594,0.011,-0.971,0.017,0.671,0.488,0.732,77.087
118539,142218,24053,0.011,-0.971,0.017,0.671,0.488,0.732,77.09
118539,142135,10581,0.015,-0.954,-0.006,0.671,0.488,0.732,77.096
118503,142218,24053,0.019,-0.962,-0.011,4.085,0.549,0.549,77.1
118503,142117,10592,0.019,-0.991,0.014,4.085,0.549,0.549,77.106
118441,142218,24053,0.014,-0.993,0.026,10.122,1.037,1.402,77.11
118441,142116,10584,0.007,-0.972,0.036,10.122,1.037,1.402,77.116
118379,141962,24053,-0,-0.953,0.055,13.049,1.951,1.707,77.12
118379,142014,10577,-0.005,-0.952,0.069,13.049,1.951,1.707,77.126
118337,141962,24053,-0.003,-0.974,0.092,13.049,1.951,1.159,77.13
118337,141982,10558,-0,-0.988,0.133,13.049,1.951,1.159,77.136
118316,141962,24053,-0.006,-0.97,0.147,9.939,1.707,0.244,77.14
118316,141952,10562,-0.012,-0.937,0.114,9.939,1.707,0.244,77.146
118303,141962,24053,-0.005,-0.921,0.086,0.244,1.037,-0.976,77.15
118303,141990,10556,0.008,-0.938,0.074,0.244,1.037,-0.976,77.156
118371,141962,24053,0.016,-0.967,0.02,-5.427,-0.793,-1.463,77.16
118371,142048,10574,0.03,-0.985,-0.043,-5.427,-0.793,-1.463,77.166
118407,141962,24053,0.043,-0.984,-0.028,-5,-1.585,-0.915,77.169
118407,142079,10579,0.042,-0.96,0.041,-5,-1.585,-0.915,77.176
118428,141962,24053,0.019,-0.926,0.064,3.293,-0.183,0.976,77.179
118428,142077,10586,-0.008,-0.925,0.037,3.293,-0.183,0.976,77.185
118390,141962,24053,-0.015,-0.968,0.012,4.39,0.732,2.317,77.189
118390,142039,10562,-0.007,-1.018,0.034,4.39,0.732,2.317,77.195
118385,141962,24053,0.016,-1.032,0.07,4.634,-0.671,0.976,77.199
118385,142032,10579,0.023,-1.007,0.071,4.634,-0.671,0.976,77.205
118330,141962,24053,0.014,-0.988,0.077,4.817,0.976,-0.366,77.209
118330,141976,10566,0.002,-0.973,0.11,4.817,0.976,-0.366,77.215
118256,141962,24053,-0.006,-0.961,0.119,3.049,2.134,-0.183,77.219
118256,141907,10554,-0.002,-0.965,0.092,3.049,2.134,-0.183,77.225
118249,141962,24053,0.004,-0.984,0.07,-2.012,0.793,-0.854,77.229
118249,141874,10551,0.016,-0.99,0.07,-2.012,0.793,-0.854,77.235
118253,141962,24053,0.025,-0.97,0.064,-4.756,-0.244,-1.098,77.239
118253,141918,10552,0.031,-0.931,0.017,-4.756,-0.244,-1.098,77.245
118288,141962,24053,0.033,-0.932,-0.011,-5.549,0.549,-0.122,77.249
118288,141954,10563,0.029,-0.963,-0.015,-5.549,0.549,-0.122,77.255
118352,141962,24053,0.021,-0.979,-0.012,-0.976,1.585,1.646,77.259
118352,142019,10573,0.019,-0.966,-0.027,-0.976,1.585,1.646,77.265
118413,141962,24053,0.018,-0.96,-0.027,5.549,2.195,2.5,77.268
118413,142057,10562,0.016,-0.974,0.011,5.549,2.195,2.5,77.275
118454,142218,24053,0.01,-0.993,0.064,12.5,2.317,2.5,77.278
118454,142106,10586,0.004,-1.001,0.109,12.5,2.317,2.5,77.285
118489,142218,24053,-0.013,-0.996,0.137,13.841,3.11,2.012,77.288
118489,142130,10580,-0.031,-0.981,0.152,13.841,3.11,2.012,77.294
118504,142218,24053,-0.037,-0.958,0.142,6.524,2.561,0.427,77.298
118504,142131,10591,-0.024,-0.969,0.109,6.524,2.561,0.427,77.304
118500,142218,24053,-0.003,-1,0.09,-1.037,0.488,-2.317,77.308
118500,142105,10589,0.007,-1.027,0.063,-1.037,0.488,-2.317,77.314
118465,142218,24053,0.023,-1.03,-0.012,-4.085,-0.976,-3.415,77.318
118465,142119,10594,0.034,-1.006,-0.097,-4.085,-0.976,-3.415,77.324
118466,142218,24053,0.048,-0.991,-0.063,0.671,0.488,-2.256,77.328
118466,142094,10582,0.048,-0.982,0.051,0.671,0.488,-2.256,77.334
118457,142218,24053,0.023,-0.933,0.054,13.415,2.073,0,77.338
118457,142102,10588,-0.002,-0.904,0.015,13.415,2.073,0,77.344
118471,141962,24053,-0.005,-0.919,0.024,13.902,2.866,1.768,77.348
118471,142072,10582,0.01,-0.942,0.043,13.902,2.866,1.768,77.354
118474,142218,24053,0.028,-0.948,0.081,14.329,0.976,1.098,77.358
118474,142107,10584,0.023,-0.94,0.113,14.329,0.976,1.098,77.364
118496,142218,24053,0.008,-0.939,0.131,14.085,1.341,0.427,77.367
118496,142138,10606,-0.002,-0.938,0.158,14.085,1.341,0.427,77.374
118555,142218,24053,-0.01,-0.943,0.179,7.927,1.646,0,77.377
118555,142179,10609,-0.014,-0.957,0.152,7.927,1.646,0,77.383
118613,142218,24053,-0.005,-0.985,0.071,-2.134,0.854,-1.707,77.387
118613,142240,10593,0.016,-1.011,0.006,-2.134,0.854,-1.707,77.393
118635,142218,24053,0.043,-1.038,0.04,-5.183,-0.366,-2.5,77.397
118635,142250,10605,0.048,-1.016,0.084,-5.183,-0.366,-2.5,77.403
118621,142218,24053,0.027,-0.954,0.063,1.159,0.549,-0.122,77.407
118621,142250,10614,0.005,-0.918,0.036,1.159,0.549,-0.122,77.413
118563,142218,24053,-0.009,-0.93,0.032,1.89,1.707,2.134,77.417
118563,142197,10589,0.002,-0.962,0.057,1.89,1.707,2.134,77.423
118501,142218,24053,0.017,-0.968,0.07,3.902,0.183,2.134,77.427
118501,142138,10599,0.023,-0.958,0.051,3.902,0.183,2.134,77.433
118498,142218,24053,0.016,-0.957,0.052,2.988,0.244,1.646,77.437
118498,142123,10587,0.009,-0.964,0.088,2.988,0.244,1.646,77.443
118530,142218,24053,-0.001,-0.962,0.114,2.317,0.854,1.646,77.447
118530,142152,10592,-0.006,-0.957,0.12,2.317,0.854,1.646,77.453
118499,142218,24053,-0.012,-0.954,0.127,-1.159,0.366,0.488,77.456
118499,142177,10599,-0.002,-0.952,0.115,-1.159,0.366,0.488,77.463
118613,142218,24053,0.012,-0.961,0.059,-7.073,-0.793,-1.524,77.466
118613,142256,10598,0.025,-0.996,0.004,-7.073,-0.793,-1.524,77.473
118668,142218,24053,0.031,-1.034,0.005,-7.012,-0.854,-1.463,77.476
118668,142312,10623,0.036,-1.029,0.069,-7.012,-0.854,-1.463,77.482
118684,142218,24053,0.024,-0.969,0.055,-0.488,0.305,0.488,77.486
118684,142303,10611,-0.002,-0.933,-0.027,-0.488,0.305,0.488,77.492
118633,142218,24053,-0.006,-0.986,-0.008,1.463,2.134,1.524,77.496
118633,142279,10595,0.01,-1.039,0.072,1.463,2.134,1.524,77.502
118615,142218,24053,0.009,-1.009,0.084,8.11,0.793,1.463,77.506
118615,142228,10592,0.005,-0.949,0.081,8.11,0.793,1.463,77.512
118546,142218,24053,0.002,-0.936,0.113,7.073,1.463,0.427,77.516
118546,142193,10585,-0.007,-0.948,0.149,7.073,1.463,0.427,77.522
118558,142218,24053,-0.012,-0.961,0.164,3.841,1.463,-0.61,77.526
118558,142184,10598,-0.016,-0.959,0.135,3.841,1.463,-0.61,77.532
118606,142218,24053,-0.016,-0.959,0.135,3.841,1.463,-0.61,77.536
118606,142215,10595,0.005,-0.947,0.076,-4.695,0.122,-2.073,77.542
118656,142218,24053,0.005,-0.947,0.076,-4.695,0.122,-2.073,77.546
118656,142301,10612,0.028,-0.952,0.054,-8.963,-1.707,-3.049,77.552
118748,142474,24053,0.028,-0.952,0.054,-8.963,-1.707,-3.049,77.556
118748,142356,10629,0.038,-0.928,-0.006,-7.622,-2.256,-2.134,77.562
118741,142474,24053,0.038,-0.928,-0.006,-7.622,-2.256,-2.134,77.565
118741,142349,10631,0.039,-0.93,0.042,-4.817,-1.524,-0.488,77.572
118736,142474,24053,0.039,-0.93,0.042,-4.817,-1.524,-0.488,77.575
118736,142341,10625,0.011,-0.957,0.047,1.646,-0.61,1.402,77.581
118705,142218,24053,0.011,-0.957,0.047,1.646,-0.61,1.402,77.585
118705,142313,10618,0.007,-0.994,0.078,3.78,-0.183,2.927,77.591
118675,142218,24053,0.007,-0.994,0.078,3.78,-0.183,2.927,77.595
118675,142299,10617,0.009,-0.997,0.104,3.537,-0.366,2.378,77.601
118693,142218,24053,0.009,-0.997,0.104,3.537,-0.366,2.378,77.605
118693,142318,10609,0.006,-1.012,0.103,2.134,0.366,1.159,77.611
118658,142218,24053,0.006,-1.012,0.103,2.134,0.366,1.159,77.615
118658,142317,10628,0.007,-1.037,0.081,-0.427,0.915,0.61,77.621
118747,142474,24053,0.007,-1.037,0.081,-0.427,0.915,0.61,77.625
118747,142356,10627,0.005,-0.995,0.045,-3.232,1.098,0.427,77.631
118825,142474,24053,0.005,-0.995,0.045,-3.232,1.098,0.427,77.635
118825,142453,10636,0.021,-0.932,0.052,-4.268,1.22,0.122,77.641
118863,142474,24053,0.021,-0.932,0.052,-4.268,1.22,0.122,77.645
118863,142457,10642,0.01,-0.971,0.003,-2.378,1.341,0.488,77.651
118864,142474,24053,0.01,-0.971,0.003,-2.378,1.341,0.488,77.654
118864,142469,10623,0.02,-0.989,-0.04,0.549,0.854,1.037,77.661
118866,142474,24053,0.02,-0.989,-0.04,0.549,0.854,1.037,77.664
118866,142483,10634,0.024,-0.947,0.068,6.768,1.159,1.037,77.671
118855,142474,24053,0.024,-0.947,0.068,6.768,1.159,1.037,77.674
118855,142471,10649,0.005,-0.923,0.082,12.744,1.951,1.28,77.68
118809,142474,24053,-0.012,-0.934,0.1,12.744,1.951,1.28,77.684
118809,142418,10646,-0.015,-0.964,0.136,11.098,1.768,0.793,77.69
118779,142474,24053,-0.012,-0.973,0.163,11.098,1.768,0.793,77.694
118779,142400,10633,-0.002,-0.968,0.154,5.854,0.488,-0.671,77.7
118770,142474,24053,0.004,-0.972,0.139,5.854,0.488,-0.671,77.704
118770,142397,10628,0.011,-0.982,0.134,-0.671,0.244,-1.524,77.71
118780,142474,24053,0.008,-0.979,0.133,-0.671,0.244,-1.524,77.714
118780,142435,10633,0.01,-0.953,0.098,-5,0.305,-1.22,77.72
118799,142474,24053,0.009,-0.936,0.012,-5,0.305,-1.22,77.724
118799,142443,10630,0.022,-0.968,-0,-7.195,0.061,-0.915,77.73
118807,142474,24053,0.036,-1.002,0.058,-7.195,0.061,-0.915,77.734
118807,142425,10645,0.028,-0.978,0.064,-1.037,-0.671,0.366,77.74
118808,142474,24053,0.015,-0.929,0.035,-1.037,-0.671,0.366,77.744
118808,142439,10635,0.004,-0.918,0.04,0.183,0.671,1.524,77.75
118836,142474,24053,0.002,-0.93,0.046,0.183,0.671,1.524,77.754
118836,142485,10645,0.011,-0.948,0.043,0.854,-0.061,1.341,77.76
118829,142474,24053,0.019,-0.974,0.052,0.854,-0.061,1.341,77.763
118829,142463,10640,0.025,-0.987,0.084,3.171,-0.915,0.305,77.77
118877,142474,24053,0.019,-0.978,0.106,3.171,-0.915,0.305,77.773
118877,142507,10655,0.011,-0.973,0.103,3.049,0.183,0.244,77.779
118900,142474,24053,0.001,-0.996,0.095,3.049,0.183,0.244,77.783
118900,142504,10652,-0.001,-1.027,0.11,0.305,0.732,0.305,77.789
118888,142474,24053,0.003,-1.028,0.135,0.305,0.732,0.305,77.793
118888,142508,10646,0.002,-0.996,0.106,-3.232,-0.122,-0.305,77.799
118813,142474,24053,0.008,-0.966,0.054,-3.232,-0.122,-0.305,77.803
118813,142440,10643,0.023,-0.971,0.042,-7.012,-0.122,-0.793,77.809
118776,142474,24053,0.026,-0.982,0.052,-7.012,-0.122,-0.793,77.813
118776,142414,10627,0.023,-0.973,0.048,-3.293,0,0.183,77.819
118746,142474,24053,0.016,-0.955,0.046,-3.293,0,0.183,77.823
118746,142388,10627,0.007,-0.939,0.046,-0.61,0.671,1.159,77.829
118749,142474,24053,0.003,-0.934,0.022,-0.61,0.671,1.159,77.833
118749,142370,10615,0.01,-0.943,0.009,0.793,1.037,1.037,77.839
118778,142474,24053,0.023,-0.965,0.042,0.793,1.037,1.037,77.843
118778,142426,10634,0.023,-0.959,0.076,4.878,0.732,0.732,77.849
118790,142474,24053,0.015,-0.933,0.075,4.878,0.732,0.732,77.853
118790,142439,10627,0.005,-0.941,0.083,5.915,1.098,0.915,77.859
118843,142474,24053,-0.003,-0.974,0.114,5.915,1.098,0.915,77.862
118843,142478,10646,-0.005,-0.996,0.129,4.878,0.854,0.793,77.869
118860,142474,24053,-0.004,-0.994,0.117,4.878,0.854,0.793,77.872
118860,142506,10652,0.009,-0.978,0.107,-0.061,0.244,-0.305,77.878
118864,142474,24053,0.015,-0.964,0.103,-0.061,0.244,-0.305,77.882
118864,142522,10655,0.016,-0.969,0.073,-4.756,0.183,-0.915,77.888
118857,142474,24053,0.022,-0.981,0.056,-4.756,0.183,-0.915,77.892
118857,142488,10643,0.023,-0.99,0.053,-4.817,0.061,0,77.898
118802,142474,24053,0.02,-0.983,0.05,-4.817,0.061,0,77.902
118802,142445,10644,0.016,-0.968,0.047,-2.5,0.183,1.22,77.908
118771,142474,24053,0.012,-0.957,0.062,-2.5,0.183,1.22,77.912
118771,142395,10632,0.007,-0.95,0.063,-1.037,0.244,1.585,77.918
118718,142474,24053,0.009,-0.953,0.054,-1.037,0.244,1.585,77.922
118718,142360,10635,0.013,-0.959,0.07,-0.732,-0.366,1.28,77.928
118724,142474,24053,0.018,-0.959,0.09,-0.732,-0.366,1.28,77.932
118724,142378,10636,0.017,-0.949,0.095,-0.793,-0.366,0.976,77.938
118786,142474,24053,0.005,-0.949,0.103,-0.793,-0.366,0.976,77.942
118786,142421,10648,-0.007,-0.961,0.103,-3.476,-0.183,1.098,77.948
118823,142474,24053,-0.012,-0.971,0.091,-3.476,-0.183,1.098,77.952
118823,142479,10648,-0.002,-0.977,0.08,-6.768,-1.159,0.549,77.958
118893,142474,24053,0.016,-0.971,0.077,-6.768,-1.159,0.549,77.961
118893,142536,10667,0.022,-0.963,0.06,-8.72,-1.89,-0.732,77.968
118921,142474,24053,0.02,-0.972,0.037,-8.72,-1.89,-0.732,77.971
118921,142563,10672,0.017,-1.002,0.01,-7.5,-1.402,-0.427,77.977
118952,142474,24053,0.015,-1.035,-0.013,-7.5,-1.402,-0.427,77.981
118952,142549,10675,0.02,-1.048,-0.001,-1.646,-0.976,0.61,77.987
118890,142474,24053,0.021,-1.031,0.037,-1.646,-0.976,0.61,77.991
118890,142542,10661,0.016,-0.992,0.042,4.939,0.427,0.976,77.997
118866,142474,24053,0.01,-0.971,0.02,4.939,0.427,0.976,78.001
118866,142507,10645,0.009,-0.981,0.037,7.439,2.073,0.976,78.007
118848,142474,24053,0.015,-0.988,0.068,7.439,2.073,0.976,78.011
118848,142488,10647,0.018,-0.978,0.083,10.122,1.951,0.671,78.017
118822,142474,24053,0.016,-0.966,0.106,10.122,1.951,0.671,78.021
118822,142474,10649,0.009,-0.956,0.162,9.634,2.5,0.427,78.027
118877,142474,24053,-0.014,-0.936,0.186,9.634,2.5,0.427,78.031
118877,142491,10655,-0.028,-0.919,0.133,2.012,2.805,-0.122,78.037
118943,142730,24053,-0.016,-0.923,0.081,2.012,2.805,-0.122,78.041
118943,142596,10666,-0.001,-0.936,0.082,-6.524,0.427,-1.768,78.047
118985,142474,24053,0.017,-0.945,0.082,-6.524,0.427,-1.768,78.05
118985,142581,10679,0.025,-0.948,0.056,-7.134,-1.707,-2.5,78.057
118989,142730,24053,0.027,-0.952,0.02,-7.134,-1.707,-2.5,78.06
118989,142628,10672,0.021,-0.96,0.011,-5.976,-0.671,-1.951,78.067
118967,142730,24053,0.024,-0.95,0.007,-5.976,-0.671,-1.951,78.07
118967,142601,10667,0.024,-0.942,-0.024,-1.646,0.183,-1.098,78.076
118933,142474,24053,0.021,-0.972,-0.023,-1.646,0.183,-1.098,78.08
118933,142570,10676,0.023,-1.029,0.016,5.915,0.244,-0.671,78.086
118894,142474,24053,0.016,-1.057,0.026,5.915,0.244,-0.671,78.09
118894,142529,10655,0.009,-1.061,0.026,13.171,1.524,-0.671,78.096
118824,142474,24053,0.006,-1.06,0.063,13.171,1.524,-0.671,78.1
118824,142477,10650,0.002,-1.048,0.118,16.951,3.11,-1.22,78.106
118846,142474,24053,-0.01,-1.019,0.141,16.951,3.11,-1.22,78.11
118846,142467,10647,-0.015,-0.987,0.15,16.159,4.024,-2.561,78.116
118847,142474,24053,-0.011,-0.969,0.143,16.159,4.024,-2.561,78.12
118847,142498,10647,-0.003,-0.968,0.127,10.183,3.354,-4.207,78.126
118873,142474,24053,-0.003,-0.968,0.127,10.183,3.354,-4.207,78.13
118873,142504,10661,0.013,-0.976,0.081,6.22,1.402,-4.878,78.136
118935,142474,24053,0.013,-0.976,0.081,6.22,1.402,-4.878,78.14
118935,142567,10651,0.031,-0.928,0.099,6.098,0.366,-4.146,78.146
118939,142474,24053,0.031,-0.928,0.099,6.098,0.366,-4.146,78.15
118939,142579,10652,0.036,-0.879,0.05,3.963,0.244,-2.378,78.156
118958,142730,24053,0.036,-0.879,0.05,3.963,0.244,-2.378,78.159
118958,142594,10657,0.052,-0.871,0.06,2.317,0.244,-0.976,78.166
118970,142474,24053,0.052,-0.871,0.06,2.317,0.244,-0.976,78.169
118970,142586,10664,0.036,-0.917,0.066,3.537,0.549,1.098,78.175
118941,142474,24053,0.036,-0.917,0.066,3.537,0.549,1.098,78.179
118941,142580,10663,0.017,-0.984,0.097,4.451,0.549,2.927,78.185
118907,142474,24053,0.017,-0.984,0.097,4.451,0.549,2.927,78.189
118907,142538,10662,0.005,-1.001,0.117,3.537,0.976,2.744,78.195
118919,142474,24053,0.005,-1.001,0.117,3.537,0.976,2.744,78.199
118919,142546,10654,0.006,-0.997,0.125,1.28,0.976,1.707,78.205
118902,142474,24053,0.006,-0.997,0.125,1.28,0.976,1.707,78.209
118902,142551,10669,0.006,-1.015,0.081,0,0.793,1.463,78.215
118928,142474,24053,0.006,-1.015,0.081,0,0.793,1.463,78.219
118928,142542,10654,0.022,-0.943,0.121,0.366,0.732,1.28,78.225
118906,142474,24053,0.022,-0.943,0.121,0.366,0.732,1.28,78.229
118906,142545,10655,0,-0.925,0.064,-0.427,1.341,0.854,78.235
118898,142474,24053,0,-0.925,0.064,-0.427,1.341,0.854,78.239
118898,142535,10660,0.011,-0.971,0.078,1.037,-0.183,1.28,78.245
118857,142474,24053,0.011,-0.971,0.078,1.037,-0.183,1.28,78.249
118857,142520,10645,0.015,-0.936,0.063,0.427,-0.61,0.549,78.255
118876,142474,24053,0.015,-0.936,0.063,0.427,-0.61,0.549,78.258
118876,142530,10663,0.011,-0.971,0.078,0.244,-0.244,-0.122,78.265
118875,142474,24053,0.011,-0.971,0.078,0.244,-0.244,-0.122,78.268
118875,142520,10672,0.013,-0.985,0.049,0.244,-0.244,-0.122,78.274
118868,142474,24053,0.023,-1.001,0.05,-0.366,-0.671,-0.488,78.278
118868,142542,10654,0.03,-1.005,0.089,-0.366,-0.671,-0.488,78.284
118911,142730,24053,0.022,-0.99,0.102,1.707,-0.305,-0.488,78.288
118911,142593,10667,0.017,-0.98,0.093,1.707,-0.305,-0.488,78.294
118930,142474,24053,0.013,-0.985,0.096,1.098,0.793,0.183,78.298
118930,142579,10658,0.009,-0.991,0.108,1.098,0.793,0.183,78.304
118860,142474,24053,0.011,-0.978,0.125,0.122,0.366,0.793,78.308
118860,142522,10649,0.009,-0.956,0.119,0.122,0.366,0.793,78.314
118823,142474,24053,0.009,-0.936,0.121,-1.646,0.366,0.549,78.318
118823,142480,10654,0.016,-0.918,0.107,-1.646,0.366,0.549,78.324
118784,142474,24053,0.017,-0.912,0.075,-4.268,0.122,0.366,78.328
118784,142443,10637,0.023,-0.934,0.062,-4.268,0.122,0.366,78.334
118765,142474,24053,0.025,-0.964,0.058,-3.415,-0.793,0.793,78.338
118765,142454,10637,0.02,-0.984,0.069,-3.415,-0.793,0.793,78.344
118774,142474,24053,0.02,-0.982,0.089,0.793,-0.732,1.22,78.347
118774,142429,10652,0.009,-0.966,0.081,0.793,-0.732,1.22,78.354
118889,142474,24053,0.005,-0.963,0.057,1.037,-0.061,1.159,78.357
118889,142549,10655,0.008,-0.987,0.052,1.037,-0.061,1.159,78.364
119005,142730,24053,0.018,-1.025,0.073,1.159,-0.488,0.183,78.367
119005,142662,10663,0.023,-1.036,0.086,1.159,-0.488,0.183,78.373
119086,142730,24053,0.012,-1.019,0.072,2.622,0.305,-0.671,78.377
119086,142757,10688,0.011,-1.01,0.078,2.622,0.305,-0.671,78.383
119142,142730,24053,0.01,-1,0.107,1.402,1.341,-0.671,78.387
119142,142799,10697,0.002,-0.977,0.099,1.402,1.341,-0.671,78.393
119181,142730,24053,0.004,-0.946,0.078,0.305,1.28,-0.732,78.397
119181,142777,10692,0.021,-0.92,0.053,0.305,1.28,-0.732,78.403
119110,142730,24053,0.032,-0.921,0.012,-0.671,0.549,-1.341,78.407
119110,142748,10692,0.046,-0.956,0.049,-0.671,0.549,-1.341,78.413
119047,142730,24053,0.041,-0.969,0.113,5.488,0.244,-0.244,78.417
119047,142670,10676,0.019,-0.922,0.118,5.488,0.244,-0.244,78.423
118991,142730,24053,0.003,-0.885,0.102,6.463,1.159,1.768,78.427
118991,142628,10667,-0.005,-0.903,0.087,6.463,1.159,1.768,78.433
119011,142730,24053,0.003,-0.955,0.103,2.805,0.183,1.463,78.437
119011,142643,10670,0.026,-0.983,0.12,2.805,0.183,1.463,78.443
119038,142730,24053,0.035,-0.977,0.104,1.037,-1.098,0.305,78.447
119038,142705,10675,0.027,-0.982,0.09,1.037,-1.098,0.305,78.453
119077,142730,24053,0.018,-1.013,0.105,-0.976,-0.061,0.549,78.456
119077,142766,10702,0.004,-1.039,0.097,-0.976,-0.061,0.549,78.463
119185,142730,24053,0.001,-1.031,0.081,-1.463,0.732,1.463,78.466
119185,142836,10698,0.013,-1.017,0.062,-1.463,0.732,1.463,78.472
119263,142986,24053,0.023,-1.007,0.055,-2.012,0.915,0.488,78.476
119263,142928,10698,0.025,-0.99,0.048,-2.012,0.915,0.488,78.482
119268,142986,24053,0.029,-0.976,0.054,1.951,1.646,0.305,78.486
119268,142921,10720,0.027,-0.963,0.071,1.951,1.646,0.305,78.492
119265,142986,24053,0.02,-0.945,0.067,6.829,2.439,1.402,78.496
119265,142890,10694,0.011,-0.933,0.055,6.829,2.439,1.402,78.502
119151,142730,24053,0.011,-0.935,0.056,8.537,2.683,2.012,78.506
119151,142796,10676,0.017,-0.943,0.08,8.537,2.683,2.012,78.512
119058,142730,24053,0.019,-0.944,0.12,10.854,1.951,1.585,78.516
119058,142690,10669,0.008,-0.932,0.145,10.854,1.951,1.585,78.522
119024,142730,24053,-0.01,-0.927,0.152,9.085,1.585,1.341,78.526
119024,142654,10654,-0.008,-0.934,0.172,9.085,1.585,1.341,78.532
118991,142730,24053,0.001,-0.949,0.18,2.439,0.488,0.488,78.536
118991,142642,10677,-0.001,-0.967,0.14,2.439,0.488,0.488,78.542
118984,142730,24053,0.001,-0.983,0.099,-5.61,-0.915,-0.671,78.545
118984,142645,10671,0.018,-0.974,0.085,-5.61,-0.915,-0.671,78.552
119051,142730,24053,0.034,-0.948,0.077,-8.476,-2.012,-1.037,78.555
119051,142723,10680,0.036,-0.937,0.063,-8.476,-2.012,-1.037,78.562
119108,142730,24053,0.031,-0.955,0.056,-4.939,-1.22,-0.061,78.565
119108,142743,10700,0.02,-0.984,0.052,-4.939,-1.22,-0.061,78.571
119171,142730,24053,0.014,-1.006,0.038,0.305,0,1.463,78.575
119171,142832,10694,0.009,-1.008,0.038,0.305,0,1.463,78.581
119197,142730,24053,0.017,-1.005,0.065,4.817,0.671,1.463,78.585
119197,142845,10692,0.018,-0.995,0.074,4.817,0.671,1.463,78.591
119173,142730,24053,0.012,-0.987,0.08,7.561,1.037,0.671,78.595
119173,142819,10692,0.011,-0.983,0.103,7.561,1.037,0.671,78.601
119090,142730,24053,0.012,-0.98,0.13,8.476,1.402,0.183,78.605
119090,142755,10697,0.008,-0.965,0.155,8.476,1.402,0.183,78.611
119061,142730,24053,0.006,-0.944,0.167,6.037,1.768,-0.549,78.615
119061,142719,10684,0.004,-0.933,0.15,6.037,1.768,-0.549,78.621
118985,142730,24053,0.007,-0.936,0.145,-0.671,1.098,-1.28,78.625
118985,142665,10674,0.017,-0.937,0.131,-0.671,1.098,-1.28,78.631
118952,142730,24053,0.023,-0.946,0.07,-5.366,-0.671,-0.976,78.635
118952,142631,10670,0.028,-0.965,0.04,-5.366,-0.671,-0.976,78.641
118924,142730,24053,0.04,-0.984,0.079,-4.329,-1.28,-0.183,78.645
118924,142618,10662,0.034,-0.96,0.077,-4.329,-1.28,-0.183,78.651
118921,142730,24053,0.018,-0.924,0.018,-1.22,-0.183,1.402,78.654
118921,142595,10670,0.015,-0.949,0.007,-1.22,-0.183,1.402,78.661
118881,142474,24053,0.023,-1,0.058,2.561,-0.061,2.378,78.664
118881,142590,10662,0.034,-1.014,0.077,2.561,-0.061,2.378,78.67
118899,142730,24053,0.021,-1.001,0.07,7.988,0.244,2.622,78.674
118899,142614,10664,0.01,-0.989,0.102,7.988,0.244,2.622,78.68
118972,142730,24053,-0.003,-0.983,0.15,8.415,1.951,2.012,78.684
118972,142667,10679,-0.013,-0.977,0.18,8.415,1.951,2.012,78.69
118983,142730,24053,-0.02,-0.96,0.211,5.61,1.951,1.037,78.694
118983,142651,10674,-0.016,-0.952,0.209,5.61,1.951,1.037,78.7
118974,142730,24053,-0.01,-0.952,0.146,-3.476,0.732,-1.037,78.704
118974,142654,10671,0,-0.974,0.094,-3.476,0.732,-1.037,78.71
119025,142730,24053,0,-0.974,0.094,-3.476,0.732,-1.037,78.714
119025,142704,10684,0.03,-0.968,0.125,-9.817,-1.098,-2.378,78.72
119063,142730,24053,0.03,-0.968,0.125,-9.817,-1.098,-2.378,78.724
119063,142731,10694,0.014,-0.896,0.049,-9.085,-1.28,-2.012,78.73
119074,142730,24053,0.014,-0.896,0.049,-9.085,-1.28,-2.012,78.734
119074,142731,10668,0.026,-0.986,0.026,-10.488,-0.732,-0.915,78.74
119069,142730,24053,0.026,-0.986,0.026,-10.488,-0.732,-0.915,78.743
119069,142742,10700,0.038,-0.967,0.051,-5.549,-1.646,-0.122,78.75
119063,142730,24053,0.038,-0.967,0.051,-5.549,-1.646,-0.122,78.753
119063,142746,10685,0.016,-0.954,0.091,0.244,-0.671,0.854,78.76
119058,142730,24053,0.016,-0.954,0.091,0.244,-0.671,0.854,78.763
119058,142736,10680,0.006,-1.004,0.088,1.28,0.732,1.707,78.77
119036,142730,24053,0.006,-1.004,0.088,1.28,0.732,1.707,78.773
119036,142711,10690,0.016,-1,0.151,1.402,-0.061,1.159,78.779
119063,142730,24053,0.016,-1,0.151,1.402,-0.061,1.159,78.783
119063,142717,10677,0.007,-0.97,0.126,-0.061,0.122,0,78.789
119055,142730,24053,0.007,-0.97,0.126,-0.061,0.122,0,78.793
119055,142754,10696,0.02,-0.946,0.115,-5.305,0.244,-0.427,78.799
119073,142730,24053,0.02,-0.946,0.115,-5.305,0.244,-0.427,78.803
119073,142761,10691,0.019,-0.964,0.051,-6.585,-0.183,-0.305,78.809
119087,142730,24053,0.019,-0.964,0.051,-6.585,-0.183,-0.305,78.813
119087,142763,10699,0.027,-1.002,0.037,-5.488,-0.549,0.122,78.819
119087,142730,24053,0.027,-1.002,0.037,-5.488,-0.549,0.122,78.823
119087,142758,10709,0.027,-0.954,0.041,-1.646,-0.366,1.159,78.829
