120993,147944,11530,0.025,-0.968,-0.017,-1.89,0.793,1.037,172.228
120975,148106,24053,0.024,-0.981,-0.024,-1.89,0.793,1.037,172.232
120975,147978,11519,0.026,-0.986,-0.024,-1.89,0.427,0.732,172.238
120996,147850,24053,0.025,-0.988,-0.026,-1.89,0.427,0.732,172.242
120996,147961,11534,0.027,-0.984,-0.027,-1.037,0,0.305,172.248
121022,148106,24053,0.025,-0.981,-0.028,-1.037,0,0.305,172.252
121022,147988,11526,0.023,-0.979,-0.025,-0.244,0.366,0.122,172.258
121032,148106,24053,0.023,-0.973,-0.022,-0.244,0.366,0.122,172.261
121032,148028,11532,0.027,-0.967,-0.018,1.037,0.61,0.061,172.268
121031,148106,24053,0.031,-0.959,-0.012,1.037,0.61,0.061,172.271
121031,147998,11535,0.031,-0.954,-0.002,1.524,0.061,0.183,172.278
121023,148106,24053,0.028,-0.952,0.005,1.524,0.061,0.183,172.281
121023,147988,11525,0.028,-0.951,0.005,0.488,0.305,0.305,172.287
121040,147850,24053,0.027,-0.951,-0.007,0.488,0.305,0.305,172.291
121040,147966,11517,0.028,-0.955,-0.012,-0.915,0.427,0.427,172.297
120949,148106,24053,0.028,-0.965,-0.012,-0.915,0.427,0.427,172.301
120949,147973,11514,0.029,-0.973,-0.007,-0.976,0.061,0.488,172.307
120922,147850,24053,0.029,-0.977,-0.011,-0.976,0.061,0.488,172.311
120922,147930,11494,0.029,-0.98,-0.011,-1.341,0.366,0.427,172.317
120882,147850,24053,0.025,-0.978,-0.01,-1.341,0.366,0.427,172.321
120882,147904,11503,0.023,-0.975,-0.015,-2.317,1.037,0.427,172.327
120863,147850,24053,0.019,-0.974,-0.025,-2.317,1.037,0.427,172.331
120863,147882,11488,0.022,-0.977,-0.026,-2.622,0.671,0.183,172.337
120793,147850,24053,0.025,-0.979,-0.027,-2.622,0.671,0.183,172.341
120793,147845,11478,0.028,-0.98,-0.025,-1.402,-0.183,0.061,172.347
120748,147850,24053,0.032,-0.978,-0.019,-1.402,-0.183,0.061,172.351
120748,147815,11485,0.03,-0.97,-0.021,-1.159,-0.061,0.061,172.357
120761,147850,24053,0.027,-0.965,-0.02,-1.159,-0.061,0.061,172.36
120761,147825,11483,0.026,-0.961,-0.018,-0.976,0.732,0.244,172.367
120743,147850,24053,0.025,-0.958,-0.016,-0.976,0.732,0.244,172.37
120743,147835,11490,0.026,-0.958,-0.014,-0.244,0.549,0.305,172.377
120745,147850,24053,0.029,-0.963,-0.021,-0.244,0.549,0.305,172.38
120745,147815,11476,0.032,-0.97,-0.021,0.183,-0.061,0.122,172.386
120715,147850,24053,0.03,-0.974,-0.014,0.183,-0.061,0.122,172.39
120715,147806,11477,0.031,-0.975,-0.014,0.061,0,0.183,172.396
120683,147850,24053,0.028,-0.969,-0.009,0.061,0,0.183,172.4
120683,147791,11483,0.029,-0.966,-0.008,-0.61,0.427,0.488,172.406
120695,147850,24053,0.028,-0.966,-0.013,-0.61,0.427,0.488,172.41
120695,147793,11471,0.029,-0.966,-0.015,-1.524,0.488,0.61,172.416
120691,147850,24053,0.028,-0.968,-0.023,-1.524,0.488,0.61,172.42
120691,147805,11471,0.027,-0.975,-0.022,-1.402,0.305,0.793,172.426
120742,147850,24053,0.028,-0.985,-0.02,-1.402,0.305,0.793,172.43
120742,147801,11481,0.026,-0.983,-0.02,-1.037,0.244,0.854,172.436
120763,147850,24053,0.026,-0.978,-0.018,-1.037,0.244,0.854,172.44
120763,147834,11458,0.028,-0.971,-0.022,-1.341,0.671,0.549,172.446
120802,147850,24053,0.029,-0.962,-0.023,-1.341,0.671,0.549,172.45
120802,147894,11486,0.029,-0.956,-0.02,-1.463,0.549,0.305,172.456
120852,147850,24053,0.028,-0.958,-0.023,-1.463,0.549,0.305,172.46
120852,147887,11486,0.027,-0.967,-0.021,-0.122,0.244,0.305,172.466
120885,147850,24053,0.03,-0.969,-0.016,-0.122,0.244,0.305,172.469
120885,147902,11499,0.032,-0.973,-0.019,1.037,0.244,0.366,172.476
120867,147850,24053,0.029,-0.972,-0.024,1.037,0.244,0.366,172.479
120867,147883,11512,0.03,-0.972,-0.022,0.976,0.61,0.61,172.485
120873,147850,24053,0.028,-0.972,-0.017,0.976,0.61,0.61,172.489
120873,147881,11492,0.028,-0.972,-0.01,0.854,0.61,0.854,172.495
120854,147850,24053,0.031,-0.968,-0.006,0.854,0.61,0.854,172.499
120854,147865,11493,0.032,-0.965,-0.008,0,0.671,0.915,172.505
120861,147850,24053,0.029,-0.96,-0.011,0,0.671,0.915,172.509
120861,147886,11488,0.027,-0.966,-0.016,-1.098,0.793,0.976,172.515
120871,147850,24053,0.025,-0.976,-0.019,-1.098,0.793,0.976,172.519
120871,147906,11480,0.026,-0.98,-0.019,-0.671,0.549,1.098,172.525
120897,147850,24053,0.025,-0.981,-0.014,-0.671,0.549,1.098,172.529
120897,147939,11503,0.027,-0.976,-0.015,-0.61,0.366,1.037,172.535
120915,147850,24053,0.024,-0.967,-0.023,-0.61,0.366,1.037,172.539
120915,147919,11517,0.026,-0.965,-0.029,-1.22,0.671,0.793,172.545
120938,147850,24053,0.025,-0.968,-0.031,-1.22,0.671,0.793,172.549
120938,147940,11507,0.025,-0.971,-0.033,0,0.793,0.732,172.555
120951,147850,24053,0.023,-0.971,-0.027,0,0.793,0.732,172.559
120951,147946,11489,0.025,-0.969,-0.025,1.829,0.305,0.549,172.565
120957,147850,24053,0.025,-0.969,-0.025,1.829,0.305,0.549,172.568
120957,147940,11498,0.029,-0.969,-0.02,2.622,0.427,0.183,172.575
120958,147850,24053,0.029,-0.969,-0.02,2.622,0.427,0.183,172.578
120958,147937,11505,0.028,-0.971,-0.014,2.561,0.488,0.244,172.585
120933,147850,24053,0.028,-0.971,-0.014,2.561,0.488,0.244,172.588
120933,147912,11492,0.033,-0.965,0.006,1.951,0.305,0.61,172.594
120885,147850,24053,0.033,-0.965,0.006,1.951,0.305,0.61,172.598
120885,147884,11493,0.026,-0.96,-0.012,-0.122,0.793,0.854,172.604
120808,147850,24053,0.026,-0.96,-0.012,-0.122,0.793,0.854,172.608
120808,147829,11474,0.023,-0.974,-0.013,-0.671,0.793,0.915,172.614
120799,147850,24053,0.023,-0.974,-0.013,-0.671,0.793,0.915,172.618
120799,147843,11478,0.028,-0.976,-0.012,-0.488,0,0.793,172.624
120801,147850,24053,0.028,-0.976,-0.012,-0.488,0,0.793,172.628
120801,147838,11475,0.028,-0.967,-0.024,-1.159,0.427,0.671,172.634
120809,147850,24053,0.028,-0.967,-0.024,-1.159,0.427,0.671,172.638
120809,147831,11458,0.024,-0.972,-0.02,-0.427,1.098,0.732,172.644
120775,147850,24053,0.024,-0.972,-0.02,-0.427,1.098,0.732,172.648
120775,147827,11471,0.026,-0.969,-0.01,0.549,0.793,0.61,172.654
120800,147850,24053,0.026,-0.969,-0.01,0.549,0.793,0.61,172.658
120800,147838,11466,0.026,-0.958,-0.013,-0.061,0.61,0.366,172.664
120808,147850,24053,0.026,-0.958,-0.013,-0.061,0.61,0.366,172.667
120808,147856,11496,0.023,-0.97,-0.017,-0.366,0.732,0.305,172.674
120820,147850,24053,0.023,-0.97,-0.017,-0.366,0.732,0.305,172.677
120820,147854,11468,0.022,-0.975,-0.013,-0.061,0,0.122,172.683
120807,147850,24053,0.022,-0.975,-0.013,-0.061,0,0.122,172.687
120807,147855,11476,0.023,-0.97,-0.014,-0.915,-0.122,-0.305,172.693
120810,147850,24053,0.023,-0.97,-0.014,-0.915,-0.122,-0.305,172.697
120810,147845,11471,0.025,-0.967,-0.021,-1.646,0.061,-0.854,172.703
120797,147850,24053,0.025,-0.967,-0.021,-1.646,0.061,-0.854,172.707
120797,147827,11484,0.026,-0.969,-0.018,-1.646,0.061,-0.854,172.713
120793,147850,24053,0.029,-0.972,-0.015,-1.585,-0.366,-0.915,172.717
120793,147829,11455,0.03,-0.973,-0.016,-1.585,-0.366,-0.915,172.723
120781,147850,24053,0.029,-0.972,-0.017,-1.341,-0.549,-0.793,172.727
120781,147842,11473,0.028,-0.973,-0.018,-1.341,-0.549,-0.793,172.733
120805,147850,24053,0.029,-0.974,-0.02,-1.402,-0.305,-0.732,172.737
120805,147851,11473,0.028,-0.974,-0.017,-1.402,-0.305,-0.732,172.743
120806,147850,24053,0.028,-0.973,-0.015,-1.646,-0.366,-0.61,172.747
120806,147874,11481,0.032,-0.969,-0.016,-1.646,-0.366,-0.61,172.753
120813,147850,24053,0.031,-0.964,-0.016,-2.134,-0.366,-0.366,172.757
120813,147861,11474,0.035,-0.96,-0.019,-2.134,-0.366,-0.366,172.763
120828,147850,24053,0.033,-0.963,-0.028,-1.768,0.061,-0.122,172.766
120828,147870,11474,0.029,-0.969,-0.035,-1.768,0.061,-0.122,172.773
120832,147850,24053,0.03,-0.979,-0.035,-0.305,0.305,0.122,172.776
120832,147885,11471,0.031,-0.978,-0.03,-0.305,0.305,0.122,172.783
120822,147850,24053,0.031,-0.976,-0.027,1.159,0.305,0.427,172.786
120822,147858,11471,0.032,-0.974,-0.028,1.159,0.305,0.427,172.792
120844,147850,24053,0.033,-0.967,-0.025,1.89,0.549,0.671,172.796
120844,147866,11459,0.031,-0.97,-0.021,1.89,0.549,0.671,172.802
120848,147850,24053,0.028,-0.97,-0.014,2.988,0.915,1.098,172.806
120848,147890,11472,0.029,-0.966,-0.009,2.988,0.915,1.098,172.812
120850,147850,24053,0.029,-0.965,-0.015,2.5,1.037,1.22,172.816
120850,147868,11480,0.028,-0.97,-0.015,2.5,1.037,1.22,172.822
120857,147850,24053,0.027,-0.975,-0.009,2.012,1.098,1.28,172.826
120857,147868,11464,0.028,-0.977,-0.003,2.012,1.098,1.28,172.832
120887,147850,24053,0.027,-0.972,-0.002,1.159,0.793,1.463,172.836
120887,147900,11474,0.028,-0.968,-0.012,1.159,0.793,1.463,172.842
120908,147850,24053,0.026,-0.97,-0.021,-0.61,0.671,1.159,172.846
120908,147910,11485,0.023,-0.97,-0.024,-0.61,0.671,1.159,172.852
120944,147850,24053,0.023,-0.975,-0.025,0.122,0.671,0.976,172.856
120944,147917,11500,0.024,-0.98,-0.023,0.122,0.671,0.976,172.862
120977,147850,24053,0.025,-0.975,-0.02,1.646,0.427,1.037,172.865
120977,147960,11505,0.029,-0.969,-0.02,1.646,0.427,1.037,172.872
120967,147850,24053,0.026,-0.966,-0.018,1.829,0.671,0.732,172.875
120967,147954,11505,0.025,-0.96,-0.013,1.829,0.671,0.732,172.882
120977,148106,24053,0.025,-0.957,-0.008,2.378,0.854,0.549,172.885
120977,147977,11494,0.023,-0.956,-0.004,2.378,0.854,0.549,172.891
120988,147850,24053,0.029,-0.959,0.001,2.622,0.671,0.549,172.895
120988,147942,11500,0.028,-0.96,0.002,2.622,0.671,0.549,172.901
121009,148106,24053,0.027,-0.96,-0,1.585,0.671,0.549,172.905
121009,147972,11498,0.026,-0.966,-0.009,1.585,0.671,0.549,172.911
121017,148106,24053,0.024,-0.973,-0.008,-0.061,0.427,0.427,172.915
121017,148002,11500,0.024,-0.976,-0.004,-0.061,0.427,0.427,172.921
121016,147850,24053,0.026,-0.975,-0.002,-1.341,0,0.183,172.925
121016,147965,11473,0.028,-0.97,-0.01,-1.341,0,0.183,172.931
121000,148106,24053,0.026,-0.969,-0.022,-3.049,0.061,-0.061,172.935
121000,147980,11491,0.026,-0.972,-0.032,-3.049,0.061,-0.061,172.941
121024,147850,24053,0.027,-0.978,-0.031,-2.744,0.122,-0.183,172.945
121024,147967,11492,0.029,-0.984,-0.022,-2.744,0.122,-0.183,172.951
121034,148106,24053,0.028,-0.982,-0.017,-0.854,-0.305,-0.122,172.955
121034,147978,11482,0.028,-0.978,-0.018,-0.854,-0.305,-0.122,172.961
121018,148106,24053,0.025,-0.971,-0.022,-0.366,0,-0.244,172.964
121018,147985,11495,0.028,-0.964,-0.023,-0.366,0,-0.244,172.971
120992,147850,24053,0.03,-0.956,-0.014,-0.305,0.427,-0.244,172.974
120992,147967,11471,0.029,-0.957,-0.012,-0.305,0.427,-0.244,172.981
120971,147850,24053,0.028,-0.963,-0.005,0.488,0.061,0.061,172.984
120971,147916,11482,0.028,-0.966,0.003,0.488,0.061,0.061,172.99
120946,147850,24053,0.029,-0.962,0.003,0.183,0.061,0.305,172.994
120946,147916,11480,0.03,-0.957,-0.01,0.183,0.061,0.305,173
120886,147850,24053,0.026,-0.961,-0.02,-2.256,0.366,0.061,173.004
120886,147890,11471,0.026,-0.966,-0.018,-2.256,0.366,0.061,173.01
120836,147850,24053,0.028,-0.973,-0.009,-2.073,0.244,0.244,173.014
120836,147849,11465,0.029,-0.978,-0.017,-2.073,0.244,0.244,173.02
120802,147850,24053,0.028,-0.98,-0.022,-1.402,0.122,0.488,173.024
120802,147845,11458,0.031,-0.979,-0.026,-1.402,0.122,0.488,173.03
120787,147850,24053,0.027,-0.975,-0.03,-1.707,0.671,0.488,173.034
120787,147837,11455,0.024,-0.978,-0.032,-1.707,0.671,0.488,173.04
120793,147850,24053,0.025,-0.981,-0.024,0.061,0.793,0.488,173.044
120793,147815,11442,0.025,-0.977,-0.018,0.061,0.793,0.488,173.05
120780,147850,24053,0.03,-0.97,-0.022,1.037,0.61,0.427,173.054
120780,147833,11457,0.03,-0.964,-0.024,1.037,0.61,0.427,173.06
120790,147850,24053,0.031,-0.963,-0.027,0.793,0.61,0.488,173.063
120790,147838,11461,0.03,-0.964,-0.015,0.793,0.61,0.488,173.07
120802,147850,24053,0.031,-0.965,-0.005,2.073,0.488,0.793,173.073
120802,147836,11467,0.032,-0.965,-0.002,2.073,0.488,0.793,173.079
120822,147850,24053,0.028,-0.96,-0.004,1.28,0.732,0.976,173.083
120822,147834,11475,0.026,-0.961,-0.007,1.28,0.732,0.976,173.089
120837,147850,24053,0.028,-0.961,-0.008,-0.061,0.793,0.976,173.093
120837,147840,11462,0.029,-0.968,-0.01,-0.061,0.793,0.976,173.099
120829,147850,24053,0.029,-0.974,-0.02,-0.793,0.366,1.037,173.103
120829,147861,11472,0.026,-0.972,-0.022,-0.793,0.366,1.037,173.109
120868,147850,24053,0.025,-0.974,-0.021,-0.976,0.366,0.915,173.113
120868,147856,11477,0.028,-0.976,-0.023,-0.976,0.366,0.915,173.119
120899,147850,24053,0.026,-0.97,-0.018,-0.427,0.732,0.854,173.123
120899,147875,11476,0.025,-0.972,-0.02,-0.427,0.732,0.854,173.129
120980,147850,24053,0.023,-0.971,-0.026,0.061,0.793,0.915,173.133
120980,147929,11483,0.024,-0.971,-0.022,0.061,0.793,0.915,173.139
121018,147850,24053,0.025,-0.974,-0.018,0.793,0.671,0.854,173.143
121018,147958,11479,0.025,-0.974,-0.012,0.793,0.671,0.854,173.149
121044,147850,24053,0.026,-0.969,-0.006,1.159,0.427,0.732,173.153
121044,147956,11500,0.026,-0.965,-0.001,1.159,0.427,0.732,173.159
121056,148106,24053,0.026,-0.965,-0.001,1.159,0.427,0.732,173.162
121056,147969,11494,0.023,-0.96,-0.005,0.244,0.488,0.549,173.169
121067,147850,24053,0.023,-0.96,-0.005,0.244,0.488,0.549,173.172
121067,147961,11488,0.024,-0.971,-0.016,-1.159,0.61,0.549,173.179
121076,147850,24053,0.024,-0.971,-0.016,-1.159,0.61,0.549,173.182
121076,147945,11504,0.026,-0.976,-0.013,-1.646,0.122,0.427,173.188
121031,147850,24053,0.026,-0.976,-0.013,-1.646,0.122,0.427,173.192
121031,147949,11486,0.028,-0.97,-0.026,-2.073,0.061,0.061,173.198
121014,147850,24053,0.028,-0.97,-0.026,-2.073,0.061,0.061,173.202
121014,147925,11473,0.027,-0.969,-0.025,-2.561,0.427,-0.061,173.208
120994,147850,24053,0.027,-0.969,-0.025,-2.561,0.427,-0.061,173.212
120994,147908,11466,0.027,-0.975,-0.033,-1.402,0.366,0.061,173.218
120969,147850,24053,0.027,-0.975,-0.033,-1.402,0.366,0.061,173.222
120969,147916,11469,0.029,-0.975,-0.022,0.61,0.366,0.183,173.228
120985,147850,24053,0.029,-0.975,-0.022,0.61,0.366,0.183,173.232
120985,147942,11472,0.029,-0.967,-0.015,2.073,0.244,0.305,173.238
120980,147850,24053,0.029,-0.967,-0.015,2.073,0.244,0.305,173.242
120980,147912,11477,0.027,-0.961,-0.015,2.073,0.366,0.305,173.248
120975,147850,24053,0.027,-0.961,-0.015,2.073,0.366,0.305,173.252
120975,147905,11484,0.026,-0.967,-0.011,1.89,0.366,0.305,173.258
120969,147850,24053,0.026,-0.967,-0.011,1.89,0.366,0.305,173.261
120969,147914,11479,0.029,-0.973,-0.003,1.951,0.061,0.427,173.268
120932,147850,24053,0.029,-0.973,-0.003,1.951,0.061,0.427,173.271
120932,147909,11478,0.036,-0.961,-0.004,0.61,0,0.427,173.278
120959,147850,24053,0.036,-0.961,-0.004,0.61,0,0.427,173.281
120959,147896,11473,0.026,-0.962,-0.01,-1.829,0.671,0.671,173.287
120927,147850,24053,0.026,-0.962,-0.01,-1.829,0.671,0.671,173.291
120927,147885,11470,0.021,-0.977,-0.021,-2.134,1.159,0.915,173.297
120907,147850,24053,0.021,-0.977,-0.021,-2.134,1.159,0.915,173.301
120907,147880,11460,0.022,-0.987,-0.029,-1.585,0.671,0.793,173.307
120905,147850,24053,0.024,-0.99,-0.032,-1.585,0.671,0.793,173.311
120905,147880,11453,0.024,-0.989,-0.025,-0.671,0.061,0.488,173.317
120882,147850,24053,0.029,-0.978,-0.021,-0.671,0.061,0.488,173.321
120882,147887,11470,0.03,-0.967,-0.02,-0.122,0.61,0.366,173.327
120894,147850,24053,0.027,-0.961,-0.023,-0.122,0.61,0.366,173.331
120894,147861,11459,0.025,-0.958,-0.02,0.732,1.037,0.488,173.337
120885,147850,24053,0.026,-0.962,-0.014,0.732,1.037,0.488,173.341
120885,147880,11457,0.026,-0.968,-0.009,2.378,0.671,0.732,173.347
120905,147850,24053,0.026,-0.969,-0.007,2.378,0.671,0.732,173.351
120905,147880,11456,0.026,-0.968,-0.005,1.89,0.427,0.732,173.357
120925,147850,24053,0.026,-0.966,0.001,1.89,0.427,0.732,173.36
120925,147923,11458,0.027,-0.963,0,0.061,0.427,0.488,173.367
120944,147850,24053,0.027,-0.961,-0.003,0.061,0.427,0.488,173.37
120944,147925,11470,0.025,-0.962,-0.011,-1.829,0.549,0.427,173.377
120946,147850,24053,0.022,-0.968,-0.01,-1.829,0.549,0.427,173.38
120946,147924,11457,0.021,-0.972,-0.012,-2.805,0.366,0.122,173.386
120983,147850,24053,0.02,-0.98,-0.027,-2.805,0.366,0.122,173.39
120983,147941,11474,0.022,-0.985,-0.028,-2.744,-0.122,-0.427,173.396
120982,147850,24053,0.021,-0.989,-0.024,-2.744,-0.122,-0.427,173.4
120982,147931,11454,0.027,-0.985,-0.026,-1.89,-0.427,-1.037,173.406
121009,147850,24053,0.027,-0.978,-0.032,-1.89,-0.427,-1.037,173.41
121009,147925,11454,0.029,-0.972,-0.032,-1.463,-0.366,-1.402,173.416
121005,147850,24053,0.029,-0.966,-0.028,-1.463,-0.366,-1.402,173.42
121005,147932,11472,0.033,-0.969,-0.023,0.366,-0.305,-1.22,173.426
121030,147850,24053,0.034,-0.964,-0.016,0.366,-0.305,-1.22,173.43
121030,147936,11471,0.033,-0.96,-0.01,1.829,-0.183,-0.793,173.436
121038,147850,24053,0.033,-0.958,-0.01,1.829,-0.183,-0.793,173.44
121038,147956,11480,0.032,-0.958,-0.012,1.829,0.305,-0.122,173.446
121025,147850,24053,0.032,-0.963,-0.006,1.829,0.305,-0.122,173.45
121025,147936,11474,0.032,-0.961,-0.005,1.22,0.427,0.427,173.456
121021,147850,24053,0.031,-0.964,-0.01,1.22,0.427,0.427,173.459
121021,147957,11461,0.031,-0.971,-0.01,0.122,0.488,0.854,173.466
120995,147850,24053,0.029,-0.974,-0.014,0.122,0.488,0.854,173.469
120995,147920,11463,0.027,-0.976,-0.014,-0.671,0.732,1.098,173.476
121009,147850,24053,0.026,-0.979,-0.017,-0.671,0.732,1.098,173.479
121009,147926,11451,0.023,-0.977,-0.028,-1.159,1.037,1.159,173.485
120980,147850,24053,0.019,-0.98,-0.026,-1.159,1.037,1.159,173.489
120980,147945,11470,0.022,-0.982,-0.024,-0.793,0.732,1.037,173.495
121006,147850,24053,0.022,-0.979,-0.02,-0.793,0.732,1.037,173.499
121006,147928,11463,0.026,-0.974,-0.015,-0.183,0.549,0.61,173.505
121016,147850,24053,0.027,-0.966,-0.015,-0.183,0.549,0.61,173.509
121016,147961,11472,0.026,-0.964,-0.023,-0.427,0.488,0.305,173.515
121016,147850,24053,0.025,-0.965,-0.024,-0.427,0.488,0.305,173.519
121016,147949,11467,0.027,-0.967,-0.022,0.793,0.305,0.244,173.525
121026,147850,24053,0.027,-0.971,-0.016,0.793,0.305,0.244,173.529
121026,147922,11477,0.028,-0.972,-0.014,2.256,0.122,0.244,173.535
121002,147850,24053,0.029,-0.966,-0.01,2.256,0.122,0.244,173.539
121002,147920,11478,0.029,-0.962,-0.008,1.524,0.183,0.122,173.545
120993,147850,24053,0.029,-0.957,-0.007,1.524,0.183,0.122,173.549
120993,147932,11497,0.027,-0.958,-0.009,0.61,0.671,0.061,173.555
121006,147850,24053,0.026,-0.964,-0.01,0.61,0.671,0.061,173.559
121006,147943,11460,0.031,-0.965,-0.007,0.366,0.244,0.183,173.565
120971,147850,24053,0.032,-0.969,-0.01,0.366,0.244,0.183,173.568
120971,147895,11475,0.034,-0.972,-0.014,0.122,0.061,0.427,173.575
120983,147850,24053,0.029,-0.978,-0.012,0.122,0.061,0.427,173.578
120983,147911,11475,0.025,-0.979,-0.013,0,0.732,0.61,173.584
120973,147850,24053,0.023,-0.977,-0.011,0,0.732,0.61,173.588
120973,147931,11474,0.022,-0.975,-0.017,-0.732,0.793,0.427,173.594
121021,147850,24053,0.023,-0.975,-0.022,-0.732,0.793,0.427,173.598
121021,147927,11468,0.025,-0.979,-0.021,-1.098,0.061,0.061,173.604
121016,147850,24053,0.025,-0.98,-0.015,-1.098,0.061,0.061,173.608
121016,147959,11483,0.027,-0.973,-0.013,-0.671,-0.244,-0.183,173.614
121046,147850,24053,0.028,-0.964,-0.021,-0.671,-0.244,-0.183,173.618
121046,147958,11478,0.031,-0.959,-0.023,-0.915,0,-0.244,173.624
121043,147850,24053,0.03,-0.956,-0.023,-0.915,0,-0.244,173.628
121043,147958,11474,0.032,-0.958,-0.021,0,0.183,0.061,173.634
121034,147850,24053,0.031,-0.967,-0.007,0,0.183,0.061,173.638
121034,147934,11479,0.031,-0.973,-0,2.012,0.427,0.488,173.644
121027,147850,24053,0.028,-0.966,-0.01,2.012,0.427,0.488,173.648
121027,147941,11472,0.028,-0.967,-0.018,0.488,0.732,0.671,173.654
120988,147850,24053,0.026,-0.971,-0.021,0.488,0.732,0.671,173.657
120988,147918,11470,0.025,-0.975,-0.01,-0.122,0.671,0.793,173.664
120970,147850,24053,0.026,-0.98,-0.002,-0.122,0.671,0.793,173.667
120970,147905,11454,0.029,-0.977,-0.004,0.183,0.488,0.915,173.674
120911,147850,24053,0.024,-0.969,-0.016,0.183,0.488,0.915,173.677
120911,147866,11462,0.023,-0.971,-0.024,-1.646,0.854,0.61,173.683
120947,147850,24053,0.022,-0.979,-0.025,-1.646,0.854,0.61,173.687
120947,147855,11452,0.024,-0.983,-0.026,-0.915,0.305,0.427,173.693
120905,147850,24053,0.027,-0.978,-0.023,-0.915,0.305,0.427,173.697
120905,147884,11459,0.028,-0.974,-0.02,0.488,-0.183,0.244,173.703
120952,147850,24053,0.026,-0.968,-0.015,0.488,-0.183,0.244,173.707
120952,147886,11458,0.025,-0.962,-0.012,0.732,0.549,0.183,173.713
120930,147850,24053,0.024,-0.963,-0.011,0.732,0.549,0.183,173.717
120930,147892,11462,0.021,-0.961,-0.006,0.732,1.037,0.183,173.723
120912,147850,24053,0.025,-0.957,-0.015,0.732,1.037,0.183,173.727
120912,147835,11447,0.029,-0.954,-0.018,0.183,0,0,173.733
120918,147850,24053,0.033,-0.961,-0.019,0.183,0,0,173.737
120918,147841,11455,0.036,-0.968,-0.01,0.732,-0.183,-0.061,173.743
120884,147850,24053,0.034,-0.972,-0.007,0.732,-0.183,-0.061,173.747
120884,147849,11446,0.028,-0.974,-0.007,1.098,0.427,0.366,173.753
120874,147850,24053,0.028,-0.974,-0.007,1.098,0.427,0.366,173.757
120874,147829,11439,0.024,-0.975,-0.017,-0.244,0.793,0.671,173.763
120857,147850,24053,0.024,-0.975,-0.017,-0.244,0.793,0.671,173.766
120857,147820,11440,0.027,-0.969,-0.014,-1.037,0.61,0.488,173.773
120857,147850,24053,0.027,-0.969,-0.014,-1.037,0.61,0.488,173.776
120857,147818,11437,0.024,-0.976,-0.024,-0.976,0.427,0.427,173.782
120883,147850,24053,0.024,-0.976,-0.024,-0.976,0.427,0.427,173.786
120883,147840,11431,0.027,-0.978,-0.016,-0.183,0.305,0.427,173.792
120901,147850,24053,0.027,-0.978,-0.016,-0.183,0.305,0.427,173.796
120901,147851,11448,0.026,-0.968,-0.014,0.122,0.366,0.366,173.802
120963,147850,24053,0.026,-0.968,-0.014,0.122,0.366,0.366,173.806
120963,147882,11452,0.026,-0.963,-0.02,0.183,0.366,0.427,173.812
120983,147850,24053,0.026,-0.963,-0.02,0.183,0.366,0.427,173.816
120983,147879,11450,0.028,-0.969,-0.006,1.22,0.183,0.488,173.822
121003,147850,24053,0.028,-0.969,-0.006,1.22,0.183,0.488,173.826
121003,147892,11436,0.024,-0.964,-0.011,0.61,0.305,0.366,173.832
121002,147850,24053,0.024,-0.964,-0.011,0.61,0.305,0.366,173.836
121002,147894,11439,0.024,-0.968,-0.002,-0.61,0.305,0.183,173.842
120986,147850,24053,0.024,-0.968,-0.002,-0.61,0.305,0.183,173.846
120986,147892,11453,0.031,-0.965,-0.006,-1.463,0,0.244,173.852
121000,147850,24053,0.031,-0.965,-0.006,-1.463,0,0.244,173.855
121000,147888,11455,0.028,-0.966,-0.014,-2.744,0.305,0.305,173.862
120958,147850,24053,0.028,-0.966,-0.014,-2.744,0.305,0.305,173.865
120958,147870,11437,0.024,-0.977,-0.022,-2.378,0.61,0.427,173.872
120926,147850,24053,0.024,-0.977,-0.022,-2.378,0.61,0.427,173.875
120926,147863,11455,0.025,-0.984,-0.027,-1.402,0.366,0.305,173.881
120923,147850,24053,0.025,-0.984,-0.027,-1.402,0.366,0.305,173.885
120923,147848,11447,0.029,-0.972,-0.03,-0.732,0.305,-0.061,173.891
120929,147850,24053,0.029,-0.972,-0.03,-0.732,0.305,-0.061,173.895
120929,147851,11433,0.032,-0.97,-0.029,-0.732,0.305,-0.061,173.901
120927,147850,24053,0.033,-0.968,-0.022,0.732,0.488,0,173.905
120927,147884,11438,0.031,-0.967,-0.021,0.732,0.488,0,173.911
120916,147850,24053,0.027,-0.969,-0.015,2.683,0.549,0.549,173.915
120916,147872,11455,0.027,-0.971,-0.008,2.683,0.549,0.549,173.921
120928,147850,24053,0.025,-0.97,-0.009,2.561,0.61,0.793,173.925
120928,147842,11454,0.028,-0.967,-0.01,2.561,0.61,0.793,173.931
120925,147850,24053,0.028,-0.965,-0.003,1.098,0.305,0.732,173.935
120925,147870,11455,0.029,-0.963,0,1.098,0.305,0.732,173.941
120910,147850,24053,0.028,-0.964,-0.004,-0.366,0.183,0.793,173.945
120910,147837,11457,0.026,-0.968,-0.013,-0.366,0.183,0.793,173.951
120923,147850,24053,0.023,-0.976,-0.013,-1.159,0.549,0.976,173.954
120923,147860,11432,0.022,-0.98,-0.012,-1.159,0.549,0.976,173.961
120916,147850,24053,0.024,-0.971,-0.012,-1.28,0.488,0.915,173.964
120916,147842,11435,0.025,-0.967,-0.016,-1.28,0.488,0.915,173.971
120931,147850,24053,0.023,-0.962,-0.026,-2.439,0.183,0.427,173.974
120931,147857,11443,0.022,-0.962,-0.032,-2.439,0.183,0.427,173.98
120954,147850,24053,0.025,-0.973,-0.03,-0.915,0.305,0,173.984
120954,147877,11446,0.026,-0.983,-0.024,-0.915,0.305,0,173.99
120953,147850,24053,0.025,-0.982,-0.018,2.256,0.244,0.122,173.994
120953,147875,11447,0.027,-0.972,-0.018,2.256,0.244,0.122,174
120954,147850,24053,0.029,-0.962,-0.018,2.256,0.549,0,174.004
120954,147865,11450,0.029,-0.962,-0.015,2.256,0.549,0,174.01
120974,147850,24053,0.029,-0.967,-0.007,2.073,0.976,-0.122,174.014
120974,147880,11463,0.027,-0.972,-0.002,2.073,0.976,-0.122,174.02
120943,147850,24053,0.028,-0.975,0.002,1.951,0.61,0.183,174.024
120943,147850,11457,0.027,-0.97,0.007,1.951,0.61,0.183,174.03
120960,147850,24053,0.031,-0.961,0.005,-0.488,0.427,0.305,174.034
120960,147867,11459,0.028,-0.959,-0.004,-0.488,0.427,0.305,174.04
120956,147850,24053,0.027,-0.965,-0.006,-2.805,0.427,0.244,174.044
120956,147864,11454,0.029,-0.971,-0.014,-2.805,0.427,0.244,174.05
120949,147850,24053,0.025,-0.97,-0.026,-2.988,0.366,0.244,174.053
120949,147873,11446,0.025,-0.976,-0.028,-2.988,0.366,0.244,174.06
120969,147850,24053,0.028,-0.979,-0.027,-2.256,-0.061,0.366,174.063
120969,147867,11449,0.029,-0.974,-0.023,-2.256,-0.061,0.366,174.07
120966,147850,24053,0.025,-0.971,-0.021,-1.037,0.061,0.366,174.073
120966,147905,11461,0.025,-0.968,-0.024,-1.037,0.061,0.366,174.079
120990,147850,24053,0.025,-0.964,-0.028,-0.122,0.427,0.061,174.083
120990,147886,11446,0.024,-0.969,-0.03,-0.122,0.427,0.061,174.089
120987,147850,24053,0.026,-0.979,-0.017,1.585,0,0,174.093
120987,147885,11452,0.025,-0.982,-0.007,1.585,0,0,174.099
121006,147850,24053,0.026,-0.977,0.004,2.378,-0.061,-0.122,174.103
121006,147869,11457,0.026,-0.965,-0.001,2.378,-0.061,-0.122,174.109
120987,147850,24053,0.027,-0.954,-0.013,-0.671,0.244,-0.427,174.113
120987,147870,11464,0.029,-0.959,-0.012,-0.671,0.244,-0.427,174.119
120976,147850,24053,0.029,-0.968,-0.002,-1.524,-0.183,-0.366,174.123
120976,147878,11464,0.03,-0.974,-0.002,-1.524,-0.183,-0.366,174.129
120976,147850,24053,0.027,-0.975,-0.005,-1.402,-0.244,-0.122,174.133
120976,147895,11438,0.026,-0.971,-0.014,-1.402,-0.244,-0.122,174.139
120958,147850,24053,0.025,-0.973,-0.023,-3.171,0.366,-0.244,174.143
120958,147870,11457,0.026,-0.974,-0.028,-3.171,0.366,-0.244,174.149
120941,147850,24053,0.03,-0.978,-0.03,-2.683,0.183,-0.244,174.153
120941,147852,11428,0.031,-0.975,-0.027,-2.683,0.183,-0.244,174.159
120941,147850,24053,0.032,-0.969,-0.034,-0.671,-0.061,-0.061,174.162
120941,147876,11456,0.033,-0.968,-0.031,-0.671,-0.061,-0.061,174.169
120953,147850,24053,0.031,-0.965,-0.026,0.976,0.183,0.244,174.172
120953,147865,11421,0.033,-0.967,-0.022,0.976,0.183,0.244,174.178
120972,147850,24053,0.031,-0.966,-0.019,2.988,0.61,0.549,174.182
120972,147865,11451,0.029,-0.965,-0.011,2.988,0.61,0.549,174.188
121000,147850,24053,0.03,-0.965,-0.009,3.049,0.671,0.671,174.192
121000,147880,11442,0.028,-0.964,-0.01,3.049,0.671,0.671,174.198
120970,147850,24053,0.027,-0.967,0,1.951,0.671,0.793,174.202
120970,147865,11458,0.026,-0.968,0.011,1.951,0.671,0.793,174.208
120985,147850,24053,0.026,-0.971,0.01,0.61,0.61,0.732,174.212
120985,147902,11456,0.024,-0.97,-0,0.61,0.61,0.732,174.218
120987,147850,24053,0.024,-0.971,-0.011,-2.012,0.671,0.549,174.222
120987,147879,11461,0.023,-0.974,-0.015,-2.012,0.671,0.549,174.228
120973,147850,24053,0.023,-0.978,-0.018,-3.049,0.366,0.244,174.232
120973,147877,11462,0.023,-0.98,-0.023,-3.049,0.366,0.244,174.238
120966,147850,24053,0.025,-0.983,-0.025,-2.744,0.061,-0.061,174.242
120966,147847,11444,0.028,-0.981,-0.027,-2.744,0.061,-0.061,174.248
120987,147850,24053,0.028,-0.976,-0.031,-1.646,0.122,-0.122,174.252
120987,147872,11439,0.027,-0.972,-0.027,-1.646,0.122,-0.122,174.258
120987,147850,24053,0.031,-0.964,-0.026,0.122,0.488,-0.183,174.261
120987,147870,11439,0.034,-0.964,-0.026,0.122,0.488,-0.183,174.268
120983,147850,24053,0.031,-0.964,-0.026,1.768,0.427,-0.183,174.271
120983,147887,11455,0.031,-0.969,-0.012,1.768,0.427,-0.183,174.277
120971,147850,24053,0.032,-0.97,-0.002,3.232,0.061,0.183,174.281
120971,147858,11474,0.034,-0.964,0.001,3.232,0.061,0.183,174.287
120976,147850,24053,0.033,-0.958,-0.002,1.768,0.305,0.305,174.291
120976,147874,11443,0.032,-0.955,-0,1.768,0.305,0.305,174.297
120961,147850,24053,0.031,-0.951,0,-0.244,0.671,0.366,174.301
120961,147892,11459,0.03,-0.958,0.001,-0.244,0.671,0.366,174.307
120968,147850,24053,0.029,-0.966,-0.002,-1.341,0.366,0.549,174.311
120968,147881,11445,0.026,-0.972,-0.007,-1.341,0.366,0.549,174.317
120946,147850,24053,0.027,-0.977,-0.02,-2.622,0.061,0.61,174.321
120946,147877,11452,0.026,-0.983,-0.023,-2.622,0.061,0.61,174.327
120943,147850,24053,0.024,-0.987,-0.026,-2.866,0,0.488,174.331
120943,147856,11439,0.024,-0.988,-0.024,-2.866,0,0.488,174.337
120912,147850,24053,0.03,-0.981,-0.021,-2.134,-0.122,0.183,174.341
120912,147853,11448,0.031,-0.975,-0.027,-2.134,-0.122,0.183,174.347
120893,147850,24053,0.031,-0.975,-0.027,-2.134,-0.122,0.183,174.351
120893,147823,11429,0.029,-0.966,-0.024,-1.585,0.061,0.061,174.357
120880,147850,24053,0.029,-0.966,-0.024,-1.585,0.061,0.061,174.36
120880,147825,11421,0.035,-0.964,-0.014,-0.366,0.122,0.366,174.367
120862,147850,24053,0.035,-0.964,-0.014,-0.366,0.122,0.366,174.37
120862,147790,11434,0.031,-0.956,0.002,0.549,0.305,0.671,174.376
120827,147850,24053,0.031,-0.956,0.002,0.549,0.305,0.671,174.38
120827,147767,11419,0.025,-0.965,-0.007,0.122,0.549,0.976,174.386
120824,147850,24053,0.025,-0.965,-0.007,0.122,0.549,0.976,174.39
120824,147750,11440,0.026,-0.967,-0.008,-1.037,0.732,1.22,174.396
120820,147850,24053,0.026,-0.967,-0.008,-1.037,0.732,1.22,174.4
120820,147749,11430,0.023,-0.969,-0.011,-2.134,0.671,1.22,174.406
120819,147850,24053,0.023,-0.969,-0.011,-2.134,0.671,1.22,174.41
120819,147767,11427,0.024,-0.976,-0.019,-2.622,0.915,0.793,174.416
120798,147850,24053,0.024,-0.976,-0.019,-2.622,0.915,0.793,174.42
120798,147736,11421,0.026,-0.979,-0.038,-3.171,0.61,0.366,174.426
120783,147850,24053,0.026,-0.979,-0.038,-3.171,0.61,0.366,174.43
120783,147753,11415,0.025,-0.985,-0.035,-2.683,0.061,0.122,174.436
120806,147850,24053,0.025,-0.985,-0.035,-2.683,0.061,0.122,174.44
120806,147760,11425,0.027,-0.975,-0.027,-0.061,0.122,0.122,174.446
120802,147850,24053,0.027,-0.975,-0.027,-0.061,0.122,0.122,174.45
120802,147731,11409,0.027,-0.963,-0.028,1.402,0.427,0.122,174.456
120805,147850,24053,0.027,-0.963,-0.028,1.402,0.427,0.122,174.459
120805,147739,11419,0.028,-0.971,-0.023,2.317,0.671,0.183,174.466
120785,147850,24053,0.028,-0.971,-0.023,2.317,0.671,0.183,174.469
120785,147726,11424,0.032,-0.973,-0.006,3.476,0.366,0.427,174.476
120785,147850,24053,0.032,-0.973,-0.006,3.476,0.366,0.427,174.479
120785,147733,11424,0.033,-0.955,0.003,2.927,0.122,0.671,174.485
120766,147850,24053,0.033,-0.955,0.003,2.927,0.122,0.671,174.489
120766,147732,11423,0.033,-0.952,-0.006,0.427,0.793,0.671,174.495
120770,147850,24053,0.031,-0.954,-0.01,0.427,0.793,0.671,174.499
120770,147734,11412,0.023,-0.966,-0.013,-0.671,1.524,0.915,174.505
120731,147850,24053,0.024,-0.977,-0.018,-0.671,1.524,0.915,174.509
120731,147731,11412,0.021,-0.983,-0.022,-0.488,0.671,0.915,174.515
120773,147850,24053,0.021,-0.987,-0.028,-0.488,0.671,0.915,174.519
120773,147746,11410,0.018,-0.989,-0.03,-0.61,0.305,0.488,174.525
120755,147850,24053,0.016,-0.989,-0.033,-0.61,0.305,0.488,174.529
120755,147753,11412,0.018,-0.987,-0.028,-0.061,0.366,-0.366,174.535
120778,147850,24053,0.022,-0.981,-0.02,-0.061,0.366,-0.366,174.539
120778,147733,11403,0.027,-0.972,-0.015,0.915,-0.305,-1.037,174.545
120802,147850,24053,0.027,-0.966,-0.017,0.915,-0.305,-1.037,174.549
120802,147743,11405,0.029,-0.962,-0.016,1.098,-0.366,-1.28,174.555
120800,147850,24053,0.03,-0.961,-0.012,1.098,-0.366,-1.28,174.558
120800,147756,11410,0.033,-0.96,-0.005,1.585,-0.366,-1.037,174.565
120802,147850,24053,0.035,-0.958,0.004,1.585,-0.366,-1.037,174.568
120802,147739,11412,0.036,-0.951,0.008,1.28,-0.366,-0.366,174.575
120784,147850,24053,0.035,-0.946,0.003,1.28,-0.366,-0.366,174.578
120784,147744,11416,0.033,-0.949,0.001,-0.244,0.244,0.183,174.584
120752,147850,24053,0.031,-0.958,-0.005,-0.244,0.244,0.183,174.588
120752,147721,11410,0.032,-0.965,-0.014,-1.159,0.549,0.427,174.594
120758,147594,24053,0.031,-0.976,-0.019,-1.159,0.549,0.427,174.598
120758,147703,11411,0.032,-0.976,-0.022,-1.646,0.183,0.61,174.604
120741,147594,24053,0.035,-0.978,-0.021,-1.646,0.183,0.61,174.608
120741,147692,11408,0.032,-0.981,-0.022,-1.585,0.305,0.732,174.614
120756,147594,24053,0.026,-0.982,-0.026,-1.585,0.305,0.732,174.618
120756,147674,11403,0.021,-0.983,-0.029,-0.793,0.915,0.671,174.624
120750,147594,24053,0.023,-0.986,-0.029,-0.793,0.915,0.671,174.628
120750,147699,11401,0.025,-0.985,-0.024,0.366,0.732,0.549,174.634
120800,147594,24053,0.031,-0.979,-0.021,0.366,0.732,0.549,174.638
120800,147711,11417,0.031,-0.97,-0.011,0.732,0,0.305,174.644
120806,147850,24053,0.031,-0.965,-0.01,0.732,0,0.305,174.648
120806,147738,11436,0.034,-0.959,-0.012,0.488,0.366,0.549,174.654
120830,147850,24053,0.029,-0.958,-0.011,0.488,0.366,0.549,174.657
120830,147753,11437,0.025,-0.956,-0.008,0.183,0.671,0.854,174.664
120821,147850,24053,0.027,-0.958,-0.003,0.183,0.671,0.854,174.667
120821,147728,11429,0.027,-0.961,0.001,-0.427,0.305,0.793,174.674
120809,147850,24053,0.028,-0.961,-0.007,-0.427,0.305,0.793,174.677
120809,147758,11418,0.027,-0.961,-0.014,-1.951,0.244,0.549,174.683
120748,147850,24053,0.024,-0.966,-0.014,-1.951,0.244,0.549,174.687
120748,147740,11408,0.023,-0.968,-0.02,-2.683,0.427,0.366,174.693
120736,147594,24053,0.024,-0.97,-0.029,-2.683,0.427,0.366,174.697
120736,147704,11378,0.027,-0.976,-0.035,-2.134,0,0.244,174.703
120728,147594,24053,0.029,-0.98,-0.036,-2.134,0,0.244,174.707
120728,147699,11396,0.03,-0.984,-0.033,0,-0.122,-0.061,174.713
120738,147594,24053,0.028,-0.98,-0.026,0,-0.122,-0.061,174.717
120738,147705,11398,0.028,-0.975,-0.025,1.829,0.305,-0.061,174.723
120767,147850,24053,0.027,-0.973,-0.023,1.829,0.305,-0.061,174.727
120767,147754,11385,0.027,-0.973,-0.021,2.256,0.61,0.061,174.733
120741,147850,24053,0.031,-0.97,-0.012,2.256,0.61,0.061,174.737
120741,147724,11404,0.034,-0.968,0,2.561,0.244,0.366,174.743
120802,147850,24053,0.031,-0.963,0.001,2.561,0.244,0.366,174.747
120802,147720,11397,0.03,-0.96,-0.006,1.098,0.305,0.549,174.753
120782,147850,24053,0.03,-0.958,-0.011,1.098,0.305,0.549,174.756
120782,147730,11420,0.027,-0.968,-0.015,-0.366,0.732,0.61,174.763
120806,147850,24053,0.027,-0.976,-0.013,-0.366,0.732,0.61,174.766
120806,147732,11410,0.029,-0.975,-0.01,-0.61,0.427,0.732,174.773
120759,147850,24053,0.031,-0.97,-0.007,-0.61,0.427,0.732,174.776
120759,147722,11392,0.03,-0.96,-0.011,-1.585,0.549,0.671,174.782
120781,147850,24053,0.026,-0.961,-0.023,-1.585,0.549,0.671,174.786
120781,147731,11390,0.022,-0.966,-0.033,-1.768,1.159,0.549,174.792
120776,147850,24053,0.02,-0.975,-0.027,-1.768,1.159,0.549,174.796
120776,147738,11394,0.021,-0.98,-0.02,0.244,0.549,0.427,174.802
120797,147850,24053,0.023,-0.977,-0.018,0.244,0.549,0.427,174.806
120797,147731,11387,0.027,-0.974,-0.016,0.732,-0.122,-0.183,174.812
120789,147850,24053,0.027,-0.968,-0.015,0.732,-0.122,-0.183,174.816
120789,147751,11382,0.029,-0.965,-0.013,0.122,0.122,-0.427,174.822
120803,147850,24053,0.024,-0.964,-0.005,0.122,0.122,-0.427,174.826
120803,147751,11377,0.023,-0.961,-0.005,-0.366,-0.183,-0.427,174.832
120854,147850,24053,0.025,-0.96,-0.008,-0.366,-0.183,-0.427,174.836
120854,147774,11393,0.03,-0.961,-0.009,-1.28,-0.732,-0.732,174.842
120880,147850,24053,0.031,-0.97,-0.012,-1.28,-0.732,-0.732,174.846
120880,147763,11403,0.031,-0.973,-0.015,-1.829,-0.732,-0.915,174.852
120865,147850,24053,0.034,-0.975,-0.013,-1.829,-0.732,-0.915,174.855
120865,147779,11401,0.035,-0.976,-0.012,-2.317,-0.427,-0.793,174.862
120836,147850,24053,0.032,-0.971,-0.017,-2.317,-0.427,-0.793,174.865
120836,147772,11403,0.03,-0.97,-0.021,-2.988,-0.122,-0.61,174.872
120788,147850,24053,0.031,-0.97,-0.021,-2.988,-0.122,-0.61,174.875
120788,147734,11387,0.029,-0.97,-0.023,-2.378,0.244,-0.183,174.881
120770,147850,24053,0.028,-0.971,-0.02,-2.378,0.244,-0.183,174.885
120770,147752,11390,0.035,-0.967,-0.022,-1.585,0.122,0.061,174.891
120748,147850,24053,0.033,-0.963,-0.032,-1.585,0.122,0.061,174.895
120748,147733,11401,0.033,-0.971,-0.034,-0.976,0.183,0.183,174.901
120769,147850,24053,0.03,-0.976,-0.024,-0.976,0.183,0.183,174.905
120769,147718,11394,0.033,-0.978,-0.016,0.854,0.427,0.549,174.911
120776,147850,24053,0.033,-0.975,-0.015,0.854,0.427,0.549,174.915
120776,147719,11401,0.031,-0.967,-0.014,0.61,0.61,0.854,174.921
120811,147850,24053,0.029,-0.962,-0.019,0.61,0.61,0.854,174.925
120811,147759,11394,0.028,-0.963,-0.024,-0.122,0.854,1.037,174.931
120842,147850,24053,0.029,-0.965,-0.018,-0.122,0.854,1.037,174.935
120842,147773,11403,0.03,-0.972,-0.015,0.915,0.793,0.976,174.941
120844,147850,24053,0.03,-0.972,-0.015,0.915,0.793,0.976,174.945
120844,147779,11413,0.028,-0.976,-0.02,1.037,0.488,0.854,174.951
120856,147850,24053,0.028,-0.976,-0.02,1.037,0.488,0.854,174.954
120856,147768,11407,0.026,-0.976,-0.012,0.61,0.488,0.732,174.961
120836,147850,24053,0.026,-0.976,-0.012,0.61,0.488,0.732,174.964
120836,147762,11384,0.028,-0.968,-0.017,0.305,0.732,0.671,174.971
120800,147850,24053,0.028,-0.968,-0.017,0.305,0.732,0.671,174.974
120800,147763,11381,0.025,-0.977,-0.018,0.549,0.732,0.732,174.98
120801,147850,24053,0.025,-0.977,-0.018,0.549,0.732,0.732,174.984
120801,147738,11399,0.03,-0.976,-0.012,0.793,0.427,0.732,174.99
120782,147850,24053,0.03,-0.976,-0.012,0.793,0.427,0.732,174.994
120782,147743,11386,0.029,-0.963,-0.022,0,0.427,0.427,175
120771,147850,24053,0.029,-0.963,-0.022,0,0.427,0.427,175.004
120771,147736,11388,0.028,-0.968,-0.019,0.854,0.915,0.366,175.01
120766,147850,24053,0.028,-0.968,-0.019,0.854,0.915,0.366,175.014
120766,147731,11396,0.033,-0.966,-0.018,1.829,0.549,0.549,175.02
120786,147850,24053,0.033,-0.966,-0.018,1.829,0.549,0.549,175.024
120786,147754,11392,0.034,-0.96,-0.016,1.585,0.549,0.61,175.03
120802,147850,24053,0.034,-0.96,-0.016,1.585,0.549,0.61,175.034
120802,147733,11414,0.026,-0.972,-0.013,1.768,0.976,0.793,175.04
120830,147850,24053,0.026,-0.972,-0.013,1.768,0.976,0.793,175.044
120830,147752,11406,0.026,-0.972,0.006,1.524,0.549,0.915,175.05
120834,147850,24053,0.026,-0.972,0.006,1.524,0.549,0.915,175.053
120834,147746,11393,0.027,-0.96,-0.009,-1.22,0.366,0.854,175.06
120837,147850,24053,0.027,-0.96,-0.009,-1.22,0.366,0.854,175.063
120837,147762,11414,0.025,-0.975,-0.017,-2.256,0.488,0.732,175.07
120834,147850,24053,0.025,-0.975,-0.017,-2.256,0.488,0.732,175.073
120834,147785,11404,0.029,-0.977,-0.022,-1.768,-0.183,0.61,175.079
120826,147850,24053,0.029,-0.977,-0.022,-1.768,-0.183,0.61,175.083
120826,147774,11406,0.029,-0.975,-0.023,-1.768,-0.183,0.61,175.089
120822,147850,24053,0.025,-0.972,-0.026,-1.585,0.183,0.366,175.093
120822,147753,11396,0.024,-0.971,-0.025,-1.585,0.183,0.366,175.099
120791,147850,24053,0.023,-0.971,-0.023,-0.427,0.61,0.183,175.103
120791,147737,11382,0.024,-0.97,-0.024,-0.427,0.61,0.183,175.109
120746,147594,24053,0.027,-0.967,-0.023,0.549,0.305,0,175.113
120746,147694,11400,0.031,-0.968,-0.021,0.549,0.305,0,175.119
120734,147594,24053,0.03,-0.969,-0.01,1.524,0.122,-0.061,175.123
120734,147673,11388,0.032,-0.967,-0.006,1.524,0.122,-0.061,175.129
120696,147594,24053,0.034,-0.962,-0.005,1.402,0.488,0.183,175.133
120696,147672,11374,0.032,-0.959,-0.007,1.402,0.488,0.183,175.139
120644,147594,24053,0.032,-0.958,-0.014,0,0.854,0.427,175.143
120644,147621,11365,0.031,-0.962,-0.009,0,0.854,0.427,175.149
120616,147594,24053,0.031,-0.968,-0.007,0,0.793,0.793,175.152
120616,147592,11359,0.028,-0.971,-0.012,0,0.793,0.793,175.159
120596,147594,24053,0.029,-0.971,-0.013,-0.671,0.61,0.915,175.162
120596,147597,11354,0.027,-0.971,-0.019,-0.671,0.61,0.915,175.168
120579,147594,24053,0.026,-0.975,-0.027,-1.463,0.732,0.732,175.172
120579,147592,11371,0.026,-0.983,-0.026,-1.463,0.732,0.732,175.178
120587,147594,24053,0.026,-0.986,-0.026,-0.122,0.61,0.915,175.182
120587,147576,11367,0.027,-0.985,-0.022,-0.122,0.61,0.915,175.188
120574,147594,24053,0.025,-0.98,-0.02,0.793,0.549,0.732,175.192
120574,147595,11366,0.026,-0.972,-0.023,0.793,0.549,0.732,175.198
120563,147594,24053,0.029,-0.967,-0.021,0.549,0.61,0.549,175.202
120563,147596,11359,0.028,-0.962,-0.014,0.549,0.61,0.549,175.208
120588,147594,24053,0.029,-0.962,-0.01,0.976,0.549,0.671,175.212
120588,147593,11362,0.028,-0.958,-0.01,0.976,0.549,0.671,175.218
120585,147594,24053,0.029,-0.959,-0.01,1.159,0.549,0.671,175.222
120585,147598,11368,0.028,-0.961,-0.01,1.159,0.549,0.671,175.228
120603,147594,24053,0.028,-0.962,-0.007,0.305,0.488,0.732,175.232
120603,147582,11366,0.027,-0.963,-0.001,0.305,0.488,0.732,175.238
120615,147594,24053,0.025,-0.966,-0.004,-0.549,0.549,0.793,175.242
120615,147615,11362,0.024,-0.971,-0.014,-0.549,0.549,0.793,175.248
120603,147594,24053,0.022,-0.971,-0.024,-1.768,0.549,0.549,175.251
120603,147604,11357,0.026,-0.974,-0.025,-1.768,0.549,0.549,175.258
120615,147594,24053,0.03,-0.975,-0.024,-1.22,0.122,0.183,175.261
120615,147631,11351,0.028,-0.975,-0.021,-1.22,0.122,0.183,175.268
120656,147594,24053,0.027,-0.974,-0.022,-0.061,0.244,0.183,175.271
120656,147640,11347,0.024,-0.977,-0.028,-0.061,0.244,0.183,175.277
120657,147594,24053,0.025,-0.977,-0.03,0.915,0.793,0.061,175.281
120657,147644,11351,0.025,-0.979,-0.021,0.915,0.793,0.061,175.287
120693,147594,24053,0.027,-0.979,-0.015,2.073,0.366,0.122,175.291
120693,147667,11346,0.028,-0.974,-0.01,2.073,0.366,0.122,175.297
120709,147594,24053,0.029,-0.964,-0.012,1.585,0.183,0.122,175.301
120709,147668,11377,0.031,-0.96,-0.017,1.585,0.183,0.122,175.307
120741,147594,24053,0.032,-0.961,-0.015,1.22,0.549,0.122,175.311
120741,147699,11371,0.029,-0.964,-0.006,1.22,0.549,0.122,175.317
120715,147594,24053,0.03,-0.967,0,1.646,0.427,0.488,175.321
120715,147666,11375,0.03,-0.968,-0.006,1.646,0.427,0.488,175.327
120725,147594,24053,0.031,-0.967,-0.011,0.427,0.366,0.61,175.331
120725,147652,11392,0.028,-0.966,-0.013,0.427,0.366,0.61,175.337
120703,147594,24053,0.029,-0.969,-0.011,-0.427,0.549,0.671,175.341
120703,147644,11371,0.026,-0.968,-0.011,-0.427,0.549,0.671,175.347
120696,147594,24053,0.028,-0.968,-0.014,-0.366,0.61,0.732,175.35
120696,147637,11380,0.029,-0.971,-0.015,-0.366,0.61,0.732,175.357
120697,147594,24053,0.028,-0.967,-0.016,-0.61,0.549,0.854,175.36
120697,147635,11374,0.027,-0.968,-0.023,-0.61,0.549,0.854,175.367
120731,147594,24053,0.024,-0.971,-0.023,-0.183,0.732,0.915,175.37
120731,147654,11363,0.026,-0.975,-0.013,-0.183,0.732,0.915,175.376
120704,147594,24053,0.026,-0.977,-0.013,1.098,0.671,0.915,175.38
120704,147636,11370,0.027,-0.979,-0.012,1.098,0.671,0.915,175.386
120703,147594,24053,0.027,-0.972,-0.012,0.732,0.549,0.854,175.39
120703,147664,11379,0.025,-0.964,-0.009,0.732,0.549,0.854,175.396
120741,147594,24053,0.026,-0.963,-0.009,-0.61,0.671,0.732,175.4
120741,147652,11381,0.023,-0.966,-0.011,-0.61,0.671,0.732,175.406
120705,147594,24053,0.024,-0.969,-0.009,-0.793,0.61,0.671,175.41
120705,147676,11368,0.024,-0.969,-0.01,-0.793,0.61,0.671,175.416
120716,147594,24053,0.026,-0.966,-0.015,-1.22,0.305,0.549,175.42
120716,147630,11383,0.029,-0.966,-0.025,-1.22,0.305,0.549,175.426
120719,147594,24053,0.026,-0.966,-0.024,-1.707,0.061,0.427,175.43
120719,147660,11356,0.03,-0.973,-0.02,-1.707,0.061,0.427,175.436
120691,147594,24053,0.027,-0.974,-0.02,-0.549,0.305,0.366,175.44
120691,147656,11371,0.022,-0.975,-0.023,-0.549,0.305,0.366,175.446
120718,147594,24053,0.021,-0.97,-0.025,-0.061,0.549,0.366,175.449
120718,147663,11361,0.025,-0.968,-0.02,-0.061,0.549,0.366,175.456
120718,147594,24053,0.027,-0.969,-0.019,0.61,0.244,0.122,175.459
120718,147652,11367,0.031,-0.971,-0.017,0.61,0.244,0.122,175.466
120725,147594,24053,0.03,-0.973,-0.015,1.707,0.122,0.061,175.469
120725,147667,11397,0.029,-0.974,-0.017,1.707,0.122,0.061,175.475
120796,147594,24053,0.029,-0.972,-0.012,2.134,0.366,0.305,175.479
120796,147686,11379,0.028,-0.97,-0.008,2.134,0.366,0.305,175.485
120788,147594,24053,0.027,-0.971,-0.009,1.646,0.488,0.488,175.489
120788,147698,11398,0.026,-0.971,-0.003,1.646,0.488,0.488,175.495
120794,147594,24053,0.025,-0.968,-0.005,0.732,0.671,0.61,175.499
120794,147675,11375,0.025,-0.967,-0.008,0.732,0.671,0.61,175.505
120805,147594,24053,0.027,-0.967,-0.004,-0.244,0.549,0.671,175.509
120805,147693,11376,0.029,-0.964,-0.001,-0.244,0.549,0.671,175.515
120808,147594,24053,0.026,-0.962,-0.005,-1.341,0.488,0.61,175.519
120808,147700,11373,0.025,-0.966,-0.004,-1.341,0.488,0.61,175.525
120783,147594,24053,0.025,-0.966,-0.004,-1.341,0.488,0.61,175.529
120783,147693,11359,0.02,-0.967,-0.022,-2.256,0.854,0.488,175.535
120784,147594,24053,0.02,-0.967,-0.022,-2.256,0.854,0.488,175.539
120784,147679,11356,0.025,-0.972,-0.027,-2.439,0.488,0.183,175.545
120784,147594,24053,0.025,-0.972,-0.027,-2.439,0.488,0.183,175.548
120784,147681,11378,0.026,-0.978,-0.02,-1.28,-0.244,-0.183,175.555
120785,147594,24053,0.026,-0.978,-0.02,-1.28,-0.244,-0.183,175.558
120785,147669,11382,0.026,-0.971,-0.016,0.244,0.122,-0.671,175.564
120780,147594,24053,0.026,-0.971,-0.016,0.244,0.122,-0.671,175.568
120780,147692,11372,0.029,-0.97,-0.021,0.244,0.305,-0.732,175.574
120811,147594,24053,0.029,-0.97,-0.021,0.244,0.305,-0.732,175.578
120811,147707,11382,0.03,-0.973,-0.006,0.854,0,-0.61,175.584
120834,147594,24053,0.03,-0.973,-0.006,0.854,0,-0.61,175.588
120834,147704,11382,0.03,-0.966,0.006,1.768,-0.305,-0.427,175.594
120847,147850,24053,0.03,-0.966,0.006,1.768,-0.305,-0.427,175.598
120847,147734,11391,0.033,-0.954,-0.007,-0.61,0,-0.244,175.604
120861,147850,24053,0.033,-0.954,-0.007,-0.61,0,-0.244,175.608
120861,147735,11381,0.032,-0.967,-0.011,-2.317,0,0.061,175.614
120848,147850,24053,0.032,-0.967,-0.011,-2.317,0,0.061,175.618
120848,147724,11389,0.028,-0.978,-0.023,-1.707,0.061,0.549,175.624
120836,147850,24053,0.028,-0.978,-0.023,-1.707,0.061,0.549,175.628
120836,147719,11376,0.028,-0.974,-0.031,-1.89,0.488,0.671,175.634
120851,147850,24053,0.028,-0.974,-0.031,-1.89,0.488,0.671,175.638
120851,147730,11389,0.026,-0.974,-0.028,-1.707,0.549,0.488,175.644
120878,147850,24053,0.026,-0.974,-0.028,-1.707,0.549,0.488,175.647
120878,147726,11386,0.026,-0.98,-0.019,0.488,0.61,0.427,175.654
120850,147850,24053,0.026,-0.98,-0.019,0.488,0.61,0.427,175.657
120850,147732,11407,0.023,-0.97,-0.019,1.463,0.671,0.488,175.664
120892,147850,24053,0.023,-0.97,-0.019,1.463,0.671,0.488,175.667
120892,147743,11394,0.023,-0.969,-0.017,1.585,0.549,0.305,175.673
120882,147850,24053,0.028,-0.971,-0.013,1.585,0.549,0.305,175.677
120882,147749,11407,0.029,-0.967,-0.008,2.073,0.244,0,175.683
120910,147850,24053,0.029,-0.967,-0,2.073,0.244,0,175.687
120910,147763,11386,0.032,-0.966,0.004,1.402,0,-0.061,175.693
120896,147850,24053,0.032,-0.958,0.002,1.402,0,-0.061,175.697
120896,147746,11378,0.029,-0.956,0,-0.061,0.244,0.244,175.703
120882,147850,24053,0.026,-0.96,-0.005,-0.061,0.244,0.244,175.707
120882,147752,11384,0.027,-0.966,-0.016,-1.524,0.427,0.427,175.713
120868,147850,24053,0.024,-0.971,-0.02,-1.524,0.427,0.427,175.717
120868,147759,11384,0.026,-0.975,-0.023,-1.768,0.061,0.305,175.723
120877,147850,24053,0.03,-0.976,-0.02,-1.768,0.061,0.305,175.727
120877,147748,11382,0.034,-0.976,-0.026,-0.915,-0.061,0.183,175.733
120892,147850,24053,0.029,-0.974,-0.028,-0.915,-0.061,0.183,175.737
120892,147758,11392,0.03,-0.975,-0.027,0,0.61,0.183,175.743
120906,147850,24053,0.028,-0.976,-0.024,0,0.61,0.183,175.746
120906,147772,11398,0.028,-0.974,-0.016,1.524,0.732,0.183,175.753
120920,147850,24053,0.031,-0.967,-0.013,1.524,0.732,0.183,175.756
120920,147756,11407,0.027,-0.968,-0.011,2.012,0.366,0.183,175.763
120934,147850,24053,0.032,-0.968,-0.007,2.012,0.366,0.183,175.766
120934,147756,11397,0.03,-0.963,-0.003,1.402,0.366,0.305,175.772
120927,147850,24053,0.032,-0.962,0,1.402,0.366,0.305,175.776
120927,147776,11407,0.031,-0.958,-0.001,0.183,0.61,0.427,175.782
120920,147850,24053,0.029,-0.96,-0.002,0.183,0.61,0.427,175.786
120920,147761,11412,0.027,-0.962,-0.007,-1.28,0.793,0.671,175.792
120931,147850,24053,0.025,-0.968,-0.012,-1.28,0.793,0.671,175.796
120931,147759,11398,0.028,-0.972,-0.017,-1.768,0.366,0.732,175.802
120927,147850,24053,0.03,-0.969,-0.022,-1.768,0.366,0.732,175.806
120927,147759,11388,0.032,-0.971,-0.028,-1.707,0.061,0.488,175.812
120898,147850,24053,0.031,-0.973,-0.029,-1.707,0.061,0.488,175.816
120898,147742,11405,0.031,-0.978,-0.026,-0.061,0.244,0.549,175.822
120916,147850,24053,0.033,-0.978,-0.017,-0.061,0.244,0.549,175.826
120916,147741,11380,0.03,-0.974,-0.016,1.707,0.854,0.915,175.832
120881,147850,24053,0.029,-0.969,-0.015,1.707,0.854,0.915,175.836
120881,147714,11390,0.027,-0.973,-0.011,1.768,0.976,1.22,175.842
120874,147850,24053,0.025,-0.969,-0.002,1.768,0.976,1.22,175.845
120874,147727,11389,0.026,-0.966,0,1.341,0.915,1.22,175.852
120844,147850,24053,0.025,-0.964,-0.001,1.341,0.915,1.22,175.855
120844,147727,11397,0.026,-0.963,-0.01,0.305,0.915,0.793,175.862
120853,147594,24053,0.028,-0.965,-0.005,0.305,0.915,0.793,175.865
120853,147696,11389,0.023,-0.968,0.002,-0.61,0.671,0.61,175.871
120815,147594,24053,0.022,-0.966,-0.008,-0.61,0.671,0.61,175.875
120815,147695,11390,0.026,-0.965,-0.021,-1.89,0.366,0.366,175.881
120814,147594,24053,0.027,-0.971,-0.023,-1.89,0.366,0.366,175.885
120814,147675,11382,0.025,-0.979,-0.025,-1.707,0.305,0.061,175.891
120800,147594,24053,0.026,-0.975,-0.022,-1.707,0.305,0.061,175.895
120800,147696,11369,0.026,-0.974,-0.015,-0.488,0.183,0,175.901
120759,147594,24053,0.024,-0.974,-0.015,-0.488,0.183,0,175.905
120759,147672,11369,0.031,-0.97,-0.025,-0.183,0.183,-0.061,175.911
120770,147594,24053,0.033,-0.962,-0.024,-0.183,0.183,-0.061,175.915
120770,147657,11362,0.03,-0.967,-0.021,0.427,0.244,0,175.921
120757,147594,24053,0.029,-0.978,-0.01,0.427,0.244,0,175.925
120757,147662,11359,0.028,-0.976,0.003,1.646,-0.061,0.549,175.931
120769,147594,24053,0.031,-0.969,0.012,1.646,-0.061,0.549,175.935
120769,147655,11360,0.03,-0.958,0.001,-0.427,0.305,0.671,175.941
120787,147594,24053,0.029,-0.954,-0.013,-0.427,0.305,0.671,175.944
120787,147660,11363,0.027,-0.961,-0.014,-2.378,0.915,0.488,175.951
120807,147594,24053,0.026,-0.972,-0.012,-2.378,0.915,0.488,175.954
120807,147656,11367,0.028,-0.975,-0.013,-1.402,0.061,0.427,175.961
120807,147594,24053,0.028,-0.975,-0.014,-1.402,0.061,0.427,175.964
120807,147662,11375,0.028,-0.973,-0.022,-2.012,-0.183,0.244,175.97
120814,147594,24053,0.025,-0.972,-0.03,-2.012,-0.183,0.244,175.974
120814,147678,11377,0.024,-0.974,-0.027,-1.341,0.671,0.061,175.98
120826,147594,24053,0.026,-0.977,-0.023,-1.341,0.671,0.061,175.984
120826,147669,11364,0.027,-0.97,-0.017,0.427,0.488,0.122,175.99
120801,147594,24053,0.03,-0.969,-0.016,0.427,0.488,0.122,175.994
120801,147667,11365,0.027,-0.969,-0.014,1.159,0.183,0.183,176
120806,147594,24053,0.03,-0.971,-0.013,1.159,0.183,0.183,176.004
120806,147657,11374,0.026,-0.971,-0.011,1.402,0.488,0.305,176.01
120808,147594,24053,0.024,-0.968,-0.007,1.402,0.488,0.305,176.014
120808,147658,11352,0.028,-0.961,-0.007,0.366,0.427,0.366,176.02
120792,147594,24053,0.034,-0.958,-0.005,0.366,0.427,0.366,176.024
120792,147666,11379,0.034,-0.958,-0.002,-0.732,0.183,0.305,176.03
120801,147594,24053,0.03,-0.961,-0.001,-0.732,0.183,0.305,176.034
120801,147662,11372,0.028,-0.966,-0.008,-1.585,0.549,0.61,176.04
120816,147594,24053,0.025,-0.971,-0.017,-1.585,0.549,0.61,176.043
120816,147670,11376,0.025,-0.978,-0.022,-1.951,0.61,0.732,176.05
120834,147594,24053,0.028,-0.983,-0.021,-1.951,0.61,0.732,176.053
120834,147653,11370,0.029,-0.978,-0.018,-1.28,0.061,0.549,176.06
120833,147594,24053,0.031,-0.972,-0.019,-1.28,0.061,0.549,176.063
120833,147667,11374,0.03,-0.969,-0.023,-0.793,0.549,0.427,176.069
120852,147594,24053,0.028,-0.968,-0.033,-0.793,0.549,0.427,176.073
120852,147692,11358,0.026,-0.97,-0.035,0.305,1.524,0.427,176.079
120837,147594,24053,0.027,-0.979,-0.029,0.305,1.524,0.427,176.083
120837,147682,11367,0.027,-0.982,-0.019,3.049,1.28,0.671,176.089
120849,147594,24053,0.026,-0.978,-0.01,3.049,1.28,0.671,176.093
120849,147670,11358,0.026,-0.975,-0.004,3.598,1.037,0.61,176.099
120850,147594,24053,0.027,-0.966,0.001,3.598,1.037,0.61,176.103
120850,147675,11377,0.03,-0.962,0.004,1.524,1.037,0.488,176.109
120854,147594,24053,0.03,-0.962,0.004,1.524,1.037,0.488,176.113
120854,147677,11374,0.027,-0.957,0.016,-0.976,0.732,0.793,176.119
120858,147594,24053,0.027,-0.957,0.016,-0.976,0.732,0.793,176.123
120858,147676,11373,0.026,-0.958,-0.013,-3.415,0.61,0.915,176.129
120844,147594,24053,0.026,-0.958,-0.013,-3.415,0.61,0.915,176.133
120844,147681,11375,0.024,-0.972,-0.023,-3.902,0.061,0.732,176.139
120864,147594,24053,0.024,-0.972,-0.023,-3.902,0.061,0.732,176.142
120864,147665,11359,0.027,-0.98,-0.021,-2.378,-0.183,0.549,176.149
120861,147594,24053,0.027,-0.98,-0.021,-2.378,-0.183,0.549,176.152
120861,147692,11368,0.028,-0.966,-0.036,-2.012,0.488,0.549,176.159
120868,147594,24053,0.028,-0.966,-0.036,-2.012,0.488,0.549,176.162
120868,147701,11375,0.022,-0.97,-0.025,0.122,0.793,0.61,176.168
120876,147594,24053,0.022,-0.97,-0.025,0.122,0.793,0.61,176.172
120876,147678,11373,0.024,-0.98,-0.013,2.988,0.488,0.549,176.178
120877,147594,24053,0.024,-0.98,-0.013,2.988,0.488,0.549,176.182
120877,147708,11354,0.026,-0.968,-0.01,1.89,0.122,0.244,176.188
120893,147594,24053,0.026,-0.968,-0.01,1.89,0.122,0.244,176.192
120893,147705,11364,0.027,-0.96,-0.006,0.061,0.122,0.061,176.198
120895,147594,24053,0.027,-0.96,-0.006,0.061,0.122,0.061,176.202
120895,147687,11377,0.024,-0.972,-0.009,0.244,0,0.061,176.208
120871,147594,24053,0.024,-0.972,-0.009,0.244,0,0.061,176.212
120871,147694,11366,0.032,-0.975,-0.011,-0.488,-0.183,0.122,176.218
120857,147594,24053,0.032,-0.975,-0.011,-0.488,-0.183,0.122,176.222
120857,147672,11369,0.029,-0.972,-0.021,-1.159,0.305,0.061,176.228
120838,147594,24053,0.029,-0.972,-0.021,-1.159,0.305,0.061,176.232
120838,147658,11365,0.026,-0.972,-0.022,-0.244,0.305,0.061,176.238
120841,147594,24053,0.026,-0.972,-0.022,-0.244,0.305,0.061,176.241
120841,147685,11358,0.031,-0.969,-0.019,0.976,0.061,0.366,176.248
120828,147594,24053,0.031,-0.969,-0.019,0.976,0.061,0.366,176.251
120828,147679,11368,0.029,-0.967,-0.016,1.829,0.671,0.732,176.258
120842,147594,24053,0.029,-0.967,-0.016,1.829,0.671,0.732,176.261
120842,147646,11350,0.024,-0.969,-0.013,1.829,0.671,0.732,176.267
120840,147594,24053,0.026,-0.968,-0.008,2.439,1.037,0.854,176.271
120840,147704,11365,0.024,-0.964,0.003,2.439,1.037,0.854,176.277
120836,147594,24053,0.025,-0.961,0.004,1.524,0.732,0.732,176.281
120836,147682,11375,0.026,-0.96,0.003,1.524,0.732,0.732,176.287
120863,147594,24053,0.025,-0.961,-0.005,-0.366,0.488,0.549,176.291
120863,147680,11375,0.024,-0.964,-0.005,-0.366,0.488,0.549,176.297
120842,147594,24053,0.021,-0.967,-0.007,-1.585,0.366,0.122,176.301
120842,147695,11344,0.024,-0.972,-0.011,-1.585,0.366,0.122,176.307
120838,147594,24053,0.025,-0.973,-0.017,-2.622,0.122,-0.366,176.311
120838,147674,11360,0.025,-0.974,-0.019,-2.622,0.122,-0.366,176.317
120850,147594,24053,0.026,-0.975,-0.022,-2.866,-0.244,-0.61,176.321
120850,147677,11355,0.026,-0.977,-0.02,-2.866,-0.244,-0.61,176.327
120839,147594,24053,0.027,-0.978,-0.02,-1.829,-0.305,-0.61,176.331
120839,147650,11359,0.029,-0.975,-0.023,-1.829,-0.305,-0.61,176.337
120834,147594,24053,0.032,-0.967,-0.026,-1.463,-0.244,-0.549,176.34
120834,147666,11363,0.033,-0.965,-0.023,-1.463,-0.244,-0.549,176.347
120832,147594,24053,0.034,-0.965,-0.025,-0.549,-0.244,-0.427,176.35
120832,147632,11364,0.034,-0.971,-0.016,-0.549,-0.244,-0.427,176.357
120821,147594,24053,0.034,-0.972,-0.012,1.037,0,0,176.36
120821,147603,11358,0.034,-0.97,-0.006,1.037,0,0,176.366
120838,147594,24053,0.03,-0.964,-0.005,0.488,0.427,0.488,176.37
120838,147624,11369,0.034,-0.958,-0.008,0.488,0.427,0.488,176.376
120836,147594,24053,0.032,-0.958,-0.012,-1.037,0.793,0.732,176.38
120836,147632,11354,0.027,-0.966,-0.008,-1.037,0.793,0.732,176.386
120852,147594,24053,0.024,-0.973,-0.009,-0.915,0.671,1.098,176.39
120852,147628,11354,0.026,-0.978,-0.011,-0.915,0.671,1.098,176.396
120846,147594,24053,0.026,-0.977,-0.021,-1.646,0.488,1.159,176.4
120846,147628,11352,0.022,-0.974,-0.031,-1.646,0.488,1.159,176.406
120855,147594,24053,0.024,-0.977,-0.031,-1.768,0.488,0.793,176.41
120855,147645,11355,0.026,-0.981,-0.033,-1.768,0.488,0.793,176.416
120846,147594,24053,0.029,-0.982,-0.031,0.244,0.427,0.549,176.42
120846,147648,11363,0.027,-0.98,-0.026,0.244,0.427,0.549,176.426
120904,147594,24053,0.026,-0.977,-0.021,1.768,0.549,0.488,176.43
120904,147677,11360,0.026,-0.969,-0.018,1.768,0.549,0.488,176.436
120898,147594,24053,0.024,-0.971,-0.017,2.195,0.732,0.183,176.439
120898,147661,11346,0.027,-0.965,-0.012,2.195,0.732,0.183,176.446
120899,147594,24053,0.026,-0.957,-0.003,1.951,0.488,0.061,176.449
120899,147688,11367,0.029,-0.956,-0.001,1.951,0.488,0.061,176.456
120891,147594,24053,0.033,-0.957,-0.005,1.402,0.122,0.183,176.459
120891,147691,11362,0.031,-0.959,-0.011,1.402,0.122,0.183,176.465
120885,147594,24053,0.028,-0.965,-0.017,0.732,0.427,0.244,176.469
120885,147666,11359,0.028,-0.974,-0.015,0.732,0.427,0.244,176.475
120849,147594,24053,0.03,-0.974,-0.012,0.915,0.366,0.488,176.479
120849,147666,11367,0.029,-0.97,-0.01,0.915,0.366,0.488,176.485
120872,147594,24053,0.03,-0.97,-0.017,0.122,0.244,0.427,176.489
120872,147671,11365,0.03,-0.968,-0.021,0.122,0.244,0.427,176.495
120879,147594,24053,0.029,-0.97,-0.018,0.122,0.549,0.366,176.499
120879,147683,11358,0.027,-0.973,-0.012,0.122,0.549,0.366,176.505
120890,147594,24053,0.027,-0.974,-0.017,0.976,0.549,0.427,176.509
120890,147688,11369,0.028,-0.973,-0.017,0.976,0.549,0.427,176.515
120887,147594,24053,0.031,-0.97,-0.01,0.793,0.488,0.427,176.519
120887,147707,11372,0.028,-0.967,-0.005,0.793,0.488,0.427,176.525
120925,147850,24053,0.027,-0.97,-0.008,0.427,0.671,0.427,176.529
120925,147736,11382,0.028,-0.972,-0.008,0.427,0.671,0.427,176.535
120948,147850,24053,0.027,-0.975,-0.008,-0.305,0.488,0.549,176.538
120948,147731,11398,0.026,-0.973,-0.005,-0.305,0.488,0.549,176.545
120957,147850,24053,0.028,-0.965,0.002,-1.768,0,0.427,176.548
120957,147716,11377,0.027,-0.96,0,-1.768,0,0.427,176.555
120969,147850,24053,0.024,-0.963,-0.016,-3.11,0.183,0.244,176.558
120969,147753,11385,0.023,-0.967,-0.024,-3.11,0.183,0.244,176.564
120947,147850,24053,0.024,-0.974,-0.025,-2.622,0.122,0,176.568
120947,147712,11389,0.03,-0.979,-0.024,-2.622,0.122,0,176.574
120974,147594,24053,0.033,-0.974,-0.021,-1.402,-0.427,-0.061,176.578
120974,147700,11370,0.033,-0.966,-0.023,-1.402,-0.427,-0.061,176.584
120926,147850,24053,0.028,-0.965,-0.021,-0.854,0.061,-0.244,176.588
120926,147717,11374,0.025,-0.964,-0.02,-0.854,0.061,-0.244,176.594
120908,147594,24053,0.026,-0.97,-0.016,0.732,0.549,-0.061,176.598
120908,147688,11380,0.026,-0.971,-0.009,0.732,0.549,-0.061,176.604
120876,147594,24053,0.03,-0.974,-0.008,1.22,0.061,0.122,176.608
120876,147665,11350,0.03,-0.974,-0.011,1.22,0.061,0.122,176.614
120879,147594,24053,0.027,-0.974,-0.011,0.061,0.061,0,176.618
120879,147643,11364,0.027,-0.979,-0.009,0.061,0.061,0,176.624
120853,147594,24053,0.026,-0.976,-0.008,-1.098,0.183,-0.122,176.628
120853,147653,11352,0.031,-0.97,-0.01,-1.098,0.183,-0.122,176.634
120834,147594,24053,0.028,-0.964,-0.015,-2.317,0.366,-0.183,176.637
120834,147679,11349,0.029,-0.964,-0.018,-2.317,0.366,-0.183,176.644
120840,147594,24053,0.03,-0.97,-0.019,-2.256,0.427,-0.122,176.647
120840,147648,11354,0.026,-0.973,-0.022,-2.256,0.427,-0.122,176.654
120804,147594,24053,0.028,-0.974,-0.024,-1.646,0.183,0,176.657
120804,147625,11331,0.033,-0.974,-0.023,-1.646,0.183,0,176.663
120803,147594,24053,0.034,-0.976,-0.025,-0.549,-0.061,0.061,176.667
120803,147630,11346,0.033,-0.97,-0.02,-0.549,-0.061,0.061,176.673
120788,147594,24053,0.032,-0.965,-0.019,-0.244,0.305,0.244,176.677
120788,147625,11357,0.032,-0.964,-0.02,-0.244,0.305,0.244,176.683
120798,147594,24053,0.029,-0.96,-0.013,0.122,0.549,0.61,176.687
120798,147620,11332,0.03,-0.962,-0.008,0.122,0.549,0.61,176.693
120815,147594,24053,0.029,-0.964,-0.006,0.488,0.488,0.854,176.697
120815,147608,11320,0.029,-0.966,-0.004,0.488,0.488,0.854,176.703
120799,147594,24053,0.029,-0.966,-0.004,0.488,0.488,0.854,176.707
120799,147635,11324,0.028,-0.965,-0.014,-0.305,0.549,0.915,176.713
120813,147594,24053,0.028,-0.965,-0.014,-0.305,0.549,0.915,176.717
120813,147654,11340,0.024,-0.975,-0.017,-1.22,0.549,0.793,176.723
120823,147594,24053,0.024,-0.975,-0.017,-1.22,0.549,0.793,176.727
120823,147666,11344,0.024,-0.978,-0.016,-1.159,0.488,0.549,176.733
120819,147594,24053,0.024,-0.978,-0.016,-1.159,0.488,0.549,176.736
120819,147649,11351,0.025,-0.978,-0.031,-1.22,0.305,0.366,176.743
120840,147594,24053,0.025,-0.978,-0.031,-1.22,0.305,0.366,176.746
120840,147647,11337,0.026,-0.979,-0.028,-0.915,0.183,0.061,176.753
120826,147594,24053,0.026,-0.979,-0.028,-0.915,0.183,0.061,176.756
120826,147647,11357,0.031,-0.971,-0.024,0.549,0,0,176.762
120833,147594,24053,0.031,-0.971,-0.024,0.549,0,0,176.766
120833,147644,11344,0.031,-0.964,-0.012,1.463,0.122,-0.061,176.772
120829,147594,24053,0.031,-0.964,-0.012,1.463,0.122,-0.061,176.776
120829,147645,11349,0.029,-0.957,-0.007,1.707,0.366,0.183,176.782
120847,147594,24053,0.029,-0.957,-0.007,1.707,0.366,0.183,176.786
120847,147637,11343,0.029,-0.961,-0.003,0.976,0.427,0.305,176.792
120848,147594,24053,0.029,-0.961,-0.003,0.976,0.427,0.305,176.796
120848,147648,11360,0.029,-0.966,-0.015,-0.183,0.183,0.488,176.802
120852,147594,24053,0.029,-0.966,-0.015,-0.183,0.183,0.488,176.806
120852,147630,11352,0.03,-0.976,-0.023,-0.793,0,0.488,176.812
120845,147594,24053,0.03,-0.976,-0.023,-0.793,0,0.488,176.816
120845,147666,11353,0.028,-0.981,-0.015,-0.061,0.183,0.488,176.822
120853,147594,24053,0.028,-0.981,-0.015,-0.061,0.183,0.488,176.826
120853,147632,11356,0.026,-0.967,-0.018,0.183,0.61,0.61,176.832
120828,147594,24053,0.026,-0.967,-0.018,0.183,0.61,0.61,176.835
120828,147639,11339,0.026,-0.973,-0.022,-0.305,0.976,0.488,176.842
120838,147594,24053,0.026,-0.973,-0.022,-0.305,0.976,0.488,176.845
120838,147655,11334,0.027,-0.978,-0.016,0.793,0.671,0.366,176.852
120817,147594,24053,0.029,-0.978,-0.015,0.793,0.671,0.366,176.855
120817,147647,11345,0.031,-0.975,-0.013,1.524,0.183,0.488,176.861
120806,147594,24053,0.029,-0.972,-0.008,1.524,0.183,0.488,176.865
120806,147624,11346,0.026,-0.966,0.003,0.61,0.488,0.671,176.871
120770,147594,24053,0.026,-0.963,0.003,0.61,0.488,0.671,176.875
120770,147608,11326,0.026,-0.958,-0.008,-0.915,0.915,0.61,176.881
120738,147594,24053,0.026,-0.958,-0.017,-0.915,0.915,0.61,176.885
120738,147567,11334,0.03,-0.967,-0.017,-1.402,0.244,0.549,176.891
120730,147594,24053,0.031,-0.974,-0.015,-1.402,0.244,0.549,176.895
120730,147587,11343,0.03,-0.976,-0.019,-0.61,-0.366,0.61,176.901
120725,147594,24053,0.033,-0.975,-0.023,-0.61,-0.366,0.61,176.905
120725,147558,11327,0.032,-0.97,-0.029,-0.915,0.427,0.488,176.911
120723,147594,24053,0.028,-0.967,-0.027,-0.915,0.427,0.488,176.915
120723,147559,11318,0.029,-0.968,-0.02,0.122,0.793,0.549,176.921
120725,147594,24053,0.027,-0.967,-0.012,0.122,0.793,0.549,176.925
120725,147587,11318,0.027,-0.972,-0.014,1.28,0.488,0.793,176.931
120743,147594,24053,0.029,-0.97,-0.016,1.28,0.488,0.793,176.934
120743,147604,11331,0.027,-0.971,-0.014,1.22,0.549,0.732,176.941
120778,147594,24053,0.028,-0.973,-0.011,1.22,0.549,0.732,176.944
120778,147628,11338,0.027,-0.977,-0.007,0.854,0.61,0.793,176.951
120785,147594,24053,0.025,-0.974,-0.01,0.854,0.61,0.793,176.954
120785,147619,11330,0.023,-0.966,-0.008,-0.305,0.61,0.671,176.96
120803,147594,24053,0.025,-0.964,-0.008,-0.305,0.61,0.671,176.964
120803,147624,11331,0.028,-0.965,-0.013,-1.646,0.366,0.366,176.97
120784,147594,24053,0.029,-0.967,-0.013,-1.646,0.366,0.366,176.974
120784,147641,11315,0.029,-0.97,-0.019,-1.829,0.061,0.183,176.98
120777,147594,24053,0.027,-0.972,-0.025,-1.829,0.061,0.183,176.984
120777,147609,11345,0.029,-0.974,-0.028,-1.098,0.061,0.244,176.99
120745,147594,24053,0.027,-0.974,-0.022,-1.098,0.061,0.244,176.994
120745,147615,11332,0.031,-0.971,-0.016,0.122,0.427,0.305,177
120724,147594,24053,0.032,-0.965,-0.022,0.122,0.427,0.305,177.004
120724,147584,11330,0.03,-0.959,-0.022,0.854,0.671,0.366,177.01
120699,147594,24053,0.031,-0.963,-0.023,0.854,0.671,0.366,177.014
120699,147572,11319,0.029,-0.968,-0.019,2.012,0.854,0.793,177.02
120725,147594,24053,0.031,-0.972,-0.011,2.012,0.854,0.793,177.024
120725,147589,11312,0.029,-0.973,-0.008,2.805,0.793,1.098,177.03
120748,147594,24053,0.03,-0.975,-0.005,2.805,0.793,1.098,177.033
120748,147594,11330,0.03,-0.969,-0.005,1.585,1.037,1.28,177.04
120781,147594,24053,0.029,-0.966,-0.005,1.585,1.037,1.28,177.043
120781,147606,11322,0.026,-0.964,-0.009,-0.305,1.037,1.463,177.05
120798,147594,24053,0.028,-0.966,-0.008,-0.305,1.037,1.463,177.053
120798,147651,11327,0.024,-0.971,-0.008,-0.854,1.22,1.463,177.059
120800,147594,24053,0.022,-0.972,-0.004,-0.854,1.22,1.463,177.063
120800,147634,11323,0.02,-0.971,-0.009,-1.585,1.098,1.22,177.069
120794,147594,24053,0.022,-0.971,-0.021,-1.585,1.098,1.22,177.073
120794,147630,11332,0.02,-0.973,-0.026,-2.561,0.549,0.732,177.079
120806,147594,24053,0.023,-0.979,-0.028,-2.561,0.549,0.732,177.083
120806,147618,11340,0.023,-0.978,-0.024,-1.402,0.183,0.061,177.089
120809,147594,24053,0.024,-0.975,-0.023,-1.402,0.183,0.061,177.093
120809,147617,11329,0.027,-0.972,-0.021,-0.183,-0.061,-0.183,177.099
120798,147594,24053,0.028,-0.964,-0.016,-0.183,-0.061,-0.183,177.103
120798,147610,11341,0.024,-0.962,-0.016,0.366,0.122,-0.183,177.109
120790,147594,24053,0.023,-0.964,-0.011,0.366,0.122,-0.183,177.113
120790,147644,11339,0.024,-0.962,-0.009,0.915,0.122,-0.244,177.119
120777,147594,24053,0.028,-0.968,-0.01,0.915,0.122,-0.244,177.123
120777,147628,11343,0.031,-0.969,-0.01,0.793,-0.183,-0.366,177.129
120828,147594,24053,0.031,-0.971,-0.004,0.793,-0.183,-0.366,177.132
120828,147642,11347,0.032,-0.972,-0.003,-0.244,-0.122,-0.305,177.139
120816,147594,24053,0.033,-0.968,-0.004,-0.244,-0.122,-0.305,177.142
120816,147657,11338,0.028,-0.967,-0.014,-1.829,0.244,0,177.149
120818,147594,24053,0.027,-0.971,-0.019,-1.829,0.244,0,177.152
120818,147658,11333,0.025,-0.974,-0.021,-2.012,0.671,0.183,177.158
120814,147594,24053,0.023,-0.979,-0.019,-2.012,0.671,0.183,177.162
120814,147672,11340,0.023,-0.98,-0.025,-1.22,0.366,0,177.168
120828,147594,24053,0.03,-0.978,-0.031,-1.22,0.366,0,177.172
