119859,147082,24053,0.032,-0.974,-0.037,-0.488,0.305,0.549,157.609
119859,147163,11384,0.033,-0.978,-0.035,-0.488,0.305,0.549,157.615
119897,147082,24053,0.029,-0.983,-0.028,0.854,0.488,0.732,157.619
119897,147181,11393,0.03,-0.983,-0.024,0.854,0.488,0.732,157.625
119892,147082,24053,0.031,-0.978,-0.022,1.159,0.793,0.671,157.629
119892,147183,11406,0.028,-0.972,-0.016,1.159,0.793,0.671,157.635
119883,147082,24053,0.032,-0.963,-0.012,0.061,0.732,0.793,157.639
119883,147197,11397,0.032,-0.956,-0.016,0.061,0.732,0.793,157.645
119886,147082,24053,0.03,-0.958,-0.018,-1.402,0.61,0.671,157.648
119886,147141,11412,0.029,-0.965,-0.014,-1.402,0.61,0.671,157.655
119862,147082,24053,0.031,-0.968,-0.013,-1.89,0.488,0.671,157.658
119862,147154,11402,0.029,-0.967,-0.012,-1.89,0.488,0.671,157.665
119840,147082,24053,0.029,-0.966,-0.022,-3.11,0.366,0.793,157.668
119840,147140,11409,0.024,-0.965,-0.033,-3.11,0.366,0.793,157.674
119816,147082,24053,0.025,-0.969,-0.038,-3.902,0.122,0.427,157.678
119816,147140,11399,0.03,-0.972,-0.045,-3.902,0.122,0.427,157.684
119811,147082,24053,0.034,-0.971,-0.051,-2.683,-0.305,-0.061,157.688
119811,147153,11388,0.037,-0.976,-0.041,-2.683,-0.305,-0.061,157.694
119812,147082,24053,0.032,-0.975,-0.038,-0.244,-0.122,0,157.698
119812,147133,11390,0.029,-0.973,-0.036,-0.244,-0.122,0,157.704
119812,147082,24053,0.029,-0.971,-0.035,1.22,0.732,0.305,157.708
119812,147117,11383,0.029,-0.97,-0.027,1.22,0.732,0.305,157.714
119814,147082,24053,0.024,-0.969,-0.023,1.89,0.732,0.183,157.718
119814,147134,11391,0.029,-0.966,-0.024,1.89,0.732,0.183,157.724
119859,147082,24053,0.034,-0.965,-0.025,1.768,0.305,0.305,157.728
119859,147181,11394,0.033,-0.97,-0.017,1.768,0.305,0.305,157.734
119854,147082,24053,0.033,-0.969,-0.005,1.463,0.427,0.366,157.738
119854,147159,11401,0.035,-0.965,-0.013,1.463,0.427,0.366,157.744
119880,147082,24053,0.033,-0.963,-0.027,-0.61,0.793,0.61,157.748
119880,147163,11402,0.031,-0.966,-0.031,-0.61,0.793,0.61,157.754
119829,147082,24053,0.028,-0.97,-0.03,-1.585,0.61,1.098,157.757
119829,147142,11395,0.026,-0.975,-0.03,-1.585,0.61,1.098,157.764
119848,147082,24053,0.029,-0.974,-0.031,-0.61,0.305,1.159,157.767
119848,147138,11398,0.032,-0.97,-0.031,-0.61,0.305,1.159,157.773
119844,147082,24053,0.03,-0.965,-0.036,-0.671,0.854,0.793,157.777
119844,147161,11408,0.031,-0.963,-0.037,-0.671,0.854,0.793,157.783
119873,147082,24053,0.031,-0.963,-0.037,-0.671,0.854,0.793,157.787
119873,147158,11395,0.032,-0.971,-0.035,0.061,1.037,0.671,157.793
119830,147082,24053,0.032,-0.971,-0.035,0.061,1.037,0.671,157.797
119830,147150,11402,0.028,-0.971,-0.018,1.768,0.671,0.732,157.803
119853,147082,24053,0.028,-0.971,-0.018,1.768,0.671,0.732,157.807
119853,147149,11398,0.028,-0.97,-0.011,2.317,0.732,0.671,157.813
119862,147082,24053,0.028,-0.97,-0.011,2.317,0.732,0.671,157.817
119862,147172,11388,0.028,-0.959,-0.006,0.915,0.854,0.549,157.823
119879,147082,24053,0.028,-0.959,-0.006,0.915,0.854,0.549,157.827
119879,147183,11417,0.025,-0.961,-0.013,-1.402,0.732,0.488,157.833
119906,147082,24053,0.025,-0.961,-0.013,-1.402,0.732,0.488,157.837
119906,147192,11386,0.023,-0.971,-0.03,-2.866,0.305,0.183,157.843
119895,147082,24053,0.023,-0.971,-0.03,-2.866,0.305,0.183,157.846
119895,147197,11420,0.024,-0.983,-0.036,-3.415,-0.427,-0.183,157.853
119904,147082,24053,0.024,-0.983,-0.036,-3.415,-0.427,-0.183,157.856
119904,147180,11412,0.028,-0.98,-0.048,-3.11,-0.793,-0.732,157.863
119890,147082,24053,0.028,-0.98,-0.048,-3.11,-0.793,-0.732,157.866
119890,147174,11417,0.033,-0.973,-0.061,-2.561,-0.671,-1.28,157.872
119885,147082,24053,0.033,-0.973,-0.061,-2.561,-0.671,-1.28,157.876
119885,147175,11401,0.034,-0.982,-0.043,0.183,-0.671,-1.28,157.882
119867,147338,24053,0.034,-0.982,-0.043,0.183,-0.671,-1.28,157.886
119867,147206,11415,0.034,-0.971,-0.023,4.085,-0.549,-0.976,157.892
119873,147082,24053,0.034,-0.971,-0.023,4.085,-0.549,-0.976,157.896
119873,147170,11414,0.035,-0.958,-0.01,4.207,0.183,-0.793,157.902
119841,147082,24053,0.035,-0.958,-0.01,4.207,0.183,-0.793,157.906
119841,147191,11408,0.036,-0.952,0.003,2.561,0.366,-0.366,157.912
119846,147082,24053,0.036,-0.952,0.003,2.561,0.366,-0.366,157.916
119846,147173,11403,0.033,-0.957,-0.009,0.366,0.061,0.305,157.922
119871,147082,24053,0.033,-0.957,-0.009,0.366,0.061,0.305,157.926
119871,147159,11406,0.034,-0.964,-0.007,-1.524,0.183,0.793,157.932
119862,147082,24053,0.033,-0.968,-0.012,-1.524,0.183,0.793,157.936
119862,147190,11411,0.03,-0.974,-0.02,-3.232,0.549,1.159,157.942
119897,147082,24053,0.03,-0.974,-0.023,-3.232,0.549,1.159,157.945
119897,147197,11414,0.029,-0.972,-0.028,-4.451,0.732,1.524,157.952
119926,147082,24053,0.027,-0.972,-0.038,-4.451,0.732,1.524,157.955
119926,147184,11403,0.029,-0.967,-0.047,-4.878,0.671,1.585,157.962
119965,147338,24053,0.028,-0.974,-0.046,-4.878,0.671,1.585,157.965
119965,147204,11423,0.028,-0.981,-0.042,-2.622,0.854,1.585,157.971
119980,147338,24053,0.027,-0.988,-0.038,-2.622,0.854,1.585,157.975
119980,147208,11428,0.028,-0.985,-0.035,0.061,0.915,1.341,157.981
119977,147082,24053,0.028,-0.972,-0.038,0.061,0.915,1.341,157.985
119977,147195,11421,0.03,-0.963,-0.035,0.183,0.854,0.793,157.991
119965,147082,24053,0.029,-0.96,-0.037,0.183,0.854,0.793,157.995
119965,147194,11422,0.033,-0.96,-0.034,0.793,0.61,0.61,158.001
119956,147082,24053,0.03,-0.966,-0.024,0.793,0.61,0.61,158.005
119956,147194,11433,0.03,-0.973,-0.013,1.951,0.366,0.915,158.011
119972,147082,24053,0.033,-0.967,0,1.951,0.366,0.915,158.015
119972,147166,11437,0.036,-0.956,0,0,0.61,1.037,158.021
119967,147338,24053,0.03,-0.949,-0.012,0,0.61,1.037,158.025
119967,147216,11417,0.027,-0.948,-0.027,-3.72,1.098,0.976,158.031
119988,147082,24053,0.026,-0.961,-0.035,-3.72,1.098,0.976,158.035
119988,147194,11440,0.025,-0.977,-0.026,-3.232,0.61,0.732,158.041
120030,147338,24053,0.027,-0.984,-0.027,-3.232,0.61,0.732,158.044
120030,147209,11429,0.03,-0.988,-0.04,-2.378,-0.244,0.488,158.051
120042,147338,24053,0.027,-0.988,-0.056,-2.378,-0.244,0.488,158.054
120042,147219,11447,0.026,-0.99,-0.072,-2.683,0.244,-0.122,158.061
120050,147338,24053,0.027,-0.991,-0.072,-2.683,0.244,-0.122,158.064
120050,147217,11431,0.025,-0.992,-0.052,1.159,0.366,-0.427,158.07
120034,147338,24053,0.03,-0.988,-0.035,1.159,0.366,-0.427,158.074
120034,147258,11443,0.03,-0.974,-0.032,4.085,0.061,-0.488,158.08
120043,147338,24053,0.027,-0.961,-0.03,4.085,0.061,-0.488,158.084
120043,147212,11462,0.028,-0.957,-0.028,3.354,0.305,-0.671,158.09
120022,147338,24053,0.029,-0.953,-0.022,3.354,0.305,-0.671,158.094
120022,147219,11438,0.032,-0.952,-0.007,3.598,0,-0.488,158.1
120001,147338,24053,0.038,-0.951,0.008,3.598,0,-0.488,158.104
120001,147231,11436,0.035,-0.939,0.006,1.829,0.061,0.061,158.11
119994,147338,24053,0.032,-0.935,-0.005,1.829,0.061,0.061,158.114
119994,147232,11427,0.028,-0.943,-0.015,-1.402,0.671,0.427,158.12
119972,147338,24053,0.026,-0.959,-0.015,-1.402,0.671,0.427,158.124
119972,147219,11412,0.027,-0.974,-0.023,-2.012,0.061,0.671,158.13
119924,147082,24053,0.028,-0.979,-0.028,-2.012,0.061,0.671,158.134
119924,147177,11413,0.03,-0.984,-0.044,-2.622,-0.488,0.671,158.14
119933,147082,24053,0.031,-0.982,-0.065,-2.622,-0.488,0.671,158.143
119933,147169,11413,0.031,-0.986,-0.064,-2.012,0.122,0.366,158.15
119884,147082,24053,0.028,-0.992,-0.048,-2.012,0.122,0.366,158.153
119884,147142,11414,0.026,-0.99,-0.031,2.5,0.854,0.488,158.16
119890,147082,24053,0.025,-0.984,-0.03,2.5,0.854,0.488,158.163
119890,147137,11421,0.025,-0.971,-0.032,3.049,1.098,0.427,158.169
119846,147082,24053,0.025,-0.966,-0.029,3.049,1.098,0.427,158.173
119846,147095,11433,0.027,-0.969,-0.02,1.89,0.793,0.183,158.179
119798,147082,24053,0.031,-0.966,-0.012,1.89,0.793,0.183,158.183
119798,147111,11430,0.033,-0.958,-0.006,1.524,0.122,0.244,158.189
119772,147082,24053,0.032,-0.952,-0.001,1.524,0.122,0.244,158.193
119772,147086,11402,0.03,-0.95,0.001,-0.854,0.427,0.305,158.199
119789,147082,24053,0.028,-0.951,-0.006,-0.854,0.427,0.305,158.203
119789,147085,11408,0.03,-0.956,-0.023,-3.537,0.549,0.244,158.209
119775,147082,24053,0.026,-0.963,-0.038,-3.537,0.549,0.244,158.213
119775,147103,11393,0.026,-0.976,-0.043,-4.512,-0.305,0,158.219
119808,147082,24053,0.028,-0.986,-0.052,-4.512,-0.305,0,158.223
119808,147096,11381,0.034,-0.989,-0.061,-2.744,-1.098,-0.427,158.229
119821,147082,24053,0.038,-0.987,-0.06,-2.744,-1.098,-0.427,158.233
119821,147115,11387,0.037,-0.984,-0.052,0.061,-0.549,-0.671,158.239
119833,147082,24053,0.033,-0.981,-0.04,0.061,-0.549,-0.671,158.242
119833,147123,11397,0.034,-0.971,-0.038,2.805,0.732,-0.305,158.249
119872,147082,24053,0.03,-0.967,-0.033,2.805,0.732,-0.305,158.252
119872,147142,11373,0.028,-0.963,-0.029,3.963,0.854,0.122,158.259
119894,147082,24053,0.031,-0.962,-0.019,3.963,0.854,0.122,158.262
119894,147170,11378,0.032,-0.96,-0.012,4.146,0.244,0.305,158.268
119913,147082,24053,0.032,-0.961,-0.007,4.146,0.244,0.305,158.272
119913,147161,11379,0.035,-0.96,-0.004,3.293,0.061,0.427,158.278
119924,147082,24053,0.034,-0.955,-0,3.293,0.061,0.427,158.282
119924,147164,11398,0.031,-0.953,-0.011,0.732,0.61,0.549,158.288
119908,147082,24053,0.027,-0.96,-0.022,0.732,0.61,0.549,158.292
119908,147166,11369,0.022,-0.973,-0.027,-0.854,1.159,0.61,158.298
119885,147082,24053,0.02,-0.985,-0.03,-0.854,1.159,0.61,158.302
119885,147172,11367,0.025,-0.989,-0.039,-1.098,0.122,0.427,158.308
119892,147082,24053,0.028,-0.988,-0.041,-1.098,0.122,0.427,158.312
119892,147148,11387,0.034,-0.982,-0.047,-0.976,-0.732,-0.244,158.318
119904,147082,24053,0.035,-0.974,-0.044,-0.976,-0.732,-0.244,158.322
119904,147169,11368,0.035,-0.974,-0.04,0.793,0.061,-0.488,158.328
119940,147082,24053,0.032,-0.975,-0.037,0.793,0.061,-0.488,158.332
119940,147179,11378,0.035,-0.969,-0.03,3.049,0.671,0.122,158.338
120003,147338,24053,0.035,-0.966,-0.026,3.049,0.671,0.122,158.341
120003,147203,11394,0.034,-0.958,-0.018,3.598,0.488,0.61,158.348
120022,147338,24053,0.035,-0.954,-0.01,3.598,0.488,0.61,158.351
120022,147251,11401,0.03,-0.958,-0.005,2.988,0.854,0.854,158.358
120058,147338,24053,0.03,-0.957,0.003,2.988,0.854,0.854,158.361
120058,147232,11411,0.031,-0.951,-0,1.159,0.793,1.037,158.367
120090,147338,24053,0.031,-0.953,-0.006,1.159,0.793,1.037,158.371
120090,147275,11402,0.028,-0.958,-0.009,-1.402,0.488,1.22,158.377
120081,147338,24053,0.028,-0.958,-0.009,-1.402,0.488,1.22,158.381
120081,147282,11408,0.023,-0.974,-0.018,-2.439,0.854,1.037,158.387
120049,147338,24053,0.023,-0.974,-0.018,-2.439,0.854,1.037,158.391
120049,147266,11407,0.023,-0.985,-0.045,-3.78,0.427,0.549,158.397
120003,147338,24053,0.023,-0.985,-0.045,-3.78,0.427,0.549,158.401
120003,147214,11391,0.031,-0.987,-0.048,-2.744,-0.061,-0.061,158.407
119981,147338,24053,0.031,-0.987,-0.048,-2.744,-0.061,-0.061,158.411
119981,147231,11395,0.034,-0.985,-0.044,-0.366,0.183,-0.061,158.417
119940,147338,24053,0.034,-0.985,-0.044,-0.366,0.183,-0.061,158.421
119940,147230,11396,0.028,-0.975,-0.042,1.22,0.793,0.183,158.427
119941,147082,24053,0.028,-0.975,-0.042,1.22,0.793,0.183,158.431
119941,147198,11409,0.032,-0.963,-0.021,2.5,0.671,0.366,158.437
119927,147082,24053,0.032,-0.963,-0.021,2.5,0.671,0.366,158.44
119927,147171,11398,0.034,-0.952,-0.016,2.622,0.61,0.427,158.447
119894,147082,24053,0.034,-0.952,-0.016,2.622,0.61,0.427,158.45
119894,147163,11404,0.029,-0.961,-0.013,1.829,0.732,0.61,158.457
119911,147082,24053,0.029,-0.961,-0.013,1.829,0.732,0.61,158.46
119911,147161,11405,0.032,-0.958,-0.009,0.366,0.305,0.976,158.466
119913,147082,24053,0.032,-0.958,-0.009,0.366,0.305,0.976,158.47
119913,147182,11393,0.03,-0.964,-0.016,-1.402,0.61,1.037,158.476
119920,147338,24053,0.03,-0.964,-0.016,-1.402,0.61,1.037,158.48
119920,147207,11384,0.025,-0.97,-0.023,-2.256,0.976,0.915,158.486
119942,147082,24053,0.025,-0.97,-0.023,-2.256,0.976,0.915,158.49
119942,147195,11408,0.027,-0.971,-0.043,-2.866,0.244,0.549,158.496
119942,147338,24053,0.027,-0.971,-0.043,-2.866,0.244,0.549,158.5
119942,147200,11392,0.03,-0.984,-0.054,-0.793,0.305,0.305,158.506
119962,147338,24053,0.03,-0.984,-0.054,-0.793,0.305,0.305,158.51
119962,147214,11402,0.029,-0.994,-0.026,3.049,0.976,0.183,158.516
119954,147082,24053,0.029,-0.994,-0.026,3.049,0.976,0.183,158.52
119954,147192,11393,0.029,-0.987,-0.023,3.049,0.976,0.183,158.526
119903,147082,24053,0.031,-0.975,-0.027,2.805,1.341,0.305,158.53
119903,147172,11390,0.026,-0.963,-0.026,2.805,1.341,0.305,158.536
119880,147082,24053,0.026,-0.964,-0.018,1.585,1.22,0.244,158.539
119880,147149,11402,0.03,-0.965,-0.007,1.585,1.22,0.244,158.546
119853,147082,24053,0.03,-0.961,0.004,1.707,0.671,0.305,158.549
119853,147152,11389,0.032,-0.951,0.003,1.707,0.671,0.305,158.556
119846,147082,24053,0.032,-0.947,-0.011,-1.159,0.549,0.244,158.559
119846,147157,11387,0.029,-0.95,-0.024,-1.159,0.549,0.244,158.565
119820,147082,24053,0.029,-0.96,-0.029,-2.805,0.671,0.366,158.569
119820,147153,11388,0.031,-0.973,-0.031,-2.805,0.671,0.366,158.575
119804,147082,24053,0.032,-0.978,-0.031,-1.768,-0.061,0.671,158.579
119804,147129,11392,0.031,-0.977,-0.033,-1.768,-0.061,0.671,158.585
119840,147082,24053,0.028,-0.975,-0.039,-1.524,0.122,0.549,158.589
119840,147137,11403,0.027,-0.97,-0.043,-1.524,0.122,0.549,158.595
119849,147082,24053,0.025,-0.972,-0.046,-1.159,0.61,0.122,158.599
119849,147173,11403,0.026,-0.977,-0.038,-1.159,0.61,0.122,158.605
119865,147082,24053,0.025,-0.983,-0.031,1.646,0.305,0.122,158.609
119865,147155,11409,0.027,-0.979,-0.024,1.646,0.305,0.122,158.615
119878,147082,24053,0.03,-0.974,-0.025,2.439,-0.183,0.061,158.619
119878,147176,11414,0.03,-0.966,-0.019,2.439,-0.183,0.061,158.625
119904,147082,24053,0.031,-0.964,-0.003,1.037,-0.122,-0.244,158.629
119904,147191,11428,0.035,-0.959,0.003,1.037,-0.122,-0.244,158.635
119890,147082,24053,0.032,-0.955,0.005,-0.61,0.305,-0.244,158.639
119890,147166,11417,0.029,-0.956,-0.003,-0.61,0.305,-0.244,158.645
119852,147082,24053,0.027,-0.962,-0.015,-3.049,0.549,0.122,158.648
119852,147172,11421,0.027,-0.97,-0.019,-3.049,0.549,0.122,158.655
119835,147082,24053,0.024,-0.977,-0.025,-4.207,-0.122,0.366,158.658
119835,147160,11414,0.028,-0.976,-0.03,-4.207,-0.122,0.366,158.664
119817,147082,24053,0.033,-0.976,-0.041,-4.817,-0.671,0.183,158.668
119817,147131,11411,0.034,-0.97,-0.052,-4.817,-0.671,0.183,158.674
119825,147082,24053,0.033,-0.968,-0.058,-3.78,-0.183,0,158.678
119825,147129,11407,0.032,-0.974,-0.057,-3.78,-0.183,0,158.684
119847,147082,24053,0.031,-0.976,-0.055,-0.122,0.305,0.122,158.688
119847,147159,11411,0.034,-0.976,-0.047,-0.122,0.305,0.122,158.694
119899,147082,24053,0.029,-0.974,-0.042,3.049,0.488,0.427,158.698
119899,147174,11414,0.032,-0.97,-0.034,3.049,0.488,0.427,158.704
119901,147338,24053,0.032,-0.969,-0.026,4.451,0.793,0.488,158.708
119901,147209,11411,0.033,-0.964,-0.016,4.451,0.793,0.488,158.714
119954,147338,24053,0.033,-0.959,-0.014,3.841,1.037,0.488,158.718
119954,147230,11423,0.032,-0.959,-0.013,3.841,1.037,0.488,158.724
119982,147338,24053,0.03,-0.962,-0.009,2.561,0.793,0.671,158.728
119982,147264,11406,0.029,-0.966,-0.008,2.561,0.793,0.671,158.734
120007,147338,24053,0.028,-0.971,-0.008,1.28,0.488,0.671,158.737
120007,147268,11424,0.029,-0.971,-0.013,1.28,0.488,0.671,158.744
120000,147338,24053,0.028,-0.969,-0.02,-0.915,0.427,0.549,158.747
120000,147265,11429,0.027,-0.976,-0.024,-0.915,0.427,0.549,158.754
119968,147338,24053,0.027,-0.977,-0.028,-2.073,0.366,0.427,158.757
119968,147267,11415,0.027,-0.978,-0.04,-2.073,0.366,0.427,158.763
119938,147338,24053,0.026,-0.979,-0.047,-1.646,0.305,0.244,158.767
119938,147237,11417,0.027,-0.979,-0.042,-1.646,0.305,0.244,158.773
119970,147338,24053,0.032,-0.973,-0.038,0.122,0.305,0.061,158.777
119970,147237,11410,0.032,-0.97,-0.036,0.122,0.305,0.061,158.783
119931,147338,24053,0.031,-0.969,-0.033,2.256,0.427,0,158.787
119931,147224,11410,0.028,-0.97,-0.028,2.256,0.427,0,158.793
119962,147338,24053,0.027,-0.965,-0.023,3.78,0.549,0.061,158.797
119962,147235,11403,0.032,-0.956,-0.016,3.78,0.549,0.061,158.803
119952,147338,24053,0.033,-0.952,-0.016,2.927,0.427,0,158.807
119952,147257,11420,0.036,-0.951,-0.013,2.927,0.427,0,158.813
120003,147338,24053,0.035,-0.956,-0.003,2.134,0.488,0.122,158.817
120003,147274,11422,0.033,-0.962,0.002,2.134,0.488,0.122,158.823
120030,147338,24053,0.033,-0.962,-0.001,0.976,0.488,0.549,158.827
120030,147288,11421,0.029,-0.967,-0.012,0.976,0.488,0.549,158.833
120052,147338,24053,0.029,-0.969,-0.015,-1.28,0.183,0.732,158.837
120052,147275,11424,0.029,-0.973,-0.019,-1.28,0.183,0.732,158.843
120074,147338,24053,0.028,-0.973,-0.025,-2.561,0.122,0.549,158.846
120074,147324,11409,0.028,-0.976,-0.026,-2.561,0.122,0.549,158.853
120077,147338,24053,0.03,-0.982,-0.035,-2.439,0.244,0.366,158.856
120077,147311,11429,0.029,-0.985,-0.034,-2.439,0.244,0.366,158.862
120061,147338,24053,0.028,-0.986,-0.032,-1.22,0.122,0.305,158.866
120061,147302,11422,0.031,-0.98,-0.027,-1.22,0.122,0.305,158.872
120039,147338,24053,0.034,-0.972,-0.029,-0.854,0.183,0.366,158.876
120039,147306,11420,0.032,-0.963,-0.034,-0.854,0.183,0.366,158.882
120037,147338,24053,0.034,-0.958,-0.031,-0.488,0.61,0.427,158.886
120037,147266,11431,0.035,-0.959,-0.024,-0.488,0.61,0.427,158.892
119994,147338,24053,0.03,-0.958,-0.022,0.671,0.793,0.549,158.896
119994,147245,11421,0.031,-0.961,-0.02,0.671,0.793,0.549,158.902
119980,147338,24053,0.032,-0.967,-0.022,0.915,0.427,0.793,158.906
119980,147222,11417,0.029,-0.971,-0.027,0.915,0.427,0.793,158.912
119944,147338,24053,0.028,-0.969,-0.026,0.244,0.488,0.671,158.916
119944,147217,11407,0.031,-0.971,-0.023,0.244,0.488,0.671,158.922
119933,147082,24053,0.032,-0.972,-0.018,0.061,0.305,0.305,158.926
119933,147192,11406,0.032,-0.971,-0.018,0.061,0.305,0.305,158.932
119952,147338,24053,0.028,-0.972,-0.024,-0.305,0.488,0.183,158.935
119952,147233,11383,0.027,-0.972,-0.027,-0.305,0.488,0.183,158.942
119952,147338,24053,0.026,-0.978,-0.03,-0.488,0.61,0.244,158.945
119952,147232,11398,0.029,-0.978,-0.026,-0.488,0.61,0.244,158.952
119997,147338,24053,0.03,-0.978,-0.028,0.488,0.122,0.183,158.955
119997,147254,11395,0.028,-0.978,-0.026,0.488,0.122,0.183,158.961
120005,147338,24053,0.028,-0.978,-0.026,0.488,0.122,0.183,158.965
120005,147280,11390,0.035,-0.971,-0.025,0.732,0.122,-0.061,158.971
120001,147338,24053,0.035,-0.971,-0.025,0.732,0.122,-0.061,158.975
120001,147250,11405,0.031,-0.968,-0.013,0.488,0.488,-0.061,158.981
119990,147338,24053,0.031,-0.968,-0.013,0.488,0.488,-0.061,158.985
119990,147247,11400,0.029,-0.966,-0.018,0.671,0.488,0.366,158.991
119948,147338,24053,0.029,-0.966,-0.018,0.671,0.488,0.366,158.995
119948,147231,11410,0.034,-0.954,-0.031,-0.854,0.244,0.427,159.001
119941,147338,24053,0.034,-0.954,-0.031,-0.854,0.244,0.427,159.005
119941,147208,11403,0.033,-0.967,-0.025,-1.098,0,0.366,159.011
119928,147338,24053,0.033,-0.967,-0.025,-1.098,0,0.366,159.015
119928,147201,11384,0.035,-0.966,-0.016,0.671,0,0.671,159.021
119926,147082,24053,0.035,-0.966,-0.016,0.671,0,0.671,159.025
119926,147190,11398,0.026,-0.962,-0.035,-0.183,0.671,0.793,159.031
119921,147338,24053,0.026,-0.962,-0.035,-0.183,0.671,0.793,159.035
119921,147223,11402,0.028,-0.982,-0.031,-0.549,0.976,0.61,159.041
119955,147338,24053,0.028,-0.982,-0.031,-0.549,0.976,0.61,159.044
119955,147223,11389,0.028,-0.985,-0.021,1.463,0.244,0.305,159.051
119980,147338,24053,0.028,-0.985,-0.021,1.463,0.244,0.305,159.054
119980,147264,11398,0.027,-0.975,-0.027,1.585,0.366,0.061,159.06
120020,147338,24053,0.027,-0.975,-0.027,1.585,0.366,0.061,159.064
120020,147258,11415,0.029,-0.969,-0.014,0,0.732,0.061,159.07
120023,147338,24053,0.029,-0.969,-0.014,0,0.732,0.061,159.074
120023,147289,11415,0.033,-0.959,-0.023,-0.732,0.183,0.122,159.08
120030,147338,24053,0.033,-0.959,-0.023,-0.732,0.183,0.122,159.084
120030,147279,11408,0.034,-0.965,-0.013,-1.037,0.122,0.183,159.09
120030,147338,24053,0.034,-0.965,-0.013,-1.037,0.122,0.183,159.094
120030,147286,11404,0.031,-0.961,-0.015,-0.671,0.427,0.671,159.1
120000,147338,24053,0.031,-0.961,-0.015,-0.671,0.427,0.671,159.104
120000,147249,11431,0.031,-0.957,-0.02,-1.89,0.671,0.915,159.11
119949,147338,24053,0.029,-0.953,-0.026,-1.89,0.671,0.915,159.114
119949,147218,11403,0.036,-0.958,-0.024,-2.378,0.549,0.732,159.12
119908,147338,24053,0.034,-0.963,-0.028,-2.378,0.549,0.732,159.124
119908,147203,11406,0.032,-0.969,-0.028,-1.341,0.366,0.854,159.13
119890,147338,24053,0.029,-0.971,-0.032,-1.341,0.366,0.854,159.133
119890,147206,11390,0.029,-0.976,-0.034,-0.183,0.732,0.976,159.14
119862,147082,24053,0.028,-0.979,-0.041,-0.183,0.732,0.976,159.143
119862,147175,11408,0.027,-0.979,-0.047,0.244,0.732,0.793,159.15
119888,147082,24053,0.026,-0.984,-0.041,0.244,0.732,0.793,159.153
119888,147191,11397,0.027,-0.99,-0.022,2.317,0.427,0.549,159.16
119910,147338,24053,0.027,-0.988,-0.014,2.317,0.427,0.549,159.163
119910,147206,11397,0.026,-0.979,-0.015,2.5,0.61,0.488,159.169
119947,147338,24053,0.029,-0.965,-0.023,2.5,0.61,0.488,159.173
119947,147221,11381,0.027,-0.958,-0.032,-0.183,0.671,0.183,159.179
119940,147338,24053,0.03,-0.957,-0.034,-0.183,0.671,0.183,159.183
119940,147219,11403,0.034,-0.965,-0.031,0.61,-0.305,0.061,159.189
119933,147338,24053,0.035,-0.974,-0.024,0.61,-0.305,0.061,159.193
119933,147221,11419,0.033,-0.977,-0.015,2.683,-0.549,0.244,159.199
119958,147338,24053,0.031,-0.972,-0.004,2.683,-0.549,0.244,159.203
119958,147217,11399,0.031,-0.964,-0.007,1.341,0.671,0.244,159.209
119922,147082,24053,0.03,-0.949,-0.018,1.341,0.671,0.244,159.213
119922,147192,11415,0.03,-0.951,-0.024,-1.098,0.854,0.366,159.219
119919,147082,24053,0.029,-0.962,-0.024,-1.098,0.854,0.366,159.223
119919,147189,11405,0.028,-0.967,-0.017,-0.244,0.183,0.671,159.229
119932,147082,24053,0.03,-0.972,-0.013,-0.244,0.183,0.671,159.233
119932,147188,11402,0.028,-0.969,-0.018,0.305,0.183,0.549,159.239
119917,147338,24053,0.027,-0.964,-0.02,0.305,0.183,0.549,159.242
119917,147208,11418,0.024,-0.966,-0.024,-0.854,0.793,0.183,159.249
119939,147082,24053,0.025,-0.967,-0.023,-0.854,0.793,0.183,159.252
119939,147192,11410,0.026,-0.969,-0.019,-0.915,0.488,-0.061,159.258
119926,147338,24053,0.025,-0.972,-0.021,-0.915,0.488,-0.061,159.262
119926,147205,11416,0.031,-0.972,-0.027,-1.037,-0.061,-0.305,159.268
119949,147338,24053,0.03,-0.974,-0.022,-1.037,-0.061,-0.305,159.272
119949,147220,11403,0.027,-0.976,-0.02,-1.037,-0.122,-0.366,159.278
119989,147338,24053,0.028,-0.978,-0.022,-1.037,-0.122,-0.366,159.282
119989,147241,11417,0.029,-0.973,-0.021,-1.829,0.244,-0.732,159.288
119983,147338,24053,0.028,-0.972,-0.023,-1.829,0.244,-0.732,159.292
119983,147213,11431,0.03,-0.967,-0.021,-2.805,-0.183,-0.915,159.298
119971,147338,24053,0.03,-0.966,-0.021,-2.805,-0.183,-0.915,159.302
119971,147228,11401,0.032,-0.969,-0.023,-3.171,-0.671,-0.793,159.308
119950,147338,24053,0.029,-0.973,-0.03,-3.171,-0.671,-0.793,159.312
119950,147228,11417,0.032,-0.973,-0.035,-2.561,-0.488,-0.793,159.318
119930,147338,24053,0.03,-0.976,-0.043,-2.561,-0.488,-0.793,159.322
119930,147212,11418,0.034,-0.972,-0.042,-1.707,-0.61,-0.854,159.328
119942,147338,24053,0.039,-0.97,-0.043,-1.707,-0.61,-0.854,159.332
119942,147208,11415,0.039,-0.974,-0.04,0.122,-0.793,-0.732,159.338
119920,147338,24053,0.039,-0.972,-0.03,0.122,-0.793,-0.732,159.341
119920,147209,11422,0.038,-0.97,-0.022,1.951,0,-0.488,159.348
119960,147338,24053,0.034,-0.966,-0.022,1.951,0,-0.488,159.351
119960,147223,11402,0.031,-0.963,-0.019,2.134,0.793,-0.183,159.357
120000,147338,24053,0.032,-0.961,-0.02,2.134,0.793,-0.183,159.361
120000,147247,11419,0.03,-0.964,-0.017,1.402,0.671,0.244,159.367
120005,147338,24053,0.031,-0.964,-0.008,1.402,0.671,0.244,159.371
120005,147254,11419,0.032,-0.963,-0.011,0.183,0.061,0.427,159.377
120043,147338,24053,0.035,-0.965,-0.021,0.183,0.061,0.427,159.381
120043,147276,11416,0.032,-0.972,-0.025,-1.098,0.122,0.427,159.387
120023,147338,24053,0.028,-0.977,-0.027,-1.098,0.122,0.427,159.391
120023,147262,11418,0.03,-0.981,-0.03,-0.915,0.305,0.61,159.397
120054,147338,24053,0.03,-0.979,-0.034,-0.915,0.305,0.61,159.401
120054,147292,11398,0.029,-0.973,-0.038,-1.037,0.305,0.61,159.407
120015,147338,24053,0.029,-0.969,-0.04,-1.037,0.305,0.61,159.411
120015,147258,11420,0.031,-0.968,-0.037,0,0.366,0.488,159.417
119984,147338,24053,0.036,-0.966,-0.033,0,0.366,0.488,159.421
119984,147237,11414,0.039,-0.964,-0.029,2.256,0.427,0.61,159.427
119960,147338,24053,0.037,-0.965,-0.028,2.256,0.427,0.61,159.431
119960,147231,11417,0.033,-0.965,-0.015,3.78,1.037,0.976,159.437
119946,147082,24053,0.034,-0.966,-0.008,3.78,1.037,0.976,159.44
119946,147194,11399,0.036,-0.962,-0.014,2.988,1.707,1.22,159.447
119960,147082,24053,0.036,-0.96,-0.019,2.988,1.707,1.22,159.45
119960,147187,11411,0.039,-0.964,-0.015,1.524,1.524,1.341,159.456
119950,147338,24053,0.039,-0.972,-0.013,1.524,1.524,1.341,159.46
119950,147224,11419,0.035,-0.976,-0.015,1.463,1.159,2.012,159.466
119981,147338,24053,0.033,-0.979,-0.019,1.463,1.159,2.012,159.47
119981,147231,11429,0.031,-0.976,-0.019,0.183,1.159,2.378,159.476
120012,147338,24053,0.03,-0.972,-0.023,0.183,1.159,2.378,159.48
120012,147235,11434,0.024,-0.973,-0.031,-0.549,1.585,2.073,159.486
120008,147338,24053,0.023,-0.976,-0.034,-0.549,1.585,2.073,159.49
120008,147230,11440,0.027,-0.982,-0.032,0.122,0.915,1.768,159.496
120016,147338,24053,0.029,-0.985,-0.028,0.122,0.915,1.768,159.5
120016,147251,11423,0.029,-0.977,-0.033,1.037,0.244,1.28,159.506
120018,147338,24053,0.029,-0.968,-0.031,1.037,0.244,1.28,159.51
120018,147234,11427,0.029,-0.963,-0.026,1.585,0.549,0.793,159.516
119966,147338,24053,0.027,-0.957,-0.022,1.585,0.549,0.793,159.52
119966,147219,11420,0.025,-0.955,-0.017,2.378,1.037,0.854,159.526
119945,147082,24053,0.026,-0.953,-0.007,2.378,1.037,0.854,159.53
119945,147182,11431,0.024,-0.952,-0.002,2.134,0.854,0.793,159.536
119913,147082,24053,0.027,-0.956,-0.003,2.134,0.854,0.793,159.539
119913,147165,11424,0.026,-0.961,-0.008,0.61,0.427,0.732,159.546
119880,147082,24053,0.026,-0.968,-0.011,0.61,0.427,0.732,159.549
119880,147150,11421,0.026,-0.972,-0.007,-0.671,0.061,0.549,159.556
119853,147082,24053,0.026,-0.972,-0.007,-0.671,0.061,0.549,159.559
119853,147112,11419,0.027,-0.967,-0.016,-2.378,-0.183,0.305,159.565
119802,147082,24053,0.027,-0.967,-0.016,-2.378,-0.183,0.305,159.569
119802,147124,11410,0.025,-0.976,-0.046,-3.537,0.061,-0.061,159.575
119765,147082,24053,0.025,-0.976,-0.046,-3.537,0.061,-0.061,159.579
119765,147103,11405,0.025,-0.994,-0.044,-0.854,0.061,-0.305,159.585
119764,147082,24053,0.025,-0.994,-0.044,-0.854,0.061,-0.305,159.589
119764,147086,11383,0.029,-0.988,-0.031,1.646,0.061,-0.549,159.595
119741,147082,24053,0.029,-0.988,-0.031,1.646,0.061,-0.549,159.599
119741,147088,11399,0.027,-0.969,-0.029,1.89,0.427,-0.732,159.605
119743,147082,24053,0.027,-0.969,-0.029,1.89,0.427,-0.732,159.609
119743,147082,11396,0.038,-0.957,-0.022,2.134,0.366,-0.61,159.615
119740,147082,24053,0.038,-0.957,-0.022,2.134,0.366,-0.61,159.619
119740,147096,11384,0.039,-0.955,0,2.805,0.122,-0.061,159.625
119696,147082,24053,0.039,-0.955,0,2.805,0.122,-0.061,159.629
119696,147058,11393,0.034,-0.956,0.003,1.646,0.671,0.671,159.635
119672,147082,24053,0.034,-0.956,0.003,1.646,0.671,0.671,159.638
119672,147033,11370,0.034,-0.959,-0.009,-1.037,0.854,1.037,159.645
119647,147082,24053,0.034,-0.959,-0.009,-1.037,0.854,1.037,159.648
119647,147030,11381,0.031,-0.963,-0.015,-2.622,0.671,1.159,159.654
119664,147082,24053,0.031,-0.963,-0.015,-2.622,0.671,1.159,159.658
119664,147062,11390,0.026,-0.976,-0.027,-2.805,0.549,1.159,159.664
119641,147082,24053,0.026,-0.976,-0.027,-2.805,0.549,1.159,159.668
119641,147046,11386,0.023,-0.982,-0.042,-2.256,0.549,0.671,159.674
119671,147082,24053,0.023,-0.982,-0.042,-2.256,0.549,0.671,159.678
119671,147061,11382,0.024,-0.99,-0.047,-0.427,0.427,0.183,159.684
119680,147082,24053,0.024,-0.99,-0.047,-0.427,0.427,0.183,159.688
119680,147062,11390,0.032,-0.984,-0.037,1.585,0.244,-0.244,159.694
119703,147082,24053,0.032,-0.984,-0.037,1.585,0.244,-0.244,159.698
119703,147069,11382,0.033,-0.976,-0.025,1.585,0.244,-0.244,159.704
119730,147082,24053,0.036,-0.965,-0.021,2.866,0.244,-0.488,159.708
119730,147083,11392,0.034,-0.96,-0.018,2.866,0.244,-0.488,159.714
119702,147082,24053,0.031,-0.957,-0.019,3.232,0.549,-0.427,159.718
119702,147058,11386,0.029,-0.966,-0.011,3.232,0.549,-0.427,159.724
119756,147082,24053,0.031,-0.969,0.003,3.232,0.244,0.122,159.728
119756,147074,11406,0.034,-0.964,0.006,3.232,0.244,0.122,159.734
119734,147082,24053,0.035,-0.956,0.005,0.915,0.061,0.488,159.737
119734,147090,11397,0.036,-0.951,-0.002,0.915,0.061,0.488,159.744
119785,147082,24053,0.031,-0.952,-0.015,-1.829,0.305,0.549,159.747
119785,147093,11397,0.029,-0.96,-0.022,-1.829,0.305,0.549,159.754
119820,147082,24053,0.03,-0.97,-0.019,-2.012,0.244,0.793,159.757
119820,147111,11384,0.03,-0.976,-0.023,-2.012,0.244,0.793,159.763
119859,147082,24053,0.03,-0.976,-0.027,-2.073,-0.244,0.732,159.767
119859,147093,11417,0.028,-0.977,-0.031,-2.073,-0.244,0.732,159.773
119935,147082,24053,0.026,-0.978,-0.037,-1.402,0.244,0.488,159.777
119935,147139,11409,0.026,-0.98,-0.03,-1.402,0.244,0.488,159.783
120008,147082,24053,0.023,-0.98,-0.027,0,0.61,0.122,159.787
120008,147175,11428,0.028,-0.977,-0.021,0,0.61,0.122,159.793
120036,147082,24053,0.027,-0.975,-0.025,0.61,0.061,-0.183,159.797
120036,147180,11431,0.032,-0.974,-0.02,0.61,0.061,-0.183,159.803
120030,147338,24053,0.031,-0.973,-0.015,0.793,-0.122,-0.122,159.807
120030,147219,11432,0.031,-0.966,-0.015,0.793,-0.122,-0.122,159.813
120031,147338,24053,0.032,-0.961,-0.016,0.427,0.305,-0.244,159.817
120031,147204,11422,0.033,-0.96,-0.012,0.427,0.305,-0.244,159.823
120030,147082,24053,0.034,-0.957,-0.005,-0.366,0.244,-0.183,159.827
120030,147196,11421,0.034,-0.953,-0.007,-0.366,0.244,-0.183,159.833
120000,147082,24053,0.032,-0.955,-0.013,-1.463,0.183,0.122,159.836
120000,147161,11414,0.03,-0.963,-0.015,-1.463,0.183,0.122,159.843
120015,147082,24053,0.029,-0.974,-0.027,-2.134,0.366,0.244,159.846
120015,147165,11418,0.029,-0.979,-0.031,-2.134,0.366,0.244,159.853
119997,147082,24053,0.03,-0.984,-0.034,-1.707,0.244,0.244,159.856
119997,147156,11419,0.031,-0.982,-0.032,-1.707,0.244,0.244,159.862
119989,147082,24053,0.033,-0.982,-0.034,-0.976,0.366,0.183,159.866
119989,147189,11421,0.032,-0.977,-0.036,-0.976,0.366,0.183,159.872
120008,147082,24053,0.031,-0.972,-0.032,0.244,0.61,0.305,159.876
120008,147172,11428,0.03,-0.972,-0.025,0.244,0.61,0.305,159.882
120024,147082,24053,0.029,-0.974,-0.017,2.073,0.793,0.366,159.886
120024,147197,11427,0.025,-0.973,-0.015,2.073,0.793,0.366,159.892
120060,147338,24053,0.029,-0.966,-0.015,2.195,0.488,0.427,159.896
120060,147225,11428,0.032,-0.966,-0.01,2.195,0.488,0.427,159.902
120078,147338,24053,0.032,-0.963,-0.006,0.976,0.183,0.305,159.906
120078,147245,11438,0.033,-0.958,0,0.976,0.183,0.305,159.912
120065,147338,24053,0.035,-0.953,-0.001,-0.854,0.122,0.427,159.916
120065,147220,11450,0.033,-0.949,-0.001,-0.854,0.122,0.427,159.922
120080,147338,24053,0.03,-0.957,-0.01,-2.256,0.671,0.549,159.926
120080,147209,11421,0.027,-0.965,-0.025,-2.256,0.671,0.549,159.932
120060,147338,24053,0.025,-0.974,-0.028,-2.744,0.305,0.61,159.935
120060,147247,11408,0.028,-0.979,-0.034,-2.744,0.305,0.61,159.942
120021,147338,24053,0.034,-0.98,-0.039,-2.317,-0.366,0.305,159.945
120021,147214,11400,0.035,-0.98,-0.038,-2.317,-0.366,0.305,159.952
120022,147338,24053,0.037,-0.979,-0.041,-0.793,0.183,0.183,159.955
120022,147210,11395,0.036,-0.983,-0.035,-0.793,0.183,0.183,159.961
119989,147338,24053,0.031,-0.983,-0.035,1.707,1.098,0.549,159.965
119989,147235,11400,0.031,-0.981,-0.03,1.707,1.098,0.549,159.971
120024,147338,24053,0.029,-0.973,-0.02,2.683,1.159,0.732,159.975
120024,147210,11406,0.03,-0.968,-0.007,2.683,1.159,0.732,159.981
120034,147338,24053,0.031,-0.969,-0,2.378,1.098,0.793,159.985
120034,147218,11401,0.028,-0.966,0,2.378,1.098,0.793,159.991
120030,147338,24053,0.028,-0.961,-0.006,0.549,1.402,0.732,159.995
120030,147216,11405,0.022,-0.96,-0.014,0.549,1.402,0.732,160.001
120032,147338,24053,0.022,-0.962,-0.011,-1.098,0.915,0.61,160.005
120032,147214,11420,0.025,-0.971,-0.014,-1.098,0.915,0.61,160.011
120059,147338,24053,0.025,-0.973,-0.021,-1.463,0,0.366,160.015
120059,147243,11415,0.025,-0.97,-0.035,-1.463,0,0.366,160.021
120083,147338,24053,0.029,-0.972,-0.036,-1.768,-0.183,0,160.025
120083,147266,11412,0.031,-0.967,-0.033,-1.768,-0.183,0,160.031
120074,147338,24053,0.036,-0.967,-0.032,-0.732,-0.183,-0.305,160.034
120074,147242,11412,0.035,-0.963,-0.034,-0.732,-0.183,-0.305,160.041
120064,147338,24053,0.034,-0.965,-0.029,0.61,0,-0.244,160.044
120064,147215,11423,0.031,-0.965,-0.021,0.61,0,-0.244,160.051
120051,147338,24053,0.033,-0.968,-0.015,1.707,0.305,0.122,160.054
120051,147216,11425,0.025,-0.977,-0.007,1.707,0.305,0.122,160.06
120024,147082,24053,0.022,-0.977,-0.001,1.22,0.427,0.244,160.064
120024,147186,11424,0.026,-0.969,-0.002,1.22,0.427,0.244,160.07
120018,147338,24053,0.029,-0.962,-0.01,-1.159,0.122,-0.183,160.074
120018,147201,11426,0.029,-0.965,-0.015,-1.159,0.122,-0.183,160.08
120007,147082,24053,0.029,-0.969,-0.016,-2.744,-0.427,-0.305,160.084
120007,147181,11435,0.031,-0.978,-0.023,-2.744,-0.427,-0.305,160.09
119982,147082,24053,0.029,-0.983,-0.032,-2.195,-0.732,-0.244,160.094
119982,147184,11441,0.032,-0.983,-0.032,-2.195,-0.732,-0.244,160.1
120007,147082,24053,0.032,-0.978,-0.036,-1.89,-0.549,-0.488,160.104
120007,147194,11430,0.038,-0.969,-0.043,-1.89,-0.549,-0.488,160.11
119979,147082,24053,0.038,-0.966,-0.032,-1.098,-0.244,-0.549,160.114
119979,147163,11409,0.038,-0.961,-0.031,-1.098,-0.244,-0.549,160.12
119995,147082,24053,0.041,-0.957,-0.028,0.976,0.183,0,160.124
119995,147183,11418,0.035,-0.961,-0.03,0.976,0.183,0,160.13
119990,147082,24053,0.035,-0.965,-0.023,2.256,0.488,0.61,160.133
119990,147187,11428,0.032,-0.972,-0.009,2.256,0.488,0.61,160.14
119986,147082,24053,0.03,-0.973,-0.001,2.805,0.793,0.915,160.143
119986,147181,11424,0.028,-0.967,-0.004,2.805,0.793,0.915,160.15
120000,147082,24053,0.028,-0.967,-0.004,2.805,0.793,0.915,160.153
120000,147183,11433,0.029,-0.955,-0.009,0.122,0.793,0.732,160.159
119988,147338,24053,0.029,-0.955,-0.009,0.122,0.793,0.732,160.163
119988,147226,11413,0.028,-0.97,-0.016,-1.829,0.549,0.549,160.169
119994,147338,24053,0.028,-0.97,-0.016,-1.829,0.549,0.549,160.173
119994,147227,11434,0.029,-0.982,-0.036,-1.89,0,0.488,160.179
120017,147338,24053,0.029,-0.982,-0.036,-1.89,0,0.488,160.183
120017,147202,11428,0.029,-0.984,-0.04,-1.951,-0.061,0.122,160.189
120047,147338,24053,0.029,-0.984,-0.04,-1.951,-0.061,0.122,160.193
120047,147225,11426,0.031,-0.978,-0.037,-0.793,0.122,-0.183,160.199
120018,147338,24053,0.031,-0.978,-0.037,-0.793,0.122,-0.183,160.203
120018,147223,11425,0.032,-0.974,-0.022,1.768,0.366,-0.244,160.209
119999,147082,24053,0.032,-0.974,-0.022,1.768,0.366,-0.244,160.213
119999,147178,11415,0.032,-0.963,-0.011,3.537,0.549,0.061,160.219
119981,147082,24053,0.032,-0.963,-0.011,3.537,0.549,0.061,160.223
119981,147183,11409,0.034,-0.957,-0.005,2.805,0.488,0.183,160.229
120016,147082,24053,0.034,-0.957,-0.005,2.805,0.488,0.183,160.232
120016,147197,11417,0.031,-0.956,-0.007,1.159,0.427,0.366,160.239
120005,147338,24053,0.031,-0.956,-0.007,1.159,0.427,0.366,160.242
120005,147217,11415,0.031,-0.959,-0.001,-0.122,0.427,0.366,160.249
120014,147082,24053,0.031,-0.959,-0.001,-0.122,0.427,0.366,160.252
120014,147196,11423,0.026,-0.962,-0.02,-1.463,0.366,0.488,160.258
120025,147338,24053,0.026,-0.962,-0.02,-1.463,0.366,0.488,160.262
120025,147208,11415,0.025,-0.979,-0.034,-2.622,0.366,0.549,160.268
120035,147338,24053,0.025,-0.979,-0.034,-2.622,0.366,0.549,160.272
120035,147220,11433,0.032,-0.982,-0.035,-2.073,0.061,0.244,160.278
120062,147338,24053,0.032,-0.982,-0.035,-2.073,0.061,0.244,160.282
120062,147229,11436,0.034,-0.979,-0.033,-0.732,-0.122,-0.061,160.288
120074,147338,24053,0.034,-0.979,-0.033,-0.732,-0.122,-0.061,160.292
120074,147249,11440,0.036,-0.974,-0.033,0.366,0.305,0.061,160.298
120096,147338,24053,0.035,-0.972,-0.026,0.366,0.305,0.061,160.302
120096,147266,11423,0.031,-0.972,-0.019,1.951,0.854,0.427,160.308
120076,147338,24053,0.03,-0.968,-0.013,1.951,0.854,0.427,160.312
120076,147243,11433,0.031,-0.968,-0.013,2.195,0.732,0.549,160.318
120073,147338,24053,0.027,-0.963,-0.01,2.195,0.732,0.549,160.322
120073,147220,11430,0.031,-0.959,-0.011,0.976,0.366,0.61,160.328
120038,147338,24053,0.032,-0.959,-0.006,0.976,0.366,0.61,160.331
120038,147234,11438,0.036,-0.958,-0.008,-0.366,0.366,0.671,160.338
120008,147338,24053,0.035,-0.96,-0.013,-0.366,0.366,0.671,160.341
120008,147203,11412,0.029,-0.967,-0.023,-1.28,0.793,0.732,160.348
119975,147338,24053,0.03,-0.976,-0.025,-1.28,0.793,0.732,160.351
119975,147207,11409,0.028,-0.979,-0.023,-1.037,0.671,0.793,160.357
119977,147082,24053,0.028,-0.981,-0.03,-1.037,0.671,0.793,160.361
119977,147198,11420,0.031,-0.979,-0.03,-0.793,0.244,0.671,160.367
119984,147338,24053,0.032,-0.974,-0.03,-0.793,0.244,0.671,160.371
119984,147200,11406,0.033,-0.974,-0.032,-0.305,0.427,0.427,160.377
120006,147338,24053,0.031,-0.973,-0.032,-0.305,0.427,0.427,160.381
120006,147201,11415,0.031,-0.972,-0.028,1.22,0.61,0.427,160.387
120031,147338,24053,0.032,-0.972,-0.025,1.22,0.61,0.427,160.391
120031,147225,11410,0.031,-0.966,-0.019,2.317,0.488,0.549,160.397
120054,147338,24053,0.031,-0.964,-0.015,2.317,0.488,0.549,160.401
120054,147248,11412,0.031,-0.962,-0.014,2.012,0.671,0.427,160.407
120026,147338,24053,0.03,-0.959,-0.012,2.012,0.671,0.427,160.411
120026,147234,11420,0.031,-0.96,-0.012,1.159,0.671,0.61,160.417
120034,147082,24053,0.032,-0.964,-0.006,1.159,0.671,0.61,160.421
120034,147193,11429,0.031,-0.969,-0.004,0.427,0.61,0.793,160.427
120008,147338,24053,0.032,-0.969,-0.003,0.427,0.61,0.793,160.43
120008,147206,11403,0.029,-0.968,-0.008,-0.854,0.793,0.854,160.437
119980,147082,24053,0.026,-0.97,-0.017,-0.854,0.793,0.854,160.44
119980,147178,11411,0.027,-0.97,-0.029,-1.951,0.793,0.732,160.447
119959,147338,24053,0.03,-0.975,-0.032,-1.951,0.793,0.732,160.45
119959,147207,11394,0.032,-0.979,-0.026,-1.037,0.183,0.61,160.456
119969,147082,24053,0.033,-0.982,-0.022,-1.037,0.183,0.61,160.46
119969,147170,11398,0.034,-0.981,-0.025,0.366,0.305,0.671,160.466
119985,147338,24053,0.03,-0.975,-0.029,0.366,0.305,0.671,160.47
119985,147210,11402,0.025,-0.971,-0.03,0.244,0.915,0.61,160.476
119998,147338,24053,0.029,-0.97,-0.022,0.244,0.915,0.61,160.48
119998,147214,11403,0.03,-0.965,-0.014,0.915,0.427,0.61,160.486
120012,147338,24053,0.031,-0.961,-0.011,0.915,0.427,0.61,160.49
120012,147212,11404,0.032,-0.955,-0.01,0.549,0.061,0.488,160.496
120015,147338,24053,0.031,-0.956,-0.014,0.549,0.061,0.488,160.5
120015,147220,11420,0.027,-0.962,-0.016,-0.366,0.427,0.244,160.506
120014,147338,24053,0.029,-0.965,-0.018,-0.366,0.427,0.244,160.51
120014,147219,11401,0.03,-0.97,-0.015,-0.61,0.244,0.061,160.516
120006,147338,24053,0.03,-0.973,-0.007,-0.61,0.244,0.061,160.52
120006,147245,11417,0.03,-0.972,-0.012,-0.976,-0.244,0.183,160.526
120001,147338,24053,0.031,-0.97,-0.023,-0.976,-0.244,0.183,160.529
120001,147223,11414,0.032,-0.969,-0.029,-2.134,0,-0.183,160.536
119984,147338,24053,0.032,-0.971,-0.033,-2.134,0,-0.183,160.539
119984,147227,11415,0.033,-0.976,-0.031,-1.037,0.061,-0.122,160.546
119965,147082,24053,0.033,-0.98,-0.029,-1.037,0.061,-0.122,160.549
119965,147187,11411,0.033,-0.98,-0.027,0.793,0.122,0.122,160.555
119973,147082,24053,0.035,-0.977,-0.025,0.793,0.122,0.122,160.559
119973,147197,11400,0.034,-0.972,-0.022,1.159,0.427,0.244,160.565
119971,147082,24053,0.035,-0.967,-0.019,1.159,0.427,0.244,160.569
119971,147178,11401,0.038,-0.961,-0.019,0.732,0.488,0.427,160.575
119933,147082,24053,0.036,-0.959,-0.012,0.732,0.488,0.427,160.579
119933,147183,11392,0.03,-0.968,-0.011,0.671,0.915,0.854,160.585
119925,147082,24053,0.024,-0.972,-0.014,0.671,0.915,0.854,160.589
119925,147174,11400,0.026,-0.973,-0.018,0.488,1.28,0.915,160.595
119914,147082,24053,0.026,-0.97,-0.026,0.488,1.28,0.915,160.599
119914,147192,11410,0.032,-0.971,-0.024,-0.915,0.549,0.61,160.605
119919,147082,24053,0.035,-0.97,-0.027,-0.915,0.549,0.61,160.609
119919,147181,11415,0.036,-0.972,-0.026,-0.793,0.183,0.671,160.615
119947,147082,24053,0.029,-0.971,-0.024,-0.793,0.183,0.671,160.619
119947,147195,11403,0.03,-0.971,-0.025,0.244,0.549,0.854,160.625
119961,147082,24053,0.031,-0.97,-0.025,0.244,0.549,0.854,160.628
119961,147185,11401,0.029,-0.966,-0.019,1.037,0.793,0.915,160.635
119962,147338,24053,0.028,-0.964,-0.019,1.037,0.793,0.915,160.638
119962,147211,11398,0.029,-0.97,-0.011,1.524,0.793,0.915,160.645
119987,147338,24053,0.029,-0.97,-0.009,1.524,0.793,0.915,160.648
119987,147215,11386,0.029,-0.97,-0.008,1.524,0.915,0.976,160.654
120017,147338,24053,0.031,-0.967,-0.01,1.524,0.915,0.976,160.658
120017,147220,11412,0.03,-0.964,-0.009,0.122,0.61,0.915,160.664
120049,147338,24053,0.033,-0.96,-0.011,0.122,0.61,0.915,160.668
120049,147247,11422,0.031,-0.964,-0.015,-0.549,0.793,1.037,160.674
120086,147338,24053,0.029,-0.972,-0.019,-0.549,0.793,1.037,160.678
120086,147251,11418,0.023,-0.977,-0.017,0.183,1.28,1.098,160.684
120108,147338,24053,0.022,-0.976,-0.018,0.183,1.28,1.098,160.688
120108,147281,11427,0.024,-0.975,-0.019,-0.183,1.037,0.854,160.694
120101,147338,24053,0.026,-0.97,-0.025,-0.183,1.037,0.854,160.698
120101,147249,11418,0.029,-0.968,-0.024,-0.793,0.488,0.366,160.704
120081,147338,24053,0.026,-0.969,-0.027,-0.793,0.488,0.366,160.708
120081,147263,11424,0.027,-0.974,-0.029,0.183,0.488,0,160.714
120072,147338,24053,0.024,-0.974,-0.023,0.183,0.488,0,160.718
120072,147245,11423,0.026,-0.973,-0.02,1.098,0.366,-0.122,160.724
120065,147338,24053,0.025,-0.97,-0.017,1.098,0.366,-0.122,160.727
120065,147260,11426,0.025,-0.97,-0.018,0.366,0.183,-0.488,160.734
120088,147338,24053,0.024,-0.964,-0.014,0.366,0.183,-0.488,160.737
120088,147257,11414,0.025,-0.962,-0.016,-0.671,-0.061,-0.915,160.744
120098,147338,24053,0.025,-0.962,-0.016,-0.671,-0.061,-0.915,160.747
120098,147267,11420,0.031,-0.972,-0.008,-1.098,-0.61,-0.854,160.753
120100,147338,24053,0.031,-0.972,-0.008,-1.098,-0.61,-0.854,160.757
120100,147252,11431,0.034,-0.967,-0.016,-1.768,-0.793,-0.671,160.763
120117,147338,24053,0.034,-0.967,-0.016,-1.768,-0.793,-0.671,160.767
120117,147261,11417,0.035,-0.963,-0.026,-2.5,-0.549,-0.549,160.773
120127,147338,24053,0.035,-0.963,-0.026,-2.5,-0.549,-0.549,160.777
120127,147262,11424,0.034,-0.969,-0.028,-1.829,-0.366,-0.305,160.783
120134,147338,24053,0.034,-0.969,-0.028,-1.829,-0.366,-0.305,160.787
120134,147250,11405,0.038,-0.972,-0.024,-0.793,-0.183,-0.061,160.793
120094,147338,24053,0.038,-0.972,-0.024,-0.793,-0.183,-0.061,160.797
120094,147236,11429,0.035,-0.966,-0.029,-0.671,0.427,0.366,160.803
120091,147338,24053,0.035,-0.966,-0.029,-0.671,0.427,0.366,160.807
120091,147259,11411,0.035,-0.969,-0.026,0.183,0.976,0.793,160.813
120046,147338,24053,0.035,-0.969,-0.026,0.183,0.976,0.793,160.817
120046,147244,11429,0.033,-0.969,-0.017,0.854,1.037,0.915,160.823
120024,147338,24053,0.033,-0.969,-0.017,0.854,1.037,0.915,160.827
120024,147214,11418,0.029,-0.972,-0.016,0.854,0.915,1.037,160.833
120015,147338,24053,0.029,-0.972,-0.016,0.854,0.915,1.037,160.836
120015,147230,11406,0.024,-0.977,-0.023,-0.244,1.037,1.037,160.843
119994,147338,24053,0.024,-0.977,-0.023,-0.244,1.037,1.037,160.846
119994,147209,11423,0.026,-0.98,-0.018,-0.671,0.793,0.854,160.852
120046,147338,24053,0.026,-0.98,-0.018,-0.671,0.793,0.854,160.856
120046,147243,11419,0.03,-0.968,-0.029,-1.341,0.366,0.366,160.862
120027,147338,24053,0.03,-0.968,-0.029,-1.341,0.366,0.366,160.866
120027,147241,11423,0.028,-0.97,-0.026,-0.488,0.366,0.183,160.872
120066,147338,24053,0.028,-0.97,-0.026,-0.488,0.366,0.183,160.876
120066,147258,11431,0.029,-0.975,-0.028,0.976,0.244,0.122,160.882
120110,147338,24053,0.029,-0.975,-0.028,0.976,0.244,0.122,160.886
120110,147274,11428,0.033,-0.967,-0.026,0.976,0.244,0.122,160.892
120136,147338,24053,0.031,-0.961,-0.022,1.768,0.061,0.122,160.896
120136,147300,11414,0.034,-0.959,-0.015,1.768,0.061,0.122,160.902
120165,147338,24053,0.038,-0.96,-0.016,2.561,0.366,0.244,160.906
120165,147294,11438,0.033,-0.961,-0.009,2.561,0.366,0.244,160.912
120189,147338,24053,0.031,-0.963,-0.005,2.988,0.854,0.488,160.916
120189,147296,11430,0.032,-0.963,-0.008,2.988,0.854,0.488,160.922
120156,147338,24053,0.031,-0.963,-0.004,1.707,0.732,0.549,160.926
120156,147284,11436,0.031,-0.964,-0.003,1.707,0.732,0.549,160.932
120155,147338,24053,0.03,-0.969,-0.012,0.366,0.671,0.61,160.935
120155,147289,11414,0.033,-0.973,-0.013,0.366,0.671,0.61,160.942
120184,147338,24053,0.026,-0.979,-0.016,-0.61,1.098,0.549,160.945
120184,147281,11448,0.025,-0.982,-0.017,-0.61,1.098,0.549,160.951
120174,147338,24053,0.028,-0.98,-0.023,-1.402,0.976,0.549,160.955
120174,147276,11438,0.025,-0.977,-0.022,-1.402,0.976,0.549,160.961
120158,147338,24053,0.025,-0.976,-0.027,-1.951,0.183,0.305,160.965
120158,147290,11419,0.025,-0.981,-0.029,-1.951,0.183,0.305,160.971
120196,147338,24053,0.029,-0.981,-0.028,-1.037,-0.183,-0.061,160.975
120196,147303,11439,0.036,-0.972,-0.027,-1.037,-0.183,-0.061,160.981
120209,147338,24053,0.037,-0.968,-0.025,-0.183,-0.305,-0.122,160.985
120209,147289,11431,0.035,-0.961,-0.022,-0.183,-0.305,-0.122,160.991
120197,147338,24053,0.034,-0.958,-0.023,0.793,0.122,0.122,160.995
120197,147297,11432,0.034,-0.963,-0.017,0.793,0.122,0.122,161.001
120179,147338,24053,0.031,-0.963,-0.005,1.585,0.61,0.549,161.005
120179,147273,11438,0.029,-0.957,0.003,1.585,0.61,0.549,161.011
120160,147338,24053,0.031,-0.954,-0.001,0.427,0.488,0.854,161.015
120160,147282,11427,0.032,-0.954,-0.007,0.427,0.488,0.854,161.021
120128,147338,24053,0.029,-0.965,-0.01,-1.463,0.549,0.976,161.025
120128,147252,11421,0.029,-0.972,-0.014,-1.463,0.549,0.976,161.031
120117,147338,24053,0.026,-0.977,-0.02,-1.585,0.549,0.915,161.034
120117,147248,11417,0.027,-0.98,-0.025,-1.585,0.549,0.915,161.041
120089,147338,24053,0.026,-0.983,-0.03,-1.341,0.488,0.732,161.044
120089,147252,11428,0.029,-0.981,-0.032,-1.341,0.488,0.732,161.05
120095,147338,24053,0.025,-0.979,-0.034,-0.854,0.732,0.366,161.054
120095,147234,11415,0.025,-0.982,-0.033,-0.854,0.732,0.366,161.06
120073,147338,24053,0.024,-0.989,-0.033,0.488,0.793,0.122,161.064
120073,147222,11416,0.023,-0.986,-0.026,0.488,0.793,0.122,161.07
120027,147082,24053,0.027,-0.978,-0.023,1.402,0.305,-0.122,161.074
120027,147185,11401,0.031,-0.972,-0.023,1.402,0.305,-0.122,161.08
120009,147338,24053,0.035,-0.963,-0.019,0.915,0,-0.366,161.084
120009,147209,11422,0.037,-0.957,-0.017,0.915,0,-0.366,161.09
120010,147082,24053,0.034,-0.959,-0.019,1.159,0.061,-0.244,161.094
120010,147192,11404,0.034,-0.961,-0.014,1.159,0.061,-0.244,161.1
120028,147082,24053,0.034,-0.963,-0.009,1.768,0.305,0.244,161.104
120028,147159,11407,0.032,-0.96,-0.011,1.768,0.305,0.244,161.11
120043,147338,24053,0.034,-0.96,-0.017,1.098,0.427,0.488,161.114
120043,147210,11409,0.033,-0.959,-0.014,1.098,0.427,0.488,161.12
120057,147338,24053,0.032,-0.964,-0.005,0.549,0.61,0.854,161.124
120057,147234,11410,0.028,-0.965,-0.006,0.549,0.61,0.854,161.13
120100,147338,24053,0.028,-0.966,-0.01,-0.244,0.854,1.037,161.133
120100,147231,11404,0.028,-0.967,-0.021,-0.244,0.854,1.037,161.14
120119,147338,24053,0.025,-0.972,-0.023,-1.22,0.732,1.037,161.143
120119,147272,11411,0.029,-0.981,-0.019,-1.22,0.732,1.037,161.15
120172,147338,24053,0.028,-0.985,-0.016,-0.61,0.488,0.732,161.153
120172,147289,11409,0.027,-0.985,-0.021,-0.61,0.488,0.732,161.159
120178,147338,24053,0.026,-0.979,-0.024,-0.671,0.549,0.61,161.163
120178,147323,11429,0.021,-0.975,-0.031,-0.671,0.549,0.61,161.169
120195,147338,24053,0.025,-0.974,-0.026,-0.854,0.549,0.244,161.173
120195,147316,11424,0.029,-0.975,-0.026,-0.854,0.549,0.244,161.179
120192,147338,24053,0.029,-0.972,-0.02,0.427,0.122,-0.183,161.183
120192,147305,11436,0.031,-0.968,-0.022,0.427,0.122,-0.183,161.189
120149,147338,24053,0.033,-0.964,-0.025,0.671,-0.183,-0.366,161.193
120149,147283,11412,0.037,-0.961,-0.021,0.671,-0.183,-0.366,161.199
120154,147338,24053,0.035,-0.963,-0.017,0.793,0,-0.366,161.203
120154,147265,11411,0.035,-0.964,-0.009,0.793,0,-0.366,161.209
120131,147338,24053,0.034,-0.963,-0.003,1.341,0.305,0.183,161.213
120131,147256,11424,0.036,-0.959,-0.003,1.341,0.305,0.183,161.219
120141,147338,24053,0.032,-0.959,-0.007,0.122,0.305,0.61,161.223
120141,147252,11417,0.033,-0.957,-0.009,0.122,0.305,0.61,161.229
120128,147338,24053,0.033,-0.964,-0.008,-1.037,0.427,0.915,161.232
120128,147253,11421,0.031,-0.971,-0.005,-1.037,0.427,0.915,161.239
120147,147338,24053,0.029,-0.97,-0.003,-1.829,0.488,1.098,161.242
120147,147260,11413,0.028,-0.968,-0.01,-1.829,0.488,1.098,161.249
120172,147338,24053,0.024,-0.968,-0.022,-3.293,0.732,1.037,161.252
120172,147271,11433,0.022,-0.975,-0.037,-3.293,0.732,1.037,161.258
120203,147338,24053,0.024,-0.984,-0.042,-2.927,0.488,0.671,161.262
120203,147295,11439,0.026,-0.991,-0.039,-2.927,0.488,0.671,161.268
120201,147338,24053,0.028,-0.991,-0.035,-0.549,0.061,0.305,161.272
120201,147288,11433,0.03,-0.983,-0.036,-0.549,0.061,0.305,161.278
120181,147338,24053,0.032,-0.977,-0.035,0.549,0.305,0,161.282
120181,147313,11428,0.03,-0.971,-0.031,0.549,0.305,0,161.288
120186,147338,24053,0.031,-0.969,-0.027,1.89,0.732,-0.183,161.292
120186,147306,11419,0.035,-0.963,-0.027,1.89,0.732,-0.183,161.298
120106,147338,24053,0.035,-0.963,-0.02,3.11,0.244,0,161.302
120106,147247,11412,0.035,-0.965,-0.007,3.11,0.244,0,161.308
120092,147338,24053,0.034,-0.966,0.003,3.476,0.122,0.488,161.312
120092,147222,11394,0.039,-0.964,0.018,3.476,0.122,0.488,161.318
120071,147338,24053,0.036,-0.95,0.013,1.037,0.671,0.915,161.322
120071,147219,11410,0.031,-0.94,-0,1.037,0.671,0.915,161.328
120063,147338,24053,0.031,-0.94,-0,1.037,0.671,0.915,161.331
120063,147238,11395,0.024,-0.963,-0.014,-2.317,1.159,1.098,161.338
120050,147338,24053,0.024,-0.963,-0.014,-2.317,1.159,1.098,161.341
120050,147233,11410,0.025,-0.984,-0.038,-2.378,0.488,1.098,161.348
120083,147338,24053,0.025,-0.984,-0.038,-2.378,0.488,1.098,161.351
120083,147243,11420,0.031,-0.998,-0.036,-1.646,-0.427,0.671,161.357
120143,147338,24053,0.031,-0.998,-0.036,-1.646,-0.427,0.671,161.361
120143,147275,11421,0.031,-0.983,-0.032,0.122,0.244,0.244,161.367
120195,147338,24053,0.031,-0.983,-0.032,0.122,0.244,0.244,161.371
120195,147276,11418,0.028,-0.962,-0.022,1.524,1.098,0,161.377
120225,147338,24053,0.028,-0.962,-0.022,1.524,1.098,0,161.381
120225,147293,11426,0.029,-0.962,-0.007,3.232,1.159,0.122,161.387
120192,147338,24053,0.029,-0.962,-0.007,3.232,1.159,0.122,161.391
120192,147271,11432,0.028,-0.966,-0.002,3.841,1.098,0.305,161.397
120170,147338,24053,0.028,-0.966,-0.002,3.841,1.098,0.305,161.401
120170,147272,11421,0.03,-0.955,0.019,2.134,0.793,0.305,161.407
120140,147338,24053,0.03,-0.955,0.019,2.134,0.793,0.305,161.411
120140,147251,11415,0.027,-0.95,-0.006,-1.524,0.488,0.488,161.417
120110,147338,24053,0.027,-0.95,-0.006,-1.524,0.488,0.488,161.421
120110,147222,11417,0.027,-0.971,-0.018,-4.329,0.244,0.427,161.427
120094,147338,24053,0.027,-0.971,-0.018,-4.329,0.244,0.427,161.43
120094,147203,11418,0.032,-0.983,-0.03,-4.207,-0.793,0.122,161.437
120085,147338,24053,0.032,-0.983,-0.03,-4.207,-0.793,0.122,161.44
120085,147217,11412,0.034,-0.978,-0.045,-4.268,-1.098,-0.305,161.447
120094,147338,24053,0.034,-0.978,-0.045,-4.268,-1.098,-0.305,161.45
120094,147221,11416,0.035,-0.979,-0.038,-3.11,-0.244,-0.549,161.456
120133,147338,24053,0.035,-0.979,-0.038,-3.11,-0.244,-0.549,161.46
120133,147265,11419,0.031,-0.973,-0.029,0.122,0.122,-0.366,161.466
120170,147338,24053,0.031,-0.973,-0.029,0.122,0.122,-0.366,161.47
120170,147277,11416,0.032,-0.963,-0.016,1.951,0.305,-0.244,161.476
120207,147338,24053,0.032,-0.963,-0.016,1.951,0.305,-0.244,161.48
120207,147288,11438,0.034,-0.966,-0.014,2.317,0.427,-0.183,161.486
120196,147338,24053,0.031,-0.969,-0.007,2.317,0.427,-0.183,161.49
120196,147275,11437,0.033,-0.967,0.005,1.89,0.305,0.183,161.496
120171,147338,24053,0.033,-0.962,0.017,1.89,0.305,0.183,161.5
120171,147265,11443,0.034,-0.95,0.01,-0.732,0.305,0.549,161.506
120155,147338,24053,0.035,-0.949,-0.008,-0.732,0.305,0.549,161.51
120155,147253,11424,0.028,-0.955,-0.025,-4.024,0.732,0.61,161.516
120101,147338,24053,0.024,-0.972,-0.032,-4.024,0.732,0.61,161.52
120101,147252,11415,0.024,-0.989,-0.036,-2.927,0.366,0.671,161.526
120092,147338,24053,0.026,-0.998,-0.035,-2.927,0.366,0.671,161.529
120092,147233,11419,0.029,-0.998,-0.036,-1.341,-0.671,0.549,161.536
120093,147338,24053,0.027,-0.986,-0.045,-1.341,-0.671,0.549,161.539
120093,147250,11410,0.027,-0.98,-0.05,-0.549,0,-0.122,161.546
120160,147338,24053,0.029,-0.975,-0.041,-0.549,0,-0.122,161.549
120160,147245,11417,0.031,-0.971,-0.032,2.012,0.732,-0.366,161.555
120146,147338,24053,0.032,-0.965,-0.023,2.012,0.732,-0.366,161.559
120146,147278,11413,0.034,-0.957,-0.02,3.659,0.244,-0.305,161.565
120180,147338,24053,0.038,-0.954,-0.01,3.659,0.244,-0.305,161.569
120180,147266,11449,0.036,-0.958,0.002,4.024,0.427,-0.061,161.575
120246,147338,24053,0.038,-0.956,0.005,4.024,0.427,-0.061,161.579
120246,147294,11440,0.035,-0.956,0.004,2.622,0.915,0.427,161.585
120230,147338,24053,0.034,-0.958,0.001,2.622,0.915,0.427,161.589
120230,147307,11460,0.034,-0.961,0.002,0.183,0.976,0.854,161.595
120202,147338,24053,0.029,-0.965,-0.003,0.183,0.976,0.854,161.599
120202,147296,11444,0.027,-0.968,-0.009,-1.28,0.793,1.22,161.605
120191,147338,24053,0.027,-0.971,-0.021,-1.28,0.793,1.22,161.609
120191,147292,11424,0.025,-0.98,-0.03,-2.073,0.732,0.976,161.615
120150,147338,24053,0.029,-0.983,-0.033,-2.073,0.732,0.976,161.619
120150,147254,11433,0.029,-0.986,-0.035,-1.037,0.366,0.671,161.625
120187,147338,24053,0.03,-0.985,-0.038,-1.037,0.366,0.671,161.628
120187,147242,11411,0.031,-0.984,-0.028,0.61,0.427,0.549,161.635
120192,147338,24053,0.032,-0.978,-0.022,0.61,0.427,0.549,161.638
120192,147257,11426,0.032,-0.97,-0.016,1.829,0.854,0.549,161.645
120197,147338,24053,0.026,-0.966,-0.011,1.829,0.854,0.549,161.648
120197,147268,11431,0.023,-0.964,-0.009,1.463,1.098,0.488,161.654
120211,147338,24053,0.022,-0.961,-0.006,1.463,1.098,0.488,161.658
120211,147238,11464,0.027,-0.959,-0.005,0.549,0.488,0.244,161.664
120219,147338,24053,0.029,-0.958,-0.006,0.549,0.488,0.244,161.668
120219,147243,11445,0.033,-0.958,-0.005,-0.549,-0.549,0,161.674
120211,147338,24053,0.034,-0.958,-0.006,-0.549,-0.549,0,161.678
120211,147259,11457,0.033,-0.965,-0.011,-1.28,-0.366,0.061,161.684
120215,147338,24053,0.03,-0.969,-0.013,-1.28,-0.366,0.061,161.688
120215,147254,11444,0.029,-0.97,-0.01,-1.951,0.244,0.122,161.694
120207,147338,24053,0.029,-0.968,-0.018,-1.951,0.244,0.122,161.698
120207,147269,11444,0.033,-0.969,-0.028,-2.378,0.305,0.122,161.704
120176,147338,24053,0.031,-0.971,-0.032,-2.378,0.305,0.122,161.708
120176,147237,11429,0.031,-0.98,-0.029,-1.585,0.244,0.244,161.714
120184,147338,24053,0.033,-0.985,-0.027,-1.585,0.244,0.244,161.718
120184,147261,11427,0.032,-0.984,-0.025,0,0.183,0.366,161.724
120148,147338,24053,0.031,-0.979,-0.027,0,0.183,0.366,161.727
120148,147223,11430,0.027,-0.98,-0.027,0.366,0.61,0.244,161.734
120158,147338,24053,0.028,-0.976,-0.02,0.366,0.61,0.244,161.737
120158,147232,11422,0.029,-0.978,-0.019,0.305,0.671,0.183,161.744
120129,147338,24053,0.032,-0.969,-0.014,0.305,0.671,0.183,161.747
120129,147224,11436,0.031,-0.959,-0.007,-0.122,0.427,0.244,161.753
120110,147338,24053,0.031,-0.957,-0.018,-0.122,0.427,0.244,161.757
120110,147204,11429,0.033,-0.962,-0.025,-0.793,0.61,0.122,161.763
120104,147082,24053,0.032,-0.968,-0.025,-0.793,0.61,0.122,161.767
120104,147190,11427,0.033,-0.976,-0.021,0.183,0.549,0.183,161.773
120091,147338,24053,0.034,-0.973,-0.018,0.183,0.549,0.183,161.777
120091,147222,11421,0.035,-0.971,-0.014,0.366,0.122,0.427,161.783
120069,147338,24053,0.033,-0.964,-0.021,0.366,0.122,0.427,161.787
120069,147223,11413,0.033,-0.956,-0.023,-0.427,0.488,0.549,161.793
120079,147338,24053,0.034,-0.961,-0.024,-0.427,0.488,0.549,161.797
120079,147222,11393,0.031,-0.965,-0.021,0.305,0.976,0.854,161.803
120072,147338,24053,0.029,-0.967,-0.016,0.305,0.976,0.854,161.807
120072,147218,11407,0.03,-0.971,-0.018,1.098,0.671,1.037,161.813
120102,147338,24053,0.029,-0.972,-0.014,1.098,0.671,1.037,161.817
120102,147234,11395,0.031,-0.973,-0.009,0.915,0.488,0.854,161.823
120093,147338,24053,0.029,-0.972,-0.009,0.915,0.488,0.854,161.826
120093,147240,11405,0.03,-0.968,-0.011,0,0.671,0.732,161.833
120110,147338,24053,0.03,-0.963,-0.016,0,0.671,0.732,161.836
120110,147221,11396,0.026,-0.969,-0.018,-1.098,0.793,0.671,161.843
120122,147338,24053,0.027,-0.979,-0.013,-1.098,0.793,0.671,161.846
120122,147242,11429,0.028,-0.98,-0.004,-1.037,0.549,0.732,161.852
120116,147338,24053,0.028,-0.978,-0.01,-1.037,0.549,0.732,161.856
120116,147244,11426,0.025,-0.974,-0.024,-2.012,0.549,0.488,161.862
120117,147338,24053,0.028,-0.971,-0.031,-2.012,0.549,0.488,161.866
120117,147235,11418,0.028,-0.969,-0.039,-2.561,0.305,0,161.872
120106,147338,24053,0.033,-0.972,-0.036,-2.561,0.305,0,161.876
120106,147254,11409,0.036,-0.975,-0.029,-0.244,-0.366,0,161.882
120103,147338,24053,0.038,-0.975,-0.026,-0.244,-0.366,0,161.886
120103,147215,11414,0.039,-0.966,-0.027,1.585,-0.061,0.122,161.892
120082,147082,24053,0.035,-0.964,-0.027,1.585,-0.061,0.122,161.896
120082,147189,11413,0.03,-0.964,-0.024,2.012,0.854,0.183,161.902
120123,147082,24053,0.027,-0.964,-0.018,2.012,0.854,0.183,161.906
120123,147197,11425,0.029,-0.965,-0.006,3.11,0.671,0.549,161.912
120114,147338,24053,0.032,-0.961,-0.004,3.11,0.671,0.549,161.916
120114,147213,11420,0.033,-0.961,-0.006,2.378,0.305,0.732,161.922
120127,147338,24053,0.033,-0.961,-0.006,2.378,0.305,0.732,161.925
120127,147203,11424,0.031,-0.971,-0.005,0.976,0.488,0.732,161.932
120141,147338,24053,0.031,-0.971,-0.005,0.976,0.488,0.732,161.935
120141,147230,11410,0.029,-0.973,-0.002,-0.427,0.671,0.976,161.942
120141,147338,24053,0.029,-0.973,-0.002,-0.427,0.671,0.976,161.945
120141,147235,11424,0.025,-0.968,-0.015,-2.805,0.671,1.037,161.951
120160,147338,24053,0.025,-0.968,-0.015,-2.805,0.671,1.037,161.955
120160,147240,11426,0.024,-0.976,-0.025,-2.927,0.793,0.732,161.961
120154,147338,24053,0.024,-0.976,-0.025,-2.927,0.793,0.732,161.965
120154,147243,11415,0.027,-0.983,-0.028,-1.646,0.244,0.488,161.971
120086,147338,24053,0.027,-0.983,-0.028,-1.646,0.244,0.488,161.975
120086,147222,11411,0.033,-0.97,-0.037,-1.341,0.122,0.061,161.981
120078,147338,24053,0.033,-0.97,-0.037,-1.341,0.122,0.061,161.985
120078,147203,11397,0.034,-0.963,-0.026,0.061,0.244,-0.061,161.991
120064,147082,24053,0.034,-0.963,-0.026,0.061,0.244,-0.061,161.995
120064,147178,11394,0.035,-0.964,-0.014,1.707,0.427,0.366,162.001
120056,147082,24053,0.035,-0.964,-0.014,1.707,0.427,0.366,162.005
120056,147188,11400,0.03,-0.961,-0.006,1.646,0.61,0.671,162.011
120044,147082,24053,0.03,-0.961,-0.006,1.646,0.61,0.671,162.015
120044,147168,11403,0.029,-0.956,0.001,0.488,0.549,0.976,162.021
120048,147082,24053,0.029,-0.956,0.001,0.488,0.549,0.976,162.024
120048,147173,11416,0.03,-0.961,-0,-1.768,0.732,0.915,162.031
120064,147338,24053,0.03,-0.961,-0,-1.768,0.732,0.915,162.034
120064,147203,11409,0.026,-0.969,-0.016,-3.537,0.366,0.915,162.041
120120,147338,24053,0.026,-0.969,-0.016,-3.537,0.366,0.915,162.044
120120,147214,11403,0.022,-0.979,-0.03,-3.902,-0.122,0.671,162.05
120117,147338,24053,0.022,-0.979,-0.03,-3.902,-0.122,0.671,162.054
120117,147232,11427,0.025,-0.99,-0.046,-2.561,-0.244,0.122,162.06
120152,147338,24053,0.025,-0.99,-0.046,-2.561,-0.244,0.122,162.064
120152,147244,11421,0.031,-0.986,-0.039,-0.488,-0.305,-0.366,162.07
120140,147338,24053,0.031,-0.986,-0.039,-0.488,-0.305,-0.366,162.074
120140,147242,11424,0.032,-0.983,-0.034,-0.488,-0.305,-0.366,162.08
120142,147338,24053,0.032,-0.977,-0.025,1.585,0.305,-0.549,162.084
120142,147231,11426,0.034,-0.966,-0.026,1.585,0.305,-0.549,162.09
120145,147338,24053,0.033,-0.96,-0.024,2.378,0.549,-0.183,162.094
120145,147231,11436,0.036,-0.96,-0.01,2.378,0.549,-0.183,162.1
120147,147338,24053,0.036,-0.954,0.002,2.927,0.427,0.183,162.104
120147,147224,11410,0.036,-0.951,-0.002,2.927,0.427,0.183,162.11
120134,147338,24053,0.036,-0.952,-0.003,1.646,0.854,0.427,162.114
120134,147253,11423,0.034,-0.957,-0.007,1.646,0.854,0.427,162.12
120148,147338,24053,0.032,-0.963,-0.006,0.122,1.037,0.793,162.123
120148,147232,11418,0.029,-0.968,-0.005,0.122,1.037,0.793,162.13
120162,147338,24053,0.03,-0.972,-0.012,-0.976,0.915,1.098,162.133
120162,147269,11405,0.027,-0.974,-0.02,-0.976,0.915,1.098,162.14
120204,147338,24053,0.025,-0.977,-0.021,-1.829,0.793,0.915,162.143
120204,147308,11413,0.023,-0.975,-0.026,-1.829,0.793,0.915,162.149
120219,147338,24053,0.022,-0.979,-0.032,-1.646,0.793,0.61,162.153
120219,147298,11411,0.024,-0.982,-0.036,-1.646,0.793,0.61,162.159
120236,147338,24053,0.027,-0.981,-0.037,-0.305,0.244,0.183,162.163
120236,147327,11424,0.027,-0.98,-0.034,-0.305,0.244,0.183,162.169
120274,147338,24053,0.03,-0.977,-0.027,1.28,0,-0.183,162.173
120274,147315,11430,0.033,-0.975,-0.022,1.28,0,-0.183,162.179
120258,147338,24053,0.029,-0.971,-0.013,2.439,0.366,-0.183,162.183
120258,147296,11436,0.027,-0.966,-0.007,2.439,0.366,-0.183,162.189
120248,147338,24053,0.027,-0.958,-0.007,1.524,0.61,-0.305,162.193
120248,147291,11427,0.029,-0.954,-0.007,1.524,0.61,-0.305,162.199
120225,147338,24053,0.032,-0.959,0.001,0.427,0.061,-0.427,162.203
120225,147273,11437,0.034,-0.963,0.003,0.427,0.061,-0.427,162.209
120210,147338,24053,0.035,-0.963,-0.001,-0.61,-0.305,-0.183,162.213
120210,147263,11440,0.033,-0.965,-0.014,-0.61,-0.305,-0.183,162.219
120212,147338,24053,0.031,-0.967,-0.02,-2.561,-0.061,0.061,162.222
120212,147290,11432,0.029,-0.971,-0.022,-2.561,-0.061,0.061,162.229
120204,147338,24053,0.031,-0.973,-0.022,-2.744,0,0.305,162.232
120204,147288,11423,0.031,-0.973,-0.023,-2.744,0,0.305,162.239
120225,147338,24053,0.029,-0.971,-0.028,-1.768,0.061,0.488,162.242
120225,147288,11422,0.031,-0.972,-0.035,-1.768,0.061,0.488,162.248
120241,147338,24053,0.033,-0.972,-0.034,-1.098,0.366,0.488,162.252
120241,147303,11426,0.031,-0.973,-0.029,-1.098,0.366,0.488,162.258
120282,147338,24053,0.031,-0.977,-0.024,0.915,0.671,0.671,162.262
120282,147309,11425,0.027,-0.977,-0.016,0.915,0.671,0.671,162.268
120300,147338,24053,0.025,-0.977,-0.016,1.951,0.793,0.793,162.272
120300,147337,11440,0.026,-0.969,-0.015,1.951,0.793,0.793,162.278
120311,147338,24053,0.028,-0.964,-0.018,1.159,0.732,0.61,162.282
120311,147317,11445,0.029,-0.963,-0.016,1.159,0.732,0.61,162.288
120288,147338,24053,0.028,-0.962,-0.009,0.305,0.305,0.305,162.292
120288,147304,11433,0.027,-0.964,-0.011,0.305,0.305,0.305,162.298
120284,147338,24053,0.029,-0.964,-0.015,-0.305,-0.061,0,162.302
120284,147295,11420,0.031,-0.965,-0.016,-0.305,-0.061,0,162.308
120223,147338,24053,0.033,-0.969,-0.019,-0.732,-0.305,-0.305,162.312
120223,147279,11416,0.032,-0.976,-0.02,-0.732,-0.305,-0.305,162.318
120213,147338,24053,0.035,-0.976,-0.028,-0.427,0,-0.244,162.322
120213,147283,11410,0.031,-0.98,-0.026,-0.427,0,-0.244,162.328
120173,147338,24053,0.029,-0.976,-0.027,0.427,0.427,-0.061,162.331
120173,147270,11401,0.033,-0.973,-0.021,0.427,0.427,-0.061,162.338
120182,147338,24053,0.032,-0.969,-0.018,1.28,0.244,0.122,162.341
120182,147237,11409,0.034,-0.964,-0.015,1.28,0.244,0.122,162.347
120161,147338,24053,0.032,-0.964,-0.014,1.646,0.427,0.244,162.351
120161,147275,11417,0.033,-0.961,-0.017,1.646,0.427,0.244,162.357
120171,147338,24053,0.034,-0.962,-0.018,1.463,0.61,0.305,162.361
120171,147289,11417,0.033,-0.969,-0.016,1.463,0.61,0.305,162.367
120181,147338,24053,0.036,-0.973,-0.011,1.646,0.305,0.61,162.371
120181,147266,11431,0.032,-0.971,-0.003,1.646,0.305,0.61,162.377
120214,147338,24053,0.032,-0.967,-0.005,0.488,0.427,0.915,162.381
120214,147266,11412,0.032,-0.962,-0.012,0.488,0.427,0.915,162.387
120205,147338,24053,0.026,-0.961,-0.01,-1.463,0.793,0.793,162.391
120205,147282,11426,0.025,-0.97,-0.016,-1.463,0.793,0.793,162.397
120177,147338,24053,0.023,-0.971,-0.021,-1.402,0.488,0.488,162.401
120177,147277,11436,0.03,-0.974,-0.028,-1.402,0.488,0.488,162.407
120179,147338,24053,0.031,-0.974,-0.026,-1.341,-0.244,0.305,162.411
120179,147260,11416,0.032,-0.974,-0.024,-1.341,-0.244,0.305,162.417
120166,147338,24053,0.033,-0.977,-0.023,-0.549,-0.061,-0.061,162.42
120166,147253,11410,0.033,-0.977,-0.022,-0.549,-0.061,-0.061,162.427
120127,147338,24053,0.029,-0.975,-0.023,0.488,0.488,0.061,162.43
120127,147256,11412,0.027,-0.976,-0.023,0.488,0.488,0.061,162.437
120151,147338,24053,0.028,-0.974,-0.022,0.854,0.488,0.183,162.44
120151,147240,11408,0.031,-0.968,-0.013,0.854,0.488,0.183,162.446
120150,147338,24053,0.032,-0.964,-0.007,0.671,0.183,0.183,162.45
120150,147223,11409,0.034,-0.963,-0.005,0.671,0.183,0.183,162.456
120162,147338,24053,0.032,-0.957,-0.007,-0.183,0.61,0.244,162.46
120162,147248,11417,0.028,-0.956,-0.013,-0.183,0.61,0.244,162.466
120134,147338,24053,0.029,-0.961,-0.023,-0.793,0.976,0.305,162.47
120134,147219,11417,0.03,-0.965,-0.027,-0.793,0.976,0.305,162.476
120148,147338,24053,0.032,-0.973,-0.021,0,0.305,0.366,162.48
120148,147264,11426,0.032,-0.978,-0.021,0,0.305,0.366,162.486
120136,147338,24053,0.034,-0.978,-0.025,0.671,0.061,0.244,162.49
120136,147272,11404,0.037,-0.977,-0.024,0.671,0.061,0.244,162.496
120137,147338,24053,0.032,-0.971,-0.025,0.427,0.732,0.183,162.5
120137,147277,11410,0.035,-0.968,-0.02,0.427,0.732,0.183,162.506
120153,147338,24053,0.032,-0.965,-0.012,0.793,0.61,0.366,162.51
120153,147258,11402,0.03,-0.965,-0.014,0.793,0.61,0.366,162.516
120129,147338,24053,0.03,-0.965,-0.014,0.793,0.61,0.366,162.519
120129,147270,11406,0.028,-0.972,-0.011,1.098,0.549,0.671,162.526
120133,147338,24053,0.028,-0.972,-0.011,1.098,0.549,0.671,162.529
120133,147249,11405,0.03,-0.968,-0.004,0.61,0.427,0.671,162.536
120119,147338,24053,0.03,-0.968,-0.004,0.61,0.427,0.671,162.539
120119,147218,11393,0.029,-0.968,-0.009,-0.61,0.244,0.671,162.545
120099,147338,24053,0.029,-0.968,-0.009,-0.61,0.244,0.671,162.549
120099,147223,11413,0.03,-0.974,-0.023,-1.463,0.61,0.671,162.555
